-17.74
-12.61
-5.95
0.99
7.06
11.52
14.3
15.82
16.67
17.28
17.77
17.96
17.54
16.34
14.35
11.83
9.12
6.56
4.38
2.7
1.5
0.62
-0.19
-1.27
-2.94
-5.38
-8.5
-11.84
-14.71
-16.28
-15.97
-13.59
-9.46
-4.36
0.77
5.12
8.26
10.14
10.98
11.06
10.57
9.6
8.22
6.59
5
3.8
3.14
3.01
3.14
3.16
2.78
1.91
0.61
-1.01
-2.86
-4.91
-7.06
-9.01
-10.24
-10.2
-8.51
-5.23
-0.91
3.65
7.69
10.74
12.71
13.72
14
13.7
12.95
11.82
10.43
8.92
7.42
5.98
4.6
3.3
2.1
1.02
0.02
-1.05
-2.41
-4.27
-6.65
-9.29
-11.61
-12.9
-12.55
-10.36
-6.69
-2.34
1.81
5.14
7.51
9.14
10.31
11.05
11.17
10.39
8.66
6.35
4.12
2.54
1.88
1.93
2.2
2.2
1.69
0.66
-0.7
-2.18
-3.57
-4.63
-5.01
-4.38
-2.47
0.71
4.85
9.44
13.94
17.92
21.17
23.57
25.07
25.67
25.44
24.61
23.6
22.86
22.74
23.38
24.73
26.67
29.13
32.06
35.29
38.45
40.89
42.03
41.68
40.23
38.67
38.15
39.42
42.47
46.51
50.28
52.6
52.75
50.59
46.35
40.45
33.2
24.88
15.86
6.72
-1.74
-8.81
-14.19
-18.19
-21.74
-25.93
-31.58
-38.91
-47.5
-56.53
-65.14
-72.63
-78.42
-82
-82.96
-81.27
-77.52
-72.96
-69.07
-66.91
-66.69
-67.73
-68.94
-69.48
-69.14
-68.32
-67.54
-67.02
-66.59
-65.83
-64.49
-62.66
-60.71
-59
-57.69
-56.59
-55.31
-53.33
-50.13
-45.3
-38.63
-30.26
-20.65
-10.52
-0.57
8.79
17.42
25.32
32.31
37.87
41.32
42.22
40.74
37.69
34.27
31.52
29.85
28.95
28.12
26.71
24.5
21.72
18.78
15.99
13.45
11.09
8.91
7.12
6.06
6.1
7.3
9.45
12.05
14.6
16.67
18.03
18.59
18.25
16.96
14.7
11.62
8.11
4.67
1.78
-0.31
-1.65
-2.58
-3.53
-4.78
-6.37
-8.05
-9.47
-10.22
-10.06
-8.93
-7.01
-4.58
-2.06
0.24
2.07
3.34
4.11
4.43
4.35
3.83
2.84
1.37
-0.44
-2.42
-4.33
-6.01
-7.37
-8.35
-8.93
-9.05
-8.71
-7.99
-7.01
-5.8
-4.21
-1.86
1.67
6.63
12.88
19.86
26.9
33.49
39.61
45.64
51.94
58.44
64.5
69.1
71.47
71.55
70.06
68.17
66.84
66.33
66.05
64.86
61.65
55.71
46.92
35.78
23.21
10.56
-0.53
-8.36
-11.65
-10.04
-4.4
3.29
10.54
15.09
15.58
11.85
4.76
-4.32
-14.02
-23.22
-31.19
-37.4
-41.44
-43.07
-42.21
-39.16
-34.53
-29.17
-23.97
-19.62
-16.46
-14.43
-13.18
-12.16
-10.74
-8.38
-4.66
0.54
7.01
14.19
21.36
27.78
32.98
36.74
39.05
39.97
39.52
37.59
34.09
29.04
22.7
15.59
8.39
1.73
-3.9
-8.3
-11.63
-14.23
-16.54
-18.87
-21.33
-23.74
-25.76
-26.86
-26.61
-24.78
-21.42
-16.92
-11.9
-7
-2.75
0.61
3.06
4.73
5.79
6.29
6.26
5.62
4.34
2.49
0.27
-2.05
-4.19
-5.98
-7.41
-8.61
-9.78
-11.04
-12.42
-13.85
-15.28
-16.75
-18.33
-20.04
-21.62
-22.57
-22.25
-20.19
-16.32
-11.02
-5.04
0.82
5.89
9.82
12.53
14.09
14.64
14.21
12.82
10.53
7.51
4.1
0.73
-2.28
-4.8
-6.89
-8.75
-10.56
-12.38
-14.16
-15.77
-17.16
-18.4
-19.78
-21.64
-24.3
-27.91
-32.23
-36.66
-40.31
-42.29
-42.12
-40.03
-36.88
-33.87
-32.03
-31.82
-33.04
-35.12
-37.53
-40.11
-43.17
-47.27
-52.86
-60.02
-68.42
-77.39
-86.24
-94.41
-101.71
-108.3
-114.65
-121.45
-129.4
-138.96
-150.07
-161.74
-171.95
-177.84
-176.4
-165.32
-143.93
-113.7
-77.98
-41.02
-6.79
22.08
44.64
61.24
72.76
80.06
83.78
84.51
83.04
80.37
77.4
74.63
72.01
69.11
65.59
61.56
57.62
54.53
52.91
52.93
54.46
57.22
60.88
64.99
68.78
71.14
70.8
66.78
58.87
47.77
34.9
22.03
10.82
2.6
-1.74
-1.65
2.95
11.57
23.04
35.75
48.02
58.57
66.81
72.73
76.53
78.4
78.55
77.47
76.08
75.47
76.29
78.3
80.38
81.32
80.67
79.34
79.05
81.19
85.62
90.39
92.66
90.32
83.33
73.71
64.44
57.68
53.6
50.47
45.84
37.96
26.6
12.96
-1.25
-14.75
-27.14
-38.77
-50.09
-61.19
-71.48
-79.97
-85.63
-87.87
-86.77
-83.13
-78.23
-73.38
-69.55
-67.15
-66.11
-66.12
-66.83
-67.8
-68.36
-67.51
-64.13
-57.43
-47.51
-35.55
-23.5
-13.39
-6.56
-3.29
-2.93
-4.32
-6.3
-8.06
-9.11
-9.15
-7.96
-5.47
-1.79
2.76
7.63
12.29
16.35
19.79
22.81
25.78
28.92
32.19
35.22
37.48
38.52
38.18
36.76
34.88
33.24
32.28
31.94
31.68
30.69
28.28
24.26
19.08
13.67
9.07
6.05
4.75
4.81
5.46
6
5.92
4.97
3.05
0.08
-3.93
-8.78
-13.8
-17.92
-19.87
-18.72
-14.34
-7.53
0.19
7.21
12.44
15.51
16.7
16.58
15.6
13.97
11.72
8.96
5.95
3.12
0.91
-0.41
-0.89
-0.89
-1.06
-2.19
-5.08
-10.29
-17.9
-27.38
-37.49
-46.55
-52.85
-55.24
-53.51
-48.45
-41.57
-34.49
-28.48
-24.09
-21.2
-19.25
-17.45
-14.76
-9.89
-1.53
11.02
27.14
44.6
60.12
70.54
74.14
71.21
63.51
53.15
41.61
29.38
16.51
3.29
-9.22
-19.54
-26.52
-29.99
-30.95
-31.03
-31.73
-33.84
-37.31
-41.39
-44.94
-46.84
-46.31
-43.1
-37.66
-30.97
-24.29
-18.77
-15.17
-13.82
-14.72
-17.6
-21.99
-27.24
-32.38
-36.26
-37.91
-36.77
-33.09
-27.87
-22.55
-18.58
-16.97
-18.09
-21.73
-27.34
-34.31
-42.13
-50.39
-58.66
-66.51
-73.55
-79.56
-84.57
-88.91
-93.06
-97.44
-102.17
-106.83
-110.44
-111.75
-109.56
-103.25
-93.1
-80.21
-66.19
-52.55
-40.33
-29.98
-21.54
-14.91
-10.08
-6.99
-5.3
-4.35
-3.28
-1.35
1.71
5.59
9.57
12.82
14.72
15.08
14.19
12.72
11.6
11.74
13.71
17.57
22.78
28.48
33.86
38.41
42.05
44.91
47.1
48.59
49.29
49.27
48.93
48.93
49.87
51.9
54.58
56.97
58.21
57.8
55.83
52.8
49.28
45.68
42.33
39.54
37.77
37.58
39.43
43.37
48.87
54.94
60.34
63.93
64.88
62.86
58.07
51.19
43.33
35.74
29.42
24.89
22
20.09
18.28
15.82
12.31
7.9
3.23
-0.76
-3.1
-3.11
-0.7
3.57
8.68
13.62
17.63
20.31
21.41
20.56
17.11
10.39
0.18
-12.93
-27.49
-41.79
-54.47
-65.11
-74.26
-83.09
-92.94
-104.86
-119.38
-136.29
-154.44
-171.73
-185.3
-192.1
-189.93
-178.33
-159.04
-135.66
-112.4
-92.63
-77.55
-66.02
-55.3
-42.56
-26.35
-7.32
12.1
28.75
40.17
45.56
45.89
43.29
40.06
37.87
37.56
39.27
42.79
47.68
53.1
57.76
60.02
58.59
53.31
45.5
37.75
32.78
32.23
35.87
41.75
47.14
49.84
49.03
45.31
40.1
34.77
29.98
25.63
21.09
15.7
9.18
1.83
-5.46
-11.52
-15.21
-15.81
-13.2
-7.84
-0.59
7.59
15.84
23.44
29.78
34.34
36.69
36.68
34.62
31.31
28.01
26.03
26.28
28.98
33.49
38.57
42.74
44.83
44.28
41.18
36.12
29.98
23.64
17.94
13.58
11.08
10.67
12.28
15.45
19.42
23.42
26.77
29.08
30.13
29.9
28.39
25.61
21.76
17.27
12.79
9.1
6.8
6.05
6.53
7.49
8.09
7.73
6.21
3.74
0.67
-2.69
-6.13
-9.45
-12.28
-14.06
-14.11
-11.91
-7.4
-1.02
6.47
14.25
21.74
28.64
34.8
40.05
44.09
46.66
47.61
47.12
45.54
43.3
40.77
38.13
35.52
33.02
30.82
29.07
27.81
26.86
25.84
24.26
21.64
17.63
12.07
5.16
-2.45
-9.64
-15.07
-17.5
-16.38
-12.08
-5.81
0.81
6.32
9.94
11.63
11.91
11.41
10.48
9.13
7.23
4.78
2.16
0.07
-0.7
0.41
3.45
7.9
12.85
17.37
20.82
23.07
24.4
25.22
25.86
26.4
26.7
26.6
25.98
24.73
22.7
19.7
15.62
10.67
5.52
1.32
-0.71
0.21
4.04
9.89
16.33
21.97
26
28.29
29.26
29.45
29.08
27.94
25.52
21.34
15.35
8.06
0.35
-6.75
-12.45
-16.36
-18.51
-19.22
-18.95
-18.11
-17.11
-16.35
-16.28
-17.35
-19.82
-23.68
-28.57
-33.88
-38.99
-43.46
-47.2
-50.29
-52.79
-54.37
-54.36
-52
-46.79
-38.9
-29.18
-18.89
-9.26
-1.07
5.43
10.48
14.43
17.55
19.93
21.59
22.62
23.27
23.93
24.95
26.6
28.92
31.75
34.76
37.59
39.95
41.69
42.85
43.56
43.94
44.01
43.6
42.36
39.93
36.05
30.67
23.89
15.94
7.15
-1.94
-10.42
-17.13
-20.88
-20.98
-17.65
-12.07
-6.05
-1.32
1.1
1.25
0.05
-1.32
-1.94
-1.5
-0.3
1.1
2.13
2.45
1.88
0.39
-2.02
-5.23
-8.91
-12.5
-15.27
-16.64
-16.4
-14.96
-13.24
-12.4
-13.43
-16.71
-21.94
-28.28
-34.77
-40.69
-45.84
-50.33
-54.29
-57.55
-59.5
-59.47
-57.06
-52.54
-46.74
-40.75
-35.34
-30.67
-26.24
-21.36
-15.6
-9.12
-2.62
2.99
7.13
9.75
11.45
13.08
15.44
18.85
23.05
27.31
30.63
32.22
31.72
29.31
25.61
21.44
17.39
13.69
10.08
5.99
0.77
-6.21
-15.29
-26.23
-37.95
-48.19
-53.74
-51.2
-38.28
-14.89
16.38
50.98
84.03
111.92
133.12
147.83
156.83
160.56
158.99
152.14
140.92
127.29
113.63
101.79
92.31
84.3
76.13
66.28
53.9
38.83
21.4
2.14
-18.28
-39.06
-59.34
-78.34
-95.58
-110.79
-123.71
-133.83
-140.31
-142.14
-138.58
-129.42
-115.16
-96.86
-75.81
-53.23
-30.2
-7.67
13.46
32.33
48.25
60.87
70.3
77.17
82.48
87.34
92.7
99.08
106.45
114.24
121.62
127.73
132.04
134.65
136.2
137.73
140.29
144.51
150.32
156.85
162.48
165.19
162.99
154.45
139.23
118.45
94.7
71.51
52.31
39.29
32.62
30.36
29.3
26.17
18.7
6.13
-11.09
-31.99
-55.61
-81.23
-108.09
-135.19
-161.3
-185.28
-206.55
-225.26
-241.94
-256.98
-270.29
-281.34
-289.59
-294.89
-297.59
-298.2
-296.92
-293.32
-286.43
-275.25
-259.25
-238.74
-214.73
-188.72
-162.34
-137.1
-114.23
-94.55
-78.44
-65.77
-55.96
-48.2
-41.7
-35.83
-30.29
-24.95
-19.79
-14.8
-9.9
-5.03
-0.15
4.55
8.82
12.28
14.63
15.72
15.5
14.03
11.49
8.22
4.84
2.22
1.3
2.76
6.71
12.62
19.49
26.22
31.94
36.17
38.75
39.59
38.64
35.88
31.51
26.13
20.62
15.94
12.66
10.83
9.85
8.87
7.08
4.03
-0.31
-5.58
-11.16
-16.29
-20.1
-21.72
-20.42
-15.89
-8.4
1.21
11.67
21.72
30.35
37.02
41.52
43.85
44.07
42.34
38.97
34.49
29.58
24.95
21.07
17.98
15.3
12.33
8.33
2.85
-4.03
-11.56
-18.44
-23.15
-24.43
-21.66
-15.14
-5.91
4.66
15.23
24.95
33.35
40.2
45.25
48.06
48.22
45.63
40.77
34.74
28.92
24.46
21.79
20.46
19.41
17.35
13.33
7.08
-0.84
-9.25
-16.58
-21.3
-22.31
-19.15
-12.16
-2.28
9.17
20.83
31.57
40.56
47.19
51.06
51.99
50.08
45.9
40.45
34.92
30.45
27.72
26.8
27.17
27.85
27.71
25.7
21.27
14.56
6.58
-1.01
-6.3
-7.8
-4.94
1.73
10.84
20.7
29.92
37.72
43.83
48.17
50.52
50.53
47.91
42.8
35.94
28.59
22.06
17.3
14.55
13.42
13.03
12.46
10.95
8.13
3.98
-1.02
-5.94
-9.53
-10.48
-7.85
-1.45
8.03
19.11
29.97
39
45.13
47.97
47.66
44.63
39.39
32.45
24.35
15.71
7.17
-0.63
-7.24
-12.51
-16.54
-19.72
-22.55
-25.53
-29.09
-33.45
-38.4
-43.19
-46.57
-47.11
-43.67
-35.95
-24.64
-11.27
2.31
14.55
24.58
32.21
37.62
40.95
42.17
41.17
38.04
33.29
27.82
22.68
18.68
16.17
14.9
14.26
13.55
12.2
9.85
6.37
1.85
-3.4
-8.7
-13.02
-15.13
-13.88
-8.72
0.09
11.37
23.38
34.37
43.02
48.81
51.88
52.79
52.17
50.48
47.96
44.67
40.58
35.54
29.36
21.72
12.33
1.07
-11.75
-25.31
-38.35
-49.6
-58.12
-63.56
-66.08
-66.08
-63.84
-59.37
-52.48
-43.22
-32.09
-20.18
-8.82
0.86
8.22
13.23
16.27
17.83
18.27
17.73
16.32
14.21
11.71
9.21
7.08
5.53
4.57
4.05
3.67
3.05
1.81
-0.42
-3.86
-8.47
-13.8
-18.93
-22.61
-23.61
-21.14
-15.16
-6.45
3.58
13.33
21.52
27.37
30.69
31.69
30.75
28.23
24.52
20.02
15.24
10.75
6.99
4.22
2.4
1.26
0.42
-0.43
-1.53
-3.02
-5.01
-7.65
-11.11
-15.33
-19.87
-23.81
-25.91
-25.04
-20.63
-13.02
-3.39
6.55
15.21
21.46
24.95
25.92
24.95
22.67
19.58
16.09
12.62
9.53
7.09
5.35
4.13
3.09
1.83
0.19
-1.75
-3.68
-5.36
-6.8
-8.39
-10.67
-13.99
-18.1
-21.96
-24.1
-23.12
-18.45
-10.57
-0.96
8.53
16.33
21.64
24.46
25.24
24.47
22.43
19.21
14.99
10.2
5.55
1.81
-0.57
-1.64
-1.94
-2.18
-2.89
-4.18
-5.82
-7.49
-9.11
-10.9
-13.19
-16.08
-19.03
-21.02
-20.82
-17.6
-11.32
-2.87
6.31
14.72
21.3
25.64
27.95
28.73
28.56
27.9
27.01
26.1
25.32
24.79
24.62
24.84
25.43
26.32
27.42
28.62
29.75
30.66
31.18
31.38
31.67
32.85
35.91
41.64
50.24
61.15
73.13
84.59
94.09
100.57
103.49
102.68
98.31
90.76
80.78
69.32
57.47
46.14
35.89
26.92
19.16
12.44
6.68
1.78
-2.38
-6.06
-9.52
-12.9
-16.03
-18.44
-19.59
-19.21
-17.52
-15.24
-13.35
-12.71
-13.89
-17.05
-22.2
-29.45
-39.08
-51.4
-66.45
-83.7
-101.96
-119.69
-135.32
-147.67
-156.02
-160.06
-159.72
-155.18
-146.88
-135.6
-122.32
-107.9
-92.71
-76.52
-58.68
-38.72
-16.76
6.26
28.83
49.35
66.54
79.65
88.41
92.79
93.04
89.78
84.17
77.81
72.34
68.83
67.23
66.35
64.28
59.31
50.65
38.71
24.91
11.04
-1.31
-11.01
-17.45
-20.43
-20.14
-17.27
-13.11
-9.41
-7.96
-10.09
-16.35
-26.41
-39.42
-54.21
-69.63
-84.59
-98.15
-109.68
-118.91
-125.94
-131.12
-134.83
-137.36
-138.89
-139.68
-140.05
-140.23
-140.12
-138.99
-135.71
-129.15
-118.75
-104.86
-88.67
-71.7
-55.33
-40.45
-27.52
-16.78
-8.47
-2.8
0.19
0.82
-0.18
-1.9
-3.57
-4.81
-5.74
-6.85
-8.73
-11.85
-16.36
-22.16
-28.94
-36.27
-43.54
-49.91
-54.37
-55.78
-53.3
-46.67
-36.44
-23.89
-10.66
1.73
12.22
20.39
26.29
30.22
32.46
33.26
32.84
31.55
29.84
28.28
27.37
27.38
28.23
29.46
30.39
30.23
28.32
24.38
18.76
12.5
7.17
4.48
5.79
11.64
21.5
33.98
47.13
59
68.08
73.49
74.98
72.68
66.95
58.15
46.69
33.07
18.03
2.55
-12.22
-25.16
-35.43
-42.6
-46.83
-48.69
-49.11
-49.15
-49.69
-51.14
-53.25
-55.03
-55.05
-51.9
-44.71
-33.55
-19.48
-4.15
10.67
23.57
33.69
40.66
44.47
45.28
43.43
39.49
34.31
28.87
24.07
20.49
18.23
16.95
16.09
15.06
13.37
10.7
6.83
1.73
-4.37
-10.76
-16.33
-19.69
-19.57
-15.26
-6.93
4.31
16.71
28.42
37.94
44.47
47.89
48.53
46.93
43.62
39.12
34.01
28.99
24.81
22.03
20.82
20.8
21.27
21.42
20.61
18.49
14.9
9.85
3.53
-3.46
-10.05
-14.67
-15.83
-12.62
-5.3
4.74
15.42
24.77
31.59
35.63
37.31
37.19
35.57
32.47
27.93
22.25
16.14
10.54
6.23
3.56
2.35
2.03
1.88
1.3
-0.17
-2.76
-6.52
-11.19
-16.07
-20
-21.55
-19.46
-13.21
-3.32
8.71
20.92
31.54
39.44
44.29
46.33
45.93
43.41
39.03
33.2
26.65
20.27
14.93
11.07
8.69
7.27
6.15
4.67
2.37
-1.01
-5.53
-11.01
-16.95
-22.45
-26.35
-27.45
-24.87
-18.44
-8.81
2.7
14.44
24.84
32.83
37.92
40.15
39.89
37.64
33.96
29.4
24.53
19.93
16.01
13.02
10.89
9.3
7.77
5.8
2.94
-1.1
-6.37
-12.61
-19.15
-24.87
-28.45
-28.71
-25.03
-17.62
-7.56
3.51
13.91
22.32
28.09
31.11
31.62
30
26.65
22.11
17.05
12.3
8.6
6.41
5.72
6.07
6.74
6.96
6.11
3.84
0.03
-5.13
-11.14
-17.19
-22.16
-24.88
-24.51
-20.8
-14.26
-5.96
2.79
10.84
17.39
22.06
24.71
25.26
23.68
20.1
14.96
9.09
3.57
-0.67
-3.09
-3.77
-3.3
-2.56
-2.39
-3.43
-6
-10.04
-15.09
-20.23
-24.19
-25.69
-23.87
-18.64
-10.8
-1.76
6.98
14.3
19.71
23.16
24.78
24.69
22.89
19.54
15.08
10.27
6.01
2.99
1.45
1.09
1.29
1.33
0.63
-1.14
-4
-7.67
-11.48
-14.42
-15.37
-13.42
-8.22
-0.17
9.68
20.01
29.57
37.48
43.3
46.92
48.4
48
46.13
43.35
40.17
36.82
33
27.9
20.56
10.25
-3.11
-18.78
-35.37
-51.15
-64.37
-73.61
-77.91
-76.85
-70.68
-60.26
-46.96
-32.36
-17.99
-4.96
6.05
14.79
21.3
25.78
28.6
30.33
31.75
33.67
36.64
40.74
45.51
50.1
53.53
55.03
54.13
50.85
45.73
39.79
34.34
30.71
29.83
31.84
36.11
41.5
46.84
51.3
54.5
56.22
56.21
54.11
49.63
42.88
34.5
25.53
16.97
9.35
2.56
-4.05
-11.33
-19.96
-30.2
-41.87
-54.33
-66.63
-77.82
-87.18
-94.44
-99.82
-103.75
-106.48
-107.81
-107.08
-103.49
-96.57
-86.59
-74.58
-62.08
-50.54
-40.92
-33.45
-27.76
-23.15
-19.09
-15.31
-11.91
-9.09
-7.01
-5.62
-4.77
-4.34
-4.35
-4.89
-5.89
-6.91
-7.18
-5.84
-2.29
3.45
10.77
18.67
26.14
32.48
37.35
40.67
42.44
42.68
41.44
38.9
35.43
31.57
27.8
24.42
21.4
18.52
15.53
12.36
9.1
5.96
3.11
0.56
-1.89
-4.49
-7.46
-10.94
-14.97
-19.46
-24.07
-28.19
-30.92
-31.36
-28.93
-23.69
-16.42
-8.34
-0.66
5.82
10.85
14.61
17.43
19.49
20.79
21.19
20.59
19.07
16.96
14.71
12.8
11.55
11
10.91
10.89
10.57
9.77
8.54
7.05
5.49
3.89
2.18
0.31
-1.71
-3.78
-5.86
-8.1
-10.78
-14.18
-18.24
-22.47
-25.94
-27.67
-27.02
-23.95
-19.02
-13.14
-7.23
-1.86
2.75
6.67
10.1
13.2
16.06
18.71
21.16
23.45
25.63
27.67
29.49
30.95
31.78
31.72
30.6
28.4
25.35
21.8
18.16
14.7
11.51
8.47
5.42
2.19
-1.21
-4.65
-8.01
-11.22
-14.29
-17.2
-19.74
-21.48
-21.87
-20.47
-17.21
-12.5
-7.09
-1.83
2.69
6.19
8.65
10.06
10.27
9.07
6.31
2.22
-2.53
-7.06
-10.53
-12.53
-13.27
-13.39
-13.77
-15.05
-17.43
-20.61
-24.03
-27.13
-29.64
-31.7
-33.66
-35.97
-38.84
-42.26
-45.95
-49.57
-52.72
-55
-55.99
-55.28
-52.63
-48.09
-42.1
-35.4
-28.8
-22.97
-18.28
-14.8
-12.37
-10.75
-9.63
-8.68
-7.61
-6.14
-4.14
-1.65
1.16
3.98
6.5
8.48
9.91
10.96
11.95
13.18
14.8
16.66
18.4
19.61
20.02
19.55
18.24
16.23
13.61
10.58
7.42
4.46
1.98
-0.05
-1.96
-4.31
-7.54
-11.71
-16.41
-20.97
-24.75
-27.41
-29
-29.79
-30.04
-29.87
-29.25
-28.07
-26.34
-24.17
-21.78
-19.38
-17.05
-14.88
-12.87
-11.17
-9.94
-9.41
-9.78
-11.18
-13.64
-16.99
-20.86
-24.56
-27.2
-27.87
-25.97
-21.47
-15.01
-7.68
-0.59
5.42
10
13.19
15.19
16.17
16.24
15.5
14.25
12.94
12.12
12.16
13.12
14.72
16.47
17.94
18.92
19.45
19.71
19.83
19.74
19.19
17.96
16.08
14.01
12.49
12.35
14.1
17.8
23.05
29.25
35.85
42.5
49.07
55.38
61.01
65.34
67.65
67.49
64.91
60.5
55.24
50.16
45.94
42.79
40.39
38.17
35.57
32.33
28.42
23.96
19.02
13.51
7.29
0.47
-6.5
-12.72
-17.21
-19.33
-19.05
-17.03
-14.32
-12.01
-10.86
-11.33
-13.63
-17.79
-23.68
-30.81
-38.36
-45.27
-50.59
-53.84
-55.04
-54.72
-53.54
-52.08
-50.66
-49.52
-48.81
-48.73
-49.36
-50.51
-51.72
-52.36
-51.92
-50.24
-47.53
-44.2
-40.58
-36.85
-33.01
-29.11
-25.39
-22.33
-20.42
-19.88
-20.55
-21.82
-22.96
-23.37
-22.82
-21.44
-19.59
-17.7
-16.17
-15.21
-14.88
-15.01
-15.14
-14.63
-12.77
-9.07
-3.47
3.58
11.28
18.75
25.25
30.34
33.78
35.41
35.16
33.05
29.37
24.67
19.65
14.98
11.04
7.82
5.03
2.24
-0.92
-4.64
-8.77
-12.88
-16.3
-18.27
-18.22
-15.98
-11.87
-6.63
-1.1
4.03
8.47
12.19
15.17
17.21
17.81
16.48
13.02
7.81
1.73
-4.09
-8.75
-11.76
-13.25
-13.7
-13.74
-13.93
-14.54
-15.57
-16.68
-17.33
-16.89
-14.99
-11.51
-6.75
-1.24
4.48
9.92
14.79
18.78
21.63
23.06
22.97
21.55
19.29
16.83
14.73
13.31
12.55
12.21
11.96
11.42
10.29
8.39
5.84
3.09
0.95
0.41
2.3
6.9
13.85
22.22
30.88
38.9
45.72
51.17
55.3
58.18
59.86
60.41
60.06
59.24
58.53
58.48
59.41
61.2
63.29
64.89
65.25
64.01
61.4
58.17
55.37
53.95
54.38
56.64
60.37
65.16
70.75
76.98
83.49
89.57
94.17
96.18
94.91
90.36
83.29
74.93
66.56
59.13
53.04
48.08
43.57
38.56
32.1
23.57
12.98
1.08
-10.72
-20.82
-27.94
-31.53
-31.83
-29.63
-25.89
-21.41
-16.77
-12.42
-8.87
-6.65
-6.16
-7.39
-9.88
-12.93
-16.02
-19.14
-22.84
-27.96
-35.13
-44.49
-55.59
-67.64
-79.72
-91
-100.78
-108.58
-114.12
-117.52
-119.3
-120.16
-120.61
-120.59
-119.42
-116.25
-110.73
-103.45
-95.92
-89.88
-86.44
-85.43
-85.55
-84.99
-82.39
-77.4
-70.65
-63.25
-56.13
-49.71
-44.01
-39.06
-35.16
-32.65
-31.62
-31.48
-31
-28.73
-23.72
-16
-6.62
2.76
10.56
15.85
18.56
19.17
18.35
16.52
13.81
10.1
5.37
-0.23
-6.31
-12.37
-17.97
-22.8
-26.7
-29.68
-31.76
-32.96
-33.29
-32.84
-31.91
-30.93
-30.37
-30.42
-30.78
-30.57
-28.68
-24.15
-16.71
-6.94
3.89
14.36
23.35
30.34
35.37
38.78
40.83
41.7
41.46
40.26
38.38
36.23
34.14
32.28
30.59
28.87
26.92
24.61
21.92
18.93
15.76
12.51
9.26
5.98
2.56
-0.97
-4.32
-6.89
-7.84
-6.47
-2.59
3.26
9.89
15.85
20.05
22.07
22.23
21.23
19.74
18.11
16.3
14.13
11.47
8.5
5.62
3.3
1.83
1.1
0.72
0.22
-0.74
-2.24
-4.2
-6.58
-9.54
-13.39
-18.28
-23.87
-29.15
-32.61
-32.76
-28.79
-20.91
-10.4
0.92
11.21
19.3
24.8
28.02
29.61
30.19
30.07
29.35
28.03
26.23
24.28
22.62
21.55
21.14
21.13
21.02
20.31
18.7
16.07
12.47
7.97
2.66
-3.2
-8.99
-13.63
-15.76
-14.15
-8.21
1.65
14.12
27.31
39.51
49.56
57.19
62.77
66.98
70.32
73.02
75.04
76.28
76.74
76.56
75.88
74.76
73.17
71.05
68.32
64.92
60.73
55.52
49.02
41.04
31.68
21.44
11.25
2.28
-4.32
-7.62
-7.22
-3.3
3.32
11.43
19.57
26.5
31.31
33.59
33.26
30.44
25.41
18.54
10.35
1.52
-7.22
-15.29
-22.36
-28.48
-33.9
-38.79
-43.04
-46.18
-47.59
-46.82
-43.96
-39.66
-34.91
-30.44
-26.37
-22.13
-16.92
-10.28
-2.5
5.35
11.99
16.57
19.05
20.16
20.9
21.97
23.41
24.75
25.39
25.15
24.4
23.91
24.46
26.43
29.57
33.1
36.01
37.31
36.22
32.24
25
14.42
0.84
-14.74
-30.75
-45.24
-56.59
-63.97
-67.58
-68.4
-67.69
-66.59
-65.95
-66.34
-68.08
-71.14
-74.9
-78.18
-79.51
-77.71
-72.48
-64.56
-55.36
-46.27
-38.09
-30.87
-24.33
-18.35
-13.31
-9.96
-9.13
-11.32
-16.43
-23.83
-32.48
-41.22
-49.01
-55.13
-59.19
-61.1
-60.88
-58.59
-54.27
-48.03
-40.21
-31.51
-22.87
-15.19
-9.09
-4.66
-1.59
0.64
2.5
4.22
5.84
7.29
8.5
9.43
9.98
9.91
8.86
6.56
3.04
-1.05
-4.56
-6.19
-4.98
-0.72
5.89
13.6
21.12
27.52
32.45
35.93
38.02
38.59
37.42
34.44
29.96
24.79
19.94
16.24
14.01
13.04
12.73
12.43
11.61
9.99
7.43
3.9
-0.46
-5.15
-9.31
-11.81
-11.61
-8.17
-1.72
6.78
15.91
24.24
30.68
34.64
35.99
34.9
31.75
27.05
21.48
15.76
10.67
6.79
4.37
3.3
3.06
2.91
2.1
0.09
-3.32
-7.83
-12.74
-17.1
-19.93
-20.46
-18.36
-13.81
-7.45
-0.25
6.74
12.54
16.48
18.23
17.84
15.63
12.17
8.11
4.07
0.55
-2.17
-4
-5.1
-5.82
-6.66
-8.1
-10.53
-13.96
-18.03
-21.91
-24.52
-24.88
-22.45
-17.35
-10.34
-2.54
4.95
11.3
15.99
18.78
19.57
18.38
15.39
11.06
6.08
1.32
-2.46
-4.87
-6
-6.44
-7.06
-8.71
-11.9
-16.51
-21.72
-26.18
-28.42
-27.36
-22.73
-15.16
-6
3.19
11.08
16.88
20.37
21.67
21.11
18.99
15.67
11.64
7.52
3.93
1.32
-0.26
-1.23
-2.32
-4.29
-7.51
-11.86
-16.6
-20.62
-22.8
-22.29
-18.86
-12.88
-5.26
2.86
10.49
16.95
21.92
25.27
26.93
26.8
24.85
21.31
16.75
12.02
7.96
5.06
3.26
2
0.47
-1.94
-5.4
-9.47
-13.26
-15.7
-15.88
-13.38
-8.36
-1.51
6.17
13.66
20.1
24.9
27.74
28.51
27.35
24.63
20.95
17.02
13.47
10.67
8.65
7.09
5.51
3.35
0.23
-3.89
-8.59
-12.97
-15.9
-16.36
-13.83
-8.53
-1.41
6.32
13.51
19.44
23.85
26.74
28.13
27.98
26.3
23.25
19.27
15.01
11.12
8.05
5.88
4.39
3.04
1.25
-1.41
-4.99
-8.98
-12.4
-14.13
-13.3
-9.76
-4.07
2.7
9.45
15.49
20.59
24.83
28.21
30.42
31.02
29.65
26.46
22.1
17.56
13.69
10.89
8.99
7.45
5.67
3.22
-0.05
-4.05
-8.56
-13.17
-17.25
-19.95
-20.42
-18.06
-12.85
-5.4
3.13
11.52
18.79
24.46
28.5
31.1
32.4
32.44
31.24
28.92
25.78
22.29
18.88
15.84
13.19
10.84
8.59
6.35
4.06
1.69
-0.84
-3.71
-7.15
-11.32
-16.26
-21.71
-27.04
-31.32
-33.46
-32.58
-28.36
-21.2
-12.22
-2.84
5.65
12.56
17.85
21.9
25.07
27.43
28.76
28.75
27.46
25.4
23.45
22.51
23.06
25.01
27.74
30.44
32.44
33.49
33.7
33.4
32.88
32.12
30.84
28.55
24.84
19.5
12.62
4.5
-4.41
-13.55
-22.23
-29.59
-34.69
-36.73
-35.38
-30.89
-24.15
-16.4
-8.81
-2.14
3.34
7.83
11.59
14.79
17.35
19.06
19.73
19.43
18.52
17.55
17
17.14
17.92
19.07
20.32
21.48
22.47
23.18
23.32
22.49
20.32
16.7
11.93
6.64
1.51
-3.04
-7.1
-11.21
-16.06
-21.95
-28.47
-34.5
-38.57
-39.44
-36.66
-30.81
-23.21
-15.41
-8.57
-3.18
0.95
4.32
7.3
9.95
12.01
13.15
13.23
12.4
11.07
9.65
8.38
7.24
6.06
4.58
2.68
0.35
-2.32
-5.27
-8.4
-11.67
-15.02
-18.35
-21.59
-24.67
-27.62
-30.45
-33.2
-35.91
-38.64
-41.37
-43.95
-46.05
-47.12
-46.55
-43.92
-39.28
-33.28
-26.95
-21.39
-17.3
-14.88
-13.82
-13.61
-13.85
-14.38
-15.24
-16.44
-17.8
-18.88
-19.17
-18.31
-16.26
-13.39
-10.23
-7.34
-5.15
-3.87
-3.51
-3.9
-4.74
-5.71
-6.54
-7.08
-7.38
-7.73
-8.47
-9.9
-12.09
-14.82
-17.66
-19.98
-21.16
-20.65
-18.18
-13.73
-7.71
-0.77
6.3
12.72
17.97
21.77
24.09
25.06
24.91
23.83
22.08
19.97
17.88
16.21
15.24
15.04
15.35
15.7
15.53
14.48
12.44
9.63
6.43
3.24
0.35
-2.09
-4.13
-5.87
-7.51
-9.25
-11.3
-13.75
-16.42
-18.89
-20.51
-20.63
-18.8
-15.03
-9.7
-3.57
2.61
8.22
12.91
16.49
18.84
19.82
19.33
17.48
14.66
11.56
8.88
7.14
6.39
6.29
6.24
5.71
4.49
2.71
0.76
-0.98
-2.34
-3.36
-4.3
-5.47
-7.09
-9.21
-11.79
-14.62
-17.39
-19.71
-21.05
-20.98
-19.2
-15.71
-10.85
-5.16
0.65
5.93
10.13
12.9
14.07
13.69
12.02
9.51
6.68
4.09
2.12
0.97
0.61
0.78
1.11
1.22
0.81
-0.2
-1.67
-3.34
-4.94
-6.37
-7.8
-9.51
-11.81
-14.75
-18.02
-20.93
-22.65
-22.4
-19.85
-15.22
-9.23
-2.89
2.83
7.24
10.05
11.27
11.12
9.86
7.78
5.18
2.41
-0.13
-2.11
-3.28
-3.58
-3.14
-2.28
-1.41
-0.92
-1.06
-1.93
-3.48
-5.59
-8.05
-10.57
-12.69
-13.8
-13.32
-10.91
-6.68
-1.18
4.73
10.2
14.67
17.91
19.9
20.68
20.21
18.38
15.24
11.06
6.41
1.99
-1.61
-4.12
-5.66
-6.65
-7.54
-8.68
-10.2
-12.04
-14.03
-15.99
-17.62
-18.59
-18.53
-17.22
-14.76
-11.56
-8.27
-5.45
-3.42
-2.08
-1.15
-0.31
0.52
1.17
1.35
0.94
0.04
-0.97
-1.6
-1.52
-0.74
0.39
1.23
1.06
-0.63
-3.9
-8.29
-12.88
-16.45
-17.9
-16.51
-12.3
-5.92
1.47
8.61
14.46
18.37
20.14
19.92
18.08
15.09
11.53
7.94
4.9
2.84
2
2.22
3.06
3.76
3.56
1.86
-1.48
-6.13
-11.32
-16.12
-19.64
-21.26
-20.72
-18.15
-13.93
-8.61
-2.85
2.76
7.63
11.27
13.26
13.42
11.92
9.3
6.36
3.96
2.67
2.62
3.52
4.79
5.81
6.11
5.44
3.89
1.85
0.03
-0.67
0.56
4.03
9.44
15.86
22.1
27.15
30.48
32.1
32.3
31.37
29.44
26.53
22.78
18.47
14.1
10.19
7
4.51
2.45
0.45
-1.8
-4.43
-7.34
-10.24
-12.69
-14.14
-14.08
-12.18
-8.43
-3.23
2.64
8.22
12.59
15.03
15.14
12.89
8.6
2.87
-3.43
-9.36
-14.12
-17.22
-18.54
-18.39
-17.35
-16.08
-15.24
-15.27
-16.26
-17.87
-19.32
-19.56
-17.62
-12.89
-5.41
4.17
14.84
25.62
35.77
44.94
53.03
60.01
65.9
70.62
74.21
76.86
78.9
80.79
82.92
85.5
88.42
91.23
93.08
92.98
89.96
83.31
72.92
59.43
44.21
29.06
15.69
5.21
-2.08
-6.65
-9.47
-11.4
-12.96
-14.26
-15.18
-15.73
-16.24
-17.26
-19.29
-22.58
-26.98
-32.15
-37.72
-43.35
-48.73
-53.52
-57.33
-59.95
-61.45
-62.19
-62.64
-63.02
-63.11
-62.41
-60.43
-57.05
-52.66
-47.92
-43.46
-39.64
-36.6
-34.47
-33.63
-34.6
-37.74
-42.87
-49.04
-54.86
-58.89
-60.24
-58.81
-55.22
-50.53
-45.75
-41.6
-38.32
-35.79
-33.58
-31.08
-27.65
-22.76
-16.26
-8.51
-0.35
7.11
12.92
16.53
17.9
17.33
15.23
11.9
7.58
2.42
-3.3
-9.26
-15.09
-20.54
-25.42
-29.58
-32.9
-35.3
-36.79
-37.6
-38.17
-39.02
-40.58
-42.87
-45.45
-47.49
-48.05
-46.42
-42.37
-36.29
-28.96
-21.33
-14.18
-7.93
-2.72
1.44
4.58
6.64
7.59
7.53
6.8
5.96
5.58
6.06
7.47
9.48
11.52
12.94
13.3
12.36
10.13
6.78
2.56
-2.07
-6.46
-9.67
-10.75
-9.09
-4.66
1.78
9.02
15.8
21.21
24.92
27.03
27.75
27.22
25.48
22.59
18.85
14.84
11.24
8.6
7.1
6.47
6.22
5.82
4.89
3.29
1
-1.95
-5.47
-9.26
-12.8
-15.27
-15.86
-13.99
-9.66
-3.47
3.58
10.41
16.27
20.67
23.47
24.59
23.99
21.63
17.74
12.81
7.62
2.99
-0.43
-2.46
-3.41
-3.94
-4.87
-6.83
-10.14
-14.74
-20.24
-26
-31.22
-35
-36.43
-34.8
-29.8
-21.8
-11.87
-1.43
8.05
15.59
20.84
24.09
25.8
26.29
25.63
23.72
20.66
16.86
13.05
9.92
7.82
6.56
5.53
4.06
1.66
-1.8
-6.19
-11.36
-17.11
-23.1
-28.63
-32.61
-33.72
-31.03
-24.4
-14.68
-3.48
7.46
16.84
24.11
29.42
33.23
35.84
37.28
37.28
35.64
32.45
28.16
23.49
19.13
15.56
12.83
10.68
8.65
6.25
3.11
-1.02
-6.16
-12.04
-18.04
-23.11
-26
-25.62
-21.43
-13.73
-3.66
7.21
17.33
25.63
31.71
35.68
37.92
38.79
38.46
36.91
34.2
30.49
26.22
21.92
18.15
15.21
13.08
11.41
9.71
7.55
4.64
0.95
-3.51
-8.62
-14.25
-19.97
-25
-28.23
-28.56
-25.26
-18.4
-8.84
2
12.64
21.97
29.47
35.06
38.9
41.09
41.69
40.76
38.54
35.52
32.28
29.35
26.93
24.87
22.78
20.28
17.19
13.63
9.93
6.41
3.21
0.22
-2.9
-6.55
-11.1
-16.68
-23.08
-29.59
-35.09
-38.22
-37.82
-33.34
-25.14
-14.34
-2.54
8.79
18.72
26.91
33.44
38.48
41.99
43.78
43.63
41.57
38.09
34.02
30.27
27.53
25.99
25.33
24.84
23.77
21.64
18.37
14.34
10.17
6.44
3.41
0.94
-1.45
-4.3
-7.98
-12.52
-17.7
-23.2
-28.59
-33.37
-36.79
-37.89
-35.81
-30.1
-21.18
-10.27
0.97
11.06
19.17
25.21
29.52
32.43
34.03
34.18
32.84
30.3
27.2
24.3
22.17
20.91
20.16
19.3
17.8
15.44
12.42
9.21
6.24
3.73
1.54
-0.75
-3.51
-6.98
-11.11
-15.72
-20.61
-25.55
-30.19
-33.93
-35.88
-35.15
-31.26
-24.4
-15.56
-6.08
2.76
10.18
15.99
20.34
23.45
25.39
26.02
25.3
23.37
20.72
17.96
15.65
13.96
12.71
11.41
9.58
7.03
3.94
0.78
-1.95
-4
-5.49
-6.8
-8.43
-10.72
-13.84
-17.74
-22.12
-26.47
-29.94
-31.51
-30.27
-25.86
-18.64
-9.73
-0.59
7.53
13.9
18.37
21.11
22.36
22.24
20.85
18.44
15.47
12.56
10.16
8.4
7.07
5.74
4.06
1.93
-0.52
-2.99
-5.18
-6.98
-8.46
-9.89
-11.64
-14.08
-17.36
-21.23
-24.95
-27.42
-27.55
-24.69
-18.89
-11.06
-2.54
5.27
11.35
15.35
17.46
18.16
17.94
17.09
15.71
13.81
11.47
8.82
6.1
3.57
1.4
-0.36
-1.78
-3
-4.15
-5.27
-6.41
-7.66
-9.22
-11.33
-14.1
-17.31
-20.32
-22.16
-21.89
-19
-13.63
-6.55
1.13
8.3
14.14
18.23
20.52
21.18
20.55
19.01
16.91
14.5
11.95
9.29
6.56
3.8
1.12
-1.35
-3.54
-5.41
-7.02
-8.47
-9.97
-11.74
-14.04
-17.01
-20.48
-23.92
-26.46
-27.09
-25.11
-20.42
-13.6
-5.78
1.8
8.08
12.51
14.99
15.74
15.12
13.48
11.12
8.33
5.39
2.57
0.11
-1.83
-3.2
-4.08
-4.67
-5.23
-6.03
-7.29
-9.13
-11.57
-14.52
-17.73
-20.77
-22.98
-23.62
-22.05
-17.99
-11.75
-4.25
3.22
9.47
13.69
15.67
15.71
14.3
11.93
8.96
5.68
2.4
-0.47
-2.51
-3.48
-3.48
-2.93
-2.4
-2.38
-3.1
-4.55
-6.63
-9.17
-11.94
-14.51
-16.17
-16.1
-13.62
-8.56
-1.43
6.68
14.55
21.18
26.14
29.46
31.4
32.23
32.01
30.78
28.68
26.16
23.82
22.21
21.56
21.7
22.16
22.36
21.93
20.69
18.66
15.91
12.55
8.94
5.68
3.68
3.83
6.63
11.82
18.37
24.77
29.59
31.94
31.65
29.22
25.4
20.86
15.97
10.89
5.68
0.54
-4.23
-8.38
-11.85
-14.92
-18.05
-21.71
-26.14
-31.23
-36.63
-41.81
-46.31
-49.71
-51.62
-51.7
-49.64
-45.3
-38.85
-30.82
-22.04
-13.44
-5.84
0.22
4.58
7.36
8.84
9.27
8.86
7.73
6.04
4.02
1.98
0.24
-0.98
-1.56
-1.57
-1.15
-0.49
0.15
0.57
0.53
-0.06
-1.09
-2.09
-2.34
-1.03
2.41
8.15
15.85
24.75
33.96
42.59
50.04
55.96
60.29
63.06
64.26
63.85
61.72
57.87
52.47
45.85
38.41
30.47
22.22
13.73
5.11
-3.37
-11.32
-18.38
-24.43
-29.58
-34.1
-38.1
-41.47
-43.86
-44.93
-44.58
-43.02
-40.68
-37.96
-35.13
-32.28
-29.51
-26.94
-24.88
-23.69
-23.65
-24.84
-27.06
-29.79
-32.33
-34.03
-34.5
-33.72
-32.02
-29.92
-27.88
-26.19
-25.04
-24.66
-25.48
-28.07
-32.73
-39.17
-46.31
-52.53
-56.32
-56.83
-54.26
-49.62
-44.1
-38.5
-32.93
-26.98
-20.27
-12.81
-5.25
1.48
6.55
9.66
11.1
11.52
11.61
11.84
12.3
12.85
13.23
13.21
12.69
11.63
9.96
7.64
4.64
1.08
-2.64
-5.93
-8.07
-8.5
-7.05
-3.96
0.11
4.38
8.12
10.81
12.13
12.02
10.59
8.09
4.9
1.44
-1.89
-4.78
-6.98
-8.32
-8.72
-8.18
-6.85
-5.09
-3.43
-2.44
-2.57
-3.9
-6.13
-8.6
-10.5
-11.16
-10.2
-7.69
-4.06
0.06
4
7.18
9.19
9.78
8.84
6.49
3.04
-0.97
-4.89
-8.08
-10.13
-10.99
-10.95
-10.58
-10.42
-10.9
-12.14
-14.01
-16.17
-18.2
-19.67
-20.21
-19.5
-17.37
-13.78
-8.95
-3.31
2.52
7.86
12.07
14.78
15.85
15.43
13.85
11.53
8.91
6.35
4.11
2.29
0.88
-0.24
-1.25
-2.44
-4.09
-6.48
-9.71
-13.5
-17.25
-20.1
-21.19
-20.01
-16.63
-11.58
-5.66
0.35
5.96
10.88
14.89
17.71
18.99
18.48
16.28
12.88
9.13
5.88
3.67
2.57
2.19
1.84
0.87
-1.19
-4.44
-8.57
-12.93
-16.66
-18.9
-19.04
-16.89
-12.73
-7.18
-1.04
5.01
10.49
15.11
18.68
20.99
21.87
21.27
19.34
16.53
13.45
10.66
8.52
7.09
6.13
5.25
4.1
2.43
0.16
-2.59
-5.51
-8.2
-10.11
-10.75
-9.78
-7.08
-2.88
2.4
8.2
13.95
19.07
23.1
25.61
26.34
25.3
22.83
19.59
16.38
13.92
12.57
12.24
12.46
12.56
11.96
10.4
8.08
5.63
3.91
3.83
6.04
10.73
17.6
26.02
35.22
44.56
53.64
62.14
69.81
76.24
81.03
83.91
84.94
84.49
83.19
81.61
80.1
78.79
77.5
75.91
73.53
69.87
64.44
56.9
47.04
34.82
20.34
3.77
-14.63
-34.61
-55.86
-77.89
-99.83
-120.36
-137.69
-149.96
-155.81
-154.87
-147.99
-137.01
-124.07
-111
-98.86
-87.95
-78.18
-69.44
-61.74
-55.2
-49.9
-45.74
-42.52
-40.08
-38.36
-37.39
-37.14
-37.34
-37.29
-36.04
-32.54
-26.15
-16.89
-5.58
6.44
17.68
27
33.84
38.24
40.66
41.65
41.73
41.24
40.42
39.39
38.19
36.82
35.26
33.5
31.61
29.7
27.82
25.97
24.03
21.82
19.09
15.7
11.61
7.03
2.44
-1.44
-3.78
-3.85
-1.25
3.89
10.94
18.91
26.75
33.56
38.84
42.41
44.35
44.86
44.19
42.64
40.6
38.45
36.51
34.84
33.3
31.53
29.2
26.21
22.79
19.39
16.46
14.19
12.37
10.5
7.98
4.41
-0.17
-5.29
-10.16
-13.91
-15.85
-15.61
-13.25
-9.2
-4.15
1.11
5.84
9.55
11.99
13.23
13.45
12.89
11.72
10.04
7.91
5.52
3.17
1.24
-0.02
-0.57
-0.65
-0.68
-1.08
-2.06
-3.61
-5.57
-7.77
-10.06
-12.23
-13.88
-14.46
-13.29
-9.95
-4.48
2.44
9.71
16.21
21.25
24.76
27.1
28.64
29.45
29.12
27.08
22.97
16.97
9.83
2.48
-4.29
-10.22
-15.49
-20.49
-25.51
-30.5
-35.09
-38.87
-41.56
-43.07
-43.42
-42.6
-40.52
-37.04
-32.14
-25.99
-19.03
-11.83
-5
0.95
5.69
9.13
11.32
12.47
12.8
12.49
11.7
10.63
9.47
8.45
7.73
7.27
6.85
6.04
4.45
1.85
-1.66
-5.68
-9.61
-12.81
-14.68
-14.81
-12.98
-9.31
-4.2
1.61
7.29
12.07
15.37
16.99
17.04
15.88
13.97
11.82
9.84
8.3
7.23
6.53
5.95
5.25
4.18
2.56
0.32
-2.58
-6.06
-9.82
-13.35
-15.93
-16.91
-15.91
-13.04
-8.85
-4.12
0.44
4.46
7.84
10.69
13
14.61
15.19
14.54
12.67
9.9
6.78
3.85
1.5
-0.1
-1.05
-1.57
-2.03
-2.84
-4.34
-6.74
-9.93
-13.47
-16.6
-18.46
-18.36
-16.07
-11.86
-6.43
-0.67
4.64
9.01
12.19
14.14
14.84
14.26
12.47
9.75
6.55
3.44
0.92
-0.8
-1.82
-2.41
-2.91
-3.53
-4.37
-5.46
-6.89
-8.78
-11.14
-13.74
-16.09
-17.49
-17.3
-15.21
-11.34
-6.2
-0.53
4.97
9.73
13.39
15.76
16.72
16.26
14.51
11.77
8.52
5.35
2.77
1.08
0.27
0.01
-0.19
-0.78
-1.97
-3.71
-5.79
-8.02
-10.28
-12.56
-14.71
-16.38
-16.97
-15.85
-12.7
-7.72
-1.66
4.43
9.56
13.11
14.97
15.37
14.7
13.34
11.48
9.28
6.88
4.51
2.44
0.91
0.08
-0.13
0.04
0.22
0.05
-0.78
-2.4
-4.73
-7.54
-10.35
-12.56
-13.51
-12.64
-9.75
-4.99
1.02
7.45
13.45
18.37
21.88
23.92
24.64
24.31
23.29
22
20.96
20.6
21.21
22.82
25.18
27.87
30.4
32.44
33.78
34.44
34.53
34.31
34.14
34.41
35.42
37.28
39.79
42.52
45.02
47.01
48.45
49.53
50.44
51.1
51.14
49.94
46.88
41.6
34.13
24.92
14.68
4.09
-6.36
-16.45
-26.25
-35.82
-45
-53.3
-59.99
-64.39
-66.23
-65.8
-63.85
-61.12
-57.92
-53.9
-48.25
-40.26
-29.85
-17.78
-5.37
6
15.48
22.87
28.37
32.21
34.34
34.51
32.59
28.83
23.93
18.79
14.14
10.33
7.22
4.43
1.5
-1.89
-5.91
-10.64
-16.02
-21.9
-27.92
-33.46
-37.77
-40.09
-40.03
-37.65
-33.52
-28.52
-23.55
-19.2
-15.69
-12.94
-10.82
-9.29
-8.52
-8.69
-9.85
-11.78
-14.09
-16.25
-17.89
-18.78
-18.96
-18.63
-18.15
-17.89
-18.16
-19.13
-20.73
-22.68
-24.51
-25.71
-25.82
-24.6
-22.07
-18.51
-14.36
-10.19
-6.61
-4.12
-3.04
-3.41
-4.92
-7.09
-9.37
-11.28
-12.67
-13.68
-14.63
-15.82
-17.46
-19.5
-21.86
-24.51
-27.63
-31.47
-36.22
-41.71
-47.3
-52.1
-55.14
-55.8
-53.98
-50.06
-44.73
-38.76
-32.89
-27.74
-23.86
-21.6
-21.03
-21.83
-23.34
-24.68
-25.08
-24.07
-21.58
-17.9
-13.42
-8.58
-3.8
0.46
3.7
5.44
5.41
3.76
1.09
-1.64
-3.41
-3.51
-1.73
1.57
5.64
9.65
12.96
15.2
16.26
16.15
14.92
12.73
9.85
6.74
3.88
1.62
0.03
-1.16
-2.37
-4.07
-6.53
-9.82
-13.8
-18.11
-22.24
-25.55
-27.34
-27.03
-24.36
-19.55
-13.23
-6.35
0.05
5.07
8.12
9.02
8.01
5.69
2.83
0.1
-2.03
-3.37
-3.99
-4.1
-4.01
-4.12
-4.89
-6.69
-9.61
-13.39
-17.29
-20.39
-21.83
-21.15
-18.39
-14.07
-8.89
-3.65
1.01
4.54
6.54
6.78
5.24
2.16
-2.01
-6.67
-11.27
-15.4
-18.97
-22.13
-25.23
-28.66
-32.66
-37.22
-41.98
-46.29
-49.31
-50.29
-48.69
-44.45
-37.87
-29.49
-19.91
-9.69
0.55
10.02
17.82
23.1
25.38
24.77
21.95
17.85
13.39
9.07
5.01
1.02
-3.22
-7.97
-13.43
-19.6
-26.22
-32.66
-37.98
-41.08
-41.08
-37.61
-30.9
-21.73
-11.15
-0.29
9.83
18.35
24.7
28.57
29.99
29.34
27.26
24.59
22.02
20.07
18.76
17.73
16.32
13.84
9.88
4.57
-1.37
-6.74
-10.17
-10.5
-7.13
-0.11
9.9
21.85
34.53
46.87
57.94
67.08
73.77
77.68
78.77
77.34
74.15
70.18
66.44
63.58
61.69
60.3
58.64
55.98
51.86
46.19
39.14
31.07
22.49
14.13
6.96
1.94
-0.23
0.46
3.24
6.86
10.07
12.11
12.91
12.8
12.1
10.8
8.6
5.23
0.82
-3.96
-8.23
-11.29
-12.98
-13.68
-14.02
-14.4
-14.88
-15.27
-15.48
-15.81
-16.96
-19.64
-23.99
-29.22
-33.6
-35.03
-31.89
-23.7
-11.38
3.09
17.46
30
39.9
47.28
52.67
56.54
59.06
60.18
59.86
58.37
56.3
54.34
52.97
52.28
51.97
51.61
50.79
49.33
47.23
44.62
41.59
38.2
34.47
30.46
26.27
22
17.78
13.66
9.65
5.68
1.57
-2.88
-7.72
-12.74
-17.28
-20.29
-20.63
-17.44
-10.56
-0.68
10.89
22.63
33.32
42.33
49.59
55.39
60.02
63.55
65.88
66.89
66.66
65.5
63.98
62.69
62.08
62.32
63.32
64.8
66.5
68.26
70.07
71.93
73.64
74.7
74.44
72.22
67.79
61.31
53.2
43.79
33.15
21.21
8.1
-5.49
-18.34
-29.04
-36.56
-40.69
-41.95
-41.24
-39.38
-36.83
-33.7
-30.07
-26.14
-22.27
-18.8
-15.79
-13.05
-10.16
-6.75
-2.66
2.02
7.06
12.21
17.28
22.19
26.91
31.48
35.93
40.37
44.88
49.54
54.32
58.98
63.13
66.18
67.54
66.76
63.8
59.13
53.67
48.51
44.55
42.17
41.12
40.65
39.89
38.12
34.95
30.22
23.95
16.16
6.94
-3.5
-14.76
-26.24
-37.27
-47.19
-55.51
-61.92
-66.42
-69.25
-70.82
-71.54
-71.65
-71.23
-70.29
-68.96
-67.65
-66.91
-67.19
-68.53
-70.49
-72.32
-73.33
-73.15
-71.78
-69.35
-65.8
-60.88
-54.31
-46.15
-37.07
-28.28
-21.19
-16.97
-16.22
-18.84
-24.18
-31.34
-39.41
-47.67
-55.75
-63.54
-71.1
-78.59
-86.09
-93.68
-101.36
-109
-116.21
-122.34
-126.61
-128.5
-128.07
-126.13
-123.95
-122.68
-122.64
-123.1
-122.61
-119.77
-114.04
-106.12
-97.5
-89.67
-83.3
-77.85
-72.09
-64.8
-55.61
-45.15
-34.75
-25.54
-17.92
-11.38
-4.93
2.18
10
17.79
24.47
29.23
31.93
33.12
33.78
34.71
36.24
38.12
39.7
40.33
39.66
37.82
35.27
32.59
30.18
28.1
26.13
23.95
21.32
18.24
14.79
11.06
7.05
2.71
-1.8
-5.91
-8.75
-9.41
-7.33
-2.66
3.75
10.7
17.03
22.07
25.67
28.07
29.56
30.31
30.26
29.3
27.45
24.92
22.19
19.76
18.03
17.08
16.72
16.55
16.26
15.67
14.8
13.8
12.73
11.55
10.08
8.09
5.36
1.83
-2.48
-7.47
-12.91
-18.37
-23.18
-26.43
-27.27
-25.19
-20.24
-13.13
-5
2.98
9.93
15.39
19.33
21.84
23.09
23.2
22.36
20.87
19.12
17.49
16.2
15.25
14.46
13.63
12.61
11.41
10.09
8.77
7.46
6.08
4.47
2.43
-0.25
-3.76
-8.16
-13.36
-18.87
-23.85
-27.13
-27.57
-24.48
-18.02
-9.23
0.24
8.75
15.16
19.12
20.94
21.26
20.61
19.26
17.24
14.6
11.51
8.36
5.63
3.65
2.43
1.7
0.99
-0.14
-1.9
-4.26
-7.08
-10.26
-13.81
-17.71
-21.73
-25.28
-27.37
-27.05
-23.73
-17.54
-9.37
-0.56
7.57
14.13
18.78
21.54
22.61
22.08
19.95
16.35
11.64
6.52
1.85
-1.65
-3.66
-4.43
-4.63
-5.15
-6.75
-9.84
-14.4
-19.93
-25.56
-30.22
-32.81
-32.53
-29.03
-22.56
-13.86
-3.98
6
15.13
22.7
28.22
31.35
31.97
30.21
26.51
21.67
16.6
12.17
8.93
6.99
5.99
5.19
3.8
1.15
-3.08
-8.68
-14.98
-20.9
-25.19
-26.73
-24.89
-19.74
-12.03
-2.96
6.25
14.69
21.87
27.67
32.05
34.88
35.97
35.18
32.66
28.97
24.93
21.43
19.02
17.77
17.16
16.33
14.38
10.73
5.4
-0.91
-6.97
-11.43
-13.18
-11.66
-6.92
0.38
9.27
18.63
27.44
34.9
40.47
43.83
44.91
43.85
40.97
36.77
31.91
27.1
23.02
20.21
18.81
18.61
18.9
18.74
17.27
14.09
9.54
4.76
1.42
1.16
5.05
13.15
24.51
37.59
50.79
62.99
73.69
82.9
90.78
97.37
102.52
105.95
107.39
106.61
103.43
97.56
88.67
76.61
61.6
44.38
26.11
8.04
-8.95
-24.37
-38.09
-49.97
-59.69
-66.77
-70.77
-71.58
-69.51
-65.14
-59.07
-51.73
-43.41
-34.42
-25.3
-16.79
-9.61
-4.23
-0.73
1.09
1.61
1.15
-0
-1.6
-3.4
-5.2
-6.98
-8.88
-11.18
-14.17
-18
-22.56
-27.52
-32.28
-36.07
-38.03
-37.39
-33.74
-27.25
-18.78
-9.63
-1.2
5.47
9.93
12.22
12.68
11.64
9.32
5.97
1.9
-2.45
-6.67
-10.53
-14.13
-17.79
-21.83
-26.36
-31.15
-35.78
-39.79
-42.94
-45.32
-47.31
-49.52
-52.55
-56.82
-62.26
-68.13
-73.12
-75.65
-74.48
-69.19
-60.38
-49.46
-38.04
-27.28
-17.71
-9.29
-1.83
4.64
9.84
13.42
15.28
15.78
15.63
15.63
16.38
18.16
20.8
23.83
26.66
28.73
29.82
30.06
29.94
29.99
30.49
31.17
31.28
29.87
26.26
20.43
13.13
5.72
-0.28
-3.55
-3.29
0.71
8.07
17.84
28.57
38.53
45.97
49.57
48.76
43.87
35.93
26.32
16.35
6.94
-1.41
-8.43
-13.97
-17.95
-20.37
-21.41
-21.44
-21
-20.56
-20.49
-21.02
-22.22
-24.05
-26.36
-28.92
-31.42
-33.54
-34.99
-35.52
-34.89
-32.82
-29.1
-23.61
-16.54
-8.38
0.14
8.23
15.25
20.88
25.01
27.75
29.15
29.3
28.31
26.38
23.84
21.06
18.34
15.83
13.55
11.36
9.16
6.89
4.63
2.49
0.61
-0.97
-2.26
-3.43
-4.68
-6.24
-8.18
-10.29
-12.07
-12.75
-11.56
-8.04
-2.22
5.28
13.49
21.3
27.8
32.42
34.94
35.41
34.05
31.2
27.33
23.04
18.96
15.56
13.08
11.4
10.17
8.95
7.4
5.41
3.15
0.95
-0.9
-2.32
-3.51
-4.85
-6.77
-9.5
-12.92
-16.56
-19.63
-21.21
-20.48
-17.05
-11.08
-3.35
4.98
12.68
18.76
22.68
24.32
23.93
21.86
18.59
14.61
10.49
6.84
4.09
2.38
1.48
0.93
0.15
-1.19
-3.09
-5.28
-7.38
-9.15
-10.61
-12.1
-14.06
-16.8
-20.15
-23.42
-25.61
-25.7
-23.08
-17.81
-10.57
-2.4
5.56
12.41
17.55
20.7
21.88
21.26
19.17
16.07
12.46
8.84
5.56
2.84
0.68
-1
-2.42
-3.8
-5.33
-7.02
-8.81
-10.6
-12.39
-14.32
-16.53
-18.96
-21.16
-22.34
-21.7
-18.77
-13.69
-7.23
-0.48
5.57
10.33
13.63
15.51
16.06
15.29
13.26
10.16
6.48
2.87
-0.05
-1.9
-2.72
-2.86
-2.93
-3.48
-4.93
-7.4
-10.78
-14.69
-18.61
-21.88
-23.81
-23.78
-21.51
-17.11
-11.18
-4.58
1.78
7.18
11.17
13.57
14.33
13.49
11.2
7.87
4.2
0.98
-1.13
-1.9
-1.66
-1.16
-1.19
-2.29
-4.58
-7.8
-11.45
-15
-17.93
-19.72
-19.91
-18.18
-14.5
-9.29
-3.31
2.58
7.7
11.7
14.53
16.22
16.7
15.76
13.29
9.49
5.04
0.87
-2.14
-3.61
-3.77
-3.37
-3.41
-4.7
-7.62
-11.97
-16.92
-21.34
-24.02
-24.15
-21.58
-16.93
-11.31
-5.94
-1.62
1.41
3.39
4.7
5.47
5.62
4.9
3.24
0.85
-1.73
-3.94
-5.36
-5.95
-6.05
-6.18
-6.92
-8.6
-11.24
-14.46
-17.6
-19.93
-20.82
-19.94
-17.3
-13.21
-8.16
-2.7
2.64
7.4
11.17
13.65
14.59
13.93
11.8
8.64
5.09
1.88
-0.45
-1.71
-2.17
-2.41
-3.09
-4.7
-7.33
-10.71
-14.32
-17.5
-19.57
-19.92
-18.16
-14.18
-8.34
-1.38
5.72
11.99
16.81
19.94
21.58
22.09
21.83
21.03
19.81
18.22
16.32
14.18
11.89
9.52
7.19
4.99
3
1.27
-0.28
-1.78
-3.46
-5.55
-8.32
-11.83
-15.89
-19.96
-23.18
-24.62
-23.56
-19.81
-13.76
-6.29
1.64
9.18
15.92
21.68
26.42
30.03
32.33
33.18
32.68
31.24
29.5
28.04
27.21
26.9
26.66
25.94
24.31
21.68
18.23
14.31
10.27
6.4
2.88
-0.24
-2.98
-5.47
-7.94
-10.64
-13.73
-17.15
-20.6
-23.53
-25.26
-25.17
-22.82
-18.1
-11.34
-3.19
5.51
13.9
21.35
27.48
32.15
35.41
37.4
38.32
38.45
38.04
37.28
36.27
35.08
33.74
32.37
31.11
30.07
29.19
28.22
26.84
24.84
22.26
19.43
16.76
14.6
13.01
11.88
10.98
10.17
9.45
8.8
8.17
7.39
6.36
5.26
4.69
5.53
8.6
14.27
22.14
31.18
40.02
47.54
53.13
56.78
58.79
59.39
58.56
55.99
51.42
44.92
37.1
28.92
21.46
15.56
11.59
9.47
8.78
8.95
9.42
9.76
9.68
9.06
7.9
6.25
4.17
1.62
-1.45
-5.15
-9.6
-14.79
-20.62
-26.78
-32.75
-37.85
-41.38
-42.85
-42.18
-39.79
-36.48
-33.12
-30.32
-28.34
-27.06
-26.22
-25.6
-25.13
-24.84
-24.85
-25.27
-26.22
-27.86
-30.33
-33.57
-37.26
-40.82
-43.67
-45.59
-46.9
-48.45
-51.19
-55.71
-61.82
-68.54
-74.5
-78.37
-79.41
-77.68
-73.95
-69.33
-64.94
-61.57
-59.44
-58.19
-56.99
-54.77
-50.66
-44.22
-35.67
-25.77
-15.54
-5.93
2.4
9.21
14.44
18.17
20.51
21.65
21.93
21.77
21.62
21.73
22.06
22.39
22.41
21.9
20.84
19.37
17.65
15.82
13.92
11.93
9.85
7.67
5.46
3.26
1.08
-1.14
-3.5
-6.16
-9.19
-12.56
-15.94
-18.74
-20.26
-19.88
-17.37
-13.02
-7.55
-1.87
3.25
7.44
10.72
13.27
15.27
16.78
17.77
18.21
18.17
17.8
17.32
16.89
16.59
16.42
16.32
16.15
15.75
14.9
13.46
11.43
8.97
6.36
3.87
1.61
-0.46
-2.5
-4.77
-7.46
-10.67
-14.39
-18.37
-22.14
-25.03
-26.34
-25.51
-22.39
-17.33
-11.09
-4.59
1.36
6.31
10.11
12.83
14.6
15.47
15.48
14.71
13.41
11.94
10.66
9.78
9.28
8.91
8.39
7.54
6.36
4.99
3.64
2.41
1.28
0.07
-1.41
-3.35
-5.83
-8.87
-12.43
-16.37
-20.32
-23.72
-25.83
-25.93
-23.63
-19.01
-12.66
-5.56
1.28
7.11
11.52
14.5
16.21
16.85
16.63
15.74
14.46
13.07
11.89
11.1
10.76
10.77
10.93
10.99
10.77
10.15
9.15
7.89
6.57
5.3
4.02
2.48
0.4
-2.33
-5.39
-7.99
-9.07
-7.69
-3.37
3.63
12.42
21.8
30.57
37.94
43.55
47.46
50.01
51.64
52.78
53.74
54.74
55.91
57.35
59.15
61.32
63.7
65.92
67.42
67.58
65.96
62.46
57.34
51.02
44
36.73
29.64
23.32
18.45
15.63
15.06
16.36
18.51
20.22
20.32
18.2
13.81
7.54
-0.16
-8.93
-18.59
-28.8
-38.96
-48.11
-55.25
-59.86
-62.07
-62.81
-63.3
-64.59
-67.13
-70.68
-74.64
-78.36
-81.41
-83.54
-84.49
-83.86
-81.26
-76.5
-69.93
-62.46
-55.23
-49.18
-44.66
-41.44
-38.9
-36.55
-34.26
-32.34
-31.22
-31.11
-31.75
-32.54
-32.87
-32.44
-31.39
-30.18
-29.32
-29.12
-29.69
-30.97
-32.8
-34.95
-36.9
-37.83
-36.76
-32.95
-26.19
-17.1
-6.87
3.13
11.77
18.38
22.78
25.03
25.24
23.56
20.17
15.43
9.86
4.05
-1.51
-6.62
-11.43
-16.24
-21.34
-26.78
-32.35
-37.71
-42.57
-46.77
-50.23
-52.78
-54
-53.23
-49.86
-43.61
-34.82
-24.43
-13.7
-3.85
4.29
10.36
14.48
17.02
18.46
19.18
19.5
19.55
19.4
19.02
18.35
17.33
15.98
14.39
12.77
11.29
10
8.74
7.14
4.74
1.17
-3.57
-9.01
-14.16
-17.82
-18.84
-16.61
-11.21
-3.43
5.51
14.34
22.16
28.48
33.21
36.39
38.04
38.21
37.05
34.94
32.53
30.44
29.07
28.43
28.17
27.74
26.75
25.03
22.77
20.27
17.83
15.58
13.44
11.19
8.56
5.34
1.38
-3.34
-8.64
-14.17
-19.26
-23.03
-24.59
-23.27
-18.95
-12.19
-4
4.4
12.09
18.56
23.72
27.65
30.44
32.02
32.3
31.4
29.68
27.72
26.11
25.19
24.91
24.91
24.78
24.17
22.99
21.34
19.43
17.43
15.39
13.3
11.09
8.69
6.1
3.35
0.44
-2.71
-6.27
-10.46
-15.23
-20.2
-24.46
-26.95
-26.76
-23.54
-17.66
-10.05
-1.86
5.95
12.77
18.4
22.79
25.96
27.91
28.72
28.62
27.97
27.21
26.68
26.54
26.71
26.95
27.01
26.75
26.26
25.69
25.16
24.6
23.71
22.1
19.49
15.92
11.78
7.69
4.29
1.92
0.43
-0.76
-2.45
-5.39
-9.91
-15.79
-22.31
-28.45
-33.29
-36.36
-37.75
-37.99
-37.86
-37.97
-38.58
-39.63
-40.8
-41.71
-42.16
-42.15
-41.88
-41.67
-41.83
-42.49
-43.39
-43.67
-41.87
-36.27
-25.55
-9.59
10.09
30.6
48.57
61.28
67.61
68.11
64.44
58.39
51.16
43.23
34.81
26.35
18.76
13.21
10.35
9.96
10.8
11.14
9.41
4.89
-2
-9.95
-17.28
-22.64
-25.37
-25.55
-23.71
-20.47
-16.34
-11.65
-6.7
-1.72
3.23
8.31
13.9
20.27
27.22
33.96
39.33
42.34
42.77
41.22
38.81
36.56
34.8
33.2
31.11
28.03
23.9
19.06
13.98
9
4.27
-0.17
-4.27
-7.99
-11.24
-13.95
-16.01
-17.29
-17.65
-17.04
-15.59
-13.66
-11.77
-10.41
-9.83
-9.95
-10.44
-10.84
-10.77
-10.05
-8.68
-6.76
-4.41
-1.71
1.38
4.87
8.77
12.97
17.28
21.5
25.43
28.98
32.15
34.98
37.56
39.91
42.06
43.97
45.6
46.92
47.88
48.49
48.77
49
49.65
51.4
54.93
60.62
68.24
76.91
85.35
92.19
96.49
97.85
96.41
92.57
86.8
79.55
71.2
62.16
52.82
43.54
34.52
25.77
17.16
8.43
-0.76
-10.82
-22.13
-34.97
-49.36
-64.84
-80.54
-95.27
-107.81
-117.16
-122.77
-124.52
-122.62
-117.5
-109.64
-99.63
-88.16
-76.09
-64.36
-53.87
-45.29
-38.91
-34.58
-31.86
-30.13
-28.79
-27.38
-25.63
-23.52
-21.14
-18.66
-16.18
-13.76
-11.46
-9.37
-7.7
-6.65
-6.31
-6.6
-7.38
-8.57
-10.23
-12.5
-15.37
-18.44
-20.93
-21.94
-20.82
-17.67
-13.27
-8.81
-5.36
-3.44
-2.89
-3.12
-3.53
-3.86
-4.34
-5.38
-7.34
-10.19
-13.51
-16.6
-18.79
-19.65
-19.07
-17.18
-14.2
-10.32
-5.82
-1.05
3.46
7.15
9.64
10.97
11.65
12.53
14.49
18.01
23.15
29.44
36.26
43.14
49.86
56.43
62.76
68.41
72.6
74.44
73.38
69.53
63.68
56.86
49.86
42.85
35.39
26.81
16.73
5.38
-6.5
-17.99
-28.42
-37.43
-44.98
-51.04
-55.51
-58.24
-59.15
-58.42
-56.33
-53.14
-48.9
-43.58
-37.24
-30.32
-23.56
-17.93
-14.15
-12.49
-12.65
-14.03
-16.08
-18.56
-21.65
-25.85
-31.82
-40.12
-50.99
-64.28
-79.29
-94.82
-109.28
-121.03
-128.75
-131.66
-129.72
-123.52
-114.11
-102.69
-90.43
-78.31
-67.12
-57.36
-49.35
-43.18
-38.72
-35.62
-33.4
-31.48
-29.36
-26.72
-23.51
-19.92
-16.34
-13.14
-10.6
-8.83
-7.94
-8.09
-9.52
-12.33
-16.24
-20.4
-23.38
-23.69
-20.3
-13
-2.59
9.54
21.86
33.21
42.92
50.77
56.71
60.75
62.93
63.43
62.65
61.18
59.58
58.21
57.16
56.26
55.25
53.93
52.23
50.25
48.16
46.07
43.95
41.51
38.18
33.32
26.42
17.59
7.7
-1.64
-8.54
-11.5
-9.92
-4.31
4.02
13.52
22.89
31.42
38.78
44.83
49.34
52.05
52.77
51.67
49.28
46.36
43.66
41.55
39.94
38.38
36.27
33.22
29.25
24.81
20.57
17.05
14.42
12.34
10.07
6.82
1.98
-4.61
-12.63
-21.34
-29.71
-36.58
-40.83
-41.64
-38.73
-32.53
-24.06
-14.69
-5.68
2.12
8.4
13.27
16.96
19.57
21.07
21.42
20.8
19.68
18.68
18.34
18.86
20.02
21.26
21.96
21.75
20.6
18.84
16.88
14.95
13
10.67
7.49
3.1
-2.58
-9.26
-16.32
-22.86
-27.89
-30.54
-30.26
-27.02
-21.32
-14.03
-6.19
1.36
8.03
13.52
17.6
20.11
20.96
20.32
18.68
16.75
15.27
14.68
15.02
15.95
16.95
17.6
17.74
17.47
17.05
16.71
16.57
16.5
16.15
15.04
12.72
9.04
4.38
-0.33
-3.75
-4.61
-2.16
3.54
11.67
21.01
30.39
38.99
46.4
52.57
57.48
61.15
63.6
64.98
65.52
65.51
65.12
64.35
63.03
60.93
57.83
53.67
48.57
42.81
36.79
30.93
25.55
20.73
16.32
11.94
7.26
2.2
-2.78
-6.73
-8.46
-7.01
-2.08
5.79
15.42
25.47
34.89
43.3
50.94
58.37
66.03
73.89
81.3
87.18
90.3
89.73
85.1
76.75
65.64
53.16
40.7
29.36
19.79
12.16
6.31
1.97
-1.18
-3.56
-5.72
-8.34
-11.96
-16.66
-21.87
-26.51
-29.42
-29.79
-27.63
-23.69
-19.15
-15.21
-12.68
-11.99
-13.2
-16.34
-21.38
-28.29
-36.85
-46.57
-56.65
-66.28
-74.83
-82.05
-88.21
-93.8
-99.29
-104.94
-110.66
-116.17
-121.26
-125.9
-130.14
-134.07
-137.67
-140.95
-144.03
-147.1
-150.26
-153.09
-154.59
-153.37
-148.18
-138.53
-124.96
-108.95
-92.39
-76.95
-63.64
-52.72
-43.82
-36.31
-29.57
-23.3
-17.44
-12.12
-7.38
-2.98
1.57
6.83
13.02
19.9
26.73
32.68
37.18
40.24
42.34
44.09
45.85
47.42
48.24
47.61
45.15
40.97
35.71
30.3
25.71
22.76
21.94
23.54
27.61
33.95
42.07
51.22
60.4
68.57
74.88
78.85
80.42
79.8
77.36
73.46
68.47
62.77
56.77
50.9
45.46
40.58
36.19
32.16
28.38
24.82
21.45
18.14
14.62
10.54
5.59
-0.33
-7.12
-14.51
-22.26
-30.2
-38.3
-46.61
-55.06
-63.38
-71.04
-77.34
-81.5
-82.98
-81.63
-77.81
-72.23
-65.8
-59.29
-53.18
-47.65
-42.63
-37.98
-33.51
-29.08
-24.61
-20.04
-15.38
-10.67
-5.97
-1.31
3.15
7.17
10.42
12.77
14.41
15.88
17.76
20.2
22.77
24.5
24.45
22.2
17.99
12.46
6.17
-0.67
-8.07
-15.83
-23.17
-28.76
-31.24
-29.89
-25.04
-17.98
-10.31
-3.43
1.93
5.73
8.3
10
10.91
10.89
9.73
7.51
4.72
2.13
0.45
0.03
0.68
1.8
2.73
2.99
2.46
1.24
-0.39
-2.22
-4.12
-5.98
-7.79
-9.64
-11.81
-14.68
-18.72
-24.14
-30.73
-37.77
-44.03
-48.15
-48.97
-45.94
-39.26
-29.79
-18.79
-7.51
3.06
12.39
20.26
26.71
31.73
35.3
37.32
37.83
37.07
35.5
33.72
32.23
31.26
30.66
30
28.78
26.71
23.75
20.13
16.12
11.9
7.56
3.05
-1.68
-6.66
-11.94
-17.56
-23.54
-29.72
-35.66
-40.53
-43.28
-42.92
-38.86
-31.16
-20.57
-8.28
4.35
16.07
25.93
33.39
38.26
40.74
41.27
40.5
39.07
37.49
36.03
34.77
33.65
32.57
31.35
29.74
27.45
24.2
19.93
14.88
9.61
4.72
0.57
-2.92
-6.26
-10.19
-15.38
-22.06
-29.94
-38.14
-45.41
-50.38
-51.87
-49.22
-42.42
-32.15
-19.65
-6.38
6.32
17.44
26.4
33.02
37.48
40.07
41.2
41.16
40.24
38.66
36.68
34.6
32.73
31.19
29.88
28.49
26.68
24.29
21.43
18.4
15.46
12.59
9.47
5.6
0.57
-5.74
-13.08
-20.85
-28.11
-33.75
-36.68
-36.08
-31.71
-24.02
-14.05
-3.14
7.45
16.86
24.61
30.41
34.09
35.49
34.67
32
28.27
24.39
21.13
18.84
17.36
16.18
14.74
12.67
9.93
6.8
3.65
0.81
-1.57
-3.6
-5.59
-7.89
-10.73
-13.99
-17.15
-19.29
-19.39
-16.62
-10.72
-2.19
7.88
18.08
27.23
34.61
40.05
43.72
45.89
46.69
46.14
44.27
41.26
37.38
32.88
27.87
22.32
16.23
9.78
3.4
-2.35
-7
-10.41
-12.78
-14.62
-16.44
-18.57
-21.02
-23.42
-25.13
-25.41
-23.69
-19.68
-13.58
-5.99
2.23
10.21
17.23
22.84
26.89
29.39
30.49
30.36
29.19
27.15
24.44
21.24
17.78
14.28
10.93
7.81
4.77
1.49
-2.41
-7.23
-13.06
-19.66
-26.51
-32.89
-37.96
-41.01
-41.63
-39.79
-35.91
-30.7
-24.97
-19.42
-14.52
-10.46
-7.26
-4.93
-3.49
-2.99
-3.36
-4.34
-5.55
-6.56
-7.07
-6.86
-5.84
-4.02
-1.43
1.7
4.99
7.92
10.11
11.44
12.26
13.29
15.39
19.21
24.98
32.44
40.94
49.64
57.76
64.75
70.29
74.38
77.17
78.87
79.63
79.56
78.8
77.6
76.32
75.35
74.86
74.75
74.52
73.5
70.89
66.06
58.75
49.21
38.35
27.49
18.11
11.27
7.37
6.1
6.66
8.19
10.07
11.91
13.45
14.38
14.31
12.92
10.08
5.82
0.38
-5.9
-12.57
-19.11
-24.96
-29.76
-33.42
-36.19
-38.57
-41.09
-44.19
-48.1
-52.88
-58.28
-63.75
-68.45
-71.37
-71.66
-68.95
-63.54
-56.32
-48.48
-41
-34.5
-29.1
-24.67
-21.07
-18.3
-16.49
-15.74
-16
-16.95
-18.13
-19.1
-19.61
-19.74
-19.76
-19.93
-20.35
-21
-21.81
-22.93
-24.65
-27.21
-30.53
-34.03
-36.68
-37.4
-35.46
-30.88
-24.46
-17.41
-10.95
-5.88
-2.37
-0.16
1.2
2.09
2.63
2.81
2.63
2.27
2
2.1
2.66
3.39
3.78
3.27
1.49
-1.58
-5.61
-10.1
-14.59
-18.76
-22.59
-26.22
-29.88
-33.81
-38.02
-42.16
-45.44
-46.9
-45.73
-41.64
-35.02
-26.9
-18.48
-10.74
-4.15
1.3
5.79
9.44
12.1
13.5
13.51
12.31
10.45
8.62
7.38
6.86
6.75
6.37
5.03
2.4
-1.3
-5.35
-8.84
-11.07
-11.86
-11.55
-10.77
-10.15
-10.09
-10.78
-12.22
-14.27
-16.55
-18.34
-18.57
-16.11
-10.05
-0.12
13.2
28.9
45.73
62.62
78.92
94.51
109.64
124.76
140.2
155.98
171.78
186.93
200.48
211.46
218.92
222.12
220.55
214.15
203.26
188.66
171.42
152.63
133.14
113.46
93.79
74.25
55.01
36.38
18.78
2.51
-12.44
-26.4
-39.95
-53.66
-67.73
-81.75
-94.7
-105.21
-111.98
-114.3
-112.27
-106.83
-99.39
-91.42
-84.06
-77.92
-73.1
-69.36
-66.41
-64.01
-62.07
-60.54
-59.32
-58.21
-56.88
-55.04
-52.53
-49.45
-46.12
-42.86
-39.87
-37.16
-34.68
-32.45
-30.68
-29.75
-30.05
-31.7
-34.5
-38
-41.73
-45.43
-49.14
-53.15
-57.85
-63.51
-70.11
-77.18
-83.81
-88.78
-90.85
-89.3
-84.33
-77.11
-69.46
-63.2
-59.47
-58.42
-59.3
-60.94
-62.28
-62.7
-62.03
-60.49
-58.48
-56.47
-54.87
-53.87
-53.36
-52.93
-52.01
-50.21
-47.44
-44.02
-40.49
-37.34
-34.82
-32.94
-31.62
-30.82
-30.58
-31.04
-32.3
-34.41
-37.45
-41.62
-47.31
-54.94
-64.62
-75.8
-87.17
-97.03
-103.93
-107.4
-108.13
-107.53
-106.88
-106.49
-105.46
-102.21
-95.45
-85.02
-72.03
-58.34
-45.59
-34.61
-25.25
-16.84
-8.88
-1.35
5.24
10.26
13.41
14.84
15.13
14.99
14.96
15.28
15.83
16.23
16.07
14.97
12.74
9.38
5.04
-0.02
-5.38
-10.46
-14.45
-16.4
-15.49
-11.33
-4.18
5
14.82
23.88
31.14
36.13
38.84
39.59
38.82
37.04
34.76
32.49
30.63
29.38
28.69
28.29
27.85
27.13
26.04
24.69
23.17
21.54
19.69
17.37
14.23
9.99
4.62
-1.44
-7.28
-11.64
-13.27
-11.35
-5.87
2.33
11.83
21.15
29.15
35.29
39.59
42.3
43.72
44.01
43.19
41.31
38.55
35.28
31.97
29.05
26.79
25.24
24.2
23.28
21.97
19.76
16.22
11.19
4.84
-2.16
-8.72
-13.5
-15.32
-13.56
-8.39
-0.7
8.21
17.06
24.98
31.64
37.05
41.32
44.42
46.17
46.31
44.78
41.86
38.14
34.36
31.14
28.87
27.54
26.82
26.14
24.87
22.49
18.69
13.61
7.77
2.15
-2.06
-3.74
-2.23
2.5
9.71
18.29
27.04
35.04
41.86
47.37
51.59
54.41
55.65
55.1
52.82
49.21
45.02
41.12
38.22
36.58
35.96
35.77
35.28
33.96
31.59
28.29
24.52
20.91
18.19
17.18
18.6
22.97
30.36
40.34
51.94
63.97
75.31
85.19
93.33
99.79
104.81
108.59
111.23
112.74
113.19
112.68
111.31
109.01
105.43
100.05
92.36
82.26
70.15
56.95
43.8
31.84
21.89
14.45
9.76
7.87
8.55
11.28
15.26
19.54
23.31
26.1
27.88
28.78
28.86
27.96
25.76
22.2
17.7
13.18
9.82
8.42
9.05
10.94
12.8
13.41
11.97
8.36
2.94
-3.68
-10.81
-17.73
-23.66
-27.79
-29.53
-28.74
-25.92
-22.05
-18.27
-15.5
-14.13
-14.02
-14.67
-15.55
-16.25
-16.67
-16.88
-17.02
-17.15
-17.2
-16.99
-16.49
-15.83
-15.42
-15.74
-17.08
-19.31
-21.91
-24.23
-25.77
-26.5
-26.67
-26.5
-25.84
-24.08
-20.4
-14.3
-6.05
3.26
12.06
18.95
23.27
25.24
25.63
25.36
24.9
24.26
23.13
21.32
18.98
16.7
15.11
14.59
15
15.72
15.93
15.02
12.77
9.41
5.3
0.76
-4.12
-9.33
-14.71
-19.77
-23.67
-25.47
-24.61
-21.24
-16.27
-11.04
-6.81
-4.32
-3.59
-4.18
-5.59
-7.62
-10.43
-14.33
-19.42
-25.42
-31.72
-37.65
-42.83
-47.37
-51.77
-56.7
-62.63
-69.58
-77.24
-85.07
-92.5
-98.99
-104.11
-107.47
-108.86
-108.32
-106.15
-102.74
-98.23
-92.36
-84.57
-74.32
-61.58
-47.05
-31.9
-17.39
-4.33
7.05
16.99
25.81
33.66
40.42
45.88
49.87
52.39
53.57
53.64
52.88
51.56
49.89
47.97
45.72
42.89
39.18
34.33
28.27
21.29
14.06
7.53
2.77
0.62
1.33
4.46
8.99
13.67
17.48
19.88
20.82
20.57
19.4
17.38
14.43
10.51
5.74
0.56
-4.39
-8.54
-11.57
-13.57
-15
-16.4
-18.17
-20.37
-22.74
-24.87
-26.42
-27.3
-27.77
-28.32
-29.49
-31.68
-34.92
-38.74
-42.23
-44.22
-43.7
-40.21
-34.04
-26.18
-17.95
-10.51
-4.53
-0.12
3.01
5.21
6.7
7.5
7.58
7.02
6.03
4.99
4.19
3.82
3.83
4
4.01
3.55
2.43
0.56
-1.99
-4.97
-8.02
-10.78
-12.96
-14.49
-15.57
-16.59
-18
-20.15
-23.11
-26.58
-29.85
-32
-32.08
-29.47
-24.07
-16.46
-7.74
0.71
7.68
12.4
14.79
15.31
14.73
13.73
12.69
11.68
10.52
9.09
7.44
5.85
4.65
4.03
3.89
3.84
3.43
2.35
0.64
-1.41
-3.44
-5.21
-6.73
-8.21
-9.92
-11.94
-14.16
-16.4
-18.45
-20.29
-21.95
-23.34
-24.05
-23.4
-20.56
-15.05
-6.97
2.76
12.68
21.23
27.29
30.51
31.35
30.75
29.64
28.7
28.15
27.86
27.6
27.24
26.82
26.51
26.41
26.46
26.43
25.98
24.8
22.8
20.08
16.89
13.51
10.06
6.43
2.37
-2.34
-7.78
-13.78
-20.07
-26.4
-32.56
-38.35
-43.31
-46.74
-47.78
-45.75
-40.52
-32.78
-23.81
-15.01
-7.52
-1.75
2.44
5.41
7.47
8.57
8.42
6.81
3.82
-0.02
-3.96
-7.23
-9.42
-10.53
-10.82
-10.71
-10.48
-10.29
-10.21
-10.28
-10.62
-11.34
-12.5
-14.05
-15.83
-17.66
-19.47
-21.32
-23.38
-25.77
-28.49
-31.21
-33.34
-34.02
-32.45
-28.18
-21.37
-12.87
-3.96
4.01
10.14
14.17
16.47
17.71
18.5
19.06
19.26
18.76
17.3
14.99
12.24
9.69
7.9
7.14
7.26
7.78
8.12
7.76
6.52
4.44
1.82
-1.05
-3.91
-6.62
-9.11
-11.38
-13.4
-15.24
-17.07
-19.19
-21.84
-24.99
-28.17
-30.44
-30.65
-27.9
-21.97
-13.47
-3.72
5.77
13.73
19.49
23.06
24.86
25.39
24.99
23.74
21.61
18.73
15.44
12.31
9.94
8.66
8.36
8.56
8.57
7.81
6.08
3.64
0.96
-1.41
-3.24
-4.61
-5.85
-7.31
-9.19
-11.52
-14.25
-17.37
-20.94
-24.91
-28.92
-32.1
-33.29
-31.4
-25.96
-17.39
-7.02
3.44
12.4
18.93
22.82
24.44
24.41
23.28
21.41
19.01
16.3
13.57
11.16
9.37
8.25
7.61
7.03
6.1
4.54
2.37
-0.23
-2.98
-5.62
-8.07
-10.31
-12.41
-14.43
-16.47
-18.61
-20.98
-23.7
-26.81
-30.18
-33.41
-35.8
-36.51
-34.73
-30.06
-22.68
-13.41
-3.45
5.97
13.95
20.1
24.49
27.41
29.09
29.69
29.22
27.75
25.46
22.81
20.38
18.67
17.97
18.09
18.34
17.71
15.17
10.06
2.36
-7.32
-17.94
-28.47
-38.29
-47.4
-56.3
-65.75
-76.36
-88.39
-101.56
-115.13
-127.99
-138.98
-147.22
-152.41
-155.03
-156.3
-157.81
-160.89
-166.12
-173.12
-180.83
-187.97
-193.64
-197.48
-199.62
-200.24
-199.36
-196.71
-191.92
-184.76
-175.37
-164.27
-152.16
-139.67
-127.15
-114.63
-101.98
-89.13
-76.26
-63.96
-52.95
-43.99
-37.49
-33.43
-31.32
-30.37
-29.53
-27.69
-23.7
-16.47
-5.14
10.69
30.8
54.35
80.06
106.46
132.12
155.65
175.69
190.87
200.04
202.66
199.26
191.61
182.34
174.11
168.59
165.82
164.27
161.64
156.04
146.79
134.66
121.3
108.26
96.21
84.69
72.54
58.66
42.6
24.76
6.2
-11.79
-27.96
-41.1
-50.12
-54.03
-52.13
-44.31
-31.22
-14.24
4.81
24.1
42.09
57.73
70.35
79.67
85.76
89.01
90.17
90.12
89.58
88.94
88.13
86.73
84.26
80.37
75.01
68.45
61.04
53.12
44.88
36.3
27.22
17.38
6.53
-5.4
-18.14
-31
-42.81
-52.11
-57.43
-57.61
-52.24
-41.78
-27.5
-11.14
5.69
21.86
36.9
50.71
63.13
73.61
81.24
85.22
85.41
82.73
78.93
75.95
75.05
76.28
78.52
80.15
79.82
77.15
72.73
67.78
63.43
60.24
58.02
56.19
54.06
51.16
47.28
42.37
36.38
29.39
21.8
14.58
9.32
7.73
10.95
18.98
30.55
43.62
56.13
66.76
75.15
81.95
87.89
93.23
97.56
100.16
100.49
98.64
95.38
91.72
89.3
89.08
91.03
94.23
97.33
99.25
99.63
98.82
97.47
97.62
100.46
105.83
112.25
117.67
120.61
120.83
119.39
117.83
120.15
129.34
146.71
171.53
201.49
233.75
265.78
295.85
323.11
351.11
383.6
422.83
467.8
513.85
554.07
581.96
593.79
568.02
494.05
372.55
216.89
48.51
-111.78
-250.29
-361.56
-445.72
-505.63
-541.84
-556.02
-551.63
-534.04
-509.53
-483.57
-459.6
-438.77
-420.9
-402.77
-381.87
-357.26
-329.97
-302.34
-276.83
-254.92
-236.84
-222.05
-208.21
-193.41
-176.82
-158.85
-140.86
-124.28
-110.03
-98.27
-88.72
-80.12
-71.47
-62.24
-52.52
-42.88
-33.96
-26.14
-19.47
-13.76
-8.45
-3.1
2.46
8.17
13.67
18.53
22.3
24.68
25.53
24.79
22.63
19.31
15.25
10.96
6.98
3.78
1.69
0.89
1.3
2.72
4.7
6.79
8.53
9.59
9.81
9.17
7.9
6.34
4.95
4.05
3.93
4.8
6.78
9.87
13.93
18.79
24.24
30.15
36.1
41.8
47.07
51.88
56.22
60.21
64.04
67.94
72.26
76.81
81.57
86.55
91.8
97.39
103.37
109.8
116.82
124.61
132.63
140.57
148.13
155.02
160.88
165.16
167.02
164.95
161.74
157.91
153.57
148.65
143.03
136.62
129.45
121.66
113.5
105.34
96.8
87.7
77.92
67.4
56.27
44.76
33.25
22.13
11.73
1.65
-8.52
-19.16
-30.53
-42.62
-55.14
-67.58
-79.44
-90.4
-100.85
-111.37
-122.61
-134.95
-148.37
-162.3
-175.91
-188.36
-199.13
-208.36
-216.66
-224.94
-234.27
-245.7
-259.94
-276.89
-295.2
-312.28
-324.81
-329.72
-325.3
-311.86
-291.43
-266.89
-240.77
-214.67
-189.31
-165.05
-142.52
-122.69
-106.64
-95.08
-88.07
-84.87
-84.07
-83.57
-80.74
-72.84
-57.73
-34.78
-5.28
27.88
61.07
91.04
115.7
134.14
146.05
151.27
149.49
140.69
125.61
106.01
84.39
63.25
44.36
28.38
14.89
2.94
-8.45
-19.92
-31.73
-43.99
-56.87
-70.6
-85.08
-99.42
-111.65
-119
-118.73
-109.39
-91.61
-68.24
-43.47
-21.34
-4.28
7.4
15.09
20.71
25.68
30.38
34.58
38.14
41.56
45.97
52.57
61.85
73.29
85.63
97.54
108.29
117.92
126.79
135.06
142.4
148.18
152.03
154.25
155.73
157.57
160.6
165.18
171.3
178.64
186.64
194.18
199.47
200.23
194.39
180.97
160.53
135.09
107.16
78.92
51.84
27.03
5.75
-10.47
-20.34
-23.68
-21.8
-17.3
-13.08
-11.42
-13.44
-19.29
-28.48
-40.03
-52.46
-63.47
-70.43
-71.5
-66.89
-59.2
-52.54
-50.54
-54.49
-62.88
-72.5
-80.39
-85.47
-88.75
-92.33
-97.74
-105
-112.57
-118.52
-121.77
-122.59
-122.13
-121.3
-120.12
-117.76
-113.38
-106.94
-99.59
-92.99
-88.21
-84.76
-80.4
-72.06
-57.11
-34.71
-6.21
25.21
55.58
81.22
99.6
109.74
112.09
108.18
100.01
89.48
78.03
66.62
55.95
46.53
38.73
32.76
28.48
25.49
23.17
20.83
17.9
13.93
8.53
1.23
-8.35
-20.33
-34.08
-47.89
-59.04
-64.46
-61.73
-50.18
-31.37
-8.68
13.7
32.18
44.77
51.15
52.31
49.61
44.23
36.99
28.58
19.73
11.32
4.18
-1.24
-4.9
-7.26
-8.9
-10.32
-11.8
-13.53
-15.68
-18.67
-23.15
-29.86
-39.38
-51.74
-65.93
-79.82
-90.36
-94.46
-89.95
-76.5
-55.87
-31.45
-7.14
13.83
29.66
40.05
45.65
47.39
46
42.1
36.32
29.62
23.05
17.54
13.5
10.63
8.14
5.18
1.25
-3.59
-8.83
-13.89
-18.55
-23.06
-28.14
-34.77
-43.73
-55.23
-68.5
-81.65
-91.9
-96.3
-92.64
-80.32
-60.71
-36.83
-12.4
9.35
26.43
38.31
45.48
48.76
48.91
46.44
41.84
35.81
29.35
23.41
18.65
15.17
12.55
10.16
7.5
4.48
1.3
-1.72
-4.5
-7.37
-11.04
-16.47
-24.43
-35.2
-48.03
-61.07
-71.5
-76.3
-73.17
-61.5
-42.75
-19.99
2.98
22.96
38.14
48.27
54.14
56.8
57.05
55.23
51.59
46.54
40.86
35.55
31.37
28.68
27.24
26.54
25.95
24.95
23.08
19.86
14.87
7.64
-1.98
-13.82
-27.23
-41.14
-54.02
-64.13
-69.53
-68.64
-60.73
-46.41
-27.83
-8.23
8.92
20.94
26.63
26.36
21.56
14.11
5.75
-2.15
-8.54
-12.61
-13.95
-12.89
-10.78
-9.9
-12.85
-21.53
-36.28
-55.52
-76.22
-95.13
-110.16
-121.24
-130.02
-138.59
-147.81
-156.39
-161.38
-159.81
-150.37
-134.26
-114.45
-93.89
-74.03
-54.33
-33.22
-9.69
15.56
40.37
62.39
80.35
94.62
106.3
116.05
123.26
126.27
123.37
113.99
99.3
81.85
64.6
49.82
38.52
30.6
25.56
23.58
26.17
36.15
56.36
87.85
128.37
172.19
211.67
239.91
253.46
253.54
245.19
235.07
228.95
229.96
238.18
251.22
265.54
277.62
284.82
285.61
279.44
266.39
246.74
220.72
188.75
151.66
110.87
68.09
25.03
-16.75
-55.49
-88.86
-113.98
-128.22
-130.61
-123.01
-110.17
-98.33
-93.29
-98.7
-115.39
-141.65
-174.05
-208.34
-240.25
-266.09
-283.39
-291.39
-290.92
-283.88
-272.2
-257.09
-238.94
-217.77
-194.14
-169.7
-147.09
-129.17
-117.86
-113.36
-113.87
-116.14
-116.47
-111.95
-101.42
-85.7
-67.19
-48.9
-33.56
-22.83
-17.24
-16.29
-18.8
-23.26
-27.98
-31.31
-31.93
-29.14
-23.07
-14.62
-5.15
3.96
11.6
17.12
20.25
20.98
19.34
15.34
9.22
1.69
-5.65
-10.44
-10.1
-2.66
12.3
33.38
57.65
81.7
102.61
118.53
128.54
132.11
128.74
117.98
99.93
75.71
47.57
18.37
-9.27
-33.61
-54.12
-71.27
-86.26
-100.56
-115.97
-134.35
-157.13
-184.48
-214.66
-244.14
-268.64
-285.02
-292.63
-293.83
-292.96
-294.44
-301.01
-312.82
-327.88
-343.31
-356.62
-366.27
-371.57
-372.04
-367.11
-356.22
-339.27
-317.05
-291.16
-263.81
-237.05
-212.38
-190.3
-170.47
-152.06
-134.22
-116.46
-98.76
-81.53
-65.32
-50.6
-37.56
-26
-15.52
-5.54
4.44
14.81
25.71
37.04
48.57
59.99
71.16
82.12
93.28
105.31
118.93
134.61
152.36
171.63
191.45
210.83
229.01
245.75
261.32
276.35
291.59
307.92
326.18
346.84
369.5
392.28
411.86
424.3
426.48
417.58
399.6
376.69
353.34
332.72
315.65
301.03
286.99
272.19
256.35
239.95
223.49
206.84
189.41
170.61
150.46
129.79
109.97
92.36
77.76
66.14
56.77
48.63
40.78
32.68
24.17
15.29
6.06
-3.62
-13.87
-24.48
-34.71
-43.1
-47.78
-47.08
-40.16
-27.48
-10.7
7.8
25.71
41.35
53.97
63.51
70.26
74.49
76.38
76.09
73.99
70.71
67.06
63.73
61.02
58.71
56.14
52.68
48.05
42.64
37.24
32.7
29.34
26.8
24.24
20.95
16.88
12.8
10.1
10.1
13.6
20.54
30.2
41.54
53.48
65.07
75.46
83.87
89.74
92.8
93.28
91.85
89.47
87.06
85.33
84.62
85.05
86.53
88.85
91.65
94.36
96.23
96.52
94.85
91.46
87.35
84.05
83.19
86.16
93.81
106.45
123.79
144.86
167.78
189.89
208.08
219.68
223.2
218.65
207.2
190.48
169.72
145.56
118.36
88.73
57.79
27.03
-2.32
-29.72
-55.37
-79.89
-103.75
-127.05
-149.54
-170.93
-191.12
-210.15
-227.84
-243.61
-256.46
-265.32
-269.66
-269.93
-267.52
-264.12
-260.77
-257.11
-251.41
-241.44
-225.86
-205.37
-182.69
-161.55
-145.07
-134.6
-129.46
-127.81
-127.83
-128.38
-129.12
-129.91
-130.52
-130.75
-131.01
-132.55
-137.09
-145.64
-157.27
-168.91
-176.19
-175.37
-164.99
-146.51
-123.51
-100.01
-78.77
-60.7
-45.33
-31.83
-19.96
-10.15
-2.9
1.87
5.16
8.45
12.77
18.03
22.98
25.91
25.63
22.18
16.78
11.12
6.44
2.86
-0.58
-5.43
-12.96
-23.58
-36.68
-50.75
-63.81
-73.82
-79.04
-78.32
-71.33
-58.76
-42.07
-23.11
-3.63
15.25
33.02
49.56
64.64
77.7
87.78
93.97
95.93
94.18
89.98
84.91
80.24
76.54
73.7
71.21
68.61
65.66
62.38
58.76
54.67
49.77
43.74
36.5
28.16
19.07
9.67
0.47
-7.72
-13.71
-15.93
-12.82
-3.38
12.28
32.98
56.79
81.68
106.11
129.17
150.43
169.48
185.54
197.59
204.68
206.57
204.02
198.69
192.57
187.17
182.96
179.2
174.17
165.83
152.43
133.1
108.26
79.52
49.39
20.59
-4.73
-25.54
-42.19
-56.07
-69.01
-82.47
-97.04
-112.25
-126.6
-138.05
-144.48
-144.34
-137.17
-123.76
-105.87
-85.6
-64.69
-44.11
-24.15
-4.8
13.82
31.29
47.03
60.57
71.72
80.7
88.03
94.29
100.02
105.47
110.57
114.95
118.12
119.71
119.81
118.87
117.57
116.54
116.09
116.14
116.41
116.61
116.45
115.71
114.08
111.2
106.88
101.27
95.11
89.55
85.67
83.95
83.94
84.33
83.58
80.62
75.32
68.49
61.26
54.32
47.4
39.47
29.44
16.95
2.79
-11.46
-24.18
-34.46
-42.48
-49.3
-56.23
-64.44
-74.45
-86.1
-98.58
-110.69
-121.15
-128.99
-133.96
-136.45
-137.34
-137.55
-137.93
-139.11
-141.62
-145.81
-151.45
-157.22
-160.82
-159.56
-151.66
-137.3
-118.9
-100.12
-84.31
-73.11
-66.1
-61.52
-57.62
-53.58
-49.71
-46.93
-45.9
-46.51
-47.86
-48.8
-48.46
-46.73
-44.21
-41.8
-40.36
-40.41
-41.99
-44.81
-48.49
-52.72
-57.27
-62.02
-66.91
-71.91
-77.08
-82.58
-88.62
-95.14
-101.58
-106.71
-108.87
-106.49
-98.78
-86.07
-69.82
-52.09
-34.86
-19.46
-6.46
4.16
12.56
18.8
22.66
24
23
20.3
16.91
13.79
11.4
9.5
7.19
3.26
-3.18
-12.36
-23.71
-36.09
-48.26
-59.3
-68.86
-77.15
-84.72
-92.26
-100.38
-109.46
-119.45
-129.79
-139.22
-145.93
-147.99
-143.95
-133.61
-118.36
-101.05
-85.17
-73.84
-68.87
-70.4
-77.19
-87.38
-99.29
-111.8
-124.41
-136.98
-149.55
-162.5
-176.72
-193.66
-214.66
-239.95
-267.74
-294.17
-314.48
-325.03
-324.85
-316.2
-303.55
-291.54
-283.17
-278.89
-277.14
-275.59
-272.4
-266.74
-258.61
-248.18
-235.43
-220.21
-202.52
-182.88
-162.29
-142.06
-123.26
-106.43
-91.49
-77.82
-64.67
-51.51
-38.26
-25.25
-13.03
-1.98
7.85
16.78
25.38
34.09
43.1
52.26
61.21
69.67
77.63
85.38
93.43
102.25
111.97
122.4
133.1
143.63
153.85
164.03
174.71
186.47
199.55
213.75
228.48
243.14
257.33
271.14
285.02
299.6
315.54
333.46
353.99
377.55
403.83
431.18
456.42
475.33
483.94
480.11
464.33
439.58
410.08
379.66
350.63
323.66
298.41
274.42
251.6
230.02
209.56
189.61
169.42
148.8
128.74
111.49
100.02
97
103.5
118.26
137.66
156.62
170.26
175.56
172.23
162.38
149.11
134.91
120.76
106.34
90.99
74.65
57.96
41.72
26.03
10.1
-7.2
-26.39
-46.76
-66.47
-83.51
-96.63
-105.75
-111.73
-115.9
-119.59
-123.92
-129.58
-136.58
-143.88
-149.38
-150.45
-144.97
-132.34
-113.96
-92.79
-72.15
-54.65
-41.5
-32.61
-27.22
-24.55
-24.04
-25.3
-27.85
-31.01
-34.06
-36.49
-38.14
-39.11
-39.67
-39.98
-40.08
-39.96
-39.71
-39.66
-40.38
-42.69
-47.41
-55.01
-65.13
-76.26
-85.87
-91.18
-90.15
-82.43
-69.65
-54.92
-41.83
-33.37
-31.3
-36.06
-47.1
-63.18
-82.71
-103.95
-125.28
-145.6
-164.53
-182.23
-198.97
-214.66
-228.84
-241.25
-252.35
-263.44
-275.87
-289.86
-303.63
-313.67
-316.32
-309.52
-293.97
-272.68
-249.3
-226.31
-204.12
-181.47
-156.84
-129.76
-101.04
-72.21
-44.59
-18.64
5.77
28.79
49.89
67.91
81.5
89.9
93.49
93.62
92.19
90.8
90.32
90.69
91.28
91.28
90.09
87.45
83.34
78.06
72.23
67.15
64.67
67.04
76.26
93.5
118.66
150.38
186.52
224.72
262.74
298.49
329.97
355.37
373.31
383.3
385.87
382.35
374.21
362.51
347.7
329.91
309.35
286.58
262.32
237.08
210.76
182.79
152.47
119.52
84.47
48.54
13.45
-18.71
-45.71
-65.47
-76.68
-79.58
-76.35
-70.76
-66.93
-67.63
-73.26
-81.97
-91.07
-98.78
-105.35
-112.76
-123.28
-137.83
-155.04
-171.77
-184.52
-190.87
-190.16
-183.05
-170.59
-153.34
-131.31
-104.44
-73.4
-39.97
-6.67
23.98
50.1
70.71
85.57
94.89
99.37
100.49
100.56
102.33
108
118.08
130.93
143.28
151.66
153.92
149.84
140.66
127.93
112.53
94.48
73.78
51.27
29.02
9.92
-3.34
-9.39
-8.61
-3.04
4.35
10.63
13.66
12.75
8.85
4.41
2.54
6.08
16.61
34.01
56.78
82.72
109.76
136.22
160.66
181.57
197.3
206.52
208.95
205.83
199.78
193.92
190.7
190.87
193.31
195.53
194.77
188.99
177.52
160.97
140.78
118.5
95.39
72.33
50.11
29.6
11.86
-2.22
-12.38
-19.27
-24.4
-29.58
-36.33
-45.36
-56.53
-69.12
-82.25
-95.19
-107.4
-118.65
-128.81
-137.96
-146.31
-154.33
-162.48
-171.11
-180.06
-188.53
-195.09
-198.06
-196
-188.21
-175.07
-157.93
-138.74
-119.41
-101.34
-85.29
-71.49
-60.04
-51.12
-44.96
-41.62
-40.71
-41.37
-42.5
-43.18
-43
-42.12
-41.11
-40.64
-41.24
-43.26
-46.93
-52.34
-59.4
-67.67
-76.4
-84.76
-92.21
-98.72
-104.83
-111.39
-119.17
-128.61
-139.55
-151.22
-162.23
-170.75
-174.93
-173.44
-166.03
-153.8
-139
-124.37
-112.39
-104.64
-101.53
-102.33
-105.63
-109.76
-113.26
-115.15
-115.01
-112.82
-108.71
-102.76
-94.98
-85.58
-75.23
-65.01
-56.13
-49.39
-44.82
-41.75
-39.35
-37.08
-35.07
-33.89
-34.2
-36.39
-40.41
-45.71
-51.25
-55.51
-56.55
-52.44
-41.87
-24.82
-2.73
21.89
46.39
68.78
88.14
104.35
117.44
127.22
133.37
135.94
135.83
134.68
134.17
135.16
137.29
139.11
139.11
136.47
131.48
125.12
118.23
110.9
102.34
91.25
76.19
55.86
29.17
-4.51
-44.73
-89.32
-134.05
-173.28
-201.44
-214.96
-213.5
-199.93
-179.09
-155.93
-134.24
-116.14
-102.69
-94.56
-92.52
-97.08
-107.94
-123.28
-139.79
-153.17
-159.12
-154.16
-136.4
-106.02
-65.44
-19.3
26.26
64.98
92.12
105.92
108.03
102.81
95.55
90.72
90.65
95.46
103.88
114.31
125.64
137.14
148.1
157.1
162
160.38
150.43
131.91
106.63
78.1
50.35
26.72
8.8
-3.67
-12.24
-18.77
-24.61
-30.45
-36.61
-43.63
-52.44
-64.21
-79.7
-98.52
-118.7
-136.74
-148.24
-149.07
-136.65
-110.9
-74.46
-31.98
11.28
50.91
84.32
111.04
131.99
148.53
161.66
171.7
178.66
182.7
184.35
184.4
183.31
180.97
176.57
169
157.44
141.71
122.27
99.88
75.38
49.8
24.76
2.72
-13.38
-21
-19.01
-8.14
9.19
29.77
50.36
68.05
80.15
84.1
77.98
61.37
36.28
7.31
-19.21
-36.92
-41.22
-30.31
-5.39
29.94
70.55
110.88
145.89
172.07
187.97
194.33
193.32
187.56
179.13
169.33
159.06
149.46
142.21
139.02
140.65
146.44
154.61
163.49
172.47
182.1
192.97
204.42
214.03
218.48
215.44
205.02
190.09
174.75
162.08
152.35
142.94
129.86
110.03
82.98
50.9
17.29
-14.84
-44.35
-72.03
-99.6
-128.38
-158.38
-188.26
-216.28
-241.29
-263.01
-281.39
-295.36
-302.24
-298.23
-280.02
-246.48
-199.72
-144.68
-87.61
-34.46
10.33
43.94
64.87
72.39
66.59
48.52
20.52
-13.95
-50.95
-86.88
-119.07
-145.99
-167.02
-182.14
-191.72
-196.54
-197.75
-196.93
-195.68
-195.24
-196.18
-198.17
-200.21
-200.85
-198.54
-191.8
-179.42
-160.66
-135.53
-104.97
-70.79
-35.39
-1.29
29.38
55.08
75.01
89.08
97.74
102.04
103.5
103.82
104.44
106.07
108.35
110.04
109.65
106.24
99.98
92.35
85.55
81.61
81.33
83.51
84.98
81.39
68.7
44.82
10.74
-29.3
-68.88
-101.31
-121.69
-128.41
-123.4
-111.27
-97.46
-86.33
-79.7
-76.73
-74.66
-70.4
-62.05
-49.54
-34.53
-19.22
-5.2
7.41
19.8
33.42
48.66
63.83
75.29
78.73
71.07
52.16
25.36
-3.37
-27.56
-42.53
-46.91
-42.44
-32.53
-20.15
-6.46
9.47
29.65
55.79
88.31
125.93
166.08
205.6
241.54
271.41
293.39
306.38
310.04
304.84
292.07
273.74
252.32
230.42
210.16
192.56
176.97
161.05
141.45
115.05
80.38
38.34
-7.98
-54.52
-97.62
-135.04
-166.26
-191.74
-212.03
-226.94
-235.61
-236.86
-230.13
-215.89
-195.7
-171.87
-146.75
-122.3
-99.78
-79.84
-62.79
-48.86
-38.16
-30.66
-25.82
-22.69
-20.09
-17.1
-13.39
-9.38
-5.89
-3.78
-3.48
-4.83
-7.2
-9.85
-12.33
-14.69
-17.43
-21.32
-26.91
-34.22
-42.43
-49.91
-54.53
-54.34
-48.26
-36.56
-20.84
-3.5
13.03
27.18
38.38
46.92
53.38
57.97
60.5
60.53
57.96
53.27
47.55
42.07
37.75
34.78
32.62
30.39
27.32
23.15
18.1
12.74
7.56
2.79
-1.72
-6.35
-11.45
-17.23
-23.64
-30.51
-37.61
-44.63
-51.01
-55.81
-57.69
-55.27
-47.69
-35.05
-18.69
-0.83
16.09
30.1
40.33
47.01
51.16
53.95
56.28
58.43
60.14
60.96
60.53
58.97
56.81
54.84
53.68
53.61
54.57
56.38
59.04
62.69
67.24
71.99
75.55
76.25
72.96
65.66
55.5
44.01
32
18.8
2.59
-18.28
-43.43
-69.31
-89.82
-98.24
-90.05
-64.87
-26.55
18.25
62.42
100.19
127.91
143.56
146.05
135.01
111.21
77.41
38.44
0.3
-31.49
-53.48
-65.05
-67.94
-65.08
-59.43
-53.26
-48
-44.44
-42.95
-43.52
-45.8
-49.12
-52.71
-55.94
-58.43
-60.11
-60.97
-61.1
-60.68
-60.03
-59.52
-59.28
-59.03
-57.88
-54.65
-48.33
-38.62
-26.21
-12.64
0.23
10.85
18.41
22.93
25.05
25.6
25.19
24.1
22.25
19.48
15.68
11.01
5.78
0.47
-4.5
-8.96
-12.99
-16.97
-21.29
-26.19
-31.44
-36.46
-40.5
-43.06
-44.04
-43.83
-43
-42.06
-41.39
-41.21
-41.71
-43.06
-45.13
-47.35
-48.53
-47.23
-42.24
-33.16
-20.67
-6.41
7.57
19.41
27.91
32.61
33.49
30.65
24.15
14.32
2.14
-10.59
-21.51
-28.56
-30.6
-27.79
-21.4
-13.07
-4.16
4.56
12.73
20.05
26.14
30.64
33.53
35.3
36.7
38.09
38.99
38.11
34.09
26.55
16.94
8.3
4.17
6.84
16.08
29.01
41.31
49.12
50.49
45.72
36.4
24
9.02
-8.97
-30.35
-54.39
-78.86
-100.61
-116.7
-125.6
-127.81
-125.46
-121.57
-118.81
-118.85
-122.11
-128.29
-136.92
-147.79
-160.84
-175.67
-191.28
-206.12
-218.62
-227.78
-233.41
-235.84
-235.32
-231.68
-224.63
-214.36
-202
-189.3
-177.84
-168.04
-159.04
-149.37
-138.04
-125.42
-113.19
-103.3
-96.91
-93.71
-92.02
-89.78
-85.42
-78.53
-69.78
-60.48
-51.95
-45.08
-40.3
-37.57
-36.56
-36.61
-36.61
-34.96
-29.73
-19.27
-2.91
18.6
43.16
68.07
91.07
111.04
128.13
143.25
157.13
169.79
180.51
188.33
192.71
194.07
193.62
192.96
193.62
196.65
202.46
210.53
219.07
224.97
224.25
213.14
189.36
153.16
107.44
56.97
7.15
-37.32
-73.18
-98.99
-114.95
-122.61
-124.41
-123.15
-121.26
-120.16
-120.06
-119.9
-117.97
-112.52
-102.23
-86.67
-66.45
-43.21
-19.36
2.34
19.5
30.66
35.62
35.31
31.3
25.14
17.93
10.2
2.23
-5.52
-12.08
-16.03
-15.88
-10.75
-0.74
13.07
29
45.36
60.94
75.02
87.11
96.8
103.54
107.03
107.44
105.54
102.57
99.77
97.91
97.24
97.5
98.27
99.22
100.18
101.15
102.13
103.06
103.77
103.9
102.84
99.79
94.04
85.32
74.21
62.27
51.86
45.46
44.83
50.11
59.54
70.02
78.32
82.44
82.24
79.08
74.6
69.47
63
53.63
40.37
23.75
5.91
-10.52
-23.88
-34.59
-44.9
-57.61
-74.41
-95.01
-117.27
-138.33
-155.93
-169.37
-179.54
-188.2
-197.14
-207.33
-218.74
-230.48
-240.99
-248.2
-249.7
-243.07
-226.53
-199.85
-164.81
-124.82
-83.96
-45.68
-11.9
16.88
40.93
60.55
75.61
85.85
91.41
93.07
92.03
89.41
85.88
81.51
76.04
69.2
60.9
51.18
40.18
28.12
15.42
2.78
-9.01
-19.29
-27.79
-34.76
-40.91
-47.36
-55.27
-65.63
-78.75
-93.81
-108.65
-120.18
-125.18
-121.45
-108.59
-88.01
-62.37
-34.54
-6.88
19.09
42.43
62.51
78.72
90.64
98.25
102.11
103.38
103.42
103.47
104.21
105.71
107.41
108.44
107.97
105.43
100.79
94.44
87.07
79.37
71.78
64.43
57.23
50.03
42.71
35.29
27.74
19.91
11.55
2.49
-6.94
-15.65
-21.82
-23.41
-18.96
-8.25
7.47
25.9
44.61
61.86
76.87
89.62
100.24
108.49
113.73
115.16
112.34
105.39
95.04
82.31
68.43
54.62
42.04
31.68
24.04
19.09
16.18
14.42
13.11
11.92
11.03
10.74
11.21
12.1
12.72
12.18
9.67
4.69
-2.77
-12.11
-22.12
-30.97
-36.68
-37.72
-33.7
-25.68
-15.9
-7.01
-1.05
1.18
0.13
-3.04
-7.22
-11.73
-16.4
-21.18
-25.86
-30.03
-33.34
-35.73
-37.51
-39.12
-40.88
-42.77
-44.47
-45.79
-46.8
-47.98
-49.95
-53.15
-57.63
-63.04
-68.76
-74.02
-77.9
-79.34
-77.18
-70.44
-58.81
-42.99
-24.74
-6.44
9.69
22.2
30.71
35.75
38.21
38.82
37.97
35.79
32.41
28.23
23.87
20.04
17.25
15.64
14.96
14.71
14.34
13.42
11.67
8.88
4.85
-0.64
-7.67
-15.95
-24.55
-31.9
-36.12
-35.6
-29.71
-19.07
-5.54
8.46
20.73
29.99
36.09
39.72
41.81
42.94
43.15
42.09
39.45
35.29
30.22
25.12
20.8
17.72
15.77
14.5
13.24
11.41
8.58
4.44
-1.19
-8.25
-16.26
-24.18
-30.47
-33.49
-32.05
-25.92
