-26.2
-34.35
-41.05
-44.65
-43.71
-37.49
-26.43
-12.14
3.08
17.01
28.14
36.04
41.1
44.08
45.6
45.87
44.93
42.82
39.91
36.85
34.4
33.08
32.91
33.43
33.86
33.43
31.66
28.49
24.24
19.43
14.56
9.97
5.72
1.68
-2.36
-6.61
-11.22
-16.31
-22.01
-28.28
-34.78
-40.64
-44.53
-45.01
-41.16
-33
-21.69
-9.11
2.75
12.47
19.56
24.22
26.99
28.26
28.18
26.77
24.21
21.04
18.05
16.02
15.4
16.03
17.23
18.07
17.77
16
12.99
9.33
5.71
2.53
-0.18
-2.71
-5.44
-8.69
-12.62
-17.22
-22.39
-27.82
-32.97
-36.92
-38.58
-36.96
-31.68
-23.19
-12.75
-2.01
7.52
14.91
20.03
23.21
24.95
25.57
25.17
23.82
21.69
19.2
16.88
15.15
14.16
13.74
13.51
13.14
12.42
11.24
9.59
7.4
4.58
1.12
-2.85
-6.99
-10.93
-14.35
-17.21
-19.72
-22.3
-25.42
-29.39
-34.23
-39.54
-44.45
-47.75
-48.21
-45.01
-38.08
-28.24
-16.99
-6.05
3.21
10.14
14.78
17.64
19.31
20.16
20.38
20.11
19.51
18.87
18.44
18.34
18.47
18.62
18.62
18.45
18.25
18.17
18.26
18.37
18.2
17.51
16.24
14.6
12.98
11.79
11.27
11.4
11.84
12.06
11.45
9.55
6.29
2.18
-1.65
-3.71
-2.52
2.76
11.86
23.25
34.5
43
46.83
45.26
38.91
29.18
17.6
5.2
-7.77
-21.61
-36.63
-52.66
-68.91
-84.07
-96.85
-106.41
-112.64
-116.09
-117.62
-117.9
-116.96
-114.12
-108.26
-98.22
-83.39
-63.9
-40.9
-16.3
7.52
28.14
43.75
53.33
56.93
55.36
49.98
42.13
32.93
23.01
12.65
1.96
-8.97
-19.92
-30.42
-39.66
-46.75
-50.81
-51.26
-47.95
-41.25
-31.88
-21
-10.15
-1.24
3.81
3.62
-2.02
-11.88
-23.49
-33.89
-40.6
-42.3
-39.08
-32.05
-22.81
-12.86
-3.33
5.09
12.11
17.57
21.38
23.34
23.24
20.89
16.32
9.91
2.29
-5.74
-13.52
-20.76
-27.54
-34.27
-41.42
-49.23
-57.48
-65.45
-72.01
-75.87
-75.81
-70.86
-60.44
-44.52
-23.61
1.12
27.92
54.79
79.89
102.07
121.07
137.16
150.49
160.52
166.1
166.31
161.41
153.34
145.16
139.66
138.03
139.25
140.75
139.82
134.97
126.43
115.6
104
92.33
80.26
66.92
51.61
34.24
15.38
-4.01
-22.93
-40.39
-55.48
-67.3
-74.98
-77.87
-75.97
-70.14
-61.96
-53.37
-45.99
-40.67
-37.39
-35.55
-34.56
-34.25
-34.99
-37.3
-41.36
-46.57
-51.53
-54.6
-54.61
-51.34
-45.49
-37.88
-28.73
-17.54
-3.67
12.77
30.18
45.93
57.48
63.7
65.46
64.79
63.3
61.14
56.97
49.18
37.69
24.57
13.34
7.15
7.11
11.78
18.05
22.87
24.66
23.74
21.69
20.26
20.57
23.04
27.72
34.77
44.21
55.57
67.38
77.34
82.92
82.38
75.42
63.25
47.9
31.18
13.98
-3.99
-23.63
-45.52
-69.33
-93.49
-115.91
-134.89
-150.03
-162.46
-174.41
-188.33
-205.9
-227.34
-251.09
-273.97
-291.58
-299.12
-292.55
-269.94
-232.63
-185.31
-135
-88.82
-51.54
-24.04
-3.78
13.36
30.54
48.43
65.37
78.84
87.18
90.5
90.24
87.93
84.2
78.68
70.69
60.42
49.31
39.74
33.82
32.34
34.26
37.38
39.42
39.1
36.82
34.23
33.37
35.5
40.43
46.7
52.41
56.08
57.4
57.15
56.77
57.55
59.94
63.15
65.24
63.71
56.34
42.02
21.27
-3.8
-29.86
-53.07
-69.98
-78.45
-78.42
-72.23
-64.22
-59.32
-61.2
-70.71
-85.48
-101.16
-113.55
-120.52
-122.5
-121.48
-119.12
-115.42
-108.73
-96.99
-79.16
-55.85
-28.88
-0.45
27.53
53.52
76.12
93.93
105.77
111.13
110.54
105.53
98.1
90.06
82.55
75.89
69.69
63.15
55.33
45.49
33.41
19.69
5.58
-7.36
-18.03
-26.12
-32.07
-36.49
-39.6
-41.11
-40.44
-37.25
-31.68
-24.25
-15.78
-7.17
0.66
6.87
10.73
11.94
10.68
7.55
3.41
-1.07
-5.46
-9.6
-13.3
-16.29
-18.33
-19.55
-20.51
-22.06
-24.77
-28.54
-32.57
-35.9
-38.05
-39.23
-40.37
-42.65
-46.81
-52.74
-59.21
-64.19
-65.48
-61.5
-51.83
-37.45
-20.38
-3.13
12.04
23.67
31.33
35.37
36.57
35.78
33.71
30.83
27.52
24.13
21.14
18.93
17.75
17.49
17.75
17.93
17.48
16.08
13.67
10.43
6.48
1.83
-3.52
-9.36
-15.01
-19.29
-20.88
-18.85
-13.06
-4.34
5.81
15.75
24.16
30.36
34.21
35.9
35.67
33.76
30.49
26.32
21.82
17.54
13.88
10.96
8.73
7.04
5.73
4.63
3.56
2.21
0.12
-3.23
-8.09
-14.27
-20.85
-26.33
-29.08
-27.88
-22.5
-13.83
-3.62
6.16
13.98
19.1
21.52
21.64
19.92
16.66
12.09
6.54
0.55
-5.28
-10.47
-14.91
-18.84
-22.67
-26.73
-31.13
-35.77
-40.65
-46.03
-52.39
-60.13
-69.16
-78.54
-86.68
-91.89
-93.13
-90.53
-85.37
-79.53
-74.6
-71.3
-69.21
-67.17
-63.92
-58.55
-50.65
-40.18
-27.4
-12.71
3.33
20.29
38.23
58.19
82.05
111.87
148.69
191.29
235.72
276.06
306.32
322.51
324.29
314.91
299.96
285.39
275.69
272.93
276.63
284.34
292.58
297.76
297
288.67
272.63
250.16
223.51
195.13
167.14
140.96
117.21
95.94
76.67
58.4
39.59
18.43
-6.92
-37.83
-74.91
-117.54
-163.65
-209.52
-250.14
-280.18
-295.45
-294.26
-278.01
-250.59
-216.86
-181.02
-145.5
-111.1
-77.75
-45.51
-14.8
13.8
40.09
64.49
87.76
110.51
132.79
154.12
173.7
190.67
204.15
213.18
216.96
215.14
208.25
197.64
184.86
170.92
155.68
137.98
116.47
90.52
60.63
28.14
-5.56
-39.68
-74
-108.25
-141.31
-171.12
-195.21
-211.85
-220.92
-224.05
-223.94
-223.25
-223.75
-226.07
-230.01
-235.07
-240.84
-247
-253.27
-259.36
-265.07
-270.22
-274.45
-276.83
-275.72
-269.13
-255.56
-235.03
-209.46
-182.24
-156.94
-135.95
-119.65
-106.56
-94.33
-80.96
-65.66
-48.89
-31.77
-15.27
0.28
15.17
29.85
44.34
58
69.71
78.5
84.11
87.16
88.82
90.08
91.22
91.64
90.22
86.01
78.69
68.72
56.91
43.93
29.88
14.47
-2.51
-20.56
-38.3
-53.82
-65.54
-73.01
-77.18
-80.02
-83.57
-89
-96.17
-103.84
-110.48
-114.96
-116.99
-116.91
-115.17
-111.89
-106.72
-99.05
-88.44
-75.1
-59.84
-43.95
-28.73
-15.09
-3.47
6.11
13.85
19.92
24.45
27.55
29.46
30.52
31.13
31.56
31.83
31.7
30.8
28.73
25.34
20.89
16.14
12.26
10.5
11.78
16.28
23.35
31.66
39.67
46.11
50.35
52.48
53.04
52.71
51.94
50.92
49.61
47.99
46.11
44.18
42.39
40.89
39.64
38.48
37.2
35.64
33.76
31.59
29.21
26.67
23.97
21.12
18.16
15.14
12.15
9.25
6.44
3.68
0.79
-2.47
-6.3
-10.76
-15.47
-19.62
-22.05
-21.66
-17.91
-11.11
-2.4
6.66
14.66
20.82
25.1
27.97
30.02
31.55
32.61
33.03
32.78
32.02
31.13
30.49
30.29
30.51
30.92
31.26
31.34
31.11
30.52
29.53
28.02
25.9
23.18
20.1
17.02
14.31
12.2
10.59
9.14
7.34
4.73
1.02
-3.83
-9.46
-15.07
-19.41
-21.11
-19
-12.66
-2.73
9.23
21.14
31.2
38.46
43
45.67
47.55
49.43
51.63
54.06
56.54
59.03
61.6
64.38
67.46
70.86
74.56
78.55
82.83
87.29
91.62
95.33
97.81
98.56
97.34
94.32
90.11
85.69
82.04
79.7
78.21
75.82
69.69
56.71
34.76
3.86
-33.35
-72.21
-107.45
-134.96
-152.96
-162.31
-165.74
-166.56
-167.51
-169.91
-173.44
-176.34
-175.9
-169.26
-154.35
-130.77
-100.12
-65.71
-31.59
-1.22
23.62
43.21
59.75
76.8
98.27
127.32
164.79
208.09
251.06
285.29
302.94
299.64
276.33
238.81
195.29
153.16
116.6
86.03
59.32
33.72
7.32
-20.34
-48.57
-76.13
-101.52
-123.16
-139.63
-149.97
-154
-152.52
-147.17
-140.08
-133.34
-128.64
-126.98
-128.53
-132.68
-138.24
-143.77
-147.93
-149.75
-148.57
-143.83
-134.9
-121.2
-102.5
-79.2
-52.37
-23.47
6.04
34.9
61.95
85.85
105.01
117.87
123.63
122.8
117.3
109.8
102.58
96.7
91.58
85.64
77.31
66.09
52.94
39.94
29.33
22.51
19.52
19.21
19.92
20.36
19.91
18.61
16.67
14.14
10.82
6.6
1.77
-2.89
-6.31
-7.65
-6.62
-3.67
0.37
4.65
8.62
12.2
15.61
19.14
22.88
26.63
29.88
32.11
33.02
32.59
31.13
29.01
26.48
23.51
19.87
15.21
9.28
2.05
-6.24
-15.06
-23.57
-30.71
-35.33
-36.5
-33.89
-27.98
-20.12
-12.18
-6.01
-2.95
-3.45
-7.14
-13.05
-20.1
-27.45
-34.63
-41.38
-47.53
-52.7
-56.36
-57.96
-57.27
-54.55
-50.6
-46.5
-43.21
-41.17
-40.3
-40.1
-40.2
-40.62
-41.83
-44.42
-48.77
-54.69
-61.52
-68.44
-74.7
-79.77
-83.2
-84.42
-82.69
-77.36
-68.28
-56.13
-42.46
-29.19
-18.05
-10.05
-5.32
-3.32
-3.31
-4.64
-6.96
-10.11
-13.96
-18.22
-22.55
-26.59
-30.18
-33.4
-36.44
-39.52
-42.81
-46.45
-50.75
-56.11
-62.96
-71.49
-81.43
-92.18
-103.05
-113.6
-123.77
-133.71
-143.4
-152.24
-159.07
-162.21
-159.71
-149.64
-130.46
-101.31
-62.51
-15.84
35.72
88.59
139.72
187.7
233.35
279.27
328.19
380.68
433.54
479.78
510.76
519.62
504.43
469.35
422.99
374.81
331.3
294.06
260.44
226.2
188.24
145.97
100.8
54.91
10.3
-31.23
-67.45
-95.57
-113
-118.66
-113.84
-102.34
-89.2
-79.04
-74.82
-77.57
-87.1
-102.87
-124.51
-151.63
-183.2
-217.14
-250.66
-281.21
-307.66
-330.95
-353.44
-377.14
-401.55
-422.4
-432.36
-423.56
-390.73
-333.52
-256.79
-168.93
-79.12
5.05
79.13
142
195.28
242.16
285.82
327.83
366.88
398.87
418.44
421.37
406.78
377.5
338.68
295.46
251.15
207
163.08
119.52
76.78
35.34
-4.83
-44.19
-82.91
-119.91
-153.02
-180.16
-201.17
-219.06
-239.42
-267.99
-307.5
-355.5
-404.28
-443.33
-462.99
-457.88
-428.28
-379.32
-318.33
-252.09
-185.06
-119.15
-54.7
8.29
69.07
125.66
174.79
212.39
234.65
239.3
226.66
199.69
162.87
120.33
74.48
26.01
-25.08
-78.13
-131.23
-181.55
-226.19
-262.51
-287.93
-299.64
-294.8
-271.56
-230.47
-175.12
-111.32
-45.51
17.13
73.61
122.92
165.33
201.93
234.44
265.08
295.74
326.66
355.22
375.98
382.22
368.56
333.13
278.33
209.7
133.81
56.35
-18.55
-87.76
-148.32
-197.12
-231.71
-251.62
-259.03
-258.25
-254.19
-250.4
-248.09
-246.27
-242.91
-236.4
-226.49
-214.11
-200.69
-187.2
-173.46
-158.17
-139.49
-115.95
-87.04
-53.42
-16.44
22.45
62.39
102.99
143.91
184.07
221.42
253.28
277.42
293.01
301.07
304.01
304.61
305.04
306.28
308.25
310.19
311.24
310.65
307.96
302.85
295.04
284.14
269.41
249.98
225.12
194.93
160.92
126.11
94.29
68.8
51.28
40.97
35.04
29.7
21.63
8.92
-8.56
-29.71
-52.91
-76.76
-100.25
-122.74
-143.57
-161.97
-177.11
-188.5
-196.34
-201.55
-205.59
-210
-215.97
-224.13
-234.73
-247.89
-263.72
-282.01
-301.66
-320.22
-333.98
-338.72
-331.03
-309.63
-275.96
-233.85
-188.39
-144.23
-104.37
-69.64
-39.19
-11.53
14.5
39.16
61.94
82.01
98.77
112.19
122.74
131.11
137.79
142.89
145.94
146.03
142.14
133.61
120.69
104.89
88.94
76.19
69.6
70.94
80.24
95.87
115.01
134.59
152.33
167.28
179.83
191.07
201.72
211.38
218.27
219.92
214.24
200.73
180.7
156.68
131.29
106.05
81.14
55.7
28.78
0.08
-29.46
-57.77
-81.95
-98.94
-106.42
-103.65
-91.94
-74.34
-54.88
-37.26
-23.78
-14.97
-10.08
-8.1
-8.53
-11.71
-18.21
-28.03
-40.33
-53.66
-66.79
-79.17
-90.9
-101.96
-111.46
-117.66
-118.72
-114.01
-104.7
-93.29
-82
-71.14
-58.46
-40.14
-13.02
23.37
65.99
109.41
148.12
178.51
199.75
213.01
219.89
221.01
215.84
203.54
184.32
160.17
134.48
110.81
91.49
76.81
65.21
54.33
42.09
27.4
10.35
-8.06
-26.16
-41.85
-52.87
-57.25
-53.88
-43.14
-26.97
-8.4
9.4
24.1
34.7
41.39
45.01
46.28
45.49
42.54
37.4
30.44
22.6
15.16
9.26
5.48
3.67
3.38
4.31
6.55
10.38
15.64
21.19
24.97
24.89
20.07
11.75
3.08
-2.22
-1.62
4.98
15.26
25.71
33.24
36.48
35.92
33.19
29.89
26.75
23.49
19.25
13.4
6.07
-1.72
-8.55
-13.26
-15.59
-16.26
-16.6
-17.8
-20.18
-23.07
-25.33
-26.07
-25.04
-22.38
-17.95
-10.82
0.5
17.12
38.84
63.85
89.37
112.94
133.45
151.26
167.42
182.49
195.86
206.07
211.75
212.75
210.6
208.12
208.25
212.92
222.13
233.8
244.44
250.34
248.97
239.82
224.45
205.72
186.62
169.11
153.72
139.84
126.43
112.8
98.85
84.92
71.29
57.87
44.02
28.8
11.28
-9.16
-32.78
-59.37
-88.07
-117.14
-143.99
-165.58
-179.34
-184.03
-180.18
-169.96
-156.3
-141.97
-128.76
-117.24
-106.92
-96.79
-85.99
-74.43
-63.15
-54.22
-50.15
-52.97
-63.49
-81
-103.8
-130.06
-158.5
-188.49
-219.7
-251.39
-282.21
-310.4
-334.27
-352.46
-363.89
-367.5
-362.32
-347.99
-325.45
-297.41
-267.88
-241.03
-219.68
-204.44
-193.72
-184.59
-174.13
-160.36
-142.61
-121.23
-97.12
-71.46
-45.51
-20.74
1.32
19.4
32.8
41.73
47.36
51.5
55.95
61.88
69.43
77.71
85.18
90.16
91.49
89.08
84.03
78.48
74.95
75.42
80.42
88.59
97.06
102.55
102.79
97.49
88.37
78.33
70.07
64.98
62.93
62.7
62.95
62.84
62.17
61.1
59.62
57.35
53.63
47.96
40.37
31.43
21.96
12.62
3.59
-5.36
-14.42
-23.34
-31.19
-36.73
-39.05
-38.31
-35.94
-34.16
-35.26
-40.79
-51.29
-66.36
-85.23
-106.99
-130.65
-154.84
-177.56
-196.33
-208.69
-212.95
-208.74
-197.18
-180.48
-161.24
-141.79
-123.75
-107.98
-94.79
-84.14
-75.76
-69.07
-63.09
-56.54
-48.13
-37.1
-23.58
-8.63
6.18
19.31
29.8
37.42
42.53
45.64
47.13
47.19
45.96
43.71
40.91
38.13
35.85
34.29
33.32
32.57
31.59
29.89
27.08
22.81
16.95
9.77
2.08
-4.74
-9.13
-9.78
-6.25
0.88
10.14
19.8
28.4
35.15
39.83
42.57
43.43
42.38
39.45
34.91
29.48
24.19
19.99
17.46
16.53
16.61
16.77
16.12
13.99
10.03
4.25
-2.97
-10.79
-17.88
-22.65
-23.65
-20.07
-12.13
-1.13
11.05
22.48
31.81
38.45
42.46
44.11
43.71
41.43
37.53
32.52
27.22
22.53
19.2
17.5
17.11
17.29
17.17
16
13.34
9.11
3.46
-3.23
-10.29
-16.71
-21.11
-22.14
-18.93
-11.5
-0.89
11.12
22.66
32.34
39.52
44.09
46.12
45.54
42.17
36.03
27.63
18.14
9.14
2.09
-2.11
-3.38
-2.4
-0.21
2.16
3.96
4.85
4.69
3.37
0.76
-3.16
-7.93
-12.34
-14.55
-12.58
-5.13
7.78
24.63
42.9
59.97
73.99
84.36
91.64
96.92
101.24
105.17
108.73
111.69
113.86
115.21
115.93
116.28
116.53
116.88
117.56
118.93
121.24
124.39
127.39
128.17
123.99
112.23
91.58
62.82
28.8
-6.38
-38.72
-65.49
-85.9
-100.84
-112.13
-121.64
-130.73
-139.99
-149.44
-158.74
-167.45
-175.1
-181.13
-184.9
-185.64
-182.53
-174.99
-162.92
-146.86
-127.99
-107.86
-87.96
-69.47
-53.06
-38.95
-27.19
-17.79
-10.77
-6.06
-3.31
-1.94
-1.18
-0.4
0.62
1.62
1.91
0.71
-2.45
-7.38
-13.06
-17.85
-19.9
-17.82
-11.13
-0.53
12.39
25.59
37.32
46.53
53.03
57.22
59.7
60.93
61.15
60.44
58.97
57.1
55.25
53.78
52.75
51.96
51.02
49.58
47.53
44.97
42.14
39.17
36.01
32.45
28.29
23.43
18
12.38
6.99
2.26
-1.6
-4.67
-7.32
-10.14
-13.8
-18.68
-24.61
-30.7
-35.55
-37.61
-35.8
-29.99
-21.01
-10.47
-0.13
8.66
15.28
19.8
22.76
24.7
25.95
26.62
26.74
26.47
26.14
26.13
26.68
27.7
28.78
29.42
29.16
27.93
25.95
23.6
21.12
18.42
15.25
11.35
6.73
1.74
-3.04
-7.08
-10.16
-12.49
-14.55
-16.93
-20.09
-24.27
-29.4
-35.07
-40.48
-44.48
-45.76
-43.33
-36.9
-27.17
-15.66
-4.21
5.62
13.03
18.04
21.2
23.11
24.13
24.36
23.76
22.49
20.9
19.44
18.49
18.17
18.29
18.5
18.46
17.9
16.71
14.86
12.35
9.22
5.54
1.48
-2.72
-6.8
-10.56
-13.95
-17.03
-19.98
-23
-26.34
-30.17
-34.47
-38.84
-42.52
-44.43
-43.53
-39.31
-32.02
-22.76
-13.08
-4.44
2.26
6.79
9.38
10.37
9.93
8.11
5.05
1.2
-2.61
-5.42
-6.61
-6.14
-4.65
-3.15
-2.55
-3.27
-5.17
-7.67
-10.16
-12.29
-14.09
-15.86
-18.03
-20.97
-24.9
-29.84
-35.49
-41.15
-45.75
-48.03
-46.93
-42
-33.69
-23.22
-12.23
-2.23
5.8
11.5
14.98
16.48
16.2
14.31
11.13
7.2
3.37
0.41
-1.25
-1.76
-1.77
-2.16
-3.6
-6.25
-9.76
-13.51
-16.99
-20
-22.81
-26.01
-30.28
-36.02
-43.07
-50.58
-57.02
-60.65
-60
-54.52
-44.79
-32.44
-19.55
-7.96
1.22
7.76
12
14.5
15.64
15.6
14.47
12.45
9.91
7.31
5.02
3.24
1.87
0.62
-0.83
-2.73
-5.21
-8.32
-12.21
-17.14
-23.44
-31.18
-39.84
-48.12
-54.13
-55.9
-52.2
-43.07
-29.98
-15.32
-1.62
9.3
16.71
20.86
22.53
22.44
21
18.32
14.45
9.67
4.56
-0.1
-3.67
-5.85
-6.89
-7.44
-8.29
-10.11
-13.29
-17.98
-24.2
-31.83
-40.36
-48.75
-55.21
-57.6
-54.13
-44.15
-28.66
-10.09
8.45
24.24
35.72
42.7
45.94
46.52
45.28
42.62
38.69
33.67
28.07
22.56
17.86
14.32
11.78
9.69
7.3
4.05
-0.29
-5.66
-11.99
-19.31
-27.73
-37.07
-46.43
-54.03
-57.56
-54.98
-45.38
-29.53
-9.79
10.68
28.95
43.07
52.44
57.49
59.13
58.22
55.43
51.24
46.21
40.98
36.21
32.38
29.57
27.43
25.35
22.68
19.01
14.23
8.53
2.16
-4.8
-12.58
-21.58
-31.9
-42.83
-52.6
-58.64
-58.44
-50.58
-35.48
-15.35
6.58
27.16
44.27
57.1
65.77
70.82
72.68
71.67
68.2
63.1
57.53
52.64
49.22
47.27
46.12
44.76
42.28
38.28
32.99
27.01
20.94
15.03
8.98
2.1
-6.44
-17.06
-29.35
-41.81
-51.94
-56.96
-54.66
-44.39
-27.35
-6.37
15.15
34.33
49.62
60.82
68.52
73.4
75.65
75.13
71.82
66.28
59.78
53.84
49.61
47.33
46.23
44.97
42.36
37.89
31.98
25.61
19.76
14.9
10.72
6.35
0.73
-6.97
-16.99
-28.82
-41.14
-51.93
-58.78
-59.54
-53.07
-39.8
-21.72
-1.83
16.9
32.53
44.45
53.18
59.56
63.98
66.13
65.36
61.39
54.75
46.87
39.56
34.29
31.57
30.82
30.76
30
27.72
23.88
19.09
14.17
9.72
5.83
2.13
-1.98
-7.03
-13.32
-20.9
-29.61
-39.06
-48.44
-56.42
-61.21
-60.94
-54.46
-41.83
-24.64
-5.53
12.69
27.84
38.98
46.32
50.65
52.75
53.05
51.74
49
45.32
41.46
38.2
36.1
35.17
34.96
34.77
33.94
32.03
28.93
24.79
19.87
14.44
8.72
2.88
-2.96
-8.69
-14.26
-19.68
-25.12
-30.87
-37.3
-44.6
-52.48
-59.97
-65.42
-66.91
-62.98
-53.23
-38.71
-21.56
-4.39
10.64
22.37
30.68
36.13
39.45
41.09
41.27
40.12
37.95
35.29
32.75
30.74
29.41
28.52
27.66
26.47
24.81
22.77
20.48
18
15.17
11.68
7.27
1.89
-4.2
-10.43
-16.19
-21.02
-24.8
-27.81
-30.66
-34.07
-38.68
-44.75
-51.87
-58.9
-64.06
-65.45
-61.75
-52.72
-39.49
-24.26
-9.52
2.78
11.73
17.56
21.12
23.29
24.51
24.81
24.02
22.15
19.61
17.09
15.24
14.37
14.37
14.72
14.82
14.17
12.55
10.01
6.72
2.91
-1.21
-5.47
-9.69
-13.75
-17.59
-21.28
-25.07
-29.31
-34.36
-40.29
-46.69
-52.54
-56.36
-56.7
-52.63
-44.28
-32.78
-19.98
-7.81
2.35
9.92
15.08
18.32
20.09
20.55
19.68
17.52
14.41
11.03
8.19
6.55
6.28
6.99
7.88
8.04
6.85
4.15
0.31
-4.05
-8.31
-12.11
-15.43
-18.55
-21.91
-25.92
-30.85
-36.67
-42.99
-48.98
-53.46
-55.16
-53.11
-47.02
-37.44
-25.66
-13.36
-2.01
7.41
14.51
19.37
22.2
23.19
22.44
20.12
16.63
12.65
9.02
6.38
5.01
4.64
4.61
4.14
2.69
0.18
-3.04
-6.33
-9.19
-11.44
-13.36
-15.57
-18.75
-23.4
-29.64
-37.05
-44.64
-51.02
-54.62
-54.19
-49.23
-40.23
-28.61
-16.23
-4.8
4.66
11.89
17.2
21.01
23.48
24.56
24.12
22.31
19.65
16.92
14.79
13.56
12.98
12.43
11.24
9.03
5.88
2.25
-1.26
-4.25
-6.71
-8.98
-11.6
-15.08
-19.75
-25.71
-32.78
-40.41
-47.66
-53.21
-55.6
-53.71
-47.21
-36.82
-24.19
-11.34
0.05
9.07
15.74
20.65
24.49
27.61
29.88
30.95
30.56
28.83
26.29
23.75
21.9
21.04
20.89
20.77
19.87
17.67
14.13
9.69
4.98
0.56
-3.44
-7.17
-11.02
-15.35
-20.33
-25.99
-32.29
-39.15
-46.3
-53.12
-58.46
-60.89
-59.1
-52.48
-41.57
-27.91
-13.65
-0.68
9.82
17.73
23.58
28.12
31.79
34.58
36.22
36.51
35.59
33.84
31.83
29.87
28.02
26.09
23.87
21.4
18.92
16.75
15.01
13.44
11.42
8.29
3.67
-2.34
-9.04
-15.47
-20.84
-24.8
-27.59
-29.96
-32.77
-36.71
-42
-48.14
-53.99
-57.91
-58.23
-53.75
-44.33
-30.96
-15.59
-0.43
12.72
23.04
30.6
36.14
40.4
43.8
46.33
47.77
47.97
47.11
45.64
44.04
42.66
41.47
40.17
38.39
35.93
32.89
29.66
26.65
24
21.54
18.75
15.06
10.21
4.35
-1.96
-8.01
-13.25
-17.54
-21.1
-24.44
-28.09
-32.51
-37.97
-44.45
-51.5
-58.19
-63.11
-64.7
-61.77
-54.04
-42.38
-28.6
-14.79
-2.64
7.02
14.3
19.8
24.15
27.62
30.15
31.57
31.88
31.37
30.46
29.51
28.68
27.81
26.61
24.97
22.95
20.82
18.83
17.03
15.1
12.46
8.56
3.14
-3.53
-10.77
-17.63
-23.29
-27.3
-29.74
-31.16
-32.41
-34.39
-37.7
-42.43
-47.98
-53.01
-55.76
-54.59
-48.59
-38.01
-24.27
-9.45
4.39
15.92
24.8
31.5
36.73
40.97
44.21
46.04
46.06
44.16
40.66
36.21
31.51
27.03
22.9
19.03
15.22
11.31
7.29
3.2
-0.87
-4.95
-9.09
-13.37
-17.77
-22.19
-26.43
-30.3
-33.8
-37.09
-40.63
-44.86
-49.95
-55.4
-59.97
-61.98
-59.85
-52.85
-41.51
-27.55
-13.28
-0.78
8.83
15.59
20.39
24.3
27.94
31.27
33.73
34.78
34.32
32.82
31.08
29.78
29.2
28.97
28.41
26.86
23.99
19.98
15.33
10.66
6.38
2.61
-0.92
-4.63
-8.94
-14.19
-20.52
-27.84
-35.77
-43.51
-49.86
-53.35
-52.7
-47.26
-37.39
-24.48
-10.51
2.65
13.74
22.36
28.72
33.13
35.69
36.27
34.73
31.33
26.89
22.6
19.53
18.18
18.23
18.74
18.61
17.11
14.12
10.12
5.84
1.85
-1.71
-5.1
-8.8
-13.24
-18.7
-25.22
-32.64
-40.5
-47.97
-53.75
-56.37
-54.54
-47.7
-36.39
-22.16
-7.1
6.82
18.31
26.95
32.91
36.55
38.09
37.62
35.26
31.54
27.37
23.78
21.52
20.69
20.7
20.55
19.36
16.78
13.03
8.78
4.67
0.98
-2.49
-6.3
-11.12
-17.42
-25.24
-34.02
-42.61
-49.35
-52.48
-50.67
-43.52
-31.8
-17.31
-2.32
11.12
21.7
28.98
33.19
34.81
34.32
32.1
28.64
24.6
20.81
18.04
16.6
16.26
16.26
15.7
13.92
10.82
6.77
2.42
-1.7
-5.46
-9.18
-13.53
-19.19
-26.49
-35.04
-43.61
-50.29
-52.98
-50.16
-41.51
-28.12
-12.2
3.68
17.45
27.94
35
39.02
40.47
39.72
37.1
33.14
28.67
24.67
21.88
20.43
19.85
19.26
17.89
15.38
11.93
8.1
4.47
1.25
-1.79
-5.21
-9.72
-15.8
-23.55
-32.4
-41.04
-47.67
-50.37
-47.71
-39.36
-26.35
-10.81
4.73
18.09
28.05
34.44
37.81
38.88
38.23
36.21
33.13
29.42
25.72
22.68
20.63
19.5
18.81
17.92
16.3
13.79
10.53
6.88
3.12
-0.7
-4.86
-9.87
-16.24
-24.1
-32.85
-41.1
-46.86
-48.16
-43.75
-33.76
-19.72
-4.15
10.32
21.83
29.64
34.12
36.12
36.45
35.55
33.46
30.24
26.2
21.98
18.31
15.72
14.2
13.3
12.28
10.51
7.75
4.11
-0.09
-4.66
-9.7
-15.57
-22.54
-30.39
-38.12
-44.01
-46.18
-43.34
-35.32
-23.34
-9.54
3.76
14.77
22.71
27.77
30.62
31.97
32.17
31.27
29.21
26.1
22.37
18.6
15.44
13.16
11.65
10.45
9
6.84
3.78
-0.18
-5.03
-10.78
-17.54
-25.17
-33.02
-39.74
-43.56
-42.9
-36.99
-26.37
-12.76
1.46
14.1
23.76
30.14
33.71
35.25
35.38
34.42
32.46
29.63
26.25
22.75
19.49
16.6
13.95
11.27
8.35
5.18
1.93
-1.22
-4.24
-7.41
-11.27
-16.43
-23.26
-31.57
-40.35
-47.84
-51.97
-51.01
-44.38
-32.9
-18.6
-4.01
8.81
18.83
26.21
31.79
36.46
40.63
44.07
46.19
46.5
44.94
41.93
38.28
34.82
32.13
30.33
29.14
28.01
26.36
23.74
19.97
15.13
9.51
3.51
-2.5
-8.21
-13.49
-18.34
-22.9
-27.5
-32.53
-38.4
-45.24
-52.62
-59.42
-63.92
-64.39
-59.71
-49.98
-36.55
-21.64
-7.47
4.51
13.96
21.49
27.98
34.01
39.46
43.72
46.13
46.45
45.06
42.83
40.66
39.08
38.07
37.15
35.77
33.63
30.88
27.97
25.4
23.4
21.69
19.69
16.7
12.29
6.49
-0.17
-6.85
-12.78
-17.51
-21.06
-23.92
-26.82
-30.51
-35.48
-41.9
-49.44
-57.23
-63.95
-68.04
-68.09
-63.36
-54.09
-41.52
-27.48
-13.86
-1.92
7.86
15.74
22.3
28.03
33.05
37.1
39.83
40.99
40.69
39.32
37.53
35.88
34.76
34.21
34.01
33.81
33.21
31.99
30.05
27.48
24.38
20.91
17.19
13.26
9.16
4.84
0.27
-4.57
-9.66
-14.8
-19.77
-24.3
-28.24
-31.61
-34.66
-37.8
-41.48
-46.09
-51.79
-58.3
-64.74
-69.78
-71.81
-69.55
-62.5
-51.31
-37.6
-23.53
-10.98
-1
6.37
11.89
16.5
20.85
25.05
28.74
31.46
32.92
33.24
32.83
32.23
31.84
31.74
31.78
31.68
31.24
30.38
29.13
27.52
25.51
23.02
19.99
16.49
12.69
8.86
5.17
1.67
-1.75
-5.29
-9.13
-13.33
-17.81
-22.4
-26.83
-30.88
-34.51
-37.87
-41.33
-45.46
-50.69
-56.98
-63.55
-68.94
-71.37
-69.43
-62.65
-51.82
-38.68
-25.29
-13.38
-3.78
3.61
9.47
14.55
19.27
23.58
27.07
29.34
30.19
29.85
28.85
27.84
27.27
27.29
27.71
28.16
28.28
27.77
26.53
24.59
22.1
19.24
16.23
13.16
9.96
6.45
2.38
-2.34
-7.54
-12.8
-17.68
-21.87
-25.32
-28.29
-31.2
-34.48
-38.48
-43.4
-49.31
-55.9
-62.48
-67.87
-70.59
-69.31
-63.36
-53.12
-39.98
-25.91
-12.8
-1.92
6.44
12.71
17.66
21.94
25.74
28.88
31.05
32.11
32.22
31.85
31.47
31.41
31.63
31.8
31.52
30.51
28.88
26.89
24.89
22.99
20.91
18.14
14.16
8.75
2.18
-4.86
-11.49
-17
-21.11
-24.08
-26.61
-29.55
-33.67
-39.42
-46.75
-55.09
-63.35
-70
-73.42
-72.24
-65.89
-54.9
-40.79
-25.73
-11.79
-0.32
8.38
14.87
20.07
24.7
28.9
32.32
34.5
35.21
34.7
33.51
32.25
31.27
30.57
29.94
29.15
28.19
27.21
26.37
25.51
24.09
21.41
16.84
10.33
2.47
-5.69
-13.07
-18.97
-23.41
-26.96
-30.53
-35
-40.96
-48.56
-57.34
-66.24
-73.65
-77.68
-76.72
-70.09
-58.36
-43.37
-27.58
-13.28
-1.83
6.59
12.76
17.75
22.31
26.54
29.98
32.07
32.52
31.56
29.86
28.19
27.05
26.48
26.09
25.3
23.64
20.97
17.44
13.43
9.31
5.28
1.36
-2.7
-7.16
-12.28
-18.21
-25.02
-32.64
-40.84
-49.04
-56.18
-60.79
-61.32
-56.72
-46.94
-33.13
-17.34
-1.83
11.68
22.36
30.21
35.64
38.97
40.24
39.41
36.63
32.53
28.18
24.68
22.76
22.42
22.96
23.25
22.3
19.66
15.58
10.8
6.13
2
-1.74
-5.73
-10.78
-17.55
-26.28
-36.61
-47.55
-57.47
-64.45
-66.66
-62.94
-53.33
-39.12
-22.55
-5.96
8.88
21.21
31.07
38.89
44.85
48.76
50.23
49.09
45.77
41.32
37.07
34.05
32.58
32.15
31.65
29.92
26.32
20.93
14.51
8.1
2.46
-2.2
-6.38
-11.01
-17.1
-25.36
-35.89
-47.95
-59.96
-69.68
-74.79
-73.54
-65.47
-51.62
-34.25
-16
0.91
15.32
27.17
37.04
45.45
52.49
57.75
60.61
60.8
58.62
54.99
51.07
47.8
45.54
43.93
42.19
39.42
35.15
29.47
22.98
16.42
10.37
4.84
-0.58
-6.64
-14.08
-23.33
-34.4
-46.73
-59.08
-69.61
-76.18
-76.74
-70.14
-56.62
-37.94
-16.96
3.28
20.51
33.82
43.6
50.99
57.06
62.34
66.6
69.27
69.88
68.4
65.38
61.64
58.03
55.04
52.67
50.5
47.92
44.35
39.5
33.39
26.29
18.6
10.7
2.81
-4.94
-12.59
-20.24
-28.11
-36.48
-45.67
-55.83
-66.54
-76.57
-83.86
-86.04
-81.27
-69.12
-50.88
-29.3
-7.64
11.47
26.75
38.34
47.24
54.61
61.03
66.47
70.5
72.68
72.96
71.65
69.31
66.51
63.66
61.03
58.77
56.96
55.64
54.66
53.6
51.85
48.81
44.15
38.05
31.18
24.5
18.87
14.82
12.28
10.64
8.97
6.35
2.3
-2.85
-7.81
-10.49
-8.52
-0.13
15.23
36.48
61.3
86.99
111.38
133.55
153.76
172.88
191.45
209.19
224.85
236.72
243.31
243.87
238.64
228.67
215.48
200.55
185.02
169.46
153.88
137.96
121.35
103.89
85.68
66.92
47.71
28.01
7.88
-12.33
-31.71
-49.06
-63.33
-74.2
-82.36
-89.39
-97.19
-107.3
-120.14
-134.51
-147.41
-154.7
-152.16
-137.09
-109.55
-72.69
-31.83
7.27
40.34
65.74
84.38
98.73
111.35
123.76
136.03
146.98
154.99
158.68
157.61
152.4
144.61
136.08
128.15
121.02
113.64
104.23
91.04
73.08
50.5
24.48
-3.29
-31.06
-57.45
-81.55
-102.96
-121.79
-138.8
-155.41
-173.29
-193.57
-215.81
-237.52
-254.66
-263.29
-261.67
-251.55
-237.94
-227.29
-224.91
-232.9
-249.98
-272.75
-297.71
-322.73
-347.16
-370.75
-392.59
-410.72
-422.83
-427.54
-425.24
-417.99
-408.53
-398.98
-389.9
-380.38
-368.73
-353.56
-334.4
-311.84
-287.16
-261.78
-236.95
-213.56
-192.1
-172.48
-153.97
-135.17
-114.38
-90.22
-62.29
-31.44
0.35
30.68
57.5
79.68
97.07
110.16
119.6
125.92
129.52
130.84
130.49
129.26
127.81
126.49
125.13
123.26
120.33
116.01
110.33
103.6
96.19
88.28
79.8
70.33
59.52
47.26
34.1
21.36
11.05
5.29
5.67
12.54
24.76
39.97
55.36
68.59
78.46
85.02
89.08
91.55
92.87
92.9
91.08
86.99
80.73
73.06
65.17
58.25
53.03
49.52
47.08
44.74
41.62
37.15
31.13
23.45
14.07
3.08
-8.92
-20.54
-29.56
-33.51
-30.55
-20.31
-4.22
14.83
33.56
49.29
60.71
67.98
72.12
74.31
75.26
75.05
73.38
70.02
65.18
59.57
54.17
49.78
46.65
44.38
42.11
38.88
34.01
27.22
18.55
8.12
-3.92
-17.23
-30.88
-43.07
-51.34
-53.16
-47.03
-33.13
-13.49
8.65
29.94
47.94
61.55
70.88
76.68
79.71
80.54
79.49
76.87
73.16
68.92
64.66
60.64
56.86
53.08
49.05
44.7
40.07
35.32
30.45
25.14
18.68
10.18
-1.09
-15.19
-31.08
-46.44
-58.09
-62.75
-58.2
-44.22
-22.87
2.09
26.46
47.05
62.57
73.63
81.84
88.58
94.14
97.72
98.12
94.76
88.28
80.45
73.4
68.55
66.01
64.58
62.44
58.13
51.3
42.79
34.08
26.48
20.45
15.41
10.18
3.54
-5.23
-16.25
-29.06
-42.77
-56.02
-66.87
-72.97
-72.1
-62.97
-46.05
-23.62
0.79
23.6
42.37
56.31
66.06
72.92
77.89
81.27
82.74
81.84
78.56
73.48
67.73
62.46
58.48
55.91
54.23
52.61
50.18
46.44
41.25
34.86
27.68
20.12
12.46
4.86
-2.68
-10.24
-17.96
-26.07
-34.88
-44.61
-55.14
-65.61
-74.31
-78.94
-77.29
-68.13
-51.96
-30.98
-8.48
12.3
29.15
41.4
49.6
54.89
58.22
60
60.23
58.87
56.2
52.82
49.48
46.71
44.63
43.01
41.5
39.96
38.45
37.11
35.91
34.44
31.98
27.72
21.21
12.61
2.74
-7.24
-16.17
-23.31
-28.53
-32.37
-35.86
-40.21
-46.42
-54.85
-64.84
-74.7
-81.91
-83.92
-78.95
-66.84
-49.18
-28.88
-9.12
7.65
20.33
29.18
35.15
39.28
42.07
43.58
43.66
42.4
40.29
38.02
36.24
35.16
34.58
34.02
33.02
31.42
29.31
26.88
24.2
21.04
16.97
11.64
5.02
-2.48
-10.14
-17.21
-23.19
-28.08
-32.29
-36.6
-41.8
-48.41
-56.36
-64.68
-71.6
-74.89
-72.58
-63.82
-49.35
-31.45
-13.19
2.65
14.43
22.01
26.34
28.74
30.14
30.81
30.57
29.22
26.96
24.38
22.3
21.3
21.48
22.43
23.39
23.57
22.47
19.93
16.12
11.45
6.39
1.34
-3.44
-7.88
-12.03
-16.07
-20.21
-24.76
-30.03
-36.3
-43.53
-51.09
-57.63
-61.27
-60.21
-53.54
-41.68
-26.52
-10.66
3.43
14.27
21.6
26.04
28.42
29.25
28.63
26.45
22.85
18.52
14.47
11.68
10.61
11
11.96
12.43
11.6
9.23
5.74
1.83
-1.74
-4.62
-6.92
-9.1
-11.74
-15.28
-19.92
-25.63
-32.12
-38.78
-44.66
-48.37
-48.42
-43.68
-33.89
-19.99
-3.9
12.05
25.87
36.41
43.51
47.64
49.58
50.12
49.93
49.69
50.1
51.83
55.29
60.48
67.06
74.48
82.24
90.06
97.86
105.73
113.63
121.36
128.5
134.57
139.25
142.75
145.96
150.45
157.99
169.72
185.46
203.22
219.52
230.34
232.39
224.17
206.25
180.89
150.96
118.94
86.19
53.02
19.17
-15.5
-50.6
-85.11
-117.77
-147.66
-174.59
-199.11
-222.17
-244.62
-266.79
-288.69
-310.33
-332.05
-354.53
-378.09
-401.9
-423.55
-439.46
-446.2
-441.84
-426.64
-402.65
-372.51
-338.16
-300.36
-259.32
-215.62
-171.05
-128.47
-90.82
-60.09
-36.69
-19.62
-7.21
2.06
9.26
15.07
20
24.54
29.05
33.63
37.99
41.42
43.05
42.03
38
31.31
23.19
15.67
11.06
11.27
17.07
27.79
41.52
55.72
68.09
77.21
82.71
85.06
85.09
83.54
80.93
77.63
74.07
70.8
68.42
67.27
67.18
67.42
66.88
64.48
59.48
51.76
41.77
30.28
18.15
6.02
-5.57
-16.13
-25.01
-31.31
-34.11
-32.81
-27.51
-19.14
-9.27
0.38
8.57
14.83
19.37
22.72
25.26
27.02
27.81
27.61
26.76
25.91
25.68
26.21
27.07
27.48
26.79
24.88
22.33
20.06
18.87
19.03
20.07
20.9
20.31
17.36
11.83
4.44
-3.18
-8.91
-10.55
-6.46
3.88
19.53
38.08
56.03
69.59
75.68
72.74
61.16
42.97
21.18
-1.11
-21.32
-37.65
-48.95
-54.68
-54.86
-50.19
-42.13
-32.68
-23.87
-17.22
-13.54
-12.81
-14.59
-18.2
-23
-28.49
-34.31
-40.25
-46.14
-51.62
-55.92
-57.74
-55.57
-48.29
-35.86
-19.6
-1.86
14.79
28.53
38.79
46.06
51.21
54.75
56.58
56.3
53.82
49.75
45.34
41.93
40.32
40.43
41.42
42.27
42.3
41.53
40.69
40.81
42.63
46.1
50.11
52.67
51.67
45.66
34.76
20.95
7.7
-0.97
-1.71
7.13
25.06
49.64
77.26
104
126.56
142.66
151.16
151.82
144.95
131.2
111.6
87.77
62
36.95
14.82
-3.31
-17.92
-30.7
-43.56
-57.73
-73.2
-88.97
-103.8
-116.95
-128.47
-138.95
-149.04
-159.07
-169.1
-179.24
-189.89
-201.47
-213.9
-225.97
-235.34
-239.07
-234.78
-221.6
-200.62
-174.46
-146.27
-118.69
-93.1
-69.68
-47.88
-27.12
-7.21
11.52
28.49
43.17
55.42
65.46
73.77
80.79
86.86
92.07
96.36
99.6
101.64
102.34
101.5
98.87
94.25
87.6
79.2
69.68
59.77
50.18
41.28
33.1
25.27
17.18
8.26
-1.73
-12.27
-21.99
-28.84
-30.7
-26.22
-15.55
-0.33
16.69
32.71
45.84
55.57
62.55
67.92
72.54
76.55
79.54
80.9
80.35
78.17
75.09
71.96
69.34
67.35
65.62
63.62
60.89
57.29
53.05
48.57
44.18
39.99
35.76
31.02
25.29
18.36
10.36
1.85
-6.44
-13.84
-19.97
-24.89
-29.07
-33.22
-38.05
-44.13
-51.72
-60.65
-70.12
-78.72
-84.55
-85.67
-80.76
-69.67
-53.67
-35.07
-16.54
-0.23
12.83
22.8
30.56
37.09
42.91
47.86
51.43
53.12
52.88
51.19
48.93
46.95
45.77
45.34
45.19
44.73
43.53
41.53
38.93
36.1
33.23
30.3
27.04
23.15
18.47
13.01
6.98
0.68
-5.58
-11.54
-17.04
-21.98
-26.4
-30.5
-34.71
-39.53
-45.46
-52.71
-61.01
-69.38
-76.21
-79.61
-77.87
-70.28
-57.38
-40.99
-23.63
-7.68
5.4
15.29
22.67
28.51
33.54
37.88
41.21
43.13
43.58
42.94
41.87
41.06
40.88
41.23
41.66
41.56
40.47
38.27
35.24
31.87
28.63
25.73
22.98
19.93
15.99
10.83
4.55
-2.32
-9
-14.75
-19.17
-22.33
-24.73
-27.08
-30.12
-34.45
-40.45
-48.21
-57.26
-66.53
-74.24
-78.29
-76.86
-69.19
-56.03
-39.59
-22.82
-8.29
2.67
10.21
15.63
20.4
25.46
30.85
35.95
40.05
42.82
44.42
45.33
45.91
46.19
45.79
44.29
41.52
37.72
33.53
29.69
26.69
24.49
22.51
19.87
15.76
9.87
2.48
-5.63
-13.49
-20.33
-25.86
-30.29
-34.21
-38.29
-43.12
-49.06
-56.06
-63.54
-70.31
-74.71
-75.01
-70.03
-59.68
-45.12
-28.52
-12.26
1.73
12.48
20.07
25.14
28.48
30.63
31.79
31.98
31.3
30
28.46
27.08
26.06
25.4
24.88
24.27
23.39
22.2
20.7
18.81
16.35
12.98
8.46
2.77
-3.73
-10.46
-16.73
-22.1
-26.49
-30.26
-34.04
-38.62
-44.64
-52.31
-61.14
-69.77
-76.16
-78.11
-73.99
-63.5
-47.86
-29.52
-11.31
4.46
16.59
25.06
30.59
34.1
36.23
37.27
37.3
36.4
34.8
32.83
30.85
29.08
27.6
26.3
24.96
23.38
21.39
18.86
15.67
11.73
6.94
1.32
-4.93
-11.45
-17.77
-23.52
-28.54
-33.04
-37.57
-42.91
-49.76
-58.32
-67.97
-77.01
-83.05
-83.62
-77.15
-63.73
-45.18
-24.6
-5.24
10.54
21.82
29.01
33.17
35.29
35.83
34.84
32.25
28.34
23.82
19.72
16.95
15.93
16.44
17.59
18.3
17.61
15.11
10.99
5.99
0.93
-3.63
-7.59
-11.4
-15.75
-21.28
-28.34
-36.91
-46.7
-57.04
-66.9
-74.75
-78.77
-77.27
-69.36
-55.47
-37.44
-17.95
0.35
15.62
27.2
35.32
40.51
43.05
42.92
40.15
35.26
29.48
24.43
21.48
21.08
22.63
24.64
25.44
23.91
19.91
14.18
7.95
2.25
-2.49
-6.56
-10.78
-16.1
-23.27
-32.59
-43.72
-55.59
-66.38
-73.77
-75.45
-69.89
-56.94
-38.12
-16.24
5.56
24.65
39.54
49.86
55.9
58.11
56.84
52.49
45.87
38.34
31.59
27.06
25.35
25.93
27.36
27.93
26.44
22.63
17.16
11.18
5.72
1.2
-2.71
-6.89
-12.34
-19.85
-29.62
-41.08
-52.8
-62.62
-68.11
-67.21
-58.93
-43.83
-23.93
-2.18
18.48
35.9
49.05
57.85
62.68
63.99
62.18
57.84
51.94
45.88
41.13
38.61
38.32
39.29
39.99
39.12
36.12
31.37
25.86
20.57
15.93
11.66
6.96
0.86
-7.27
-17.55
-29.36
-41.33
-51.42
-57.3
-56.88
-49.15
-34.66
-15.59
4.87
23.59
38.43
48.62
54.55
57.06
56.81
54.15
49.38
43.21
36.88
31.8
28.93
28.28
28.82
28.92
27.2
23.07
16.96
9.98
3.27
-2.54
-7.56
-12.57
-18.59
-26.51
-36.7
-48.78
-61.41
-72.46
-79.39
-79.89
-72.74
-58.29
-38.55
-16.6
4.38
22.02
35.2
43.98
49.01
51.02
50.47
47.68
43.09
37.51
32
27.56
24.73
23.36
22.7
21.76
19.75
16.35
11.74
6.31
0.34
-6.31
-14.07
-23.3
-33.74
-44.15
-52.3
-55.66
-52.27
-41.67
-25.3
-6.03
12.69
28.1
38.84
45.08
47.98
48.79
48.3
46.65
43.63
39.2
33.77
28.16
23.24
19.53
16.94
14.89
12.56
9.32
4.92
-0.52
-6.7
-13.44
-20.75
-28.69
-36.89
-44.3
-49.14
-49.42
-43.75
-32.11
-16.02
1.85
18.68
32.44
42.38
48.88
52.79
54.79
55.06
53.51
50.1
45.19
39.51
33.93
29.07
25.13
21.91
19.02
16.12
13
9.56
5.66
1.07
-4.57
-11.68
-20.5
-30.79
-41.58
-51.07
-57.04
-57.43
-51.24
-38.96
-22.49
-4.59
12.18
26.24
37.21
45.56
52
56.77
59.65
60.26
58.48
54.86
50.41
46.27
43.09
40.92
39.17
37.11
34.27
30.61
26.5
22.3
18.1
13.55
8.12
1.33
-6.83
-15.87
-24.93
-33.13
-39.92
-45.35
-49.93
-54.54
-60.08
-67.17
-75.84
-85.3
-93.87
-99.3
-99.32
-92.53
-78.91
-60.12
-38.88
-18.14
-0.06
14.51
25.94
35.19
43.02
49.57
54.39
56.86
56.84
54.81
51.81
48.93
46.79
45.34
44.01
42.08
39.19
35.51
31.61
28.04
24.94
21.93
18.26
13.26
6.74
-0.87
-8.63
-15.57
-21.03
-24.99
-28.02
-31.12
-35.3
-41.23
-49.02
-57.93
-66.47
-72.69
-74.68
-71.22
-62.24
-48.9
-33.2
-17.35
-3.01
9.07
18.95
27.13
34
39.58
43.59
45.76
46.14
45.22
43.79
42.59
41.98
41.78
41.4
40.15
37.64
33.96
29.68
25.52
22
19.17
16.57
13.52
9.44
4.2
-1.85
-8.01
-13.54
-18
-21.47
-24.53
-27.96
-32.54
-38.71
-46.46
-55.17
-63.62
-70.17
-73.04
-70.88
-63.19
-50.76
-35.44
-19.72
-5.82
5
12.75
18.44
23.4
28.47
33.68
38.32
41.45
42.57
41.82
39.9
37.72
35.86
34.34
32.74
30.51
27.35
23.37
19
14.74
10.87
7.28
3.59
-0.64
-5.7
-11.53
-17.7
-23.55
-28.4
-31.81
-33.74
-34.52
-34.78
-35.19
-36.34
-38.64
-42.32
-47.41
-53.65
-60.23
-65.8
-68.67
-67.32
-61.04
-50.31
-36.73
-22.47
-9.54
0.88
8.58
14.08
18.09
21.11
23.3
24.58
24.94
24.54
23.74
22.9
22.26
21.81
21.39
20.84
20.03
18.92
17.49
15.67
13.31
10.27
6.51
2.17
-2.45
-6.98
-11.03
-14.4
-17.11
-19.46
-21.97
-25.23
-29.67
-35.25
-41.28
-46.42
-49.05
-47.8
-42.17
-32.76
-21.12
-9.22
1.3
9.5
15.35
19.27
21.77
23.04
23.02
21.53
18.67
14.96
11.24
8.41
7.03
7.06
7.84
8.37
7.71
5.38
1.56
-3.09
-7.72
-11.71
-14.92
-17.69
-20.57
-24.12
-28.61
-34.02
-40
-45.94
-50.94
-53.92
-53.84
-50.03
-42.56
-32.3
-20.73
-9.42
0.4
8.16
13.88
17.84
20.31
21.32
20.85
19.05
16.35
13.47
11.16
9.87
9.56
9.68
9.42
8.08
5.4
1.6
-2.7
-6.85
-10.42
-13.47
-16.46
-20.1
-25.08
-31.72
-39.83
-48.53
-56.36
-61.62
-62.86
-59.26
-51.06
-39.47
-26.3
-13.42
-2.18
6.85
13.75
18.97
22.91
25.64
27.03
26.89
25.34
22.84
20.17
18.04
16.79
16.21
15.61
14.22
11.6
7.86
3.6
-0.48
-3.93
-6.86
-9.83
-13.64
-18.92
-25.98
-34.61
-44.17
-53.52
-61.13
-65.32
-64.66
-58.56
-47.55
-33.28
-18.01
-3.88
7.78
16.71
23.47
28.96
33.8
38.05
41.31
43.06
43.03
41.49
39.12
36.8
35.19
34.44
34.13
33.48
31.73
28.5
23.9
18.48
12.87
7.45
2.24
-3.09
-8.92
-15.52
-22.94
-31.07
-39.79
-48.78
-57.39
-64.4
-68.14
-66.95
-59.94
-47.48
-31.34
-14.05
1.93
15.07
24.98
32.23
37.7
42.04
45.45
47.85
49.09
49.24
48.58
47.58
46.66
46.04
45.68
45.35
44.67
43.21
40.64
36.78
31.6
25.21
17.74
9.37
0.3
-9.19
-18.74
-27.83
-36.06
-43.25
-49.56
-55.48
-61.48
-67.51
-72.75
-75.59
-74.2
-67.31
-54.92
-38.43
-20.26
-2.98
11.59
22.81
31.15
37.61
43.04
47.75
51.48
53.71
54.1
52.7
50
46.74
43.63
41.16
39.5
38.55
38.02
37.59
36.86
35.46
33.02
29.27
24.12
17.71
10.4
2.71
-4.86
-11.97
-18.58
-25
-31.82
-39.64
-48.56
-57.92
-66.02
-70.56
-69.36
-61.31
-46.94
-28.48
-9.06
8.42
22.17
31.89
38.46
43.08
46.67
49.51
51.35
51.88
50.98
48.93
46.26
43.52
41.06
38.98
37.12
35.19
32.92
30.09
26.58
22.37
17.45
11.89
5.81
-0.6
-7.05
-13.22
-18.93
-24.21
-29.39
-35.05
-41.77
-49.79
-58.59
-66.79
-72.26
-72.84
-67.14
-55.26
-38.91
-20.86
-4.03
9.57
19.28
25.69
29.92
32.89
34.94
35.79
35.07
32.71
29.23
25.55
22.67
21.14
20.85
21.08
20.82
19.3
16.24
12.01
7.35
3.05
-0.5
-3.45
-6.32
-9.76
-14.25
-20
-26.9
-34.67
-42.76
-50.31
-56.03
-58.43
-56.14
-48.57
-36.27
-20.91
-4.82
9.76
21.35
29.41
34.17
36.16
35.88
33.66
29.93
25.35
20.91
17.55
15.83
15.62
16.16
16.42
15.52
13.15
9.56
5.38
1.27
-2.48
-5.93
-9.53
-13.87
-19.46
-26.57
-34.96
-43.73
-51.34
-55.93
-55.86
-50.31
-39.66
-25.47
-9.97
4.64
16.83
25.97
32.14
35.79
37.32
37
35.04
31.85
28.05
24.4
21.49
19.53
18.26
17.09
15.4
12.83
9.44
5.57
1.63
-2.17
-5.97
-10.27
-15.7
-22.74
-31.37
-40.82
-49.54
-55.52
-56.86
-52.46
-42.52
-28.55
-12.87
2.15
14.81
24.48
31.33
35.93
38.75
39.92
39.41
37.29
34.03
30.35
27.01
24.44
22.5
20.65
18.22
14.89
10.82
6.56
2.7
-0.53
-3.41
-6.73
-11.37
-17.99
-26.66
-36.69
-46.58
-54.37
-58.06
-56.28
-48.79
-36.67
-22.01
-7.22
5.77
16.09
23.86
29.8
34.58
38.4
40.94
41.7
40.46
37.56
33.89
30.5
28.09
26.76
25.92
24.71
22.41
18.78
14.21
9.38
4.92
1.04
-2.56
-6.55
-11.65
-18.3
-26.54
-35.89
-45.46
-53.93
-59.75
-61.42
-57.9
-49.05
-35.8
-20.03
-4.01
10.25
21.56
29.72
35.27
39.07
41.84
43.88
45.15
45.47
44.75
43.12
40.9
38.48
36.15
34.07
32.18
30.36
28.45
26.32
23.78
20.61
16.54
11.36
5.07
-2.02
-9.39
-16.37
-22.52
-27.73
-32.36
-37.15
-42.87
-49.98
-58.19
-66.3
-72.36
-74.29
-70.61
-61.09
-47.02
-30.7
-14.74
-1.09
9.48
17.32
23.38
28.56
33.22
37.19
40.05
41.53
41.78
41.3
40.71
40.36
40.22
39.88
38.88
36.97
34.35
31.55
29.1
27.22
25.59
23.47
20.02
14.76
7.82
-0.04
-7.74
-14.33
-19.36
-23.05
-26.14
-29.57
-34.17
-40.39
-48.16
-56.87
-65.28
-71.79
-74.6
-72.31
-64.42
-51.65
-35.85
-19.5
-4.72
7.24
16.35
23.41
29.35
34.72
39.42
42.97
44.95
45.4
44.91
44.25
44.07
44.43
44.83
44.37
42.22
38
31.98
24.96
17.9
11.47
5.81
0.53
-4.96
-10.96
-17.18
-22.72
-26.5
-27.72
-26.34
-23.15
-19.54
-17
-16.59
-18.64
-22.69
-27.65
-32.09
-34.5
-33.63
-28.68
-19.58
-7.07
7.44
22.09
35.09
45.28
52.42
57.24
60.85
64.07
66.86
68.38
67.62
64.2
58.9
53.45
49.72
48.81
50.51
53.65
56.83
59.25
60.96
62.53
64.31
65.97
66.49
64.67
59.83
52.1
42.34
31.69
20.92
10.18
-0.93
-13.04
-26.61
-41.71
-57.94
-74.41
-89.82
-102.54
-111.05
-114.41
-112.82
-107.7
-101.19
-95.2
-90.44
-86.23
-81.02
-73.53
-63.6
-52.38
-41.6
-32.61
-25.66
-19.94
-14.26
-7.82
-0.74
6.14
11.69
15.16
16.41
15.84
14.15
11.91
9.4
6.51
2.89
-1.84
-7.86
-14.83
-21.92
-27.83
-31.21
-31.24
-28.15
-23.3
-18.73
-16.23
-16.38
-18.12
-19.08
-16.6
-8.95
3.91
20.4
38.12
54.87
69.35
81.19
90.49
97.34
101.54
102.79
101.21
97.57
93.35
90.17
89.11
90
91.35
90.58
85
72.77
53.56
28.81
1.25
-25.97
-50.15
-69.71
-84.26
-94.29
-100.63
-103.94
-104.5
-102.29
-97.16
-89.12
-78.52
-66.07
-52.75
-39.72
-28.23
-19.48
-14.47
-13.77
-17.28
-24.08
-32.56
-40.79
-47.01
-50.21
-50.28
-47.87
-43.87
-39
-33.57
-27.56
-20.91
-13.7
-6.21
1.16
7.91
13.44
16.87
17.17
13.29
4.72
-7.98
-22.94
-37.12
-47.13
-50.35
-45.87
-34.88
-20.22
-5.38
6.6
13.99
16.5
14.78
9.86
2.69
-5.87
-14.8
-22.83
-28.65
-31.49
-31.56
-30.11
-28.94
-29.67
-33.17
-39.29
-47.13
-55.41
-62.78
-68.11
-70.68
-70.41
-67.89
-64.13
-60.07
-55.88
-50.58
-42.38
-29.57
-11.61
10.33
33.67
55.48
73.73
87.87
98.71
107.55
115.34
122.24
128.01
132.57
136.34
140.24
145.04
150.89
157.1
162.43
165.7
166.2
163.72
158.18
149.25
136.31
118.71
96.32
69.97
41.57
13.91
-9.88
-27.05
-35.95
-36.55
-30.6
-21.19
-11.92
-5.77
-4.39
-7.86
-15.22
-25.09
-36.5
-48.89
-61.92
-75.07
-87.5
-98.28
-106.81
-113.11
-117.72
-121.34
-124.52
-127.42
-129.84
-131.59
-132.56
-132.9
-132.96
-133.22
-134.32
-136.94
-141.63
-148.28
-155.83
-162.08
-164.26
-159.93
-147.94
-128.89
-104.89
-78.63
-52.5
-27.95
-5.56
14.4
31.51
45.08
54.36
59.06
59.52
56.58
51.14
43.69
34.15
22.04
6.91
-11.22
-31.61
-52.8
-72.92
-90.14
-103.18
-111.68
-116.24
-118.24
-119.35
-120.94
-123.6
-126.88
-129.33
-128.88
-123.5
-111.86
-93.97
-71.25
-46.09
-21.1
1.78
21.72
39
54.35
68.24
80.43
90.14
96.54
99.42
99.51
98.23
97.15
97.28
98.71
100.61
101.78
101.19
98.47
93.99
88.5
82.69
76.8
70.58
63.46
54.93
44.72
32.95
20.07
6.91
-5.27
-14.83
-19.97
-19.25
-12.3
-0.11
15.1
30.6
44.16
54.67
62.3
67.92
72.33
75.77
77.88
78.1
76.19
72.53
67.98
63.63
60.29
58.21
57.12
56.38
55.24
53.06
49.52
44.61
38.63
32.06
25.41
18.99
12.86
6.84
0.57
-6.26
-13.88
-22.43
-31.82
-41.66
-50.96
-58.16
-61.32
-58.82
-49.96
-35.48
-17.46
1.38
18.56
32.65
43.39
51.4
57.48
62.15
65.45
67.18
67.18
65.61
62.87
59.49
55.92
52.41
49.09
45.97
43.03
40.29
37.61
34.72
31.17
26.51
20.48
13.21
5.22
-2.7
-9.76
-15.5
-19.89
-23.4
-26.79
-30.89
-36.21
-42.71
-49.54
-55.07
-57.36
-54.69
-46.38
-33.11
-16.88
-0.28
14.35
25.68
33.55
38.69
42.07
44.35
45.67
45.82
44.61
42.16
38.91
35.53
32.62
30.53
29.26
28.52
27.86
26.82
24.97
22.1
18.17
13.31
7.78
1.88
-4.15
-10.12
-15.94
-21.55
-26.99
-32.42
-38.06
-44.15
-50.63
-56.95
-61.97
-64.19
-62.25
-55.53
-44.44
-30.45
-15.54
-1.55
10.29
19.73
27.16
33.18
38.18
42.14
44.69
45.48
44.47
42.04
38.94
36
33.76
32.37
31.54
30.72
29.4
27.25
24.2
20.41
16.16
11.68
7.16
2.67
-1.8
-6.3
-10.91
-15.81
-21.19
-27.28
-34.09
-41.21
-47.7
-52.16
-53.14
-49.64
-41.61
-29.99
-16.5
-3.06
8.81
18.32
25.42
30.57
34.27
36.83
38.31
38.59
37.63
35.64
33.06
30.51
28.52
27.33
26.83
26.62
26.16
25.01
22.94
19.97
16.26
12.01
7.37
2.42
-2.73
-7.95
-13.11
-18.09
-22.98
-28.08
-33.74
-40.13
-46.91
-52.98
-56.77
-56.55
-51.24
-40.92
-26.87
-11.18
3.97
17.05
27.51
35.5
41.51
45.82
48.31
48.67
46.74
42.75
37.38
31.57
26.16
21.73
18.35
15.76
13.46
10.97
7.91
4.18
-0.06
-4.53
-8.86
-12.77
-16.19
-19.24
-22.17
-25.34
-29.11
-33.86
-39.83
-46.93
-54.49
-61.22
-65.39
-65.37
-60.28
-50.41
-37.2
-22.78
-9.21
2.15
10.84
17.11
21.42
24.06
24.97
23.91
20.88
16.33
11.21
6.7
3.77
2.76
3.2
3.98
3.87
2.14
-1.21
-5.35
-9.16
-11.75
-12.92
-13.24
-13.76
-15.5
-19.13
-24.81
-32.28
-40.9
-49.7
-57.29
-62.02
-62.34
-57.29
-47.07
-33.04
-17.36
-2.27
10.6
20.58
27.84
32.89
36.13
37.71
37.51
35.56
32.15
27.91
23.64
20
17.29
15.37
13.73
11.77
9.08
5.58
1.63
-2.19
-5.38
-7.74
-9.6
-11.61
-14.6
-19.2
-25.53
-33.21
-41.24
-48.26
-52.78
-53.59
-50.07
-42.54
-32.14
-20.51
-9.25
0.59
8.62
15.03
20.08
23.86
26.14
26.61
25.31
22.75
19.86
17.5
16.14
15.47
14.76
13.14
10.15
6.01
1.4
-2.85
-6.27
-8.88
-11.18
-13.86
-17.49
-22.37
-28.43
-35.33
-42.35
-48.42
-52.25
-52.68
-49.1
-41.84
-32.19
-21.9
-12.58
-5.13
0.43
4.68
8.24
11.4
14
15.66
16.27
16.13
15.93
16.34
17.64
19.43
20.84
20.95
19.23
15.83
11.48
7.1
3.35
0.29
-2.54
-5.95
-10.65
-17.02
-24.92
-33.71
-42.31
-49.27
-53.16
-52.89
-48.06
-39.24
-27.79
-15.45
-3.77
6.32
14.59
21.19
26.25
29.65
31.16
30.7
28.67
25.99
23.74
22.67
22.85
23.56
23.72
22.39
19.24
14.63
9.34
4.17
-0.48
-4.72
-9.02
-13.95
-19.82
-26.63
-33.99
-41.16
-47.08
-50.52
-50.3
-45.75
-37
-25.1
-11.74
1.34
12.86
22.35
29.94
35.95
40.43
43.08
43.52
41.69
38.22
34.27
31.08
29.42
29.3
29.9
30.11
29.01
26.31
22.46
18.25
14.48
11.51
9.17
6.87
3.91
-0.25
-5.87
-12.86
-20.8
-28.81
-35.66
-39.82
-39.97
-35.39
-26.37
-14.26
-0.95
11.74
22.63
31.32
38
42.91
46.08
47.27
46.29
43.34
39.12
34.63
30.76
27.93
25.93
24.1
21.67
18.15
13.55
8.37
3.3
-1.09
-4.7
-7.9
-11.4
-15.93
-21.96
-29.46
-37.91
-46.41
-53.73
-58.56
-59.68
-56.33
-48.43
-36.88
-23.35
-9.87
1.78
10.57
16.33
19.57
20.94
20.97
19.94
18.01
15.5
12.91
10.77
9.4
8.74
8.34
7.63
6.12
3.68
0.45
-3.24
-7.15
-11.22
-15.7
-20.92
-27.1
-33.94
-40.44
-44.99
-45.86
-41.9
-33.07
-20.67
-6.89
6.02
16.49
24.11
29.36
33.08
35.8
37.45
37.55
35.63
31.65
26.17
20.14
14.52
9.92
6.42
3.72
1.35
-1.09
-3.84
-7.08
-10.93
-15.63
-21.39
-28.11
-35.13
-41.13
-44.43
-43.55
-37.85
-27.84
-15.16
-2.01
9.67
18.82
25.4
30.11
33.78
36.82
39.07
39.96
39
36.1
31.76
26.83
22.19
18.38
15.45
13.04
10.55
7.47
3.48
-1.55
-7.66
-14.72
-22.46
-30.27
-37.04
-41.32
-41.67
-37.21
-28.12
-15.76
-2.23
10.25
20.11
26.84
30.83
32.96
33.96
34.12
33.29
31.27
28.01
23.86
19.43
15.32
11.89
9.15
6.87
4.69
2.33
-0.4
-3.68
-7.77
-13.07
-19.88
-27.97
-36.31
-43.04
-45.97
-43.33
-34.69
-21.13
-5.09
10.71
24.16
34.46
42.06
48.07
53.4
58.21
61.98
63.94
63.72
61.64
58.72
56.16
54.87
55.03
56.1
57.06
56.85
54.92
51.3
46.58
41.59
37.04
33.31
30.31
27.73
25.21
22.49
19.2
14.82
8.64
0.09
-10.75
-22.72
-33.74
-41.45
-44.13
-41.5
-34.71
-25.72
-16.21
-6.78
3.11
14.33
26.93
39.51
49.45
54.11
52.16
44.36
33.26
22.02
13.02
7.06
3.49
1.04
-1.31
-3.93
-6.73
-9.76
-13.53
-18.84
-26.21
-35.33
-44.88
-52.92
-57.67
-58.31
-55.4
-50.75
-46.78
-45.69
-48.78
-56
-66.07
-76.81
-85.75
-90.75
-90.55
-85.05
-75.34
-63.37
-51.33
-40.98
-33.08
-27.32
-22.6
-17.79
-12.26
-6.27
-0.67
3.65
6.35
7.88
9.17
11.19
14.31
18.22
22.14
25.41
27.84
29.69
31.36
32.98
34.23
34.51
33.33
30.66
27.04
23.34
20.43
18.69
17.95
17.54
16.61
14.53
11.05
6.36
0.97
-4.5
-9.4
-13.14
-15.26
-15.5
-14
-11.3
-8.3
-5.97
-4.99
-5.6
-7.55
-10.3
-13.45
-16.85
-20.6
-24.9
-29.73
-34.68
-38.92
-41.37
-41.11
-37.74
-31.71
-24.26
-17.09
-11.71
-8.98
-8.87
-10.72
-13.63
-16.94
-20.45
-24.19
-28.11
-31.84
-34.63
-35.73
-34.83
-32.32
-29.28
-26.93
-26.16
-27.07
-28.94
-30.52
-30.45
-27.59
-21.01
-10.08
5.43
24.94
46.8
68.28
86.29
98.33
103.34
102.07
96.57
89.22
81.79
74.96
68.5
61.81
54.48
46.57
38.42
30.4
22.53
14.45
5.64
-4.17
-14.7
-25.07
-34.21
-41.45
-46.94
-51.58
-56.4
-61.74
-66.78
-69.71
-68.48
-61.72
-49.41
-32.85
-14.16
4.3
20.31
31.92
37.58
36.5
29.17
17.67
5.37
-4.04
-7.89
-5.41
2.08
12.06
21.99
30.33
36.76
41.68
45.45
47.84
48.17
45.74
40.39
32.76
23.95
15.17
7.14
0.02
-6.6
-13.34
-20.69
-28.9
-37.87
-47.3
-56.76
-65.78
-73.88
-80.63
-85.72
-89
-90.66
-91.12
-90.95
-90.67
-90.73
-91.38
-92.69
-94.35
-95.49
-94.74
-90.43
-81.33
-67.22
-49.4
-30.35
-12.85
1
10.56
16.54
20.31
23.08
25.26
26.54
26.32
24.28
20.75
16.54
12.6
9.63
7.79
6.68
5.58
3.75
0.65
-3.79
-9.18
-14.84
-20.05
-24.26
-27.32
-29.39
-30.78
-31.88
-33.07
-34.81
-37.55
-41.53
-46.39
-50.93
-53.12
-50.74
-42.28
-27.8
-9.15
10.53
27.98
41.06
49.41
54.3
57.68
61.02
64.7
68.04
70.06
70.29
69.21
67.98
67.82
69.21
71.81
74.73
77.19
78.87
79.89
80.35
79.86
77.45
71.71
61.4
45.85
25.25
0.72
-25.92
-52.28
-75.56
-92.98
-102.22
-102.05
-92.78
-76.26
-55.5
-33.84
-14.19
1.58
12.79
19.65
22.81
22.98
20.64
16.25
10.41
3.98
-2.02
-6.71
-9.62
-10.86
-11.03
-10.94
-11.29
-12.49
-14.57
-17.33
-20.51
-23.99
-27.9
-32.7
-38.94
-46.84
-55.82
-64.2
-69.46
-68.97
-61.13
-46.13
-26.24
-5.02
13.87
27.91
36.3
39.78
39.82
37.79
34.48
30.17
24.95
19.16
13.41
8.44
4.72
2.21
0.44
-1.39
-4.01
-7.87
-13.13
-19.88
-28.28
-38.64
-51.13
-65.37
-79.9
-92.24
-99.38
-98.87
-89.85
-73.64
-53.43
-33.17
-16.17
-4.03
3.5
7.97
11.11
13.95
16.53
18.24
18.46
17.15
14.92
12.73
11.46
11.39
12.19
13.1
13.3
12.15
9.22
4.3
-2.67
-11.29
-20.44
-28.11
-31.85
-29.53
-20.29
-5.07
13.62
32.61
49.2
61.88
70.58
76.05
79.25
80.81
80.9
79.49
76.62
72.67
68.35
64.51
61.87
60.79
61.12
62.24
63.18
62.96
60.81
56.33
49.66
41.59
33.66
28.01
27.09
32.96
46.5
66.96
91.78
117.35
139.91
156.66
166.3
168.98
165.78
157.97
146.56
132.16
115.11
95.71
74.47
52.07
29.3
6.96
-14.35
-34.2
-52.48
-69.31
-85.14
-100.69
-116.77
-133.95
-152.22
-170.58
-186.93
-198.3
-201.47
-194.1
-175.56
-147.46
-113.31
-77.41
-43.44
-13.44
12.39
35.09
55.76
74.82
91.84
106.03
117.07
125.54
132.74
140.01
147.91
155.71
161.63
163.58
159.99
150.5
135.91
117.67
97.07
74.72
50.42
23.66
-5.74
-37.11
-68.68
-97.93
-122.08
-138.74
-146.48
-145.26
-136.46
-122.54
-106.38
-90.38
-75.89
-63.04
-51.22
-39.72
-28.35
-17.53
-8.02
-0.42
5.18
9.04
11.6
13.18
13.93
13.97
13.61
13.33
13.65
14.79
16.51
18.09
18.68
17.61
14.67
10.17
4.75
-0.94
-6.43
-11.65
-16.91
-22.82
-30.12
-39.29
-50.14
-61.5
-71.22
-76.68
-75.68
-67.34
-52.58
-33.83
-14.27
3.27
17.11
26.93
33.45
37.89
41.39
44.76
48.46
52.71
57.4
62.16
66.4
69.5
71.09
71.28
70.68
70.04
69.89
70.19
70.22
68.88
65.18
58.62
49.43
38.44
26.77
15.49
5.34
-3.41
-10.99
-18.02
-25.28
-33.41
-42.45
-51.48
-58.65
-61.63
-58.45
-48.38
-32.4
-12.98
6.69
23.75
36.51
44.77
49.37
51.63
52.6
52.69
51.84
49.78
46.41
42.02
37.22
32.54
28.31
24.43
20.59
16.58
12.45
8.54
5.28
2.77
0.62
-1.99
-5.97
-11.97
-20.03
-29.62
-39.88
-50
-59.57
-68.7
-77.94
-87.94
-99.05
-110.98
-122.56
-131.85
-136.6
-134.9
-125.9
-110.23
-90
-68.18
-47.77
-30.83
-18.04
-8.81
-1.89
3.84
8.82
12.82
15.35
16.22
15.81
14.97
14.6
15.24
16.84
19.04
21.38
23.66
25.94
28.26
30.48
32.12
32.58
31.42
28.68
24.91
20.97
17.71
15.53
14.28
13.33
11.79
8.85
4.07
-2.37
-9.62
-16.18
-20.14
-19.7
-13.73
-2.19
13.69
31.73
49.31
64.05
74.36
79.65
80.28
77.19
71.45
63.84
54.76
44.35
32.82
20.73
9.01
-1.32
-9.51
-15.44
-19.55
-22.53
-24.91
-26.93
-28.58
-29.95
-31.42
-33.6
-37.01
-41.77
-47.45
-53.23
-58.2
-61.75
-63.81
-64.91
-65.86
-67.52
-70.35
-74.05
-77.52
-79
-76.71
-69.38
-56.81
-39.92
-20.49
-0.58
18.01
34.14
47.37
57.86
66.08
72.56
77.74
81.85
84.96
87.04
88.11
88.26
87.83
87.3
87.11
87.43
88
88.06
86.6
82.73
76.01
66.7
55.55
43.57
31.54
19.93
8.96
-1.26
-10.71
-19.67
-28.95
-39.91
-53.97
-71.8
-92.47
-113.23
-130.11
-139.3
-138.58
-128.16
-110.57
-89.54
-68.6
-49.9
-33.94
-20.07
-7.38
4.44
15.02
23.54
29.54
33.35
36.15
39.45
44.46
51.52
60.11
69.11
77.35
84.2
89.58
93.95
97.83
101.54
104.96
107.66
109.16
109.15
107.63
104.75
100.64
95.19
88.13
79.26
68.68
56.9
44.57
32.06
19.19
5.18
-10.84
-29.27
-49.64
-70.67
-90.72
-108.41
-123.1
-134.87
-144.23
-151.6
-157.12
-160.56
-161.68
-160.49
-157.47
-153.43
-149.2
-145.32
-141.81
-138.32
-134.45
-130.13
-125.87
-122.48
-120.79
-121.03
-122.65
-124.25
-123.86
-119.46
-109.49
-93.25
-71.14
-44.6
-15.76
13.07
39.95
63.45
82.53
96.31
103.9
104.61
98.47
86.58
71.17
55.05
40.75
29.7
22.05
16.86
12.84
8.93
4.67
0.19
-4.2
-8.24
-12.03
-16.04
-20.92
-27.24
-35.11
-43.83
-51.84
-56.86
-56.67
-49.8
-36.29
-17.76
3.06
23.28
40.82
54.91
65.95
74.94
82.71
89.54
95.14
99.07
101.15
101.59
100.86
99.4
97.46
95.21
92.9
91.02
90.15
90.46
91.22
90.52
85.68
74.12
54.38
26.8
-6.37
-41.39
-73.86
-99.7
-115.94
-121.25
-116.18
-102.97
-84.85
-65.34
-47.36
-32.79
-22.35
-15.96
-13.03
-12.76
-14.22
-16.35
-18.08
-18.6
-17.72
-15.87
-13.98
-13
-13.47
-15.33
-17.98
-20.66
-22.86
-24.57
-26.3
-28.82
-32.8
-38.52
-45.72
-53.48
-60.27
-64.2
-63.43
-56.92
-45.03
-29.75
-14.21
-1.6
6.03
8.61
7.88
6.45
6.47
8.63
11.99
14.8
15.59
14.15
11.62
9.76
10.01
12.58
16.35
19.42
20.18
18.09
13.94
9.28
5.58
3.42
2.27
0.8
-2.36
-8.09
-16.38
-26.42
-36.84
-45.85
-51.35
-51.24
-43.86
-28.69
-6.9
18.77
44.66
67.37
84.83
96.78
104.34
109.15
112.4
114.52
115.39
114.93
113.68
112.82
113.73
117.21
122.88
128.98
132.78
131.46
123.21
108
87.75
65.61
44.82
27.53
14.15
3.52
-6.3
-17.1
-29.86
-44.55
-60.19
-75.15
-87.29
-94.33
-94.36
-86.59
-71.83
-52.6
-32.4
-14.57
-1.32
6.71
10
9.32
5.13
-2.46
-13.23
-26.12
-39.11
-49.63
-55.59
-56.39
-53.37
-49.5
-48.19
-51.93
-61.36
-75.11
-90.65
-105.4
-117.88
-128.07
-137.11
-146.51
-157.46
-170.42
-185.1
-200.54
-215.18
-226.85
-232.95
-231.08
-219.95
-200.06
-173.85
-144.92
-116.77
-91.62
-69.93
-50.88
-33.35
-16.79
-1.51
11.68
22.35
30.91
38.62
46.93
56.8
68.03
79.4
89.13
95.68
98.38
97.67
94.72
90.88
87
83.13
78.64
72.68
64.58
54.17
41.69
27.65
12.89
-1.33
-13.11
-20.04
-19.86
-11.38
4.81
26.15
48.88
69.26
84.64
94
97.72
96.81
92.37
85.31
76.52
67.16
58.54
51.82
47.49
45.15
43.64
41.64
38.28
33.4
27.56
21.53
15.81
10.33
4.44
-2.86
-12.53
-25.03
-39.85
-55.26
-68.35
-75.7
-74.49
-63.56
-44.17
-19.65
5.65
27.88
44.77
55.98
62.42
65.33
65.48
63.07
58.14
51.12
43.07
35.45
29.54
25.89
24.15
23.25
21.92
19.23
14.81
8.85
1.64
-6.73
-16.53
-27.96
-40.55
-52.56
-61.04
-62.62
-54.84
-37.4
-12.57
15.37
41.63
62.55
76.64
84.46
87.86
88.7
88.07
86.19
82.84
78
72.27
66.77
62.68
60.7
60.68
61.74
62.68
62.44
60.35
56.09
49.3
39.45
25.93
8.76
-10.86
-30.21
-45.66
-54.03
-53.86
-46.18
-34.04
-21.19
-10.48
-2.96
1.98
5.67
9
11.82
13.16
12.09
8.51
3.47
-1.14
-3.57
-3.08
-0.56
1.64
0.52
-6.37
-20.08
-39.83
-63.38
-87.86
-110.64
-129.63
-143.33
-150.55
-150.47
-142.82
-128.28
-108.68
-86.58
-64.7
-45.11
-28.75
-15.39
-3.98
6.79
18.06
30.41
43.82
57.75
71.4
83.91
94.7
103.58
110.72
116.37
120.63
123.36
124.29
122.99
119
111.79
100.71
85.09
64.46
38.95
9.95
-19.64
-45.61
-63.42
-69.77
-63.8
-47.55
-25.15
-1.32
20.28
37.92
51.6
62.18
70.36
76.23
79.5
80.13
78.63
76.05
73.39
71.15
69.06
66.23
61.55
54.24
44.17
32.05
19.17
6.87
-3.87
-12.93
-20.97
-29.13
-38.57
-50
-63.5
-78.54
-94.01
-108.31
-119.42
-125.35
-124.7
-117.34
-104.73
-89.58
-74.89
-62.91
-54.47
-49.13
-46.01
-44.66
-45.36
-48.73
-54.9
-62.84
-70.47
-75.45
-76.2
-72.54
-65.56
-56.97
-48.25
-40.21
-32.9
-25.9
-18.48
-9.7
1.53
16.16
34.5
55.78
78.09
98.94
116.01
128.02
135.14
138.84
141.4
145.26
152.46
164.29
181.04
201.95
225.3
248.9
270.62
289.01
303.51
314.15
320.96
323.51
320.87
312.1
297.07
276.86
253.61
229.82
207.33
186.62
166.88
146.57
124.29
99.44
72.23
43.33
13.22
-18.15
-51.24
-86.48
-123.57
-161.2
-197.2
-229.1
-254.7
-272.41
-281.22
-280.57
-270.3
-250.95
-224.17
-192.83
-160.61
-130.95
-106.14
-86.77
-72.07
-60.7
-51.69
-44.8
-40.26
-38.09
-37.58
-37.45
-36.28
-33.39
-29.23
-25.25
-23.22
-24.38
-28.9
-35.85
-43.78
-51.4
-58.12
-64.33
-71.03
-79.38
-90.29
-104.18
-120.97
-140.14
-160.53
-180.29
-196.79
-206.94
-207.96
-198.43
-178.99
-152.42
-122.87
-94.49
-70.18
-50.95
-36.25
-24.89
-15.96
-9.19
-4.66
-2.26
-1.25
-0.38
1.59
5.24
10.35
16.01
21.28
25.51
28.65
30.9
32.5
33.34
32.96
30.71
26.08
19.04
10.3
1.27
-6.15
-10.12
-9.54
-4.48
3.74
13
21.23
27.13
30.54
32.16
33.02
33.73
34.25
33.97
32.21
28.69
23.83
18.54
13.9
10.68
9.04
8.59
8.7
8.77
8.5
7.83
6.64
4.58
1
-4.69
-12.51
-21.46
-29.61
-34.65
-34.77
-29.46
-19.74
-7.85
3.68
12.91
19
22.14
23.06
22.45
20.6
17.43
12.84
7.01
0.55
-5.65
-10.75
-14.25
-16.12
-16.8
-16.89
-16.89
-17.15
-17.86
-19.24
-21.61
-25.22
-29.88
-34.66
-37.92
-37.7
-32.59
-22.45
-8.64
6.33
19.74
29.65
35.38
37.44
36.9
34.63
31.02
26.05
19.76
12.54
5.24
-1.14
-5.85
-8.74
-10.29
-11.34
-12.74
-15.04
-18.47
-22.98
-28.59
-35.3
-42.96
-50.94
-57.9
-61.96
-61.26
-54.73
-42.7
-26.91
-9.98
5.49
17.78
26.36
31.68
34.65
35.98
35.97
34.67
32.12
28.62
24.69
20.9
17.58
14.75
12.13
9.37
6.27
2.82
-0.83
-4.55
-8.47
-13
-18.67
-25.79
-33.96
-41.83
-47.37
-48.39
-43.51
-32.74
-17.62
-0.64
15.63
29.35
39.74
46.87
51.21
53.15
52.94
50.82
47.38
43.57
40.5
39.05
39.51
41.4
43.75
45.39
45.44
43.55
39.9
35
29.37
23.26
16.57
8.93
-0.1
-10.68
-22.36
-33.94
-43.54
-49
-48.65
-41.94
-29.75
-14.2
2.06
16.71
28.32
36.4
40.92
41.9
39.17
32.67
22.92
11.37
0.16
-8.56
-13.44
-14.48
-12.91
-10.51
-8.88
-8.77
-10.02
-11.9
-13.65
-14.9
-15.83
-17.02
-19.18
-22.86
-28.1
-34.25
-39.88
-43.02
-41.64
-34.41
-21.28
-3.66
15.94
34.7
50.3
61.47
68.01
70.48
69.73
66.65
61.95
56.24
50.08
43.87
37.8
31.69
25.1
17.38
8.05
-2.93
-14.99
-27.06
-37.99
-47.11
-54.59
-61.54
-69.52
-79.88
-92.88
-107.27
-120.23
-128.14
-127.54
-116.32
-94.47
-64.12
-29.02
6.52
38.75
65.2
84.87
97.87
105.01
107.27
105.78
101.75
96.33
90.46
84.52
78.3
71.23
62.76
52.8
41.88
30.93
20.83
11.98
4.04
-3.83
-12.67
-23.23
-35.59
-48.96
-61.65
-71.39
-75.82
-73.34
-63.72
-48.35
-30.02
-12.04
2.76
12.76
17.73
18.47
16.19
12.04
7.01
2.02
-2.04
-4.36
-4.57
-2.91
-0.19
2.5
4.36
5.13
5.17
5.04
5.22
5.71
6.12
5.82
4.29
1.39
-2.41
-5.92
-7.43
-5.08
2.53
15.72
33.45
53.39
72.66
88.57
99.44
104.88
105.52
102.27
95.82
86.33
73.54
57.27
38.01
17.07
-3.53
-21.64
-35.82
-45.84
-52.74
-58.47
-65.02
-73.74
-85.01
-98.49
-113.44
-129.09
-144.57
-158.56
-169.16
-174.07
-171.29
-159.88
-140.47
-115.01
-86.23
-56.84
-29.16
-4.89
14.82
29.38
38.92
44.32
47.03
48.59
50.17
52.3
54.74
57
58.64
59.6
60.36
61.86
65.22
71.41
80.92
93.45
107.93
122.71
135.91
145.88
151.56
152.61
149.33
142.46
132.93
121.62
109.08
95.4
80.19
62.79
42.73
20.2
-3.73
-27.16
-47.98
-64.61
-76.51
-84.22
-88.91
-91.78
-93.62
-94.86
-96
-97.86
-101.48
-107.46
-115.22
-122.72
-127.03
-125.46
-116.88
-102.31
-84.62
-67.46
-53.88
-45.37
-41.68
-41.21
-41.97
-42.31
-41.38
-39.1
-35.72
-31.54
-26.59
-20.74
-13.92
-6.37
1.25
7.99
12.92
15.43
15.4
13.08
8.97
3.65
-2.23
-7.72
-11.55
-12.15
-8.25
0.58
13.45
28.3
42.54
53.97
61.36
64.61
64.23
60.71
54.12
44.19
30.85
14.67
-3
-20.38
-35.9
-48.7
-58.83
-67.08
-74.5
-82.11
-90.69
-100.83
-112.8
-126.49
-140.93
-154.14
-163.16
-164.83
-156.85
-138.73
-112.26
-81.04
-49.52
-21.67
-0.08
14.35
22.19
24.83
23.94
21.1
17.68
14.82
13.43
14.04
16.67
20.81
25.45
29.35
31.4
30.85
27.4
21.2
12.77
3.03
-6.61
-14.39
-18.46
-17.46
-11.1
-0.4
12.65
25.82
37.38
46.56
53.5
58.68
62.52
65.1
66.27
66.04
64.83
63.43
62.71
63.21
64.9
67.04
68.43
67.85
64.35
57.51
47.53
35.29
22.31
10.66
2.67
0.27
4.38
14.41
28.36
43.39
56.91
67.27
74.06
77.79
79.13
78.41
75.51
70.28
62.97
54.62
46.79
41.04
38.3
38.33
39.76
40.37
37.86
30.42
17.3
-1.14
-23.53
-47.82
-71.6
-92.32
-107.66
-115.84
-116.07
-108.9
-96.21
-80.73
-65.23
-51.68
-40.65
-31.51
-22.95
-13.86
-3.87
6.5
16.23
24.43
30.72
35.37
38.95
41.99
44.61
46.58
47.57
47.36
45.99
43.6
40.07
34.85
27.04
15.94
1.72
-14.02
-28.27
-37.37
-38.27
-29.78
-13.34
7.38
27.63
43.26
52
53.88
50.63
44.59
37.63
30.63
23.72
16.81
10.11
4.21
-0.35
-3.52
-5.88
-8.44
-11.95
-16.51
-21.45
-25.75
-28.68
-30.18
-30.84
-31.36
-32
-32.28
-31.21
-27.85
-21.95
-14.13
-5.89
0.83
4.09
2.43
-4.66
-16.54
-31.3
-46.14
-58.1
-64.94
-65.85
-61.57
-53.93
-44.93
-35.98
-27.5
-19.23
-10.75
-2.01
6.41
13.63
18.9
21.97
23.22
23.44
23.43
23.69
24.33
25.22
26.29
27.75
30.02
33.47
37.99
42.73
46.26
47.1
44.35
38.19
29.92
21.38
14.3
9.59
7.08
5.81
4.54
2.22
-1.62
-6.82
-12.56
-17.48
-19.97
-18.62
-12.8
-3.11
8.6
19.84
28.44
33.36
35.12
35.42
36.18
38.66
42.94
48.08
52.72
55.77
56.85
56.33
54.91
53.23
51.44
49.14
45.49
39.71
31.35
20.68
8.65
-3.37
-14.06
-22.68
-29.44
-35.47
-42.35
-51.49
-63.53
-78.04
-93.75
-109.1
-122.81
-134.3
-143.82
-152.27
-160.76
-170.08
-180.18
-189.78
-196.43
-197.23
-189.91
-174.06
-151.66
-126.69
-103.62
-85.75
-74.05
-67.16
-62.41
-57.36
-50.8
-42.78
-34.07
-25.22
-16.12
-6.14
5.14
17.49
29.81
40.62
48.7
53.75
56.44
58.11
60.1
63.09
66.87
70.38
72.28
71.55
67.98
62.21
55.5
49.12
43.86
39.7
35.91
31.44
25.38
17.28
7.41
-3.25
-13.17
-20.55
-23.67
-21.44
-13.79
-1.82
12.48
26.83
39.37
49.09
55.95
60.49
63.39
65.05
65.57
64.93
63.2
60.73
58
55.48
53.42
51.76
50.19
48.39
46.13
43.42
40.34
37.02
33.36
29.17
24.23
18.51
12.25
5.93
0.02
-5.26
-10.01
-14.7
-19.93
-26.3
-34.12
-43.2
-52.67
-60.93
-65.95
-65.83
-59.56
-47.54
-31.55
-14.26
1.72
14.68
24.13
30.6
35.01
38.06
40.01
40.77
40.26
38.68
36.57
34.52
32.99
32.05
31.46
30.8
29.71
27.96
25.48
22.24
18.28
13.67
8.62
3.41
-1.63
-6.26
-10.44
-14.34
-18.29
-22.75
-28.26
-35.31
-44.02
-53.79
-63.12
-69.71
-71.14
-65.83
-53.75
-36.63
-17.37
0.96
16.19
27.51
35.34
40.63
44.15
46.16
46.55
45.23
42.53
39.26
36.43
34.83
34.7
35.53
36.38
36.17
34.17
30.21
24.75
18.63
12.64
7.3
2.58
-1.9
-6.74
-12.36
-19.02
-26.74
-35.35
-44.53
-53.53
-61.05
-65.29
-64.46
-57.53
-44.87
-28.35
-10.79
4.95
16.99
24.78
28.86
30.2
29.59
27.4
23.81
19.2
14.43
10.69
9.02
9.85
12.69
16.33
19.36
20.82
20.6
19.42
18.4
18.47
19.85
21.95
23.6
23.49
20.58
14.33
4.81
-7.25
-20.37
-32.36
-40.61
-42.77
-37.52
-25.15
-7.61
12.05
30.74
46.15
57.21
64.01
67.31
68.16
67.61
66.68
66.07
65.83
65
61.58
53.25
38.29
16.64
-9.76
-37.49
-62.77
-82.78
-96.4
-104.23
-107.97
-109.51
-110.26
-110.87
-111.18
-110.37
-107.09
-99.64
-86.46
-66.75
-41.1
-11.76
17.72
43.45
62.36
73.09
76.17
73.5
67.38
59.74
51.7
43.78
36.24
29.41
23.74
19.56
16.87
15.32
14.37
13.6
12.89
12.4
12.36
12.78
13.28
13.16
11.58
7.84
1.68
-6.47
-15.39
-23.22
-27.84
-27.54
-21.72
-11.24
1.8
14.75
25.4
32.58
36.32
37.39
36.65
34.65
31.61
27.65
23.15
18.76
15.15
12.69
11.25
10.3
9.19
7.46
5.04
2.12
-1.02
-4.27
-7.85
-12.23
-17.94
-25.3
-34.02
-43.01
-50.41
-54.05
-52.19
-44.25
-31.13
-15
1.43
15.83
26.83
34.17
38.27
39.73
39.01
36.43
32.37
27.48
22.62
18.6
15.82
14.17
13.12
12.06
10.55
8.47
6.02
3.42
0.76
-2.13
-5.7
-10.45
-16.76
-24.62
-33.32
-41.46
-47.09
-48.34
-44.03
-34.28
-20.54
-5.26
8.99
20.31
27.89
31.94
33.22
32.54
30.41
27.17
23.15
18.87
15.03
12.19
10.54
9.81
9.42
8.75
7.44
5.46
3.01
0.3
-2.72
-6.42
-11.37
-18.03
-26.33
-35.36
-43.39
-48.23
-47.95
-41.73
-30.28
-15.72
-0.86
11.84
20.96
26.4
28.97
29.72
29.29
27.83
25.19
21.35
16.69
11.98
8.01
5.36
4.08
3.78
3.8
3.47
2.35
0.24
-2.95
-7.3
-12.92
-19.68
-26.98
-33.55
-37.68
-37.73
-32.86
-23.49
-11.33
1.28
12.15
20.02
24.7
26.71
26.8
25.4
22.59
18.35
12.94
7.06
1.73
-2.14
-4.16
-4.64
-4.4
-4.46
-5.51
-7.85
-11.41
-15.9
-20.92
-25.88
-29.91
-31.84
-30.51
-25.24
-16.27
-4.89
7.02
17.6
25.65
30.91
33.77
34.81
34.38
32.46
28.92
23.92
18.12
12.55
8.23
5.75
5.03
5.32
5.58
4.8
2.29
-2.23
-8.65
-16.45
-24.75
-32.2
-37.19
-38.22
-34.44
-26.06
-14.42
-1.62
10.19
19.52
25.91
29.73
31.74
32.54
32.24
30.61
27.43
22.82
17.39
12.08
7.76
4.91
3.43
2.71
1.89
0.21
-2.85
-7.42
-13.4
-20.49
-28.12
-35.35
-40.86
-43.12
-40.87
-33.68
-22.25
-8.33
5.85
18.38
28.16
35.12
39.82
42.89
44.61
44.85
43.39
40.33
36.27
32.16
28.81
26.58
25.12
23.65
21.3
17.62
12.72
7.23
1.94
-2.6
-6.34
-9.73
-13.49
-18.32
-24.63
-32.4
-41.14
-49.83
-57.07
-61.26
-61.01
-55.65
-45.51
-31.99
-17.11
-2.9
9.26
18.98
26.59
32.78
38.02
42.4
45.64
47.48
47.85
47.05
45.56
43.83
42.01
40.02
37.64
34.74
31.52
28.34
25.53
23.14
20.76
17.74
13.45
7.71
0.86
-6.26
-12.72
-17.9
-21.7
-24.58
-27.35
-30.85
-35.71
-42.13
-49.63
-57.08
-62.82
-65
-62.27
-54.27
-41.96
-27.29
-12.57
0.37
10.73
18.7
25.12
30.71
35.76
39.97
42.87
44.19
44.14
43.29
42.26
41.43
40.73
39.85
38.42
36.3
33.7
31.04
28.71
26.79
25.01
22.79
19.59
15.21
9.95
4.54
-0.14
-3.43
-5.2
-5.94
-6.54
-7.96
-10.78
-15.08
-20.26
-25.28
-28.83
-29.72
-27.11
-20.74
-11.02
1.14
14.42
27.51
39.28
49.1
56.78
62.53
66.55
68.65
68.16
64.17
56.17
44.62
31.14
18
7.29
-0.08
-4.62
-7.77
-11
-15.02
-19.54
-23.68
-26.69
-28.49
-29.62
-30.88
-32.76
-35.22
-37.74
-39.71
-40.72
-40.76
-40.02
-38.76
-36.98
-34.21
-29.69
-22.45
-11.77
2.56
20
39.41
59.29
78.31
95.67
111.03
124.31
135.28
143.35
147.79
148.02
144.02
136.5
126.59
115.54
104.34
93.67
83.85
74.98
66.84
59
50.74
41.23
29.71
15.64
-1.18
-20.72
-42.56
-65.87
-89.42
-111.77
-131.74
-148.93
-164.04
-178.63
-194.6
-213.36
-235.23
-259.21
-283.06
-303.9
-318.9
-326.17
-325.44
-318.31
-307.77
-297.19
-289.04
-284
-280.85
-277.22
-270.81
-260.33
-245.75
-227.89
-207.61
-185.13
-159.76
-130.18
-94.93
-52.99
-4.55
48.56
102.71
153.06
194.69
224.04
239.75
242.85
236.02
222.37
204.59
184.65
164.22
144.96
128.66
116.61
109.14
105.23
102.84
99.9
95.25
89.2
83.32
79.74
80.11
84.95
93.37
103.53
113.36
121.4
127.28
131.74
136.17
141.8
149.11
157.63
166.25
173.82
179.6
183.42
185.52
186.2
185.55
183.47
179.64
173.75
165.47
154.45
140.36
123.05
102.73
80.04
55.91
31.27
6.72
-17.47
-41.43
-65.46
-89.89
-114.83
-140
-164.48
-186.72
-204.67
-216.22
-219.88
-215.29
-203.36
-186.09
-165.83
-144.76
-124.53
-106.29
-90.95
-79.44
-72.78
-71.83
-76.99
-87.83
-103.01
-120.32
-137.17
-150.97
-159.74
-162.37
-158.8
-149.95
-137.45
-123.25
-109.23
-96.99
-87.68
-81.89
-79.72
-80.8
-84.43
-89.75
-95.87
-102.06
-107.85
-113.06
-117.85
-122.57
-127.73
-133.7
-140.37
-146.84
-151.35
-151.45
-144.83
-130.06
-107.43
-79.08
-48.38
-18.92
6.73
27.59
44.22
57.94
69.92
80.56
89.53
96.26
100.46
102.4
102.74
102.13
100.8
98.66
95.43
91.05
85.85
80.44
75.35
70.75
66.38
61.74
56.42
50.26
43.4
36.11
28.56
20.71
12.26
2.75
-8.29
-21.02
-34.85
-48.23
-58.75
-63.71
-61.06
-50.26
-32.68
-11.24
10.59
29.88
45.08
56
63.38
68.09
70.61
71.01
69.26
65.65
61.03
56.63
53.63
52.59
53.26
54.62
55.25
54.02
50.39
44.68
37.73
30.59
24.04
18.34
13.31
8.46
3.28
-2.68
-9.7
-18.05
-27.75
-38.41
-48.91
-57.25
-60.91
-57.65
-46.47
-28.26
-5.7
17.54
38.06
53.73
64.06
69.74
71.85
71.21
68.15
62.95
56.3
49.46
44.02
41.24
41.44
43.78
46.51
47.76
46.23
41.74
35.09
27.72
20.92
15.38
10.96
6.92
2.31
-3.66
-11.41
-20.93
-31.74
-42.78
-52.28
-57.95
-57.49
-49.47
-34.04
-13.19
9.78
31.34
48.81
60.95
67.78
70.01
68.39
63.6
56.39
47.96
40.01
34.31
31.95
32.85
35.68
38.42
39.2
37.03
32.17
25.71
18.96
12.89
7.76
3.2
-1.49
-7.06
-14.07
-22.68
-32.42
-42.1
-49.71
-52.92
-49.77
-39.52
-23.09
-2.96
17.7
35.9
49.66
58.18
61.66
60.77
56.4
49.61
41.7
34.18
28.48
25.51
25.28
26.88
28.86
29.82
28.91
26.09
21.98
17.46
13.21
9.42
5.73
1.35
-4.6
-12.69
-22.71
-33.38
-42.42
-47.06
-44.99
-35.33
-19.11
0.94
21.19
38.37
50.39
56.64
57.66
54.58
48.59
40.75
32.19
24.02
17.37
12.98
10.99
10.81
11.37
11.57
10.62
8.37
5.15
1.47
-2.32
-6.22
-10.66
-16.26
-23.45
-32.01
-40.78
-47.73
-50.47
-47.14
-37.21
-21.92
-4.04
13.08
26.6
35.01
38.29
37.45
33.84
28.56
22.3
15.54
8.85
2.96
-1.45
-3.95
-4.67
-4.2
-3.45
-3.27
-4.2
-6.42
-9.89
-14.6
-20.59
-27.74
-35.46
-42.44
-46.77
-46.54
-40.63
-29.33
-14.48
1.13
14.74
24.44
29.7
30.98
29.3
25.5
20.18
13.75
6.8
0.23
-4.88
-7.7
-8.02
-6.44
-4.12
-2.42
-2.39
-4.62
-9.2
-15.82
-23.77
-31.9
-38.63
-42.13
-40.92
-34.35
-23.1
-9.03
5.38
17.89
27.1
32.65
34.92
34.49
31.74
26.88
20.22
12.5
4.92
-1.14
-4.72
-5.6
-4.5
-2.76
-1.87
-2.93
-6.5
-12.54
-20.46
-29.17
-37.16
-42.63
-43.93
-40.07
-31.21
-18.7
-4.7
8.58
19.56
27.6
32.85
35.68
36.32
34.71
30.81
24.97
18.12
11.63
6.81
4.37
4.15
5.16
5.94
5.14
1.88
-4.01
-11.98
-20.84
-28.93
-34.41
-35.66
-31.77
-22.93
-10.5
3.43
16.62
27.44
35.12
39.71
41.63
41.17
38.45
33.59
27.07
19.86
13.26
8.41
5.78
5.01
5.02
4.59
2.79
-0.75
-5.85
-12.01
-18.55
-24.6
-29.04
-30.54
-27.84
-20.24
-8.08
7.23
23.49
38.46
50.54
59.11
64.44
67.22
68.14
67.62
65.94
63.35
60.17
56.75
53.34
49.97
46.59
43.16
39.84
36.93
34.73
33.17
31.8
29.72
25.87
19.39
9.97
-1.74
-14.14
-24.81
-31.19
-31.33
-24.58
-11.9
4.58
22.36
39.48
55.01
68.97
81.67
92.99
101.89
106.46
104.66
95.29
78.81
57.5
34.83
14.21
-2.19
-14.16
-23.25
-31.77
-41.75
-54.19
-68.96
-85.29
-102.33
-119.44
-136.17
-152.03
-166.36
-178.54
-188.14
-195.19
-200.11
-203.6
-206.29
-208.37
-209.28
-207.69
-201.78
-190.01
-171.82
-148.22
-121.52
-94.55
-69.48
-46.96
-26.14
-5.37
16.65
39.97
63.22
84.14
100.66
111.63
117.14
118.24
116.31
112.49
107.37
101.21
94.13
86.51
78.99
72.26
66.73
62.32
58.48
54.49
49.87
44.57
38.98
33.66
29.01
24.99
21.21
17.02
11.79
5.08
-3.36
-13.6
-25.43
-38.26
-50.83
-61.37
-67.82
-68.63
-63.4
-53.09
-39.78
-25.79
-12.85
-1.67
7.85
16.09
23.12
28.53
31.74
32.5
31.19
28.76
26.25
24.36
23.2
22.42
21.51
20.19
18.47
16.66
15.09
13.88
12.83
11.45
9.2
5.7
0.98
-4.45
-9.82
-14.39
-17.82
-20.29
-22.51
-25.34
-29.49
-35.26
-42.56
-50.88
-59.32
-66.61
-71.26
-71.84
-67.5
-58.31
-45.41
-30.7
-16.17
-3.29
7.34
15.89
22.85
28.55
33.02
36.03
37.47
37.53
36.78
35.94
35.58
35.82
36.3
36.43
35.63
33.72
30.89
27.61
24.33
21.2
18.02
14.36
9.84
4.37
-1.69
-7.73
-13.06
-17.33
-20.61
-23.43
-26.52
-30.54
-35.82
-42.09
-48.39
-53.26
-55.02
-52.29
-44.53
-32.34
-17.4
-1.97
11.86
22.79
30.52
35.53
38.61
40.39
41.15
40.95
39.86
38.22
36.5
35.15
34.38
34.05
33.74
33
31.57
29.47
26.96
24.26
21.41
18.24
14.46
9.89
4.63
-0.88
-6.12
-10.63
-14.3
-17.38
-20.41
-24.02
-28.78
-34.9
-42.02
-49.05
-54.29
-55.84
-52.32
-43.51
-30.59
-15.84
-1.86
9.35
16.91
21.12
23
23.6
23.57
23
21.77
19.82
17.4
15
13.19
12.28
12.22
12.58
12.79
12.33
10.88
8.4
5.1
1.29
-2.7
-6.63
-10.34
-13.87
-17.33
-20.92
-24.86
-29.37
-34.63
-40.66
-47.13
-53.17
-57.35
-58.05
-53.98
-44.82
-31.54
-16.21
-1.27
11.21
20.16
25.59
28.19
28.79
27.94
25.9
22.88
19.38
16.25
14.37
14.3
15.91
18.31
20.21
20.48
18.53
14.59
9.44
4.04
-0.92
-5.26
-9.31
-13.62
-18.75
-24.94
-32.12
-39.8
-47.09
-52.8
-55.62
-54.41
-48.58
-38.4
-25.05
-10.33
3.88
16.13
25.68
32.49
36.86
39.13
39.52
38.21
35.58
32.34
29.39
27.53
27.07
27.66
28.4
28.29
26.71
23.7
19.93
16.36
13.61
11.73
10.01
7.32
2.57
-4.77
-14.27
-24.53
-33.38
-38.44
-37.92
-31.25
-19.47
-4.98
9.25
20.75
28.35
32.46
34.63
36.65
39.65
43.65
47.83
51.07
52.79
53.21
53.3
54.13
56.33
59.68
63.22
65.71
66.05
63.77
59.07
52.83
46.36
40.97
37.71
36.71
37.11
37.07
34.55
28.26
18.5
7.2
-2.8
-8.95
-10.1
-6.61
0.12
8.58
17.78
27.17
36.16
43.76
48.8
50.59
49.49
46.9
44.51
43.22
42.47
40.52
35.38
26.01
12.79
-2.77
-18.84
-34.15
-48.13
-60.67
-71.56
-80.39
-86.71
-90.62
-92.93
-94.96
-97.8
-101.64
-105.67
-108.33
-108.21
-104.74
-98.4
-90.36
-81.92
-73.86
-66.29
-58.76
-50.43
-40.31
-27.37
-10.9
8.97
30.86
52.12
69.47
80.14
82.82
78
67.49
53.45
37.51
20.68
3.66
-12.51
-26.43
-36.84
-43.43
-47.23
-50.19
-54.02
-58.97
-63.5
-65
-61.22
-51.6
-37.78
-22.91
-10.29
-2.05
1.29
0.37
-3.98
-11.5
-22.41
-36.75
-53.59
-70.73
-85.29
-94.97
-99.07
-98.81
-96.71
-95.24
-95.69
-97.75
-99.97
-100.69
-98.87
-94.33
-87.31
-78.04
-66.57
-53.1
-38.27
-23.07
-8.11
7.17
24.75
47.06
75.49
108.99
143.84
174.89
197.57
209.6
211.38
205.17
193.5
177.98
159.16
137.26
113.12
88.58
66.12
47.85
34.75
26.36
21.16
17.39
13.79
9.88
5.8
1.95
-1.43
-4.46
-7.63
-11.66
-17.21
-24.49
-32.9
-40.95
-46.48
-47.5
-43.06
-33.85
-22.11
-10.73
-2.1
2.79
4.53
4.64
4.59
5.01
5.59
5.5
4.11
1.49
-1.53
-3.7
-3.88
-1.55
2.99
8.75
14.38
18.6
20.34
18.85
13.66
4.69
-7.58
-21.77
-35.58
-46.15
-50.97
-48.79
-40.37
-28.21
-15.58
-5.17
1.92
6.19
8.96
11.26
13.15
13.77
12.1
7.78
1.38
-5.87
-12.82
-19.01
-24.74
-30.64
-37.18
-44.38
-51.96
-59.7
-67.53
-75.34
-82.54
-87.71
-88.83
-83.93
-72.04
-53.79
-31.41
-7.98
13.55
31.16
44.05
52.32
56.45
56.94
54.15
48.53
40.88
32.39
24.41
18.11
14.1
12.32
12.08
12.28
11.77
9.53
4.86
-2.49
-12.11
-22.82
-32.69
-39.37
-40.85
-36.13
-25.85
-12.18
1.83
13.44
21.09
24.84
26.02
26.38
27.23
28.95
31.06
32.67
33.07
32.04
29.85
26.97
23.59
19.34
13.32
4.43
-8.31
-25.29
-46.17
-69.76
-94.15
-116.89
-135.29
-146.82
-149.65
-143.25
-128.88
-109.47
-88.93
-70.9
-57.62
-49.48
-45.44
-44.05
-44.45
-46.63
-51.15
-58.32
-67.71
-77.97
-87.39
-94.56
-98.84
-100.49
-100.3
-99.3
-98.45
-98.54
-100.1
-103.32
-107.88
-112.75
-116.08
-115.34
-107.76
-91.13
-64.67
-29.64
10.71
51.99
89.83
121.07
144.35
159.99
169.32
173.85
174.69
172.45
167.46
160.13
151.17
141.54
132.23
123.89
116.66
110.08
103.47
96.17
87.87
78.7
69.06
59.35
49.82
40.47
31.14
21.69
11.98
1.93
-8.65
-20.06
-32.47
-45.55
-58.09
-68.07
-73.06
-71.19
-61.94
-46.5
-27.39
-7.57
10.51
25.62
37.65
47.23
54.99
61.24
65.89
68.74
69.75
69.2
67.62
65.54
63.33
61.09
58.71
56.06
53.12
50.05
47.07
44.23
41.33
37.85
33.25
27.22
19.89
11.88
4.03
-2.93
-8.69
-13.48
-17.96
-23.03
-29.45
-37.49
-46.62
-55.4
-61.77
-63.62
-59.57
-49.54
-34.93
-18.15
-1.75
12.37
23.46
31.76
37.97
42.65
45.84
47.27
46.72
44.4
41.11
37.88
35.53
34.31
33.81
33.28
32.08
29.98
27.22
24.29
21.55
18.97
16.16
12.67
8.2
2.92
-2.6
-7.65
-11.61
-14.26
-15.85
-16.99
-18.43
-20.92
-24.94
-30.68
-37.8
-45.37
-51.79
-55.14
-53.65
-46.41
-33.83
-17.58
-0.09
16.36
30.36
41.57
50.31
56.94
61.42
63.28
62.14
58.2
52.35
45.97
40.29
35.93
32.79
30.32
27.96
25.54
23.26
21.5
20.41
19.79
19.08
17.72
15.38
12.16
8.44
4.71
1.2
-2.15
-5.69
-9.85
-15.05
-21.62
-29.68
-38.88
-48.2
-55.99
-60.36
-59.92
-54.49
-45.3
-34.56
-24.47
-16.23
-9.65
-3.51
3.51
11.95
21.25
30.1
37.17
41.78
44.12
44.93
45.04
44.95
44.67
43.94
42.44
40.04
36.73
32.56
27.49
21.45
14.46
6.71
-1.39
-9.46
-17.27
-24.87
-32.61
-40.97
-50.36
-60.89
-72.19
-83.26
-92.65
-98.81
-100.61
-97.8
-91.23
-82.56
-73.64
-65.82
-59.42
-53.86
-48
-40.89
-32.15
-22.18
-11.89
-2.34
5.65
11.65
15.63
17.77
18.32
17.43
15.16
11.57
6.79
1.09
-5.07
-11.21
-16.92
-22.01
-26.5
-30.6
-34.55
-38.48
-42.47
-46.55
-50.75
-55.02
-58.96
-61.67
-61.8
-57.95
-49.25
-35.88
-19.18
-1.33
15.4
29.39
39.97
47.34
52.18
55.18
56.71
56.87
55.69
53.3
50.1
46.71
43.76
41.76
40.9
40.94
41.3
41.27
40.28
38.13
35.06
31.61
28.31
25.47
23.05
20.82
18.48
15.83
12.83
9.45
5.79
2.11
-0.95
-2.39
-0.99
4.12
12.98
24.58
37.02
48.23
56.63
61.57
63.31
62.51
59.73
55.11
48.49
39.74
29.19
17.63
6.16
-4.31
-13.39
-21.2
-28.25
-34.9
-41.17
-46.56
-50.28
-51.68
-50.57
-47.47
-43.35
-39.43
-36.68
-35.65
-36.45
-38.81
-42.19
-45.74
-48.34
-48.58
-45.2
-37.57
-26.02
-11.99
2.46
15.33
25.34
32.23
36.54
39.07
40.45
40.86
40.27
38.72
36.57
34.44
32.87
31.94
31.15
29.53
26.13
20.42
12.55
3.24
-6.55
-16
-24.72
-32.72
-40.26
-47.61
-54.95
-62.3
-69.53
-76.26
-81.77
-84.98
-84.62
-79.71
-70.01
-56.39
-40.61
-24.93
-11.29
-0.79
6.43
10.96
13.61
15.01
15.54
15.53
15.35
15.63
17.01
19.82
23.91
28.58
32.8
35.62
36.56
35.71
33.69
31.22
28.76
26.36
23.62
19.99
14.99
8.49
0.74
-7.65
-15.79
-22.65
-27.23
-28.8
-27.12
-22.65
-16.35
-9.47
-3.02
2.4
6.69
10.05
12.66
14.54
15.62
15.86
15.44
14.77
14.24
14.04
14
13.59
12.2
9.45
5.35
0.35
-4.88
-9.7
-13.78
-17.19
-20.38
-24.01
-28.63
-34.4
-40.92
-47.11
-51.47
-52.52
-49.36
-41.96
-31.36
-19.23
-7.42
2.66
10.28
15.35
18.17
19.13
18.58
16.92
14.7
12.66
11.54
11.79
13.42
15.9
18.42
20.2
20.76
20.13
18.7
17.03
15.55
14.37
13.27
11.72
9.13
5.07
-0.41
-6.62
-12.24
-15.64
-15.43
-10.95
-2.69
7.81
18.43
27.21
32.9
35.22
34.59
31.78
27.51
22.32
16.71
11.21
6.43
2.83
0.5
-0.84
-1.8
-3.06
-5.12
-8.19
-12.2
-16.99
-22.46
-28.65
-35.74
-43.98
-53.31
-63.07
-71.79
-77.43
-77.95
-72.13
-60.29
-44.26
-26.93
-11.14
1.23
9.64
14.68
17.39
18.6
18.6
17.37
14.88
11.52
8.02
5.23
3.69
3.42
3.94
4.5
4.43
3.3
1
-2.52
-7.27
-13.21
-19.92
-26.4
-31.03
-31.86
-27.47
-17.66
-3.78
11.59
25.55
35.89
41.78
43.73
42.98
40.67
37.37
33.09
27.66
21.32
14.81
9.21
5.44
3.82
3.92
4.74
5.19
4.39
1.92
-2.28
-7.91
-14.51
-21.31
-27.15
-30.59
-30.2
-25.02
-15.07
-1.62
13.19
26.94
37.76
44.77
48.17
48.84
47.76
45.67
42.93
39.76
36.4
33.32
31.1
30.16
30.5
31.63
32.76
33.08
32.11
29.79
26.43
22.45
18.24
14.23
10.97
9.38
10.58
15.62
24.9
37.83
52.84
67.82
80.76
90.25
95.63
96.8
93.95
87.41
77.73
65.81
52.93
40.6
30.15
22.45
17.66
15.22
14.06
12.9
10.45
5.63
-2.49
-14.68
-31.49
-53.13
-79
-107.39
-135.42
-159.57
-176.8
-185.61
-186.76
-182.91
-177.35
-172.36
-168.02
-162.03
-150.81
-131.28
-102.55
-66.64
-28.03
7.88
36.61
55.79
65.5
67.48
63.95
56.74
46.94
35.27
22.6
10.25
-0.32
-8
-12.64
-15.14
-17.07
-20.04
-25.05
-32.08
-40.06
-47.13
-51.15
-50.28
-43.56
-31.25
-14.94
3.02
20.17
34.76
46.09
54.49
60.71
65.31
68.33
69.29
67.75
63.78
58.21
52.38
47.61
44.59
43.19
42.59
41.75
39.84
36.65
32.39
27.63
22.93
18.64
14.84
11.42
8.18
4.91
1.51
-2.08
-5.96
-10.27
-15.19
-20.73
-26.38
-31.02
-32.98
-30.63
-23.08
-10.72
4.82
21.12
36
48.09
57.18
63.79
68.65
72.2
74.51
75.61
75.76
75.62
75.97
77.38
79.86
82.79
85.18
86.1
85
81.76
76.63
