7.58
3
-1.33
-5.08
-8.13
-10.62
-12.91
-15.53
-19.01
-23.54
-28.8
-33.89
-37.56
-38.63
-36.44
-31.11
-23.39
-14.5
-5.6
2.37
8.94
14
17.69
20.24
21.88
22.76
23
22.64
21.82
20.74
19.69
19.01
18.88
19.23
19.77
20.1
19.95
19.28
18.32
17.41
16.71
16.03
14.96
13.02
9.95
5.89
1.34
-3.09
-6.89
-9.87
-12.15
-14.06
-15.92
-18.02
-20.53
-23.54
-27
-30.7
-34.13
-36.54
-37.08
-35.05
-30.23
-22.98
-14.18
-5.04
3.28
9.95
14.61
17.31
18.36
18.17
17.15
15.68
14.13
12.85
12.13
12.11
12.75
13.79
14.88
15.67
15.99
15.84
15.31
14.48
13.3
11.62
9.29
6.3
2.86
-0.66
-3.9
-6.62
-8.83
-10.75
-12.73
-15.1
-18.06
-21.65
-25.58
-29.34
-32.21
-33.39
-32.25
-28.52
-22.45
-14.81
-6.67
0.86
6.96
11.28
13.93
15.24
15.6
15.23
14.19
12.56
10.6
8.74
7.49
7.14
7.6
8.47
9.25
9.59
9.45
8.99
8.37
7.58
6.43
4.71
2.35
-0.49
-3.52
-6.41
-9
-11.25
-13.25
-15.13
-17.04
-19.2
-21.8
-24.9
-28.25
-31.2
-32.83
-32.24
-28.9
-22.97
-15.2
-6.73
1.25
7.88
12.74
15.8
17.35
17.73
17.31
16.35
15.13
13.82
12.67
11.8
11.29
11.11
11.05
10.93
10.55
9.91
9.08
8.23
7.43
6.52
5.24
3.25
0.44
-3.04
-6.69
-9.97
-12.47
-14.12
-15.3
-16.62
-18.73
-21.94
-26.1
-30.49
-34.01
-35.62
-34.57
-30.76
-24.69
-17.28
-9.5
-2.16
4.26
9.55
13.56
16.23
17.5
17.5
16.53
15.07
13.6
12.45
11.72
11.34
11.2
11.22
11.37
11.63
11.98
12.32
12.48
12.25
11.38
9.74
7.27
4.08
0.39
-3.47
-7.18
-10.53
-13.43
-16.02
-18.52
-21.26
-24.48
-28.19
-32.04
-35.31
-37.03
-36.34
-32.86
-26.83
-19.11
-10.79
-2.88
4.05
9.82
14.47
18.02
20.37
21.37
21.03
19.63
17.71
15.86
14.52
13.83
13.66
13.67
13.59
13.27
12.75
12.2
11.7
11.2
10.45
9.16
7.08
4.24
0.87
-2.66
-5.99
-8.97
-11.58
-13.89
-16.01
-18.1
-20.39
-23.18
-26.68
-30.73
-34.7
-37.49
-37.94
-35.26
-29.42
-21.17
-11.77
-2.58
5.4
11.67
16.15
19.01
20.52
20.89
20.35
19.13
17.51
15.81
14.31
13.19
12.56
12.37
12.5
12.75
12.94
12.91
12.62
12.04
11.19
9.99
8.32
6.1
3.28
0.05
-3.32
-6.48
-9.21
-11.52
-13.65
-15.99
-18.95
-22.77
-27.3
-32.02
-35.98
-38.07
-37.33
-33.35
-26.42
-17.52
-7.97
0.95
8.35
13.88
17.61
19.8
20.71
20.55
19.45
17.59
15.26
12.85
10.75
9.32
8.69
8.81
9.37
10.02
10.35
10.11
9.23
7.78
5.94
3.86
1.66
-0.65
-3.04
-5.52
-8.12
-10.89
-13.97
-17.52
-21.65
-26.33
-31.19
-35.55
-38.44
-38.93
-36.39
-30.76
-22.66
-13.24
-3.81
4.48
10.98
15.55
18.45
20.06
20.67
20.45
19.43
17.7
15.48
13.16
11.19
9.9
9.39
9.47
9.72
9.72
9.14
7.91
6.08
3.84
1.33
-1.37
-4.22
-7.17
-10.14
-13.06
-15.93
-18.94
-22.39
-26.58
-31.53
-36.72
-41.15
-43.53
-42.69
-38.1
-30.14
-19.96
-9.18
0.7
8.72
14.6
18.62
21.23
22.85
23.66
23.66
22.92
21.61
20.07
18.67
17.64
16.99
16.58
16.17
15.56
14.64
13.4
11.84
9.97
7.81
5.38
2.72
-0.12
-3.15
-6.41
-9.93
-13.84
-18.25
-23.2
-28.58
-33.92
-38.42
-41.02
-40.71
-36.91
-29.77
-20.16
-9.48
0.85
9.81
16.93
22.23
25.99
28.42
29.65
29.75
28.9
27.4
25.65
24.05
22.8
21.95
21.47
21.3
21.32
21.35
21.04
20.05
18.12
15.23
11.64
7.73
3.88
0.3
-2.94
-5.89
-8.66
-11.51
-14.79
-18.84
-23.82
-29.38
-34.62
-38.16
-38.7
-35.48
-28.61
-19.05
-8.23
2.4
11.75
19.25
24.73
28.29
30.07
30.23
29.03
26.85
24.22
21.73
19.88
18.9
18.72
18.98
19.28
19.23
18.62
17.46
15.84
13.87
11.59
8.99
6.07
2.9
-0.38
-3.67
-6.92
-10.28
-13.97
-18.16
-22.73
-27.23
-30.78
-32.39
-31.22
-26.95
-19.91
-11.04
-1.6
7.22
14.57
20.08
23.81
25.99
26.87
26.6
25.25
23
20.2
17.35
15.03
13.63
13.22
13.54
14.08
14.29
13.83
12.55
10.5
7.88
4.9
1.72
-1.55
-4.81
-8.02
-11.15
-14.23
-17.37
-20.71
-24.4
-28.38
-32.25
-35.2
-36.26
-34.55
-29.67
-21.97
-12.51
-2.7
6.15
13.22
18.33
21.74
23.88
25.09
25.53
25.17
24.01
22.14
19.87
17.6
15.71
14.5
14.01
14.06
14.32
14.35
13.8
12.46
10.33
7.57
4.43
1.12
-2.25
-5.59
-8.86
-11.98
-14.87
-17.59
-20.35
-23.43
-26.93
-30.62
-33.72
-35.2
-34.07
-29.82
-22.67
-13.52
-3.64
5.72
13.65
19.72
23.89
26.4
27.51
27.48
26.58
25.09
23.37
21.76
20.52
19.69
19.18
18.81
18.45
18.06
17.67
17.27
16.72
15.78
14.21
11.93
8.99
5.61
2.04
-1.49
-4.78
-7.73
-10.26
-12.49
-14.66
-17.19
-20.45
-24.52
-29.03
-33.15
-35.85
-36.19
-33.66
-28.36
-20.91
-12.25
-3.37
4.85
11.82
17.15
20.68
22.45
22.7
21.83
20.39
18.87
17.6
16.7
16.08
15.57
15.04
14.43
13.85
13.43
13.27
13.31
13.35
13.05
12.05
10.08
7.12
3.5
-0.31
-3.75
-6.47
-8.4
-9.85
-11.26
-13.08
-15.56
-18.65
-22.05
-25.3
-27.8
-28.9
-28.05
-24.89
-19.5
-12.43
-4.61
2.87
9.06
13.45
15.97
16.93
16.8
15.98
14.74
13.21
11.56
9.96
8.66
7.87
7.71
8.07
8.66
9.11
9.07
8.42
7.21
5.68
4.04
2.44
0.83
-0.9
-2.91
-5.24
-7.83
-10.62
-13.59
-16.82
-20.43
-24.35
-28.16
-31.07
-32.12
-30.55
-26.18
-19.57
-11.8
-4.15
2.39
7.31
10.63
12.6
13.5
13.49
12.67
11.18
9.31
7.46
6.01
5.17
4.91
5.07
5.41
5.7
5.77
5.46
4.64
3.23
1.28
-1.04
-3.48
-5.79
-7.88
-9.85
-11.9
-14.24
-17
-20.18
-23.66
-27.11
-30.05
-31.77
-31.53
-28.77
-23.42
-16.02
-7.61
0.59
7.56
12.77
16.15
17.96
18.52
18.05
16.73
14.74
12.41
10.18
8.49
7.59
7.48
7.88
8.37
8.55
8.16
7.15
5.63
3.83
1.91
-0.03
-2.07
-4.32
-6.84
-9.62
-12.49
-15.33
-18.11
-21.01
-24.15
-27.46
-30.48
-32.32
-32.06
-29.13
-23.62
-16.3
-8.35
-0.88
5.35
10.1
13.44
15.56
16.59
16.56
15.53
13.73
11.58
9.58
8.18
7.65
7.96
8.84
9.84
10.53
10.59
9.9
8.53
6.63
4.44
2.1
-0.25
-2.56
-4.82
-7.09
-9.49
-12.25
-15.58
-19.54
-23.94
-28.17
-31.34
-32.5
-30.94
-26.51
-19.7
-11.54
-3.24
4.19
10.13
14.47
17.4
19.23
20.15
20.21
19.41
17.8
15.66
13.38
11.43
10.13
9.56
9.54
9.74
9.83
9.58
8.9
7.79
6.32
4.54
2.51
0.3
-2.01
-4.38
-6.78
-9.35
-12.34
-15.97
-20.31
-24.99
-29.26
-32.06
-32.41
-29.75
-24.24
-16.7
-8.32
-0.24
6.75
12.27
16.28
18.77
19.69
19.06
17.06
14.16
11.11
8.65
7.25
6.99
7.56
8.45
9.15
9.3
8.76
7.53
5.81
3.82
1.81
-0.07
-1.88
-3.79
-6.08
-8.99
-12.61
-16.82
-21.27
-25.43
-28.6
-30.1
-29.35
-26.12
-20.65
-13.6
-5.9
1.51
7.92
12.91
16.26
17.95
18.02
16.65
14.25
11.4
8.76
6.88
6.02
6.02
6.45
6.77
6.53
5.56
4
2.15
0.31
-1.33
-2.79
-4.31
-6.17
-8.7
-12.1
-16.47
-21.63
-27.13
-32.19
-35.77
-36.92
-35.01
-30.06
-22.66
-13.85
-4.83
3.38
10.1
15.02
18.14
19.64
19.81
19.01
17.55
15.69
13.64
11.65
9.97
8.89
8.56
8.86
9.42
9.7
9.23
7.86
5.8
3.48
1.24
-0.83
-2.98
-5.65
-9.19
-13.7
-18.91
-24.31
-29.21
-32.85
-34.48
-33.49
-29.54
-22.78
-13.98
-4.33
4.81
12.36
17.83
21.32
23.33
24.4
24.87
24.77
24.03
22.64
20.82
18.95
17.43
16.52
16.23
16.31
16.38
16.06
15.05
13.3
10.86
7.97
4.96
2.03
-0.71
-3.37
-6.15
-9.37
-13.22
-17.75
-22.75
-27.67
-31.73
-34
-33.67
-30.31
-24.04
-15.56
-5.96
3.58
12.11
19.04
24.19
27.59
29.33
29.55
28.42
26.28
23.61
21.05
19.09
18.01
17.72
17.9
18.11
18.02
17.43
16.28
14.59
12.4
9.79
6.85
3.72
0.54
-2.59
-5.68
-8.8
-12.09
-15.69
-19.64
-23.87
-28.05
-31.58
-33.63
-33.29
-29.97
-23.64
-14.96
-5.1
4.56
12.89
19.27
23.61
26.19
27.32
27.28
26.22
24.29
21.79
19.15
16.83
15.19
14.36
14.16
14.3
14.36
14.05
13.18
11.73
9.83
7.67
5.44
3.23
1.02
-1.33
-3.97
-6.96
-10.31
-14
-18.07
-22.54
-27.22
-31.6
-34.74
-35.59
-33.33
-27.85
-19.82
-10.56
-1.53
6.17
12.03
16.07
18.64
20.07
20.61
20.4
19.6
18.43
17.13
15.91
14.91
14.23
13.87
13.81
13.95
14.15
14.2
13.89
13.05
11.54
9.28
6.34
2.87
-0.83
-4.4
-7.56
-10.18
-12.39
-14.57
-17.2
-20.63
-24.89
-29.59
-33.92
-36.86
-37.44
-35.07
-29.77
-22.2
-13.4
-4.58
3.32
9.76
14.62
17.99
20.12
21.15
21.28
20.69
19.64
18.46
17.38
16.56
15.97
15.51
15.07
14.61
14.22
14
13.99
14.02
13.74
12.74
10.72
7.66
3.88
-0.11
-3.78
-6.86
-9.39
-11.69
-14.22
-17.37
-21.29
-25.76
-30.25
-33.9
-35.79
-35.15
-31.66
-25.63
-17.91
-9.64
-1.87
4.74
9.99
13.99
16.98
19.1
20.36
20.75
20.31
19.27
17.93
16.64
15.63
14.99
14.66
14.49
14.34
14.12
13.81
13.47
13.07
12.48
11.43
9.67
7.02
3.64
-0.1
-3.66
-6.64
-8.91
-10.67
-12.35
-14.41
-17.15
-20.62
-24.59
-28.55
-31.79
-33.51
-33.01
-29.96
-24.55
-17.54
-9.99
-2.97
2.86
7.27
10.47
12.79
14.45
15.53
15.96
15.76
15.04
14.05
13.05
12.24
11.73
11.5
11.52
11.72
11.96
12.04
11.75
10.91
9.46
7.47
5.11
2.5
-0.27
-3.17
-6.14
-9.1
-11.94
-14.63
-17.3
-20.14
-23.24
-26.33
-28.73
-29.55
-28.06
-24.01
-17.85
-10.56
-3.24
3.27
8.55
12.57
15.41
17.08
17.48
16.54
14.47
11.8
9.23
7.39
6.56
6.6
7.09
7.53
7.57
7.14
6.31
5.23
3.98
2.57
0.97
-0.82
-2.79
-4.9
-7.12
-9.43
-11.91
-14.65
-17.75
-21.23
-24.88
-28.23
-30.52
-31
-29.08
-24.68
-18.22
-10.55
-2.71
4.39
10.17
14.4
17.18
18.75
19.37
19.19
18.31
16.78
14.78
12.59
10.55
8.97
7.98
7.54
7.42
7.34
7.05
6.38
5.26
3.65
1.62
-0.78
-3.37
-6.04
-8.7
-11.33
-14.02
-16.91
-20.15
-23.77
-27.6
-31.16
-33.65
-34.16
-31.92
-26.73
-19.04
-9.99
-0.98
6.79
12.69
16.7
19.2
20.62
21.2
20.91
19.69
17.64
15.1
12.69
10.96
10.23
10.43
11.18
11.93
12.22
11.76
10.52
8.57
6.08
3.24
0.28
-2.56
-5.12
-7.4
-9.62
-12.15
-15.38
-19.4
-23.89
-28.09
-31.02
-31.79
-29.95
-25.57
-19.22
-11.81
-4.26
2.69
8.59
13.27
16.73
19.08
20.39
20.71
20.1
18.68
16.69
14.52
12.64
11.46
11.11
11.42
11.93
12.13
11.64
10.4
8.56
6.44
4.28
2.15
0.03
-2.21
-4.61
-7.23
-10.09
-13.3
-16.89
-20.78
-24.62
-27.79
-29.54
-29.2
-26.41
-21.3
-14.49
-6.87
0.58
7.1
12.21
15.78
17.91
18.81
18.72
17.87
16.44
14.68
12.8
11.05
9.62
8.67
8.19
8.06
8.02
7.73
6.91
5.47
3.55
1.43
-0.57
-2.36
-4.06
-6.02
-8.56
-11.85
-15.8
-20.06
-24.12
-27.43
-29.43
-29.65
-27.77
-23.72
-17.83
-10.82
-3.58
3.02
8.43
12.49
15.36
17.3
18.46
18.85
18.43
17.26
15.57
13.75
12.19
11.14
10.61
10.43
10.3
9.96
9.21
7.94
6.18
4.04
1.69
-0.68
-2.97
-5.21
-7.57
-10.25
-13.43
-17.16
-21.26
-25.45
-29.27
-32.13
-33.43
-32.67
-29.56
-24.19
-17.05
-8.93
-0.69
6.9
13.33
18.36
21.93
24.05
24.83
24.4
23.03
21.05
18.85
16.77
15.04
13.77
13.03
12.76
12.89
13.19
13.33
12.97
11.83
9.88
7.35
4.6
1.93
-0.52
-2.96
-5.66
-8.87
-12.63
-16.78
-21.04
-25.1
-28.68
-31.39
-32.7
-32.03
-28.96
-23.52
-16.28
-8.25
-0.54
6.05
11.21
15.09
18.03
20.3
21.88
22.64
22.44
21.34
19.67
17.96
16.67
16.04
16
16.21
16.31
16.03
15.37
14.5
13.6
12.69
11.52
9.77
7.16
3.74
-0.14
-3.91
-7.08
-9.47
-11.26
-12.95
-15.07
-17.98
-21.76
-26.07
-30.22
-33.31
-34.45
-32.99
-28.82
-22.35
-14.42
-6.07
1.79
8.51
13.71
17.27
19.22
19.76
19.18
17.89
16.34
14.95
13.95
13.42
13.24
13.22
13.16
12.93
12.49
11.88
11.19
10.43
9.53
8.36
6.79
4.78
2.4
-0.17
-2.81
-5.45
-8.11
-10.94
-14.03
-17.45
-21.15
-24.84
-28.07
-30.2
-30.52
-28.5
-23.96
-17.26
-9.22
-0.97
6.44
12.25
16.15
18.26
18.99
18.78
18.03
16.96
15.76
14.54
13.42
12.47
11.73
11.2
10.81
10.51
10.31
10.19
10.07
9.8
9.17
7.96
6.07
3.55
0.57
-2.62
-5.76
-8.69
-11.37
-13.83
-16.25
-18.83
-21.76
-25.07
-28.53
-31.61
-33.47
-33.26
-30.44
-25.03
-17.77
-9.83
-2.4
3.72
8.36
11.9
14.83
17.44
19.56
20.79
20.86
19.79
18.04
16.23
14.82
13.96
13.48
13.12
12.72
12.31
11.97
11.76
11.57
11.1
10.06
8.27
5.72
2.61
-0.69
-3.85
-6.61
-8.91
-10.88
-12.76
-14.93
-17.66
-21.11
-25.11
-29.14
-32.35
-33.81
-32.83
-29.21
-23.35
-16.14
-8.57
-1.41
4.95
10.47
15.17
18.96
21.63
22.9
22.73
21.36
19.28
17.08
15.18
13.78
12.81
12.05
11.29
10.42
9.44
8.36
7.18
5.84
4.27
2.39
0.27
-1.96
-4.09
-5.98
-7.57
-8.95
-10.37
-12.11
-14.46
-17.57
-21.39
-25.55
-29.37
-31.93
-32.32
-29.96
-24.85
-17.6
-9.31
-1.2
5.71
10.89
14.27
16.16
16.97
17.06
16.64
15.81
14.65
13.32
12.03
11.03
10.51
10.49
10.79
11.07
10.9
9.99
8.28
5.98
3.52
1.31
-0.45
-1.8
-3.04
-4.56
-6.56
-9.09
-12.04
-15.31
-18.82
-22.46
-25.94
-28.63
-29.7
-28.4
-24.42
-18.08
-10.36
-2.46
4.51
9.94
13.7
16
17.15
17.33
16.62
15.05
12.8
10.22
7.76
5.92
4.95
4.86
5.31
5.8
5.81
5.06
3.54
1.48
-0.78
-3.02
-5.21
-7.5
-10.09
-13.08
-16.47
-20.16
-23.95
-27.5
-30.38
-31.95
-31.58
-28.81
-23.59
-16.4
-8.17
-0.01
7.15
12.72
16.58
18.93
20.03
20.13
19.32
17.72
15.48
12.91
10.38
8.28
6.87
6.13
5.87
5.72
5.38
4.66
3.56
2.2
0.77
-0.69
-2.27
-4.2
-6.71
-9.93
-13.84
-18.31
-23.09
-27.87
-32.18
-35.41
-36.81
-35.75
-31.95
-25.66
-17.64
-8.95
-0.64
6.56
12.26
16.43
19.15
20.55
20.76
19.92
18.31
16.3
14.4
13
12.33
12.31
12.63
12.85
12.58
11.66
10.12
8.19
6.12
4.07
2.05
0
-2.26
-4.93
-8.16
-12.06
-16.64
-21.7
-26.74
-30.94
-33.37
-33.23
-30.11
-24.25
-16.47
-7.94
0.22
7.24
12.88
17.23
20.52
22.81
24
23.92
22.6
20.38
17.88
15.8
14.57
14.3
14.73
15.34
15.61
15.17
13.84
11.72
9.07
6.23
3.5
1.01
-1.34
-3.75
-6.49
-9.77
-13.65
-18.04
-22.63
-26.84
-29.9
-30.95
-29.33
-24.91
-18.21
-10.26
-2.22
5.04
11.1
16
19.84
22.64
24.23
24.43
23.3
21.2
18.77
16.66
15.32
14.84
14.99
15.32
15.39
14.83
13.5
11.48
9.04
6.44
3.9
1.44
-1.05
-3.76
-6.83
-10.4
-14.48
-18.99
-23.68
-28
-31.16
-32.28
-30.71
-26.27
-19.49
-11.36
-3.03
4.54
10.83
15.73
19.34
21.8
23.16
23.36
22.44
20.6
18.23
15.87
14.06
13.11
13.05
13.56
14.09
14.12
13.31
11.63
9.35
6.85
4.43
2.2
0.01
-2.39
-5.3
-8.89
-13.21
-18.14
-23.43
-28.58
-32.88
-35.52
-35.7
-33
-27.45
-19.67
-10.73
-1.8
6.13
12.45
16.98
19.88
21.46
22.04
21.91
21.28
20.32
19.27
18.31
17.59
17.24
17.21
17.36
17.47
17.3
16.67
15.51
13.82
11.71
9.27
6.61
3.73
0.66
-2.61
-6.07
-9.71
-13.57
-17.68
-22.08
-26.67
-31.07
-34.61
-36.41
-35.66
-31.91
-25.32
-16.72
-7.32
1.67
9.41
15.58
20.29
23.81
26.29
27.7
27.93
26.99
25.19
23.05
21.16
19.86
19.2
18.98
18.95
18.93
18.9
18.8
18.46
17.59
15.91
13.32
9.99
6.28
2.63
-0.68
-3.63
-6.36
-9.08
-11.98
-15.19
-18.8
-22.83
-27.08
-31.05
-33.9
-34.7
-32.73
-27.83
-20.47
-11.74
-2.87
5.04
11.33
15.83
18.74
20.35
20.96
20.78
19.92
18.5
16.71
14.83
13.23
12.24
12.02
12.41
13.06
13.5
13.41
12.7
11.49
9.98
8.28
6.35
4.1
1.47
-1.43
-4.41
-7.28
-10.01
-12.76
-15.77
-19.09
-22.43
-25.1
-26.23
-25.14
-21.66
-16.29
-9.93
-3.62
1.9
6.38
9.92
12.7
14.8
16.01
16.05
14.82
12.55
9.81
7.33
5.64
4.92
4.96
5.31
5.52
5.37
4.89
4.24
3.56
2.81
1.78
0.24
-1.95
-4.67
-7.7
-10.8
-13.9
-17.04
-20.23
-23.24
-25.46
-26.08
-24.38
-20.17
-13.91
-6.67
0.36
6.22
10.52
13.37
15.13
16.11
16.39
15.88
14.57
12.65
10.56
8.75
7.51
6.8
6.3
5.65
4.62
3.2
1.57
-0.03
-1.47
-2.72
-3.88
-5.1
-6.6
-8.59
-11.28
-14.75
-18.81
-23
-26.53
-28.49
-28.13
-25.13
-19.74
-12.77
-5.35
1.49
7.02
11.06
13.82
15.64
16.74
17.1
16.59
15.19
13.17
11.02
9.34
8.44
8.25
8.37
8.28
7.69
6.62
5.33
4.06
2.88
1.63
0.02
-2.13
-4.82
-7.87
-11.14
-14.58
-18.24
-22.12
-25.92
-29.05
-30.68
-30.1
-27.01
-21.69
-14.87
-7.55
-0.57
5.52
10.51
14.43
17.31
19.19
20.01
19.83
18.8
17.23
15.53
14.02
12.88
12.09
11.47
10.81
9.87
8.54
6.82
4.83
2.75
0.78
-0.99
-2.59
-4.21
-6.08
-8.38
-11.26
-14.71
-18.6
-22.71
-26.61
-29.7
-31.27
-30.66
-27.51
-21.95
-14.59
-6.43
1.49
8.37
13.75
17.59
20.03
21.25
21.3
20.23
18.13
15.34
12.41
10
8.56
8.25
8.77
9.59
10.17
10.14
9.4
8.09
6.34
4.27
1.88
-0.8
-3.76
-6.86
-9.95
-12.89
-15.67
-18.44
-21.29
-24.2
-26.8
-28.39
-28.21
-25.71
-20.87
-14.22
-6.72
0.62
7
11.95
15.33
17.17
17.53
16.59
14.59
11.97
9.25
6.98
5.55
5.11
5.48
6.24
6.79
6.7
5.74
4.09
2.14
0.34
-1.07
-2.2
-3.42
-5.19
-7.81
-11.28
-15.32
-19.5
-23.36
-26.37
-28.02
-27.81
-25.39
-20.72
-14.18
-6.6
1.01
7.76
13.06
16.67
18.65
19.13
18.25
16.18
13.23
9.93
6.87
4.65
3.55
3.45
3.9
4.23
3.93
2.78
0.93
-1.2
-3.17
-4.8
-6.16
-7.54
-9.36
-11.89
-15.22
-19.23
-23.63
-27.9
-31.33
-33.11
-32.48
-29.08
-23.06
-15.15
-6.47
1.79
8.75
13.94
17.27
18.95
19.21
18.31
16.49
14.05
11.42
9.1
7.52
6.83
6.84
7.06
6.91
6
4.3
2.2
0.19
-1.37
-2.49
-3.47
-4.81
-6.92
-10.01
-14.04
-18.74
-23.64
-28.02
-31.04
-31.82
-29.78
-24.84
-17.57
-9.02
-0.38
7.29
13.43
17.91
20.85
22.39
22.6
21.54
19.42
16.73
14.13
12.25
11.45
11.63
12.28
12.74
12.54
11.47
9.73
7.66
5.56
3.54
1.44
-1.02
-4.1
-7.93
-12.45
-17.47
-22.65
-27.47
-31.23
-33.13
-32.43
-28.75
-22.28
-13.78
-4.45
4.5
12.14
17.96
21.88
24.02
24.54
23.61
21.5
18.62
15.56
12.92
11.12
10.25
10.06
10.07
9.78
8.96
7.63
6.07
4.59
3.34
2.23
0.96
-0.88
-3.6
-7.33
-11.92
-16.94
-21.74
-25.44
-27.15
-26.15
-22.17
-15.58
-7.29
1.45
9.45
15.89
20.43
23.1
24.05
23.41
21.28
18
14.17
10.65
8.23
7.29
7.59
8.4
8.86
8.4
6.99
4.99
2.86
0.87
-1
-3.04
-5.6
-8.91
-13.03
-17.78
-22.71
-27.07
-29.91
-30.33
-27.76
-22.24
-14.47
-5.6
3.11
10.67
16.55
20.55
22.76
23.31
22.37
20.18
17.2
13.97
11.02
8.68
6.95
5.62
4.43
3.24
2.07
1.06
0.28
-0.34
-1.04
-2.17
-4.08
-7
-11
-15.92
-21.31
-26.38
-30.13
-31.59
-30.06
-25.45
-18.29
-9.64
-0.69
7.49
14.26
19.34
22.72
24.45
24.63
23.38
20.99
17.98
14.98
12.59
11.08
10.34
9.93
9.34
8.23
6.62
4.76
2.99
1.49
0.18
-1.26
-3.19
-5.97
-9.77
-14.56
-20.03
-25.52
-30.09
-32.71
-32.48
-29.03
-22.63
-14.17
-4.87
4.14
12.06
18.52
23.43
26.81
28.68
29.04
28.06
26.1
23.67
21.27
19.2
17.51
16.05
14.59
12.98
11.19
9.25
7.24
5.21
3.21
1.23
-0.77
-2.96
-5.59
-8.94
-13.2
-18.23
-23.58
-28.5
-32.02
-33.23
-31.6
-27.05
-20.1
-11.72
-3.05
4.95
11.65
16.88
20.78
23.5
25.05
25.3
24.14
21.74
18.62
15.57
13.32
12.24
12.16
12.46
12.43
11.58
9.91
7.78
5.73
4.07
2.74
1.39
-0.44
-3.09
-6.6
-10.77
-15.33
-19.92
-24.16
-27.55
-29.41
-29.02
-25.88
-20
-12.03
-3.13
5.43
12.6
17.84
21.08
22.52
22.46
21.19
18.98
16.2
13.32
10.85
9.1
8.15
7.72
7.4
6.81
5.79
4.38
2.75
1.07
-0.59
-2.31
-4.22
-6.51
-9.31
-12.72
-16.66
-20.87
-24.8
-27.67
-28.62
-27.03
-22.79
-16.41
-8.85
-1.19
5.69
11.31
15.53
18.37
19.82
19.83
18.43
15.86
12.68
9.65
7.47
6.51
6.61
7.21
7.57
7.15
5.82
3.88
1.84
0.1
-1.27
-2.56
-4.26
-6.81
-10.41
-14.9
-19.9
-24.84
-29.08
-31.88
-32.53
-30.5
-25.73
-18.67
-10.32
-1.86
5.67
11.65
15.96
18.77
20.32
20.79
20.22
18.7
16.47
13.91
11.5
9.6
8.44
7.95
7.87
7.79
7.32
6.25
4.65
2.79
0.95
-0.74
-2.44
-4.52
-7.37
-11.18
-15.73
-20.48
-24.69
-27.63
-28.75
-27.68
-24.36
-19.03
-12.24
-4.79
2.49
8.93
14.19
18.23
21.15
22.97
23.64
23.04
21.21
18.5
15.47
12.79
10.9
9.86
9.37
9.03
8.51
7.63
6.43
5
3.42
1.69
-0.21
-2.28
-4.52
-6.97
-9.72
-12.84
-16.33
-19.97
-23.32
-25.75
-26.6
-25.37
-21.86
-16.32
-9.39
-1.93
5.16
11.24
15.92
19.12
20.87
21.23
20.29
18.25
15.5
12.64
10.29
8.86
8.42
8.7
9.22
9.5
9.2
8.19
6.56
4.49
2.25
0.06
-1.95
-3.83
-5.76
-8.01
-10.76
-14.02
-17.65
-21.24
-24.29
-26.21
-26.41
-24.45
-20.22
-14.03
-6.59
1.14
8.14
13.7
17.42
19.24
19.34
17.97
15.54
12.47
9.34
6.7
4.93
4.12
4.06
4.33
4.48
4.19
3.4
2.19
0.72
-0.88
-2.56
-4.32
-6.24
-8.47
-11.23
-14.66
-18.68
-22.83
-26.27
-28.01
-27.25
-23.78
-18.05
-11.02
-3.78
2.81
8.32
12.68
15.97
18.17
19.15
18.76
17.04
14.3
11.11
8.12
5.87
4.56
4.09
4.06
4.01
3.55
2.5
0.96
-0.84
-2.65
-4.38
-6.06
-7.93
-10.28
-13.36
-17.21
-21.58
-25.93
-29.48
-31.41
-31.05
-28.09
-22.69
-15.47
-7.37
0.65
7.81
13.61
17.8
20.35
21.27
20.68
18.83
16.15
13.27
10.78
9.1
8.27
7.93
7.54
6.66
5.21
3.44
1.77
0.47
-0.45
-1.3
-2.48
-4.33
-6.98
-10.36
-14.3
-18.53
-22.64
-25.99
-27.79
-27.32
-24.2
-18.61
-11.25
-3.21
4.48
11.04
16.11
19.65
21.75
22.5
21.95
20.18
17.45
14.21
11.05
8.51
6.91
6.23
6.1
6.06
5.75
5.08
4.2
3.28
2.37
1.28
-0.3
-2.59
-5.6
-9.14
-12.91
-16.65
-20.18
-23.21
-25.34
-25.97
-24.53
-20.82
-15.11
-8.17
-0.97
5.64
11.16
15.37
18.2
19.55
19.31
17.51
14.5
10.99
7.86
5.8
5.01
5.17
5.64
5.81
5.39
4.46
3.29
2.13
1.02
-0.21
-1.83
-4.1
-7.16
-11.04
-15.61
-20.42
-24.71
-27.48
-27.77
-25.01
-19.31
-11.53
-2.94
5.14
11.72
16.24
18.56
18.82
17.27
14.37
10.72
7.04
3.99
2.02
1.14
1.02
1.07
0.73
-0.28
-1.89
-3.75
-5.44
-6.75
-7.81
-9.08
-11.11
-14.24
-18.42
-23.07
-27.29
-30.06
-30.56
-28.38
-23.66
-16.94
-9.11
-1.13
6.15
12.12
16.4
18.79
19.26
17.95
15.18
11.55
7.8
4.65
2.55
1.55
1.33
1.38
1.24
0.67
-0.33
-1.63
-3.15
-4.93
-7.14
-10.04
-13.78
-18.29
-23.14
-27.57
-30.6
-31.35
-29.25
-24.35
-17.22
-8.83
-0.29
7.5
13.9
18.64
21.66
23.08
23.12
22.05
20.2
17.89
15.42
13.07
11.01
9.32
7.99
6.86
5.73
4.42
2.82
0.95
-1.14
-3.44
-6.03
-9.13
-13
-17.68
-22.85
-27.76
-31.28
-32.33
-30.17
-24.79
-16.89
-7.71
1.47
9.62
16.21
21.14
24.57
26.59
27.26
26.58
24.7
22.01
19.05
16.39
14.4
13.12
12.29
11.49
10.4
8.92
7.21
5.5
3.91
2.34
0.46
-2.09
-5.56
-9.88
-14.75
-19.65
-23.92
-26.91
-27.98
-26.66
-22.77
-16.5
-8.49
0.3
8.86
16.28
21.99
25.77
27.61
27.7
26.31
23.84
20.8
17.81
15.36
13.71
12.85
12.51
12.3
11.91
11.18
10.06
8.6
6.85
4.77
2.34
-0.55
-3.96
-8.01
-12.68
-17.76
-22.64
-26.34
-27.78
-26.11
-21.16
-13.53
-4.49
4.49
12.19
17.91
21.53
23.28
23.52
22.56
20.63
17.95
14.81
11.64
8.87
6.86
5.71
5.29
5.23
5.07
4.46
3.26
1.61
-0.21
-2.02
-3.86
-6.06
-9.12
-13.37
-18.63
-24.18
-28.86
-31.43
-31.04
-27.55
-21.5
-13.88
-5.74
2.12
9.23
15.31
20.19
23.6
25.29
25.14
23.3
20.32
16.99
14.08
12.11
11.17
10.94
10.89
10.53
9.64
8.3
6.76
5.21
3.67
1.93
-0.25
-3
-6.29
-9.99
-13.94
-18.02
-22.03
-25.54
-27.83
-28.11
-25.83
-20.96
-14.08
-6.22
1.55
8.46
14.11
18.43
21.5
23.32
23.85
23.11
21.29
18.79
16.16
13.9
12.33
11.52
11.27
11.26
11.15
10.76
10
8.9
7.52
5.92
4.1
2.04
-0.27
-2.85
-5.65
-8.58
-11.61
-14.72
-17.89
-21.02
-23.74
-25.4
-25.28
-22.82
-17.95
-11.21
-3.61
3.75
9.99
14.75
18.03
20.06
21.09
21.29
20.8
19.77
18.43
16.99
15.69
14.66
13.98
13.72
13.79
14.01
14.06
13.6
12.4
10.41
7.88
5.13
2.52
0.18
-1.96
-4.1
-6.45
-9.14
-12.16
-15.43
-18.86
-22.32
-25.56
-28.08
-29.22
-28.31
-25.01
-19.51
-12.55
-5.15
1.68
7.28
11.4
14.13
15.67
16.18
15.77
14.51
12.58
10.31
8.17
6.56
5.74
5.67
6.03
6.4
6.47
6.12
5.43
4.56
3.6
2.55
1.31
-0.24
-2.12
-4.34
-6.85
-9.68
-12.85
-16.32
-19.81
-22.76
-24.45
-24.21
-21.72
-17.11
-11.03
-4.38
1.89
7.07
10.85
13.23
14.36
14.44
13.61
12.02
9.88
7.54
5.43
3.92
3.21
3.19
3.56
3.86
3.69
2.86
1.4
-0.44
-2.36
-4.09
-5.5
-6.62
-7.65
-8.95
-10.86
-13.64
-17.27
-21.37
-25.18
-27.79
-28.37
-26.52
-22.32
-16.37
-9.55
-2.74
3.42
8.53
12.47
15.22
16.78
17.2
16.59
15.19
13.3
11.25
9.27
7.5
5.94
4.59
3.42
2.46
1.77
1.36
1.15
0.99
0.69
0.03
-1.11
-2.76
-4.87
-7.26
-9.76
-12.26
-14.76
-17.35
-20.1
-22.86
-25.22
-26.53
-26.11
-23.53
-18.8
-12.49
-5.5
1.24
7
11.39
14.36
16.01
16.51
16.01
14.71
12.86
10.81
8.92
7.48
6.62
6.25
6.15
5.99
5.55
4.71
3.54
2.18
0.72
-0.8
-2.49
-4.46
-6.82
-9.62
-12.85
-16.42
-20.16
-23.63
-26.21
-27.18
-25.96
-22.45
-17.09
-10.75
-4.42
1.18
5.73
9.25
11.87
13.66
14.53
14.41
13.33
11.54
9.47
7.56
6.15
5.34
5.01
4.88
4.67
4.2
3.42
2.41
1.28
0.06
-1.31
-2.97
-5.03
-7.54
-10.49
-13.84
-17.48
-21.19
-24.51
-26.72
-27.01
-24.79
-19.95
-13.03
-5.07
2.72
9.4
14.51
17.98
19.95
20.56
19.9
18.05
15.33
12.23
9.35
7.23
6.07
5.72
5.74
5.62
4.97
3.74
2.1
0.4
-1.08
-2.24
-3.2
-4.28
-5.8
-8.03
-11.02
-14.59
-18.39
-21.87
-24.37
-25.23
-23.93
-20.32
-14.64
-7.55
0.04
7.23
13.28
17.72
20.38
21.27
20.54
18.53
15.72
12.66
9.93
7.94
6.79
6.3
6.11
5.81
5.13
4.01
2.55
0.94
-0.63
-2.07
-3.39
-4.73
-6.37
-8.64
-11.8
-15.85
-20.28
-24.12
-26.15
-25.37
-21.4
-14.71
-6.47
1.88
9.15
14.64
18.18
19.89
19.94
18.49
15.75
12.14
8.28
4.84
2.32
0.84
0.2
0.02
-0.08
-0.3
-0.73
-1.45
-2.49
-3.93
-5.84
-8.26
-11.19
-14.62
-18.42
-22.24
-25.49
-27.35
-27.02
-24.02
-18.42
-10.9
-2.59
5.29
11.76
16.29
18.81
19.56
18.85
16.97
14.19
10.76
7.03
3.4
0.29
-2.04
-3.52
-4.32
-4.68
-4.89
-5.16
-5.64
-6.48
-7.91
-10.2
-13.57
-17.98
-22.96
-27.62
-30.77
-31.32
-28.63
-22.79
-14.65
-5.52
3.22
10.52
15.82
19.06
20.44
20.28
18.92
16.66
13.83
10.82
7.94
5.45
3.41
1.78
0.46
-0.65
-1.6
-2.43
-3.18
-3.97
-5.03
-6.71
-9.37
-13.21
-18.05
-23.21
-27.54
-29.75
-28.83
-24.46
-17.16
-8.06
1.42
10.03
16.98
21.89
24.71
25.54
24.6
22.26
19.08
15.7
12.72
10.51
9.05
8.07
7.15
5.95
4.36
2.5
0.54
-1.42
-3.44
-5.84
-9.01
-13.26
-18.61
-24.61
-30.28
-34.34
-35.58
-33.19
-27.21
-18.42
-8.14
2.22
11.54
19.18
24.82
28.33
29.65
28.8
26.13
22.32
18.3
14.9
12.62
11.41
10.84
10.37
9.55
8.29
6.72
5.04
3.41
1.79
-0.03
-2.35
-5.45
-9.55
-14.64
-20.37
-26.02
-30.57
-32.87
-32.03
-27.64
-19.98
-10.02
0.89
11.31
20.05
26.35
29.95
30.97
29.76
26.81
22.72
18.24
14.16
11.21
9.77
9.72
10.45
11.09
10.94
9.69
7.56
5.05
2.6
0.33
-1.95
-4.65
-8.14
-12.54
-17.65
-22.88
-27.39
-30.16
-30.25
-27.07
-20.66
-11.73
-1.51
8.57
17.33
24.01
28.28
30.17
29.84
27.6
23.89
19.41
14.99
11.42
9.18
8.28
8.29
8.5
8.33
7.44
5.92
3.99
1.9
-0.26
-2.62
-5.43
-8.94
-13.24
-18.19
-23.33
-27.95
-31.11
-31.89
-29.7
-24.54
-17.03
-8.27
0.58
8.54
15.09
20.01
23.33
25.05
25.19
23.86
21.31
18.08
14.83
12.15
10.37
9.44
8.96
8.38
7.27
5.43
3.06
0.57
-1.63
-3.45
-5.16
-7.34
-10.59
-15.21
-20.96
-27.04
-32.24
-35.3
-35.21
-31.59
-24.76
-15.68
-5.62
4.17
12.79
19.75
24.93
28.42
30.24
30.42
29.01
26.25
22.67
19.01
16.08
14.4
14.05
14.55
15.08
14.83
13.35
10.72
7.42
4.09
1.08
-1.58
-4.24
-7.27
-10.93
-15.23
-20.04
-25.19
-30.4
-35.16
-38.59
-39.61
-37.25
-31.19
-22.01
-11.1
-0.17
9.42
16.98
22.57
26.63
29.52
31.34
31.94
31.19
29.19
26.4
23.43
20.87
19.1
18.23
18.07
18.25
18.3
17.72
16.24
13.81
10.7
7.31
3.98
0.8
-2.33
-5.68
-9.4
-13.5
-17.88
-22.46
-27.2
-31.98
-36.3
-39.27
-39.73
-36.71
-29.93
-20.07
-8.54
2.92
12.86
20.49
25.64
28.63
29.9
29.85
28.81
27.06
24.97
22.89
21.16
19.98
19.38
19.2
19.21
19.17
18.92
18.39
17.53
16.28
14.52
12.1
8.94
5.11
0.9
-3.28
-7.05
-10.21
-12.86
-15.43
-18.45
-22.35
-27.1
-32.07
-36.1
-37.86
-36.36
-31.34
-23.43
-13.9
-4.22
4.42
11.36
16.5
20.05
22.27
23.34
23.37
22.42
20.69
18.45
16.16
14.17
12.78
12.07
11.92
12.09
12.29
12.26
11.8
10.83
9.3
7.3
4.96
2.43
-0.17
-2.81
-5.48
-8.28
-11.38
-14.96
-19.12
-23.72
-28.3
-32.01
-33.84
-32.88
-28.72
-21.71
-12.88
-3.65
4.73
11.47
16.39
19.69
21.68
22.47
21.98
20.12
17.04
13.24
9.52
6.68
5.18
4.97
5.48
6
5.96
5.13
3.66
1.86
-0.01
-1.85
-3.72
-5.72
-7.86
-10.04
-12.24
-14.61
-17.43
-20.95
-25.02
-28.98
-31.7
-32.07
-29.46
-24
-16.52
-8.24
-0.22
6.85
12.71
17.27
20.42
21.94
21.69
19.85
16.95
13.83
11.33
9.9
9.58
9.92
10.33
10.33
9.69
8.42
6.66
4.57
2.22
-0.32
-2.98
-5.65
-8.27
-10.95
-13.89
-17.37
-21.48
-26
-30.27
-33.36
-34.33
-32.55
-27.87
-20.74
-12.05
-2.91
5.63
12.8
18.17
21.61
23.28
23.37
22.22
20.17
17.66
15.16
13.03
11.51
10.6
10.12
9.82
9.48
8.97
8.24
7.24
5.86
4.02
1.65
-1.15
-4.19
-7.24
-10.19
-13.09
-16.2
-19.83
-24.08
-28.7
-32.96
-35.87
-36.42
-33.99
-28.57
-20.79
-11.75
-2.65
5.55
12.29
17.43
21.02
23.2
24.03
23.61
22.09
19.82
17.23
14.81
12.91
11.65
10.98
10.61
10.24
9.61
8.59
7.24
5.67
4.04
2.35
0.53
-1.55
-3.99
-6.78
-9.79
-12.94
-16.27
-19.87
-23.77
-27.68
-30.88
-32.47
-31.61
-27.92
-21.68
-13.78
-5.36
2.56
9.29
14.52
18.2
20.42
21.23
20.77
19.23
16.95
14.43
12.16
10.53
9.7
9.57
9.79
9.92
9.6
8.66
7.15
5.33
3.48
1.79
0.3
-1.1
-2.65
-4.51
-6.89
-9.89
-13.61
-17.96
-22.63
-26.9
-29.81
-30.35
-27.91
-22.55
-15.05
-6.65
1.42
8.28
13.59
17.4
19.87
21.06
20.91
19.38
16.66
13.3
10.05
7.62
6.39
6.31
6.94
7.62
7.79
7.18
5.81
3.99
2.06
0.25
-1.39
-3.05
-5
-7.53
-10.81
-14.8
-19.22
-23.58
-27.22
-29.38
-29.44
-27.1
-22.44
-15.96
-8.43
-0.7
6.5
12.64
17.35
20.42
21.67
21.05
18.67
15.02
10.86
7.1
4.5
3.39
3.55
4.35
5.02
4.96
3.98
2.24
0.1
-2.06
-4.08
-6
-8
-10.36
-13.34
-17.1
-21.59
-26.4
-30.71
-33.48
-33.7
-30.79
-24.84
-16.59
-7.24
1.89
9.77
15.77
19.68
21.56
21.63
20.2
17.74
14.78
11.94
9.7
8.33
7.76
7.66
7.55
7.03
5.96
4.44
2.75
1.15
-0.22
-1.47
-2.81
-4.5
-6.8
-9.91
-13.93
-18.78
-24.06
-28.96
-32.42
-33.34
-31.08
-25.69
-17.97
-9.2
-0.64
6.85
12.89
17.5
20.74
22.59
22.94
21.74
19.19
15.85
12.44
9.63
7.86
7.16
7.21
7.49
7.53
7.05
6.02
4.64
3.11
1.54
-0.15
-2.1
-4.57
-7.71
-11.6
-16.2
-21.29
-26.42
-30.89
-33.82
-34.34
-31.93
-26.56
-18.86
-9.86
-0.71
7.59
14.41
19.47
22.76
24.39
24.56
23.53
21.65
19.32
16.96
14.9
13.33
12.24
11.53
10.99
10.41
9.61
8.5
7.13
5.6
4.08
2.63
1.17
-0.54
-2.85
-6.06
-10.25
-15.25
-20.62
-25.7
-29.76
-32.04
-31.98
-29.31
-24.17
-17.13
-9.04
-0.86
6.62
12.9
17.73
21.07
22.96
23.45
22.65
20.75
18.12
15.28
12.8
11.18
10.62
10.97
11.72
12.18
11.8
10.33
7.96
5.14
2.32
-0.24
-2.59
-4.97
-7.61
-10.65
-14.06
-17.68
-21.29
-24.47
-26.69
-27.28
-25.67
-21.63
-15.47
-7.99
-0.22
6.88
12.71
17.01
19.73
20.9
20.49
18.59
15.55
12.04
8.9
6.9
6.42
7.22
8.61
9.75
9.98
9.1
7.32
5.12
2.92
0.9
-1.08
-3.34
-6.23
-9.95
-14.48
-19.42
-24.09
-27.6
-29.09
-28.03
-24.34
-18.49
-11.27
-3.65
3.54
9.73
14.66
18.25
20.51
21.52
21.32
20
17.8
15.05
12.24
9.81
8.15
7.32
7.12
7.1
6.79
5.82
4.14
1.95
-0.41
-2.64
-4.71
-6.82
-9.38
-12.78
-17.15
-22.22
-27.25
-31.18
-32.91
-31.71
-27.43
-20.62
-12.33
-3.73
4.18
10.88
16.19
20.17
22.83
24.1
23.89
22.27
19.62
16.59
13.92
12.15
11.47
11.61
12.01
12.1
11.48
10.11
8.21
6.13
4.13
2.28
0.39
-1.77
-4.46
-7.88
-12.13
-17.18
-22.8
-28.4
-33.03
-35.55
-34.98
-30.9
-23.72
-14.58
-4.92
3.96
11.27
16.79
20.65
23.11
24.4
24.62
23.91
22.49
20.68
18.83
17.2
15.96
15.13
14.6
14.18
13.66
12.84
11.63
10.04
8.2
6.21
4.07
1.69
-1.08
-4.28
-7.84
-11.6
-15.42
-19.31
-23.31
-27.4
-31.23
-34.13
-35.15
-33.5
-28.87
-21.6
-12.63
-3.18
5.53
12.63
17.75
20.97
22.62
23.15
22.91
22.08
20.83
19.3
17.75
16.5
15.79
15.68
15.94
16.19
16.06
15.34
14.04
12.32
10.36
8.2
5.83
3.21
0.4
-2.45
-5.19
-7.73
-10.2
-12.85
-16
-19.75
-23.84
-27.59
-30.03
-30.26
-27.74
-22.57
-15.51
-7.63
0
6.71
12.24
16.62
19.92
22.06
22.81
22.01
19.77
16.58
13.22
10.44
8.77
8.28
8.73
9.63
10.51
10.96
10.68
9.58
7.69
5.19
2.33
-0.69
-3.74
-6.81
-9.94
-13.21
-16.62
-20.15
-23.64
-26.84
-29.32
-30.49
-29.71
-26.54
-20.98
-13.55
-5.19
3
10.12
15.64
19.43
21.53
22.03
21.02
18.66
15.3
11.52
8.07
5.54
4.23
4.02
4.46
4.98
5.12
4.64
3.58
2.16
0.63
-0.83
-2.21
-3.64
-5.31
-7.47
-10.27
-13.79
-17.96
-22.58
-27.15
-30.96
-33.12
-32.82
-29.65
-23.81
-16.1
-7.71
0.22
6.98
12.33
16.36
19.24
20.96
21.46
20.65
18.7
16.02
13.18
10.71
8.93
7.97
7.7
7.86
8.1
8.01
7.26
5.72
3.47
0.86
-1.72
-3.99
-5.92
-7.69
-9.57
-11.75
-14.32
-17.28
-20.62
-24.19
-27.65
-30.3
-31.2
-29.51
-24.84
-17.52
-8.62
0.5
8.63
15.07
19.73
22.84
24.71
25.49
25.2
23.86
21.68
19.06
16.51
14.46
13.13
12.41
11.99
11.51
10.68
9.41
7.75
5.81
3.7
1.43
-1.04
-3.73
-6.65
-9.76
-13.07
-16.65
-20.65
-25.1
-29.78
-34.05
-36.94
-37.43
-34.84
-29.16
-21.1
-11.88
-2.78
5.24
11.71
16.55
19.9
21.88
22.56
22
20.33
17.85
15.03
12.34
10.22
8.89
8.31
8.24
8.28
8.05
7.41
6.4
5.24
4.13
3.04
1.72
-0.15
-2.77
-6.13
-9.97
-13.97
-17.89
-21.59
-24.9
-27.49
-28.8
-28.16
-25.13
-19.68
-12.35
-4.13
3.86
10.68
15.78
19.01
20.47
20.39
19.05
16.75
13.88
10.91
8.31
6.4
5.25
4.68
4.3
3.79
2.93
1.76
0.47
-0.77
-1.9
-2.98
-4.22
-5.87
-8.1
-11.03
-14.59
-18.51
-22.35
-25.41
-26.96
-26.35
-23.3
-18
-11.12
-3.62
3.49
9.4
13.66
16.16
17.01
16.48
14.86
12.47
9.68
6.88
4.47
2.73
1.77
1.5
1.66
1.9
1.91
1.49
0.57
-0.79
-2.5
-4.53
-6.96
-9.96
-13.7
-18.14
-22.91
-27.2
-29.99
-30.31
-27.64
-22.09
-14.45
-5.89
2.4
9.52
15
18.68
20.58
20.78
19.46
16.97
13.85
10.76
8.23
6.55
5.58
4.96
4.23
3.09
1.49
-0.38
-2.25
-3.86
-5.12
-6.22
-7.46
-9.32
-12.19
-16.21
-21.13
-26.18
-30.23
-32.08
-30.81
-26.17
-18.69
-9.56
-0.23
8.02
14.43
18.82
21.4
22.52
22.43
21.29
19.27
16.72
14.24
12.38
11.51
11.5
11.84
11.85
11.08
9.44
7.31
5.25
3.67
2.65
1.81
0.53
-1.86
-5.79
-11.31
-17.97
-24.91
-31.02
-35.12
-36.24
-33.9
-28.29
-20.2
-10.85
-1.56
6.62
13.14
17.92
21.18
23.22
24.19
24.13
23.05
21.14
18.78
16.47
14.67
13.52
12.9
12.43
11.72
10.54
8.9
6.97
4.94
3.01
1.19
-0.59
-2.43
-4.48
-6.89
-9.82
-13.4
-17.7
-22.5
-27.25
-31.07
-32.96
-32.15
-28.36
-21.94
-13.79
-5
3.4
10.72
16.63
21.05
24
25.56
25.81
24.91
23.14
20.86
18.49
16.42
14.97
14.22
14.02
14.05
13.9
13.22
11.96
10.26
8.42
6.64
4.91
2.96
0.42
-2.96
-7.24
-12.19
-17.41
-22.34
-26.36
-28.79
-29.01
-26.55
-21.37
-14
-5.41
3.16
10.7
16.59
20.72
23.25
24.39
24.24
22.78
20.12
16.59
12.83
9.59
7.48
6.71
7.04
7.85
8.43
8.27
7.16
5.28
3.05
0.86
-1.13
-3
-5.03
-7.55
-10.74
-14.62
-19.02
-23.52
-27.54
-30.28
-30.97
-29.06
-24.52
-17.86
-10.05
-2.2
4.83
10.53
14.78
17.63
19.13
19.32
18.31
16.38
13.97
11.61
9.72
8.55
8.07
8.03
8.05
7.8
7.06
5.82
4.24
2.51
0.79
-0.9
-2.64
-4.59
-6.93
-9.85
-13.52
-17.95
-22.9
-27.76
-31.63
-33.53
-32.74
-29.08
-22.93
-15.15
-6.71
1.5
8.86
14.98
19.62
22.58
23.77
23.28
21.38
18.61
15.6
12.99
11.21
10.41
10.42
10.81
11.07
10.74
9.62
7.75
5.4
2.92
0.54
-1.67
-3.76
-5.95
-8.46
-11.51
-15.24
-19.7
-24.68
-29.63
-33.69
-35.86
-35.32
-31.68
-25.25
-16.95
-7.96
0.55
7.85
13.67
18.04
21.13
23
23.61
22.91
21.06
18.49
15.86
13.86
12.94
13.1
13.92
14.75
15.01
14.41
13.01
11.06
8.87
6.61
4.24
1.66
-1.24
-4.49
-8.04
-11.87
-16.05
-20.66
-25.52
-30.06
-33.33
-34.24
-32.06
-26.79
-19.22
-10.64
-2.35
4.82
10.59
15.12
18.61
21.05
22.24
21.98
20.35
17.82
15.15
13
11.74
11.31
11.34
11.35
10.95
10
8.6
6.97
5.34
3.86
2.49
1.07
-0.58
-2.66
-5.23
-8.31
-11.84
-15.69
-19.6
-23.13
-25.65
-26.44
-24.94
-20.97
-14.88
-7.45
0.29
7.4
13.18
17.29
19.63
20.29
19.48
17.53
14.91
12.1
9.61
7.76
6.68
6.21
6.05
5.89
5.48
4.77
3.84
2.82
1.8
0.72
-0.64
-2.52
-5.14
-8.57
-12.68
-17.16
-21.45
-24.92
-26.84
-26.63
-24.03
-19.2
-12.77
-5.61
1.39
7.55
12.48
16.08
18.28
19.09
18.48
16.56
13.65
10.28
7.13
4.74
3.39
2.97
3.04
3.09
2.76
1.96
0.83
-0.39
-1.55
-2.72
-4.16
-6.17
-8.97
-12.63
-16.95
-21.58
-25.91
-29.23
-30.77
-29.91
-26.39
-20.42
-12.72
-4.32
3.69
10.5
15.61
18.94
20.62
20.87
19.97
18.26
16.15
14.09
12.46
11.41
10.84
10.43
9.8
8.72
7.16
5.33
3.48
1.81
0.31
-1.19
-2.95
-5.24
-8.25
-12.03
-16.45
-21.15
-25.51
-28.73
-30.03
-28.88
-25.26
-19.62
-12.77
-5.65
1.01
6.79
11.6
15.51
18.54
20.57
21.45
21.12
19.74
17.74
15.65
13.9
12.76
12.15
11.83
11.53
10.99
10.1
8.86
7.27
5.36
3.15
0.66
-2.09
-5.1
-8.39
-12.07
-16.17
-20.61
-25.05
-28.81
-31.01
-30.86
-27.95
-22.45
-15.11
-6.97
0.96
7.95
13.64
17.95
20.88
22.47
22.82
22.15
20.85
19.32
17.88
16.69
15.75
14.96
14.26
13.65
13.09
12.5
11.7
10.46
8.64
6.26
3.52
0.72
-1.89
-4.22
-6.36
-8.55
-11.06
-14.12
-17.75
-21.77
-25.68
-28.76
-30.19
-29.22
-25.55
-19.38
-11.48
-2.9
5.31
12.32
17.68
21.2
22.89
22.83
21.22
18.39
14.92
11.48
8.69
6.95
6.29
6.48
7.13
7.84
8.28
8.23
7.54
6.19
4.23
1.82
-0.8
-3.39
-5.85
-8.27
-10.9
-13.92
-17.37
-20.92
-23.93
-25.65
-25.42
-22.96
-18.46
-12.53
-6.01
0.32
5.94
10.59
14.19
16.73
18.15
18.37
17.38
15.33
12.61
9.77
7.32
5.57
4.56
4.07
3.8
3.49
2.97
2.2
1.19
-0.01
-1.39
-2.92
-4.64
-6.63
-9.01
-11.91
-15.41
-19.33
-23.25
-26.46
-28.16
-27.72
-24.94
-20.06
-13.71
-6.68
0.29
6.68
12.16
16.5
19.46
20.83
20.57
18.9
16.34
13.62
11.4
10.09
9.66
9.83
10.07
9.91
9.03
7.36
5.07
2.47
-0.1
-2.42
-4.46
-6.37
-8.42
-10.86
-13.83
-17.32
-21.18
-25.08
-28.48
-30.66
-30.84
-28.48
-23.5
-16.43
-8.25
-0.04
7.34
13.44
18.11
21.33
23.04
23.17
21.73
19.08
15.82
12.73
10.41
9.12
8.76
8.91
9.14
9.09
8.62
7.74
6.53
5.08
3.4
1.5
-0.64
-2.96
-5.41
-7.99
-10.82
-14.15
-18.15
-22.7
-27.16
-30.51
-31.57
-29.58
-24.52
-17.18
-8.86
-0.89
5.85
11.14
15.22
18.42
20.82
22.19
22.15
20.55
17.69
14.3
11.28
9.37
8.78
9.23
10.06
10.61
10.43
9.42
7.76
5.76
3.67
1.59
-0.49
-2.69
-5.09
-7.78
-10.81
-14.2
-17.9
-21.7
-25.14
-27.52
-28.07
-26.19
-21.71
-15.05
-7.08
1.1
8.54
14.62
19.05
21.84
23.03
22.71
21.03
18.35
15.27
12.48
10.57
9.77
9.85
10.26
10.38
9.82
8.52
6.75
4.87
3.15
1.64
0.21
-1.41
-3.47
-6.19
-9.62
-13.61
-17.79
-21.57
-24.22
-25.05
-23.62
-19.88
-14.28
-7.57
-0.6
5.93
11.52
15.94
19.06
20.73
20.86
19.46
16.8
13.41
10.01
7.23
5.4
4.43
3.94
3.46
2.65
1.44
0.03
-1.33
-2.46
-3.47
-4.67
-6.47
-9.14
-12.76
-17.09
-21.66
-25.82
-28.76
-29.73
-28.15
-23.86
-17.27
-9.32
-1.2
6.01
11.65
15.55
17.9
18.94
18.84
17.68
15.62
13.03
10.43
8.29
6.82
5.93
5.28
4.48
3.32
1.86
0.3
-1.08
-2.12
-2.85
-3.54
-4.55
-6.32
-9.15
-13.06
-17.7
-22.36
-26.08
-27.9
-27.17
-23.73
-18.03
-10.92
-3.4
3.67
9.77
14.69
18.44
20.93
22.06
21.68
19.87
17.03
13.83
10.95
8.87
7.63
6.93
6.4
5.73
4.84
3.83
2.88
2.06
1.3
0.39
-0.98
-3.1
-6.18
-10.28
-15.15
-20.23
-24.71
-27.66
-28.32
-26.33
-21.85
-15.53
-8.29
-1.05
5.45
10.82
14.91
17.72
19.24
19.46
18.42
16.37
13.81
11.33
9.5
8.59
8.5
8.81
9.04
8.85
8.17
7.17
6.07
4.98
3.85
2.48
0.61
-1.87
-5.01
-8.71
-12.83
-17.08
-21.04
-24.08
-25.48
-24.69
-21.55
-16.38
-9.97
-3.25
2.96
8.21
12.31
15.3
17.21
18.01
17.68
16.3
14.15
11.69
9.43
7.78
6.9
6.65
6.73
6.74
6.42
5.69
4.62
3.37
2.08
0.73
-0.8
-2.69
-5.06
-7.93
-11.13
-14.37
-17.16
-18.98
-19.33
-17.91
-14.77
-10.28
-5.1
0.13
4.88
8.89
12.03
14.21
15.25
15.02
13.54
11.12
8.37
5.93
4.29
3.57
3.52
3.71
3.72
3.36
2.6
1.58
0.39
-0.93
-2.45
-4.29
-6.51
-9.17
-12.2
-15.49
-18.8
-21.75
-23.83
-24.47
-23.26
-20.06
-15.15
-9.17
-2.87
3.05
8.15
12.2
15.12
16.79
17.14
16.11
13.89
10.88
7.72
5.04
3.25
2.46
2.43
2.78
3.12
3.22
2.98
2.44
1.62
0.5
-1.04
-3.17
-6.03
-9.67
-13.92
-18.47
-22.82
-26.36
-28.48
-28.68
-26.69
-22.53
-16.6
-9.54
-2.22
4.56
10.15
14.17
16.56
17.49
17.28
16.27
14.81
13.22
11.77
10.62
9.82
9.31
8.9
8.37
7.51
6.22
4.52
2.54
0.51
-1.43
-3.12
-4.62
-6.05
-7.7
-9.84
-12.67
-16.18
-20.04
-23.65
-26.16
-26.78
-24.98
-20.75
-14.58
-7.37
-0.14
6.26
11.39
15.16
17.7
19.22
19.81
19.52
18.42
16.67
14.63
12.71
11.28
10.49
10.24
10.25
10.15
9.66
8.67
7.19
5.33
3.2
0.94
-1.34
-3.52
-5.55
-7.42
-9.28
-11.33
-13.81
-16.81
-20.15
-23.37
-25.74
-26.49
-25.05
-21.27
-15.5
-8.51
-1.28
5.35
10.78
14.77
17.36
18.73
19.07
18.51
17.18
15.29
13.14
11.09
9.47
8.46
8.06
8.12
8.36
8.49
8.27
7.58
6.43
4.93
3.32
1.75
0.31
-1.11
-2.74
-4.91
-7.82
-11.5
-15.71
-19.94
-23.54
-25.79
-26.07
-24.05
-19.73
-13.6
-6.53
0.48
6.55
11.17
14.26
15.99
16.64
16.38
15.23
13.25
10.62
7.83
5.45
3.97
3.56
3.97
4.7
5.22
5.21
4.62
3.64
2.45
1.14
-0.36
-2.19
-4.52
-7.4
-10.8
-14.58
-18.55
-22.42
-25.78
-28.16
-29.05
-28.08
-25.05
-20.07
-13.6
-6.39
0.69
6.82
11.49
14.54
16.15
16.68
16.48
15.77
14.63
13.13
11.39
9.64
8.14
7.04
6.28
5.62
4.78
3.63
2.2
0.71
-0.61
-1.69
-2.67
-3.85
-5.56
-8.01
-11.23
-15.07
-19.25
-23.41
-27.05
-29.55
-30.23
-28.6
-24.53
-18.45
-11.24
-3.93
2.59
7.8
11.57
14.03
15.39
15.81
15.41
14.33
12.79
11.05
9.4
8.04
7.05
6.41
6
5.63
5.07
4.11
2.64
0.7
-1.54
-3.81
-5.89
-7.7
-9.31
-10.96
-13
-15.75
-19.37
-23.73
-28.28
-32.14
-34.24
-33.68
-30.07
-23.68
-15.39
-6.39
2.13
9.31
14.73
18.33
20.3
20.88
20.3
18.84
16.87
14.83
13.14
12.07
11.63
11.61
11.61
11.22
10.15
8.43
6.32
4.17
2.27
0.69
-0.76
-2.4
-4.58
-7.48
-11.09
-15.27
-19.8
-24.4
-28.71
-32.18
-34.14
-33.88
-30.99
-25.49
-17.99
-9.45
-0.88
6.88
13.35
18.36
21.85
23.81
24.19
23.07
20.71
17.61
14.42
11.74
9.96
9.13
9.05
9.32
9.55
9.45
8.91
7.92
6.58
4.96
3.06
0.83
-1.87
-5.14
-9.06
-13.54
-18.34
-23.04
-27.07
-29.77
-30.51
-28.82
-24.57
-18.01
-9.76
-0.73
8.08
15.74
21.53
25.05
26.21
25.29
22.8
19.47
16.03
13.06
10.94
9.75
9.38
9.55
9.92
10.12
9.84
8.87
7.16
4.85
2.18
-0.66
-3.57
-6.66
-10.19
-14.37
-19.2
-24.26
-28.72
-31.51
-31.67
-28.7
-22.76
-14.64
-5.52
3.43
11.37
17.88
22.87
26.33
28.2
28.39
26.93
24.13
20.6
17.12
14.38
12.71
12.05
11.96
11.89
11.45
10.48
9.06
7.37
5.5
3.33
0.59
-2.97
-7.52
-13.01
-19.2
-25.68
-31.89
-37.14
-40.69
-41.81
-39.99
-35.15
-27.71
-18.54
-8.74
0.7
9.02
15.8
20.81
23.96
25.24
24.77
22.87
20.11
17.17
14.69
13.1
12.45
12.44
12.55
12.32
11.44
9.9
7.91
5.73
3.58
1.59
-0.24
-2.1
-4.28
-7.23
-11.33
-16.63
-22.66
-28.33
-32.18
-32.85
-29.66
-22.87
-13.57
-3.31
6.52
14.97
21.69
26.67
30.05
31.9
32.22
31.11
28.86
25.95
22.96
20.44
18.72
17.89
17.76
17.94
17.99
17.53
16.36
14.48
12.06
9.37
6.63
3.94
1.24
-1.58
-4.72
-8.35
-12.62
-17.57
-23
-28.42
-32.96
-35.57
-35.29
-31.68
-24.96
-16.05
-6.26
3.15
11.3
17.81
22.67
26.02
27.94
28.45
27.58
25.54
22.81
19.99
17.69
16.27
15.75
15.84
16.08
16.01
15.34
14.06
12.32
10.43
8.59
6.88
5.2
3.31
0.98
-1.92
-5.41
-9.4
-13.76
-18.35
-22.87
-26.84
-29.52
-30.11
-28.02
-23.13
-15.94
-7.41
1.27
9.11
15.41
19.88
22.49
23.39
22.8
21.05
18.57
15.86
13.4
11.55
10.45
10.04
10.09
10.23
10.14
9.6
8.59
7.25
5.77
4.28
2.77
1.05
-1.11
-3.84
-7.2
-11.09
-15.31
-19.59
-23.52
-26.5
-27.88
-27.07
-23.78
-18.26
-11.17
-3.49
3.8
9.99
14.74
17.99
19.81
20.34
19.64
17.85
15.24
12.21
9.33
7.06
5.7
5.24
5.37
5.67
5.74
5.36
4.45
3.13
1.49
-0.36
-2.32
-4.34
-6.37
-8.45
-10.76
-13.53
-16.98
-21.11
-25.52
-29.42
-31.77
-31.61
-28.44
-22.45
-14.55
-6
1.93
8.41
13.16
16.32
18.29
19.36
19.66
19.17
17.86
15.92
13.75
11.84
10.57
10.06
10.12
10.35
10.37
9.94
8.97
7.54
5.75
3.75
1.6
-0.64
-2.98
-5.43
-8.08
-11.07
-14.47
-18.23
-22.06
-25.48
-27.89
-28.72
-27.54
-24.22
-18.96
-12.28
-4.89
2.42
8.98
14.34
18.3
20.84
22
21.85
20.47
18.09
15.08
12
9.44
7.84
7.31
7.58
8.13
8.39
7.99
6.83
5.08
3.06
1.11
-0.6
-2.07
-3.44
-4.97
-6.9
-9.41
-12.57
-16.24
-20.1
-23.66
-26.3
-27.4
-26.46
-23.3
-18.09
-11.43
-4.2
2.63
8.29
12.4
14.94
16.19
16.44
15.89
14.59
12.62
10.16
7.66
5.68
4.63
4.6
5.28
6.13
6.58
6.33
5.37
3.94
2.33
0.71
-0.93
-2.72
-4.84
-7.45
-10.55
-14.05
-17.71
-21.14
-23.85
-25.27
-24.99
-22.74
-18.59
-12.91
-6.29
0.53
6.81
11.94
15.54
17.43
17.67
16.52
14.37
11.66
8.88
6.47
4.69
3.65
3.21
3.11
3.07
2.87
2.36
1.51
0.36
-1.06
-2.65
-4.35
-6.15
-8.14
-10.57
-13.64
-17.4
-21.53
-25.36
-27.96
-28.53
-26.65
-22.41
-16.45
-9.63
-2.83
3.3
8.37
12.24
14.89
16.32
16.6
15.78
14.02
11.58
8.88
6.4
4.55
3.53
3.24
3.36
3.39
2.95
1.88
0.32
-1.44
-3.1
-4.52
-5.81
-7.28
-9.29
-12.1
-15.74
-19.96
-24.22
-27.76
-29.74
-29.39
-26.36
-20.84
-13.55
-5.58
1.91
8.13
12.75
15.91
17.99
19.3
19.92
19.72
18.57
16.49
13.81
11.08
8.83
7.38
6.72
6.5
6.29
5.74
4.69
3.22
1.54
-0.13
-1.69
-3.25
-4.97
-7.12
-9.84
-13.19
-17.03
-21.08
-24.89
-27.85
-29.34
-28.76
-25.79
-20.53
-13.51
-5.61
2.16
8.91
14.11
17.59
19.43
19.84
19.02
17.24
14.81
12.18
9.8
8.06
7.11
6.85
6.91
6.88
6.48
5.69
4.69
3.73
2.99
2.39
1.65
0.38
-1.76
-4.95
-9.12
-13.99
-19.01
-23.44
-26.42
-27.19
-25.28
-20.72
-14.14
-6.57
0.87
7.27
12.17
15.53
17.48
18.18
17.7
16.07
13.46
10.31
7.29
5.04
4.02
4.17
5.04
5.93
6.21
5.63
4.28
2.54
0.73
-1.03
-2.87
-5.1
-7.96
-11.51
-15.48
-19.42
-22.69
-24.68
-24.85
-22.89
-18.8
-12.95
-6.02
1.16
7.79
13.3
17.28
19.55
20.03
18.8
16.13
12.5
8.61
5.15
2.68
1.37
1.03
1.19
1.33
1.09
0.35
-0.83
-2.31
-4.02
-5.98
-8.3
-11.11
-14.43
-18.1
-21.73
-24.67
-26.17
-25.53
-22.35
-16.74
-9.36
-1.3
6.25
12.28
16.27
18.18
18.37
17.35
15.59
13.48
11.24
9.06
7.05
5.3
3.79
2.44
1.11
-0.31
-1.8
-3.3
-4.68
-5.9
-7.12
-8.64
-10.89
-14.16
-18.37
-22.95
-26.91
-29.06
-28.48
-24.87
-18.65
-10.85
-2.67
4.85
11.12
15.86
18.99
20.46
20.2
18.33
15.26
11.7
8.46
6.12
4.82
4.3
4.09
3.73
3.03
2.02
0.8
-0.54
-2.07
-3.93
-6.29
-9.27
-12.88
-17
-21.33
-25.38
-28.47
-29.83
-28.81
-25.11
-18.92
-10.98
-2.28
6.13
13.37
18.9
22.45
24.02
23.81
22.16
19.55
16.59
13.78
11.5
9.87
8.72
7.73
6.58
5.1
3.29
1.31
-0.66
-2.47
-4.14
-5.88
-8.02
-10.94
-14.81
-19.47
-24.24
-28.07
-29.81
-28.64
-24.43
-17.72
-9.6
-1.24
6.44
12.92
18.06
21.82
24.16
24.98
24.32
22.4
19.74
16.97
14.62
12.97
11.95
11.25
10.49
9.44
8.05
6.44
4.74
2.99
1.1
-1.14
-3.97
-7.58
-11.94
-16.79
-21.51
-25.21
-26.91
-25.85
-21.84
-15.37
-7.5
0.55
7.79
13.72
18.28
21.59
23.68
24.4
23.56
21.22
17.85
14.26
11.3
9.5
8.9
9.08
9.39
9.29
8.57
7.28
5.73
4.14
2.59
0.91
-1.19
-4.01
-7.73
-12.3
-17.4
-22.42
-26.58
-28.98
-28.88
-25.92
-20.23
-12.56
-3.96
4.41
11.64
17.26
21.17
23.57
24.67
24.7
23.8
22.21
20.22
18.25
16.72
15.89
15.76
15.98
16.07
15.51
14.07
11.82
9.1
6.36
3.9
1.72
-0.43
-2.89
-5.99
-9.82
-14.35
-19.33
-24.35
-28.85
-32.07
-33.25
-31.78
-27.5
-20.77
-12.44
-3.65
4.58
11.55
17.01
21.02
23.8
25.47
26.11
25.77
24.62
22.99
21.22
19.67
18.46
17.53
16.72
15.87
14.95
14.02
13.17
12.35
11.39
10.05
8.11
5.55
2.53
-0.71
-3.87
-6.82
-9.64
-12.57
-15.89
-19.81
-24.24
-28.72
-32.43
-34.4
-33.81
-30.25
-23.96
-15.76
-6.8
1.78
9.2
15.15
19.71
23.1
25.48
26.82
27.06
26.22
24.57
22.53
20.59
19.07
18.08
17.53
17.24
17.06
16.83
16.4
15.62
14.28
12.34
9.85
7.03
4.09
1.22
-1.5
-4.06
-6.46
-8.74
-10.99
-13.46
-16.46
-20.2
-24.53
-28.82
-32.01
-32.97
-30.94
-25.88
-18.53
-10.11
-1.9
5.15
10.66
14.63
17.27
18.77
19.28
18.92
17.95
16.67
15.36
14.19
13.19
12.27
11.41
10.63
10.07
9.79
9.74
9.7
9.41
8.58
7.08
4.95
2.35
-0.54
-3.49
-6.35
-9.04
-11.57
-14.1
-16.83
-19.88
-23.1
-25.96
-27.65
-27.35
-24.57
-19.43
-12.62
-5.15
1.98
8.09
12.87
16.24
18.19
18.7
17.84
15.85
13.16
10.37
8.01
6.46
5.79
5.86
6.36
6.93
7.25
7.09
6.38
5.22
3.77
2.15
0.37
-1.65
-4.01
-6.73
-9.69
-12.73
-15.76
-18.73
-21.64
-24.3
-26.31
-27.08
-26
-22.75
-17.46
-10.73
-3.44
3.51
9.43
13.92
16.84
18.25
18.27
17.12
15.06
12.45
9.73
7.32
5.54
4.49
4.08
4.02
4
3.73
3.1
2.16
1.06
-0.08
-1.24
-2.5
-4.01
-5.86
-8.07
-10.6
-13.39
-16.49
-19.87
-23.32
-26.33
-28.1
-27.81
-24.94
-19.59
-12.5
-4.81
2.36
8.25
12.63
15.62
17.51
18.5
18.59
17.75
16.01
13.58
10.9
8.51
6.85
6.13
6.19
6.6
6.85
6.52
5.49
3.97
2.3
0.8
-0.45
-1.64
-3.08
-5.01
-7.46
-10.29
-13.35
-16.56
-19.88
-23.17
-26
-27.7
-27.51
-24.91
-19.91
-13.09
-5.44
1.98
8.3
13.09
16.24
17.9
18.28
17.61
16.12
14.04
11.68
9.39
7.54
6.32
5.76
5.63
5.58
5.3
4.65
3.68
2.59
1.54
0.58
-0.4
-1.59
-3.1
-4.92
-6.93
-9.05
-11.31
-13.85
-16.77
-19.9
-22.71
-24.41
-24.21
-21.7
-17.04
-10.92
-4.31
1.88
7.06
10.94
13.44
14.58
14.39
13.02
10.78
8.2
5.81
4.1
3.26
3.21
3.63
4.06
4.15
3.67
2.61
1.15
-0.43
-1.82
-2.89
-3.68
-4.49
-5.75
-7.76
-10.63
-14.1
-17.63
-20.52
-22.1
-21.88
-19.65
-15.55
-9.98
-3.64
2.72
8.34
12.65
15.29
16.2
15.57
13.77
11.32
8.74
6.47
4.8
3.74
3.1
2.54
1.7
0.42
-1.22
-2.92
-4.37
-5.35
-5.96
-6.47
-7.29
-8.8
-11.18
-14.39
-18.04
-21.48
-23.9
-24.54
-22.9
-19
-13.38
-6.94
-0.65
4.75
8.93
11.89
13.79
14.72
14.68
13.64
11.68
9.08
6.28
3.74
1.84
0.68
0.13
-0.11
-0.37
-0.87
-1.69
-2.75
-3.97
-5.39
-7.25
-9.92
-13.6
-18.17
-22.94
-26.87
-28.81
-28
-24.31
-18.36
-11.12
-3.66
3.19
8.99
13.54
16.75
18.51
18.75
17.53
15.15
12.14
9.03
6.28
4.03
2.19
0.53
-1.11
-2.72
-4.16
-5.21
-5.79
-6.01
-6.22
-6.94
-8.62
-11.52
-15.5
-19.98
-24.01
-26.56
-26.77
-24.33
-19.5
-13.02
-5.87
1.04
7.07
11.9
15.39
17.5
18.27
17.77
16.24
14.08
11.79
9.79
8.28
7.19
6.31
5.39
4.32
3.17
2.03
0.99
-0.04
-1.27
-2.99
-5.4
-8.6
-12.56
-17.08
-21.77
-26.01
-28.99
-29.9
-28.23
-24.01
-17.82
-10.62
-3.38
3.2
8.83
13.53
17.34
20.16
21.72
21.76
20.28
17.63
14.44
11.43
9.09
7.6
6.81
6.45
6.26
6.06
5.72
5.11
4.07
2.44
0.1
-2.99
-6.78
-11.17
-15.99
-20.88
-25.28
-28.43
-29.53
-28.03
-23.85
-17.45
-9.71
-1.67
5.83
12.28
17.49
21.4
23.94
24.97
24.43
22.44
19.46
16.19
13.32
11.33
10.31
9.94
9.75
9.23
8.11
6.43
4.38
2.28
0.3
-1.58
-3.59
-6.06
-9.26
-13.27
-17.87
-22.57
-26.68
-29.47
-30.21
-28.48
-24.2
-17.74
-9.91
-1.69
5.99
12.54
17.76
21.7
24.48
26.1
26.47
25.55
23.55
20.94
18.35
16.33
15.13
14.64
14.47
14.22
13.57
12.43
10.85
8.97
6.89
4.65
2.19
-0.51
-3.5
-6.82
-10.52
-14.66
-19.26
-24.15
-28.87
-32.64
-34.46
-33.46
-29.24
-22.09
-12.96
-3.18
5.97
13.57
19.31
23.32
25.93
27.49
28.2
28.16
27.4
26.09
24.48
22.92
21.67
20.83
20.32
19.92
19.38
18.59
17.59
16.46
15.23
13.79
11.93
9.48
6.37
2.78
-1.07
-4.88
-8.51
-11.98
-15.43
-19.04
-22.85
-26.8
-30.54
-33.5
-34.97
-34.24
-30.91
-25.03
-17.18
-8.29
0.63
8.76
15.6
20.99
24.97
27.59
28.89
28.97
28.02
26.38
24.52
22.84
21.59
20.84
20.46
20.25
20.01
19.67
19.2
18.62
17.82
16.63
14.8
12.21
8.88
5.14
1.42
-1.83
-4.37
-6.24
-7.8
-9.49
-11.72
-14.76
-18.63
-23.07
-27.6
-31.45
-33.76
-33.73
-30.91
-25.39
-17.84
-9.35
-1.05
6.15
11.79
15.81
18.38
19.7
19.94
19.28
17.99
16.44
15.01
14.05
13.68
13.86
14.38
14.93
15.24
15.07
14.31
13
11.25
9.29
7.28
5.36
3.54
1.77
0.01
-1.78
-3.63
-5.62
-8.02
-11.18
-15.31
-20.3
-25.43
-29.59
-31.51
-30.39
-26.21
-19.78
-12.42
-5.47
0.26
4.58
7.74
10.04
11.59
12.24
11.81
10.28
7.97
5.42
3.21
1.71
1.1
1.3
2.12
3.31
4.56
5.55
5.97
5.6
4.38
2.39
-0.16
-3.02
-5.91
-8.59
-10.88
-12.76
-14.42
-16.23
-18.57
-21.55
-24.82
-27.52
-28.56
-27.04
-22.65
-15.85
-7.69
0.59
7.88
13.53
17.3
19.35
20.03
19.73
18.84
17.65
16.36
15.11
13.98
13.03
12.3
11.84
11.57
11.38
11.1
10.52
9.5
8.04
6.24
4.26
2.22
0.1
-2.15
-4.64
-7.35
-10.2
-13.08
-15.97
-18.96
-22.14
-25.43
-28.35
-30.03
-29.55
-26.31
-20.41
-12.66
-4.3
3.46
9.79
14.41
17.43
19.11
19.68
19.25
17.94
15.98
13.77
11.74
10.22
9.32
8.93
8.83
8.75
8.56
8.21
7.7
7.01
6.02
4.62
2.7
0.37
-2.21
-4.82
-7.31
-9.73
-12.23
-15.04
-18.28
-21.83
-25.29
-28.06
-29.46
-28.92
-26.17
-21.33
-14.92
-7.74
-0.71
5.39
10.06
13.16
14.85
15.42
15.14
14.21
12.75
10.87
8.81
6.86
5.38
4.63
4.62
5.12
5.72
5.96
5.57
4.49
2.88
0.99
-0.96
-2.87
-4.75
-6.68
-8.78
-11.16
-13.95
-17.14
-20.55
-23.72
-25.97
-26.57
-25.01
-21.21
-15.57
-8.84
-1.9
4.53
9.92
14.01
16.69
17.94
17.86
16.64
14.61
12.15
9.64
7.39
5.6
4.33
3.55
3.08
2.7
2.16
1.3
0.09
-1.39
-2.99
-4.62
-6.34
-8.33
-10.85
-14.1
-18.02
-22.28
-26.28
-29.28
-30.63
-29.89
-26.99
-22.18
-15.99
-9.1
-2.13
4.38
10
14.44
17.44
18.83
18.61
16.97
14.36
11.41
8.77
6.96
6.13
6.09
6.4
6.52
6.04
4.79
2.87
0.55
-1.86
-4.09
-6.08
-7.91
-9.82
-12.08
-14.93
-18.44
-22.51
-26.76
-30.59
-33.3
-34.19
-32.76
-28.87
-22.76
-15.04
-6.57
1.78
9.21
15.16
19.34
21.7
22.39
21.67
19.86
17.29
14.36
11.49
9.17
7.8
7.53
8.19
9.21
9.9
9.62
8.1
5.48
2.21
-1.16
-4.18
-6.64
-8.54
-10.08
-11.58
-13.48
-16.2
-20.02
-24.79
-29.86
-34.05
-36.07
-34.93
-30.36
-22.93
-13.82
-4.41
4.16
11.2
16.51
20.16
22.35
23.32
23.32
22.61
21.47
20.13
18.74
17.44
16.33
15.5
15.01
14.76
14.56
14.09
13.06
11.34
8.97
6.18
3.23
0.33
-2.49
-5.34
-8.37
-11.72
-15.48
-19.63
-24.05
-28.39
-32.12
-34.43
-34.53
-31.85
-26.38
-18.75
-10.06
-1.52
5.92
11.83
16.23
19.41
21.65
23.05
23.57
23.18
21.98
20.3
18.59
17.32
16.72
16.76
17.11
17.3
16.89
15.68
13.69
11.19
8.47
5.75
3.16
0.7
-1.7
-4.17
-6.91
-10.15
-14.09
-18.66
-23.51
-27.84
-30.7
-31.18
-28.74
-23.44
-15.89
-7.13
1.7
9.6
15.98
20.61
23.59
25.14
25.46
24.69
22.98
20.62
18.04
15.71
14.03
13.09
12.67
12.41
11.92
11.06
9.88
8.57
7.29
6.06
4.75
3.08
0.81
-2.28
-6.18
-10.74
-15.55
-19.99
-23.31
-24.79
-23.88
-20.42
-14.71
-7.51
0.18
7.41
13.5
18.13
21.25
22.95
23.3
22.36
20.3
17.51
14.62
12.22
10.7
10.09
10.06
10.11
9.82
9.01
7.76
6.32
4.91
3.6
2.28
0.67
-1.55
-4.6
-8.51
-13.02
-17.64
-21.73
-24.56
-25.56
-24.32
-20.77
-15.19
-8.18
-0.57
6.78
13.14
17.99
21.08
22.37
22
20.24
17.51
14.34
11.31
8.89
7.34
6.67
6.68
6.99
7.25
7.16
6.57
5.5
4.08
2.47
0.74
-1.24
-3.69
-6.86
-10.73
-14.96
-18.84
-21.49
-22.07
-20.14
-15.72
-9.42
-2.17
4.94
10.96
15.3
17.72
18.33
17.44
15.43
12.67
9.5
6.29
3.38
1.08
-0.52
-1.48
-2.04
-2.45
-2.86
-3.27
-3.58
-3.73
-3.78
-4.01
-4.86
-6.78
-9.99
-14.26
-18.84
-22.57
-24.31
-23.27
-19.33
-13.19
-6.03
0.84
6.46
10.35
12.5
13.2
12.81
11.69
10.09
8.26
6.4
4.64
3.08
1.71
0.5
-0.61
-1.6
-2.51
-3.34
-4.23
-5.34
-6.92
-9.13
-12.02
-15.42
-18.87
-21.69
-23.04
-22.26
-19.03
-13.56
-6.64
0.61
7.07
11.94
14.88
16.05
15.84
14.75
13.2
11.44
9.63
7.84
6.08
4.37
2.73
1.21
-0.13
-1.26
-2.24
-3.2
-4.34
-5.88
-7.99
-10.75
-14.1
-17.75
-21.16
-23.59
-24.25
-22.61
-18.59
-12.67
-5.71
1.26
7.4
12.2
15.5
17.42
18.13
17.82
16.63
14.75
12.36
9.74
7.18
4.94
3.22
2.06
1.36
0.93
0.48
-0.28
-1.55
-3.44
-5.99
-9.11
-12.6
-16.13
-19.19
-21.11
-21.29
-19.27
-15.06
-9.14
-2.36
4.31
10.11
14.6
17.66
19.34
19.71
18.85
16.93
14.27
11.36
8.71
6.67
5.39
4.7
4.34
4.04
3.61
2.97
2.06
0.84
-0.75
-2.75
-5.22
-8.24
-11.85
-15.96
-20.23
-23.99
-26.35
-26.47
-23.9
-18.81
-11.97
-4.53
2.46
8.27
12.64
15.63
17.37
17.93
17.3
15.6
13.08
10.24
7.59
5.55
4.22
3.45
2.9
2.31
1.59
0.85
0.26
-0.07
-0.28
-0.76
-2.01
-4.47
-8.2
-12.83
-17.55
-21.31
-23.16
-22.46
-19.13
-13.7
-7.04
-0.23
5.83
10.51
13.58
15.07
15.2
14.23
12.43
10.09
7.47
4.86
2.47
0.47
-1.08
-2.14
-2.76
-3.04
-3.14
-3.28
-3.68
-4.55
-6
-8.09
-10.8
-14.04
-17.58
-20.99
-23.65
-24.87
-24.02
-20.82
-15.41
-8.45
-0.89
6.15
11.77
15.42
17
16.85
15.52
13.59
11.5
9.47
7.53
5.66
3.87
2.23
0.83
-0.34
-1.36
-2.36
-3.43
-4.59
-5.81
-7.17
-8.95
-11.48
-14.95
-19.15
-23.3
-26.31
-27.07
-24.96
-20.06
-13.15
-5.34
2.27
8.95
14.34
18.3
20.73
21.5
20.62
18.33
15.16
11.85
9.04
7.1
5.98
5.37
4.88
4.24
3.39
2.34
1.15
-0.26
-1.97
-4.15
-6.93
-10.41
-14.55
-19.1
-23.51
-26.92
-28.41
-27.22
-23.16
-16.68
-8.8
-0.67
6.81
13.16
18.32
22.32
25.18
26.74
26.87
25.55
23.09
20.01
16.9
14.28
12.41
11.25
10.52
9.85
8.92
7.6
5.94
4.16
2.48
0.93
-0.64
-2.55
-5.17
-8.73
-13.22
-18.37
-23.6
-28.06
-30.83
-31.09
-28.42
-22.96
-15.41
-6.86
1.58
9.06
15.16
19.8
23.04
24.94
25.46
24.6
22.57
19.83
17.03
14.78
13.45
12.98
12.96
12.89
12.34
11.19
9.58
7.76
5.96
4.22
2.44
0.41
-2.06
-5.1
-8.73
-12.86
-17.23
-21.45
-24.98
-27.17
-27.42
-25.29
-20.72
-14.09
-6.17
2.04
9.56
15.66
19.94
22.28
22.81
21.75
19.41
16.27
12.93
10.01
7.95
6.92
6.65
6.7
6.6
6.1
5.21
4.1
2.96
1.88
0.76
-0.58
-2.38
-4.83
-8.08
-12.13
-16.82
-21.69
-25.94
-28.62
-28.85
-26.16
-20.7
-13.24
-4.9
3.17
10.13
15.52
19.21
21.2
21.52
20.23
17.58
14.07
10.4
7.33
5.34
4.5
4.46
4.65
4.56
3.94
2.83
1.51
0.17
-1.12
-2.51
-4.28
-6.69
-9.91
-13.94
-18.48
-23.02
-26.8
-28.97
-28.79
-25.89
-20.41
-12.99
-4.61
3.7
11.08
16.94
20.98
23.12
23.44
22.22
19.9
17.02
14.18
11.84
10.2
9.2
8.55
7.87
6.88
5.45
3.68
1.8
0.02
-1.58
-3.14
-4.95
-7.37
-10.65
-14.81
-19.51
-24.1
-27.73
-29.58
-29.04
-25.89
-20.33
-12.98
-4.66
3.69
11.28
17.54
22.15
25.1
26.51
26.57
25.52
23.6
21.14
18.5
16.08
14.16
12.84
11.96
11.17
10.12
8.6
6.6
4.34
2.07
-0.05
-2.01
-4.03
-6.41
-9.43
-13.27
-17.89
-22.95
-27.82
-31.73
-33.79
-33.3
-29.93
-23.82
-15.63
-6.34
2.95
11.28
18.03
22.89
25.88
27.14
26.91
25.44
23.03
20.04
16.96
14.25
12.35
11.44
11.39
11.77
12.03
11.68
10.51
8.63
6.34
3.99
1.78
-0.29
-2.35
-4.59
-7.16
-10.2
-13.75
-17.75
-21.92
-25.7
-28.32
-28.94
-26.96
-22.28
-15.38
-7.18
1.23
8.97
15.43
20.28
23.39
24.67
24.14
21.98
18.61
14.71
11.05
8.24
6.55
5.87
5.74
5.66
5.22
4.29
3
1.61
0.33
-0.78
-1.87
-3.16
-4.9
-7.25
-10.24
-13.74
-17.44
-20.79
-23.1
-23.67
-22.01
-18.1
-12.38
-5.69
1.04
7.07
11.91
15.34
17.27
17.71
16.75
14.65
11.81
8.79
6.09
4.03
2.65
1.77
1.15
0.59
-0.03
-0.7
-1.4
-2.17
-3.12
-4.45
-6.38
-9.08
-12.6
-16.79
-21.24
-25.33
-28.21
-29.08
-27.39
-23.06
-16.6
-8.95
-1.25
5.52
10.72
14.12
15.83
16.11
15.23
13.49
11.22
8.81
6.66
5.05
4
3.34
2.73
1.87
0.56
-1.2
-3.25
-5.38
-7.4
-9.26
-11.03
-12.97
-15.38
-18.44
-22.01
-25.51
-27.99
-28.46
-26.2
-21.2
-14.1
-6.06
1.72
8.34
13.37
16.83
18.9
19.81
19.69
18.61
16.72
14.25
11.51
8.84
6.51
4.63
3.2
2.12
1.2
0.27
-0.82
-2.15
-3.78
-5.76
-8.19
-11.18
-14.73
-18.64
-22.37
-25.14
-26.07
-24.53
-20.33
-13.89
-6.08
2
9.31
15.11
19.06
21.18
21.69
20.92
19.23
16.95
14.38
11.84
9.58
7.8
6.57
5.84
5.45
5.16
4.74
4.05
3.04
1.73
0.16
-1.71
-4.06
-7.11
-10.97
-15.47
-20.06
-23.83
-25.72
-24.95
-21.2
-14.89
-6.98
1.29
8.75
14.64
18.67
20.95
21.77
21.44
20.16
18.15
15.66
13.03
10.61
8.69
7.37
6.59
6.1
5.61
4.93
3.99
2.82
1.5
0.02
-1.73
-3.97
-6.93
-10.66
-14.85
-18.87
-21.8
-22.73
-21.07
-16.78
-10.4
-2.88
4.63
11.16
16.01
18.91
19.91
19.25
17.31
14.5
11.27
8.07
5.28
3.15
1.73
0.93
0.54
0.38
0.25
0.01
-0.48
-1.33
-2.68
-4.57
-7.04
-10.1
-13.66
-17.51
-21.23
-24.12
-25.39
-24.32
-20.59
-14.51
-6.94
0.97
8.1
13.66
17.31
19.05
19.11
17.86
15.71
13.15
10.62
8.45
6.74
5.35
4.04
2.65
1.17
-0.25
-1.43
-2.36
-3.2
-4.29
-5.97
-8.48
-11.84
-15.75
-19.69
-22.91
-24.65
-24.33
-21.67
-16.88
-10.52
-3.43
3.46
9.39
13.87
16.72
18.03
18.03
17.03
15.32
13.17
10.86
8.69
6.92
5.72
5.06
4.75
4.45
3.89
2.92
1.53
-0.22
-2.33
-4.9
-8.09
-11.93
-16.24
-20.5
-23.98
-25.82
-25.37
-22.39
-17.12
-10.23
-2.63
4.8
11.36
16.63
20.41
22.65
23.38
22.71
20.93
18.44
15.74
13.29
11.34
9.98
9.1
8.47
7.88
7.13
6.13
4.86
3.38
1.78
0.1
-1.77
-4.05
-7.07
-11.06
-15.9
-21.05
-25.62
-28.55
-28.98
-26.54
-21.5
-14.63
-6.88
0.82
7.85
13.91
18.89
22.73
25.33
26.51
26.14
24.32
21.42
18.07
14.98
12.72
11.55
11.36
11.76
12.21
12.28
11.76
10.68
9.21
7.55
5.73
3.69
1.29
-1.57
-4.93
-8.76
-12.99
-17.48
-21.94
-25.86
-28.52
-29.19
-27.41
-23.16
-17.03
-9.88
-2.61
4.13
10.02
14.9
18.64
20.99
21.7
20.72
18.4
15.44
12.66
10.7
9.78
9.61
9.68
9.53
8.93
7.99
6.9
5.84
4.8
3.66
2.25
0.46
-1.68
-4.15
-6.93
-10.04
-13.51
-17.2
-20.71
-23.41
-24.54
-23.56
-20.3
-15.13
-8.8
-2.27
3.64
8.45
12.04
14.46
15.77
15.92
14.82
12.58
9.6
6.57
4.25
3.11
3.16
3.94
4.76
5.01
4.46
3.25
1.79
0.41
-0.81
-2.1
-3.81
-6.21
-9.33
-12.97
-16.82
-20.53
-23.77
-26.13
-27.09
-26.16
-23
-17.71
-10.86
-3.38
3.72
9.66
14.02
16.79
18.11
18.21
17.25
15.47
13.15
10.62
8.31
6.54
5.48
5.07
5.05
5.06
4.76
3.98
2.79
1.43
0.17
-0.91
-1.97
-3.38
-5.56
-8.75
-12.87
-17.51
-21.98
-25.46
-27.2
-26.71
-23.86
-18.97
-12.69
-5.8
0.97
7.12
12.33
16.38
19.02
20.04
19.36
17.25
14.31
11.29
8.87
7.36
6.68
6.5
6.37
5.98
5.13
3.85
2.31
0.75
-0.59
-1.6
-2.38
-3.29
-4.78
-7.29
-10.93
-15.35
-19.81
-23.31
-24.91
-24.01
-20.52
-14.91
-8.01
-0.81
5.82
11.32
15.45
18.2
19.63
19.84
18.88
16.91
14.27
11.43
8.9
7.08
6.13
5.91
6.14
6.4
6.38
5.84
4.78
3.33
1.68
0.03
-1.59
-3.31
-5.39
-8.11
-11.59
-15.65
-19.8
-23.26
-25.23
-25.04
-22.41
-17.52
-11
-3.8
3.12
9.03
13.52
16.55
18.2
18.59
17.74
15.74
12.83
9.49
6.37
4
2.67
2.24
2.32
2.44
2.29
1.8
1.06
0.22
-0.7
-1.82
-3.33
-5.44
-8.16
-11.39
-14.8
-17.92
-20.25
-21.29
-20.71
-18.36
-14.39
-9.21
-3.39
2.41
7.61
11.7
14.36
15.41
14.89
13.04
10.31
7.29
4.58
2.57
1.4
0.91
0.79
0.74
0.51
0.03
-0.7
-1.65
-2.83
-4.32
-6.2
-8.55
-11.41
-14.72
-18.3
-21.75
-24.47
-25.73
-24.9
-21.66
-16.23
-9.36
-2.18
4.27
9.23
12.49
14.21
14.75
14.37
13.22
11.4
9.08
6.64
4.48
2.89
1.87
1.16
0.39
-0.72
-2.18
-3.78
-5.25
-6.43
-7.42
-8.53
-10.18
-12.63
-15.9
-19.56
-22.9
-25.06
-25.31
-23.32
-19.18
-13.45
-6.88
-0.24
5.84
10.89
14.62
16.84
17.55
16.91
15.31
13.25
11.21
9.53
8.3
7.44
6.76
6.09
5.37
4.54
3.57
2.46
1.16
-0.33
-2.06
-4.13
-6.72
-10.01
-14.05
-18.56
-22.94
-26.31
-27.76
-26.68
-22.9
-16.77
-9.06
-0.75
7.2
13.98
19
21.99
22.99
22.32
20.52
18.15
15.72
13.58
11.89
10.68
9.9
9.41
9.04
8.58
7.89
6.92
5.7
4.3
2.72
0.95
-1.12
-3.64
-6.7
-10.28
-14.22
-18.14
-21.42
-23.37
-23.35
-20.98
-16.41
-10.22
-3.35
3.26
8.88
13.11
15.8
16.99
16.79
15.39
13.1
10.38
7.71
5.52
4.09
3.41
3.28
3.4
3.45
3.21
2.6
1.66
0.52
-0.67
-1.87
-3.2
-4.94
-7.5
-11.15
-15.84
-20.99
-25.52
-28.19
-28.03
-24.68
-18.61
-10.89
-2.78
4.66
10.78
15.33
18.21
19.37
18.85
16.86
13.94
10.83
8.27
6.66
5.92
5.64
5.29
4.48
3.16
1.5
-0.27
-1.94
-3.49
-5.01
-6.69
-8.8
-11.56
-15.12
-19.33
-23.71
-27.39
-29.37
-28.8
-25.36
-19.34
-11.59
-3.23
4.7
11.45
16.62
20.09
21.86
22.02
20.7
18.22
15.1
11.95
9.34
7.53
6.46
5.77
5.09
4.18
3.04
1.84
0.76
-0.2
-1.22
-2.6
-4.62
-7.45
-11.09
-15.36
-19.91
-24.14
-27.27
-28.51
-27.31
-23.59
-17.8
-10.85
-3.74
2.73
8.17
12.58
16.12
18.82
20.56
21.12
20.4
18.6
16.29
14.13
12.63
11.87
11.53
11.07
10.08
8.45
6.4
4.3
2.39
0.68
-1.04
-3.09
-5.76
-9.23
-13.53
-18.42
-23.45
-27.82
-30.6
-30.87
-28.09
-22.37
-14.44
-5.46
3.39
11.17
17.46
22.18
25.48
27.5
28.26
27.8
26.21
23.83
21.15
18.75
17.02
16.11
15.81
15.68
15.27
14.23
12.46
10.12
7.47
4.8
2.27
-0.1
-2.45
-4.97
-7.88
-11.32
-15.4
-20.05
-24.99
-29.62
-33.07
-34.35
-32.64
-27.72
-20.04
-10.69
-1.07
7.6
14.56
19.66
23.1
25.2
26.13
25.93
24.58
22.24
19.31
16.38
14.01
12.52
11.88
11.77
11.72
11.33
10.39
9
7.35
5.6
3.79
1.8
-0.52
-3.25
-6.37
-9.83
-13.57
-17.51
-21.5
-25.09
-27.58
-28.14
-26.14
-21.46
-14.62
-6.58
1.55
8.91
14.97
19.51
22.45
23.69
23.23
21.19
18.08
14.62
11.65
9.8
9.19
9.5
10
9.95
8.91
6.91
4.43
2.1
0.37
-0.69
-1.45
-2.52
-4.51
-7.74
-12.2
-17.5
-22.95
-27.7
-30.87
-31.69
-29.68
-24.85
-17.77
-9.45
-1.05
6.43
12.37
16.58
19.18
20.38
20.35
19.23
17.2
14.67
12.19
10.35
9.47
9.49
9.96
10.27
9.9
8.71
6.93
5
3.33
2.04
0.94
-0.35
-2.24
-4.97
-8.65
-13.18
-18.3
-23.5
-28.04
-31
-31.55
-29.27
-24.28
-17.32
-9.44
-1.69
5.21
10.96
15.51
18.91
21.12
22.06
21.71
20.22
18.01
15.61
13.48
11.92
10.96
10.42
9.96
9.32
8.36
7.07
5.57
3.95
2.28
0.48
-1.57
-4.02
-7
-10.57
-14.69
-19.2
-23.75
-27.73
-30.37
-30.87
-28.7
-23.85
-16.91
-8.9
-0.96
6.05
11.77
16.21
19.61
22.08
23.5
23.66
22.51
20.33
17.7
15.32
13.63
12.71
12.29
11.92
11.28
10.24
8.87
7.33
5.7
4.01
2.27
0.49
-1.37
-3.36
-5.66
-8.48
-11.97
-16.11
-20.61
-24.87
-28.13
-29.64
-28.83
-25.55
-20.07
-13.04
-5.31
2.29
9.11
14.75
18.93
21.55
22.51
21.83
19.73
16.63
13.17
10
7.67
6.46
6.32
6.89
7.62
7.97
7.55
6.28
4.37
2.23
0.26
-1.38
-2.79
-4.31
-6.31
-9.05
-12.57
-16.67
-20.92
-24.68
-27.26
-27.99
-26.42
-22.47
-16.51
-9.25
-1.62
5.52
11.5
15.88
18.48
19.31
18.56
16.62
14
11.23
8.8
6.99
5.9
5.39
5.18
4.9
4.22
2.97
1.23
-0.72
-2.55
-4.04
-5.27
-6.59
-8.46
-11.29
-15.16
-19.69
-24.15
-27.56
-29.03
-27.93
-24.18
-18.2
-10.88
-3.24
3.8
9.59
13.86
16.49
17.5
16.91
14.84
11.69
8.1
4.88
2.65
1.69
1.74
2.2
2.45
2.09
1.1
-0.25
-1.61
-2.79
-3.81
-4.91
-6.41
-8.63
-11.68
-15.44
-19.55
-23.43
-26.33
-27.53
-26.54
-23.15
-17.66
-10.71
-3.21
3.95
10.05
14.62
17.49
18.64
18.22
16.51
13.92
11.01
8.35
6.39
5.31
4.93
4.8
4.42
3.46
1.83
-0.22
-2.35
-4.25
-5.88
-7.48
-9.47
-12.29
-16.16
-20.87
-25.71
-29.66
-31.65
-30.95
-27.34
-21.25
-13.58
-5.35
2.45
9.2
14.54
18.37
20.69
21.57
21.14
19.62
17.42
14.99
12.81
11.2
10.26
9.82
9.54
9.03
7.99
6.37
4.33
2.17
0.2
-1.47
-3.04
-4.91
-7.55
-11.31
-16.23
-21.96
-27.69
-32.39
-34.95
-34.52
-30.8
-24.16
-15.55
-6.19
2.81
10.68
17.09
21.99
25.44
27.48
28.09
27.38
25.61
23.21
20.68
18.37
16.49
15.09
14.08
13.32
12.66
11.94
10.95
9.56
7.7
5.42
2.85
0.15
-2.56
-5.29
-8.17
-11.39
-15.13
-19.38
-23.87
-28.03
-31.08
-32.23
-30.9
-26.98
-20.79
-13.07
-4.73
3.38
10.61
16.57
21.1
24.15
25.71
25.83
24.69
22.58
19.97
17.39
15.32
14.02
13.52
13.64
14.03
14.39
14.42
13.97
12.96
11.37
9.25
6.7
3.83
0.76
-2.43
-5.77
-9.37
-13.4
-17.94
-22.73
-27.2
-30.47
-31.61
-29.96
-25.43
-18.47
-10.02
-1.18
7.09
14.08
19.41
22.93
24.6
24.47
22.73
19.76
16.1
12.43
9.39
7.4
6.61
6.69
7.1
7.22
6.68
5.46
3.87
2.32
1.03
-0.05
-1.26
-2.97
-5.43
-8.67
-12.57
-16.88
-21.3
-25.34
-28.26
-29.23
-27.53
-22.96
-16
-7.69
0.69
8.04
13.74
17.66
19.94
20.79
20.35
18.78
16.34
13.45
10.62
8.31
6.75
5.91
5.59
5.45
5.24
4.77
3.96
2.82
1.37
-0.31
-2.19
-4.19
-6.36
-8.81
-11.67
-15.05
-18.86
-22.76
-26.17
-28.36
-28.58
-26.38
-21.72
-15.07
-7.3
0.55
7.56
13.15
17.13
19.64
20.85
20.9
19.9
17.95
15.44
12.92
11.01
10.14
10.29
10.97
11.47
11.16
9.74
7.45
4.78
2.24
0.07
-1.8
-3.66
-5.8
-8.38
-11.41
-14.82
-18.6
-22.69
-26.87
-30.55
-32.86
-32.81
-29.75
-23.66
-15.3
-5.99
2.82
10.06
15.28
18.64
20.58
21.44
21.39
20.41
18.61
16.29
14.03
12.34
11.48
11.38
11.61
11.71
11.37
10.52
9.18
7.48
5.46
3.19
0.79
-1.64
-4.04
-6.51
-9.27
-12.61
-16.7
-21.48
-26.55
-31.2
-34.51
-35.59
-33.81
-29.06
-21.81
-13.08
-4.08
4.08
10.77
15.82
19.37
21.65
22.78
22.77
21.64
19.57
16.96
14.35
12.18
10.76
10.07
9.91
9.94
9.82
9.25
8.09
6.36
4.24
1.98
-0.2
-2.21
-4.1
-6.01
-8.14
-10.67
-13.75
-17.42
-21.45
-25.34
-28.27
-29.3
-27.72
-23.4
-16.87
-9.22
-1.64
4.99
10.25
14.16
16.9
18.54
19.05
18.36
16.57
14.07
11.51
9.5
8.39
8.15
8.38
8.54
8.21
7.27
5.92
4.53
3.39
2.54
1.76
0.66
-1.12
-3.74
-7.17
-11.23
-15.72
-20.45
-25.11
-29.14
-31.75
-32.09
-29.6
-24.33
-17.04
-8.88
-1.06
5.59
10.75
14.46
16.93
18.2
18.26
17.08
14.83
11.96
9.08
6.77
5.34
4.76
4.7
4.74
4.52
3.88
2.84
1.51
0.1
-1.28
-2.58
-3.93
-5.5
-7.57
-10.35
-13.96
-18.31
-23.01
-27.39
-30.58
-31.72
-30.28
-26.21
-20.03
-12.65
-5.07
1.94
7.9
12.66
16.19
18.46
19.42
19.1
17.68
15.53
13.1
10.83
9.02
7.84
7.29
7.18
7.16
6.82
5.8
4.04
1.75
-0.64
-2.71
-4.36
-5.82
-7.6
-10.19
-13.88
-18.6
-23.93
-29.16
-33.39
-35.76
-35.54
-32.44
-26.66
-18.91
-10.25
-1.76
5.66
11.53
15.72
18.41
19.85
20.26
19.84
18.73
17.12
15.28
13.5
12.09
11.2
10.83
10.8
10.83
10.66
10.1
9.09
7.67
5.95
4.07
2.06
-0.17
-2.83
-6.19
-10.43
-15.5
-21.1
-26.65
-31.41
-34.6
-35.61
-34.05
-29.9
-23.49
-15.48
-6.66
2.12
10.16
16.96
22.22
25.8
27.65
27.87
26.7
24.51
21.84
19.21
17.08
15.65
14.89
14.5
14.09
13.35
12.11
10.47
8.67
6.98
5.49
4.09
2.53
0.58
-1.88
-4.83
-8.24
-12.11
-16.49
-21.26
-25.98
-29.79
-31.63
-30.59
-26.34
-19.32
-10.66
-1.7
6.41
13.01
17.95
21.35
23.38
24.07
23.43
21.62
18.98
16.13
13.67
11.98
11.15
10.91
10.91
10.79
10.38
9.62
8.55
7.26
5.82
4.32
2.77
1.15
-0.74
-3.17
-6.42
-10.61
-15.51
-20.5
-24.7
-27.17
-27.22
-24.59
-19.58
-12.86
-5.25
2.4
9.42
15.26
19.55
22.04
22.72
21.78
19.64
16.88
14.03
11.49
9.49
8.12
7.34
7.04
7.06
7.07
6.79
5.93
4.42
2.43
0.28
-1.71
-3.45
-5.15
-7.26
-10.2
-14.11
-18.61
-22.89
-25.95
-26.9
-25.32
-21.3
-15.44
-8.54
-1.42
5.3
11.27
16.26
20.2
22.97
24.43
24.49
23.23
20.94
18.17
15.56
13.65
12.76
12.83
13.44
13.97
13.81
12.68
10.63
8.07
5.5
3.27
1.36
-0.53
-2.79
-5.7
-9.31
-13.4
-17.66
-21.69
-25.14
-27.55
-28.43
-27.27
-23.8
-18.14
-10.87
-2.9
4.79
11.43
16.6
20.26
22.56
23.77
24.1
23.68
22.62
21.02
19.11
17.14
15.43
14.19
13.49
13.25
13.2
13.04
12.47
11.35
9.66
7.51
5.08
2.57
0.16
-2.06
-4.05
-5.9
-7.75
-9.83
-12.3
-15.27
-18.66
-22.22
-25.42
-27.6
-28.09
-26.37
-22.35
-16.35
-9.13
-1.58
5.45
11.34
15.79
18.72
20.22
20.44
19.6
18.01
16.05
14.12
12.5
11.38
10.77
10.54
10.51
10.52
10.45
10.24
9.85
9.25
8.4
7.24
5.75
3.91
1.82
-0.48
-2.91
-5.45
-8.09
-10.84
-13.71
-16.68
-19.66
-22.39
-24.49
-25.4
-24.6
-21.76
-16.96
-10.72
-3.87
2.7
8.27
12.46
15.22
16.66
17.03
16.54
15.41
13.85
12.06
10.23
8.54
7.13
6.11
5.51
5.29
5.26
5.14
4.63
3.56
1.94
-0.01
-2.06
-4.03
-5.82
-7.47
-9.06
-10.7
-12.51
-14.66
-17.28
-20.35
-23.53
-26.19
-27.47
-26.61
-23.25
-17.62
-10.47
-2.84
4.22
9.99
14.12
16.62
17.68
17.59
16.56
14.78
12.48
9.99
7.65
5.82
4.71
4.36
4.62
5.15
5.59
5.6
5
3.78
2.09
0.16
-1.76
-3.48
-4.98
-6.36
-7.77
-9.44
-11.51
-14.06
-17.02
-20.15
-23
-24.98
-25.47
-24.05
-20.66
-15.65
-9.71
-3.59
2.07
6.88
10.71
13.55
15.43
16.29
16.14
15.06
13.23
11.04
8.9
7.15
5.97
5.34
5.09
4.97
4.74
4.27
3.53
2.52
1.31
-0.04
-1.52
-3.14
-4.94
-6.97
-9.31
-11.98
-14.96
-18.09
-21.12
-23.66
-25.24
-25.42
-23.89
-20.57
-15.71
-9.84
-3.66
2.14
7.05
10.81
13.42
14.98
15.59
15.35
14.31
12.62
10.51
8.33
6.45
5.09
4.27
3.87
3.63
3.36
2.94
2.33
1.53
0.5
-0.81
-2.4
-4.23
-6.19
-8.19
-10.18
-12.27
-14.56
-17.08
-19.59
-21.62
-22.57
-21.85
-19.18
-14.66
-8.81
-2.4
3.71
8.81
12.45
14.48
15.02
14.38
12.92
10.98
8.86
6.8
4.99
3.54
2.46
1.64
0.92
0.1
-0.86
-1.89
-2.81
-3.51
-3.99
-4.5
-5.35
-6.8
-8.94
-11.62
-14.58
-17.5
-20.04
-21.81
-22.42
-21.51
-18.9
-14.67
-9.25
-3.28
2.51
7.5
11.27
13.63
14.58
14.2
12.66
10.25
7.36
4.42
1.83
-0.15
-1.47
-2.24
-2.67
-2.97
-3.29
-3.68
-4.12
-4.67
-5.43
-6.61
-8.43
-11.01
-14.29
-17.96
-21.49
-24.22
-25.58
-25.21
-23.09
-19.49
-14.85
-9.65
-4.26
0.99
5.81
9.87
12.8
14.28
14.21
12.75
10.34
7.58
5.01
3.01
1.65
0.84
0.36
0.01
-0.36
-0.81
-1.42
-2.25
-3.36
-4.83
-6.7
-9.06
-12.02
-15.61
-19.65
-23.67
-26.95
-28.65
-28.12
-25.16
-20.08
-13.67
-6.85
-0.43
5.09
9.52
12.85
15.09
16.22
16.18
15.01
12.95
10.39
7.86
5.75
4.27
3.35
2.75
2.2
1.54
0.77
-0.06
-0.92
-1.92
-3.26
-5.19
-7.86
-11.25
-15.15
-19.13
-22.62
-24.99
-25.59
-24.01
-20.16
-14.42
-7.51
-0.36
6.13
11.36
15.04
17.23
18.19
18.23
17.62
16.57
15.26
13.81
12.38
11.1
10.04
9.15
8.26
7.16
5.76
4.12
2.48
1.07
-0.05
-1.1
-2.54
-4.86
-8.36
-12.92
-17.93
-22.47
-25.51
-26.22
-24.23
-19.65
-13.05
-5.31
2.6
9.82
15.64
19.73
22
22.65
22.03
20.59
18.77
16.96
15.48
14.55
14.22
14.36
14.63
14.59
13.87
12.31
10
7.31
4.67
2.43
0.63
-0.92
-2.64
-4.99
-8.23
-12.26
-16.54
-20.25
-22.47
-22.56
-20.3
-15.96
-10.17
-3.66
2.97
9.28
14.97
19.75
23.34
25.5
26.14
25.44
23.77
21.69
19.68
18.08
17.02
16.49
16.29
16.21
16
15.43
14.3
12.49
10.08
7.25
4.33
1.63
-0.64
-2.5
-4.17
-5.97
-8.23
-11.15
-14.68
-18.53
-22.14
-24.83
-25.86
-24.68
-21.05
-15.24
-7.97
-0.24
6.92
12.75
16.94
19.61
21.13
21.89
22.14
21.99
21.51
20.85
20.21
19.79
19.67
19.71
19.65
19.26
18.47
17.43
16.41
15.65
15.16
14.75
14.03
12.64
10.43
7.47
4.07
0.63
-2.48
-5.07
-7.14
-8.91
-10.69
-12.83
-15.52
-18.69
-21.97
-24.74
-26.35
-26.25
-24.19
-20.25
-14.84
-8.53
-2.01
4.08
9.19
13.02
15.49
16.75
17.14
17.01
16.68
16.35
16.17
16.19
16.42
16.77
17.08
17.17
16.89
16.22
15.27
14.22
13.25
12.38
11.49
10.37
8.82
6.77
4.33
1.71
-0.83
-3.11
-5.05
-6.71
-8.24
-9.88
-11.87
-14.35
-17.22
-20.09
-22.3
-23.11
-22.04
-19.02
-14.49
-9.16
-3.8
1.03
5
8.01
10.07
11.19
11.44
10.98
10.05
9.01
8.13
7.57
7.34
7.36
7.48
7.63
7.81
8.02
8.26
8.47
8.51
8.19
7.35
5.91
3.92
1.54
-1
-3.46
-5.64
-7.39
-8.66
-9.52
-10.2
-10.98
-12.17
-13.9
-16.01
-17.99
-19.18
-18.95
-17.02
-13.56
-9.13
-4.48
-0.28
3.12
5.63
7.34
8.37
8.81
8.67
8.01
6.96
5.76
4.71
4
3.73
3.82
4.05
4.22
4.21
4.02
3.73
3.46
3.21
2.88
2.31
1.32
-0.15
-2.03
-4.11
-6.12
-7.81
-9.09
-9.99
-10.75
-11.68
-13.07
-15.08
-17.52
-19.97
-21.76
-22.24
-20.96
-17.92
-13.51
-8.39
-3.33
1.09
4.52
6.9
8.31
8.92
8.92
8.5
7.86
7.19
6.63
6.21
5.87
5.52
5.11
4.65
4.25
4.05
4.13
4.44
4.8
4.84
4.24
2.79
0.57
-2.1
-4.79
-7.09
-8.78
-9.93
-10.89
-12.05
-13.78
-16.23
-19.19
-22.15
-24.38
-25.13
-23.87
-20.52
-15.48
-9.56
-3.66
1.46
5.4
8.09
9.67
10.38
10.36
9.76
8.7
7.32
5.87
4.62
3.74
3.29
3.22
3.38
3.62
3.85
4.02
4.08
3.9
3.34
2.27
0.7
-1.25
-3.31
-5.22
-6.88
-8.35
-9.92
-11.88
-14.38
-17.32
-20.26
-22.59
-23.66
-22.99
-20.51
-16.54
-11.71
-6.76
-2.27
1.4
4.22
6.27
7.68
8.5
8.71
8.32
7.46
6.36
5.33
4.56
4.11
3.81
3.49
3
2.36
1.67
1.08
0.62
0.18
-0.41
-1.3
-2.54
-4.05
-5.74
-7.62
-9.8
-12.4
-15.4
-18.44
-20.92
-22.14
-21.56
-19.07
-15.01
-10.05
-4.94
-0.22
3.85
7.25
10.03
12.09
13.18
13.04
11.62
9.23
6.48
4.07
2.47
1.72
1.56
1.54
1.29
0.7
-0.16
-1.14
-2.16
-3.23
-4.4
-5.72
-7.23
-8.98
-11.1
-13.72
-16.84
-20.22
-23.28
-25.26
-25.4
-23.36
-19.28
-13.83
-7.94
-2.43
2.18
5.79
8.58
10.75
12.29
13.06
12.9
11.84
10.23
8.61
7.45
6.93
6.88
6.83
6.34
5.24
3.62
1.82
0.21
-1.01
-1.9
-2.74
-3.92
-5.81
-8.61
-12.35
-16.74
-21.26
-25.2
-27.85
-28.61
-27.17
-23.57
-18.13
-11.46
-4.24
2.77
8.95
13.81
17.12
18.84
19.13
18.24
16.46
14.16
11.75
9.64
8.15
7.41
7.27
7.33
7.23
6.7
5.76
4.59
3.42
2.33
1.23
-0.11
-2
-4.64
-8.15
-12.37
-16.91
-21.09
-24.09
-25.18
-23.9
-20.29
-14.78
-8.17
-1.27
5.21
10.8
15.24
18.43
20.35
21.04
20.63
19.33
17.5
15.53
13.82
12.61
11.9
11.49
11.04
10.25
9.02
7.47
5.85
4.39
3.16
