1.99
0.8
-0.35
-1.34
-2.19
-3.09
-4.27
-5.87
-7.88
-10.16
-12.49
-14.68
-16.51
-17.81
-18.39
-18.06
-16.74
-14.47
-11.44
-7.99
-4.51
-1.41
1.07
2.82
3.97
4.77
5.43
6.05
6.6
6.99
7.16
7.21
7.35
7.79
8.61
9.73
10.89
11.75
12.08
11.82
11.06
9.98
8.83
7.75
6.84
6.1
5.46
4.86
4.23
3.52
2.67
1.65
0.44
-0.93
-2.34
-3.63
-4.69
-5.47
-6.02
-6.52
-7.25
-8.47
-10.36
-12.83
-15.48
-17.71
-18.86
-18.45
-16.44
-13.2
-9.41
-5.78
-2.77
-0.52
1.16
2.62
4.18
5.97
7.87
9.61
10.89
11.57
11.77
11.78
11.91
12.26
12.7
12.93
12.75
12.19
11.59
11.29
11.43
11.83
12.01
11.47
10.01
7.82
5.4
3.31
1.97
1.45
1.55
1.84
1.89
1.39
0.27
-1.29
-2.95
-4.37
-5.42
-6.18
-6.93
-7.97
-9.42
-11.23
-13.21
-15.13
-16.75
-17.83
-18.14
-17.46
-15.68
-12.93
-9.66
-6.43
-3.73
-1.72
-0.21
1.14
2.65
4.37
6.1
7.56
8.54
8.99
9.05
8.94
8.93
9.13
9.58
10.19
10.85
11.46
11.94
12.28
12.43
12.38
12.05
11.39
10.39
9.13
7.81
6.61
5.6
4.72
3.8
2.73
1.48
0.13
-1.16
-2.31
-3.32
-4.23
-5.06
-5.83
-6.54
-7.27
-8.22
-9.62
-11.54
-13.87
-16.21
-18
-18.76
-18.19
-16.4
-13.76
-10.76
-7.82
-5.17
-2.82
-0.64
1.49
3.6
5.6
7.3
8.54
9.23
9.42
9.26
8.91
8.51
8.12
7.81
7.65
7.71
8.03
8.61
9.38
10.16
10.76
11.04
10.94
10.45
9.66
8.65
7.52
6.34
5.16
4
2.86
1.72
0.59
-0.52
-1.52
-2.38
-3.09
-3.75
-4.53
-5.6
-7.09
-9.08
-11.52
-14.18
-16.69
-18.57
-19.31
-18.67
-16.74
-14
-11.09
-8.56
-6.62
-5.11
-3.69
-2.12
-0.37
1.37
2.86
3.99
4.86
5.68
6.65
7.84
9.13
10.31
11.16
11.48
11.19
10.36
9.2
7.99
7.04
6.55
6.49
6.68
6.84
6.71
6.16
5.26
4.17
3.09
2.17
1.44
0.81
0.09
-0.83
-2.06
-3.56
-5.27
-7.02
-8.71
-10.27
-11.69
-13
-14.16
-15.08
-15.56
-15.37
-14.38
-12.69
-10.67
-8.8
-7.53
-7.05
-7.17
-7.49
-7.59
-7.27
-6.63
-5.93
-5.35
-4.83
-4.08
-2.73
-0.57
2.29
5.51
8.65
11.38
13.61
15.32
16.59
17.35
17.48
16.85
15.48
13.63
11.63
9.77
8.2
6.86
5.57
4.2
2.75
1.34
0.12
-0.87
-1.76
-2.84
-4.38
-6.52
-9.1
-11.72
-13.87
-15.05
-15.03
-13.88
-11.93
-9.65
-7.4
-5.39
-3.66
-2.14
-0.76
0.51
1.62
2.55
3.3
3.98
4.68
5.43
6.18
6.81
7.19
7.27
7.16
7.01
6.96
7.03
7.15
7.13
6.81
6.12
5.1
3.89
2.65
1.48
0.38
-0.65
-1.66
-2.72
-3.87
-5.2
-6.8
-8.72
-10.95
-13.35
-15.66
-17.53
-18.61
-18.68
-17.66
-15.69
-13.06
-10.13
-7.21
-4.48
-2.03
0.17
2.15
3.88
5.35
6.49
7.32
7.89
8.33
8.79
9.36
9.99
10.47
10.57
10.15
9.22
7.98
6.73
5.72
5.05
4.7
4.49
4.24
3.77
3
1.93
0.66
-0.69
-1.97
-3.08
-4.02
-4.87
-5.8
-6.95
-8.39
-10
-11.54
-12.7
-13.15
-12.69
-11.24
-8.9
-5.94
-2.71
0.38
2.95
4.74
5.61
5.63
4.97
3.89
2.7
1.71
1.16
1.2
1.81
2.78
3.81
4.6
5.01
5.1
5.07
5.13
5.37
5.67
5.86
5.72
5.17
4.25
3.08
1.84
0.6
-0.54
-1.5
-2.18
-2.57
-2.76
-3.01
-3.67
-5.02
-7.15
-9.84
-12.63
-14.88
-16.04
-15.74
-13.94
-10.92
-7.16
-3.27
0.23
3.01
4.93
6.06
6.57
6.65
6.46
6.12
5.71
5.35
5.16
5.22
5.61
6.33
7.3
8.31
9.13
9.5
9.29
8.57
7.53
6.41
5.42
4.59
3.89
3.23
2.58
1.95
1.35
0.8
0.31
-0.16
-0.67
-1.25
-2.02
-3.06
-4.49
-6.29
-8.33
-10.35
-12.01
-13.04
-13.24
-12.54
-11.03
-8.86
-6.27
-3.52
-0.88
1.44
3.28
4.58
5.3
5.52
5.35
4.95
4.48
4.15
4.14
4.55
5.4
6.52
7.63
8.44
8.72
8.46
7.83
7.05
6.33
5.78
5.32
4.84
4.17
3.25
2.08
0.79
-0.49
-1.65
-2.59
-3.33
-3.96
-4.61
-5.47
-6.69
-8.26
-9.99
-11.56
-12.5
-12.44
-11.17
-8.8
-5.72
-2.45
0.48
2.76
4.28
5.16
5.63
5.91
6.13
6.35
6.52
6.6
6.62
6.67
6.9
7.41
8.16
8.94
9.47
9.55
9.15
8.41
7.58
6.84
6.2
5.49
4.5
3.08
1.33
-0.52
-2.18
-3.55
-4.7
-5.88
-7.35
-9.2
-11.28
-13.26
-14.77
-15.53
-15.42
-14.49
-12.94
-10.99
-8.84
-6.65
-4.51
-2.42
-0.35
1.73
3.81
5.74
7.31
8.36
8.84
8.91
8.82
8.83
8.96
9.02
8.78
8.15
7.26
6.45
5.98
5.85
5.76
5.29
4.22
2.62
0.87
-0.65
-1.77
-2.64
-3.57
-4.86
-6.61
-8.72
-10.96
-13.15
-15.13
-16.73
-17.74
-17.86
-16.84
-14.63
-11.46
-7.78
-4.21
-1.26
0.78
1.95
2.55
2.94
3.4
4.02
4.7
5.27
5.68
5.96
6.24
6.59
6.97
7.22
7.19
6.85
6.28
5.7
5.26
4.98
4.76
4.39
3.74
2.78
1.6
0.36
-0.8
-1.86
-2.86
-3.92
-5.16
-6.66
-8.46
-10.49
-12.58
-14.42
-15.63
-15.87
-14.96
-12.99
-10.29
-7.33
-4.56
-2.22
-0.35
1.19
2.57
3.87
5.01
5.86
6.3
6.39
6.36
6.53
7.12
8.18
9.48
10.69
11.43
11.56
11.17
10.51
9.83
9.22
8.66
7.94
6.91
5.49
3.74
1.82
-0.11
-1.87
-3.3
-4.28
-4.83
-5.11
-5.43
-6.13
-7.49
-9.56
-12.09
-14.61
-16.59
-17.61
-17.52
-16.4
-14.5
-12.11
-9.49
-6.85
-4.28
-1.87
0.4
2.64
4.92
7.22
9.39
11.11
12.01
11.93
11
9.65
8.48
7.91
8.04
8.68
9.41
9.88
9.93
9.58
8.95
8.15
7.17
6.02
4.72
3.34
1.96
0.67
-0.49
-1.52
-2.42
-3.21
-3.94
-4.71
-5.67
-6.97
-8.68
-10.71
-12.86
-14.91
-16.63
-17.85
-18.45
-18.29
-17.28
-15.42
-12.84
-9.79
-6.61
-3.57
-0.83
1.6
3.73
5.59
7.14
8.33
9.16
9.71
10.16
10.67
11.32
12.14
12.97
13.63
13.92
13.76
13.16
12.31
11.47
10.79
10.33
9.97
9.49
8.77
7.81
6.7
5.62
4.64
3.7
2.7
1.52
0.19
-1.21
-2.59
-3.96
-5.48
-7.3
-9.53
-12.06
-14.6
-16.87
-18.58
-19.59
-19.82
-19.21
-17.72
-15.36
-12.24
-8.65
-4.98
-1.65
1.01
2.91
4.14
4.91
5.43
5.84
6.25
6.68
7.18
7.77
8.41
9.1
9.83
10.57
11.3
11.97
12.46
12.68
12.55
12.06
11.32
10.48
9.64
8.8
7.87
6.67
5.12
3.28
1.31
-0.59
-2.31
-3.78
-5.03
-6.12
-7.11
-8.07
-9.12
-10.36
-11.81
-13.41
-14.93
-16.02
-16.37
-15.73
-14.06
-11.56
-8.59
-5.55
-2.82
-0.66
0.84
1.7
2.08
2.23
2.42
2.87
3.74
4.97
6.39
7.7
8.62
9.05
9.04
8.86
8.76
8.86
9.12
9.35
9.32
8.91
8.1
7.02
5.84
4.71
3.77
3.11
2.71
2.54
2.47
2.36
2.05
1.38
0.31
-1.14
-2.84
-4.59
-6.2
-7.56
-8.74
-9.96
-11.4
-13.09
-14.75
-15.84
-15.8
-14.35
-11.59
-8.03
-4.35
-1.12
1.36
3.07
4.15
4.78
5.07
5.12
4.99
4.79
4.62
4.56
4.66
4.93
5.35
5.86
6.35
6.7
6.85
6.82
6.66
6.39
6.07
5.67
5.14
4.47
3.7
2.9
2.17
1.59
1.16
0.8
0.39
-0.18
-0.98
-2.04
-3.31
-4.74
-6.28
-7.84
-9.37
-10.8
-12.08
-13.12
-13.83
-14.07
-13.68
-12.57
-10.77
-8.47
-5.95
-3.47
-1.14
1.03
3.1
5
6.51
7.33
7.27
6.37
5.03
3.79
3.1
3.14
3.78
4.66
5.42
5.85
5.95
5.86
5.78
5.8
5.9
5.99
5.9
5.54
4.92
4.13
3.29
2.51
1.79
1.04
0.14
-0.96
-2.19
-3.41
-4.51
-5.47
-6.43
-7.59
-9.03
-10.68
-12.26
-13.41
-13.82
-13.39
-12.21
-10.5
-8.45
-6.16
-3.69
-1.1
1.44
3.68
5.35
6.29
6.56
6.4
6.09
5.81
5.61
5.45
5.28
5.19
5.29
5.71
6.42
7.29
8.1
8.6
8.67
8.23
7.38
6.27
5.09
4
3.11
2.37
1.64
0.72
-0.51
-2.05
-3.8
-5.53
-7.05
-8.2
-8.93
-9.33
-9.57
-9.88
-10.42
-11.25
-12.27
-13.23
-13.79
-13.65
-12.58
-10.53
-7.65
-4.36
-1.18
1.36
2.97
3.6
3.56
3.27
3.06
3.08
3.34
3.76
4.38
5.28
6.49
7.89
9.14
9.89
9.92
9.33
8.49
7.87
7.8
8.28
9
9.49
9.39
8.58
7.23
5.62
4.02
2.6
1.36
0.25
-0.75
-1.66
-2.46
-3.25
-4.19
-5.5
-7.29
-9.49
-11.78
-13.7
-14.79
-14.79
-13.65
-11.54
-8.77
-5.67
-2.57
0.24
2.54
4.16
5.05
5.28
5.03
4.52
4.02
3.74
3.81
4.31
5.16
6.2
7.18
7.91
8.35
8.57
8.75
9.03
9.37
9.6
9.46
8.73
7.35
5.42
3.2
0.93
-1.17
-2.98
-4.45
-5.59
-6.5
-7.32
-8.27
-9.56
-11.27
-13.3
-15.34
-16.96
-17.69
-17.23
-15.55
-12.88
-9.61
-6.25
-3.18
-0.67
1.2
2.48
3.29
3.79
4.11
4.31
4.44
4.5
4.51
4.58
4.78
5.2
5.77
6.32
6.62
6.54
6.09
5.48
4.95
4.64
4.46
4.21
3.67
2.8
1.71
0.59
-0.46
-1.44
-2.5
-3.81
-5.4
-7.25
-9.27
-11.37
-13.47
-15.45
-17.13
-18.2
-18.36
-17.4
-15.35
-12.48
-9.22
-6.08
-3.42
-1.36
0.18
1.43
2.55
3.63
4.61
5.41
6
6.45
6.9
7.44
8.06
8.67
9.14
9.36
9.3
8.97
8.42
7.7
6.84
5.85
4.75
3.55
2.3
1.06
-0.07
-1.02
-1.79
-2.49
-3.28
-4.35
-5.83
-7.72
-9.91
-12.2
-14.39
-16.27
-17.62
-18.27
-18.06
-16.95
-15.06
-12.66
-10.08
-7.58
-5.28
-3.2
-1.25
0.6
2.33
3.89
5.27
6.46
7.5
8.39
9.04
9.39
9.47
9.4
9.43
9.76
10.42
11.27
11.99
12.3
12.07
11.37
10.42
9.47
8.61
7.76
6.76
5.46
3.85
2.12
0.49
-0.81
-1.78
-2.52
-3.26
-4.22
-5.5
-7.11
-9.02
-11.19
-13.52
-15.85
-17.92
-19.34
-19.79
-19.1
-17.32
-14.69
-11.58
-8.28
-5.03
-1.95
0.87
3.38
5.53
7.33
8.74
9.75
10.32
10.45
10.21
9.78
9.38
9.24
9.44
9.89
10.42
10.78
10.82
10.53
9.94
9.15
8.22
7.22
6.23
5.37
4.79
4.54
4.62
4.84
4.92
4.57
3.56
1.91
-0.18
-2.35
-4.24
-5.7
-6.82
-7.88
-9.17
-10.87
-12.93
-15.11
-17.12
-18.62
-19.37
-19.18
-17.96
-15.74
-12.73
-9.28
-5.87
-2.85
-0.44
1.42
2.94
4.32
5.69
6.98
8.05
8.74
8.99
8.87
8.58
8.38
8.47
8.97
9.85
10.94
12.02
12.86
13.32
13.35
13
12.32
11.39
10.25
8.95
7.57
6.27
5.22
4.5
4.08
3.81
3.43
2.71
1.54
-0.04
-1.78
-3.4
-4.65
-5.46
-5.97
-6.47
-7.25
-8.54
-10.37
-12.63
-15.11
-17.51
-19.46
-20.59
-20.55
-19.17
-16.48
-12.81
-8.64
-4.54
-0.93
1.96
4.09
5.58
6.66
7.5
8.2
8.75
9.12
9.29
9.34
9.43
9.74
10.33
11.12
11.85
12.29
12.3
11.98
11.56
11.28
11.25
11.38
11.46
11.19
10.41
9.11
7.44
5.69
4.09
2.79
1.79
1.04
0.43
-0.14
-0.72
-1.39
-2.16
-3.08
-4.13
-5.32
-6.71
-8.38
-10.4
-12.75
-15.24
-17.47
-19.01
-19.49
-18.83
-17.17
-14.84
-12.16
-9.38
-6.63
-3.99
-1.49
0.85
3.01
5.03
6.88
8.52
9.84
10.69
11.02
10.86
10.42
9.98
9.79
9.94
10.36
10.87
11.29
11.54
11.61
11.58
11.49
11.35
11.15
10.83
10.35
9.67
8.8
7.74
6.56
5.28
3.93
2.47
0.83
-1
-2.96
-4.79
-6.21
-7.03
-7.35
-7.51
-7.93
-8.93
-10.51
-12.43
-14.33
-15.9
-16.99
-17.52
-17.45
-16.74
-15.31
-13.22
-10.66
-7.92
-5.25
-2.85
-0.75
1.04
2.51
3.62
4.36
4.74
4.9
4.99
5.1
5.35
5.75
6.27
6.91
7.6
8.25
8.74
8.99
9
8.85
8.62
8.37
8.04
7.59
7.05
6.54
6.23
6.14
6.15
6.02
5.47
4.41
2.95
1.32
-0.27
-1.71
-2.99
-4.11
-5.04
-5.72
-6.19
-6.66
-7.43
-8.77
-10.6
-12.55
-14
-14.46
-13.76
-12.05
-9.7
-7.09
-4.5
-2.03
0.24
2.23
3.81
4.88
5.45
5.63
5.64
5.7
5.92
6.33
6.83
7.3
7.65
7.85
7.95
8.01
8.09
8.14
8.04
7.7
7.05
6.1
4.95
3.76
2.66
1.76
1.08
0.49
-0.24
-1.33
-2.89
-4.78
-6.63
-8.05
-8.76
-8.89
-8.87
-9.26
-10.47
-12.5
-14.89
-16.92
-17.89
-17.42
-15.53
-12.64
-9.35
-6.19
-3.49
-1.32
0.39
1.72
2.74
3.47
3.96
4.32
4.71
5.25
6
6.91
7.86
8.67
9.23
9.47
9.42
9.15
8.76
8.31
7.77
7.14
6.46
5.83
5.36
5.11
4.99
4.72
4.04
2.78
1.07
-0.81
-2.49
-3.79
-4.77
-5.61
-6.53
-7.61
-8.89
-10.4
-12.23
-14.41
-16.85
-19.17
-20.82
-21.31
-20.34
-18.01
-14.68
-10.9
-7.1
-3.56
-0.43
2.15
3.98
4.89
4.75
3.69
2.03
0.27
-1.08
-1.73
-1.61
-0.89
0.19
1.4
2.57
3.6
4.37
4.76
4.69
4.1
3.08
1.89
0.84
0.26
0.26
0.69
1.2
1.35
0.85
-0.31
-1.85
-3.41
-4.68
-5.59
-6.31
-7.14
-8.32
-9.96
-11.97
-14.03
-15.69
-16.48
-16.09
-14.47
-11.93
-8.93
-5.95
-3.21
-0.66
1.84
4.31
6.61
8.4
9.42
9.63
9.26
8.66
8.17
7.96
8.04
8.35
8.83
9.48
10.26
11.06
11.59
11.61
10.95
9.72
8.22
6.81
5.8
5.27
5.08
4.94
4.55
3.77
2.63
1.32
0.01
-1.16
-2.19
-3.24
-4.44
-5.95
-7.76
-9.74
-11.68
-13.41
-14.81
-15.83
-16.44
-16.53
-15.95
-14.52
-12.24
-9.27
-5.95
-2.65
0.33
2.82
4.74
6.09
6.9
7.31
7.53
7.83
8.42
9.34
10.4
11.32
11.87
11.97
11.79
11.58
11.58
11.88
12.38
12.85
13.04
12.73
11.83
10.39
8.56
6.61
4.79
3.31
2.23
1.5
0.94
0.34
-0.49
-1.62
-3.01
-4.45
-5.72
-6.63
-7.12
-7.35
-7.67
-8.47
-9.99
-12.23
-14.84
-17.2
-18.71
-18.91
-17.71
-15.33
-12.16
-8.66
-5.19
-1.98
0.84
3.19
5.02
6.34
7.2
7.76
8.17
8.56
8.95
9.33
9.57
9.62
9.48
9.25
9.08
9.07
9.32
9.76
10.24
10.53
10.4
9.75
8.62
7.24
5.9
4.95
4.5
4.54
4.84
5.07
4.99
4.51
3.68
2.67
1.73
0.98
0.42
-0.08
-0.77
-1.9
-3.66
-6.02
-8.79
-11.51
-13.7
-14.88
-14.82
-13.48
-11.11
-8.13
-4.95
-1.96
0.59
2.56
3.89
4.67
4.99
5.08
5.14
5.33
5.68
6.1
6.46
6.73
7.06
7.65
8.64
10
11.44
12.53
12.93
12.49
11.34
9.78
8.12
6.59
5.33
4.33
3.55
2.95
2.49
2.12
1.77
1.31
0.64
-0.28
-1.44
-2.76
-4.14
-5.54
-7.01
-8.56
-10.15
-11.55
-12.43
-12.49
-11.58
-9.83
-7.56
-5.21
-3.14
-1.54
-0.36
0.56
1.43
2.49
3.77
5.14
6.35
7.11
7.29
6.97
6.49
6.24
6.49
7.3
8.43
9.53
10.27
10.45
10.08
9.28
8.23
7.08
5.94
4.84
3.76
2.65
1.45
0.14
-1.29
-2.73
-4.05
-5.11
-5.86
-6.36
-6.79
-7.44
-8.56
-10.29
-12.59
-15.14
-17.45
-18.95
-19.18
-17.97
-15.55
-12.37
-8.9
-5.53
-2.4
0.44
2.94
4.95
6.24
6.69
6.35
5.55
4.72
4.26
4.39
5.08
6.2
7.49
8.7
9.56
9.9
9.65
8.86
7.76
6.62
5.63
4.86
4.25
3.66
2.93
2.05
1.06
0.04
-0.99
-2.06
-3.18
-4.32
-5.39
-6.28
-7.01
-7.72
-8.7
-10.19
-12.33
-14.94
-17.56
-19.62
-20.56
-20.1
-18.28
-15.42
-11.97
-8.41
-5.13
-2.4
-0.34
1.12
2.13
2.94
3.77
4.77
5.94
7.14
8.24
9.1
9.71
10.15
10.47
10.71
10.84
10.84
10.77
10.73
10.77
10.85
10.8
10.44
9.66
8.48
7.13
5.85
4.78
3.87
2.94
1.79
0.34
-1.28
-2.8
-4.01
-4.91
-5.65
-6.55
-7.88
-9.72
-11.94
-14.21
-16.17
-17.46
-17.92
-17.5
-16.3
-14.52
-12.37
-10.05
-7.71
-5.47
-3.43
-1.62
-0.01
1.5
2.93
4.29
5.48
6.45
7.16
7.69
8.17
8.75
9.4
9.98
10.3
10.21
9.73
9.01
8.28
7.69
7.25
6.83
6.29
5.51
4.59
3.74
3.23
3.2
3.55
3.95
3.97
3.33
2.01
0.31
-1.41
-2.86
-4
-5.01
-6.17
-7.69
-9.61
-11.82
-14.11
-16.25
-17.91
-18.79
-18.56
-17.09
-14.52
-11.22
-7.77
-4.69
-2.33
-0.73
0.32
1.13
1.93
2.89
4.02
5.19
6.26
7.04
7.44
7.47
7.27
7.06
7.05
7.32
7.85
8.53
9.25
9.86
10.25
10.3
9.95
9.21
8.17
6.99
5.86
4.95
4.35
4.09
4.04
3.98
3.59
2.63
1.01
-1.07
-3.23
-5.05
-6.3
-7.04
-7.54
-8.08
-8.84
-9.85
-11.09
-12.52
-14.06
-15.45
-16.19
-15.72
-13.72
-10.33
-6.23
-2.3
0.69
2.47
3.26
3.54
3.73
4.04
4.39
4.61
4.62
4.46
4.29
4.23
4.28
4.38
4.41
4.41
4.49
4.86
5.57
6.51
7.33
7.63
7.19
6.15
4.89
3.89
3.47
3.54
3.74
3.64
2.97
1.77
0.32
-1.03
-2.09
-2.85
-3.48
-4.15
-4.93
-5.78
-6.64
-7.52
-8.51
-9.76
-11.3
-13
-14.51
-15.4
-15.36
-14.28
-12.39
-10.06
-7.67
-5.44
-3.42
-1.53
0.29
1.92
3.19
3.88
3.97
3.68
3.42
3.57
4.31
5.52
6.9
8.12
8.98
9.49
9.75
9.92
10.04
10.04
9.76
9.1
8.06
6.77
5.4
4.12
3.03
2.08
1.22
0.36
-0.51
-1.33
-2.06
-2.68
-3.28
-3.98
-4.91
-6.14
-7.64
-9.33
-11.17
-13.06
-14.87
-16.37
-17.25
-17.22
-16.1
-13.97
-11.16
-8.16
-5.4
-3.17
-1.48
-0.17
0.97
2.11
3.31
4.49
5.55
6.37
6.93
7.27
7.45
7.5
7.44
7.26
6.98
6.68
6.44
6.34
6.36
6.47
6.55
6.51
6.3
5.92
5.38
4.64
3.69
2.49
1.13
-0.24
-1.41
-2.21
-2.6
-2.71
-2.77
-3.05
-3.74
-4.84
-6.26
-7.77
-9.18
-10.27
-10.91
-10.97
-10.33
-8.97
-6.97
-4.54
-2
0.32
2.13
3.37
4.09
4.54
4.94
5.41
5.92
6.32
6.5
6.44
6.3
6.33
6.7
7.42
8.23
8.79
8.82
8.28
7.39
6.5
5.89
5.58
5.39
5.04
4.33
3.26
2.03
0.88
-0
-0.58
-0.92
-1.21
-1.63
-2.37
-3.57
-5.29
-7.41
-9.69
-11.78
-13.4
-14.34
-14.52
-13.96
-12.69
-10.77
-8.3
-5.48
-2.62
-0
2.12
3.65
4.6
5.07
5.19
5.13
5.06
5.17
5.51
6.01
6.5
6.79
6.81
6.62
6.46
6.5
6.81
7.23
7.47
7.28
6.57
5.43
4.05
2.57
1.06
-0.52
-2.19
-3.82
-5.17
-6.03
-6.43
-6.65
-7.13
-8.23
-9.98
-12.14
-14.27
-15.98
-17.12
-17.72
-17.94
-17.78
-17.18
-16.03
-14.29
-12.07
-9.58
-7.08
-4.71
-2.55
-0.61
1.07
2.47
3.57
4.38
5
5.58
6.24
7.07
8.03
9.03
9.9
10.53
10.84
10.9
10.79
10.65
10.51
10.3
9.84
8.96
7.57
5.67
3.46
1.17
-0.98
-2.82
-4.35
-5.63
-6.83
-8.17
-9.83
-11.93
-14.41
-16.99
-19.19
-20.49
-20.47
-18.96
-16.14
-12.46
-8.5
-4.79
-1.71
0.66
2.38
3.66
4.69
5.6
6.47
7.27
7.98
8.53
8.9
9.1
9.17
9.13
9.04
8.96
8.95
9.1
9.5
10.15
10.9
11.48
11.54
10.81
9.3
7.22
4.92
2.7
0.71
-1.09
-2.84
-4.6
-6.38
-8.05
-9.57
-10.94
-12.27
-13.66
-15.11
-16.47
-17.46
-17.82
-17.38
-16.16
-14.34
-12.19
-9.94
-7.67
-5.35
-2.9
-0.32
2.27
4.6
6.4
7.53
8.03
8.15
8.18
8.39
8.86
9.52
10.16
10.53
10.5
10.06
9.39
8.73
8.28
8.13
8.19
8.27
8.19
7.82
7.17
6.37
5.49
4.61
3.72
2.73
1.57
0.24
-1.21
-2.67
-4.04
-5.24
-6.36
-7.52
-8.94
-10.74
-12.88
-15.17
-17.25
-18.76
-19.38
-18.96
-17.48
-15.13
-12.15
-8.85
-5.54
-2.44
0.34
2.79
4.96
6.85
8.36
9.42
9.96
10.07
10.02
10.11
10.53
11.25
12.05
12.61
12.71
12.34
11.68
10.99
10.42
9.97
9.51
8.88
8.04
7.12
6.35
5.97
6.05
6.37
6.54
6.13
4.88
2.9
0.6
-1.5
-3.01
-3.88
-4.43
-5.07
-6.16
-7.8
-9.84
-11.99
-14.03
-15.79
-17.12
-17.8
-17.52
-16.07
-13.54
-10.3
-6.96
-4.11
-2.07
-0.77
0.11
1
2.21
3.82
5.69
7.56
9.13
10.15
10.51
10.26
9.64
8.98
8.6
8.65
9.12
9.85
10.62
11.22
11.44
11.17
10.31
8.87
7.01
5.01
3.21
1.9
1.2
1.01
1.12
1.26
1.31
1.24
1.04
0.71
0.16
-0.68
-1.91
-3.48
-5.35
-7.4
-9.54
-11.68
-13.65
-15.21
-16.11
-16.18
-15.38
-13.84
-11.77
-9.39
-6.84
-4.22
-1.63
0.82
3.02
4.87
6.28
7.22
7.66
7.63
7.29
6.88
6.75
7.14
8.12
9.52
10.97
12.1
12.65
12.63
12.19
11.51
10.7
9.75
8.54
7.05
5.38
3.74
2.37
1.4
0.77
0.31
-0.18
-0.86
-1.73
-2.72
-3.73
-4.68
-5.55
-6.37
-7.23
-8.22
-9.43
-10.93
-12.67
-14.48
-16.09
-17.13
-17.28
-16.35
-14.34
-11.44
-8.02
-4.46
-1.14
1.68
3.87
5.46
6.55
7.25
7.68
7.88
7.91
7.81
7.68
7.61
7.73
8.07
8.59
9.16
9.63
9.86
9.79
9.43
8.84
8.15
7.51
7.09
6.99
7.17
7.49
7.68
7.52
6.91
5.92
4.74
3.57
2.54
1.66
0.86
0.1
-0.56
-1.02
-1.23
-1.32
-1.54
-2.19
-3.4
-5.09
-6.89
-8.29
-8.88
-8.41
-6.96
-4.78
-2.2
0.43
2.85
4.86
6.33
7.24
7.68
7.82
7.83
7.78
7.57
7.05
6.12
4.87
3.56
2.53
2.04
2.16
2.79
3.73
4.85
6.06
7.24
8.24
8.85
8.85
8.13
6.78
4.99
3.06
1.27
-0.17
-1.17
-1.74
-2.02
-2.24
-2.61
-3.23
-4.1
-5.13
-6.24
-7.41
-8.68
-10
-11.18
-11.88
-11.74
-10.53
-8.3
-5.35
-2.15
0.77
3.03
4.41
4.91
4.72
4.2
3.73
3.56
3.74
4.11
4.39
4.43
4.25
4.03
4.03
4.37
4.99
5.67
6.22
6.51
6.51
6.24
5.72
4.99
4.11
3.18
2.31
1.49
0.59
-0.59
-2.17
-4.06
-6.02
-7.79
-9.22
-10.42
-11.68
-13.31
-15.46
-17.93
-20.22
-21.66
-21.71
-20.12
-17.09
-13.24
-9.31
-5.94
-3.44
-1.75
-0.54
0.57
1.78
3.09
4.35
5.33
5.93
6.18
6.22
6.14
5.98
5.72
5.27
4.54
3.6
2.56
1.66
1.09
0.99
1.29
1.79
2.19
2.2
1.7
0.68
-0.71
-2.29
-3.89
-5.4
-6.71
-7.78
-8.62
-9.34
-10.16
-11.27
-12.8
-14.6
-16.35
-17.56
-17.86
-17.11
-15.46
-13.22
-10.68
-8.04
-5.4
-2.8
-0.38
1.68
3.22
4.21
4.79
5.17
5.52
5.89
6.23
6.44
6.48
6.44
6.44
6.57
6.84
7.14
7.32
7.27
6.97
6.48
5.89
5.31
4.8
4.28
3.63
2.68
1.39
-0.13
-1.67
-2.96
-3.93
-4.75
-5.68
-6.98
-8.71
-10.74
-12.83
-14.79
-16.48
-17.79
-18.55
-18.48
-17.31
-15
-11.79
-8.22
-4.85
-2.05
0.15
1.96
3.61
5.13
6.33
6.95
6.84
6.11
5.07
4.11
3.5
3.39
3.77
4.56
5.65
6.86
7.99
8.8
9.13
8.92
8.27
7.35
6.29
5.14
3.87
2.43
0.86
-0.69
-2.04
-3.04
-3.71
-4.21
-4.81
-5.71
-7.03
-8.71
-10.54
-12.33
-13.95
-15.37
-16.58
-17.51
-18
-17.76
-16.53
-14.18
-10.81
-6.75
-2.46
1.52
4.8
7.17
8.64
9.39
9.7
9.86
10.06
10.39
10.8
11.14
11.23
10.96
10.3
9.38
8.4
7.58
7.08
6.93
7.03
7.18
7.16
6.84
6.21
5.36
4.45
3.57
2.78
2.1
1.48
0.87
0.22
-0.49
-1.22
-1.9
-2.48
-2.97
-3.55
-4.47
-5.99
-8.22
-10.95
-13.71
-15.89
-16.93
-16.54
-14.81
-12.16
-9.18
-6.4
-4.12
-2.36
-0.92
0.44
1.82
3.21
4.43
5.38
6
6.42
6.75
7.11
7.54
8.03
8.54
8.98
9.3
9.42
9.32
9.06
8.78
8.59
8.51
8.43
8.15
7.49
6.45
5.16
3.86
2.73
1.9
1.35
0.95
0.55
0.01
-0.77
-1.82
-3.06
-4.36
-5.58
-6.65
-7.68
-8.89
-10.53
-12.69
-15.12
-17.28
-18.51
-18.3
-16.52
-13.53
-9.94
-6.38
-3.26
-0.65
1.55
3.43
4.98
6.06
6.56
6.54
6.26
6.05
6.21
6.87
7.86
8.96
9.84
10.26
10.13
9.52
8.63
7.72
6.96
6.46
6.16
5.97
5.77
5.5
5.16
4.71
4.04
3.03
1.67
0.1
-1.39
-2.54
-3.19
-3.4
-3.41
-3.46
-3.76
-4.38
-5.32
-6.58
-8.08
-9.71
-11.19
-12.18
-12.28
-11.32
-9.35
-6.72
-3.89
-1.26
0.99
2.84
4.38
5.72
6.85
7.68
8.08
8
7.53
6.9
6.35
6.08
6.14
6.43
6.82
7.19
7.47
7.67
7.83
7.95
7.95
7.67
7.04
6.07
4.95
3.93
3.18
2.75
2.53
2.34
2.02
1.52
0.82
-0.03
-1.06
-2.28
-3.77
-5.49
-7.36
-9.18
-10.73
-11.79
-12.13
-11.58
-10.14
-7.99
-5.49
-3.03
-0.81
1.16
3.05
4.99
6.92
8.51
9.44
9.49
8.77
7.68
6.71
6.2
6.21
6.55
6.94
7.22
7.39
7.59
7.89
8.23
8.38
8.11
7.29
6.03
4.56
3.12
1.81
0.58
-0.73
-2.16
-3.59
-4.8
-5.68
-6.34
-7.12
-8.48
-10.61
-13.33
-16.06
-18.05
-18.72
-17.87
-15.71
-12.74
-9.47
-6.33
-3.58
-1.38
0.21
1.21
1.69
1.87
2.01
2.34
2.98
3.88
4.92
5.93
6.79
7.42
7.75
7.8
7.6
7.3
7.07
7
6.98
6.77
6.06
4.73
2.92
0.94
-0.85
-2.24
-3.28
-4.14
-4.99
-5.89
-6.81
-7.77
-8.87
-10.31
-12.18
-14.38
-16.55
-18.23
-19.02
-18.77
-17.56
-15.58
-13.08
-10.32
-7.54
-4.96
-2.78
-1.07
0.2
1.19
2.04
2.81
3.49
4.03
4.44
4.85
5.45
6.37
7.58
8.81
9.7
9.96
9.55
8.65
7.59
6.69
6.04
5.61
5.21
4.71
4.07
3.33
2.58
1.81
0.94
-0.13
-1.45
-2.93
-4.4
-5.68
-6.75
-7.79
-9.13
-11.08
-13.73
-16.75
-19.54
-21.31
-21.52
-20.02
-17.14
-13.5
-9.69
-6.08
-2.79
0.28
3.17
5.79
7.88
9.24
9.78
9.67
9.26
8.92
8.86
9.07
9.4
9.64
9.72
9.75
9.9
10.26
10.76
11.2
11.35
11.05
10.33
9.29
8.04
6.65
5.11
3.43
1.65
-0.15
-1.78
-3.12
-4.11
-4.84
-5.49
-6.27
-7.36
-8.81
-10.6
-12.6
-14.68
-16.68
-18.42
-19.67
-20.12
-19.44
-17.53
-14.61
-11.16
-7.82
-5.09
-3.07
-1.49
0.05
1.9
4.04
6.2
7.99
9.18
9.81
10.12
10.34
10.6
10.9
11.18
11.54
12.09
12.9
13.89
14.72
14.98
14.36
12.82
10.59
8.07
5.69
3.8
2.62
2.17
2.32
2.74
3.01
2.74
1.73
0.07
-1.91
-3.85
-5.49
-6.77
-7.8
-8.79
-9.92
-11.33
-13.06
-14.99
-16.87
-18.35
-19.12
-18.99
-17.97
-16.2
-13.86
-11.11
-8.07
-4.84
-1.6
1.4
3.87
5.63
6.67
7.16
7.39
7.63
8.05
8.61
9.12
9.3
8.91
7.9
6.44
4.93
3.83
3.51
4.04
5.17
6.43
7.37
7.73
7.56
7.11
6.68
6.37
6.04
5.47
4.44
2.97
1.26
-0.38
-1.73
-2.74
-3.55
-4.39
-5.44
-6.83
-8.56
-10.52
-12.46
-14.01
-14.71
-14.19
-12.29
-9.2
-5.42
-1.62
1.57
3.77
4.95
5.35
5.3
5.16
5.06
5.03
4.95
4.75
4.46
4.17
4.04
4.12
4.4
4.81
5.28
5.78
6.3
6.77
7.02
6.84
6.15
5.06
3.89
3.02
2.65
2.66
2.73
2.47
1.71
0.56
-0.7
-1.83
-2.75
-3.58
-4.49
-5.6
-6.91
-8.31
-9.67
-10.82
-11.6
-11.77
-11.06
-9.29
-6.46
-2.9
0.74
3.76
5.6
6.12
5.6
4.61
3.76
3.43
3.72
4.4
5.2
5.84
6.23
6.39
6.4
6.31
6.16
5.97
5.79
5.65
5.62
5.7
5.87
6.02
5.98
5.56
4.68
3.39
1.93
0.62
-0.3
-0.83
-1.19
-1.77
-2.89
-4.65
-6.94
-9.46
-11.89
-13.95
-15.41
-16.07
-15.77
-14.46
-12.2
-9.26
-6.01
-2.81
0.08
2.51
4.48
6.02
7.2
8.07
8.67
9.05
9.26
9.41
9.59
9.82
10.07
10.24
10.22
10.03
9.73
9.44
9.24
9.08
8.84
8.36
7.52
6.32
4.85
3.29
1.85
0.65
-0.26
-0.96
-1.6
-2.37
-3.37
-4.67
-6.25
-8.04
-9.88
-11.53
-12.61
-12.72
-11.64
-9.41
-6.41
-3.31
-0.73
0.94
1.75
2.02
2.17
2.48
2.97
3.52
3.97
4.28
4.53
4.86
5.39
6.11
6.84
7.41
7.64
7.48
7.02
6.43
5.92
5.62
5.52
5.43
5.07
4.2
2.74
0.88
-1.01
-2.51
-3.38
-3.68
-3.75
-4.03
-4.91
-6.51
-8.66
-11.03
-13.19
-14.73
-15.33
-14.8
-13.1
-10.36
-6.94
-3.23
0.29
3.27
5.49
6.93
7.72
8.05
8.08
7.89
7.57
7.15
6.72
6.36
6.13
6.08
6.19
6.43
6.71
6.93
7.03
6.92
6.59
6.07
5.41
4.64
3.72
2.57
1.17
-0.42
-2
-3.37
-4.42
-5.3
-6.3
-7.7
-9.58
-11.69
-13.57
-14.71
-14.79
-13.86
-12.19
-10.14
-8.01
-5.91
-3.86
-1.85
0.08
1.8
3.23
4.32
5.07
5.57
5.9
6.13
6.31
6.51
6.73
6.94
6.97
6.67
5.99
5.06
4.18
3.65
3.62
3.91
4.15
3.93
3.02
1.5
-0.29
-1.98
-3.33
-4.35
-5.29
-6.42
-7.93
-9.77
-11.76
-13.62
-15.11
-16.05
-16.39
-16.11
-15.25
-13.85
-11.92
-9.52
-6.7
-3.59
-0.39
2.64
5.22
7.11
8.18
8.53
8.38
8.08
7.88
7.95
8.24
8.63
8.98
9.17
9.18
9.01
8.69
8.25
7.7
7
6.07
4.84
3.23
1.31
-0.71
-2.56
-4.01
-4.99
-5.64
-6.22
-6.98
-8.07
-9.45
-10.97
-12.5
-13.91
-15.14
-16.05
-16.44
-16.07
-14.73
-12.41
-9.35
-5.95
-2.64
0.24
2.5
4.15
5.26
5.99
6.5
6.95
7.48
8.18
9.05
9.95
10.65
10.95
10.78
10.22
9.46
8.75
8.24
7.94
7.71
7.38
6.8
5.93
4.85
3.72
2.67
1.79
1.04
0.32
-0.53
-1.62
-2.97
-4.43
-5.79
-6.86
-7.64
-8.33
-9.29
-10.76
-12.63
-14.4
-15.34
-14.88
-12.93
-9.94
-6.71
-3.93
-1.91
-0.49
0.73
2.1
3.73
5.45
7
8.14
8.79
8.96
8.7
8.15
7.47
6.91
6.74
6.98
7.5
7.98
8.16
7.98
7.56
7.17
6.98
6.97
7
6.83
6.32
5.45
4.32
3.05
1.73
0.36
-1.03
-2.43
-3.78
-5.06
-6.27
-7.52
-8.88
-10.42
-12.07
-13.63
-14.77
-15.18
-14.62
-13.09
-10.75
-7.92
-4.93
-2.08
0.47
2.65
4.43
5.78
6.67
7.08
7.05
6.7
6.18
5.66
5.25
5.03
4.96
5.04
5.24
5.57
6.04
6.65
7.3
7.86
8.17
8.14
7.76
7.06
6.11
4.99
3.74
2.48
1.3
0.33
-0.38
-0.83
-1.18
-1.61
-2.3
-3.34
-4.71
-6.32
-8.11
-10.05
-12.07
-14.02
-15.6
-16.41
-16.1
-14.51
-11.78
-8.3
-4.58
-1.09
1.81
3.97
5.34
6
6.06
5.76
5.34
5.03
4.93
4.99
5.12
5.24
5.37
5.62
6.11
6.85
7.7
8.43
8.85
8.85
8.48
7.85
7.08
6.24
5.37
4.47
3.52
2.5
1.4
0.28
-0.77
-1.67
-2.37
-2.96
-3.61
-4.53
-5.89
-7.7
-9.84
-12.02
-13.92
-15.19
-15.55
-14.81
-12.94
-10.16
-6.81
-3.35
-0.18
2.41
4.33
5.58
6.19
6.32
6.12
5.8
5.58
5.68
6.16
6.99
8
9
9.77
10.16
10.09
9.59
8.8
7.94
7.2
6.7
6.42
6.26
6.07
5.76
5.3
4.7
4.03
3.33
2.62
1.87
1.02
-0
-1.18
-2.44
-3.66
-4.7
-5.5
-6.08
-6.52
-6.87
-7.08
-7.05
-6.66
-5.84
-4.62
-3.1
-1.39
0.36
2.03
3.46
4.5
5.1
5.28
5.15
4.85
4.43
3.95
3.44
2.98
2.67
2.64
2.89
3.34
3.9
4.47
4.98
5.45
5.81
5.99
5.85
5.28
4.25
2.85
1.25
-0.36
-1.75
-2.83
-3.59
-4.17
-4.81
-5.75
-7.09
-8.77
-10.59
-12.2
-13.31
-13.7
-13.27
-12.05
-10.18
-7.89
-5.51
-3.37
-1.67
-0.48
0.35
1.05
1.77
2.52
3.21
3.68
3.88
3.88
3.85
3.91
4.07
4.25
4.31
4.24
4.06
3.87
3.7
3.48
3.04
2.27
1.16
-0.2
-1.61
-2.88
-3.84
-4.44
-4.7
-4.76
-4.89
-5.39
-6.55
-8.41
-10.77
-13.13
-14.91
-15.63
-15.09
-13.4
-10.92
-8.15
-5.53
-3.39
-1.84
-0.82
-0.12
0.53
1.34
2.3
3.25
3.97
4.31
4.31
4.16
4.06
4.03
3.94
3.63
3.01
2.26
1.68
1.54
1.87
2.4
2.72
2.44
1.41
-0.26
-2.24
-4.13
-5.65
-6.67
-7.33
-7.89
-8.79
-10.32
-12.57
-15.36
-18.18
-20.48
-21.74
-21.64
-20.12
-17.34
-13.62
-9.43
-5.28
-1.66
1.13
3.07
4.39
5.46
6.57
7.84
9.15
10.23
10.83
10.85
10.39
9.71
9.15
8.95
9.21
9.81
10.45
10.8
10.63
9.94
8.9
7.74
6.61
5.52
4.37
3.05
1.58
0.09
-1.23
-2.27
-3.08
-3.89
-4.97
-6.53
-8.58
-10.97
-13.43
-15.65
-17.36
-18.4
-18.63
-17.98
-16.39
-13.93
-10.83
-7.47
-4.24
-1.45
0.79
2.55
4.04
5.4
6.63
7.63
8.23
8.4
8.24
7.95
7.78
7.85
8.18
8.69
9.31
9.95
10.58
11.13
11.55
11.76
11.59
10.97
9.87
8.39
6.73
5.1
3.62
2.3
1.05
-0.34
-2
-3.92
-5.91
-7.68
-9
-9.84
-10.38
-10.95
-11.87
-13.2
-14.72
-16.04
-16.7
-16.42
-15.16
-13.1
-10.55
-7.81
-5.1
-2.56
-0.27
1.74
3.48
4.99
6.31
7.44
8.36
9
9.34
9.43
9.42
9.5
9.8
10.38
11.11
11.82
12.32
12.49
12.34
11.99
11.56
11.1
10.61
10
9.14
7.99
6.56
4.97
3.32
1.69
0.15
-1.21
-2.32
-3.08
-3.46
-3.52
-3.43
-3.38
-3.65
-4.46
-5.98
-8.21
-11.02
-14.04
-16.8
-18.78
-19.53
-18.86
-16.85
-13.85
-10.36
-6.9
-3.84
-1.35
0.62
2.29
3.84
5.33
6.63
7.56
7.98
7.96
7.71
7.51
7.59
8
8.68
9.45
10.11
10.58
10.82
10.9
10.91
10.94
10.96
10.82
10.32
9.36
7.99
6.47
5.11
4.17
3.71
3.57
3.47
3.13
2.37
1.13
-0.47
-2.29
-4.16
-5.97
-7.68
-9.32
-11.01
-12.8
-14.68
-16.44
-17.75
-18.25
-17.71
-16.12
-13.68
-10.74
-7.66
-4.7
-1.93
0.65
3.05
5.18
6.89
8.04
8.55
8.58
8.36
8.25
8.46
9.07
9.94
10.81
11.42
11.62
11.43
10.95
10.34
9.73
9.1
8.45
7.76
7.06
6.42
5.9
5.49
5.11
4.66
4.11
3.43
2.67
1.9
1.16
0.51
-0.02
-0.4
-0.69
-1.01
-1.55
-2.52
-4.06
-6.12
-8.5
-10.85
-12.78
-13.98
-14.27
-13.66
-12.24
-10.21
-7.78
-5.23
-2.79
-0.66
1.06
2.38
3.4
4.23
4.98
5.67
6.3
6.76
7.03
7.11
7.11
7.1
7.19
7.37
7.63
7.9
8.1
8.21
8.2
8.05
7.76
7.28
6.61
5.79
4.92
4.1
3.37
2.67
1.9
0.96
-0.15
-1.32
-2.47
-3.52
-4.54
-5.65
-7.04
-8.82
-10.91
-13.07
-14.88
-15.92
-15.88
-14.71
-12.63
-10.01
-7.28
-4.7
-2.35
-0.19
1.82
3.66
5.22
6.37
7.02
7.18
6.94
6.44
5.79
5.19
4.77
4.68
4.93
5.39
5.84
6.1
6.14
6.11
6.28
6.77
7.46
8
7.98
7.15
5.62
3.76
2.01
0.63
-0.44
-1.44
-2.66
-4.22
-6.03
-7.91
-9.75
-11.61
-13.64
-15.9
-18.19
-20.08
-21.03
-20.63
-18.84
-15.95
-12.49
-8.95
-5.63
-2.6
0.13
2.57
4.59
6.03
6.83
7.07
6.99
6.84
6.78
6.83
6.98
7.21
7.54
8
8.54
9.01
9.17
8.83
7.98
6.79
5.54
4.43
3.56
2.83
2.11
1.3
0.4
-0.58
-1.59
-2.61
-3.68
-4.8
-5.95
-7.08
-8.16
-9.23
-10.36
-11.65
-13.09
-14.51
-15.65
-16.17
-15.85
-14.62
-12.63
-10.2
-7.75
-5.54
-3.68
-2.1
-0.68
0.68
1.96
3.05
3.88
4.48
5
5.6
6.44
7.55
8.82
10.1
11.13
11.74
11.77
11.26
10.39
9.41
8.56
7.91
7.38
6.78
5.93
4.81
3.5
2.19
0.97
-0.11
-1.13
-2.17
-3.24
-4.33
-5.4
-6.48
-7.69
-9.23
-11.18
-13.52
-15.95
-18.1
-19.56
-20.02
-19.4
-17.77
-15.37
-12.42
-9.17
-5.8
-2.52
0.46
2.94
4.81
6.08
6.9
7.45
7.9
8.36
8.82
9.24
9.49
9.46
9.17
8.7
8.26
8.01
8.04
8.29
8.52
8.53
8.18
7.52
6.69
5.78
4.78
3.57
2.08
0.39
-1.25
-2.56
-3.36
-3.69
-3.78
-3.92
-4.34
-5.15
-6.4
-8.08
-10.15
-12.51
-14.85
-16.71
-17.64
-17.36
-15.91
-13.63
-10.99
-8.43
-6.14
-4.09
-2.11
-0.05
2.09
4.18
5.96
7.21
7.86
8.04
8.01
8.04
8.29
8.75
9.27
9.67
9.84
9.86
9.83
9.84
9.81
9.53
8.87
7.81
6.6
5.56
4.96
4.77
4.74
4.45
3.62
2.29
0.72
-0.75
-1.89
-2.74
-3.54
-4.56
-5.94
-7.68
-9.69
-11.89
-14.17
-16.38
-18.23
-19.3
-19.19
-17.72
-15.03
-11.63
-8.2
-5.37
-3.45
-2.4
-1.88
-1.4
-0.62
0.59
2.11
3.65
4.96
5.87
6.42
6.78
7.13
7.53
7.98
8.4
8.77
9.13
9.54
10.04
10.56
10.86
10.66
9.77
8.23
6.3
4.4
2.93
2.13
1.94
2.07
2.11
1.72
0.75
-0.75
-2.52
-4.33
-5.98
-7.41
-8.66
-9.85
-11.08
-12.4
-13.71
-14.79
-15.3
-14.93
-13.51
-11.12
-8.11
-5
-2.2
0.1
1.95
3.49
4.78
5.71
6.08
5.81
5
4.03
3.37
3.41
4.29
5.82
7.59
9.15
10.22
10.74
10.89
10.92
11.02
11.17
11.21
10.89
10.09
8.87
7.45
6.02
4.65
3.26
1.72
0.03
-1.69
-3.22
-4.38
-5.19
-5.81
-6.49
-7.39
-8.57
-9.95
-11.42
-12.9
-14.3
-15.47
-16.17
-16.08
-15
-12.93
-10.15
-7.12
-4.29
-1.9
0.09
1.87
3.65
5.4
6.84
7.69
7.74
7.13
6.27
5.64
5.62
6.22
7.17
8.06
8.57
8.58
8.2
7.66
7.16
6.75
6.38
5.97
5.45
4.87
4.3
3.8
3.38
2.96
2.41
1.62
0.57
-0.7
-2.01
-3.1
-3.82
-4.09
-4.09
-4.2
-4.87
-6.41
-8.77
-11.49
-13.8
-14.96
-14.56
-12.66
-9.76
-6.48
-3.39
-0.81
1.22
2.75
3.89
4.71
5.21
5.44
5.46
5.34
5.21
5.2
5.38
5.82
6.51
7.35
8.2
8.89
9.33
9.48
9.4
9.11
8.56
7.72
6.6
5.28
3.95
2.72
1.66
0.73
-0.2
-1.14
-2.08
-2.92
-3.64
-4.31
-5.14
-6.38
-8.15
-10.38
-12.74
-14.77
-16
-16.11
-15.06
-13.02
-10.36
-7.41
-4.47
-1.69
0.82
2.98
4.72
5.97
6.68
6.87
6.59
5.96
5.16
4.43
3.97
3.92
4.25
4.74
5.17
5.38
5.34
5.2
5.07
4.97
4.74
4.15
3.07
1.62
0.1
-1.23
-2.24
-3.09
-4.07
-5.36
-6.93
-8.56
-9.98
-11.02
-11.78
-12.41
-13.09
-13.78
-14.29
-14.36
-13.8
-12.63
-10.92
-8.82
-6.4
-3.79
-1.12
1.39
3.48
4.95
5.71
5.89
5.68
5.36
5.08
4.93
4.94
5.09
5.35
5.71
6.09
6.4
6.55
6.46
6.15
5.71
5.24
4.77
4.29
3.69
2.89
1.88
0.74
-0.49
-1.76
-3.1
-4.59
-6.23
-8.02
-9.87
-11.66
-13.33
-14.78
-15.87
-16.38
-16.08
-14.83
-12.68
-9.95
-7.1
-4.61
-2.75
-1.52
-0.63
0.22
1.29
2.61
4.06
5.41
6.49
7.2
7.55
7.62
7.55
7.54
7.73
8.22
8.93
9.6
9.93
9.68
8.8
7.48
5.99
4.53
3.16
1.8
0.3
-1.44
-3.34
-5.18
-6.64
-7.49
-7.73
-7.6
-7.56
-8.09
-9.46
-11.61
-14.12
-16.36
-17.69
-17.75
-16.55
-14.34
-11.58
-8.6
-5.67
-2.89
-0.29
2.08
4.13
5.75
6.92
7.72
8.39
9.13
10.01
10.87
11.43
11.44
10.83
9.85
8.93
8.42
8.5
9.03
9.68
10.07
10
9.45
8.53
7.37
6.01
4.51
2.93
1.44
0.25
-0.52
-0.92
-1.16
-1.5
-2.15
-3.17
-4.49
-6.04
-7.81
-9.82
-12.08
-14.42
-16.47
-17.72
-17.72
-16.27
-13.53
-10.02
-6.33
-3.01
-0.37
1.56
2.91
3.94
4.82
5.7
6.64
7.64
8.61
9.41
9.9
9.99
9.77
9.38
9.02
8.82
8.81
8.9
9.03
9.14
9.2
9.19
9.03
8.62
7.97
7.18
6.43
5.92
5.68
5.52
5.2
4.46
3.29
1.86
0.45
-0.73
-1.67
-2.63
-3.91
-5.72
-8.07
-10.78
-13.49
-15.88
-17.65
-18.55
-18.39
-17.02
-14.51
-11.12
-7.31
-3.62
-0.48
1.98
3.83
5.26
6.47
7.52
8.38
9.05
9.58
10.05
10.47
10.84
11.06
11.09
10.93
10.68
10.48
10.37
10.31
10.18
9.87
9.26
8.38
7.22
5.86
4.44
3.14
2.21
1.75
1.75
1.95
2
1.55
0.48
-1.03
-2.59
-3.76
-4.3
-4.32
-4.19
-4.37
-5.19
-6.68
-8.58
-10.48
-11.85
-12.27
-11.51
-9.57
-6.72
-3.42
-0.19
2.54
4.49
5.66
6.21
6.37
6.38
6.38
6.48
6.76
7.24
7.86
8.49
8.98
9.2
9.15
8.98
8.94
9.25
9.91
10.74
11.37
11.44
10.83
9.71
8.47
7.48
6.93
6.67
6.33
5.55
4.2
2.42
0.6
-0.91
-1.92
-2.5
-2.85
-3.25
-3.96
-5.14
-6.93
-9.27
-11.92
-14.44
-16.24
-16.8
-15.9
-13.64
-10.45
-6.89
-3.49
-0.56
1.79
3.6
5
6.07
6.86
7.32
7.41
7.11
6.46
5.68
5
4.67
4.79
5.36
6.27
7.34
8.4
9.26
9.71
9.57
8.75
7.34
5.58
3.86
2.48
1.59
1
0.4
-0.5
-1.83
-3.46
-5.08
-6.39
-7.23
-7.67
-7.99
-8.54
-9.58
-11.23
-13.32
-15.55
-17.48
-18.71
-18.89
-17.84
-15.55
-12.29
-8.48
-4.63
-1.19
1.51
3.4
4.56
5.14
5.26
5.06
4.71
4.44
4.53
5.13
6.21
7.52
8.67
9.37
9.46
9.04
8.26
7.34
6.35
5.31
4.22
3.15
2.23
1.6
1.36
1.48
1.84
2.21
2.32
1.96
1.06
-0.29
-1.87
-3.45
-4.92
-6.31
-7.84
-9.68
-11.89
-14.23
-16.3
-17.61
-17.86
-17.02
-15.36
-13.23
-10.93
-8.56
-6.06
-3.35
-0.56
2.01
3.97
5.06
5.32
5.03
4.54
4.16
4.01
4.09
4.33
4.72
5.27
5.95
6.7
7.39
7.92
8.28
8.5
8.63
8.67
8.56
8.21
7.57
6.64
5.53
4.36
3.23
2.25
1.43
0.77
0.23
-0.29
-0.88
-1.62
-2.61
-3.86
-5.38
-7.13
-9.03
-10.98
-12.87
-14.51
-15.73
-16.26
-15.92
-14.6
-12.4
-9.61
-6.63
-3.91
-1.75
-0.25
0.69
1.33
1.98
2.89
4.1
5.54
6.92
8.01
8.61
8.72
8.51
8.18
7.88
7.63
7.39
7.13
6.95
6.97
7.24
7.66
7.95
7.81
7.04
5.72
4.16
2.74
1.72
1.11
0.66
0.01
-1.13
-2.8
-4.82
-6.76
-8.21
-8.85
-8.68
-7.98
-7.31
-7.24
-8.18
-10.1
-12.58
-14.95
-16.54
-16.95
-16.12
-14.31
-11.83
-8.93
-5.75
-2.44
0.78
3.62
5.78
7.09
7.63
7.67
7.49
7.28
7.1
6.88
6.6
6.33
6.13
6.08
6.13
6.27
6.48
6.81
7.26
7.73
8.03
7.9
7.22
6.04
4.61
3.33
2.5
2.28
2.53
2.99
3.26
3.04
2.17
0.73
-0.99
-2.62
-3.85
-4.58
-4.97
-5.33
-5.96
-6.91
-8.07
-9.17
-9.98
-10.37
-10.28
-9.71
-8.65
-7.08
-5.08
-2.83
-0.58
1.42
2.97
3.99
4.5
4.62
4.48
4.26
4.11
4.14
4.36
4.71
5.09
5.41
5.67
5.85
5.97
5.99
5.87
5.66
5.4
5.22
5.18
5.26
5.36
5.35
5.18
4.85
4.44
3.98
3.46
2.83
2.09
1.25
0.38
-0.45
-1.23
-1.96
-2.68
-3.42
-4.21
-5.14
-6.34
-7.86
-9.59
-11.12
-11.9
-11.45
-9.59
-6.59
-3.09
0.16
2.62
4.1
4.76
4.91
4.83
4.65
4.41
4.14
3.92
3.89
4.15
4.64
5.25
5.81
6.25
6.56
6.79
6.95
6.95
6.69
6.06
5.17
4.2
3.4
2.88
2.54
2.07
1.17
-0.26
-2.08
-3.93
-5.44
-6.41
-6.92
-7.27
-7.77
-8.66
-9.95
-11.47
-12.96
-14.16
-14.9
-15.04
-14.47
-13.21
-11.35
-9.12
-6.83
-4.76
-3.05
-1.7
-0.55
0.58
1.8
3.06
4.23
5.14
5.67
5.82
5.73
5.66
5.8
6.26
6.96
7.67
8.11
8.09
7.61
6.8
5.92
5.08
4.3
3.46
2.43
1.19
-0.08
-1.12
-1.68
-1.72
-1.47
-1.32
-1.7
-2.82
-4.68
-7.12
-9.84
-12.61
-15.15
-17.15
-18.31
-18.36
-17.3
-15.33
-12.9
-10.44
-8.19
-6.17
-4.21
-2.21
-0.22
1.54
2.84
3.58
3.92
4.15
4.57
5.34
6.39
7.53
8.5
9.12
9.3
9.03
8.34
7.29
6.01
4.69
3.54
2.69
2.18
1.88
1.56
1.03
0.14
-1.1
-2.62
-4.28
-5.94
-7.44
-8.63
-9.43
-9.9
-10.23
-10.7
-11.59
-12.94
-14.51
-15.82
-16.34
-15.72
-13.99
-11.52
-8.84
-6.38
-4.34
-2.62
-1.05
0.49
1.93
3.1
3.84
4.14
4.23
4.41
4.91
5.78
6.86
7.9
8.68
9.13
9.3
9.33
9.32
9.27
9.11
8.75
8.17
7.44
6.72
6.13
5.68
5.29
4.77
3.91
2.63
0.97
-0.9
-2.73
-4.33
-5.6
-6.59
-7.46
-8.46
-9.77
-11.48
-13.5
-15.54
-17.21
-18.12
-18.01
-16.83
-14.75
-12.07
-9.09
-6.11
-3.33
-0.85
1.28
3.05
4.44
5.5
6.28
6.88
7.35
7.76
8.08
8.33
8.51
8.64
8.74
8.83
8.93
9.04
9.15
9.21
9.14
8.89
8.45
7.84
7.13
6.41
5.73
5.08
4.39
3.63
2.75
1.76
0.66
-0.51
-1.69
-2.79
-3.74
-4.52
-5.15
-5.76
-6.52
-7.58
-9.07
-10.94
-13.04
-15.06
-16.62
-17.3
-16.78
-14.96
-12
-8.37
-4.69
-1.47
1.03
2.85
4.25
5.49
6.65
7.58
7.99
7.74
6.89
5.77
4.81
4.33
4.37
4.72
5.11
5.33
5.42
5.51
5.74
6.11
6.39
6.33
5.71
4.61
3.24
1.97
1.07
0.67
0.81
1.31
1.91
2.29
2.14
1.3
-0.2
-2.09
-3.99
-5.54
-6.6
-7.29
-7.88
-8.67
-9.84
-11.41
-13.22
-14.97
-16.23
-16.55
-15.59
-13.29
-9.96
-6.18
-2.59
0.39
2.59
4.15
5.24
6
6.44
6.56
6.48
6.4
6.5
6.86
7.42
8.04
8.65
9.33
10.19
11.26
12.36
13.14
13.27
12.56
11.13
9.27
7.34
5.63
4.25
3.23
2.52
2.07
1.75
1.36
0.66
-0.52
-2.16
-4
-5.67
-6.84
-7.45
-7.65
-7.75
-8.03
-8.59
-9.45
-10.5
-11.65
-12.74
-13.56
-13.85
-13.37
-12.02
-9.93
-7.39
-4.73
-2.18
0.19
2.32
4.16
5.56
6.44
6.78
6.77
6.6
6.48
6.46
6.49
6.52
6.57
6.75
7.2
7.99
8.99
9.99
10.65
10.74
10.21
9.17
7.88
6.58
5.47
4.57
3.85
3.22
2.6
1.93
1.21
0.45
-0.38
-1.26
-2.22
-3.21
-4.22
-5.25
-6.31
-7.47
-8.77
-10.21
-11.67
-12.89
-13.53
-13.27
-11.97
-9.7
-6.82
-3.86
-1.33
0.44
1.4
1.8
1.99
2.23
2.63
3.09
3.44
3.63
3.73
3.95
4.43
5.19
6.06
6.81
7.26
7.39
7.31
7.13
6.87
6.47
5.87
5.08
4.21
3.45
2.93
2.65
2.45
2.14
1.48
0.34
-1.29
-3.27
-5.37
-7.36
-9.04
-10.35
-11.33
-12.08
-12.72
-13.21
-13.41
-13.07
-11.99
-10.13
-7.72
-5.15
-2.86
-1.13
0.08
1.01
2.05
3.37
4.88
6.26
7.15
7.38
7.05
6.47
5.92
5.52
5.25
4.98
4.65
4.33
4.19
4.34
4.78
5.4
5.98
6.33
6.29
5.85
4.99
3.8
2.39
0.91
-0.49
-1.72
-2.72
-3.57
-4.36
-5.3
-6.54
-8.21
-10.33
-12.73
-15.12
-17.08
-18.2
-18.25
-17.15
-15.12
-12.44
-9.49
-6.55
-3.82
-1.34
0.84
2.73
4.31
5.59
6.59
7.35
7.95
8.43
8.89
9.36
9.86
10.4
10.88
11.17
11.15
10.76
10.05
9.18
8.37
7.83
7.62
7.65
7.72
7.58
7.07
6.12
4.77
3.12
1.26
-0.69
-2.61
-4.36
-5.83
-6.99
-7.96
-8.97
-10.28
-12.06
-14.26
-16.56
-18.51
-19.64
-19.7
-18.67
-16.81
-14.45
-11.88
-9.25
-6.62
-4
-1.43
0.99
3.13
4.94
6.44
7.72
8.88
9.98
11.01
11.92
12.61
13.02
13.1
12.85
12.27
11.5
10.71
10.11
9.85
9.9
10.04
9.98
9.44
8.41
7.07
5.74
4.65
3.82
3.07
2.19
1.04
-0.26
-1.49
-2.45
-3.11
-3.65
-4.35
-5.45
-7.06
-9.14
-11.56
-14.11
-16.48
-18.25
-19
-18.37
-16.34
-13.2
-9.47
-5.74
-2.42
0.31
2.48
4.21
5.58
6.56
7.14
7.34
7.31
7.28
7.41
7.81
8.45
9.29
10.19
11.06
11.77
12.22
12.37
12.21
11.82
11.27
10.58
9.7
8.53
7.06
5.37
3.71
2.35
1.44
0.93
0.59
0.13
-0.6
-1.61
-2.73
-3.78
-4.62
-5.3
-6.04
-7.11
-8.71
-10.85
-13.26
-15.49
-16.98
-17.37
-16.55
-14.78
-12.42
-9.83
-7.18
-4.55
-1.97
0.45
2.56
4.22
5.43
6.34
7.14
7.95
8.74
9.41
9.89
10.23
10.5
10.79
11.11
11.35
11.45
11.4
11.27
11.06
10.7
10.01
8.85
7.25
5.5
4.01
3.09
2.8
2.92
3.03
2.8
2.09
0.98
-0.32
-1.69
-3.06
-4.44
-5.84
-7.22
-8.49
-9.63
-10.74
-11.95
-13.38
-14.97
-16.48
-17.5
-17.62
-16.56
-14.34
-11.24
-7.75
-4.39
-1.5
0.75
2.41
3.64
4.58
5.31
5.82
6.13
6.33
6.58
7.04
7.78
8.78
9.9
10.96
11.84
12.46
12.79
12.92
12.9
12.75
12.4
11.74
10.65
9.11
7.28
5.44
3.93
2.96
2.51
2.28
1.86
0.94
-0.53
-2.33
-4.07
-5.47
-6.42
-7.07
-7.71
-8.61
-9.88
-11.46
-13.18
-14.78
-16.04
-16.72
-16.63
-15.63
-13.75
-11.21
-8.43
-5.84
-3.75
-2.22
-1.1
-0.12
0.87
1.87
2.74
3.35
3.7
3.97
4.45
5.34
6.65
8.19
9.69
10.88
11.69
12.2
12.55
12.83
13
12.9
12.4
11.47
10.31
9.2
8.41
8
7.85
7.71
7.34
6.62
5.6
4.45
3.33
2.32
1.38
0.36
-0.93
-2.6
-4.69
-7.12
-9.66
-12.01
-13.85
-14.86
-14.89
-13.88
-11.89
-9.13
-5.88
-2.48
0.71
3.35
5.31
6.57
7.31
7.69
7.83
7.72
7.27
6.44
5.37
4.36
3.74
3.7
4.13
4.74
5.16
5.24
5.04
4.81
4.8
5.07
5.47
5.7
5.5
4.78
3.65
2.33
1.04
-0.06
-0.9
-1.46
-1.76
-1.85
-1.86
-1.96
-2.38
-3.35
-4.97
-7.1
-9.34
-11.13
-11.95
-11.51
-9.9
-7.54
-4.95
-2.59
-0.68
0.75
1.81
2.57
3.09
3.37
3.5
3.61
3.83
4.25
4.84
5.46
5.96
6.24
6.29
6.15
5.93
5.69
5.49
5.31
5.1
4.84
4.51
4.12
3.68
3.18
2.56
1.75
0.66
-0.75
-2.43
-4.27
-6.09
-7.77
-9.32
-10.85
-12.51
-14.36
-16.22
-17.65
-18.16
-17.34
-15.15
-11.93
-8.28
-4.81
-1.91
0.32
2.05
3.44
4.63
5.61
6.27
6.58
6.54
6.27
5.89
5.55
5.34
5.31
5.48
5.82
6.2
6.41
6.28
5.74
4.82
3.65
2.37
1.02
-0.38
-1.78
-3.08
-4.13
-4.83
-5.28
-5.75
-6.61
-8.15
-10.35
-12.88
-15.23
-16.86
-17.44
-16.97
-15.68
-13.9
-11.91
-9.84
-7.7
-5.47
-3.21
-1.07
0.73
2.04
2.85
3.35
3.81
4.46
5.38
6.48
7.61
8.62
9.41
9.93
10.09
9.8
9.02
7.88
6.63
5.55
4.77
4.23
3.64
2.77
1.55
0.17
-1.05
-1.85
-2.27
-2.55
-3.06
-4.1
-5.74
-7.82
-10.04
-12.13
-13.84
-15.03
-15.63
-15.51
-14.58
-12.74
-10.12
-7.03
-3.95
-1.39
0.38
1.38
1.95
2.52
3.36
4.49
5.72
6.8
7.6
8.12
8.39
8.45
8.3
7.96
7.52
7.17
7.06
7.2
7.41
7.46
7.14
6.45
5.55
4.66
3.9
3.22
2.44
1.48
0.33
-0.83
-1.83
-2.61
-3.26
-3.99
-5.03
-6.5
-8.43
-10.73
-13.2
-15.58
-17.52
-18.58
-18.41
-16.87
-14.13
-10.67
-7.06
-3.81
-1.17
0.85
2.4
3.62
4.57
5.21
5.55
5.68
5.77
6.07
6.63
7.41
8.17
8.68
8.82
8.68
8.47
8.4
8.53
8.76
8.93
8.86
8.5
7.84
6.95
5.85
4.54
3.05
1.49
-0
-1.28
-2.26
-2.98
-3.49
-3.88
-4.17
-4.41
-4.69
-5.18
-6.08
-7.51
-9.42
-11.5
-13.33
-14.47
-14.55
-13.49
-11.41
-8.64
-5.57
-2.56
0.11
2.32
4.06
5.37
6.33
7.02
7.5
7.78
7.92
7.91
7.76
7.51
7.27
7.19
7.4
7.98
8.81
9.71
10.47
10.91
10.99
10.64
9.88
8.68
7.09
5.25
3.45
2.01
1.12
0.75
0.62
0.33
-0.36
-1.49
-2.86
-4.25
-5.54
-6.79
-8.13
-9.74
-11.63
-13.7
-15.81
-17.83
-19.66
-21.19
-22.19
-22.36
-21.43
-19.26
-15.99
-12.01
-7.85
-4.02
-0.91
1.38
2.95
4.09
5.08
6.12
7.25
8.36
9.31
10.01
10.49
10.84
11.14
11.44
11.76
12.05
12.28
12.37
12.3
12.01
11.53
10.88
10.11
9.24
8.22
7.06
5.8
4.55
3.43
2.49
1.57
0.53
-0.68
-1.9
-2.79
-3.1
-2.84
-2.34
-2.1
-2.58
-3.98
-6.26
-9.17
-12.33
-15.32
-17.65
-18.82
-18.45
-16.47
-13.22
-9.29
-5.41
-2.15
0.22
1.74
2.66
3.24
3.68
4.12
4.6
5.21
5.99
7.01
8.24
9.63
10.95
12
12.58
12.63
12.24
11.63
10.99
10.41
9.78
8.93
7.78
6.41
5.08
4.02
3.35
2.96
2.55
1.84
0.69
-0.79
-2.37
-3.78
-4.86
-5.59
-6.04
-6.36
-6.67
-7.19
-8.09
-9.52
-11.52
-13.92
-16.45
-18.67
-20.13
-20.45
-19.44
-17.17
-14
-10.46
-7.13
-4.36
-2.24
-0.58
0.92
2.5
4.19
5.85
7.28
8.34
9.04
9.5
9.85
10.19
10.51
10.75
10.85
10.79
10.61
10.45
10.38
10.36
10.24
9.84
9.07
8.05
7.07
6.45
6.31
6.48
6.57
6.2
5.17
3.56
1.7
-0.15
-1.78
-3.17
-4.37
-5.43
-6.42
-7.46
-8.66
-10.1
-11.76
-13.41
-14.67
-15.21
-14.87
-13.78
-12.31
-10.94
-10.03
-9.76
-10.03
-10.55
-10.93
-10.83
-10.09
-8.75
-7.07
-5.33
-3.72
-2.28
-0.96
0.31
1.48
2.47
3.22
3.79
4.37
5.14
6.14
7.26
8.22
8.83
9.05
8.96
8.64
8.03
6.96
5.27
3.03
0.54
-1.74
-3.44
-4.49
-5.08
-5.59
-6.4
-7.71
-9.49
-11.58
-13.69
-15.52
-16.79
-17.2
-16.64
-15.13
-12.88
-10.2
-7.38
-4.61
-2.03
0.25
2.1
3.34
3.85
3.61
2.82
1.85
1.22
1.32
2.42
4.52
7.36
10.49
13.42
15.7
17.11
17.71
17.87
18.07
18.81
20.34
22.61
25.28
27.8
29.62
30.34
29.7
27.65
24.27
19.77
14.45
8.75
3.03
-2.36
-7.31
-11.86
-16.07
-19.98
-23.4
-26.04
-27.52
-27.57
-26.15
-23.47
-19.93
-15.92
-11.67
-7.31
-2.9
1.36
5.13
8.01
9.78
10.54
10.68
10.74
11.06
11.73
12.59
13.42
14.06
14.42
14.48
14.11
13.14
11.43
9
6.04
2.87
-0.26
-3.2
-5.94
-8.57
-11.08
-13.39
-15.36
-16.89
-17.97
-18.71
-19.31
-19.99
-20.97
-22.33
-24.06
-25.9
-27.48
-28.32
-28.03
-26.47
-23.78
-20.33
-16.58
-12.91
-9.5
-6.38
-3.53
-0.97
1.23
3.03
4.45
5.67
6.88
8.2
9.6
10.93
12.03
12.8
13.25
13.47
13.54
13.43
13.02
12.17
10.82
8.99
6.82
4.53
2.34
0.45
-1
-1.92
-2.41
-2.66
-2.98
-3.72
-5.1
-7.08
-9.39
-11.6
-13.3
-14.21
-14.31
-13.63
-12.28
-10.31
-7.83
-5.04
-2.23
0.26
2.22
3.57
4.48
5.16
5.78
6.42
7.06
7.68
8.28
8.88
9.45
9.89
10.12
10.1
9.85
9.51
9.14
8.73
8.24
7.57
6.73
5.73
4.65
3.53
2.38
1.2
-0.01
-1.25
-2.47
-3.63
-4.76
-5.93
-7.16
-8.43
-9.5
-10.07
-9.82
-8.6
-6.57
-4.11
-1.69
0.31
1.8
2.96
4.08
5.34
6.67
7.78
8.35
8.3
7.78
7.14
6.7
6.6
6.71
6.79
6.69
6.45
6.3
6.44
6.85
7.26
7.23
6.47
5.01
3.23
1.64
0.63
0.22
0.05
-0.34
-1.32
-2.96
-5.08
-7.39
-9.64
-11.68
-13.4
-14.66
-15.21
-14.81
-13.35
-11.02
-8.21
-5.47
-3.21
-1.56
-0.35
0.77
2.06
3.6
5.15
6.39
7.09
7.28
7.24
7.35
7.79
8.49
9.12
9.39
9.15
8.57
7.96
7.6
7.51
7.47
7.15
6.28
4.83
3
1.11
-0.55
-1.9
-3.08
-4.3
-5.72
-7.31
-8.88
-10.25
-11.35
-12.24
-13.14
-14.13
-15.07
-15.61
-15.34
-14
-11.61
-8.51
-5.12
-1.78
1.3
4.06
6.43
8.25
9.39
9.81
9.63
9.2
8.87
8.89
9.26
9.77
10.06
9.85
9.07
7.93
6.84
6.15
5.99
6.19
6.39
6.25
5.66
4.8
3.96
3.41
3.14
2.89
2.35
1.35
-0.03
-1.54
-2.97
-4.33
-5.79
-7.6
-9.85
-12.26
-14.39
-15.7
-15.86
-14.79
-12.76
-10.12
-7.27
-4.52
-2.03
0.08
1.76
2.99
3.77
4.21
4.44
4.55
4.61
4.66
4.7
4.8
5.06
5.51
6.15
6.84
7.4
7.69
7.63
7.25
6.63
5.89
5.12
4.38
3.73
3.18
2.69
2.21
1.66
0.99
0.23
-0.61
-1.46
-2.3
-3.15
-4.04
-4.98
-6.01
-7.17
-8.49
-9.99
-11.53
-12.8
-13.42
-13.06
-11.58
-9.12
-6.08
-2.98
-0.25
1.89
3.46
4.64
5.65
6.62
7.5
8.15
8.43
8.34
8.07
7.94
8.24
9.13
10.48
11.92
13.02
13.43
13
11.84
10.2
8.38
6.73
5.49
4.83
4.72
4.93
5.13
4.99
4.34
3.17
1.69
0.17
-1.19
-2.24
-2.97
-3.49
-3.99
-4.71
-5.91
-7.76
-10.2
-12.87
-15.24
-16.75
-17.03
-16.05
-14.07
-11.44
-8.49
-5.47
-2.54
0.1
2.29
3.92
5.02
5.73
6.29
6.82
7.36
7.8
8.05
8.11
8.09
8.15
8.39
8.8
9.25
9.59
9.7
9.58
9.3
8.99
8.79
8.75
8.84
8.92
8.79
8.27
7.3
5.95
4.41
2.9
1.57
0.47
-0.46
-1.28
-2.03
-2.74
-3.49
-4.45
-5.75
-7.46
-9.37
-11.05
-11.96
-11.71
-10.24
-7.9
-5.26
-2.84
-0.93
0.49
1.6
2.62
3.63
4.55
5.26
5.66
5.8
5.8
5.83
6.03
6.47
7.14
7.94
8.75
9.43
9.85
9.89
9.47
8.62
7.43
6.08
4.78
3.7
2.9
2.31
1.76
1.07
0.14
-0.91
-1.84
-2.44
-2.65
-2.65
-2.76
-3.28
-4.33
-5.83
-7.46
-8.83
-9.6
-9.56
-8.7
-7.14
-5.11
-2.87
-0.63
1.42
3.14
4.43
5.25
5.52
5.21
4.38
3.13
1.74
0.51
-0.26
-0.36
0.26
1.41
2.79
4.02
4.86
5.2
5.2
5.02
4.83
4.59
4.12
3.24
1.93
0.37
-1.12
-2.23
-2.89
-3.23
-3.58
-4.16
-5.01
-6.02
-7.07
-8.14
-9.36
-10.87
-12.59
-14.15
-15.02
-14.72
-13.14
-10.59
-7.6
-4.72
-2.3
-0.36
1.23
2.57
3.61
4.2
4.24
3.78
3.09
2.55
2.48
2.96
3.75
4.46
4.79
4.65
4.3
4.13
4.37
4.99
5.63
5.81
5.22
3.87
2.04
0.12
-1.66
-3.22
-4.65
-6.02
-7.33
-8.53
-9.58
-10.57
-11.61
-12.78
-14.01
-15.06
-15.62
-15.39
-14.3
-12.47
-10.19
-7.78
-5.49
-3.39
-1.4
0.61
2.68
4.64
6.2
6.98
6.82
5.89
4.6
3.54
3.12
3.4
4.11
4.83
5.2
5.12
4.75
4.31
3.99
3.76
3.41
2.71
1.57
0.14
-1.29
-2.43
-3.17
-3.64
-4.11
-4.8
-5.81
-7
-8.22
-9.45
-10.8
-12.44
-14.35
-16.16
-17.25
-17.05
-15.4
-12.66
-9.55
-6.8
-4.78
-3.41
-2.32
-1.12
0.31
1.84
3.21
4.22
4.85
5.23
5.52
5.82
6.18
6.57
6.95
7.29
7.51
7.55
7.35
6.88
6.13
5.19
4.18
3.28
2.6
2.19
1.97
1.77
1.44
0.87
0.06
-0.93
-2.03
-3.2
-4.48
-5.88
-7.4
-8.95
-10.47
-11.95
-13.37
-14.72
-15.78
-16.24
-15.73
-14.03
-11.19
-7.61
-3.82
-0.36
2.46
4.55
5.95
6.76
7.07
7
6.76
6.61
6.79
7.36
8.09
8.63
8.63
7.98
6.91
5.85
5.19
5.09
5.41
5.77
5.83
5.41
4.58
3.61
2.78
2.27
2.03
1.86
1.49
0.72
-0.46
-1.92
-3.36
-4.6
-5.54
-6.3
-7.14
-8.32
-9.94
-11.9
-13.88
-15.43
-16.13
-15.71
-14.16
-11.73
-8.84
-5.93
-3.3
-1.09
0.77
2.36
3.76
4.99
6.06
7.01
7.89
8.74
9.48
10.02
10.2
9.97
9.42
8.7
8.01
7.45
6.97
6.44
5.79
4.99
4.15
3.4
2.88
2.57
2.36
2.1
1.67
1.04
0.35
-0.3
-0.81
-1.24
-1.7
-2.3
-3.1
-4.08
-5.17
-6.33
-7.53
-8.79
-10.1
-11.45
-12.71
-13.72
-14.25
-14.05
-12.96
-10.97
-8.27
-5.27
-2.37
0.12
2.12
3.73
5.08
6.18
6.92
7.15
6.86
6.27
5.76
5.67
6.08
6.83
7.53
7.83
7.61
6.97
6.19
5.49
5.01
4.7
4.5
4.39
4.39
4.5
4.64
4.63
4.26
3.43
2.19
0.7
-0.8
-2.12
-3.17
-3.98
-4.63
-5.23
-5.88
-6.68
-7.76
-9.2
-11.01
-12.99
-14.81
-15.99
-16.13
-15.03
-12.78
-9.77
-6.48
-3.38
-0.79
1.2
2.69
3.83
4.8
5.69
6.53
7.29
7.94
8.45
8.82
9.07
9.22
9.28
9.21
9.04
8.79
8.55
8.41
8.35
8.24
7.92
7.3
6.43
5.48
4.7
4.18
3.88
3.56
2.95
1.95
0.6
-0.87
-2.25
-3.41
-4.37
-5.27
-6.21
-7.25
-8.38
-9.52
-10.63
-11.67
-12.62
-13.37
-13.79
-13.68
-12.87
-11.35
-9.22
-6.74
-4.18
-1.73
0.48
2.47
4.23
5.69
6.72
7.19
7.12
6.68
6.14
5.82
5.84
6.22
6.79
7.37
7.82
8.13
8.35
8.54
8.68
8.65
8.33
7.64
6.67
5.63
4.79
4.29
4.12
4.04
3.71
2.82
1.3
-0.65
-2.62
-4.21
-5.21
-5.68
-5.95
-6.41
-7.35
-8.87
-10.79
-12.77
-14.44
-15.39
-15.36
-14.18
-11.9
-8.82
-5.47
-2.49
-0.41
0.59
0.72
0.48
0.42
0.87
1.87
3.17
4.48
5.59
6.43
7.02
7.39
7.52
7.36
6.95
6.41
5.94
5.71
5.76
5.99
6.23
6.28
6.07
5.57
4.78
3.73
2.46
1.1
-0.17
-1.1
-1.57
-1.69
-1.74
-2.14
-3.16
-4.79
-6.74
-8.59
-10.06
-11.04
-11.66
-12.05
-12.27
-12.19
-11.62
-10.42
-8.59
-6.31
-3.84
-1.38
0.87
2.86
4.56
5.89
6.78
7.17
7.07
6.57
5.87
5.2
4.74
4.56
4.66
4.9
5.17
5.42
5.59
5.64
5.52
5.17
4.61
3.93
3.24
2.64
2.07
1.37
0.39
-0.89
-2.34
-3.71
-4.79
-5.56
-6.19
-6.9
-7.92
-9.31
-10.99
-12.78
-14.42
-15.62
-16.09
-15.6
-14.12
-11.83
-9.1
-6.35
-3.91
-1.81
0.04
1.78
3.46
4.9
5.9
6.35
6.34
6.18
6.22
6.61
7.3
8.05
8.64
8.99
9.16
9.23
9.15
8.73
7.8
6.34
4.58
2.89
1.58
0.74
0.22
-0.26
-0.92
-1.73
-2.55
-3.23
-3.76
-4.24
-4.82
-5.65
-6.76
-8.09
-9.56
-11.11
-12.64
-13.99
-14.91
-15.14
-14.49
-12.93
-10.67
-8.05
-5.49
-3.31
-1.65
-0.42
0.57
1.56
2.68
3.91
5.09
6.02
6.59
6.86
7.01
7.23
7.65
8.24
8.86
9.36
9.69
9.89
10.04
10.16
10.19
10.02
9.59
8.92
8.16
7.43
6.76
6.04
5.16
4.04
2.74
1.41
0.18
-0.88
-1.83
-2.76
-3.76
-4.89
-6.21
-7.77
-9.63
-11.75
-13.94
-15.89
-17.22
-17.59
-16.87
-15.16
-12.75
-9.99
-7.26
-4.78
-2.71
-1.06
0.24
1.3
2.22
3.09
3.97
4.88
5.84
6.81
7.73
8.53
9.15
9.59
9.92
10.21
10.44
10.54
10.33
9.7
8.69
7.53
6.56
6.04
6.04
6.4
6.85
7.11
7.04
6.62
5.88
4.83
3.47
1.82
0.04
-1.62
-2.91
-3.69
-3.98
-4
-4.12
-4.71
-6.01
-8.09
-10.7
-13.34
-15.43
-16.44
-16.09
-14.41
-11.74
-8.49
-5.11
-1.93
0.83
3.01
4.5
5.29
5.51
5.37
5.17
5.16
5.45
5.97
6.54
6.96
7.08
6.94
6.72
6.65
6.98
7.79
8.97
10.25
11.33
11.92
11.92
11.33
10.32
9.12
7.98
7.07
6.42
5.91
5.38
4.65
3.63
2.39
1.07
-0.2
-1.37
-2.45
-3.54
-4.7
-5.99
-7.45
-9.11
-10.97
-12.94
-14.74
-15.99
-16.3
-15.44
-13.46
-10.63
-7.38
-4.12
-1.15
1.35
3.35
4.82
5.78
6.24
6.23
5.87
5.31
4.8
4.58
4.82
5.54
6.61
7.7
8.48
8.77
8.56
8.14
7.85
7.93
8.36
8.87
9.11
8.89
8.26
7.54
7.07
7.08
7.53
8.14
8.56
8.54
7.98
6.94
5.56
4
2.36
0.73
-0.79
-2.1
-3.15
-3.96
-4.66
-5.44
-6.46
-7.81
-9.37
-10.88
-11.9
-12.04
-11.06
-9.05
-6.35
-3.42
-0.71
1.52
3.2
4.39
5.17
5.59
5.67
5.39
4.89
4.37
4.12
4.41
5.32
6.7
8.22
9.52
10.38
10.85
11.13
11.45
11.82
12.02
11.73
10.81
9.4
7.9
6.72
5.98
5.52
4.95
3.99
2.63
1.17
-0.03
-0.79
-1.2
-1.61
-2.37
-3.61
-5.21
-6.88
-8.38
-9.65
-10.76
-11.77
-12.59
-12.94
-12.5
-11.1
-8.85
-6.15
-3.48
-1.19
0.61
2.03
3.27
4.4
5.39
6.09
6.34
6.12
5.63
5.14
4.96
5.24
5.96
6.87
7.63
7.95
7.68
6.91
5.92
5.07
4.62
4.62
4.94
5.29
5.43
5.17
4.44
3.21
1.55
-0.47
-2.69
-4.81
-6.56
-7.7
-8.23
-8.35
-8.45
-8.9
-9.89
-11.38
-13.09
-14.6
-15.47
-15.39
-14.29
-12.29
-9.77
-7.14
-4.77
-2.86
-1.42
-0.28
0.76
1.81
2.84
3.7
4.22
4.3
4.02
3.59
3.28
3.23
3.42
3.66
3.68
3.37
2.77
2.11
1.67
1.6
1.89
2.37
2.81
3.04
3
2.69
2.15
1.34
0.2
-1.33
-3.2
-5.22
-7.09
-8.52
-9.36
-9.73
-9.99
-10.61
-11.89
-13.79
-15.92
-17.61
-18.3
-17.69
-15.86
-13.25
-10.35
-7.57
-5.08
-2.92
-1.01
0.64
1.98
2.93
3.45
3.64
3.69
3.81
4.12
4.62
5.18
5.65
5.94
6.08
6.21
6.39
6.61
6.64
6.26
5.32
3.98
2.59
1.58
1.22
1.44
1.92
2.26
2.13
1.43
0.27
-1.15
-2.63
-4.05
-5.39
-6.64
-7.86
-9.11
-10.47
-11.97
-13.56
-15.03
-16.08
-16.42
-15.85
-14.42
-12.33
-9.91
-7.45
-5.14
-3.09
-1.28
0.32
1.82
3.23
4.56
5.76
6.73
7.42
7.77
7.8
7.58
7.23
6.86
6.59
6.49
6.55
6.71
6.8
6.68
6.21
5.41
4.41
3.41
2.57
1.94
1.46
1
0.44
-0.22
-0.94
-1.65
-2.31
-2.97
-3.77
-4.85
-6.3
-8.13
-10.2
-12.3
-14.19
-15.67
-16.56
-16.71
-16.03
-14.5
-12.19
-9.31
-6.19
-3.2
-0.62
1.43
3.02
4.33
5.49
6.58
7.53
8.23
8.63
8.78
8.81
8.88
9.06
9.32
9.57
9.69
9.64
9.47
9.22
8.91
8.47
7.8
6.89
5.81
4.77
4.05
3.8
3.99
4.35
4.47
3.99
2.78
1.01
-0.93
-2.62
-3.83
-4.6
-5.23
-6.06
-7.33
-9.06
-11.03
-12.95
-14.57
-15.75
-16.42
-16.5
-15.85
-14.38
-12.11
-9.28
-6.26
-3.51
-1.35
0.12
1.02
1.61
2.12
2.64
3.16
3.61
3.98
4.33
4.77
5.38
6.18
7.12
8.08
8.92
9.57
9.96
10.07
9.86
9.35
8.59
7.72
6.92
6.34
6.07
6.02
6.01
5.82
5.24
4.23
2.82
1.21
-0.42
-1.91
-3.24
-4.44
-5.59
-6.79
-8.11
-9.6
-11.22
-12.93
-14.58
-15.96
-16.73
-16.6
-15.38
-13.08
-10.01
-6.64
-3.49
-0.87
1.09
2.54
3.64
4.47
5
5.12
4.82
4.29
3.89
3.98
4.71
5.96
7.44
8.83
9.92
10.66
11.04
11.07
10.69
9.85
8.64
7.31
6.21
5.56
5.37
5.31
4.99
4.14
2.78
1.19
-0.26
-1.33
-1.98
-2.41
-2.83
-3.42
-4.18
-5.03
-5.92
-6.89
-8.05
-9.51
-11.19
-12.9
-14.24
-14.8
-14.26
-12.57
-9.97
-6.89
-3.83
-1.13
1.12
3.05
4.82
6.48
7.88
8.79
9.05
8.67
7.86
6.92
6.15
5.78
5.87
6.43
7.31
8.28
9.01
9.27
8.96
8.18
7.21
6.35
5.79
5.49
5.28
4.92
4.3
3.4
2.29
1.02
-0.35
-1.8
-3.29
-4.67
-5.75
-6.4
-6.66
-6.78
-7.12
-8
-9.43
-11.12
-12.54
-13.13
-12.59
-10.96
-8.55
-5.81
-3.16
-0.86
0.97
2.32
3.28
3.94
4.4
4.71
4.89
4.96
4.98
5.03
5.25
5.66
6.21
6.76
7.19
7.47
7.7
7.96
8.24
8.41
8.28
7.72
6.76
5.57
4.35
3.22
2.23
1.35
0.64
0.09
-0.37
-0.95
-1.92
-3.44
-5.45
-7.67
-9.74
-11.36
-12.43
-12.99
-13.08
-12.69
-11.79
-10.37
-8.48
-6.31
-4.08
-1.94
-0.01
1.64
2.91
3.71
3.96
3.76
3.32
2.96
2.94
3.39
4.25
5.33
6.33
7.04
7.34
7.27
6.98
6.66
6.44
6.33
6.15
5.66
4.64
2.96
0.75
-1.68
-3.91
-5.58
-6.52
-6.83
-6.88
-7.07
-7.77
-9.14
-11.09
-13.37
-15.56
-17.27
-18.13
-17.88
-16.43
-13.91
-10.64
-7.02
-3.56
-0.57
1.74
3.37
4.43
5.11
5.55
5.88
6.11
6.23
6.28
6.28
6.36
6.64
7.2
8.05
9.03
9.89
10.34
10.24
9.61
8.66
7.62
6.66
5.85
5.05
4.12
2.99
1.74
0.57
-0.34
-0.89
-1.19
-1.47
-2.02
-3.02
-4.54
-6.48
-8.72
-11.05
-13.3
-15.28
-16.75
-17.52
-17.35
-16.15
-13.99
-11.11
-7.92
-4.85
-2.23
-0.23
1.17
2.16
2.94
3.62
4.27
4.83
5.28
5.62
5.89
6.18
6.6
7.18
7.95
8.81
9.64
10.3
10.67
10.69
10.36
9.68
8.7
7.46
6.08
4.7
3.48
2.52
1.82
1.19
0.44
-0.63
-2.07
-3.75
-5.44
-6.9
-7.99
-8.78
-9.48
-10.43
-11.87
-13.78
-15.82
-17.41
-17.92
-16.99
-14.66
-11.35
-7.67
-4.18
-1.18
1.26
3.21
4.76
5.92
6.62
6.89
6.89
6.9
7.14
7.72
8.51
9.23
9.56
9.4
8.84
8.13
7.56
7.32
7.42
7.76
8.15
8.46
8.55
8.35
7.79
6.91
5.85
4.78
3.91
3.33
2.96
2.63
2.1
1.27
0.18
-0.99
-2.07
-2.99
-3.86
-4.91
-6.37
-8.33
-10.68
-13.07
-15.09
-16.37
-16.72
-16.16
-14.92
-13.28
-11.47
-9.63
-7.8
-5.96
-4.13
-2.41
-0.9
0.36
1.42
2.38
3.34
4.31
5.2
5.84
6.17
6.19
6.1
6.11
6.41
7.06
7.99
8.99
9.85
10.42
10.61
10.44
9.99
9.38
8.75
8.19
7.74
7.39
7.03
6.55
5.81
4.69
3.11
1.15
-1.03
-3.15
-4.91
-6.12
-6.76
-7.03
-7.25
-7.82
-9.03
-10.91
-13.25
-15.59
-17.35
-18.03
-17.35
-15.33
-12.34
-8.89
-5.53
-2.67
-0.46
1.15
2.34
3.27
4.05
4.71
5.24
5.69
6.13
6.64
7.23
7.82
8.32
8.62
8.74
8.77
8.86
9.05
9.34
9.56
9.53
9.23
8.66
7.99
7.4
7
6.8
6.75
6.72
6.57
6.18
5.39
4.11
2.26
-0.11
-2.76
-5.3
-7.27
-8.39
-8.7
-8.6
-8.66
-9.41
-11
-13.12
-15.14
-16.38
-16.44
-15.29
-13.26
-10.78
-8.23
-5.85
-3.72
-1.85
-0.24
1.14
2.36
3.49
4.57
5.55
6.37
6.93
7.26
7.5
7.87
8.54
9.51
10.62
11.6
12.2
12.32
11.99
11.29
10.3
9.08
7.68
6.14
4.57
3.07
1.73
0.54
-0.54
-1.5
-2.29
-2.83
-3.09
-3.16
-3.24
-3.54
-4.18
-5.12
-6.25
-7.45
-8.68
-9.98
-11.37
-12.82
-14.11
-14.97
-15.09
-14.27
-12.48
-9.87
-6.72
-3.39
-0.27
2.27
3.99
4.82
4.85
4.33
3.62
3.03
2.74
2.82
3.19
3.77
4.52
5.41
6.41
7.42
8.24
8.66
8.56
7.96
7.12
6.33
5.86
5.79
6.06
6.49
6.93
7.28
7.46
7.36
6.85
5.79
4.14
2.03
-0.35
-2.68
-4.72
-6.35
-7.52
-8.33
-8.94
-9.56
-10.37
-11.51
-12.93
-14.34
-15.36
-15.56
-14.68
-12.68
-9.77
-6.35
-2.82
0.45
3.2
5.28
6.62
7.26
7.33
7.08
6.79
6.7
6.94
7.43
7.97
8.27
8.12
7.52
6.64
5.75
5.05
4.62
4.37
4.18
3.97
3.76
3.62
3.61
3.75
3.94
4
3.78
3.19
2.25
1.1
-0.08
-1.19
-2.23
-3.35
-4.79
-6.75
-9.21
-11.91
-14.4
-16.22
-17.07
-16.82
-15.55
-13.4
-10.6
-7.4
-4.08
-1.02
1.52
3.34
4.47
5.13
5.55
5.91
6.27
6.62
6.89
7.09
7.25
7.42
7.6
7.75
7.8
7.72
7.52
7.31
7.19
7.24
7.43
7.62
7.57
7.08
6.04
4.55
2.81
1.09
-0.43
-1.69
-2.81
-3.99
-5.43
-7.2
-9.27
-11.42
-13.4
-14.97
-15.95
-16.25
-15.8
-14.59
-12.62
-9.97
-6.86
-3.64
-0.68
1.71
3.36
4.32
4.76
4.91
4.97
5.07
5.28
5.67
6.22
6.84
7.38
7.65
7.56
7.16
6.61
6.15
5.93
5.91
5.88
5.56
4.75
3.42
1.69
-0.19
-1.92
-3.28
-4.16
-4.67
-5.09
-5.77
-7.02
-8.95
-11.43
-14.09
-16.45
-18.04
-18.53
-17.75
-15.75
-12.75
-9.1
-5.28
-1.75
1.16
3.26
4.61
5.38
5.79
6.04
6.22
6.38
6.52
6.67
6.93
7.4
8.17
9.16
10.17
10.86
10.98
10.48
9.56
8.52
7.61
6.84
6.04
5.02
3.69
2.13
0.55
-0.85
-1.96
-2.77
-3.32
-3.69
-4.02
-4.57
-5.63
-7.42
-9.89
-12.77
-15.6
-17.95
-19.53
-20.22
-20
-18.82
-16.67
-13.66
-10.11
-6.54
-3.49
-1.3
0.05
0.86
1.59
2.51
3.7
5.04
6.32
7.42
8.33
9.06
9.63
10.02
10.17
10.14
10.09
10.23
10.71
11.52
12.46
13.25
13.57
13.25
12.24
10.69
8.9
7.17
5.79
4.82
4.14
3.5
2.62
1.32
-0.39
-2.35
-4.32
-6.11
-7.66
-8.99
-10.2
-11.44
-12.83
-14.44
-16.22
-17.92
-19.18
-19.63
-19
-17.34
-14.93
-12.13
-9.25
-6.47
-3.75
-1.02
1.7
4.28
6.5
8.14
9.16
9.68
9.95
10.22
10.63
11.17
11.7
12.07
12.2
12.13
11.99
11.9
11.92
12.02
12.08
11.96
11.58
10.9
9.97
8.88
7.71
6.58
5.52
4.54
3.61
2.73
1.89
1.13
0.48
-0.12
-0.74
-1.52
-2.59
-4
-5.78
-7.9
-10.29
-12.86
-15.44
-17.8
-19.65
-20.71
-20.76
-19.76
-17.85
-15.29
-12.41
-9.44
-6.49
-3.61
-0.87
1.63
3.72
5.23
6.15
6.65
6.99
7.38
7.94
8.6
9.26
9.82
10.25
10.53
10.71
10.8
10.85
10.89
10.91
10.87
10.7
10.38
9.92
9.44
9.03
8.73
8.48
8.12
7.48
6.43
4.97
3.2
1.28
-0.56
-2.13
-3.24
-3.86
-4.1
-4.22
-4.55
-5.33
-6.7
-8.66
-11.08
-13.76
-16.42
-18.65
-19.99
-20.05
-18.67
-16.02
-12.54
-8.83
-5.37
-2.4
0.1
2.3
4.37
6.32
8.08
9.49
10.46
10.97
11.03
10.77
10.37
10.04
9.93
10.19
10.79
11.53
12.09
12.15
11.51
10.22
8.54
6.83
5.42
4.45
3.87
3.53
3.24
2.94
2.61
2.25
1.83
1.26
0.48
-0.5
-1.5
-2.37
-3.02
-3.53
-4.04
-4.74
-5.7
-6.86
-8.11
-9.41
-10.86
-12.63
-14.84
-17.31
-19.55
-20.85
-20.59
-18.58
-15.1
-10.92
-6.89
-3.64
-1.37
0.16
1.38
2.67
4.17
5.82
7.37
8.63
9.49
9.98
10.22
10.33
10.44
10.56
10.67
10.69
10.58
10.37
10.14
9.93
9.75
9.55
9.22
8.71
8.03
7.23
6.35
5.4
4.35
3.19
1.98
0.85
-0.08
-0.72
-1.12
-1.41
-1.77
-2.28
-2.94
-3.67
-4.34
-4.92
-5.49
-6.22
-7.3
-8.85
-10.81
-12.91
-14.78
-15.99
-16.24
-15.43
-13.62
-11.01
-7.89
-4.59
-1.48
1.09
2.9
3.89
4.25
4.31
4.42
4.81
5.48
6.32
7.12
7.82
8.44
9.05
9.72
10.38
10.88
11.06
10.87
10.44
9.98
9.65
9.41
9.05
8.21
6.69
4.6
2.37
0.55
-0.42
-0.53
-0.13
0.25
0.2
-0.4
-1.34
-2.31
-3.13
-3.74
-4.28
-4.86
-5.56
-6.38
-7.31
-8.42
-9.75
-11.31
-13
-14.6
-15.88
-16.56
-16.47
-15.49
-13.65
-11.15
-8.25
-5.26
-2.45
0.01
1.97
3.32
3.99
3.99
3.5
2.91
2.66
3.03
4.02
5.27
6.29
6.78
6.75
6.49
6.4
6.66
7.2
7.78
8.12
8.11
7.79
7.26
6.59
5.8
4.91
3.98
3.18
2.62
2.36
2.29
2.15
1.72
0.86
-0.45
-2.03
-3.68
-5.2
-6.48
-7.55
-8.61
-9.9
-11.59
-13.63
-15.66
-17.18
-17.68
-16.89
-14.84
-11.92
-8.59
-5.31
-2.39
0.1
2.1
3.59
4.5
4.75
4.41
3.72
3.07
2.82
3.18
4.06
5.12
5.94
6.24
6.03
5.58
5.29
5.46
6.13
7.05
7.82
8.12
7.79
6.94
5.82
4.64
3.53
2.44
1.34
0.27
-0.64
-1.16
-1.16
-0.73
-0.12
0.27
0.07
-0.9
-2.57
-4.71
-6.99
-9.13
-10.94
-12.33
-13.16
-13.29
-12.55
-10.84
-8.33
-5.42
-2.64
-0.45
0.91
1.53
1.67
1.64
1.58
1.47
1.29
1.07
1.02
1.44
2.51
4.17
6.02
7.56
8.31
8.12
7.21
6.04
5.06
4.53
4.34
4.18
3.75
2.91
1.79
0.71
-0.09
-0.54
-0.77
-1.09
-1.72
-2.74
-4.09
-5.65
-7.38
-9.3
-11.44
-13.73
-15.82
-17.26
-17.58
-16.55
-14.25
-11.18
-7.97
-5.18
-3.09
-1.58
-0.35
0.95
2.45
4.01
5.34
6.18
6.49
6.44
6.27
6.15
6.06
5.88
5.5
4.96
4.38
3.92
3.64
3.48
3.23
2.74
1.88
0.67
-0.75
-2.18
-3.42
-4.27
-4.68
-4.79
-4.91
-5.47
-6.86
-9.25
-12.4
-15.74
-18.48
-19.89
-19.56
-17.58
-14.47
-10.99
-7.83
-5.36
-3.53
-2.06
-0.59
1.06
2.81
4.44
5.69
6.5
6.95
7.25
7.6
8.09
8.64
9.08
9.24
9.05
8.56
7.9
7.22
6.62
6.08
5.55
4.95
4.23
3.41
2.53
1.63
0.71
-0.24
-1.26
-2.38
-3.59
-4.91
-6.43
-8.29
-10.58
-13.23
-15.94
-18.17
-19.36
-19.1
-17.41
-14.62
-11.31
-8.05
-5.22
-3
-1.32
-0.04
1.02
1.95
2.86
3.79
4.83
5.99
7.25
8.49
9.53
10.23
10.55
10.58
10.52
10.55
10.69
10.85
10.82
10.44
9.72
8.85
8.08
7.53
7.16
6.77
6.14
5.1
3.68
1.97
0.14
-1.69
-3.45
-5.15
-6.79
-8.44
-10.2
-12.22
-14.58
-17.24
-19.96
-22.31
-23.78
-23.97
-22.74
-20.2
-16.69
-12.68
-8.59
-4.73
-1.35
1.41
3.5
5
6.09
7.03
8.02
9.16
10.42
11.7
12.87
13.84
14.52
14.87
14.9
14.68
14.37
14.14
14.13
14.32
14.54
14.58
14.26
13.5
12.35
10.89
9.29
7.65
6.05
4.55
3.18
1.96
0.89
-0.03
-0.79
-1.45
-2.12
-3
-4.28
-6.12
-8.57
-11.51
-14.68
-17.73
-20.31
-22.06
-22.72
-22.17
-20.46
-17.84
-14.66
-11.28
-8.03
-5.09
-2.58
-0.47
1.32
2.93
4.49
6.07
7.56
8.78
9.55
9.86
9.91
10.02
10.52
11.52
12.87
14.19
15.15
15.58
15.54
15.26
14.98
14.73
14.36
13.62
12.32
10.49
8.42
6.57
5.29
4.71
4.59
4.49
4
2.92
1.41
-0.2
-1.56
-2.55
-3.27
-3.99
-4.93
-6.16
-7.58
-9.05
-10.54
-12.09
-13.8
-15.64
-17.39
-18.63
-18.93
-18.04
-15.96
-12.95
-9.45
-5.88
-2.55
0.36
2.83
4.88
6.55
7.88
8.9
9.65
10.14
10.41
10.47
10.37
10.21
10.09
10.13
10.36
10.71
11.05
11.16
10.94
10.36
9.56
8.76
8.23
8.07
8.24
8.51
8.58
8.26
7.55
6.62
5.73
5.08
4.62
4.17
3.48
2.44
1.11
-0.29
-1.48
-2.3
-2.76
-3.01
-3.29
-3.81
-4.78
-6.31
-8.37
-10.81
-13.29
-15.42
-16.76
-17.02
-16.1
-14.11
-11.3
-8.02
-4.62
-1.39
1.43
3.66
5.25
6.18
6.54
6.48
6.2
5.94
5.89
6.22
6.96
8.05
9.31
10.49
11.35
11.76
11.69
11.32
10.87
10.55
10.41
10.39
10.31
10.01
9.42
8.59
7.62
6.69
5.9
5.3
4.85
4.47
4.07
3.5
2.7
1.63
0.4
-0.85
-1.95
-2.83
-3.53
-4.22
-5.12
-6.39
-8.1
-10.17
-12.4
-14.55
-16.39
-17.73
-18.41
-18.33
-17.43
-15.68
-13.18
-10.16
-6.96
-3.95
-1.42
0.53
1.93
2.93
3.62
4.02
4.12
3.96
3.71
3.7
4.2
5.38
7.11
9.08
10.85
12.05
12.47
12.11
11.16
9.89
8.61
7.53
6.8
6.37
6.21
6.18
6.19
6.11
5.78
5.04
3.82
2.23
0.57
-0.8
-1.64
-1.93
-1.93
-2.02
-2.51
-3.44
-4.64
-5.82
-6.75
-7.34
-7.72
-8.13
-8.8
-9.82
-11.06
-12.19
-12.79
-12.52
-11.24
-9.11
-6.49
-3.79
-1.34
0.63
2.04
2.91
3.31
3.36
3.24
3.15
3.27
3.67
4.37
5.27
6.29
7.3
8.14
8.71
8.92
8.8
8.45
8.02
7.6
7.14
6.48
5.47
4.16
2.75
1.58
0.9
0.73
0.88
1.04
0.94
0.48
-0.28
-1.23
-2.24
-3.27
-4.27
-5.15
-5.79
-6.08
-6.04
-5.83
-5.76
-6.18
-7.36
-9.31
-11.8
-14.35
-16.37
-17.31
-16.82
-14.93
-11.99
-8.61
-5.42
-2.85
-1.05
0.12
0.88
1.46
1.95
2.39
2.84
3.38
4.12
5.08
6.16
7.13
7.8
8.06
7.98
7.73
7.49
7.37
7.32
7.23
6.93
6.36
5.55
4.57
3.56
2.57
1.67
0.84
0.12
-0.51
-1.03
-1.47
-1.9
-2.39
-3
-3.73
-4.54
-5.36
-6.19
-7.08
-8.07
-9.23
-10.53
-11.91
-13.21
-14.23
-14.73
-14.56
-13.63
-11.98
-9.81
-7.33
-4.76
-2.3
-0.14
1.59
2.82
3.58
3.94
4
3.85
3.55
3.17
2.81
2.6
2.71
3.19
4
4.97
5.84
6.42
6.59
6.36
5.86
5.23
4.61
4.06
3.62
3.22
2.76
2.16
1.39
0.5
-0.44
-1.35
-2.25
-3.12
-4
-4.89
-5.71
-6.44
-7.09
-7.78
-8.66
-9.88
-11.39
-12.94
-14.11
-14.44
-13.7
-11.93
-9.45
-6.67
-3.93
-1.4
0.9
2.94
4.64
5.85
6.43
6.35
5.77
4.91
3.96
3.14
2.6
2.48
2.87
3.75
4.89
5.93
6.52
6.49
5.91
5.03
4.12
3.34
2.67
2.02
1.33
0.64
0.05
-0.4
-0.74
-1.17
-1.85
-2.8
-3.91
-4.94
-5.7
-6.16
-6.55
-7.17
-8.21
-9.52
-10.65
-11
-10.11
-7.95
-4.93
-1.77
0.88
2.65
3.56
3.89
3.95
3.95
3.88
3.73
3.45
3.16
3
3.14
3.58
4.22
4.83
5.22
5.32
5.19
5
4.9
4.91
4.93
4.76
4.21
3.24
2
0.75
-0.21
-0.75
-0.91
-0.95
-1.2
-1.88
-3.08
-4.73
-6.68
-8.68
-10.48
-11.79
-12.36
-12.01
-10.7
-8.62
-6.16
-3.74
-1.68
-0.13
0.96
1.77
2.42
2.97
3.37
3.61
3.67
3.63
3.59
3.61
3.73
3.91
4.06
4.11
3.99
3.73
3.38
3.05
2.79
2.53
2.13
1.44
0.36
-1.03
-2.58
-4.08
-5.41
-6.64
-7.89
-9.3
-10.91
-12.6
-14.14
-15.33
-15.96
-15.91
-15.11
-13.51
-11.16
-8.2
-4.96
-1.83
0.79
2.59
3.46
3.49
2.93
2.13
1.45
1.16
1.39
2.1
3.12
4.23
5.22
5.93
6.31
6.43
6.41
6.42
6.55
6.82
7.06
7.03
6.42
5.06
2.97
0.41
-2.18
-4.36
-5.83
-6.54
-6.74
-6.89
-7.44
-8.73
-10.79
-13.35
-15.89
-17.8
-18.58
-18.01
-16.18
-13.5
-10.46
-7.52
-4.98
-2.87
-1.04
0.7
2.45
4.2
5.87
7.33
8.51
9.35
9.76
9.67
9.07
8.11
7.11
6.37
6.12
6.34
6.88
7.55
8.19
8.74
9.16
9.31
8.99
8.07
6.57
4.75
2.99
1.59
0.65
0.04
-0.46
-1.04
-1.77
-2.65
-3.63
-4.79
-6.28
-8.26
-10.79
-13.74
-16.73
-19.29
-20.96
-21.4
-20.48
-18.33
-15.24
-11.61
-7.86
-4.36
-1.35
1.08
2.99
4.53
5.86
7.06
8.16
9.13
10
10.84
11.68
12.52
13.31
13.95
14.38
14.61
14.69
14.65
14.47
14.07
13.35
12.31
11.1
9.91
8.94
8.3
7.89
7.52
6.97
6.05
4.74
3.09
1.31
-0.38
-1.79
-2.84
-3.58
-4.24
-5.1
-6.34
-8
-9.95
-12
-13.96
-15.67
-17
-17.81
-17.91
-17.08
-15.3
-12.66
-9.52
-6.29
-3.37
-0.9
1.22
3.23
5.37
7.64
9.82
11.55
12.49
12.56
11.97
11.17
10.61
10.56
11
11.74
12.51
13.18
13.77
14.31
14.74
14.88
14.47
13.36
11.65
9.66
7.8
6.45
5.72
5.49
5.46
5.28
4.72
3.8
2.71
1.71
1.02
0.61
0.31
-0.19
-1.14
-2.64
-4.6
-6.79
-9.04
-11.27
-13.5
-15.7
-17.68
-19.09
-19.5
-18.66
-16.66
-13.89
-10.9
-8.17
-5.9
-4.05
-2.4
-0.74
1.01
2.76
4.4
5.82
7.01
8.03
8.95
9.8
10.61
11.4
12.19
12.97
13.67
14.11
14.13
13.66
12.76
11.7
10.71
10.02
9.6
9.31
8.94
8.37
7.62
6.76
5.84
4.82
3.63
2.28
0.91
-0.29
-1.16
-1.77
-2.37
-3.24
-4.57
-6.26
-8.03
-9.59
-10.8
-11.76
-12.6
-13.46
-14.2
-14.55
-14.21
-13
-11.02
-8.46
-5.66
-2.83
-0.16
2.25
4.24
5.67
6.45
6.6
6.33
5.92
5.63
5.61
5.84
6.23
6.68
7.14
7.53
7.82
7.94
7.86
7.6
7.26
6.95
6.71
6.51
6.29
6.01
5.72
5.56
5.61
5.84
6.12
6.18
5.89
5.16
4.06
2.74
1.32
-0.09
-1.47
-2.81
-4.18
-5.67
-7.36
-9.26
-11.28
-13.21
-14.74
-15.66
-15.8
-15.13
-13.73
-11.7
-9.22
-6.53
-3.89
-1.57
0.26
1.62
2.62
3.4
4.07
4.6
4.98
5.2
5.38
5.65
6.11
6.76
7.47
8.15
8.68
8.99
9
8.69
8.08
7.31
6.58
6.06
5.85
5.87
5.94
5.89
5.65
5.25
4.77
4.19
3.43
2.37
0.97
-0.69
-2.41
-3.97
-5.21
-6.1
-6.71
-7.22
-7.78
-8.56
-9.65
-11.02
-12.56
-14.03
-15.12
-15.57
-15.19
-13.95
-11.97
-9.49
-6.78
-4.1
-1.65
0.44
2.08
3.27
4.05
4.52
4.82
5.08
5.4
5.83
6.38
7
7.6
8.03
8.2
8.07
7.72
7.3
6.97
6.8
6.78
6.81
6.74
6.47
6
5.39
4.72
4.08
3.57
3.21
3.02
2.96
2.95
2.91
2.74
2.39
1.87
1.16
0.23
-0.97
-2.52
-4.39
-6.5
-8.6
-10.44
-11.74
-12.35
-12.21
-11.34
-9.8
-7.64
-4.98
-2.08
0.68
2.91
4.35
4.97
4.95
4.55
3.99
3.39
2.78
2.26
1.95
2.04
2.6
3.54
4.64
5.66
6.39
6.76
6.79
6.55
6.1
5.5
4.84
4.21
3.66
3.16
2.63
2.04
1.37
0.75
0.26
-0.08
-0.34
-0.65
-1.08
-1.64
-2.33
-3.21
-4.37
-5.91
-7.79
-9.74
-11.29
-11.98
-11.55
-10.09
-7.96
-5.62
-3.46
-1.66
-0.25
0.82
1.57
1.99
2.07
1.84
1.4
0.87
0.32
-0.18
-0.59
-0.83
-0.79
-0.42
0.22
1.02
1.78
2.38
2.84
3.2
3.59
4
4.28
4.17
3.48
2.19
0.51
-1.15
-2.43
-3.14
-3.41
-3.52
-3.85
-4.63
-5.89
-7.52
-9.34
-11.17
-12.87
-14.24
-15.06
-15.08
-14.16
-12.34
-9.88
-7.16
-4.56
-2.37
-0.71
0.41
1.1
1.43
1.49
1.38
1.14
0.9
0.79
0.9
1.3
1.93
2.6
3.1
3.27
3.13
2.89
2.78
3.01
3.49
3.94
3.98
3.39
2.13
0.42
-1.36
-2.89
-3.91
-4.39
-4.48
-4.47
-4.7
-5.47
-6.87
-8.84
-11.12
-13.34
-15.16
-16.38
-16.88
-16.62
-15.58
-13.76
-11.25
-8.29
-5.25
-2.56
-0.54
0.75
1.47
1.97
2.52
3.21
3.91
4.41
4.57
4.44
4.21
4
3.81
3.46
2.81
1.91
1.08
0.71
1.05
2.04
3.26
4.14
4.28
3.57
2.25
0.68
-0.8
-2.02
-2.96
-3.68
-4.26
-4.81
-5.5
-6.52
-8.01
-10.02
-12.28
-14.34
-15.67
-15.81
-14.63
-12.3
-9.28
-6.12
-3.26
-0.94
0.8
2.03
2.93
3.68
4.39
5.1
5.74
6.2
6.44
6.46
6.42
6.52
6.84
7.3
7.74
8
7.98
7.74
7.35
6.87
6.29
5.53
4.55
3.43
2.32
1.31
0.49
-0.18
-0.73
-1.21
-1.65
-2.12
-2.71
-3.53
-4.64
-6.01
-7.5
-8.97
-10.29
-11.41
-12.24
-12.58
-12.23
-11
-8.97
-6.51
-4.08
-2.05
-0.51
0.76
2.02
3.34
4.57
5.41
5.71
5.55
5.32
5.37
5.86
6.63
7.35
7.76
7.8
7.59
7.39
7.41
7.72
8.23
8.76
9.1
9.1
8.7
7.97
7.05
6.05
4.97
3.75
2.28
0.56
-1.23
-2.79
-3.9
-4.5
-4.79
-5.14
-5.87
-7.22
-9.12
-11.34
-13.39
-14.8
-15.12
-14.14
-11.94
-8.89
-5.53
-2.39
0.13
1.93
3.14
4.02
4.77
5.44
5.94
6.14
5.99
5.63
5.3
5.26
5.7
6.58
7.64
8.55
9.02
8.97
8.53
7.95
7.42
7.03
6.72
6.43
6.1
5.8
5.62
5.6
5.62
5.46
4.89
3.84
2.47
1.1
0.01
-0.7
-1.15
-1.66
-2.52
-3.89
-5.72
-7.74
-9.59
-10.87
-11.32
-10.8
-9.34
-7.13
-4.52
-1.92
0.29
1.95
3.06
3.84
4.52
5.28
6.18
7.13
7.97
8.58
8.92
9.04
9.02
8.93
8.81
8.66
8.5
8.36
8.28
8.25
8.24
8.12
7.75
7
5.82
4.31
2.7
1.3
0.34
-0.01
0.22
0.85
1.53
1.92
1.76
0.96
-0.39
-2.08
-3.87
-5.6
-7.15
-8.39
-9.16
-9.28
-8.63
-7.26
-5.42
-3.48
-1.76
-0.42
0.6
1.44
2.21
2.89
3.46
3.89
4.33
4.94
5.84
7
8.14
8.97
9.25
8.91
8.05
6.89
5.65
4.51
3.59
2.91
2.44
2.13
1.93
1.8
1.68
1.5
1.15
0.51
-0.42
-1.53
-2.59
-3.36
-3.77
-3.94
-4.18
-4.88
-6.24
-8.16
-10.3
-12.13
