-5.52
-7.5
-9.26
-10.72
-11.9
-12.92
-14.02
-15.4
-17.15
-19.14
-21.01
-22.28
-22.46
-21.31
-18.87
-15.46
-11.53
-7.58
-4.02
-1.09
1.1
2.58
3.47
3.97
4.3
4.7
5.34
6.28
7.44
8.67
9.82
10.76
11.44
11.93
12.29
12.55
12.67
12.55
12.09
11.28
10.15
8.82
7.43
6.12
4.92
3.84
2.81
1.75
0.62
-0.6
-1.86
-3.09
-4.26
-5.37
-6.52
-7.79
-9.32
-11.24
-13.62
-16.32
-19.07
-21.47
-23.01
-23.35
-22.33
-20.08
-16.99
-13.57
-10.27
-7.44
-5.2
-3.5
-2.21
-1.19
-0.36
0.3
0.78
1.15
1.5
1.95
2.58
3.32
4.01
4.44
4.45
4.02
3.28
2.42
1.6
0.91
0.33
-0.29
-1.17
-2.54
-4.53
-7.13
-10.11
-13.17
-16.08
-18.79
-21.52
-24.57
-28.21
-32.5
-37.27
-42.28
-47.26
-52.04
-56.51
-60.52
-63.83
-66.21
-67.63
-68.29
-68.69
-69.42
-70.92
-73.36
-76.68
-80.52
-84.56
-88.46
-91.87
-94.32
-95.13
-93.46
-88.4
-79.36
-66.05
-48.74
-28.14
-5.3
18.56
42.16
64.27
83.78
99.78
111.6
118.91
121.79
120.77
116.73
110.76
103.91
97.01
90.46
84.33
78.39
72.33
65.94
59.22
52.44
46.09
40.69
36.66
34.14
32.93
32.62
32.73
32.86
32.74
32.26
31.44
30.3
28.91
27.36
25.78
24.29
22.98
21.84
20.81
19.75
18.53
17.11
15.56
14.03
12.73
11.81
11.29
11.04
10.8
10.26
9.21
7.62
5.62
3.49
1.56
0.07
-0.82
-1.1
-0.9
-0.49
-0.21
-0.48
-1.53
-3.37
-5.72
-8.02
-9.61
-10
-8.95
-6.62
-3.39
0.26
3.9
7.2
9.98
12.14
13.64
14.53
14.87
14.75
14.27
13.43
12.25
10.79
9.24
7.91
7.13
7.09
7.76
8.8
9.79
10.32
10.25
9.6
8.58
7.36
6.01
4.5
2.75
0.75
-1.43
-3.62
-5.65
-7.42
-8.87
-10.05
-11.12
-12.35
-13.99
-16.26
-19.09
-22.1
-24.68
-26.13
-25.86
-23.6
-19.51
-14.06
-7.98
-2.02
3.2
7.32
10.32
12.48
14.24
15.97
17.78
19.44
20.54
20.74
19.9
18.21
16.06
13.83
11.75
9.96
8.55
7.71
7.72
8.78
10.86
13.57
16.24
18.13
18.71
17.76
15.5
12.35
8.9
5.65
2.91
0.77
-0.86
-2.24
-3.67
-5.38
-7.52
-10.06
-12.94
-16.02
-19.16
-22.14
-24.71
-26.54
-27.29
-26.74
-24.89
-22.04
-18.72
-15.48
-12.76
-10.75
-9.35
-8.36
-7.54
-6.69
-5.74
-4.62
-3.26
-1.64
0.28
2.42
4.66
6.84
8.78
10.32
11.32
11.79
11.83
11.78
12.05
13.04
14.92
17.61
20.77
23.94
26.62
28.47
29.31
29.16
28.16
26.51
24.47
22.23
20.02
18.02
16.29
14.74
13.08
10.91
7.85
3.75
-1.21
-6.54
-11.6
-15.83
-18.86
-20.55
-20.96
-20.27
-18.74
-16.66
-14.43
-12.37
-10.76
-9.72
-9.19
-9.03
-9.1
-9.26
-9.46
-9.62
-9.63
-9.37
-8.72
-7.67
-6.28
-4.7
-3.11
-1.63
-0.29
0.97
2.17
3.3
4.21
4.69
4.55
3.77
2.46
0.93
-0.51
-1.66
-2.5
-3.16
-3.85
-4.67
-5.58
-6.39
-6.93
-7.12
-7.11
-7.21
-7.77
-9
-10.88
-13.16
-15.48
-17.43
-18.64
-18.79
-17.74
-15.56
-12.56
-9.23
-6.05
-3.34
-1.14
0.73
2.48
4.15
5.61
6.62
7
6.8
6.28
5.75
5.47
5.57
6.02
6.7
7.51
8.35
9.17
9.95
10.63
11.19
11.52
11.52
11.15
10.41
9.4
8.27
7.12
5.92
4.58
3.02
1.23
-0.62
-2.31
-3.59
-4.4
-4.85
-5.23
-5.83
-6.9
-8.56
-10.8
-13.5
-16.4
-19.12
-21.13
-21.91
-21.11
-18.74
-15.22
-11.27
-7.61
-4.77
-2.9
-1.8
-1.17
-0.72
-0.34
-0.02
0.18
0.31
0.5
0.95
1.79
3.07
4.7
6.46
8.13
9.53
10.48
10.86
10.63
9.85
8.69
7.4
6.23
5.35
4.74
4.22
3.57
2.59
1.24
-0.36
-2.02
-3.52
-4.74
-5.65
-6.27
-6.68
-6.97
-7.3
-7.85
-8.83
-10.32
-12.23
-14.2
-15.75
-16.35
-15.71
-13.81
-10.92
-7.52
-4.11
-1.07
1.38
3.22
4.57
5.58
6.36
6.95
7.32
7.45
7.33
7.05
6.72
6.44
6.28
6.21
6.24
6.35
6.57
6.88
7.15
7.21
6.84
5.94
4.55
2.92
1.3
-0.05
-1.07
-1.86
-2.64
-3.61
-4.85
-6.25
-7.59
-8.67
-9.38
-9.8
-10.1
-10.49
-11.07
-11.87
-12.84
-13.84
-14.66
-15.01
-14.53
-12.98
-10.35
-6.98
-3.42
-0.24
2.18
3.75
4.62
4.99
5
4.71
4.2
3.6
3.12
2.89
2.96
3.25
3.63
4.05
4.53
5.12
5.79
6.41
6.78
6.73
6.24
5.41
4.44
3.52
2.74
2.11
1.53
0.86
0.02
-1
-2.09
-3.08
-3.86
-4.38
-4.76
-5.16
-5.69
-6.42
-7.34
-8.42
-9.67
-11.07
-12.49
-13.64
-14.16
-13.74
-12.27
-9.9
-6.98
-3.83
-0.64
2.54
5.7
8.71
11.28
13.03
13.69
13.19
11.75
9.77
7.78
6.29
5.7
6.23
7.86
10.29
13.07
15.73
17.86
19.25
19.82
19.54
18.43
16.49
13.85
10.8
7.8
5.31
3.56
2.47
1.65
0.65
-0.86
-2.94
-5.35
-7.76
-9.9
-11.62
-12.93
-13.92
-14.73
-15.5
-16.39
-17.52
-18.86
-20.22
-21.24
-21.54
-20.87
-19.21
-16.79
-13.96
-11
-8.11
-5.32
-2.64
-0.09
2.25
4.27
5.87
7
7.71
8.13
8.43
8.86
9.61
10.83
12.52
14.56
16.76
18.86
20.68
22.05
22.85
23
22.39
21
18.82
15.95
12.61
9.11
5.81
2.98
0.71
-1.12
-2.71
-4.29
-5.9
-7.45
-8.78
-9.82
-10.7
-11.72
-13.15
-15.07
-17.32
-19.51
-21.2
-22.05
-21.91
-20.82
-18.94
-16.47
-13.67
-10.81
-8.12
-5.79
-3.87
-2.32
-0.97
0.3
1.6
2.91
4.12
5.1
5.78
6.09
6.07
5.74
5.19
4.55
3.99
3.66
3.62
3.81
4.05
4.17
4.04
3.67
3.13
2.49
1.79
1.01
0.11
-0.86
-1.81
-2.63
-3.27
-3.73
-4.06
-4.28
-4.45
-4.7
-5.24
-6.31
-8.05
-10.41
-13.02
-15.32
-16.76
-16.91
-15.7
-13.3
-10.1
-6.47
-2.77
0.7
3.71
6.12
7.86
8.99
9.64
9.94
9.99
9.79
9.32
8.59
7.71
6.91
6.38
6.27
6.5
6.92
7.31
7.56
7.65
7.65
7.61
7.51
7.25
6.68
5.73
4.41
2.82
1.1
-0.63
-2.3
-3.89
-5.42
-6.87
-8.22
-9.42
-10.47
-11.46
-12.53
-13.86
-15.59
-17.66
-19.76
-21.41
-22.09
-21.44
-19.45
-16.41
-12.81
-9.19
-5.92
-3.16
-0.89
0.97
2.52
3.84
5
6.04
7.03
7.94
8.71
9.27
9.55
9.62
9.62
9.71
10.01
10.49
10.96
11.15
10.83
9.95
8.68
7.25
5.88
4.62
3.34
1.88
0.15
-1.76
-3.63
-5.22
-6.42
-7.31
-8.08
-8.98
-10.12
-11.47
-12.95
-14.46
-15.99
-17.56
-19.14
-20.51
-21.33
-21.2
-19.9
-17.49
-14.3
-10.84
-7.54
-4.64
-2.14
0.12
2.35
4.65
6.94
9.06
10.76
11.9
12.42
12.44
12.17
11.89
11.81
11.99
12.34
12.65
12.68
12.31
11.53
10.49
9.38
8.36
7.48
6.69
5.87
4.9
3.76
2.51
1.27
0.14
-0.88
-1.91
-3.07
-4.46
-6.02
-7.61
-9.06
-10.3
-11.5
-12.88
-14.7
-16.95
-19.38
-21.42
-22.47
-22.1
-20.2
-17.02
-13.12
-9.11
-5.45
-2.34
0.25
2.52
4.62
6.62
8.45
10.06
11.41
12.58
13.66
14.69
15.68
16.55
17.2
17.59
17.74
17.69
17.5
17.17
16.64
15.77
14.44
12.67
10.55
8.34
6.28
4.55
3.19
2.09
1.09
0.03
-1.17
-2.48
-3.8
-5.01
-6.01
-6.7
-7.12
-7.37
-7.77
-8.65
-10.29
-12.77
-15.79
-18.75
-20.95
-21.76
-20.87
-18.44
-14.93
-11
-7.25
-4.04
-1.47
0.54
2.14
3.42
4.36
4.92
5.13
5.08
5.02
5.23
5.92
7.19
8.98
11.11
13.27
15.17
16.55
17.29
17.36
16.84
15.85
14.52
12.95
11.31
9.76
8.46
7.45
6.64
5.72
4.42
2.59
0.31
-2.11
-4.3
-5.99
-7.13
-7.9
-8.59
-9.47
-10.69
-12.28
-14.19
-16.34
-18.64
-20.94
-22.99
-24.39
-24.76
-23.8
-21.52
-18.22
-14.39
-10.56
-7.05
-3.97
-1.25
1.18
3.31
5.03
6.28
7.08
7.58
8
8.48
9.03
9.56
9.92
10.05
9.98
9.81
9.68
9.71
9.94
10.33
10.75
11.05
11.02
10.6
9.78
8.69
7.52
6.4
5.45
4.67
4
3.38
2.79
2.2
1.59
0.87
-0.06
-1.27
-2.77
-4.52
-6.44
-8.5
-10.73
-13.15
-15.65
-17.96
-19.63
-20.16
-19.22
-16.8
-13.23
-9.11
-5.01
-1.3
1.85
4.47
6.61
8.3
9.52
10.24
10.49
10.38
10.05
9.71
9.59
9.85
10.55
11.49
12.36
12.74
12.39
11.34
9.94
8.64
7.78
7.42
7.34
7.25
6.84
6.01
4.76
3.15
1.24
-0.91
-3.21
-5.56
-7.8
-9.77
-11.44
-12.82
-14.17
-15.76
-17.91
-20.71
-23.95
-27.04
-29.21
-29.83
-28.64
-25.92
-22.31
-18.56
-15.22
-12.55
-10.46
-8.76
-7.29
-5.95
-4.71
-3.53
-2.31
-0.93
0.61
2.24
3.75
4.93
5.59
5.68
5.25
4.47
3.46
2.35
1.09
-0.47
-2.53
-5.21
-8.49
-12.06
-15.44
-18.16
-19.85
-20.47
-20.31
-19.79
-19.38
-19.41
-19.99
-21.05
-22.44
-23.93
-25.35
-26.62
-27.86
-29.39
-31.64
-34.85
-38.86
-42.94
-45.97
-46.72
-44.34
-38.52
-29.57
-18.25
-5.46
7.93
21.23
33.97
45.94
57.15
67.87
78.47
89.28
100.45
111.82
122.92
133.1
141.69
148.18
152.41
154.57
155.18
154.86
154.14
153.15
151.54
148.4
142.46
132.36
117.13
96.58
71.64
44.31
17.24
-6.9
-26.2
-39.9
-48.45
-53.1
-55.26
-56.1
-56.38
-56.57
-57.09
-58.5
-61.2
-65.23
-69.93
-74.06
-76.11
-75.02
-70.55
-63.44
-55.01
-46.56
-38.87
-32.03
-25.63
-19.14
-12.31
-5.28
1.51
7.54
12.38
15.81
17.79
18.35
17.56
15.48
12.14
7.52
1.61
-5.53
-13.72
-22.5
-31.29
-39.43
-46.39
-51.9
-56.03
-59.06
-61.39
-63.31
-65.05
-66.64
-67.96
-68.76
-68.58
-66.81
-62.86
-56.36
-47.38
-36.48
-24.5
-12.36
-0.87
9.41
18.04
24.66
29.06
31.37
32.07
32.06
32.29
33.51
35.97
39.38
43.02
46.05
47.83
48.05
46.82
44.62
42.08
39.74
37.87
36.4
35
33.26
30.85
27.56
23.3
18.12
12.13
5.59
-1.11
-7.61
-13.67
-19.31
-24.68
-29.89
-34.85
-39.2
-42.51
-44.63
-45.86
-46.97
-48.69
-51.33
-54.51
-57.36
-58.95
-58.82
-57.23
-54.96
-52.85
-51.36
-50.26
-48.8
-46.14
-41.79
-36.03
-29.86
-24.78
-22.32
-23.38
-27.72
-33.6
-38
-37.5
-29.47
-13.16
9.74
35.58
59.88
78.75
90.13
94.16
92.78
88.87
85.24
83.74
84.62
86.29
85.82
80.05
66.92
46.57
21.5
-4.48
-27.75
-46.21
-59.64
-69.13
-75.87
-80.28
-81.74
-79.2
-72.01
-60.54
-46.09
-30.42
-15.17
-1.38
10.54
20.69
29.4
36.92
43.18
47.9
50.81
51.97
51.92
51.6
51.96
53.52
56.07
58.75
60.5
60.53
58.74
55.72
52.45
49.84
48.36
47.91
48.1
48.45
48.71
48.86
48.95
49.01
48.85
48.14
46.54
43.88
40.21
35.81
31.02
26.11
21.18
16.17
10.9
5.23
-0.84
-7.15
-13.4
-19.24
-24.38
-28.54
-31.51
-33.09
-33.2
-31.9
-29.55
-26.68
-23.96
-21.94
-20.92
-20.88
-21.53
-22.47
-23.34
-23.96
-24.31
-24.49
-24.58
-24.55
-24.33
-23.79
-22.91
-21.77
-20.59
-19.62
-19.06
-18.94
-19.14
-19.43
-19.6
-19.57
-19.35
-19.05
-18.76
-18.55
-18.42
-18.35
-18.32
-18.32
-18.29
-18.17
-17.89
-17.41
-16.7
-15.78
-14.68
-13.44
-12.05
-10.58
-9.13
-7.89
-7
-6.52
-6.35
-6.28
-6.08
-5.61
-4.83
-3.84
-2.81
-1.9
-1.29
-1.11
-1.38
-2.01
-2.76
-3.41
-3.72
-3.7
-3.48
-3.31
-3.4
-3.85
-4.56
-5.4
-6.17
-6.73
-6.97
-6.84
-6.34
-5.58
-4.81
-4.37
-4.53
-5.38
-6.79
-8.4
-9.81
-10.72
-11.03
-10.89
-10.52
-10.13
-9.8
-9.48
-9.04
-8.4
-7.52
-6.46
-5.32
-4.21
-3.23
-2.5
-2.11
-2.09
-2.36
-2.73
-2.95
-2.87
-2.55
-2.24
-2.28
-2.86
-3.87
-4.94
-5.59
-5.49
-4.71
-3.66
-2.9
-2.85
-3.61
-4.86
-6.11
-6.87
-6.87
-6.19
-5.12
-4.03
-3.23
-2.82
-2.79
-3.07
-3.63
-4.52
-5.84
-7.63
-9.82
-12.19
-14.47
-16.39
-17.8
-18.67
-19.09
-19.22
-19.24
-19.28
-19.43
-19.69
-19.97
-20.11
-20.02
-19.72
-19.41
-19.36
-19.77
-20.49
-21
-20.55
-18.7
-15.65
-12.35
-10.12
-9.81
-11.31
-13.7
-15.94
-17.55
-18.71
-19.57
-19.53
-17.1
-10.81
-0.56
11.44
21.15
24.45
19.32
7.01
-8.51
-22.42
-31.21
-33.85
-31.43
-25.92
-18.91
-11.13
-2.78
5.87
14.06
20.66
24.56
25.18
22.82
18.58
14.04
10.77
9.79
11.15
13.78
15.7
14.61
8.7
-2.62
-18.42
-36.44
-53.93
-68.64
-79.54
-86.98
-92.18
-96.42
-100.41
-104.04
-106.82
-108.44
-108.97
-108.71
-107.64
-105.25
-100.97
-94.76
-87.48
-80.43
-74.22
-67.97
-59.37
-45.9
-26.48
-2.4
23.14
46.55
65.57
79.97
90.93
99.72
106.58
110.57
110.42
105.6
96.78
85.63
74.02
63.19
53.45
44.41
35.55
26.62
17.94
10.16
4.03
-0.03
-2.21
-3.23
-4.09
-5.72
-8.5
-12.09
-15.61
-18.02
-18.67
-17.68
-15.93
-14.71
-15.04
-17.27
-20.83
-24.59
-27.33
-28.21
-26.98
-23.9
-19.46
-14.17
-8.42
-2.46
3.41
8.86
13.6
17.44
20.42
22.76
24.78
26.7
28.64
30.59
32.52
34.38
36.17
37.93
39.66
41.36
43
44.53
45.86
46.93
47.67
48.1
48.35
48.66
49.26
50.27
51.58
52.84
53.57
53.24
51.59
48.76
45.29
42.02
39.71
38.61
38.16
37.05
33.59
26.43
15.18
0.67
-15.36
-30.84
-44.11
-54.28
-61.16
-64.91
-65.69
-63.5
-58.47
-51.02
-41.99
-32.46
-23.35
-15.17
-8.16
-2.57
1.16
2.51
1.34
-1.79
-5.58
-8.52
-9.6
-8.76
-6.79
-4.79
-3.55
-3.27
-3.82
-5.19
-7.8
-12.32
-19.27
-28.48
-38.89
-48.8
-56.33
-60.01
-59.37
-55.05
-48.65
-42.05
-36.56
-32.35
-28.42
-23.37
-16.43
-8.11
-0.19
5.17
6.62
4.28
-0.37
-5.32
-9.11
-11.29
-12.34
-13.06
-13.96
-14.94
-15.57
-15.45
-14.42
-12.55
-9.93
-6.4
-1.57
4.94
13.27
23.03
33.25
42.68
50.13
55
57.39
58.06
58.15
58.65
60.19
62.87
66.37
70.13
73.65
76.54
78.61
79.81
80.17
79.66
78.3
76.15
73.28
69.92
66.31
62.7
59.24
55.94
52.7
49.41
46.07
42.76
39.64
36.82
34.32
31.98
29.65
27.23
24.77
22.43
20.39
18.76
17.47
16.37
15.21
13.75
11.83
9.43
6.69
3.86
1.28
-0.81
-2.34
-3.41
-4.23
-5.01
-5.8
-6.49
-6.92
-7.01
-6.83
-6.63
-6.7
-7.18
-8
-8.88
-9.52
-9.71
-9.51
-9.19
-9.1
-9.4
-9.96
-10.32
-9.85
-7.99
-4.39
0.99
7.9
15.86
24.23
32.29
39.38
45.07
49.24
52.01
53.46
53.35
51
45.43
35.79
21.72
3.67
-17.15
-38.76
-58.74
-74.63
-84.5
-87.59
-84.64
-77.72
-69.61
-62.62
-57.73
-54.33
-50.84
-45.74
-38.48
-29.66
-20.57
-12.38
-5.56
0.11
5.11
9.59
13.19
15.2
15.06
12.8
9.15
5.19
1.84
-0.55
-2.29
-4.12
-6.76
-10.53
-15.13
-19.78
-23.54
-25.62
-25.6
-23.44
-19.37
-13.7
-6.75
1.14
9.44
17.46
24.45
29.85
33.59
36.03
37.73
39.05
39.84
39.47
37.18
32.62
26.14
18.8
11.91
6.36
2.28
-1
-4.45
-8.63
-13.23
-17.14
-18.98
-17.85
-13.89
-8.22
-2.5
1.92
4.44
5.28
5.04
4.17
2.61
0
-3.89
-8.75
-13.63
-17.38
-19.11
-18.65
-16.58
-13.87
-11.47
-9.94
-9.38
-9.54
-10.1
-10.76
-11.36
-11.76
-11.95
-11.92
-11.73
-11.37
-10.81
-9.96
-8.75
-7.21
-5.5
-3.81
-2.31
-0.93
0.53
2.3
4.47
6.89
9.23
11.22
12.68
13.61
14.03
13.91
13.12
11.67
9.78
8.05
7.28
8.15
10.95
15.39
20.7
25.9
30.18
33.14
34.78
35.4
35.34
34.82
33.85
32.3
30.08
27.24
23.92
20.42
16.96
13.64
10.42
7.17
3.85
0.48
-2.82
-5.95
-8.93
-11.87
-14.87
-17.93
-20.8
-23.15
-24.69
-25.4
-25.54
-25.63
-26.09
-27.05
-28.19
-28.84
-28.22
-25.81
-21.42
-15.23
-7.63
0.99
10.4
20.52
31.31
42.6
54
64.81
74.15
81.24
85.59
87.14
86.03
82.44
76.46
68.26
58.43
48.28
39.71
34.57
33.82
37.04
42.55
48.23
52.39
54.18
53.36
49.66
42.42
30.97
15.43
-2.45
-19.28
-30.95
-34.1
-27.48
-12.46
7.46
27.91
44.75
54.72
55.62
46.26
26.8
-0.85
-32.96
-64.41
-90.03
-105.97
-110.77
-105.41
-92.57
-75.54
-57.3
-40.08
-25.42
-14.21
-6.59
-1.84
1.48
5.05
10.09
16.88
24.73
32.47
38.93
43.4
45.66
45.86
44.4
41.77
38.57
35.32
32.38
29.8
27.36
24.77
21.79
18.46
15.04
11.89
9.29
7.35
5.93
4.74
3.4
1.59
-0.85
-3.89
-7.27
-10.59
-13.43
-15.55
-16.9
-17.66
-18.06
-18.35
-18.69
-19.18
-19.85
-20.67
-21.53
-22.29
-22.79
-22.98
-22.97
-22.95
-23.15
-23.65
-24.33
-24.87
-24.89
-24.1
-22.41
-19.95
-17.02
-13.99
-11.12
-8.6
-6.45
-4.66
-3.23
-2.21
-1.71
-1.79
-2.41
-3.35
-4.32
-5.04
-5.37
-5.38
-5.3
-5.31
-5.47
-5.66
-5.7
-5.49
-5.15
-5
-5.39
-6.49
-8.2
-10.28
-12.41
-14.33
-15.87
-16.86
-17.11
-16.46
-14.89
-12.57
-9.86
-7.19
-4.82
-2.82
-1.11
0.39
1.66
2.59
3.05
2.99
2.48
1.69
0.78
-0.06
-0.68
-0.98
-0.89
-0.5
-0.01
0.31
0.25
-0.21
-0.92
-1.68
-2.42
-3.2
-4.22
-5.65
-7.46
-9.45
-11.34
-12.88
-13.98
-14.69
-15.09
-15.16
-14.81
-13.95
-12.59
-10.88
-9.07
-7.43
-6.11
-5.14
-4.45
-3.97
-3.67
-3.57
-3.7
-4.03
-4.46
-4.93
-5.35
-5.71
-6.02
-6.31
-6.57
-6.8
-6.98
-7.14
-7.34
-7.62
-8.05
-8.66
-9.44
-10.32
-11.21
-12.01
-12.63
-13
-13.18
-13.21
-13.1
-12.77
-12.01
-10.68
-8.66
-6.07
-3.15
-0.22
2.38
4.43
5.84
6.63
6.91
6.82
6.43
5.83
5.11
4.38
3.77
3.38
3.26
3.28
3.26
2.99
2.32
1.25
-0.04
-1.3
-2.34
-3.09
-3.6
-4.03
-4.55
-5.31
-6.41
-7.8
-9.29
-10.59
-11.31
-11.18
-10.09
-8.17
-5.8
-3.41
-1.37
0.13
1.1
1.65
1.89
1.8
1.33
0.46
-0.65
-1.69
-2.25
-2.11
-1.29
-0.12
0.99
1.67
1.76
1.32
0.49
-0.57
-1.79
-3.12
-4.54
-5.93
-7.21
-8.33
-9.34
-10.37
-11.49
-12.65
-13.63
-14.12
-13.8
-12.54
-10.41
-7.68
-4.72
-1.84
0.71
2.8
4.41
5.53
6.25
6.62
6.73
6.66
6.47
6.18
5.76
5.24
4.62
3.91
3.1
2.1
0.85
-0.7
-2.47
-4.24
-5.73
-6.74
-7.25
-7.47
-7.65
-8.01
-8.58
-9.22
-9.72
-9.93
-9.82
-9.46
-8.86
-7.99
-6.79
-5.24
-3.44
-1.64
-0.13
0.93
1.56
1.89
2.13
2.33
2.43
2.23
1.61
0.54
-0.77
-2
-2.83
-3.13
-2.96
-2.55
-2.1
-1.78
-1.63
-1.61
-1.7
-1.91
-2.3
-2.87
-3.6
-4.41
-5.34
-6.45
-7.88
-9.67
-11.66
-13.44
-14.48
-14.37
-12.98
-10.59
-7.76
-5.07
-2.91
-1.35
-0.14
1.03
2.41
4.03
5.69
7.11
8.04
8.37
8.06
7.19
5.87
4.23
2.46
0.75
-0.77
-2.06
-3.15
-4.13
-5.07
-5.98
-6.86
-7.69
-8.49
-9.34
-10.28
-11.31
-12.37
-13.41
-14.43
-15.43
-16.31
-16.82
-16.6
-15.31
-12.86
-9.46
-5.57
-1.71
1.74
4.57
6.72
8.18
8.95
9.02
8.53
7.74
6.98
6.49
6.41
6.67
7.09
7.43
7.53
7.26
6.63
5.69
4.54
3.3
2.09
0.97
-0.04
-0.94
-1.73
-2.43
-3.07
-3.8
-4.8
-6.21
-7.98
-9.78
-11.09
-11.37
-10.3
-7.96
-4.79
-1.46
1.45
3.58
4.91
5.63
5.96
6.04
5.91
5.54
4.96
4.3
3.73
3.35
3.18
3.12
2.99
2.64
1.99
1.11
0.14
-0.79
-1.6
-2.34
-3.12
-4.14
-5.48
-7.16
-9.07
-11.06
-12.97
-14.76
-16.38
-17.79
-18.81
-19.09
-18.32
-16.25
-12.95
-8.81
-4.45
-0.49
2.67
4.9
6.36
7.29
7.86
8.13
7.99
7.4
6.38
5.08
3.71
2.47
1.5
0.84
0.42
0.13
-0.15
-0.56
-1.2
-2.1
-3.24
-4.56
-5.92
-7.26
-8.53
-9.79
-11.18
-12.84
-14.84
-17.02
-19.02
-20.36
-20.58
-19.41
-16.88
-13.3
-9.19
-5.06
-1.29
1.91
4.51
6.58
8.2
9.45
10.37
11.03
11.48
11.74
11.79
11.57
11.02
10.15
9.05
7.93
6.99
6.38
6.1
5.98
5.73
5.15
4.13
2.7
0.99
-0.88
-2.87
-5.03
-7.47
-10.24
-13.3
-16.5
-19.64
-22.47
-24.75
-26.12
-26.2
-24.65
-21.31
-16.41
-10.51
-4.38
1.22
5.78
9.12
11.31
12.57
13.11
13.08
12.58
11.73
10.73
9.75
9
8.58
8.47
8.6
8.81
8.93
8.86
8.52
7.92
7.09
6.07
4.87
3.53
2.04
0.39
-1.39
-3.24
-5.08
-6.79
-8.29
-9.55
-10.59
-11.54
-12.48
-13.38
-14.07
-14.22
-13.45
-11.53
-8.47
-4.55
-0.22
4.08
8.01
11.38
14.08
16.08
17.32
17.79
17.59
16.94
16.12
15.4
14.9
14.6
14.4
14.15
13.72
13.1
12.28
11.31
10.21
9.04
7.78
6.38
4.75
2.86
0.78
-1.28
-3.1
-4.57
-5.75
-6.91
-8.36
-10.34
-12.88
-15.85
-18.97
-21.81
-23.85
-24.55
-23.46
-20.43
-15.73
-10.06
-4.34
0.63
4.42
7.05
8.82
10.13
11.18
12.02
12.55
12.7
12.5
12.09
11.6
11.11
10.58
9.9
8.99
7.85
6.63
5.56
4.83
4.47
4.31
4.05
3.33
2.01
0.16
-1.92
-3.87
-5.39
-6.43
-7.19
-7.98
-9.13
-10.84
-13.13
-15.85
-18.71
-21.31
-23.11
-23.6
-22.49
-19.76
-15.76
-11.14
-6.54
-2.44
1
3.82
6.14
8.07
9.6
10.69
11.3
11.46
11.28
10.89
10.4
9.89
9.4
8.94
8.53
8.16
7.83
7.5
7.1
6.56
5.8
4.8
3.6
2.27
0.91
-0.36
-1.44
-2.24
-2.67
-2.78
-2.71
-2.72
-3.08
-3.93
-5.26
-6.91
-8.67
-10.38
-11.95
-13.23
-14.01
-13.98
-12.88
-10.68
-7.65
-4.3
-1.21
1.15
2.66
3.42
3.71
3.82
3.93
4.19
4.71
5.52
6.68
8.13
9.77
11.45
12.99
14.21
15
15.3
15.11
14.5
13.57
12.45
11.28
10.13
9.02
7.9
6.68
5.25
3.55
1.63
-0.43
-2.43
-4.27
-5.9
-7.4
-8.96
-10.77
-12.94
-15.48
-18.3
-21.24
-24.04
-26.36
-27.77
-27.86
-26.35
-23.23
-18.87
-13.85
-8.84
-4.31
-0.47
2.74
5.46
7.77
9.62
10.84
11.32
11.08
10.35
9.46
8.75
8.46
8.64
9.2
9.88
10.44
10.65
10.45
9.91
9.23
8.62
8.21
7.95
7.62
6.98
5.83
4.13
2.06
-0.05
-1.9
-3.28
-4.19
-4.83
-5.47
-6.36
-7.64
-9.3
-11.27
-13.5
-15.89
-18.22
-20.08
-20.9
-20.12
-17.45
-13.05
-7.59
-1.98
2.93
6.68
9.27
11
12.25
13.23
13.93
14.2
13.95
13.2
12.25
11.4
10.96
11
11.42
11.92
12.21
12.11
11.57
10.71
9.71
8.73
7.83
7
6.11
5.05
3.73
2.1
0.21
-1.86
-4.02
-6.17
-8.23
-10.16
-12.01
-13.81
-15.64
-17.49
-19.31
-20.9
-21.95
-22.13
-21.09
-18.69
-15.05
-10.57
-5.82
-1.38
2.42
5.53
8.08
10.31
12.26
13.85
14.84
15.13
14.76
13.97
13.06
12.26
11.67
11.23
10.85
10.41
9.85
9.13
8.29
7.35
6.34
5.28
4.1
2.73
1.09
-0.77
-2.74
-4.64
-6.33
-7.73
-8.94
-10.2
-11.75
-13.8
-16.4
-19.4
-22.53
-25.39
-27.53
-28.53
-28.13
-26.25
-23.05
-18.9
-14.25
-9.53
-5.06
-0.99
2.66
5.91
8.77
11.21
13.11
14.37
14.98
15.04
14.75
14.34
14.02
13.84
13.73
13.5
13.02
12.31
11.54
10.9
10.51
10.27
9.89
8.98
7.26
4.72
1.64
-1.41
-3.82
-5.17
-5.45
-5.05
-4.67
-5.04
-6.7
-9.75
-13.9
-18.57
-23.06
-26.75
-29.14
-29.89
-28.83
-26.01
-21.71
-16.47
-10.95
-5.77
-1.31
2.35
5.3
7.7
9.6
10.94
11.6
11.59
11.06
10.39
9.91
9.87
10.25
10.84
11.3
11.34
10.79
9.63
7.94
5.92
3.74
1.57
-0.49
-2.38
-4.13
-5.82
-7.57
-9.51
-11.69
-14.04
-16.36
-18.36
-19.84
-20.76
-21.28
-21.72
-22.38
-23.43
-24.74
-25.91
-26.29
-25.2
-22.11
-16.83
-9.64
-1.27
7.35
15.29
21.97
27.21
31.19
34.26
36.62
38.31
39.16
39.01
37.81
35.74
33.06
30.11
27.1
24.13
21.26
18.52
16.03
13.92
12.25
11.01
10.02
9.08
7.98
6.64
5.04
3.27
1.48
-0.12
-1.39
-2.27
-2.9
-3.57
-4.66
-6.5
-9.17
-12.54
-16.29
-19.99
-23.26
-25.79
-27.28
-27.49
-26.23
-23.46
-19.36
-14.37
-9.06
-3.92
0.71
4.74
8.23
11.21
13.62
15.29
16.05
15.92
15.17
14.23
13.52
13.29
13.53
14.01
14.41
14.51
14.19
13.46
12.45
11.28
10.03
8.71
7.26
5.61
3.74
1.72
-0.36
-2.37
-4.25
-5.97
-7.57
-9.05
-10.5
-12.04
-13.88
-16.24
-19.25
-22.77
-26.36
-29.37
-31.12
-31.12
-29.21
-25.6
-20.77
-15.31
-9.77
-4.54
0.13
4.2
7.65
10.5
12.75
14.33
15.23
15.52
15.34
14.9
14.45
14.18
14.14
14.25
14.35
14.28
13.94
13.32
12.5
11.57
10.61
9.59
8.45
7.05
5.31
3.16
0.67
-2.06
-4.85
-7.53
-9.99
-12.18
-14.16
-16.06
-18.03
-20.23
-22.76
-25.62
-28.64
-31.4
-33.33
-33.79
-32.36
-28.99
-24.09
-18.39
-12.64
-7.36
-2.75
1.28
4.87
8.02
10.56
12.26
13
12.9
12.33
11.77
11.62
12.05
13.01
14.27
15.6
16.81
17.79
18.52
18.95
19.09
18.88
18.27
17.22
15.71
13.8
11.58
9.23
6.93
4.86
3.11
1.66
0.37
-0.96
-2.58
-4.71
-7.47
-10.89
-14.81
-18.88
-22.51
-25.02
-25.75
-24.35
-20.86
-15.83
-10.11
-4.57
0.16
3.87
6.73
9.05
11.09
12.89
14.37
15.4
15.98
16.26
16.41
16.56
16.69
16.7
16.49
16.01
15.33
14.59
13.88
13.22
12.54
11.72
10.63
9.19
7.37
5.22
2.82
0.27
-2.32
-4.84
-7.23
-9.42
-11.41
-13.24
-15.08
-17.14
-19.64
-22.69
-26.06
-29.22
-31.39
-31.85
-30.23
-26.66
-21.72
-16.2
-10.8
-5.91
-1.65
2.04
5.21
7.89
10.06
11.78
13.15
14.27
15.19
15.82
16.05
15.8
15.14
14.23
13.32
12.58
12.08
11.79
11.62
11.48
11.28
10.9
10.14
8.81
6.8
4.21
1.38
-1.19
-3.02
-3.84
-3.77
-3.21
-2.75
-2.94
-4.04
-6.09
-8.89
-12.15
-15.61
-18.94
-21.75
-23.53
-23.76
-22.07
-18.49
-13.48
-7.85
-2.49
2.01
5.48
8.15
10.38
12.41
14.21
15.44
15.78
15.11
13.64
11.85
10.28
9.3
9.03
9.32
9.88
10.4
10.68
10.65
10.33
9.8
9.14
8.36
7.45
6.4
5.2
3.89
2.48
1
-0.56
-2.17
-3.81
-5.44
-7.07
-8.72
-10.57
-12.76
-15.43
-18.6
-22.1
-25.53
-28.35
-29.97
-29.96
-28.18
-24.83
-20.39
-15.45
-10.53
-5.93
-1.78
1.92
5.2
8.07
10.47
12.29
13.48
14.03
14.02
13.68
13.29
13.15
13.38
13.86
14.34
14.55
14.33
13.74
12.9
12.02
11.15
10.28
9.28
8.02
6.39
4.33
1.94
-0.63
-3.14
-5.35
-7.16
-8.62
-9.96
-11.45
-13.3
-15.56
-18.14
-20.87
-23.55
-25.88
-27.48
-27.92
-26.84
-24.14
-20
-14.95
-9.66
-4.79
-0.84
1.88
3.27
3.38
2.48
0.95
-0.73
-2.17
-3.2
-3.88
-4.47
-5.29
-6.64
-8.68
-11.4
-14.68
-18.23
-21.67
-24.64
-26.93
-28.56
-29.76
-30.79
-31.8
-32.69
-33.15
-32.83
-31.58
-29.61
-27.47
-25.88
-25.53
-26.82
-29.74
-33.92
-38.75
-43.57
-47.9
-51.47
-54.23
-56.16
-57.2
-57.24
-56.29
-54.67
-53.1
-52.61
-54.19
-58.35
-64.82
-72.49
-79.65
-84.55
-85.8
-82.86
-76.31
-67.84
-60.03
-55.64
-56.67
-63.42
-74.14
-85.44
-93.6
-95.96
-91.92
-82.88
-71.34
-59.6
-48.88
-39.04
-28.98
-17.23
-2.43
16.19
38.58
63.55
88.88
111.74
129.54
140.75
145.36
144.68
140.72
135.34
129.66
123.87
117.58
110.22
101.44
91.28
80.2
68.76
57.4
46.07
34.42
22.14
9.48
-2.42
-11.8
-17.01
-17.41
-13.8
-8.17
-2.84
0.55
1.67
1.36
0.87
1.09
1.98
2.79
2.59
1.05
-1.44
-3.86
-5.2
-4.93
-3.2
-0.74
1.55
2.96
3.15
2.13
0.19
-2.16
-4.32
-5.64
-5.57
-3.82
-0.46
4.13
9.41
14.85
20.01
24.6
28.43
31.34
33.26
34.18
34.17
33.46
32.33
31.08
30
29.29
29.05
29.25
29.72
30.25
30.51
30.2
29.03
26.79
23.35
18.75
13.23
7.25
1.58
-2.87
-5.2
-4.85
-1.89
2.89
8.16
12.51
14.96
15.21
13.59
10.76
7.25
3.32
-0.97
-5.48
-9.73
-12.97
-14.45
-13.77
-11.08
-7.01
-2.32
2.33
6.62
10.47
13.93
16.98
19.48
21.33
22.63
23.78
25.41
28.19
32.5
38.33
45.2
52.42
59.31
65.42
70.54
74.59
77.42
78.63
77.69
74.15
67.93
59.49
49.79
39.97
30.92
23.01
15.95
8.9
0.88
-8.86
-20.46
-33.35
-46.29
-57.72
-66.18
-70.79
-71.4
-68.54
-63.09
-55.86
-47.43
-38.14
-28.31
-18.46
-9.37
-1.95
3.13
5.65
5.91
4.63
2.65
0.69
-0.8
-1.66
-1.88
-1.56
-0.77
0.44
2
3.78
5.51
6.82
7.38
7.02
5.87
4.36
3.13
2.7
3.3
4.66
6.14
6.96
6.46
4.42
1.06
-3
-7.01
-10.23
-12.15
-12.52
-11.38
-8.97
-5.65
-1.81
2.29
6.42
10.53
14.58
18.48
22.07
25.14
27.51
29.07
29.93
30.28
30.36
30.35
30.34
30.33
30.31
30.26
30.21
30.09
29.8
29.13
27.86
25.82
22.97
19.37
15.2
10.73
6.23
1.96
-1.92
-5.4
-8.62
-11.79
-15.14
-18.84
-22.94
-27.38
-31.92
-36.16
-39.59
-41.68
-42.02
-40.47
-37.23
-32.76
-27.72
-22.72
-18.29
-14.79
-12.44
-11.33
-11.29
-11.97
-12.72
-12.75
-11.23
-7.6
-1.69
6.12
15
23.9
31.8
38.09
42.61
45.57
47.38
48.43
48.91
48.83
48.19
47.05
45.61
44.13
42.74
41.31
39.45
36.57
32.14
25.91
18
8.97
-0.45
-9.59
-17.97
-25.43
-31.97
-37.54
-41.97
-44.9
-45.92
-44.82
-41.72
-37.19
-32.11
-27.4
-23.76
-21.5
-20.5
-20.35
-20.47
-20.13
-18.45
-14.57
-8.08
0.37
8.87
14.62
15.05
9.16
-1.78
-14.58
-25.53
-32.09
-33.8
-32.11
-29.13
-26.33
-23.9
-21.14
-17.31
-12.5
-7.65
-4.06
-2.59
-3.24
-5.25
-7.5
-8.98
-9.05
-7.46
-4.13
0.87
7.36
15.01
23.27
31.45
38.79
44.66
48.67
50.81
51.37
50.88
49.92
48.89
47.91
46.84
45.35
43.19
40.31
36.87
33.18
29.56
26.13
22.85
19.42
15.44
10.51
4.31
-3.19
-11.68
-20.43
-28.45
-34.72
-38.49
-39.62
-38.59
-36.42
-34.26
-33.13
-33.57
-35.6
-38.77
-42.34
-45.46
-47.44
-47.93
-47.11
-45.61
-44.3
-43.83
-44.19
-44.62
-43.88
-40.75
-34.65
-25.75
-14.89
-3.03
9.05
20.89
32.19
42.5
51.07
57.06
59.9
59.69
57.23
53.7
50.2
47.3
44.9
42.45
39.4
35.62
31.57
28.2
26.62
27.71
31.82
38.7
47.6
57.49
67.41
76.67
84.99
92.46
99.27
105.54
111.05
115.18
117.09
115.9
110.98
102.07
89.35
73.45
55.25
35.76
15.86
-3.92
-23.35
-42.29
-60.34
-76.54
-89.37
-97.11
-98.42
-92.93
-81.52
-66.17
-49.44
-33.89
-21.5
-13.42
-9.87
-10.35
-13.9
-19.4
-25.88
-32.53
-38.7
-43.77
-47.19
-48.55
-47.8
-45.31
-41.88
-38.35
-35.43
-33.4
-32.19
-31.47
-30.87
-30.04
-28.64
-26.24
-22.34
-16.52
-8.61
1.08
11.75
22.23
31.26
37.82
41.28
41.58
39.09
34.48
28.52
22.01
15.64
10.07
5.88
3.56
3.39
5.19
8.08
10.43
10.24
5.89
-3.04
-15.27
-28.13
-38.65
-44.92
-46.95
-46.56
-46.21
-47.63
-50.82
-54.24
-55.8
-54.13
-49.24
-42.34
-34.99
-28.26
-22.39
-17.09
-12.05
-7.43
-3.79
-1.71
-1.35
-2.3
-3.8
-5.1
-5.78
-5.87
-5.7
-5.67
-6.03
-6.82
-7.86
-8.92
-9.74
-10.17
-10.12
-9.71
-9.12
-8.59
-8.21
-7.82
-6.98
-5.14
-1.89
2.9
8.94
15.67
22.56
29.32
36.04
43.1
50.96
59.76
69.22
78.53
86.56
92.16
94.46
93.22
88.9
82.52
75.3
68.19
61.62
55.41
48.99
41.74
33.25
23.49
12.93
2.5
-6.48
-12.58
-14.63
-12.19
-5.88
2.78
11.78
19.34
24.47
27.09
27.75
27.2
25.97
24.24
21.99
19.18
15.91
12.45
9.15
6.36
4.29
2.94
2.14
1.64
1.21
0.69
0.05
-0.65
-1.39
-2.27
-3.44
-5.06
-7.14
-9.52
-11.88
-13.85
-15.18
-15.85
-16.11
-16.35
-16.97
-18.15
-19.77
-21.47
-22.82
-23.59
-23.85
-24.03
-24.62
-26
-28.19
-30.87
-33.51
-35.59
-36.81
-37.23
-37.22
-37.35
-38.2
-40.07
-42.95
-46.46
-50
-52.93
-54.75
-55.14
-53.95
-51.25
-47.36
-43.01
-39.37
-37.61
-38.22
-40.42
-42.1
-40.6
-34.14
-22.82
-8.7
5.23
16.55
24.26
28.58
29.93
27.94
21.52
9.79
-6.56
-24.8
-40.92
-51.39
-54.69
-51.71
-44.92
-36.9
-29.18
-22
-15.01
-8
-1.43
3.86
7.16
8.47
8.56
8.71
10.04
13.01
17.3
22.01
26.15
29.11
30.84
31.71
32.27
32.87
33.54
34.16
34.72
35.61
37.56
41.48
47.92
56.66
66.57
75.72
82.03
83.87
80.69
73.09
62.6
51.05
40.04
30.57
23.03
17.39
13.41
10.78
9.08
7.75
6.08
3.36
-0.87
-6.6
-13.32
-20.18
-26.43
-31.63
-35.86
-39.52
-43.11
-46.86
-50.67
-54.14
-56.8
-58.26
-58.27
-56.71
-53.52
-48.73
-42.48
-35.16
-27.31
-19.59
-12.57
-6.67
-2.13
0.99
2.76
3.41
3.24
2.65
1.97
1.41
0.95
0.48
-0.12
-0.93
-1.83
-2.6
-2.96
-2.74
-1.94
-0.72
0.57
1.59
2.08
1.93
1.18
0.04
-1.23
-2.35
-3.18
-3.69
-3.97
-4.22
-4.63
-5.33
-6.27
-7.27
-8.09
-8.53
-8.54
-8.18
-7.65
-7.1
-6.64
-6.24
-5.82
-5.3
-4.67
-3.96
-3.29
-2.73
-2.33
-2.03
-1.72
-1.27
-0.63
0.08
0.66
0.84
0.46
-0.48
-1.79
-3.21
-4.5
-5.52
-6.2
-6.49
-6.36
-5.82
-4.94
-3.93
-3.07
-2.56
-2.46
-2.69
-3.07
-3.5
-3.98
-4.58
-5.37
-6.3
-7.14
-7.63
-7.49
-6.67
-5.29
-3.66
-2.11
-0.88
-0
0.67
1.31
2
2.67
3.13
3.25
3.06
2.74
2.57
2.74
3.23
3.86
4.39
4.65
4.6
4.33
3.96
3.57
3.2
2.83
2.43
1.96
1.42
0.8
0.12
-0.59
-1.28
-1.87
-2.28
-2.49
-2.52
-2.49
-2.53
-2.72
-3.08
-3.56
-4.12
-4.75
-5.49
-6.35
-7.28
-8.08
-8.54
-8.42
-7.63
-6.29
-4.64
-3
-1.61
-0.65
-0.12
0.1
0.21
0.41
0.78
1.24
1.6
1.63
1.26
0.6
-0.09
-0.52
-0.54
-0.24
0.15
0.37
0.27
-0.14
-0.71
-1.25
-1.67
-1.99
-2.26
-2.53
-2.73
-2.77
-2.54
-2.07
-1.52
-1.15
-1.13
-1.48
-2.06
-2.63
-3.01
-3.14
-3.15
-3.21
-3.46
-3.9
-4.42
-4.85
-5.03
-4.9
-4.53
-4.05
-3.6
-3.3
-3.14
-3.09
-3.13
-3.29
-3.72
-4.47
-5.5
-6.59
-7.37
-7.66
-7.47
-7.23
-7.53
-8.93
-11.61
-15.3
-19.38
-23.22
-26.45
-29.08
-31.44
-33.87
-36.5
-39.13
-41.28
-42.49
-42.36
-40.82
-38
-34.29
-30.22
-26.41
-23.48
-21.87
-21.67
-22.38
-23.04
-22.42
-19.5
-13.86
-5.84
3.5
12.83
20.94
27.1
31.12
33.23
33.8
33.15
31.54
29.13
26.18
23.01
20
17.48
15.63
14.33
13.26
11.99
10.16
7.65
4.64
1.56
-1.12
-3.08
-4.32
-5.15
-5.99
-7.2
-8.82
-10.61
-12.11
-12.95
-13.01
-12.53
-12.02
-12.06
-13.14
-15.44
-18.85
-22.93
-27.07
-30.53
-32.64
-32.86
-30.97
-27.14
-21.86
-15.91
-10.06
-4.94
-0.83
2.31
4.7
6.63
8.31
9.77
11
11.94
12.58
12.96
13.17
13.3
13.44
13.66
14.01
14.45
14.87
15.14
15.13
14.78
14.13
13.24
12.1
10.64
8.79
6.56
4.14
1.78
-0.22
-1.84
-3.21
-4.64
-6.4
-8.62
-11.23
-14.12
-17.18
-20.33
-23.51
-26.47
-28.76
-29.81
-29.1
-26.43
-22.1
-16.83
-11.54
-7.05
-3.72
-1.43
0.28
1.99
4.03
6.39
8.83
11.03
12.84
14.37
15.88
17.57
19.49
21.52
23.47
25.18
26.55
27.45
27.68
26.92
24.83
21.29
16.46
10.85
5.19
0.14
-3.91
-6.91
-9.13
-10.97
-12.73
-14.52
-16.34
-18.12
-19.91
-21.89
-24.31
-27.32
-30.91
-34.83
-38.65
-41.84
-43.85
-44.19
-42.38
-38.08
-31.14
-21.74
-10.47
1.69
13.53
23.84
31.71
36.7
39.02
39.33
38.65
38.07
38.6
40.9
45.25
51.33
58.31
64.86
69.53
71.2
69.38
64.5
57.65
50.27
43.65
38.54
35.1
32.96
31.52
30.19
28.51
26.23
23.3
19.77
15.74
11.3
6.51
1.42
-3.87
-9.19
-14.31
-18.96
-22.83
-25.57
-26.83
-26.31
-23.86
-19.67
-14.24
-8.37
-2.91
1.53
4.7
6.76
8.12
9.23
10.36
11.58
12.71
13.54
13.86
13.65
13.04
12.26
11.5
10.83
10.26
9.72
9.17
8.61
8.03
7.38
6.48
5.07
2.98
0.19
-3.04
-6.31
-9.16
-11.29
-12.64
-13.44
-14.07
-15
-16.55
-18.81
-21.62
-24.53
-26.94
-28.22
-27.93
-25.92
-22.4
-17.82
-12.77
-7.73
-3.01
1.22
4.86
7.75
9.71
10.55
10.32
9.31
8.1
7.31
7.32
8.16
9.45
10.66
11.32
11.23
10.48
9.35
8.12
6.94
5.87
4.86
3.89
2.93
1.98
0.96
-0.22
-1.7
-3.53
-5.63
-7.8
-9.82
-11.52
-12.96
-14.37
-16.08
-18.29
-20.91
-23.51
-25.46
-26.18
-25.33
-22.96
-19.43
-15.21
-10.71
-6.19
-1.81
2.28
5.87
8.8
10.97
12.37
13.1
13.29
13.05
12.49
11.75
11.04
10.56
10.41
10.5
10.62
10.47
9.92
9.05
8.1
7.32
6.79
6.38
5.85
4.98
3.67
2
0.18
-1.56
-3.08
-4.34
-5.45
-6.62
-8.03
-9.81
-11.96
-14.42
-17.11
-19.94
-22.79
-25.38
-27.27
-27.92
-26.9
-24.1
-19.84
-14.73
-9.47
-4.54
-0.18
3.66
7.08
10.12
12.74
14.82
16.29
17.2
17.65
17.79
17.75
17.53
17.11
16.45
15.57
14.61
13.78
13.29
13.23
13.47
13.71
13.57
12.78
11.31
9.36
7.28
5.43
3.98
2.88
1.9
0.75
-0.78
-2.75
-5.02
-7.36
-9.55
-11.44
-13.02
-14.45
-15.91
-17.61
-19.61
-21.76
-23.65
-24.75
-24.6
-22.95
-19.9
-15.85
-11.4
-7.06
-3.15
0.27
3.3
6.1
8.7
11.03
12.93
14.22
14.85
14.93
14.7
14.43
14.31
14.36
14.43
14.3
13.81
13.01
12.09
11.27
10.7
10.31
9.88
9.13
7.89
6.18
4.23
2.32
0.72
-0.44
-1.2
-1.75
-2.36
-3.28
-4.62
-6.28
-8.08
-9.73
-11.07
-12.07
-12.9
-13.79
-14.97
-16.54
-18.42
-20.36
-22.01
-22.94
-22.82
-21.46
-18.89
-15.39
-11.32
-7.08
-2.96
0.84
4.19
6.95
9.02
10.31
10.85
10.79
10.41
10.03
9.88
10.04
10.39
10.74
10.88
10.7
10.23
9.59
8.94
8.4
8
7.67
7.27
6.7
5.91
4.95
3.93
2.98
2.16
1.48
0.82
0.06
-0.87
-2.01
-3.26
-4.51
-5.67
-6.74
-7.81
-8.98
-10.4
-12.12
-14.11
-16.24
-18.23
-19.73
-20.32
-19.64
-17.53
-14.17
-9.94
-5.44
-1.25
2.29
5.01
7.03
8.53
9.67
10.53
11.1
11.36
11.37
11.23
11.05
10.86
10.64
10.28
9.76
9.13
8.55
8.15
8
7.95
7.81
7.4
6.67
5.66
4.5
3.31
2.19
1.22
0.42
-0.24
-0.87
-1.64
-2.73
-4.19
-5.95
-7.81
-9.54
-11.02
-12.27
-13.42
-14.63
-16.02
-17.65
-19.48
-21.34
-22.94
-23.9
-23.79
-22.32
-19.46
-15.48
-10.94
-6.5
-2.73
0.06
1.79
2.63
2.86
2.72
2.39
1.91
1.3
0.57
-0.21
-0.96
-1.65
-2.4
-3.45
-5.03
-7.24
-9.92
-12.68
-15
-16.48
-16.94
-16.46
-15.3
-13.75
-12.04
-10.36
-8.85
-7.66
-6.9
-6.52
-6.36
-6.18
-5.7
-4.84
-3.69
-2.52
-1.69
-1.52
-2.17
-3.59
-5.64
-8.17
-10.99
-13.93
-16.68
-18.78
-19.71
-19.06
-16.71
-12.95
-8.36
-3.67
0.53
3.89
6.36
8.06
9.17
9.8
10.05
9.97
9.69
9.39
9.21
9.24
9.42
9.62
9.73
9.73
9.7
9.81
10.14
10.65
11.2
11.52
11.45
10.92
9.99
8.84
7.63
6.52
5.55
4.69
3.81
2.83
1.72
0.58
-0.43
-1.19
-1.77
-2.44
-3.57
-5.46
-8.25
-11.78
-15.69
-19.53
-22.79
-24.99
-25.71
-24.64
-21.72
-17.18
-11.53
-5.45
0.45
5.71
10.13
13.72
16.55
18.73
20.31
21.41
22.17
22.78
23.41
24.12
24.8
25.19
25.07
24.31
23.01
21.47
20.05
19.01
18.41
18.06
17.67
16.97
15.9
14.52
13.04
11.65
10.41
9.3
8.2
7.04
5.79
4.51
3.22
1.94
0.64
-0.72
-2.15
-3.62
-5.08
-6.58
-8.17
-9.96
-11.94
-13.94
-15.56
-16.35
-15.93
-14.17
-11.26
-7.66
-3.89
-0.42
2.52
4.86
6.67
8
8.92
9.48
9.76
9.9
10.03
10.25
10.54
10.79
10.89
10.76
10.41
9.89
9.3
8.73
8.25
7.89
7.64
7.38
6.99
6.32
5.31
3.95
2.36
0.69
-0.89
-2.24
-3.28
-4.04
-4.64
-5.3
-6.25
-7.62
-9.37
-11.27
-13.04
-14.42
-15.21
-15.28
-14.52
-12.86
-10.4
-7.46
-4.55
-2.26
-0.93
-0.49
-0.47
-0.2
0.86
2.94
5.82
9
11.84
13.81
14.61
14.13
12.57
10.27
7.69
5.3
3.5
2.48
2.27
2.67
3.32
3.91
4.14
3.89
3.2
2.2
1.02
-0.29
-1.68
-3.1
-4.35
-5.22
-5.57
-5.49
-5.3
-5.48
-6.4
-8.23
-10.86
-13.95
-17.15
-20.06
-22.31
-23.5
-23.25
-21.37
-17.99
-13.64
-8.98
-4.65
-0.95
2.19
4.99
7.72
10.37
12.68
14.28
14.96
14.79
14.19
13.73
13.84
14.65
15.92
17.12
17.73
17.35
15.87
13.42
10.3
6.82
3.3
0.06
-2.63
-4.59
-5.87
-6.77
-7.71
-9.08
-11.04
-13.49
-16.15
-18.83
-21.46
-24.19
-27.25
-30.83
-34.94
-39.4
-43.77
-47.37
-49.39
-48.99
-45.67
-39.43
-30.92
-21.29
-11.81
-3.49
3.19
8.27
12.15
15.25
17.83
19.95
21.57
22.61
23.17
23.41
23.58
23.83
24.17
24.44
24.38
23.8
22.74
21.48
20.35
19.6
19.19
18.85
18.23
17.07
15.42
13.49
11.57
9.75
7.97
6.03
3.82
1.42
-0.93
-3.04
-4.8
-6.33
-7.89
-9.75
-12.08
-14.92
-18.06
-21.12
-23.54
-24.71
-24.15
-21.66
-17.48
-12.19
-6.6
-1.39
3.01
6.51
9.28
11.56
13.56
15.34
16.84
17.92
18.46
18.42
17.9
17.1
16.27
15.58
15.13
14.83
14.57
14.23
13.75
13.12
12.32
11.31
9.99
8.34
6.36
4.26
2.26
0.59
-0.69
-1.7
-2.71
-3.96
-5.55
-7.34
-8.99
-10.21
-10.9
-11.22
-11.54
-12.25
-13.58
-15.51
-17.86
-20.26
-22.32
-23.59
-23.59
-21.97
-18.67
-14.04
-8.77
-3.69
0.63
3.97
6.5
8.63
10.63
12.57
14.27
15.49
16.14
16.31
16.24
16.16
16.18
16.26
16.28
16.15
15.78
15.2
14.46
13.59
12.58
11.42
10.11
8.72
7.35
6.07
4.96
3.97
2.98
1.85
0.44
-1.29
-3.26
-5.34
-7.38
-9.25
-10.92
-12.4
-13.74
-15.05
-16.47
-18.13
-20.09
-22.2
-24.07
-25.18
-25
-23.22
-19.92
-15.53
-10.67
-5.93
-1.71
1.89
4.98
7.7
10.05
11.91
13.03
13.29
12.76
11.76
10.72
9.99
9.74
9.88
10.15
10.28
10.08
9.48
8.53
7.31
5.86
4.22
2.42
0.56
-1.21
-2.81
-4.29
-5.87
-7.9
-10.72
-14.39
-18.61
-22.79
-26.23
-28.49
-29.57
-29.91
-30.16
-30.95
-32.63
-35.15
-38.15
-40.97
-42.83
-42.98
-40.93
-36.56
-30.26
-22.79
-15.04
-7.77
-1.36
4.15
8.97
13.26
17.12
20.44
23.09
24.95
26.06
26.54
26.57
26.34
25.92
25.36
24.68
23.97
23.33
22.9
22.68
22.56
22.27
21.51
20.14
18.13
15.68
13.05
10.46
8.06
5.83
3.72
1.65
-0.39
-2.34
-4.09
-5.58
-6.8
-7.86
-8.9
-10.1
-11.57
-13.36
-15.47
-17.75
-19.96
-21.72
-22.56
-22.1
-20.19
-16.91
-12.6
-7.73
-2.74
2.02
6.25
9.78
12.54
14.58
16.06
17.16
17.98
18.5
18.62
18.27
17.59
16.85
16.37
16.3
16.55
16.74
16.54
15.72
14.34
12.67
10.99
9.46
8.05
6.64
5.11
3.51
2.02
0.79
-0.12
-0.9
-1.85
-3.23
-5.07
-7.19
-9.27
-11.01
-12.35
-13.48
-14.69
-16.27
-18.39
-20.97
-23.77
-26.29
-27.97
-28.28
-26.85
-23.65
-19.06
-13.74
-8.45
-3.75
0.17
3.41
6.19
8.76
11.11
13.15
14.71
15.67
16.09
16.19
16.23
16.45
16.95
17.68
18.44
19.01
19.24
19.11
18.77
18.4
18.12
17.87
17.44
16.58
15.15
13.19
10.95
8.73
6.77
5.14
3.73
2.29
0.66
-1.24
-3.35
-5.47
-7.44
-9.2
-10.74
-12.15
-13.5
-14.89
-16.4
-18.16
-20.16
-22.24
-23.99
-24.79
-24.09
-21.61
-17.53
-12.4
-7.02
-2.14
1.82
4.75
6.86
8.44
9.68
10.67
11.38
11.76
11.89
11.92
12.04
12.36
12.85
13.33
13.61
13.57
13.21
12.65
12.01
11.35
10.7
10.08
9.56
9.28
9.38
9.95
10.94
12.11
13
13.05
11.71
8.69
4.16
-1.23
-6.51
-10.8
-13.55
-14.83
-15.09
-14.98
-15.04
-15.51
-16.38
-17.49
-18.53
-19.18
-19.13
-18.16
-16.2
-13.44
-10.27
-7.17
-4.52
-2.51
-1.13
-0.26
0.28
0.65
0.95
1.32
1.83
2.54
3.37
4.17
4.67
4.66
4.07
2.98
1.64
0.34
-0.68
-1.32
-1.62
-1.71
-1.76
-1.96
-2.45
-3.33
-4.69
-6.55
-8.82
-11.25
-13.46
-15.07
-15.86
-15.9
-15.52
-15.18
-15.27
-15.91
-17.01
-18.3
-19.58
-20.66
-21.39
-21.49
-20.57
-18.22
-14.17
-8.57
-1.92
4.99
11.35
16.57
20.34
22.68
23.81
24.07
23.83
23.4
23.01
22.81
22.78
22.87
23.01
23.15
23.32
23.6
24.1
24.85
25.78
26.68
27.3
27.36
26.73
25.41
23.51
21.24
18.8
16.35
13.98
11.69
9.44
7.13
4.64
1.95
-0.88
-3.72
-6.4
-8.8
-10.91
-12.83
-14.73
-16.69
-18.68
-20.52
-21.94
-22.64
-22.41
-21.13
-18.86
-15.8
-12.3
-8.69
-5.31
-2.4
-0.07
1.69
2.94
3.78
4.33
4.64
4.76
4.73
4.61
4.57
4.76
5.31
6.13
6.94
7.33
7.01
5.94
4.39
2.83
1.64
0.92
0.49
0.07
-0.59
-1.51
-2.65
-3.93
-5.4
-7.14
-9.14
-11.25
-13.12
-14.5
-15.31
-15.76
-16.2
-16.93
-18.03
-19.3
-20.43
-21.09
-21.15
-20.61
-19.61
-18.25
-16.56
-14.43
-11.69
-8.2
-3.98
0.74
5.49
9.68
12.78
14.49
14.79
13.94
12.37
10.59
9.05
8.11
7.91
8.37
9.24
10.08
10.58
10.57
10.15
9.55
9
8.54
8.01
7.14
5.7
3.63
1.04
-1.86
-4.83
-7.65
-10.13
-12.07
-13.34
-13.87
-13.79
-13.46
-13.37
-14
-15.65
-18.28
-21.48
-24.55
-26.71
-27.25
-25.78
-22.31
-17.32
-11.59
-6.05
-1.47
1.73
3.62
4.66
5.52
6.79
8.74
11.26
13.86
15.93
16.89
16.44
14.66
12.07
9.4
7.4
6.52
6.79
7.78
8.86
9.42
9.13
8
6.31
4.34
2.31
0.27
-1.77
-3.76
-5.58
-7.05
-8.09
-8.81
-9.45
-10.33
-11.69
-13.65
-16.14
-19.02
-22
-24.74
-26.85
-27.97
-27.77
-26.13
-23.16
-19.17
-14.63
-10.05
-5.85
-2.24
0.74
3.25
5.49
7.63
9.7
11.59
13.16
14.3
14.97
15.24
15.17
14.82
14.25
13.51
12.74
12.09
11.74
11.73
11.97
12.17
12.01
11.24
9.73
7.55
4.88
2.04
-0.68
-2.97
-4.59
-5.43
-5.6
-5.37
-5.2
-5.59
-6.95
-9.42
-12.87
-16.89
-20.91
-24.36
-26.78
-27.83
-27.39
-25.49
-22.35
-18.35
-14.01
-9.85
-6.27
-3.4
-1.1
0.97
3.18
5.76
8.63
11.56
14.17
16.13
17.25
17.5
17.01
16
14.72
13.42
12.3
11.49
10.98
10.66
10.36
9.84
8.98
7.65
5.86
3.66
1.19
-1.42
-4.08
-6.82
-9.72
-12.9
-16.38
-20.02
-23.53
-26.59
-28.96
-30.54
-31.42
-31.76
-31.72
-31.39
-30.81
-29.9
-28.55
-26.56
-23.67
-19.65
-14.34
-7.76
-0.11
8.24
16.79
25.01
32.33
38.24
42.35
44.51
44.81
43.63
41.47
38.82
36.07
33.48
31.19
29.25
27.68
26.47
25.52
24.7
23.84
22.79
21.49
19.92
18.11
16.13
14.01
11.87
9.79
7.86
6.11
4.44
2.73
0.84
-1.3
-3.61
-6.01
-8.41
-10.78
-13.23
-15.83
-18.62
-21.41
-23.89
-25.63
-26.26
-25.52
-23.39
-20.07
-15.92
-11.43
-7.04
-3.06
0.39
3.37
6
8.32
10.24
11.57
12.13
11.92
11.19
10.37
9.94
10.14
10.96
12.04
12.97
13.39
13.16
12.37
11.24
10.04
8.96
8.06
7.3
6.6
5.85
4.94
3.77
2.28
0.49
-1.52
-3.58
-5.51
-7.16
-8.43
-9.3
-9.85
-10.28
-10.88
-11.98
-13.77
-16.17
-18.75
-20.79
-21.52
-20.44
-17.53
-13.26
-8.41
-3.72
0.29
3.44
5.83
7.59
8.87
9.66
9.96
9.8
9.28
8.56
7.81
7.21
6.86
6.82
7.05
7.44
7.8
7.96
7.82
7.38
6.74
5.96
5.03
3.87
2.4
0.63
-1.26
-3.01
-4.31
-5.05
-5.27
-5.2
-5.18
-5.51
-6.42
-7.97
-10.04
-12.38
-14.7
-16.72
-18.26
-19.17
-19.31
-18.5
-16.6
-13.61
-9.82
-5.78
-2.05
0.96
3.22
4.98
6.6
8.28
9.93
11.22
11.81
11.52
10.45
8.95
7.4
6.14
5.38
5.15
5.33
5.68
5.9
5.72
4.96
3.65
2
0.32
-1.04
-1.91
-2.3
-2.39
-2.45
-2.72
-3.31
-4.19
-5.3
-6.52
-7.77
-9.03
-10.24
-11.37
-12.36
-13.25
-14.11
-15.01
-15.9
-16.57
-16.64
-15.73
-13.69
-10.68
-7.09
-3.46
-0.17
2.67
5.18
7.5
9.73
11.76
13.37
14.38
14.76
14.68
14.41
14.19
14.12
14.15
14.12
13.86
13.29
12.46
11.52
10.67
10.06
9.71
9.47
9.08
8.29
7
5.29
3.44
1.74
0.39
-0.61
-1.43
-2.32
-3.41
-4.73
-6.21
-7.77
-9.45
-11.32
-13.42
-15.57
-17.38
-18.25
-17.7
-15.55
-12.08
-7.9
-3.73
-0.15
2.6
4.64
6.21
7.62
9.03
10.4
11.57
12.37
12.72
12.68
12.4
12.06
11.8
11.66
11.6
11.56
11.47
11.27
10.94
10.5
9.95
9.41
8.96
8.64
8.45
8.31
8.11
7.8
7.4
6.97
6.55
6.07
5.41
4.47
3.26
1.84
0.3
-1.29
-2.99
-4.85
-6.84
-8.76
-10.28
-11.04
-10.81
-9.64
-7.73
-5.44
-3.09
-0.91
0.98
2.48
3.53
4.07
4.08
3.62
2.88
2.11
1.57
1.36
1.45
1.64
1.68
1.37
0.71
-0.22
-1.2
-2.05
-2.69
-3.17
-3.65
-4.31
-5.32
-6.75
-8.59
-10.74
-13.04
-15.32
-17.43
-19.32
-21.07
-22.84
-24.82
-27.21
-30.1
-33.44
-37.09
-40.83
-44.45
-47.79
-50.73
-53.23
-55.24
-56.65
-57.22
-56.75
-55.05
-52.22
-48.58
-44.56
-40.5
-36.51
-32.38
-27.7
-22.03
-15.05
-6.57
3.51
15.13
27.94
41.11
53.25
62.65
67.67
67.34
61.71
51.85
39.61
27.09
16.05
7.62
2.2
-0.53
-1.23
-0.7
0.39
1.56
2.51
3.05
2.99
2.16
0.41
-2.33
-6.08
-10.75
-16.11
-21.66
-26.52
-29.5
-29.33
-25.13
-16.86
-5.57
6.83
18.06
26.17
30.13
30.09
27.12
22.74
18.4
15.04
13.03
12.27
12.43
13.16
14.19
15.4
16.67
17.88
18.88
19.49
19.62
19.32
18.82
18.37
18.15
18.13
18.06
17.61
16.5
14.69
12.38
9.9
7.56
5.49
3.69
2.03
0.32
-1.57
-3.78
-6.45
-9.74
-13.73
-18.38
-23.36
-28.04
-31.53
-32.96
-31.73
-27.71
-21.4
-13.69
-5.7
1.63
7.71
12.42
15.97
18.73
21.01
22.98
24.68
26
26.86
27.23
27.21
26.95
26.58
26.14
25.6
24.89
24
22.97
21.92
20.9
19.85
18.62
17.04
15.11
12.95
10.76
8.69
6.77
4.86
2.83
0.59
-1.79
-4.16
-6.35
-8.27
-9.93
-11.41
-12.84
-14.46
-16.53
-19.25
-22.58
-26.08
-28.96
-30.28
-29.34
-25.94
-20.51
-13.97
-7.31
-1.32
3.62
7.49
10.53
12.96
14.88
16.31
17.25
17.69
17.77
17.66
17.53
17.49
17.58
17.72
17.8
17.72
17.41
16.88
16.2
15.41
14.56
13.65
12.63
11.45
10.07
8.52
6.84
5.13
3.48
1.95
0.55
-0.72
-1.94
-3.2
-4.62
-6.28
-8.23
-10.46
-12.89
-15.42
-17.82
-19.75
-20.83
-20.65
-18.97
-15.82
-11.52
-6.63
-1.77
2.54
6.03
8.69
10.65
12.06
13.01
13.47
13.39
12.82
11.85
10.68
9.56
8.66
8.1
7.9
8.04
8.39
8.76
8.91
8.61
7.69
6.14
4.13
1.95
-0.11
-1.76
-2.87
-3.45
-3.67
-3.74
-3.88
-4.24
-4.91
-5.87
-7.12
-8.69
-10.63
-13.01
-15.81
-18.89
-21.94
-24.53
-26.23
-26.64
-25.54
-22.88
-18.88
-13.96
-8.66
-3.58
0.88
4.51
7.38
9.67
11.55
13.09
14.23
14.85
14.91
14.48
13.73
12.88
12.09
11.44
10.9
10.48
10.16
9.98
9.93
9.95
9.88
9.48
8.59
7.13
5.2
3.06
0.95
-0.91
-2.51
-3.95
-5.43
-7.06
-8.89
-10.85
-12.85
-14.73
-16.39
-17.77
-18.84
-19.75
-20.72
-21.93
-23.41
-24.85
-25.65
-25.15
-22.94
-19.02
-13.9
-8.31
-2.97
1.74
5.74
9.2
12.35
15.24
17.81
19.8
20.98
21.23
20.57
19.26
17.72
16.41
15.68
15.63
16.14
16.87
17.43
17.5
16.93
15.74
14.12
12.3
10.53
8.92
7.43
5.85
3.94
1.54
-1.3
-4.32
-7.13
-9.34
-10.68
-11.16
-11.06
-10.89
-11.19
-12.41
-14.74
-18.05
-21.93
-25.74
-28.78
-30.34
-29.87
-27.15
-22.35
-16.06
-9.23
-2.87
2.26
5.88
8.21
9.79
11.11
12.4
13.59
14.44
14.73
14.44
13.76
12.97
12.33
11.93
11.7
11.53
11.32
10.99
10.5
9.75
8.61
7.01
4.97
2.72
0.56
-1.22
-2.52
-3.45
-4.35
-5.51
-7.06
-8.87
-10.68
-12.24
-13.49
-14.59
-15.77
-17.28
-19.15
-21.21
-23.05
-24.2
-24.21
-22.83
-20.08
-16.2
-11.69
-7.03
-2.65
1.21
4.53
7.35
9.73
11.61
12.9
13.5
13.44
12.88
12.04
11.2
10.57
10.24
10.24
10.54
11.08
11.75
12.32
12.53
12.1
10.89
9.02
6.86
4.86
3.36
2.41
1.69
0.74
-0.77
-2.88
-5.27
-7.54
-9.41
-10.98
-12.55
-14.46
-16.8
-19.38
-21.82
-23.82
-25.25
-26.17
-26.55
-26.23
-24.8
-21.89
-17.41
-11.7
-5.48
0.45
5.52
9.54
12.65
15.15
17.22
18.88
20.04
20.62
20.71
20.54
20.42
20.57
21.07
21.78
22.47
22.88
22.84
22.33
21.47
20.43
19.36
18.3
17.13
15.68
13.86
11.67
9.26
6.83
4.51
2.39
0.44
-1.37
-3.05
-4.58
-5.96
-7.29
-8.75
-10.62
-13.08
-16.11
-19.4
-22.31
-24.08
-24.09
-22.03
-18.1
-12.92
-7.3
-1.99
2.58
6.28
9.19
11.47
13.18
14.25
14.6
14.22
13.25
11.98
10.7
9.64
8.86
8.33
8.01
7.84
7.79
7.82
7.79
7.5
6.8
5.64
4.12
2.48
0.96
-0.3
-1.34
-2.29
-3.28
-4.38
-5.56
-6.77
-7.98
-9.27
-10.69
-12.3
-14.05
-15.89
-17.73
-19.56
-21.28
-22.71
-23.56
-23.43
-22
-19.2
-15.3
-10.79
-6.29
-2.3
0.92
3.35
5.15
6.45
7.41
8.04
8.42
8.64
8.84
9.16
9.62
10.12
10.42
10.25
9.45
8.1
6.44
4.82
3.5
2.56
1.92
1.33
0.56
-0.52
-1.98
-3.76
-5.8
-7.98
-10.22
-12.43
-14.61
-16.73
-18.88
-21.07
-23.24
-25.13
-26.32
-26.33
-24.79
-21.6
-16.98
-11.39
-5.41
0.37
5.48
9.6
12.57
14.44
15.35
15.55
15.28
14.77
14.13
13.46
12.82
12.26
11.78
11.26
10.57
9.57
8.25
6.74
5.22
3.81
2.51
1.14
-0.51
-2.5
-4.73
-6.97
-8.97
-10.62
-12.02
-13.37
-14.94
-16.86
-19.16
-21.67
-24.14
-26.15
-27.25
-26.98
-25.03
-21.42
-16.47
-10.83
-5.21
-0.19
3.98
7.37
10.21
12.73
14.96
16.76
17.89
18.24
17.89
17.13
16.33
15.83
15.73
15.91
16.07
15.91
15.21
13.99
12.49
11.07
9.96
9.24
8.67
7.89
6.55
4.52
1.95
-0.77
-3.27
-5.34
-7.03
-8.61
-10.41
-12.67
-15.49
-18.76
-22.21
-25.44
-27.91
-29.03
-28.33
-25.66
-21.26
-15.76
-9.92
-4.4
0.43
4.49
7.92
10.86
13.34
15.32
16.76
17.66
18.14
18.33
18.34
18.21
17.95
17.58
17.15
16.69
16.24
15.81
15.38
14.88
14.22
13.29
12
10.35
8.4
6.29
4.16
2.09
0.08
-1.86
-3.75
-5.53
-7.07
-8.34
-9.4
-10.43
-11.69
-13.36
-15.56
-18.24
-21.26
-24.3
-26.92
-28.5
-28.49
-26.5
-22.6
-17.3
-11.43
-5.81
-1.03
2.73
5.61
7.91
9.88
11.65
13.21
14.46
15.32
15.78
15.88
15.76
15.59
15.5
15.52
15.61
15.64
15.54
15.32
14.99
14.55
13.89
12.86
11.34
9.35
7.05
4.72
2.64
0.96
-0.27
-1.18
-1.92
-2.69
-3.62
-4.78
-6.18
-7.77
-9.47
-11.23
-13.03
-14.91
-16.95
-19.24
-21.8
-24.47
-26.85
-28.38
-28.43
-26.61
-22.91
-17.81
-12.07
-6.49
-1.68
2.1
4.85
6.72
7.85
8.34
8.32
7.96
7.56
7.4
7.64
8.18
8.69
8.62
7.51
5.08
1.41
-3.06
-7.63
-11.54
-14.12
-14.87
-13.57
-10.21
-4.97
1.84
9.74
18.16
26.43
33.81
39.7
43.67
45.6
45.66
44.16
41.44
37.77
33.36
28.46
23.41
18.58
14.27
10.57
7.4
4.58
1.99
-0.31
-2.15
-3.39
-4.03
-4.28
-4.37
-4.44
-4.46
-4.27
-3.79
-3.08
-2.37
-1.95
-1.97
-2.31
-2.74
-2.92
-2.65
-1.96
-1
-0.03
0.76
1.31
1.66
1.89
2.04
2.1
2.01
1.7
1.17
0.43
-0.47
-1.46
-2.48
-3.46
-4.28
-4.88
-5.17
-5.08
-4.62
-3.89
-3.09
-2.42
-2.08
-2.13
-2.5
-3.02
-3.54
-3.98
-4.35
-4.72
-5.1
-5.44
-5.69
-5.81
-5.84
-5.84
-5.83
-5.73
-5.44
-4.82
-3.86
-2.66
-1.36
-0.03
1.31
2.73
4.24
5.7
6.91
7.61
7.69
7.2
6.37
5.47
4.7
4.14
3.72
3.28
2.74
2.12
1.58
1.32
1.41
1.79
2.21
2.37
2.08
1.37
0.43
-0.44
-1.03
-1.35
-1.57
-1.94
-2.56
-3.38
-4.18
-4.75
-5.02
-5.07
-5.12
-5.31
-5.7
-6.22
-6.71
-7.08
-7.26
-7.26
-7.08
-6.67
-5.96
-4.92
-3.67
-2.41
-1.39
-0.75
-0.5
-0.46
-0.39
-0.06
0.59
1.48
2.42
3.14
3.47
3.33
2.78
2.01
1.27
0.79
0.73
1.08
1.71
2.39
2.82
2.8
2.27
1.31
0.18
-0.84
-1.56
-1.97
-2.22
-2.48
-2.8
-3.15
-3.39
-3.47
-3.46
-3.59
-4.08
-4.99
-6.2
-7.4
-8.32
-8.83
-8.94
-8.76
-8.43
-8
-7.47
-6.84
-6.1
-5.33
-4.56
-3.86
-3.26
-2.74
-2.26
-1.77
-1.21
-0.57
0.13
0.84
1.44
1.84
2.03
2.03
1.93
1.85
1.86
1.98
2.14
2.21
2.06
1.65
1.03
0.35
-0.23
-0.61
-0.78
-0.81
-0.86
-1
-1.3
-1.78
-2.45
-3.25
-4.08
-4.79
-5.21
-5.28
-5.08
-4.81
-4.7
-4.9
-5.4
-6.02
-6.49
-6.58
-6.22
-5.46
-4.52
-3.61
-2.87
-2.31
-1.89
-1.49
-1.04
-0.55
-0.09
0.26
0.48
0.58
0.62
0.65
0.67
0.67
0.59
0.44
0.17
-0.2
-0.69
-1.31
-2.03
-2.81
-3.55
-4.24
-4.88
-5.58
-6.43
-7.51
-8.82
-10.32
-12
-13.89
-16.08
-18.64
-21.54
-24.61
-27.64
-30.41
-32.77
-34.68
-36.13
-37.26
-38.28
-39.58
-41.59
-44.66
-48.82
-53.64
-58.22
-61.45
-62.39
-60.59
-56.25
-50.1
-43.08
-36.01
-29.37
-23.27
-17.55
-12.02
-6.6
-1.37
3.46
7.67
11.15
13.99
16.43
18.86
21.53
24.52
27.67
30.62
33.04
34.71
35.54
35.52
34.7
33.13
30.92
28.33
25.68
23.23
21.08
19.09
16.97
14.46
11.58
8.61
6
4.11
3.09
2.72
2.57
2.09
0.8
-1.56
-5.03
-9.32
-13.89
-17.94
-20.6
-21.13
-19.21
-15.02
-9.25
-2.86
3.25
8.52
12.84
16.39
19.47
22.19
24.44
26
26.68
26.55
25.93
25.27
24.86
24.78
24.82
24.7
24.17
23.2
21.99
20.84
19.97
19.4
18.89
18.03
16.41
13.85
10.47
6.7
3.04
-0.11
-2.66
-4.76
-6.76
-8.98
-11.58
-14.5
-17.54
-20.47
-23.06
-25.15
-26.73
-27.92
-29.09
-30.69
-33.18
-36.66
-40.68
-44.15
-45.53
-43.3
-36.43
-24.92
-9.93
6.46
21.73
33.71
41.14
43.98
43.12
40.05
36.23
32.77
30.27
28.88
28.54
28.99
29.94
31.03
31.9
32.3
32.11
31.45
30.53
29.65
28.96
28.47
27.99
27.19
25.73
23.4
20.23
16.48
12.59
8.97
5.87
3.22
0.75
-1.88
-4.86
-8.1
-11.25
-13.86
-15.56
-16.26
-16.2
-15.78
-15.48
-15.75
-16.85
-18.85
-21.52
-24.4
-26.82
-28.1
-27.79
-25.82
-22.53
-18.5
-14.34
-10.36
-6.6
-2.9
0.87
4.61
7.99
10.59
12.15
12.72
12.62
12.24
11.79
11.26
10.46
9.19
7.53
5.87
4.78
4.75
5.89
7.89
10.07
11.65
12.05
11.04
8.78
5.72
2.38
-0.77
-3.46
-5.62
-7.35
-8.8
-10.19
-11.71
-13.48
-15.5
-17.7
-19.97
-22.18
-24.39
-26.78
-29.54
-32.77
-36.27
-39.46
-41.53
-41.68
-39.4
-34.69
-28.03
-20.19
-11.98
-3.99
3.43
10.12
15.97
20.79
24.36
26.54
27.47
27.56
27.41
27.6
28.39
29.75
31.33
32.7
33.53
33.69
33.19
32.12
30.52
28.35
25.51
21.97
17.84
13.44
9.22
5.68
3.16
1.85
1.72
2.53
3.96
5.63
7.21
8.4
9
8.96
8.35
7.42
6.52
5.89
5.62
5.52
5.2
4.22
2.29
-0.51
-3.73
-6.64
-8.43
-8.41
-6.25
-2
3.92
10.72
17.42
22.94
26.37
27.21
25.58
22.15
17.97
14.05
11.04
9.09
7.94
7.17
6.44
5.67
4.88
4.15
3.39
2.44
1.18
-0.37
-1.96
-3.23
-3.89
-3.94
-3.64
-3.41
-3.61
-4.36
-5.48
-6.61
-7.44
-7.85
-7.93
-7.89
-7.91
-8.05
-8.35
-8.78
-9.38
-10.21
-11.22
-12.31
-13.3
-14.07
-14.55
-14.77
-14.74
-14.45
-13.8
-12.69
-11.08
-9.02
-6.61
-4.04
-1.41
1.2
3.77
6.26
8.61
10.65
12.19
13.11
13.38
13.14
12.67
12.29
12.23
12.54
13.14
13.86
14.52
14.94
15.01
14.57
13.48
11.63
9.05
5.98
2.83
0.05
-1.95
-3
-3.15
-2.7
-2
-1.45
-1.38
-1.98
-3.34
-5.39
-7.91
-10.63
-13.3
-15.75
-17.94
-19.89
-21.58
-22.9
-23.63
-23.54
-22.52
-20.59
-17.96
-14.91
-11.66
-8.35
-5.07
-1.92
0.95
3.3
4.9
5.63
5.56
5
4.41
4.17
4.49
5.29
6.26
7.05
7.39
7.2
6.58
5.67
4.62
3.49
2.34
1.19
0.15
-0.68
-1.21
-1.51
-1.76
-2.24
-3.18
-4.6
-6.32
-8.01
-9.33
-10.16
-10.64
-11.16
-12.06
-13.57
-15.66
-18.1
-20.6
-22.89
-24.73
-25.87
-26.04
-24.95
-22.49
-18.83
-14.41
-9.81
-5.57
-1.96
1.03
3.58
5.91
8.08
10.05
11.68
12.9
13.75
14.34
14.79
15.15
15.33
15.26
14.93
14.46
14.06
13.88
13.91
13.91
13.57
12.66
11.13
9.17
7.1
5.22
3.62
2.23
0.87
-0.64
-2.31
-4.06
-5.75
-7.31
-8.78
-10.25
-11.86
-13.65
-15.62
-17.75
-19.97
-22.16
-24
-25.02
-24.67
-22.57
-18.79
-13.81
-8.45
-3.47
0.66
3.86
6.29
8.23
9.81
11.02
11.83
12.22
12.25
12.04
11.7
11.31
10.87
10.44
10.07
9.79
9.63
9.56
9.51
9.37
9
8.28
7.17
5.76
4.29
3.08
2.39
2.33
2.71
3.17
3.28
2.78
1.62
0.01
-1.78
-3.47
-4.92
-6.14
-7.25
-8.34
-9.52
-10.8
-12.15
-13.47
-14.62
-15.41
-15.59
-15
-13.5
-11.15
-8.2
-5.04
-2.09
0.31
2.04
3.21
4.09
4.99
6.02
7.1
8
8.46
8.39
7.82
6.97
6.07
5.26
4.57
3.93
3.28
2.58
1.88
1.28
0.83
0.5
0.14
-0.41
-1.33
-2.64
-4.26
-6.02
-7.74
-9.27
-10.57
-11.66
-12.62
-13.63
-14.85
-16.41
-18.34
-20.57
-22.96
-25.35
-27.58
-29.44
-30.63
-30.77
-29.52
-26.77
-22.81
-18.25
-13.72
-9.65
-6.03
-2.49
1.41
5.9
10.79
15.62
19.8
22.92
24.85
25.66
25.63
25.02
24.14
23.24
22.53
22.15
22.15
22.39
22.63
22.55
21.83
20.28
17.91
14.92
11.67
8.51
5.62
2.99
0.45
-2.2
-5.03
-7.92
-10.59
-12.76
-14.29
-15.27
-16.06
-17.15
-19.09
-22.21
-26.47
-31.33
-35.75
-38.56
-38.75
-35.92
-30.36
-23
-15.01
-7.41
-0.81
4.59
8.89
12.31
15.05
17.28
19.12
20.71
22.1
23.34
24.32
24.9
24.98
24.58
23.85
23.08
22.58
22.54
22.92
23.43
23.7
23.37
22.25
20.46
18.27
16.04
13.97
12.07
10.21
8.2
5.86
3.15
0.16
-2.97
-5.98
-8.66
-10.87
-12.67
-14.32
-16.2
-18.73
-22.12
-26.31
-30.86
-35.02
-37.84
-38.44
-36.29
-31.41
-24.4
-16.25
-8.08
-0.74
5.37
10.3
14.32
17.71
20.55
22.79
24.34
25.2
25.49
25.42
25.14
24.73
24.21
23.6
23.01
22.59
22.49
22.75
23.21
23.54
23.36
22.39
20.56
18.05
15.25
12.56
10.24
8.38
6.87
5.53
4.18
2.7
1.04
-0.81
-2.86
-5.12
-7.56
-10.11
-12.66
-15.13
-17.58
-20.16
-23.1
-26.53
-30.29
-33.86
-36.45
-37.25
-35.72
-31.78
-25.92
-18.95
-11.79
-5.18
0.43
4.9
8.32
10.84
12.66
13.98
14.97
15.72
16.33
16.84
17.26
17.67
18.12
18.61
19.03
19.18
18.89
18.08
16.86
15.41
13.94
12.46
10.91
9.12
7.05
4.81
2.64
0.7
-1.03
-2.73
-4.69
-6.97
-9.48
-11.88
-13.89
-15.45
-16.83
-18.48
-20.78
-23.9
-27.61
-31.43
-34.72
-36.87
-37.36
-35.86
-32.31
-26.9
-20.16
-12.76
-5.38
1.51
7.68
13.13
17.86
21.77
24.69
26.48
27.27
27.51
27.9
29.12
31.55
35.1
39.12
42.66
44.64
44.25
41.09
35.3
27.52
18.71
9.96
2.21
-3.88
-8.03
-10.24
-10.79
-10.07
-8.55
-6.75
-5.2
-4.42
-4.69
-6.03
-8.16
-10.51
-12.51
-13.8
-14.44
-14.86
-15.7
-17.46
-20.29
-23.79
-27.17
-29.38
-29.5
-27.03
-22.05
-15.25
-7.74
-0.65
5.15
9.33
12.04
13.71
14.76
15.48
15.97
16.27
16.47
16.7
17.12
17.73
18.39
18.89
18.99
18.62
17.85
16.85
15.82
14.88
14.08
13.37
12.61
11.62
10.25
8.42
6.15
3.6
0.97
-1.55
-3.84
-5.86
-7.58
-9.07
-10.39
-11.63
-12.88
-14.24
-15.79
-17.59
-19.66
-21.97
-24.47
-27.01
-29.34
-31.01
-31.52
-30.42
-27.52
-23.02
-17.44
-11.57
-6.12
-1.56
1.97
4.54
6.36
7.54
8.21
8.48
8.63
8.99
9.86
11.25
12.87
14.16
14.56
13.67
11.48
8.25
4.41
0.44
-3.3
-6.57
-9.25
-11.36
-12.93
-14.03
-14.76
-15.25
-15.69
-16.26
-17.12
-18.25
-19.49
-20.58
-21.28
-21.56
-21.61
-21.71
-22.1
-22.89
-24.06
-25.53
-27.24
-29
-30.5
-31.18
-30.38
-27.65
-23.01
-16.94
-10.29
-3.91
1.66
6.24
9.95
12.99
15.47
17.32
18.4
18.67
18.24
17.41
16.56
16.05
16
16.3
16.62
16.59
15.97
14.75
13.18
11.58
10.21
9.13
8.17
7.11
5.78
4.12
2.23
0.24
-1.76
-3.72
-5.69
-7.69
-9.73
-11.82
-13.99
-16.38
-19.15
-22.45
-26.16
-29.83
-32.69
-33.85
-32.68
-29.03
-23.4
-16.67
-9.8
-3.48
2.02
6.77
10.95
14.63
17.75
20.13
21.7
22.5
22.77
22.75
22.65
22.54
22.37
22.1
21.69
21.18
20.61
19.98
19.22
18.19
16.85
15.21
13.43
11.67
9.98
8.24
6.2
3.63
0.5
-2.95
-6.34
-9.29
-11.63
-13.47
-15.16
-17.15
-19.82
-23.39
-27.83
-32.86
-37.94
-42.25
-44.87
-44.94
-42.01
-36.21
-28.32
-19.59
-11.28
-4.35
0.9
4.64
7.4
9.63
11.55
13.13
14.25
14.91
15.31
15.76
16.55
17.75
19.2
20.58
21.59
22.05
22
21.6
21.02
20.36
19.58
18.52
17.1
15.3
13.21
10.96
8.65
6.26
3.73
1.03
-1.7
-4.21
-6.17
-7.41
-8.01
-8.31
-8.82
-10.05
-12.32
-15.62
-19.66
-23.8
-27.19
-28.98
-28.54
-25.62
-20.53
-13.99
-6.93
-0.22
5.69
10.69
14.96
18.77
22.26
25.4
28.12
30.37
32.18
33.65
34.86
35.76
36.27
36.28
35.78
34.86
33.64
32.26
30.76
29.09
27.14
24.79
21.98
18.75
15.34
12.09
9.32
7.23
5.75
4.48
2.97
0.81
-2.11
-5.55
-9.04
-12.06
-14.26
-15.59
-16.33
-16.96
-18.09
-20.32
-24.04
-29.28
-35.55
-41.84
-46.81
-49.18
-48.14
-43.56
-36.15
-27.19
-18.08
-10.01
-3.6
1.12
4.54
7.22
9.62
11.96
14.24
16.32
18.08
19.48
20.57
21.36
21.87
22.06
21.88
21.31
20.41
19.28
18.05
16.83
15.6
14.37
13.08
11.67
10.15
8.5
6.68
4.58
2.09
-0.81
-3.98
-7.09
-9.75
-11.75
-13.1
-14.19
-15.52
-17.6
-20.7
-24.75
-29.34
-33.79
-37.26
-38.91
-38.18
-34.94
-29.51
-22.63
-15.18
-7.95
-1.47
4.03
8.49
12.01
14.72
16.81
18.43
19.71
20.74
21.54
22.1
22.41
22.48
22.31
21.96
21.51
21.06
20.7
20.44
20.18
19.68
18.65
16.86
14.27
11.09
7.66
4.38
1.53
-0.81
-2.78
-4.62
-6.57
-8.74
-11.07
-13.38
-15.47
-17.29
-19.02
-21.01
-23.66
-27.2
-31.53
-36.12
-40.12
-42.55
-42.63
-40
-34.83
-27.78
-19.77
-11.68
-4.19
2.33
7.82
12.34
16.04
19.03
21.39
23.21
24.58
25.57
26.24
26.58
26.57
26.15
25.38
24.34
23.12
21.82
20.46
19
17.36
15.45
13.3
11.01
8.76
6.72
4.97
3.51
2.27
1.12
-0.07
-1.37
-2.83
-4.48
-6.3
-8.28
-10.39
-12.57
-14.81
-17.16
-19.78
-22.85
-26.43
-30.22
-33.53
-35.38
-34.87
-31.6
-25.84
-18.6
-11.24
-4.96
-0.48
2.15
3.36
3.79
4.09
4.79
6.29
8.97
13.01
18.33
24.42
30.38
35.09
37.6
37.42
34.68
30.09
24.66
19.42
15.13
12.16
10.53
10.03
10.35
11.14
12.1
12.89
13.15
12.54
10.86
8.1
4.55
0.69
-2.94
-5.92
-8.12
-9.65
-10.8
-11.94
-13.34
-15.22
-17.7
-20.81
-24.31
-27.68
-30.09
-30.65
-28.68
-24.02
-17.18
-9.19
-1.25
5.64
10.96
14.65
16.98
18.28
18.81
18.71
18.06
17
15.76
14.58
13.71
13.31
13.39
13.89
14.65
15.49
16.22
16.72
16.84
16.51
15.66
14.28
12.47
10.42
8.42
6.69
5.39
4.43
3.58
2.51
1
-1.03
-3.43
-5.95
-8.3
-10.33
-12.04
-13.57
-15.2
-17.23
-19.9
-23.19
-26.71
-29.75
-31.37
-30.77
-27.59
-22.13
-15.23
-8.03
-1.51
3.75
7.66
10.45
12.51
14.08
15.26
16.02
16.31
16.16
15.73
15.25
14.96
14.93
15.12
15.28
15.14
14.49
13.28
11.68
9.97
8.44
7.21
6.24
5.3
4.13
2.52
0.45
-1.98
-4.53
-7
-9.27
-11.35
-13.36
-15.46
-17.84
-20.59
-23.72
-27.21
-30.95
-34.73
-38.16
-40.64
-41.49
-40.13
-36.35
-30.43
-23.2
-15.7
-8.91
-3.39
0.8
3.96
6.55
8.89
11.08
13.05
14.63
15.7
16.28
16.52
16.62
16.76
17.03
17.42
17.86
18.21
18.4
18.35
18.07
17.53
16.71
15.58
14.07
12.16
9.88
7.33
4.62
1.89
-0.77
-3.29
-5.6
-7.68
-9.52
-11.19
-12.82
-14.62
-16.83
-19.61
-22.94
-26.52
-29.77
-31.92
-32.26
-30.33
-26.16
-20.3
-13.64
-7.12
-1.47
3.01
6.37
8.92
10.96
12.68
14.1
15.14
15.73
15.92
15.87
15.84
16.02
16.49
17.16
17.85
18.37
18.62
18.61
18.35
17.79
16.75
15.06
12.68
9.77
6.74
4.07
2.12
0.99
0.49
0.24
-0.17
-0.95
-2.1
-3.43
-4.71
-5.81
-6.8
-7.91
-9.47
-11.72
-14.71
-18.26
-21.91
-24.99
-26.77
-26.63
-24.25
-19.79
-13.84
-7.25
-0.91
4.52
8.76
11.8
13.85
15.18
16.11
16.87
17.67
18.57
19.5
20.3
20.76
20.83
20.56
20.16
19.79
19.53
19.32
19.03
18.53
17.76
16.74
15.46
13.92
12.1
9.99
7.69
5.37
3.2
1.28
-0.41
-2.07
-3.89
-6.01
-8.4
-10.91
-13.31
-15.49
-17.5
-19.58
-22.05
-25.17
-28.93
-32.97
-36.59
-38.94
-39.27
-37.2
-32.89
-26.98
-20.37
-13.96
-8.34
-3.74
-0.05
2.92
5.38
7.39
8.95
10.07
10.84
11.4
11.89
12.35
12.76
13.07
13.28
13.49
13.79
14.26
14.82
15.34
15.63
15.63
15.31
14.76
14.02
13.1
11.98
10.67
9.2
7.6
5.92
4.13
2.26
0.4
-1.35
-2.95
-4.49
-6.22
-8.47
-11.44
-15.15
-19.26
-23.27
-26.54
-28.51
-28.82
-27.37
-24.36
-20.25
-15.66
-11.2
-7.3
-4.11
-1.55
0.54
2.32
3.85
5.11
6.15
7.04
7.89
8.79
9.76
10.75
11.7
12.56
13.32
13.98
14.53
15.01
15.38
15.63
15.66
15.36
14.58
13.2
11.21
8.75
6.08
3.46
1.17
-0.72
-2.19
-3.38
-4.39
-5.35
-6.34
-7.4
-8.58
-9.84
-11.19
-12.57
-13.97
-15.33
-16.58
-17.57
-18.06
-17.78
-16.49
-14.13
-10.91
-7.25
-3.66
-0.51
2.1
4.32
6.39
8.42
10.35
11.97
13.06
13.56
13.62
13.49
13.4
13.38
13.35
13.12
12.51
11.47
10.12
8.65
7.34
6.39
5.89
5.72
5.63
5.32
4.62
3.54
2.24
0.99
-0.06
-0.87
-1.52
-2.08
-2.6
-3.02
-3.34
-3.64
-4.14
-5.06
-6.53
-8.46
-10.54
-12.35
-13.54
-13.91
-13.52
-12.57
-11.33
-10.05
-8.89
-7.91
-7.08
-6.34
-5.6
-4.85
-4.07
-3.27
-2.44
-1.52
-0.48
0.7
1.99
3.26
4.39
5.3
5.95
6.37
6.6
6.67
6.55
6.23
5.71
5.04
4.28
3.56
2.97
2.55
2.3
2.16
2.01
1.75
1.32
0.74
0.11
-0.49
-1
-1.42
-1.85
-2.41
-3.27
-4.53
-6.21
-8.12
-9.93
-11.2
-11.57
-10.86
-9.23
-7.06
-4.77
-2.72
-1.03
0.32
1.47
2.51
3.51
4.43
5.27
5.99
6.55
6.91
7.03
6.95
6.72
6.42
6.09
5.7
5.22
4.59
3.88
3.21
2.71
2.43
2.27
2.08
1.67
0.97
0.05
-0.86
-1.56
-1.94
-2.04
-2
-2.03
-2.24
-2.67
-3.21
-3.77
-4.24
-4.61
-4.9
-5.15
-5.42
-5.8
-6.4
-7.29
-8.46
-9.72
-10.77
-11.23
-10.88
-9.67
-7.83
-5.7
-3.6
-1.77
-0.27
0.87
1.66
2.06
2.1
1.8
1.27
0.66
0.16
-0.09
-0.01
0.37
0.93
1.48
1.85
1.93
1.73
1.36
0.92
0.5
0.05
-0.5
-1.18
-1.95
-2.71
-3.41
-4.07
-4.75
-5.52
-6.38
-7.27
-8.11
-8.9
-9.63
-10.31
-10.95
-11.52
-12.02
-12.49
-13.04
-13.69
-14.36
-14.81
-14.74
-13.94
-12.37
-10.21
-7.77
-5.28
-2.88
-0.58
1.61
3.66
5.45
6.86
7.85
8.47
8.9
9.33
9.88
10.57
11.35
12.15
12.92
13.64
14.26
14.67
14.68
14.14
12.99
11.33
9.35
7.27
5.25
3.33
1.5
-0.22
-1.76
-3.07
-4.1
-4.93
-5.71
-6.59
-7.62
-8.71
-9.71
-10.48
-10.99
-11.34
-11.68
-12.08
-12.51
-12.81
-12.81
-12.38
-11.52
-10.27
-8.74
-7.03
-5.2
-3.32
-1.53
0.08
1.43
2.53
3.46
4.36
5.27
6.16
6.9
7.32
7.39
7.2
6.94
6.77
6.72
6.63
6.31
5.65
4.72
3.8
3.17
2.93
2.99
3.09
2.96
2.53
1.87
1.18
0.66
0.3
-0.03
-0.53
-1.31
-2.32
-3.38
-4.32
-5.15
-6.02
-7.16
-8.75
-10.75
-12.89
-14.79
-16.07
-16.44
-15.77
-14.08
-11.45
-8.17
-4.6
-1.17
1.74
3.92
5.41
6.37
7.02
7.51
7.95
8.42
9.02
9.8
10.76
11.69
12.3
12.32
11.69
10.64
9.57
8.9
8.78
9.09
9.47
9.5
8.98
7.96
6.68
5.39
4.17
2.88
1.3
-0.67
-2.9
-4.98
-6.5
-7.25
-7.32
-7.13
-7.15
-7.71
-8.89
-10.5
-12.22
-13.8
-15.03
-15.78
-15.9
-15.25
-13.72
-11.34
-8.37
-5.22
-2.39
-0.26
1.07
1.74
2.11
2.5
3.09
3.85
4.64
5.27
5.71
5.98
6.18
6.37
6.54
6.63
6.6
6.5
6.43
6.4
6.34
6.07
5.42
4.32
2.89
1.33
-0.15
-1.41
-2.44
-3.32
-4.15
-5.01
-5.95
-7.02
-8.21
-9.53
-10.99
-12.58
-14.28
-16.08
-17.95
-19.84
-21.69
-23.38
-24.74
-25.52
-25.47
-24.48
-22.63
-20.28
-17.91
-16
-14.85
-14.45
-14.55
-14.73
-14.51
-13.46
-11.29
-7.91
-3.48
1.57
6.65
11.17
14.73
17.15
18.58
19.23
19.37
19.16
18.67
17.9
16.81
15.39
13.64
11.58
9.28
6.79
4.08
1.14
-2.08
-5.51
-8.99
-12.29
-15.18
-17.59
-19.65
-21.72
-24.23
-27.49
-31.45
-35.66
-39.29
-41.43
-41.34
-38.75
-33.93
-27.57
-20.55
-13.69
-7.48
-2.13
2.41
6.29
9.66
12.64
15.32
17.72
19.88
21.79
23.41
24.69
25.59
26.11
26.34
26.43
26.5
26.62
26.69
26.52
25.8
24.32
22.02
19.09
15.91
12.93
10.45
8.64
7.35
6.32
5.23
3.8
1.92
-0.36
-2.84
-5.24
-7.37
-9.14
-10.7
-12.36
-14.51
-17.52
-21.54
-26.37
-31.45
-35.88
-38.63
-38.86
-36.26
-31.16
-24.56
-17.67
-11.56
-6.75
-3.13
-0.17
2.73
5.93
9.41
12.92
16.13
18.78
20.78
22.15
22.99
23.44
23.69
23.95
24.35
24.95
25.64
26.2
26.34
25.83
24.58
22.58
20.01
17.13
14.21
11.51
9.17
7.17
5.37
3.52
1.41
-1.09
-3.97
-7.11
-10.32
-13.38
-16.14
-18.57
-20.8
-23.18
-26.12
-29.86
-34.25
-38.67
-42.14
-43.71
-42.75
-39.22
-33.66
-26.93
-19.88
-13.18
-7.13
-1.76
3.07
7.54
11.78
15.78
19.37
22.36
24.55
25.96
26.78
27.32
27.85
28.47
29.07
29.45
29.44
29.02
28.26
27.31
26.23
24.92
23.3
21.29
18.95
16.53
14.29
12.46
11.06
9.94
8.79
7.36
5.5
3.24
0.78
-1.69
-4
-6.12
-8.11
-10.14
-12.41
-15.16
-18.52
-22.59
-27.17
-31.8
-35.66
-37.86
-37.68
-34.9
-29.89
-23.49
-16.63
-10.03
-4.06
1.24
5.91
9.94
13.19
15.52
16.95
17.71
18.17
18.63
19.26
19.98
20.66
21.16
21.48
21.75
22.12
22.68
23.35
23.96
24.22
23.89
22.89
21.23
19.11
16.76
14.43
12.25
10.29
8.49
6.74
4.91
2.96
0.93
-1.07
-2.93
-4.64
-6.24
-7.88
-9.66
-11.66
-13.9
-16.33
-18.79
-20.94
-22.28
-22.21
-20.22
-16.16
-10.38
-3.71
2.77
8.1
11.74
13.68
14.33
14.27
13.92
13.48
12.96
12.32
11.62
11.07
10.88
11.1
11.61
12.07
12.16
11.72
10.78
9.53
8.16
6.76
5.35
3.93
2.54
1.26
0.14
-0.85
-1.79
-2.77
-3.87
-5.05
-6.23
-7.38
-8.49
-9.64
-10.95
-12.53
-14.48
-16.97
-20.12
-23.97
-28.29
-32.48
-35.72
-37.15
-36.22
-32.85
-27.63
-21.45
-15.3
-9.89
-5.47
-1.83
1.39
4.56
7.74
10.76
13.27
15.05
16.07
16.56
16.9
17.4
18.16
19.07
19.87
20.36
20.45
20.17
19.62
18.85
17.81
16.45
14.75
12.8
10.74
8.75
6.86
5.05
3.18
1.11
-1.2
-3.7
-6.25
-8.71
-10.99
-13.08
-15.05
-17.03
-19.16
-21.59
-24.4
-27.6
-30.96
-33.99
-35.98
-36.11
-33.79
-28.91
-21.96
-13.9
-5.85
1.34
7.28
12.03
15.87
19.06
21.66
23.54
24.59
24.84
24.48
23.84
23.15
22.52
21.93
21.29
20.62
20.01
19.57
19.33
19.17
18.84
18.12
16.86
15.11
13.09
11.08
9.28
7.74
6.29
4.66
2.61
0.04
-2.97
-6.14
-9.17
-11.84
-14.11
-16.11
-18.15
-20.57
-23.67
-27.6
-32.25
-37.14
-41.46
-44.21
-44.49
-41.84
-36.45
-29.11
-20.99
-13.18
-6.46
-1.1
3.1
6.49
9.46
12.26
14.98
17.57
19.92
21.88
23.3
24.07
24.15
23.62
22.62
21.37
20.05
18.77
17.56
16.35
15.08
13.71
12.26
10.75
9.14
7.39
5.38
3.08
0.48
-2.28
-5.04
-7.63
-9.89
-11.8
-13.36
-14.66
-15.84
-17.06
-18.46
-20.16
-22.19
-24.4
-26.46
-27.9
-28.21
-27.03
-24.31
-20.35
-15.7
-11.03
-6.8
-3.18
-0.05
2.86
5.78
8.8
11.78
14.5
16.81
18.67
20.19
21.53
22.83
24.11
25.25
26.09
26.5
26.5
26.25
25.98
25.81
25.68
25.41
24.77
23.6
21.96
20.03
18.07
16.24
14.63
13.17
11.73
10.17
8.4
6.35
4.04
1.52
-1.17
-3.95
-6.78
-9.63
-12.39
-14.88
-16.88
-18.2
-18.8
-18.71
-18.07
-16.95
-15.37
-13.31
-10.76
-7.82
-4.72
-1.74
0.89
3.05
4.79
6.29
7.71
9.17
10.61
11.85
12.68
12.96
12.74
12.15
11.39
10.61
9.84
9.07
8.3
7.64
7.17
6.96
6.83
6.54
5.75
4.24
2
-0.77
-3.71
-6.44
-8.63
-10.14
-10.97
-11.32
-11.47
-11.67
-12.12
-12.87
-13.91
-15.22
-16.75
-18.44
-20.11
-21.46
-22.13
-21.8
-20.38
-18.06
-15.2
-12.21
-9.33
-6.59
-3.87
-1.02
1.91
4.69
6.97
8.47
9.14
9.23
9.15
9.28
9.78
10.58
11.4
11.93
11.99
11.57
10.77
9.78
8.71
7.65
6.64
5.71
4.92
4.31
3.85
3.46
2.92
2.04
0.69
-1.07
-3.01
-4.83
-6.27
-7.3
-8.06
-8.88
-10.03
-11.62
-13.55
-15.56
-17.32
-18.55
-19.11
-18.91
-17.91
-16.13
-13.62
-10.51
-7.08
-3.67
-0.62
1.86
3.73
5.11
6.17
7.04
7.72
8.16
8.28
8.06
7.62
7.15
6.84
6.8
7.01
7.35
7.58
7.48
6.94
5.91
4.51
2.94
1.4
0.04
-1.07
-1.96
-2.71
-3.4
-4.11
-4.86
-5.68
-6.58
-7.62
-8.86
-10.36
-12.14
-14.19
-16.44
-18.71
-20.76
-22.31
-23.08
-22.85
-21.51
-19.11
-15.85
-12
-7.86
-3.65
0.42
4.17
7.47
10.17
12.21
13.65
14.57
15.12
15.34
15.25
14.82
14.11
13.28
12.52
11.97
11.57
11.16
10.48
9.39
7.92
6.26
4.65
3.18
1.88
0.65
-0.58
-1.81
-2.94
-3.87
-4.59
-5.19
-5.85
-6.72
-7.86
-9.3
-11.02
-13.11
-15.58
-18.27
-20.68
-22.02
-21.47
-18.53
-13.33
-6.65
0.45
6.97
12.37
16.63
20
22.75
24.95
26.45
27.04
26.69
25.58
24.07
22.57
21.39
20.57
20.05
19.62
19.1
18.4
17.55
16.64
15.74
14.87
13.93
12.79
11.3
9.42
7.29
5.14
3.22
1.63
0.26
-1.17
-2.92
-5.09
-7.57
-10.11
-12.46
-14.54
-16.46
-18.45
-20.69
-23.17
-25.61
-27.53
-28.43
-27.94
-25.96
-22.72
-18.66
-14.31
-10.07
-6.12
-2.46
1
4.24
7.15
9.5
11.16
12.11
12.57
12.8
13.09
13.57
14.2
14.79
15.12
15.01
14.44
13.54
12.53
11.57
10.67
9.68
8.4
6.65
4.44
1.92
-0.63
-3.02
-5.14
-7.08
-9.06
-11.28
-13.86
-16.75
-19.78
-22.76
-25.59
-28.36
-31.32
-34.79
-38.96
-43.77
-48.82
-53.41
-56.73
-57.93
-56.26
-51.25
-42.78
-31.25
-17.7
-3.73
8.77
18.03
23
23.6
20.81
16.28
11.87
9.05
8.59
10.51
14.3
19.21
24.39
29.1
32.6
34.28
33.75
30.97
26.33
20.54
14.49
8.9
4.17
0.32
-2.91
-5.87
-8.81
-11.81
-14.85
-17.84
-20.77
-23.71
-26.79
-30.08
-33.44
-36.41
-38.23
-38.11
-35.49
-30.36
-23.34
-15.5
-8.03
-1.75
3.09
6.78
9.89
12.83
15.76
18.44
20.56
21.91
22.52
22.63
22.52
22.38
22.2
21.83
21.14
20.13
18.96
17.87
16.99
16.26
15.45
14.25
12.48
10.13
7.41
4.55
1.73
-1.04
-3.81
-6.65
-9.53
-12.38
-15.2
-18.06
-21.18
-24.85
-29.23
-34.32
-39.84
-45.2
-49.61
-52.18
-52.16
-49.18
-43.39
-35.42
-26.21
-16.72
-7.67
0.52
7.69
13.79
18.82
22.83
26.01
28.65
31.02
33.28
35.39
37.18
38.46
39.16
39.35
39.16
38.67
37.97
37.11
36.15
35.15
34.11
32.96
31.55
29.74
27.5
24.86
21.95
18.86
15.64
12.34
9.02
5.77
2.7
-0.13
-2.73
-5.23
-7.84
-10.8
-14.36
-18.69
-23.79
-29.37
-34.76
-39.01
-41.1
-40.26
-36.32
-29.78
-21.68
-13.21
-5.36
1.32
6.75
11.09
14.55
17.24
19.16
20.32
20.78
20.71
20.3
19.76
19.27
19.03
19.18
19.78
20.74
21.78
22.52
22.69
22.16
20.99
19.37
17.42
15.23
12.82
10.25
7.63
5.14
2.82
0.63
-1.63
-4.13
-6.89
-9.75
-12.41
-14.64
-16.37
-17.8
-19.23
-21
-23.34
-26.33
-29.83
-33.49
-36.7
-38.65
-38.54
-35.84
-30.5
-23.05
-14.53
-6.16
1.06
6.61
10.47
13.03
14.85
16.34
17.67
18.83
19.73
20.32
20.62
20.71
20.71
20.64
20.5
20.27
19.94
19.59
19.26
18.98
18.69
18.25
17.52
16.4
14.9
13.15
11.35
9.64
8.09
6.57
4.87
2.81
0.3
-2.63
-5.79
-9.07
-12.43
-15.97
-19.89
-24.33
-29.11
-33.73
-37.37
-39.14
-38.43
-35.1
-29.55
-22.61
-15.25
-8.34
-2.42
2.32
6.04
9.02
11.57
13.89
16.03
17.98
19.66
21.05
22.16
23.06
23.72
24.14
24.25
24.05
23.6
22.98
22.24
21.36
20.22
18.71
16.8
14.56
12.12
9.61
7.08
4.56
2
-0.59
-3.19
-5.81
-8.42
-11.06
-13.74
-16.46
-19.18
-21.93
-24.79
-27.93
-31.42
-35.12
-38.47
-40.66
-40.84
-38.47
-33.56
-26.7
-18.83
-10.95
-3.83
2.15
6.91
10.57
13.32
15.39
16.97
18.26
19.4
20.45
21.39
22.17
22.75
23.11
23.26
23.16
22.8
22.15
21.24
20.13
18.86
17.43
15.8
13.88
11.64
9.14
6.59
4.17
2.04
0.21
-1.45
-3.15
-5.09
-7.31
-9.71
-12.09
-14.24
-16.14
-17.99
-20.15
-22.94
-26.48
-30.53
-34.51
-37.61
-39.09
-38.37
-35.27
-30
-23.13
-15.46
-7.82
-0.94
4.75
9.13
12.34
14.61
16.19
17.27
17.97
18.4
18.69
18.94
19.22
19.54
19.84
20.05
20.12
20.04
19.8
19.43
18.91
18.23
17.33
16.15
14.63
12.75
10.62
8.42
6.37
4.6
3.03
1.42
-0.51
-2.93
-5.76
-8.64
-11.21
-13.24
-14.8
-16.19
-17.85
-20.12
-23.12
-26.62
-30.14
-32.91
-34.15
-33.24
-29.97
-24.66
-18.08
-11.17
-4.79
0.6
4.89
8.24
10.89
13.02
14.7
16.01
17.01
17.76
18.35
18.8
19.15
19.42
19.61
19.69
19.6
19.25
18.58
17.64
16.46
15.13
13.65
11.96
10
7.82
5.6
3.52
1.73
0.15
-1.43
-3.28
-5.54
-8.12
-10.76
-13.14
-15.08
-16.58
-17.84
-19.19
-20.92
-23.29
-26.4
-30.14
-34.09
-37.56
-39.67
-39.62
-37
-31.96
-25.27
-18
-11.12
-5.27
-0.6
3.08
6.05
8.51
10.47
11.89
12.82
13.44
14.05
14.89
16.04
17.37
18.57
19.32
19.42
18.86
17.8
16.47
15.06
13.6
12.02
10.17
8.02
5.65
3.29
1.14
-0.72
-2.41
-4.15
-6.17
-8.52
-11.08
-13.57
-15.81
-17.76
-19.64
-21.79
-24.52
-27.91
-31.75
-35.52
-38.53
-40.04
-39.49
-36.65
-31.7
-25.22
-18.03
-10.98
-4.71
0.46
4.55
7.73
10.29
12.42
14.18
15.59
16.6
17.21
17.45
17.39
17.18
17
17.01
17.26
17.64
17.95
17.95
17.5
16.63
15.42
14.05
12.63
11.19
9.68
8.02
6.1
3.93
1.55
-0.88
-3.23
-5.43
-7.47
-9.44
-11.49
-13.74
-16.23
-18.9
-21.67
-24.46
-27.2
-29.76
-31.81
-32.82
-32.15
-29.28
-24.1
-17.07
-9.11
-1.26
5.66
11.37
16.08
20.2
24.04
27.55
30.39
32.18
32.77
32.31
31.25
30.01
28.89
27.88
26.85
25.66
24.24
22.66
21.02
19.4
17.76
15.99
13.94
11.53
8.82
5.93
3.14
0.67
-1.4
-3.18
-5.01
-7.32
-10.38
-14.14
-18.18
-21.87
-24.71
-26.57
-27.79
-29.06
-31.03
-34.04
-37.95
-42.07
-45.46
-47.15
-46.43
-43.03
-37.2
-29.59
-21.12
-12.69
-5.04
1.39
6.44
10.19
12.84
14.61
15.73
16.36
16.64
16.66
16.48
16.19
15.9
15.71
15.73
16.04
16.66
17.58
18.67
19.79
20.74
21.32
21.41
21
20.14
18.87
17.28
15.39
13.22
10.74
7.94
4.77
1.26
-2.47
-6.21
-9.69
-12.78
-15.52
-18.18
-21.09
-24.53
-28.6
-33.15
-37.79
-41.97
-44.96
-46.03
-44.55
-40.32
-33.67
-25.47
-16.86
-8.83
-1.97
3.69
8.48
12.8
16.81
20.4
23.23
24.98
25.59
25.3
24.65
24.2
24.4
25.3
26.66
28.06
29.1
29.62
29.68
29.47
29.07
28.38
27.12
25.06
22.14
18.6
14.82
11.19
7.89
4.9
2.05
-0.78
-3.56
-6.13
-8.3
-9.99
-11.43
-13.01
-15.21
-18.33
-22.35
-26.85
-31.07
-34.1
-35.11
-33.61
-29.55
-23.38
-15.92
-8.11
-0.87
5.22
9.92
13.33
15.75
17.58
19.09
20.4
21.46
22.11
22.22
21.74
20.78
19.53
18.26
17.12
16.17
15.38
14.65
13.92
13.11
12.15
10.89
9.18
6.89
4.09
1.03
-1.86
-4.23
-5.92
-7.12
-8.24
-9.74
-11.85
-14.55
-17.54
-20.47
-23.04
-25.21
-27.09
-28.98
-31.18
-33.9
-37.04
-40.22
-42.73
-43.74
-42.56
-38.98
-33.3
-26.29
-18.85
-11.72
-5.31
0.28
5.11
9.28
12.81
15.7
18.01
19.82
21.28
22.46
23.32
23.74
23.59
22.87
21.69
20.25
18.75
17.29
15.91
14.53
12.99
11.08
8.56
5.25
1.1
-3.66
-8.61
-13.21
-17.03
-19.87
-21.86
-23.22
-24.18
-24.78
-24.96
-24.6
-23.74
-22.61
-21.58
-21.11
-21.62
-23.33
-26.13
-29.51
-32.54
-34.07
-33.15
-29.33
-22.93
-14.87
-6.36
1.58
8.47
14.35
19.54
24.3
28.65
32.38
35.23
37.07
38.06
38.5
38.66
38.73
38.74
38.62
38.36
38.08
38.02
38.38
39.22
40.39
41.49
42.06
41.73
40.38
38.19
35.56
33.01
30.95
29.57
28.78
28.24
27.46
26.07
23.83
20.71
16.85
12.37
7.44
2.14
-3.45
-9.24
-15.18
-21.29
-27.62
-34.15
-40.66
-46.6
-51.19
-53.66
-53.53
-50.9
-46.36
-40.83
-35.13
-29.78
-24.87
-20.25
-15.66
-11.01
-6.44
-2.25
1.3
4.09
6.21
7.89
9.38
10.79
12.16
13.4
14.49
15.44
16.29
17.05
17.58
17.71
17.27
16.26
14.88
13.44
12.2
11.27
10.46
9.47
7.97
5.84
3.19
0.31
-2.45
-4.86
-6.87
-8.57
-10.12
-11.69
-13.45
-15.53
-17.95
-20.49
-22.66
-23.83
-23.39
-21.07
-17.1
-12.15
-7.09
-2.58
1.11
4.02
6.38
8.4
10.09
11.36
12.1
12.3
12.06
11.63
11.24
11.08
11.25
11.7
12.32
12.93
13.34
13.38
12.96
12.08
10.79
9.19
7.39
5.49
3.62
1.82
0.13
-1.47
-3
-4.46
-5.81
-7.01
-8.01
-8.81
-9.49
-10.17
-10.99
-12.14
-13.73
-15.84
-18.4
-21.13
-23.55
-25
-24.92
-22.98
-19.33
-14.49
-9.24
-4.3
-0.07
3.37
6.2
8.65
10.82
12.67
14.11
15.06
15.56
15.75
15.75
15.62
15.35
14.91
14.28
13.51
12.7
11.91
11.2
10.52
9.77
8.87
7.76
6.46
5.08
3.66
2.19
0.56
-1.33
-3.49
-5.74
-7.84
-9.49
-10.59
-11.3
-11.96
-12.95
-14.54
-16.83
