29.9
15.46
5.06
-0.39
-1.39
0.59
4.08
8
11.73
14.85
16.99
17.69
16.47
13.02
7.39
0.21
-7.46
-14.4
-19.65
-22.9
-24.6
-25.67
-27.1
-29.41
-32.49
-35.72
-38.37
-39.95
-40.42
-40.07
-39.31
-38.41
-37.41
-36.08
-34.22
-31.75
-28.77
-25.64
-22.86
-20.92
-20.05
-20.11
-20.48
-20.31
-18.82
-15.7
-11.28
-6.49
-2.47
-0.07
0.47
-0.38
-1.65
-2.28
-1.5
0.82
4.24
7.88
10.86
12.64
13.24
13.23
13.36
14.15
15.63
17.26
18.35
18.43
17.51
16.07
14.72
13.69
12.76
11.27
8.61
4.64
-0.08
-4.63
-8.18
-10.63
-12.7
-15.66
-20.53
-27.47
-35.44
-42.51
-46.7
-46.85
-43.16
-37.03
-30.4
-25
-21.93
-21.78
-24.99
-31.98
-42.53
-54.83
-65.19
-69.03
-63.35
-48.98
-31.38
-18.55
-17.28
-29.26
-49.72
-69.29
-78.08
-69.9
-44.07
-4.64
42
89.46
132.23
165.42
184.43
185.64
167.95
134.35
92.07
50.82
20
5.85
9.93
29.52
59.1
92.35
123.78
149.68
168.52
180.9
189.08
196.08
204.85
217.26
233.42
251.47
267.89
278.3
278.72
266.63
241.91
206.94
165.66
121.77
76.87
29.9
-22.04
-80.85
-144.73
-207.24
-258.74
-289.76
-294.54
-272.95
-230.37
-175.96
-120.49
-74.4
-46.25
-41.02
-58.82
-94.15
-136.83
-174.9
-198.55
-203.28
-190.96
-168.03
-142.08
-118.8
-100.5
-86.74
-76.01
-67.33
-60.76
-56.96
-56.31
-58.1
-60.67
-62.16
-61.35
-58.25
-54.08
-50.52
-49
-50.22
-54.12
-60.07
-67.09
-73.78
-78.27
-78.24
-71.49
-57.02
-35.87
-11.33
11.93
29.74
40.02
43.51
42.93
41.39
40.7
40.83
40.32
37.11
29.27
15.55
-4.09
-27.87
-51.79
-70.22
-77.83
-72.4
-56.56
-37.29
-22.65
-17.33
-19.81
-23.08
-18.73
-1.93
25.52
56.25
81.64
96.6
102.11
103.88
108.56
119.78
136.38
153.58
166.18
171.52
170.61
167.08
164.85
165.94
169.58
172.91
172.64
166.62
154.95
139.85
124.74
112.93
106.61
106.24
110.62
117.14
122.29
122.11
112.83
91.67
57.9
13.47
-37.14
-88.01
-133.44
-169.4
-194.12
-207.61
-210.92
-205.41
-192.73
-174.57
-152.49
-127.6
-100.77
-73.22
-47.53
-27.64
-17.85
-20.71
-35.15
-56.28
-77.12
-91.64
-97.09
-94.56
-87.35
-78.62
-69.88
-60.92
-51.07
-40.58
-31.03
-24.57
-22.73
-25.47
-31.05
-36.76
-40.01
-39.47
-35.33
-29.09
-22.65
-17.43
-13.79
-10.98
-7.79
-3.24
2.83
9.71
16.13
20.9
23.39
23.76
22.8
21.61
21.12
21.75
23.37
25.3
26.72
26.9
25.59
23.01
19.71
16.3
13.15
10.45
8.14
6.19
4.44
2.67
0.5
-2.39
-6.15
-10.42
-14.37
-17.15
-18.25
-18.11
-18.03
-19.58
-23.77
-30.35
-37.63
-43.01
-44.13
-39.96
-31.41
-20.92
-11.58
-5.83
-4.66
-7.4
-12.07
-15.89
-15.83
-9.19
5.54
27.79
54.41
80.26
100.19
111.33
114.54
113.92
114.28
118.21
124.44
128.23
123.78
106.87
76.73
36.49
-7.54
-47.47
-75.71
-87.17
-81.08
-61.48
-35.77
-11.39
7.44
21.32
34.13
49.61
68.14
85.99
97.79
100.13
94.28
85.88
82.11
87.95
104.02
126.55
149.39
166.7
174.53
171.41
157.64
134.19
101.94
61.46
13.61
-39.64
-94.36
-145.02
-185.62
-211.76
-221.98
-217.78
-202.27
-178.06
-146.4
-108.09
-65.68
-24.86
6.36
21
16.67
-2.66
-28.32
-51
-64.94
-69.6
-68.31
-65.1
-61.95
-58.16
-51.87
-42.25
-30.62
-20.12
-13.93
-13.5
-17.9
-24.34
-29.47
-30.93
-28.08
-22.14
-15.34
-9.72
-6.21
-4.36
-2.82
-0.24
3.92
9.14
14.08
17.36
18.18
16.75
14.01
11.31
9.75
9.83
11.34
13.55
15.55
16.66
16.68
15.73
14.27
12.75
11.42
10.33
9.3
8.05
6.39
4.25
1.72
-0.88
-3.12
-4.7
-5.41
-5.43
-5.2
-5.37
-6.42
-8.6
-11.71
-15.34
-18.98
-22.28
-25
-27.01
-28.11
-28.05
-26.6
-23.71
-19.72
-15.32
-11.39
-8.71
-7.78
-8.51
-10.45
-12.93
-15.3
-17.31
-19.09
-21.23
-24.31
-28.71
-34.23
-40.11
-45.3
-48.83
-50.3
-49.98
-48.87
-48.34
-49.84
-54.27
-61.56
-70.39
-78.14
-81.61
-77.89
-65.7
-46.2
-23.1
-1.52
13.91
21.15
21.81
20.79
24.59
38.87
66.54
106.79
155.42
205.97
251.36
285.45
304.21
306.34
293.29
268.69
237.44
204.68
175.13
152.44
138.87
134.8
138.54
146.51
154.26
158
155.74
147.55
134.52
117.39
95.52
67.24
31.35
-11.36
-57.56
-102.45
-141.43
-171.46
-190.97
-198.87
-193.85
-175.22
-144.83
-108.55
-75.65
-55.6
-53.9
-69.35
-94.39
-118.75
-134.2
-137.58
-131.07
-119.6
-107.54
-96.77
-86.83
-76.41
-64.99
-53.44
-43.51
-36.74
-33.55
-33.11
-33.55
-32.94
-29.98
-24.59
-17.97
-11.84
-7.85
-6.83
-8.54
-11.86
-15.21
-17.13
-16.68
-13.68
-8.77
-3.3
1.16
3.14
1.78
-2.83
-9.55
-16.21
-19.77
-16.52
-2.82
23.74
62.71
109.51
155.62
190.81
206.69
200.25
175.47
141.97
111.15
91.58
85.9
90.36
97.29
98.67
88.86
65.59
29.15
-18.87
-75.95
-137.93
-198.03
-247.13
-275.88
-278.34
-255.1
-213.96
-167.29
-127.13
-100.49
-87.19
-81.29
-75.01
-62.76
-43.46
-20.05
2.9
21.65
34.72
42.66
46.91
48.53
47.73
44.24
38.09
30.12
22.04
15.78
12.6
12.59
14.62
17.02
18.4
18.27
17.14
16.04
15.95
17.14
19.16
21.03
21.86
21.16
19.08
16.23
13.3
10.76
8.72
6.96
5.13
3.04
0.73
-1.59
-3.62
-5.31
-7.01
-9.37
-13.12
-18.63
-25.51
-32.69
-38.75
-42.6
-44.12
-44.25
-44.61
-46.63
-50.92
-56.82
-62.74
-66.84
-67.75
-65.12
-59.64
-52.98
-47.49
-46.05
-51.47
-65.52
-87.72
-114.44
-139.19
-154.53
-154.87
-138.97
-110.74
-77.62
-47.53
-25.85
-13.99
-10.05
-10.65
-12.57
-13.26
-10.21
-0.37
19.5
51.4
94.35
143.64
191.71
230.58
254.43
261.46
253.97
237.04
216.16
195.36
175.97
156.96
136.31
112.53
85.85
58.37
33.23
13.28
0.2
-6.05
-7.03
-5.52
-4.98
-8.69
-18.48
-33.46
-49.42
-59.72
-57.67
-39.2
-4.61
41.67
93.08
143.47
188.52
225.85
254.06
271.99
278.97
275.74
265.16
251.94
241.05
235.79
236.56
240.66
243.55
240.52
228.29
205.76
174.08
135.9
94.35
52.13
10.69
-29.82
-70.33
-111.99
-155.2
-198.93
-240.49
-276.02
-301.75
-315.66
-318.49
-313.3
-303.83
-292.66
-280.33
-265.94
-248.59
-228.41
-206.72
-185.05
-164.37
-144.85
-126.53
-110.08
-96.79
-87.66
-82.45
-79.17
-74.94
-67.43
-56.15
-42.34
-28
-14.7
-3.11
6.55
14.12
19.22
21.46
20.85
17.99
13.84
9.36
5.28
2.03
-0.13
-1.11
-1.05
-0.5
-0.21
-1.02
-3.46
-7.45
-12.32
-16.98
-20.41
-21.98
-21.64
-19.74
-16.88
-13.55
-10.04
-6.32
-2.25
2.26
7
11.42
14.71
16.15
15.52
13.23
10.33
8.05
7.31
8.31
10.48
12.88
14.63
15.36
15.23
14.61
13.92
13.52
13.92
15.75
19.55
25.01
30.39
32.54
28.11
15.41
-4.12
-25.76
-43.26
-51.45
-48.48
-36.31
-19.3
-1.9
13.22
25.68
36.28
45.56
52.87
56.66
55.65
49.86
40.91
31.39
23.56
18.42
15.59
13.75
11.54
8.14
3.48
-1.94
-7.48
-12.57
-16.84
-20.13
-22.52
-24.55
-27.14
-31.34
-37.76
-46.08
-54.92
-62.52
-67.67
-70.49
-72.4
-75.43
-80.94
-88.94
-98.34
-107.64
-115.85
-122.62
-127.77
-130.49
-129.25
-122.59
-110.07
-92.94
-73.39
-53.13
-31.91
-7.27
24.25
64.87
113.75
166.56
216.77
258.03
286.35
301.18
305.13
302.39
297.07
291.78
287.25
282.48
275.48
264.01
246.21
221.02
188.21
148.44
103.34
55.31
7.27
-37.8
-77.24
-109.1
-132.23
-146.46
-152.64
-152.55
-148.37
-142.01
-134.51
-125.89
-115.71
-103.65
-90.31
-77.1
-65.73
-57.38
-52.13
-48.99
-46.56
-43.8
-40.49
-37.01
-33.92
-31.53
-29.72
-28.18
-26.64
-25.06
-23.61
-22.48
-21.77
-21.33
-20.91
-20.38
-19.81
-19.48
-19.61
-20.17
-20.81
-21.06
-20.63
-19.62
-18.41
-17.48
-17.17
-17.59
-18.7
-20.34
-22.19
-23.65
-23.92
-22.16
-17.98
-11.61
-3.83
4.34
12.22
19.64
26.75
33.72
40.41
46.44
51.33
54.85
57.11
58.55
59.89
62.03
65.82
71.63
78.78
85.3
88.1
83.96
70.83
48.89
20.79
-9.11
-36
-55.87
-66.26
-66.83
-59.43
-47.74
-36.51
-30
-30.71
-38.28
-49.84
-61.32
-69.25
-71.98
-69.91
-64.6
-57.56
-49.59
-40.92
-31.78
-22.99
-15.79
-11.19
-9.37
-9.51
-10.23
-10.24
-9.02
-7.04
-5.52
-5.73
-8.36
-12.99
-18.29
-22.43
-23.93
-22.38
-18.75
-15.21
-14.25
-17.76
-26.06
-37.64
-49.46
-57.93
-60.22
-55.33
-44.61
-31.44
-20.24
-15.08
-18.29
-29.66
-46.32
-63.58
-76.45
-81.31
-77.1
-65.6
-50.42
-35.54
-23.54
-14.58
-6.52
4.13
20.58
44.58
75.48
110.47
145.33
175.67
198.4
212.54
219.29
221.09
220.13
217.2
211.6
202.08
188.21
171.06
152.5
133.7
113.66
89.44
58.06
19.37
-22.55
-60.66
-88.4
-103.33
-108.34
-109.74
-113.12
-120.06
-127.4
-129.82
-123.66
-109.51
-91.96
-76.9
-68.42
-67.08
-70.66
-76.15
-81.44
-85.69
-88.35
-87.96
-81.72
-66.49
-40.35
-4.21
37.77
79.53
115.37
142.63
163.06
182.03
205.6
236.73
272.85
306.31
327.84
330.94
314.93
284.76
247.87
210.18
173.95
137.97
100.16
60.16
19.86
-17.94
-52
-83.84
-116.77
-153.45
-193.59
-233.12
-265.2
-282.57
-280.26
-257.55
-218.79
-172.38
-128.36
-95.43
-78.25
-76.29
-84.58
-96.15
-104.83
-107.24
-103.2
-94.59
-83.86
-72.72
-61.94
-51.9
-42.98
-35.8
-31.14
-29.49
-30.73
-33.92
-37.56
-40.05
-40.38
-38.6
-35.67
-33.1
-32.06
-32.88
-34.98
-37.26
-38.69
-38.77
-37.55
-35.36
-32.46
-28.94
-24.73
-19.8
-14.37
-8.85
-3.73
0.66
4.2
6.96
9.02
10.46
11.31
11.69
11.81
11.95
12.36
13.08
13.96
14.63
14.71
13.96
12.45
10.43
8.3
6.47
5.22
4.53
4.11
3.5
2.18
-0.07
-3.02
-6.08
-8.55
-10.05
-10.76
-11.45
-13.01
-15.97
-20.15
-24.65
-28.28
-29.92
-28.8
-24.68
-17.72
-8.5
1.93
12.1
20.47
25.76
27.61
26.76
24.79
23.39
23.43
24.69
25.99
26.52
26.37
27.06
30.84
39.42
52.61
67.97
81.65
90.06
92.32
90.32
88.18
90.06
98.22
111.87
127.58
140.74
146.81
142.67
125.36
92.68
43.95
-18.3
-87.08
-151.41
-199.16
-221.07
-213.01
-178.22
-124.37
-59.64
10.55
84.32
161.18
240.13
311.17
366.09
396.31
397.61
372.21
328.03
275.28
222.66
174.87
131.99
92.49
54.27
16.75
-19.07
-51.78
-81.04
-108.19
-135.44
-164.31
-193.34
-218.94
-236.4
-242.61
-238.12
-227.34
-216.41
-210.11
-209.5
-211.31
-210.73
-204.06
-190.77
-173.4
-155.89
-141.33
-130.74
-123.25
-116.9
-110.07
-101.87
-92.14
-81.29
-70.04
-59.13
-49.07
-39.96
-31.39
-22.81
-14.01
-5.36
2.27
8.02
11.57
13.47
14.94
17.21
20.99
26.01
31.19
35.04
36.26
34.26
29.34
22.63
15.66
9.83
5.87
3.46
1.28
-2.49
-9.37
-19.91
-33.38
-47.97
-61.3
-70.91
-74.63
-71.13
-60.43
-44.63
-27.85
-14.98
-9.69
-12.21
-18.77
-23.04
-19.42
-6.21
13.15
31.79
43.02
43.81
36
24.71
15.12
9.74
7.67
5.93
1.8
-5.54
-14.83
-23.74
-30.18
-33.21
-32.79
-29.23
-22.4
-11.61
4.17
25.53
52.17
82.51
113.99
143.62
168.75
187.8
200.55
208.05
211.95
213.75
214.11
212.74
208.71
201.15
189.82
175.45
159.6
144.26
131.32
122.14
117.36
116.92
120.24
126.49
134.82
144.44
154.53
163.91
170.64
171.97
164.71
146.18
115.19
72.62
21.34
-34.75
-91.74
-146.74
-197.8
-243.35
-281.31
-308.85
-323.12
-322.58
-307.96
-282.14
-249.02
-212.12
-173.85
-135.88
-100.09
-69.24
-46.44
-33.9
-31.48
-36.48
-44.68
-52.23
-57.18
-59.65
-60.84
-61.65
-61.9
-60.6
-56.74
-50.18
-41.78
-33.06
-25.39
-19.62
-15.77
-13.34
-11.66
-10.2
-8.79
-7.49
-6.51
-5.99
-5.85
-5.83
-5.57
-4.82
-3.51
-1.83
-0.08
1.34
2.15
2.16
1.33
-0.23
-2.36
-4.85
-7.47
-9.91
-12.02
-13.75
-15.25
-16.87
-19.04
-22.24
-26.65
-32.09
-37.81
-42.78
-45.93
-46.76
-45.54
-43.25
-41.17
-40.29
-40.84
-42.27
-43.59
-43.98
-43.3
-42.35
-42.53
-45.26
-51.26
-60.03
-69.76
-77.79
-81.36
-78.42
-68.33
-52.13
-32.49
-13.15
2.18
11.01
13.44
12.7
14.62
25.67
50.42
89.21
137.57
187.38
229.64
257.41
267.55
260.91
241.1
212.83
180.85
149.39
121.96
100.84
86.53
77.44
70.49
62.59
52.2
40.19
29.45
23.26
23.6
30.11
40.36
51.1
59.61
64.64
66.17
64.9
61.51
56.43
50.06
43
36.15
30.34
25.78
21.79
17.05
10.32
1.36
-8.96
-19.34
-29.18
-39.24
-51.17
-66.15
-83.4
-99.91
-111.51
-115.02
-109.93
-98.71
-85.4
-73.56
-64.82
-58.8
-54.2
-50.25
-47.21
-46.04
-47.18
-49.93
-52.46
-52.72
-49.67
-43.69
-36.28
-28.92
-22.25
-15.96
-9.53
-3.08
2.24
4.73
3.2
-2.17
-9.78
-17.34
-23.06
-26.34
-27.73
-28.22
-28.68
-29.46
-30.64
-32.26
-34.4
-37.11
-40.11
-42.73
-44.25
-44.1
-42.15
-38.63
-34.03
-28.87
-23.52
-18.23
-13.11
-8.22
-3.74
0.09
2.94
4.54
4.92
4.51
4
4.09
5.1
6.78
8.45
9.29
8.6
6.11
1.86
-3.91
-10.78
-18.16
-25.18
-30.77
-34.05
-34.67
-33
-30.09
-27.16
-25.09
-24.05
-23.48
-22.39
-19.87
-15.47
-9.33
-2.18
5.02
11.52
17.06
21.93
26.82
32.39
38.79
45.53
51.59
55.83
57.54
56.64
53.71
49.57
44.96
40.28
35.67
31.19
27.05
23.63
21.24
19.87
19.13
18.38
17.03
14.87
12.12
9.31
6.93
5.25
4.14
3.3
2.39
1.23
-0.15
-1.59
-2.93
-4.16
-5.41
-6.99
-9.14
-11.97
-15.31
-18.71
-21.49
-22.98
-22.78
-20.86
-17.54
-13.36
-8.85
-4.44
-0.32
3.41
6.78
9.81
12.57
15.06
17.28
19.18
20.65
21.62
22.06
22.08
21.81
21.48
21.17
20.83
20.41
19.83
19.04
18.04
16.92
15.74
14.64
13.72
12.97
12.33
11.62
10.59
9.07
7.11
4.86
2.6
0.51
-1.45
-3.41
-5.54
-7.92
-10.45
-12.99
-15.44
-17.72
-19.75
-21.41
-22.37
-22.31
-20.99
-18.48
-15.04
-11.11
-7
-2.88
1.16
5.1
8.77
11.89
14.19
15.47
15.77
15.35
14.61
13.86
13.39
13.23
13.28
13.31
13.1
12.44
11.25
9.56
7.45
5.13
2.73
0.27
-2.39
-5.58
-9.66
-14.91
-21.26
-28.35
-35.51
-42.1
-47.85
-52.94
-58.04
-63.96
-71.29
-80
-89.44
-98.57
-106.43
-112.69
-117.82
-122.87
-128.71
-135.52
-142.69
-149.07
-153.44
-154.63
-151.09
-140.62
-120.52
-88.74
-45.47
5.95
59.86
110.52
154.46
191.82
225.27
257.73
290.18
320.9
346.57
364.2
372.54
372.13
364.32
350.19
330.09
304.1
272.75
237.42
200.12
162.73
125.97
89.18
50.69
9.25
-34.39
-76.72
-112.22
-135.43
-143.23
-136.23
-118.51
-95.94
-73.99
-56.37
-44.76
-39.25
-39.22
-43.61
-50.98
-59.54
-67.42
-73.18
-76.08
-76.01
-73.19
-68.07
-61.33
-53.97
-47.11
-41.59
-37.65
-34.78
-32.15
-29.09
-25.49
-21.78
-18.72
-16.8
-16.11
-16.21
-16.38
-15.96
-14.59
-12.38
-9.77
-7.42
-5.87
-5.48
-6.26
-7.88
-9.82
-11.51
-12.64
-13.17
-13.5
-14.19
-15.75
-18.46
-22.28
-26.82
-31.45
-35.46
-38.23
-39.38
-38.75
-36.48
-32.95
-28.61
-24.01
-19.57
-15.68
-12.59
-10.41
-9.07
-8.28
-7.67
-6.86
-5.65
-4.03
-2.19
-0.45
0.94
1.79
2.05
1.85
1.32
0.66
0.02
-0.62
-1.33
-2.27
-3.57
-5.28
-7.26
-9.26
-11.09
-12.68
-14.28
-16.27
-19.09
-22.95
-27.71
-32.84
-37.7
-41.72
-44.56
-46.24
-46.88
-46.57
-45.31
-43.07
-39.99
-36.41
-32.53
-28
-21.8
-12.37
1.38
19
37.79
53.49
62
61.52
53.72
43.28
36.26
37.96
51.98
80.14
122.93
179.46
246.53
317.51
382.26
429.2
448.91
437.71
399.49
344.45
285.52
234
196.32
173.05
159.95
150.28
137.46
116.9
86.79
47.63
1.26
-50.23
-105.04
-161.45
-217.19
-269.18
-313.5
-346.13
-363.7
-364.5
-348.79
-318.92
-278.84
-233.36
-187.36
-144.91
-108.82
-80.52
-60.11
-46.8
-39.16
-35.4
-33.56
-31.9
-29.16
-24.93
-19.63
-14.21
-9.63
-6.55
-5.14
-5.23
-6.44
-8.41
-10.84
-13.61
-16.64
-19.78
-22.59
-24.21
-23.56
-19.77
-12.45
-1.7
12.4
30.36
53.4
82.96
119.44
161.08
203.53
240.72
266.62
277.33
272.3
254.1
227.06
195.41
161.98
127.91
93.15
57.42
20.68
-16.9
-55.17
-94.26
-134.12
-173.84
-211.19
-243
-266.36
-279.68
-283.24
-279.06
-269.86
-258.09
-245.02
-230.69
-214.34
-195.31
-173.72
-150.69
-128.08
-107.78
-91
-77.94
-68
-60.45
-55.08
-52.31
-52.64
-55.65
-59.5
-61.32
-58.52
-50.17
-37.35
-22.58
-8.5
3.16
12.1
19.03
24.83
29.82
33.71
35.92
36.17
34.77
32.6
30.67
29.71
29.89
30.82
31.81
32.26
31.82
30.55
28.76
26.85
25.08
23.4
21.61
19.41
16.67
13.47
10.03
6.59
3.29
0.11
-3.03
-6.21
-9.46
-12.7
-15.87
-18.84
-21.45
-23.43
-24.41
-24.09
-22.34
-19.28
-15.27
-10.77
-6.24
-2.02
1.68
4.82
7.36
9.35
10.86
11.94
12.72
13.23
13.56
13.76
13.96
14.23
14.63
15.13
15.65
16.1
16.35
16.36
16.14
15.66
14.85
13.62
11.86
9.52
6.77
3.95
1.42
-0.49
-1.72
-2.5
-3.18
-4.16
-5.73
-7.93
-10.62
-13.53
-16.28
-18.49
-19.67
-19.36
-17.24
-13.24
-7.62
-0.82
6.51
13.83
20.68
26.74
31.86
35.92
38.88
40.79
41.81
42.05
41.64
40.51
38.54
35.67
31.99
27.87
23.87
20.5
18.03
16.4
15.25
14.08
12.53
10.46
7.89
4.86
1.27
-3.07
-8.33
-14.51
-21.3
-28.01
-33.9
-38.35
-41.2
-42.9
-44.34
-46.54
-50.26
-55.54
-61.52
-66.78
-69.69
-69.26
-65.56
-59.82
-53.99
-50.04
-49.07
-50.9
-54.22
-57.27
-58.66
-58.09
-56.44
-55.24
-56
-59.49
-65.52
-73.13
-81.02
-87.64
-91.24
-89.59
-80.46
-62.73
-37.52
-8.43
19.6
42.68
60.39
76.33
96.59
126.34
166.62
213.22
258.23
293.58
314.46
320.76
316.09
305.32
292.28
278.87
265.59
252.56
240.11
228.44
216.92
203.43
184.78
157.83
120.64
73.39
18.58
-39.13
-93.61
-138.44
-168.63
-182.33
-181.37
-170.34
-154.09
-135.63
-115.36
-92.41
-66.85
-41.13
-19.51
-5.91
-1.65
-4.76
-11.37
-18.04
-23.29
-27.34
-30.74
-32.86
-32.07
-26.99
-17.98
-7.53
0.94
5.12
5.35
4.76
8.05
19.68
41.98
74.51
114.44
157.57
199.65
237.05
266.78
286.11
292.32
282.67
255.1
209.11
146.18
70.14
-12.89
-94.44
-164.6
-213.51
-234.31
-226.13
-195.57
-155.33
-120.34
-102.5
-106.43
-128.21
-157.6
-183.03
-197.06
-199.67
-198
-202.2
-219.64
-250.1
-284.81
-309.37
-309.74
-277.86
-214.72
-129.36
-34.73
56.71
135.81
197.1
237.86
257.38
257.16
241.51
216.96
190.72
168.44
152.55
142.19
134.56
126.56
116.26
103.33
88.76
74.25
61.5
51.84
45.84
43.18
42.38
41.17
36.97
27.62
12.14
-8.94
-33.6
-58.63
-80.47
-96.47
-106.03
-111.25
-116.3
-125.49
-141.13
-162.08
-184.15
-202.34
-213.51
-218.09
-219.74
-223.25
-231.79
-244.99
-258.76
-266.81
-262.93
-243.15
-206.89
-157.02
-99.09
-39.98
13.54
56.18
85.11
100.1
103.2
97.92
88.15
77.36
68.15
61.98
59.38
60.05
63.09
67.06
70.34
71.42
69.36
64.13
56.54
48.02
40.05
33.63
29.12
26.25
24.44
23.09
21.84
20.55
19.19
17.79
16.28
14.47
12.06
8.75
4.44
-0.5
-5.29
-8.89
-10.34
-9.23
-5.9
-1.28
3.49
7.54
10.57
12.79
14.69
16.61
18.65
20.63
22.22
23.04
22.79
21.21
18.28
14.17
9.31
4.26
-0.55
-5.02
-9.36
-14.04
-19.38
-25.33
-31.42
-36.96
-41.26
-44.12
-45.84
-47.19
-49.08
-52.19
-56.67
-62.16
-67.98
-73.47
-78.29
-82.56
-86.67
-91.24
-97
-104.86
-115.57
-129.23
-144.59
-158.66
-167.21
-166.02
-152.63
-127.33
-93.17
-54.69
-16.11
20.15
54.07
87.47
122.79
161.54
203.38
245.79
284.56
314.8
332.15
333.92
319.59
290.97
251.69
206.7
161.54
121.78
92.26
76.12
73.78
82.37
96.08
107.77
111.2
103.22
84.79
60.5
36.76
19.33
11.21
11.91
18.31
26.41
33.29
37.88
40.61
42.05
42.02
39.49
33.39
23.58
11.3
-1.33
-12.43
-21.24
-28.25
-34.36
-39.67
-42.87
-41.78
-34.65
-21.73
-5.71
9.19
18.9
21.43
17.66
10.72
4.22
0.47
-0.51
-0.6
-2
-5.77
-11.2
-16.55
-20.39
-22.67
-24.72
-28.26
-34.18
-41.86
-49.44
-55.01
-57.67
-58.04
-57.74
-58.42
-60.74
-64
-66.64
-66.99
-64.21
-58.53
-51.02
-43
-35.53
-29.24
-24.33
-20.87
-18.89
-18.25
-18.6
-19.33
-19.69
-19.08
-17.25
-14.3
-10.63
-6.78
-3.29
-0.6
1.09
1.89
2.26
2.8
3.92
5.53
7.06
7.67
6.8
4.5
1.47
-1.35
-3.29
-4.23
-4.66
-5.23
-6.4
-8.23
-10.53
-12.98
-15.44
-17.84
-20.05
-21.76
-22.51
-21.91
-19.79
-16.36
-11.99
-7.13
-2.11
2.82
7.43
11.35
14.17
15.55
15.37
13.98
11.99
10.13
9.04
9
9.82
11.08
12.25
12.9
12.9
12.3
11.37
10.45
9.83
9.62
9.66
9.42
7.98
4.38
-1.96
-10.68
-20.49
-29.54
-36.5
-41.26
-45.1
-49.9
-56.79
-65.06
-71.96
-73.6
-66.5
-48.94
-21.5
13.28
51.53
88.69
119.79
139.89
145.01
133.4
106.69
70.07
30.97
-3.27
-27.81
-41.64
-47.17
-48.38
-48.64
-49.09
-48.52
-44.45
-34.84
-19.44
-0.24
19.06
34.27
41.92
40.15
29.07
10.42
-13.12
-38.49
-62.46
-81.74
-93.06
-93.82
-83.31
-63.61
-39.85
-18.75
-6.47
-6.09
-16.5
-33.04
-49.71
-61.6
-66.48
-64.68
-57.98
-48.16
-36.6
-24.37
-12.77
-3.42
2.16
3.27
0.56
-4.19
-8.84
-11.87
-12.96
-12.83
-12.72
-13.53
-15.4
-17.84
-20.17
-22.08
-23.9
-26.46
-30.59
-36.69
-44.32
-52.31
-59.26
-64.1
-66.64
-67.63
-68.49
-70.56
-74.45
-79.87
-85.76
-91.11
-95.44
-98.63
-100.36
-99.5
-94.45
-84.16
-69.19
-51.75
-34.3
-17.57
0.49
23.81
55.54
95.45
138.92
178.74
208.54
225.74
232.28
232.76
231.32
229.31
225.21
216.27
200.8
179.5
155.2
131.43
110.98
94.84
82.44
72.44
63.49
54.86
46.29
37.75
28.97
19.25
7.6
-6.78
-23.99
-43.04
-61.74
-77.45
-87.9
-92.18
-91.02
-86.42
-80.6
-74.96
-69.68
-63.91
-56.66
-47.58
-37.16
-26.52
-16.76
-8.48
-1.66
4
8.8
12.74
15.6
17.23
17.77
17.83
18.22
19.69
22.54
26.43
30.4
33.3
34.27
33.06
30.09
26.13
21.72
16.85
10.8
2.42
-9.29
-24.85
-44.14
-66.43
-90.69
-115.63
-139.75
-161.33
-178.63
-190.35
-196.18
-197.05
-194.57
-190.15
-184.04
-174.81
-159.91
-136.96
-105.32
-66.98
-26.55
10.2
38.04
53.9
57.82
52.82
43.96
37.13
37.72
49.4
73.26
107.46
147.43
186.89
219.26
239.39
244.98
237.31
220.84
201.76
185.88
176.75
174.65
176.85
179.11
177.59
170.39
157.98
142.48
126.2
110.47
95.21
79.63
63.14
46.13
29.87
15.75
4.49
-4.35
-12.08
-20.07
-28.85
-37.83
-45.54
-50.52
-52.09
-50.69
-47.59
-44.19
-41.33
-39.05
-36.71
-33.46
-28.71
-22.57
-15.71
-9.31
-4.82
-3.46
-5.87
-11.69
-19.5
-26.98
-31.74
-31.91
-26.79
-16.89
-3.46
12
27.99
42.92
54.75
61
59.23
47.86
27.01
-1.2
-33.21
-65.15
-93.85
-117.59
-135.98
-149.5
-158.7
-163.88
-164.96
-161.76
-154.36
-143.27
-129.28
-113.21
-95.55
-76.32
-55.38
-32.88
-9.59
12.77
32.02
46.08
53.51
54.07
48.65
39.03
27.4
15.85
6.13
-0.6
-3.69
-3.03
1.22
8.79
19.46
33.12
49.47
67.94
87.38
106.18
122.66
135.69
145.19
152.26
158.64
165.7
173.42
179.77
181.2
173.73
154.69
123.99
84.53
41.58
1.2
-31.3
-52.81
-62.82
-63.23
-57.51
-49.79
-44.12
-43.79
-50.87
-65.38
-84.9
-104.57
-118.26
-120.68
-109.61
-87.24
-59.69
-34.94
-19.77
-17.6
-27.7
-46.19
-68
-88.71
-105.39
-116.61
-121.96
-121.65
-116.52
-108.03
-97.97
-88.15
-79.9
-73.68
-69.24
-65.86
-62.48
-57.91
-51.1
-41.59
-30.28
-19.73
-13.67
-15.86
-28.58
-51.72
-82.86
-118.39
-154.45
-187.86
-216
-236.44
-246.88
-245.5
-231.7
-206.78
-173.87
-137.06
-100.19
-65.67
-33.78
-2.67
30.87
69.77
114.96
164.23
212.34
252.37
277.94
285.07
272.91
243.57
201.18
151.09
99.36
52.41
15.98
-6.35
-14.39
-11.72
-4.32
2.07
4.31
3
1.5
3.62
11.39
24
38.38
51.04
59.68
63.94
64.89
64.04
62.44
60.42
58.02
55.49
53.42
52.53
53.19
55.01
57.03
58.05
57.27
54.61
50.68
46.34
42.2
38.37
34.57
30.62
26.86
24.4
24.85
29.75
39.92
55.1
74.03
94.95
116.12
136.31
154.87
171.66
186.8
200.42
212.51
222.83
230.77
235.27
234.88
227.84
212.54
187.95
154.23
112.92
66.62
18.13
-30.63
-79.78
-131.23
-187.15
-247.73
-309.16
-363.54
-400.96
-413
-395.72
-350.89
-284.92
-206.7
-125.51
-49.8
13.27
58.22
82.02
85.02
71.3
47.95
23.27
4.6
-3.21
1.56
17.75
41.82
68.54
91.77
105.58
105.46
89.28
57.91
14.97
-33.77
-81.39
-121.41
-149.6
-165.56
-173.08
-178.78
-189.16
-207.57
-232.29
-257
-273.34
-274.11
-255.78
-219.11
-168.32
-109.48
-49.14
6.62
52.48
84.53
100.97
102.67
93.13
77.65
61.94
50.59
45.96
47.67
52.92
57.53
57.57
50.92
38.19
22.6
8.73
0.77
1.09
9.74
24.91
43.97
64.48
84.69
103.5
120.15
133.92
144.18
150.53
152.93
151.88
148.35
143.6
138.94
135.43
133.63
133.59
134.88
136.73
138.16
138.31
136.61
133.19
128.92
125.24
123.37
123.46
124.01
121.82
112.95
93.94
62.8
19.57
-33.48
-91.78
-148.95
-197.95
-233.11
-252.4
-258.37
-257.15
-255.63
-258.42
-266.12
-275.89
-283.7
-286.4
-282.77
-273.1
-258.39
-239.83
-219.16
-198.72
-180.71
-165.98
-153.03
-138.72
-120.21
-96.49
-68.3
-36.42
-0.22
42.13
91.03
142.59
187.62
214.08
212.23
179.37
121.92
53.02
-12.55
-63.55
-95.11
-108.47
-108.43
-100.23
-87.71
-72.81
-56.72
-40.7
-26.93
-17.81
-14.92
-17.91
-24.23
-30.25
-33.07
-32.12
-29.55
-29.23
-34.65
-46.87
-63.73
-80.73
-93.2
-98.53
-97.47
-93.61
-91.88
-96.14
-107.47
-123.55
-139.53
-149.79
-149.27
-135.01
-106.8
-67.73
-24.24
14.74
39.94
45
29.34
-0.45
-32.6
-54.51
-57.9
-41.75
-11.58
24.51
60.49
94.74
129.26
166.36
205.77
243.59
273.82
291.05
292.85
280.88
260.01
236.56
216.14
202.04
194.38
190.39
186
177.77
164.56
147.97
131.06
116.3
104.09
92.71
79.88
64.66
48.31
33.56
22.87
17.03
14.61
12.8
8.85
1.22
-9.85
-22.66
-34.85
-44.31
-49.83
-51.25
-49.27
-44.91
-39.19
-32.81
-26.28
-19.91
-14.04
-9.04
-5.24
-2.84
-1.73
-1.56
-1.8
-1.93
-1.56
-0.56
1
2.9
4.78
6.32
7.31
7.7
7.54
6.92
5.85
4.32
2.32
-0.15
-3.01
-6.03
-8.84
-10.99
-12.03
-11.83
-10.57
-8.8
-7.27
-6.6
-7.06
-8.46
-10.34
-12.09
-13.23
-13.49
-12.75
-11.14
-8.95
-6.74
-5.06
-4.25
-4.01
-3.37
-1.02
4.02
11.6
20.29
27.82
32.14
32.41
29.42
25.1
21.48
19.72
19.69
20.43
20.83
20.39
19.34
18.3
17.75
17.69
17.74
17.29
16
13.77
10.77
7.31
3.85
0.97
-0.5
0.32
3.97
10.46
18.82
27.39
34.36
38.35
38.97
36.79
33.06
29.06
25.66
23.18
21.44
19.95
17.85
14.04
7.25
-3.28
-17.47
-34.02
-50.72
-65.07
-75.12
-79.99
-79.84
-75.67
-68.78
-60.42
-51.61
-43.2
-35.89
-30.32
-27.06
-26.42
-28.41
-32.58
-38.03
-43.44
-47.45
-49.07
-47.98
-44.74
-40.52
-36.47
-33.2
-30.23
-26.09
-18.67
-6.16
12.32
36.22
63.67
92.12
118.94
141.97
159.63
170.9
175.21
172.52
163.46
149.46
132.58
115.07
98.78
84.82
73.55
64.84
58.54
54.65
53.26
54.22
56.83
59.91
62.01
61.84
58.37
50.99
39.48
24.01
5.48
-14.45
-33.61
-50.03
-62.76
-72.26
-79.98
-87.5
-95.57
-103.73
-110.65
-115.1
-116.63
-115.74
-113.45
-110.5
-106.93
-102.13
-95.34
-86.22
-75.26
-63.5
-52.07
-41.53
-31.63
-21.51
-10.22
2.48
15.82
28.01
36.94
40.94
39.46
33.42
25.12
17.64
13.9
15.6
22.49
32.23
40.98
44.63
40.2
27
6.7
-17.08
-40.12
-58.78
-70.83
-75.8
-74.74
-69.59
-62.64
-55.85
-50.51
-47.11
-45.38
-44.7
-44.31
-43.56
-41.94
-39.18
-35.24
-30.41
-25.27
-20.6
-17.1
-15.11
-14.47
-14.49
-14.28
-13.14
-10.77
-7.37
-3.56
-0.06
2.51
3.9
4.26
4.14
4.14
4.75
6.03
7.6
8.82
9.16
8.45
7.05
5.71
5.21
6.19
8.79
12.56
16.64
19.94
21.45
20.74
18.02
14.18
10.33
7.22
4.77
2.09
-2.05
-8.27
-16.06
-23.61
-28.59
-29.22
-25.28
-18.44
-11.58
-7.52
-7.74
-11.61
-16.64
-19.8
-18.75
-13.07
-4.53
3.51
7.23
3.69
-8.02
-26.39
-47.65
-66.58
-77.96
-78.4
-67.62
-49.17
-29.38
-14.83
-9.52
-12.62
-18.18
-17.14
-1.01
34.14
85.2
142.39
192.2
222.22
225.51
202.78
161.52
112.58
66.11
28.38
1.01
-17.59
-29.93
-37.49
-40.48
-38.83
-33.59
-27.43
-23.84
-25.53
-32.79
-43.36
-53.16
-58.47
-57.65
-51.87
-44.41
-38.95
-37.81
-41
-46.6
-51.77
-54.32
-53.44
-49.73
-44.66
-39.7
-35.78
-32.98
-30.7
-28.05
-24.25
-19.04
-12.78
-6.21
-0.24
4.49
7.8
9.97
11.51
12.88
14.35
15.86
17.17
17.98
18.05
17.33
15.89
14.02
11.99
9.98
8.17
6.54
5.19
4.19
3.65
3.51
3.6
3.52
2.9
1.52
-0.61
-3.25
-6.1
-8.86
-11.27
-12.99
-13.7
-13.08
-11
-7.58
-3.15
1.97
7.51
13.39
19.5
25.46
30.65
34.32
36
35.98
35.54
36.47
40.47
48.21
59.02
71.07
82.15
90.41
94.8
94.88
90.48
81.5
68.2
51.45
32.74
13.56
-5.24
-23.8
-42.93
-63.1
-83.6
-102.31
-116.31
-122.91
-120.52
-108.92
-89.01
-62.52
-31.68
1.17
33.83
64.72
92.98
118.09
139.27
155.07
163.67
164.09
157.3
146.36
135.36
127.48
123.46
121.48
118.68
113.1
104.77
95.18
85.66
76.09
64.75
49.75
30.52
8.16
-15.46
-39.38
-64.36
-92
-122.7
-154.09
-181.1
-197.8
-200.01
-186.72
-159.59
-121.18
-73.45
-17.55
44.8
109.93
171.94
224
260.85
280.47
284.5
276.93
262.27
244.23
225.28
207.17
191.24
178.42
168.47
159.55
148.47
131.77
107.05
73.76
33.21
-12.47
-61.34
-112.03
-163.44
-213.86
-260.41
-299.32
-327.3
-342.59
-345.65
-338.84
-325.49
-308.72
-290.3
-270.51
-248.78
-225.01
-200.44
-177.77
-160.03
-149.11
-144.46
-143.1
-140.87
-134.23
-121.81
-104.71
-85.53
-66.78
-49.65
-33.91
-18.62
-3.42
11.02
23.32
32.09
36.66
37.42
35.78
33.48
31.97
31.83
32.7
33.64
33.59
31.9
28.64
24.43
20.17
16.64
14.19
12.73
11.82
10.84
9.28
6.87
3.54
-0.6
-5.35
-10.42
-15.4
-19.83
-23.31
-25.63
-26.82
-27.06
-26.48
-25.1
-22.88
-19.94
-16.82
-14.57
-14.42
-17.28
-23.22
-31.23
-39.57
-46.45
-50.79
-52.69
-53.35
-54.43
-57.33
-62.65
-70.19
-79.24
-88.91
-97.91
-104.33
-105.91
-101.09
-90.59
-78
-68.64
-66.81
-72.67
-81.21
-83.97
-72.98
-44.72
-1.61
49.78
102.74
153.7
203.05
253.02
304.51
355.23
400.39
435.12
457.01
466.83
467.21
460.56
447.34
426.03
394.34
350.98
296.56
233.21
163.85
91.59
19.85
-47.17
-104.11
-145.31
-166.48
-166.82
-150.23
-124.51
-99.02
-81.46
-75.62
-80.69
-92.78
-107.11
-120.11
-130.28
-137.53
-142.09
-143.54
-140.96
-133.62
-121.93
-107.74
-93.81
-82.56
-75.11
-71.02
-68.69
-66.18
-62.21
-56.59
-50.13
-44.05
-39.39
-36.45
-34.87
-33.74
-32.09
-29.26
-25.13
-20.1
-14.92
-10.44
-7.22
-5.44
-4.75
-4.48
-3.95
-2.85
-1.36
-0.09
0.19
-1.04
-3.77
-7.46
-11.21
-14.16
-15.78
-16.05
-15.23
-13.68
-11.52
-8.65
-4.75
0.29
6.28
12.66
18.67
23.73
27.53
30.04
31.32
31.22
29.5
25.85
20.33
13.53
6.5
0.37
-4.07
-6.63
-7.73
-8.05
-8.11
-8.12
-7.95
-7.37
-6.27
-4.69
-2.73
-0.41
2.47
6.11
10.54
15.36
19.77
22.9
24.28
24.22
23.89
24.87
28.61
35.61
45.06
54.89
62.28
64.62
60.45
50.06
35.37
19.41
5.2
-5.36
-11.98
-15.94
-19.37
-24.23
-31.53
-41.03
-51.2
-59.93
-65.18
-65.63
-60.94
-51.63
-38.8
-23.81
-8.19
6.53
18.53
25.96
27.15
21.21
8.45
-9.47
-29.9
-50.02
-67.45
-80.9
-90.06
-95.2
-96.72
-94.86
-89.58
-80.75
-68.55
-53.6
-37.02
-20.26
-4.71
8.49
18.73
25.99
30.7
33.52
35.11
35.9
36.12
35.78
34.99
34.01
33.28
33.28
34.3
36.26
38.88
41.75
44.68
47.66
50.89
54.49
58.37
62.14
65.14
66.66
66
62.7
56.59
47.83
36.9
24.6
11.94
-0.02
-10.24
-18.01
-23.08
-25.68
-26.48
-26.32
-25.89
-25.58
-25.36
-24.91
-23.75
-21.37
-17.37
-11.59
-4.28
3.89
11.87
18.46
22.67
24.05
22.77
19.51
15.17
10.59
6.36
2.85
0.13
-2.03
-4.26
-7.6
-13.21
-21.99
-33.98
-48.15
-62.42
-74.28
-81.49
-82.85
-78.42
-69.34
-57.28
-43.9
-30.68
-18.87
-9.63
-3.91
-2.17
-4
-8.07
-12.34
-14.77
-13.9
-9.27
-1.4
8.64
19.59
30.3
39.8
47.34
52.29
54.38
53.66
50.55
45.77
40.05
34.03
28.14
22.55
17.28
12.25
7.37
2.65
-1.76
-5.6
-8.55
-10.42
-11.26
-11.45
-11.63
-12.44
-14.26
-16.97
-20
-22.53
-23.78
-23.41
-21.53
-18.66
-15.36
-12.07
-8.81
-5.4
-1.58
2.81
7.73
13
18.5
24.18
30.09
36.24
42.51
48.51
53.69
57.46
59.41
59.33
57.26
53.39
47.92
41.03
32.81
23.36
12.92
1.98
-8.67
-18.11
-25.48
-30.22
-32.16
-31.63
-29.21
-25.66
-21.66
-17.69
-14.07
-10.93
-8.35
-6.31
-4.75
-3.52
-2.39
-1.14
0.42
2.31
4.42
6.5
8.2
9.21
9.33
8.51
6.85
4.57
1.95
-0.72
-3.18
-5.31
-7.09
-8.6
-9.99
-11.48
-13.28
-15.52
-18.22
-21.15
-23.96
-26.13
-27.13
-26.6
-24.49
-21
-16.52
-11.55
-6.43
-1.45
3.26
7.57
11.29
14.25
16.33
17.49
17.85
17.63
17.03
16.23
15.27
14.09
12.66
10.96
9.06
7.16
5.48
4.19
3.31
2.71
2.19
1.59
0.83
-0.07
-1.03
-2.05
-3.25
-4.79
-6.82
-9.37
-12.31
-15.35
-18.16
-20.3
-21.43
-21.33
-20
-17.63
-14.56
-11.14
-7.67
-4.33
-1.16
1.82
4.58
7.11
9.31
11.06
12.33
13.14
13.6
13.85
13.97
14.04
14.08
14.05
13.92
13.72
13.44
13.03
12.41
11.44
9.98
7.99
5.49
2.56
-0.61
-3.83
-6.87
-9.47
-11.48
-12.88
-13.84
-14.67
-15.74
-17.33
-19.47
-21.83
-23.86
-24.95
-24.61
-22.72
-19.47
-15.31
-10.74
-6.22
-2.08
1.54
4.53
6.87
8.58
9.76
10.54
11.1
11.53
11.87
12.09
12.06
11.68
10.87
9.63
8.03
6.13
4.09
2.05
0.22
-1.2
-2.02
-2.15
-1.65
-0.74
0.27
1.08
1.51
1.51
1.07
0.19
-1.23
-3.33
-6.15
-9.57
-13.26
-16.76
-19.61
-21.45
-21.99
-21.13
-18.83
-15.25
-10.77
-5.98
-1.55
1.9
4.13
5.16
5.38
5.31
5.42
6.02
7.16
8.71
10.4
11.99
13.29
14.15
14.55
14.49
14.01
13.15
11.94
10.46
8.78
7.02
5.32
3.76
2.44
1.37
0.54
-0.18
-0.92
-1.84
-3.07
-4.61
-6.34
-8.12
-9.78
-11.25
-12.6
-13.98
-15.57
-17.46
-19.62
-21.86
-23.84
-25.16
-25.44
-24.47
-22.21
-18.83
-14.68
-10.16
-5.68
-1.54
2.08
5.1
7.56
9.55
11.1
12.23
12.91
13.14
12.92
12.41
11.79
11.21
10.82
10.65
10.72
11
11.5
12.18
12.95
13.68
14.17
14.2
13.63
12.47
10.79
8.73
6.49
4.25
2.24
0.57
-0.75
-1.76
-2.67
-3.73
-5.22
-7.31
-10.08
-13.36
-16.81
-19.92
-22.09
-22.84
-21.92
-19.43
-15.71
-11.33
-6.84
-2.76
0.6
3.1
4.75
5.72
6.23
6.5
6.66
6.77
6.79
6.77
6.77
6.9
7.25
7.81
8.4
8.85
9.01
8.81
8.34
7.7
7.01
6.38
5.83
5.37
5
4.64
4.12
3.33
2.18
0.73
-0.83
-2.29
-3.5
-4.41
-5.15
-5.94
-7.03
-8.6
-10.69
-13.16
-15.69
-17.8
-18.98
-18.85
-17.26
-14.43
-10.81
-6.95
-3.32
-0.17
2.44
4.56
6.26
7.58
8.49
9.03
9.33
9.57
9.91
10.42
10.98
11.38
11.46
11.16
10.59
9.94
9.38
9.03
8.9
8.94
9.08
9.22
9.22
8.96
8.34
7.35
6.16
4.95
3.93
3.1
2.31
1.3
-0.19
-2.22
-4.69
-7.35
-9.98
-12.53
-15.01
-17.45
-19.71
-21.45
-22.23
-21.68
-19.73
-16.67
-13.05
-9.47
-6.37
-3.9
-1.96
-0.32
1.17
2.58
3.81
4.8
5.6
6.28
6.97
7.76
8.58
9.36
10.01
10.48
10.77
10.89
10.8
10.42
9.72
8.72
7.54
6.34
5.28
4.39
3.65
2.94
2.15
1.29
0.36
-0.63
-1.7
-2.91
-4.36
-6.07
-7.99
-9.99
-11.98
-14.02
-16.2
-18.62
-21.13
-23.33
-24.68
-24.65
-23.05
-20.09
-16.33
-12.39
-8.75
-5.62
-2.95
-0.6
1.51
3.32
4.74
5.7
6.2
6.36
6.31
6.2
6.15
6.26
6.53
7
7.66
8.45
9.31
10.18
10.97
11.6
12.01
12.15
11.96
11.42
10.49
9.21
7.65
5.84
3.87
1.81
-0.24
-2.2
-3.97
-5.44
-6.68
-7.87
-9.31
-11.31
-14.02
-17.24
-20.45
-22.94
-24.08
-23.52
-21.38
-18.14
-14.47
-10.98
-8.08
-5.87
-4.22
-2.9
-1.64
-0.3
1.2
2.86
4.58
6.25
7.73
8.93
9.76
10.22
10.38
10.32
10.13
9.93
9.77
9.64
9.49
9.18
8.65
7.88
7.01
6.21
5.59
5.06
4.45
3.58
2.36
0.89
-0.61
-1.97
-3.19
-4.41
-5.85
-7.69
-10.01
-12.8
-15.97
-19.31
-22.48
-24.95
-26.17
-25.74
-23.6
-20.04
-15.66
-11.04
-6.71
-2.89
0.4
3.2
5.57
7.48
8.93
9.91
10.51
10.86
11.05
11.12
11.02
10.68
10.1
9.33
8.53
7.86
7.41
7.19
7.15
7.25
7.45
7.73
8
8.09
7.76
6.85
5.36
3.45
1.39
-0.57
-2.35
-3.97
-5.62
-7.49
-9.77
-12.52
-15.73
-19.25
-22.75
-25.76
-27.74
-28.21
-26.96
-24.09
-20.07
-15.56
-11.17
-7.35
-4.23
-1.72
0.34
2.17
3.82
5.3
6.56
7.59
8.44
9.24
10.14
11.19
12.33
13.39
14.19
14.61
14.69
14.57
14.43
14.32
14.2
13.9
13.22
12.03
10.37
8.41
6.33
4.31
2.43
0.7
-0.86
-2.21
-3.36
-4.38
-5.47
-6.88
-8.88
-11.58
-14.86
-18.36
-21.51
-23.76
-24.62
-23.87
-21.63
-18.22
-14.16
-9.95
-5.99
-2.49
0.55
3.22
5.65
7.88
9.91
11.69
13.18
14.43
15.55
16.67
17.9
19.22
20.45
21.4
21.87
21.76
21.15
20.23
19.2
18.28
17.58
17.1
16.78
16.45
15.92
15.04
13.75
12.12
10.31
8.5
6.79
5.12
3.29
1.05
-1.81
-5.39
-9.52
-13.9
-18.02
-21.36
-23.42
-23.9
-22.75
-20.12
-16.38
-11.96
-7.3
-2.81
1.29
4.87
7.92
10.52
12.68
14.35
15.48
16.06
16.19
16.1
16.05
16.16
16.39
16.52
16.29
15.6
14.55
13.41
12.44
11.79
11.35
10.84
10
8.63
6.81
4.76
2.7
0.79
-0.98
-2.73
-4.61
-6.77
-9.32
-12.31
-15.75
-19.56
-23.53
-27.29
-30.37
-32.29
-32.67
-31.36
-28.44
-24.2
-19.07
-13.54
-8.05
-2.93
1.66
5.78
9.52
12.94
16
18.58
20.57
21.88
22.4
22.08
20.88
18.85
16.2
13.34
10.74
8.76
7.54
6.91
6.56
6.26
5.82
5.27
4.59
3.68
2.42
0.67
-1.57
-4.13
-6.82
-9.56
-12.36
-15.4
-18.87
-22.82
-27.11
-31.39
-35.17
-37.98
-39.38
-39.12
-37.08
-33.42
-28.52
-22.87
-17.01
-11.36
-6.16
-1.41
3.01
7.19
11.13
14.64
17.43
19.29
20.19
20.34
20.13
19.88
19.74
19.67
19.45
18.91
18.06
17.07
16.18
15.56
15.17
14.81
14.15
12.97
11.19
8.95
6.53
4.19
2.07
0.11
-1.86
-4.06
-6.64
-9.55
-12.7
-15.97
-19.3
-22.61
-25.75
-28.43
-30.13
-30.39
-28.93
-25.83
-21.49
-16.52
-11.45
-6.62
-2.12
2.13
6.23
10.21
13.95
17.21
19.73
21.33
22.04
22.12
21.95
21.89
22.08
22.43
22.63
22.42
21.65
20.39
18.84
17.22
15.65
14.14
12.6
10.92
9.05
7
4.83
2.69
0.76
-0.85
-2.09
-3.04
-3.9
-4.93
-6.43
-8.61
-11.59
-15.32
-19.56
-23.89
-27.72
-30.35
-31.23
-30.02
-26.81
-22.1
-16.64
-11.18
-6.23
-1.91
1.96
5.63
9.28
12.84
16.09
18.76
20.75
22.1
22.93
23.4
23.55
23.4
22.99
22.48
22.06
21.87
21.86
21.82
21.49
20.65
19.35
17.78
16.16
14.71
13.49
12.46
11.58
10.89
10.37
10.01
9.65
9.05
8
6.35
4.03
1.09
-2.42
-6.44
-10.85
-15.33
-19.36
-22.25
-23.39
-22.45
-19.55
-15.26
-10.4
-5.69
-1.61
1.73
4.51
7
9.39
11.71
13.79
15.38
16.3
16.55
16.29
15.79
15.38
15.19
15.27
15.49
15.65
15.61
15.33
14.84
14.19
13.44
12.56
11.49
10.18
8.58
6.66
4.45
1.98
-0.68
-3.48
-6.29
-8.98
-11.4
-13.53
-15.45
-17.37
-19.56
-22.16
-25.1
-28.04
-30.39
-31.53
-31.02
-28.71
-24.87
-20.07
-14.95
-10.05
-5.73
-2.05
1.08
3.82
6.25
8.43
10.31
11.85
13.03
13.84
14.35
14.64
14.83
14.96
15.1
15.22
15.26
15.18
14.9
14.38
13.63
12.64
11.44
10.07
8.56
6.95
5.26
3.5
1.66
-0.25
-2.21
-4.17
-6.11
-8.12
-10.34
-12.94
-16.03
-19.62
-23.55
-27.52
-31.06
-33.6
-34.59
-33.73
-30.99
-26.83
-22.1
-17.75
-14.71
-13.59
-14.47
-17.02
-20.5
-23.97
-26.56
-27.61
-26.81
-24.23
-20.17
-15.02
-9.16
-2.96
3.23
9.01
14.04
18.02
20.88
22.74
23.81
24.25
24.01
22.86
20.61
17.26
13.17
8.94
5.17
2.19
-0.14
-2.23
-4.6
-7.59
-11.18
-15
-18.52
-21.18
-22.57
-22.64
-21.61
-19.94
-18.12
-16.5
-15.09
-13.74
-12.21
-10.47
-8.74
-7.4
-6.79
-7.03
-7.99
-9.32
-10.65
-11.75
-12.61
-13.38
-14.29
-15.51
-17.02
-18.63
-20.03
-20.99
-21.48
-21.82
-22.64
-24.76
-28.95
-35.65
-44.72
-55.35
-66.02
-74.83
-79.87
-79.72
-73.86
-62.77
-47.82
-30.72
-13.12
3.73
19.11
32.6
43.86
52.45
58
60.46
60.34
58.65
56.66
55.26
54.7
54.47
53.75
51.88
48.87
45.36
42.31
40.37
39.63
39.57
39.44
38.63
36.99
34.85
32.75
31.28
30.65
30.64
30.54
29.4
26.4
21.21
14.21
6.45
-0.79
-6.47
-10.12
-11.87
-12.11
-11.15
-9.08
-5.85
-1.49
3.68
9.19
14.63
19.89
25.04
30.17
34.97
38.71
40.45
39.52
35.8
29.94
23.04
16.2
10.21
5.37
1.59
-1.44
-4.01
-6.33
-8.54
-10.81
-13.39
-16.48
-20.22
-24.46
-28.89
-33.09
-36.75
-39.81
-42.41
-44.77
-46.95
-48.64
-49.24
-48.09
-44.8
-39.52
-32.96
-26.12
-19.95
-14.97
-11.19
-8.22
-5.57
-2.82
0.21
3.5
6.98
10.55
14.21
17.81
21.06
23.52
24.7
24.32
22.37
19.22
15.39
11.48
7.9
4.86
2.4
0.52
-0.8
-1.59
-1.91
-2.06
-2.43
-3.49
-5.59
-8.8
-12.86
-17.16
-21
-23.69
-24.88
-24.5
-22.77
-20
-16.52
-12.64
-8.6
-4.73
-1.31
1.39
3.34
4.66
5.61
6.37
6.96
7.23
6.97
6.08
4.59
2.64
0.3
-2.44
-5.63
-9.25
-13.06
-16.62
-19.44
-21.27
-22.12
-22.2
-21.68
-20.53
-18.56
-15.63
-11.92
-8
-4.66
-2.51
-1.64
-1.61
-1.7
-1.33
-0.29
1.25
3
4.76
6.66
8.99
12.04
15.94
20.46
25.15
29.38
32.57
34.37
34.78
34.2
33.27
32.68
32.78
33.49
34.26
34.41
33.44
31.3
28.45
25.66
23.68
22.99
23.68
25.45
27.82
30.23
32.12
33.14
33.21
32.72
32.4
33.14
35.43
38.96
42.82
45.86
47.37
47.49
47.29
48.5
53.18
63.09
79.21
101.11
126.43
151.03
169.63
177.38
171.66
153.28
126.55
97.89
73.71
58.32
53.05
56.3
64.43
73.07
77.82
75.12
62.43
38.83
5.59
-33.49
-72.8
-106.59
-131.15
-146.16
-154.51
-160.48
-167.27
-175.61
-183.71
-188.86
-189.3
-185.04
-177.52
-168.24
-157.77
-145.6
-131.02
-114.04
-95.86
-78.44
-63.42
-51.59
-42.67
-35.66
-29.61
-24.01
-18.96
-14.93
-12.37
-11.32
-11.41
-11.95
-12.22
-11.76
-10.49
-8.73
-6.99
-5.79
-5.43
-5.92
-7.04
-8.46
-9.99
-11.63
-13.5
-15.73
-18.29
-20.96
-23.5
-25.79
-27.98
-30.44
-33.61
-37.62
-42.23
-46.82
-50.55
-52.72
-52.95
-51.4
-48.68
-45.69
-43.4
-42.46
-43
-44.6
-46.48
-47.95
-48.78
-49.42
-50.7
-53.53
-58.46
-65.46
-73.92
-82.78
-90.56
-95.73
-97.01
-94.17
-88.53
-83.06
-81.59
-87.19
-100.54
-118.9
-136.58
-146.61
-142.93
-122.28
-85.15
-35.57
20.16
75.11
123.16
159.99
183.36
192.97
190.18
177.73
159.33
139.17
121.19
108.15
100.92
98.5
98.89
100.27
102.05
104.96
110.4
119.1
130.38
142.14
151.68
156.61
155.68
148.98
137.61
123.24
107.49
91.55
76.04
60.98
46.06
31.02
16.12
2.35
-8.65
-15.21
-16.28
-12.02
-4.01
5.03
11.92
13.95
9.63
-0.8
-15.38
-30.94
-43.85
-50.99
-50.57
-42.43
-27.66
-7.8
15.93
42.98
73.04
105.17
136.84
163.79
180.76
183
167.87
136.01
91.4
40.54
-9.1
-50.79
-79.88
-94.56
-95.79
-86.6
-70.84
-52.07
-32.93
-15.15
-0.01
11.36
18.02
19.67
17.19
12.57
8.21
5.66
4.82
3.85
0.14
-8.15
-20.93
-35.84
-49.18
-57.43
-58.75
-53.58
-44.24
-33.85
-24.96
-18.72
-14.84
-12.14
-9.19
-5.17
0.01
5.89
11.75
17.1
21.94
26.64
31.66
37.35
43.73
50.48
57.08
63.01
67.85
71.36
73.57
74.8
75.84
77.74
81.44
86.8
92.1
93.82
87.54
69.28
36.83
-9.36
-66.46
-129.7
-193.31
-251.19
-297.43
-327.16
-337.79
-330.36
-309.65
-282.69
-255.97
-232.74
-212.24
-191.2
-166.81
-139.07
-111.01
-86.71
-68.57
-55.71
-44.6
-31.31
-13.98
6.19
26.02
42.29
53.56
60.42
64.6
67.71
70.34
72.21
72.69
71.53
69.24
66.9
65.45
65.26
65.85
66.06
64.56
60.47
53.76
45.29
36.53
29.01
23.9
21.69
22.08
24.14
26.56
28.1
27.93
25.9
22.47
18.58
15.12
12.62
11.08
10.09
9.11
7.76
5.98
3.88
1.67
-0.56
-2.84
-5.11
-7.22
-8.84
-9.62
-9.43
-8.41
-7.06
-5.95
-5.54
-5.96
-7.11
-8.7
-10.52
-12.4
-14.25
-15.91
-17.11
-17.56
-17.13
-15.95
-14.43
-13.03
-12.01
-11.24
-10.24
-8.54
-5.99
-3.03
-0.55
0.49
-0.35
-2.74
-5.53
-7.31
-7.11
-4.87
-1.57
1.24
2.06
0.31
-3.47
-7.74
-10.78
-11.48
-9.99
-7.79
-7.06
-9.73
-16.71
-27.41
-39.86
-51.4
-59.54
-62.76
-61.17
-57.11
-55.11
-60.95
-79.41
-111.67
-153.43
-195.43
-226.58
-238.57
-229.27
-203.72
-171.33
-141.18
-117.81
-99.87
-81.38
-55.09
-15.91
36.9
99.16
162.66
216.81
251.44
260.16
243.4
209.57
173.37
151.51
157.03
194.62
258.86
336.17
409.54
463.98
490.48
487.32
458.62
411.52
353.35
289.88
224.98
161.28
100.77
45
-4.98
-48.72
-86.44
-118.52
-145
-165.36
-178.78
-184.68
-183.22
-175.68
-164.41
-152.41
-142.58
-136.85
-135.5
-137.09
-138.98
-138.43
-133.8
-125.1
-113.88
-102.4
-92.74
-86.01
-82.11
-80.04
-78.46
-76.28
-73.09
-69.19
-65.4
-62.66
-61.58
-62.14
-63.67
-64.99
-64.8
-62.13
-56.64
-48.73
-39.39
-29.78
-20.87
-13.09
-6.29
-0.12
5.69
10.97
15.21
17.9
19.08
19.46
20.31
22.74
27.16
32.84
38.32
42.09
43.38
42.61
41.25
41.05
43.14
47.52
52.97
57.53
59.3
57.13
51.08
42.49
33.67
27.41
26.25
31.82
44.21
61.79
81.68
101.06
118.59
135.26
153.88
177.35
206.29
237.56
264.64
279.59
275.8
250.23
204.39
143.95
77.54
15.11
-34.15
-63.93
-72.73
-64.39
-46.82
-29.09
-18.26
-17.57
-26.81
-44.11
-67.76
-96.97
-130.8
-166.71
-200.14
-225.61
-238.76
-238.17
-225.74
-205.6
-182.77
-161.5
-144.56
-132.95
-125.86
-121.2
-116.24
-108.7
-97.55
-83.33
-67.69
-52.45
-38.79
-27.02
-16.88
-8.34
-1.89
1.77
2.31
0.43
-2.28
-3.88
-2.95
0.81
6.42
12.09
16.07
17.37
16.13
13.38
10.54
8.71
8.32
9.06
10.2
10.97
10.87
9.8
7.91
5.47
2.68
-0.34
-3.5
-6.63
-9.5
-11.94
-13.96
-15.81
-17.93
-20.73
-24.38
-28.59
-32.65
-35.66
-36.9
-36.08
-33.44
-29.65
-25.37
-21.04
-16.68
-12.14
-7.4
-2.81
0.94
3.26
4.18
4.45
5.21
7.23
10.42
14.01
17.27
20.2
23.77
29.33
37.5
47.4
56.8
63.18
64.99
62.47
57.3
51.47
46.17
41.37
36.22
30.03
22.9
15.79
9.91
6.2
4.95
5.8
8.11
11.27
14.92
18.82
22.7
26.22
28.96
30.58
30.74
29.21
25.84
20.64
13.67
5.16
-4.6
-15.16
-25.92
-36.12
-44.94
-51.74
-56.31
-59.21
-61.73
-65.66
-72.67
-83.72
-98.4
-114.73
-129.5
-139.03
-140.47
-132.95
-118.22
-100.48
-85.23
-77.56
-80.25
-92.63
-110.29
-126.16
-132.38
-122.42
-93.06
-45.37
15.39
81.06
142.69
192.82
227.11
244.88
248.44
241.67
228.53
212.03
193.97
175.19
156.15
137.17
118.58
100.44
82.5
64.38
45.89
27.39
9.79
-5.52
-17.26
-24.75
-28.24
-28.91
-28.52
-28.71
-30.36
-33.48
-37.17
-40.21
-41.56
-40.72
-37.87
-33.59
-28.56
-23.14
-17.28
-10.55
-2.51
6.95
17.4
27.82
36.99
43.89
48.13
50.12
50.86
51.53
53.07
55.8
59.37
63.01
65.96
67.98
69.54
71.7
75.39
80.58
85.7
87.67
82.88
68.43
43.5
9.9
-28.33
-65.96
-97.96
-120.79
-133.01
-135.43
-130.71
-122.58
-114.7
-109.62
-108.03
-108.89
-110.13
-109.95
-107.81
-104.79
-103.26
-105.85
-114.23
-127.76
-142.93
-153.85
-154.08
-139.1
-108.43
-66.26
-20.01
22.53
56.15
79.7
95.39
106.69
116.08
124.19
130.39
134.15
136
137.28
139.14
141.5
143.01
141.78
136.57
127.73
117.29
108.28
103.66
105.23
113.04
125.4
139.53
152.44
161.86
166.57
165.92
159.03
144.38
120.32
86.27
43.95
-2.27
-46.58
-83.64
-110.51
-126.76
-133.41
-131.62
-122.33
-107.29
-90.1
-76.24
-71.21
-77.78
-94.16
-114.46
-131.47
-139.91
-138.59
-129.96
-118.04
-105.99
-94.98
-84.66
-74.47
-64.7
-56.34
-50.28
-46.48
-43.85
-40.74
-35.76
-28.49
-19.58
-10.35
-2.11
4.47
9.47
13.64
17.85
22.68
28.07
33.36
37.58
39.95
40.27
39.11
37.68
37.33
39.11
43.29
49.3
55.99
62.03
66.33
68.24
67.67
65.01
60.94
56.11
50.85
45.05
38.32
30.16
20.37
9.27
-2.31
-13.31
-22.84
-30.65
-37.09
-43.03
-49.42
-56.73
-64.78
-72.75
-79.41
-83.6
-84.53
-81.91
-76.08
-67.87
-58.33
-48.65
-39.98
-33.03
-27.9
-23.96
-20.11
-15.36
-9.25
-2.06
5.26
11.52
15.75
17.44
16.63
13.75
9.44
4.45
-0.53
-4.98
-8.71
-11.86
-14.9
-18.38
-22.7
-28
-34.14
-40.66
-46.93
-52.29
-56.13
-58.23
-58.7
-58.04
-56.85
-55.63
-54.39
-52.71
-49.94
-45.58
-39.78
-33.39
-27.54
-23.01
-19.7
-16.66
-12.6
-6.76
0.5
7.92
14.24
19.39
24.75
32.39
43.44
56.74
68.72
74.96
72.28
60.39
41.74
19.99
-1.72
-21.72
-39.14
-52.46
-58.5
-53.33
-34.44
-3.23
34.28
69.29
93.8
103.94
101.27
91.33
80.48
72.89
69.38
68.24
67.33
65.76
64.28
64.42
67.05
71.62
76.35
79.32
79.53
77.38
74.33
72.1
71.73
73.15
75.27
76.52
75.64
72.21
66.72
60.25
53.81
47.83
41.85
34.88
25.95
14.6
1.31
-12.79
-26.31
-38.18
-47.97
-55.99
-62.89
-69.31
-75.56
-81.49
-86.7
-90.72
-93.12
-93.54
-91.68
-87.42
-80.93
-72.82
-64.1
-56.09
-50.09
-47.15
-47.88
-52.33
-59.98
-69.57
-79.16
-86.23
-88.26
-83.33
-70.81
-51.54
-27.64
-1.87
22.99
44.65
61.51
72.61
77.7
77.13
71.95
63.86
54.79
46.47
39.9
35.11
31.4
27.69
23.09
17.21
10.22
2.64
-4.85
-11.6
-17.15
-21.31
-24.25
-26.57
-29.21
-33.08
-38.71
-45.75
-53.1
-59.13
-62.37
-61.99
-58.05
-51.51
-43.72
-36.3
-30.66
-27.87
-28.47
-32.32
-38.69
-46.62
-55.35
-64.65
-74.86
-86.28
-98.63
-110.46
-119.12
-121.51
-115.17
-99.32
-75.4
-46.76
-17.75
7.54
26.24
37.16
40.53
37.44
29.28
17.49
3.8
-9.43
-19.1
-21.96
-15.66
0.04
22.61
47.07
67.32
77.77
74.98
58.42
30.61
-3.31
-36.44
-61.49
-72.58
-67.16
-47.12
-18.36
11.45
36.07
53.49
66.59
81.41
103.53
134.57
170.6
203.29
223.43
225.17
208.68
180.38
150.57
129.65
124.76
138.43
169.58
215.45
273.04
338.84
407.41
470.39
517.34
538.66
529.48
492.1
435.34
371.23
310.5
259.3
218.53
185.47
156.45
128.83
101.66
74.96
48.92
23.36
-2.29
-28.61
-56.02
-84.73
-115.04
-147.38
-182.01
-218.5
-255.59
-291.21
-322.84
-347.82
-363.6
-367.99
-359.6
-338.5
-306.97
-269.63
-232.62
-201.91
-181.35
-171.45
-169.7
-171.97
-174.37
-174.54
-171.68
-165.97
-157.6
-146.61
-133.01
-117.31
-100.72
-84.94
-71.56
-61.34
-53.97
-48.39
-43.32
-37.82
-31.62
-25.08
-18.94
-13.95
-10.49
-8.45
-7.29
-6.35
-5.17
-3.73
-2.37
-1.55
-1.54
-2.21
-3.14
-3.86
-4.16
-4.19
-4.29
-4.82
-5.89
-7.41
-9.13
-10.9
-12.66
-14.34
-15.82
-16.8
-16.98
-16.1
-14.14
-11.29
-7.94
-4.49
-1.28
1.54
3.91
5.85
7.43
8.71
9.65
10.13
9.98
9.05
7.43
5.45
3.67
2.73
2.95
4.17
5.83
7.03
7.04
5.61
3.07
0.33
-1.54
-1.85
-0.61
1.32
2.49
1.51
-2.21
-8.02
-14.16
-18.32
-18.85
-15.5
-9.69
-3.99
-0.89
-1.59
-5.34
-9.66
-11.03
-6.36
6
25.25
47.84
67.95
78.59
73.92
51.92
16.24
-23.74
-55.18
-65.78
-47.84
-1
67.55
145.24
217.72
272.5
301.43
301.66
275.25
227.59
165.57
95.85
23.95
-45.39
-107.21
-155.79
-185.56
-193.38
-180.82
-154.56
-124.33
-99.02
-83.23
-76.21
-73.41
-70.06
-64.06
-56.74
-51.21
-49.67
-51.67
-54.35
-54.27
-49.46
-40.46
-29.79
-20.55
-14.78
-12.82
-13.36
-14.37
-14.14
-12.06
-8.67
-5.31
-3.4
-3.72
-6.04
-9.27
-12.01
-13.14
-12.48
-10.66
-8.86
-8.11
-8.86
-10.8
-13.22
-15.39
-16.91
-17.72
-17.87
-17.34
-15.93
-13.36
-9.56
-4.85
0.19
4.84
8.61
11.32
13.09
14.03
14.23
13.7
12.47
10.7
8.63
6.33
3.64
0.19
-4.32
-9.76
-15.52
-20.58
-24.08
-25.77
-26.22
-26.68
-28.58
-32.92
-39.72
-48.04
-56.24
-62.73
-66.69
-68.55
-69.89
-72.7
-78.65
-88.36
-101.2
-115.27
-127.58
-134.25
-130.88
-113.63
-80.62
-33.38
22.73
79.69
129.3
165.88
187.9
197.68
199.42
196.86
191.82
184.38
173.97
160.78
145.97
131.11
117.06
103.31
88.23
70.2
48.84
25.5
2.75
-16.57
-30.53
-38.62
-41.58
-40.64
-37.1
-31.98
-26.23
-20.91
-17.17
-15.97
-17.7
-22.01
-27.89
-34.03
-39.15
-42.16
-42.24
-38.98
-32.61
-24.11
-15.06
-7.16
-1.74
0.72
0.7
-0.78
-2.61
-4.03
-4.8
-4.99
-4.72
-3.99
-2.64
-0.55
2.2
5.25
8.14
10.51
12.19
13.28
14.04
14.67
15.23
15.6
15.59
14.99
13.67
11.62
8.95
5.87
2.68
-0.33
-2.92
-5.09
-7.05
-9.15
-11.74
-14.97
-18.65
-22.28
-25.22
-26.8
-26.61
-24.61
-21.08
-16.59
-11.78
-7.13
-2.93
0.83
4.24
7.3
9.9
11.79
12.78
12.83
12.24
11.48
11.04
11.24
12.08
13.27
14.46
15.27
15.54
15.26
14.55
13.54
12.27
10.72
8.83
6.64
4.29
2.06
0.23
-1.08
-1.94
-2.63
-3.52
-4.86
-6.75
-9.11
-11.74
-14.41
-16.9
-18.95
-20.23
-20.42
-19.32
-16.94
-13.53
-9.5
-5.26
-1.1
2.86
6.58
9.98
12.88
15.08
16.5
17.21
17.49
17.65
17.93
18.36
18.85
19.14
19.01
18.34
17.19
15.71
14.14
12.68
11.38
10.21
9.04
7.72
6.17
4.44
2.71
1.13
-0.19
-1.38
-2.63
-4.21
-6.29
-8.86
-11.74
-14.6
-17.04
-18.68
-19.18
-18.37
-16.19
-12.85
-8.71
-4.34
-0.26
3.16
5.83
7.89
9.63
11.31
13
14.65
16.01
16.9
17.25
17.24
17.21
17.54
18.57
20.29
22.46
24.48
25.7
25.68
24.4
22.37
20.41
19.33
19.4
20.32
21.21
21.16
19.7
17.1
14.32
12.53
12.61
14.56
17.59
20.28
21.26
19.66
15.38
9.25
2.72
-2.34
-3.96
-0.39
9.24
24.21
41.72
57.24
65.83
63.92
50.82
29.04
3.21
-21.81
-42.64
-57.99
-68.11
-73.71
-75.12
-72.43
-65.99
-56.92
-46.9
-37.69
-30.53
-25.91
-23.55
-22.63
-21.83
-19.57
-14.44
-5.79
5.85
18.92
31.43
42.03
50.53
57.67
64.14
69.69
72.91
71.9
65.47
53.93
39.13
23.6
9.64
-1.32
-8.78
-12.67
-12.58
-7.32
5.14
27.18
60.37
104.19
155
206.17
249.45
277.34
285.47
273.69
245.42
205.63
158.8
108.13
56.4
7.28
-34.06
-62.24
-74.1
-70.78
-57.9
-43.45
-34.42
-34.2
-41.98
-54.28
-67.27
-78.43
-86.88
-92.49
-95.14
-94.48
-90.46
-83.84
-76.16
-69.08
-63.67
-60.08
-57.78
-56.18
-55.09
-54.71
-55.25
-56.67
-58.46
-59.98
-60.68
-60.26
-58.57
-55.4
-50.47
-43.54
-34.69
-24.53
-14.1
-4.58
3.14
8.85
13.1
16.96
21.52
27.4
34.5
42.07
49.12
54.95
59.49
63.3
67.18
71.67
76.67
81.4
84.48
84.24
78.95
66.98
47.06
18.73
-17.2
-58.42
-101.3
-141.75
-176.24
-202.44
-219.02
-225.07
-219.63
-201.82
-171.85
-132.07
-87.64
-45.85
-14.36
1.26
-0.55
-16.66
-40.37
-63.67
-79.93
-85.85
-82.04
-72.07
-60.55
-51.23
-45.8
-44.05
-44.89
-47.55
-52.16
-59.3
-69.15
-80.83
-92.43
-101.53
-106.25
-105.78
-100.59
-92.02
-81.79
-71.71
-63.6
-59.08
-59.17
-63.83
-71.54
-79.39
-83.67
-81.02
-69.58
-49.8
-24.36
2.73
27.58
47.99
64.28
79.34
97.71
124.33
162.88
214.32
275.83
340.7
399.4
441.84
460.29
451.9
419.77
371.97
318.83
269.68
230.24
201.78
181.8
165.8
149.04
127.67
99.12
61.98
15.88
-38.35
-98.42
-160.54
-219.5
-269.55
-305.56
-324.38
-325.8
-312.65
-289.95
-263.19
-236.6
-212.16
-189.84
-168.63
-148.12
-129.18
-113.64
-103.04
-97.29
-94.36
-90.96
-84.24
-73.06
-58.47
-42.92
-28.9
-17.87
-10.04
-4.65
-0.68
2.52
5.12
6.83
7.2
5.71
2.04
-3.92
-11.89
-21.18
-30.74
-39.39
-46.04
-50.06
-51.55
-51.47
-51.4
-52.98
-57.21
-64
-72.14
-79.88
-85.88
-89.98
-93.43
-98.22
-105.99
-116.97
-129.54
-140.64
-146.74
-144.97
-134.06
-114.8
-89.67
-62.19
-35.79
-12.69
6.94
25.21
46.15
74.66
114.9
168.5
233.19
302.67
368.1
420.71
454.61
468.49
465.41
450.98
431.02
409.9
390.32
374.26
363.81
360.97
366.44
378.03
390.29
395.79
387.8
362.9
322.27
270.95
215.65
162.11
113.15
68.37
25
-20.35
-70.16
-124.73
-181.83
-237.16
-285.57
-322.76
-346.64
-357.77
-358.8
-353.28
-344.53
-334.93
-325.71
-316.88
-307.39
-295.28
-278.3
-254.99
-225.64
-192.79
-160.62
-133.39
-113.78
-102.05
-96.44
-94.27
-93.3
-92.15
-90.13
-86.66
-81.25
-73.54
-63.77
-52.86
-42.23
-33.29
-26.85
-22.8
-20.12
-17.4
-13.38
-7.5
-0.15
7.53
14.16
18.7
20.82
21.01
20.32
19.82
20.12
21.2
22.47
23.23
23
21.82
20.2
18.8
18.12
18.22
18.7
18.81
17.92
15.76
12.57
9.12
6.2
4.3
3.39
2.91
2.16
0.57
-2.02
-5.39
-9.16
-12.96
-16.56
-19.72
-22.12
-23.31
-22.92
-20.78
-17.15
-12.54
-7.6
-2.79
1.65
5.71
9.39
12.59
15.1
16.7
17.36
17.26
16.81
16.4
16.29
16.55
17.05
17.59
17.99
18.12
17.92
17.43
16.69
15.78
14.85
13.93
12.99
11.87
10.27
7.93
4.77
0.92
-3.24
-7.26
-10.78
-13.66
-15.92
-17.75
-19.25
-20.57
-21.76
-22.91
-24.06
-25.24
-26.3
-26.93
-26.7
-25.21
-22.32
-18.25
-13.65
-9.36
-6.21
-4.63
-4.58
-5.53
-6.77
-7.67
-8.05
-8.18
-8.67
-10.25
-13.36
-18.01
-23.52
-28.88
-32.93
-34.96
-35.02
-34.02
-33.44
-34.84
-39.41
-47.79
-59.91
-74.72
-89.76
-101.02
-103.64
-93.53
-69.4
-34
6.32
43.83
72.35
89.36
96.41
97.74
98.12
101.4
109.93
124.95
147.01
175.79
209.6
244.94
276.96
300.62
312.2
310.48
296.96
275.2
249.67
224.41
202.06
183.48
167.89
153.48
138.23
120.76
100.87
79.72
59.48
42.47
30.28
22.85
18.28
13.36
4.74
-9.68
-30.13
-55.27
-83.18
-112.77
-144.1
-177.48
-211.85
-244.09
-269.72
-285.03
-289.11
-284.08
-273.15
-257.85
-236.54
-206.17
-165.86
-119.72
-76.28
-44.28
-27.49
-22.1
-18.8
-8.41
12.43
39.34
62.91
74.46
70.55
54.35
33.03
13.84
0.88
-5.62
-7.68
-7.54
-6.31
-4.04
-0.34
4.55
9.32
12.14
11.48
7.03
-0.14
-8.08
-14.87
-19.44
-22.12
-24.55
-28.91
-37.08
-49.72
-65.89
-83.2
-98.57
-109.3
-114.23
-114.08
-110.74
-105.95
-99.81
-90.38
-74.68
-50.71
-19.22
15.79
48.34
72.91
86.5
89.52
84.96
76.53
66.98
57.46
48.03
38.66
29.92
22.92
18.63
17.22
17.78
18.79
18.78
17.07
13.99
10.64
8.22
7.36
7.76
8.22
7.2
3.57
-2.79
-10.87
-18.8
-24.56
-26.69
-24.79
-19.51
-12.17
-4.32
2.76
8.32
12.14
14.46
15.82
16.83
17.94
19.34
20.87
22.29
23.39
24.12
24.61
24.99
25.24
25.19
24.6
23.31
21.38
19.03
16.54
14.13
11.87
9.69
7.48
5.21
2.89
0.63
-1.48
-3.44
-5.33
-7.29
-9.42
-11.68
-13.78
-15.26
-15.6
-14.47
-11.92
-8.4
-4.55
-1.03
1.82
3.97
5.65
7.18
8.7
10.19
11.46
12.3
12.63
12.46
11.97
11.35
10.84
10.59
10.65
10.87
10.98
10.65
9.58
7.68
5.11
2.21
-0.61
-3.01
-4.83
-6.14
-7.16
-8.15
-9.35
-10.92
-12.96
-15.39
-17.98
-20.31
-21.83
-22.08
-20.82
-18.17
-14.56
-10.54
-6.59
-2.93
0.38
3.43
6.27
8.82
10.99
12.67
13.89
14.74
15.4
16
16.65
17.39
18.15
18.81
19.22
19.24
18.77
17.82
16.37
14.45
12.04
9.13
5.8
2.24
-1.27
-4.41
-6.99
-9.02
-10.69
-12.3
-14.1
-16.22
-18.69
-21.35
-23.92
-25.98
-27.04
-26.68
-24.71
-21.28
-16.92
-12.3
-8
-4.36
-1.34
1.34
3.93
6.58
9.21
11.6
13.46
14.55
14.74
14.06
12.72
11.04
9.41
8.12
7.31
6.81
6.28
5.3
3.45
0.55
-3.43
-8.24
-13.47
-18.63
-23.37
-27.69
-31.92
-36.58
-41.96
-47.78
-53.07
-56.67
-57.94
-57.37
-56.75
-58.35
-63.77
-72.88
-83.55
-92.12
-94.62
-87.67
-69.42
-39.99
-1.84
40.2
79.46
108.81
122.62
118.86
100.28
73.87
48.78
33.2
31.75
44.38
67.01
93.49
117.87
136.07
146.46
149.63
147.51
142.42
136.38
130.81
126.39
123.25
121.03
119.08
116.76
113.6
109.2
103.14
94.54
81.84
63.03
36.33
1.07
-41.26
-86.53
-128.45
-159.7
-173.74
-166.74
-138.82
-94.74
-43
6.09
43.38
63.87
68.44
63.43
57.73
58.75
68.66
83.46
94.92
94.67
78.25
47.2
8.25
-29.87
-59.86
-78.3
-85.73
-85.41
-81.35
-76.84
-73.89
-73.49
-76.09
-81.75
-90.12
-100.14
-109.92
-116.98
-118.97
-114.66
-104.71
-91.74
-79.44
-71.03
-67.73
-68.14
-68.88
-65.97
-56.72
-40.78
-20.12
2.04
22.67
39.93
53.53
64.17
72.82
80.04
85.73
89.24
89.75
86.68
79.94
70.17
58.56
46.63
35.72
26.72
19.9
15.06
11.77
9.59
8.18
7.23
6.32
4.92
2.53
-1.11
-5.85
-11.12
-16.19
-20.39
-23.44
-25.42
-26.61
-27.24
-27.34
-26.8
-25.5
-23.46
-20.82
-17.84
-14.75
-11.75
-8.95
-6.32
-3.75
-1.05
1.96
5.39
9.11
12.77
15.9
18.09
19.22
19.49
19.35
19.27
19.56
20.24
21.05
21.55
21.3
20.08
17.94
15.12
11.96
8.81
5.93
3.43
1.22
-0.9
-3.19
-5.82
-8.75
-11.72
-14.38
-16.47
-17.9
-18.75
-19.21
-19.4
-19.3
-18.82
-17.86
-16.37
-14.45
-12.21
-9.73
-7.06
-4.34
-1.68
0.81
3.03
4.91
6.34
7.12
7.1
6.21
4.62
2.76
1.21
0.37
0.27
0.49
0.26
-1.2
-4.24
-8.7
-13.94
-19.15
-23.66
-27.13
-29.49
-30.86
-31.43
-31.46
-31.25
-31.04
-30.9
-30.53
-29.33
-26.61
-21.99
-15.59
-8.13
-0.52
6.47
12.53
17.79
22.51
26.75
30.22
32.46
33
31.67
28.61
24.19
18.88
13.09
7.25
1.81
-2.67
-5.75
-7.12
-6.88
-5.52
-3.75
-2.29
-1.58
-1.7
-2.45
-3.47
-4.39
-5.06
-5.55
-6.11
-7.09
-8.73
-11.18
-14.38
-18.11
-21.92
-25.22
-27.41
-27.82
-25.97
-21.63
-14.99
-6.77
1.86
9.43
14.58
16.39
14.67
10
3.52
-3.39
-9.45
-13.75
-15.76
-15.42
-13.04
-9.23
-4.83
-0.64
2.7
4.88
5.85
5.77
4.79
3.11
0.98
-1.36
-3.57
-5.39
-6.73
-7.76
-8.74
-9.93
-11.39
-13
-14.55
-15.86
-16.93
-17.89
-18.92
-20.17
-21.68
-23.37
-25.12
-26.71
-27.85
-28.11
-27.01
-24.24
-19.71
-13.76
-6.99
-0.17
6.14
11.6
16.22
20.17
23.63
26.66
29.1
30.7
31.21
30.62
29.16
27.23
25.25
23.48
21.98
20.55
18.96
17.08
14.99
12.97
11.26
10.09
9.43
9.13
8.94
8.62
7.97
6.84
5.2
3
0.35
-2.67
-5.86
-9.06
-12.15
-14.97
-17.48
-19.68
-21.63
-23.4
-25.1
-26.69
-27.96
-28.5
-27.9
-25.84
-22.39
-17.98
-13.23
-8.77
-5.02
-2.04
0.31
2.26
3.97
5.48
6.7
7.55
8.06
8.32
8.53
8.8
9.22
9.73
10.24
10.59
10.67
10.41
9.83
9.04
8.15
7.29
6.46
5.6
4.62
3.4
1.96
0.42
-1.02
-2.2
-3.08
-3.73
-4.32
-4.99
-5.79
-6.76
-7.95
-9.45
-11.37
-13.64
-16.01
-18.05
-19.21
-19.12
-17.63
-15
-11.71
-8.29
-5.16
-2.53
-0.43
1.28
2.7
3.92
4.97
5.84
6.5
7
7.37
7.7
8.01
8.31
8.6
8.86
9.02
9.02
8.77
8.19
7.32
6.29
5.25
4.36
3.66
3.06
2.4
1.5
0.23
-1.35
-3.11
-4.9
-6.57
-8.05
-9.39
-10.68
-12.08
-13.74
-15.78
-18.23
-20.92
-23.5
-25.45
-26.22
-25.38
-22.83
-18.85
-14
-9.01
-4.48
-0.74
2.13
4.23
5.76
6.81
7.42
7.64
7.55
7.28
7.05
7.04
7.35
8.03
9.01
10.13
11.11
11.63
11.4
10.25
8.27
5.85
3.52
1.78
0.85
0.56
0.47
0.07
-0.9
-2.36
-3.97
-5.41
-6.59
-7.79
-9.45
-11.95
-15.34
-19.28
-23.22
-26.57
-28.95
-30.17
-30.16
-28.84
-26.22
-22.59
-18.72
-15.73
-14.61
-15.71
-18.24
-20.6
-20.92
-18.11
-12.25
-4.64
2.88
8.88
12.83
15.15
16.74
18.31
20
21.57
22.73
23.48
24.32
25.91
28.58
32.09
35.58
37.95
38.39
36.8
33.82
30.5
27.76
25.95
24.77
23.36
20.79
16.34
9.77
1.42
-7.95
-17.48
-26.36
-34.08
-40.39
-45.15
-48.3
-49.73
-49.36
-47.3
-43.84
-39.39
-34.36
-29.09
-23.86
-18.97
-14.77
-11.57
-9.53
-8.53
-8.08
-7.51
-6.17
-3.67
-0.02
4.28
8.52
11.95
14.02
14.67
14.27
13.47
12.9
12.9
13.48
14.27
14.7
14.02
11.46
6.34
-1.62
-12.08
-23.83
-34.96
-43.42
-47.61
-47.03
-42.28
-34.77
-26.02
-17.21
-8.98
-1.57
4.93
10.46
15.02
18.9
22.46
26.08
29.76
33.11
35.42
36.1
35.01
32.5
29.28
25.99
23.03
20.5
18.28
16.27
14.42
12.71
11.12
9.57
7.95
6.09
3.9
1.28
-1.74
-4.96
-7.95
-10.04
-10.47
-8.61
-4.24
2.43
10.62
19.25
27.17
33.39
37.27
38.61
37.68
35.12
31.77
28.54
26.03
24.45
23.56
22.79
21.52
19.34
16.23
12.48
8.56
4.88
1.69
-1.03
-3.5
-5.98
-8.7
-11.82
-15.37
-19.28
-23.27
-26.94
-29.74
-31.18
-30.92
-28.94
-25.49
-21.11
-16.36
-11.68
-7.27
-3.08
1.04
5.15
9.12
12.59
15.09
16.34
16.28
15.22
13.77
12.55
11.95
12.01
12.49
13.04
13.38
13.44
13.29
12.98
12.41
11.36
9.62
7.07
3.81
0.09
-3.81
-7.65
-11.22
-14.31
-16.63
-17.9
-17.93
-16.76
-14.64
-11.95
-9.02
-6.07
-3.14
-0.19
2.81
5.8
8.62
11.08
13.03
14.44
15.41
16.1
16.65
17.17
17.68
18.16
18.56
18.83
18.94
18.81
18.27
17.14
15.27
12.7
9.66
6.54
3.76
1.58
-0.03
-1.31
-2.65
-4.36
-6.6
-9.3
-12.27
-15.15
-17.53
-18.99
-19.08
-17.55
-14.41
-10.03
-4.98
0.04
4.55
8.35
11.55
14.37
16.98
19.29
21.08
22.03
21.97
21.03
19.55
18
16.85
16.34
16.5
17.19
18.17
19.25
20.31
21.27
21.95
22.16
21.69
20.42
18.47
16.11
13.67
11.37
9.25
7.12
4.74
1.88
-1.48
-5.24
-9.24
-13.29
-17.23
-20.78
-23.56
-25.08
-24.9
-22.83
-19
-13.97
-8.57
-3.69
0.03
2.27
3.14
2.95
2.14
1.14
0.26
-0.38
-0.82
-1.3
-2.14
-3.5
-5.32
-7.29
-9.07
-10.49
-11.78
-13.52
-16.21
-20.06
-24.72
-29.65
-34.55
-39.61
-45.61
-53.42
-63.66
-76.52
-91.74
-108.52
-125.47
-140.19
-149.4
-149.62
-138.52
-116.26
-85.86
-52.23
-19.96
8.6
34.27
60.47
91.56
130.91
179.52
235.13
292.16
342.64
378.04
391.77
381.59
350.34
304.9
253.51
202.92
156.88
116.6
82.28
54.5
34.15
21.3
14.12
8.96
1.94
-8.99
-22.99
-36.99
-47.53
-52.74
-53.12
-50.94
-48.74
-48.12
-49.34
-51.7
-54.4
-56.88
-58.85
-60.01
-59.92
-58.13
-54.63
-49.97
-45.04
-40.68
-37.16
-34.18
-31.11
-27.45
-23.11
-18.4
-13.78
-9.64
-6.19
-3.45
-1.3
0.47
2.15
4.03
6.39
9.37
13
17.04
21.1
24.66
27.18
28.43
28.71
28.9
30.23
33.77
39.73
47.19
54.24
58.79
59.65
57.24
53.61
51.63
53.62
60.23
70.01
79.73
85.56
84.3
74.35
55.87
30.56
0.94
-30.22
-60.49
-88.19
-112.84
-135.02
-155.86
-176.03
-194.66
-208.67
-213.02
-202.33
-173.55
-128.54
-74.97
-24.63
10.73
23.97
15.46
-7.56
-34.6
-56.79
-70.24
-76.31
-79.02
-81.64
-84.54
-85.55
-82.31
-74.57
-64.86
-57.14
-54.44
-57.05
-62.36
-66.16
-64.8
-56.93
-44.01
-29.55
-17.35
-9.93
-7.57
-8.57
-10.28
-10.47
-8.31
-4.47
-0.48
2.29
3.34
3.04
2
0.45
-2
-5.91
-11.2
-16.61
-20.1
-19.71
-14.81
-6.57
2.44
9.48
12.78
12.24
9.06
4.83
0.57
-3.56
-8
-13.09
-18.52
-23.34
-26.31
-26.6
-24.27
-20.34
-16.45
-14.2
-14.59
-17.57
-22.18
-26.84
-30.06
-30.88
-29.1
-25.26
-20.2
-14.69
-9.22
-3.95
1.11
5.99
10.74
15.6
21.03
27.68
35.94
45.68
56.02
65.72
73.61
79.15
82.61
84.74
86.21
87.07
86.55
83.32
76.25
65.1
50.9
35.67
21.76
11.1
4.48
1.64
1.66
3.47
6.34
9.86
13.83
17.96
21.82
24.91
26.95
28.14
29.12
30.83
33.93
38.39
43.29
47.33
49.69
50.9
53.16
59.55
72.63
92.86
117.87
142.92
162.32
170.99
165.78
145.94
113.32
72.22
29.09
-8.46
-33.32
-40.95
-31.04
-7.52
22.95
53.52
79.45
98.89
112.33
121.16
126.49
128.9
128.71
126.45
122.59
116.98
108.14
93.29
69.11
32.96
-15.86
-75.41
-140.99
-205.63
-261.25
-300.18
-317.13
-310.81
-284.8
-246.85
-206.81
-173.65
-152.79
-144.72
-145.38
-148.06
-146.17
-135.59
-115.82
-89.76
-62.31
-38.46
-21.6
-12.61
-10.24
-12
-15.4
-18.77
-21.37
-22.96
-23.25
-21.64
-17.54
-10.97
-2.87
5.03
10.89
13.66
13.52
11.86
10.53
10.9
13.3
16.96
20.42
22.24
21.59
18.48
13.78
8.73
4.48
1.63
0.08
-0.82
-1.9
-3.65
-6.04
-8.59
-10.77
-12.38
-13.66
-15.14
-17.31
-20.36
-24.07
-27.92
-31.36
-33.99
-35.77
-36.93
-37.77
-38.55
-39.35
-39.92
-39.9
-38.85
-36.49
-32.84
-28.17
-22.93
-17.51
-12.24
-7.19
-2.37
2.21
6.54
10.42
13.7
16.25
18.11
19.5
20.75
22.06
23.4
24.45
24.68
23.65
21.22
17.69
13.69
9.94
6.91
4.68
3.07
1.71
0.36
-1.02
-2.37
-3.54
-4.45
-5.07
-5.44
-5.5
-5.27
-4.82
-4.38
-4.25
-4.63
-5.35
-5.69
-4.59
-1.07
5.3
14.06
23.97
33.45
41.27
47.05
51.26
54.91
58.88
63.41
68.07
71.91
73.81
72.71
67.65
57.79
42.6
22.2
-2.11
-27.88
-51.82
-71.04
-83.88
-90.46
-92.42
-91.93
-90.54
-88.22
-83.49
-74.6
-61.23
-45.62
-32.37
-26.57
-31.28
-45.67
-65.13
-83.14
-94.26
-96.28
-90.58
-80.54
-69.37
-58.41
-47.31
-35.18
-22.08
-9.62
-0.13
4.63
4.53
1.14
-2.66
-4.18
-1.95
3.63
10.52
15.9
17.44
14.3
7.6
0.01
-5.42
-6.6
-3.41
2.17
6.92
7.69
2.82
-7.29
-20.11
-31.92
-38.73
-37.22
-25.47
-3.68
25.19
55.5
79.86
91.51
86.97
68.04
41.59
16.91
1.84
-0.47
7.8
21.1
33.99
43.78
50.97
57.64
65.03
72.3
77.15
77.76
74.65
70.88
70.72
77.01
89.26
103.06
111.43
107.29
86.16
48.22
-1.07
-51.97
-92.94
-113.99
-109.79
-81.65
-37.26
11.84
54.24
82.57
95.55
97.16
93.66
89.72
85.83
78.44
61.99
31.86
-13.75
-73.31
-142.72
-216.23
-286.96
-347.48
-390.47
-410.32
-404.75
-375.66
-328.22
-268.73
-202.44
-132.85
-62.6
5.07
65.65
114.73
150.08
173.09
187.77
198.29
206.43
211.01
209.61
200.91
186.2
168.4
149.88
130.74
109.37
85.03
60.72
43.71
42.87
63.89
105.38
158.07
207.83
240.99
249.06
231.01
192.17
141.21
86.83
35.57
-8.56
-43.41
-67.82
-81.41
-84.82
-80.14
-70.74
-60.46
-52.45
-48.22
-47.48
-48.65
-49.78
-49.38
-47
-43.08
-38.72
-35.09
-33.03
-32.65
-33.36
-34.12
-33.81
-31.8
-28.18
-23.76
-19.71
-17.08
-16.3
-17.14
-18.84
-20.49
-21.4
-21.3
-20.33
-18.93
-17.53
-16.5
-15.95
-15.84
-16.04
-16.56
-17.55
-19.37
-22.22
-25.97
-30.04
-33.57
-35.8
-36.36
-35.5
-33.77
-31.69
-29.41
-26.63
-22.94
-18.24
-12.94
-7.84
-3.72
-0.9
0.87
2.14
3.44
4.93
6.42
7.58
8.28
8.7
9.25
10.34
12.12
14.51
17.17
19.69
21.68
22.81
22.84
21.71
19.63
17.04
14.59
12.84
12.07
12.14
12.48
12.37
11.16
8.65
5.12
1.32
-1.76
-3.24
-2.68
-0.23
3.46
7.53
11.28
14.42
17.21
20.4
24.89
31.3
39.49
48.19
54.98
56.9
51.39
37.43
16.21
-9.21
-34.91
-57.58
-75.58
-89.09
-99.6
-108.76
-117.73
-126.71
-134.98
-141.07
-143.01
-138.76
-126.93
-107.51
-82.24
-54.44
-27.79
-5.12
12.5
25.72
36.07
44.86
52.5
58.62
62.52
63.96
63.24
61.07
58.07
54.5
50.34
45.56
40.4
35.49
31.65
29.55
29.54
31.37
34.32
37.41
39.64
40.34
39.34
37
34.03
31.28
29.33
28.42
28.38
28.75
29.05
28.84
27.98
26.54
24.72
22.82
21.05
19.47
18.02
16.6
15.07
13.42
11.7
9.92
8.11
6.31
4.57
2.97
1.6
0.4
-0.76
-2.12
-3.87
-6.04
-8.47
-10.82
-12.69
-13.72
-13.8
-12.92
-11.18
-8.67
-5.41
-1.39
3.36
8.68
14.15
19.22
23.47
26.78
29.52
32.36
35.95
40.49
45.58
50.3
53.64
55.14
55.17
54.9
55.89
59.25
65.02
71.96
78.02
81.21
80.6
76.81
71.98
68.85
69.6
74.93
83.51
92.49
98.44
98.72
92.44
80.63
65.61
50.05
35.83
23.64
12.84
1.49
-13.31
-35.04
-66.54
-108.12
-155.86
-201.37
-234.07
-245.53
-233.71
-204.52
-169.52
-140.84
-125.76
-124.25
-130.3
-136.05
-136
-128.99
-117.23
-103.45
-88.48
-70.44
-45.98
-12.46
30.17
78.86
128.29
172.8
207.98
231.69
243.97
245.7
237.64
220.15
194.12
162.26
129.65
102.64
86.59
83.49
90.76
102.11
109.94
107.95
93.11
65.98
30.04
-9.77
-48.23
-80.99
-104.99
-118.94
-123.31
-120.04
-111.89
-101.75
-92.01
-84.29
-79.38
-77.21
-77.03
-77.62
-77.67
-76.27
-73.25
-69.08
-64.7
-60.97
-58.33
-56.81
-56.33
-56.96
-59.09
-63.29
-69.85
-78.56
-88.72
-99.36
-109.6
-118.59
-125.29
-128.44
-126.91
-120.32
-109.64
-97.22
-85.81
-77.55
-72.93
-70.93
-69.81
-68.15
-65.34
-61.35
-56.02
-48.69
-38.52
-25.03
-8.71
8.95
26.14
41.45
54.23
64.59
73.14
80.71
88.22
96.56
106.37
117.74
130.01
141.92
152.19
160.02
165.48
169.26
172.22
174.88
177.23
178.86
179.26
178.22
175.94
172.94
169.94
167.64
166.61
167.05
168.67
170.45
170.57
166.63
156.18
137.54
110.69
77.58
41.89
8
-20.39
-41.27
-54.72
-62.45
-66.81
-69.91
-73.12
-77.13
-82.18
-88.27
-95.08
-101.8
-107.13
-109.48
-107.63
-101.25
-91.17
-79.14
-67.25
-57.17
-49.74
-44.93
-42.21
-40.93
-40.67
-41.23
-42.38
-43.8
-44.89
-45.04
-43.91
-41.67
-38.92
-36.33
-34.16
-31.92
-28.43
-22.17
-11.8
3.26
22.5
44.18
65.5
82.83
92.28
90.49
75.7
48.56
12.46
-27.15
-64.12
-93.33
-111.92
-119.64
-118.23
-110.35
-98.64
-85.16
-71.37
-58.28
-46.64
-36.86
-28.91
-22.32
-16.47
-10.87
-5.34
-0.03
4.77
8.75
11.75
13.7
14.7
14.82
14.13
12.72
10.63
7.95
4.79
1.39
-1.92
-4.74
-6.73
-7.76
-7.87
-7.27
-6.16
-4.62
-2.61
-0.16
2.57
5.27
7.51
9.02
9.8
10.2
10.74
11.87
13.67
15.79
17.48
17.82
16.15
12.36
7.1
1.66
-2.46
-4.2
-3.43
-1.28
0.06
-2.08
-10.02
-25
-46.58
-72.64
-99.99
-125.32
-146.42
-162.99
-176.7
-190.18
-205.46
-222.27
-237.5
-245.91
-241.97
-222.03
-185.69
-135.81
-77.36
-15.88
44.13
99.67
148.99
190.91
224.1
246.73
256.7
252.28
232.97
200.35
158.37
112.99
70.99
38.18
17.75
9.51
10.22
14.95
19
19.27
14.89
6.87
-3.01
-13.14
-22.55
-30.92
-38.06
-43.6
-47.01
-48.03
-47.05
-45.28
-44.4
-45.8
-49.96
-56.18
-62.92
-68.39
-71.33
-71.3
-68.68
-64.45
-59.81
-56
-54.03
-54.37
-56.71
-59.87
-62.26
-62.59
-60.82
-58.31
-57.03
-58.28
-61.29
-62.79
-57.96
-42.24
-12.95
29.92
84.06
145.49
209.08
268.65
317.42
348.98
359.13
347.52
318.1
277.81
233.88
190.98
149.67
107
59.22
5
-52.33
-104.95
-143.17
-159.39
-151.31
-123.02
-83.35
-42.3
-7.22
19.02
37.61
51.62
63.72
75.08
85.55
94.81
102.99
110.48
117.27
122.38
123.97
120.08
109.89
95.05
80.03
71.19
74.44
92.44
122.75
158.34
190.55
212.92
223.8
225.95
223.79
219.9
213.39
201.14
180.73
153.19
123.25
96.9
77.87
65.31
54.18
37.9
11.58
-25.98
-72.3
-123.07
-174.38
-224.07
-271.75
-317.73
-361.46
-401.07
-433.59
-456.28
-467.68
-467.81
-457.18
-435.5
-401.54
-354.69
-297.58
-237.57
-185.6
-152.02
-141.77
-151.4
-170.25
-185.3
-186.96
-172.87
-147.7
-119.52
-95.44
-79.01
-70.16
-66.96
-67.23
-69.21
-71.07
-70.56
-65.4
-54.19
-37.08
-15.62
8.36
33.76
60.7
89.98
122.1
156.51
191.92
226.93
260.75
293.27
324.37
353.28
378.29
397.34
408.82
412.39
408.93
400.19
387.8
372.8
355.47
335.57
312.58
285.85
254.72
218.56
176.93
129.67
76.9
19.27
-41.91
-104.38
-164.56
-217.81
-259.43
-285.91
-296.27
-292.38
-278.16
-258.13
-236.24
-215.21
-196.74
-182.04
-172.17
-167.81
-168.85
-173.87
-180.35
-185.11
-185.17
-178.44
-164.21
-143.3
-117.88
-91.05
-66.11
-45.82
-31.83
-24.43
-22.8
-25.4
-30.27
-35.39
-38.79
-38.85
-34.7
-26.38
-15.01
-2.41
9.32
18.47
24.03
25.93
24.88
22.09
18.87
16.23
14.6
13.79
13.18
12.09
10.17
7.55
4.9
3.14
3.12
5.36
9.87
16.28
23.83
31.62
38.76
44.61
48.92
51.74
53.34
53.86
53.29
51.38
47.98
43.12
37.23
31
25.09
19.85
15.13
10.44
5.25
-0.52
-6.45
-11.66
-15.25
-16.66
-15.94
-13.59
-10.31
-6.66
-2.95
0.72
4.23
7.31
9.61
10.8
10.72
9.56
7.62
5.38
3.2
1.38
0.08
-0.7
-1.05
-1.2
-1.4
-1.86
-2.55
-3.34
-3.95
-4.19
-4.06
-3.73
-3.47
-3.5
-3.96
-4.81
-5.98
-7.39
-8.96
-10.7
-12.59
-14.65
-16.89
-19.28
-21.73
-24.02
-25.76
-26.47
-25.79
-23.53
-19.87
-15.27
-10.42
-5.96
-2.35
0.26
2.03
3.19
4.06
4.81
5.51
6.21
6.94
7.76
8.78
9.96
11.11
12
12.39
12.24
11.67
10.95
10.28
9.72
9.1
8.2
6.88
5.14
3.2
1.3
-0.36
-1.77
-3.04
-4.37
-5.91
-7.76
-9.94
-12.34
-14.74
-16.88
-18.37
-18.86
-18.14
-16.14
-13.06
-9.33
-5.42
-1.75
1.43
4.09
6.35
8.36
10.22
11.95
13.48
14.78
15.82
16.64
17.32
17.88
18.28
18.44
18.26
17.64
16.57
15.03
13.08
10.78
8.21
5.51
2.77
0.12
-2.35
-4.53
-6.36
-7.8
-8.9
-9.8
-10.72
-11.91
-13.54
-15.61
-17.9
-20.01
-21.46
-21.84
-20.94
-18.83
-15.81
-12.27
-8.61
-5.13
-1.92
1
3.71
6.26
8.66
10.87
12.82
14.49
15.84
16.93
17.75
18.29
18.53
18.41
17.98
17.35
16.7
16.18
15.81
15.5
14.99
14.08
12.57
10.45
7.85
4.99
2.14
-0.51
-2.9
-5.13
-7.39
-9.95
-12.95
-16.35
-19.82
-22.91
-25.05
-25.89
-25.25
-23.28
-20.31
-16.79
-13.07
-9.35
-5.68
-2
1.78
5.68
9.56
13.19
16.27
18.58
19.98
20.57
20.56
20.3
20.06
20.02
20.08
20.02
19.56
18.53
17
15.25
13.61
12.34
11.44
10.69
9.82
8.63
7.13
5.52
3.98
2.63
1.36
-0.04
-1.8
-4.12
-7.06
-10.62
-14.69
-19.05
-23.39
-27.33
-30.4
-32.13
-32.22
-30.55
-27.27
-22.73
-17.45
-11.91
-6.56
-1.65
2.78
6.82
10.57
14.07
17.25
19.91
21.89
23.13
23.69
23.76
23.49
23
22.33
21.49
20.53
19.58
18.86
18.46
18.37
18.3
17.91
16.85
14.93
12.27
9.23
6.35
4.07
2.62
1.82
1.22
0.25
-1.53
-4.18
-7.35
-10.42
-12.8
-14.23
-14.97
-15.73
-17.29
-20.12
-24.07
-28.44
-32.3
-34.85
-35.46
-33.61
-28.79
-20.66
-9.48
3.4
15.61
24.6
29.08
29.87
29.73
31.82
37.9
47.38
57.71
66.08
71.02
73.02
73.8
74.85
76.37
77.27
76.17
72.49
66.98
61.21
56.56
53.33
50.65
47.18
41.98
35.07
27.41
20.35
14.92
11.19
8.26
4.62
-0.9
-8.57
-17.37
-25.33
-30.33
-31.05
-27.53
-21.1
-13.82
-7.59
-3.45
-1.25
0.09
2.29
7.11
15.9
29
45.07
60.65
70.4
68.62
51.53
19.49
-22.34
-65.3
-100.26
-120.87
-125.44
-116.65
-99.39
-78.36
-56.55
-35.33
-15.43
2.07
15.71
24.42
28.43
29.47
30.16
32.76
38.16
45.63
53.41
59.54
62.84
63.19
61.37
58.48
55.48
52.87
50.63
48.38
45.58
41.83
37.04
31.46
25.46
19.33
13
6
-2.31
-12.41
-24.14
-36.33
-46.99
-53.97
-55.81
-52.6
-46.22
-39.73
-36.31
-38.06
-45.25
-56.54
-70.08
-84.7
-100.36
-117.54
-136
-154.26
-170
-180.99
-186.13
-185.43
-178.87
-165.35
-142.72
-109.39
-66.8
-20.55
21.46
52.75
71.25
79.76
83.73
87.91
94.07
100.93
105.32
105.38
101.93
97.53
94.27
92.19
89.76
85.63
79.68
71.71
62.35
53.1
45.99
42.4
42.22
43.6
43.39
37.18
18.85
-15.25
-63.88
-120.65
-176.97
-225.69
-263.27
-289.32
-294.64
-274.54
-231.87
-176.28
-117.15
-59.59
-5.75
42.54
84.12
119.63
147.54
166.84
177.96
182.89
183.86
182.2
173.96
158.19
135.76
108.12
77.98
47.84
20.48
-2.42
-21.44
-38.7
-55.71
-73.32
-91.41
-109.55
-129.03
-150.07
-171.72
-193.07
-212.83
-228.43
-237.14
-235.44
-221.26
-197.12
-164.92
-125.26
-79.45
-29.41
22.93
75.28
127.3
178
221.96
256.11
280.75
296.96
306.49
311.53
299.51
264.87
231.07
206.1
184.17
164.07
146.05
131.49
122.49
121.42
132.69
158.6
194.23
232.95
267.67
290.01
293.29
275.23
239.01
193.9
149.81
111.13
79.78
56.18
38.78
26.01
17.24
12.58
13.18
18.93
26.64
33.66
39.02
42.49
44.62
46.26
48.05
50.78
54.43
57.44
58.42
56.67
51.7
43.47
32.36
19.21
5.24
-8.5
-21.65
-34.35
-46.98
-60.32
-75.19
-92.49
-113.13
-137.82
-166.44
-197.16
-226.23
-248.44
-258.87
-255.05
-238.2
-213.39
-187.85
-168.63
-160.65
-166.06
-184.8
-215.62
-256.51
-304.61
-355.52
-403.04
-439.97
-459.69
-457.83
-433.27
-388.32
-328.05
-259.08
-188.25
-121.22
-61.43
-9.68
35.28
75.39
111.66
143.04
166.75
179.7
180.34
169.92
152.09
131.59
112.35
96.31
83.35
72.2
61.57
50.83
40.16
30.19
21.54
14.45
8.74
3.99
-0.21
-4.02
-7.27
-9.61
-10.69
-10.43
-9.14
-7.39
-5.84
-4.85
-4.38
-4.02
-3.23
-1.66
0.62
3.07
4.98
5.85
5.58
4.6
3.58
3.25
3.94
5.59
7.77
9.83
11.26
11.75
11.31
10.14
8.55
6.83
5.18
3.6
1.99
0.18
-1.93
-4.29
-6.7
-8.91
-10.73
-12.09
-13.15
-14.17
-15.44
-17.14
-19.31
-21.91
-24.86
-27.93
-30.8
-33
-34
-33.45
-31.31
-27.87
-23.67
-19.33
-15.24
-11.57
-8.25
-5.16
-2.21
0.6
3.2
5.43
7.14
8.18
8.49
8.19
7.55
6.96
6.74
7.04
7.69
8.3
8.43
7.76
6.24
4.12
1.71
-0.71
-3.03
-5.38
-7.93
-10.89
-14.31
-18.03
-21.82
-25.47
-28.93
-32.23
-35.4
-38.26
-40.21
-40.34
-37.59
-30.98
-19.77
-3.65
17.09
41.41
67.38
92.28
112.72
125.26
127.29
117.91
98.57
73.04
46.53
24.23
9.87
4.76
7.86
16.56
27.87
39.28
49.12
56.54
61.19
63.13
62.91
61.53
60.01
58.84
57.53
54.55
47.82
35.74
17.97
-4.21
-28
-49.98
-67.04
-77.36
-80.96
-79.85
-77.41
-77.38
-82.43
-93.29
-108.41
-124.53
-137.76
-144.7
-143.43
-134.02
-118.53
-100.46
-83.6
-70.28
-59.95
-48.88
-31.86
-5.15
30.66
69.9
103.84
124.61
128.81
118.66
100.25
80.03
61.97
46.79
33.54
21.59
11.84
6.14
5.55
9.11
13.93
16.59
14.84
8.73
0.35
-7.25
-11.56
-11.65
-8.44
-4
-0.61
0.18
-1.96
-6.17
-10.97
-14.79
-16.64
-16.32
-14.4
-11.96
-10.01
-9.24
-9.53
-10.15
-9.95
-8.02
-4.1
1.3
7.13
12.37
16.47
19.5
21.93
24.31
26.98
30.07
33.56
37.51
41.99
46.93
52
56.39
59.19
59.5
56.95
51.71
44.49
36.36
28.41
21.49
16.03
12.09
9.49
7.94
7.24
7.23
7.72
8.39
8.74
8.24
6.5
3.53
-0.22
-4
-7.12
-9.24
-10.64
-12.03
-14.32
-17.99
-22.94
-28.4
-33.37
-37.12
-39.6
-41.62
-44.51
-49.56
-57.48
-68.04
-80.06
-91.73
-101.09
-106.78
-108.49
-107.22
-105.2
-105.2
-109.33
-117.95
-128.95
-138.05
-140.1
-130.98
-109.23
-77.01
-39.77
-4.91
20.24
30.59
24.92
6.34
-18.55
-41.68
-56.01
-57.4
-45.3
-22.09
8.53
42.97
78.35
112.18
141.77
164.1
176.68
178.6
171.33
158.33
143.69
130.47
119.7
110.55
101.42
91.3
80.47
70.31
62.45
57.83
56.22
56.4
56.87
56.31
54.14
50.49
46.12
42.08
39.35
38.59
39.91
42.99
47.3
52.42
58.05
64.05
70.19
76.01
80.98
84.77
87.44
89.51
91.69
94.47
97.72
100.77
102.64
102.67
100.97
98.55
96.98
97.64
100.8
105.11
107.86
105.64
95.87
77.6
51.92
21.54
-10.13
-39.89
-65.17
-83.86
-94.3
-95.37
-87.53
-73.52
-58.24
-47.12
-43.82
-48.44
-57.84
-67.84
-75.78
-81.95
-88.55
-97.17
-106.71
-113.28
-112.47
-102.52
-86.05
-68.75
-56.15
-50.2
-48.25
-45
-35.9
-19.95
-0.1
18.58
31.84
38.18
39.21
38.31
38.98
43.65
53.39
67.91
85.52
103.18
116.98
123.45
121.13
111.44
98.17
85.53
75.93
68.92
61.97
52.44
39.56
24.8
10.72
-0.87
-10.15
-19.08
-29.99
-44.09
-61
-79.4
-98.19
-117.38
-138.14
-161.84
-189.12
-219.29
-250.52
-280.62
-307.65
-330.41
-348.51
-362.35
-372.96
-381.96
-391.16
-401.66
-413.09
-423.04
-427.61
-422.79
-406.27
-378.41
-342.2
-301.83
-260.95
-221.46
-183.41
-145.83
-107.91
-69.73
-32.16
3.7
37.39
69.37
100.83
133.19
167.64
204.7
243.86
283.36
320.11
350.26
370.05
377.05
370.99
353.9
329.35
301.18
272.34
244.38
217.7
192.24
168.12
145.77
125.59
107.63
91.3
75.75
60.36
45.27
31.46
20.42
13.42
10.77
11.46
13.42
14.41
13.03
9.46
5.44
3.46
5.77
13.3
25.38
39.98
54.33
65.22
69.15
62.56
42.68
9.21
-34.33
-80.43
-119.55
-143.4
-148.27
-136.31
-113.86
-87.91
-62.77
-38.77
-13.63
14.84
46.65
79.48
110.31
137.15
159.77
179.07
195.59
208.87
217.93
222.61
224.58
226.91
232.35
241.08
249.9
253.23
245.93
225.86
195.04
158.72
122.9
91.85
66.84
46.71
29.51
14.06
0.49
-10.34
-17.98
-22.99
-26.72
-30.56
-35.13
-40.04
-44.22
-46.65
-47.02
-45.74
-43.9
-42.62
-42.61
-43.9
-45.97
-48.01
-49.33
-49.63
-48.97
-47.78
-46.61
-45.91
-46
-46.85
-48.19
-49.58
-50.57
-50.88
-50.5
-49.69
-48.82
-48.3
-48.38
-49.18
-50.74
-52.89
-55.31
-57.54
-58.89
-58.74
-56.64
-52.46
-46.47
-39.22
-31.31
-23.3
-15.53
-8.2
-1.43
4.67
9.95
14.25
17.48
19.7
21.06
21.85
22.32
22.68
22.97
23.19
23.34
23.46
23.61
23.82
23.99
23.88
23.2
21.77
19.65
17.06
14.31
11.62
9
6.3
3.36
0.08
-3.45
-7.09
-10.65
-14.05
-17.34
-20.67
-24.28
-28.39
-33.12
-38.43
-44.03
-49.32
-53.52
-55.78
-55.43
-52.25
-46.54
-39.02
-30.64
-22.24
-14.38
-7.26
-0.84
5.05
10.5
15.44
19.74
23.2
25.71
27.32
28.15
28.42
28.35
28.14
27.92
27.8
27.76
27.73
27.54
27
25.9
24.17
21.82
19.05
16.13
13.3
10.67
8.21
5.73
2.97
-0.21
-3.8
-7.6
-11.34
-14.74
-17.7
-20.31
-22.83
-25.62
-28.98
-33.05
-37.7
-42.49
-46.69
-49.46
-50.01
-47.91
-43.19
-36.44
-28.53
-20.38
-12.68
-5.73
0.52
6.29
11.7
16.69
21.06
24.56
27.1
28.76
29.79
30.44
30.85
31.03
30.93
30.53
29.88
29.07
28.21
27.31
26.29
25
23.34
21.29
18.97
16.62
14.43
12.5
10.76
8.94
6.72
3.83
0.21
-3.97
-8.33
-12.47
-16.13
-19.3
-22.14
-24.97
-28.1
-31.78
-36.08
-40.77
-45.31
-48.87
-50.52
-49.53
-45.69
-39.37
-31.51
-23.16
-15.27
-8.34
-2.5
2.45
6.72
10.5
13.87
16.82
19.35
21.44
23.09
24.39
25.44
26.39
27.31
28.24
29.05
29.59
29.64
29.05
27.79
25.89
23.48
20.7
17.69
14.53
11.29
7.93
4.39
0.66
-3.24
-7.09
-10.61
-13.51
-15.67
-17.15
-18.24
-19.42
-21.21
-24.1
-28.42
-34.11
-40.59
-46.89
-51.72
-53.93
-52.85
-48.5
-41.63
-33.32
-24.68
-16.52
-9.24
-2.94
2.47
7.08
11
14.29
17.01
19.21
20.94
22.19
22.99
23.38
23.43
23.24
22.91
22.5
22.11
21.76
21.47
21.17
20.74
20.01
18.89
17.38
15.56
13.57
11.48
9.26
6.78
3.87
0.45
-3.35
-7.24
-10.88
-13.98
-16.48
-18.56
-20.58
