5.39
-2.94
-10.46
-17.46
-24.18
-30.76
-37.18
-43.25
-48.65
-53.03
-56.16
-58.08
-59.15
-59.98
-61.17
-63.04
-65.52
-68.24
-70.76
-72.85
-74.49
-75.84
-76.93
-77.57
-77.47
-76.46
-74.75
-72.99
-72.06
-72.77
-75.54
-80.22
-86.13
-92.12
-96.75
-98.55
-96.24
-89.14
-77.4
-62.02
-44.64
-27.02
-10.61
3.8
16.05
26.34
34.95
42.07
47.71
51.91
54.69
56.17
56.57
56.17
55.4
54.75
54.65
55.35
56.75
58.49
60.12
61.29
61.92
62.12
62.02
61.64
60.81
59.36
57.27
54.79
52.33
50.3
48.83
47.67
46.17
43.54
39.13
32.8
25.07
16.99
9.74
4.12
0.16
-2.88
-6.19
-10.8
-17.23
-25.29
-34.22
-42.98
-50.4
-55.37
-56.91
-54.44
-47.93
-38.08
-26.19
-13.85
-2.48
7.06
14.6
20.49
25.34
29.69
33.76
37.47
40.55
42.75
44.06
44.69
44.98
45.26
45.62
45.95
46.09
45.89
45.38
44.68
43.92
43.1
42.12
40.74
38.75
36.04
32.66
28.81
24.8
20.94
17.44
14.29
11.27
8.08
4.43
0.24
-4.36
-9.1
-13.71
-18
-22
-25.83
-29.68
-33.72
-38.16
-43.25
-49.28
-56.35
-64.22
-72.1
-78.72
-82.6
-82.54
-77.99
-69.31
-57.63
-44.49
-31.41
-19.6
-9.76
-2.17
3.25
6.75
8.71
9.52
9.54
9.02
8.11
6.84
5.19
3.15
0.75
-1.91
-4.65
-7.28
-9.67
-11.73
-13.54
-15.26
-17.09
-19.17
-21.5
-23.96
-26.35
-28.45
-30.15
-31.45
-32.48
-33.43
-34.42
-35.46
-36.43
-37.14
-37.44
-37.34
-37.05
-36.95
-37.49
-39.06
-41.84
-45.65
-49.94
-53.69
-55.66
-54.61
-49.79
-41.22
-29.86
-17.34
-5.4
4.62
12.16
17.44
21.1
23.77
25.84
27.29
27.89
27.44
25.88
23.36
20.11
16.35
12.24
7.89
3.5
-0.65
-4.16
-6.6
-7.68
-7.3
-5.63
-2.93
0.47
4.3
8.29
12.11
15.36
17.64
18.77
18.85
18.33
17.75
17.49
17.53
17.41
16.56
14.68
12.07
9.68
8.82
10.56
15.31
22.59
31.24
39.97
47.81
54.36
59.85
64.91
70.35
76.92
85.02
94.55
104.74
114.3
121.96
126.98
129.67
131.2
133
135.87
139.49
142.48
143.2
140.71
135.37
128.68
122.58
118.45
116.45
115.46
113.53
108.7
99.66
86.05
68.4
47.72
25.1
1.46
-22.56
-46.48
-69.82
-92.12
-113.02
-132.48
-150.77
-168.3
-185.2
-200.84
-213.75
-221.8
-222.84
-215.44
-199.44
-175.96
-147.11
-115.32
-82.83
-51.36
-22.2
3.8
26.07
44.37
58.85
69.99
78.46
84.83
89.39
92.04
92.52
90.65
86.59
80.85
74.17
67.15
59.99
52.52
44.25
34.72
23.73
11.45
-1.71
-15.3
-29.04
-42.93
-57.11
-71.78
-87
-102.63
-118.37
-133.85
-148.76
-163.06
-176.99
-191.09
-205.86
-221.35
-236.74
-250.22
-259.4
-262
-256.76
-243.92
-225.17
-202.98
-179.77
-157.18
-135.94
-116.02
-97.15
-79.14
-61.99
-45.82
-30.71
-16.67
-3.61
8.4
19.11
28.05
34.68
38.65
39.98
39.12
36.86
34.05
31.31
28.95
26.96
25.14
23.34
21.54
19.94
18.91
18.84
19.99
22.29
25.24
28.02
29.64
29.42
27.23
23.56
19.32
15.38
12.18
9.45
6.39
2.08
-4.05
-11.75
-19.9
-26.78
-30.69
-30.55
-26.19
-18.46
-8.76
1.5
11.31
20.23
28.25
35.51
42.02
47.54
51.64
53.91
54.23
52.84
50.41
47.78
45.76
44.87
45.25
46.59
48.32
49.77
50.34
49.75
48.04
45.61
43.04
40.82
39.16
37.9
36.65
35.01
32.89
30.47
28.08
25.92
23.95
21.9
19.48
16.52
12.99
8.86
3.96
-1.91
-8.64
-15.56
-21.36
-24.52
-23.83
-19
-10.76
-0.5
10.27
20.54
29.88
38.29
45.74
52.01
56.74
59.55
60.46
59.8
58.2
56.26
54.42
52.85
51.5
50.24
48.98
47.71
46.5
45.36
44.24
42.92
41.09
38.44
34.76
30.13
24.91
19.59
14.58
9.99
5.6
0.99
-4.14
-9.74
-15.41
-20.54
-24.71
-27.93
-30.65
-33.54
-37.15
-41.71
-47.01
-52.53
-57.53
-61.13
-62.41
-60.53
-54.99
-45.8
-33.69
-19.86
-5.71
7.53
19.11
28.79
36.7
43.18
48.57
53.16
57.09
60.36
62.84
64.38
64.87
64.38
63.12
61.39
59.44
57.36
55.17
52.88
50.62
48.57
46.88
45.52
44.17
42.35
39.63
35.86
31.3
26.44
21.85
17.88
14.55
11.55
8.49
5.08
1.31
-2.61
-6.41
-9.97
-13.44
-17.14
-21.41
-26.46
-32.32
-38.96
-46.4
-54.69
-63.69
-72.82
-80.95
-86.53
-88.11
-84.87
-77.08
-66
-53.53
-41.58
-31.48
-23.71
-18.01
-13.73
-10.26
-7.34
-5
-3.48
-2.89
-3.12
-3.81
-4.48
-4.74
-4.33
-3.15
-1.18
1.65
5.29
9.64
14.45
19.35
24.04
28.36
32.34
36.13
39.75
43.01
45.58
47.08
47.34
46.45
44.7
42.32
39.4
35.84
31.51
26.46
20.95
15.38
10.06
5.08
0.29
-4.57
-9.74
-15.34
-21.42
-27.96
-34.84
-41.72
-47.94
-52.54
-54.44
-52.83
-47.5
-39.03
-28.62
-17.66
-7.34
1.69
9.31
15.73
21.15
25.59
28.91
30.97
31.85
31.86
31.48
31.16
31.15
31.5
32.01
32.39
32.31
31.54
30.04
28.05
26.02
24.49
23.78
23.82
24.19
24.29
23.59
21.91
19.34
16.18
12.68
9.03
5.43
2.17
-0.45
-2.25
-3.31
-3.99
-4.84
-6.23
-8.24
-10.65
-13.1
-15.35
-17.35
-19.27
-21.44
-24.16
-27.56
-31.41
-35.04
-37.33
-36.98
-32.93
-24.77
-13
1.16
16.11
30.44
43.25
54.14
63.11
70.29
75.88
80.09
83.28
85.89
88.37
91.07
94.06
97.16
100.03
102.28
103.58
103.82
103.04
101.45
99.27
96.63
93.53
89.81
85.28
79.88
73.64
66.79
59.6
52.25
44.74
36.86
28.26
18.66
7.96
-3.58
-15.39
-26.73
-36.96
-45.78
-53.35
-60.16
-66.82
-73.79
-81.25
-89.01
-96.56
-103.05
-107.44
-108.67
-105.98
-99.31
-89.48
-78.1
-67.19
-58.6
-53.5
-52.18
-54.2
-58.58
-64.3
-70.43
-76.3
-81.48
-85.75
-89.06
-91.55
-93.39
-94.79
-95.78
-96.24
-95.93
-94.62
-92.15
-88.61
-84.27
-79.51
-74.74
-70.27
-66.24
-62.64
-59.27
-55.88
-52.2
-48.11
-43.72
-39.32
-35.34
-32.12
-29.8
-28.35
-27.56
-27.12
-26.75
-26.29
-25.78
-25.52
-26.1
-28.2
-32.39
-38.85
-47.04
-55.74
-63.24
-67.75
-67.99
-63.52
-54.87
-43.34
-30.49
-17.71
-5.88
4.65
13.88
21.93
28.83
34.56
39.08
42.44
44.82
46.46
47.58
48.37
48.93
49.35
49.76
50.23
50.82
51.43
51.8
51.59
50.45
48.3
45.38
42.3
39.87
38.82
39.58
42.18
46.32
51.48
57.09
62.57
67.43
71.3
73.93
75.31
75.65
75.17
73.97
71.78
67.99
61.9
53.16
42.14
30.05
18.65
9.74
4.55
3.44
5.93
11.06
17.72
24.92
31.81
37.61
41.72
43.91
44.39
43.84
43
42.32
41.72
40.7
38.76
35.82
32.36
29.18
27.04
26.22
26.46
27.19
27.81
27.85
27.03
25.08
21.73
16.73
10.05
1.93
-7.03
-16.01
-24.18
-30.88
-35.78
-38.97
-40.92
-42.41
-44.32
-47.37
-51.95
-58.02
-65.18
-72.75
-79.99
-86.09
-90.26
-91.78
-90.19
-85.47
-78.2
-69.53
-60.92
-53.8
-49.18
-47.53
-48.74
-52.3
-57.52
-63.69
-70.19
-76.5
-82.15
-86.67
-89.58
-90.5
-89.27
-86.02
-81.18
-75.27
-68.78
-61.92
-54.74
-47.17
-39.29
-31.41
-24.06
-17.79
-12.94
-9.44
-6.83
-4.44
-1.75
1.29
4.16
5.93
5.69
2.95
-2.04
-8.33
-14.55
-19.37
-21.85
-21.66
-18.95
-14.25
-8.17
-1.3
5.93
13.22
20.31
26.89
32.52
36.66
38.86
38.98
37.27
34.3
30.82
27.5
24.82
23.07
22.51
23.37
25.81
29.75
34.74
39.9
44.21
46.81
47.25
45.59
42.17
37.36
31.35
24.26
16.27
7.93
0.11
-6.36
-11.09
-14.4
-17.29
-20.79
-25.31
-30.26
-34.31
-36.05
-34.77
-30.67
-24.57
-17.33
-9.46
-1.15
7.41
15.71
22.89
28.1
30.99
31.86
31.43
30.47
29.4
28.27
27.03
25.73
24.64
24.03
24.04
24.51
25.15
25.64
25.76
25.38
24.41
22.66
20.03
16.6
12.86
9.63
7.84
8.06
10.25
13.66
17.1
19.42
19.85
18.15
14.61
9.87
4.89
0.82
-1.12
0.03
4.74
12.78
23.29
35.05
46.81
57.52
66.46
73.24
77.78
80.35
81.4
81.48
80.99
79.98
78.23
75.48
71.62
66.93
61.88
56.93
52.22
47.58
42.61
37
30.74
24.16
17.75
11.91
6.73
2.03
-2.48
-6.91
-11.07
-14.43
-16.42
-16.7
-15.37
-12.98
-10.37
-8.42
-7.85
-9.06
-12.07
-16.41
-21.09
-24.72
-25.8
-23.09
-16
-4.86
9.16
24.34
38.85
51.2
60.46
66.31
68.91
68.62
65.91
61.21
55.01
47.85
40.21
32.48
24.71
16.72
8.23
-0.79
-10.01
-18.8
-26.59
-33.24
-39.18
-45.16
-51.78
-59.07
-66.35
-72.49
-76.38
-77.35
-75.33
-70.74
-64.28
-56.75
-48.98
-41.76
-35.76
-31.46
-29.07
-28.54
-29.62
-31.94
-35.01
-38.26
-41.06
-42.85
-43.33
-42.47
-40.49
-37.67
-34.25
-30.42
-26.44
-22.76
-20.08
-19.13
-20.26
-23.28
-27.33
-31.14
-33.48
-33.6
-31.42
-27.53
-22.86
-18.28
-14.34
-11.17
-8.59
-6.39
-4.48
-2.89
-1.82
-1.43
-1.86
-3.13
-5.1
-7.52
-9.97
-11.99
-13.27
-13.77
-13.73
-13.61
-13.85
-14.7
-16.03
-17.41
-18.19
-17.71
-15.46
-11.24
-5.28
1.83
9.25
16.2
22.12
26.83
30.53
33.54
36.19
38.67
40.99
43.04
44.66
45.75
46.29
46.39
46.28
46.21
46.37
46.76
47.17
47.21
46.49
44.66
41.62
37.47
32.49
27.07
21.6
16.38
11.63
7.43
3.83
0.8
-1.71
-3.8
-5.59
-7.27
-9
-10.93
-13.13
-15.59
-18.26
-21.12
-24.12
-27.16
-29.94
-31.89
-32.28
-30.46
-26.18
-19.8
-12.24
-4.64
1.97
7.04
10.53
12.81
14.35
15.58
16.7
17.76
18.67
19.24
19.24
18.5
16.9
14.56
11.78
8.97
6.48
4.53
3.14
2.18
1.46
0.75
-0.19
-1.54
-3.36
-5.62
-8.12
-10.65
-13.01
-15.1
-17.03
-19.02
-21.34
-24.18
-27.53
-31.19
-34.92
-38.52
-42.04
-45.76
-50.19
-55.86
-63.04
-71.51
-80.42
-88.43
-94.07
-96.16
-94.27
-88.9
-81.25
-72.86
-65.06
-58.62
-53.68
-49.86
-46.56
-43.09
-38.81
-33.28
-26.22
-17.71
-8.14
1.95
12.07
21.94
31.47
40.59
49.06
56.49
62.59
67.4
71.45
75.53
80.35
86.14
92.59
98.99
104.63
109
111.81
112.86
111.91
108.65
102.95
95.05
85.62
75.62
65.86
56.73
48.05
39.28
29.86
19.59
8.83
-1.54
-10.41
-16.68
-19.58
-18.82
-14.62
-7.63
1.24
10.95
20.55
29.32
36.81
42.76
46.95
49.06
48.66
45.48
39.64
31.84
23.34
15.58
9.72
6.34
5.31
6.07
7.91
10.19
12.45
14.22
14.96
14.13
11.38
6.8
0.87
-5.6
-11.91
-17.69
-23.09
-28.54
-34.52
-41.21
-48.47
-55.98
-63.43
-70.77
-78.01
-85.16
-91.86
-97.42
-100.9
-101.54
-98.99
-93.45
-85.66
-76.57
-67.09
-57.94
-49.54
-42.08
-35.59
-30.06
-25.51
-22.03
-19.76
-18.73
-18.75
-19.37
-20.03
-20.26
-19.9
-19.2
-18.59
-18.51
-19.09
-20.16
-21.39
-22.54
-23.56
-24.67
-26.05
-27.8
-29.76
-31.74
-33.57
-35.28
-36.97
-38.77
-40.75
-42.86
-45.09
-47.48
-50.21
-53.52
-57.64
-62.62
-68.25
-73.94
-78.83
-81.85
-82.09
-79.08
-72.98
-64.59
-55.07
-45.53
-36.71
-28.81
-21.64
-14.78
-7.92
-0.97
5.92
12.41
18.17
22.96
26.74
29.69
32.13
34.51
37.21
40.47
44.31
48.45
52.5
56.01
58.64
60.23
60.77
60.41
59.46
58.23
57.03
56.01
55.08
54.02
52.49
50.32
47.44
43.96
39.92
35.27
29.79
23.3
15.78
7.47
-1.13
-9.37
-16.63
-22.39
-26.3
-28.2
-28.06
-26.05
-22.52
-17.98
-13.06
-8.34
-4.31
-1.22
0.93
2.39
3.48
4.46
5.41
6.21
6.61
6.51
6.04
5.61
5.83
7.3
10.42
15.21
21.18
27.46
32.98
36.75
38.14
37.1
34.03
29.68
24.78
19.74
14.51
8.55
1.04
-8.77
-21.26
-36.06
-52.07
-67.63
-81.04
-91.15
-97.83
-101.98
-104.97
-107.91
-111.05
-113.58
-114.07
-111.29
-104.59
-94.05
-80.32
-64.65
-49.04
-36.35
-29.61
-30.78
-39.24
-51.2
-60.71
-62.09
-52.46
-33.09
-8.47
16.17
37.46
55.18
71.53
88.98
108.26
127.67
144
154.39
157.91
156.01
151.66
147.86
146.07
145.86
145.52
143.3
138.68
132.86
128.15
126.73
129.49
135.52
142.74
149.06
153.47
156.5
159.62
164.24
170.75
178.2
184.73
188.6
189.23
187.53
185.44
184.83
186.35
188.85
189.8
186.49
177.41
162.98
145.44
127.66
111.79
98.32
86.09
72.88
56.37
35.02
8.72
-20.95
-50.83
-77.1
-96.31
-106.68
-109.06
-106.78
-104.07
-104.27
-108.55
-115.76
-123.68
-130.25
-134.42
-136.35
-136.79
-136.19
-134.46
-131.33
-126.94
-122.33
-118.93
-117.66
-118.97
-122.62
-127.61
-132.52
-136.01
-137.25
-136.83
-135.87
-134.52
-133.29
-132.99
-133.71
-135
-136.22
-136.83
-138.02
-140.59
-142.21
-140.91
-136.14
-127.86
-117.03
-105.64
-96
-92.07
-95.69
-102.66
-109.17
-114.18
-117.9
-121.99
-128.92
-140.9
-161.81
-192.79
-227.34
-259.46
-286.21
-305.66
-317.41
-322.76
-305.81
-259.61
-213.32
-179.15
-150.59
-124.41
-97.72
-68.28
-34.53
4.32
45.26
85.07
125.34
165.46
201.79
231.74
254.34
270.16
280.83
286.04
285.89
284.63
284.94
286.72
289.52
292.43
294.25
293.83
288.99
278.58
264.7
248.74
230.48
209.92
187.46
164.04
140.51
116.31
90.31
62.83
35.29
10.59
-6.87
-13.31
-7.98
5.84
21.68
32.95
36.14
31.25
20.75
7.75
-5.78
-19.31
-32.84
-45.86
-57
-64.72
-68.28
-68.19
-65.99
-63.34
-61.24
-59.83
-58.59
-56.85
-54.15
-50.35
-45.55
-40.07
-34.41
-29.34
-25.65
-23.98
-24.4
-26.37
-28.85
-30.68
-30.95
-29.16
-25.1
-18.65
-9.71
1.78
15.61
31.2
47.72
64.34
80.45
95.72
109.73
121.86
131.22
137.05
139.19
138.36
135.89
133.11
130.75
128.61
125.89
121.8
116.04
108.96
101.2
93.19
84.92
75.99
66.05
55.13
43.85
33.15
23.91
16.56
10.8
5.7
0.03
-7.29
-16.73
-27.94
-39.81
-50.77
-59.3
-64.46
-66.41
-66.38
-66.34
-68.24
-73.27
-81.37
-91.27
-101.01
-108.68
-113.07
-113.95
-112.05
-108.62
-105.07
-102.59
-101.93
-103.33
-106.53
-110.9
-115.77
-120.53
-124.91
-128.98
-133.13
-137.94
-144.01
-151.81
-161.51
-172.98
-185.97
-200.24
-215.67
-232.11
-248.98
-264.89
-277.62
-284.58
-283.6
-273.73
-255.61
-231.2
-203.17
-173.98
-145.3
-117.71
-90.76
-63.33
-33.91
-1.13
35.77
76.61
120.13
164.18
206.07
242.95
272.17
291.66
300.54
299.55
291.13
278.57
264.75
250.74
235.52
216.96
193.83
167.36
141.4
120.51
107.21
100.09
94.13
83.39
64.35
38.03
9.59
-14.39
-29.15
-33.97
-32
-28.42
-27.85
-32.63
-42.46
-55.36
-68.97
-81.53
-92.15
-100.38
-105.86
-107.97
-105.99
-99.55
-88.96
-75.42
-60.57
-46.01
-32.79
-21.27
-11.32
-2.8
4.16
9.11
11.61
11.67
9.91
7.54
5.98
6.35
9.17
14.2
20.64
27.42
33.59
38.64
42.66
46.28
50.36
55.61
62.19
69.78
77.78
85.84
94.24
103.82
115.53
129.73
145.58
161.1
173.62
180.67
180.73
173.66
160.69
144.07
126.47
110.35
97.27
87.47
79.56
70.71
57.53
37.35
9.71
-22.73
-54.57
-79.09
-90.75
-87.39
-71.48
-49.42
-29.18
-16.97
-14.48
-18.06
-20.36
-13.71
6.23
38.44
76.97
113.51
140.65
154.26
154.01
142.12
121.58
94.88
64.05
31.4
0.21
-25.52
-42.34
-48.79
-46.29
-38.77
-31.27
-28.09
-31.41
-40.95
-54.56
-69.41
-83.18
-94.61
-103.54
-110.45
-115.89
-120.15
-123.06
-124.18
-122.98
-119.23
-113.19
-105.64
-97.62
-90.03
-83.22
-76.85
-70.14
-62.38
-53.48
-44.22
-35.97
-30.08
-27.13
-26.54
-26.69
-25.57
-21.64
-14.47
-4.85
5.51
14.71
21.32
24.61
24.47
20.96
14.07
3.65
-10.29
-27.16
-45.72
-64.13
-80.52
-93.44
-102.32
-107.43
-109.54
-109.47
-107.67
-104.18
-98.85
-91.82
-83.77
-75.93
-69.79
-66.53
-66.66
-69.83
-74.95
-80.44
-84.53
-85.47
-81.9
-73.17
-59.71
-43.08
-25.56
-9.45
3.49
12.3
16.6
16.24
11.2
1.91
-10.28
-22.98
-33.22
-38.52
-37.68
-31.07
-20.1
-6.36
8.93
24.98
41.06
56.17
69.17
79.37
86.98
93.16
99.45
106.78
114.82
121.97
126.18
126.11
122.03
116.07
111.6
111.95
119.08
132.67
150.29
168.32
183.48
193.89
199.52
201.63
201.81
201.05
199.33
195.85
189.6
179.75
165.85
147.61
124.99
98.57
70.01
42.14
18.32
1.25
-8.32
-11.97
-13.1
-15.49
-21.74
-32.4
-46.06
-60.2
-72.36
-80.84
-84.95
-84.73
-80.59
-73.09
-62.78
-50.23
-35.89
-20.17
-3.65
12.95
28.7
42.57
53.53
60.73
63.67
62.25
56.81
48.12
37.32
25.89
15.48
7.7
3.57
2.98
4.43
5.32
2.82
-5.17
-19.29
-38.67
-61.54
-85.86
-109.8
-131.77
-150.29
-163.95
-171.69
-173.24
-169.15
-160.52
-148.37
-133.17
-114.99
-93.84
-70.28
-45.5
-21.17
1.11
20.18
35.56
47.37
56.08
62.39
66.97
70.35
72.7
73.87
73.3
70.2
63.74
53.27
38.53
19.72
-2.57
-27.57
-54.49
-82.53
-110.65
-137.29
-160.25
-176.93
-184.93
-182.74
-170.05
-147.85
-118.17
-83.72
-47.56
-12.84
17.66
41.95
59.29
70.17
76.01
78.48
79.03
78.63
77.89
77.23
76.94
77.06
77.22
76.71
74.79
71.07
65.77
59.65
53.58
48.08
43.09
37.93
31.75
24
14.81
5.01
-4.12
-11.26
-15.42
-16.04
-13.06
-6.8
2.07
12.57
23.45
33.28
40.63
44.3
43.66
39
31.61
23.63
17.63
15.84
19.38
27.96
40.06
53.47
66.1
76.54
84.15
88.8
90.33
88.05
80.49
65.64
41.53
7.15
-36.8
-87.53
-140.51
-190.28
-231.77
-261.32
-277.42
-280.8
-273.96
-260.26
-242.93
-224.11
-204.46
-183.4
-160.09
-134.51
-108.17
-83.79
-64.07
-50.2
-41.09
-33.75
-24.69
-11.39
6.69
28.27
51.21
73.53
94.02
112.31
128.34
141.98
152.81
160.27
163.9
163.65
159.98
153.73
145.85
136.9
126.77
114.75
100.08
82.81
64.41
47.64
35.67
30.7
32.92
40.21
49.08
56.02
58.88
57.38
52.74
46.74
40.68
34.86
28.69
21.23
11.93
1.07
-10.25
-20.54
-28.47
-33.46
-35.67
-35.81
-34.62
-32.42
-28.93
-23.45
-15.29
-4.28
8.91
22.86
35.8
46.02
52.3
54.12
51.64
45.67
37.57
29.13
22.26
18.58
18.85
22.7
28.68
34.82
39.51
42.16
43.34
44.34
46.41
50.23
55.7
62.09
68.38
73.49
76.41
76.33
72.86
66.26
57.5
47.99
39.07
31.57
25.57
20.67
16.42
12.64
9.39
6.72
4.31
1.41
-2.9
-9.26
-17.61
-27.08
-36.14
-43.05
-46.3
-45.02
-39.05
-29.03
-16.24
-2.47
10.35
20.44
26.47
27.81
24.6
17.74
8.67
-0.97
-9.61
-16.04
-19.62
-20.31
-18.7
-15.88
-13.22
-11.95
-12.66
-15.05
-17.93
-19.72
-19.09
-15.62
-10.06
-4.09
0.31
1.57
-1.09
-7.53
-16.89
-27.92
-39.21
-49.4
-57.34
-62.26
-63.93
-62.62
-59.02
-54
-48.53
-43.56
-39.95
-38.35
-39.01
-41.61
-45.37
-49.35
-52.88
-55.86
-58.69
-62
-66.24
-71.58
-78.01
-85.65
-94.8
-105.67
-117.96
-130.59
-141.98
-150.71
-156.28
-159.35
-161.33
-163.53
-166.32
-168.84
-169.29
-165.74
-156.86
-142.25
-122.38
-98.29
-71.17
-42.15
-12.2
17.88
47.37
75.48
101.31
123.86
142.24
155.96
165.28
171.15
174.97
178.03
180.94
183.42
184.42
182.55
176.66
166.13
151.07
132.16
110.44
87.04
63.01
39.12
15.82
-6.65
-28.11
-48.25
-66.35
-81.31
-91.94
-97.33
-97.25
-92.32
-83.75
-72.91
-60.92
-48.43
-35.78
-23.22
-11.06
0.26
10.47
19.54
27.77
35.57
43.3
51.05
58.7
65.93
72.31
77.33
80.45
81.23
79.53
75.59
70.05
63.71
57.2
50.78
44.23
37.01
28.41
17.82
4.94
-10.02
-26.17
-41.97
-55.61
-65.53
-70.99
-72.37
-70.94
-68.27
-65.63
-63.68
-62.59
-62.44
-63.44
-65.81
-69.48
-73.68
-77.08
-78.25
-76.36
-71.58
-64.99
-57.97
-51.48
-45.74
-40.49
-35.51
-30.76
-26.12
-20.91
-13.87
-3.89
8.94
22.7
34.06
39.75
38.28
30.77
20.31
10.31
2.71
-2.51
-6.64
-10.75
-14.52
-16.32
-14.19
-7.2
3.93
17.16
30.14
41.1
49.43
55.5
60.09
63.82
66.78
68.64
69
67.62
64.69
60.75
56.5
52.54
49.25
46.72
44.77
43.09
41.26
38.9
35.75
31.83
27.37
22.86
18.8
15.45
12.72
10.11
6.92
2.51
-3.45
-10.9
-19.27
-27.58
-34.53
-38.74
-39.12
-35.17
-27.14
-16
-3.14
10.07
22.55
33.57
42.7
49.65
54.22
56.36
56.32
54.6
51.86
48.68
45.38
42.03
38.48
34.57
30.23
25.59
20.92
16.51
12.5
8.73
4.73
-0.01
-5.94
-13.05
-20.93
-28.88
-36.16
-42.27
-47.02
-50.57
-53.27
-55.61
-58.19
-61.46
-65.54
-69.86
-73.13
-73.59
-69.7
-60.75
-47.31
-30.97
-13.75
2.72
17.65
31.16
43.78
55.82
67.1
76.92
84.57
89.88
93.5
96.72
100.93
106.91
114.41
122.25
128.86
132.94
133.91
131.84
127.28
120.95
113.61
106.15
99.42
93.88
89.17
83.99
76.5
65.23
49.89
31.67
12.78
-4.53
-18.89
-30.17
-39.22
-47.19
-54.97
-62.88
-70.83
-78.46
-85.3
-90.73
-93.93
-94.05
-90.43
-83.01
-72.38
-59.75
-46.53
-33.97
-22.81
-13.29
-5.34
1.22
6.47
10.48
13.33
15.2
16.33
16.94
17.13
16.89
16.17
14.94
13.19
10.94
8.26
5.22
1.94
-1.4
-4.72
-8.07
-11.65
-15.72
-20.51
-26.13
-32.54
-39.65
-47.36
-55.58
-64.25
-73.28
-82.56
-91.97
-101.34
-110.52
-119.46
-128.34
-137.59
-147.69
-158.79
-170.33
-181.08
-189.56
-194.78
-196.78
-196.55
-195.37
-193.87
-191.56
-187.12
-179.27
-167.7
-153.28
-137.52
-121.49
-105.09
-87.08
-65.96
-40.89
-12.22
18.68
50.06
80.34
108.23
132.58
152.21
166
173.26
174.07
169.38
160.79
150.1
138.95
128.58
119.71
112.53
106.58
100.96
94.52
86.41
76.38
64.8
52.25
39.09
25.31
10.64
-4.92
-20.78
-35.68
-48.06
-56.64
-60.74
-60.52
-56.63
-49.92
-41.16
-30.93
-19.77
-8.45
2.03
10.56
16.25
18.85
18.81
17.09
14.69
12.19
9.52
6.08
1.17
-5.72
-14.54
-24.66
-35.06
-44.56
-52.19
-57.48
-60.73
-62.98
-65.71
-70.25
-77.18
-86.09
-95.84
-105.14
-113.24
-120.18
-126.52
-132.72
-138.57
-143.02
-144.64
-142.28
-135.77
-126.14
-115.29
-105.27
-97.55
-92.59
-89.81
-87.96
-85.64
-81.67
-75.27
-66.04
-54
-39.44
-22.91
-5.12
13.3
31.84
50.23
68.26
85.61
101.71
115.75
126.92
134.75
139.3
141.18
141.25
140.32
138.9
137.15
135.01
132.32
128.84
124.27
118.2
110.27
100.37
88.79
76.17
63.26
50.55
38.09
25.6
12.74
-0.49
-13.71
-26.3
-37.79
-48.06
-57.41
-66.43
-75.66
-85.36
-95.35
-104.89
-112.83
-117.85
-118.84
-115.28
-107.43
-96.24
-82.98
-68.83
-54.65
-40.9
-27.84
-15.62
-4.36
5.96
15.59
24.89
34.22
43.67
53.03
61.92
69.95
76.82
82.39
86.55
89.14
89.97
88.98
86.28
82.22
77.13
71.19
64.38
56.55
47.63
37.85
27.74
18.05
9.37
1.87
-4.76
-11.32
-18.59
-26.9
-35.77
-43.8
-49.11
-50
-45.65
-36.46
-23.89
-9.95
3.51
15.19
24.51
31.39
36.1
39
40.53
41.13
41.25
41.28
41.48
41.96
42.63
43.26
43.59
43.44
42.9
42.3
42.09
42.53
43.52
44.54
44.84
43.86
41.39
37.74
33.43
29.02
24.87
21.08
17.52
13.85
9.65
4.5
-1.72
-8.63
-15.13
-19.65
-20.63
-17.11
-9.21
1.88
14.34
26.31
36.42
44.02
49.11
52.01
53.13
52.92
51.92
50.74
50.13
50.68
52.77
56.4
61.25
66.8
72.42
77.48
81.4
83.63
83.83
81.93
78.15
72.94
66.81
60.1
52.86
44.96
36.24
26.72
16.74
6.83
-2.51
-11.07
-18.99
-26.66
-34.36
-41.96
-48.73
-53.57
-55.4
-53.62
-48.39
-40.6
-31.55
-22.45
-14.14
-6.93
-0.82
4.22
8.06
10.44
11.23
10.67
9.56
8.98
9.98
13.19
18.61
25.78
34.13
43.23
52.78
62.43
71.69
79.94
86.77
92.31
97.21
102.45
108.7
115.92
123.33
129.86
134.72
137.77
139.33
139.54
137.9
133.31
124.7
111.86
95.87
78.65
61.97
46.31
30.62
13.01
-7.7
-30.79
-53.37
-71.49
-81.91
-83.61
-78.2
-69.12
-59.96
-53.06
-48.85
-46.34
-44.21
-41.84
-39.67
-38.75
-39.94
-43.33
-48.19
-53.51
-58.66
-63.68
-69.08
-75.34
-82.37
-89.4
-95.27
-98.91
-99.81
-98.12
-94.53
-90.08
-85.94
-83.3
-83.13
-85.97
-91.75
-99.74
-108.81
-117.72
-125.56
-131.89
-136.77
-140.46
-143.2
-145.04
-145.95
-145.93
-145.1
-143.64
-141.72
-139.42
-136.63
-133.14
-128.69
-122.94
-115.51
-106
-94.07
-79.61
-62.92
-44.76
-26.35
-9.22
5.1
15.34
20.83
21.64
18.58
13.1
6.92
1.76
-1.05
-0.72
2.86
9.21
17.43
26.45
35.26
43.21
50.01
55.7
60.45
64.32
67.22
68.95
69.32
68.26
65.94
62.68
58.86
54.79
50.46
45.33
38.43
28.62
15.3
-1.02
-18.34
-33.56
-43.44
-45.78
-40.29
-28.59
-13.48
2.24
16.67
29.07
39.48
48.05
54.59
58.62
59.74
58.12
54.6
50.47
46.94
44.74
43.93
44.05
44.48
44.68
44.39
43.63
42.56
41.31
39.87
37.99
35.24
31.17
25.57
18.61
10.92
3.4
-3.11
-8.12
-11.68
-14.32
-16.86
-20.16
-24.89
-31.33
-39.23
-47.73
-55.49
-61.06
-63.23
-61.49
-56.15
-48.14
-38.71
-28.89
-19.19
-9.4
1.19
13.48
28.05
44.8
62.81
80.49
96.15
108.41
116.51
120.27
119.82
115.34
107.06
95.38
81.16
65.7
50.49
36.8
25.26
15.89
8.19
1.53
-4.61
-10.51
-16.23
-21.72
-26.84
-31.39
-35.16
-38
-39.96
-41.3
-42.57
-44.37
-47.29
-51.63
-57.28
-63.61
-69.45
-73.43
-74.15
-70.71
-62.92
-51.44
-37.6
-22.97
-9.02
3.29
13.54
21.83
28.49
33.91
38.36
41.9
44.45
45.87
46.09
45.18
43.38
41.07
38.62
36.28
34.12
32.09
30.03
27.88
25.63
23.37
21.21
19.13
17.02
14.64
11.75
8.14
3.8
-1.13
-6.36
-11.54
-16.41
-20.84
-24.94
-28.99
-33.39
-38.48
-44.42
-51.07
-57.94
-64.14
-68.54
-70.05
-67.87
-61.82
-52.46
-40.95
-28.73
-17.07
-6.76
1.98
9.3
15.52
20.83
25.22
28.56
30.73
31.76
31.83
31.26
30.34
29.25
28.04
26.63
24.91
22.84
20.49
18.06
15.76
13.69
11.78
9.71
7.08
3.54
-0.99
-6.3
-11.88
-17.18
-21.86
-25.88
-29.59
-33.51
-38.12
-43.7
-50.3
-57.73
-65.53
-72.99
-79.13
-82.8
-82.97
-79.07
-71.31
-60.7
-48.78
-37.11
-26.86
-18.64
-12.53
-8.42
-6.15
-5.67
-6.85
-9.34
-12.51
-15.52
-17.53
-17.97
-16.62
-13.65
-9.51
-4.81
-0.11
4.16
7.77
10.53
12.24
12.62
11.29
7.99
2.75
-3.93
-11.07
-17.56
-22.51
-25.69
-27.74
-29.91
-33.65
-40
-49.02
-59.66
-70.02
-77.99
-81.92
-81.16
-76.06
-67.62
-57.03
-45.32
-33.33
-21.81
-11.52
-3.16
2.88
6.69
8.75
9.73
10.13
10.15
9.81
9.07
8.07
7.05
6.31
6.02
6.26
7.13
8.82
11.62
15.65
20.63
25.68
29.42
30.54
28.34
23.13
16.18
9.31
4.31
2.56
4.83
11.39
22.03
36.1
52.4
69.3
85.11
98.53
108.99
116.51
121.28
123.12
121.45
115.7
106.07
93.86
81.27
70.61
63.34
59.59
58.23
57.55
55.97
52.56
47.1
39.79
31.05
21.25
10.87
0.46
-9.26
-17.66
-24.4
-29.6
-33.87
-37.96
-42.46
-47.49
-52.58
-56.86
-59.27
-58.9
-55.28
-48.58
-39.53
-29.35
-19.34
-10.62
-3.88
0.75
3.66
5.56
7.32
9.65
12.92
17.11
21.91
26.9
31.75
36.38
40.94
45.66
50.76
56.16
61.54
66.4
70.07
71.87
71.23
67.87
61.97
54.24
45.81
37.74
30.63
24.37
18.28
11.57
3.86
-4.57
-12.94
-20.37
-26.27
-30.42
-32.78
-33.28
-31.74
-28.11
-22.77
-16.68
-11.15
-7.33
-5.81
-6.48
-8.86
-12.41
-16.75
-21.58
-26.43
-30.67
-33.66
-35.13
-35.35
-35
-34.75
-34.85
-34.95
-34.42
-32.78
-30.16
-27.25
-25
-24.21
-25.15
-27.58
-30.83
-34.04
-36.37
-37.23
-36.53
-34.77
-32.95
-32.23
-33.47
-36.76
-41.29
-45.52
-47.7
-46.46
-41.13
-31.84
-19.32
-4.68
10.78
25.67
38.72
48.94
55.97
60.15
62.42
63.97
65.73
68.2
71.35
74.8
78.11
80.84
82.58
82.92
81.43
77.86
72.31
65.32
57.67
50.06
42.77
35.59
28.07
19.85
11.02
2.16
-5.94
-12.54
-17.35
-20.47
-22.33
-23.38
-23.99
-24.29
-24.26
-23.81
-22.75
-20.92
-18.18
-14.55
-10.37
-6.36
-3.44
-2.45
-3.64
-6.43
-9.51
-11.26
-10.4
-6.45
0.2
8.64
17.91
27.4
36.77
45.6
53.12
58.14
59.47
56.45
49.41
39.51
28.29
17.22
7.35
-0.57
-5.82
-7.49
-4.64
3.25
15.76
31.22
46.93
59.89
67.69
69.3
65.43
58.36
51.21
47
47.71
53.64
63.28
73.89
82.26
85.81
83.33
75.3
63.52
50.54
38.69
29.45
23.02
18.43
14.02
8.16
0.02
-10
-20.32
-28.77
-33.54
-33.84
-30.28
-24.41
-18.09
-12.74
-8.99
-6.84
-6.11
-6.79
-9.18
-13.64
-20.24
-28.5
-37.45
-45.94
-53.05
-58.43
-62.44
-65.95
-69.98
-75.2
-81.57
-88.37
-94.53
-99.19
-102.12
-103.87
-105.48
-107.98
-111.99
-117.5
-123.98
-130.64
-136.67
-141.38
-144.18
-144.67
-142.73
-138.74
-133.48
-127.87
-122.4
-116.76
-109.78
-100.03
-86.55
-69.54
-50.54
-31.86
-15.82
-3.82
3.97
8.58
11.66
14.99
20.06
27.76
38.24
50.82
64.04
76.06
85.31
91.13
94.1
95.81
98.17
102.63
109.62
118.48
127.84
136.11
142.02
144.72
143.86
139.58
132.56
123.89
114.92
106.72
99.6
92.89
85.08
74.33
59.23
39.41
15.69
-10.15
-35.86
-59.26
-78.62
-92.83
-101.5
-104.87
-103.83
-99.72
-94.21
-88.98
-85.42
-84.37
-86
-89.71
-94.36
-98.63
-101.46
-102.3
-101.22
-98.63
-94.97
-90.41
-84.93
-78.43
-71.12
-63.56
-56.5
-50.61
-46.21
-43.1
-40.8
-38.76
-36.66
-34.49
-32.53
-31.13
-30.54
-30.78
-31.58
-32.56
-33.32
-33.62
-33.43
-32.83
-31.97
-31.04
-30.18
-29.51
-29.03
-28.46
-27.11
-23.91
-17.69
-7.63
6.35
23.4
42.01
60.54
77.73
92.99
106.32
117.95
128.02
136.4
142.86
147.2
149.43
149.75
148.38
145.4
140.76
134.39
126.36
116.97
106.73
96.21
85.83
75.79
66.01
56.2
45.97
34.95
22.94
9.99
-3.56
-17.18
-30.32
-42.57
-53.8
-64.12
-73.84
-83.34
-92.96
-102.95
-113.39
-124.06
-134.3
-143.06
-149.09
-151.36
-149.43
-143.58
-134.69
-123.88
-112.14
-100.16
-88.38
-77.13
-66.71
-57.36
-49.14
-41.86
-35.13
-28.52
-21.68
-14.36
-6.27
2.95
13.69
26.21
40.41
55.77
71.47
86.58
100.36
112.3
122.2
130.01
135.72
139.29
140.62
139.63
136.35
130.95
123.78
115.2
105.46
94.56
82.26
68.19
52.17
34.36
15.38
-3.75
-21.74
-37.26
-49.09
-56.35
-58.72
-56.49
-50.6
-42.37
-33.2
-24.2
-16.01
-8.79
-2.45
3.14
7.9
11.58
13.82
14.35
13.16
10.48
6.74
2.42
-2.06
-6.38
-10.32
-13.75
-16.58
-18.89
-20.92
-23.08
-25.86
-29.59
-34.32
-39.76
-45.41
-50.73
-55.39
-59.27
-62.5
-65.32
-67.91
-70.33
-72.52
-74.37
-75.8
-76.84
-77.57
-78.17
-78.85
-79.88
-81.58
-84.21
-87.86
-92.22
-96.45
-99.25
-99.16
-94.99
-86.27
-73.4
-57.42
-39.66
-21.33
-3.36
13.45
28.27
40.24
48.72
53.66
55.88
56.79
57.93
60.28
63.99
68.43
72.64
75.82
77.58
77.94
77.14
75.5
73.36
71.16
69.47
68.85
69.73
72.19
75.97
80.53
85.28
89.81
94
97.97
101.84
105.44
108.15
108.91
106.67
100.82
91.62
80.2
68.1
56.65
46.43
37.04
27.48
16.77
4.59
-8.36
-20.55
-30.15
-35.61
-36.22
-32.24
-24.82
-15.6
-6.35
1.51
7.15
10.34
11.38
10.81
9.21
7.01
4.51
1.87
-0.74
-3.21
-5.35
-6.96
-7.78
-7.53
-6.04
-3.38
0.01
3.29
5.44
5.59
3.3
-1.28
-7.47
-14.24
-20.65
-26
-30.01
-32.81
-34.75
-36.19
-37.42
-38.59
-39.8
-41.16
-42.87
-45.14
-48.16
-52.01
-56.69
-62.16
-68.32
-74.87
-81.16
-86.09
-88.34
-86.79
-80.93
-71.2
-58.89
-45.74
-33.38
-22.94
-14.86
-9.05
-5.08
-2.45
-0.69
0.65
1.96
3.59
5.74
8.46
11.59
14.95
18.45
22.08
25.99
30.26
34.79
39.18
42.84
45.18
45.78
44.54
41.52
36.95
31.1
24.33
17.11
9.95
3.28
-2.79
-8.52
-14.34
-20.68
-27.69
-35.27
-43.14
-51.07
-58.85
-66.13
-72.26
-76.22
-76.88
-73.51
-66.14
-55.67
-43.55
-31.36
-20.33
-11.06
-3.53
2.74
8.46
14.28
20.59
27.32
33.93
39.63
43.68
45.71
45.76
44.21
41.49
37.89
33.63
29.01
24.58
21.04
18.95
18.25
18.2
17.55
15.07
10.1
2.8
-6.04
-15.45
-24.77
-33.81
-42.76
-51.84
-61.13
-70.49
-79.71
-88.67
-97.47
-106.34
-115.45
-124.74
-133.75
-141.6
-147.1
-149.03
-146.5
-139.3
-127.97
-113.57
-97.15
-79.26
-59.77
-38.08
-13.77
12.77
40.1
66.08
88.59
106.33
119.14
127.82
133.55
137.35
139.77
141.06
141.43
141.25
140.92
140.66
140.34
139.46
137.52
134.18
129.44
123.5
116.66
109.24
101.69
94.56
88.36
83.24
78.7
73.75
67.27
58.61
47.95
36.22
24.67
14.39
6.04
-0.2
-4.51
-7.32
-9.18
-10.66
-12.1
-13.42
-14.16
-13.67
-11.54
-7.93
-3.55
0.69
4.14
6.74
9.01
11.74
15.49
20.2
25.12
29.01
30.61
29.27
25.17
19.4
13.49
8.77
5.89
4.79
4.96
5.92
7.47
9.65
12.46
15.72
19.08
22.31
25.46
28.81
32.51
36.24
38.98
39.33
35.99
28.34
16.63
1.83
-14.85
-32.29
-49.6
-66
-80.56
-92.22
-99.92
-102.94
-101.23
-95.36
-86.41
-75.5
-63.52
-51.13
-38.78
-26.92
-16.07
-6.77
0.6
5.88
9.25
11.12
12.07
12.75
13.74
15.49
18.19
21.83
26.19
30.95
35.77
40.44
44.78
48.68
52.06
54.81
56.79
57.85
57.84
56.63
54.15
50.38
45.37
39.27
32.34
24.9
17.26
9.61
1.97
-5.8
-13.86
-22.27
-30.93
-39.47
-47.36
-53.88
-58.25
-59.78
-58
-52.89
-44.91
-35.07
-24.71
-15.19
-7.6
-2.52
0.12
0.86
0.51
-0.13
-0.51
-0.34
0.4
1.58
3.01
4.41
5.43
5.67
4.81
2.85
0.15
-2.62
-4.83
-6.21
-7.04
-8.02
-10.01
-13.52
-18.55
-24.63
-31.06
-37.3
-43.18
-48.86
-54.73
-61.1
-68.05
-75.4
-82.72
-89.5
-95.32
-99.9
-103.25
-105.7
-107.81
-110.28
-113.62
-117.94
-122.66
-126.56
-128.03
-125.49
-117.96
-105.35
-88.57
-69.19
-48.98
-29.35
-11.18
5.28
20.16
33.68
46.06
57.4
67.85
77.58
86.86
95.89
104.71
113.22
121.15
128.35
134.83
140.89
147
153.63
161.01
169.06
177.31
185.1
191.83
197.03
200.47
202.04
201.67
199.17
194.26
186.63
176
162.32
145.75
126.73
105.91
84
61.67
39.42
17.51
-3.98
-25.07
-45.82
-66.2
-86.21
-105.78
-124.79
-142.82
-159.14
-172.63
-182.06
-186.43
-185.45
-179.71
-170.64
-160.06
-149.61
-140.3
-132.36
-125.6
-119.77
-114.97
-111.72
-110.63
-112.05
-115.73
-120.83
-126.2
-130.69
-133.55
-134.45
-133.43
-130.71
-126.52
-121.05
-114.39
-106.66
-97.99
-88.54
-78.45
-67.66
-55.92
-42.76
-27.77
-10.88
7.39
25.97
43.61
59.24
72.38
83.16
92.06
99.6
106.12
111.81
117
122.23
128.25
135.73
144.85
155.14
165.61
175.07
182.53
187.5
189.96
190.06
187.77
182.67
173.89
160.46
141.72
117.73
89.45
58.52
26.87
-3.75
-32.1
-57.54
-80
-99.78
-117.42
-133.5
-148.39
-162.08
-174.1
-183.76
-190.36
-193.65
-193.87
-191.7
-187.89
-183
-177.26
-170.69
-163.35
-155.47
-147.39
-139.32
-131.1
-122.01
-111.03
-97.27
-80.41
-61.08
-40.66
-20.78
-2.75
12.93
26.62
39.09
51.06
62.72
73.69
83.28
90.78
95.88
98.66
99.62
99.41
98.64
97.82
97.24
97
97.09
97.42
97.8
98.05
97.9
97.06
95.23
92.18
87.89
82.61
76.77
70.89
65.41
60.6
56.52
53.02
49.78
46.28
41.97
36.42
29.66
22.37
15.93
11.96
11.81
15.83
23.3
32.61
41.97
49.99
56.05
60.14
62.53
63.48
63.09
61.41
58.61
54.98
50.86
46.47
41.95
37.44
33.25
29.85
27.75
27.21
28.02
29.62
31.25
32.28
32.34
31.37
29.48
26.81
23.55
19.92
16.17
12.5
8.79
4.59
-0.85
-8.24
-17.75
-28.88
-40.49
-51.33
-60.53
-68.06
-74.57
-80.89
-87.44
-93.77
-98.66
-100.63
-98.72
-92.89
-84.1
-73.85
-63.65
-54.54
-46.95
-40.92
-36.27
-32.85
-30.54
-29.09
-28.09
-26.96
-25.14
-22.3
-18.4
-13.66
-8.41
-2.99
2.41
7.63
12.48
16.69
19.94
21.94
22.5
21.64
19.57
16.61
13.07
9.22
5.16
0.95
-3.4
-7.84
-12.29
-16.72
-21.12
-25.62
-30.36
-35.53
-41.24
-47.62
-54.8
-62.85
-71.67
-80.86
-89.6
-96.76
-101.2
-102.14
-99.46
-93.62
-85.53
-76.11
-66.11
-56.04
-46.27
-37.15
-29.04
-22.29
-17.13
-13.62
-11.68
-11.09
-11.48
-12.21
-12.4
-11.1
-7.71
-2.27
4.37
10.9
16.04
19.14
20.37
20.51
20.53
21.14
22.49
24.23
25.8
26.66
26.45
25.12
22.87
20.22
17.93
16.86
17.72
20.82
25.84
31.84
37.44
41.26
42.38
40.73
37.14
32.99
29.73
28.25
28.76
30.9
34.11
37.91
41.96
46.01
49.74
52.82
55.01
56.29
56.84
56.97
56.95
56.9
56.85
56.73
56.47
55.94
55.07
53.93
52.8
52.08
52.08
52.69
53.36
53.25
51.62
48.15
42.95
36.32
28.49
19.48
9.23
-2.1
-13.99
-25.6
-36.05
-44.67
-51.17
-55.58
-58.16
-59.25
-59.29
-58.89
-58.82
-59.92
-62.84
-67.69
-73.8
-79.76
-83.72
-84.08
-79.98
-71.67
-60.38
-47.85
-35.66
-24.85
-15.73
-8.11
-1.67
3.75
8.09
11.21
13
13.55
13.01
11.62
9.54
6.91
3.86
0.58
-2.67
-5.63
-8.05
-9.85
-11.15
-12.15
-13.12
-14.23
-15.49
-16.8
-17.98
-18.89
-19.54
-20.05
-20.65
-21.6
-23.08
-25.17
-27.8
-30.68
-33.48
-35.81
-37.44
-38.33
-38.71
-38.91
-39.32
-40.3
-42.05
-44.54
-47.41
-49.89
-50.9
-49.39
-44.65
-36.65
-26.1
-14.22
-2.28
8.78
18.53
27.04
34.61
41.48
47.72
53.14
57.47
60.44
62.02
62.41
62.07
61.61
61.6
62.39
64.04
66.35
68.92
71.36
73.34
74.68
75.37
75.48
75.13
74.34
73.09
71.23
68.55
64.9
60.25
54.75
48.68
42.39
36.04
29.64
22.93
15.49
6.83
-3.45
-15.49
-29.01
-43.16
-56.65
-67.96
-75.78
-79.46
-79.25
-76.22
-71.85
-67.5
-64.04
-61.68
-60.18
-59.19
-58.47
-58.01
-57.89
-58.1
-58.38
-58.37
-57.69
-56.12
-53.77
-50.95
-48.04
-45.29
-42.74
-40.24
-37.59
-34.74
-31.88
-29.45
-27.87
-27.4
-28
-29.36
-31.07
-32.8
-34.46
-36.12
-38.04
-40.56
-43.99
-48.48
-53.89
-59.58
-64.54
-67.54
-67.54
-64.04
-57.25
-47.94
-37.2
-26.01
-15.11
-4.95
4.1
11.73
17.7
22
24.92
27.08
29.14
31.53
34.33
37.23
39.73
41.38
41.98
41.65
40.74
39.78
39.17
39.13
39.54
40.06
40.26
39.87
38.8
37.21
35.33
33.35
31.39
29.47
27.65
25.91
24.12
21.95
19.02
15.21
10.9
7.02
4.73
4.97
8.03
13.5
20.45
27.86
34.92
41.12
46.23
50.11
52.78
54.37
55.2
55.77
56.62
58.17
60.55
63.49
66.46
68.78
69.88
69.44
67.53
64.57
61.27
58.4
56.53
55.66
55.14
53.88
50.75
45.25
37.77
29.49
21.81
15.64
11.03
7.2
3.05
-2.35
-9.43
-18.01
-27.44
-36.68
-44.47
-49.52
-50.88
-48.31
-42.42
-34.48
-25.93
-17.92
-11.02
-5.31
-0.7
2.92
5.56
7.3
8.41
9.3
10.39
11.87
13.6
15.16
16.05
15.94
14.81
12.93
10.75
8.71
7.01
5.56
4
1.82
-1.4
-5.8
-11.1
-16.72
-21.93
-26.17
-29.34
-31.81
-34.32
-37.66
-42.33
-48.27
-54.75
-60.42
-63.63
-62.85
-57.2
-46.99
-33.9
-20.78
-10.93
-7.12
-10.73
-21.42
-37.38
-56.11
-75.18
-92.75
-107.52
-118.47
-124.59
-124.88
-118.71
-106.19
-88.54
-67.88
-46.75
-27.32
-10.87
2.46
13.36
22.78
31.41
39.34
46.1
51.04
53.63
53.81
51.99
48.84
45.04
41.09
37.23
33.55
30.12
27.05
24.55
22.86
22.25
22.92
25
28.44
33.07
38.46
44.05
49.27
53.69
57.14
59.7
61.66
63.25
64.59
65.64
66.29
66.49
66.33
66.05
65.93
66.26
67.29
69.15
71.89
75.44
79.62
84.08
88.3
91.78
94.17
95.5
96.25
97.23
99.31
103.08
108.63
115.35
121.97
126.72
127.71
123.47
113.53
98.73
81.26
63.97
49.49
39.45
34.01
32.15
32.38
33.46
34.84
36.67
39.3
42.89
47.09
51.11
54.04
55.11
54
50.71
45.49
38.68
30.57
21.3
10.93
-0.67
-13.57
-27.75
-42.97
-58.66
-74.03
-88.14
-100.13
-109.31
-115.4
-118.52
-119.11
-117.85
-115.28
-111.63
-106.64
-99.78
-90.47
-78.61
-64.71
-49.86
-35.39
-22.49
-11.9
-3.86
1.84
5.74
8.61
11.19
14.06
17.46
21.24
24.98
28.18
30.46
31.49
31.01
28.71
24.39
18.11
10.32
1.75
-6.9
-15.31
-23.75
-32.91
-43.57
-56.12
-70.39
-85.71
-101.22
-116.18
-130.02
-142.17
-151.94
-158.49
-161.15
-159.71
-154.71
-147.27
-138.63
-129.58
-120.14
-109.57
-96.75
-80.77
-61.38
-39.28
-16.07
5.97
24.41
37.22
43.38
43.18
38.15
30.46
22.24
14.91
8.98
4.25
0.28
-3.2
-6.13
-8.28
-9.55
-10.19
-10.79
-12
-14.29
-17.64
-21.71
-26.03
-30.31
-34.63
-39.28
-44.42
-49.79
-54.6
-57.63
-57.75
-54.3
-47.31
-37.42
-25.59
-12.8
0.16
12.64
24.09
34
41.97
47.84
51.74
53.99
55.04
55.22
54.81
53.99
52.98
52.07
51.55
51.62
52.25
53.08
53.49
52.7
50.12
45.54
39.3
32.18
25.11
18.72
13.02
7.49
1.33
-6.07
-14.79
-24.42
-34.18
-43.26
-50.92
-56.58
-59.72
-60.04
-57.51
-52.64
-46.32
-39.67
-33.65
-28.8
-25.18
-22.54
-20.57
-19.02
-17.73
-16.61
-15.61
-14.81
-14.42
-14.74
-15.98
-18.15
-20.96
-23.92
-26.5
-28.3
-29.13
-29.16
-28.97
-29.51
-31.88
-36.92
-44.76
-54.55
-64.61
-72.88
-77.54
-77.4
-72.09
-61.97
-48.05
-31.9
-15.37
-0.31
12.05
21.45
28.68
35.17
42.25
50.56
59.95
69.83
79.6
88.98
97.8
105.75
112.11
116.03
117.04
115.56
113.05
111.52
112.69
117.02
123.39
129.38
132.42
131.03
125.74
119.09
114.43
114.52
120.14
129.81
140.31
147.69
148.2
138.93
118.35
86.97
47.92
6.88
-29.09
-53.71
-63.81
-60.58
-48.82
-34.57
-22.35
-13.66
-7.3
-1.4
4.5
8.79
8.93
3.63
-5.49
-14.08
-16.99
-10.93
3.61
22.48
39.55
49.35
49.05
39.1
22.3
2.21
-18.23
-37.37
-54.53
-69.38
-81.41
-89.8
-93.92
-93.74
-90.25
-85.33
-81.17
-79.42
-80.47
-83.33
-86.06
-86.69
-84.04
-78.27
-70.78
-63.71
-59.09
-58.04
-60.3
-64.2
-67.28
-67.27
-62.87
-54.21
-42.53
-29.57
-16.82
-5.06
5.53
15.06
23.52
30.6
35.78
38.61
38.95
37.18
34.11
30.71
27.84
25.89
24.73
23.74
22.12
19.15
14.43
8.05
0.62
-6.77
-12.73
-15.89
-15.36
-11.1
-4.07
4.02
11.1
15.32
15.28
10.28
0.33
-13.7
-30
-45.88
-58.32
-64.73
-63.73
-55.63
-42.17
-25.89
-9.36
5.38
17.09
25.4
30.93
35.19
40.1
47.23
56.95
68.07
78.31
85.32
87.7
85.49
79.79
71.88
62.35
50.96
37.1
20.67
2.62
-15.09
-30.24
-41.28
-47.95
-51.3
-53.08
-54.87
-57.45
-60.56
-63.34
-64.98
-65.12
-63.9
-61.51
-57.84
-52.5
-45.18
-36.22
-26.76
-18.47
-12.84
-10.57
-11.29
-13.92
-17.26
-20.47
-23.38
-26.35
-29.91
-34.34
-39.52
-44.9
-49.75
-53.42
-55.67
-56.77
-57.58
-59.17
-62.61
-68.55
-76.95
-86.94
-97
-105.25
-110.02
-110.48
-107.19
-102.12
-98.13
-97.62
-101.17
-106.52
-108.61
-100.93
-77.78
-36.6
20.79
88.32
157.51
219.8
268.82
301.44
317.61
319.36
309.65
291.68
268.47
242.89
217.52
194.33
174.43
157.79
143.57
130.6
118.07
105.89
94.69
85.51
79.14
75.78
74.74
74.79
74.46
72.51
68.26
61.67
53.36
44.41
36.18
30
26.89
27.25
30.68
36.09
42.01
47.14
50.72
52.69
53.46
53.5
53.06
51.91
49.58
45.65
40.11
33.61
27.38
22.9
21.35
23.07
27.32
32.44
36.43
37.62
35.35
30.1
23.16
15.97
9.43
3.5
-2.81
-10.92
-22.04
-36.6
-53.95
-72.62
-90.81
-107.05
-120.49
-130.94
-138.65
-143.94
-147.07
-148.35
-148.13
-146.93
-145.2
-143.25
-141.05
-138.41
-135.14
-131.32
-127.38
-124.07
-122.18
-122.26
-124.48
-128.47
-133.39
-138.1
-141.47
-142.78
-141.95
-139.59
-136.69
-134.16
-132.36
-130.88
-128.71
-124.65
-117.77
-107.78
-95.16
-80.99
-66.68
-53.57
-42.71
-34.54
-28.94
-25.23
-22.39
-19.37
-15.26
-9.56
-2.29
6.12
14.84
22.91
29.41
33.76
35.81
35.85
34.46
32.21
29.3
25.47
20.09
12.55
2.73
-8.54
-19.62
-28.47
-33.4
-33.68
-29.7
-22.74
-14.31
-5.61
2.71
10.52
17.88
24.79
31.15
36.77
41.44
44.94
46.93
47.06
45.14
41.35
36.29
30.87
25.99
22.24
19.71
18.12
16.96
15.68
13.77
10.74
6.17
-0.25
-8.51
-18.17
-28.26
-37.45
-44.3
-47.61
-46.72
-41.78
-33.68
-23.84
-13.72
-4.42
3.59
10.42
16.39
21.67
25.99
28.8
29.58
28.26
25.39
21.97
19.03
17.26
16.85
17.49
18.74
20.16
21.43
22.37
22.78
22.49
21.36
19.39
16.65
13.31
9.42
4.93
-0.21
-5.88
-11.61
-16.57
-19.78
-20.36
-17.89
-12.48
-4.79
4.37
14.18
24.06
33.6
42.46
50.2
56.3
60.32
62.11
61.95
60.47
58.46
56.59
55.26
54.61
54.59
55
55.57
55.95
55.71
54.56
52.43
49.6
46.67
44.34
43.14
43.2
44.12
45.13
45.36
44.17
41.39
37.48
33.35
30.12
28.69
29.49
32.37
36.8
42.21
48.3
55.15
63.17
72.67
83.63
95.38
106.61
115.56
120.37
119.66
112.9
100.74
84.88
67.63
51.16
36.91
25.09
14.76
4.31
-7.82
-22.2
-37.97
-52.76
-63.48
-67.58
-64.29
-55.16
-43.52
-33.02
-26.16
-23.41
-23.71
-25.63
-28.61
-33.34
-41.1
-52.63
-67.42
-83.85
-100.03
-114.77
-127.84
-139.47
-149.37
-156.25
-157.97
-152.59
-139.53
-120.21
-97.68
-75.53
-56.52
-41.67
-30.27
-20.57
-10.88
-0.39
10.6
21.16
30.38
37.93
44.09
49.42
54.27
58.51
61.64
63.02
62.27
59.34
54.55
48.34
41.13
33.15
24.44
14.91
4.63
-5.9
-15.49
-22.21
-23.76
-18.23
-4.82
15.69
40.96
67.63
92.08
111.34
123.71
129.19
129.25
126.26
122.51
119.33
116.72
113.51
108.02
98.9
85.7
68.98
50.04
30.35
11.16
-6.63
-22.38
-35.6
-45.79
-52.5
-55.43
-54.64
-50.76
-45.02
-38.86
-33.5
-29.37
-25.96
-21.96
-15.77
-6.08
7.71
25.31
45.7
67.3
88.42
107.58
123.84
136.78
146.38
152.73
155.61
154.47
148.46
136.83
119.25
96.04
68.07
36.48
2.38
-33.26
-69.54
-105.31
-139.14
-169.39
-194.7
-214.3
-228.16
-236.66
-240.21
-238.72
-231.69
-218.61
-199.52
-175.51
-148.57
-121.1
-95.11
-71.61
-50.58
-31.28
-13.06
4.23
19.97
33.17
42.9
48.84
51.25
50.72
47.76
42.47
34.75
24.67
12.88
0.74
-10.03
-17.87
-21.95
-22.35
-19.96
-16.06
-11.89
-8.38
-6.04
-5
-5.02
-5.49
-5.57
-4.29
-1.01
4.27
10.51
15.8
17.84
14.81
6.09
-7.44
-23.79
-40.64
-56.16
-69.41
-80.11
-88.13
-93.03
-94.07
-90.65
-82.85
-71.7
-58.92
-46.3
-34.99
-25.32
-16.86
-8.96
-1.36
5.63
11.19
14.4
14.77
12.45
8.28
3.43
-1.05
-4.5
-6.78
-8.1
-8.64
-8.35
-6.83
-3.39
2.74
12.08
24.6
39.47
55.14
69.42
80.05
85.18
83.87
76.37
63.94
48.39
31.57
14.95
-0.58
-14.57
-26.93
-37.8
-47.58
-56.9
-66.39
-76.41
-86.64
-95.98
-102.66
-104.73
-100.62
-89.66
-72.22
-49.67
-24.05
2.42
27.78
50.71
70.58
87.25
100.62
110.38
116.03
117.21
114.23
108.38
101.69
96.12
92.74
91.11
89.59
86.12
79.26
68.78
55.66
41.39
27.24
13.76
0.78
-12.12
-25.25
-38.58
-51.88
-64.97
-77.79
-90.27
-101.96
-111.98
-119.04
-122.01
-120.45
-115.02
-107.32
-99.35
-92.75
-88.09
-84.65
-80.55
-73.53
-61.76
-44.5
-22.33
3.08
29.35
53.87
74.2
88.53
96.08
97.59
95.28
92.38
92.04
96.11
104.39
114.61
123.47
128.01
126.6
119.06
105.93
87.79
65.07
38.57
10.18
-16.93
-39.1
-53.46
-59.03
-57.04
-50.19
-41.39
-32.89
-26.09
-22.05
-21.91
-26.79
-36.97
-51.09
-66.02
-77.89
-83.75
-82.84
-76.81
-68.6
-60.78
-54.22
-48
-40.4
-30.33
-18.26
-6
4.41
11.94
17.15
21.8
27.68
35.71
45.5
55.85
65.5
73.69
80.1
84.5
86.35
84.7
78.83
68.73
55.5
41.07
27.47
16.11
7.5
1.43
-2.64
-5.18
-6.57
-7.09
-7.08
-6.86
-6.67
-6.64
-6.92
-7.95
-10.4
-15
-21.99
-30.75
-39.81
-47.23
-51.47
-51.99
-49.38
-44.89
-39.7
-34.27
-28.24
-20.97
-12.08
-2.03
8.1
17.1
24.24
29.58
33.66
37
39.58
40.84
40.04
36.89
31.85
26.06
20.83
17.11
15.11
14.32
13.84
12.74
10.44
6.82
2.2
-2.91
-8.07
-13.08
-18.11
-23.55
-29.83
-37.16
-45.35
-53.78
-61.45
-67.2
-69.98
-68.99
-63.91
-54.97
-42.98
-29.19
-15.03
-1.78
9.68
19.03
26.34
31.88
35.79
38.05
38.51
37.14
34.22
30.35
26.38
23.12
21.05
20.22
20.25
20.5
20.35
19.37
17.5
14.92
11.99
9.09
6.55
4.55
3.1
1.99
0.88
-0.68
-3.15
-6.9
-12.17
-18.93
-26.83
-35.06
-42.45
-47.64
-49.51
-47.48
-41.79
-33.43
-23.83
-14.38
-6.06
0.75
6.17
10.55
14.25
17.42
20.06
22.08
23.48
24.35
24.85
25.13
25.26
25.22
24.99
24.58
24
23.08
21.43
18.48
13.73
7.06
-1.15
-10.25
-19.58
-28.84
-38.06
-47.29
-56.13
-63.51
-67.91
-67.89
-62.83
-53.26
-40.74
-27.24
-14.39
-3.07
6.65
15.05
22.35
28.34
32.48
34.29
33.64
31.04
27.43
23.86
21
19.02
17.6
16.17
14.28
11.75
8.68
5.3
1.9
-1.36
-4.41
-7.31
-10.25
-13.54
-17.52
-22.29
-27.58
-32.58
-36.09
-36.94
-34.41
-28.52
-20.03
-10.17
-0.15
9.1
17.16
23.95
29.6
34.13
37.45
39.32
39.54
38.11
35.35
31.86
28.29
25.14
22.47
19.99
17.17
13.62
9.31
4.55
-0.1
-4.25
-7.75
-10.85
-13.95
-17.45
-21.56
-26.28
-31.48
-36.8
-41.71
-45.45
-47.09
-45.77
-41.01
-32.96
-22.42
-10.77
0.51
10.22
17.73
23.08
26.88
29.95
32.99
36.3
39.6
42.19
43.15
41.78
38
32.56
26.93
22.9
22.14
25.75
34.17
47.25
64.39
84.45
105.54
125.06
140.04
148.15
148.53
142.28
131.84
119.64
106.71
92.26
74.39
51.71
24.67
-4.34
-32.1
-56.14
-75.81
-91.99
-105.84
-117.47
-125.56
-128.12
-124.06
-114.32
-101.85
-90.48
-83.21
-81.02
-82.67
-85.76
-87.92
-87.98
-86.11
-83.41
-81.04
-79.65
-79.17
-79.03
-78.59
-77.42
-75.43
-72.77
-69.67
-66.2
-62.2
-57.21
-50.7
-42.18
-31.46
-18.85
-5.18
8.15
19.38
26.55
27.9
22.41
10.31
-6.62
-25.32
-42.38
-55.07
-62.22
-64.21
-62.34
-57.8
-51.04
-41.73
-29.35
-13.95
3.54
21.55
38.54
53.55
66.35
77.13
86.09
93.15
98.01
100.49
100.78
99.48
97.37
95.04
92.6
89.66
85.55
79.77
72.18
63.14
53.34
43.62
34.79
27.37
21.49
16.7
12.11
6.65
-0.43
-9.22
-19.1
-29.03
-38.22
-46.48
-54.24
-62.05
-70.04
-77.69
-83.94
-87.6
-87.71
-83.62
-74.96
-61.61
-44.09
-23.81
-3.01
15.85
31.4
44.38
57.84
76.14
103.13
140.37
186.25
236.54
285.85
329.4
364.26
389.62
406.49
416.86
423
426.76
429.31
430.98
431.36
429.55
424.39
414.65
399.18
377.13
348.33
313.65
275.02
234.92
195.5
157.68
120.75
82.97
42.7
-0.43
-45.23
-89.45
-130.9
-168.1
-200.42
-227.49
-248.67
-262.88
-269.18
-267.57
-259.42
-247.31
-234.09
-221.95
-211.8
-203.39
-195.91
-188.67
-181.45
-174.46
-168.03
-162.29
-157.08
-152.08
-147
-141.81
-136.78
-132.32
-128.82
-126.51
-125.4
-125.35
-126.11
-127.42
-129.05
-130.92
-133.14
-136.03
-140.02
-145.32
-151.76
-158.64
-164.98
-170
-173.6
-176.52
-179.85
-184.38
-189.84
-194.74
-196.91
-194.48
-187.07
-176.13
-164.67
-156.3
-154.01
-159.33
-171.93
-189.55
-208.27
-222.82
-227.53
-217.69
-191.27
-150.31
-101.09
-52.76
-14.49
7.59
12.47
4.54
-8.36
-17.77
-17.54
-5.49
16.6
44.25
72.22
96.33
114.44
126.52
133.95
138.53
141.67
144.1
146.11
147.71
148.82
148.99
147.19
142.03
132.31
117.95
100.47
82.66
67.47
56.55
49.69
45.25
41.57
38.41
37.27
40.46
49.42
63.36
79.18
92.77
100.75
101.8
96.88
88.28
78.33
68.55
59.38
50.77
42.7
35.45
29.58
25.55
23.46
22.91
23.09
23.03
21.94
19.46
15.69
11.12
6.27
1.4
-3.49
-8.53
-13.64
-18.3
-21.63
-22.76
-21.25
-17.44
-12.39
-7.56
-4.33
-3.63
-5.74
-10.29
-16.47
-23.33
-30.12
-36.64
-43.26
-50.7
-59.61
-70.03
-81.21
-91.84
-100.81
-107.9
-114.23
-121.9
-132.96
-148.28
-166.85
-185.85
-201.62
-210.84
-211.45
-202.77
-185.12
-159.51
-127.87
-93.62
-61.86
-38.5
-28.32
-32.81
-48.86
-69.69
-87.26
-95.37
-91.73
-77.98
-57.67
-33.86
-7.8
20.62
51.01
81.08
106.56
122.93
127.62
121.67
109.53
97.18
89.35
87.56
89.87
92.48
92.2
88.45
83.69
82.13
87.6
101.48
122.08
145.36
166.66
182.48
191.65
194.82
193.43
188.45
179.92
167.22
149.91
128.3
103.54
77.07
49.81
21.88
-7.2
-37.66
-68.66
-97.98
-122.59
-139.78
-148.52
-150.11
-147.72
-145.15
-145.39
-149.62
-157.11
-166.05
-174.59
-181.77
-187.72
-193.33
-199.74
-207.84
-218.05
-230.25
-243.65
-256.65
-266.97
-272.02
-269.44
-257.75
-236.65
-206.94
-170.21
-128.44
-83.85
-38.65
5.15
46.15
83.93
119.02
152.21
183.69
212.2
235.17
249.69
254.08
249.01
237.63
224.43
213.52
207.22
205.41
205.98
205.82
202.02
192.59
176.95
155.79
130.87
104.47
78.91
56.08
37.21
23.09
14.33
11.5
15.02
24.57
38.69
54.88
70.2
82.35
90.5
95.66
100.09
106.28
115.73
128.19
141.68
153.14
159.53
158.65
149.56
132.55
108.94
80.93
51.64
24.93
4.71
-6.35
-8.2
-3.9
1.26
1.81
-5.64
-21.16
-41.91
-63.82
-83.5
-99.33
-111.28
-120.03
-126.05
-129.45
-130.23
-128.79
-125.89
-122.28
-118.18
-113.14
-106.23
-96.64
-84.06
-69.01
-52.75
-36.95
-23.23
-12.8
-6.05
-2.63
-1.65
-2.06
-3.1
-4.46
-6.35
-9.16
-13.3
-18.86
-25.69
-33.35
-41.33
-49.3
-57.33
-66.01
-76.37
-89.47
-105.8
-124.89
-145.3
-165.03
-182.07
-195.01
-203.07
-205.99
-203.89
-196.97
-185.67
-170.54
-152.02
-129.94
-103.27
-70.49
-30.75
14.82
62.54
106.88
142.48
166.46
179.66
186.29
191.91
201.11
215.77
234.92
255.77
275.21
290.91
301.66
307.08
307.24
302.4
293.12
280.22
264.57
246.87
227.33
205.68
181.46
154.39
124.74
93.39
61.68
31.15
3.11
-21.64
-42.98
-61.34
-77.42
-91.72
-104.22
-114.36
-121.22
-124.01
-122.47
-117.04
-108.64
-98.38
-87.22
-75.92
-65.18
-55.78
-48.6
-44.42
-43.57
-45.62
-49.31
-52.83
-54.33
-52.54
-47.14
-38.83
-29.03
-19.31
-10.84
-4.17
0.71
4.02
5.92
6.36
5.22
2.52
-1.41
-5.93
-10.23
-13.57
-15.38
-15.28
-13.13
-9.06
-3.59
2.34
7.52
10.82
11.56
9.75
6.04
1.33
-3.77
-9.23
-15.6
-23.6
-33.53
-44.91
-56.52
-66.71
-74.02
-77.68
-77.75
-75.05
-70.81
-66.29
-62.44
-59.8
-58.53
-58.52
-59.56
-61.59
-64.71
-69.26
-75.59
-83.83
-93.64
-104.16
-113.96
-121.23
-123.96
-120.41
-109.66
-92.28
-70.69
-48.9
-31.37
-21.57
-20.55
-26.49
-35.44
-42.88
-45.48
-42.18
-34.15
-23.88
-13.93
-5.95
-0.3
3.78
7.88
14.15
24.98
42.61
68.52
102.49
142.13
182.86
218.94
245.25
258.94
260.32
252.43
239.59
225.62
212.73
201.38
191.01
181
171.16
161.53
152.01
142
130.77
118.02
104.57
92.36
83.77
80.66
83.49
91.15
101.48
112.2
121.71
129.46
135.67
140.75
144.72
147.06
146.96
143.72
137.22
128.05
117.38
106.59
96.85
88.8
82.44
77.24
72.29
66.64
59.56
50.66
39.91
27.5
13.68
-1.38
-17.47
-34.21
-50.93
-66.7
-80.78
-93.09
-104.47
-116.44
-130.4
-146.73
-164.2
-180.24
-192.03
-197.76
-197.51
-193.08
-186.94
-181.03
-176.01
-171.31
-165.98
-159.46
-152.06
-144.63
-137.97
-132.28
-127.05
-121.42
-114.72
-106.86
-98.38
-90.24
-83.43
-78.73
-76.54
-76.8
-79.08
-82.78
-87.37
-92.6
-98.43
-104.83
-111.53
-117.9
-123.13
-126.69
-128.69
-129.94
-131.49
-133.95
-136.83
-138.51
-136.81
-129.89
-117.13
-99.41
-78.78
-57.57
-37.59
-19.73
-4.07
9.6
21.31
30.78
37.61
41.76
43.78
44.7
45.68
47.47
50.15
53.21
55.88
57.48
57.7
56.6
54.43
51.45
47.88
43.81
39.26
34.23
28.66
22.47
15.53
7.79
-0.6
-9.17
-17.09
-23.32
-26.78
-26.7
-22.91
-15.94
-6.97
2.51
11.02
17.44
21.18
22.13
20.6
17.02
11.92
5.86
-0.43
-6.06
-9.97
-11.3
-9.72
-5.64
-0.19
5.23
9.5
12.24
13.84
15.09
16.67
18.75
20.99
22.8
23.72
23.6
22.48
20.37
17.29
13.48
9.81
7.84
9.41
15.85
27.17
41.9
57.58
71.79
82.99
90.9
96.03
99.01
100.03
98.84
95.13
88.89
80.68
71.34
61.76
52.51
43.83
35.65
27.76
19.85
11.62
2.89
-6.27
-15.41
-23.85
-30.94
-36.36
-40.29
-43.36
-46.33
-49.86
-54.23
-59.23
-64.1
-67.61
-68.34
-64.99
-56.91
-44.31
-28.28
-10.38
7.81
25.12
40.9
54.94
67.18
77.58
86.15
93.02
98.51
103.09
107.22
111.15
114.86
118.12
120.53
121.75
121.5
119.64
116.23
111.48
105.76
99.46
92.89
86.15
79.08
71.26
62.19
51.47
39.02
25.24
11
-2.48
-13.95
-22.41
-27.46
-29.41
-29.13
-27.88
-26.79
-26.65
-27.77
-30.16
-33.77
-38.73
-45.33
-53.85
-64.26
-75.99
-88.03
-99.04
-107.92
-114
-117.27
-118.23
-117.58
-115.98
-113.86
-111.44
-108.81
-106.03
-103.21
-100.42
-97.7
-95.01
-92.33
-89.66
-87.01
-84.27
-81.02
-76.52
-69.86
-60.3
-47.62
-32.35
-15.57
1.37
17.3
31.41
43.21
52.38
58.61
61.64
61.43
58.36
53.25
47.17
41.25
36.33
32.83
30.67
29.32
28
25.87
22.35
17.37
11.34
4.97
-0.91
-5.77
-9.43
-12.06
-14.09
-16.04
-18.41
-21.56
-25.63
-30.3
-34.73
-37.6
-37.5
-33.33
-24.72
-12.19
2.9
18.75
33.58
46.07
55.57
62.06
65.99
67.92
68.31
67.46
65.51
62.62
59.04
55.12
51.19
47.39
43.62
39.66
35.31
30.6
25.88
21.61
18.17
15.58
13.5
11.27
8.27
4.2
-0.77
-6.04
-10.85
-14.54
-16.8
-17.79
-18.1
-18.51
-19.83
-22.65
-27.15
-33.02
-39.39
-45
-48.41
-48.38
-44.22
-36.1
-24.94
-12.21
0.51
11.98
21.53
29.04
34.78
39.11
42.22
44.12
44.76
44.24
42.92
41.36
40.16
39.66
39.82
40.22
40.32
39.77
38.53
36.88
35.21
33.71
32.28
30.57
28.12
24.68
20.3
15.34
10.37
5.91
2.31
-0.38
-2.38
-4.1
-6.02
-8.58
-12.05
-16.51
-21.75
-27.27
-32.25
-35.68
-36.59
-34.33
-28.83
-20.7
-11.06
-1.25
7.6
14.86
20.45
24.61
27.59
29.43
30
29.12
26.91
23.85
20.67
18.17
16.89
16.93
18.01
19.52
20.83
21.42
21.08
19.92
18.3
16.58
14.95
13.26
11.09
7.93
3.51
-2.08
-8.38
-14.83
-21
-26.73
-32.11
-37.35
-42.65
-48.14
-53.87
-59.86
-65.99
-71.92
-76.96
-80.16
-80.6
-77.73
-71.72
-63.49
-54.38
-45.72
-38.36
-32.49
-27.73
-23.58
-19.73
-16.37
-14.02
-13.26
-14.37
-17.1
-20.7
-24.18
-26.63
-27.54
-26.9
-25.08
-22.62
-19.89
-16.95
-13.54
-9.33
-4.26
1.19
6.08
9.3
10.1
8.41
4.91
0.69
-3.21
-6.32
-8.76
-11.17
-14.37
-19.07
-25.77
-34.65
-45.54
-57.69
-69.78
-80
-86.49
-87.91
-83.99
-75.72
-65
-54.05
-44.63
-37.59
-32.72
-29.2
-26.18
-23.24
-20.56
-18.55
-17.49
-17.14
-16.83
-15.78
-13.58
-10.43
-7
-4.02
-1.99
-0.95
-0.67
-0.91
-1.59
-2.73
-4.37
-6.45
-8.89
-11.71
-15.14
-19.46
-24.86
-31.14
-37.87
-44.43
-50.35
-55.31
-59.21
-62.02
-63.83
-64.97
-65.95
-67.34
-69.39
-71.61
-72.77
-71.2
-65.51
-55.12
-40.52
-23
-4.21
14.36
31.46
45.99
56.94
63.51
65.5
63.69
59.92
56.76
56.76
61.64
71.76
86.14
102.82
119.59
134.57
146.54
154.95
159.65
160.65
157.93
151.47
141.42
128.22
112.74
96.12
79.48
63.62
48.78
34.76
21.11
7.37
-6.79
-21.62
-37.31
-53.85
-70.8
-87.08
-101.14
-111.38
-116.76
-117.27
-113.85
-107.88
-100.65
-92.82
-84.53
-75.61
-66
-55.97
-46.02
-36.72
-28.45
-21.23
-14.71
-8.14
-0.72
8.28
19.14
31.65
45.2
59.06
72.72
86.06
99.22
112.34
125.19
137.06
146.86
153.45
156.16
154.94
150.33
143.14
133.98
123.03
110.13
95.02
77.65
58.38
37.97
17.42
-2.16
-19.61
-33.87
-44.12
-49.96
-51.53
-49.42
-44.45
-37.44
-28.99
-19.58
-9.7
0.02
8.81
15.95
21.03
23.94
24.92
24.36
22.62
19.87
16.18
11.55
6.09
0.12
-5.94
-11.68
-16.87
-21.55
-25.92
-30.22
-34.59
-39.04
-43.55
-48.12
-52.67
-56.94
-60.3
-61.9
-61.01
-57.55
-52.44
-47.39
-44.27
-44.26
-47.33
-52.29
-57.48
-61.7
-64.78
-67.26
-69.73
-72
-72.88
-70.73
-64.51
-54.58
-42.78
-31.68
-23.38
-18.62
-16.72
-16.26
-16
-15.57
-15.35
-15.96
-17.64
-19.97
-22.2
-23.75
-24.64
-25.56
-27.48
-31.06
-36.25
-42.32
-48.21
-53.07
-56.68
-59.5
-62.45
-66.57
-72.59
-80.82
-90.99
-102.3
-113.49
-123.05
-129.48
-131.64
-129.12
-122.32
-112.37
-100.86
-89.38
-79.25
-71.19
-65.27
-60.86
-56.74
-51.26
-42.67
-29.59
-11.22
12.42
40.58
71.91
104.77
137.47
168.32
195.83
218.75
236.32
248.54
256.07
260
261.2
259.82
255.29
246.9
234.59
219.59
204.36
191.74
183.68
180.25
179.5
178.19
173.31
163.29
148.77
132.36
117.73
108.48
106.96
113.62
127.03
144.44
162.66
178.94
191.32
198.59
200.01
194.95
182.99
164.06
138.67
108.03
73.82
37.85
1.61
-33.79
-67.61
-99.27
-128.17
-153.62
-174.89
-191.38
-202.83
-209.44
-211.97
-211.66
-209.92
-207.97
-206.43
-205.19
-203.49
-200.26
-194.45
-185.35
-172.69
-156.69
-137.99
-117.59
-96.77
-76.96
-59.47
-45.34
-35.15
-28.99
-26.64
-27.55
-31.02
-36.18
-42
-47.45
-51.68
-54.21
-54.95
-54.11
-51.99
-48.74
-44.39
-38.84
-32.03
-23.99
-15.02
-5.81
2.55
8.63
11.14
9.5
4.33
-2.41
-7.99
-9.81
-6.42
1.99
13.87
26.98
39.35
49.8
57.95
63.95
68.04
70.36
70.95
69.92
67.6
64.54
61.45
58.89
57.1
55.89
54.71
52.89
50.02
46.13
41.72
37.54
34.18
31.83
30.17
28.58
26.37
23.09
18.65
13.28
7.46
1.83
-2.81
-5.64
-5.84
-2.89
3.27
12.07
22.46
33.16
43.13
51.69
58.61
63.79
67.02
67.94
66.19
61.8
55.41
48.17
41.37
35.92
32.06
29.3
26.81
23.86
20.19
15.99
11.68
7.55
3.48
-1.02
-6.58
-13.61
-22.06
-31.34
-40.42
-48.11
-53.29
-55.14
-53.4
-48.31
-40.66
-31.52
-21.98
-12.84
-4.51
2.9
9.49
15.25
20.09
23.77
26.03
26.74
25.87
23.6
20.16
15.79
10.65
4.87
-1.51
-8.34
-15.33
-22.14
-28.5
-34.42
-40.31
-46.86
-54.8
-64.53
-75.86
-87.99
-99.71
-109.66
-116.8
-120.56
-121.04
-118.94
-115.37
-111.56
-108.57
-106.95
-106.66
-107.13
-107.58
-107.37
-106.34
-104.81
-103.49
-103.06
-103.81
-105.52
-107.62
-109.5
-110.66
-110.8
-109.55
-106.25
-99.99
-89.82
-75.36
-57.14
-36.58
-15.56
4.27
21.94
37.24
50.34
61.4
70.3
76.86
81.25
84.33
87.56
92.52
100.19
110.6
122.81
135.29
146.53
155.54
161.89
165.62
167.02
166.35
163.84
159.68
154.23
147.97
141.56
135.56
130.3
125.73
121.49
117.04
111.91
105.81
98.68
90.6
81.69
72.11
62.14
52.21
42.79
34.3
26.92
20.49
14.53
8.47
1.77
-5.86
-14.46
-23.91
-33.82
-43.48
-51.82
-57.53
-59.46
-57.05
-50.44
-40.72
-29.51
-18.49
-8.89
-1.34
4.18
7.97
10.4
11.92
12.74
12.88
12.17
10.44
7.43
3.21
-2.09
-8.24
-14.89
-21.95
-29.25
-36.37
-42.3
-45.91
-46.09
-42.59
-38.01
-35.24
-36.41
-41.45
-48.66
-56.7
-66.65
-80.4
-101.25
-129.98
-163.58
-196.14
-221.02
-233.55
-230.3
-212.26
-183.41
-149.29
-114.92
-83.81
-58.09
-38.65
-25.41
-17.33
-12.86
-9.94
-6.87
-2.78
2.03
6.31
8.75
8.77
6.97
4.52
2.89
3.11
5.7
10.73
18.01
27.22
37.8
48.74
58.44
65.32
68.38
67.68
64.24
59.66
55.47
52.58
51.17
50.79
50.8
50.66
50.14
49.25
48.07
46.69
45.05
42.99
40.28
36.77
32.55
27.94
23.47
19.63
16.79
15.09
14.57
15.23
17.13
20.32
24.62
29.54
34.12
37.18
37.66
35.01
29.36
21.48
12.24
2.04
-9.46
-23.22
-40.14
-60.17
-81.78
-102.04
-117.3
-124.29
-121
-107.27
-84.7
-56.33
-25.92
2.89
27.35
46.22
59.78
69.4
76.73
83.01
88.9
94.64
100.52
107
114.49
123.01
132.07
140.92
148.79
155.15
159.6
161.75
161.16
157.59
151.18
142.26
130.81
116.01
96.23
69.87
36.57
-2.05
-42.51
-80.62
-112.98
-137.91
-155.54
-166.99
-173.47
-175.77
-174.32
-169.4
-161.47
-151.08
-138.67
-124.39
-108.11
-89.6
-68.63
-45.16
-19.22
9.02
39.07
69.76
99.11
124.6
143.76
154.95
157.64
152.36
140.34
123.2
102.84
81.41
61.09
43.56
29.49
18.25
8.26
-2.32
-14.82
-29.72
-46.69
-64.96
-83.62
-101.44
-116.7
-127.38
-131.93
-130.27
-124.38
-117.82
-114.44
-116.68
-124.69
-136.36
-148.48
-158.08
-163.49
-164.5
-161.96
-157.09
-151.06
-144.8
-138.81
-132.95
-126.26
-117.18
-104.23
-86.86
-65.93
-43.49
-21.83
-2.44
14.51
29.99
45.16
60.59
76.08
90.95
104.61
116.68
126.85
134.47
138.46
137.77
132.06
122.21
110.36
99.37
91.95
89.94
93.82
102.61
114.12
125.45
133.72
136.91
134.58
127.99
119.57
111.74
105.75
101.07
95.67
87.19
74.12
56.68
36.63
16.44
-1.86
-17.26
-29.9
-40.44
-49.49
-57.22
-63.37
-67.41
-68.61
-66.02
-58.74
-46.51
-30.63
-14.37
-2.37
1.14
-5.65
-20.86
-39.38
-54.96
-62.85
-61.6
-53.19
-41.45
-30.02
-20.85
-14.06
-8.83
-4.55
-1.31
0.32
0.04
-1.76
-4.07
-5.93
-7.12
-8.28
-10.52
-14.75
-21.18
-29.37
-38.51
-47.61
-55.71
-61.8
-65.09
-65.29
-62.99
-59.62
-56.85
-55.81
-56.51
-57.93
-58.75
-58.2
-56.43
-54.26
-52.52
-51.45
-50.71
-49.73
-48.19
-46.28
-44.55
-43.51
-43.26
-43.48
-43.68
-43.58
-43.49
-44.28
-46.88
-51.7
-58.05
-64.24
-68
-67.45
-61.88
-52.04
-39.77
-27.31
-16.53
-8.42
-3.17
-0.24
1.5
3.65
8.08
16.38
29.11
45.12
61.59
74.95
82.42
83.32
79.4
73.9
69.87
68.67
69.61
70.87
71.08
70.43
70.58
73.38
79.32
86.68
92.15
92.32
85.43
72.17
55.37
38.71
25.28
16.76
13.31
14.17
18.16
24.06
30.72
37.06
42.29
46.19
49.27
52.7
57.8
65.53
76.11
88.83
102.26
114.71
124.56
130.61
132.1
128.81
120.84
108.56
92.38
72.6
49.48
23.43
-4.72
-33.45
-60.7
-84.25
-102.4
-114.58
-121.48
-124.81
-126.54
-128.28
-130.82
-134.09
-137.38
-139.58
-139.52
-136.03
-128.2
-115.69
-98.84
-78.76
-57.08
-35.63
-15.96
0.89
14.48
24.86
32.36
37.43
40.53
42.15
42.73
42.65
42.18
41.5
40.7
39.94
39.37
39.08
38.95
38.6
37.44
35
31.14
26.13
20.63
15.41
11.01
7.59
4.89
2.41
-0.44
-4.17
-9.05
-14.97
-21.36
-27.29
-31.55
-33.05
-31.14
-25.83
-17.76
-8.04
2.15
11.81
20.32
27.44
33.21
37.76
41.14
43.28
44.09
43.6
42.09
40.08
38.14
36.7
35.91
35.59
35.39
35
34.21
32.95
31.16
28.76
25.57
21.51
16.59
11.08
5.42
0.03
-4.84
-9.27
-13.64
-18.47
-24.14
-30.62
-37.31
-43.18
-47.01
-47.83
-45.19
-39.35
-31.19
-21.86
-12.5
-3.87
3.7
10.21
15.76
20.36
23.84
25.93
26.56
25.9
24.39
22.52
20.65
18.86
16.98
14.77
12.09
9.01
5.62
1.98
-2.06
-6.72
-12.08
-17.93
-23.73
-28.86
-32.89
-35.72
-37.66
-39.16
-40.72
-42.71
-45.4
-48.92
-53.27
-58.11
-62.71
-65.99
-66.73
-63.92
-57.16
-46.74
-33.59
-19.02
-4.39
9.2
20.96
30.48
37.65
42.52
45.35
46.63
47.02
47.25
47.92
49.29
51.25
53.43
55.4
56.77
57.18
56.31
53.77
49.33
43.01
35.22
26.59
17.81
9.33
1.23
-6.64
-14.54
-22.59
-30.81
-39.1
-47.34
-55.3
-62.47
-68.03
-70.88
-70
-64.86
-55.76
-44
-31.52
-20.41
-12.13
-7.14
-4.82
-3.8
-2.58
-0.02
4.3
10.14
16.8
23.51
29.66
34.97
39.32
42.67
44.84
45.67
45.08
43.38
41.15
39.08
37.62
36.77
36.14
35.38
34.48
33.99
34.7
37.19
41.41
46.62
51.63
55.25
56.71
55.92
53.43
50.28
47.62
46.41
47.14
49.7
53.45
57.43
60.64
62.31
62.13
60.27
57.36
54.13
51.04
48.01
44.43
39.42
32.38
23.45
13.51
3.92
-4.13
-10.12
-14.36
-17.77
-21.33
-25.63
-30.6
-35.63
-39.83
-42.49
-43.31
-42.5
-40.6
-38.29
-36.19
-34.79
-34.57
-36.02
-39.33
-43.96
-48.41
-50.57
-48.63
-42.07
-32.15
-21.43
-12.57
-7.02
-4.43
-3.06
-0.94
3.01
8.52
14.41
19.42
22.98
25.34
27.16
28.95
30.74
32.21
32.89
32.5
31.09
29.04
26.82
24.82
23.11
21.49
19.54
16.8
13.04
8.36
3.27
-1.51
-5.27
-7.56
-8.41
-8.19
-7.5
-6.88
-6.67
-6.91
-7.35
-7.46
-6.54
-3.74
1.82
10.8
23.45
39.15
56.37
72.87
86.36
95.3
99.41
99.61
97.39
93.97
89.81
84.69
78.42
71.49
65.28
61.64
62.03
66.62
73.95
81.22
85.04
82.35
71.24
51.33
23.92
-8.4
-42.33
-74.66
-103.12
-126.91
-146.91
-165.39
-185.07
-207.95
-233.82
-259.23
-277.47
-280.24
-260.68
-216.73
-152.91
-79.66
-10
44.88
79.08
93
91.58
81.24
67.14
52.08
37.07
22.71
10.06
0.51
-5.04
-7.06
-7.39
-8.54
-12.41
-19.38
-28.2
-36.61
-42.48
-44.71
-43.62
-40.56
-37.11
-34.29
-32.17
-30.07
-27.14
-22.83
-17.15
-10.51
-3.48
3.51
10.24
16.71
23.18
30.22
38.73
49.53
62.8
77.42
91.04
100.7
104.09
100.5
91.12
78.13
63.54
48.42
32.99
17.65
4
-5
-6.14
2.26
19.02
40.13
60.37
75.43
83.38
84.83
81.92
76.95
71.43
65.87
60.17
54.07
47.38
39.78
30.81
19.95
7.06
-7.42
-22.33
-36.18
-47.55
-55.46
-59.44
-59.6
-56.61
-51.69
-46.38
-42.17
-40.1
-40.47
-42.94
-46.82
-51.5
-56.73
-62.65
-69.67
-78.15
-88.31
-100.12
-113.33
-127.43
-141.88
-156.26
-170.34
-183.9
-196.3
-206.1
-211.06
-208.89
-198.27
-179.81
-156.24
-131.66
-110.11
-94.16
-84.38
-79.67
-78.35
-79.01
-80.98
-84
-87.72
-91.4
-94.04
-94.93
-93.91
-91.57
-88.87
-86.71
-85.5
-85.19
-85.47
-85.98
-86.54
-87.15
-87.94
-89.09
-90.8
-93.22
-96.39
-100.13
-104.07
-107.72
-110.53
-112
-111.49
-108.21
-101.27
-89.95
-74.24
-55.15
-34.8
-15.86
-0.9
8.28
10.97
7.87
1.19
-5.59
-8.35
-3.69
9.57
29.57
51.69
70.22
80.67
81.47
74.29
62.78
50.67
40.09
31.35
23.66
16.42
9.9
5.17
3.32
4.77
8.98
14.62
20.35
25.38
29.85
34.68
41.02
49.72
61.01
74.46
89.35
104.95
120.6
135.63
149.09
159.64
165.88
166.77
162.03
152.17
138.28
121.59
103.27
84.4
66.23
50.15
37.41
28.7
23.8
21.52
20.08
17.77
13.35
6.46
-2.55
-12.96
-24.03
-35.28
-46.55
-57.72
-68.43
-77.8
-84.47
-86.97
-84.32
-76.48
-64.38
-49.57
-33.65
-17.69
-2.19
12.76
27.09
40.5
52.38
61.96
68.56
71.73
71.4
67.99
62.33
55.62
49.16
44.08
40.95
39.74
39.75
39.89
39.1
36.65
32.39
26.71
20.33
14.02
8.34
3.62
-0.16
-3.15
-5.64
-7.99
-10.61
-13.83
-17.76
-22.05
-25.9
-28.23
-27.98
-24.51
-17.84
-8.61
2.1
13.17
23.67
33.06
41.12
47.78
52.98
56.62
58.55
58.68
57.17
54.41
51.04
47.79
45.33
44.04
43.91
44.59
45.47
45.93
45.49
44.01
41.71
39.08
36.68
34.97
34.08
33.68
33.06
31.43
28.27
23.82
19.24
16.42
17.4
23.52
34.88
50.24
67.56
84.95
101.39
117.05
132.9
149.93
168.44
187.78
206.49
222.67
234.27
239.23
235.74
222.86
201.27
173.72
144.47
117.82
96.28
79.46
64.53
47.93
27.56
3.94
-20.2
-41.67
-58.64
-71.51
-82.32
-93.31
-105.65
-119.1
-132.58
-145.18
-156.62
-167.09
-176.59
-184.39
-189.04
-188.99
-183.48
-173.12
-159.89
-146.4
-134.96
-126.67
-121.1
-116.63
-111.22
-103.31
-92.48
-79.56
-66.16
-54.05
-44.61
-38.44
-35.54
-35.43
-37.4
-40.54
-43.73
-45.65
-45.09
-41.28
-34.23
-24.8
-14.35
-4.22
4.68
12.02
17.86
22.25
24.93
25.33
22.81
17.09
8.62
-1.34
-10.96
-18.32
-21.84
-20.76
-15.17
-6.02
5.25
17.03
27.95
37.14
44.28
49.46
53.03
55.36
56.74
57.37
57.36
56.85
55.96
54.81
53.48
52.01
50.34
48.38
46.03
43.26
40.07
36.56
32.89
29.2
25.56
22.01
18.42
14.59
10.32
5.44
-0.04
-5.89
-11.76
-17.23
-22.05
-26.19
-29.91
-33.65
-37.91
-43.08
-49.3
-56.37
-63.66
-70.17
-74.66
-75.94
-73.21
-66.43
-56.36
-44.37
-32.05
-20.78
-11.43
-4.3
0.71
3.93
5.72
6.43
6.36
5.86
5.21
4.71
4.59
5.07
6.3
8.35
11.12
14.38
17.86
21.42
25.06
28.92
33.07
37.38
41.6
45.47
49.07
52.86
57.61
64.09
72.71
83.32
95.36
108.05
120.66
132.56
143.03
151.1
155.39
154.33
146.6
131.71
110.3
84.09
55.45
26.81
0.2
-22.92
-41.54
-55.06
-63.36
-67.04
-67.56
-66.95
-67.24
-69.55
-73.69
-78.31
-81.59
-82.28
-80.23
-76.36
-72.03
-68.36
-65.71
-63.73
-61.69
-59.02
-55.48
-51.15
-46.26
-40.96
-35.26
-29.12
-22.51
-15.46
-8.08
-0.46
7.33
15.21
23.16
31.22
39.57
48.54
58.47
69.49
81.38
93.44
104.7
114.15
121
124.85
125.68
123.83
119.94
114.83
109.32
103.96
98.83
93.46
87.11
79.03
68.88
56.81
43.36
29
13.93
-2.03
-19.19
-37.53
-56.36
-74.29
-89.63
-101.05
-108.25
-111.97
-113.67
-114.73
-115.65
-115.92
-114.51
-110.59
-103.83
-94.27
-82.12
-67.83
-52.68
-39.18
-30.73
-30.18
-38.2
-52.36
-67.84
-79.73
-85.36
-85.57
-83.75
-83.65
-86.94
-92.44
-96.92
-97.19
-91.69
-81.02
-67.19
-52.32
-37.81
-24.04
-10.88
1.56
12.42
20.23
23.53
21.76
15.69
7.4
-0.42
-5.58
-7.08
-5.38
-1.97
1.45
3.65
4.22
3.51
2.24
1.05
0.16
-0.67
-2.07
-4.73
-9.22
-15.81
-24.38
-34.45
-45.31
-56.22
-66.56
-76
-84.42
-91.89
-98.49
-104.07
-108.15
-109.72
-107.24
-98.72
-82.27
-56.8
-22.71
17.73
60.69
101.76
137.16
164.9
185.12
199.53
210.38
219.19
226.1
229.87
228.43
219.84
203
177.99
146.01
109.04
69.31
28.95
-10.23
-46.83
-79.74
-108.12
-131.51
-149.92
-163.87
-174.19
-181.67
-186.67
-189.08
-188.55
-184.98
-178.9
-171.3
-163.24
-155.3
-147.4
-139.11
-130.26
-121.15
-112.32
-103.96
-95.34
-84.96
-71.38
-54.16
-34.46
-14.71
2.44
15.24
23.46
28.22
31.13
33.49
35.78
37.68
38.57
38
36.03
33.21
30.33
28.1
26.89
26.63
26.84
26.94
26.46
25.31
23.72
22.03
20.47
18.86
16.77
13.65
9.16
3.5
-2.68
-8.51
-13.33
-17.04
-20.19
-23.54
-27.62
-32.17
-36.07
-37.67
-35.5
-28.91
-18.41
-5.45
8.15
20.85
31.79
40.74
47.78
52.91
55.91
56.51
54.67
50.87
46.07
41.54
38.36
37.04
37.4
38.74
40.21
41.17
41.41
41.02
40.2
39.02
37.37
35.06
31.97
28.19
23.91
19.34
14.5
9.33
3.81
-1.82
-6.94
-10.61
-11.86
-10.08
-5.24
2.01
10.62
19.38
27.32
33.89
38.92
42.48
44.62
45.39
44.78
42.86
39.87
36.16
32.15
28.18
24.46
21.03
17.89
14.98
12.29
9.77
7.33
4.85
2.23
-0.6
-3.65
-6.94
-10.56
-14.65
-19.19
-23.85
-27.82
-29.96
-29.18
-24.86
-17.2
-7.19
3.76
14.35
23.71
31.59
38.16
43.7
48.41
52.28
55.17
56.97
57.7
57.62
57.13
56.66
56.62
57.18
58.25
59.51
60.47
60.65
59.69
57.43
53.91
49.41
44.3
38.96
33.63
28.32
22.71
16.32
8.61
-0.72
-11.58
-23.4
-35.17
-45.65
-53.75
-58.75
-60.49
-59.32
-55.88
-50.91
-44.96
-38.54
-32.09
-26.08
-21.03
-17.26
-14.8
-13.29
-12.14
-10.75
-8.76
-6.15
-3.22
-0.47
1.39
1.43
-1.23
-7
-15.41
-25.16
-34.74
-43.23
-50.8
-58.49
-67.22
-76.79
-85.49
-90.71
-90.18
-83.11
-70.53
-54.61
-37.63
-21.11
-5.56
9.16
23.29
36.97
50.32
63.46
76.63
90
103.75
118.1
133.38
150.05
168.58
189.13
211.27
234.01
255.93
275.67
292.23
305.16
314.56
320.85
324.5
325.87
325.18
322.42
317.53
310.37
300.74
288.34
272.72
253.18
228.95
199.24
163.59
122.01
75.08
24
-29.41
-82.86
-133.74
-179.55
-218.43
-249.6
-273.57
-291.93
-306.62
-319.06
-329.48
-336.85
-339.38
-335.48
-324.6
-307.53
-286.14
-262.76
-239.4
-217.46
-197.66
-180.21
-164.92
-151.31
-138.63
-126.09
-113.09
-99.45
-85.44
-71.56
-58.2
-45.57
-33.8
-23.13
-14
-6.99
-2.42
-0.1
0.65
0.65
0.51
0.33
-0.15
-1.34
-3.37
-5.98
-8.57
-10.47
-11.22
-10.81
-9.68
-8.58
-8.17
-8.76
-10.15
-11.81
-13.09
-13.6
-13.37
-12.73
-12.14
-11.92
-12.05
-12.28
-12.22
-11.64
-10.57
-9.39
-8.63
-8.84
-10.32
-13.07
-16.69
-20.5
-23.66
-25.27
-24.59
-21.24
-15.35
-7.59
0.97
9.16
16.09
21.36
25.09
27.76
29.95
32.04
34.19
36.37
38.42
40.2
41.59
42.47
42.82
42.68
42.19
41.55
41
40.64
40.45
40.29
39.93
39.11
37.63
35.39
32.35
28.66
24.6
20.54
16.94
14.07
12.02
10.52
9.04
6.94
3.68
-0.98
-6.86
-13.49
-20.24
-26.56
-32.17
-37.16
-41.86
-46.73
-52.08
-57.91
-63.86
-69.27
-73.28
-75.2
-74.63
-71.66
-66.87
-61.1
-55.22
-49.84
-45.18
-41.13
-37.4
-33.7
-29.85
-25.83
-21.67
-17.44
-13.2
-9.02
-5.02
-1.32
1.98
4.87
7.4
9.65
11.76
13.85
16.11
18.66
21.52
24.55
27.53
30.26
32.65
34.75
36.62
38.22
39.46
40.25
40.71
41.13
41.74
42.48
42.78
41.7
38.29
31.94
22.68
11.12
-1.7
-14.57
-26.24
-35.57
-41.75
-44.5
-44.18
-41.67
-38.14
-34.58
-31.57
-29.22
-27.38
-25.84
-24.51
-23.45
-22.68
-22.16
-21.79
-21.44
-21.1
-20.96
-21.32
-22.5
-24.61
-27.34
-29.94
-31.32
-30.37
-26.38
-19.37
-10.23
-0.38
8.62
15.59
19.95
21.66
20.99
18.21
13.54
7.2
-0.42
-8.74
-17.09
-24.95
-32.07
-38.56
-44.62
-50.36
-55.56
-59.72
-62.16
-62.23
-59.57
-54.18
-46.48
-37.26
-27.37
-17.54
-8.13
0.97
10.15
19.81
30.15
40.96
51.7
61.71
70.35
77.13
81.8
84.28
84.75
83.63
81.52
79.11
77
75.39
74.04
72.44
70.02
66.6
62.42
58.07
54.14
50.88
48.06
45.05
41.21
36.16
29.96
23.06
15.93
8.96
2.24
-4.31
-10.85
-17.46
-24.08
-30.49
-36.31
-41.04
-44.1
-45.03
-43.53
-39.67
-33.86
-26.81
-19.34
-12.16
-5.71
-0.15
4.64
8.77
12.32
15.18
17.12
17.94
17.62
16.4
14.68
12.96
11.62
10.88
10.74
11.06
11.64
12.3
12.82
13.07
12.94
12.37
11.35
9.89
8.02
5.76
3.13
0.2
-2.93
-6.08
-9.09
-11.83
-14.27
-16.54
-18.86
-21.53
-24.84
-28.97
-33.98
-39.68
-45.61
-51.07
-55.19
-57.14
-56.31
-52.52
-46.07
-37.72
-28.49
-19.43
-11.37
-4.74
0.4
4.25
7.1
9.17
10.53
11.21
11.22
10.71
9.93
9.16
8.59
8.28
8.16
8.12
8.06
7.99
7.96
8.04
8.21
8.31
8.11
7.34
5.87
3.75
1.22
-1.42
-3.91
-6.19
-8.4
-10.79
-13.63
-17.1
-21.29
-26.13
-31.43
-36.77
-41.57
-45.11
-46.72
-45.99
-42.91
-37.86
-31.55
-24.8
-18.39
-12.9
-8.68
-5.88
-4.51
-4.44
-5.41
-7.02
-8.77
-10.18
-10.93
-10.96
-10.54
-10.11
-10.06
-10.36
-10.44
-9.13
-4.97
3.37
16.62
34.5
55.66
77.94
98.88
116.31
128.86
136.19
138.77
137.52
133.32
126.78
118.28
108.23
97.37
86.95
78.42
73.03
71.31
72.79
76.22
80.02
82.87
84.05
83.46
81.38
78.24
74.46
70.57
67.13
64.68
63.41
62.95
62.38
60.51
56.41
49.75
40.8
30.09
18.04
4.75
-9.89
-25.89
-42.9
-60.25
-77.14
-92.98
-107.49
-120.79
-133.13
-144.74
-155.75
-166.22
-176.17
-185.64
-194.47
-202.22
-207.98
-210.37
-207.88
-199.21
-183.83
-162.2
-135.84
-107.08
-78.57
-52.78
-31.5
-15.61
-4.96
1.45
5.18
7.87
10.81
14.7
19.61
25.16
30.8
36.01
40.39
43.65
45.53
45.89
44.82
42.59
39.68
36.57
33.58
30.85
28.27
25.61
22.54
18.74
13.87
7.7
0.33
-7.7
-15.36
-21.37
-24.56
-24.31
-20.71
-14.51
-6.82
1.28
9.01
16
22.16
27.51
32.04
35.63
38.18
39.7
40.39
40.63
40.8
41.15
41.71
42.34
42.84
43.14
43.31
43.58
44.14
45.02
46.03
46.77
46.76
45.72
43.54
40.42
36.66
32.56
28.2
23.43
17.97
11.5
3.85
-4.96
-14.68
-24.89
-35
-44.16
-51.39
-55.69
-56.44
-53.64
-48.05
-40.93
-33.65
-27.22
-22.04
-18.01
-14.75
-11.95
-9.47
-7.38
-5.72
-4.45
-3.38
-2.24
-0.77
1.12
3.37
5.73
7.86
9.43
10.26
10.36
9.87
8.97
7.76
6.28
4.56
2.7
0.93
-0.49
-1.39
-1.86
-2.24
-3.04
-4.67
-7.35
-10.88
-14.84
-18.61
-21.74
-24.03
-25.71
-27.33
-29.53
-32.75
-36.93
-41.45
-45.27
-47.23
-46.51
-42.77
-36.4
-28.23
-19.33
-10.64
-2.78
4.01
9.79
14.7
18.85
22.28
24.91
26.73
27.82
28.32
28.5
28.55
28.74
29.29
30.5
32.49
35.2
38.14
40.58
41.77
41.27
39.18
36.14
32.97
30.31
28.34
26.76
25.04
22.76
19.85
16.52
13.17
10.08
7.32
4.74
2.04
-1.09
-4.89
-9.46
-14.75
-20.43
-25.87
-30.17
-32.4
-31.91
-28.58
-22.93
-15.97
-8.76
-2.13
3.55
8.28
12.2
15.38
17.74
19.09
19.35
18.61
17.12
15.2
13.24
11.58
10.53
10.35
11.13
12.71
14.65
16.36
17.31
17.25
16.3
14.76
13
11.18
9.33
7.45
5.65
4.28
3.74
4.29
5.78
7.69
9.3
9.92
9.17
6.99
3.59
-0.69
-5.47
-10.32
-14.68
-17.88
-19.23
-18.27
-14.93
-9.64
-3.21
3.45
9.55
14.65
18.71
21.93
24.6
26.88
28.76
30.09
30.74
30.67
30.05
29.11
28.1
27.2
26.47
25.84
25.26
24.61
23.85
22.97
22.01
21.01
19.97
18.86
17.57
15.94
13.87
11.37
8.63
5.9
3.42
1.36
-0.28
-1.56
-2.59
-3.48
-4.37
-5.51
-7.12
-9.43
-12.38
-15.52
-18.05
-18.94
-17.23
-12.42
-4.62
5.43
16.6
27.78
38.06
46.96
54.35
60.24
64.65
67.47
68.57
67.86
65.48
61.77
57.16
52.01
46.45
40.26
32.98
24.1
13.3
0.68
-13.14
-26.98
-39.34
-48.77
-54.33
-55.95
-54.51
-51.59
-48.96
-47.99
-49.27
-52.52
-56.84
-61.06
-64.21
-65.78
-65.73
-64.43
-62.47
-60.33
-58.27
-56.21
-53.73
-50.31
-45.53
-39.29
-31.87
-23.87
-16.04
-9.01
-3.17
1.48
5.2
8.33
11.11
13.48
15.23
16.14
16.24
15.85
15.47
15.51
16.13
17.13
18.15
18.86
19.13
19.04
18.69
18.1
17.15
15.64
13.46
10.65
7.4
3.97
0.63
-2.38
-4.92
-6.93
-8.55
-10.04
-11.78
-14.15
-17.38
-21.48
-26.2
-31.1
-35.6
-39.07
-40.9
-40.61
-38
-33.25
-26.96
-19.98
-13.21
-7.31
-2.6
0.97
3.62
5.6
7.05
8.03
8.56
8.71
8.6
8.41
8.23
8.11
8.05
8.06
8.2
8.58
9.25
10.14
11.03
11.58
11.48
10.54
8.8
6.46
3.88
1.38
-0.79
-2.58
-4.14
-5.82
-8.07
-11.27
-15.53
-20.51
-25.4
-29.08
-30.49
-28.97
-24.54
-17.81
-9.81
-1.6
6
12.51
17.77
21.79
24.64
26.42
27.24
27.28
26.76
25.85
24.64
23.09
21.09
18.56
15.46
11.87
7.93
3.77
-0.52
-4.9
-9.39
-13.99
-18.71
-23.51
-28.26
-32.68
-36.45
-39.24
-40.98
-41.86
-42.35
-43.11
-44.65
-47.15
-50.33
-53.49
-55.66
-55.87
-53.39
-47.89
-39.54
-29
-17.27
-5.48
5.35
14.57
21.92
27.57
31.99
35.69
39.07
42.19
44.81
46.46
46.67
45.21
42.13
37.79
32.73
27.49
22.42
17.68
13.18
8.73
4.1
-0.82
-5.94
-10.99
-15.64
-19.6
-22.72
-25.05
-26.81
-28.35
-30.06
-32.23
-34.97
-37.97
-40.56
-41.7
-40.33
-35.78
-28.09
-18.05
-7.02
3.61
12.76
19.93
25.12
28.55
30.49
31.13
30.68
29.38
27.62
25.81
24.25
23.06
22.17
21.49
20.96
20.67
20.78
21.41
22.58
24.11
25.7
26.98
27.65
27.65
27.12
26.41
25.91
25.91
26.47
27.43
28.41
28.87
28.35
26.57
23.6
19.97
16.55
14.31
13.97
15.77
19.39
24.13
29.16
33.79
37.53
40.06
41.21
40.97
39.5
37.12
34.22
31.05
27.62
23.81
19.54
15
10.62
6.98
4.47
3.19
2.89
3.15
3.57
3.82
3.76
3.31
2.49
1.34
-0.08
-1.79
-3.83
-6.28
-9.09
-12.11
-15.08
-17.73
-19.93
-21.73
-23.34
-25.02
-26.95
-29.26
-32.06
-35.43
-39.37
-43.64
-47.68
-50.65
-51.69
-50.23
-46.22
-40.19
-33.07
-25.87
-19.37
-14.01
-9.9
-6.93
-4.88
-3.54
-2.73
-2.39
-2.48
-3.03
-4.02
-5.34
-6.84
-8.33
-9.75
-11.08
-12.4
-13.73
-15.06
-16.29
-17.36
-18.36
-19.46
-20.88
-22.78
-25.17
-27.92
-30.85
-33.75
-36.47
-38.95
-41.15
-43.12
-44.92
-46.58
-48.07
-49.33
-50.25
-50.75
-50.88
-50.76
-50.55
-50.33
-50.17
-50.16
-50.5
-51.48
-53.32
-55.89
-58.56
-60.28
-59.96
-56.93
-51.25
-43.71
-35.4
-27.28
-19.84
-13.02
-6.51
0.02
6.71
13.63
20.86
28.59
37.13
46.71
57.38
68.95
81.02
93.07
104.65
115.45
125.38
134.46
142.8
150.48
157.44
163.46
168.25
171.41
172.52
171.18
167.08
160.09
150.4
138.5
125.13
111.06
96.82
82.62
68.38
53.94
39.23
24.5
10.15
-3.51
-16.39
-28.76
-41.01
-53.51
-66.36
-79.41
-92.25
-104.34
-114.91
-123.08
-127.89
-128.63
-125.21
-118.28
-109.2
-99.54
-90.51
-82.56
-75.39
-68.26
-60.56
-52.11
-43.34
-34.99
-27.84
-22.31
-18.37
-15.54
-13.11
-10.35
-6.76
-2.13
3.37
9.34
15.25
20.61
25.05
28.41
30.76
32.21
32.85
32.62
31.29
28.65
24.74
19.9
14.74
9.84
5.5
1.6
-2.29
-6.58
-11.41
-16.5
-21.2
-24.69
-26.23
-25.29
-21.7
-15.55
-7.1
3.22
14.92
27.44
40.18
52.53
63.97
74.05
82.56
89.52
95.24
100.25
105.18
110.63
116.87
123.66
129.97
134.01
133.48
126.2
110.8
87.4
57.8
25.14
-6.95
-35.33
-58.09
-74.82
-86.33
-93.91
-98.76
-101.6
-102.73
-102.35
-100.82
-98.71
-96.66
-95.03
-93.74
-92.41
-90.65
-88.42
-86.17
-84.69
-84.6
-85.95
-87.94
-89.1
-87.85
-83.06
-74.61
-63.42
-51.18
-39.7
-30.3
-23.46
-18.8
-15.42
-12.39
-9.17
-5.8
-2.71
-0.48
0.48
0.12
-1.29
-3.3
-5.45
-7.47
-9.24
-10.76
-12.05
-13.17
-14.14
-14.99
-15.75
-16.36
-16.65
-16.38
-15.32
-13.43
-10.92
-8.25
-5.94
-4.4
-3.8
-4.08
-5.1
-6.72
-8.96
-11.86
-15.45
-19.64
-24.23
-28.96
-33.54
-37.64
-40.78
-42.34
-41.66
-38.25
-32.02
-23.45
-13.39
-2.97
6.77
15.08
21.52
25.98
28.56
29.49
29.02
27.44
24.99
21.83
18.07
13.74
8.83
3.23
-3.22
-10.71
-19.29
-28.7
-38.32
-47.23
-54.53
-59.66
-62.72
-64.56
-66.45
-69.44
-73.94
-79.47
-84.98
-89.52
-92.71
-94.98
-97.16
-99.87
-103.04
-105.85
-107.26
-106.6
-103.99
-100.14
-95.8
-91.04
-85.03
-76.48
-64.29
-48.31
-29.58
-10.01
8.3
23.79
35.91
45.05
52.12
57.98
63.12
67.56
71.05
73.36
74.5
74.78
74.61
74.34
74.08
73.76
73.15
72.13
70.73
69.12
67.5
66
64.53
62.83
60.56
57.42
53.36
48.6
43.62
38.97
35.07
32.02
29.51
26.91
23.43
18.41
11.51
2.95
-6.55
-15.85
-23.76
-29.24
-31.81
-31.62
-29.27
-25.66
-21.56
-17.4
-13.32
-9.26
-5.18
-1.17
2.59
5.87
8.48
10.32
11.3
11.38
10.53
8.89
6.75
4.63
3.21
3.12
4.76
8.23
13.31
19.45
25.93
31.88
36.48
39.03
39.09
36.66
32.12
26.19
19.62
12.94
6.41
0.09
-5.78
-10.52
-13.01
-11.93
-6.29
4.16
18.73
35.93
53.77
70.13
82.95
90.45
91.37
85.25
72.63
55.12
35.07
15.17
-2.08
-14.75
-21.7
-22.62
-18.06
-9.3
1.8
13.17
22.99
30.07
34.08
35.36
34.64
32.55
29.42
25.21
19.72
12.91
5.07
-3.24
-11.28
-18.33
-23.87
-27.43
-28.59
-26.88
-22.04
-14.18
-3.97
7.69
20.09
33.2
47.68
64.26
82.94
102.32
119.69
131.79
136.07
131.61
119.43
102.01
82.2
62.17
42.78
23.71
4.17
-16.15
-36.55
-55.37
-70.76
-81.91
-89.9
-97.75
-109.15
-126.59
-149.74
-174.78
-195.49
-205.05
-198
-171.33
-124.85
-61.26
14.04
93.03
166.11
223.88
259.54
270.8
260.29
234.18
199.76
163.11
128.1
96.64
69.78
48.36
33.04
23.68
18.93
16.39
13.47
8.35
0.6
-9.01
-19.07
-28.46
-37.06
-45.73
-55.89
-68.48
-83.27
-98.6
-111.86
-120.59
-123.35
-120.24
-112.56
-102.21
-90.85
-79.55
-68.75
-58.61
-49.23
-40.85
-33.66
-27.7
-22.68
-18.07
-13.12
-7.11
0.59
10.5
22.89
37.63
54.17
71.51
88.39
103.53
115.81
124.44
129.12
130.11
128.24
124.84
121.55
119.88
120.69
123.73
127.53
129.72
127.72
119.64
104.75
84.01
59.93
36.03
15.98
2.44
-3.83
-4.2
-1.8
-0.51
-3.9
-14.28
-32.16
-56.23
-83.72
-111.03
-134.49
-151.11
-159.29
-159.46
-154.29
-148.35
-146.82
-153.78
-170.44
-194.15
-218.85
-236.87
-241.56
-229.54
-201.59
-162.01
-116.96
-72.56
-33.75
-3.78
15.66
24.38
23.61
15.86
4.54
-6.91
-15.81
-20.88
-22.22
-20.99
-18.78
-17.07
-16.9
-18.68
-22.25
-27.01
-32.16
-37
-41.1
-44.4
-47.14
-49.83
-53.04
-57.2
-62.32
-67.83
-72.62
-75.36
-75.05
-71.4
-65.03
-57.19
-49.22
-42.01
-35.72
-29.96
-24.15
-18.14
-12.33
-7.64
-5.08
-5.36
-8.5
-13.91
-20.54
-27.34
-33.58
-39.05
-44.11
-49.49
-56.07
-64.55
-75.2
-87.65
-100.73
-112.3
-119.19
-117.46
-103.4
-74.99
-33.32
16.97
68.8
114.99
150.93
175.79
191.75
201.63
206.51
204.96
194.34
173.28
143.62
110.61
80.96
60.24
50.97
52.43
61.86
75.82
91
103.98
111.11
108.89
95.36
71.75
42.96
16.45
-0.48
-3.75
5.54
21.19
34.08
35.72
21.42
-8.07
-46.89
-86.14
-116.69
