-11.08
-14.58
-19.91
-26.11
-31.62
-34.74
-34.04
-28.79
-19.14
-6.1
8.75
23.64
37
47.75
55.35
59.68
60.97
59.53
55.76
50.12
43.15
35.47
27.7
20.4
13.98
8.59
4.16
0.4
-3.08
-6.58
-10.29
-14.21
-18.17
-21.97
-25.49
-28.72
-31.82
-35.09
-38.93
-43.71
-49.63
-56.48
-63.44
-69.1
-71.73
-69.84
-62.66
-50.58
-35.03
-17.97
-1.32
13.55
25.93
35.6
42.49
46.53
47.64
45.96
42.02
36.7
31.03
25.96
22.03
19.28
17.34
15.59
13.46
10.66
7.29
3.73
0.4
-2.48
-5.07
-7.92
-11.68
-16.88
-23.69
-31.82
-40.51
-48.69
-55.08
-58.39
-57.62
-52.31
-42.73
-29.92
-15.42
-0.87
12.37
23.42
31.91
37.75
40.94
41.58
39.87
36.25
31.45
26.36
21.84
18.43
16.21
14.84
13.66
12.12
9.9
7.05
3.89
0.8
-2.03
-4.72
-7.65
-11.36
-16.29
-22.65
-30.33
-38.8
-47.14
-54.05
-58.07
-57.91
-52.89
-43.18
-29.87
-14.65
0.61
14.42
25.88
34.69
40.9
44.67
46.14
45.42
42.74
38.57
33.64
28.72
24.47
21.16
18.68
16.6
14.4
11.72
8.52
4.96
1.38
-1.97
-5.05
-8.06
-11.42
-15.68
-21.29
-28.48
-37.06
-46.25
-54.73
-60.79
-62.81
-59.64
-51.14
-38.19
-22.47
-5.98
9.58
23.1
34.17
42.8
49.18
53.39
55.42
55.28
53.21
49.71
45.46
41.14
37.18
33.69
30.47
27.17
23.44
19.13
14.33
9.34
4.56
0.29
-3.38
-6.66
-9.98
-13.83
-18.61
-24.59
-31.83
-40.14
-48.97
-57.27
-63.53
-66.08
-63.57
-55.55
-42.74
-26.86
-10.09
5.61
18.95
29.48
37.31
42.78
46.18
47.62
47.21
45.11
41.73
37.59
33.28
29.26
25.82
23
20.66
18.58
16.45
14.08
11.28
8.03
4.39
0.48
-3.6
-7.82
-12.33
-17.36
-23.17
-29.95
-37.68
-45.96
-53.95
-60.39
-63.79
-62.81
-56.75
-45.82
-31.26
-14.95
1.04
15.07
26.24
34.36
39.82
43.11
44.67
44.74
43.47
41.02
37.69
33.95
30.26
27.02
24.42
22.41
20.76
19.19
17.47
15.42
12.92
9.89
6.22
1.87
-3.13
-8.6
-14.3
-20.01
-25.76
-31.8
-38.53
-46.09
-54.09
-61.36
-66.24
-67.05
-62.73
-53.29
-39.82
-24.04
-7.82
7.41
20.75
31.74
40.17
45.98
49.16
49.95
48.78
46.22
42.83
38.98
34.94
30.87
26.99
23.55
20.81
18.87
17.55
16.38
14.8
12.34
8.78
4.27
-0.81
-5.99
-10.92
-15.52
-19.97
-24.67
-30.07
-36.56
-44.25
-52.8
-61.31
-68.28
-71.97
-70.8
-63.97
-51.74
-35.48
-17.27
0.67
16.56
29.41
38.93
45.36
49.15
50.76
50.6
49.06
46.53
43.39
39.97
36.54
33.26
30.24
27.51
25.09
22.94
20.99
19.09
17.04
14.58
11.43
7.43
2.55
-3.01
-8.86
-14.57
-19.85
-24.75
-29.71
-35.39
-42.3
-50.38
-58.69
-65.48
-68.72
-66.83
-59.27
-46.9
-31.67
-16.01
-2.05
8.97
16.87
22.31
26.43
30.42
35.12
40.84
47.31
53.78
59.26
62.84
63.97
62.57
58.97
53.65
47.06
39.48
31.12
22.2
13.1
4.31
-3.64
-10.37
-15.77
-20
-23.4
-26.49
-29.8
-33.92
-39.29
-46.03
-53.63
-60.93
-66.2
-67.66
-64.07
-55.23
-42.12
-26.6
-10.75
3.67
15.62
24.76
31.17
35.07
36.65
36.08
33.59
29.63
24.8
19.85
15.37
11.76
9.08
7.12
5.55
4
2.23
0.15
-2.18
-4.65
-7.19
-9.91
-13.04
-16.84
-21.58
-27.38
-34.23
-41.98
-50.16
-57.98
-64.2
-67.34
-66.02
-59.49
-48
-32.82
-15.94
0.58
15.12
26.81
35.43
41.16
44.22
44.82
43.15
39.61
34.85
29.7
24.97
21.15
18.29
16.06
13.94
11.47
8.5
5.19
1.87
-1.18
-3.89
-6.44
-9.21
-12.59
-16.98
-22.69
-29.86
-38.33
-47.39
-55.76
-61.73
-63.6
-60.26
-51.63
-38.69
-23.19
-7.08
8.07
21.33
32.26
40.78
46.79
50.14
50.74
48.76
44.74
39.57
34.19
29.4
25.55
22.53
19.9
17.19
14.07
10.52
6.77
3.12
-0.27
-3.39
-6.48
-9.91
-14.06
-19.25
-25.71
-33.46
-42.17
-51.02
-58.64
-63.37
-63.59
-58.39
-47.87
-33.3
-16.65
-0.03
14.88
27.22
36.8
43.86
48.65
51.27
51.73
50.09
46.66
42.05
36.99
32.2
28.08
24.7
21.8
19.01
16.03
12.78
9.37
6.02
2.84
-0.27
-3.58
-7.46
-12.2
-18.01
-24.95
-32.98
-41.78
-50.63
-58.28
-63.14
-63.67
-58.91
-48.88
-34.71
-18.26
-1.59
13.64
26.4
36.36
43.55
48.1
50.09
49.62
46.89
42.4
36.9
31.23
26.15
22.08
18.98
16.47
14.04
11.31
8.2
4.9
1.73
-1.13
-3.74
-6.46
-9.79
-14.2
-19.99
-27.24
-35.67
-44.66
-53.15
-59.71
-62.77
-61.02
-53.85
-41.68
-25.92
-8.59
8.25
23.03
34.86
43.52
49.14
51.94
52.15
50.02
45.99
40.77
35.23
30.2
26.23
23.39
21.3
19.35
16.98
13.95
10.41
6.78
3.47
0.62
-1.95
-4.75
-8.35
-13.21
-19.55
-27.28
-36.03
-45.11
-53.45
-59.66
-62.26
-60.05
-52.57
-40.34
-24.85
-8.09
7.94
21.8
32.8
40.88
46.37
49.63
50.86
50.2
47.82
44.07
39.52
34.85
30.67
27.34
24.85
22.88
20.99
18.75
15.93
12.57
8.89
5.15
1.5
-2.11
-5.92
-10.32
-15.73
-22.46
-30.55
-39.6
-48.64
-56.22
-60.66
-60.54
-55.13
-44.69
-30.42
-14.11
2.32
17.31
29.85
39.44
45.99
49.58
50.42
48.83
45.3
40.55
35.39
30.59
26.65
23.68
21.39
19.25
16.77
13.63
9.92
5.99
2.27
-0.91
-3.57
-6.02
-8.79
-12.42
-17.33
-23.73
-31.48
-40.03
-48.41
-55.2
-58.82
-57.95
-51.94
-41.11
-26.77
-10.78
4.97
19.04
30.63
39.47
45.6
49.14
50.21
49.03
45.99
41.72
37.06
32.78
29.45
27.23
25.91
24.99
23.89
22.19
19.71
16.57
12.96
9.05
4.86
0.2
-5.17
-11.52
-18.98
-27.5
-36.67
-45.65
-53.22
-57.92
-58.42
-53.99
-44.8
-31.95
-17.19
-2.37
11
21.97
30.17
35.53
38.14
38.1
35.67
31.37
26
20.54
15.86
12.45
10.27
8.82
7.39
5.36
2.44
-1.28
-5.39
-9.42
-13.02
-16.11
-18.89
-21.84
-25.55
-30.55
-37.06
-44.72
-52.52
-58.87
-62.03
-60.62
-54.15
-43.21
-29.25
-14.19
0.22
12.76
22.87
30.49
35.77
38.84
39.77
38.63
35.71
31.59
27.05
22.89
19.57
17.13
15.18
13.17
10.68
7.68
4.46
1.45
-1.07
-3.18
-5.28
-7.97
-11.73
-16.89
-23.48
-31.28
-39.71
-47.79
-54.19
-57.41
-56.2
-50
-39.29
-25.49
-10.52
3.75
16.11
26.01
33.5
38.75
41.81
42.58
41.01
37.42
32.55
27.4
22.9
19.52
17.2
15.39
13.46
10.94
7.75
4.15
0.58
-2.62
-5.32
-7.73
-10.23
-13.32
-17.43
-22.85
-29.63
-37.41
-45.43
-52.48
-57.11
-57.96
-54.19
-45.79
-33.69
-19.47
-4.89
8.51
19.78
28.49
34.61
38.28
39.61
38.79
36.06
31.9
26.99
22.11
17.91
14.77
12.68
11.32
10.16
8.73
6.77
4.27
1.41
-1.56
-4.47
-7.32
-10.29
-13.66
-17.76
-22.9
-29.22
-36.59
-44.43
-51.66
-56.83
-58.48
-55.59
-47.97
-36.38
-22.3
-7.5
6.47
18.56
28.27
35.5
40.31
42.79
43.07
41.36
38.1
33.89
29.46
25.43
22.2
19.8
17.96
16.24
14.23
11.72
8.76
5.56
2.34
-0.8
-3.93
-7.23
-10.9
-15.15
-20.14
-26.06
-32.98
-40.68
-48.45
-55.03
-58.79
-58.27
-52.69
-42.31
-28.4
-12.85
2.41
15.91
26.86
35.12
40.91
44.52
46.13
45.83
43.7
40.02
35.28
30.21
25.54
21.8
19.14
17.28
15.68
13.82
11.41
8.45
5.21
1.99
-1.08
-4.11
-7.41
-11.33
-16.13
-21.87
-28.47
-35.67
-43.02
-49.81
-54.97
-57.26
-55.5
-49.04
-38.1
-23.84
-8.13
7.02
20.02
30
36.84
40.91
42.71
42.61
40.87
37.72
33.53
28.86
24.34
20.5
17.6
15.51
13.81
11.97
9.6
6.58
3.12
-0.39
-3.58
-6.33
-8.85
-11.66
-15.29
-20.16
-26.37
-33.63
-41.38
-48.73
-54.61
-57.83
-57.32
-52.44
-43.25
-30.68
-16.28
-1.84
11.15
21.84
29.94
35.53
38.73
39.57
38.13
34.75
30.14
25.28
21.06
17.97
15.89
14.26
12.4
9.86
6.67
3.22
0.01
-2.58
-4.57
-6.32
-8.37
-11.31
-15.61
-21.52
-28.98
-37.52
-46.22
-53.67
-58.3
-58.73
-54.24
-45.04
-32.3
-17.71
-3.03
10.37
21.69
30.6
37.01
40.89
42.22
41.14
38.1
33.82
29.18
24.94
21.57
19.03
16.96
14.85
12.3
9.25
5.9
2.61
-0.36
-2.98
-5.45
-8.14
-11.45
-15.71
-21.12
-27.69
-35.16
-42.79
-49.36
-53.4
-53.48
-48.8
-39.52
-26.73
-12.16
2.39
15.57
26.6
35.27
41.57
45.54
47.12
46.34
43.41
38.92
33.66
28.48
23.95
20.26
17.2
14.38
11.49
8.44
5.36
2.48
-0.16
-2.66
-5.36
-8.64
-12.8
-18.04
-24.44
-31.92
-40.1
-48.22
-54.99
-58.8
-58.14
-52.19
-41.18
-26.51
-10.28
5.29
18.49
28.38
34.77
38.05
38.9
38.29
37.4
37.52
39.76
44.63
51.78
59.96
67.37
72.29
73.69
71.69
67.49
62.86
59.39
57.85
57.89
58.28
57.5
54.38
48.34
39.46
28.18
15.24
1.62
-11.37
-22.16
-29.31
-31.96
-30.31
-25.45
-19.09
-12.83
-7.76
-4.38
-2.74
-2.72
-4.24
-7.16
-11.23
-15.98
-20.81
-25.14
-28.58
-31.01
-32.59
-33.69
-34.65
-35.72
-36.91
-38.09
-39.06
-39.77
-40.35
-41.17
-42.69
-45.38
-49.49
-54.91
-61.08
-66.94
-71.12
-72.21
-69.16
-61.63
-50.12
-35.87
-20.45
-5.35
8.28
19.73
28.63
34.78
38.13
38.76
37.08
33.74
29.6
25.47
21.88
18.97
16.56
14.28
11.78
8.96
5.9
2.87
0.11
-2.31
-4.55
-7.02
-10.26
-14.77
-20.84
-28.37
-36.69
-44.63
-50.64
-53.21
-51.29
-44.63
-33.89
-20.4
-5.8
8.4
21.12
31.69
39.73
45.06
47.57
47.36
44.77
40.48
35.41
30.43
26.16
22.8
20.11
17.63
14.89
11.67
8.11
4.55
1.4
-1.14
-3.24
-5.37
-8.2
-12.36
-18.25
-25.83
-34.56
-43.32
-50.58
-54.68
-54.32
-48.9
-38.85
-25.49
-10.64
3.94
16.99
27.87
36.45
42.69
46.5
47.72
46.33
42.69
37.59
32.04
26.96
22.87
19.74
17.19
14.73
12.03
9.05
5.98
3.1
0.58
-1.61
-3.72
-6.13
-9.28
-13.56
-19.24
-26.32
-34.42
-42.64
-49.64
-53.84
-53.88
-49.07
-39.64
-26.73
-12.04
2.7
16.09
27.28
35.91
41.87
45.12
45.65
43.65
39.54
34.08
28.24
22.93
18.71
15.7
13.56
11.71
9.64
7.09
4.13
1.09
-1.71
-4.12
-6.28
-8.59
-11.64
-15.95
-21.86
-29.33
-37.8
-46.19
-52.97
-56.55
-55.69
-49.94
-39.8
-26.62
-12.15
1.96
14.56
25.02
33.14
38.82
41.97
42.56
40.73
37.01
32.17
27.15
22.68
19.11
16.41
14.18
12
9.54
6.74
3.72
0.76
-1.97
-4.42
-6.78
-9.44
-12.92
-17.74
-24.14
-32.01
-40.65
-48.8
-54.85
-57.19
-54.74
-47.28
-35.63
-21.33
-6.24
8.06
20.5
30.61
38.29
43.52
46.26
46.49
44.39
40.43
35.42
30.26
25.65
21.93
19.01
16.49
13.93
11.05
7.87
4.61
1.57
-1.13
-3.63
-6.34
-9.81
-14.52
-20.72
-28.32
-36.79
-45.22
-52.32
-56.65
-56.93
-52.47
-43.41
-30.77
-16.19
-1.42
12.11
23.58
32.73
39.59
44.28
46.84
47.31
45.78
42.51
37.95
32.61
27.01
21.51
16.29
11.3
6.33
1.29
-3.68
-8.08
-11.24
-12.62
-12.15
-10.39
-8.34
-7.09
-7.49
-9.85
-14.09
-19.8
-26.37
-32.89
-38.21
-41
-40.1
-35.01
-26.1
-14.6
-2.18
9.58
19.63
27.52
33.27
37.12
39.25
39.75
38.66
36.12
32.4
27.96
23.39
19.29
16.14
14.1
13
12.38
11.6
10.17
7.83
4.6
0.72
-3.5
-7.87
-12.28
-16.79
-21.52
-26.68
-32.51
-39.14
-46.42
-53.68
-59.72
-62.94
-61.89
-55.74
-44.62
-29.7
-12.79
4.13
19.47
32.21
41.97
48.75
52.76
54.32
53.82
51.73
48.62
45.08
41.59
38.48
35.86
33.63
31.6
29.58
27.55
25.52
23.55
21.53
19.21
16.21
12.23
7.19
1.32
-4.99
-11.33
-17.53
-23.71
-30.25
-37.53
-45.74
-54.51
-62.94
-69.6
-72.94
-71.71
-65.36
-54.27
-39.6
-23.01
-6.12
9.7
23.47
34.59
42.72
47.72
49.66
48.89
45.97
41.67
36.77
32
27.89
24.85
23.03
22.34
22.45
22.8
22.77
21.8
19.59
16.2
12.01
7.52
3.26
-0.56
-4.04
-7.58
-11.69
-16.85
-23.31
-31.07
-39.84
-48.92
-57.18
-63.1
-65.02
-61.62
-52.48
-38.33
-20.98
-2.83
13.88
27.6
37.76
44.56
48.55
50.27
50.07
48.16
44.82
40.45
35.59
30.82
26.64
23.34
20.98
19.42
18.31
17.22
15.75
13.6
10.71
7.26
3.52
-0.23
-3.82
-7.31
-10.9
-14.91
-19.69
-25.5
-32.42
-40.14
-47.88
-54.35
-58
-57.4
-51.75
-41.16
-26.79
-10.5
5.6
19.7
30.62
37.96
41.91
42.93
41.52
38.08
33.03
26.9
20.41
14.41
9.6
6.35
4.47
3.37
2.27
0.58
-1.94
-5.16
-8.74
-12.3
-15.61
-18.63
-21.47
-24.34
-27.55
-31.41
-36.21
-41.96
-48.26
-54.12
-58.09
-58.63
-54.58
-45.64
-32.55
-17
-1.07
13.32
24.9
33.16
38.23
40.52
40.45
38.38
34.7
29.89
24.66
19.7
15.57
12.45
10.15
8.22
6.23
3.94
1.38
-1.22
-3.61
-5.72
-7.72
-9.99
-13.01
-17.13
-22.53
-29.13
-36.55
-44.05
-50.42
-54.04
-53.2
-46.61
-34.03
-16.48
3.97
24.84
43.98
60.03
72.28
80.42
84.25
83.65
78.95
71.14
61.8
52.65
45.02
39.43
35.63
33.04
31.11
29.64
28.68
28.25
28.09
27.6
25.93
22.27
16.18
7.61
-3.07
-15.32
-28.55
-42.11
-55.12
-66.29
-74.05
-76.83
-73.73
-64.94
-51.84
-36.64
-21.64
-8.61
1.54
8.6
12.78
14.28
13.3
10.1
5.23
-0.5
-6.15
-10.98
-14.67
-17.36
-19.46
-21.44
-23.59
-25.93
-28.29
-30.39
-32.08
-33.37
-34.52
-36.08
-38.68
-42.91
-48.95
-56.36
-63.99
-70.14
-73.06
-71.46
-64.93
-54.08
-40.23
-25.1
-10.32
2.73
12.99
19.65
22.31
21.24
17.63
13.51
11.16
12.3
17.34
25.2
33.79
40.88
44.92
45.38
42.63
37.37
30.25
21.64
11.8
1.11
-9.94
-20.81
-31.15
-40.84
-49.72
-57.35
-62.83
-64.87
-62.25
-54.45
-42.01
-26.5
-10.1
5.05
17.47
26.5
32.15
34.72
34.53
31.96
27.5
21.95
16.28
11.38
7.66
4.97
2.76
0.43
-2.28
-5.2
-7.91
-10.11
-11.93
-13.95
-17.05
-22
-29.09
-37.89
-47.19
-55.25
-60.11
-60.18
-54.65
-43.81
-29.01
-12.27
4.27
18.88
30.57
39.02
44.37
46.93
47.01
44.94
41.1
36.09
30.62
25.38
20.86
17.2
14.24
11.65
9.17
6.69
4.22
1.78
-0.81
-4.02
-8.54
-14.97
-23.46
-33.35
-43.09
-50.57
-53.76
-51.32
-43.11
-30.18
-14.41
2.12
17.62
30.93
41.42
48.86
53.22
54.63
53.44
50.22
45.74
40.7
35.6
30.66
25.9
21.23
16.68
12.36
8.47
5.15
2.36
-0.13
-2.81
-6.31
-11.31
-18.35
-27.44
-37.87
-48.1
-56.06
-59.66
-57.45
-49.18
-35.83
-19.31
-1.82
14.78
29.31
41.22
50.34
56.61
59.89
60.17
57.69
53.11
47.41
41.65
36.6
32.57
29.43
26.72
24.01
20.99
17.6
13.97
10.26
6.58
2.87
-1.13
-5.85
-11.8
-19.33
-28.52
-38.86
-49.26
-58.07
-63.47
-63.92
-58.62
-47.82
-32.76
-15.4
2.15
18.14
31.51
41.89
49.37
54.15
56.37
56.08
53.46
49
43.53
38
33.16
29.29
26.16
23.24
20.02
16.36
12.49
8.85
5.79
3.32
1.1
-1.46
-4.9
-9.61
-15.72
-23.22
-31.91
-41.34
-50.65
-58.47
-63.13
-63.04
-57.32
-46.15
-30.85
-13.47
3.81
19.35
32.28
42.46
50.12
55.49
58.61
59.42
57.94
54.47
49.68
44.39
39.39
35.16
31.79
29.09
26.72
24.35
21.81
19
15.87
12.32
8.22
3.53
-1.71
-7.28
-12.94
-18.55
-24.24
-30.38
-37.36
-45.33
-53.77
-61.48
-66.72
-67.78
-63.5
-53.73
-39.39
-22.2
-4.1
13.14
28.25
40.53
49.66
55.65
58.68
59.08
57.35
54.11
50.01
45.64
41.43
37.6
34.2
31.24
28.7
26.59
24.91
23.53
22.13
20.26
17.46
13.47
8.34
2.44
-3.71
-9.63
-15.04
-20.01
-24.87
-30.12
-36.32
-43.78
-52.31
-61.08
-68.6
-72.94
-72.33
-65.77
-53.42
-36.7
-17.83
0.89
17.65
31.47
42.18
49.93
55
57.55
57.73
55.86
52.5
48.48
44.58
41.34
38.89
36.97
35.17
33.17
30.89
28.53
26.34
24.42
22.56
20.23
16.94
12.42
6.82
0.69
-5.33
-10.77
-15.52
-19.73
-23.78
-28.05
-32.91
-38.64
-45.39
-52.94
-60.61
-67.1
-70.76
-70.07
-64.11
-53.04
-38.03
-20.95
-3.79
11.79
24.8
34.85
42.01
46.55
48.78
49
47.58
44.91
41.47
37.7
33.98
30.54
27.52
24.98
22.93
21.34
20.14
19.17
18.13
16.67
14.42
11.11
6.66
1.22
-4.84
-10.98
-16.7
-21.64
-25.7
-29.14
-32.53
-36.59
-41.96
-48.8
-56.53
-63.76
-68.58
-69.1
-64.19
-53.9
-39.53
-23.17
-7.04
7.15
18.55
27.08
33.12
37.12
39.37
39.96
38.85
36.08
31.83
26.55
20.85
15.36
10.58
6.76
3.9
1.87
0.5
-0.41
-1.05
-1.63
-2.33
-3.16
-3.93
-4.29
-4.03
-3.34
-3.03
-4.3
-8.36
-15.78
-25.96
-37.16
-46.84
-52.53
-52.62
-46.8
-36.1
-22.37
-7.66
6.31
18.38
27.96
34.75
38.63
39.63
38.02
34.32
29.27
23.66
18.17
13.3
9.31
6.28
4.09
2.49
1.06
-0.61
-2.85
-5.78
-9.23
-12.88
-16.39
-19.62
-22.74
-26.21
-30.57
-36.27
-43.35
-51.32
-59.13
-65.28
-68.22
-66.68
-60.15
-49.03
-34.58
-18.56
-2.69
11.71
23.92
33.69
40.98
45.69
47.7
47.02
44
39.37
34.14
29.21
25.14
21.97
19.35
16.78
13.85
10.44
6.66
2.8
-0.88
-4.24
-7.38
-10.68
-14.7
-20.04
-27.1
-35.85
-45.64
-55.18
-62.81
-66.86
-66.13
-60.24
-49.76
-35.95
-20.5
-4.99
9.34
21.68
31.59
38.86
43.37
45.11
44.21
41.13
36.55
31.33
26.24
21.71
17.76
14.1
10.34
6.35
2.29
-1.39
-4.28
-6.24
-7.57
-8.99
-11.37
-15.47
-21.64
-29.69
-38.79
-47.6
-54.47
-57.8
-56.46
-50.12
-39.36
-25.46
-10.07
5.19
19.09
30.79
39.78
45.82
48.79
48.81
46.27
41.9
36.62
31.34
26.67
22.76
19.35
15.99
12.32
8.33
4.35
0.82
-1.91
-3.87
-5.48
-7.38
-10.3
-14.85
-21.43
-30.05
-40.18
-50.59
-59.43
-64.63
-64.47
-58.22
-46.47
-30.92
-13.82
2.78
17.45
29.61
39.17
46.21
50.71
52.58
51.79
48.59
43.62
37.83
32.18
27.39
23.73
21.01
18.72
16.25
13.22
9.56
5.49
1.42
-2.33
-5.67
-8.79
-12.14
-16.24
-21.6
-28.52
-36.94
-46.27
-55.36
-62.58
-66.21
-64.88
-58.04
-46.14
-30.64
-13.49
3.34
18.34
30.67
40.05
46.52
50.19
51.17
49.62
45.92
40.78
35.1
29.8
25.47
22.25
19.82
17.71
15.51
13.03
10.37
7.7
5.19
2.79
0.33
-2.49
-6.02
-10.57
-16.34
-23.34
-31.33
-39.77
-47.87
-54.64
-58.99
-59.9
-56.62
-48.84
-36.84
-21.55
-4.44
12.74
28.34
41.13
50.5
56.44
59.31
59.61
57.75
54.02
48.73
42.36
35.6
29.22
23.92
19.98
17.22
15.11
13
10.36
6.98
2.9
-1.66
-6.45
-11.31
-16.24
-21.37
-26.98
-33.42
-41
-49.68
-58.93
-67.57
-73.92
-76.24
-73.27
-64.69
-51.31
-34.83
-17.3
-0.61
13.95
25.71
34.51
40.42
43.63
44.38
42.97
39.83
35.52
30.67
25.96
21.93
18.95
17.08
16
15.15
13.91
11.82
8.76
4.91
0.62
-3.76
-8.05
-12.27
-16.56
-21.17
-26.33
-32.29
-39.16
-46.76
-54.43
-60.96
-64.78
-64.35
-58.69
-47.75
-32.56
-14.91
3.1
19.64
33.53
44.28
51.93
56.8
59.24
59.61
58.27
55.67
52.3
48.65
45.06
41.71
38.64
35.85
33.34
31.01
28.65
25.94
22.55
18.33
13.46
8.38
3.6
-0.53
-4.01
-7.21
-10.7
-15.05
-20.85
-28.47
-38.04
-49.11
-60.48
-70.25
-76.16
-76.35
-70.01
-57.77
-41.53
-23.78
-6.86
7.66
19.02
27.12
32.15
34.37
34.06
31.68
27.88
23.47
19.22
15.65
12.96
11.09
9.81
8.98
8.47
8.25
8.26
8.31
8.07
7.14
5.14
1.9
-2.46
-7.53
-12.7
-17.4
-21.35
-24.7
-28.01
-32.09
-37.67
-44.96
-53.43
-61.7
-67.77
-69.6
-65.69
-55.71
-40.63
-22.46
-3.66
13.66
28.1
39.15
46.91
51.75
54.05
54.13
52.39
49.32
45.54
41.61
37.92
34.55
31.47
28.58
25.82
23.27
20.93
18.76
16.57
14.13
11.16
7.53
3.26
-1.48
-6.42
-11.31
-16.05
-20.76
-25.81
-31.78
-39.15
-47.97
-57.54
-66.31
-72.17
-73.07
-67.78
-56.37
-40.26
-21.83
-3.6
12.49
25.42
35
41.58
45.58
47.33
47.03
44.94
41.42
36.98
32.16
27.45
23.18
19.46
16.26
13.43
10.82
8.29
5.77
3.24
0.67
-2.02
-4.98
-8.36
-12.33
-17.02
-22.55
-29.07
-36.64
-45.12
-53.93
-61.97
-67.71
-69.58
-66.4
-57.88
-44.78
-28.75
-11.86
4.01
17.52
28.13
35.95
41.32
44.55
45.77
44.95
42.14
37.62
32.05
26.24
20.98
16.74
13.58
11.18
9.06
6.76
4.04
0.91
-2.46
-5.86
-9.18
-12.48
-16
-20.11
-25.24
-31.71
-39.61
-48.6
-57.76
-65.64
-70.5
-70.74
-65.44
-54.74
-39.84
-22.67
-5.28
10.66
24.16
34.86
42.81
48.18
51.11
51.71
50.17
46.87
42.37
37.38
32.58
28.49
25.35
23.07
21.26
19.45
17.22
14.4
11.03
7.33
3.47
-0.48
-4.6
-9.06
-14.06
-19.78
-26.37
-33.96
-42.45
-51.31
-59.43
-65.19
-66.89
-63.28
-54.14
-40.37
-23.76
-6.44
9.66
23.28
33.89
41.49
46.4
49.05
49.83
49.09
47.18
44.46
41.21
37.69
34.14
30.75
27.76
25.32
23.46
22.04
20.67
18.84
16.15
12.39
7.61
2.07
-3.9
-10.06
-16.14
-21.97
-27.41
-32.54
-37.66
-43.15
-49.13
-55.12
-59.84
-61.5
-58.5
-50.03
-36.63
-19.99
-2.41
13.94
27.63
38.13
45.59
50.47
53.23
54.14
53.4
51.19
47.87
43.89
39.73
35.75
32.11
28.86
25.98
23.49
21.44
19.82
18.43
16.88
14.69
11.44
7.03
1.67
-4.14
-9.91
-15.28
-20.21
-24.92
-29.85
-35.5
-42.2
-49.88
-57.88
-64.95
-69.38
-69.52
-64.32
-53.77
-38.96
-21.83
-4.52
11.17
24.09
33.85
40.55
44.57
46.28
46.04
44.2
41.22
37.62
33.98
30.77
28.25
26.42
25.1
24.02
22.99
21.85
20.48
18.71
16.3
13.05
8.92
4.08
-1.1
-6.23
-11.07
-15.64
-20.21
-25.19
-31
-37.93
-45.96
-54.53
-62.54
-68.39
-70.41
-67.35
-58.84
-45.65
-29.42
-12.24
4.02
18.07
29.36
37.88
43.82
47.41
48.85
48.38
46.39
43.44
40.13
36.94
34.13
31.69
29.48
27.37
25.36
23.62
22.3
21.39
20.62
19.43
17.25
13.69
8.74
2.83
-3.42
-9.33
-14.52
-18.95
-22.92
-27.04
-31.97
-38.27
-46.13
-55.11
-64.02
-71.02
-74.1
-71.71
-63.35
-49.85
-33.1
-15.45
1.05
15.15
26.44
35.08
41.37
45.52
47.58
47.66
46.11
43.5
40.55
37.87
35.77
34.23
33.02
31.81
30.38
28.71
26.93
25.23
23.72
22.39
21.02
19.29
16.84
13.38
8.82
3.27
-2.88
-9.13
-14.98
-20.1
-24.47
-28.38
-32.32
-36.87
-42.49
-49.32
-57.02
-64.7
-70.95
-74.09
-72.66
-65.88
-54.02
-38.4
-20.99
-3.89
11.33
23.8
33.37
40.29
44.85
47.28
47.76
46.54
44.05
40.89
37.68
34.89
32.73
31.12
29.84
28.59
27.2
25.68
24.15
22.79
21.64
20.54
19.16
17.04
13.83
9.4
3.93
-2.16
-8.32
-14.11
-19.26
-23.75
-27.75
-31.57
-35.64
-40.37
-46.12
-52.91
-60.3
-67.19
-72
-73.04
-69.02
-59.6
-45.56
-28.65
-11.12
4.96
18.13
27.79
34.07
37.56
38.91
38.67
37.24
34.91
31.99
28.8
25.64
22.69
20
17.57
15.37
13.47
11.97
10.91
10.13
9.23
7.64
4.87
0.67
-4.81
-11.05
-17.37
-23.17
-28.14
-32.35
-36.23
-40.39
-45.44
-51.7
-58.93
-66.16
-71.81
-74.03
-71.4
-63.49
-51.16
-36.24
-20.91
-6.83
5.26
15.44
24.25
32.07
38.92
44.62
49.1
52.6
55.59
58.43
61.01
62.67
62.54
59.98
54.95
48.04
40.21
32.48
25.63
20.18
16.39
14.35
13.92
14.63
15.76
16.43
15.85
13.6
9.56
3.72
-3.98
-13.77
-25.71
-39.27
-52.99
-64.66
-71.89
-72.98
-67.56
-56.78
-42.84
-28.27
-15.15
-4.76
2.38
6.28
7.22
5.78
2.93
-0.05
-1.88
-1.78
0.18
3.13
5.87
7.57
8.26
8.7
9.92
12.48
16.09
19.64
21.77
21.44
18.32
12.72
5.25
-3.53
-13.27
-23.81
-35
-46.5
-57.77
-68.03
-76.29
-81.45
-82.46
-78.53
-69.51
-56.05
-39.54
-21.85
-4.81
10.21
22.51
31.93
38.7
43.06
45.22
45.39
43.85
41.08
37.73
34.52
31.99
30.34
29.38
28.54
27.15
24.72
21.1
16.6
11.76
7.17
3.19
-0.24
-3.55
-7.36
-12.33
-18.9
-27.14
-36.65
-46.46
-55.09
-60.82
-62.07
-57.95
-48.57
-35.09
-19.35
-3.34
11.38
23.91
33.93
41.51
46.79
49.83
50.67
49.44
46.46
42.26
37.5
32.85
28.82
25.67
23.35
21.57
19.92
18
15.58
12.66
9.32
5.73
1.94
-2.09
-6.47
-11.38
-17
-23.52
-31.05
-39.57
-48.63
-57.32
-64.17
-67.52
-65.97
-58.9
-46.74
-30.97
-13.63
3.27
18.22
30.47
39.9
46.74
51.29
53.75
54.29
53.2
50.85
47.76
44.35
40.93
37.65
34.56
31.72
29.22
27.05
25.1
23.07
20.63
17.53
13.73
9.36
4.71
-0.04
-4.76
-9.48
-14.34
-19.59
-25.62
-32.79
-41.24
-50.63
-59.91
-67.43
-71.29
-70
-62.96
-50.73
-34.82
-17.24
0.09
15.76
28.95
39.38
47.03
52.04
54.59
54.93
53.49
50.85
47.65
44.46
41.64
39.28
37.28
35.45
33.67
31.98
30.52
29.35
28.35
27.16
25.22
22.05
17.43
11.58
5.01
-1.64
-7.83
-13.36
-18.35
-23.19
-28.42
-34.55
-41.95
-50.64
-60.04
-68.94
-75.59
-78.08
-75.05
-66.16
-52.35
-35.52
-17.88
-1.33
13.06
24.92
34.33
41.38
46.06
48.3
48.2
46.17
42.94
39.33
36
33.29
31.2
29.5
27.94
26.36
24.76
23.29
22.06
21.04
19.96
18.35
15.67
11.62
6.27
0.05
-6.27
-12.05
-16.88
-20.87
-24.54
-28.67
-34
-40.93
-49.28
-58.15
-66.04
-71.15
-71.84
-67.13
-57.07
-42.72
-25.88
-8.6
7.33
20.79
31.29
38.91
43.95
46.78
47.76
47.23
45.59
43.38
41.06
39
37.27
35.7
33.99
31.92
29.49
26.94
24.64
22.84
21.43
19.98
17.81
14.33
9.29
2.96
-3.96
-10.62
-16.36
-20.99
-24.78
-28.42
-32.65
-38.11
-45.05
-53.23
-61.72
-69.08
-73.49
-73.26
-67.39
-55.98
-40.3
-22.44
-4.62
11.4
24.72
35.19
43.13
48.89
52.65
54.44
54.28
52.39
49.2
45.3
41.31
37.64
34.45
31.69
29.24
27.02
25.08
23.54
22.48
21.76
20.92
19.38
16.58
12.27
6.67
0.4
-5.75
-11.12
-15.43
-18.88
-22.01
-25.53
-30.08
-35.97
-43.08
-50.7
-57.58
-62.07
-62.54
-57.81
-47.62
-32.79
-15.01
3.63
21.23
36.47
48.76
58.05
64.58
68.59
70.31
70.02
68.04
64.9
61.24
57.69
54.8
52.86
51.85
51.53
51.56
51.57
51.3
50.5
48.94
46.36
42.69
38.19
33.67
30.24
28.95
30.13
33.09
36.16
37.31
34.88
28.36
18.59
7.57
-2.26
-8.7
-10.52
-7.7
-1.35
6.68
14.4
20.2
23.15
22.99
19.99
14.61
7.37
-1.24
-10.66
-20.32
-29.59
-38
-45.21
-51.19
-56.06
-60.16
-63.84
-67.45
-71.17
-74.95
-78.59
-81.77
-84.28
-86.16
-87.72
-89.42
-91.69
-94.8
-98.86
-103.85
-109.63
-115.87
-121.84
-126.32
-127.78
-124.82
-116.65
-103.55
-86.85
-68.53
-50.63
-34.61
-21.13
-10.11
-1.09
6.38
12.49
17.21
20.4
22.04
22.35
21.76
20.83
20.04
19.66
19.66
19.75
19.54
18.67
16.99
14.56
11.62
8.41
5.08
1.58
-2.24
-6.56
-11.49
-17.09
-23.45
-30.73
-38.96
-47.82
-56.31
-62.76
-65.24
-62.23
-53.25
-39.21
-22.07
-4.16
12.51
26.76
38.21
47.01
53.37
57.48
59.43
59.43
57.88
55.37
52.49
49.62
46.86
44.04
40.97
37.58
34.11
30.97
28.58
27.07
26.17
25.18
23.28
19.79
14.53
7.82
0.44
-6.79
-13.15
-18.38
-22.68
-26.64
-31.1
-36.8
-44.16
-52.94
-62.08
-69.77
-73.92
-72.73
-65.4
-52.39
-35.32
-16.45
2.11
18.85
33.05
44.54
53.38
59.57
63.09
64.04
62.83
60.14
56.78
53.43
50.43
47.8
45.27
42.58
39.56
36.31
33.07
30.17
27.86
26.18
24.9
23.47
21.26
17.76
12.77
6.55
-0.33
-7.21
-13.61
-19.42
-24.88
-30.48
-36.77
-44.15
-52.75
-62.21
-71.64
-79.59
-84.34
-84.23
-78.33
-66.73
-50.65
-32.08
-13.24
4.06
18.68
30.26
38.84
44.66
47.9
48.79
47.68
45.14
41.84
38.41
35.19
32.21
29.31
26.35
23.37
20.62
18.43
16.9
15.82
14.64
12.68
9.42
4.75
-1
-7.2
-13.17
-18.45
-22.99
-27.19
-31.71
-37.28
-44.39
-53.05
-62.55
-71.37
-77.51
-78.93
-74.24
-63.25
-47.17
-28.26
-9.15
7.92
21.64
31.73
38.65
43.13
45.76
46.84
46.44
44.67
41.74
38.1
34.27
30.68
27.57
24.91
22.54
20.33
18.19
16.09
13.99
11.73
9.06
5.72
1.55
-3.38
-8.8
-14.4
-19.98
-25.66
-31.83
-38.98
-47.4
-56.75
-65.91
-73.02
-76.01
-73.24
-64.18
-49.61
-31.44
-12.07
6.28
22.12
34.75
44.14
50.59
54.47
56.15
56.01
54.5
52.09
49.2
46.1
42.89
39.56
36.13
32.66
29.34
26.35
23.78
21.51
19.22
16.46
12.88
8.3
2.85
-3.12
-9.15
-14.9
-20.3
-25.68
-31.58
-38.68
-47.37
-57.52
-68.24
-77.87
-84.33
-85.67
-80.68
-69.34
-52.85
-33.27
-12.98
6.01
22.39
35.58
45.57
52.6
56.95
58.87
58.68
56.81
53.83
50.35
46.86
43.64
40.72
38.02
35.43
32.94
30.65
28.68
27.04
25.52
23.74
21.24
17.62
12.79
6.94
0.55
-5.82
-11.73
-17.06
-22.13
-27.59
-34.22
-42.61
-52.71
-63.58
-73.39
-79.86
-80.91
-75.43
-63.65
-47.13
-28.18
-9.19
8.03
22.53
34.02
42.65
48.64
52.19
53.5
52.9
50.9
48.1
45.1
42.33
40
38.12
36.52
34.99
33.43
31.85
30.39
29.24
28.46
27.86
27
25.23
22.02
17.11
10.72
3.46
-3.87
-10.58
-16.31
-21.11
-25.41
-29.86
-35.21
-42.09
-50.78
-60.89
-71.26
-79.94
-84.73
-83.78
-76.29
-62.8
-45.05
-25.37
-5.95
11.59
26.43
38.28
47.19
53.28
56.68
57.63
56.53
54
50.72
47.36
44.42
42.08
40.27
38.71
37.08
35.23
33.2
31.2
29.44
27.96
26.47
24.46
21.38
16.87
10.92
3.92
-3.48
-10.58
-16.9
-22.27
-26.92
-31.35
-36.21
-42.09
-49.37
-57.97
-67.26
-76
-82.51
-84.98
-82.01
-73.09
-58.78
-40.68
-20.97
-1.82
15.1
28.88
39.28
46.5
50.85
52.67
52.28
50.13
46.74
42.76
38.79
35.15
31.94
29.02
26.19
23.42
20.9
18.91
17.71
17.17
16.81
15.88
13.62
9.64
4.07
-2.48
-9.14
-15.15
-20.13
-24.24
-28.18
-32.91
-39.26
-47.51
-57
-66.13
-72.64
-74.26
-69.49
-58.11
-41.35
-21.47
-1.15
17.2
31.96
42.44
48.74
51.5
51.58
49.85
47.08
43.87
40.64
37.62
34.88
32.34
29.81
27.19
24.46
21.8
19.51
17.84
16.84
16.21
15.35
13.63
10.57
6.11
0.55
-5.54
-11.54
-17.08
-22.1
-26.86
-31.89
-37.8
-45.05
-53.68
-63.06
-71.78
-77.83
-79.17
-74.39
-63.29
-47.07
-27.96
-8.58
8.9
23.21
34
41.59
46.53
49.24
50.03
49.11
46.76
43.38
39.41
35.29
31.34
27.72
24.52
21.8
19.58
17.85
16.52
15.33
13.9
11.79
8.6
4.21
-1.21
-7.17
-13.06
-18.41
-23.11
-27.5
-32.29
-38.22
-45.75
-54.63
-63.78
-71.39
-75.37
-73.97
-66.4
-53.16
-35.94
-17.14
0.86
16.28
28.22
36.65
41.98
44.78
45.53
44.52
42.02
38.32
33.81
29
24.37
20.34
17.15
14.85
13.25
11.98
10.6
8.75
6.23
3.06
-0.56
-4.44
-8.45
-12.64
-17.12
-22.06
-27.57
-33.83
-41.02
-49.24
-58.2
-66.93
-73.71
-76.43
-73.31
-63.62
-48.14
-28.95
-8.76
9.87
25.24
36.67
44.32
48.77
50.76
50.91
49.74
47.62
44.81
41.49
37.83
34.01
30.24
26.75
23.71
21.18
19.09
17.27
15.48
13.42
10.83
7.47
3.27
-1.7
-7.17
-12.83
-18.46
-24.08
-30.04
-36.89
-45.12
-54.75
-65.04
-74.37
-80.62
-81.68
-76.24
-64.27
-47.17
-27.25
-7.05
11.35
26.78
38.92
47.98
54.27
58.06
59.53
58.99
56.92
53.95
50.72
47.66
44.89
42.31
39.7
36.94
34.06
31.26
28.77
26.69
24.88
22.92
20.23
16.3
10.9
4.29
-2.87
-9.75
-15.72
-20.63
-24.93
-29.48
-35.21
-42.79
-52.22
-62.72
-72.75
-80.25
-83.2
-80.08
-70.45
-55.1
-35.9
-15.27
4.5
21.74
35.69
46.32
54
59.18
62.16
63.17
62.43
60.3
57.32
54.09
51.09
48.53
46.33
44.19
41.83
39.23
36.66
34.53
33.13
32.39
31.74
30.33
27.39
22.51
15.86
8.1
0.08
-7.45
-14.08
-19.87
-25.2
-30.67
-36.91
-44.41
-53.36
-63.41
-73.59
-82.32
-87.68
-87.91
-82.02
-70.14
-53.64
-34.74
-15.84
1.12
15.05
25.74
33.53
38.84
41.97
43.06
42.28
40.01
36.87
33.56
30.61
28.15
26.05
24
21.8
19.51
17.38
15.63
14.27
12.96
11.12
8.17
3.83
-1.76
-8.04
-14.3
-19.96
-24.84
-29.2
-33.67
-38.99
-45.72
-53.98
-63.22
-72.16
-79
-81.81
-79.07
-70.19
-55.83
-37.73
-18.21
0.49
16.75
29.78
39.47
46.08
49.98
51.54
51.12
49.1
45.96
42.16
38.09
34.05
30.24
26.8
23.85
21.5
19.77
18.51
17.39
15.88
13.49
9.91
5.14
-0.45
-6.32
-11.97
-17.2
-22.23
-27.6
-34.01
-41.91
-51.2
-61
-69.73
-75.39
-76.15
-70.93
-59.74
-43.73
-24.91
-5.55
12.37
27.5
39.25
47.67
53.18
56.39
57.83
57.9
56.82
54.72
51.73
48.04
43.92
39.69
35.62
31.83
28.3
24.85
21.23
17.27
12.94
8.36
3.76
-0.67
-4.91
-9.11
-13.56
-18.53
-24.27
-30.95
-38.75
-47.74
-57.59
-67.35
-75.33
-79.46
-77.89
-69.84
-55.93
-38.11
-18.99
-0.94
14.51
26.87
36.39
43.57
48.77
52.08
53.42
52.86
50.62
47.17
43.07
38.8
34.73
31.02
27.76
24.91
22.34
19.86
17.24
14.25
10.77
6.81
2.5
-1.99
-6.58
-11.31
-16.37
-22.05
-28.68
-36.47
-45.35
-54.73
-63.35
-69.42
-71.08
-67
-56.94
-41.96
-24.15
-5.96
10.49
23.96
34.14
41.44
46.46
49.71
51.39
51.5
50.02
47.07
43.02
38.45
33.98
30.08
26.94
24.46
22.31
20.11
17.55
14.55
11.15
7.46
3.57
-0.53
-4.9
-9.63
-14.83
-20.64
-27.26
-34.89
-43.58
-52.93
-61.89
-68.84
-71.9
-69.53
-61.18
-47.47
-30.14
-11.47
6.4
21.95
34.47
43.92
50.59
54.81
56.8
56.7
54.74
51.3
46.91
42.14
37.51
33.32
29.66
26.45
23.56
20.81
18.05
15.13
11.88
8.19
3.99
-0.69
-5.72
-10.93
-16.18
-21.51
-27.14
-33.45
-40.89
-49.57
-59.05
-68.18
-75.16
-78.1
-75.52
-66.97
-53.18
-35.91
-17.39
0.31
15.74
28.26
37.86
44.86
49.62
52.38
53.27
52.39
49.96
46.34
41.99
37.42
33.05
29.19
25.93
23.21
20.85
18.61
16.21
13.46
10.21
6.41
2.09
-2.67
-7.71
-12.87
-18.07
-23.38
-29.08
-35.58
-43.2
-51.88
-60.92
-68.95
-74.14
-74.71
-69.59
-58.77
-43.48
-25.8
-8.05
7.87
20.89
30.78
37.84
42.59
45.4
46.45
45.85
43.78
40.54
36.63
32.55
28.7
25.33
22.5
20.11
17.98
15.9
13.67
11.16
8.28
5.01
1.38
-2.57
-6.77
-11.19
-15.8
-20.7
-26.07
-32.24
-39.4
-47.48
-55.82
-63.17
-67.79
-68.01
-62.78
-52.07
-37.04
-19.69
-2.21
13.62
26.77
36.97
44.46
49.58
52.63
53.8
53.34
51.62
49.08
46.12
42.94
39.61
36.11
32.53
29.09
26.08
23.69
21.82
20.07
17.89
14.74
10.43
5.11
-0.74
-6.57
-11.97
-16.83
-21.37
-26.06
-31.47
-38.06
-46
-54.89
-63.68
-70.72
-74.15
-72.39
-64.79
-51.84
-35.11
-16.8
0.99
16.69
29.47
39.16
45.94
50.14
52.1
52.25
51.06
49.06
46.73
44.41
42.23
40.09
37.75
35
31.85
28.5
25.33
22.71
20.74
19.21
17.54
15.06
11.26
6.05
-0.22
-6.88
-13.23
-18.82
-23.61
-28.01
-32.65
-38.22
-45.13
-53.35
-62.2
-70.39
-76.23
-78.02
-74.57
-65.6
-51.84
-34.87
-16.65
0.99
16.7
29.69
39.65
46.54
50.53
51.91
51.17
48.96
45.96
42.76
39.67
36.75
33.9
30.99
28.01
25.14
22.6
20.55
18.95
17.49
15.76
13.33
9.93
5.54
0.37
-5.23
-10.83
-16.1
-20.91
-25.45
-30.19
-35.76
-42.61
-50.7
-59.24
-66.67
-71.08
-70.7
-64.58
-52.9
-36.95
-18.75
-0.44
16.19
29.99
40.51
47.81
52.2
54.13
54.01
52.24
49.18
45.16
40.55
35.72
31.08
27.02
23.78
21.38
19.65
18.23
16.72
14.81
12.34
9.22
5.44
1.02
-4.01
-9.51
-15.31
-21.28
-27.42
-33.98
-41.33
-49.67
-58.67
-67.28
-73.79
-76.37
-73.6
-65.08
-51.6
-34.94
-17.28
-0.67
13.45
24.43
32.23
37.22
39.81
40.34
39.03
36.11
31.93
27.01
22.02
17.57
14.05
11.52
9.75
8.35
6.92
5.19
3.08
0.61
-2.13
-5.05
-8.13
-11.42
-15.04
-19.19
-24.15
-30.24
-37.71
-46.5
-56.01
-64.95
-71.52
-73.86
-70.57
-61.32
-46.96
-29.35
-10.84
6.44
21.02
32.27
40.3
45.6
48.74
50.13
50.01
48.48
45.67
41.81
37.35
32.8
28.66
25.2
22.47
20.29
18.38
16.45
14.34
12.04
9.56
6.95
4.17
1.08
-2.47
-6.64
-11.52
-17.16
-23.61
-30.79
-38.34
-45.4
-50.63
-52.43
-49.44
-41.11
-28.06
-11.94
5.02
20.8
34.12
44.63
52.68
58.81
63.39
66.38
67.52
66.63
63.83
59.64
54.88
50.31
46.39
43.1
40.02
36.58
32.31
27.03
20.83
13.95
6.57
-1.27
-9.71
-18.9
-28.92
-39.69
-51.07
-62.88
-75.01
-87.19
-98.81
-108.73
-115.35
-117.01
-112.61
-102.06
-86.47
-67.8
-48.31
-29.87
-13.65
-0.05
10.99
19.7
26.21
30.59
32.89
33.26
32
29.56
26.47
23.25
20.31
17.89
16.06
14.69
13.5
12.15
10.28
7.69
4.32
0.34
-3.99
-8.4
-12.76
-17.18
-21.95
-27.51
-34.2
-42.09
-50.71
-58.97
-65.27
-67.86
-65.39
-57.33
-44.29
-27.79
-9.91
7.35
22.46
34.58
43.44
49.19
52.18
52.85
51.7
49.24
45.97
42.31
38.57
34.92
31.42
28.13
25.03
22.13
19.37
16.63
13.73
10.51
6.9
2.93
-1.29
-5.67
-10.16
-14.81
-19.75
-25.16
-31.32
-38.47
-46.72
-55.74
-64.57
-71.58
-74.82
-72.66
-64.42
-50.72
-33.4
-14.88
2.51
17.2
28.52
36.57
41.81
44.73
45.69
44.95
42.76
39.43
35.43
31.27
27.43
24.23
21.78
19.94
18.39
16.77
14.79
12.34
9.4
6.05
2.35
-1.72
-6.2
-11.06
-16.19
-21.41
-26.67
-32.16
-38.28
-45.45
-53.62
-62
-69.01
-72.65
-71.16
-63.75
-50.9
-34.33
-16.39
0.68
15.32
26.89
35.45
41.41
45.22
47.13
47.34
46.07
43.66
40.57
37.22
33.95
30.92
28.16
25.7
23.61
21.96
20.71
19.65
18.35
16.34
13.27
9.04
3.89
-1.69
-7.19
-12.29
-17.01
-21.72
-27.05
-33.61
-41.64
-50.7
-59.54
-66.25
-68.86
-65.91
-57.04
-43.2
-26.24
-8.4
8.4
22.93
34.69
43.65
50
53.92
55.55
55.17
53.17
50.14
46.67
43.23
40.08
37.2
34.44
31.64
28.76
25.91
23.27
20.92
18.7
16.24
13.07
8.86
3.58
-2.41
-8.51
-14.08
-18.75
-22.48
-25.7
-29.09
-33.42
-39.26
-46.72
-55.24
-63.51
-69.72
-71.92
-68.67
-59.53
-45.26
-27.65
-9
8.56
23.52
35.23
43.72
49.42
52.82
54.35
54.34
53.1
50.94
48.2
45.16
42
38.85
35.74
32.71
29.83
27.19
24.91
23
21.34
19.62
17.33
14
9.35
3.44
-3.2
-9.82
-15.71
-20.47
-24.25
-27.65
-31.55
-36.76
-43.62
-51.79
-60.09
-66.74
-69.8
-67.75
-60.05
-47.41
-31.52
-14.6
1.38
15.03
25.8
33.7
39.01
42.02
42.98
42.15
39.93
36.84
33.39
29.96
26.75
23.8
21.1
18.72
16.75
15.33
14.4
13.7
12.77
11.14
8.5
4.83
0.38
-4.42
-9.21
-13.8
-18.3
-23.03
-28.48
-35.05
-42.85
-51.46
-59.82
-66.33
-69.18
-66.94
-59.07
-46.22
-30.07
-12.88
3.23
16.79
27.24
34.71
39.71
42.67
43.88
43.44
41.48
38.3
34.39
30.27
26.38
22.92
19.91
17.3
15.09
13.3
11.92
10.75
9.37
7.3
4.16
-0.16
-5.37
-10.99
-16.47
-21.43
-25.87
-30.15
-34.88
-40.71
-48.02
-56.62
-65.58
-73.27
-77.74
-77.28
-70.99
-59.15
-43.17
-25.19
-7.46
8.23
20.83
30.14
36.5
40.52
42.75
43.56
43.13
41.58
39.08
35.9
32.38
28.84
25.56
22.71
20.41
18.72
17.62
16.94
16.36
15.39
13.49
10.34
5.92
0.58
-5.14
-10.74
-16
-21.05
-26.33
-32.35
-39.49
-47.66
-56.18
-63.78
-68.8
-69.67
-65.37
-55.82
-41.96
-25.45
-8.31
7.73
21.47
32.35
40.28
45.44
48.07
48.52
47.22
44.7
41.56
38.29
35.18
32.36
29.8
27.45
25.26
23.25
21.4
19.59
17.59
15.11
11.91
7.92
3.32
-1.58
-6.43
-11.04
-15.39
-19.68
-24.25
-29.45
-35.58
-42.69
-50.47
-58.07
-64.12
-66.96
-65.1
-57.81
-45.46
-29.51
-12.13
4.56
18.95
30.34
38.66
44.23
47.43
48.54
47.79
45.49
42.11
38.19
34.3
30.84
28.04
25.89
24.25
22.88
21.54
19.99
18.08
15.67
12.67
9.07
4.89
0.24
-4.7
-9.74
-14.77
-19.83
-25.17
-31.17
-38.19
-46.28
-54.91
-62.9
-68.52
-70
-66.1
-56.63
-42.54
-25.7
-8.3
7.84
21.58
32.6
41.04
47.22
51.31
53.34
53.31
51.39
47.97
43.6
38.88
34.29
30.17
26.65
23.82
21.66
20
18.54
16.86
14.55
11.4
7.47
3.01
-1.64
-6.32
-11.04
-16.04
-21.61
-28.02
-35.4
-43.66
-52.35
-60.54
-66.84
-69.63
-67.51
-59.83
-47.06
-30.71
-12.93
4.14
18.85
30.35
38.52
43.68
46.33
47.01
46.21
44.4
42.05
39.51
36.97
34.38
31.54
28.29
24.63
20.87
17.53
15.14
13.99
13.97
14.5
14.64
13.33
9.71
3.55
-4.52
-12.89
-19.34
-21.76
-18.98
-11.47
-1.25
8.86
16.5
20.76
22.6
24.15
27.54
33.81
42.41
51.59
59.26
63.87
64.66
61.62
55.07
45.52
33.72
20.79
8.18
-2.65
-10.66
-15.57
-17.8
-18.26
-17.87
-17.39
-17.32
-17.91
-19.29
-21.46
-24.21
-27.21
-30.11
-32.66
-34.81
-36.62
-38.33
-40.22
-42.69
-46.16
-50.94
-57.13
-64.23
-71.13
-76.17
-77.63
-74.19
-65.54
-52.46
-36.67
-20.22
-4.89
8.21
18.73
26.81
32.72
36.57
38.37
38.12
36.07
32.78
29
25.46
22.61
20.53
18.97
17.52
15.85
13.81
11.46
8.96
6.5
4.16
1.88
-0.55
-3.38
-6.88
-11.25
-16.63
-23.05
-30.36
-38.1
-45.38
-50.94
-53.27
-51.15
-44
-32.27
-17.45
-1.61
13.19
25.51
34.79
41.23
45.36
47.59
48.09
46.77
43.65
39.04
33.59
28.13
23.39
19.74
17.1
15.14
13.33
11.28
8.71
5.59
2.02
-1.82
-5.75
-9.71
-13.71
-17.92
-22.59
-27.99
-34.4
-41.87
-50.12
-58.25
-64.86
-68.2
-66.8
-59.93
-48.02
-32.54
-15.58
0.79
15.03
26.39
34.83
40.65
44.23
45.84
45.68
43.94
40.97
37.33
33.61
30.33
27.75
25.8
24.16
22.41
20.27
17.65
14.67
11.54
8.41
5.29
2.06
-1.42
-5.22
-9.36
-13.9
-18.96
-24.82
-31.77
-39.81
-48.39
-56.27
-61.76
-63.15
-59.33
-50.22
-36.83
-20.99
-4.77
10.06
22.39
31.86
38.61
43.05
45.53
46.31
45.58
43.53
40.46
36.72
32.69
28.65
24.86
21.5
18.74
16.71
15.41
14.56
13.68
12.16
9.52
5.62
0.72
-4.64
-9.89
-14.64
-18.88
-22.95
-27.42
-32.85
-39.5
-47.05
-54.5
-60.24
-62.51
-59.88
-51.85
-39.05
-23.14
-6.25
9.59
23.01
33.45
41.06
46.33
49.72
51.51
51.83
50.77
48.53
45.5
42.16
38.95
36.1
33.69
31.64
29.84
28.13
26.3
24.05
21.04
17.04
11.99
6.13
-0.12
-6.28
-12.07
-17.36
-22.28
-27.08
-32.17
-37.96
-44.74
-52.42
-60.24
-66.8
-70.35
-69.34
-63.02
-51.77
-37.04
-20.89
-5.28
8.36
19.4
27.81
33.87
37.91
40.16
40.78
40.02
38.24
35.87
33.32
30.79
28.29
25.73
23.05
20.4
18
16.1
14.7
13.5
11.96
9.54
5.9
1.15
-4.25
-9.67
-14.56
-18.69
-22.23
-25.68
-29.69
-34.86
-41.51
-49.47
-57.95
-65.59
-70.71
-71.7
-67.5
-58.01
-44.14
-27.58
-10.3
5.9
19.79
30.82
38.88
44.17
46.96
47.56
46.37
43.94
40.89
37.85
35.21
33.07
31.21
29.24
26.86
24.04
21.05
18.3
16.08
14.33
12.56
10.05
6.25
1
-5.37
-12.14
-18.5
-23.93
-28.28
-31.92
-35.52
-39.85
-45.49
-52.49
-60.15
-67.02
-71.24
-71.07
-65.62
-55.15
-41.15
-25.71
-10.91
1.8
11.78
19.01
23.74
26.15
26.35
24.43
20.79
16.19
11.66
8.31
7.02
8.25
11.93
17.61
24.52
31.83
38.72
44.43
48.37
50.06
49.34
46.37
41.72
36.19
30.59
25.53
21.17
17.19
12.93
7.61
0.57
-8.41
-18.83
-29.41
-38.22
-43.16
-42.55
-35.7
-23.19
-6.72
11.37
28.74
43.63
55
62.66
67.14
69.32
70.09
70.14
69.88
69.52
69.17
68.84
68.77
69.47
71.57
75.58
81.5
88.68
95.86
101.4
103.38
100.47
92.27
79.4
63.04
44.55
25.21
6.03
-12.23
-30.02
-47.78
-65.48
-82.54
-98.06
-111.12
-120.9
-126.73
-128.12
-126.76
-124
-119.99
-113.89
-104.9
-93.18
-79.7
-65.7
-51.9
-41.31
-35.78
-35.36
-39.06
-46.39
-58.09
-75.34
-99.24
-130.42
-172.92
-228.76
-295.45
-365.5
-428.77
-476.14
-502.15
-507.06
-472.21
-394.22
-286.02
-170.85
-68.29
13.96
77.02
124.48
157.82
176.71
177.45
160.17
131.01
100.72
80.08
73.91
83.28
104.85
132.84
158.37
175.14
181.23
178.48
169.74
156.81
140.55
121.51
101.28
81.1
63.67
52.32
50.01
57.1
70.75
86.24
98.46
103.78
99.81
86.45
65.63
40.55
14.48
-9.99
-31.07
-48.03
-60.78
-69.86
-75.56
-77.65
-75.63
-69.34
-59.41
-47.1
-33.87
-20.69
-7.87
4.77
17.2
28.76
38.06
43.57
44.41
40.8
34.03
25.93
18.15
11.73
7.01
3.84
1.86
0.65
-0.19
-0.81
-1.03
-0.2
2.55
7.84
15.48
24.1
31.44
35.14
33.63
26.91
16.66
5.93
-1.61
-2.52
5.6
23.39
49.41
80.2
111.05
137.14
154.92
162.95
162.04
154.43
142.58
128.2
111.96
93.92
74.27
53.72
33.5
14.72
-1.98
-16.54
-29.11
-39.58
-47.35
-51.63
-52.05
-49.15
-44.4
-39.81
-37.16
-37.42
-40.5
-45.37
-50.4
-53.84
-54.26
-50.87
-43.76
-33.7
-21.84
-9.35
2.98
14.81
26.12
37.02
47.58
57.77
67.46
76.47
84.59
91.6
97.44
102.27
106.58
111.17
116.88
124.34
133.6
143.84
153.31
159.56
160.09
153.11
138.24
116.74
91.15
64.43
39.03
16.26
-3.8
-21.83
-38.57
-54.12
-67.77
-78.2
-84.19
-85.21
-81.85
-75.83
-69.38
-64.62
-62.79
-63.96
-67.28
-71.48
-75.57
-79.31
-83.54
-89.91
-100.37
-116.29
-137.65
-162.52
-187.22
-207.18
-218.2
-217.72
-205.5
-183.58
-155.41
-124.78
-94.83
-67.46
-43.24
-21.55
-0.99
19.92
42.06
65.05
87.07
105.45
117.64
122.37
120.13
112.82
102.76
91.44
79.05
64.73
47.55
27.36
5.12
-17.52
-39
-58.42
-75.66
-90.9
-104.15
-114.95
-122.54
-126.38
-126.62
-124.26
-120.88
-118.14
-117.27
-118.85
-122.85
-128.78
-135.92
-143.35
-149.95
-154.47
-155.8
-153.47
-147.98
-140.84
-134.2
-130.12
-129.83
-133.32
-139.14
-144.85
-147.41
-143.7
-130.73
-106.12
-68.85
-20.36
34.96
90.18
137.92
172.91
194.14
205.11
211.77
219.53
230.56
243.32
254.11
259.62
258.78
252.77
243.56
232.22
218.36
200.93
179.82
156.86
135.52
119.48
110.93
109.44
112.23
115.52
116.18
112.92
106.34
98.2
90.18
83.13
76.73
70.06
62.32
53.39
43.92
34.99
27.49
21.81
17.8
15.06
13.32
12.59
13.07
14.83
17.5
20.17
21.65
20.9
17.42
11.33
3.19
-6.35
-16.73
-27.47
-37.9
-46.98
-53.43
-56.04
-54.21
-48.22
-39.17
-28.66
-18.2
-8.89
-1.23
4.74
9.16
12.16
13.72
13.78
12.34
9.62
6.11
2.42
-0.91
-3.61
-5.75
-7.67
-9.7
-11.99
-14.42
-16.73
-18.68
-20.2
-21.48
-22.8
-24.43
-26.55
-29.27
-32.68
-36.93
-42.07
-47.9
-53.73
-58.37
-60.4
-58.63
-52.61
-42.79
-30.48
-17.38
-5.06
5.47
13.83
20.17
24.87
28.23
30.44
31.49
31.31
29.91
27.39
24.09
20.46
17.01
14.11
11.92
10.36
9.14
7.96
6.55
4.75
2.48
-0.28
-3.56
-7.29
-11.37
-15.64
-19.97
-24.37
-29.05
-34.28
-40.21
-46.59
-52.63
-57.08
-58.55
-55.99
-49.09
-38.49
-25.53
-11.88
0.89
11.73
20.09
25.93
29.46
31.03
31.03
29.84
27.82
25.26
22.41
19.45
16.56
13.88
11.52
9.51
7.77
6.14
4.54
2.92
1.32
-0.25
-1.88
-3.74
-6.04
-8.91
-12.33
-16.18
-20.35
-24.87
-30
-35.99
-42.9
-50.27
-57
-61.57
-62.42
-58.52
-49.77
-37.11
-22.26
-7.21
6.37
17.47
25.77
31.45
34.91
36.49
36.46
35.02
32.45
29.13
25.49
21.9
18.64
15.79
13.31
11.13
9.16
7.34
5.62
3.89
1.97
-0.33
-3.17
-6.59
-10.5
-14.71
-19.03
-23.34
-27.78
-32.64
-38.27
-44.84
-52.09
-59.14
-64.62
-66.96
-64.96
-58.18
-47.18
-33.36
-18.57
-4.48
7.7
17.39
24.54
29.37
32.21
33.36
33.13
31.85
29.84
27.35
24.56
21.59
18.56
15.62
12.98
10.84
9.32
8.35
7.67
6.88
5.57
3.45
0.46
-3.19
-7.2
-11.23
-15.12
-18.93
-22.97
-27.66
-33.36
-40.17
-47.73
-55.17
-61.22
-64.41
-63.5
-57.85
-47.67
-34.05
-18.64
-3.32
10.35
21.36
29.41
34.7
37.76
39.14
39.27
38.39
36.62
34.12
31.11
27.95
24.96
22.4
20.34
18.69
17.3
15.94
14.42
12.57
10.25
7.34
3.82
-0.24
-4.65
-9.19
-13.65
-17.98
-22.36
-27.16
-32.83
-39.58
-47.14
-54.62
-60.53
-63.22
-61.37
-54.49
-43.15
-28.84
-13.52
0.97
13.29
22.86
29.64
33.97
36.23
36.7
35.57
33.03
29.4
25.15
20.87
17.14
14.3
12.43
11.28
10.4
9.34
7.8
5.63
2.89
-0.31
-3.89
-7.8
-12.06
-16.66
-21.58
-26.78
-32.22
-37.96
-44.1
-50.61
-57.12
-62.8
-66.39
-66.5
-62.09
-52.87
-39.56
-23.63
-6.93
8.88
22.67
33.97
42.78
49.3
53.68
55.99
56.31
54.97
52.58
49.95
47.84
46.66
46.36
46.51
46.5
45.91
44.55
42.49
39.89
36.8
33.14
28.78
23.72
18.11
12.2
6.19
0.07
-6.46
-13.86
-22.57
-32.61
-43.34
-53.41
-61.02
-64.44
-62.64
-55.65
-44.69
-31.7
-18.78
-7.53
1.29
7.67
12.05
14.86
16.27
16.21
14.56
11.42
7.26
2.79
-1.21
-4.22
-6.1
-7.04
-7.42
-7.63
-7.96
-8.55
-9.44
-10.63
-12.14
-13.98
-16.2
-18.86
-22.03
-25.85
-30.41
-35.84
-42.06
-48.73
-55.09
-59.98
-62.1
-60.36
-54.27
-44.19
-31.22
-16.94
-2.96
9.48
19.69
27.48
32.96
36.36
37.87
37.64
35.88
32.93
29.28
25.54
22.22
19.66
17.85
16.51
15.24
13.69
11.67
9.23
6.51
3.62
0.55
-2.79
-6.55
-10.86
-15.83
-21.53
-28
-35.11
-42.37
-48.8
-53.09
-53.92
-50.39
-42.47
-31
-17.48
-3.57
9.33
20.35
29.16
35.87
40.81
44.37
46.95
48.87
50.37
51.59
52.61
53.44
54.04
54.27
53.93
52.76
50.52
47.1
42.67
37.6
32.36
27.39
22.87
18.64
14.28
9.24
3.05
-4.57
-13.55
-23.52
-33.7
-43
-50.06
-53.64
-52.95
-48
-39.72
-29.67
-19.57
-10.71
-3.68
1.69
5.98
9.76
13.33
16.66
19.54
21.75
23.18
23.89
24.1
24.11
24.31
25.02
26.46
28.59
31.14
33.69
35.81
37.27
38.05
38.27
38.04
37.31
35.85
33.3
29.31
23.64
16.28
7.6
-1.59
-10.01
-16.12
-18.6
-16.75
-10.86
-2.14
7.71
17.05
24.67
30.05
33.22
34.54
34.47
33.39
31.55
29
25.66
21.46
16.46
10.93
5.31
0.03
-4.68
-8.75
-12.21
-15.08
-17.24
-18.64
-19.33
-19.52
-19.55
-19.7
-20.1
-20.72
-21.52
-22.51
-23.84
-25.78
-28.65
-32.77
-38.24
-44.81
-51.73
-57.73
-61.28
-61.04
-56.31
-47.35
-35.31
-21.86
-8.67
2.99
12.53
19.9
25.35
29.16
31.37
31.83
30.36
26.95
21.91
15.89
9.68
4.01
-0.66
-4.21
-6.76
-8.58
-10.01
-11.31
-12.65
-14.13
-15.73
-17.46
-19.39
-21.71
-24.73
-28.76
-33.92
-40.01
-46.44
-52.26
-56.38
-57.71
-55.42
-49.22
-39.41
-26.93
-13.09
0.67
13.09
23.4
31.27
36.85
40.44
42.39
42.86
41.85
39.26
35.07
29.52
23.08
16.46
10.4
5.46
1.88
-0.43
-1.81
-2.71
-3.54
-4.59
-6.01
-7.83
-10.03
-12.58
-15.43
-18.59
-22.11
-26.15
-30.93
-36.63
-43.15
-49.93
-55.86
-59.46
-59.31
-54.55
-45.23
-32.4
-17.75
-3.11
10.05
20.91
29.25
35.25
39.23
41.51
42.34
41.94
40.58
38.51
36
33.29
30.48
27.7
25.01
22.6
20.62
19.11
17.95
16.78
15.16
12.75
9.42
5.35
0.89
-3.62
-7.99
-12.29
-16.78
-21.75
-27.47
-33.96
-40.91
-47.6
-52.9
-55.47
-54.16
-48.39
-38.45
-25.45
-11.02
3.16
15.82
26.26
34.33
40.16
43.91
45.73
45.81
44.44
42.09
39.29
36.45
33.8
31.35
29.04
26.82
24.77
23.03
21.71
20.77
19.93
18.78
16.88
13.95
9.97
5.16
-0.07
-5.27
-10.11
-14.42
-18.32
-22.12
-26.3
-31.34
-37.48
-44.48
-51.5
-57.15
-59.79
-58.11
-51.57
-40.7
-26.9
-12.05
2.11
14.34
24.13
31.47
36.59
39.74
41.09
40.85
39.31
36.94
34.27
31.7
29.43
27.42
25.47
23.39
21.16
18.94
16.98
15.38
14.05
12.63
10.68
7.82
4.01
-0.51
-5.29
-9.9
-14.11
-18
-21.96
-26.44
-31.8
-38.09
-44.87
-51.2
-55.79
-57.32
-54.73
-47.6
-36.35
-22.12
-6.51
8.85
22.63
34.03
42.75
48.85
52.56
54.11
53.72
51.64
48.15
43.67
38.67
33.61
28.85
24.64
21.04
18.04
15.59
13.64
12.13
11.01
10.2
9.61
9.12
8.61
8
7.1
5.57
2.92
-1.49
-8.22
-17.46
-28.86
-41.4
-53.55
-63.65
-70.07
-71.6
-67.53
-57.89
-43.4
-25.51
-6.14
12.72
29.52
43.44
54.49
63.04
69.47
73.88
76.21
76.51
75.1
72.53
69.3
65.64
61.36
55.98
49.14
40.97
32.15
23.63
16.25
10.4
6.12
2.99
0.38
-2.34
-5.28
-7.87
-9.12
-8.16
-4.77
0.5
6.11
9.83
9.54
4.21
-5.44
-17.35
-28.68
-36.6
-38.51
-32.97
-20.31
-2.66
16.56
33.75
45.88
51.17
47.71
36.01
19.03
0.52
-17.4
-35.83
-55.85
-77.44
-98.2
-115.33
-126.24
-129.69
-126.46
-119
-110.43
-103.11
-98.14
-95.06
-92.43
-88.33
-81.63
-72.72
-63.23
-55.06
-49.33
-46.11
-44.71
-44.24
-43.77
-42.6
-40.26
-36.36
-30.49
-22.38
-12.29
-1.17
9.46
18.15
23.9
26.43
26.15
23.92
20.72
17.2
13.49
9.33
4.43
-1.24
-7.39
-13.57
-19.33
-24.45
-28.83
-32.48
-35.27
-36.89
-36.99
-35.29
-31.84
-26.96
-21.21
-15.12
-9.1
-3.26
2.48
8.35
14.64
21.67
29.77
39.27
50.51
63.71
78.96
95.98
114.12
132.28
149.07
163.04
172.97
178.24
179.03
176.36
171.8
167.07
163.53
161.65
160.86
159.72
156.54
150.21
140.8
129.59
118.41
108.72
100.67
93.1
83.96
71.47
54.9
34.88
13.07
-8.57
-28.32
-45
-58.08
-67.83
-75.55
-83.63
-94.98
-111.77
-133.99
-158.72
-180.7
-194.35
-196.2
-186.4
-168.66
-148.35
-130.23
-116.87
-108.51
-104.15
-102.76
-103.84
-107.13
-111.95
-116.95
-120.4
-120.96
-118.22
-112.68
-105.23
-96.69
-87.57
-78.26
-69.29
-61.47
-55.59
-52.07
-50.63
-50.32
-49.66
-47.03
-40.99
-30.51
-15.17
4.65
27.65
51.73
74.37
93.24
106.81
114.73
117.77
117.42
115.28
112.52
109.68
106.83
103.87
100.82
97.86
95.22
92.97
90.92
88.67
85.83
82.23
77.89
72.99
67.68
61.93
55.59
48.48
40.59
32.02
23.01
13.71
4.13
-5.8
-16.04
-26.16
-35.3
-42.23
-45.74
-45.05
-40.07
-31.49
-20.53
-8.56
3.22
13.97
23.25
30.87
36.73
40.79
43.02
43.53
42.58
40.55
37.91
35.05
32.24
29.64
27.27
25.11
23.08
21.06
18.89
16.38
13.38
9.74
5.45
0.58
-4.65
-9.89
-14.83
-19.21
-23.03
-26.51
-30.05
-34.08
-38.91
-44.65
-51.05
-57.56
-63.35
-67.33
-68.48
-66.01
-59.68
-49.93
-37.82
-24.71
-11.94
-0.54
8.9
16.14
21.13
24.01
25.13
25.13
24.9
25.46
27.59
31.58
37.09
43.3
49.17
53.93
57.24
59.32
60.72
61.97
63.26
64.25
64.06
61.58
55.89
46.68
34.67
21.42
9.01
-0.71
-6.83
-9.65
-10.52
-11.25
-13.47
-18.09
-25.12
-33.81
-42.86
-50.72
-55.86
-56.99
-53.28
-44.63
-31.69
-15.81
1.22
17.56
31.62
42.38
49.54
53.56
55.56
56.85
58.44
60.5
62.3
62.45
59.68
53.49
44.54
34.39
24.9
17.38
12.17
8.57
5.24
0.81
-5.72
-14.77
-26.26
-39.75
-54.54
-69.8
-84.52
-97.74
-108.75
-117.33
-123.81
-128.93
-133.41
-137.46
-140.57
-141.43
-138.4
-130.06
-115.85
-96.4
-73.55
-49.99
-28.61
-11.74
-0.61
4.99
6.51
6.06
5.69
6.72
9.45
13.37
17.66
21.67
25.11
27.95
30.02
30.79
29.49
25.44
18.67
10.26
2.09
-3.66
-5.54
-3.44
1.18
5.86
8.07
6.23
0.27
-8.38
-17.23
-23.43
-24.43
-18.44
-5.01
14.49
36.54
55.94
67.15
66.5
53.83
33.12
10.98
-5.9
-13.59
-12.07
-4.76
3.59
9.21
10.46
7.71
2.15
-5.36
-14.91
-26.99
-41.73
-58.14
-73.96
-86.17
-91.72
-88.46
-75.83
-55.05
-29.03
-1.81
22.2
39.15
46.48
43.48
31.45
13.43
-6.48
-24.05
-35.86
-40.09
-36.7
-27.22
-14.08
0.09
13.07
23.33
29.94
32.55
31.27
26.72
20
12.51
5.57
-0.07
-4.48
-8.44
-13
-18.85
-25.95
-33.42
-39.97
-44.4
-46.17
-45.59
-43.7
-41.96
-41.86
-44.54
-50.49
-59.36
-69.82
-79.83
-87.05
-89.62
-86.79
-79.26
-68.94
-58.27
-49.34
-43.33
-40.36
-39.86
-41.09
-43.48
-46.74
-50.67
-54.97
-59.07
-62.26
-63.84
-63.37
-60.57
-55.32
-47.46
-36.77
-23.19
-7.24
9.57
24.73
35.4
39.36
36.11
27.33
16.32
6.87
1.84
2.38
7.99
17.34
29.15
42.72
57.67
73.47
88.82
101.8
110.42
113.51
111.16
104.76
96.32
87.66
79.81
72.87
66.34
59.76
53
46.42
40.52
35.55
31.36
27.35
22.79
17.16
10.27
2.27
-6.49
-15.47
-24
-31.22
-36.08
-37.65
-35.37
-29.35
-20.42
-9.87
0.95
10.99
19.69
26.83
32.38
36.32
38.54
38.98
37.64
34.74
30.62
25.77
20.7
15.88
11.69
8.39
6.18
5.21
5.5
6.94
9.08
11.14
12.14
11.25
8.3
4.13
0.78
1.14
8.27
24.28
49.46
81.77
117.07
150.14
176.06
191.51
195.47
189.11
174.97
155.91
134.29
111.76
89.49
68.48
49.63
33.25
18.72
4.47
-11.43
-30.12
-51.38
-73.74
-95.63
-116.52
-137.31
-159.44
-183.22
-206.62
-225.47
-235.19
-233.05
-219.54
-198.17
-173.64
-149.75
-128.2
-108.75
-90.38
-72.63
-56.04
-41.85
-31.1
-23.89
-19.31
-15.94
-12.57
-8.7
-4.67
-1.31
0.67
1.05
0.32
-0.59
-0.76
0.28
2.27
4.27
5.01
3.41
-0.85
-6.95
-12.99
-16.42
-14.81
-6.73
7.81
27.34
49.64
72.53
94.67
115.65
135.81
155.66
175.56
195.48
215.08
233.74
250.62
264.83
275.67
282.95
287.07
288.83
288.98
287.68
284.28
277.37
265.29
246.63
220.71
187.96
150.03
109.8
70.91
37.07
11.08
-5.81
-14.11
-15.7
-12.97
-8.2
-3.22
0.51
1.82
-0.15
-5.7
-14.36
-25.11
-36.86
-49.07
-62.08
-76.82
-94.17
-114.2
-135.83
-157.2
-176.42
-192.31
-204.85
-214.92
-223.83
-232.78
-242.52
-253.31
-264.92
-276.58
-286.9
-294
-295.87
-291.03
-279.06
-260.81
-238.14
-213.26
-188.14
-164.15
-141.95
-121.76
-103.49
-87.01
-72.07
-58.43
-45.9
-34.44
-24.24
-15.65
-9.06
-4.57
-1.89
-0.24
1.42
4.09
8.42
14.49
21.76
29.23
35.72
40.14
41.93
41.25
39.07
36.92
36.34
38.41
43.46
51.08
60.36
70.24
79.77
88.36
95.84
102.18
107.24
110.33
110.33
106.11
97.39
85.33
72.47
61.84
55.52
53.7
54.56
55.32
53.75
49.15
42.28
34.35
26
16.89
6.27
-6
-18.62
-29.02
-34.4
-33.09
-25.58
-14.38
-2.89
6.14
11.61
14.16
15.26
16.1
16.99
17.48
16.93
15.11
12.2
8.41
3.69
-2.23
-9.44
-17.33
-24.52
-29.42
-31.04
-29.6
-26.43
-23.43
-22.12
-23.12
-25.96
-29.63
-33.16
-36.21
-39.24
-43.11
-48.58
-55.81
-64.18
-72.42
-79.06
-82.53
-81.33
-74.09
-59.77
-38.16
-10.38
21.14
53.39
84.01
112.44
140.19
169.84
203.36
240.59
278.8
313.6
340.68
357.26
362.71
358.14
345.32
325.89
301.1
272.13
240.51
208.24
177.37
149.51
125.38
104.68
86.4
69.25
52
33.95
15.3
-2.69
-17.76
-27.35
-29.67
-24.67
-14.54
-3.07
5.62
8.61
4.78
-5.3
-20.33
-39.05
-60.51
-83.76
-107.41
-129.53
-148.16
-161.97
-170.6
-174.47
-174.36
-170.83
-164.36
-155.54
-145.5
-135.87
-128.42
-124.33
-123.81
-126.04
-129.5
-132.72
-134.93
-136.54
-139.02
-144.36
-154.16
-168.89
-187.29
-206.38
-222.03
-229.99
-226.98
-211.6
-184.78
-149.53
-110.25
-71.51
-37.06
-9.14
11.64
25.96
35.08
40.3
42.61
42.67
41.07
38.46
35.63
33.43
32.48
33
34.58
36.31
37.11
36.1
33.04
28.31
22.76
17.25
12.29
7.83
3.47
-1.37
-7.11
-13.92
-21.72
-30.28
-39.25
-48.12
-56.16
-62.46
-66.03
-66.09
-62.24
-54.77
-44.61
-33.34
-22.81
-14.81
-10.59
-10.62
-14.61
-21.64
-30.28
-38.68
-44.52
-45.26
-38.96
-25.4
-7.01
11.37
24.16
27.31
20.28
6.12
-10.18
-24.27
-34.29
-41.16
-47.22
-54.24
-62.28
-69.87
-75.28
-77.74
-77.82
-76.86
-75.82
-74.66
-72.36
-67.69
-59.9
-49.01
-35.84
-21.46
-6.93
6.85
19.03
28.83
35.75
39.85
41.97
43.51
45.91
49.91
55.24
60.65
64.52
65.76
64.32
61.31
58.64
58.34
61.84
69.33
79.31
88.63
93.24
89.62
76.5
56
33.6
16.32
10.1
17.32
35.71
59.44
81.71
97.68
106.17
109.38
111.09
114.23
119.47
125.26
129.17
129.53
126.32
120.9
114.84
108.82
102.2
93.59
81.89
67.12
50.47
33.77
18.58
5.66
-5.07
-14.23
-22.53
-30.41
-38.06
-45.56
-53.03
-60.8
-69.25
-78.5
-88.06
-96.64
-102.23
-102.64
-96.21
-82.52
-62.68
-39.23
-15.47
5.33
20.6
29.04
30.7
26.9
19.72
11.58
4.53
-0.14
-2.15
-2.07
-1.1
-0.65
-1.87
-5.4
-11.1
-18.24
-25.83
-33.16
-40.12
-47.25
-55.32
-64.56
-74.11
-81.92
-85.32
-82.04
-71.17
-53.62
-31.89
-9.29
11.19
27.5
38.86
45.43
47.87
46.9
43.11
37.1
29.59
21.49
13.78
7.21
2.13
-1.68
-4.8
-7.87
-11.35
-15.35
-19.79
-24.52
-29.67
-35.54
-42.5
-50.48
-58.78
-65.98
-70.29
-70.17
-64.83
-54.58
-40.67
-24.93
-9.25
4.86
16.39
24.85
30.11
32.26
31.58
28.47
23.47
17.2
10.33
3.48
-2.84
-8.28
-12.63
-15.8
-17.75
-18.58
-18.57
-18.21
-18.22
-19.35
-22
-25.97
-30.35
-33.67
-34.36
-31.23
-23.82
-12.43
1.98
18.12
34.58
49.98
63.12
72.99
78.94
80.8
78.97
74.28
67.78
60.43
52.91
45.52
38.28
31.18
24.28
17.76
11.86
6.64
1.92
-2.77
-8.02
-14.44
-22.41
-31.97
-42.66
-53.45
-62.76
-68.82
-70.14
-66.04
-56.94
-44.28
-29.99
-15.88
-3.17
7.61
16.33
22.82
26.72
27.54
25.04
19.63
12.41
4.96
-1.28
-5.57
-8.14
-10.08
-12.89
-17.7
-24.82
-33.56
-42.6
-50.65
-57.18
-62.76
-68.94
-77.59
-90.04
-106.41
-125.37
-144.51
-161.15
-173.21
-179.83
-181.42
-179.31
-174.99
-169.51
-163.15
-155.34
-144.87
-130.1
-109.53
-82.68
-51.18
-19.28
6.79
20.81
19.47
4.47
-17.2
-35.61
-41.6
-30.3
-2.56
36.19
78.82
119.27
154.07
182.08
203.3
217.83
225.81
227.88
225.75
221.95
219.16
219.13
222.22
227.36
232.74
236.55
237.49
235.14
229.85
222.66
215.25
209.58
207.28
208.97
213.94
220.47
226.7
231.59
235.48
240.02
247.09
257.15
268.42
277.36
280.07
274.21
259.54
237.71
211.34
182.88
153.92
125.34
98.49
75.53
59.2
50.74
48.96
50.84
52.9
52.5
48.47
41.47
33.06
24.81
16.61
6.93
-5.63
-21.24
-39.05
-58.27
-78.43
-101.89
-127.28
-151.08
-171.77
-191.15
-211.05
-229.77
-245.69
-257.55
-264.81
-267.46
-267.05
-266.14
-266.85
-269.61
-272.92
-274.16
-270.22
-259.03
-240.53
-217.77
-195.64
-178.4
-167.78
-162.72
-160.68
-158.86
-155.51
-150.31
-144.39
-139.36
-136.12
-134.52
-133.84
-133.72
-134.16
-135.48
-137.72
-140.56
-143.16
-144.29
-142.82
-138.26
-131.06
-122.11
-112.1
-100.96
-87.85
-71.66
-51.72
-28.37
-3.11
21.82
44.21
62.61
76.64
86.8
93.94
98.84
101.9
103.27
103.09
101.72
99.84
98.26
97.64
98.15
99.44
100.75
101.24
100.37
98
94.47
90.34
86.09
81.9
77.72
73.33
68.59
63.51
58.2
52.69
46.78
40.17
32.75
24.95
17.85
12.84
11.11
13.12
18.46
26.07
34.7
43.23
50.78
56.57
59.87
60.06
56.93
50.89
42.96
34.49
26.72
20.49
16.2
13.89
13.34
14.01
15.01
15.2
13.55
9.59
3.65
-3.21
-9.72
-15.02
-18.98
-22.2
-25.56
-29.72
-34.83
-40.51
-46.05
-50.65
-53.64
-54.63
-53.5
-50.31
-45.25
-38.43
-29.92
-19.76
-8.2
4.06
15.77
25.2
30.51
30.28
24.18
13.3
0.16
-11.86
-19.52
-20.91
-16.32
-8.46
-1.95
-1.71
-11.15
-30.5
-56.35
-82.58
-102.42
-110.82
-106.02
-89.76
-66.18
-39.97
-14.77
7.5
26.49
42.66
56.66
69.06
80.3
90.88
101.27
111.97
123.41
136
149.91
164.64
178.74
189.8
195.12
192.68
182.24
165.56
145.96
127.18
112.2
102.67
98.67
99.1
101.97
104.86
105.32
101.33
91.66
76.12
55.42
30.82
3.7
-24.6
-52.74
-79.23
-102.45
-120.79
-132.91
-138.14
-136.66
-129.64
-119.29
-108.47
-100.19
-96.72
-98.88
-105.68
-114.69
-122.97
-128.09
-128.88
-125.57
-119.34
-111.59
-103.41
-95.39
-87.82
-81.06
-75.72
-72.55
-72.06
-74.19
-78.13
-82.67
-86.55
-88.91
-89.29
-87.42
-82.96
-75.34
-64.04
-48.95
-30.7
-10.69
9.23
27.3
42.24
53.44
60.85
64.7
65.42
63.52
59.67
54.75
49.68
45.31
42.14
40.31
39.63
39.69
39.78
38.74
34.95
26.51
11.93
-9.13
-35.37
-63.88
-90.76
-112.21
-125.43
-129.2
-123.98
-111.46
-94.22
-75.15
-57.01
-42.1
-31.93
-27.14
-27.6
-32.68
-41.44
-52.85
-65.82
-79.23
-92.09
-103.7
-113.87
-122.92
-131.63
-140.85
-150.95
-161.54
-171.28
-178.24
-180.64
-177.62
-169.82
-159.22
-148.42
-139.56
-133.52
-129.59
-125.89
-120.18
-110.52
-95.74
-75.46
-50.15
-20.96
10.08
40.3
66.84
87.46
101.32
109.31
113.73
117.5
123.17
132.45
146.01
163.84
185.63
210.95
239
268.3
296.63
321.42
340.55
353.08
359.47
361.2
359.93
356.76
351.96
345.26
336.37
325.29
312.37
297.94
281.84
263.37
241.64
216.12
187.29
156.71
126.62
99.24
76.01
57.21
41.94
28.64
15.85
2.72
-10.72
-23.79
-35.62
-45.56
-53.4
-59.22
-63.31
-66.03
-67.84
-69.28
-70.9
-73.19
-76.39
-80.34
-84.55
-88.42
-91.51
-93.82
-95.69
-97.7
-100.32
-103.7
-107.64
-111.6
-115.03
-117.49
-118.91
-119.52
-119.78
-120.09
-120.55
-120.73
-119.59
-115.66
-107.51
-94.25
-76.1
-54.48
-31.81
-10.78
6.32
18.16
24.57
26.38
25.05
22.18
19.26
17.27
16.66
17.24
18.39
19.25
19.06
17.47
14.5
10.45
5.66
0.35
-5.36
-11.35
-17.39
-23.18
-28.5
-33.22
-37.36
-40.89
-43.67
-45.52
-46.21
-45.74
-44.3
-42.21
-39.81
-37.23
-34.44
-31.3
-27.75
-23.91
-20.11
-16.86
-14.55
-13.36
-13.07
-13.11
-12.81
-11.76
-10.07
-8.37
-7.49
-7.99
-9.79
-12.18
-14.1
-14.61
-13.2
-9.86
-5.12
0
4.06
5.36
2.49
-5.02
-16.28
-29.09
-40.72
-48.85
-52.41
-51.54
-47.03
-39.37
-28.22
-12.62
8.27
34.26
63.66
93.61
120.9
142.94
158.32
166.91
169.36
166.6
159.52
148.85
135.29
119.55
102.31
84.07
65.08
45.54
25.76
6.48
-11.2
-26.1
-37.37
-44.79
-48.83
-50.44
-50.73
-50.64
-50.72
-51.14
-51.79
-52.43
-52.89
-53.19
-53.54
-54.22
-55.39
-57.03
-58.92
-60.85
-62.72
-64.67
-66.93
-69.67
-72.93
-76.5
-80.06
-83.32
-86.13
-88.61
-91.09
-94.05
-97.86
-102.71
-108.35
-114.12
-118.91
-121.31
-119.8
-113.07
-100.41
-81.91
-58.79
-33.16
-7.67
15.15
33.53
46.76
55.12
59.51
60.98
60.42
58.54
56.02
53.51
51.64
50.72
50.63
50.75
50.17
47.95
43.5
36.75
28.16
18.51
8.63
-0.96
-10.31
-19.98
-30.85
-43.53
-57.88
-72.69
-85.84
-94.85
-97.66
-93.28
-82.09
-65.65
-46.12
-25.7
-6.25
10.86
24.68
34.59
40.34
42.17
40.75
37.12
32.41
27.59
23.3
19.84
17.23
15.3
13.73
12.06
9.66
5.9
0.36
-7.02
-15.82
-25.2
-34.22
-42.14
-48.69
-54.2
-59.45
-65.41
-72.95
-82.46
-93.59
-105.13
-115.01
-120.67
-119.75
-110.8
-93.86
-70.54
-43.55
-15.91
9.84
32
49.7
62.54
70.39
73.36
71.97
67.34
61.13
55.16
50.85
48.84
48.77
49.57
49.91
48.76
45.72
41.01
35.24
29.09
22.96
16.9
10.66
3.87
-3.84
-12.75
-23.04
-34.6
-46.83
-58.48
-67.74
-72.55
-71.31
-63.46
-49.68
-31.57
-10.9
11.14
34.23
58.63
84.48
111.19
137.33
161.03
180.76
195.89
206.8
214.36
219.45
222.6
223.95
223.63
221.94
219.4
216.37
212.83
208.22
201.6
192.07
179.01
162.2
141.87
118.48
92.7
65.29
37.11
9.05
-17.81
-42.11
-62.17
-76.23
-82.93
-81.94
-74.22
-61.96
-47.92
-34.58
-23.61
-15.66
-10.75
-8.68
-9.29
-12.41
-17.71
-24.5
-31.85
-38.78
-44.53
-48.75
-51.47
-53
-53.63
-53.32
-51.67
-48.05
-42.13
-34.31
-26.03
-19.51
-17.1
-20.34
-29.38
-42.84
-58.19
-72.38
-82.53
-86.46
-83
-72.19
-55.2
-34.07
-11.27
10.87
30.64
47.08
59.88
68.98
74.3
75.53
72.27
64.27
51.84
36.14
19.18
3.57
-8.15
-14.33
-14.8
-11.08
-5.93
-2.48
-3.27
-9.68
-21.86
-39.06
-60.05
-83.4
-107.56
-130.87
-151.84
-169.4
-183.23
-193.6
-200.99
-205.49
-206.44
-202.66
-193.1
-177.57
-157.26
-134.51
-112.01
-91.79
-74.5
-59.31
-44.61
-29.03
-12.35
4.26
18.76
29.29
34.92
35.83
32.99
27.55
20.54
13.02
6.2
1.49
-0.03
1.83
6.04
10.57
13.22
12.39
7.55
-0.99
-12.6
-26.77
-43.17
-61.23
-79.74
-96.64
-109.44
-115.93
-114.9
-106.54
-92.32
-74.36
-54.65
-34.65
-15.16
3.33
20.27
34.81
46.07
53.49
57.19
58.04
57.33
56.35
55.96
56.44
57.53
58.73
59.54
59.63
58.93
57.54
55.64
53.39
50.88
48.19
45.34
42.32
38.99
34.98
29.75
22.85
14.21
4.48
-4.92
-12.2
-15.64
-14.2
-7.82
2.52
15.13
27.92
38.79
45.97
48.19
45.05
37.01
25.44
12.27
-0.49
-11.16
-18.73
-22.82
-23.54
-21.35
-16.92
-11.13
-4.97
0.65
5.17
8.64
11.73
15.44
20.7
27.88
36.56
45.64
53.63
59.1
61
58.92
53.19
45
36.42
30.05
28.47
33.3
44.56
60.38
77.55
92.5
102.46
106.35
104.94
100.39
95.18
91.12
88.61
86.7
83.66
77.85
68.43
55.63
40.5
24.3
8.04
-7.9
-23.46
-38.67
-53.31
-66.97
-79.24
-90.1
-100.05
-109.97
-120.59
-131.95
-143.13
-152.48
-158.24
-159.28
-155.49
-147.6
-136.61
-123.12
-107.14
-88.41
-67.06
-44.05
-21.15
-0.39
16.7
29.43
38.05
43.24
45.85
46.66
46.51
46.4
47.63
51.7
60.04
73.67
92.68
116.12
142.14
168.42
192.85
213.99
231.22
244.62
254.48
260.94
263.84
262.85
257.76
248.72
236.24
221.02
203.81
185.37
166.4
147.69
130.09
114.42
101.35
91.24
83.91
78.58
73.84
67.9
59.08
46.24
29.15
8.59
-13.79
-35.89
-55.69
-71.7
-83.26
-90.56
-94.47
-96.13
-96.56
-96.36
-95.7
-94.55
-93.05
-91.68
-91.28
-92.63
-96.11
-101.42
-107.63
-113.38
-117.15
-117.57
-113.53
-104.53
-90.7
-72.84
-52.22
-30.29
-8.45
11.97
29.67
43.42
52.3
56.04
55.25
51.33
45.9
40.16
34.42
28.31
21.27
13.28
5.16
-1.75
-6.17
-7.56
-6.36
-3.71
-1.02
0.59
0.39
-1.92
-6.44
-13.06
-21.41
-30.64
-39.31
-45.66
-48.06
-45.54
-38.06
-26.53
-12.45
2.5
16.74
29.03
38.41
44.28
46.38
44.93
40.51
33.9
25.82
16.63
6.42
-4.8
-16.72
-28.64
-39.57
-48.57
-55.18
-59.63
-62.85
-66.23
-71.25
-79.21
-90.84
-106.07
-123.74
-141.66
-156.96
-166.85
-169.53
-164.75
-153.86
-139.3
-123.71
-109.24
-97.14
-87.66
-80.4
-74.49
-69.01
-63.16
-56.51
-49.1
-41.47
-34.39
-28.54
-24.13
-20.84
-18
-15.03
-11.64
-7.93
-4.31
-1.2
0.94
1.65
0.49
-2.76
-7.71
-13.11
-16.93
-17.02
-12.04
-2.19
10.73
23.89
34.52
40.72
41.94
38.6
31.6
21.81
9.87
-3.61
-17.83
-31.7
-44.02
-53.78
-60.49
-64.33
-66.02
-66.52
-66.68
-66.92
-67.18
-67.11
-66.36
-64.89
-62.99
-61.01
-59.01
-56.33
-51.58
-42.94
-28.69
-7.78
19.81
52.9
89.23
125.69
158.9
185.9
204.97
216.25
221.79
224.86
228.9
236.41
248.33
263.92
281.23
297.56
310.12
316.45
314.93
305.14
288
265.52
240.17
214.16
188.83
164.69
141.73
120.06
100.37
83.93
72.26
66.47
66.73
72.09
80.65
90.04
98.01
102.89
103.71
100.15
92.13
79.74
63.28
43.43
21.45
-1.08
-22.59
-42.21
-60
-76.87
-93.88
-111.49
-129.15
-145.44
-158.91
-168.91
-176.14
-182.39
-189.74
-199.59
-212.21
-226.77
-241.7
-255.11
-264.95
-269.27
-266.6
-256.5
-240.11
-220
-199.37
-180.79
-165.09
-151.16
-136.85
-120.44
-101.96
-83.33
-67.4
-56.29
-50.01
-45.96
-39.62
-26.16
-2.29
32.26
74.28
117.83
155.98
182.89
195.58
194.53
183.27
166.91
150.65
138.34
131.8
130.58
132.11
132.55
128.28
117.77
102.91
88.69
81.06
84.04
97.54
117.34
137.33
152.44
160.77
163.55
163.38
162.1
159.82
155.45
148.19
138.54
128.08
118.23
108.91
98.17
83.13
61.5
33.07
0.17
-32.93
-61.67
-82.78
-95.5
-101.5
-103.96
-106.18
-110.43
-117.45
-126.68
-136.97
-147.19
-156.65
-165.13
-172.77
-179.84
-186.67
-193.57
-200.65
-207.77
-214.32
-219.33
-221.65
-220.33
-215.04
-206.19
-194.78
-181.91
-168.47
-154.93
-141.59
-128.8
-117.16
-107.32
-99.66
-94
-89.59
-85.49
-81.02
-76.02
-70.91
-66.32
-62.71
-60.18
-58.56
-57.63
-57.37
-57.92
-59.47
-62
-65.24
-68.75
-72.19
-75.62
-79.54
-84.76
-92.05
-101.8
-113.89
-127.82
-142.91
-158.52
-174.07
-188.71
-200.93
-208.58
-209.29
-201.31
-184.33
-159.73
-130.2
-98.82
-68.16
-39.8
-14.48
7.43
25.47
39.01
47.57
51.26
50.87
47.77
43.39
38.87
34.93
31.92
29.96
29.04
29.09
29.83
30.87
31.71
31.97
31.54
30.64
29.7
29.1
28.93
28.82
28.11
26.17
22.75
18.18
13.27
8.91
5.67
3.59
2.2
0.75
-1.48
-5.02
-10.08
-16.41
-23.16
-28.95
-32.03
-30.76
-24.1
-12.08
4.11
22.52
41.02
57.91
72.22
83.66
92.38
98.62
102.6
104.63
105.2
105.03
104.83
105.08
105.78
106.54
106.83
106.34
105.27
104.2
103.72
103.98
104.52
104.41
102.63
98.69
92.73
85.58
78.39
72.31
68.18
66.36
66.58
68.03
69.33
68.9
65.39
58.03
46.89
32.72
16.65
-0.28
-17.25
-33.57
-48.39
-60.35
-67.55
-67.85
-59.57
-42.17
-16.78
13.94
46.4
77.15
103.87
125.89
143.87
158.95
171.78
181.95
188.21
189.3
184.91
176.15
165.41
155.49
148.64
145.68
145.75
146.66
145.72
140.62
130.23
114.71
95.37
73.93
51.77
29.47
6.61
-17.76
-44.5
-73.72
-104.54
-135.27
-163.84
-188.43
-207.84
-221.67
-230.23
-234.21
-234.49
-231.99
-227.67
-222.59
-217.63
-213.19
-208.83
-203.24
-194.69
-181.69
-163.77
-141.68
-117.22
-92.54
-69.45
-48.94
-31.15
-15.73
-2.21
9.65
19.84
28.22
34.73
39.49
42.85
45.23
46.83
47.73
48.01
48.07
48.78
51.19
55.93
62.61
69.74
75.32
77.82
76.97
73.86
70.32
67.98
67.47
68.36
69.53
69.74
68.01
63.7
56.46
46.22
33.37
18.87
4.29
-8.5
-17.72
-22.04
-20.86
-14.27
-2.99
11.74
28.27
44.79
59.63
71.61
80.26
85.8
88.88
90.17
90.08
88.73
86.2
82.71
78.71
74.77
71.34
68.54
66.24
64.08
61.73
58.83
55.06
50.13
43.79
36.02
27.06
17.44
7.75
-1.51
-10.11
-18.19
-26.21
-34.78
-44.53
-55.81
-68.46
-81.66
-94
-103.73
-109.27
-109.68
-104.92
-95.96
-84.43
-72.22
-61.03
-51.89
-45.06
-40.01
-35.78
-31.35
-26.07
-19.79
-12.83
-5.7
1.27
8.11
15.14
22.68
30.82
39.26
47.38
54.56
60.42
65.01
68.73
72.09
75.51
79.07
82.52
85.44
87.41
88.08
87.24
84.73
80.38
74.19
66.39
57.67
49.15
42.13
37.69
36.16
36.9
38.29
38.25
34.88
27.05
14.8
-0.89
-18.48
-36.43
-53.55
-69.05
-82.37
-92.95
-100.16
-103.41
-102.61
-98.28
-91.66
-84.33
-77.8
-73
-70.15
-68.8
-68.21
-67.78
-67.16
-66.38
-65.61
-65.03
-64.73
-64.8
-65.46
-67.07
-69.9
-73.76
-77.72
-80.15
-79.2
-73.49
-62.77
-48.11
-31.51
-15.2
-0.94
10.32
18.35
23.24
25.07
23.91
19.95
13.82
6.56
-0.53
-6.35
-10.34
-12.61
-13.74
-14.46
-15.28
-16.35
-17.5
-18.48
-19.13
-19.61
-20.3
-21.71
-24.36
-28.57
-34.4
-41.54
-49.22
-56.22
-61
-61.98
-58.03
-48.89
-35.37
-19.26
-2.77
12.05
23.87
32.39
38.13
42.09
45.25
48.3
51.5
54.78
57.9
60.46
62
62
60
55.79
49.55
41.96
34.03
26.92
21.57
18.5
17.54
17.84
18.06
16.68
12.57
5.41
-3.96
-13.67
-21.32
-24.72
-22.57
-14.77
-2.27
13.37
30.54
47.9
64.41
79.2
91.39
100.15
104.98
106.04
104.32
101.52
99.5
99.6
102.13
106.29
110.43
112.81
112.17
108.06
100.7
90.89
79.83
69
59.86
53.21
48.64
44.32
37.65
26.52
10.53
-8.44
-26.93
-41.44
-49.99
-52.83
-51.91
-49.56
-47.2
-44.91
-41.95
-37.65
-32.24
-26.78
-22.7
-21.05
-21.96
-24.41
-26.71
-27.07
-24.14
-17.39
-7.15
5.49
18.71
30.06
36.86
36.83
29.11
14.98
-2.04
-16.86
-24.33
-20.66
-4.36
23.88
61.98
107.55
158.26
211.44
263.39
309.03
342.83
360.38
360.18
344.21
317.26
285
251.94
220.38
190.5
161.52
132.79
104.35
76.52
49.18
21.52
-7.74
-39.35
-72.89
-106.47
-137.4
-163.12
-182.29
-195.23
-203.74
-210.45
-217.65
-226.4
-235.96
-243.89
-246.89
-242.04
-228.03
-205.67
-177.64
-147.4
-117.99
-91.09
-66.94
-44.98
-24.62
-5.8
10.99
25.03
35.85
43.35
47.74
49.28
48.18
44.56
38.44
29.85
18.75
5.03
-11.65
-31.84
-56.2
-85.29
-119.16
-157.01
-196.96
-236.11
-270.98
-298.19
-315.28
-321.33
-317.17
-305.12
-288.25
-269.53
-251.06
-233.82
-217.73
-202.16
-186.42
-170.2
-153.64
-137.07
-120.64
-104.09
-86.72
-67.79
-47.03
-25.04
-3.27
16.44
32.64
44.87
53.68
60.18
65.21
68.78
70.09
68.09
62.18
52.62
40.43
27
13.72
1.72
-8.05
-14.81
-17.91
-17.08
-12.45
-4.65
5.31
16.05
25.95
33.22
36.23
34.03
26.83
16.08
4.08
-6.96
-15.76
-22.39
-28.06
-34.28
-42
-51.09
-60.38
-68.28
-73.48
-75.6
-75.15
-73.21
-70.77
-68.27
-65.4
-61.44
-55.6
-47.61
-37.87
-27.59
-18.59
-12.98
-12.71
-18.87
-31.15
-47.36
-63.77
-75.99
-80.32
-74.92
-60.33
-38.97
-14.07
11.38
35.27
56.38
74.06
88.08
98.56
106.04
111.42
115.61
119.24
122.47
125.25
127.56
129.49
131.12
132.1
131.64
128.69
122.6
113.54
102.54
90.91
79.67
69.09
58.89
48.63
38.21
28.01
18.56
10.21
2.71
-4.81
-13.74
-25.5
-41.08
-60.39
-81.78
-102.07
-117.18
-123.33
-118.49
-103.22
-80.57
-54.92
-30.34
-9.22
8.15
22.89
36.31
48.84
59.74
67.73
71.92
72.61
71.24
69.64
69.03
69.39
69.57
67.99
63.66
56.67
48.26
40.17
33.92
30.26
29.07
29.57
30.67
31.28
30.58
28.23
24.52
20.37
16.94
15.26
15.61
17.31
18.9
18.76
15.86
10.3
3.44
-2.57
-5.52
-3.88
2.79
13.93
28.38
44.79
61.94
78.73
94.03
106.58
115.15
118.84
117.55
112.11
104.11
95.4
87.43
80.9
75.71
71.37
67.38
63.61
60.25
57.55
55.44
53.32
50.2
45.07
37.36
27.22
15.49
3.31
-8.34
-18.91
-28.44
-37.44
-46.64
-56.69
-67.93
-80.07
-91.96
-101.66
-106.65
-104.67
-94.53
-76.72
-53.37
-27.58
-2.25
20.79
41.08
59.06
75.19
89.2
100.06
106.54
108.03
105.1
99.33
92.75
87.01
82.8
79.79
76.87
72.61
65.79
55.82
42.98
28.43
13.94
1.29
-8.26
-14.42
-17.87
-19.86
-21.65
-24.08
-27.43
-31.51
-35.78
-39.37
-41.1
-39.68
-34.38
-25.64
-15.35
-6.36
-1.35
-1.52
-5.96
-12.08
-16.88
-18.53
-17.05
-14.18
-12.07
-12.13
-14.31
-17.5
-20.4
-22.43
-24.04
-26.29
-30.17
-35.92
-43
-50.37
-57.11
-62.88
-67.95
-72.92
-78.23
-83.86
-89.2
-93.35
-95.53
-95.39
-93.12
-89.15
-83.66
-76.2
-65.67
-50.71
-30.33
-4.54
25.45
57.53
89.21
118.23
142.94
162.46
176.64
186.04
191.76
195.18
197.46
199.08
199.58
197.75
192.23
182.2
167.8
150.04
130.34
109.82
88.99
67.77
45.85
23.09
-0.26
-23.74
-46.9
-69.35
-90.62
-109.86
-125.72
-136.53
-140.92
-138.44
-129.86
-116.95
-101.78
-86.02
-70.64
-56.02
-42.49
-30.66
-21.47
-15.78
-13.88
-15.25
-18.73
-23.05
-27.36
-31.51
-35.84
-40.77
-46.3
-51.88
-56.74
-60.43
-63.21
-66.21
-70.98
-78.91
-90.63
-105.71
-122.79
-139.77
-154.24
-163.97
-167.41
-164.13
-154.97
-141.77
-126.64
-111.21
-96.15
-81.3
-66.24
-50.94
-36.08
-22.72
-11.64
-2.89
4.31
11.08
18.17
25.55
32.43
37.79
40.97
42.11
42.04
41.88
42.53
44.31
46.93
49.81
52.29
53.83
53.98
52.5
49.53
45.88
43.05
43.06
47.67
57.72
72.67
90.7
109.38
126.55
140.88
152.04
160.39
166.43
170.44
172.38
172.01
169.2
164.21
157.75
150.81
144.42
139.24
135.39
132.36
129.25
125.02
118.82
110.34
100.04
89.07
79.05
71.53
67.35
66.36
67.36
68.53
68.12
65.06
59.26
51.45
42.72
34.05
26.01
18.74
12.1
5.86
-0.17
-6.1
-11.95
-17.65
-23.03
-27.91
-32.03
-35.17
-37.21
-38.18
-38.41
-38.35
-38.55
-39.47
-41.36
-44.24
-47.97
-52.29
-56.91
-61.48
-65.56
-68.71
-70.55
-71.01
-70.38
-69.28
-68.4
-68.19
-68.66
-69.4
-69.82
-69.5
-68.44
-67.1
-66.17
-66.24
-67.51
-69.66
-71.95
-73.51
-73.67
-72.13
-69.15
-65.38
-61.6
-58.42
-56.03
-54.12
-52.16
-49.69
-46.62
-43.33
-40.31
-37.93
-36.14
-34.61
-33.04
-31.5
-30.46
-30.58
-32.23
-35.24
-38.9
-42.32
-44.84
-46.26
-46.78
-46.64
-45.91
-44.39
-41.82
-38.23
-34.12
-30.43
-28.16
-27.9
-29.55
-32.28
-34.91
-36.37
-36.19
-34.72
-32.92
-32.07
-33.28
-37.26
-44.15
-53.52
-64.5
-75.88
-86.33
-94.71
-100.31
-103.01
-103.27
-101.93
-99.86
-97.72
-95.76
-93.83
-91.51
-88.26
-83.47
-76.47
-66.61
-53.4
-36.8
-17.49
3.18
23.37
41.25
55.53
65.8
72.43
76.15
77.59
76.94
74.02
68.71
61.3
52.68
44.12
36.89
31.69
28.42
26.21
23.71
19.57
12.91
3.58
-7.64
-19.19
-29.04
-35.09
-35.82
-30.74
-20.76
-8.15
3.77
11.61
12.84
6.7
-5.78
-22.19
-39.76
-56.08
-69.47
-78.89
-83.62
-83.18
-77.49
-67.14
-53.52
-38.57
-24.22
-11.95
-2.62
3.44
6.1
5.44
1.87
-3.53
-9
-12.36
-11.68
-6.06
3.91
16.14
27.98
37.47
44.36
50.38
58.12
69.38
83.55
97.09
104.52
100.43
81.78
49.1
6.48
-39.86
-83.31
-118.54
-142.51
-154.84
-157.48
-153.86
-147.67
-141.69
-137.05
-133.17
-128.36
-120.74
-108.92
-92.25
-70.57
-43.95
-12.71
22.16
58.48
92.92
121.62
141.38
150.8
150.82
144.27
134.87
125.77
118.68
113.66
109.65
105.37
99.94
93.2
85.49
77.49
70.02
64.04
60.42
59.52
60.6
61.65
59.75
52.16
37.61
16.84
-7.63
-32.75
-56.18
-77
-95.43
-112.03
-127.04
-140.18
-151.07
-159.63
-166.01
-170.19
-171.44
-168.32
-159.23
-143.34
-121.25
-95.14
-68.05
-42.85
-21.46
-4.44
8.69
18.87
26.91
33.15
37.54
39.86
40.09
38.72
36.66
35.06
34.83
36.2
38.62
41.03
42.32
41.91
39.86
36.79
33.54
30.73
28.65
27.17
25.91
24.34
21.86
17.82
11.69
3.27
-6.95
-17.69
-27.1
-33.27
-34.98
-32.07
-25.59
-17.18
-8.43
-0.17
7.6
15.29
23.07
30.34
35.93
38.73
38.51
36.16
33.27
31.24
30.49
30.4
29.88
28.24
25.88
24.15
24.59
28.05
34.1
41.34
48.12
53.38
57.09
60.06
63.37
67.86
73.92
81.64
91.11
102.49
115.7
130.08
144.19
156.07
163.98
167.02
165.46
160.43
153.26
144.86
135.47
124.86
112.74
99.05
83.89
67.41
49.77
31.26
12.69
-4.42
-18.01
-26.14
-27.66
-22.87
-13.53
-2.36
7.77
14.73
17.67
16.99
13.92
9.76
5.29
0.54
-5.12
-12.52
-22.36
-34.95
-50.19
-67.56
-86.1
-104.23
-119.74
-130.18
-133.61
-129.37
-118.41
-102.86
-84.8
-65.27
-43.93
-19.83
7.23
35.65
62.16
83.03
95.91
101.06
101.2
100.15
101.01
104.83
110.62
116.35
120.32
121.96
121.84
120.9
119.67
117.89
114.75
109.5
102.01
92.84
82.99
73.48
64.95
57.55
50.96
44.7
38.22
31.17
23.42
15.21
7.01
-0.62
-7.26
-12.8
-17.48
-21.62
-25.45
-29.02
-32.37
-35.69
-39.34
-43.68
-48.7
-53.91
-58.43
-61.41
-62.45
-61.75
-59.87
-57.37
-54.49
-51.23
-47.57
-43.81
-40.62
-38.89
-39.19
-41.4
-44.52
-46.83
-46.48
-42.19
-33.88
-22.93
-11.96
-4.21
-2.57
-8.7
-22.49
-41.94
-63.5
-82.82
-95.75
-99.22
-92.18
-75.83
-53.38
-29.26
-7.81
7.8
16.42
18.89
17.37
14.2
10.87
7.57
3.38
-2.87
-11.73
-22.76
-34.82
-46.79
-58.24
-69.62
-81.76
-95.28
-110.07
-125.44
-140.47
-154.38
-166.5
-175.94
-181.29
-180.63
-172.14
-155
-130.13
-100.33
-69.68
-42.42
-21.55
-8.18
-1.44
0.9
1.36
1.88
3.33
5.76
9.01
13.43
20.26
31.26
47.84
69.84
94.85
118.42
135.28
141.15
134.33
116.38
91.61
65.62
43.7
29.66
25.38
31.07
45.57
66.62
91.1
115.4
136.31
152.06
163.22
172.58
184.25
201.84
226.7
256.93
287.68
312.68
326.27
325.03
308.54
278.99
240.21
196.61
152.4
111.12
75.39
46.78
25.64
11.24
1.87
-4.69
-10.64
-17.62
-26.43
-37
-48.72
-60.96
-73.47
-86.47
-100.44
-115.63
-131.64
-147.35
-161.31
-172.23
-179.37
-182.69
-182.63
-179.79
-174.82
-168.37
-161.23
-154.32
-148.66
-145.03
-143.77
-144.54
-146.44
-148.32
-149.2
-148.61
-146.63
-143.64
-139.98
-135.84
-131.32
-126.71
-122.61
-119.84
-118.99
-120.12
-122.56
-125.23
-127.1
-127.58
-126.73
-124.97
-122.65
-119.61
-114.98
-107.43
-95.65
-79
-57.9
-33.85
-8.97
14.74
36
54.4
70.25
84.09
96.31
107.18
117.05
126.53
136.52
147.78
160.53
174.16
187.38
198.65
206.82
211.52
213.2
212.88
211.59
209.74
206.74
200.83
189.63
171.08
144.52
111.36
74.83
38.92
6.93
-19.42
-39.85
-54.67
-63.89
-67.04
-63.92
-55.67
-45.29
-36.95
-34.54
-40.03
-52.77
-69.94
-87.89
-103.59
-115.52
-123.62
-128.81
-132.21
-134.65
-136.53
-137.93
-139.01
-140.17
-142.13
-145.65
-151.26
-158.88
-167.95
-177.62
-187.07
-195.75
-203.15
-208.61
-211.18
-209.79
-203.75
-193.03
-178.39
-160.91
-141.57
-121.11
-100.21
-79.94
-61.79
-47.26
-37.04
-30.36
-25.22
-19.21
-10.83
-0.32
10.52
19.28
24.28
25.32
23.55
20.63
17.68
14.79
11.19
5.92
-1.46
-10.55
-20.16
-28.73
-34.82
-37.36
-35.81
-30.04
-20.3
-7.14
8.7
26.36
44.94
63.53
81.17
96.72
108.89
116.45
118.61
115.39
107.84
97.81
87.41
78.37
71.42
66.21
61.72
56.96
51.49
45.62
40.02
35.17
30.78
25.74
18.61
8.29
-5.25
-20.66
-35.46
-46.72
-51.97
-49.97
-40.93
-26.27
-7.88
12.51
33.67
54.75
74.85
92.67
106.49
114.74
116.68
112.89
105.33
96.64
89.19
84.28
81.79
80.54
79.1
76.51
72.79
69.03
66.96
68.48
75
86.78
102.43
118.78
131.47
136.08
129.77
112.48
87.31
59.78
36.17
21.65
18.95
27.99
46.36
70.33
95.8
119.06
137.19
148.33
151.77
147.87
137.94
123.85
107.7
91.39
76.31
63.16
52.01
42.48
34.05
26.4
19.59
14.11
10.6
9.53
10.71
13.21
15.46
15.8
13
6.8
-2.01
-11.76
-20.59
-27.13
-31.17
-34
-38.13
-46.49
-61.26
-82.77
-109.11
-136.5
-160.57
-177.71
-186.02
-185.48
-177.32
-163.28
-144.99
-123.91
-101.57
-79.73
-60.33
-45
-34.49
-28.33
-25
-22.47
-19.01
-13.84
-7.27
-0.44
5.38
9.31
11.15
11.31
10.36
8.68
6.35
3.31
-0.39
-4.46
-8.44
-11.89
-14.63
-16.76
-18.65
-20.88
-24.13
-29.08
-36.28
-45.82
-57.05
-68.38
-77.36
-81.2
-77.62
-65.6
-45.87
-20.66
7.07
34.58
60.06
82.7
102.37
118.92
131.83
140.35
143.91
142.71
137.84
131.05
124.1
118.29
114.04
111.14
109.07
107.37
106.01
105.36
105.97
108.21
111.96
116.55
120.96
124.19
125.58
125.09
123.24
120.88
118.82
117.38
116.2
114.27
110.22
102.91
91.89
77.84
62.59
48.8
39.3
36.28
40.54
51.13
65.53
80.23
91.56
96.68
94.48
86.19
75.34
66.8
65.04
72.24
87.14
105.47
121.8
132.01
135.01
132.73
128.47
124.69
121.55
117.04
108.46
94.02
73.7
48.91
21.48
-7.21
-36.56
-66.44
-96.79
-127.3
-157.46
-186.58
-213.88
-238.49
-259.43
-275.65
-286.18
-290.3
-287.75
-278.84
-264.5
-246.28
-226.15
-206.3
-188.69
-174.61
-164.3
-156.84
-150.55
-143.55
-134.49
-123.06
-110.03
-96.87
-85.18
-76.2
-70.46
-67.94
-68.24
-70.84
-75.22
-80.78
-86.83
-92.67
-97.68
-101.48
-103.99
-105.46
-106.41
-107.57
-109.74
-113.36
-118.05
-122.45
-124.35
-121.45
-112.09
-96
-74.36
-49.49
-24.17
-1.1
17.42
29.66
34.62
32.4
24.43
13.48
3.04
-3.63
-4.42
1.14
12.34
27.92
46.9
68.86
93.65
120.86
149.27
176.73
200.53
218.27
228.49
231.14
227.41
218.97
206.94
191.29
170.79
144.01
110.54
71.93
31.66
-5.91
-37.16
-60.38
-76.19
-86.82
-94.86
-102.16
-109.35
-116.14
-122.04
-126.96
-131.37
-135.96
-141.19
-146.96
-152.62
-157.35
-160.53
-162.07
-162.51
-162.71
-163.53
-165.48
-168.46
-171.89
-174.85
-176.43
-175.88
-172.59
-165.93
-155.03
-138.87
-116.36
-86.65
-49.39
-4.93
45.55
99.81
154.64
206.25
250.96
286.17
310.71
324.67
328.57
322.64
306.99
282.4
251.53
219.11
