-36.58
-15.57
1.82
15.2
24.85
31.23
34.82
36.04
35.49
33.92
32.15
30.89
30.49
30.85
31.48
31.75
31.12
29.4
26.84
24.02
21.71
20.48
20.53
21.61
23.15
24.47
25.05
24.66
23.27
20.91
17.54
13.04
7.34
0.7
-6.09
-11.77
-14.87
-14.21
-9.33
-0.75
10.13
21.46
31.46
38.9
43.25
44.52
42.92
38.62
31.72
22.38
11.2
-0.71
-11.88
-20.87
-26.77
-29.51
-29.75
-28.55
-26.87
-25.22
-23.71
-22.23
-20.81
-19.76
-19.54
-20.46
-22.46
-25.13
-27.94
-30.6
-33.29
-36.57
-41.08
-47.24
-54.99
-63.84
-72.98
-81.51
-88.52
-93.23
-94.99
-93.41
-88.43
-80.45
-70.21
-58.53
-46.02
-32.74
-18.17
-1.52
17.74
39.29
61.83
83.39
102.01
116.5
126.65
133.04
136.36
136.99
134.94
130.13
122.89
113.97
104.32
94.64
85.13
75.68
66.19
56.92
48.43
41.19
35.31
30.38
25.64
20.34
14.02
6.58
-1.8
-10.84
-20.3
-29.95
-39.53
-48.71
-57.03
-64.01
-69.35
-73.12
-75.79
-78.01
-80.25
-82.31
-83.2
-81.49
-75.98
-66.35
-53.52
-39.29
-25.64
-14.01
-4.84
2.27
8.09
13.2
17.68
21.2
23.35
23.99
23.47
22.48
21.79
21.91
22.98
24.75
26.81
28.84
30.76
32.7
34.91
37.53
40.51
43.51
46.07
47.71
48.09
47.05
44.63
41.06
36.69
32
27.5
23.63
20.64
18.57
17.15
15.97
14.48
12.15
8.54
3.41
-3.27
-11.31
-20.28
-29.75
-39.27
-48.42
-56.76
-63.63
-68.18
-69.51
-67.04
-60.72
-51.24
-39.73
-27.51
-15.62
-4.77
4.69
12.52
18.41
22.03
23.1
21.6
17.83
12.44
6.24
0.05
-5.49
-10.09
-13.7
-16.51
-18.74
-20.48
-21.68
-22.16
-21.87
-20.96
-19.8
-18.92
-18.72
-19.32
-20.41
-21.36
-21.47
-20.22
-17.53
-13.84
-9.95
-6.7
-4.7
-4.1
-4.61
-5.67
-6.75
-7.54
-8.14
-8.91
-10.39
-12.99
-16.76
-21.27
-25.55
-28.31
-28.28
-24.6
-17.03
-6.01
7.58
22.65
38.2
53.35
67.32
79.44
89.16
96.11
100.19
101.49
100.22
96.57
90.76
83.17
74.4
65.25
56.57
49.02
43.01
38.61
35.69
33.99
33.11
32.5
31.5
29.42
25.71
20.19
13.11
5.04
-3.36
-11.58
-19.44
-27.07
-34.84
-43.12
-52.24
-62.36
-73.44
-85.17
-96.96
-107.99
-117.23
-123.62
-126.17
-124.15
-117.23
-105.51
-89.66
-70.79
-50.37
-29.91
-10.67
6.5
21.22
33.41
43.13
50.47
55.52
58.45
59.54
59.14
57.62
55.28
52.36
49.07
45.64
42.3
39.27
36.63
34.29
32.03
29.57
26.64
23.05
18.74
13.75
8.16
2.09
-4.35
-11.06
-17.92
-24.82
-31.67
-38.38
-44.82
-50.84
-56.26
-60.96
-64.99
-68.66
-72.5
-77.06
-82.66
-89
-95.12
-99.5
-100.48
-96.79
-87.97
-74.57
-58.03
-40.25
-23.16
-8.22
3.69
12.33
17.94
21.03
22.23
22.18
21.4
20.3
19.12
18.04
17.2
16.79
16.96
17.81
19.18
20.68
21.79
22.09
21.55
20.49
19.57
19.36
20.07
21.37
22.57
22.87
21.75
19.12
15.33
10.92
6.5
2.54
-0.68
-3.17
-5.16
-7.21
-9.92
-13.73
-18.47
-23.16
-26.08
-25.15
-18.58
-5.52
13.52
36.59
60.66
82.32
98.66
108.13
110.89
108.68
104.03
99.27
95.66
93.18
90.85
87.51
82.41
75.38
66.6
56.15
43.94
29.75
13.57
-4.26
-23.06
-42.12
-60.89
-78.95
-95.94
-111.3
-124.36
-134.54
-141.65
-146.01
-148.32
-149.36
-149.8
-150.08
-150.54
-151.34
-152.41
-153.32
-153.21
-151.05
-146
-137.81
-126.86
-113.95
-99.86
-85.07
-69.78
-54.19
-38.75
-24.05
-10.68
1.12
11.33
19.98
26.81
31.21
32.61
30.91
26.84
21.75
17.19
14.22
13.12
13.47
14.55
15.71
16.59
17.12
17.31
17.11
16.41
15.13
13.4
11.67
10.56
10.52
11.51
12.72
12.85
10.64
5.53
-1.84
-9.76
-16.04
-18.81
-17.22
-11.57
-3.15
6.4
15.53
23.21
28.97
32.92
35.49
37.23
38.52
39.46
39.94
39.74
38.71
36.82
34.15
30.82
27.02
23.02
19.33
16.63
15.61
16.73
19.81
23.96
27.71
29.53
28.5
24.71
19.25
13.76
9.73
7.96
8.3
9.86
11.51
12.22
11.39
8.83
4.75
-0.25
-5.09
-8.33
-8.42
-4.19
4.74
17.78
33.55
50.25
66.16
80
91.01
98.94
103.85
105.98
105.68
103.41
99.72
95.16
90.16
84.89
79.25
73.02
66.03
58.49
50.93
44.07
38.46
34.2
30.86
27.69
24
19.44
14.1
8.35
2.57
-3.06
-8.59
-14.23
-20.2
-26.68
-33.73
-41.24
-48.83
-55.77
-60.96
-63.25
-61.8
-56.47
-48
-37.78
-27.39
-18.03
-10.22
-3.83
1.62
6.45
10.51
13.18
13.68
11.49
6.67
-0.14
-7.94
-15.78
-23.03
-29.58
-35.68
-41.68
-47.88
-54.36
-61.04
-67.74
-74.15
-79.84
-84.3
-87.04
-87.68
-86
-81.93
-75.45
-66.66
-55.89
-43.84
-31.59
-20.41
-11.25
-4.41
0.72
5.33
10.75
17.87
26.98
37.88
50.12
63.3
76.95
90.39
102.58
112.19
117.93
118.95
115.23
107.69
97.9
87.69
78.66
71.8
67.31
64.71
63.1
61.49
59.08
55.46
50.65
45.02
39.17
33.6
28.67
24.41
20.59
16.85
12.82
8.26
3.13
-2.43
-8.15
-13.73
-18.99
-23.93
-28.77
-33.82
-39.3
-45.07
-50.43
-54.25
-55.3
-52.65
-46.07
-36.13
-23.97
-10.94
1.71
13.06
22.49
29.6
34.2
36.28
36.12
34.2
31.17
27.64
24.05
20.59
17.25
13.92
10.57
7.36
4.65
2.85
2.27
2.9
4.34
5.91
6.88
6.7
5.17
2.52
-0.72
-3.95
-6.68
-8.68
-10.05
-11.09
-12.3
-14.27
-17.54
-22.46
-28.95
-36.36
-43.46
-48.78
-50.96
-49.25
-43.67
-34.94
-24.11
-12.26
-0.25
11.29
21.83
30.94
38.27
43.67
47.21
49.13
49.69
49.1
47.49
45.02
41.93
38.58
35.31
32.48
30.31
28.92
28.3
28.31
28.63
28.81
28.46
27.3
25.3
22.63
19.55
16.23
12.7
8.83
4.48
-0.43
-5.85
-11.56
-17.33
-22.94
-28.29
-33.41
-38.41
-43.52
-48.93
-54.8
-61.07
-67.39
-73
-76.75
-77.39
-73.94
-66.08
-54.41
-40.34
-25.69
-12.12
-0.7
8.31
15.28
20.85
25.56
29.63
33.02
35.6
37.36
38.48
39.24
39.88
40.46
40.84
40.82
40.33
39.46
38.4
37.27
36.02
34.43
32.3
29.67
26.83
24.2
22.09
20.48
19.01
17.16
14.53
10.98
6.77
2.29
-2.03
-5.94
-9.45
-12.79
-16.4
-20.8
-26.55
-34.08
-43.6
-54.93
-67.37
-79.68
-90.21
-97.26
-99.44
-96.09
-87.5
-74.8
-59.66
-43.92
-29.18
-16.55
-6.53
0.85
5.92
9.18
11.11
12.17
12.78
13.35
14.29
15.91
18.37
21.5
24.89
27.99
30.36
31.77
32.28
32.07
31.27
29.83
27.56
24.28
19.93
14.72
9.11
3.58
-1.49
-6.01
-10.14
-14.16
-18.3
-22.54
-26.67
-30.41
-33.65
-36.55
-39.53
-42.9
-46.55
-49.74
-51.26
-49.79
-44.54
-35.54
-23.7
-10.46
2.74
14.79
25.05
33.22
39.08
42.48
43.53
42.73
41
39.41
38.76
39.18
40.07
40.36
39.02
35.59
30.45
24.67
19.5
15.75
13.37
11.49
8.81
4.27
-2.5
-11.1
-20.58
-29.87
-38.21
-45.2
-50.78
-55.12
-58.56
-61.65
-65.03
-69.21
-74.12
-78.97
-82.21
-82.02
-76.95
-66.61
-51.9
-34.82
-17.9
-3.39
7.36
14.21
17.96
19.92
21.27
22.67
24.21
25.53
26.27
26.29
25.81
25.25
24.99
25.19
25.66
26.03
25.87
24.92
23.1
20.52
17.41
13.97
10.32
6.49
2.5
-1.6
-5.69
-9.76
-13.97
-18.7
-24.44
-31.49
-39.6
-47.84
-54.68
-58.47
-58.06
-53.22
-44.74
-34.14
-23.11
-12.98
-4.57
1.89
6.51
9.63
11.68
13.11
14.34
15.63
17.08
18.75
20.65
22.77
24.97
26.92
28.05
27.78
25.75
22
16.94
11.15
5.21
-0.5
-5.66
-10.05
-13.48
-15.95
-17.77
-19.56
-22.09
-25.93
-31.24
-37.57
-43.98
-49.17
-51.85
-51.03
-46.32
-38.06
-27.28
-15.41
-3.89
6.21
14.4
20.72
25.52
29.19
31.94
33.85
34.88
35.07
34.6
33.78
33.02
32.66
32.9
33.64
34.6
35.29
35.19
33.92
31.29
27.42
22.6
17.18
11.44
5.5
-0.66
-7.12
-13.97
-21.22
-28.77
-36.29
-43.19
-48.57
-51.34
-50.54
-45.67
-36.93
-25.3
-12.28
0.54
11.86
20.92
27.56
32
34.7
36.05
36.38
35.87
34.7
33.09
31.35
29.85
28.87
28.48
28.56
28.77
28.65
27.8
25.95
23.05
19.22
14.69
9.7
4.42
-1.15
-7.1
-13.6
-20.78
-28.68
-37.09
-45.52
-53.22
-59.2
-62.49
-62.33
-58.41
-51.05
-41.06
-29.6
-17.86
-6.79
3.02
11.28
18
23.23
27.09
29.65
31.01
31.33
30.85
29.92
28.89
28.01
27.4
26.99
26.64
26.16
25.39
24.23
22.6
20.45
17.76
14.58
11.04
7.28
3.43
-0.57
-4.89
-9.78
-15.49
-22.08
-29.39
-36.93
-43.89
-49.2
-51.71
-50.45
-45.02
-35.83
-23.99
-11.11
1.25
12.02
20.76
27.6
32.89
36.86
39.53
40.81
40.71
39.55
37.86
36.26
35.18
34.71
34.57
34.31
33.49
31.9
29.69
27.22
24.91
23
21.41
19.68
17.22
13.57
8.63
2.72
-3.55
-9.58
-14.99
-19.76
-24.17
-28.64
-33.62
-39.4
-46.03
-53.16
-59.95
-65.23
-67.7
-66.37
-60.88
-51.71
-39.91
-26.88
-13.87
-1.72
9.13
18.55
26.48
32.85
37.5
40.36
41.51
41.26
40.12
38.68
37.4
36.5
35.92
35.38
34.6
33.35
31.62
29.54
27.31
25.08
22.93
20.84
18.73
16.52
14.16
11.6
8.81
5.8
2.61
-0.64
-3.76
-6.59
-9.1
-11.44
-13.98
-17.12
-21.28
-26.67
-33.2
-40.4
-47.42
-53.11
-56.2
-55.71
-51.2
-43.01
-32.19
-20.23
-8.6
1.62
9.9
16.22
20.79
23.9
25.71
26.35
25.94
24.73
23.09
21.46
20.22
19.61
19.68
20.26
21.1
21.91
22.48
22.73
22.66
22.29
21.58
20.43
18.69
16.28
13.16
9.45
5.33
1.03
-3.3
-7.56
-11.68
-15.67
-19.56
-23.39
-27.26
-31.31
-35.73
-40.67
-46.12
-51.77
-56.88
-60.37
-61.13
-58.3
-51.72
-42.02
-30.42
-18.4
-7.2
2.41
10.23
16.39
21.15
24.63
26.78
27.5
26.78
24.91
22.38
19.82
17.68
16.17
15.13
14.25
13.28
12.1
10.85
9.71
8.8
8.06
7.36
6.63
5.96
5.51
5.36
5.39
5.22
4.4
2.7
0.22
-2.63
-5.37
-7.71
-9.71
-11.81
-14.54
-18.35
-23.35
-29.31
-35.58
-41.19
-45.01
-45.94
-43.21
-36.6
-26.56
-14.19
-0.94
11.73
22.67
31.23
37.29
41.08
43
43.47
42.82
41.32
39.19
36.7
34.11
31.62
29.34
27.27
25.33
23.44
21.59
19.81
18.21
16.83
15.68
14.69
13.71
12.57
11.07
9.04
6.38
3.1
-0.7
-4.85
-9.1
-13.25
-17.19
-20.88
-24.45
-28.12
-32.14
-36.76
-41.99
-47.56
-52.79
-56.65
-57.95
-55.82
-49.91
-40.64
-29.1
-16.69
-4.69
5.96
14.85
21.88
27.06
30.44
31.97
31.73
30
27.24
24.08
21.12
18.72
17
15.8
14.85
13.88
12.76
11.53
10.35
9.36
8.58
7.8
6.62
4.62
1.55
-2.55
-7.34
-12.33
-17.03
-21.14
-24.64
-27.74
-30.8
-34.26
-38.55
-43.93
-50.29
-57.04
-63.06
-66.95
-67.44
-63.83
-56.26
-45.69
-33.57
-21.36
-10.17
-0.56
7.37
13.78
18.83
22.56
24.99
26.23
26.56
26.44
26.37
26.64
27.19
27.62
27.32
25.77
22.76
18.42
13.13
7.37
1.5
-4.28
-9.85
-15.08
-19.71
-23.41
-25.8
-26.66
-25.95
-23.88
-20.81
-17.24
-13.68
-10.63
-8.55
-7.74
-8.29
-9.91
-11.92
-13.3
-12.95
-10.03
-4.17
4.39
14.87
26.14
37.01
46.49
54.01
59.48
63.22
65.77
67.65
69.09
70.01
70.03
68.75
65.94
61.77
56.75
51.56
46.83
42.99
40.2
38.51
37.93
38.41
39.74
41.39
42.43
41.78
38.52
32.25
23.41
13.05
2.56
-6.87
-14.58
-20.6
-25.51
-30.33
-36.22
-44.2
-54.74
-67.49
-81.05
-93.21
-101.49
-103.95
-99.79
-89.62
-75.19
-58.68
-42.06
-26.63
-13.01
-1.4
8.13
15.41
20.26
22.7
23.14
22.37
21.38
20.96
21.41
22.39
23.12
22.87
21.27
18.59
15.51
12.75
10.69
9.18
7.64
5.41
2.08
-2.32
-7.37
-12.48
-17.15
-21.13
-24.46
-27.42
-30.42
-33.85
-38.02
-43.03
-48.67
-54.36
-59.18
-62.02
-61.85
-58.04
-50.63
-40.33
-28.36
-16.13
-4.84
4.75
12.29
17.73
21.07
22.3
21.45
18.75
14.72
10.19
6.06
2.99
1.31
0.96
1.6
2.85
4.32
5.72
6.79
7.35
7.34
6.91
6.31
5.76
5.26
4.46
2.75
-0.54
-5.92
-13.55
-23.04
-33.45
-43.37
-51.07
-54.92
-53.91
-47.91
-37.82
-25.3
-12.3
-0.47
9.11
16.05
20.46
22.73
23.29
22.6
21.01
18.85
16.37
13.77
11.24
8.99
7.19
5.99
5.36
5.16
5.13
5.05
4.86
4.69
4.67
4.79
4.71
3.8
1.31
-3.32
-10.33
-19.42
-29.85
-40.47
-49.87
-56.62
-59.5
-57.83
-51.71
-42.05
-30.32
-18.14
-6.78
3.1
11.45
18.51
24.55
29.65
33.62
36.24
37.34
37.01
35.57
33.55
31.41
29.46
27.73
26.02
23.99
21.37
18.05
14.12
9.84
5.5
1.31
-2.69
-6.61
-10.64
-15.07
-20.2
-26.32
-33.58
-41.73
-50.05
-57.23
-61.7
-62.02
-57.43
-48.13
-35.23
-20.39
-5.37
8.5
20.48
30.27
37.81
43.1
46.06
46.68
45.2
42.16
38.34
34.49
31.12
28.34
25.94
23.56
20.88
17.78
14.31
10.66
7.05
3.64
0.49
-2.41
-5.17
-7.95
-10.87
-14.04
-17.6
-21.77
-26.84
-33.01
-40.14
-47.48
-53.69
-57.07
-56.25
-50.64
-40.79
-28.18
-14.67
-1.97
8.84
17.39
23.8
28.37
31.39
33.09
33.73
33.64
33.28
33.05
33.15
33.53
33.91
34
33.63
32.81
31.62
30.06
27.9
24.79
20.48
14.93
8.55
1.97
-4.18
-9.49
-13.95
-17.82
-21.58
-25.68
-30.43
-35.92
-41.87
-47.53
-51.78
-53.27
-50.91
-44.21
-33.57
-20.12
-5.47
8.88
21.82
32.81
41.75
48.77
54.03
57.61
59.62
60.17
59.43
57.59
54.85
51.42
47.49
43.3
38.98
34.62
30.22
25.73
21.19
16.71
12.43
8.37
4.38
0.18
-4.47
-9.63
-15.06
-20.39
-25.3
-29.79
-34.18
-38.97
-44.56
-50.89
-57.35
-62.78
-65.78
-65.13
-60.12
-50.86
-38.26
-23.69
-8.69
5.53
18.23
29.09
38.09
45.24
50.51
53.9
55.47
55.5
54.43
52.75
50.89
49.09
47.35
45.49
43.27
40.54
37.36
33.99
30.74
27.78
24.96
21.88
18.05
13.16
7.27
0.8
-5.64
-11.52
-16.58
-20.92
-24.89
-28.95
-33.56
-38.9
-44.73
-50.24
-54.18
-55.12
-51.99
-44.49
-33.23
-19.6
-5.27
8.24
19.94
29.35
36.33
40.91
43.13
43.11
41.15
37.74
33.56
29.25
25.35
22.14
19.58
17.45
15.42
13.26
10.96
8.71
6.81
5.4
4.26
2.87
0.54
-3.09
-7.89
-13.23
-18.23
-22.25
-25.12
-27.19
-29.1
-31.49
-34.82
-39.27
-44.82
-51.11
-57.45
-62.67
-65.37
-64.28
-58.71
-48.88
-35.86
-21.25
-6.63
6.71
18.05
27.07
33.74
38.15
40.44
40.84
39.66
37.38
34.52
31.57
28.87
26.61
24.75
23.17
21.7
20.19
18.53
16.7
14.7
12.59
10.41
8.13
5.65
2.74
-0.8
-4.98
-9.55
-14.01
-17.8
-20.62
-22.5
-23.88
-25.42
-27.8
-31.54
-36.82
-43.34
-50.29
-56.33
-59.92
-59.66
-54.76
-45.34
-32.37
-17.38
-2.02
12.34
24.78
34.8
42.24
47.18
49.79
50.38
49.37
47.22
44.5
41.73
39.28
37.29
35.65
34.11
32.5
30.83
29.28
28.04
27.17
26.47
25.54
23.99
21.48
17.88
13.25
7.79
1.89
-3.97
-9.34
-13.9
-17.68
-21.03
-24.46
-28.51
-33.54
-39.64
-46.68
-54.22
-61.54
-67.53
-70.91
-70.46
-65.51
-56.2
-43.53
-29.08
-14.61
-1.54
9.28
17.69
23.96
28.62
32.09
34.58
36.03
36.33
35.46
33.64
31.35
29.1
27.22
25.8
24.62
23.46
22.2
20.93
19.82
19
18.4
17.75
16.62
14.55
11.19
6.42
0.49
-6.01
-12.28
-17.59
-21.57
-24.35
-26.52
-28.82
-31.9
-36.1
-41.45
-47.68
-54.27
-60.33
-64.66
-65.85
-62.74
-54.98
-43.27
-29.29
-15.11
-2.48
7.76
15.66
21.87
27.01
31.26
34.31
35.67
35.07
32.77
29.48
26.11
23.4
21.74
21.13
21.29
21.83
22.33
22.34
21.54
19.82
17.38
14.65
12.09
9.88
7.79
5.32
1.99
-2.32
-7.25
-12.18
-16.51
-19.98
-22.69
-24.98
-27.21
-29.78
-33.05
-37.37
-42.81
-48.88
-54.38
-57.66
-57.14
-51.96
-42.44
-29.91
-16.22
-3.12
8.26
17.51
24.66
29.89
33.34
35.11
35.39
34.53
33
31.24
29.46
27.54
25.18
22.09
18.27
14.15
10.44
7.81
6.56
6.37
6.44
5.85
3.92
0.59
-3.71
-8.21
-12.19
-15.23
-17.33
-18.87
-20.48
-22.91
-26.8
-32.47
-39.62
-47.3
-53.95
-57.89
-57.77
-53.14
-44.51
-33.2
-20.8
-8.69
2.24
11.58
19.22
25.15
29.32
31.72
32.4
31.53
29.36
26.21
22.4
18.37
14.56
11.41
9.16
7.8
7.09
6.61
5.96
4.81
3.01
0.53
-2.52
-5.91
-9.41
-12.86
-16.27
-19.87
-24.06
-29.26
-35.67
-43.12
-50.96
-58.09
-63.2
-65.09
-62.92
-56.57
-46.63
-34.31
-21.08
-8.25
3.27
13.08
21.11
27.43
32.09
35.06
36.35
36.04
34.43
31.92
29.02
26.17
23.72
21.89
20.69
19.93
19.26
18.27
16.57
14
10.64
6.7
2.48
-1.77
-5.95
-10.07
-14.32
-19.04
-24.59
-31.3
-39.15
-47.58
-55.43
-61.11
-63.08
-60.41
-53.12
-42.26
-29.51
-16.65
-4.97
4.97
13.21
20.11
25.95
30.8
34.53
36.98
38.11
38.06
37.06
35.36
33.17
30.68
28.1
25.72
23.78
22.44
21.61
20.94
19.88
17.88
14.57
9.9
4.15
-2.18
-8.57
-14.6
-20.13
-25.3
-30.5
-36.2
-42.67
-49.65
-56.24
-60.92
-62.06
-58.54
-50.24
-38.21
-24.26
-10.36
2.04
12.3
20.44
26.86
31.88
35.69
38.35
39.96
40.78
41.11
41.14
40.86
40.13
38.76
36.7
34.07
31.08
27.96
24.84
21.69
18.4
14.83
10.87
6.56
2.05
-2.39
-6.43
-9.83
-12.53
-14.79
-17.17
-20.4
-25.12
-31.59
-39.49
-47.76
-54.85
-59.04
-58.97
-54.12
-44.92
-32.66
-19.02
-5.54
6.76
17.43
26.44
33.85
39.63
43.63
45.73
46.03
44.96
43.19
41.41
40.08
39.31
38.9
38.44
37.54
36.04
34
31.73
29.56
27.68
26.04
24.29
21.9
18.47
13.78
8.06
1.79
-4.38
-9.97
-14.79
-18.98
-22.95
-27.16
-32.03
-37.76
-44.22
-50.86
-56.7
-60.46
-60.89
-57.18
-49.23
-37.82
-24.29
-10.14
3.34
15.37
25.6
33.93
40.28
44.55
46.66
46.78
45.36
43.04
40.56
38.44
36.93
35.92
35.1
34.1
32.64
30.64
28.21
25.67
23.34
21.5
20.18
19.14
17.95
16.1
13.27
9.41
4.85
0.09
-4.38
-8.34
-11.91
-15.51
-19.57
-24.47
-30.34
-37.14
-44.61
-52.22
-59.09
-64.03
-65.69
-63.04
-55.74
-44.39
-30.41
-15.57
-1.44
11.01
21.48
30.06
36.91
42
45.19
46.33
45.57
43.37
40.46
37.55
35.1
33.2
31.66
30.17
28.5
26.67
24.92
23.51
22.57
21.97
21.32
20.1
17.89
14.54
10.29
5.61
1.04
-2.99
-6.4
-9.4
-12.39
-15.83
-20.12
-25.5
-32.02
-39.51
-47.43
-54.79
-60.25
-62.34
-59.86
-52.35
-40.28
-24.98
-8.28
8.01
22.47
34.26
43.03
48.79
51.67
51.99
50.19
46.95
43.08
39.33
36.22
33.84
31.94
30.08
27.93
25.42
22.75
20.26
18.17
16.41
14.62
12.36
9.29
5.33
0.75
-4.07
-8.71
-13.04
-17.18
-21.56
-26.64
-32.78
-39.98
-47.78
-55.24
-61.04
-63.83
-62.63
-57.15
-47.9
-36.08
-23.21
-10.71
0.37
9.53
16.69
21.98
25.53
27.44
27.79
26.77
24.75
22.22
19.63
17.27
15.18
13.22
11.25
9.22
7.3
5.69
4.42
3.26
1.7
-0.79
-4.5
-9.32
-14.75
-20.13
-24.96
-29.05
-32.64
-36.27
-40.59
-46.15
-53.26
-61.79
-71.14
-80.2
-87.55
-91.75
-91.74
-87.23
-78.88
-68.19
-57.1
-47.53
-40.94
-38.11
-39.13
-43.5
-50.19
-57.56
-63.47
-65.45
-61.43
-50.6
-33.94
-14.21
4.9
19.93
28.8
31.35
29.29
25.6
23.7
26.83
37.29
55.94
81.67
111.47
141.01
165.94
183.35
192.66
195.53
194.84
193.21
192.02
191.14
189.56
186.2
180.6
172.98
164
154.29
144.23
134.06
124.01
114.4
105.51
97.37
89.53
81.13
71.1
58.52
42.99
24.82
5.03
-14.89
-33.43
-49.55
-62.95
-74.11
-83.87
-92.92
-101.44
-109.03
-114.99
-118.78
-120.42
-120.47
-119.61
-118.09
-115.38
-110.37
-102.08
-90.46
-76.74
-63.1
-51.76
-43.95
-39.39
-36.52
-33.34
-28.41
-21.29
-12.56
-3.28
5.53
13.13
18.92
22.29
22.66
19.64
13.47
5.21
-3.45
-10.66
-15.12
-16.54
-15.79
-14.55
-14.68
-17.56
-23.62
-32.25
-42.07
-51.47
-59.15
-64.55
-67.85
-69.77
-71.1
-72.41
-73.91
-75.59
-77.43
-79.49
-81.87
-84.45
-86.85
-88.49
-89.05
-88.68
-88.23
-88.89
-91.73
-97.25
-105.12
-114.2
-122.81
-128.88
-130.08
-124.17
-109.51
-85.86
-55.04
-20.93
11.36
37.22
54.18
62.76
66.01
67.94
71.65
78.09
86.15
93.61
98.61
100.52
99.91
97.93
95.33
92.07
87.53
81.07
72.61
62.79
52.65
43.15
34.83
27.71
21.51
15.91
10.69
5.74
0.99
-3.65
-8.32
-13.12
-18.23
-23.77
-29.71
-35.66
-40.8
-43.87
-43.54
-38.88
-29.7
-16.77
-1.66
13.68
27.44
38.35
45.92
50.35
52.35
52.75
52.22
51.19
49.95
48.82
48.18
48.3
48.98
49.57
49.12
46.95
43.15
38.53
34.16
30.7
27.86
24.55
19.47
11.92
2.14
-8.81
-19.63
-29.6
-38.99
-49
-61.18
-76.58
-94.97
-114.72
-133.16
-147.52
-156.05
-158.58
-156.46
-151.88
-146.91
-142.73
-139.3
-135.58
-129.87
-120.19
-104.85
-82.95
-55.07
-23.54
7.9
35.07
54.81
66.02
69.9
69.24
67.01
65.39
65.29
66.74
69.51
73.43
78.44
84.15
89.68
93.68
94.85
92.44
86.51
77.87
67.69
57.06
46.68
36.81
27.4
18.28
9.3
0.29
-8.91
-18.46
-28.36
-38.38
-47.9
-55.93
-61.29
-62.95
-60.29
-53.44
-43.19
-30.83
-17.79
-5.31
5.75
14.91
22
26.97
29.99
31.37
31.73
31.88
32.68
34.75
38.26
42.86
47.75
52.05
55.06
56.44
56.31
55.07
53.16
50.9
48.27
44.98
40.66
35.11
28.48
21.21
13.9
7.03
0.81
-4.75
-9.78
-14.41
-18.85
-23.45
-28.73
-35.05
-42.3
-49.61
-55.48
-58.31
-56.97
-51.23
-41.75
-29.74
-16.48
-3.05
9.71
21.19
30.91
38.56
44.03
47.28
48.28
46.95
43.27
37.55
30.56
23.35
16.84
11.52
7.23
3.6
0.36
-2.26
-3.63
-3.16
-0.73
3.13
7.51
11.5
14.6
16.8
18.21
18.88
18.59
17.05
14.16
10.25
6
2.14
-0.94
-3.43
-6
-9.55
-14.76
-21.7
-29.74
-37.63
-43.78
-46.68
-45.27
-39.28
-29.31
-16.72
-3.29
9.33
19.9
27.83
33.04
35.75
36.33
35.26
33.19
30.84
28.85
27.56
26.84
26.21
25.13
23.35
21.02
18.67
16.81
15.66
15
14.29
12.97
10.74
7.68
4.19
0.72
-2.34
-4.86
-6.87
-8.57
-10.17
-11.85
-13.77
-16.01
-18.65
-21.69
-25.11
-28.76
-32.36
-35.45
-37.37
-37.37
-34.75
-29.22
-20.99
-10.88
-0.03
10.41
19.61
27.2
33.19
37.74
40.91
42.57
42.46
40.45
36.71
31.79
26.51
21.77
18.18
15.94
14.82
14.34
14.06
13.76
13.51
13.51
13.94
14.68
15.36
15.44
14.53
12.5
9.64
6.47
3.49
0.97
-1.17
-3.33
-6.01
-9.62
-14.34
-19.97
-25.97
-31.49
-35.48
-36.92
-35.05
-29.61
-20.93
-9.94
2.07
13.73
23.87
31.82
37.41
40.88
42.68
43.16
42.52
40.82
38.12
34.67
30.91
27.32
24.2
21.43
18.56
14.99
10.37
4.9
-0.67
-5.31
-8.16
-8.89
-7.91
-6.12
-4.6
-4.13
-5.03
-7.25
-10.52
-14.64
-19.52
-25.08
-31.16
-37.49
-43.8
-49.91
-55.73
-61.14
-65.65
-68.42
-68.4
-64.73
-57.17
-46.36
-33.62
-20.51
-8.22
2.77
12.64
21.87
30.74
38.98
45.92
50.73
52.97
52.78
50.92
48.33
45.78
43.62
41.73
39.82
37.63
35.12
32.49
29.97
27.77
25.92
24.3
22.67
20.71
18.17
14.86
10.75
5.92
0.56
-5.09
-10.77
-16.27
-21.38
-25.95
-29.96
-33.58
-37.15
-41.07
-45.48
-50.14
-54.21
-56.47
-55.74
-51.29
-43.17
-32.26
-19.91
-7.56
3.67
13.14
20.63
26.18
29.85
31.71
31.86
30.55
28.21
25.41
22.66
20.25
18.19
16.28
14.32
12.23
10.13
8.33
7.07
6.38
6.01
5.47
4.31
2.27
-0.6
-4.03
-7.62
-11.03
-14.06
-16.67
-18.98
-21.25
-23.81
-26.98
-30.89
-35.29
-39.44
-42.19
-42.31
-38.95
-31.98
-22.03
-10.36
1.57
12.5
21.56
28.36
32.86
35.23
35.69
34.51
31.97
28.44
24.4
20.38
16.92
14.3
12.53
11.28
10.05
8.4
6.22
3.74
1.41
-0.34
-1.44
-2.21
-3.26
-5.16
-8.16
-12.05
-16.32
-20.38
-23.76
-26.33
-28.22
-29.79
-31.49
-33.72
-36.71
-40.35
-43.99
-46.51
-46.55
-42.92
-35.09
-23.43
-9.15
6.03
20.36
32.4
41.32
46.93
49.51
49.69
48.13
45.41
42.01
38.35
34.89
32.15
30.57
30.21
30.68
31.22
30.98
29.51
26.89
23.69
20.61
18.07
16.02
14
11.4
7.75
2.9
-2.93
-9.29
-15.64
-21.53
-26.71
-31.2
-35.31
-39.46
-44.06
-49.34
-55.31
-61.63
-67.58
-72.06
-73.67
-71.12
-63.64
-51.5
-36.06
-19.44
-3.83
9.24
19.26
26.58
32
36.15
39.26
41.25
41.99
41.49
40.02
37.98
35.65
33.24
30.82
28.39
25.97
23.6
21.34
19.26
17.46
15.97
14.78
13.7
12.46
10.75
8.36
5.3
1.85
-1.61
-4.75
-7.46
-9.89
-12.36
-15.19
-18.64
-22.82
-27.71
-33.27
-39.25
-45.13
-50.03
-52.81
-52.35
-48.04
-39.98
-29.07
-16.75
-4.51
6.47
15.61
22.8
28.27
32.25
34.84
36.04
35.82
34.3
31.78
28.73
25.65
22.91
20.71
19.02
17.7
16.56
15.46
14.36
13.24
12.13
11.05
9.93
8.65
7.02
4.91
2.24
-0.9
-4.34
-7.83
-11.15
-14.09
-16.5
-18.37
-19.89
-21.44
-23.54
-26.64
-30.92
-36.05
-41.19
-45.18
-46.83
-45.28
-40.23
-32.02
-21.55
-10.03
1.28
11.41
19.8
26.38
31.41
35.22
38.01
39.74
40.21
39.22
36.8
33.31
29.37
25.62
22.56
20.36
18.94
18
17.23
16.41
15.34
13.95
12.22
10.21
8.09
6.09
4.38
3.03
1.9
0.76
-0.64
-2.45
-4.66
-7.16
-9.79
-12.5
-15.37
-18.66
-22.74
-28.01
-34.66
-42.41
-50.36
-57.05
-60.91
-60.65
-55.8
-46.88
-35.24
-22.65
-10.8
-0.88
6.58
11.67
14.93
17.01
18.51
19.79
21.02
22.24
23.54
25.13
27.17
29.73
32.56
35.21
37.17
38.13
38.14
37.53
36.68
35.81
34.82
33.39
31.14
27.88
23.63
18.61
13.2
7.76
2.66
-1.85
-5.72
-9.15
-12.56
-16.59
-21.81
-28.56
-36.86
-46.4
-56.46
-66.07
-73.97
-78.76
-79.27
-74.9
-65.95
-53.7
-40
-26.78
-15.43
-6.51
0.14
5.01
8.53
10.89
12.07
12.13
11.32
10.09
8.94
8.22
8.01
8.17
8.49
8.85
9.26
9.81
10.49
11.11
11.3
10.63
8.86
6.04
2.56
-0.96
-3.88
-5.82
-6.73
-6.99
-7.21
-8.12
-10.34
-14.11
-19.14
-24.56
-29.06
-31.25
-30.11
-25.31
-17.36
-7.37
3.26
13.21
21.52
27.62
31.34
32.82
32.4
30.61
28.01
25.19
22.64
20.69
19.48
18.96
18.94
19.13
19.16
18.72
17.6
15.78
13.38
10.66
7.86
5.13
2.51
-0.12
-2.88
-5.87
-9.12
-12.56
-16.14
-19.87
-23.94
-28.62
-34.15
-40.59
-47.58
-54.26
-59.41
-61.71
-60.14
-54.33
-44.74
-32.5
-19.13
-6.11
5.44
14.91
22.09
27.11
30.17
31.5
31.32
29.93
27.7
25.05
22.36
19.92
17.84
16.11
14.64
13.43
12.52
12.08
12.2
12.81
13.63
14.14
13.8
12.19
9.21
5.16
0.64
-3.62
-7.04
-9.45
-11.18
-12.96
-15.72
-20.19
-26.64
-34.62
-43.06
-50.42
-55.13
-56.03
-52.73
-45.75
-36.34
-26.07
-16.37
-8.1
-1.42
3.97
8.61
12.9
16.94
20.61
23.69
26.09
27.88
29.3
30.61
32.05
33.68
35.49
37.44
39.52
41.8
44.36
47.17
50.04
52.57
54.23
54.55
53.26
50.49
46.64
42.24
37.72
33.17
28.32
22.56
15.22
5.81
-5.77
-19.06
-33.04
-46.29
-57.28
-64.65
-67.53
-65.66
-59.43
-49.73
-37.84
-25.18
-13.17
-2.94
4.86
10.14
13.32
15.11
16.15
16.9
17.45
17.77
17.76
17.42
16.83
16.02
14.89
13.27
10.99
8.19
5.26
2.81
1.39
1.2
1.88
2.62
2.36
0.25
-4.02
-10.05
-16.88
-23.31
-28.33
-31.42
-32.65
-32.55
-31.9
-31.61
-32.55
-35.4
-40.37
-46.92
-53.66
-58.64
-59.91
-56.29
-47.82
-35.7
-21.83
-8.08
4.27
14.66
23.01
29.34
33.53
35.41
34.91
32.34
28.33
23.7
19.09
14.82
10.73
6.43
1.63
-3.62
-8.8
-13.22
-16.36
-18.18
-19.18
-20.2
-21.95
-24.72
-28.23
-31.75
-34.48
-35.89
-36.02
-35.43
-35.03
-35.69
-37.97
-42.01
-47.48
-53.75
-59.97
-65.09
-67.98
-67.45
-62.64
-53.23
-39.71
-23.36
-5.95
10.81
25.64
37.92
47.58
54.85
59.9
62.75
63.37
61.86
58.64
54.44
50.12
46.39
43.56
41.54
39.94
38.33
36.48
34.38
32.12
29.85
27.57
25.25
22.77
20.03
16.93
13.38
9.38
5.03
0.55
-3.72
-7.53
-10.84
-13.85
-16.96
-20.67
-25.38
-31.26
-38.04
-45.02
-50.97
-54.41
-54.02
-49.04
-39.66
-26.93
-12.51
1.85
14.77
25.46
33.68
39.5
43.19
45.07
45.47
44.72
43.14
40.99
38.48
35.85
33.34
31.17
29.43
28.07
26.86
25.58
24.13
22.64
21.31
20.27
19.4
18.35
16.67
14.04
10.46
6.18
1.6
-2.92
-7.17
-11.09
-14.65
-17.84
-20.68
-23.32
-26.05
-29.35
-33.66
-39.17
-45.55
-51.83
-56.55
-58.13
-55.46
-48.24
-37.2
-23.8
-9.78
3.4
14.84
24.28
31.81
37.6
41.75
44.24
45.07
44.38
42.53
39.97
37.17
34.48
32.11
30.1
28.39
26.86
25.35
23.72
21.81
19.5
16.72
13.54
10.09
6.45
2.65
-1.45
-6.06
-11.32
-17.18
-23.34
-29.38
-34.94
-39.88
-44.26
-48.32
-52.3
-56.42
-60.8
-65.49
-70.34
-74.91
-78.35
-79.5
-77.2
-70.68
-59.89
-45.63
-29.3
-12.53
3.23
16.93
28.01
36.2
41.47
43.93
43.82
41.59
37.85
33.32
28.63
24.23
20.27
16.68
13.3
10.05
6.99
4.33
2.34
1.17
0.8
1
1.42
1.63
1.38
0.6
-0.45
-1.32
-1.54
-0.8
0.78
2.64
3.87
3.49
0.68
-4.86
-12.76
-21.88
-30.51
-36.67
-38.63
-35.43
-27.15
-14.98
-0.89
13.01
24.91
33.7
38.98
40.94
40.08
37.1
32.78
27.98
23.62
20.54
19.4
20.42
23.28
27.11
30.76
33.19
33.87
32.93
31.03
28.94
27.07
25.28
22.95
19.48
14.63
8.74
2.54
-3.27
-8.4
-13.12
-18.07
-23.93
-31.09
-39.66
-49.43
-59.92
-70.31
-79.29
-85.2
-86.45
-82.07
-72.19
-58.06
-41.68
-25.1
-9.84
3.33
14.31
23.2
30.18
35.35
38.88
41.11
42.38
43.01
43.09
42.54
41.2
39.02
36.12
32.77
29.34
26.18
23.55
21.56
20.1
18.82
17.23
14.85
11.44
7.17
2.58
-1.61
-4.81
-6.86
-8.17
-9.5
-11.76
-15.65
-21.43
-28.74
-36.65
-43.76
-48.49
-49.46
-45.9
-37.95
-26.59
-13.42
-0.1
12.06
22.35
30.57
36.84
41.36
44.23
45.56
45.53
44.5
42.95
41.36
40.03
39
38.03
36.75
34.89
32.35
29.34
26.2
23.27
20.7
18.34
15.83
12.78
8.96
4.38
-0.68
-5.88
-10.95
-15.78
-20.45
-25.15
-30.13
-35.64
-41.85
-48.74
-55.93
-62.55
-67.31
-68.81
-66.01
-58.71
-47.69
-34.52
-21.04
-8.88
1
8.26
13.11
15.88
16.94
16.53
14.94
12.5
9.72
7.13
5.19
4.14
3.94
4.3
4.8
5.1
5.02
4.6
3.94
3.11
2.02
0.52
-1.55
-4.19
-7.23
-10.37
-13.29
-15.83
-17.97
-19.92
-21.96
-24.38
-27.37
-30.91
-34.64
-37.8
-39.27
-37.88
-32.77
-23.78
-11.58
2.54
17.1
30.82
42.87
52.81
60.38
65.44
67.92
68.09
66.59
64.39
62.43
61.28
60.9
60.77
60.14
58.39
55.25
50.84
45.54
39.81
34.02
28.33
22.8
17.33
11.75
5.94
-0.11
-6.24
-12.16
-17.48
-21.89
-25.34
-28.06
-30.63
-33.81
-38.27
-44.41
-52.13
-60.76
-69.15
-75.85
-79.46
-78.96
-74.01
-65.13
-53.5
-40.69
-28.19
-17.06
-7.79
-0.39
5.34
9.51
12.11
13.08
12.51
10.8
8.61
6.67
5.5
5.23
5.57
6.03
6.14
5.62
4.47
2.81
0.83
-1.41
-3.97
-7.06
-10.89
-15.6
-21.15
-27.19
-33.12
-38.18
-41.67
-43.15
-42.55
-40.17
-36.5
-32.14
-27.75
-23.95
-21.16
-19.35
-17.85
-15.47
-10.91
-3.35
7.15
19.58
32.43
44.28
54.26
62.15
68.1
72.28
74.66
75.12
73.6
70.38
65.98
60.98
55.82
50.7
45.6
40.48
35.32
30.21
25.3
20.68
16.4
12.43
8.71
5.12
1.49
-2.33
-6.48
-10.93
-15.47
-19.77
-23.47
-26.38
-28.54
-30.15
-31.48
-32.73
-33.99
-35.33
-36.92
-39.09
-42.24
-46.56
-51.81
-57.02
-60.79
-61.51
-58.06
-50.18
-38.67
-25.06
-11.16
1.53
12.17
20.58
27.02
31.85
35.34
37.61
38.74
38.85
38.2
37.17
36.13
35.33
34.9
34.82
34.96
35.14
35.16
34.81
33.96
32.58
30.84
28.98
27.28
25.81
24.42
22.67
20.04
16.17
10.98
4.79
-1.81
-8.13
-13.59
-17.86
-20.91
-22.95
-24.4
-25.79
-27.65
-30.32
-33.68
-36.98
-38.94
-38.07
-33.24
-24.09
-11.33
3.5
18.49
31.95
42.78
50.59
55.49
57.8
57.87
55.96
52.46
47.85
42.73
37.71
33.24
29.44
26.11
22.94
19.67
16.3
13.18
10.79
9.46
9.15
9.42
9.61
9.13
7.67
5.34
2.48
-0.52
-3.43
-6.25
-9.21
-12.67
-16.99
-22.41
-28.96
-36.37
-43.96
-50.81
-55.84
-58.19
-57.38
-53.47
-46.99
-38.68
-29.33
-19.59
-9.93
-0.75
7.62
14.84
20.62
24.84
27.49
28.71
28.66
27.45
25.19
22.08
18.49
14.99
12.21
10.56
10.06
10.28
10.54
10.12
8.62
5.94
2.31
-1.97
-6.68
-11.77
-17.31
-23.43
-30.16
-37.36
-44.69
-51.7
-57.9
-62.9
-66.53
-68.86
-70.26
-71.34
-72.75
-74.94
-77.89
-80.91
-82.74
-81.89
-77.16
-68.07
-55.04
-39.18
-21.93
-4.6
11.78
26.48
38.97
48.94
56.34
61.38
64.56
66.39
67.23
67.28
66.66
65.58
64.47
63.78
63.77
64.26
64.6
63.94
61.53
57.06
50.74
43.13
34.92
26.69
18.84
11.56
4.9
-1.17
-6.77
-12.14
-17.62
-23.55
-30.08
-37.13
-44.37
-51.34
-57.77
-63.71
-69.48
-75.48
-81.72
-87.64
-92.07
-93.61
-91.12
-84.17
-73.1
-58.88
-42.7
-25.72
-8.91
6.96
21.22
33.34
43.01
50.25
55.36
58.76
60.8
61.7
61.51
60.31
58.34
55.98
53.65
51.63
49.91
48.26
46.32
43.82
40.69
37
32.97
28.84
24.81
20.99
17.47
14.16
10.86
7.25
3.03
-1.9
-7.38
-12.97
-18.2
-22.73
-26.55
-30
-33.62
-38
-43.42
-49.69
-56.02
-61.11
-63.47
-61.83
-55.61
-45.11
-31.48
-16.37
-1.49
11.87
22.97
31.66
38.12
42.69
45.7
47.37
47.91
47.49
46.38
44.85
43.15
41.46
39.87
38.44
37.17
36.11
35.29
34.63
34
33.22
32.18
30.89
29.47
27.99
26.41
24.45
21.79
18.2
13.71
8.67
3.56
-1.19
-5.42
-9.26
-13
-16.93
-21.24
-25.96
-31
-36.13
-40.89
-44.43
-45.65
-43.45
-37.24
-27.3
-14.86
-1.73
10.34
20.27
27.82
33.51
38
41.67
44.39
45.65
44.92
42.08
37.56
32.27
27.3
23.44
20.97
19.55
18.47
17.03
14.86
12.07
9.01
6.06
3.23
0.24
-3.4
-8.09
-13.82
-20.18
-26.49
-32.15
-36.82
-40.62
-43.97
-47.49
-51.71
-57.02
-63.51
-71.04
-79.08
-86.69
-92.55
-95.17
-93.3
-86.38
-74.74
-59.71
-43.15
-26.95
-12.57
-0.85
7.96
13.95
17.37
18.58
18.05
16.39
14.33
12.47
11.16
10.43
10.06
9.75
9.34
8.95
8.91
9.72
11.73
14.98
19.11
23.31
26.58
28.09
27.38
24.6
20.32
15.29
10.04
4.72
-0.84
-6.91
-13.6
-20.75
-28
-34.93
-41.13
-46.14
-49.3
-49.76
-46.65
-39.47
-28.44
-14.61
0.38
14.72
27.07
36.76
43.8
48.52
51.18
51.85
50.5
47.25
42.62
37.44
32.56
28.39
24.76
20.96
16.29
10.53
4.14
-1.94
-6.86
-10.53
-13.92
-18.88
-27.38
-40.74
-59.01
-80.99
-104.62
-127.57
-147.63
-162.92
-171.98
-174.09
-169.68
-160.67
-150.37
-142.63
-140.5
-144.99
-154.62
-166.02
-175.3
-179.51
-177.5
-169.72
-157.35
-141.45
-122.45
-100.44
-75.65
-48.89
-21.45
5.25
30.14
52.7
72.79
90.37
105.22
117
125.44
130.59
132.86
132.98
131.73
129.73
127.38
124.82
122.08
119.1
115.75
111.88
107.2
101.36
93.98
84.84
74.03
62.01
49.53
37.35
26.05
15.85
6.6
-1.99
-10.27
-18.49
-26.83
-35.28
-43.68
-51.47
-57.67
-60.95
-59.98
-53.97
-43.05
-28.31
-11.53
5.41
21.09
34.68
45.86
54.53
60.56
63.86
64.51
62.96
59.97
56.4
52.94
49.96
47.52
45.59
44.13
43.22
42.9
43.12
43.57
43.78
43.19
41.36
38.1
33.45
27.65
21.08
14.17
7.4
1.19
-4.16
-8.57
-12.3
-15.89
-20.03
-25.36
-32.18
-40.3
-48.91
-56.65
-61.82
-62.84
-58.69
-49.33
-35.75
-19.76
-3.35
11.87
24.97
35.72
44.11
50.13
53.56
54.2
52.21
48.27
43.52
39.17
36.04
34.26
33.33
32.47
31.07
29.04
26.79
24.96
24.04
24
24.33
24.29
23.23
20.89
17.38
12.98
7.82
1.73
-5.66
-14.72
-25.58
-38.05
-51.69
-65.93
-80.06
-93.22
-104.33
-112.17
-115.63
-114.06
-107.55
-97.02
-83.96
-69.96
-56.31
-43.61
-31.96
-21.26
-11.63
-3.62
2.07
5.11
6.04
6.2
7.24
10.31
15.53
22.18
29.17
35.77
41.85
47.7
53.68
59.86
66
71.64
76.14
78.72
78.47
74.67
67.11
56.48
44.25
32.22
22
14.53
10.19
8.93
10.49
14.35
19.61
25.09
29.77
33.28
36.17
39.62
44.84
52.31
61.45
70.76
78.51
83.42
85.15
84.42
82.55
80.99
80.6
81.38
82.5
82.76
81.2
77.64
72.78
67.83
63.88
61.38
59.98
58.76
56.72
53.26
48.23
41.9
34.68
27
19.18
11.55
4.3
-2.58
-9.42
-16.86
-25.64
-36.31
-49.02
-63.43
-78.82
-94.31
-109.07
-122.32
-133.44
-141.94
-147.49
-149.93
-149.19
-145.11
-137.26
-124.98
-107.68
-85.55
-60.02
-33.94
-10.96
5.6
14.03
14.87
10.67
4.88
0.49
-1.07
-0.01
2.37
4.62
5.9
5.98
5.01
3.07
0.01
-4.34
-9.77
-15.58
-20.71
-24.24
-25.78
-25.69
-24.92
-24.58
-25.57
-28.34
-32.92
-39.05
-46.4
-54.68
-63.6
-72.68
-81.18
-88.05
-92.27
-93.19
-90.93
-86.23
-80.18
-73.69
-67.25
-60.85
-54.33
-47.59
-40.64
-33.51
-26.02
-17.79
-8.35
2.52
14.6
27.11
38.88
48.53
54.88
57.29
55.96
52.07
47.48
44.09
43.13
44.72
47.99
51.67
54.76
56.88
58.1
58.55
58.07
56.21
52.57
47.14
40.43
33.3
26.52
20.48
15.11
10.04
4.96
-0.22
-5.33
-10.1
-14.39
-18.36
-22.5
-27.41
-33.42
-40.22
-46.59
-50.65
-50.44
-44.65
-33.21
-17.37
0.73
18.77
34.91
48.15
58.32
65.82
71.28
75.4
78.71
81.5
83.76
85.21
85.28
83.24
78.32
70.18
59.21
46.68
34.54
24.51
17.31
11.97
6.09
-3.24
-18.16
-39.1
-64.62
-91.94
-117.92
-139.81
-155.78
-164.88
-167.05
-162.99
-154.18
-142.55
-130.06
-118.19
-107.53
-97.75
-87.86
-76.76
-63.66
-48.42
-31.61
-14.23
2.52
17.59
30.25
40.28
47.81
53.23
56.96
59.29
60.28
59.86
57.93
54.51
49.89
44.58
39.11
33.94
29.32
25.34
22.06
19.53
17.81
16.89
16.56
16.44
16.07
14.97
12.75
9.14
4.04
-2.47
-10.05
-18.23
-26.49
-34.49
-42.21
-49.86
-57.63
-65.31
-72.1
-76.61
-77.28
-72.88
-62.96
-48.07
-29.57
-9.18
11.4
30.88
48.41
63.46
75.69
84.81
90.61
93.02
92.19
88.48
82.48
75
66.84
58.79
51.47
45.26
40.39
36.91
34.69
33.49
32.89
32.32
31.09
28.54
24.14
17.69
9.37
-0.25
-10.45
-20.54
-30.17
-39.44
-48.89
-59.36
-71.55
-85.71
-101.31
-117
-130.88
-141.01
-146.06
-145.67
-140.58
-132.19
-122.03
-111.21
-100.13
-88.6
-76.24
-62.87
-48.73
-34.48
-20.88
-8.54
2.34
11.93
20.62
28.79
36.61
44.14
51.33
58.3
65.29
72.56
80.23
88.08
95.57
101.97
106.64
109.18
109.57
108.1
105.18
101.26
96.61
91.38
85.56
79.13
72.03
64.23
55.65
46.21
35.82
24.67
13.31
2.76
-5.7
-10.87
-11.99
-8.88
-1.94
8.08
20.3
33.71
47.16
59.31
68.87
74.93
77.32
76.69
74.33
71.68
69.77
68.9
68.69
68.36
67.24
65.08
62.12
58.91
56.04
53.74
51.89
50.06
47.78
44.8
41.2
37.26
33.26
29.2
24.81
19.72
13.73
6.98
-0.03
-6.67
-12.44
-17.26
-21.45
-25.59
-30.31
-35.93
-42.31
-48.73
-54.09
-57.16
-56.96
-53.11
-45.94
-36.45
-26.03
-16.03
-7.47
-0.86
3.74
6.54
7.82
7.86
6.94
5.35
3.5
1.77
0.5
-0.18
-0.35
-0.26
-0.22
-0.45
-0.98
-1.63
-2.12
-2.22
-2.02
-1.9
-2.5
-4.4
-7.8
-12.43
-17.57
-22.46
-26.57
-29.89
-32.8
-35.78
-39.16
-42.92
-46.68
-49.88
-51.9
-52.09
-49.87
-44.81
-36.82
-26.34
-14.32
-2.07
9.09
18.23
24.97
29.46
32.07
33.16
32.86
31.19
28.26
24.48
20.67
17.79
16.67
17.61
20.32
23.95
27.52
30.2
31.67
32.05
31.67
30.77
29.31
26.93
23.23
18.05
11.63
4.51
-2.61
-9.18
-14.84
-19.48
-23.14
-25.99
-28.39
-30.83
-33.86
-37.67
-41.89
-45.39
-46.67
-44.42
-38.09
-28.22
-16.28
-4.06
6.93
15.91
22.87
28.24
32.5
35.84
38.13
39.02
38.24
35.69
31.6
26.38
20.69
15.3
11.08
8.74
8.56
10.14
12.37
13.84
13.45
10.94
6.98
2.76
-0.68
-3.02
-4.8
-7
-10.44
-15.31
-21.05
-26.73
-31.3
-33.97
-34.31
-32.19
-27.94
-22.36
-16.75
-12.6
-11.19
-13.01
-17.49
-23.04
-27.56
-29.17
-26.77
-20.29
-10.44
1.59
14.57
27.35
38.82
47.97
54.03
56.76
56.65
54.81
52.57
50.94
50.22
49.98
49.43
47.93
45.25
41.63
37.5
33.17
28.6
23.42
17.1
9.22
-0.32
-11.09
-22.28
-32.85
-41.96
-49.24
-55.03
-60.12
-65.44
-71.5
-78.17
-84.73
-90.24
-94.07
-96.2
-97.22
-98.03
-99.42
-101.69
-104.58
-107.36
-109.03
-108.64
-105.53
-99.39
-90.43
-79.24
-66.66
-53.62
-40.96
-29.39
-19.44
-11.56
-6.06
-3.21
-3.12
-5.67
-10.42
-16.64
-23.35
-29.48
-34.13
-36.8
-37.43
-36.39
-34.32
-31.83
-29.23
-26.37
-22.78
-17.94
-11.69
-4.51
2.49
7.89
10.49
9.85
6.33
0.92
-5.42
-12.09
-19.05
-26.46
-34.27
-41.96
-48.68
-53.56
-55.95
-55.68
-52.93
-48.03
-41.29
-32.89
-22.85
-11.07
2.43
17.54
33.81
50.47
66.56
81.15
93.64
103.75
111.6
117.65
122.6
127.14
131.65
135.97
139.29
140.63
139.29
135.39
129.86
123.97
118.62
113.9
109.14
103.47
96.49
88.46
80.07
71.87
63.93
55.75
46.63
35.98
23.5
9.4
-5.59
-20.26
-33.02
-42.4
-47.44
-48.23
-46.08
-43.08
-41.22
-41.61
-44.1
-47.39
-49.7
-49.38
-45.41
-37.67
-26.68
-13.21
1.99
18.19
34.59
50.2
63.89
74.57
80.96
82.31
78.72
71.27
61.66
51.52
41.81
32.55
23.03
11.69
-2.6
-19.69
-38.02
-55.35
-69.85
-80.79
-88.57
-94
-98.71
-104.05
-110.92
-119.63
-130.03
-141.56
-152.94
-162.3
-162.84
-150.02
-123.89
-89.81
-55.37
-26.22
-4.47
10.41
19.14
23.09
22.15
16.36
7
-3.06
-10.14
-11.07
-3.6
12.08
33.66
56.66
76.4
89.59
95.18
94.22
88.8
80.93
71.88
62.44
52.8
43.27
34.5
27.32
22.22
19.04
16.99
14.8
11.46
6.28
-0.64
-8.4
-15.58
-20.76
-23.18
-23.06
-21.58
-20.37
-21.03
-24.45
-30.58
-38.49
-46.87
-54.49
-60.51
-64.59
-66.57
-66.34
-63.64
-58.28
-50.37
-40.44
-29.49
-18.65
-8.88
-0.64
6.18
12.06
17.56
22.94
28.16
32.83
36.51
38.87
39.83
39.6
38.52
36.98
35.24
33.46
31.67
29.87
28.05
26.3
24.64
23.01
21.3
19.3
16.88
13.94
10.6
7.05
3.55
0.27
-2.76
-5.71
-8.88
-12.58
-16.96
-21.91
-26.93
-31.25
-34.04
-34.58
-32.58
-28.26
-22.23
-15.28
-8.14
-1.24
5.21
11.15
16.45
20.81
23.86
25.31
25.1
23.53
21.09
18.37
15.81
13.65
11.88
10.39
8.97
7.52
5.98
4.42
2.96
1.72
0.73
-0.12
-1.04
-2.32
-4.15
-6.63
-9.67
-13.11
-16.76
-20.38
-23.67
-26.21
-27.46
-26.99
-24.57
-20.33
-14.78
-8.54
-2.18
3.96
9.74
15.16
20.06
24.13
26.97
28.24
27.9
26.22
23.78
21.17
18.77
16.66
14.65
12.45
9.88
6.99
3.94
0.92
-2
-4.93
-7.99
-11.24
-14.61
-18.04
-21.5
-25.17
-29.31
-34.02
-39.05
-43.7
-46.98
-47.94
-46.1
-41.55
-34.9
-26.99
-18.59
-10.22
-2.09
5.68
12.91
19.32
24.54
28.29
30.45
31.14
30.65
29.38
27.68
25.83
23.92
21.97
19.91
17.68
15.25
12.61
9.76
6.74
3.57
0.29
-3.04
-6.41
-9.86
-13.51
-17.55
-22.15
-27.29
-32.7
-37.75
-41.66
-43.6
-43.02
-39.75
-34.05
-26.51
-17.86
-8.79
0.12
8.48
16.05
22.71
28.39
33.02
36.54
38.87
39.99
39.91
38.77
36.75
34.11
31.1
27.92
24.76
21.72
18.81
15.97
13.01
9.74
6.03
1.85
-2.66
-7.32
-11.94
-16.41
-20.68
-24.85
-29.09
-33.66
-38.81
-44.56
-50.56
-55.98
-59.7
-60.63
-58.14
-52.33
-43.95
-34.11
-23.81
-13.63
-3.8
5.72
14.87
23.39
30.8
36.61
40.57
42.68
43.27
42.77
41.62
40.13
38.47
36.69
34.77
32.76
30.71
28.76
27
25.47
24.11
22.74
21.17
19.22
16.81
13.94
10.68
7.16
3.47
-0.34
-4.25
-8.28
-12.49
-16.91
-21.63
-26.76
-32.42
-38.6
-45.05
-51.15
-56.01
-58.69
-58.51
-55.3
-49.39
-41.44
-32.16
-22.13
-11.77
-1.48
8.27
16.93
24.02
29.33
32.93
35.18
36.45
37.08
37.2
36.84
36.03
34.9
33.65
32.45
31.41
30.52
29.67
28.7
27.52
26.11
24.51
22.82
21.03
19.08
16.81
14.08
10.83
7.12
3.08
-1.15
-5.45
-9.83
-14.32
-18.96
-23.8
-28.9
-34.33
-40.09
-46.05
-51.8
-56.6
-59.58
-59.93
-57.29
-51.8
-44.11
-35.07
-25.41
-15.63
-5.95
3.46
12.38
20.42
27.1
32.04
35.13
36.57
36.82
36.42
35.82
35.24
34.67
33.98
33.03
31.75
30.22
28.57
26.94
25.38
23.84
22.18
20.22
17.8
14.75
11.06
6.82
2.29
-2.23
-6.51
-10.51
-14.42
-18.51
-23.09
-28.32
-34.13
-40.23
-46.11
-51.08
-54.39
-55.34
-53.51
-48.89
-41.85
-33.1
-23.37
-13.28
-3.24
6.49
15.68
24.03
31.19
36.82
40.77
43.02
43.8
43.41
42.2
40.48
38.51
36.5
34.56
32.84
31.37
30.14
29.01
27.81
26.36
24.53
22.33
19.85
17.17
14.35
11.33
8.01
4.35
0.37
-3.81
-8
-12.03
-15.78
-19.27
-22.59
-26
-29.81
-34.29
-39.61
-45.63
-51.85
-57.4
-61.27
-62.54
-60.73
-55.93
-48.68
-39.79
-29.99
-19.82
-9.59
0.5
10.17
19.07
26.8
33.05
37.69
40.77
42.46
42.96
42.52
41.39
39.88
38.26
36.71
35.34
34.12
32.98
31.85
30.67
29.34
27.75
25.78
23.36
20.5
17.36
14.1
10.87
7.66
4.35
0.76
-3.2
-7.47
-11.86
-16.13
-20.15
-23.97
-27.79
-31.9
-36.56
-41.86
-47.64
-53.37
-58.26
-61.38
-61.94
-59.57
-54.4
-47
-38.14
-28.48
-18.39
-8.08
2.3
12.43
21.78
29.76
35.9
40.03
42.27
43.01
42.7
41.76
40.48
39.05
37.54
36.03
34.55
33.17
31.92
30.74
29.5
27.98
26.01
23.56
20.81
18.01
15.4
13.04
10.79
8.34
5.4
1.83
-2.3
-6.78
-11.38
-15.87
-20.14
-24.14
-27.91
-31.55
-35.25
-39.23
-43.68
-48.51
-53.27
-57.13
-59.08
-58.32
-54.51
-47.93
-39.34
-29.67
-19.71
-9.99
-0.73
7.94
15.86
22.8
28.46
32.61
35.21
36.43
36.54
35.9
34.83
33.56
32.29
31.1
30.01
28.99
27.94
26.79
25.38
23.66
21.6
19.25
16.75
14.18
11.53
8.75
5.72
2.37
-1.23
-4.95
-8.61
-12.08
-15.32
-18.44
-21.58
-24.89
-28.51
-32.51
-36.83
-41.19
-45.04
-47.58
-47.98
-45.7
-40.74
-33.65
-25.33
-16.67
-8.28
-0.4
6.91
13.57
19.36
23.95
27.11
28.83
29.36
29.09
28.33
27.27
25.93
24.27
22.3
20.15
17.98
16
14.34
12.96
11.72
10.33
8.53
6.14
3.16
-0.23
-3.77
-7.21
-10.44
-13.49
-16.53
-19.8
-23.5
-27.77
-32.54
-37.43
-41.8
-44.82
-45.69
-43.93
-39.55
-33.05
-25.22
-16.89
-8.66
-0.86
6.41
13.1
19.03
23.94
27.49
29.49
30
29.3
27.86
26.14
24.43
22.82
21.21
19.51
17.7
15.92
14.32
12.94
11.57
9.85
7.39
4.02
-0.09
-4.51
-8.7
-12.31
-15.31
-17.99
-20.82
-24.22
-28.41
-33.34
-38.63
-43.64
-47.55
-49.55
-49.01
-45.73
-40
-32.48
-24.02
-15.33
-6.85
1.26
8.92
15.99
22.15
27.06
30.49
32.44
33.15
32.97
32.17
30.88
29.08
26.76
24.08
21.32
18.84
16.89
15.49
14.37
13.15
11.48
9.18
6.25
2.89
-0.63
-4.07
-7.28
-10.23
-13.06
-16.02
-19.48
-23.75
-29
-34.99
-41.03
-46.07
-48.99
-48.94
-45.71
-39.74
-31.97
-23.42
-14.89
-6.75
0.99
8.33
15.16
21.17
25.99
29.39
31.4
32.33
32.52
32.25
31.67
30.76
29.5
27.93
26.17
24.41
22.79
21.4
20.13
18.79
17.11
14.89
12.06
8.69
4.98
1.13
-2.72
-6.53
-10.36
-14.32
-18.55
-23.18
-28.27
-33.81
-39.52
-44.92
-49.28
-51.82
-51.9
-49.27
-44.12
-36.98
-28.57
-19.5
-10.24
-1.05
7.83
16.12
23.42
29.3
33.43
35.7
36.32
35.7
34.34
32.66
30.85
28.96
26.93
24.78
22.61
20.59
18.84
17.3
15.75
13.85
11.35
8.22
4.6
0.82
-2.84
-6.22
-9.31
-12.2
-15
-17.81
-20.79
-24.12
-27.93
-32.17
-36.44
-39.98
-41.86
-41.36
-38.16
-32.58
-25.31
-17.17
-8.77
-0.44
7.69
15.49
22.62
28.58
32.86
35.13
35.47
34.29
32.23
29.96
27.89
26.17
24.62
23
21.07
18.83
16.44
14.14
12.05
10.13
8.11
5.64
2.56
-1.07
-4.95
-8.68
-11.94
-14.68
-17.07
-19.42
-22.15
-25.55
-29.74
-34.56
-39.53
-43.88
-46.76
-47.42
-45.47
-41
-34.45
-26.53
-17.87
-8.94
-0.05
8.57
16.65
23.85
29.81
34.3
37.19
38.57
38.65
37.69
36
33.85
31.47
29.07
26.77
24.63
22.67
20.87
19.17
17.5
15.77
13.84
11.58
8.87
5.69
2.19
-1.43
-4.93
-8.15
-11.05
-13.76
-16.46
-19.37
-22.69
-26.58
-31.12
-36.22
-41.5
-46.23
-49.49
-50.39
-48.42
-43.64
-36.58
-28.08
-18.92
-9.66
-0.62
8.02
16.03
23.12
28.93
33.27
36.08
37.53
37.89
37.4
36.26
34.66
32.78
30.81
28.97
27.38
26.1
25.06
24.09
23.03
21.75
20.15
18.27
16.17
13.96
11.76
9.56
7.32
4.92
2.24
-0.75
-4
-7.39
-10.79
-14.15
-17.47
-20.92
-24.68
-28.96
-33.89
-39.34
-44.87
-49.67
-52.79
-53.37
-50.97
-45.75
-38.33
-29.63
-20.51
-11.54
-3.03
4.92
12.23
18.76
24.32
28.76
31.98
33.98
34.83
34.69
33.75
32.29
30.58
28.85
27.24
25.82
24.55
23.4
22.36
21.42
20.52
19.55
18.32
16.66
14.48
11.79
8.75
5.54
2.35
-0.73
-3.7
-6.59
-9.47
-12.37
-15.33
-18.44
-21.86
-25.79
-30.35
-35.49
-40.77
-45.44
-48.55
-49.29
-47.25
-42.6
-35.93
-28.05
-19.71
-11.45
-3.53
3.89
10.64
16.47
21.08
24.3
26.05
26.51
25.95
24.76
23.26
21.74
20.34
19.11
18.05
17.11
16.26
15.45
14.56
13.49
12.11
10.34
8.16
5.64
2.91
0.09
-2.67
-5.27
-7.71
-10.08
-12.55
-15.41
-18.86
-22.99
-27.55
-31.99
-35.5
-37.28
-36.8
-33.98
-29.2
-23.09
-16.26
-9.16
-2.01
5.02
11.72
17.72
22.6
26.03
27.88
28.31
27.66
26.32
24.63
22.8
20.95
19.11
17.27
15.42
13.57
11.72
9.85
7.87
5.65
3.11
0.27
-2.74
-5.7
-8.45
-10.99
-13.5
-16.26
-19.53
-23.48
-28.13
-33.29
-38.54
-43.26
-46.63
-47.86
-46.44
-42.27
-35.79
-27.77
-19.07
-10.33
-1.93
5.99
13.31
19.88
25.41
29.64
32.39
33.64
33.55
32.36
30.36
27.82
25.04
22.28
19.74
17.47
15.43
13.43
11.29
8.83
5.97
2.73
-0.84
-4.57
-8.28
-11.77
-14.92
-17.76
-20.52
-23.56
-27.23
-31.71
-36.86
-42.12
-46.67
-49.59
-50.08
-47.79
-42.79
-35.62
-27.02
-17.73
-8.3
0.98
9.92
18.26
25.67
31.71
36.05
38.59
39.58
39.41
38.53
37.25
35.66
33.74
31.41
28.72
25.82
22.92
20.29
18.05
16.23
14.65
13.03
11.02
8.34
4.98
1.12
-2.83
-6.5
-9.68
-12.47
-15.2
-18.31
-22.14
-26.83
-32.25
-37.97
-43.34
-47.52
-49.71
-49.28
-46.08
-40.37
-32.85
-24.31
-15.42
-6.55
2.15
10.58
18.47
25.41
30.9
34.6
36.49
36.86
36.11
34.69
32.85
30.71
28.31
25.74
23.18
20.89
19.09
17.88
17.16
16.64
15.93
14.69
12.68
9.91
6.57
2.98
-0.55
-3.8
-6.76
-9.61
-12.63
-16.13
-20.36
-25.41
-31.15
-37.09
-42.47
-46.33
-47.79
-46.34
-42
-35.33
-27.23
-18.55
-9.93
-1.69
6.08
13.26
19.63
24.85
28.64
30.89
31.74
31.52
30.59
29.23
27.57
25.65
23.55
21.45
19.56
18.11
17.11
16.41
15.71
14.67
13.05
10.79
8.01
4.89
1.66
-1.53
-4.59
-7.58
-10.66
-14.1
-18.15
-22.99
-28.54
-34.37
-39.71
-43.56
-45.06
-43.69
-39.53
-33.14
-25.35
-16.91
-8.37
0.04
8.18
15.87
22.75
28.41
32.52
34.93
35.75
35.31
34
32.24
30.38
28.69
27.3
26.2
25.3
24.43
23.49
22.4
21.15
19.7
18.02
16.03
13.71
11.04
8.05
4.81
1.4
-2.09
-5.57
-8.98
-12.29
-15.59
-19.02
-22.73
-26.86
-31.47
-36.55
-41.96
-47.31
-51.96
-55.09
-55.88
-53.82
-48.87
-41.52
-32.51
-22.65
-12.56
-2.64
6.81
15.52
23.15
29.44
34.22
37.55
39.57
40.5
40.48
39.64
38.15
36.25
34.25
32.43
30.99
29.93
29.11
28.29
27.24
25.84
24.03
21.89
19.54
17.06
14.46
11.72
8.78
5.61
2.22
-1.37
-5.11
-8.97
-12.89
-16.78
-20.57
-24.26
-28.01
-32.06
-36.67
-41.87
-47.32
-52.24
-55.61
-56.49
-54.38
-49.32
-41.87
-32.85
-23.05
-13.01
-3.08
6.52
15.54
23.6
30.35
35.5
38.98
40.91
41.56
41.19
40.08
38.49
36.65
34.79
33.09
31.64
30.45
29.39
28.29
26.99
25.34
23.3
20.91
18.26
15.49
12.7
9.94
7.2
4.44
1.57
-1.44
-4.63
-7.98
-11.44
-14.91
-18.3
-21.56
-24.75
-28.07
-31.8
-36.13
-41.03
-46
-50.17
-52.52
-52.22
-48.94
-42.97
-35.13
-26.38
-17.5
-8.92
-0.72
7.13
14.59
21.36
26.96
30.95
33.15
33.69
33.01
31.69
30.2
28.8
27.49
26.16
24.67
23.02
21.27
19.54
17.92
16.44
15.02
13.54
11.84
9.8
7.33
4.44
1.28
-1.98
-5.14
-8.1
-10.89
-13.66
-16.58
-19.77
-23.29
-27.15
-31.26
-35.48
-39.5
-42.77
-44.61
-44.37
-41.69
-36.65
-29.8
-21.89
-13.67
-5.6
2.11
9.42
16.2
22.22
27.1
30.5
32.26
32.49
31.51
29.75
27.59
25.25
22.82
20.3
17.75
15.3
13.19
11.57
10.42
9.5
8.39
6.75
4.38
1.39
-1.91
-5.19
-8.22
-10.97
-13.57
-16.24
-19.16
-22.44
-26.17
-30.36
-34.94
-39.64
-43.96
-47.17
-48.51
-47.39
-43.66
-37.65
-30
-21.46
-12.63
-3.87
4.61
12.61
19.8
25.78
30.19
32.89
34.04
33.99
33.15
31.84
30.24
28.37
26.21
23.77
21.15
18.53
16.1
14
12.22
10.59
8.79
6.51
3.57
0.03
-3.85
-7.66
-11.09
-14.09
-16.84
-19.66
-22.89
-26.74
-31.27
-36.31
-41.48
-46.15
-49.53
-50.83
-49.53
-45.55
-39.26
-31.36
-22.55
-13.38
-4.17
4.88
13.52
21.41
28.1
33.19
36.46
37.96
38.01
37.06
35.64
34.14
32.77
31.5
30.15
28.51
26.46
24.07
21.55
19.17
17.1
15.33
13.7
11.92
9.73
7.02
3.85
0.43
-2.98
-6.16
-9.08
-11.85
-14.69
-17.86
-21.5
-25.74
-30.56
-35.77
-41
-45.56
-48.61
-49.36
-47.33
-42.58
-35.64
-27.29
-18.26
-9.07
0.03
8.82
17.03
24.24
30.06
34.17
36.6
37.6
37.54
36.75
35.48
33.86
32.05
30.25
28.72
27.62
26.98
26.6
26.15
25.3
23.86
21.89
19.57
17.14
14.74
12.31
9.67
6.54
2.74
-1.78
-6.88
-12.25
-17.47
-22.18
-26.17
-29.47
-32.38
-35.34
-38.76
-42.87
-47.55
-52.35
-56.57
-59.41
-60.23
-58.7
-54.86
-49.07
-41.85
-33.65
-24.85
-15.67
-6.33
2.83
11.34
18.69
24.42
28.36
30.58
31.43
31.31
30.67
29.79
28.81
27.75
26.56
25.2
23.67
22.04
20.38
18.81
17.4
16.18
15.12
14.07
12.82
11.16
8.95
6.21
3.09
-0.14
-3.28
-6.21
-8.96
-11.64
-14.36
-17.19
-20.18
-23.4
-26.92
-30.69
-34.43
-37.57
-39.39
-39.22
-36.75
-32.15
-25.96
-18.84
-11.34
-3.76
3.77
11.05
17.75
23.39
27.51
29.91
30.77
30.5
29.62
28.5
27.31
26.02
24.56
22.89
21.09
19.28
17.55
15.86
14.08
12.06
9.65
6.8
3.57
0.15
-3.21
-6.26
-8.84
-11.02
-13.11
-15.59
-18.97
-23.49
-28.96
-34.65
-39.49
-42.4
-42.62
-39.98
-34.86
-28.03
-20.27
-12.24
-4.33
3.24
10.27
16.46
21.45
24.95
26.9
27.5
27.15
26.26
25.12
23.77
22.16
20.23
18.05
15.83
13.78
12.03
10.48
8.95
7.18
5.07
2.64
0.03
-2.62
-5.21
-7.77
-10.36
-13.08
-16
-19.16
-22.48
-25.83
-28.94
-31.45
-32.97
-33.14
-31.71
-28.68
-24.26
-18.79
-12.69
-6.3
0.13
6.4
12.25
17.31
21.16
23.53
24.41
24.16
23.41
22.77
22.64
22.99
23.55
23.89
23.68
22.82
21.48
19.92
18.43
17.14
16
14.82
13.33
11.31
8.7
5.56
2.04
-1.69
-5.41
-8.79
-11.29
-12.31
-11.41
-8.61
-4.39
0.41
4.95
8.66
11.47
13.77
15.97
18.19
20.08
21.08
20.51
18.08
13.63
7.39
-0.19
-8.5
-16.84
-24.57
-30.96
-35.85
-39.44
-42.91
-47.67
-54.86
-64.86
-77.08
-90.23
-102.41
-112.48
-119.74
-124.71
-128.13
-130.75
-132.97
-135.14
-137.75
-141.12
-146.17
-147.57
-140.51
-121.53
-90.52
-50.73
-7.14
32.92
68.79
100.77
129.08
152.86
171.15
181.98
184.31
178.43
165.88
149.51
131.87
115.5
101.94
91.92
85.23
81.03
78.1
75.07
71.17
65.6
58.12
48.69
37.59
25.17
12.01
-1.38
-14.58
-27.08
-38.6
-48.63
-56.45
-61.25
-62.42
-59.87
-54.07
-45.87
-36.05
-25.21
-13.63
-1.48
10.83
22.62
33.05
41.42
47.4
51.09
52.68
52.32
50.1
46.24
41.35
36.46
32.78
31.19
31.83
34.01
36.39
37.62
36.73
33.47
28.18
21.55
14.23
6.65
-1.05
-8.93
-17.19
-26.05
-35.76
-46.42
-57.84
-69.38
-79.9
-87.84
-91.68
-90.33
-83.56
-72.11
-57.45
-41.3
-25.13
-9.88
4.11
16.75
27.97
37.5
44.92
49.8
51.96
51.59
49.26
45.72
41.72
37.85
34.42
31.51
29.05
26.9
24.88
22.78
20.39
17.52
14.13
10.34
6.39
2.59
-0.84
-3.76
-6.2
-8.26
-10.16
-12.28
-15.08
-18.97
-24.18
-30.56
-37.77
-45.38
-53.1
-60.71
-67.83
-73.65
-76.93
-76.48
-71.7
-62.89
-51.23
-38.17
-24.83
-11.66
1.34
14.04
25.83
35.55
42.07
44.8
44.13
41.18
37.32
33.57
30.28
27.22
23.93
20.09
15.67
10.99
6.45
2.41
-0.96
-3.58
-5.35
-6.04
-5.37
-3.08
0.78
5.7
10.69
14.47
15.86
14.3
10.19
4.89
0.3
-1.77
-0.32
4.49
11.44
18.71
24.48
27.42
26.96
23.28
17.21
10.03
3.32
-1.32
-2.59
0.21
7.04
17.08
28.97
41.06
51.87
60.38
66.26
69.85
71.92
73.24
74.27
74.88
74.52
72.53
68.51
62.6
55.38
47.69
40.24
33.51
27.62
22.53
18.12
14.3
10.96
7.92
4.92
1.7
-1.91
-5.85
-9.92
-13.93
-17.77
-21.59
-25.65
-30.24
-35.48
-41.21
-47.02
-52.43
-57.08
-60.86
-63.96
-66.84
-70.03
-74.02
-79.02
-84.89
-91.01
-96.36
-99.71
-99.88
-96.05
-88
-76.15
-61.42
-44.98
-28.01
-11.58
3.47
16.34
26.29
32.7
35.33
34.65
31.98
29.21
28.21
30.18
35.09
41.7
48.11
52.46
53.67
51.53
46.58
39.56
31.17
21.99
12.63
3.9
-3.25
-8.07
-10.36
-10.68
-10.19
-10.23
-11.79
-15.21
-20.09
-25.6
-30.89
-35.47
-39.4
-43.16
-47.49
-53
-59.95
-68.01
-76.22
-83.13
-87.17
-87.04
-82.02
-72.28
-58.66
-42.51
-25.3
-8.34
7.43
21.42
33.37
43.25
51.14
57.21
61.63
64.57
66.23
66.79
66.58
65.92
65.14
64.42
63.77
63.1
62.25
61.18
59.87
58.28
56.14
52.99
48.3
41.76
33.45
23.9
13.86
3.92
-5.71
-15.23
-25.03
-35.33
-45.95
-56.19
-64.96
-71.09
-73.65
-72.15
-66.77
-58.19
-47.46
-35.61
-23.5
-11.69
-0.59
9.3
17.33
22.65
24.59
22.89
17.95
10.77
2.68
-5.08
-11.66
-16.73
-20.44
-23.29
-25.88
-28.83
-32.6
-37.43
-43.31
-49.99
-57.01
-63.9
-70.27
-75.93
-80.92
-85.47
-90.02
-95.01
-100.74
-107.13
-113.55
-118.74
-121.18
-119.48
-112.91
-101.72
-86.97
-70.23
-53.03
-36.59
-21.63
-8.6
2.23
10.66
16.65
20.36
22.17
22.58
22.08
21.08
19.82
18.48
17.2
16.12
15.35
14.89
14.64
14.44
14.04
13.1
11.27
8.25
3.89
-1.73
-8.33
-15.52
-22.91
-30.27
-37.75
-45.76
-54.65
-64.37
-74.06
-82.03
-86.04
-83.88
-74.39
-58.11
-37.34
-15.31
4.93
21.54
34.22
44.2
53.46
63.7
75.54
88.25
100.17
109.19
113.25
110.82
101.87
88.35
73.92
62.83
58.48
62.25
73.04
87.54
100.17
104.76
97.48
79.37
55.7
32.73
14.9
3.68
-1.97
-5.18
-8.99
-15.63
-26.06
-39.99
-56.05
-72.02
-84.95
-91.74
-90.21
-79.46
-60.04
-33.85
-3.98
25.91
52.43
73.19
87.17
94.62
96.79
95.41
92.01
87.41
81.59
74.17
64.91
54.2
42.97
32.6
24.42
19.22
16.92
16.73
17.49
18.17
18.12
17.07
15.07
12.31
8.97
5.14
0.89
-3.61
-8.06
-12.13
-15.6
-18.47
-21.02
-23.71
-27
-31.22
-36.53
-42.86
-49.94
-57.18
-63.74
-68.47
-70.21
-68.11
-61.91
-52.06
-39.55
-25.58
-11.25
2.68
15.74
27.57
37.87
46.26
52.46
56.36
58.1
58.06
56.71
54.55
51.96
49.21
46.44
43.78
41.34
39.23
37.52
36.17
34.95
33.56
31.68
29.08
25.72
21.69
17.17
12.4
7.56
2.82
-1.74
-6.06
-10.26
-14.57
-19.32
-24.89
-31.47
-38.9
-46.58
-53.51
-58.45
-60.32
-58.43
-52.77
-43.93
-32.9
-20.79
-8.49
3.33
14.26
23.97
32.12
38.37
42.48
44.47
44.64
43.54
41.78
39.81
37.8
35.73
33.48
31
28.47
26.15
24.29
22.92
21.81
20.47
18.41
15.33
11.26
6.51
1.6
-3.03
-7.18
-10.94
-14.73
-19.08
-24.47
-31.12
-38.77
-46.7
-53.73
-58.54
-59.97
-57.36
-50.76
-40.88
-28.9
-16.11
-3.56
8.04
18.37
27.28
34.68
40.39
44.23
46.12
46.22
44.92
42.81
40.45
38.23
36.28
34.51
32.69
30.69
28.47
26.16
23.95
21.98
20.21
18.4
16.17
13.19
9.27
4.5
-0.77
-6.12
-11.21
-15.91
-20.35
-24.82
-29.65
-35.15
-41.51
-48.73
-56.44
-63.85
-69.77
-72.86
-72.07
-66.99
-58
-46.12
-32.62
-18.7
-5.15
7.52
19.03
29.1
37.43
43.8
48.1
50.49
51.25
50.79
49.49
47.68
45.65
43.61
41.73
40.08
38.68
37.39
36.04
34.46
32.49
30.1
27.28
24.11
20.66
16.96
13.06
8.96
4.67
0.2
-4.46
-9.33
-14.36
-19.46
-24.47
-29.27
-33.9
-38.56
-43.63
-49.45
-56.01
-62.73
-68.54
-72.04
-72.07
-68.05
-60.19
-49.36
-36.74
-23.48
-10.43
1.85
12.98
22.69
30.72
36.93
41.3
44.03
45.43
45.84
45.53
44.69
43.46
41.91
40.15
38.29
36.47
34.84
33.48
32.41
31.5
30.53
29.21
27.28
24.64
21.36
17.69
13.91
10.26
6.76
3.28
-0.43
-4.55
-9.14
-14.08
-19.1
-23.9
-28.26
-32.12
-35.61
-39
-42.69
-47.05
-52.35
-58.48
-64.9
-70.57
-74.19
-74.54
-70.93
-63.39
-52.7
-40.09
-26.82
-13.9
-1.95
8.74
18.02
25.76
31.81
36.11
38.75
39.99
40.22
39.82
39.12
38.27
37.24
36
34.47
32.73
30.94
29.33
28.1
27.24
26.53
25.62
24.12
21.82
18.75
15.22
11.58
8.13
4.94
1.87
-1.31
-4.83
-8.77
-13.04
-17.39
-21.59
-25.41
-28.78
-31.78
-34.65
-37.72
-41.34
-45.84
-51.27
-57.3
-63.12
-67.55
-69.3
-67.43
-61.66
-52.47
-40.98
-28.49
-16.13
-4.6
5.78
14.89
22.66
28.9
33.45
36.23
37.44
37.43
36.6
35.35
33.9
32.37
30.78
29.15
27.58
26.21
25.16
24.52
24.23
24.05
23.65
22.67
20.87
18.28
15.14
11.83
8.66
5.76
2.96
-0.01
-3.42
-7.33
-11.56
-15.82
-19.8
-23.38
-26.55
-29.48
-32.35
-35.35
-38.72
-42.68
-47.36
-52.51
-57.43
-60.94
-61.75
-58.92
-52.26
-42.45
-30.8
-18.75
-7.42
2.62
11.33
18.88
25.37
30.64
34.38
36.27
36.29
34.73
32.23
29.52
27.17
25.46
24.32
23.46
22.57
21.51
20.25
18.91
17.59
16.26
14.82
13.14
11.1
8.63
5.76
2.57
-0.84
-4.34
-7.83
-11.24
-14.59
-17.98
-21.53
-25.34
-29.48
-34.01
-38.91
-43.98
-48.73
-52.32
-53.76
-52.18
-47.18
-39.02
-28.58
-17.05
-5.55
5.16
14.68
22.84
29.52
34.51
37.56
38.59
37.79
35.67
32.87
30.05
27.61
25.63
23.98
22.4
20.69
18.83
16.92
15.11
13.53
12.1
10.67
8.92
6.57
3.41
-0.59
-5.28
-10.31
-15.31
-19.94
-24.08
-27.84
-31.46
-35.27
-39.55
-44.46
-50.04
-56.04
-61.93
-66.77
-69.44
-68.88
-64.54
-56.55
-45.74
-33.3
-20.43
-7.99
3.48
13.76
22.66
29.98
35.51
39.19
41.14
41.68
41.2
40.1
38.66
37.02
35.21
33.19
30.88
28.28
25.51
22.76
20.25
18.09
16.16
14.2
11.8
8.7
4.82
0.39
-4.22
-8.65
-12.67
-16.35
-19.89
-23.68
-28.02
-33.22
-39.4
-46.42
-53.81
-60.66
-65.75
-67.85
-66.11
-60.39
-51.27
-39.88
-27.45
-14.98
-3.03
8.09
18.23
27.09
34.34
39.6
42.76
43.97
43.66
42.39
40.66
38.86
37.19
35.7
34.3
32.85
31.23
29.39
27.4
25.39
23.52
21.76
19.93
17.67
14.66
10.74
6.02
0.87
-4.3
-9.16
-13.63
-17.84
-22.08
-26.61
-31.7
-37.49
-44
-51.01
-57.92
-63.74
-67.23
-67.26
-63.15
-55.03
-43.75
-30.63
-17.05
-4.03
7.82
18.31
27.35
34.85
40.63
44.55
46.6
47.02
46.2
44.6
42.61
40.54
38.53
36.62
34.82
33.06
31.29
29.45
27.52
25.5
23.4
21.16
18.67
15.75
12.27
8.19
3.66
-1
-5.44
-9.5
-13.22
-16.89
-20.88
-25.47
-30.77
-36.74
-43.18
-49.74
-55.85
-60.68
-63.24
-62.57
-58.14
-50.05
-39.09
-26.45
-13.45
-1.14
9.81
19.09
26.57
32.22
36.01
37.98
38.32
37.42
35.8
33.97
32.31
30.94
29.73
28.45
26.93
25.21
23.48
22
20.86
19.85
18.54
16.45
13.32
9.23
4.53
-0.28
-4.81
-8.89
-12.59
-16.18
-20.04
-24.55
-30.01
-36.42
-43.33
-49.74
-54.27
-55.59
-52.84
-46.03
-36.02
-24.19
-11.93
-0.27
10.33
19.76
28.02
34.96
40.25
43.54
44.71
43.98
41.9
39.19
36.47
34.13
32.21
30.53
28.82
26.93
24.89
22.87
21.08
19.56
18.18
16.62
14.54
11.64
7.88
3.4
-1.5
-6.5
-11.34
-15.9
-20.19
-24.34
-28.55
-33.09
-38.21
-44.11
-50.74
-57.68
-64.05
-68.58
-69.99
-67.37
-60.53
-50.1
-37.3
-23.52
-9.96
2.66
13.94
23.76
31.99
38.53
43.34
46.45
48.05
48.4
47.73
46.28
44.28
41.98
39.64
37.44
35.45
33.58
31.71
29.75
27.7
25.63
23.61
21.55
19.2
16.26
12.5
7.92
2.78
-2.52
-7.58
-12.18
-16.34
-20.27
-24.27
-28.66
-33.72
-39.66
-46.5
-53.93
-61.13
-66.84
-69.62
-68.34
-62.61
-52.94
-40.58
-27.05
-13.66
-1.18
10.1
20.18
29.08
36.66
42.68
46.96
49.5
50.49
50.25
49.08
47.28
45.05
42.57
40.02
37.59
35.38
33.4
31.54
29.65
27.57
25.22
22.66
19.97
17.2
14.28
11.09
7.45
3.31
-1.23
-5.96
-10.58
-14.91
-18.89
-22.67
-26.5
-30.68
-35.46
-40.98
-47.16
-53.59
-59.47
-63.71
-65.1
-62.78
-56.46
-46.61
-34.31
-20.89
-7.55
4.87
15.91
25.38
33.14
39.15
43.38
45.98
47.16
47.25
46.48
45.06
43.14
40.86
38.45
36.14
34.11
32.45
31.07
29.83
28.51
26.91
24.9
22.43
19.54
16.37
13.11
9.91
6.81
3.69
0.38
-3.29
-7.34
-11.67
-16.04
-20.24
-24.09
-27.63
-31.04
-34.68
-38.98
-44.23
-50.39
-56.93
-62.77
-66.52
-66.88
-63.08
-55.18
-44.06
-31.07
-17.56
-4.58
7.31
17.84
26.88
34.28
39.86
43.5
45.27
45.47
44.55
43
41.22
39.43
37.62
35.71
33.63
31.43
29.29
27.44
26.04
24.99
23.98
22.65
20.72
18.21
15.37
12.52
9.89
7.44
4.93
2.06
-1.36
-5.3
-9.55
-13.85
-17.98
-21.86
-25.5
-29.01
-32.53
-36.28
-40.57
-45.64
-51.44
-57.41
-62.4
-64.99
-63.94
-58.66
-49.54
-37.7
-24.65
-11.69
0.36
11.13
20.56
28.55
34.96
39.6
42.43
43.6
43.48
42.41
40.71
38.55
36.05
33.38
30.76
28.47
26.67
25.39
24.43
23.48
22.24
20.56
18.45
16.07
13.63
11.23
8.86
6.39
3.62
0.41
-3.29
-7.34
-11.52
-15.61
-19.45
-23.05
-26.54
-30.17
-34.18
-38.75
-43.92
-49.41
-54.65
-58.71
-60.49
-59.08
-54.1
-45.85
-35.26
-23.56
-11.87
-0.96
8.85
17.41
24.62
30.22
34
35.85
35.97
34.83
32.98
30.89
28.82
26.81
24.81
22.78
20.76
18.82
17.09
15.62
14.42
13.39
12.34
11
9.13
6.57
3.37
-0.21
-3.78
-7.02
-9.82
-12.29
-14.78
-17.63
-21.15
-25.49
-30.63
-36.36
-42.15
-47.12
-50.2
-50.38
-47.03
-40.26
-30.82
-19.87
-8.58
2.18
11.92
20.42
27.49
32.95
36.58
38.27
38.19
36.69
34.31
31.57
28.84
26.32
24.04
21.89
19.79
17.66
15.56
13.61
11.91
10.45
9.03
7.29
4.85
1.49
-2.72
-7.41
-12.08
-16.31
-19.94
-23.12
-26.24
-29.73
-33.93
-38.96
-44.71
-50.77
-56.45
-60.82
-62.83
-61.61
-56.79
-48.6
-37.88
-25.78
-13.41
-1.6
9.2
18.77
26.96
33.59
38.43
41.38
42.53
42.23
40.99
39.27
37.4
35.46
33.38
31
28.27
25.33
22.45
19.93
17.96
16.42
14.93
13
10.21
6.41
1.8
-3.21
-8.16
-12.74
-16.87
-20.7
-24.49
-28.55
-33.17
-38.59
-44.85
-51.66
-58.26
-63.46
-65.92
-64.58
-59.07
-49.9
-38.18
-25.3
-12.42
-0.28
10.76
20.53
28.85
35.48
40.24
43.08
44.2
43.99
42.87
41.24
39.3
37.14
34.74
32.08
29.19
26.19
23.31
20.75
18.64
16.86
15.11
12.98
10.12
6.41
2.04
-2.59
-7.03
-11.01
-14.58
-17.99
-21.62
-25.78
-30.66
-36.29
-42.5
-48.91
-54.78
-59.11
-60.81
-59.02
-53.45
-44.51
-33.23
-20.84
-8.49
3.05
13.36
22.23
29.54
35.08
38.69
40.39
40.41
39.22
37.36
35.25
33.14
31.03
28.81
26.37
23.72
21.03
18.56
16.51
14.85
13.35
11.61
9.25
6.11
2.31
-1.78
-5.72
-9.19
-12.19
-15.01
-18.14
-22.13
-27.3
-33.55
-40.31
-46.49
-50.81
-52.11
-49.69
-43.57
-34.44
-23.44
-11.77
-0.39
10.06
19.26
27.02
33.18
37.56
40.07
40.73
39.81
37.75
35.1
32.36
29.87
27.72
25.78
23.87
21.84
19.7
17.56
15.6
13.83
12.09
10.06
7.39
3.9
-0.34
-5.02
-9.71
-14.06
-17.97
-21.57
-25.24
-29.42
-34.51
-40.73
-47.91
-55.39
-62.04
-66.48
-67.43
-64.14
-56.72
-46.02
-33.35
-20.04
-7.06
5.04
16.03
25.77
34.05
40.58
45.12
47.58
48.13
47.15
45.18
42.78
40.4
38.27
36.39
34.63
32.78
30.77
28.63
26.45
24.34
22.31
20.27
18.03
15.4
12.24
8.47
4.15
-0.57
-5.48
-10.35
-15.02
-19.43
-23.69
-27.96
-32.52
-37.63
-43.48
-50
-56.8
-62.97
-67.29
-68.49
-65.68
-58.66
-48.04
-35.03
-21.05
-7.29
5.44
16.74
26.49
34.62
41.05
45.73
48.68
50.04
50.09
49.18
47.61
45.67
43.52
41.33
39.22
37.29
35.62
34.18
32.86
31.45
29.73
27.61
25.05
22.12
18.87
15.3
11.35
6.94
2.13
-2.96
-8.06
-12.98
-17.58
-21.87
-25.95
-29.97
-34.12
-38.61
-43.65
-49.33
-55.47
-61.45
-66.23
-68.55
-67.32
-62.04
-53
-41.13
-27.74
-14.07
-1.06
10.8
21.31
30.38
37.93
43.84
47.99
50.36
51.08
50.41
48.73
46.46
43.99
41.59
39.43
37.54
35.89
34.42
33.03
31.6
29.96
27.93
25.37
22.26
18.73
15.02
11.36
7.91
4.6
1.24
-2.46
-6.63
-11.25
-16.06
-20.71
-24.91
-28.56
-31.79
-34.92
-38.36
-42.51
-47.59
-53.44
-59.39
-64.34
-66.94
-66.04
-61.08
-52.35
-40.85
-27.95
-14.89
-2.52
8.79
18.97
27.95
35.56
41.53
45.64
47.86
48.38
47.56
45.86
43.68
41.3
38.95
36.73
34.7
32.92
31.38
30.01
28.71
27.3
25.6
23.45
20.82
17.73
14.29
10.64
6.87
3.03
-0.88
-4.9
-9.05
-13.29
-17.54
-21.69
-25.64
-29.44
-33.21
-37.22
-41.73
-46.85
-52.32
-57.49
-61.34
-62.71
-60.7
-54.96
-45.84
-34.33
-21.68
-9.11
2.54
12.9
21.89
29.49
35.65
40.13
42.7
43.31
42.21
39.9
37.08
34.36
32.12
30.42
29.06
27.73
26.18
24.3
22.17
19.95
17.78
15.69
13.58
11.27
8.56
5.37
1.7
-2.31
-6.42
-10.47
-14.33
-18
-21.57
-25.18
-28.97
-33.13
-37.84
-43.19
-49.03
-54.89
-59.85
-62.81
-62.69
-58.9
-51.5
-41.2
-29.12
-16.43
-4.06
7.38
17.55
26.25
33.29
38.5
41.78
43.2
43.03
41.72
39.72
37.46
35.2
33.03
30.93
28.83
26.72
24.64
22.68
20.89
19.25
17.65
15.89
13.78
11.18
8.03
4.38
0.39
-3.74
-7.8
-11.7
-15.43
-19.14
-22.95
-26.99
-31.38
-36.21
-41.6
-47.56
-53.85
-59.82
-64.39
-66.33
-64.67
-59.08
-50.04
-38.66
-26.29
-14.03
-2.53
7.99
17.52
25.99
33.15
38.67
42.27
43.91
43.83
42.47
40.36
37.94
35.55
33.29
31.18
29.13
27.06
24.94
22.78
20.62
18.51
16.46
14.44
12.35
10.04
7.31
4.05
0.25
-3.96
-8.31
-12.57
-16.6
-20.42
-24.18
-28.11
-32.43
-37.3
-42.8
-48.83
-55
-60.56
-64.45
-65.52
-62.94
-56.54
-46.87
-35.08
-22.45
-10.04
1.57
12.16
21.69
30.01
36.82
41.76
44.61
45.42
44.58
42.68
40.34
38.08
36.13
34.5
32.95
31.28
29.33
27.16
24.93
22.82
20.91
19.08
17.08
14.6
11.39
7.39
2.73
-2.28
-7.28
-11.91
-15.99
-19.52
-22.69
-25.88
-29.51
-33.97
-39.49
-45.97
-52.85
-59.09
-63.4
-64.54
-61.78
-55.14
-45.35
-33.61
-21.16
-8.97
2.41
12.7
21.76
29.37
35.27
39.25
41.28
41.56
40.51
38.63
36.36
34.02
31.69
29.38
27.03
24.68
22.45
20.52
18.99
17.78
16.62
15.12
12.96
9.96
6.22
2.03
-2.25
-6.26
-9.84
-13.05
-16.15
-19.53
-23.63
-28.74
-34.96
-42
-49.19
-55.47
-59.63
-60.61
-57.83
-51.37
-41.95
-30.69
-18.78
-7.15
3.6
13.19
21.45
28.22
33.24
36.37
37.58
37.12
35.43
33.01
30.3
27.61
25.09
22.83
20.87
19.26
17.98
16.92
15.89
14.61
12.87
10.55
7.7
4.53
1.27
-1.91
-4.98
-8.11
-11.59
-15.73
-20.81
-26.9
-33.8
-40.86
-47.11
-51.33
-52.45
-49.82
-43.49
-34.21
-23.12
-11.5
-0.31
9.88
18.81
26.37
32.45
36.86
39.45
40.23
39.41
37.45
34.84
32.08
29.47
27.13
25
22.96
20.98
19.03
17.18
15.42
13.66
11.68
9.24
6.15
2.41
-1.8
-6.21
-10.51
-14.52
-18.24
-21.95
-26.07
-31.1
-37.38
-44.86
-52.9
-60.31
-65.6
-67.4
-64.92
-58.25
-48.23
-36.21
-23.53
-11.15
0.51
11.37
21.44
30.51
38.13
43.74
46.95
47.79
46.77
44.69
42.34
40.24
38.43
36.73
34.82
32.58
30.1
27.64
25.43
23.55
21.87
20.12
17.94
15.07
11.36
6.86
1.8
-3.47
-8.6
-13.38
-17.79
-22.01
-26.3
-30.89
-35.96
-41.6
-47.77
-54.22
-60.29
-64.96
-67.02
-65.45
-59.83
-50.52
-38.52
-25.08
-11.39
1.72
13.77
24.45
33.51
40.72
45.96
49.3
51.02
51.48
51.05
50
48.46
46.5
44.17
41.59
38.97
36.53
34.48
32.89
31.64
30.4
28.73
26.27
22.89
18.76
14.25
9.75
5.45
1.27
-3.05
-7.74
-12.79
-17.94
-22.75
-26.9
-30.34
-33.3
-36.22
-39.56
-43.63
-48.56
-54.14
-59.83
-64.68
-67.52
-67.2
-62.98
-54.86
-43.55
-30.28
-16.38
-2.84
9.71
21.09
31.2
39.94
47.08
52.37
55.66
57
56.65
55.06
52.71
50.06
47.4
44.85
42.4
40.01
37.69
35.54
33.6
31.86
30.12
28.03
25.29
21.77
17.62
13.24
9.15
5.7
2.99
0.8
-1.34
-3.89
-7.17
-11.18
-15.62
-19.94
-23.58
-26.15
-27.63
-28.41
-29.18
-30.76
-33.79
-38.49
-44.46
-50.66
-55.65
-57.93
-56.47
-51.05
-42.41
-32.1
-21.99
-13.69
-8.02
-4.76
-2.83
-0.81
2.46
7.33
13.3
19.23
23.85
26.19
25.82
22.89
17.9
11.52
4.5
-2.37
-8.23
-12.33
-14.1
-13.51
-11.05
-7.72
-4.7
-3
-3.09
-4.81
-7.55
-10.5
-13.1
-15.18
-17.01
-19.01
-21.55
-24.65
-27.94
-30.77
-32.47
-32.67
-31.39
-29.15
-26.77
-25.13
-24.91
-26.36
-29.27
-32.96
-36.44
-38.59
-38.47
-35.51
-29.74
-21.71
-12.29
-2.32
7.71
17.58
27.24
36.46
44.7
51.22
55.35
56.92
56.31
54.39
52.19
50.47
49.57
49.38
49.53
49.58
49.27
48.55
47.56
46.47
45.37
44.18
42.69
40.68
38.03
34.9
31.66
28.83
26.8
25.55
24.56
22.95
19.75
14.33
6.56
-3.14
-14.01
-25.21
-35.91
-45.26
-52.38
-56.41
-56.77
-53.47
-47.19
-39.08
-30.31
-21.58
-13.04
-4.56
3.86
11.77
18.29
22.56
24.23
23.68
21.81
19.7
18.08
17.14
16.71
16.48
16.28
16.17
16.31
16.71
17.14
17.17
16.28
14.14
10.7
6.21
1.14
-3.98
-8.77
-13.02
-16.79
-20.32
-23.95
-28.07
-33
-38.87
-45.55
-52.5
-58.77
-63.16
-64.6
-62.44
-56.68
-48.03
-37.51
-26.24
-15.11
-4.64
4.92
13.46
20.85
26.96
31.64
34.78
36.4
36.64
35.74
33.99
31.71
29.12
26.38
23.57
20.8
18.12
15.63
13.41
11.39
9.41
7.18
4.45
1.09
-2.82
-7.01
-11.16
-15.04
-18.64
-22.16
-26.02
-30.61
-36.18
-42.58
-49.2
-54.99
-58.73
-59.36
-56.33
-49.79
-40.51
-29.56
-17.97
-6.55
4.23
14.08
22.75
29.98
35.58
39.44
41.63
42.35
41.82
40.26
37.88
34.88
31.5
27.99
24.57
21.48
18.86
16.77
15.08
13.52
11.68
9.21
5.94
1.98
-2.32
-6.54
-10.37
-13.79
-17.08
-20.72
-25.2
-30.83
-37.48
-44.57
-51.06
-55.7
-57.31
-55.19
-49.35
-40.46
-29.67
-18.22
-7.08
3.19
12.39
20.5
27.44
33.04
37.07
39.35
39.96
39.12
37.24
34.65
31.67
28.49
25.29
22.24
19.54
17.3
15.48
13.89
12.16
9.95
7.02
3.38
-0.72
-4.94
-8.93
-12.52
-15.76
-18.96
-22.57
-27.02
-32.5
-38.7
-44.84
-49.68
-51.96
-50.74
-45.77
-37.57
-27.2
-15.92
-4.79
5.5
14.68
22.69
29.43
34.73
38.35
40.12
40.1
38.55
35.94
32.78
29.46
26.25
23.25
20.46
17.85
15.39
13.06
10.74
8.29
5.56
2.45
-1.01
-4.67
-8.33
-11.87
-15.27
-18.68
-22.38
-26.75
-32.06
-38.28
-44.98
-51.16
-55.52
-56.79
-54.21
-47.79
-38.28
-26.82
-14.58
-2.41
9.18
19.85
29.3
37.12
42.96
46.64
48.27
48.25
47.09
45.28
43.13
40.79
38.3
35.62
32.76
29.76
26.75
23.87
21.21
18.78
16.4
13.79
10.65
6.87
2.48
-2.23
-6.91
-11.28
-15.28
-19.1
-23.06
-27.58
-32.92
-39.2
-46.15
-53.22
-59.45
-63.71
-64.89
-62.32
-55.97
-46.44
-34.77
-22.07
-9.19
3.32
15.17
26.06
35.61
43.41
49.12
52.66
54.27
54.33
53.31
51.61
49.49
47.14
44.69
42.27
39.99
37.93
36.08
34.4
32.74
30.91
28.71
26.02
22.82
19.21
15.36
11.42
7.48
3.49
-0.65
-5
-9.57
-14.27
-18.95
-23.51
-27.92
-32.22
-36.54
-41.08
-46.07
-51.6
-57.5
-63.14
-67.45
-69.2
-67.38
-61.59
-52.24
-40.36
-27.2
-13.87
-1.07
10.88
21.86
31.7
40.08
46.65
51.12
53.44
53.89
52.93
51.16
49.11
47.12
45.29
43.56
41.78
39.84
37.81
35.8
33.93
32.2
30.49
28.58
26.3
23.57
20.46
17.12
13.76
10.51
7.45
4.55
1.69
-1.33
-4.67
-8.43
-12.55
-16.86
-21.11
-25.09
-28.67
-31.86
-34.79
-37.66
-40.69
-44.13
-48.23
-53.14
-58.74
-64.47
-69.33
-72.11
-71.77
-67.84
-60.56
-50.73
-39.33
-27.2
-14.85
-2.61
9.21
20.1
29.43
36.62
41.45
44.03
44.83
44.42
43.26
41.64
39.71
37.61
35.46
33.48
31.81
30.58
29.77
29.22
28.7
27.93
26.65
24.72
22.17
19.16
16
12.96
10.18
7.6
4.98
2.06
-1.31
-5.1
-9.1
-13.07
-16.89
-20.57
-24.24
-28.06
-32.13
-36.5
-41.18
-46.08
-51.02
-55.53
-58.9
-60.24
-58.78
-54.19
-46.66
-36.94
-26.01
-14.82
-3.99
6.15
15.48
23.82
30.88
36.29
39.74
41.16
40.83
39.28
37.11
34.8
32.61
30.59
28.71
26.92
25.25
23.75
22.41
21.15
19.8
18.16
16.12
13.67
10.95
8.15
5.45
2.91
0.45
-2.14
-5.1
-8.58
-12.55
-16.77
-20.93
-24.76
-28.19
-31.34
-34.46
-37.88
-41.85
-46.52
-51.86
-57.56
-62.95
-67.03
-68.73
-67.2
-62.21
-54.16
-44
-32.74
-21.17
-9.71
1.52
12.36
22.46
31.24
38.17
42.89
45.44
46.19
45.63
44.21
42.31
40.15
37.89
35.68
33.61
31.73
30.02
28.38
26.72
24.93
22.94
20.73
18.32
15.71
12.9
9.89
6.62
3.05
-0.87
-5.14
-9.71
-14.43
-19.1
-23.53
-27.59
-31.34
-34.98
-38.87
-43.36
-48.64
-54.48
-60.24
-64.85
-67.13
-66.16
-61.56
-53.62
-43.17
-31.28
-18.95
-6.86
4.54
15
24.28
32.08
38.14
42.29
44.55
45.13
44.37
42.66
40.4
37.9
35.43
33.14
31.08
29.22
27.45
25.69
23.91
22.13
20.35
18.5
16.37
13.73
10.36
6.23
1.51
-3.45
-8.27
-12.68
-16.65
-20.36
-24.07
-28.03
-32.44
-37.38
-42.83
-48.59
-54.23
-58.98
-61.88
-62.02
-58.86
-52.43
-43.38
-32.7
-21.4
-10.28
0.25
9.96
18.64
26.01
31.72
35.5
37.33
37.52
36.54
34.88
32.94
30.88
28.74
26.49
24.2
22
20.06
18.45
17.06
15.58
13.61
10.87
7.31
3.13
-1.26
-5.47
-9.26
-12.63
-15.82
-19.2
-23.18
-28.07
-33.98
-40.67
-47.44
-53.21
-56.69
-56.81
-53.07
-45.77
-35.86
-24.57
-13.01
-1.84
8.64
18.26
26.81
33.89
39.05
42.08
43.08
42.49
40.91
38.86
36.65
34.36
31.91
29.24
26.34
23.35
20.43
17.73
15.3
12.96
10.41
7.25
3.26
-1.53
-6.74
-11.85
-16.38
-20.16
-23.41
-26.62
-30.41
-35.2
-41.16
-48.06
-55.3
-61.97
-66.9
-68.95
-67.28
-61.71
-52.74
-41.42
-28.97
-16.38
-4.19
7.38
18.21
28.03
36.37
42.69
46.69
48.42
48.3
46.93
44.87
42.45
39.81
36.96
33.93
30.86
27.97
25.47
23.44
21.73
20.04
17.99
15.27
11.78
7.64
3.12
-1.47
-5.88
-10.05
-14.06
-18.12
-22.5
-27.44
-33.18
-39.8
-47.11
-54.42
-60.61
-64.31
-64.32
-60.11
-52.01
-41.09
-28.72
-16.1
-3.95
7.44
17.97
27.47
35.55
41.77
45.79
47.61
47.54
46.13
43.98
41.61
39.38
37.41
35.66
33.96
32.17
30.23
28.18
26.14
24.22
22.42
20.57
18.41
15.68
12.22
8.03
3.26
-1.84
-7.05
-12.2
-17.2
-22.04
-26.79
-31.59
-36.68
-42.28
-48.46
-54.78
-60.27
-63.53
-63.18
-58.41
-49.32
-36.97
-22.96
-8.8
4.54
16.76
28.04
38.62
48.46
57.14
64.03
68.65
70.86
71.02
69.86
68.28
67.08
66.78
67.56
69.27
71.41
73.17
73.44
71.03
65.21
56.21
45.54
35.65
29
27.03
29.44
34.35
39.12
41.57
40.67
36.63
30.33
22.58
13.65
3.3
-8.89
-23.13
-39.24
-56.73
-74.85
-92.61
-108.84
-122.19
-131.45
-135.73
-134.77
-129
-119.36
-107.03
-93.19
-78.87
-64.88
-51.88
-40.34
-30.46
-22.2
-15.32
-9.58
-4.86
-1.17
1.51
3.28
4.45
5.59
7.3
10.04
13.86
18.31
22.57
25.69
26.82
25.5
21.88
16.55
10.37
4.1
-1.83
-7.25
-12.23
-17.06
-22.1
-27.48
-33.14
-38.86
-44.44
-50.04
-55.64
-61.22
-66.83
-72.51
-77.93
-82.56
-85.77
-86.97
-86.28
-83.32
-77.77
-69.89
-60.45
-50.03
-38.8
-26.33
-11.94
3.8
20.37
36.69
51.14
62.67
72.29
82.83
97.97
120.38
149.23
182.39
216.66
248.44
269.77
274.12
258.74
226.86
193.72
166.55
148.14
138.68
134.07
130.73
125.69
116.44
101.33
79.52
50.33
15.96
-19.23
-50.52
-74.37
-89.81
-98.96
-105.83
-114.25
-126.6
-141.05
-153.06
-158.16
-154.04
-141.26
-122.5
-100.87
-78.76
-58.15
-39.92
-24.83
-13.81
-7.43
-5.25
-5.71
-6.47
-5.24
-1.09
5.75
13.66
20.08
22.34
18.52
8.18
-7.31
-24.96
-41
-51.86
-55.37
-51.57
-42.63
-31.91
-22.71
-17.06
-15.44
-17.22
-21.44
-27.48
-35.03
-43.74
-52.72
-60.57
-65.81
-67.57
-65.87
-61.45
-55.17
-47.42
-37.88
-25.83
-10.67
7.55
27.95
48.92
68.61
85.37
98.11
106.45
110.59
111.09
108.61
103.8
97.3
89.78
81.95
74.39
67.4
60.85
54.22
46.92
38.7
29.84
21.04
13.05
6.31
0.69
-4.27
-9.13
-14.17
-19.42
-24.8
-30.39
-36.46
-43.36
-51.28
-59.91
-68.4
-75.42
-79.53
-79.54
-74.92
-66.01
-53.97
-40.41
-26.92
-14.59
-3.89
5.27
13.08
19.6
24.57
27.56
28.24
26.63
23.05
18.02
12.1
5.78
-0.59
-6.74
-12.54
-17.98
-23.16
-28.31
-33.57
-38.92
-44.02
-48.26
-51.01
-51.84
-50.86
-48.72
-46.53
-45.56
-46.86
-50.81
-56.86
-63.64
-69.34
-72.33
-71.69
-67.53
-60.85
-53.03
-45.04
-37.04
-28.51
-18.81
-7.71
4.28
15.95
25.78
32.54
35.71
35.71
33.28
29.09
23.57
17.02
9.75
2.12
-5.4
-12.28
-17.74
-21.34
-22.82
-21.87
-17.97
-10.77
-0.84
10.06
19.21
24.06
22.51
13.83
-0.81
-17.84
-31.88
-37.73
-33.07
-21.04
-4.85
13.14
31.74
50.12
67.26
81.86
92.35
97.39
96.74
91.9
85.17
78.7
73.81
70.71
68.74
66.79
63.85
59.39
53.61
46.68
38.55
29.11
18.41
6.78
-5.24
-16.88
-27.18
-34.96
-39.55
-41.16
-40.98
-40.93
-43.03
-48.65
-57.75
-68.65
-78.28
-83.4
-81.75
-72.74
-57.32
-37.27
-14.45
9.75
34.28
58.04
79.46
96.66
107.95
112.54
110.8
104.04
93.9
81.85
68.97
55.99
43.5
32.12
22.47
15.07
10.17
7.68
7.02
7.21
6.99
5.13
0.82
-6.08
-15
-24.78
-34.16
-42.23
-48.75
-54.4
-60.33
-67.67
-76.78
-86.88
-96.15
-102.33
-103.64
-99.37
-90.03
-77.02
-61.92
-46.05
-30.19
-14.7
0.19
14.26
27.23
38.9
49.17
58.05
65.53
71.49
75.71
77.92
78.03
76.29
73.34
70.11
67.52
66.08
65.63
65.29
63.77
59.9
53.16
43.87
33.06
21.91
11.16
0.77
-10.06
-22.48
-37.51
-55.64
-76.78
-100.25
-124.98
-149.58
-172.36
-191.44
-205.16
-212.45
-213.22
-208.42
-199.46
-187.32
-171.88
-151.9
-125.92
-93.73
-57.42
-21.36
9.1
29.7
39.05
39.1
34.22
29.25
27.67
30.77
37.94
47.75
58.91
70.62
82.3
93.05
101.42
105.74
104.85
98.7
88.55
76.61
65.21
55.99
49.45
44.92
40.98
36.17
29.6
21.53
13.29
6.97
4.55
7.09
14.29
24.61
36.02
46.83
56.36
64.84
72.88
80.78
88.12
93.89
97.01
96.89
93.69
88.23
81.58
74.63
67.92
61.59
55.59
49.8
44.08
38.25
32.02
25.12
17.4
8.96
0.17
-8.4
-16.28
-23.24
-29.45
-35.36
-41.58
-48.68
-57.03
-66.62
-76.96
-86.98
-95.23
-100.18
-100.68
-96.38
-87.85
-76.36
-63.52
-50.78
-39.11
-28.91
-20.15
-12.53
-5.79
0.26
5.57
9.94
13.17
15.22
16.34
17.09
18.16
20.12
23.14
27.02
31.27
35.34
38.83
41.56
43.47
44.56
44.76
43.94
42.01
38.96
34.79
29.41
22.52
13.77
3
-9.41
-22.4
-34.37
-43.64
-48.97
-49.8
-46.24
-38.9
-28.57
-16.16
-2.64
11.01
23.83
35.07
44.37
51.65
57.04
60.67
62.58
62.79
61.48
59.03
56.04
53.08
50.56
48.58
47.06
45.85
44.84
43.98
43.24
42.4
41.11
38.93
35.52
30.85
25.23
19.19
13.18
7.3
1.26
-5.62
-14.01
-24.3
-36.22
-48.73
-60.14
-68.54
-72.34
-70.78
-64.11
-53.53
-40.69
-27.25
-14.48
-3.2
6.13
13.26
18.02
20.47
20.91
19.97
18.39
16.78
15.4
14.12
12.59
10.47
7.64
4.21
0.49
-3.19
-6.62
-9.81
-12.94
-16.26
-19.91
-23.86
-27.86
-31.53
-34.52
-36.62
-37.95
-38.9
-40.09
-42.18
-45.67
-50.77
-57.33
-64.65
-71.62
-76.77
-78.62
-76.01
-68.57
-56.8
-42
-25.91
-10.25
3.68
15.12
23.79
29.71
33.07
34.16
33.39
31.29
28.46
25.38
22.31
19.33
16.36
13.38
10.53
8.06
6.22
5.12
4.54
4.07
3.2
1.58
-0.9
-4.05
-7.61
-11.32
-15.05
-18.79
-22.6
-26.58
-30.86
-35.63
-41.01
-46.91
-52.87
-57.96
-61.01
-60.88
-57.01
-49.53
-39.29
-27.48
-15.19
-3.16
8.27
18.83
27.98
34.82
38.31
37.79
33.4
26.27
18.14
10.79
5.37
2.2
0.84
0.53
0.62
0.67
0.43
-0.29
-1.72
-4.08
-7.37
-11.37
-15.65
-19.71
-23.18
-25.93
-28.14
-30.25
-32.86
-36.42
-40.89
-45.56
-49.01
-49.43
-45.29
-35.86
-21.6
-4.07
14.59
32.2
47.16
58.65
66.48
70.9
72.19
70.66
66.66
60.74
53.63
46.28
39.53
34.06
30.17
27.82
26.78
26.68
27.12
27.68
27.92
27.52
26.33
24.42
22
19.27
16.31
12.98
9.05
4.21
-1.77
-9.03
-17.53
-26.94
-36.51
-45.07
-51.06
-52.99
-49.85
-41.53
-28.9
-13.51
2.85
18.65
32.88
45.02
54.84
62.23
67.08
69.43
69.46
67.61
64.44
60.46
56.05
51.37
46.51
41.61
37.01
33.23
30.73
29.68
29.78
30.25
30.09
28.34
24.35
17.9
9.2
-1.21
-12.6
-24.21
-35.46
-46.27
-57.07
-68.66
-81.64
-95.94
-110.33
-122.66
-130.44
-131.73
-125.85
-113.56
-96.78
-77.88
-59.02
-41.74
-26.75
-14.16
-3.72
4.83
11.64
16.76
20.28
22.49
23.96
25.35
27.23
29.78
32.76
35.69
38.12
39.87
41.07
42.01
42.84
43.42
43.25
41.65
37.98
31.95
23.79
14.28
4.53
-4.36
-11.78
-17.76
-22.94
-28.26
-34.45
-41.74
-49.74
