22.8
32.16
39.96
46.27
51.33
55.58
59.65
64.2
69.7
76.23
83.46
90.73
97.32
102.63
106.41
108.77
110.06
110.8
111.4
112.16
113.14
114.26
115.26
115.84
115.65
114.31
111.45
106.67
99.53
89.64
76.89
61.64
44.84
27.89
12.31
-0.73
-10.79
-18.14
-23.62
-28.21
-32.7
-37.51
-42.68
-48.01
-53.17
-57.8
-61.55
-64.19
-65.67
-66.12
-65.86
-65.31
-64.82
-64.47
-63.99
-62.8
-60.22
-55.74
-49.36
-41.64
-33.57
-26.24
-20.44
-16.41
-13.87
-12.25
-11.04
-9.96
-8.97
-8.12
-7.31
-6.26
-4.61
-1.99
1.73
6.44
11.85
17.51
22.95
27.72
31.41
33.71
34.53
33.92
32.14
29.5
26.32
22.78
19.05
15.2
11.31
7.44
3.61
-0.28
-4.38
-8.95
-14.2
-20.27
-27.06
-34.13
-40.77
-46.13
-49.42
-50.17
-48.39
-44.51
-39.26
-33.41
-27.64
-22.52
-18.53
-15.99
-14.83
-14.38
-13.22
-9.49
-1.6
11.05
27.54
45.57
62.1
74.37
80.7
80.77
75.45
66.14
54.25
40.81
26.56
12.09
-1.88
-14.51
-24.93
-32.41
-36.74
-38.27
-37.88
-36.66
-35.56
-35.05
-34.96
-34.72
-33.64
-31.3
-27.72
-23.24
-18.27
-12.94
-7.07
-0.39
7.05
14.54
20.64
23.76
22.73
17.42
8.91
-0.9
-9.95
-16.7
-20.44
-21.27
-19.84
-17.04
-13.89
-11.42
-10.52
-11.59
-14.34
-17.62
-19.89
-19.89
-17.37
-13.36
-9.81
-8.66
-10.89
-15.95
-21.99
-26.66
-28.14
-25.78
-20.13
-12.32
-3.47
5.8
15.2
24.43
32.75
39.09
42.52
42.88
41.03
38.59
37.18
37.58
39.44
41.5
42.37
41.26
38.3
34.42
30.74
28.1
26.78
26.57
26.97
27.5
27.8
27.68
27.15
26.36
25.54
24.87
24.4
24.03
23.55
22.74
21.39
19.32
16.37
12.37
7.29
1.28
-5.22
-11.58
-17.07
-21.16
-23.59
-24.46
-24.01
-22.54
-20.23
-17.19
-13.57
-9.76
-6.43
-4.48
-4.69
-7.42
-12.32
-18.37
-24.2
-28.59
-30.86
-30.99
-29.48
-27.09
-24.54
-22.37
-20.89
-20.12
-19.75
-19.11
-17.28
-13.3
-6.51
3.14
15
27.9
40.47
51.4
59.8
65.26
67.8
67.82
65.87
62.48
58.05
52.81
46.86
40.35
33.55
26.83
20.62
15.26
10.85
7.3
4.42
1.97
-0.26
-2.47
-4.85
-7.48
-10.15
-12.42
-13.63
-13.37
-11.78
-9.75
-8.65
-9.76
-13.57
-19.52
-26.06
-31.27
-33.58
-32.13
-27.04
-19.18
-10.03
-1.41
4.76
6.84
4.04
-3.36
-13.89
-25.4
-35.75
-43.44
-47.87
-49.31
-48.59
-46.97
-45.93
-46.95
-51.09
-58.5
-68.11
-77.86
-85.43
-89.17
-88.69
-84.89
-79.35
-73.52
-68.17
-63.31
-58.47
-53.17
-47.17
-40.48
-33.09
-24.81
-15.12
-3.4
10.83
27.57
46.17
65.37
83.55
99.02
110.32
116.39
116.74
111.54
101.71
88.92
75.33
63.19
54.21
49.02
47.02
46.68
46.23
44.44
41.08
36.84
32.73
29.48
27
24.51
21.15
16.5
11.04
5.85
2.13
0.45
0.36
0.58
-0.56
-4.4
-11.48
-21.51
-33.56
-46.49
-59.17
-70.64
-79.98
-86.36
-89.13
-88.02
-83.42
-76.26
-67.77
-58.98
-50.29
-41.45
-31.88
-21.08
-9.11
3.4
15.34
25.45
32.74
36.74
37.79
37.04
36.24
37.12
40.69
46.77
53.86
59.76
62.38
60.61
54.66
45.85
36.02
26.82
19.31
13.76
9.82
6.83
4
0.8
-2.97
-7.21
-11.63
-15.86
-19.64
-22.7
-24.77
-25.52
-24.72
-22.49
-19.39
-16.44
-14.73
-15.04
-17.37
-20.96
-24.54
-26.76
-26.78
-24.51
-20.74
-16.78
-14.07
-13.71
-16.26
-21.72
-29.63
-39.12
-48.97
-57.55
-63.16
-64.34
-60.45
-52
-40.53
-28.12
-16.69
-7.42
-0.64
3.95
6.88
8.64
9.57
9.98
10.18
10.4
10.76
11.12
11.2
10.8
10.01
9.3
9.38
10.94
14.32
19.34
25.32
31.33
36.41
39.87
41.41
41.15
39.59
37.48
35.62
34.54
34.32
34.57
34.69
34.31
33.59
33.19
33.88
36.1
39.66
43.74
47.34
49.65
50.33
49.45
47.28
44.01
39.65
33.99
26.75
17.64
6.5
-6.59
-21.31
-36.98
-52.7
-67.47
-80.45
-91.07
-99.11
-104.57
-107.47
-107.74
-105.12
-99.33
-90.28
-78.34
-64.41
-49.82
-36.03
-24.23
-14.97
-8.09
-2.87
1.65
6.29
11.41
16.88
22.15
26.52
29.46
30.74
30.56
29.4
27.89
26.59
25.9
26.01
26.91
28.42
30.24
32.02
33.37
33.89
33.25
31.3
28.11
24.02
19.56
15.26
11.55
8.61
6.35
4.43
2.44
0.04
-2.98
-6.52
-10.26
-13.71
-16.42
-18.19
-19.16
-19.81
-20.72
-22.33
-24.72
-27.48
-29.98
-31.63
-32.24
-32.25
-32.64
-34.53
-38.78
-45.44
-53.57
-61.35
-66.65
-67.65
-63.59
-54.96
-43.39
-30.97
-19.54
-10.12
-2.72
3.38
9.09
15.01
21.21
27.24
32.48
36.46
39.04
40.48
41.22
41.68
42.08
42.39
42.5
42.42
42.37
42.75
43.88
45.74
47.81
49.32
49.57
48.23
45.54
42.05
38.4
35
31.92
29.03
26.12
23.01
19.5
15.4
10.59
5.14
-0.58
-5.98
-10.5
-13.91
-16.49
-18.89
-21.74
-25.37
-29.63
-34.08
-38.36
-42.5
-46.94
-52.24
-58.69
-65.9
-72.75
-77.62
-78.92
-75.57
-67.33
-54.95
-39.93
-24.14
-9.34
3.25
13.07
20.26
25.33
28.84
31.13
32.24
32.09
30.69
28.36
25.75
23.64
22.66
23.07
24.74
27.25
30.2
33.29
36.41
39.56
42.65
45.45
47.54
48.48
47.88
45.54
41.46
35.92
29.4
22.44
15.51
8.94
2.82
-2.92
-8.43
-13.81
-19.03
-23.98
-28.5
-32.53
-36.15
-39.59
-43.08
-46.82
-50.8
-54.82
-58.55
-61.57
-63.6
-64.57
-64.65
-64.29
-64.07
-64.56
-65.99
-68.01
-69.55
-69.07
-65.06
-56.65
-44.12
-28.92
-13.14
1.15
12.63
20.96
26.54
30.18
32.79
35.33
38.9
44.67
53.39
65.02
78.43
91.74
103.14
111.65
117.43
121.49
124.8
127.65
129.36
128.75
124.78
117.09
106.16
92.97
78.76
64.67
51.73
40.72
32.11
25.82
21.19
17.06
12.09
5.3
-3.62
-14.2
-25.36
-35.87
-44.77
-51.78
-57.25
-61.96
-66.75
-72.08
-77.97
-83.99
-89.43
-93.5
-95.41
-94.46
-90.12
-82.2
-70.98
-57.23
-42.15
-27.1
-13.31
-1.68
7.36
13.78
17.92
20.32
21.54
22.07
22.22
22.2
22.13
22.19
22.59
23.5
24.92
26.65
28.29
29.46
29.97
29.93
29.78
30
30.88
32.3
33.71
34.34
33.55
31.25
27.93
24.57
22.14
21.15
21.39
22.03
22
20.49
17.35
13.11
8.7
5.1
2.85
1.91
1.63
1.02
-0.92
-4.89
-11.13
-19.36
-28.78
-38.21
-46.23
-51.43
-52.74
-49.67
-42.54
-32.5
-21.16
-10.26
-1.15
5.57
10.08
13.11
15.55
17.99
20.52
22.87
24.61
25.54
25.78
25.63
25.39
25.1
24.54
23.48
21.89
20.1
18.69
18.12
18.49
19.38
20.1
19.95
18.6
16.19
13.22
10.32
7.95
6.26
5.11
4.18
3.2
2.08
0.93
0.04
-0.29
0.12
1.23
2.8
4.44
5.84
6.87
7.54
8.03
8.53
9.1
9.62
9.78
9.2
7.48
4.36
-0.17
-5.86
-12.23
-18.72
-24.86
-30.48
-35.89
-41.79
-48.99
-58.01
-68.64
-79.62
-88.98
-94.51
-94.64
-88.98
-78.6
-65.49
-51.81
-39.14
-28
-18.11
-8.77
0.5
9.69
18.34
25.86
31.88
36.43
39.92
42.87
45.66
48.36
50.75
52.47
53.28
53.19
52.45
51.4
50.31
49.18
47.84
45.97
43.3
39.7
35.21
30.04
24.57
19.26
14.61
11.02
8.65
7.32
6.6
5.94
4.87
3.15
0.81
-1.91
-4.66
-7.11
-9.02
-10.3
-11.12
-11.81
-12.73
-14.16
-16.11
-18.4
-20.81
-23.27
-26.06
-29.69
-34.66
-40.94
-47.71
-53.33
-55.86
-53.7
-46.27
-34.29
-19.6
-4.43
9.23
20.24
28.32
33.83
37.28
39.01
39.15
37.75
35.06
31.62
28.22
25.6
24.19
23.94
24.36
24.8
24.69
23.82
22.38
20.81
19.57
18.95
18.98
19.43
19.94
20.09
19.56
18.09
15.6
12.21
8.24
4.15
0.43
-2.57
-4.73
-6.16
-7.12
-7.88
-8.6
-9.29
-9.87
-10.28
-10.51
-10.67
-10.99
-11.77
-13.26
-15.66
-19
-23.19
-28.04
-33.34
-38.95
-44.82
-51.03
-57.7
-64.89
-72.44
-79.81
-85.95
-89.46
-88.9
-83.23
-72.22
-56.55
-37.66
-17.35
2.72
21.33
37.76
51.69
62.96
71.44
76.96
79.38
78.71
75.19
69.33
61.88
53.67
45.43
37.66
30.64
24.49
19.42
15.74
13.77
13.54
14.6
15.9
16.1
14.05
9.24
2.04
-6.52
-15.17
-22.92
-29.34
-34.46
-38.51
-41.54
-43.45
-44
-43.14
-41.03
-38.05
-34.54
-30.72
-26.69
-22.59
-18.77
-15.74
-14.04
-13.89
-15.09
-17.14
-19.44
-21.74
-24.2
-27.28
-31.42
-36.75
-42.93
-49.24
-54.74
-58.5
-59.79
-58.08
-53.1
-44.91
-33.93
-20.99
-7.29
5.83
17.11
25.66
31.09
33.57
33.64
31.97
29.18
25.73
21.88
17.82
13.7
9.67
5.78
2.04
-1.59
-5.14
-8.55
-11.7
-14.47
-16.83
-18.91
-20.97
-23.31
-26.12
-29.48
-33.24
-36.83
-39.18
-38.88
-34.53
-25.42
-11.96
4.32
21.16
36.47
48.82
57.67
63.06
65.22
64.31
60.51
54.34
46.78
39.13
32.52
27.47
23.79
20.79
17.73
14.2
10.25
6.31
2.87
0.18
-1.95
-4.24
-7.78
-13.69
-22.57
-34.01
-46.51
-57.84
-65.69
-68.5
-65.95
-58.93
-49.11
-38.28
-27.84
-18.62
-10.98
-5.1
-1.08
1.06
1.63
1.43
1.72
3.95
9.26
17.99
29.44
41.94
53.31
61.56
65.47
64.98
61.06
55.31
49.38
44.43
40.9
38.5
36.49
34.13
30.95
26.99
22.65
18.48
14.91
12.03
9.71
7.74
6.04
4.73
3.96
3.69
3.55
2.83
0.77
-3.1
-8.71
-15.44
-22.32
-28.35
-32.78
-35.31
-36.04
-35.43
-34.15
-32.99
-32.87
-34.58
-38.56
-44.5
-51.01
-55.74
-55.96
-49.43
-35.35
-14.83
9.23
32.98
52.62
65.36
69.95
66.58
56.63
42.11
25.31
8.47
-6.42
-17.87
-24.98
-27.57
-26.13
-21.62
-15.3
-8.42
-2.03
3.19
6.92
9.17
10.16
10.13
9.26
7.69
5.54
2.98
0.25
-2.41
-4.81
-6.91
-8.86
-10.84
-12.97
-15.21
-17.36
-19.15
-20.44
-21.36
-22.21
-23.42
-25.26
-27.73
-30.58
-33.37
-35.65
-37.15
-37.76
-37.62
-37.02
-36.33
-35.94
-36.02
-36.32
-36.2
-34.69
-30.9
-24.36
-15.32
-4.75
5.96
15.4
22.58
27.09
29.16
29.47
28.97
28.52
28.74
29.83
31.58
33.61
35.58
37.45
39.51
42.26
46.13
51.32
57.68
64.78
72.09
79.12
85.36
90.21
92.78
91.96
86.71
76.7
62.68
46.61
31.12
18.57
10.1
5.2
2.07
-1.43
-6.75
-14.05
-22.29
-29.88
-35.5
-38.49
-38.9
-37.16
-33.79
-29.27
-24.19
-19.35
-15.67
-13.99
-14.79
-17.98
-23.06
-29.38
-36.5
-44.33
-53.13
-63.23
-74.58
-86.5
-97.51
-105.68
-109.07
-106.41
-97.55
-83.59
-66.51
-48.55
-31.52
-16.4
-3.32
8
17.84
26.13
32.63
37.21
40.21
42.42
44.84
48.17
52.51
57.31
61.74
65.27
67.96
70.4
73.22
76.61
80.04
82.47
82.92
81
77.15
72.34
67.68
63.9
61.27
59.6
58.56
58
57.9
58.44
59.68
61.4
63.03
63.59
61.99
57.31
49.05
37.33
22.8
6.48
-10.51
-27.07
-42.23
-55.19
-65.49
-73.05
-78.33
-82.13
-85.32
-88.46
-91.6
-94.41
-96.4
-97.35
-97.34
-96.73
-95.78
-94.47
-92.43
-89.15
-84.25
-77.69
-69.86
-61.33
-52.62
-44.07
-35.77
-27.76
-20.21
-13.44
-7.86
-3.68
-0.83
1.11
2.68
4.37
6.46
9
11.97
15.44
19.64
24.91
31.58
39.82
49.52
60.2
71.03
80.88
88.63
93.51
95.33
94.52
91.77
87.64
82.26
75.3
66.38
55.47
43.17
30.48
18.35
7.12
-3.54
-14.17
-24.9
-34.98
-42.97
-47.45
-47.68
-44.06
-37.93
-31.02
-24.94
-20.89
-19.68
-21.73
-26.86
-34.07
-41.51
-46.92
-48.46
-45.5
-38.77
-29.99
-20.87
-12.46
-4.95
1.9
8.13
13.27
16.46
17.04
14.98
11.04
6.43
2.3
-0.79
-2.98
-4.77
-6.58
-8.27
-9.12
-8.16
-4.77
0.87
7.57
13.63
17.37
17.93
15.44
10.92
5.65
0.61
-3.87
-7.99
-12.14
-16.46
-20.64
-24.2
-26.7
-28.18
-29.12
-30.26
-32.2
-35.18
-39.03
-43.41
-48.03
-52.67
-57.05
-60.67
-62.65
-62.07
-58.29
-51.41
-42.36
-32.62
-23.7
-16.63
-11.7
-8.53
-6.51
-5.1
-4.06
-3.5
-3.66
-4.74
-6.81
-9.69
-13.01
-16.15
-18.45
-19.22
-17.99
-14.59
-9.19
-2.23
5.68
13.88
21.68
28.49
33.83
37.59
40.01
41.64
43.12
44.81
46.61
47.93
47.98
46.19
42.45
37.22
31.29
25.4
19.9
14.6
8.97
2.54
-4.58
-11.51
-16.79
-18.99
-17.42
-12.53
-5.82
0.81
5.82
8.62
9.54
9.39
8.88
8.32
7.55
6.31
4.52
2.39
0.31
-1.41
-2.66
-3.56
-4.31
-5.16
-6.28
-7.75
-9.5
-11.33
-12.88
-13.76
-13.7
-12.66
-10.86
-8.63
-6.2
-3.63
-0.81
2.29
5.38
7.66
8
5.34
-0.7
-9.42
-18.98
-26.88
-30.83
-29.46
-22.86
-12.5
-0.71
10.08
17.98
22.11
22.67
20.72
17.79
15.37
14.46
15.26
17.09
18.63
18.39
15.21
8.69
-0.6
-11.16
-20.94
-27.77
-29.93
-26.6
-18.05
-5.59
8.82
23.07
35.42
44.79
50.89
54.02
54.83
53.98
51.9
48.71
44.24
38.25
30.64
21.64
11.8
1.89
-7.28
-15.04
-20.99
-25.04
-27.52
-29.03
-30.33
-32.1
-34.55
-37.18
-38.85
-38.02
-33.47
-24.83
-12.88
0.6
13.45
23.89
31.1
35.46
38.18
40.76
44.29
49.11
54.83
60.54
65.15
67.67
67.47
64.36
58.65
51.09
42.68
34.38
26.9
20.48
14.95
9.86
4.79
-0.58
-6.33
-12.46
-19.1
-26.56
-35.34
-45.95
-58.52
-72.51
-86.5
-98.42
-106.1
-108.03
-103.95
-95.03
-83.42
-71.5
-61.03
-52.75
-46.43
-41.19
-35.94
-29.73
-21.97
-12.49
-1.6
10.02
21.48
32.02
41.26
49.23
56.2
62.35
67.57
71.5
73.78
74.45
74.04
73.38
73.29
74.07
75.47
76.71
76.89
75.35
71.91
66.87
60.84
54.43
47.98
41.54
34.91
27.94
20.62
13.12
5.66
-1.69
-9.04
-16.58
-24.38
-32.16
-39.36
-45.24
-49.26
-51.27
-51.58
-50.82
-49.63
-48.46
-47.52
-46.8
-46.24
-45.9
-46.07
-47.23
-50.04
-55.13
-62.95
-73.39
-85.65
-98.21
-109.02
-116.07
-117.91
-114.06
-105.22
-92.95
-79.23
-65.86
-54.03
-44.11
-35.78
-28.26
-20.75
-12.78
-4.43
3.71
10.86
16.52
20.72
23.96
26.9
29.87
32.78
35.26
37.15
38.72
40.68
43.72
47.98
52.96
57.75
61.67
64.67
67.33
70.43
74.38
78.92
83.34
86.94
89.42
90.96
91.91
92.41
92.12
90.34
86.29
79.52
70.14
58.87
46.81
35.13
24.89
16.72
10.88
7.2
5.22
4.36
4.08
3.94
3.61
2.85
1.43
-0.77
-3.77
-7.47
-11.58
-15.78
-19.77
-23.42
-26.67
-29.55
-31.93
-33.48
-33.75
-32.35
-29.1
-24.25
-18.34
-12.11
-6.25
-1.27
2.54
5.12
6.6
7.2
7.24
7.04
6.85
6.84
7.05
7.44
7.96
8.54
9.13
9.65
10.04
10.2
10.03
9.42
8.28
6.55
4.33
1.82
-0.64
-2.67
-3.97
-4.43
-4.17
-3.54
-2.98
-2.92
-3.63
-5.11
-7.05
-8.96
-10.27
-10.51
-9.5
-7.52
-5.42
-4.56
-6.51
-12.47
-22.66
-35.96
-50.15
-62.61
-71.37
-75.83
-76.95
-76.57
-76.39
-77.03
-77.72
-76.67
-72.01
-62.73
-49.19
-33.08
-16.79
-2.65
7.83
14.2
16.88
16.73
14.63
11.21
6.92
2.25
-2.16
-5.59
-7.46
-7.61
-6.36
-4.42
-2.48
-0.97
0.13
1.18
2.63
4.73
7.51
10.76
14.26
17.86
21.58
25.54
29.92
34.82
40.19
45.71
50.75
54.38
55.67
54.07
49.7
43.44
36.72
30.92
26.86
24.52
23.16
21.82
19.77
16.77
13.02
8.87
4.61
0.34
-3.97
-8.37
-12.85
-17.41
-22.01
-26.59
-31.12
-35.55
-39.96
-44.57
-49.69
-55.39
-61.21
-66.02
-68.19
-66.19
-59.23
-47.7
-33.05
-17.3
-2.29
10.79
21.47
29.79
35.93
39.98
41.99
42.12
40.77
38.58
36.24
34.33
33.15
32.74
32.93
33.48
34.13
34.73
35.22
35.64
36
36.3
36.43
36.24
35.58
34.37
32.66
30.57
28.25
25.83
23.35
20.83
18.22
15.49
12.61
9.57
6.35
2.88
-0.99
-5.53
-10.99
-17.46
-24.71
-32.17
-39.04
-44.54
-48.26
-50.28
-51.09
-51.4
-51.77
-52.41
-53.18
-53.71
-53.65
-52.89
-51.68
-50.54
-50.18
-51.3
-54.38
-59.4
-65.7
-71.9
-76.23
-76.96
-73.01
-64.31
-51.81
-37.12
-22
-7.85
4.47
14.58
22.48
28.31
32.32
34.88
36.45
37.53
38.53
39.63
40.82
41.91
42.69
43.02
42.94
42.59
42.2
41.97
42.02
42.39
43.02
43.83
44.77
45.81
46.96
48.2
49.46
50.63
51.53
52.02
52.04
51.75
51.47
51.6
52.3
53.3
53.86
53
49.88
44.29
36.77
28.43
20.52
13.85
8.52
3.96
-0.63
-5.84
-11.85
-18.45
-25.35
-32.41
-39.61
-46.94
-54.17
-60.87
-66.69
-71.6
-76.04
-80.6
-85.51
-90.1
-92.81
-91.68
-85.3
-73.57
-57.89
-40.73
-24.69
-11.61
-2.15
4.14
8.31
11.35
13.84
15.89
17.3
17.86
17.55
16.59
15.31
14.06
13.05
12.39
12.1
12.27
13.04
14.5
16.56
18.87
20.91
22.19
22.42
21.7
20.33
18.68
17.03
15.47
13.96
12.41
10.74
8.93
6.99
4.97
3.01
1.26
-0.22
-1.54
-2.99
-5.03
-8.06
-12.29
-17.6
-23.58
-29.56
-34.86
-38.87
-41.33
-42.35
-42.5
-42.66
-43.84
-46.85
-52.04
-59.08
-66.91
-73.9
-78.25
-78.4
-73.49
-63.53
-49.35
-32.24
-13.46
6.01
25.42
44.04
60.87
74.61
84.06
88.57
88.5
85.09
80.07
74.92
70.31
66.09
61.68
56.6
50.85
44.85
39.13
33.98
29.26
24.65
20.01
15.46
11.31
7.7
4.39
0.81
-3.48
-8.3
-12.7
-15.31
-15.1
-11.99
-7.02
-1.88
1.83
3.29
2.6
0.38
-2.66
-6.2
-10.25
-14.9
-20.04
-25.32
-30.24
-34.41
-37.74
-40.36
-42.6
-44.9
-47.65
-51.29
-56.1
-62.16
-69.18
-76.39
-82.64
-86.64
-87.26
-83.88
-76.48
-65.64
-52.44
-38.13
-23.97
-11
0.03
8.79
15.32
19.95
23.18
25.58
27.68
30
33.04
37.2
42.65
49.21
56.34
63.25
69.2
73.79
77.09
79.6
82.02
84.97
88.72
93.06
97.22
100.09
100.52
97.81
92.04
84.23
76.05
69.08
64.15
60.8
57.44
51.98
42.71
29.01
11.55
-7.96
-27.38
-44.78
-58.87
-69.12
-75.7
-79.16
-80.28
-79.84
-78.52
-76.82
-75.04
-73.32
-71.7
-70.27
-69.16
-68.53
-68.5
-69.17
-70.56
-72.61
-75.09
-77.42
-78.58
-77.24
-72.09
-62.47
-48.67
-32.13
-15.09
0.13
11.72
18.89
21.79
21.14
17.74
12.12
4.57
-4.52
-14.5
-24.28
-32.62
-38.44
-41.28
-41.29
-39.11
-35.37
-30.41
-24.23
-16.7
-7.94
1.47
10.59
18.47
24.49
28.5
30.78
31.84
32.1
31.8
30.93
29.36
26.94
23.64
19.6
15.17
10.9
7.36
4.99
3.9
3.9
4.61
5.71
7.13
9.05
11.73
15.09
18.55
21.12
21.62
19.25
13.86
6.08
-2.96
-12.01
-20.12
-26.96
-32.72
-37.84
-42.64
-47.01
-50.31
-51.53
-49.62
-43.9
-34.31
-21.49
-6.67
8.63
22.89
34.94
44.11
50.35
54.04
55.78
56.19
55.69
54.52
52.81
50.71
48.44
46.26
44.39
43.01
42.15
41.71
41.37
40.67
39.17
36.58
32.99
28.8
24.54
20.68
17.4
14.7
12.45
10.54
8.89
7.3
5.48
3.04
-0.21
-4.15
-8.21
-11.54
-13.27
-12.77
-9.87
-4.91
1.3
7.67
13.09
16.83
18.8
19.44
19.41
18.92
17.39
13.5
5.78
-6.42
-22.27
-39.33
-54.24
-63.8
-66.12
-61.13
-50.4
-36.42
-21.68
-8.02
3.45
12.31
18.43
21.9
22.97
22.23
20.49
18.65
17.33
16.71
16.59
16.64
16.65
16.74
17.18
18.22
19.85
21.74
23.38
24.22
23.83
21.98
18.64
14.05
8.71
3.32
-1.37
-4.87
-7.09
-8.47
-9.69
-11.34
-13.63
-16.26
-18.67
-20.37
-21.4
-22.36
-24.32
-28.31
-34.91
-43.88
-54.14
-64.08
-72.03
-76.92
-78.61
-78.05
-76.97
-77.31
-80.43
-86.44
-94.02
-100.66
-103.48
-100.15
-89.8
-73.33
-53.05
-31.9
-12.51
3.51
15.72
24.61
30.96
35.37
38.08
39.04
38.2
35.79
32.35
28.65
25.44
23.27
22.35
22.57
23.63
25.17
26.89
28.56
30.04
31.31
32.33
33.07
33.45
33.24
32.21
30.19
27.31
24.03
21.08
19.1
18.34
18.4
18.4
17.46
15.13
11.68
7.91
4.73
2.67
1.56
0.75
-0.51
-2.73
-5.93
-9.76
-13.77
-17.63
-21.22
-24.65
-28.09
-31.81
-36.18
-41.69
-48.85
-57.89
-68.39
-79.06
-87.81
-92.3
-90.62
-82.03
-67.18
-47.9
-26.56
-5.35
14.18
31.15
45.08
55.59
62.32
65.1
64.27
60.88
56.5
52.78
50.77
50.69
51.8
52.96
53.16
52.05
50.04
47.95
46.56
46.09
46.11
45.81
44.42
41.65
37.76
33.41
29.26
25.71
22.78
20.25
17.83
15.4
12.94
10.55
8.29
6.16
4.15
2.23
0.35
-1.52
-3.38
-5.14
-6.59
-7.43
-7.52
-7.04
-6.57
-7.03
-9.29
-13.68
-19.81
-26.54
-32.45
-36.44
-38.19
-38.34
-38.23
-39.33
-42.67
-48.32
-55.21
-61.36
-64.36
-62.18
-53.84
-39.81
-21.91
-2.74
15.14
30.02
41.27
49.16
54.27
57.04
57.58
55.9
52.33
47.63
42.85
38.93
36.27
34.64
33.45
32.17
30.67
29.22
28.2
27.75
27.59
27.16
25.9
23.62
20.49
16.91
13.29
9.81
6.5
3.31
0.33
-2.24
-4.11
-5.07
-5.1
-4.43
-3.39
-2.36
-1.61
-1.3
-1.45
-2.04
-3.04
-4.42
-6.15
-8.16
-10.28
-12.3
-14.03
-15.41
-16.58
-17.86
-19.54
-21.83
-24.57
-27.39
-29.83
-31.6
-32.74
-33.51
-34.14
-34.59
-34.37
-32.69
-28.8
-22.26
-13.16
-2.04
10.29
22.97
35.17
46.02
54.7
60.43
62.73
61.62
57.68
51.97
45.65
39.67
34.55
30.34
26.75
23.44
20.2
17.04
14.16
11.81
10.19
9.31
9.03
9.02
8.91
8.4
7.34
5.75
3.7
1.32
-1.35
-4.3
-7.51
-10.85
-14.11
-17.04
-19.41
-21.13
-22.27
-23
-23.58
-24.28
-25.39
-27.18
-29.8
-33.19
-37.02
-40.65
-43.35
-44.46
-43.74
-41.5
-38.56
-36.07
-35.1
-36.24
-39.26
-43.22
-46.58
-47.72
-45.41
-39.23
-29.62
-17.84
-5.56
5.67
14.81
21.57
26.35
29.96
33.09
36.08
38.7
40.4
40.71
39.57
37.47
35.26
33.71
33.18
33.49
34.1
34.41
34.1
33.23
32.11
31.03
29.98
28.62
26.38
22.78
17.74
11.71
5.55
0.24
-3.49
-5.42
-5.74
-4.9
-3.33
-1.32
1.01
3.52
5.97
8.01
9.34
9.78
9.38
8.34
6.95
5.37
3.63
1.56
-1.12
-4.63
-9.07
-14.34
-20.17
-26.28
-32.63
-39.4
-46.91
-55.14
-63.47
-70.55
-74.61
-74.1
-68.36
-57.98
-44.64
-30.54
-17.65
-7.17
0.63
6.15
10.04
12.8
14.65
15.6
15.69
15.14
14.4
14.02
14.46
15.96
18.42
21.55
24.98
28.43
31.77
34.97
37.98
40.65
42.68
43.77
43.74
42.67
40.9
38.86
36.94
35.33
34.04
33.05
32.36
32.1
32.29
32.81
33.29
33.26
32.34
30.35
27.47
24.04
20.41
16.74
13.01
8.99
4.46
-0.77
-6.75
-13.35
-20.3
-27.18
-33.55
-39.01
-43.44
-47.04
-50.49
-54.73
-60.67
-68.73
-78.31
-87.76
-94.72
-96.9
-92.96
-83.07
-68.95
-53.18
-38.37
-26.28
-17.56
-11.74
-7.81
-4.6
-1.2
2.84
7.5
12.45
17.19
21.34
24.85
28.09
31.72
36.48
42.86
50.84
59.9
69.07
77.23
83.29
86.58
86.88
84.6
80.57
75.85
71.27
67.19
63.41
59.35
54.47
48.62
42.13
35.65
29.67
24.26
18.96
13.13
6.3
-1.46
-9.53
-17.06
-23.43
-28.51
-32.69
-36.63
-40.86
-45.49
-50.12
-53.99
-56.37
-56.9
-55.8
-53.95
-52.56
-52.73
-54.95
-58.74
-62.64
-64.67
-62.96
-56.52
-45.55
-31.4
-15.96
-0.93
12.7
24.82
35.78
45.84
54.65
61.25
64.36
63.08
57.42
48.43
37.97
28.08
20.25
15.05
12.12
10.59
9.58
8.53
7.25
5.62
3.33
-0.2
-5.5
-12.64
-20.83
-28.58
-34.13
-36.23
-34.66
-30.31
-24.8
-19.72
-16.13
-14.26
-13.7
-13.77
-13.98
-14.11
-14.3
-14.85
-16.07
-18.15
-21.11
-24.67
-28.34
-31.42
-33.28
-33.65
-32.79
-31.59
-31.34
-33.27
-38.11
-45.57
-54.28
-61.95
-66.08
-64.69
-57.06
-43.95
-27.36
-9.83
6.35
19.73
29.74
36.49
40.36
41.77
41.22
39.32
36.96
35.14
34.73
36.15
39.18
43.04
46.57
48.73
48.86
46.95
43.65
40
37.03
35.4
35.11
35.56
35.86
35.24
33.44
30.83
28.29
26.77
26.88
28.58
31.08
33.23
33.95
32.71
29.75
25.99
22.66
20.74
20.64
22.02
23.9
25.08
24.49
21.55
16.32
9.38
1.59
-6.34
-14.03
-21.58
-29.38
-37.94
-47.59
-58.34
-69.79
-81.15
-91.33
-99.18
-103.69
-104.24
-100.8
-93.92
-84.59
-73.95
-63.04
-52.6
-43.06
-34.63
-27.4
-21.4
-16.69
-13.3
-11.15
-10.03
-9.58
-9.43
-9.31
-9.11
-8.97
-8.97
-9.06
-8.83
-7.6
-4.68
0.33
7.24
15.33
23.58
31.03
37.15
41.79
45.11
47.19
47.97
47.21
44.73
40.64
35.43
29.82
24.45
19.65
15.34
11.12
6.63
1.75
-3.24
-7.77
-11.24
-13.31
-14.09
-14.12
-14.25
-15.28
-17.63
-21.04
-24.64
-27.17
-27.51
-25.26
-20.93
-15.89
-11.82
-9.98
-10.58
-12.51
-13.61
-11.43
-4.11
8.87
26.41
46.08
64.81
79.79
89.16
92.33
89.81
82.71
72.3
59.65
45.67
31.37
17.91
6.65
-1.29
-5.43
-6.23
-5.01
-3.45
-3
-4.34
-7.22
-10.81
-14.12
-16.51
-17.9
-18.7
-19.52
-20.93
-23.3
-26.72
-30.95
-35.51
-39.74
-43.03
-45.06
-46
-46.44
-47.14
-48.61
-50.84
-53.3
-55.2
-55.85
-54.87
-52.19
-47.92
-42.16
-34.99
-26.66
-17.77
-9.32
-2.54
1.51
2.34
0.26
-3.86
-8.86
-13.87
-18.48
-22.68
-26.56
-29.92
-32.05
-32
-28.89
-22.37
-12.85
-1.35
10.77
22.22
32.08
39.86
45.43
48.85
50.28
49.93
48.14
45.43
42.54
40.24
39.05
39.02
39.65
40.15
39.83
38.47
36.39
34.28
32.79
32.25
32.54
33.27
33.99
34.4
34.36
33.79
32.57
30.55
27.67
24.07
20.14
16.48
13.7
12.2
12.02
12.74
13.61
13.73
12.39
9.29
4.7
-0.63
-5.77
-9.97
-13
-15.22
-17.5
-20.82
-25.96
-33.12
-41.73
-50.51
-57.64
-61.26
-59.99
-53.41
-42.27
-28.27
-13.61
-0.23
10.61
18.54
23.9
27.27
29.1
29.51
28.39
25.61
21.28
15.95
10.46
5.75
2.49
0.92
0.76
1.3
1.81
1.74
1.03
0.02
-0.75
-0.88
-0.4
0.25
0.44
-0.33
-2.09
-4.39
-6.55
-8.03
-8.73
-9
-9.36
-10.17
-11.31
-12.29
-12.54
-11.74
-10.03
-7.93
-6.05
-4.74
-3.97
-3.42
-2.67
-1.51
-0.08
1.13
1.37
-0.15
-4.09
-10.7
-19.7
-30.04
-39.99
-47.54
-50.91
-49.21
-42.75
-32.94
-21.7
-10.84
-1.4
6.38
12.8
18.18
22.55
25.67
27.22
27.23
26.19
24.91
24.2
24.55
26.03
28.34
31.03
33.68
36.01
37.87
39.2
40
40.26
40.04
39.36
38.29
36.87
35.17
33.33
31.5
29.81
28.26
26.7
24.83
22.4
19.3
15.73
12.19
9.19
7.12
5.94
5.25
4.4
2.87
0.42
-2.86
-6.66
-10.73
-14.98
-19.49
-24.33
-29.42
-34.46
-39.03
-42.83
-45.87
-48.48
-51.24
-54.82
-59.69
-65.93
-73.02
-79.78
-84.64
-86
-82.74
-74.7
-62.69
-48.32
-33.4
-19.44
-7.4
2.47
10.37
16.78
22.2
27.01
31.36
35.13
37.99
39.55
39.55
38.1
35.66
32.93
30.61
29.17
28.72
29.06
29.86
30.79
31.54
31.87
31.57
30.49
28.6
25.98
22.83
19.37
15.76
12.07
8.38
4.74
1.24
-2.11
-5.41
-8.82
-12.48
-16.29
-19.91
-22.89
-24.83
-25.71
-25.93
-26.12
-26.81
-28.12
-29.66
-30.67
-30.4
-28.36
-24.51
-19.25
-13.23
-7.23
-2.02
1.74
3.46
2.62
-1.08
-7.58
-16.2
-25.57
-33.86
-39.13
-39.96
-35.92
-27.71
-16.9
-5.39
5.24
14.1
21.06
26.54
31.08
35.08
38.62
41.53
43.5
44.35
44.15
43.26
42.23
41.63
41.74
42.51
43.6
44.55
45.04
45
44.52
43.71
42.6
41.06
39
36.43
33.57
30.72
28.14
25.92
23.91
21.83
19.39
16.41
12.87
8.93
4.85
0.98
-2.34
-4.95
-6.98
-8.87
-11.31
-15.01
-20.38
-27.33
-35.19
-42.82
-48.94
-52.5
-53.01
-50.79
-46.91
-42.97
-40.57
-40.73
-43.49
-47.72
-51.5
-52.76
-50.03
-43.01
-32.59
-20.55
-8.9
0.82
7.9
12.61
15.87
18.74
21.97
25.76
29.91
34.19
38.79
44.51
52.53
63.93
78.94
96.58
114.65
130.24
140.43
142.99
136.91
122.53
101.5
76.43
50.32
25.94
5.35
-10.41
-21.32
-28.13
-32.04
-34.46
-36.8
-40.24
-45.48
-52.4
-59.85
-65.99
-68.86
-67.34
-61.72
-53.7
-45.72
-39.93
-37.27
-37.3
-38.6
-39.8
-40.36
-40.75
-42.01
-44.9
-49.32
-54.34
-58.81
-62.12
-64.52
-66.79
-69.46
-72.11
-73.33
-71.3
-64.8
-53.95
-40.27
-26.1
-13.58
-3.93
2.85
7.59
11.33
14.71
17.75
19.99
20.87
20.12
17.93
14.87
11.53
8.34
5.4
2.67
0.16
-2.01
-3.63
-4.55
-4.78
-4.45
-3.56
-1.98
0.53
4.04
8.19
12.15
14.86
15.44
13.67
10.06
5.63
1.45
-1.87
-4.31
-6.38
-8.68
-11.55
-14.95
-18.44
-21.54
-23.91
-25.6
-26.91
-28.29
-30.13
-32.59
-35.66
-39.2
-43.15
-47.49
-52.24
-57.32
-62.44
-67.03
-70.46
-72.17
-71.97
-69.96
-66.22
-60.61
-52.47
-40.96
-25.5
-6.36
15.08
36.62
55.83
70.76
80.48
85.08
85.36
82.42
77.26
70.71
63.48
56.29
49.95
45.23
42.7
42.46
44.06
46.55
48.77
49.67
48.73
45.98
41.96
37.48
33.28
29.89
27.48
26
25.09
24.25
22.98
20.88
17.84
14.07
10.1
6.59
4.21
3.39
4.12
5.82
7.46
7.82
6.08
2.25
-2.77
-7.47
-10.51
-11.36
-10.52
-9.32
-9.27
-11.4
-16.01
-22.77
-31.06
-40.23
-49.56
-58.24
-65.36
-70.06
-71.92
-71.24
-69.16
-67.23
-66.85
-68.53
-71.53
-73.99
-73.59
-68.45
-57.92
-42.86
-25.36
-7.93
7.31
19.14
27.31
32.17
34.29
34.11
32.05
28.58
24.48
20.94
19.45
21.53
28.33
40.12
56.15
74.63
93.17
109.4
121.57
128.84
131.33
129.85
125.59
119.69
113.05
105.99
98.24
89.03
77.55
63.46
47.24
30.19
13.91
-0.33
-12.04
-21.52
-29.5
-36.58
-43.01
-48.76
-53.75
-58.07
-61.96
-65.59
-68.87
-71.37
-72.51
-71.9
-69.67
-66.58
-63.84
-62.68
-63.84
-67.22
-71.79
-75.84
-77.51
-75.24
-68.31
-57.03
-42.74
-27.5
-13.61
-2.99
3.25
4.98
2.85
-2.11
-8.87
-16.64
-24.76
-32.55
-39.24
-44.05
-46.58
-46.98
-46
-44.78
-44.41
-45.5
-48.12
-51.86
-56.18
-60.77
-65.65
-70.9
-76.38
-81.29
-84.27
-83.76
-78.64
-68.75
-54.97
-38.77
-21.53
-4.01
13.79
32.2
51.39
71.06
90.62
109.62
127.92
145.57
162.27
177.01
188.07
193.86
193.8
188.98
181.82
174.93
169.76
165.85
161.07
152.84
139.44
120.79
98.25
73.88
49.62
26.83
6.38
-11.19
-25.6
-36.83
-45.34
-51.87
-57.17
-61.57
-64.83
-66.39
-65.8
-63.1
-58.86
-53.94
-49.1
-44.73
-41
-37.96
-35.77
-34.51
-34.04
-33.85
-33.18
-31.35
-28.2
-24.3
-20.85
-19.14
-20.03
-23.51
-28.79
-34.76
-40.53
-45.83
-50.97
-56.44
-62.4
-68.53
-74.19
-78.94
-82.94
-86.8
-91.07
-95.63
-99.32
-100.27
-96.72
-87.9
-74.39
-57.9
-40.55
-24.06
-9.4
3.14
13.64
22.18
28.76
33.49
36.66
38.84
40.67
42.65
44.93
47.31
49.33
50.59
50.88
50.39
49.48
48.58
47.93
47.47
46.95
46.12
44.96
43.7
42.61
41.67
40.42
38.09
33.99
28
20.78
13.53
7.5
3.35
0.92
-0.62
-2.32
-5.01
-9.13
-14.73
-21.64
-29.45
-37.43
-44.39
-48.88
-49.48
-45.4
-36.8
-24.86
-11.45
1.51
12.61
21.3
27.86
33
37.48
41.68
45.53
48.65
50.65
51.41
51.14
50.34
49.52
49.05
49
49.16
49.13
48.46
46.81
44.09
40.51
36.51
32.55
28.92
25.57
22.16
18.27
13.62
8.26
2.58
-2.86
-7.57
-11.35
-14.41
-17.25
-20.5
-24.64
-29.81
-35.71
-41.65
-46.67
-49.77
-50.16
-47.43
-41.79
-34.13
-25.98
-19.08
-14.81
-13.55
-14.46
-15.72
-15.24
-11.53
-4.25
5.78
17.11
28.35
38.65
47.82
55.98
63.17
69.03
72.92
74.18
72.53
68.23
62.05
55.02
48.04
41.67
36.04
31.14
26.97
23.79
21.94
21.64
22.7
24.41
25.77
25.87
24.22
20.95
16.72
12.4
8.84
6.57
5.71
5.97
6.8
7.55
7.79
7.33
6.35
5.06
3.65
2
-0.17
-3.12
-6.84
-10.93
-14.74
-17.63
-19.36
-20.3
-21.36
-23.6
-27.74
-33.77
-40.91
-48
-54.08
-58.79
-62.56
-66.33
-70.91
-76.49
-82.3
-86.8
-88.19
-85.12
-77.2
-65.16
-50.62
-35.51
-21.45
-9.35
0.63
8.77
15.33
20.33
23.48
24.5
23.5
21.07
18.2
15.91
14.75
14.68
15.19
15.69
15.9
16.01
16.54
17.92
20.31
23.4
26.63
29.43
31.46
32.66
33.12
32.96
32.19
30.79
28.79
26.33
23.62
20.89
18.3
15.85
13.43
10.85
7.9
4.41
0.31
-4.34
-9.39
-14.55
-19.42
-23.64
-26.95
-29.36
-31.21
-33.16
-35.92
-40.15
-45.99
-52.97
-59.88
-65.03
-66.66
-63.56
-55.48
-43.3
-28.79
-14.01
-0.69
10.18
18.37
24.22
28.21
30.71
31.95
32.12
31.43
30.11
28.37
26.32
24.05
21.66
19.33
17.24
15.56
14.36
13.62
13.29
13.32
13.64
14.1
14.53
14.75
14.72
14.56
14.42
14.35
14.11
13.3
11.6
9.03
6.12
3.73
2.64
3.17
5
7.34
9.23
9.99
9.33
7.38
4.5
1.08
-2.64
-6.5
-10.47
-14.51
-18.56
-22.55
-26.47
-30.39
-34.55
-39.24
-44.61
-50.39
-55.67
-59.05
-59.04
-54.58
-45.69
-33.48
-19.93
-7.11
3.39
10.88
15.57
18.2
19.6
20.38
20.84
21.01
20.87
20.44
19.89
19.51
19.62
20.47
22.12
24.47
27.21
29.97
32.42
34.36
35.72
36.57
36.98
37
36.61
35.7
34.22
32.19
29.71
27.02
24.32
21.77
19.28
16.59
13.29
9.02
3.66
-2.49
-8.81
-14.5
-18.86
-21.66
-23.14
-23.99
-24.99
-26.73
-29.33
-32.45
-35.5
-37.94
-39.59
-40.73
-42.04
-44.28
-48.05
-53.56
-60.48
-68.08
-75.22
-80.65
-83.13
-81.72
-76.03
-66.38
-53.77
-39.61
-25.44
-12.43
-1.31
7.7
14.7
19.93
23.68
26.28
28.02
29.15
29.89
30.41
30.93
31.67
32.85
34.58
36.82
39.4
42.08
44.66
46.97
48.95
50.5
51.45
51.61
50.81
49.01
46.36
43.14
39.67
36.22
32.94
29.88
27.02
24.33
21.81
19.47
17.34
15.37
13.45
11.45
9.25
6.77
4.01
0.99
-2.25
-5.67
-9.21
-12.79
-16.29
-19.62
-22.72
-25.65
-28.59
-31.86
-35.82
-40.84
-47.12
-54.52
-62.48
-69.91
-75.44
-77.71
-75.84
-69.71
-60.04
-48.15
-35.62
-23.84
-13.74
-5.77
0.04
3.94
6.27
7.45
7.86
7.76
7.25
6.33
5.04
3.59
2.36
1.83
2.37
4
6.42
9.01
11.13
12.27
12.18
10.91
8.72
6.03
3.36
1.22
-0.07
-0.51
-0.45
-0.49
-1.1
-2.46
-4.28
-5.96
-6.97
-7.14
-6.8
-6.62
-7.3
-9.25
-12.39
-16.27
-20.19
-23.56
-26.01
-27.52
-28.44
-29.38
-31.03
-33.96
-38.33
-43.74
-49.16
-53.17
-54.26
-51.34
-44.15
-33.39
-20.56
-7.53
4.1
13.44
20.38
25.42
29.15
31.92
33.61
33.88
32.54
29.76
26.24
22.91
20.6
19.69
20.1
21.41
23.19
25.15
27.22
29.43
31.69
33.76
35.34
36.17
36.26
35.88
35.4
35.05
34.71
33.9
32
28.55
23.6
17.72
11.82
6.78
3.03
0.43
-1.64
-4
-7.29
-11.76
-17.24
-23.27
-29.25
-34.68
-39.28
-43.05
-46.28
-49.36
-52.64
-56.31
-60.33
-64.35
-67.66
-69.27
-67.97
-62.71
-52.99
-39.18
-22.58
-5.11
11.23
24.94
35.31
42.44
46.86
49.2
49.93
49.36
47.73
45.35
42.53
39.5
36.33
32.97
29.36
25.61
22.03
19.18
17.61
17.58
18.89
20.87
22.61
23.37
22.86
21.33
19.45
17.95
17.32
17.67
18.74
20.04
21.14
21.78
22.01
22.09
22.5
23.7
26.02
29.44
33.45
37.17
39.55
39.79
37.62
33.43
28.01
22.18
16.44
10.77
4.81
-1.74
-8.92
-16.49
-24.11
-31.77
-39.94
-49.35
-60.45
-72.82
-84.99
-94.7
-99.81
-99.13
-93.01
-83.12
-71.86
-61.41
-53.16
-47.42
-43.81
-41.66
-40.41
-39.77
-39.58
-39.68
-39.83
-39.81
-39.61
-39.53
-40.03
-41.39
-43.23
-44.31
-42.82
-37.05
-26.3
-11.28
6.12
23.63
39.44
52.68
63.25
71.35
77.03
80.11
80.58
79.01
76.71
75.33
76.07
79.05
83.04
85.96
85.75
81.2
72.4
60.6
47.61
35.1
23.98
14.34
5.66
-2.59
-10.59
-17.91
-23.63
-26.68
-26.28
-22.37
-15.82
-8.42
-2.48
-0.13
-2.61
-9.7
-19.69
-29.91
-37.51
-40.3
-37.33
-29.05
-16.93
-2.94
11.04
23.54
33.61
40.71
44.55
45
42.23
36.76
29.59
22.1
15.75
11.68
10.33
11.37
13.86
16.74
19.2
20.94
22.13
23.07
23.89
24.43
24.27
23.03
20.66
17.52
14.23
11.39
9.21
7.4
5.29
2.2
-2.26
-7.88
-14
-19.82
-24.74
-28.63
-31.76
-34.59
-37.42
-40.24
-42.7
-44.35
-44.86
-44.14
-42.4
-40.07
-37.66
-35.79
-35.1
-36.21
-39.55
-45.02
-51.73
-57.98
-61.57
-60.33
-52.87
-38.94
-19.58
3.2
26.91
49.19
68.1
82.27
90.91
93.72
90.92
83.37
72.51
60.26
48.59
39.11
32.63
29.12
27.93
28.21
29.32
30.92
32.81
34.68
36.07
36.41
35.44
33.33
30.67
28.07
25.84
23.74
21.2
17.62
12.75
6.78
0.22
-6.32
-12.42
-17.89
-22.72
-27.01
-30.9
-34.53
-37.91
-40.96
-43.45
-45.11
-45.78
-45.6
-45.12
-45.23
-46.99
-51.29
-58.49
-68.06
-78.52
-87.62
-92.85
-92.2
-84.79
-71.18
-53.24
-33.58
-14.83
0.98
12.8
20.59
25.06
27.42
28.95
30.62
32.86
35.46
37.82
39.18
39.06
37.45
34.68
31.24
27.47
23.58
19.67
15.93
12.81
10.89
10.66
12.23
15.23
18.94
22.57
25.54
27.7
29.23
30.47
31.66
32.75
33.47
33.41
32.31
30.06
26.79
22.75
18.21
13.37
8.44
3.64
-0.76
-4.52
-7.48
-9.7
-11.43
-12.96
-14.5
-16.01
-17.26
-17.98
-18.03
-17.6
-17.15
-17.36
-18.7
-21.22
-24.29
-26.59
-26.46
-22.29
-13.13
0.93
18.59
37.72
55.76
70.49
80.41
85
84.57
79.98
72.31
62.58
51.68
40.43
29.59
19.9
11.9
5.8
1.3
-2.23
-5.56
-9.28
-13.53
-17.96
-21.98
-25
-26.74
-27.29
-27.1
-26.73
-26.69
-27.35
-28.83
-31.06
-33.77
-36.51
-38.79
-40.09
-40.08
-38.64
-36
-32.69
-29.49
-27.17
-26.25
-26.83
-28.51
-30.64
-32.53
-33.86
-34.73
-35.6
-36.97
-39.13
-42.05
-45.47
-49.09
-52.82
-56.76
-61.21
-66.36
-72.12
-77.85
-82.33
-83.95
-81.15
-72.96
-59.46
-41.84
-22.16
-2.71
14.54
28.3
38.01
43.6
45.26
43.32
38.22
30.69
21.71
12.45
4.02
-2.74
-7.4
-9.93
-10.58
-9.71
-7.72
-4.99
-1.92
1.06
3.61
5.5
6.69
7.27
7.4
7.23
6.83
6.34
5.89
5.65
5.68
5.94
6.28
6.57
6.75
6.87
6.96
6.93
6.52
5.44
3.47
0.62
-2.93
-6.87
-10.92
-14.86
-18.68
-22.54
-26.97
-32.62
-40.03
-49.13
-58.88
-67.32
-72.12
-71.45
-64.67
-52.68
-37.47
-21.42
-6.46
6.23
16.2
23.4
27.85
29.63
29.01
26.62
23.43
20.54
18.75
18.37
19.17
20.59
22.08
23.32
24.33
25.32
26.43
27.55
28.32
28.31
27.29
25.45
23.32
21.53
20.52
20.29
20.48
20.55
20.09
18.96
17.31
15.48
13.74
12.15
10.5
8.36
5.31
1.09
-4.17
-10.01
-15.78
-20.89
-25.08
-28.6
-32.16
-36.73
-43.23
-52.14
-63.18
-75.15
-85.96
-93.06
-94.17
-87.99
-74.79
-56.36
-35.55
-15.34
1.99
15.37
24.9
31.44
36.01
39.4
41.94
43.66
44.52
44.53
43.88
42.8
41.54
40.26
39.01
37.84
36.86
36.24
36.13
36.61
37.53
38.59
39.37
39.5
38.79
37.22
34.9
32.03
28.79
25.39
22.03
18.93
16.2
13.81
11.49
8.88
5.67
1.85
-2.25
-6.12
-9.3
-11.69
-13.63
-15.77
-18.81
-23.14
-28.73
-35.1
-41.59
-47.54
-52.64
-56.85
-60.52
-64.19
-68.45
-73.75
-80.21
-87.34
-94.02
-98.6
-99.23
-94.47
-83.75
-67.73
-48.13
-27.31
-7.62
9.16
22.16
31.35
37.27
40.7
42.44
43.11
43.19
43.1
43.19
43.7
44.77
46.34
48.21
50.11
51.82
53.26
54.44
55.38
56.01
56.09
55.37
53.69
51.1
47.96
44.75
41.92
39.67
37.86
36.13
34.09
31.5
28.45
25.32
22.57
20.54
19.27
18.49
17.73
16.54
14.66
12.09
9.09
5.99
3.02
0.21
-2.65
-5.91
-9.89
-14.75
-20.4
-26.53
-32.62
-38.19
-42.88
-46.68
-49.96
-53.41
-57.93
-64.23
-72.48
-81.99
-91.17
-97.89
-100.12
-96.6
-87.29
-73.4
-57
-40.33
-25.24
-12.86
-3.53
2.99
7.18
9.63
10.92
11.54
11.96
12.56
13.58
15.11
17.1
19.37
21.73
24.06
26.28
28.35
30.22
31.81
32.95
33.5
33.36
32.48
30.91
28.78
26.26
23.66
21.36
19.77
19.16
19.55
20.63
21.92
22.97
23.64
24.11
24.77
25.97
27.69
29.46
30.44
29.72
26.64
21.05
13.36
4.55
-4.1
-11.37
-16.48
-19.37
-20.79
-22.02
-24.46
-29.16
-36.38
-45.52
-55.18
-63.47
-68.47
-68.66
-63.34
-52.81
-38.38
-21.96
-5.66
8.85
20.55
29.19
35.07
38.82
41.05
42.29
42.89
43.11
43.07
42.92
42.8
42.89
43.41
44.52
46.23
48.43
50.87
53.23
55.27
56.82
57.73
57.88
57.17
55.55
53.2
50.5
47.96
46.05
44.91
44.38
44.02
43.42
42.4
41.08
39.78
38.72
37.78
36.38
33.64
28.72
21.2
11.37
0.19
-10.98
-20.94
-29.02
-35.33
-40.63
-46
-52.36
-60.19
-69.29
-78.84
-87.45
-93.43
-95.21
-91.8
-83.16
-70.31
-55.04
-39.33
-24.71
-11.95
-1.14
8.01
15.75
22.12
27.01
30.41
32.5
33.65
34.25
34.56
34.65
34.52
34.12
33.55
32.9
32.31
31.85
31.51
31.27
31.09
30.87
30.48
29.73
28.44
26.48
23.89
20.88
17.77
14.79
12.02
9.28
6.23
2.56
-1.86
-6.9
-12.2
-17.32
-21.86
-25.5
-28
-29.02
-28.19
-25.15
-19.85
-12.73
-4.83
2.33
7.18
8.59
6.15
0.27
-8.2
-18.32
-29.49
-41.53
-54.33
-67.39
-79.5
-88.75
-93.08
-91.04
-82.43
-68.45
-51.33
-33.59
-17.35
-3.82
6.64
14.25
19.5
22.86
24.71
25.39
25.24
24.61
23.83
23.08
22.38
21.66
20.8
19.78
18.82
18.33
18.75
20.37
23.05
26.24
29.06
30.59
30.07
27.19
22.09
15.4
8.01
0.87
-5.31
-10.19
-13.93
-16.96
-19.71
-22.22
-24.04
-24.35
-22.36
-17.69
-10.64
-2.08
6.76
14.59
20.27
22.92
22.04
17.63
10.37
1.64
-6.76
-13.15
-16.46
-16.6
-14.43
-11.45
-9.34
-9.59
-13.28
-20.79
-31.65
-44.26
-56.11
-64.26
-66.27
-61.03
-49.29
-33.38
-16.42
-1.22
10.54
18.51
23.42
26.36
28.3
29.71
30.55
30.53
29.33
26.81
23.01
18.22
12.89
7.51
2.68
-1.14
-3.6
-4.67
-4.63
-4.01
-3.5
-3.7
-4.94
-7.21
-10.19
-13.3
-15.99
-17.87
-18.87
-19.26
-19.4
-19.69
-20.26
-21.01
-21.72
-22.26
-22.73
-23.46
-24.77
-26.7
-28.82
-30.38
-30.58
-28.97
-25.58
-21.03
-16.26
-12.53
-11.14
-13.24
-19.4
-29.31
-41.71
-54.67
-66.33
-75.47
-81.67
-85.06
-85.82
-83.84
-78.67
-69.8
-57.1
-40.99
-22.25
-1.84
19.24
39.91
58.72
74.05
84.36
88.75
87.23
80.83
71.25
60.55
50.79
43.77
40.68
41.87
46.58
52.99
58.71
61.46
59.98
54.48
46.56
38.45
32.13
28.55
27.41
27.53
27.55
26.52
24.21
20.97
17.33
13.68
10.03
6.36
2.68
-0.71
-3.4
-5.07
-5.71
-5.71
-5.7
-6.31
-8.03
-11.03
-15.28
-20.62
-26.91
-34.08
-42.08
-50.8
-59.91
-68.76
-76.38
-81.66
-83.65
-81.89
-76.62
-68.8
-59.78
-50.93
-43.25
-37.24
-32.97
-30.21
-28.66
-28.06
-28.23
-28.91
-29.72
-30.18
-29.87
-28.57
-26.39
-23.63
-20.58
-17.31
-13.57
-8.91
-3.05
3.85
11.1
17.63
22.49
25.33
26.68
27.87
30.56
36.06
44.76
55.8
67.3
76.94
82.68
83.4
79.03
70.5
59.37
47.52
36.84
28.93
24.79
24.52
27.17
31.01
33.9
34.08
30.71
24.07
15.37
6.22
-2.03
-8.61
-13.42
-16.9
-19.74
-22.64
-26.17
-30.67
-36.05
-41.7
-46.44
-48.69
-46.96
-40.38
-29.25
-15.08
-0.21
13.02
23.11
29.9
34.4
38.11
42.2
46.93
51.59
54.96
56.08
54.76
51.68
48.08
45.09
43.17
42.03
40.88
38.97
36.04
32.49
29.23
27.15
26.72
27.74
29.39
30.7
30.93
29.93
28.16
26.34
25.16
24.87
25.29
25.93
26.34
26.26
25.75
25.03
24.34
23.74
23.09
22.11
20.44
17.79
14
9.1
3.22
-3.33
-10.15
-16.77
-22.68
-27.45
-30.77
-32.63
-33.39
-33.75
-34.66
-37.09
-41.7
-48.51
-56.7
-64.65
-70.35
-71.98
-68.5
-59.95
-47.43
-32.66
-17.41
-3.09
9.51
20.09
28.63
35.25
40.05
43.18
44.95
45.85
46.44
47.28
48.64
50.4
52
52.61
51.49
48.34
43.49
37.9
32.78
29.13
27.4
27.48
28.84
30.81
32.86
34.62
35.82
36.19
35.47
33.46
30.19
25.86
20.79
15.27
9.52
3.76
-1.72
-6.56
-10.4
-13.05
-14.63
-15.57
-16.45
-17.79
-19.84
-22.51
-25.49
-28.41
-31.08
-33.53
-36.11
-39.32
-43.68
-49.46
-56.51
-64.14
-71.2
-76.29
-78.16
-76.01
-69.69
-59.65
-46.87
-32.73
-18.8
-6.61
2.8
9.24
13.43
16.52
19.4
22.1
23.79
23.38
20.5
16.04
11.9
10.1
11.67
16.1
21.74
26.66
29.57
30.27
29.32
27.49
25.39
23.32
21.4
19.8
18.75
18.42
18.8
19.59
20.33
20.45
19.55
17.41
14.1
9.93
5.29
0.6
-3.9
-8.16
-12.27
-16.37
-20.58
-24.85
-29.06
-33.04
-36.73
-40.23
-43.9
-48.13
-53.18
-58.79
-64.15
-67.94
-68.75
-65.62
-58.39
-47.77
-35.08
-21.69
-8.66
3.43
14.3
23.76
31.59
37.54
41.5
43.62
44.25
43.79
42.6
40.96
39.22
37.84
37.4
38.34
40.7
43.86
46.74
48.15
47.32
44.26
39.64
34.5
29.75
25.88
22.87
20.49
18.54
16.99
15.91
15.29
14.87
14.23
13
11.11
8.81
6.58
4.78
3.41
1.99
-0.26
-4.05
-9.61
-16.55
-23.97
-30.92
-36.8
-41.67
-46.11
-50.9
-56.6
-63.21
-70.04
-75.95
-79.6
-79.92
-76.34
-68.98
-58.63
-46.51
-33.99
-22.22
-11.84
-2.98
4.68
11.58
18.04
24.04
29.22
33.14
35.54
36.57
36.79
36.97
37.63
38.87
40.23
41.07
40.86
39.56
37.67
35.91
34.9
34.78
35.21
35.54
35.15
33.75
31.47
28.8
26.25
24.18
22.61
21.28
19.83
18
15.72
13.19
10.71
8.55
6.86
5.56
4.39
2.98
1
-1.73
-5.19
-9.21
-13.59
-18.17
-22.8
-27.24
-31.07
-33.8
-35.2
-35.59
-35.94
-37.58
-41.66
-48.48
-57.17
-65.95
-72.66
-75.55
-73.81
-67.67
-58.2
-46.81
-34.91
-23.62
-13.65
-5.4
1.05
5.77
8.97
10.92
11.94
12.41
12.72
13.26
14.36
16.21
18.78
21.84
24.99
27.78
29.81
30.75
30.53
29.23
27.23
25.12
23.61
23.33
24.55
27.03
30
32.39
33.2
31.91
28.66
24.22
19.64
15.79
13.04
11.16
9.61
7.91
5.99
4.32
3.54
4.08
5.72
7.59
8.47
7.36
3.88
-1.61
-8.23
-15.05
-21.36
-26.88
-31.61
-35.7
-39.34
-42.73
-46.09
-49.63
-53.37
-56.98
-59.74
-60.62
-58.66
-53.32
-44.77
-33.94
-22.19
-10.98
-1.34
6.29
12.08
16.48
19.92
22.57
24.36
25.13
24.9
23.92
22.64
21.49
20.77
20.53
20.73
21.34
22.41
23.96
25.93
28.02
29.76
30.69
30.51
29.15
26.8
23.78
20.37
16.78
13.11
9.4
5.63
1.79
-2.09
-5.94
-9.56
-12.67
-14.95
-16.19
-16.42
-15.9
-15.03
-14.22
-13.78
-13.89
-14.62
-16.02
-18.17
-21.16
-25.02
-29.69
-34.85
-39.89
-43.86
-45.61
-44.05
-38.64
-29.64
-18.17
-5.88
5.63
15.25
22.62
27.95
31.67
34.19
35.68
36.19
35.82
34.76
33.32
31.91
30.97
30.91
32.01
34.27
37.34
40.66
43.55
45.58
46.67
47.11
47.37
47.84
48.57
49.2
49.03
47.35
43.71
38.33
32.08
26.2
21.66
18.5
15.54
10.73
1.84
-12.79
-33.8
-60.57
-91.17
-122.47
-150.36
-170.47
-179.25
-175.27
-160.02
-137.74
-114
-93.73
-79.44
-70.78
-65.29
-60.11
-53.56
-45.82
-38.41
-32.89
-29.75
-27.84
-24.98
-19.07
-9.38
2.89
15.07
24.16
28.04
26.22
19.8
10.86
1.61
-6.19
-11.45
-13.65
-12.6
-8.2
-0.43
10.63
24.62
40.89
58.48
76.38
93.75
110.04
124.91
138.12
149.34
158.21
164.53
168.45
170.47
171.11
170.39
167.49
160.89
149.14
131.78
109.91
86.18
63.82
45.56
32.72
25.05
21.25
19.73
19.19
18.75
17.71
15.31
10.8
3.84
-5.23
-15.27
-24.85
-32.9
-39.27
-44.76
-50.65
-57.98
-67.01
-77.17
-87.47
-97.05
-105.53
-112.85
-118.79
-122.58
-122.85
-118.22
-108.01
-92.89
-74.83
-56.58
-40.71
-28.92
-21.72
-18.56
-18.27
-19.4
-20.57
-20.61
-18.75
-14.8
-9.24
-2.96
2.99
7.94
11.75
14.86
18.04
21.97
26.99
32.93
39.22
45.09
49.81
52.93
54.27
53.81
51.47
46.99
39.87
29.69
16.46
0.92
-15.47
-30.91
-43.9
-53.75
-60.7
-65.53
-68.99
-71.4
-72.49
-71.78
-68.94
-64.13
-58.18
-52.42
-48.37
-47.35
-50
-55.91
-63.69
-71.34
-77
-79.59
-79.17
-76.62
-73
-68.97
-64.6
-59.6
-53.78
-47.31
-40.65
-34.2
-28.06
-21.93
-15.33
-7.87
0.51
9.5
18.56
27.03
34.39
40.37
44.95
48.28
50.6
52.18
53.29
54.24
55.37
56.96
59.06
61.43
63.48
64.6
64.32
62.55
59.5
55.61
51.31
46.96
42.76
38.82
35.1
31.52
27.91
24.12
20.08
15.77
11.29
6.75
2.23
-2.18
-6.44
-10.47
-14.2
-17.63
-20.79
-23.77
-26.67
-29.53
-32.42
-35.47
-38.91
-43.1
-48.3
-54.65
-61.8
-68.93
-74.73
-77.67
-76.46
-70.44
-59.83
-45.69
-29.69
-13.62
0.93
12.92
21.93
28.1
32.02
34.37
35.72
36.3
36.08
34.9
32.81
30.16
27.57
25.65
24.79
25.01
26.04
27.55
29.22
30.82
32.11
32.82
32.72
31.68
29.82
27.47
24.98
22.62
20.43
18.35
16.24
13.95
11.33
8.22
4.48
0.03
-5.04
-10.47
-15.9
-20.97
-25.47
-29.32
-32.56
-35.28
-37.6
-39.69
-41.77
-44.05
-46.6
-49.3
-51.79
-53.67
-54.71
-55.04
-55.24
-56.18
-58.66
-63.02
-68.86
-75.01
-79.83
-81.57
-78.89
-71.12
-58.37
-41.38
-21.44
-0.13
20.88
39.99
55.87
67.61
74.89
77.85
77.12
73.5
67.93
61.29
54.36
47.83
42.3
38.25
35.97
35.51
36.58
38.63
40.88
42.59
43.21
42.54
40.73
38.12
35.1
31.98
28.95
26.08
23.36
20.77
18.25
15.76
13.25
10.79
8.54
6.74
5.61
5.24
5.51
6.12
6.62
6.6
5.74
3.97
1.47
-1.37
-4.08
-6.27
-7.75
-8.67
-9.31
-9.94
-10.62
-11.19
-11.4
-11.28
-11.36
-12.63
-16.2
-22.65
-31.61
-41.68
-50.79
-56.91
-58.76
-56.19
-50.08
-41.87
-32.93
-24.16
-15.92
-8.24
-1.13
5.25
10.52
14.34
16.54
17.36
17.3
17.03
17.06
17.61
18.52
19.45
20.11
20.5
20.91
21.78
23.48
26.06
29.21
32.33
34.78
36.16
36.35
35.53
33.96
31.85
29.25
26.12
22.41
18.22
13.82
9.62
5.89
2.75
0.09
-2.3
-4.5
-6.37
-7.64
-8.1
-7.9
-7.55
-7.84
-9.35
-12.22
-16
-19.87
-23.12
-25.48
-27.28
-29.29
-32.33
-36.98
-43.35
-51.07
-59.33
-66.95
-72.49
-74.54
-72.09
-64.9
-53.67
-39.91
-25.47
-11.9
-0.19
9.37
16.89
22.59
26.52
28.68
29.11
28.12
26.27
24.26
22.74
22.07
22.27
23.08
24.13
25.13
26.01
26.92
28.1
29.68
31.49
33.04
33.7
32.94
30.63
27.03
22.75
18.43
14.53
11.14
8.07
5.04
1.85
-1.48
-4.8
-7.89
-10.65
-13.1
-15.43
-17.84
-20.51
-23.55
-27
-30.85
-35.08
-39.68
-44.6
-49.74
-54.91
-59.79
-63.91
-66.62
-67.14
-64.76
-59.1
-50.25
-38.95
-26.38
-13.88
-2.53
7.06
14.85
21.15
26.32
30.56
33.84
35.96
36.88
36.74
35.91
34.86
33.97
33.42
33.22
33.33
33.8
34.78
36.44
38.79
41.49
43.93
45.43
45.5
44.04
41.37
38
34.44
31.04
28.03
25.57
23.7
22.32
21.08
19.41
16.79
13.04
8.46
3.8
-0.12
-2.78
-4.18
-4.86
-5.56
-6.93
-9.26
-12.46
-16.14
-19.75
-22.9
-25.44
-27.59
-29.89
-33.05
-37.63
-43.78
-51.05
-58.41
-64.46
-67.79
-67.36
-62.78
-54.38
-43.11
-30.18
-16.87
-4.27
6.8
15.81
22.52
27
29.62
30.92
31.53
31.95
32.44
33.07
33.78
34.51
35.21
35.81
36.29
36.61
36.82
37.03
37.42
38.15
39.16
40.18
40.79
40.55
39.17
36.62
33.12
29.01
24.59
20.15
15.94
12.27
9.5
7.83
7.15
6.98
6.59
5.32
2.96
-0.24
-3.63
-6.6
-8.85
-10.51
-11.98
-13.7
-15.86
-18.43
-21.15
-23.75
-26.06
-28.15
-30.32
-32.93
-36.37
-40.87
-46.43
-52.86
-59.79
-66.63
-72.58
-76.57
-77.42
-74.14
-66.36
-54.64
-40.44
-25.74
-12.34
-1.41
6.81
12.77
17.17
20.58
23.14
24.67
24.85
23.61
21.26
18.45
16.03
14.65
14.57
15.59
17.21
18.84
20.11
20.92
21.33
21.43
21.28
20.85
20.22
19.64
19.46
20.09
21.69
24.13
27
29.69
31.67
32.57
32.27
30.93
28.84
26.35
23.78
21.37
19.21
17.25
15.29
12.96
9.89
5.77
0.56
-5.37
-11.28
-16.3
-19.77
-21.6
-22.46
-23.55
-26.15
-31.07
-38.23
-46.63
-54.69
-60.78
-63.7
-62.94
-58.61
-51.21
-41.43
-30.13
-18.29
-7.04
2.53
9.68
14.26
16.75
17.96
18.67
19.25
19.63
19.5
18.73
17.56
16.62
16.55
17.62
19.63
21.94
23.89
25.09
25.58
25.71
25.8
25.89
25.65
24.6
22.46
19.31
15.67
12.2
9.37
7.29
5.67
4.05
2.02
-0.5
-3.35
-6.23
-8.91
-11.38
-13.77
-16.21
-18.7
-21.04
-23
-24.5
-25.81
-27.61
-30.65
-35.37
-41.47
-47.77
-52.57
-54.27
-51.95
-45.76
-36.74
-26.32
-15.76
-5.86
3.06
10.89
17.47
22.6
26.1
27.99
28.53
28.1
27.07
25.72
24.3
23.02
22.11
21.8
22.21
23.3
24.87
26.62
28.16
29.12
29.23
28.38
26.7
24.55
22.36
20.53
19.25
18.44
17.85
17.24
16.44
15.42
14.22
12.91
11.48
9.88
8.03
5.82
3.14
-0.07
-3.88
-8.31
-13.33
-18.86
-24.61
-30.2
-35.11
-38.98
-41.78
-43.94
-46.29
-49.73
-54.75
-61.03
-67.33
-71.81
-72.67
-68.78
-60.17
-47.93
-33.84
-19.77
-7.14
3.31
11.43
17.48
21.81
24.75
26.53
27.41
27.68
27.67
27.64
27.73
27.84
27.71
27.16
26.23
25.31
24.97
25.68
27.54
30.14
32.66
34.24
34.25
32.56
29.48
25.65
21.75
18.29
15.5
13.28
11.23
8.86
5.78
1.97
-2.1
-5.69
-8.03
-8.7
-7.74
-5.56
-2.71
0.41
3.58
6.66
9.38
11.25
11.72
10.35
7.17
2.71
-2.25
-6.9
-10.85
-14.2
-17.52
-21.59
-27.06
-34.16
-42.44
-50.78
-57.58
-61.21
-60.53
-55.24
-46.01
-34.18
-21.32
-8.72
2.74
12.68
20.9
27.33
31.87
34.56
35.63
35.52
34.83
34.14
33.93
34.39
35.41
36.47
36.83
35.79
32.95
28.49
23.12
17.83
13.44
10.32
8.29
6.84
5.5
4.05
2.65
1.66
1.41
2.03
3.43
5.37
7.61
9.95
12.28
14.47
16.37
17.65
17.92
16.71
13.75
9.11
3.3
-2.83
-8.46
-13.16
-17.06
-20.85
-25.41
-31.32
-38.62
-46.68
-54.51
-61.15
-65.94
-68.67
-69.49
-68.78
-67.02
-64.64
-61.87
-58.67
-54.71
-49.54
-42.78
-34.42
-24.86
-14.82
-5.03
3.95
11.95
19
25.2
30.59
35.1
38.68
41.34
43.18
44.35
44.95
44.95
44.27
42.86
40.8
38.29
35.73
33.52
32.02
31.44
31.77
32.77
33.98
34.84
34.8
33.55
31.03
27.49
23.48
19.58
16.38
14.18
13.01
12.58
12.48
12.26
11.61
10.45
8.78
6.69
4.21
1.31
-2
-5.68
-9.58
-13.5
-17.3
-20.97
-24.64
-28.59
-33.15
-38.6
-44.95
-51.82
-58.24
-62.91
-64.45
-61.98
-55.47
-45.84
-34.63
-23.4
-13.23
-4.55
2.73
8.83
13.82
17.56
19.83
20.67
20.38
19.48
18.5
17.73
17.24
16.93
16.76
16.86
17.46
18.8
20.84
23.18
25.22
26.34
26.22
24.97
22.98
20.77
18.74
17
15.47
14.04
12.66
11.38
10.26
9.29
8.28
6.97
5.13
2.66
-0.4
-3.93
-7.76
-11.8
-15.91
-19.99
-23.87
-27.42
-30.6
-33.51
-36.49
-40.02
-44.54
-50.24
-56.73
-63.07
-67.87
-69.64
-67.39
-60.92
-50.95
-38.83
-26.13
-14.07
-3.36
5.83
13.55
19.89
24.81
28.17
29.93
30.26
29.56
28.42
27.33
26.57
26.1
25.69
25.04
24.07
22.95
22.06
21.73
22.12
22.98
23.89
24.37
24.14
23.18
21.68
19.85
17.86
15.83
13.81
11.88
10.09
8.49
7.09
5.91
4.86
3.86
2.69
1.19
-0.78
-3.12
-5.55
-7.71
-9.37
-10.59
-11.74
-13.29
-15.57
-18.6
-22.16
-25.96
-29.8
-33.66
-37.6
-41.65
-45.8
-49.99
-54.18
-58.27
-61.89
-64.39
-64.76
-62.04
-55.64
-45.74
-33.29
-19.73
-6.62
4.89
14.22
21.34
26.58
30.41
33.22
35.26
36.67
37.56
38.01
38.13
37.98
37.55
36.73
35.5
34.01
32.63
31.84
31.96
32.93
34.26
35.23
35.27
34.26
32.51
30.57
28.86
27.47
26.1
24.38
22.07
19.26
16.29
13.66
11.69
10.49
9.84
9.32
8.52
7.13
5.1
2.68
0.24
-1.82
-3.37
-4.62
-6.06
-8.24
-11.37
-15.26
-19.28
-22.8
-25.5
-27.57
-29.6
-32.29
-36.04
-40.85
-46.37
-52.04
-57.19
-61.11
-63.01
-62.1
-57.9
-50.41
-40.32
-28.83
-17.29
-6.92
1.52
7.75
11.95
14.6
16.28
17.51
18.52
19.24
19.4
18.77
17.46
15.92
14.73
14.31
14.66
15.44
16.27
17.05
18.03
19.59
21.87
24.46
26.5
27.22
26.35
24.43
22.59
21.88
22.72
24.52
26.02
25.83
23.18
18.3
12.27
6.51
2.11
-0.57
-1.86
-2.48
-3.04
-3.78
-4.66
-5.54
-6.44
-7.63
-9.43
-12.07
-15.52
-19.52
-23.83
-28.32
-32.96
-37.65
-41.99
-45.26
-46.54
-45.13
-40.76
-33.83
-25.16
-15.75
-6.59
1.6
8.33
13.34
16.54
18.03
18.05
16.94
15.09
12.88
10.8
9.29
8.79
9.51
11.33
13.78
16.21
18.08
19.15
19.49
19.4
19.07
18.55
17.7
16.37
14.49
12.15
9.57
6.97
4.46
2.09
-0.14
-2.23
-4.17
-5.98
-7.75
-9.72
-12.17
-15.33
-19.14
-23.22
-26.96
-29.84
-31.7
-32.92
-34.33
-36.8
-40.85
-46.35
-52.43
-57.7
-60.62
-59.95
-55.12
-46.46
-35.11
-22.69
-10.87
-0.81
7.07
13.09
17.93
22.25
26.29
29.86
32.5
33.81
33.81
32.93
31.87
31.24
31.3
31.89
32.62
33.19
33.56
33.92
34.46
35.11
35.56
35.34
34.21
32.23
29.77
27.25
24.88
22.64
20.35
17.9
15.35
12.89
10.68
8.73
6.82
4.68
2.15
-0.73
-3.68
-6.39
-8.65
-10.53
-12.31
-14.36
-16.94
-20.03
-23.38
-26.61
-29.4
-31.59
-33.3
-34.9
-36.93
-39.92
-44.08
-49.14
-54.15
-57.84
-58.94
-56.71
-51.12
-42.87
-33.02
-22.63
-12.54
-3.4
4.3
10.24
14.28
16.66
17.94
18.8
19.73
20.86
21.96
22.68
22.92
22.91
23.11
23.98
25.7
28.15
31.02
33.91
36.58
38.86
40.61
41.62
41.7
40.75
38.94
36.65
34.36
32.32
30.48
28.5
26.09
23.21
20.24
17.71
16.02
15.11
14.43
13.21
10.83
7.18
2.62
-2.18
-6.62
-10.37
-13.43
-16.03
-18.51
-21.14
-24.09
-27.45
-31.19
-35.19
-39.32
-43.56
-47.96
-52.72
-58
-63.77
-69.58
-74.5
-77.29
-76.64
-71.65
-62.27
-49.34
-34.49
-19.58
-6.12
5.07
13.96
21
26.73
31.45
35.17
37.8
39.38
40.21
40.68
41.06
41.37
41.39
40.87
39.78
38.39
37.17
36.46
36.32
36.44
36.32
35.48
33.72
31.1
27.9
24.41
20.88
17.47
14.3
11.48
9.08
7.15
5.65
4.54
3.72
3.12
2.62
2.09
1.42
0.56
-0.45
-1.54
-2.72
-4.09
-5.83
-8.08
-10.8
-13.72
-16.48
-18.82
-20.78
-22.66
-24.94
-28.06
-32.27
-37.53
-43.52
-49.62
-54.96
-58.61
-59.75
-57.88
-53
-45.56
-36.3
-26.06
-15.59
-5.56
3.43
10.84
16.26
19.58
21.02
21.13
20.56
19.83
19.21
18.77
18.53
18.56
19.03
20.09
21.69
23.58
25.34
26.56
27.03
26.79
26.12
25.29
24.44
23.5
22.23
20.43
18.01
15.13
12.06
9.08
6.31
3.77
1.37
-0.88
-2.9
-4.64
-6.17
-7.78
-9.9
-12.83
-16.5
-20.44
-23.97
-26.59
-28.32
-29.74
-31.74
-35.06
-39.9
-45.79
-51.73
-56.48
-58.98
-58.48
-54.69
-47.76
-38.32
-27.42
-16.35
-6.41
1.5
7.12
10.83
13.43
15.68
17.99
20.33
22.39
23.83
24.53
24.63
24.4
24.07
23.75
23.54
23.58
24.14
25.44
27.45
29.77
31.75
32.75
32.41
30.9
28.71
26.47
24.56
23.06
21.79
20.46
18.9
17.09
15.08
12.93
10.69
8.36
6.02
3.75
1.6
-0.45
-2.55
-4.87
-7.55
-10.61
-13.95
-17.44
-20.89
-24.17
-27.15
-29.82
-32.32
-34.98
-38.29
-42.68
-48.23
-54.4
-59.99
-63.47
-63.44
-59.21
-51.08
-40.24
-28.37
-17.04
-7.31
0.48
6.52
11.31
15.28
18.61
21.32
23.3
24.51
25.07
25.19
25.17
25.18
25.28
25.39
25.47
25.55
25.84
26.56
27.84
29.47
31.01
31.88
31.67
30.4
28.4
26.22
24.31
22.82
21.62
20.48
19.24
17.95
16.71
15.58
14.45
13.06
11.21
8.87
6.22
3.54
1.14
-0.85
-2.53
-4.14
-6
-8.38
-11.4
-14.97
-18.9
-22.82
-26.38
-29.27
-31.39
-32.88
-34.18
-35.93
-38.82
-43.31
-49.37
-56.3
-62.75
-67.07
-67.79
-64.25
-56.75
-46.5
-35.08
-23.9
-13.83
-5.07
2.53
9.15
14.79
19.23
22.24
23.78
24.05
23.46
22.45
21.35
20.31
19.29
18.19
16.95
15.67
14.62
14.11
14.37
15.37
16.76
17.97
18.29
17.01
13.58
7.85
0.15
-8.7
-17.57
-25.42
-31.62
-36.08
-39.11
-40.93
-41.47
-40.2
-36.55
-30.28
-21.87
-12.43
-3.23
4.85
11.55
17.16
22.04
26.12
28.8
29.17
26.59
21.22
14.08
6.79
0.77
-3.29
-5.72
-7.56
-10.01
-13.81
-18.91
-24.52
-29.35
-32.12
-31.83
-28.03
-20.89
-11.11
0.17
11.71
22.46
31.73
39.21
44.95
49.09
51.8
53.18
53.39
52.62
51.18
49.42
47.7
46.28
45.28
44.66
44.21
43.6
42.37
40.18
36.93
32.83
28.39
24.17
20.55
17.55
14.91
12.27
9.41
6.42
3.54
1.02
-1.05
-2.83
-4.6
-6.59
-8.82
-11.08
-13.03
-14.43
-15.29
-15.88
-16.69
-18.13
-20.36
-23.15
-25.96
-28.26
-29.83
-30.87
-31.98
-33.82
-36.81
-40.98
-45.96
-51.16
-55.89
-59.43
-60.98
-59.81
-55.42
-47.77
-37.49
-25.79
-14.1
-3.69
4.73
11.07
15.67
19
21.35
22.75
23.02
22.02
19.84
16.94
14.04
11.9
11.03
11.46
12.75
14.15
15.03
15.15
14.8
14.58
15.06
16.39
18.27
20.02
20.93
20.51
18.65
15.46
11.19
6.14
0.68
-4.69
-9.28
-12.45
-13.81
-13.37
-11.7
-9.75
-8.53
-8.75
-10.63
-13.81
-17.55
-21.02
-23.6
-25.08
-25.69
-26
-26.81
-28.9
-32.85
-38.84
-46.49
-54.81
-62.35
-67.52
-69.01
-66.21
-59.36
-49.48
-38.05
-26.58
-16.23
-7.68
-1.08
3.75
7.09
9.27
10.54
11.11
11.21
11
10.48
9.55
8.03
5.87
3.27
0.71
-1
-0.88
2.08
8.78
19.64
34.39
51.88
70.22
87.14
100.49
108.68
110.98
107.56
99.42
88.23
75.99
64.72
55.93
50.26
47.3
45.79
44.21
41.35
36.7
30.52
23.56
16.65
10.41
5.11
0.65
-3.26
-6.94
-10.56
-14.17
-17.73
-21.19
-24.58
-28
-31.47
-34.97
-38.42
-41.91
-45.78
-50.51
-56.36
-62.96
-69.05
-72.8
-72.45
-67.19
-57.55
-45.27
-32.48
-20.9
-11.2
-3.15
3.84
10.08
15.34
19.04
20.79
20.79
19.92
19.26
19.6
21.06
23.12
24.99
26.18
26.66
26.88
27.44
28.67
30.51
32.53
34.24
35.32
35.78
35.83
35.8
35.92
36.23
36.71
37.27
37.8
38.15
38.12
37.53
36.26
34.42
32.29
30.32
28.85
28.02
27.56
26.93
25.47
22.66
18.43
13.17
7.72
3.03
-0.21
-1.98
-3.04
-4.69
-8.25
-14.49
-23.33
-33.85
-44.84
-55.35
-65.14
-74.59
-84.32
-94.62
-105.06
-114.48
-121.26
-123.9
-121.43
-113.77
-101.66
-86.47
-69.85
-53.45
-38.65
-26.48
-17.54
-11.88
-9.06
-8.19
-8.22
-8.2
-7.59
-6.16
-3.9
-0.8
3.24
8.21
13.83
19.44
24.23
27.59
29.37
29.9
29.64
28.85
27.4
25.01
21.62
17.73
14.27
12.06
11.29
11.27
10.81
8.97
5.7
1.96
-0.81
-1.61
-0.49
1.37
2.3
1.09
-2.47
-7.58
-13.06
-18.11
-22.7
-27.45
-33.01
-39.66
-47.2
-55.23
-63.52
-72.02
-80.62
-88.77
-95.31
-98.85
-98.47
-94.18
-87.09
-78.81
-70.75
-63.67
-57.73
-52.84
-49.04
-46.45
-44.91
-43.64
-41.32
-36.51
-28.09
-15.62
0.62
19.79
40.56
61.12
79.25
92.78
100.37
102.19
100.03
96.6
94.29
94.25
96.13
98.74
101.1
103.14
105.73
109.84
115.77
122.61
128.69
132.28
132.39
129.1
123.29
116.13
108.57
101.28
94.46
88.01
81.51
74.4
66.32
57.31
48.01
39.42
32.36
26.98
22.5
17.55
10.84
1.76
-9.29
-21.2
-32.55
-42.09
-49.13
-53.69
-56.47
-58.63
-61.2
-64.58
-68.11
-70.23
-69.24
-64.23
-55.71
-45.39
-35.44
-27.38
-21.6
-17.53
-14.29
-11.33
-8.42
-5.27
-1.18
4.8
13.26
23.7
34.5
43.54
49.34
51.78
52.18
52.49
54.25
57.93
62.92
68.19
72.96
76.92
80.24
83.1
85.49
87.31
88.61
89.78
91.68
95.24
100.89
108.16
115.5
120.78
121.99
118.21
109.91
98.6
85.74
71.69
55.4
34.95
9.14
-21.47
-54.48
-87.04
-117.58
-146.7
-176.3
-207.31
-237.92
-263.23
-277.32
-276.26
-260.17
-233.14
-200.99
-168.27
-136.64
-105.45
-73.59
-41.64
-12.28
11.09
26.45
34.81
39.97
46.87
58.87
75.77
93.28
104.61
103.44
87.02
57.75
22.69
-9.29
-30.97
-39.34
-36.09
-26.03
-14.63
-5.9
-1.72
-2.29
-7.29
-16.47
-29.67
-46.2
-64.43
-81.7
-94.99
-101.67
-100.36
-91.22
-75.98
-57.54
-39.11
-23.75
-13.78
-10.55
-14.28
-23.77
-36
-46.19
-48.68
-38.72
-14.88
19.51
56.75
87.28
103.33
101.73
84.58
57.6
27.24
-1.63
-26.44
-46.02
-59.23
-64.48
-60.44
-47.45
-28.3
-7.72
9.34
19.83
23.73
23.66
23.39
25.83
31.87
40.18
48.23
53.57
55.01
52.87
48.57
43.8
39.78
36.99
35.25
34.08
33.04
31.92
30.7
29.56
28.67
28.16
27.92
27.71
27.2
26.13
24.42
22.12
19.28
15.73
11.22
5.55
-1.09
-8.02
-14.3
-19.13
-22.29
-24.21
-25.77
-27.76
-30.59
-34.1
-37.79
-41.18
-43.94
-46.16
-48.08
-50.06
-52.37
-55.11
-58.15
-61.08
-63.26
-63.89
-62.24
-57.91
-51
-42.12
-32.21
-22.27
-13.05
-5.02
1.69
7.04
11.07
13.73
15
14.86
13.48
11.26
8.88
7.21
7.14
9.26
13.65
19.81
26.81
33.69
39.76
44.66
48.36
50.78
51.76
51.01
48.33
43.74
37.57
30.31
22.45
14.46
6.78
-0.07
-5.43
-8.78
-9.89
-9.09
-7.2
-5.34
-4.48
-5.12
-7.2
-10.25
-13.72
-17.21
-20.66
-24.23
-28.04
-32
-35.78
-38.98
-41.5
-43.67
-46.2
-49.75
-54.34
-59.08
-62.25
-62.04
-57.34
-48.36
-36.66
-24.47
-13.82
-5.8
-0.34
3.4
6.42
9.3
12.17
14.88
17.34
19.65
22.03
24.53
26.88
28.58
29.19
28.73
27.74
27.09
27.49
29.11
31.38
33.34
34.12
33.4
31.55
29.46
28.08
28.01
29.36
31.84
34.99
38.36
41.66
44.65
47.01
48.31
48.01
45.71
41.37
35.4
28.66
22.13
16.55
12.2
8.83
5.94
3.1
0.11
-2.98
-6.02
-9
-12.05
-15.44
-19.43
-24.23
-29.92
-36.49
-43.73
-51.15
-57.96
-63.12
-65.55
-64.34
-59.01
-49.66
-36.94
-22.05
-6.48
8.1
20.24
28.94
33.87
35.45
34.63
32.63
30.55
29.08
28.49
28.66
29.34
30.25
31.23
32.27
33.44
34.88
36.72
39.05
41.82
44.72
47.17
48.42
47.78
44.96
40.19
34.18
27.8
21.77
16.43
11.7
7.36
3.18
-0.82
-4.46
-7.54
-9.97
-11.82
-13.34
-14.75
-16.16
-17.56
-18.89
-20.14
-21.45
-22.98
-24.87
-27.11
-29.58
-32.04
-34.35
-36.51
-38.58
-40.75
-43.17
-45.97
-49.34
-53.41
-58.16
-63.2
-67.7
-70.48
-70.38
-66.7
-59.53
-49.81
-38.98
-28.54
-19.54
-12.43
-6.94
-2.37
2.15
7.44
13.94
21.65
30.06
38.24
45.21
50.24
53.05
53.95
53.61
52.79
52.11
51.9
52.14
52.56
52.7
51.97
49.89
46.22
41.13
35.2
29.24
23.99
19.88
16.84
14.4
11.95
8.95
5.17
0.76
-3.89
-8.26
-11.93
-14.7
-16.61
-17.86
-18.66
-19.16
-19.38
-19.28
-18.91
-18.43
-18.09
-18.06
-18.4
-18.99
-19.76
-20.78
-22.36
-24.75
-27.9
-31.21
-33.63
-33.97
-31.41
-25.86
-17.91
-8.58
1.04
10.16
18.23
24.83
29.53
31.91
31.73
29.16
24.81
19.63
14.63
10.53
7.68
6.05
5.41
5.52
6.26
7.64
9.64
12.16
14.91
17.46
19.34
20.18
19.84
18.43
16.24
13.62
10.82
7.97
5.1
2.3
-0.29
-2.47
-4.05
-5.02
-5.55
-5.97
-6.68
-7.94
-9.87
-12.48
-15.62
-19.1
-22.61
-25.81
-28.41
-30.32
-31.71
-32.98
-34.61
-36.95
-40.12
-43.86
-47.55
-50.33
-51.25
-49.53
-44.86
-37.5
-28.28
-18.39
-8.95
-0.7
6.11
11.62
16.07
19.6
22.19
23.75
24.23
23.78
22.7
21.41
20.31
19.75
19.94
20.83
22.26
23.93
25.52
26.76
27.54
27.85
27.73
27.25
26.43
25.25
23.71
21.77
19.41
16.58
13.27
9.56
5.58
1.48
-2.63
-6.8
-11.14
-15.74
-20.53
-25.27
-29.58
-33.16
-35.96
-38.3
-40.77
-44.04
-48.49
-54.09
-60.41
-66.82
-72.67
-77.38
-80.41
-81.21
-79.42
-75.12
-69.07
-62.64
-57.34
-54.14
-52.94
-52.67
-51.76
-49.03
-44.2
-37.93
-31.21
-24.73
-18.52
-12.16
-5.21
2.17
9.2
14.82
18.3
19.6
19.44
18.9
18.96
20.16
22.47
25.53
28.96
32.64
36.76
41.75
47.93
55.34
63.56
71.89
79.61
86.11
90.99
93.88
94.44
92.31
87.36
79.89
70.72
60.86
51.19
42.09
33.5
25.18
17.02
9.24
2.27
-3.55
-8.1
-11.5
-13.81
-14.87
-14.29
-11.76
-7.42
-2.1
2.8
5.85
6.15
3.87
0.14
-3.44
-5.52
-5.77
-5.13
-5.54
-9.06
-16.81
-28.34
-41.56
-53.41
-61.05
-62.79
-58.68
-50.19
-39.48
-28.46
-18.24
-9.09
-0.79
6.86
13.77
19.63
24.18
27.48
29.96
32.29
35.11
38.8
43.4
48.57
53.75
58.28
61.58
63.37
63.76
63.24
62.51
62.11
62.26
62.73
63.11
63.11
62.73
62.31
62.22
62.63
63.4
64.33
65.39
66.93
69.48
73.38
78.33
83.33
86.95
87.98
86.01
81.65
76.18
70.77
65.8
60.47
53.29
42.84
28.62
11.4
-7.2
-25.56
-42.7
-58.5
-73.17
-86.67
-98.34
-107.19
-112.59
-114.71
-114.51
-113.11
-111.12
-108.39
-104.26
-98.2
-90.33
-81.28
-71.82
-62.44
-53.27
-44.4
-36.3
-29.87
-26.09
-25.38
-27.39
-31.04
-35.19
-39.15
-42.81
-46.28
-49.3
-51.01
-50.17
-45.96
-38.54
-29.32
-20.35
-13.42
-9.3
-7.54
-7.05
-6.9
-6.92
-7.63
-9.69
-13.23
-17.46
-21.1
-22.93
-22.52
-20.37
-17.55
-15.07
-13.37
-12.23
-10.99
-9.12
-6.53
-3.72
-1.55
-0.95
-2.53
-6.43
-12.45
-20.18
-29.29
-39.48
-50.26
-60.71
-69.32
-74.32
-74.26
-68.68
-58.42
-45.41
-31.87
-19.56
-9.28
-0.9
6.15
12.34
17.77
22.26
25.64
28
29.75
31.26
32.69
33.83
34.34
34.07
33.31
32.68
32.86
34.1
36.18
38.51
40.45
41.66
42.11
41.92
41.13
39.61
37.21
33.96
30.18
26.37
22.95
19.94
17.03
13.8
10.06
6.06
2.31
-0.7
-2.86
-4.53
-6.32
-8.81
-12.2
-16.34
-20.84
-25.32
-29.47
-33.09
-36
-38.08
-39.38
-40.25
-41.36
-43.47
-47.03
-51.83
-56.88
-60.69
-61.72
-58.97
-52.35
-42.62
-31.14
-19.32
-8.26
1.43
9.59
16.2
21.32
24.92
27.05
27.89
27.85
27.42
27.06
27.14
27.85
29.21
31.11
33.33
35.62
37.76
39.65
41.3
42.84
44.3
45.49
46
45.37
43.38
40.21
36.51
33.04
30.4
28.73
27.7
26.75
25.33
23.17
20.27
16.81
13.01
9.09
5.2
1.44
-2.15
-5.59
-8.98
-12.39
-15.82
-19.14
-22.22
-24.98
-27.54
-30.12
-32.96
-36.17
-39.73
-43.59
-47.77
-52.25
-56.82
-60.84
-63.23
-62.87
-59.11
-52.23
-43.41
-34.26
-26.09
-19.43
-14.06
-9.4
-5.12
-1.3
1.77
3.97
5.69
7.59
10.19
13.35
16.29
17.95
17.68
15.64
12.84
10.67
10.31
12.27
16.29
21.49
26.71
30.79
32.79
32.11
28.71
23.19
16.83
11.46
9.03
10.89
17.2
26.55
36.27
43.36
45.67
42.77
36
27.8
20.34
14.69
10.5
6.61
1.99
-3.56
-9.31
-14.24
-17.72
-19.95
-21.9
-24.79
-29.43
-35.83
-43.09
-49.67
-53.83
-54.23
-50.28
-42.36
-31.63
-19.6
-7.68
3.26
12.9
21.21
28.18
33.48
36.63
37.28
35.61
32.46
29.14
26.9
26.45
27.7
29.93
32.21
33.95
35.12
36.14
37.42
39.01
40.31
40.3
37.96
32.86
25.47
17.07
9.21
3.04
-1.19
-4.29
-7.72
-12.79
-19.97
-28.48
-36.68
-42.73
-45.43
-44.75
-41.76
-38.22
-36.06
-36.99
-42.28
-52.41
-66.64
-82.55
-96.19
-102.96
-99.11
-83.16
-56.5
-22.84
13.24
47.68
77.6
101.13
116.88
123.81
121.58
111.27
95.54
77.95
61.68
48.44
38.2
29.99
22.87
16.78
12.34
10.24
10.51
12.35
14.58
16.32
17.43
18.26
19.19
20.06
20.1
18.34
14.17
7.74
-0.12
-8.22
-15.59
-21.68
-26.4
-29.94
-32.53
-34.33
-35.48
-36.14
-36.58
-37.16
-38.19
-39.92
-42.38
-45.28
-48.02
-49.69
-49.34
-46.3
-40.53
-32.69
-23.98
-15.59
-8.31
-2.24
3.03
8
12.87
17.37
20.95
23.14
23.97
24
24.2
25.41
27.93
31.27
34.33
35.94
35.56
33.67
31.76
31.59
34.25
39.37
45.1
48.85
48.63
44.11
36.85
29.51
24.47
22.57
22.79
22.99
21.11
16.38
9.57
2.43
-3.43
-7.42
-10.12
-12.68
-15.97
-19.88
-23.41
-25.39
-25.31
-23.85
-22.74
-23.94
-28.7
-36.96
-47.42
-58.2
-67.71
-75.16
-80.56
-84.21
-86.15
-85.84
-82.4
-75.11
-63.98
-49.93
-34.6
-19.77
-6.83
3.59
11.54
17.53
22.14
25.83
28.94
31.72
34.44
37.24
40.12
42.75
44.61
45.18
44.25
42.03
39.14
36.24
33.83
32.02
30.63
29.44
28.32
27.38
26.74
26.45
26.31
25.98
25.16
23.77
22
20.25
18.95
18.33
18.37
18.81
19.2
19.09
18.06
15.86
12.45
8.07
3.19
-1.64
-6
-9.71
-12.88
-15.76
-18.51
-21
-22.78
-23.32
-22.34
-20.02
-17.12
-14.66
-13.57
-14.33
-16.89
-20.88
-25.81
-31.24
-36.7
-41.54
-44.78
-45.23
-41.96
-34.84
-24.86
-13.97
-4.45
1.92
4.48
3.82
1.34
-1.45
-3.67
-5.35
-7.28
-10.5
-15.65
-22.58
-30.37
-37.7
-43.48
-47.24
-49.18
-49.91
-49.91
-49.28
-47.54
-44.08
-38.58
-31.31
-23.19
-15.51
-9.42
-5.68
-4.44
-5.26
-7.23
-9.14
-9.68
-7.75
-2.78
5.12
15.07
25.71
35.48
43.1
47.77
49.47
48.85
47.07
45.6
45.86
48.96
55.45
65.11
76.87
88.86
98.8
104.52
104.58
98.76
88.25
75.34
62.76
52.84
46.8
44.5
44.73
45.76
46.08
44.92
42.44
39.48
37.14
36.26
37.01
38.87
40.77
41.59
40.53
37.48
33.02
28.17
24
21.17
19.78
19.55
20.1
21.12
22.37
23.34
23.24
21.15
16.58
9.96
2.73
-3.15
-6.06
-5.5
-2.29
1.79
4.83
5.53
3.56
-0.54
-5.83
-11.4
-16.63
-21.21
-25.08
-28.23
-30.63
-32.2
-32.84
-32.54
-31.46
-29.84
-27.78
-25.14
-21.57
-16.84
-11.24
-5.77
-1.95
-1.19
-4.19
-10.54
-18.89
-27.59
-35.35
-41.63
-46.53
-50.4
-53.43
-55.48
-56.22
-55.48
-53.33
-50.18
-46.54
-42.87
-39.47
-36.47
-33.94
-31.9
-30.43
-29.59
-29.43
-29.96
-31.05
-32.37
-33.38
-33.51
-32.33
-29.78
-26.27
-22.48
-19.12
-16.63
-15.1
-14.28
-13.79
-13.3
-12.61
-11.65
-10.5
-9.31
-8.27
-7.58
-7.35
-7.59
-8.16
-8.85
-9.45
-9.82
-9.88
-9.63
-9.14
-8.66
-8.5
-9
-10.29
-12.15
-14.02
-15.19
-15.2
-14.18
-12.88
-12.44
-13.86
-17.49
-22.75
-28.3
-32.53
-34.16
-32.65
-28.32
-22.03
-14.78
-7.45
-0.69
4.98
9.13
11.43
11.94
11.18
10.11
9.76
10.81
13.26
16.45
19.38
21.19
21.55
20.73
19.4
18.18
17.46
17.19
17.15
17.13
17.14
17.36
17.97
18.93
19.97
20.7
20.81
20.25
19.25
18.16
17.2
16.42
15.72
14.95
14.06
13.08
12
10.75
9.16
7.07
4.42
1.34
-1.95
-5.24
-8.44
-11.54
-14.58
-17.55
-20.39
-23.06
-25.61
-28.24
-31.25
-34.88
-39.23
-44.09
-48.96
-53.03
-55.36
-55.03
-51.45
-44.61
-35.09
-23.94
-12.34
-1.25
8.79
17.6
25.21
31.63
36.74
40.41
42.57
43.37
43.18
42.42
41.52
40.76
40.34
40.35
40.8
41.63
42.71
43.81
44.63
44.84
44.06
42
38.57
33.92
28.52
22.93
17.67
12.96
8.72
4.7
0.67
-3.35
-7.15
-10.43
-13.05
-15.04
-16.56
-17.76
-18.68
-19.21
-19.33
-19.14
-18.91
-18.92
-19.39
-20.37
-21.73
-23.33
-25.01
-26.59
-27.93
-28.93
-29.63
-30.3
-31.42
-33.6
-37.19
-42.1
-47.61
-52.46
-55.24
-54.82
-50.7
-43.18
-33.2
-21.98
-10.75
-0.36
8.7
16.21
22.15
26.53
29.51
31.37
32.52
33.34
34.05
34.61
34.72
34.08
32.59
30.5
28.35
26.77
26.18
26.65
27.86
29.23
30.23
30.44
29.7
28.11
25.86
23.25
20.56
17.98
15.64
13.54
11.58
9.61
7.48
5.11
2.58
0.05
-2.16
-3.8
-4.72
-5.02
-5.13
-5.65
-7.23
-10.27
-14.72
-20.04
-25.43
-30.1
-33.51
-35.57
-36.58
-37.08
-37.62
-38.69
-40.58
-43.28
-46.38
-49.1
-50.36
-49.2
-45.04
-37.98
-28.78
-18.65
-8.84
-0.34
6.24
10.69
13.09
13.69
12.89
11.2
9.18
7.33
5.94
5.06
4.56
4.31
4.29
4.62
5.56
7.31
9.97
13.42
17.39
21.48
25.21
28.08
29.64
29.57
27.83
24.7
20.72
16.51
12.57
9.07
5.79
2.27
-1.98
-7.2
-13.21
-19.54
-25.59
-30.97
-35.61
-39.76
-43.73
-47.7
-51.63
-55.28
-58.48
-61.29
-64.06
-67.27
-71.27
-75.92
-80.5
-83.86
-84.67
-81.96
-75.36
-65.13
-51.97
-36.66
-19.88
-2.29
15.28
31.67
45.55
55.76
61.78
63.86
62.83
59.68
55.1
49.36
42.53
34.9
27.26
20.87
16.95
16.08
17.83
20.83
23.36
24.13
22.9
20.49
18.4
18.05
20.17
24.52
30.15
35.8
40.34
43.09
43.81
42.64
39.93
36.04
31.25
25.78
19.86
13.91
8.48
4.13
1.23
-0.36
-1.16
-1.82
-2.7
-3.69
-4.26
-3.93
-2.77
-1.6
-1.81
-4.67
-10.7
-19.26
-28.7
-37.01
-42.55
-44.49
-43.03
-38.99
-33.47
-27.4
-21.36
-15.59
-10.08
-4.76
0.34
5.02
8.89
11.51
12.65
12.51
11.79
11.5
12.63
15.68
20.46
26.12
31.45
35.29
36.92
36.28
33.87
30.54
27.17
24.37
22.32
20.92
19.94
19.22
18.78
18.66
18.75
18.77
18.31
17.13
15.32
13.33
11.76
11
11
11.25
11.06
9.87
7.54
4.38
0.93
-2.36
-5.36
-8.19
-11.02
-13.81
-16.21
-17.76
-18.24
-17.97
-17.75
-18.52
-20.66
-23.66
-26.18
-26.55
-23.55
-16.92
-7.49
3.27
13.73
22.61
29.23
33.45
35.6
36.3
36.26
36.18
36.56
37.53
38.92
40.33
41.34
41.73
41.56
41.09
40.65
40.55
40.96
41.89
43.28
44.88
46.34
47.15
46.69
44.39
39.94
33.42
25.39
16.72
8.41
1.29
-4.12
-7.73
-9.81
-10.86
-11.46
-12.1
-12.98
-14.02
-14.84
-15.02
-14.21
-12.32
-9.52
-6.09
-2.46
0.86
3.1
3.24
0.21
-6.7
-17.25
-30.17
-43.35
-54.53
-62.1
-65.55
-65.38
-62.66
-58.47
-53.65
-48.8
-44.51
-41.37
-39.84
-39.9
-40.9
-41.79
-41.5
-39.51
-36.02
-31.83
-27.83
-24.61
-22.21
-20.18
-17.91
-14.84
-10.75
-5.79
-0.45
4.63
8.84
11.85
13.66
14.59
15.24
16.19
17.83
20.12
22.62
24.51
24.99
23.46
19.81
14.46
8.21
1.95
-3.54
-7.82
-10.83
-12.75
-13.95
-14.74
-15.38
-16.05
-16.91
-18.16
-20.08
-23.02
-27.3
-33.09
-40.21
-47.99
-55.4
-61.12
-63.92
-63.06
-58.42
-50.61
-40.65
-29.67
-18.57
-7.96
1.75
10.16
16.78
21.17
23.02
22.37
19.63
15.4
10.35
5.16
0.46
-3.14
-5.15
-5.29
-3.67
-0.8
2.57
5.68
8.02
9.46
10.26
10.87
11.73
13.08
14.87
16.79
18.38
19.28
19.25
18.3
16.62
14.43
11.9
9.12
6.1
2.88
-0.48
-3.84
-7.1
-10.24
-13.32
-16.44
-19.7
-23.05
-26.38
-29.49
-32.2
-34.37
-35.85
-36.37
-35.6
-33.14
-28.77
-22.6
-15.16
-7.3
-0
5.98
10.22
12.76
13.91
14.18
14.07
14.04
14.41
15.28
16.6
18.08
19.32
20.01
20.08
19.75
19.6
20.35
22.7
27.13
33.66
41.83
50.75
59.3
66.48
71.75
75.2
77.42
79.19
80.96
82.56
83.06
81.14
75.55
65.75
52.13
36.04
19.33
3.82
-9.21
-19.33
-26.82
-32.4
-36.85
-40.65
-44
-46.84
-49.13
-50.89
-52.25
-53.4
-54.5
-55.59
-56.71
-57.91
-59.27
-60.86
-62.56
-63.98
-64.42
-63.02
-59.05
-52.18
-42.66
-31.27
-19.19
-7.63
2.44
10.49
16.41
20.41
22.83
23.91
23.83
22.72
20.79
18.46
16.28
14.8
14.34
14.94
16.36
18.29
20.41
22.5
24.44
26.08
27.27
27.94
28.09
27.86
27.49
27.18
27.03
26.96
26.7
25.96
24.52
22.44
20.06
18.02
16.93
17.12
18.41
20.1
21.23
21.01
19.11
15.84
11.93
8.28
5.52
3.83
2.93
2.25
1.08
-1.1
-4.54
-9.12
-14.31
-19.42
-23.76
-27.01
-29.38
-31.56
-34.47
-38.83
-44.73
-51.48
-57.75
-62
-62.93
-59.91
-53.07
-43.19
-31.45
-19.11
-7.31
3.14
11.73
18.32
23.03
26.21
28.33
29.88
31.28
32.73
34.21
35.48
36.3
36.59
36.56
36.69
37.52
39.34
42.03
45.09
47.75
49.3
49.3
47.65
44.56
40.4
35.62
30.66
25.99
21.94
18.62
15.85
13.14
9.99
6.07
1.44
-3.42
-7.87
-11.45
-14.08
-16.08
-17.98
-20.1
-22.44
-24.66
-26.32
-27.23
-27.57
-27.85
-28.68
-30.54
-33.63
-37.86
-42.91
-48.26
-53.15
-56.64
-57.76
-55.78
-50.51
-42.49
-32.85
-22.99
-14.14
-7.01
-1.83
1.57
3.44
3.98
3.28
1.45
-1.28
-4.47
-7.54
-9.92
-11.16
-11.03
-9.62
-7.2
-4.15
-0.79
2.69
6.28
10.03
13.94
17.76
21.05
23.35
24.43
24.45
23.98
23.78
24.43
26.19
28.92
32.29
35.9
39.43
42.54
44.74
45.39
43.92
40.04
34.08
26.84
19.39
12.58
6.74
1.7
-3.01
-7.84
-12.99
-18.42
-24.05
-29.86
-35.81
-41.65
-46.79
-50.26
-51.07
-48.53
-42.72
-34.47
-25.15
-16.2
-8.71
-3.17
0.47
2.63
3.86
4.7
5.59
6.81
8.48
10.6
13.07
15.78
18.62
21.46
24.13
26.36
27.9
28.53
28.17
26.97
25.14
22.87
20.26
17.3
13.97
10.4
6.86
3.77
1.48
0.15
-0.34
-0.29
-0.14
-0.2
-0.58
-1.11
-1.44
-1.22
-0.26
1.34
3.2
4.82
5.73
5.62
4.38
2.12
-0.9
-4.34
-7.93
-11.51
-15.15
-19.11
-23.65
-28.83
-34.33
-39.46
-43.25
-44.81
-43.61
-39.68
-33.63
-26.37
-18.85
-11.76
-5.49
-0.14
4.37
8.09
11
13
13.98
13.92
12.86
10.96
8.39
5.35
2.1
-1.07
-3.81
-5.83
-7.01
-7.44
-7.4
-7.25
-7.2
-7.28
-7.32
-7.16
-6.78
-6.37
-6.26
-6.63
-7.44
-8.33
-8.86
-8.73
-7.96
-6.9
-6.01
-5.65
-5.92
-6.67
-7.62
-8.55
-9.3
-9.67
-9.4
-8.22
-5.96
-2.7
1.25
5.41
9.35
12.78
15.56
17.55
18.49
18.08
16.16
12.9
8.82
4.7
1.37
-0.45
-0.26
2.23
6.91
13.18
19.83
25.32
28.32
28.3
25.87
22.46
19.66
18.42
18.6
19.31
19.56
18.9
17.73
16.91
17.24
18.98
21.8
25.21
28.95
33.22
38.51
45.12
52.78
60.54
67.05
71
71.58
68.74
63.06
55.52
47.03
38.25
29.49
20.81
12.15
3.5
-5.13
-13.77
-22.54
-31.53
-40.72
-49.77
-58.13
-65.25
-70.8
-74.87
-77.91
-80.5
-83.09
-85.81
-88.38
-90.25
-90.67
-88.85
-84.2
-76.46
-65.97
-53.71
-41.25
-30.44
-22.91
-19.67
-20.83
-25.51
-31.97
-37.84
-40.72
-38.69
-31
-18.39
-2.89
12.79
26.01
34.98
39.2
39.26
36.53
32.61
28.77
25.7
23.4
21.34
18.8
15.15
10.22
4.31
-1.87
-7.56
-12.22
-15.68
-18.09
-19.78
-21.04
-22.06
-23.04
-24.2
-25.86
-28.31
-31.56
-35.18
-38.32
-40.04
-39.68
-37.22
-33.22
-28.48
-23.43
-17.91
-11.28
-2.83
7.52
19.01
30.33
40.11
47.52
52.42
55.27
56.79
57.66
58.37
59.26
60.54
62.29
64.37
66.48
68.22
69.26
69.51
69.07
68.11
66.61
64.34
60.87
55.79
48.86
40.07
29.62
17.92
5.5
-6.92
-18.51
-28.46
-36.1
-41.18
-43.87
-44.74
-44.51
-43.84
-43.13
-42.57
-42.22
-42.24
-42.94
-44.78
-48.18
-53.23
-59.51
-66.06
-71.52
-74.51
-74.01
-69.69
-61.99
-52.01
-41.1
-30.45
-20.79
-12.3
-4.8
1.99
8.14
13.46
17.56
20.09
20.93
20.26
18.56
16.52
14.87
14.26
15.05
17.27
20.59
24.5
28.51
32.4
36.24
40.2
44.34
48.4
51.87
54.21
55.12
54.68
53.19
50.98
48.14
44.48
39.72
33.66
26.44
18.47
10.35
2.56
-4.52
-10.72
-15.91
-20
-22.94
-24.95
-26.52
-28.43
-31.48
-36.2
-42.66
-50.31
-58.13
-64.79
-69.04
-69.93
-67.17
-61.09
-52.64
-43.04
-33.46
-24.8
-17.54
-11.75
-7.28
-3.9
-1.34
0.59
2.06
3.24
4.34
5.68
7.71
10.94
15.71
22.02
29.38
36.91
43.65
48.92
52.54
54.81
56.31
57.45
58.39
58.94
58.84
57.95
56.4
54.42
52.22
49.7
46.53
42.29
36.76
30.07
22.75
15.52
9.03
3.61
-0.74
-4.36
-7.68
-11.05
-14.7
-18.64
-22.78
-26.98
-31.01
-34.59
-37.42
-39.34
-40.5
-41.39
-42.75
-45.27
-49.16
-53.92
-58.3
-60.74
-59.87
-55.05
-46.61
-35.69
-23.78
-12.31
-2.27
5.83
11.84
15.81
17.91
18.43
17.76
16.44
15.01
13.85
13.1
12.64
12.24
11.67
10.8
9.7
8.58
7.8
7.78
8.85
11.16
14.57
18.69
23.03
27.13
30.74
33.77
36.23
38.1
39.24
39.5
38.78
37.15
34.78
31.93
28.78
25.47
22.14
18.98
16.24
14.22
13.08
12.83
13.16
13.63
13.7
12.95
11.13
8.22
4.43
0.04
-4.64
-9.48
-14.6
-20.39
-27.42
-36.12
-46.51
-57.85
-68.71
-77.23
-81.64
-80.83
-74.7
-64.1
-50.53
-35.63
-20.86
-7.26
4.53
14.21
21.72
27.21
31.01
33.53
35.21
36.43
37.42
38.28
39.02
39.59
39.88
39.75
39.06
37.69
35.53
32.48
28.55
23.8
18.49
13.03
7.91
3.62
0.45
-1.56
-2.6
-3.04
-3.21
-3.39
-3.73
-4.35
-5.36
-7
-9.47
-12.85
-16.96
-21.33
-25.38
-28.62
-30.8
-32.08
-32.85
-33.66
-34.96
-36.99
-39.79
-43.16
-46.68
-49.71
-51.46
-51.1
-48.03
-42.07
-33.61
-23.51
-12.88
-2.77
6.06
13.23
18.75
22.8
25.64
27.46
28.42
28.64
28.3
27.67
27.05
26.71
26.75
27.13
27.7
28.26
28.71
29.03
29.25
29.4
29.39
29.03
28.18
26.77
24.93
22.98
21.28
20.14
19.66
19.7
19.91
19.88
19.23
17.73
15.3
11.92
7.67
2.62
-3.09
-9.23
-15.49
-21.5
-26.92
-31.47
-35.07
-37.86
-40.24
-42.85
-46.34
-51.14
-57.13
-63.45
-68.65
-71.04
-69.3
-62.95
-52.53
-39.42
-25.41
-12.11
-0.63
8.5
15.14
19.34
21.22
20.94
18.89
15.66
12.05
8.85
6.64
5.62
5.66
6.35
7.26
8.03
8.51
8.74
8.87
9.07
9.38
9.75
10.04
10.13
10
9.71
9.34
8.94
8.44
7.8
7.03
6.31
5.95
6.24
7.29
8.97
10.98
13
14.81
16.41
17.88
19.3
20.64
21.78
22.54
22.78
22.48
21.68
20.43
18.69
16.3
12.95
8.29
1.97
-6.23
-16.29
-27.78
-39.76
-50.89
-59.62
-64.63
-65.18
-61.34
-53.88
-44
-32.89
-21.53
-10.57
-0.52
8.14
14.96
19.6
22.02
22.51
21.7
20.35
19.22
18.94
19.91
22.2
25.58
29.59
33.71
37.61
41.28
45.04
49.25
54
58.75
62.46
63.88
62.1
56.95
49.13
39.9
30.57
22.04
14.51
7.5
0.12
-8.54
-19.03
-31.31
-44.64
-57.66
-68.59
-75.6
-77.21
-72.77
-62.74
-48.7
-32.99
-18.1
-5.94
2.57
7.58
10.03
11
11.29
11.2
10.66
9.52
7.75
5.46
2.76
-0.42
-4.23
-8.66
-13.18
-16.69
-17.74
-15.12
-8.32
2.13
14.89
28.16
40.28
50.13
57.2
61.51
63.33
63.09
61.14
57.93
53.9
49.52
45.21
41.2
37.47
33.7
29.44
24.33
18.37
12.1
6.47
2.6
1.25
2.49
5.65
9.45
12.57
14.06
13.66
11.79
9.29
6.96
5.24
4.13
3.3
2.36
1.11
-0.34
-1.69
-2.78
-3.68
-4.77
-6.59
-9.53
-13.62
-18.54
-23.82
-29.14
-34.45
-40
-46.03
-52.52
-59.1
-65.26
-70.64
-75.36
-80
-85.44
-92.3
-100.54
-109.34
-117.2
-122.42
-123.42
-119.18
-109.33
-94.26
-75.02
-53.23
-30.85
-9.84
8.16
22.18
32.05
38.32
42.04
44.34
46.1
47.69
48.97
49.51
48.89
47.08
44.55
42.2
40.91
41.11
42.52
44.25
45.2
44.64
42.54
39.53
36.51
34.11
32.4
30.94
29.14
26.67
23.64
20.55
17.95
16.15
15.06
14.21
13
10.87
7.53
3.09
-2.02
-7.16
-11.78
-15.59
-18.73
-21.67
-24.9
-28.75
-33.22
-38.06
-42.96
-47.65
-51.86
-55.24
-57.17
-56.86
-53.55
-46.92
-37.34
-25.97
-14.37
-4.02
4.15
10
14.09
17.26
20.15
22.89
24.98
25.61
23.98
19.84
13.64
6.52
-0.08
-4.84
-6.95
-6.26
-3.12
1.82
7.91
14.71
21.85
28.94
35.44
40.62
43.68
44.08
41.71
37.02
30.9
24.4
18.38
13.25
8.96
5.2
1.73
-1.4
-3.82
-5.06
-4.93
-3.61
-1.65
0.33
1.98
3.32
4.53
5.7
6.54
6.45
4.85
1.47
-3.41
-9.16
-15.09
-20.71
-25.73
-29.82
-32.42
-32.7
-29.89
-23.76
-14.92
-4.8
4.78
12.18
16.38
17.12
14.8
10.12
3.85
-3.32
-10.85
-18.22
-24.95
-30.56
-34.64
-36.93
-37.46
-36.52
-34.52
-31.78
-28.27
-23.61
-17.28
-9.05
0.67
10.73
19.62
25.98
29.1
29.15
26.85
23.09
18.49
13.34
7.79
2.16
-2.95
-6.77
-8.74
-8.86
-7.72
-6.22
-5.14
