-23.42
-15.12
-6.92
1.34
9.8
18.61
27.93
37.72
47.72
57.37
65.97
72.89
77.87
81.15
83.37
85.41
88.02
91.58
96
100.73
104.94
107.62
107.91
105.29
99.77
91.87
82.43
72.33
62.28
52.73
43.96
36.09
29.22
23.32
18.22
13.59
9.05
4.28
-0.8
-6.01
-11.01
-15.5
-19.29
-22.41
-25.05
-27.43
-29.75
-32.07
-34.36
-36.55
-38.6
-40.52
-42.4
-44.33
-46.46
-48.94
-51.87
-55.23
-58.75
-61.86
-63.69
-63.32
-60.04
-53.63
-44.53
-33.74
-22.55
-12.25
-3.79
2.37
6.27
8.31
9.04
8.99
8.62
8.24
8.2
8.82
10.31
12.68
15.58
18.4
20.56
21.72
22.03
22.01
22.24
23.08
24.44
25.89
26.89
27.08
26.36
24.87
22.79
20.31
17.54
14.64
11.85
9.45
7.69
6.59
5.95
5.43
4.7
3.62
2.33
1.15
0.37
0.06
0.05
-0.07
-0.72
-2.17
-4.46
-7.42
-10.69
-13.76
-16.07
-17.1
-16.56
-14.59
-11.79
-9.1
-7.4
-7.14
-8.08
-9.41
-10.11
-9.44
-7.19
-3.69
0.48
4.76
8.83
12.58
15.98
18.96
21.37
23.03
23.82
23.74
22.87
21.37
19.43
17.25
15.03
12.98
11.32
10.3
10.15
11.02
12.85
15.3
17.83
19.78
20.63
20.13
18.37
15.57
12.03
7.94
3.46
-1.27
-6.11
-10.91
-15.61
-20.14
-24.4
-28.1
-30.85
-32.27
-32.29
-31.25
-29.76
-28.5
-27.88
-27.93
-28.32
-28.67
-28.63
-28.08
-27.06
-25.7
-24.15
-22.64
-21.41
-20.74
-20.86
-21.9
-23.76
-26.12
-28.42
-30.02
-30.34
-29.1
-26.37
-22.63
-18.48
-14.47
-10.86
-7.66
-4.75
-2.1
0.21
2.05
3.35
4.21
4.83
5.45
6.26
7.4
8.98
11.17
14.04
17.52
21.32
24.98
27.99
29.93
30.54
29.71
27.43
23.88
19.41
14.55
9.95
6.09
3.22
1.31
0.18
-0.32
-0.19
0.61
2.02
3.71
5.09
5.5
4.44
1.85
-1.93
-6.22
-10.32
-13.7
-16.15
-17.74
-18.65
-19.14
-19.31
-19.22
-18.87
-18.36
-17.92
-17.89
-18.58
-20.15
-22.43
-24.92
-26.87
-27.55
-26.47
-23.64
-19.48
-14.78
-10.27
-6.48
-3.56
-1.35
0.39
1.83
2.99
3.75
4.01
3.76
3.14
2.38
1.66
1.09
0.6
0.08
-0.58
-1.36
-2.09
-2.53
-2.44
-1.69
-0.32
1.5
3.52
5.49
7.14
8.25
8.63
8.23
7.14
5.54
3.69
1.86
0.24
-1
-1.78
-2.15
-2.25
-2.31
-2.66
-3.5
-4.88
-6.65
-8.54
-10.29
-11.84
-13.23
-14.61
-16.05
-17.48
-18.78
-19.76
-20.31
-20.4
-19.98
-18.96
-17.13
-14.3
-10.42
-5.72
-0.72
3.84
7.32
9.34
9.9
9.28
7.86
5.93
3.58
0.84
-2.19
-5.21
-7.74
-9.29
-9.58
-8.65
-6.83
-4.56
-2.19
0.14
2.44
4.72
6.86
8.61
9.67
9.85
9.18
7.85
6.14
4.28
2.34
0.33
-1.75
-3.84
-5.76
-7.37
-8.63
-9.61
-10.51
-11.49
-12.63
-13.86
-15.1
-16.36
-17.79
-19.6
-21.85
-24.35
-26.7
-28.42
-29.33
-29.56
-29.5
-29.48
-29.49
-29.16
-27.92
-25.43
-21.69
-17.14
-12.26
-7.35
-2.41
2.67
7.91
12.95
17.25
20.32
21.99
22.54
22.56
22.59
22.94
23.61
24.35
24.89
25.07
24.86
24.38
23.8
23.31
23.06
23.17
23.68
24.5
25.44
26.24
26.64
26.41
25.46
23.8
21.5
18.76
15.76
12.76
9.95
7.49
5.41
3.61
1.9
0.05
-2.12
-4.69
-7.65
-10.86
-14.19
-17.47
-20.56
-23.37
-25.87
-28.13
-30.28
-32.48
-34.89
-37.58
-40.43
-43.08
-45.02
-45.66
-44.55
-41.52
-36.81
-30.91
-24.46
-17.95
-11.69
-5.72
-0.02
5.42
10.48
14.98
18.76
21.76
24.04
25.76
27.09
28.23
29.33
30.56
32.03
33.79
35.74
37.68
39.27
40.21
40.33
39.6
38.18
36.26
34.01
31.5
28.75
25.81
22.75
19.67
16.57
13.38
9.87
5.88
1.45
-2.99
-6.7
-8.8
-8.69
-6.43
-2.82
0.83
3.16
3.31
1.25
-2.26
-6.15
-9.51
-11.98
-13.85
-15.75
-18.3
-21.65
-25.49
-29.11
-31.7
-32.58
-31.43
-28.28
-23.52
-17.73
-11.58
-5.68
-0.49
3.71
6.83
8.86
9.87
9.96
9.3
8.18
6.97
6.01
5.49
5.36
5.42
5.41
5.21
4.88
4.64
4.75
5.35
6.43
7.8
9.27
10.69
12.06
13.47
14.99
16.58
18.01
18.86
18.67
17.12
14.27
10.55
6.64
3.23
0.76
-0.77
-1.74
-2.7
-4.1
-6.12
-8.64
-11.39
-14.11
-16.67
-19.1
-21.49
-23.91
-26.4
-28.95
-31.61
-34.43
-37.37
-40.15
-42.18
-42.67
-40.86
-36.35
-29.24
-20.14
-9.94
0.47
10.39
19.33
26.94
32.91
36.95
38.89
38.76
36.82
33.55
29.47
25.08
20.81
17
13.9
11.68
10.36
9.8
9.77
10
10.22
10.32
10.21
9.95
9.58
9.19
8.83
8.54
8.3
8.04
7.64
6.96
5.91
4.46
2.71
0.82
-1.01
-2.67
-4.11
-5.34
-6.36
-7.1
-7.48
-7.46
-7.16
-6.88
-7.03
-7.97
-9.89
-12.68
-15.96
-19.15
-21.55
-22.57
-21.76
-18.99
-14.47
-8.72
-2.46
3.55
8.72
12.73
15.57
17.44
18.61
19.29
19.54
19.33
18.64
17.55
16.24
14.91
13.68
12.54
11.45
10.44
9.64
9.25
9.36
9.87
10.47
10.83
10.69
10.07
9.12
8.08
7.13
6.35
5.76
5.41
5.33
5.45
5.55
5.33
4.44
2.69
0.17
-2.85
-6
-8.96
-11.59
-13.94
-16.2
-18.58
-21.25
-24.33
-27.83
-31.65
-35.51
-38.94
-41.31
-41.99
-40.49
-36.71
-30.99
-24.02
-16.64
-9.62
-3.44
1.7
5.81
9.04
11.48
13.24
14.36
14.91
15.02
14.86
14.64
14.58
14.85
15.58
16.78
18.44
20.45
22.65
24.81
26.7
28.13
28.97
29.21
28.93
28.26
27.27
25.98
24.33
22.28
19.85
17.19
14.5
11.99
9.76
7.78
5.92
4
1.88
-0.49
-3.1
-5.83
-8.56
-11.15
-13.51
-15.62
-17.52
-19.36
-21.35
-23.75
-26.75
-30.38
-34.38
-38.2
-41.04
-42.1
-40.81
-37.01
-31.07
-23.73
-15.95
-8.61
-2.33
2.62
6.22
8.71
10.32
11.28
11.72
11.68
11.18
10.28
9.13
7.92
6.92
6.39
6.56
7.56
9.4
11.9
14.72
17.39
19.44
20.53
20.54
19.61
18.04
16.23
14.45
12.78
11.21
9.6
7.88
6.02
4.08
2.19
0.48
-0.97
-2.13
-3.05
-3.87
-4.75
-5.9
-7.41
-9.26
-11.29
-13.28
-15.05
-16.61
-18.14
-19.97
-22.4
-25.55
-29.22
-32.86
-35.73
-37.08
-36.42
-33.63
-28.94
-22.91
-16.16
-9.28
-2.73
3.14
8.08
11.87
14.45
15.91
16.54
16.76
16.9
17.1
17.31
17.35
17.08
16.56
15.94
15.45
15.21
15.25
15.47
15.77
16.09
16.38
16.52
16.32
15.56
14.11
12.01
9.54
7.02
4.72
2.7
0.85
-1
-3.02
-5.18
-7.39
-9.45
-11.15
-12.36
-12.96
-13.01
-12.64
-12.14
-11.8
-11.83
-12.29
-13.04
-13.88
-14.63
-15.29
-15.98
-16.96
-18.47
-20.59
-23.21
-25.93
-28.13
-29.06
-28.13
-25.08
-20.15
-14.01
-7.53
-1.48
3.67
7.76
10.86
13.06
14.44
15.04
14.92
14.25
13.27
12.23
11.33
10.67
10.29
10.19
10.31
10.57
10.86
11.06
11.1
11
10.8
10.61
10.45
10.27
9.99
9.47
8.64
7.49
6.1
4.57
3.03
1.54
0.16
-1.16
-2.52
-4.05
-5.9
-8.12
-10.68
-13.41
-16.13
-18.63
-20.83
-22.69
-24.25
-25.55
-26.67
-27.78
-29.12
-30.95
-33.32
-35.93
-38.12
-38.99
-37.73
-33.96
-27.93
-20.39
-12.37
-4.82
1.64
6.8
10.7
13.53
15.4
16.41
16.6
16.09
15.13
14.03
13.12
12.61
12.58
12.95
13.53
14.14
14.65
15.01
15.27
15.54
15.91
16.4
16.91
17.25
17.2
16.6
15.47
14
12.44
11.06
10.02
9.3
8.74
8.12
7.25
6.01
4.37
2.42
0.27
-1.94
-4.13
-6.29
-8.5
-10.93
-13.74
-17.05
-20.82
-24.8
-28.48
-31.21
-32.31
-31.28
-28.02
-22.83
-16.4
-9.6
-3.28
1.98
5.88
8.44
9.88
10.46
10.4
9.82
8.89
7.76
6.7
6.01
5.89
6.38
7.34
8.5
9.64
10.62
11.41
12.06
12.58
12.93
12.94
12.49
11.5
9.98
8.06
5.92
3.79
1.91
0.54
-0.15
-0.05
0.8
2.14
3.57
4.69
5.24
5.19
4.77
4.27
3.88
3.6
3.23
2.54
1.38
-0.31
-2.57
-5.54
-9.52
-14.74
-21.18
-28.3
-35.11
-40.34
-42.93
-42.37
-38.86
-33.15
-26.29
-19.24
-12.69
-6.95
-2.14
1.73
4.67
6.68
7.87
8.39
8.48
8.36
8.2
8.1
8.18
8.55
9.34
10.63
12.38
14.41
16.5
18.44
20.15
21.65
23
24.18
25.14
25.76
25.95
25.72
25.15
24.36
23.44
22.4
21.23
19.87
18.3
16.58
14.77
12.99
11.32
9.77
8.28
6.71
4.85
2.62
-0
-2.86
-5.72
-8.38
-10.75
-12.95
-15.29
-18.16
-21.91
-26.67
-32.24
-38.11
-43.48
-47.5
-49.46
-48.92
-45.89
-40.72
-34.04
-26.62
-19.16
-12.26
-6.28
-1.42
2.38
5.25
7.39
8.89
9.81
10.11
9.81
9.06
8.18
7.55
7.44
7.9
8.73
9.58
10.17
10.47
10.72
11.23
12.24
13.66
15.22
16.56
17.51
18.17
18.83
19.8
21.12
22.51
23.47
23.49
22.3
19.98
16.9
13.51
10.16
7
4.04
1.19
-1.57
-4.21
-6.65
-8.91
-11.1
-13.44
-16.22
-19.7
-24.05
-29.28
-35.16
-41.16
-46.47
-50.11
-51.17
-49.11
-43.96
-36.37
-27.48
-18.57
-10.65
-4.3
0.44
3.88
6.39
8.2
9.35
9.77
9.41
8.38
6.96
5.55
4.54
4.21
4.67
5.84
7.5
9.41
11.33
13.2
14.99
16.72
18.34
19.66
20.45
20.45
19.65
18.24
16.62
15.2
14.19
13.51
12.76
11.52
9.44
6.53
3.14
-0.23
-3.14
-5.41
-7.15
-8.69
-10.34
-12.3
-14.64
-17.37
-20.48
-23.94
-27.56
-30.93
-33.38
-34.17
-32.72
-28.86
-22.88
-15.48
-7.58
0
6.67
12.16
16.37
19.31
20.99
21.38
20.58
18.87
16.74
14.69
13.15
12.29
12.05
12.23
12.62
13.02
13.28
13.28
12.93
12.21
11.16
9.87
8.44
6.92
5.31
3.61
1.85
0.11
-1.48
-2.81
-3.82
-4.49
-4.94
-5.34
-5.97
-7.11
-8.99
-11.53
-14.44
-17.21
-19.37
-20.75
-21.57
-22.41
-23.97
-26.78
-30.98
-36.24
-41.77
-46.49
-49.09
-48.34
-43.41
-34.29
-21.97
-8.33
4.43
14.57
21.4
25.45
28.03
30.46
33.39
36.66
39.59
41.52
42.33
42.41
42.45
42.94
43.99
45.32
46.45
47.07
47.09
46.74
46.3
45.94
45.58
44.89
43.48
41.06
37.63
33.49
29.15
25.12
21.72
19.02
16.89
15.08
13.37
11.56
9.56
7.3
4.75
1.95
-1
-3.98
-6.84
-9.52
-12.04
-14.46
-16.88
-19.41
-22.2
-25.44
-29.35
-34.06
-39.33
-44.5
-48.49
-50.14
-48.7
-44.12
-37.16
-29.06
-20.99
-13.68
-7.31
-1.67
3.45
8.05
11.96
14.92
16.88
18.03
18.68
19.13
19.55
19.98
20.4
20.79
21.2
21.67
22.16
22.61
22.89
22.92
22.7
22.29
21.79
21.24
20.64
19.9
18.92
17.72
16.45
15.32
14.51
14.05
13.8
13.57
13.22
12.7
12.05
11.27
10.26
8.74
6.45
3.23
-0.85
-5.5
-10.31
-14.85
-18.73
-21.74
-23.79
-24.9
-25.21
-25.03
-24.75
-24.83
-25.76
-27.84
-31.04
-34.87
-38.39
-40.49
-40.18
-36.99
-31.15
-23.48
-15.14
-7.2
-0.41
4.92
8.8
11.43
13.05
13.84
13.99
13.7
13.19
12.68
12.32
12.18
12.28
12.59
13.13
13.93
15.09
16.65
18.52
20.5
22.29
23.61
24.29
24.36
23.97
23.32
22.57
21.7
20.62
19.22
17.48
15.52
13.52
11.67
10
8.42
6.75
4.8
2.43
-0.35
-3.5
-6.93
-10.53
-14.22
-17.85
-21.28
-24.33
-26.89
-28.96
-30.63
-32.17
-33.87
-35.95
-38.39
-40.8
-42.49
-42.67
-40.71
-36.48
-30.32
-23.02
-15.46
-8.36
-2.16
3.03
7.22
10.46
12.78
14.24
15
15.3
15.36
15.26
14.92
14.24
13.21
12.03
11.07
10.68
11
11.89
13.01
13.94
14.42
14.41
13.97
13.23
12.26
11.03
9.54
7.81
5.96
4.17
2.56
1.15
-0.12
-1.43
-2.94
-4.73
-6.77
-8.94
-11.05
-12.93
-14.48
-15.68
-16.59
-17.39
-18.31
-19.62
-21.54
-24.15
-27.23
-30.24
-32.4
-32.93
-31.27
-27.43
-21.9
-15.52
-9.14
-3.34
1.63
5.83
9.4
12.39
14.76
16.37
17.14
17.12
16.48
15.5
14.44
13.5
12.83
12.5
12.55
13
13.74
14.63
15.46
16.06
16.36
16.39
16.26
16.04
15.76
15.39
14.86
14.17
13.38
12.57
11.79
11.01
10.16
9.17
8.07
6.97
6
5.19
4.45
3.59
2.43
0.89
-0.92
-2.78
-4.45
-5.78
-6.75
-7.51
-8.36
-9.63
-11.56
-14.2
-17.29
-20.3
-22.55
-23.38
-22.35
-19.37
-14.74
-9.07
-3.13
2.31
6.63
9.56
11.1
11.6
11.48
11.11
10.66
10.11
9.38
8.45
7.49
6.77
6.49
6.77
7.49
8.46
9.47
10.36
11.07
11.55
11.79
11.71
11.24
10.31
8.85
6.87
4.5
1.94
-0.52
-2.59
-4.13
-5.2
-6
-6.74
-7.55
-8.37
-9.03
-9.39
-9.41
-9.29
-9.28
-9.63
-10.46
-11.68
-13.08
-14.44
-15.61
-16.53
-17.23
-17.84
-18.56
-19.65
-21.38
-23.82
-26.76
-29.59
-31.41
-31.35
-28.87
-24.01
-17.43
-10.06
-2.87
3.51
8.82
13.09
16.47
19.09
21
22.17
22.56
22.09
20.69
18.35
15.27
11.82
8.53
5.91
4.21
3.4
3.2
3.24
3.27
3.19
2.97
2.61
2.01
1.11
-0.07
-1.4
-2.64
-3.56
-4.1
-4.32
-4.35
-4.37
-4.54
-4.95
-5.68
-6.78
-8.21
-9.87
-11.65
-13.46
-15.22
-16.87
-18.3
-19.37
-19.91
-19.81
-19.16
-18.22
-17.38
-17.08
-17.7
-19.38
-21.96
-24.95
-27.58
-28.99
-28.46
-25.71
-20.96
-14.89
-8.38
-2.17
3.26
7.79
11.45
14.32
16.41
17.71
18.19
17.95
17.17
16.1
15.04
14.23
13.9
14.11
14.75
15.58
16.24
16.4
15.86
14.64
12.85
10.71
8.42
6.16
4.1
2.42
1.3
0.86
1.12
1.98
3.27
4.8
6.33
7.56
8.14
7.73
6.07
3.15
-0.73
-5.09
-9.37
-13.12
-16.15
-18.49
-20.32
-21.86
-23.36
-24.95
-26.66
-28.38
-29.81
-30.58
-30.37
-29
-26.59
-23.41
-19.81
-16.04
-12.24
-8.42
-4.61
-0.9
2.52
5.47
7.83
9.61
10.99
12.23
13.56
15.14
16.95
18.8
20.39
21.44
21.84
21.65
21.07
20.29
19.4
18.32
16.96
15.29
13.41
11.59
10.07
8.99
8.38
8.1
7.96
7.77
7.4
6.73
5.61
3.89
1.43
-1.79
-5.66
-9.87
-13.91
-17.22
-19.3
-19.88
-19.06
-17.29
-15.31
-13.88
-13.7
-15.25
-18.68
-23.79
-29.96
-36.22
-41.37
-44.28
-44.17
-40.9
-34.93
-27.17
-18.62
-10.12
-2.18
4.97
11.23
16.42
20.34
22.71
23.42
22.55
20.48
17.81
15.32
13.7
13.42
14.61
17.03
20.19
23.56
26.67
29.23
31.09
32.23
32.67
32.5
31.81
30.74
29.46
28.12
26.83
25.69
24.69
23.77
22.79
21.58
19.99
17.97
15.62
13.14
10.74
8.51
6.44
4.38
2.17
-0.32
-3.16
-6.32
-9.8
-13.55
-17.53
-21.67
-25.86
-29.98
-34.03
-38.07
-42.21
-46.47
-50.61
-54.11
-56.2
-56.13
-53.43
-48.1
-40.6
-31.76
-22.48
-13.58
-5.62
1.08
6.45
10.48
13.27
14.92
15.58
15.46
14.77
13.82
12.89
12.24
11.98
12.13
12.64
13.44
14.48
15.77
17.31
19.02
20.75
22.22
23.17
23.44
22.98
21.89
20.34
18.54
16.62
14.63
12.5
10.17
7.6
4.86
2.12
-0.44
-2.74
-4.86
-6.99
-9.4
-12.22
-15.43
-18.82
-22.12
-25.08
-27.63
-29.86
-32.02
-34.45
-37.48
-41.29
-45.83
-50.73
-55.26
-58.44
-59.33
-57.28
-52.21
-44.67
-35.65
-26.25
-17.37
-9.47
-2.73
2.87
7.33
10.62
12.71
13.72
13.91
13.72
13.51
13.53
13.87
14.47
15.24
16.08
16.91
17.71
18.54
19.59
21.12
23.37
26.34
29.63
32.51
34.05
33.65
31.21
27.27
22.86
19.05
16.58
15.6
15.79
16.54
17.37
18.07
18.69
19.41
20.29
21.21
21.87
21.9
20.98
18.78
15.06
9.64
2.58
-5.65
-14.16
-21.74
-27.26
-30
-29.95
-27.64
-23.92
-19.62
-15.34
-11.5
-8.37
-6.15
-4.98
-4.83
-5.48
-6.55
-7.55
-8.12
-8.02
-7.21
-5.86
-4.22
-2.58
-1.17
-0.11
0.6
1.03
1.28
1.5
1.89
2.64
3.94
5.81
8.05
10.18
11.7
12.19
11.6
10.26
8.7
7.43
6.71
6.46
6.34
5.92
4.88
3.11
0.73
-2
-4.8
-7.55
-10.3
-13.28
-16.75
-20.92
-25.75
-31.01
-36.25
-40.89
-44.28
-45.75
-44.76
-40.99
-34.56
-26.02
-16.25
-6.27
3.06
11.2
17.96
23.41
27.75
31.13
33.69
35.55
36.88
37.92
38.97
40.22
41.74
43.47
45.2
46.72
47.87
48.56
48.78
48.47
47.55
45.88
43.36
40.04
36.13
32.02
28.08
24.63
21.76
19.37
17.19
14.93
12.36
9.47
6.37
3.32
0.65
-1.36
-2.6
-3.17
-3.4
-3.77
-4.71
-6.44
-8.93
-11.93
-15.14
-18.32
-21.31
-24.07
-26.55
-28.77
-30.84
-32.97
-35.3
-37.76
-39.95
-41.12
-40.52
-37.65
-32.55
-25.75
-18.06
-10.24
-2.82
3.94
9.95
15.07
19.18
22.13
23.9
24.65
24.68
24.35
23.95
23.65
23.44
23.21
22.76
22.03
21.07
20.13
19.55
19.59
20.34
21.56
22.84
23.69
23.78
23.06
21.75
20.16
18.53
16.91
15.21
13.28
11.08
8.71
6.36
4.17
2.19
0.38
-1.33
-2.99
-4.6
-6.21
-7.93
-9.92
-12.29
-15.01
-17.88
-20.66
-23.12
-25.2
-26.99
-28.67
-30.46
-32.57
-35.19
-38.4
-42.03
-45.57
-48.21
-48.99
-47.25
-42.88
-36.43
-28.87
-21.21
-14.15
-7.96
-2.59
2.08
6.01
9.02
10.95
11.81
11.88
11.61
11.47
11.69
12.32
13.2
14.15
15.13
16.16
17.31
18.54
19.66
20.4
20.59
20.21
19.49
18.69
17.98
17.32
16.5
15.35
13.82
12.05
10.23
8.56
7.09
5.78
4.59
3.53
2.68
2.07
1.7
1.47
1.26
1.01
0.71
0.32
-0.33
-1.56
-3.69
-6.95
-11.26
-16.27
-21.36
-25.86
-29.17
-30.81
-30.49
-28.13
-23.88
-18.16
-11.62
-5.05
0.9
5.81
9.63
12.49
14.58
16
16.71
16.74
16.2
15.37
14.59
14.09
13.87
13.8
13.73
13.67
13.75
14.08
14.62
15.05
15.01
14.28
12.95
11.41
10.08
9.14
8.48
7.73
6.57
4.9
2.87
0.77
-1.11
-2.62
-3.74
-4.48
-4.95
-5.3
-5.74
-6.56
-7.98
-10.05
-12.57
-15.18
-17.52
-19.39
-20.86
-22.18
-23.74
-25.85
-28.57
-31.62
-34.41
-36.16
-36.14
-33.96
-29.68
-23.79
-17.02
-10.1
-3.57
2.26
7.25
11.32
14.47
16.75
18.28
19.27
19.86
20.13
20.04
19.55
18.72
17.68
16.65
15.8
15.22
14.91
14.87
15.15
15.76
16.6
17.42
17.84
17.48
16.16
13.99
11.4
8.91
7.01
5.95
5.64
5.79
6
6
5.66
5.05
4.33
3.6
2.86
2.02
0.95
-0.37
-1.9
-3.54
-5.19
-6.85
-8.57
-10.39
-12.31
-14.3
-16.37
-18.6
-21.17
-24.25
-27.9
-31.89
-35.71
-38.58
-39.7
-38.46
-34.74
-28.91
-21.77
-14.26
-7.14
-0.89
4.38
8.76
12.42
15.46
17.92
19.84
21.28
22.37
23.18
23.75
24.02
23.93
23.46
22.71
21.87
21.11
20.59
20.37
20.43
20.66
20.9
20.97
20.71
19.99
18.78
17.13
15.2
13.2
11.26
9.4
7.48
5.3
2.69
-0.36
-3.67
-6.88
-9.58
-11.45
-12.41
-12.62
-12.48
-12.45
-12.95
-14.17
-16.12
-18.64
-21.47
-24.35
-27.11
-29.6
-31.76
-33.61
-35.25
-36.87
-38.73
-40.95
-43.37
-45.51
-46.61
-45.9
-42.93
-37.66
-30.56
-22.36
-13.84
-5.68
1.64
7.77
12.47
15.58
17.13
17.36
16.72
15.77
14.97
14.63
14.86
15.63
16.83
18.41
20.27
22.27
24.11
25.42
25.82
25.1
23.28
20.63
17.51
14.25
11.09
8.19
5.63
3.56
2.03
0.95
0.12
-0.77
-1.98
-3.53
-5.21
-6.72
-7.84
-8.57
-9.13
-9.85
-10.94
-12.39
-13.98
-15.37
-16.32
-16.79
-17.03
-17.42
-18.36
-20.01
-22.19
-24.37
-25.76
-25.61
-23.4
-19.07
-13.03
-6.01
1.14
7.71
13.2
17.36
20.14
21.68
22.23
22.12
21.68
21.14
20.57
19.94
19.21
18.4
17.65
17.1
16.87
16.92
17.1
17.27
17.35
17.35
17.3
17.17
16.87
16.25
15.28
14.06
12.73
11.48
10.31
9.11
7.72
5.98
3.89
1.59
-0.69
-2.7
-4.26
-5.37
-6.13
-6.76
-7.48
-8.48
-9.81
-11.39
-13.09
-14.7
-16.13
-17.37
-18.61
-20.14
-22.25
-25.03
-28.24
-31.33
-33.49
-33.92
-32.13
-27.98
-21.9
-14.65
-7.11
-0.14
5.71
10.15
13.19
14.98
15.77
15.82
15.38
14.65
13.86
13.22
12.89
12.93
13.32
13.91
14.53
15.01
15.27
15.31
15.22
15.12
15.08
15.07
14.95
14.53
13.66
12.28
10.51
8.6
6.83
5.39
4.36
3.63
3.03
2.41
1.68
0.82
-0.16
-1.26
-2.48
-3.86
-5.43
-7.28
-9.47
-12.01
-14.86
-17.78
-20.43
-22.46
-23.67
-24.2
-24.44
-24.98
-26.28
-28.55
-31.69
-35.19
-38.38
-40.47
-40.82
-39.08
-35.33
-30.03
-23.91
-17.68
-11.91
-6.86
-2.54
1.11
4.15
6.62
8.5
9.79
10.56
10.88
10.83
10.53
10.11
9.73
9.53
9.66
10.16
10.99
12.11
13.41
14.79
16.14
17.37
18.42
19.23
19.76
19.89
19.46
18.32
16.47
14.15
11.8
9.87
8.57
7.74
6.94
5.77
4.07
2.06
0.18
-1.22
-2.11
-2.73
-3.42
-4.35
-5.45
-6.5
-7.33
-8.01
-8.81
-9.94
-11.48
-13.32
-15.32
-17.44
-19.72
-22.12
-24.33
-25.84
-26.03
-24.57
-21.57
-17.49
-12.89
-8.14
-3.39
1.26
5.5
8.84
10.78
11.24
10.67
9.88
9.61
10.1
11.01
11.66
11.51
10.49
8.99
7.67
7.01
7.16
7.93
8.97
10.01
10.97
11.86
12.71
13.51
14.19
14.67
14.98
15.22
15.45
15.59
15.33
14.23
11.96
8.48
4.2
-0.19
-4
-6.85
-8.87
-10.63
-12.77
-15.72
-19.38
-23.23
-26.57
-28.9
-30.2
-30.85
-31.42
-32.25
-33.19
-33.71
-33.1
-30.92
-27.24
-22.58
-17.64
-13.03
-9
-5.49
-2.36
0.47
2.85
4.5
5.18
4.91
4
2.99
2.42
2.64
3.65
5.19
6.86
8.25
9.07
9.21
8.71
7.77
6.64
5.57
4.64
3.83
3.06
2.24
1.38
0.54
-0.28
-1.21
-2.47
-4.25
-6.48
-8.8
-10.71
-11.81
-12.11
-12.03
-12.27
-13.49
-16.09
-20.03
-24.8
-29.47
-32.92
-34.1
-32.44
-28.02
-21.58
-14.25
-7.15
-0.97
4.07
8.16
11.52
14.22
16.15
17.13
17.15
16.33
15.01
13.55
12.35
11.83
12.37
14.25
17.58
22.14
27.45
32.82
37.56
41.04
42.84
42.84
41.21
38.43
35.09
31.85
29.23
27.66
27.48
29.05
32.57
37.87
44.31
50.76
55.96
59.06
59.78
58.35
55.11
50.1
42.85
32.51
18.23
-0.25
-22.21
-45.88
-68.68
-87.88
-101.16
-107.14
-105.47
-96.78
-82.33
-63.82
-43.21
-22.56
-3.89
11.23
22.08
29.08
33.6
37.33
41.57
46.7
52.26
57.42
61.52
64.45
66.53
68.19
69.48
70.03
69.2
66.52
62.01
56.19
49.79
43.37
37.15
31
24.73
18.26
11.67
5.05
-1.58
-8.3
-15.1
-21.73
-27.71
-32.52
-35.98
-38.4
-40.59
-43.39
-47.25
-51.97
-56.75
-60.67
-63.18
-64.49
-65.41
-66.89
-69.43
-72.72
-75.69
-76.96
-75.42
-70.74
-63.45
-54.67
-45.71
-37.59
-30.78
-25.26
-20.7
-16.7
-13.02
-9.66
-6.77
-4.57
-3.11
-2.24
-1.57
-0.68
0.75
2.75
5.12
7.53
9.71
11.66
13.57
15.75
18.43
21.57
24.82
27.63
29.37
29.51
27.79
24.22
19.07
12.88
6.3
0.09
-5.02
-8.51
-10.14
-10.14
-9.07
-7.73
-6.88
-6.97
-8.03
-9.73
-11.57
-13.21
-14.59
-15.99
-17.74
-20.06
-22.9
-25.97
-28.93
-31.48
-33.39
-34.47
-34.47
-33.07
-30.07
-25.42
-19.39
-12.44
-5.13
2.06
8.73
14.56
19.28
22.69
24.74
25.56
25.54
25.18
24.95
25.18
25.97
27.21
28.62
29.83
30.53
30.58
30.09
29.33
28.65
28.29
28.24
28.23
27.95
27.14
25.79
24.06
22.18
20.23
18.13
15.74
13
10.08
7.33
5.18
3.94
3.64
4.06
4.7
4.96
4.27
2.23
-1.2
-5.71
-10.62
-15.1
-18.38
-20.05
-20.18
-19.4
-18.7
-19.22
-21.82
-26.73
-33.29
-40.05
-45.2
-47.06
-44.68
-38.07
-28.18
-16.59
-5.07
4.75
11.7
15.25
15.56
13.46
10.13
6.8
4.32
3.02
2.71
3
3.53
4.18
5.11
6.6
8.92
12.2
16.27
20.67
24.73
27.76
29.37
29.64
29.09
28.42
28.11
28.17
28.19
27.62
26.23
24.21
22.09
20.32
19.02
17.95
16.78
15.47
14.4
14.06
14.66
15.77
16.44
15.67
13.04
8.97
4.54
0.86
-1.48
-2.77
-4.01
-6.41
-10.93
-17.89
-26.92
-37.1
-47.26
-56.2
-63.01
-67.16
-68.45
-66.91
-62.53
-55.27
-45.15
-32.54
-18.36
-4
9.12
19.99
28.39
34.92
40.6
46.34
52.54
58.94
64.81
69.39
72.26
73.49
73.61
73.28
73.03
73.04
73.17
73.09
72.6
71.71
70.68
69.78
69.17
68.76
68.29
67.51
66.24
64.47
62.22
59.52
56.3
52.4
47.73
42.3
36.25
29.86
23.49
17.54
12.4
8.28
5.22
2.93
0.88
-1.5
-4.64
-8.63
-13.28
-18.18
-22.93
-27.24
-30.99
-34.2
-36.97
-39.48
-41.97
-44.71
-47.91
-51.51
-55.06
-57.74
-58.64
-57.07
-52.89
-46.58
-39.1
-31.57
-24.91
-19.7
-16.1
-14.05
-13.24
-13.35
-13.96
-14.67
-15.18
-15.29
-15.03
-14.51
-13.82
-12.99
-11.92
-10.46
-8.58
-6.38
-4.12
-2.08
-0.46
0.69
1.48
2.05
2.48
2.8
2.94
2.82
2.43
1.8
1
0.06
-1.01
-2.28
-3.75
-5.34
-6.86
-8.08
-8.89
-9.46
-10.15
-11.34
-13.21
-15.51
-17.69
-19.17
-19.66
-19.34
-18.79
-18.7
-19.57
-21.52
-24.43
-27.97
-31.74
-35.23
-37.78
-38.69
-37.41
-33.82
-28.35
-21.84
-15.29
-9.51
-4.93
-1.64
0.47
1.62
2.04
1.99
1.72
1.43
1.23
1.12
1.07
1.06
1.18
1.59
2.48
3.89
5.77
7.83
9.72
11.09
11.69
11.42
10.35
8.66
6.64
4.55
2.61
0.96
-0.42
-1.68
-3.02
-4.66
-6.7
-9.11
-11.82
-14.71
-17.73
-20.87
-24.13
-27.42
-30.55
-33.29
-35.44
-36.94
-37.95
-38.78
-39.82
-41.46
-43.93
-47.19
-50.86
-54.22
-56.27
-56.03
-52.75
-46.25
-37.09
-26.49
-15.97
-6.92
-0.17
4.15
6.54
7.67
8.15
8.25
8.01
7.42
6.55
5.67
5.09
5
5.37
5.98
6.56
6.94
7.13
7.3
7.66
8.31
9.13
9.77
9.78
8.82
6.78
3.91
0.69
-2.3
-4.6
-5.99
-6.53
-6.56
-6.5
-6.75
-7.54
-8.86
-10.44
-11.79
-12.32
-11.53
-9.3
-5.96
-2.35
0.46
1.57
0.55
-2.29
-6.13
-9.94
-12.97
-15.05
-16.64
-18.51
-21.22
-24.8
-28.6
-31.49
-32.33
-30.35
-25.49
-18.38
-10.11
-1.78
5.75
12.08
17.19
21.27
24.47
26.89
28.5
29.3
29.38
28.99
28.47
28.17
28.34
29.03
30.12
31.36
32.55
33.54
34.36
35.08
35.74
36.26
36.4
35.92
34.63
32.57
30.04
27.45
25.16
23.29
21.73
20.2
18.47
16.47
14.3
12.13
10.06
8.03
5.92
3.61
1.13
-1.38
-3.79
-6.04
-8.24
-10.55
-13.06
-15.79
-18.63
-21.48
-24.38
-27.46
-30.92
-34.94
-39.6
-44.9
-50.64
-56.35
-61.21
-64.16
-64.14
-60.46
-53.1
-42.79
-30.82
-18.61
-7.28
2.53
10.61
17.02
21.86
25.2
27.1
27.64
27.1
25.83
24.24
22.71
21.51
20.78
20.56
20.83
21.55
22.74
24.45
26.65
29.21
31.78
33.91
35.17
35.31
34.38
32.68
30.61
28.53
26.6
24.81
23
21.04
18.82
16.31
13.53
10.54
7.47
4.42
1.51
-1.25
-3.99
-6.9
-10.15
-13.74
-17.48
-21.02
-24
-26.23
-27.77
-28.94
-30.27
-32.35
-35.65
-40.24
-45.64
-50.74
-54.03
-54.07
-50.03
-42.03
-31.13
-18.96
-7.1
3.34
11.87
18.5
23.32
26.41
27.75
27.49
26
24
22.23
21.27
21.32
22.22
23.58
25.05
26.51
28.01
29.73
31.81
34.17
36.53
38.53
39.82
40.15
39.41
37.58
34.72
30.94
26.47
21.66
16.92
12.63
9
5.91
3.02
-0.07
-3.64
-7.65
-11.84
-15.85
-19.39
-22.36
-24.81
-26.88
-28.76
-30.71
-33.05
-36.15
-40.26
-45.29
-50.66
-55.33
-58.03
-57.67
-53.69
-46.25
-36.15
-24.57
-12.74
-1.68
7.99
15.94
22.08
26.34
28.6
28.72
26.71
22.83
17.67
12.06
6.77
2.26
-1.48
-4.76
-7.98
-11.25
-14.28
-16.47
-17.24
-16.37
-14.19
-11.45
-9.02
-7.58
-7.3
-7.95
-8.99
-9.94
-10.52
-10.81
-11.06
-11.51
-12.26
-13.18
-14
-14.49
-14.58
-14.49
-14.63
-15.46
-17.32
-20.24
-24.01
-28.19
-32.3
-36.01
-39.16
-41.85
-44.3
-46.89
-50.05
-54.24
-59.75
-66.52
-73.93
-80.76
-85.45
-86.57
-83.26
-75.65
-64.77
-52.23
-39.69
-28.42
-19.11
-11.91
-6.64
-2.92
-0.34
1.54
3.13
4.72
6.43
8.21
9.92
11.46
12.87
14.34
16.15
18.44
21.15
24
26.55
28.36
29.13
28.87
27.78
26.19
24.32
22.15
19.47
16
11.63
6.49
0.97
-4.61
-10.1
-15.67
-21.63
-28.22
-35.44
-42.98
-50.48
-57.58
-64.08
-69.77
-74.28
-77.05
-77.39
-74.79
-69.04
-60.4
-49.55
-37.46
-25.19
-13.76
-4
3.5
8.41
10.55
9.9
6.67
1.48
-4.44
-9.29
-11.16
-8.6
-1.37
9.36
21.38
32.28
40.43
45.57
48.79
51.92
56.69
64.09
74.16
86.18
99
111.35
121.88
129.17
131.83
128.87
120.21
107.11
91.99
77.81
67
60.59
57.83
56.62
54.43
49.32
40.64
29.13
16.68
5.64
-1.79
-4.18
-1.24
6.05
15.64
25.03
31.95
35.04
34.1
29.97
24.09
17.91
12.58
8.77
6.82
6.76
8.26
10.44
11.83
10.67
5.44
-4.47
-18.45
-34.85
-51.47
-66.5
-79.04
-89.34
-98.39
-107.33
-116.68
-125.9
-133.49
-137.36
-135.54
-126.82
-111.1
-89.28
-63.12
-34.8
-6.56
19.5
41.82
59.52
72.62
81.86
88.43
93.39
97.3
100.15
101.63
101.7
100.75
99.69
99.44
100.54
102.82
105.57
107.83
108.79
108.04
105.55
101.5
96.06
89.29
81.18
71.82
61.55
50.93
40.67
31.3
23.06
15.88
9.51
3.81
-1.13
-5.02
-7.64
-9.06
-9.8
-10.69
-12.54
-15.81
-20.39
-25.69
-30.98
-35.71
-39.77
-43.46
-47.28
-51.55
-56.1
-60.19
-62.79
-62.94
-60.2
-54.75
-47.28
-38.64
-29.57
-20.63
-12.31
-5.19
0.12
3.16
3.96
3.1
1.52
0.03
-1.07
-2.11
-3.75
-6.56
-10.61
-15.36
-19.91
-23.33
-25.08
-25.12
-23.91
-22.12
-20.41
-19.22
-18.71
-18.82
-19.38
-20.23
-21.19
-21.9
-21.74
-19.89
-15.51
-8.16
1.9
13.66
25.58
36
43.64
47.83
48.58
46.5
42.61
38
33.63
29.97
26.79
23.21
18.05
10.41
0.18
-11.7
-23.51
-33.26
-39.34
-40.77
-37.28
-29.19
-17.31
-2.92
12.25
26.15
36.89
43.17
44.7
42.17
36.95
30.45
23.68
17.09
10.62
4.12
-2.41
-8.59
-13.7
-16.96
-17.83
-16.32
-13.07
-9.24
-6.08
-4.48
-4.54
-5.46
-5.76
-3.82
1.51
10.43
22.07
34.76
46.57
55.92
61.96
64.6
64.33
61.73
57.18
50.85
42.82
33.34
22.97
12.51
2.61
-6.37
-14.61
-22.65
-31.14
-40.62
-51.31
-63.12
-75.54
-87.69
-98.26
-105.79
-109.01
-107.18
-100.43
-89.69
-76.37
-62.01
-47.86
-34.8
-23.27
-13.5
-5.5
0.79
5.57
9.13
11.76
13.72
15.18
16.19
16.71
16.64
15.9
14.53
12.7
10.73
8.98
7.73
7.02
6.68
6.42
5.95
5.1
3.87
2.34
0.68
-0.88
-2.04
-2.47
-1.93
-0.35
1.94
4.39
6.39
7.55
7.92
7.96
8.29
9.26
10.7
11.78
11.33
8.28
2.17
-6.61
-16.96
-27.45
-36.83
-44.32
-49.74
-53.3
-55.43
-56.64
-57.47
-58.49
-60.08
-62.26
-64.39
-65.29
-63.57
-58.24
-49.15
-37.08
-23.38
-9.44
3.77
15.88
26.84
36.55
44.63
50.54
53.88
54.76
54.02
52.92
52.77
54.33
57.55
61.52
64.98
66.78
66.5
64.69
62.65
61.92
63.65
68.09
74.48
81.41
87.4
91.4
93.05
92.44
89.73
84.97
78.02
68.81
57.64
45.14
32.13
19.39
7.4
-3.55
-13.25
-21.4
-27.65
-31.77
-33.9
-34.64
-34.95
-35.85
-38
-41.52
-45.9
-50.28
-53.87
-56.3
-57.82
-59.1
-60.81
-63.17
-65.68
-67.2
-66.3
-61.69
-52.66
-39.15
-21.84
-2
18.57
37.77
53.52
64.13
68.79
67.68
61.95
53.35
43.74
34.72
27.39
22.31
19.56
18.88
19.72
21.41
23.27
24.7
25.39
25.28
24.54
23.37
21.94
20.26
18.25
15.83
13.02
9.99
6.94
4.01
1.1
-2.1
-6.07
-11.22
-17.69
-25.25
-33.3
-41.13
-48.11
-53.9
-58.53
-62.28
-65.52
-68.64
-71.94
-75.64
-79.84
-84.46
-89.04
-92.77
-94.53
-93.25
-88.27
-79.62
-67.93
-54.17
-39.24
-23.71
-7.91
7.81
22.78
35.95
46.19
52.7
55.41
55.07
52.93
50.28
47.98
46.32
45.26
44.73
44.91
46.04
48.16
50.76
52.71
52.69
49.76
43.88
35.98
27.49
19.76
13.5
8.69
4.89
1.62
-1.36
-4.05
-6.3
-7.97
-8.9
-8.96
-8.02
-6.17
-3.91
-2.15
-1.98
-4.22
-9.02
-15.63
-22.7
-28.8
-32.95
-35.02
-35.72
-36.35
-38.35
-42.96
-50.64
-60.86
-71.96
-81.48
-86.88
-86.37
-79.65
-67.98
-53.71
-39.34
-26.66
-16.32
-7.97
-0.88
5.57
11.53
16.87
21.42
24.99
27.3
27.76
25.55
20.06
11.51
1.2
-8.66
-15.76
-18.66
-17.27
-12.71
-6.64
-0.39
5.51
11.23
17.18
23.55
30.08
36.2
41.37
45.36
48.22
50.18
51.36
51.61
50.49
47.4
42
34.54
26.02
17.95
11.76
8.18
6.79
6.14
4.41
0.32
-6.25
-14.16
-21.51
-26.64
-28.81
-28.62
-27.71
-27.97
-30.75
-36.32
-43.83
-51.63
-57.92
-61.32
-61.13
-57.39
-50.64
-41.59
-30.95
-19.39
-7.66
3.43
12.93
20.18
24.95
27.67
29.31
30.92
33.31
36.6
40.32
43.62
45.67
46.04
44.89
42.94
41.18
40.56
41.65
44.41
48.2
52
54.63
55.11
52.93
48.21
41.87
35.34
30.3
28.04
29
32.51
37.08
40.94
42.77
42.23
39.96
37.18
34.95
33.64
32.72
31.09
27.68
22.05
14.66
6.75
-0.2
-5.2
-8.17
-9.93
-11.84
-15.11
-20.27
-26.99
-34.18
-40.49
-44.67
-45.91
-43.96
-39.04
-31.74
-22.88
-13.32
-3.88
4.74
12.04
17.83
22.14
25.2
27.33
28.81
29.8
30.32
30.3
29.58
28.08
25.79
22.8
19.29
15.46
11.6
7.93
4.63
1.77
-0.55
-2.21
-2.99
-2.64
-1.14
1.23
3.82
5.87
6.83
6.73
6.13
5.97
7.1
9.91
14.2
19.38
24.7
29.54
33.43
36.05
37.12
36.39
33.8
29.57
24.25
18.62
13.44
9.14
5.7
2.62
-0.84
-5.31
-10.88
-16.97
-22.42
-25.84
-26.15
-23.05
-17.08
-9.52
-1.91
4.42
8.66
10.62
10.57
8.96
6.14
2.34
-2.36
-7.83
-13.81
-19.87
-25.58
-30.69
-35.27
-39.59
-43.98
-48.7
-53.88
-59.58
-65.78
-72.22
-78.11
-82.02
-82.18
-77.18
-66.64
-51.71
-34.69
-18.2
-4.15
6.87
15.43
22.67
29.52
36.26
42.63
48.21
52.72
56.06
58.06
58.29
56.13
51.12
43.41
33.97
24.27
15.63
8.62
2.74
-3.3
-10.83
-20.59
-32.39
-45.35
-58.36
-70.6
-81.64
-91.25
-99.01
-104.18
-105.81
-103.13
-95.92
-84.75
-70.88
-55.88
-41.28
-28.16
-17.05
-7.95
-0.57
5.5
10.56
14.81
18.37
21.26
23.54
25.22
26.31
26.82
26.9
26.84
27.03
27.82
29.23
30.85
31.93
31.7
29.77
26.35
22.27
18.65
16.39
15.78
16.43
17.42
17.75
16.81
14.63
11.89
9.59
8.63
9.44
11.91
15.52
19.66
23.92
28.11
32.11
35.6
37.91
38.11
35.43
29.59
21.03
10.77
0.08
-10.03
-19
-26.8
-33.68
-39.92
-45.54
-50.26
-53.49
-54.64
-53.32
-49.6
-44.08
-37.85
-32.11
-27.77
-25.06
-23.4
-21.63
-18.51
-13.28
-6.03
2.26
10.12
16.13
19.4
19.74
17.57
13.65
8.85
4.01
-0.05
-2.62
-3.3
-2.14
0.27
2.95
4.97
5.7
5.04
3.33
1.13
-1.05
-2.9
-4.2
-4.89
-4.95
-4.55
-3.98
-3.59
-3.62
-4.09
-4.74
-5.18
-5.11
-4.46
-3.44
-2.43
-1.84
-1.93
-2.78
-4.27
-6.13
-8.02
-9.69
-11.13
-12.64
-14.81
-18.31
-23.47
-29.93
-36.59
-41.88
-44.25
-42.7
-37.11
-28.13
-16.91
-4.73
7.29
18.17
27
32.93
35.21
33.48
27.93
19.49
9.66
0.22
-7.2
-11.62
-12.84
-11.49
-8.69
-5.62
-3.06
-1.24
0.14
1.57
3.44
5.84
8.52
10.97
12.68
13.25
12.56
10.78
8.45
6.24
4.85
4.67
5.58
6.99
7.97
7.61
5.28
0.83
-5.4
-12.63
-19.9
-26.2
-30.88
-33.8
-35.52
-37.06
-39.43
-43.05
-47.32
-50.71
-51.23
-47.29
-38.27
-24.78
-8.36
9.05
25.67
40.16
51.73
60.08
65.31
67.83
68.25
67.22
65.23
62.47
58.96
54.7
49.83
44.81
40.16
36.29
33.23
30.58
27.79
24.51
20.94
17.76
15.88
15.86
17.58
20.18
22.55
23.86
24.08
23.96
24.68
27.1
31.35
36.63
41.54
44.59
44.66
41.26
34.38
24.34
11.65
-3.04
-18.96
-35.27
-51.29
-66.67
-81.46
-95.91
-110.07
-123.41
-134.63
-141.91
-143.39
-137.79
-124.86
-105.47
-81.41
-54.92
-28.3
-3.46
18.23
36.09
50.11
60.71
68.51
73.97
77.23
78.19
76.73
73.05
67.81
62.07
56.93
53.17
50.95
49.85
49.13
48.1
46.28
43.57
40.05
35.88
31.28
26.5
21.85
17.72
14.4
11.96
10.16
8.47
6.3
3.25
-0.7
-5.18
-9.67
-13.73
-17.25
-20.43
-23.62
-27.11
-30.87
-34.64
-38.09
-41.02
-43.55
-46.1
-49.19
-53.26
-58.44
-64.39
-70.35
-75.14
-77.45
-76.12
-70.54
-60.88
-48.12
-33.8
-19.61
-6.9
3.58
11.65
17.57
21.71
24.42
25.93
26.53
26.56
26.44
26.54
27.02
27.79
28.51
28.83
28.62
28.04
27.47
27.36
27.96
29.11
30.39
31.22
31.16
30.11
28.3
26.13
23.94
21.81
19.53
16.69
12.97
8.28
2.93
-2.52
-7.42
-11.28
-13.93
-15.59
-16.74
-17.91
-19.54
-21.81
-24.59
-27.6
-30.53
-33.23
-35.74
-38.2
-40.7
-43.06
-44.87
-45.63
-44.96
-42.76
-39.28
-34.9
-30.02
-24.95
-19.85
-14.81
-9.83
-4.85
0.19
5.28
10.2
14.41
17.05
17.28
14.58
9.09
1.67
-6.27
-13.25
-18.12
-20.44
-20.55
-19.41
-18.2
-17.83
-18.6
-20.11
-21.51
-21.95
-21.03
-18.98
-16.52
-14.52
-13.62
-14.1
-15.92
-18.95
-23.03
-27.95
-33.29
-38.38
-42.53
-45.36
-47.15
-48.86
-51.76
-56.92
-64.82
-75.23
-87.33
-99.92
-111.34
-119.44
-121.8
-116.3
-101.89
-79.27
-50.81
-19.9
10.21
37.3
60.52
80.05
96.38
109.76
120.11
127.33
131.83
134.73
137.55
141.58
147.11
153.05
157.23
157.24
151.4
139.47
122.55
102.45
81.01
59.64
39.36
21.24
6.52
-3.62
-8.53
-8.63
-5.41
-0.92
3.08
5.73
7.09
7.74
8.08
7.94
6.7
3.8
-0.69
-5.85
-10.16
-12.19
-11.31
-7.87
-2.96
2.15
6.56
9.85
11.69
11.6
8.92
3.31
-4.56
-12.59
-17.54
-16.05
-6.41
10.03
28.69
43.21
48.24
42.2
28.43
13.73
5.06
6.03
15.24
27.3
35.95
37.35
31.64
22.15
13.01
6.83
3.73
2.25
0.72
-1.7
-4.91
-8.58
-12.67
-17.57
-23.59
-30.56
-37.71
-43.94
-48.36
-50.48
-50.37
-48.45
-45.33
-41.84
-38.88
-37.33
-37.82
-40.63
-45.7
-52.97
-62.41
-74.04
-87.4
-101.11
-112.71
-119.1
-117.32
-105.41
-82.77
-50.13
-9.26
37.34
86.42
133.99
175.62
207.09
225.53
230.38
223.68
209.62
193.18
178.4
167.03
158.12
148.69
135.25
115.54
89.65
60.16
31.2
6.79
-10.74
-21.79
-29.57
-39.08
-55.39
-81.8
-118.66
-163.13
-209.85
-252.14
-283.16
-296.92
-289.16
-258.48
-207.25
-141.95
-72.18
-8.22
41.96
75
92.59
99.72
101.91
102.75
103.12
101.99
98.13
91.37
82.82
74.1
66.3
59.28
51.88
42.54
30.25
15
-2.08
-19.23
-34.84
-48.18
-59.77
-71.07
-83.84
-99.44
-118.38
-140.23
-163.78
-187.08
-207.46
-221.68
-226.46
-219.51
-200.58
-171.88
-137.54
-102.28
-69.81
-41.95
-18.64
1.08
17.97
31.94
42.09
47.42
47.53
43.03
35.39
26.36
17.28
8.69
0.26
-8.64
-18.27
-27.78
-35.2
-38.05
-34.45
-24.17
-8.9
8.39
24.71
38.26
48.89
57.58
65.44
72.64
78.05
79.75
76.09
66.65
52.82
37.4
23.6
13.97
9.54
9.69
12.69
16.5
19.53
20.99
20.74
18.75
14.79
8.27
-1.44
-14.62
-30.99
-49.67
-69.39
-88.76
-106.48
-121.36
-132.43
-139.01
-140.74
-137.72
-130.46
-119.88
-107.1
-93.32
-79.53
-66.41
-54.26
-42.98
-32.28
-21.73
-10.98
0.09
11.32
22.25
32.35
41.33
49.34
57.06
65.44
75.36
87.19
100.57
114.44
127.48
138.52
146.97
152.86
156.68
159.05
160.4
160.88
160.38
158.78
156.18
152.98
149.69
146.65
143.76
140.42
135.73
128.86
119.35
107.19
92.76
76.71
59.73
42.49
25.58
9.49
-5.49
-19.16
-31.43
-42.13
-50.91
-57.36
-61.05
-61.84
-59.92
-55.89
-50.63
-45.01
-39.72
-35.02
-30.86
-26.98
-23.25
-19.81
-17.08
-15.57
-15.46
-16.47
-17.75
-18.3
-17.38
-14.9
-11.43
-7.91
-5.29
-4.06
-4.28
-5.58
-7.53
-9.78
-12.08
-14.27
-16.12
-17.34
-17.67
-17.1
-15.93
-14.6
-13.54
-12.89
-12.4
-11.7
-10.52
-8.96
-7.54
-6.96
-7.78
-10.2
-14.03
-18.93
-24.61
-30.96
-38.05
-45.86
-54.12
-62.17
-69.04
-73.58
-74.64
-71.29
-62.93
-49.59
-32
-11.7
9.17
28.25
43.4
53.28
57.53
56.92
52.95
47.46
42.1
37.97
35.49
34.48
34.43
34.84
35.42
36.08
36.86
37.66
38.15
37.87
36.38
33.54
29.59
25.08
20.56
16.41
12.69
9.21
5.78
2.34
-0.95
-3.88
-6.34
-8.48
-10.77
-13.77
-17.97
-23.55
-30.38
-38.06
-46.01
-53.62
-60.18
-64.94
-67.21
-66.51
-62.8
-56.61
-48.89
-40.71
-32.96
-26.03
-19.9
-14.29
-8.95
-3.8
1.08
5.59
9.74
13.78
18.13
23.27
29.66
37.52
46.79
57.05
67.54
77.33
85.63
92.02
96.61
99.99
102.84
105.49
107.6
108.15
105.82
99.59
89.23
75.51
59.94
44.24
29.84
17.57
7.67
0.1
-5.35
-9
-11.28
-12.81
-14.39
-16.75
-20.44
-25.76
-32.72
-41.15
-50.61
-60.32
-69.19
-76.01
-79.76
-80.03
-77.12
-71.87
-65.26
-58
-50.39
-42.52
-34.56
-26.99
-20.51
-15.81
-13.14
-12.24
-12.41
-12.86
-12.95
-12.39
-11.18
-9.44
-7.27
-4.66
-1.47
2.43
7.08
12.32
17.73
22.61
26.12
27.58
26.63
23.47
18.88
14.06
10.36
8.97
10.63
15.35
22.47
30.75
38.73
45.14
49.24
50.89
50.4
48.3
44.96
40.59
35.32
29.33
23.03
16.94
11.54
7.15
3.95
2.16
2.07
4.06
8.37
14.79
22.68
30.99
38.59
44.52
48.09
48.83
46.57
41.51
34.42
26.62
19.69
14.78
12.07
10.58
8.64
4.86
-1.1
-8.23
-14.72
-19.01
-20.61
-20.45
-20.33
-21.97
-26.16
-32.32
-38.9
-43.99
-46.23
-45.15
-41.24
-35.61
-29.41
-23.42
-17.89
-12.58
-7.19
-1.77
3.02
5.98
5.82
1.8
-5.85
-15.79
-25.97
-34.26
-39.08
-39.82
-36.79
-30.91
-23.27
-14.8
-6.15
2.27
10.05
16.66
21.39
23.56
22.82
19.44
14.36
9
4.74
2.37
1.82
2.24
2.5
1.8
0.11
-1.91
-3.27
-3.19
-1.57
1.06
3.8
5.79
6.58
6.1
4.52
1.94
-1.68
-6.47
-12.39
-19.03
-25.62
-31.24
-35.18
-37.2
-37.68
-37.41
-37.34
-38.12
-39.86
-42.01
-43.57
-43.46
-40.94
-35.92
-29
-21.21
-13.56
-6.77
-1.08
3.58
7.37
10.3
12.17
12.76
11.96
9.95
7.1
3.83
0.42
-2.99
-6.37
-9.76
-13.1
-16.36
-19.44
-22.33
-24.98
-27.39
-29.58
-31.66
-33.82
-36.34
-39.45
-43.29
-47.81
-52.78
-57.96
-63.18
-68.34
-73.42
-78.28
-82.72
-86.39
-88.91
-89.99
-89.45
-87.19
-83.15
-77.29
-69.56
-60.03
-48.93
-36.77
-24.25
-12.12
-1.01
8.75
17.2
24.65
31.52
38.25
45.08
51.9
58.32
63.81
68.09
71.44
74.79
79.42
86.46
96.24
107.9
119.56
128.96
134.22
134.47
129.88
121.37
109.97
96.44
81.18
64.43
46.57
28.34
10.68
-5.62
-20.3
-33.74
-46.67
-59.65
-72.49
-84.09
-92.93
-97.63
-97.78
-94.1
-88.14
-81.61
-75.75
-71.05
-67.4
-64.42
-61.7
-58.88
-55.39
-50.36
-42.73
-31.7
-17.16
0.03
18.15
35.13
49.23
59.57
66.29
70.38
73.08
75.29
77.11
77.82
76.25
71.37
62.89
51.43
38.42
25.79
15.5
9.17
7.84
11.77
20.28
31.77
44.01
54.63
61.84
64.89
64.28
61.29
57.4
53.59
49.89
45.43
38.84
28.81
14.87
-2.19
-20.24
-36.27
-47.34
-51.52
-48.59
-40.04
-28.53
-16.97
-7.67
-1.76
0.83
1.12
0.59
0.7
2.52
6.58
12.78
20.56
29.08
37.47
45.04
51.23
55.64
57.96
58.04
56.08
52.75
49.19
46.76
46.64
49.38
54.69
61.42
67.94
72.61
74.37
72.98
68.97
63.35
57.17
51.16
45.75
41.12
37.39
34.7
33.1
32.45
32.29
31.95
30.66
27.81
22.93
15.75
6.3
-5.07
-17.64
-30.35
-42.16
-52.42
-61.12
-68.81
-76.15
-83.31
-89.78
-94.45
-96.25
-94.75
-90.42
-84.47
-78.35
-73.13
-69.19
-66.25
-63.65
-60.75
-57.22
-53.13
-48.83
-44.74
-41.07
-37.72
-34.26
-30.12
-24.9
-18.65
-12
-5.8
-0.86
2.53
4.66
6.19
7.81
9.92
12.53
15.39
18.19
20.71
22.83
24.38
25.05
24.47
22.31
18.55
13.61
8.15
2.84
-1.94
-6.32
-10.77
-15.73
-21.4
-27.5
-33.52
-38.99
-43.76
-47.96
-51.7
-54.77
-56.44
-55.8
-52.1
-45.28
-36.02
-25.53
-15.08
-5.56
2.64
9.52
15.26
19.93
23.38
25.36
25.59
24.05
21.04
17.23
13.58
11.03
10.22
11.21
13.48
16.2
18.58
20.31
21.57
22.86
24.44
26.16
27.31
27.12
25.09
21.37
16.62
11.68
7.13
3.04
-0.84
-4.8
-8.9
-12.86
-16.22
-18.61
-19.97
-20.53
-20.71
-20.92
-21.45
-22.5
-24.2
-26.72
-30.15
-34.44
-39.17
-43.59
-46.7
-47.58
-45.73
-41.18
-34.57
-26.79
-18.72
-10.97
-3.88
2.44
7.89
12.26
15.42
17.3
18.1
18.22
18.19
18.43
19.09
20.07
21.09
21.9
22.4
22.6
22.65
22.69
22.75
22.7
22.32
21.41
19.9
17.93
15.78
13.84
12.35
11.38
10.72
10.1
9.23
8.02
6.52
4.92
3.33
1.79
0.22
-1.45
-3.26
-5.13
-6.95
-8.67
-10.29
-11.86
-13.51
-15.42
-17.73
-20.55
-23.75
-26.86
-29.12
-29.7
-27.99
-23.94
-18.15
-11.64
-5.46
-0.32
3.62
6.6
8.92
10.74
11.91
12.18
11.42
9.75
7.57
5.43
3.76
2.81
2.51
2.6
2.8
2.82
2.55
2.02
1.35
0.67
-0
-0.76
-1.81
-3.3
-5.29
-7.66
-10.13
-12.43
-14.42
-16.13
-17.77
-19.58
-21.67
-24.02
-26.46
-28.8
-30.87
-32.55
-33.77
-34.46
-34.66
-34.61
-34.75
-35.65
-37.81
-41.32
-45.69
-49.85
-52.46
-52.36
-49.01
-42.64
-34.13
-24.68
-15.33
-6.74
0.9
7.66
13.73
19.22
24.19
28.62
32.56
36.06
39.13
41.68
43.6
44.83
45.48
45.85
46.39
47.52
49.57
52.55
56.27
60.27
64.03
66.97
68.54
68.29
65.92
61.42
55.12
47.68
40.07
33.27
28.1
25.06
24.23
25.43
28.34
32.55
37.56
42.82
47.75
51.82
54.65
55.94
55.43
52.83
47.95
40.79
31.91
22.4
13.65
6.84
2.42
-0.13
-2.01
-4.36
-7.64
-11.3
-14.1
-14.78
-12.71
-8.19
-2.18
4.24
10.2
15.17
18.56
19.59
17.36
11.39
2.15
-8.81
-19.33
-27.57
-32.81
-35.74
-37.92
-40.97
-45.82
-52.51
-60.43
-68.76
-76.82
-84.06
-89.89
-93.59
-94.45
-92.01
-86.37
-78.14
-68.37
-58.03
-47.81
-37.94
-28.49
-19.65
-11.94
-6.13
-2.82
-1.93
-2.52
-3
-1.8
1.91
7.71
14.1
19.17
21.43
20.41
16.79
11.95
7.39
4.19
2.79
3.05
4.58
6.91
9.74
12.85
16.06
19.08
21.54
23.02
23.18
21.97
19.65
16.82
14.19
12.44
12
12.96
15.16
18.37
22.36
26.92
31.75
36.34
39.97
41.89
41.57
38.98
34.66
29.55
24.69
20.84
18.31
16.97
16.33
15.79
14.8
12.98
10.16
6.31
1.64
-3.49
-8.54
-12.86
-15.85
-17.11
-16.59
-14.6
-11.65
-8.3
-4.94
-1.72
1.41
4.58
7.89
11.35
14.93
18.61
22.36
26.1
29.67
32.84
35.48
37.67
39.82
42.49
46.22
51.2
57.23
63.85
70.53
77.04
83.53
90.37
98.03
106.89
117.23
129.08
141.92
154.36
163.83
166.82
159.76
140.39
108.97
68.68
24.84
-16.71
-51.5
-77.57
-95.46
-107.22
-115.19
-121.04
-125.68
-129.63
-133.33
-137.31
-141.73
-146
-148.66
-147.77
-141.87
-130.75
-115.78
-99.42
-84.32
-72.27
-63.62
-57.46
-52.31
-46.93
-40.87
-34.43
-28.23
-22.64
-17.57
-12.78
-8.3
-4.86
-3.67
-5.9
-12.05
-21.69
-33.64
-46.44
-58.88
-70.15
-79.76
-87.26
-92.3
-94.8
-95.17
-94.44
-93.89
-94.54
-96.66
-99.78
-102.92
-105.14
-105.94
-105.29
-103.49
-100.94
-97.91
-94.44
-90.41
-85.51
-79.31
-71.34
-61.21
-48.83
-34.51
-19
-3.35
11.38
24.41
35.43
44.67
52.73
60.34
68.09
76.21
84.59
93
101.23
109.31
117.39
125.6
133.83
141.62
148.41
153.75
157.55
160.09
161.79
162.94
163.45
162.84
160.38
155.35
147.24
135.87
121.37
104.18
84.97
64.6
44.02
24.16
5.67
-11.18
-26.65
-41.4
-56.22
-71.66
-87.71
-103.73
-118.49
-130.59
-138.84
-142.6
-141.9
-137.33
-129.81
-120.29
-109.68
-98.77
-88.25
-78.67
-70.43
-63.63
-58.16
-53.69
-49.8
-46.05
-42.11
-37.73
-32.8
-27.41
-21.78
-16.22
-10.95
-5.97
-1.07
4.05
9.59
15.46
21.23
26.28
29.94
31.7
31.35
29.03
25.24
20.82
16.7
13.71
12.4
12.9
15.03
18.36
22.34
26.43
30.06
32.73
34.01
33.59
31.39
27.61
22.83
18.04
14.52
13.56
16.09
22.45
32.27
44.7
58.79
73.72
88.9
103.81
117.81
130.08
139.66
145.69
147.64
145.48
139.75
131.44
121.82
112.27
103.93
97.63
93.7
92.05
92.24
93.6
95.33
96.57
96.56
94.76
90.93
85.23
77.94
69.34
59.46
47.99
34.32
17.71
-2.68
-27.62
-57.61
-92.43
-130.71
-169.73
-205.72
-234.79
-253.99
-262.1
-259.84
-249.35
-233.36
-214.41
-194.46
-174.87
-156.54
-140.01
-125.43
-112.5
-100.59
-89.06
-77.53
-66.05
-54.98
-44.85
-36.16
-29.38
-24.88
-22.79
-22.92
-24.58
-26.63
-27.79
-27.09
-24.13
-19.17
-12.79
-5.54
2.25
10.33
18.34
25.6
31.35
35.06
36.73
36.87
36.06
34.55
32.04
28.01
22.3
15.39
8.42
2.62
-1.21
-3.07
-3.56
-3.34
-2.78
-1.85
-0.45
1.2
2.48
2.58
1.06
-1.74
-4.63
-6.09
-4.91
-0.72
5.86
13.46
20.33
24.93
26.3
24.13
18.88
11.55
3.57
-3.5
-8.3
-10.21
-9.65
-8.22
-8.43
-12.92
-23.4
-39.84
-60.2
-81.01
-98.58
-110.32
-115.5
-114.99
-110.42
-103.01
-93.27
-81.17
-66.84
-51.25
-36.24
-24.15
-16.93
-15.44
-19.2
-26.5
-34.97
-42.17
-46.03
-45
-38.19
-25.37
-7.1
15.33
40
64.81
87.91
108.08
124.98
139.05
151.25
162.62
173.96
185.54
196.86
206.63
212.9
213.48
206.69
192.19
171.41
147.29
123.24
101.67
82.94
65.17
45.14
19.88
-11.8
-48.44
-86.22
-119.99
-144.83
-157.46
-157.19
-146.06
-128.13
-108.24
-90.58
-77.66
-69.9
-66.14
-64.47
-63.27
-61.73
-59.85
-58.06
-56.85
-56.53
-57.15
-58.61
-60.66
-62.94
-65.05
-66.66
-67.62
-68
-67.97
-67.76
-67.66
-67.98
-68.95
-70.61
-72.63
-74.35
-74.86
-73.4
-69.68
-64.11
-57.62
-51.48
-46.77
-44.18
-43.77
-45.15
-47.53
-49.9
-51.19
-50.29
-46.37
-39.09
-28.79
-16.43
-3.35
9.15
20.23
29.65
37.65
44.67
51.08
57.03
62.55
67.63
72.21
76.06
78.63
79.06
76.44
70.2
60.58
48.68
36.24
25.09
16.54
11.17
8.78
8.75
10.36
12.97
16.1
19.2
21.71
23.06
22.86
21.09
18.18
14.73
11.28
7.96
4.47
0.24
-5.22
-11.97
-19.55
-27.08
-33.51
-37.93
-39.67
-38.43
-34.21
-27.34
-18.43
-8.29
2.26
12.57
22.25
31.19
39.37
46.7
52.94
57.69
60.59
61.48
60.57
58.43
55.84
53.44
51.57
50.04
48.38
46.19
43.47
40.8
39.14
39.44
42.11
46.86
52.81
58.68
63.08
64.69
62.45
55.81
45.07
31.58
17.71
6.36
0.34
1.74
11.47
29.26
53.89
83.56
116.18
149.33
180.2
205.56
221.92
226.23
216.69
193.6
159.57
119.09
77.21
37.89
2.89
-28.26
-57.21
-85.3
-112.3
-136.21
-153.96
-162.93
-162.15
-152.76
-137.64
-120.22
-103.34
-88.54
-76.15
-65.8
-57.07
-49.91
-44.47
-40.87
-38.84
-37.67
-36.47
-34.61
-32.04
-29.41
-27.74
-27.96
-30.45
-34.74
-39.58
-43.28
-44.2
-41.33
-34.65
-25.11
-14.23
-3.6
5.69
13.23
19.2
23.94
27.6
29.99
30.68
29.42
26.36
22.26
18.22
15.29
14.11
14.65
16.27
18.03
18.98
18.44
16.16
12.3
7.3
1.78
-3.59
-8.24
-11.73
-13.86
-14.69
-14.49
-13.74
-13.04
-12.98
-13.96
-16.01
-18.73
-21.27
-22.68
-22.16
-19.43
-14.8
-9.03
-2.99
2.62
7.43
11.35
14.43
16.67
18.02
18.39
17.78
16.33
14.27
11.84
9.31
6.91
4.87
3.35
2.45
2.09
2.05
2
1.64
0.77
-0.57
-2.21
-3.87
-5.33
-6.51
-7.57
-8.82
-10.63
-13.26
-16.73
-20.67
-24.43
-27.18
-28.08
-26.61
-22.63
-16.53
-9.11
-1.38
5.65
11.35
15.51
18.37
20.35
21.88
23.09
23.86
23.97
23.24
21.77
19.88
18.03
16.57
15.63
15.12
14.78
14.35
13.62
12.49
10.88
8.78
6.18
3.13
-0.33
-4.08
-8.05
-12.14
-16.28
-20.33
-24.04
-27.03
-28.83
-29.05
-27.52
-24.36
-19.91
-14.63
-8.95
-3.18
2.41
7.56
11.94
15.16
16.93
17.15
16
13.94
11.57
9.43
7.89
7.09
6.96
7.26
7.76
8.17
8.3
8
7.24
6.08
4.66
3.14
1.64
0.14
-1.44
-3.24
-5.32
-7.62
-9.91
-11.85
-13.06
-13.23
-12.12
-9.69
-6.1
-1.68
3.06
7.63
11.6
14.75
17.05
18.63
19.69
20.4
20.85
21.05
20.97
20.58
19.83
18.75
17.38
15.86
14.41
13.27
12.64
12.56
12.85
13.09
12.75
11.39
8.8
5.15
0.95
-3.14
-6.52
-8.89
-10.35
-11.32
-12.4
-14.05
-16.37
-19.03
-21.36
-22.56
-21.9
-19
-13.87
-7.04
0.61
7.99
14.11
18.37
20.7
21.48
21.33
20.82
20.26
19.74
19.24
18.75
18.37
18.2
18.28
18.45
18.44
17.94
16.82
15.09
12.96
10.75
8.76
7.2
6.14
5.41
4.75
3.85
2.46
0.59
-1.56
-3.7
-5.57
-7.12
-8.42
-9.71
-11.2
-13.08
-15.39
-18.1
-20.94
-23.45
-25.01
-25.04
-23.18
-19.46
-14.34
-8.47
-2.54
2.99
7.89
12.09
15.54
18.18
19.93
20.79
20.86
20.33
19.39
18.23
17.02
15.9
14.99
14.33
13.85
13.38
12.74
11.85
10.78
9.7
8.77
8.07
7.48
6.82
5.87
4.54
2.82
0.81
-1.35
-3.52
-5.57
-7.43
-9.05
-10.5
-11.89
-13.41
-15.22
-17.47
-20.17
-23.15
-25.98
-28.07
-28.76
-27.56
-24.34
-19.38
-13.34
-6.98
-0.99
4.22
8.46
11.68
13.9
15.13
15.44
15.02
14.15
13.17
12.3
11.59
10.96
10.26
9.43
8.55
7.8
7.31
7.08
6.95
6.69
6.13
5.22
4.1
2.95
1.91
1.03
0.18
-0.77
-1.92
-3.26
-4.75
-6.28
-7.78
-9.23
-10.66
-12.07
-13.48
-14.9
-16.34
-17.9
-19.71
-21.78
-23.96
-25.82
-26.75
-26.12
-23.57
-19.14
-13.32
-6.9
-0.71
4.57
8.61
11.37
13.01
13.75
13.79
13.27
12.35
11.25
10.18
9.36
8.88
8.67
8.5
8.18
7.55
6.64
5.61
4.64
3.88
3.34
2.92
2.47
1.88
1.13
0.24
-0.73
-1.79
-2.95
-4.3
-5.83
-7.49
-9.12
-10.55
-11.67
-12.5
-13.18
-13.99
-15.21
-17.05
-19.53
-22.38
-25.1
-26.99
-27.43
-26.08
-22.96
-18.55
-13.5
-8.48
-3.96
-0.14
3.03
5.68
7.9
9.68
10.97
11.67
11.74
11.31
10.56
9.78
9.19
8.93
8.97
9.2
9.46
9.63
9.68
9.62
9.47
9.2
8.73
7.97
6.84
5.36
3.59
1.62
-0.46
-2.62
-4.88
-7.21
-9.57
-11.87
-14
-15.92
-17.72
-19.56
-21.62
-23.89
-26.12
-27.79
-28.27
-27.04
-23.89
-19.06
-13.09
-6.73
-0.64
4.67
8.96
12.15
14.29
15.44
15.71
15.22
14.15
12.74
11.28
10.1
9.39
9.24
9.52
9.93
10.1
9.76
8.85
7.52
6.08
4.77
3.69
2.75
1.7
0.3
-1.52
-3.7
-5.98
-8.11
-9.9
-11.27
-12.34
-13.3
-14.37
-15.8
-17.73
-20.29
-23.4
-26.86
-30.19
-32.75
-33.81
-32.77
-29.41
-23.93
-16.94
-9.32
-1.97
4.41
9.39
12.87
14.96
15.91
16.01
15.51
14.63
13.52
12.3
11.11
10.08
9.32
8.79
8.36
7.82
7
5.82
4.36
2.76
1.15
-0.4
-1.9
-3.38
-4.87
-6.44
-8.18
-10.16
-12.43
-14.89
-17.27
-19.3
-20.86
-22.05
-23.27
-25.06
-27.78
-31.42
-35.43
-38.81
-40.47
-39.64
-36.22
-30.87
-24.75
-19.05
-14.52
-11.21
-8.58
-5.92
-2.8
0.73
4.22
7.17
9.35
10.84
11.74
11.88
10.49
6.39
-1.65
-14.41
-31.95
-53.63
-78.38
-104.87
-131.48
-156.08
-175.86
-187.45
-187.61
-173.99
-145.95
-104.7
-52.7
7.25
72.74
141.75
211.94
279.82
340.44
388.25
418.66
429.8
423.25
403.58
376.58
347.31
318.75
291.67
265.56
239.8
214.4
189.87
166.44
143.3
118.38
88.94
52.48
7.78
-44.49
-101.72
-159.71
-213.42
-257.89
-289.21
-305.28
-306.17
-294.04
-272.64
-246.57
-220.47
-198.25
-182.42
-173.68
-170.85
-171.32
-171.98
-170.18
-164.55
-155.07
-142.72
-128.89
-115.02
-102.37
-92.03
-84.7
-80.37
-78.17
-76.49
-73.57
-68.12
-59.74
-48.92
-36.71
-24.39
-13.09
-3.68
3.44
8.32
11.44
13.42
14.77
15.67
16.03
15.77
15.09
14.52
14.68
15.87
17.85
19.86
20.97
20.52
18.44
15.16
11.41
7.81
4.72
2.16
-0.01
-2.05
-4.18
-6.55
-9.35
-12.75
-16.85
-21.46
-26.03
-29.72
-31.63
-31.12
-28.07
-22.91
-16.39
-9.25
-2.11
4.67
10.82
16.05
20.01
22.45
23.31
22.85
21.57
20.08
18.89
18.34
18.52
19.3
20.43
21.52
22.29
22.52
22.16
21.32
20.14
18.72
17.07
15.11
12.8
10.16
7.3
4.3
1.15
-2.27
-6.06
-10.12
-13.89
-16.46
-16.67
-13.65
-7.13
2.35
13.58
24.96
34.96
42.51
47.08
48.82
48.47
47.06
45.73
45.3
45.94
47.1
47.7
46.62
43.41
38.65
33.89
31.13
31.92
36.6
43.93
51.32
55.58
53.92
44.9
28.96
8.42
-13.06
-31.37
-43.05
-46.06
-40.16
-26.79
-8.56
11.47
30.37
45.9
56.87
63.3
66.19
66.86
66.05
63.42
57.91
48.83
37.01
25.12
16.69
14.35
18.34
26.38
35.1
41.98
46.59
50.16
53.88
57.28
58.03
53.58
43.23
29.39
16.59
8.99
7.83
10.57
12.08
7.26
-6.56
-28.76
-56.4
-86.17
-115.79
-144.24
-170.76
-193.58
-209.51
-214.69
-206.29
-184.01
-150.81
-112.17
-74.39
-42.62
-19.21
-3.43
7.63
17.42
28.18
40.06
51.36
59.84
64.13
64.71
63.6
63.31
65.39
69.77
74.93
79.1
81.43
82.59
84.59
89.65
99.11
112.72
128.69
144.36
156.92
164.23
165.05
159.23
147.57
131.73
113.93
96.53
81.54
70.11
62.01
55.61
48.31
37.51
21.84
2.13
-18.22
-34.29
-41.43
-37.49
-24.02
-5.87
10.77
21.07
23.37
19.32
12.25
5.23
-0.32
-4.49
-7.78
-9.95
-9.76
-5.69
2.83
14.75
27.59
38.5
45.52
48.28
47.86
46.14
44.76
44.46
44.91
45.09
43.97
41.16
37.15
33.09
30.32
29.69
31.34
34.74
39.04
43.39
47.26
50.43
52.91
54.74
55.67
55.02
51.63
44.3
32.4
16.43
-1.96
-20.73
-38.45
-54.94
-71.13
-88.11
-105.98
-123.5
-138.61
-149.63
-155.99
-158.19
-156.99
-152.66
-144.98
-133.89
-120.42
-106.9
-96.13
-90.18
-89.41
-92.39
-96.67
-99.93
-100.64
-98.22
-92.73
-84.55
-74.32
-63.05
-52
-42.41
-35.02
-29.78
-25.97
-22.58
-18.72
-14.01
-8.52
-2.61
3.35
9.14
14.65
19.76
24.17
27.57
29.78
31
31.85
33.11
35.32
38.48
41.99
44.97
46.65
46.73
45.36
42.86
39.35
34.66
28.36
20.2
10.46
0.06
-9.56
-16.75
-20.1
-18.75
-12.54
-2.1
11.29
25.84
39.63
50.89
58.45
62.03
62.38
61.13
60.29
61.65
66.05
73
80.69
86.53
88.01
83.49
72.78
57.19
39.19
21.76
7.69
-0.99
-3.47
-0.35
6.5
14.46
20.94
24.28
24.25
22.05
19.61
18.54
19.25
20.75
21.38
19.83
16.11
11.6
8.17
6.99
7.77
9.04
9.21
7.67
5.07
2.66
1.1
-0.25
-2.94
-8.24
-16.05
-24.59
-31.24
-33.95
-32.32
-27.6
-21.94
-17.24
-14.4
-13.26
-13.08
-12.97
-12.31
-10.62
-7.51
-2.65
4.05
12.27
21.2
29.77
37.03
42.61
46.84
50.61
54.93
60.38
66.72
72.88
77.25
78.39
75.55
69.03
59.99
49.98
40.22
31.32
23.16
15.3
7.38
-0.6
-8.38
-15.69
-22.53
-29.16
-35.96
-43.1
-50.43
-57.55
-63.96
-69.29
-73.43
-76.46
-78.8
-81.1
-84.06
-88.24
-93.74
-99.98
-105.83
-109.98
-111.42
-109.92
-106.11
-101.26
-96.84
-94
-93.18
-94.08
-95.82
-97.33
-97.86
-97.28
-96.11
-95.4
-96.2
-99.11
-103.98
-109.92
-115.59
-119.75
-121.61
-121.32
-120.08
-120.01
-123.7
-133.52
-150.66
-174.3
-201.24
-226.31
-243.49
-247.42
-234.78
-204.95
-159.91
-103.54
-40.82
23.03
83.12
135.38
177.02
206.92
225.58
234.69
236.3
231.99
222.46
207.75
187.83
163.25
135.26
105.71
76.61
49.89
27.02
8.77
-5.01
-15.47
-24.59
-34.41
-46.28
-60.19
-74.86
-88.47
-99.61
-107.76
-113.1
-115.85
-115.62
-111.25
-101.23
-84.34
-60.14
-29.06
7.67
48.19
90.13
130.79
167.6
198.6
222.92
240.84
253.48
262.21
268.09
271.74
273.44
273.22
270.86
265.63
256.08
240.16
215.7
181.13
135.97
81.14
18.95
-47.1
-112.68
-173.31
-225.11
-265.57
-293.9
-310.99
-318.91
-320.06
-316.27
-308.27
-295.68
-277.58
-253.26
-222.98
-188.27
-151.63
-115.77
-82.69
-53.45
-28.29
-7.38
8.82
19.87
26.55
31.79
40.16
55.95
80.38
110
137.45
154.55
156.01
141.88
117.28
89.79
66.33
50.99
44.81
46.61
54.15
64.55
74.59
80.93
80.91
73.52
59.87
42.77
25.61
11.15
1.07
-4.23
-5.13
-2.74
1.41
5.41
7.53
6.71
3.04
-2.28
-7.36
-10.41
-10.25
-6.67
-0.42
6.9
13.18
16.43
15.43
10.37
3.05
-3.75
-7.28
-5.84
0.69
10.9
22.53
33.25
41.48
46.78
49.95
52.71
57.23
65.31
77.65
93.47
110.48
125.66
136.28
140.96
140.08
135.69
130.71
127.98
129.41
135.29
144.02
152.41
156.43
152.55
139.05
116.74
88.68
58.94
30.81
5.64
-17.29
-39.81
-63.46
-88.42
-113.2
-135.17
-151.35
-159.32
-157.78
-147.27
-130.2
-110.47
-92.38
-79.17
-72.05
-70.01
-70.76
-71.91
-71.72
-69.12
-63.26
-53.41
-39.36
-22.07
-3.95
11.88
22.93
28.35
29.09
26.82
22.5
15.57
4.59
-11.53
-32.35
-55.89
-79.8
-102.6
-124.11
-144.39
-162.32
-175
-178.88
-171.75
-154.47
-130.86
-105.82
-82.75
-62.2
-42.41
-21.42
0.78
21.79
38.03
46.91
48.31
44.43
38.41
32.68
28.25
24.92
22.2
19.91
18.21
17.33
17.19
17.2
16.49
14.4
10.76
5.93
0.53
-4.89
-10.17
-15.53
-21.34
-27.68
-34.05
-39.4
-42.48
-42.32
-38.68
-32.14
-23.98
-15.61
-8.23
-2.41
1.86
4.95
7.32
9.21
10.58
11.25
11.09
10.2
8.95
7.86
7.33
7.49
8.12
8.85
9.42
9.83
10.37
11.34
12.8
14.44
15.73
16.32
16.29
16.19
16.74
18.42
21.19
24.49
27.37
28.86
28.11
24.54
17.88
8.26
-3.62
-16.47
-28.55
-38.05
-43.52
-44.3
-40.51
-32.96
-22.78
-11.16
0.81
12.32
22.81
31.95
39.63
45.89
50.87
54.79
57.91
60.49
62.71
64.7
66.57
68.46
70.66
73.5
77.16
81.46
85.73
89.06
90.67
90.15
87.57
83.16
77.04
69.01
58.73
46
30.97
14.16
-3.71
-21.89
-39.64
-56.07
-70.13
-80.74
-87.16
-89.41
-88.36
-85.55
-82.65
-80.98
-81.17
-83.15
-86.32
-89.75
-92.39
-93.26
-91.72
-87.55
-81.04
-72.91
-64.02
-55.2
-47.01
-39.7
-33.37
-28
-23.6
-20.17
-17.62
-15.76
-14.34
-13.15
-12.15
-11.42
-11.13
-11.46
-12.59
-14.66
-17.69
-21.55
-25.72
-29.37
-31.4
-30.81
-27.02
-20.13
-10.91
-0.53
9.73
18.85
26.19
31.53
34.93
36.64
36.98
36.26
34.81
32.93
30.86
28.82
26.93
25.26
23.79
22.45
21.14
19.76
18.21
16.45
14.47
12.26
9.89
7.4
4.82
2.21
-0.45
-3.24
-6.32
-9.94
-14.3
-19.43
-25
-30.25
-34.16
-35.66
-34.04
-29.21
-21.77
-12.74
-3.32
5.54
13.26
19.67
24.77
28.61
31.2
32.51
32.57
31.58
29.8
27.58
25.26
23.13
21.35
20
19.01
18.18
17.26
16.05
14.42
12.48
10.39
8.35
6.45
4.66
2.82
0.74
-1.72
-4.68
-8.21
-12.25
-16.58
-20.71
-23.94
-25.46
-24.64
-21.2
-15.39
-7.95
0.14
7.89
14.6
19.91
23.82
26.48
28.09
28.8
28.69
27.87
26.56
25.09
23.77
22.86
22.41
22.33
22.39
22.32
21.92
21.09
19.79
18.08
16.07
13.92
11.82
9.94
8.34
6.96
5.55
3.75
1.13
-2.57
-7.29
-12.55
-17.49
-21.12
-22.66
-21.94
-19.51
-16.4
-13.7
-12.17
-11.85
-12.17
-12.33
-11.6
-9.66
-6.54
-2.55
1.98
6.75
11.41
15.6
18.86
20.86
21.52
21.04
19.9
18.63
17.65
17.16
17.15
17.54
18.2
18.98
19.74
20.33
20.62
20.63
20.47
20.26
20.06
19.77
19.14
17.91
15.99
13.49
10.73
8.06
5.66
3.5
1.33
-1.09
-3.9
-6.96
-10.02
-12.78
-15.08
-16.99
-18.72
-20.58
-22.86
-25.75
-29.31
-33.42
-37.71
-41.54
-44.08
-44.52
-42.29
-37.31
-30.03
-21.29
-12.07
-3.24
4.65
11.32
16.7
20.82
23.71
25.43
26.08
25.85
25.03
23.9
22.74
21.75
21.03
20.57
20.3
20.11
19.9
19.6
19.25
18.91
18.61
18.34
17.96
17.3
16.19
14.61
12.69
10.66
8.77
7.1
5.56
3.96
2.04
-0.32
-3.08
-6.07
-9.04
-11.79
-14.2
-16.27
-18.08
-19.83
-21.74
-24.06
-27.02
-30.65
-34.69
-38.54
-41.36
-42.31
-40.81
-36.74
-30.5
-22.81
-14.46
-6.2
1.46
8.15
13.65
17.82
20.59
22.02
22.32
21.79
20.77
19.61
18.59
17.87
17.51
17.51
17.76
18.14
18.5
18.76
18.89
18.88
18.74
18.45
17.92
17.05
15.75
14.01
11.91
9.65
7.4
5.3
3.35
1.44
-0.54
-2.68
-5
-7.47
-10
-12.52
-14.94
-17.19
-19.24
-21.13
-23.03
-25.23
-28.04
-31.62
-35.76
-39.87
-42.99
-44.14
-42.6
-38.18
-31.31
-22.86
-13.88
-5.3
2.26
8.48
13.3
16.75
18.93
19.98
20.1
19.58
18.71
17.74
16.87
16.2
15.75
15.48
15.31
15.16
15
14.81
14.63
14.46
14.25
13.89
13.23
12.17
10.75
9.1
7.4
5.74
4.09
2.31
0.2
-2.35
-5.36
-8.71
-12.18
-15.51
-18.49
-21.03
-23.2
-25.23
-27.47
-30.23
-33.64
-37.52
-41.32
-44.31
-45.67
-44.84
-41.58
-36.1
-28.91
-20.72
-12.23
-4.06
3.35
9.67
14.76
18.56
21.14
22.64
23.24
23.13
22.51
21.58
20.54
19.56
18.74
18.13
17.69
17.38
17.16
17.05
17.09
17.3
17.59
17.76
17.5
16.54
14.78
12.36
9.66
7.1
4.96
3.18
1.45
-0.63
-3.34
-6.68
-10.4
-14.11
-17.51
-20.52
-23.23
-25.86
-28.64
-31.77
-35.34
-39.36
-43.61
-47.61
-50.64
-51.83
-50.46
-46.23
-39.35
-30.55
-20.81
-11.11
-2.13
5.75
12.41
17.81
21.92
24.65
26.03
26.22
25.57
24.49
23.38
22.49
21.88
21.51
21.33
21.26
21.32
21.52
21.87
22.34
22.87
23.32
23.52
23.32
22.62
21.37
19.66
17.64
15.47
13.23
10.94
8.54
5.93
3.06
-0.06
-3.38
-6.77
-10.07
-13.17
-15.96
-18.45
-20.75
-23.14
-25.99
-29.65
-34.27
-39.69
-45.31
-50.24
-53.45
-54.09
-51.67
-46.27
-38.45
-29.11
-19.25
-9.74
-1.21
6.05
11.97
16.65
20.19
22.7
24.28
25.04
25.18
24.97
24.67
24.48
24.51
24.73
25.11
25.6
26.2
26.91
27.67
28.37
28.86
28.98
28.67
27.9
26.7
25.12
23.21
21.04
18.72
16.38
14.13
12
9.87
7.55
4.88
1.77
-1.67
-5.23
-8.68
-11.86
-14.74
-17.43
-20.11
-22.99
-26.27
-30.14
-34.64
-39.62
-44.53
-48.5
-50.48
-49.59
-45.44
-38.32
-29.12
-19.01
-9.07
-0.06
7.65
13.99
19.01
22.81
25.47
27.11
27.88
27.94
27.44
26.53
25.38
24.17
23.16
22.53
22.37
22.64
23.21
23.88
24.52
25.01
25.28
25.26
24.87
24.01
22.64
20.78
18.56
16.16
13.77
11.52
9.38
7.2
4.74
1.8
-1.64
-5.44
-9.34
-13.03
-16.36
-19.31
-22.05
-24.82
-27.92
-31.63
-36.08
-41.18
-46.49
-51.16
-54.12
-54.36
-51.21
-44.69
-35.39
-24.39
-12.89
-1.95
7.68
15.57
21.56
25.68
28.1
29.11
29.1
28.48
27.62
26.79
26.1
25.58
25.19
24.83
24.42
23.91
23.38
22.93
22.67
22.61
22.61
22.36
21.52
19.87
17.42
14.38
11.15
8.06
5.26
2.7
0.12
-2.79
-6.18
-10.06
-14.2
-18.26
-21.96
-25.16
-27.98
-30.71
-33.75
-37.41
-41.87
-47.04
-52.49
-57.51
-61.1
-62.21
-59.93
-53.83
-44.06
-31.38
-16.91
-1.88
12.7
26.11
37.91
47.87
55.86
61.88
66.04
68.63
70.06
70.75
71.07
71.17
71.11
70.82
70.19
69.15
67.62
65.47
62.48
58.39
53
46.26
38.41
29.91
21.34
13.28
6.08
-0.17
-5.69
-10.87
-16.17
-21.92
-28.23
-34.96
-41.72
-47.97
-53.17
-56.92
-59.13
-60.06
-60.3
-60.65
-61.82
-64.23
-67.81
-71.89
-75.34
-76.85
-75.29
-70.05
-61.23
-49.62
-36.39
-22.84
-10
1.46
11.22
19.21
25.43
29.95
32.87
34.45
35.02
34.93
34.44
33.7
32.75
31.66
30.5
29.44
28.66
28.28
28.31
28.64
29.07
29.31
29.07
28.1
26.25
23.59
20.37
17.03
14.03
11.62
9.81
8.28
6.56
4.19
1
-2.93
-7.25
-11.52
-15.39
-18.73
-21.7
-24.64
-28.02
-32.2
-37.33
-43.17
-49.11
-54.22
-57.39
-57.65
-54.36
-47.54
-37.8
-26.25
-14.15
-2.61
7.66
16.38
23.51
29.07
32.99
35.13
35.47
34.3
32.18
29.78
27.69
26.18
25.24
24.67
24.27
23.96
23.77
23.7
23.75
23.79
23.65
23.19
22.34
21.1
19.55
17.75
15.77
13.68
11.53
9.37
7.21
5.02
2.71
0.14
-2.82
-6.25
-9.98
-13.75
-17.2
-20.11
-22.55
-24.83
-27.46
-30.9
-35.43
-40.91
-46.83
-52.31
-56.3
-57.73
-55.84
-50.38
-41.73
-30.85
-19.02
-7.51
2.73
11.19
17.72
22.41
25.4
26.91
27.18
26.53
25.37
24.06
22.94
22.2
21.88
21.91
22.18
22.5
22.76
22.83
22.65
22.2
21.45
20.29
18.61
16.34
13.55
10.44
7.34
4.5
1.97
-0.43
-3
-5.97
-9.42
-13.16
-16.92
-20.45
-23.66
-26.62
-29.6
-32.89
-36.73
-41.24
-46.23
-51.19
-55.28
-57.47
-56.79
-52.68
-45.13
-34.68
-22.4
-9.49
2.89
13.88
22.89
29.73
34.44
37.26
38.49
38.53
37.74
36.46
35.03
33.69
32.62
31.9
31.51
31.34
31.27
31.16
30.94
30.62
30.21
29.72
29.05
27.98
26.27
23.74
20.45
16.7
12.93
9.51
6.58
3.95
1.23
-1.95
-5.73
-9.97
-14.32
-18.36
-21.88
-24.84
-27.41
-29.83
-32.34
-35.21
-38.65
-42.82
-47.61
-52.42
-56.23
-57.76
-55.89
-50.14
-40.85
-29.12
-16.45
-4.24
6.56
15.55
22.72
28.27
32.42
35.29
37.01
37.74
37.71
37.2
36.44
35.59
34.71
33.78
32.79
31.75
30.75
29.93
29.35
29
28.76
28.42
27.73
26.5
24.66
22.31
19.63
16.88
14.25
11.85
9.66
7.59
5.49
3.27
0.83
-1.86
-4.78
-7.91
-11.19
-14.54
-17.89
-21.19
-24.47
-27.84
-31.52
-35.71
-40.6
-46.11
-51.79
-56.77
-59.94
-60.24
-57.09
-50.57
-41.45
-30.87
-19.97
-9.57
-0.04
8.57
16.29
23.08
28.76
33.17
36.22
38.07
39.01
39.39
39.51
39.55
39.58
39.56
39.47
39.27
38.97
38.6
38.15
37.59
36.85
35.83
34.45
32.7
30.64
28.36
25.94
23.4
20.72
17.88
14.88
11.81
8.81
5.96
3.25
0.6
-2.13
-5
-7.96
-10.85
-13.51
-15.86
-17.96
-20.01
-22.27
-24.97
-28.27
-32.27
-36.88
-41.86
-46.64
-50.41
-52.2
-51.23
-47.16
-40.29
-31.5
-21.94
-12.69
-4.47
2.4
7.94
12.23
15.38
17.44
18.48
18.65
18.19
17.35
16.33
15.24
14.16
13.1
12.12
11.33
10.79
10.5
10.36
10.19
9.82
9.16
8.26
7.25
6.26
5.31
4.26
2.89
1.04
-1.32
-4.05
-6.93
-9.75
-12.42
-14.98
-17.51
-20.13
-22.95
-26.09
-29.71
-33.91
-38.56
-43.18
-46.89
-48.62
-47.46
-43.07
-35.83
-26.72
-17.01
-7.82
0.16
6.75
12.04
16.18
19.23
21.12
21.81
21.4
20.16
18.46
16.71
15.2
14.13
13.56
13.44
13.62
13.89
14.06
14
13.64
12.98
12.04
10.76
9.07
6.9
4.3
1.39
-1.61
-4.52
-7.3
-10.03
-12.9
-16.05
-19.54
-23.35
-27.44
-31.82
-36.54
-41.58
-46.7
-51.38
-54.88
-56.39
-55.35
-51.58
-45.34
-37.26
-28.16
-18.84
-10.02
-2.31
3.85
8.18
10.64
11.45
11.02
9.86
8.4
6.92
5.57
4.39
3.36
2.53
1.9
1.6
1.77
2.62
4.37
7.15
10.88
15.23
19.7
23.67
26.64
28.29
28.5
27.31
24.85
21.32
16.91
11.9
6.55
1.19
-3.94
-8.63
-12.89
-16.95
-21.24
-26.27
-32.3
-39.1
-45.83
-51.2
-53.91
-53.11
-48.7
-41.36
-32.23
-22.51
-13.11
-4.5
3.19
9.93
15.68
20.34
23.8
26.11
27.47
28.22
28.69
29.11
29.54
29.91
30.1
30.05
29.78
29.42
29.09
28.92
28.93
29.03
29.03
28.67
27.71
26.03
23.71
21
18.25
15.74
13.53
11.47
9.24
6.58
3.36
-0.35
-4.35
-8.44
-12.41
-16.14
-19.53
-22.59
-25.41
-28.29
-31.6
-35.75
-40.86
-46.63
-52.29
-56.75
-58.89
-57.92
-53.57
-46.18
-36.53
-25.65
-14.57
-4.15
5.05
12.7
18.77
23.35
26.64
28.87
30.31
31.17
31.62
31.8
31.74
31.43
30.89
30.13
29.26
28.46
27.93
27.79
28.08
28.61
29.15
29.44
29.27
28.53
27.22
25.39
23.12
20.5
17.63
14.61
11.57
8.62
5.79
3.09
0.46
-2.16
-4.83
-7.58
-10.41
-13.29
-16.19
-19.05
-21.87
-24.72
-27.75
-31.21
-35.36
-40.3
-45.86
-51.43
-56.04
-58.52
-57.88
-53.68
-46.15
-36.22
-25.13
-14.11
-4.06
4.56
11.64
17.28
21.63
24.84
27.08
28.55
29.46
30.01
30.35
30.54
30.59
30.49
30.25
29.9
29.52
29.16
28.86
28.57
28.2
27.65
26.81
25.65
24.17
22.42
20.41
18.18
15.78
13.34
10.96
8.71
6.56
4.37
1.92
-0.94
-4.22
-7.79
-11.39
-14.78
-17.81
-20.5
-22.96
-25.46
-28.3
-31.79
-36.17
-41.4
-47.12
-52.56
-56.67
-58.35
-56.81
-51.78
-43.67
-33.4
-22.13
-11
-0.8
8.01
15.32
21.17
25.64
28.76
30.55
31.14
30.76
29.76
28.52
27.36
26.44
25.78
25.33
24.97
24.64
24.33
24.09
23.98
24.01
24.1
24.05
23.65
22.7
21.15
19.08
16.71
14.28
11.94
9.72
7.49
5.02
2.14
-1.27
-5.14
-9.26
-13.33
-17.06
-20.27
-22.99
-25.36
-27.7
-30.36
-33.69
-37.93
-42.97
-48.36
-53.2
-56.37
-56.8
-53.83
-47.46
-38.35
-27.66
-16.63
-6.3
2.71
10.2
16.27
21.13
24.94
27.8
29.74
30.79
31.05
30.7
29.94
28.95
27.87
26.8
25.83
25.08
24.68
24.7
25.07
25.61
26.06
26.2
25.87
25.08
23.9
22.47
20.89
19.24
17.5
15.59
13.38
10.81
7.88
4.72
1.51
-1.58
-4.47
-7.25
-10.08
-13.07
-16.24
-19.48
-22.62
-25.57
-28.36
-31.17
-34.26
-37.86
-42.1
-46.83
-51.63
-55.72
-58.15
-57.98
-54.65
-48.16
-39.14
-28.64
-17.84
-7.68
1.28
8.9
15.18
20.25
24.16
26.97
28.76
29.76
30.2
30.32
30.24
29.99
29.52
28.83
28.05
27.37
27
27.05
27.42
27.87
28.09
27.86
27.06
25.72
23.95
21.9
19.71
17.49
15.32
13.25
11.23
9.12
6.81
4.24
1.45
-1.39
-4.12
-6.69
-9.14
-11.65
-14.36
-17.35
-20.55
-23.84
-27.09
-30.24
-33.38
-36.68
-40.34
-44.44
-48.83
-53.01
-56.14
-57.29
-55.66
-50.9
-43.31
-33.69
-23.12
-12.61
-2.91
5.57
12.7
18.49
22.99
26.33
28.64
30.11
30.96
31.37
31.47
31.32
30.97
30.43
29.8
29.19
28.73
28.52
28.53
28.63
28.62
28.24
27.37
26.01
24.31
22.47
20.67
18.93
17.16
15.23
12.99
10.43
7.67
4.89
2.28
-0.06
-2.22
-4.43
-6.94
-9.92
-13.33
-16.96
-20.5
-23.66
-26.28
-28.33
-29.96
-31.47
-33.28
-35.83
-39.37
-43.8
-48.46
-52.24
-53.85
-52.28
-47.14
-38.82
-28.25
-16.65
-5.13
5.5
14.79
22.54
28.78
33.68
37.49
40.51
43.01
45.19
47.16
48.98
50.7
52.41
54.26
56.41
59.01
62.11
65.72
69.78
74.12
78.59
83.05
87.42
91.76
96.29
101.34
107.22
113.94
121.1
127.86
133.15
135.98
135.78
132.55
126.69
118.74
109.01
97.44
83.66
67.33
48.38
27.27
4.93
-17.4
-38.38
-56.84
-71.83
-82.72
-89.18
-91.19
-89.05
-83.33
-74.83
-64.44
-53.08
-41.63
-31.03
-22.24
-16.16
-13.48
-14.39
-18.56
-25.14
-33.12
-41.67
-50.37
-59.17
-68.18
-77.34
-86.37
-94.93
-102.85
-110.34
-117.94
-126.31
-136.11
-147.91
-162.06
-178.63
-197.05
-216.02
-233.58
-247.54
-256.18
-258.6
-254.96
-246.04
-232.85
-216.31
-197.31
-176.87
-156.23
-136.85
-119.98
-106.4
-96.27
-89.13
-84.07
-79.91
-75.29
-68.95
-59.98
-48.11
-33.75
-17.85
-1.56
14.16
28.71
41.79
53.35
63.36
71.94
79.28
85.66
91.32
96.26
100.13
102.34
102.35
99.91
95.25
88.92
81.59
73.91
66.38
59.43
53.41
48.54
44.82
41.95
39.45
36.78
33.62
29.98
26.06
22.11
18.24
14.31
10.11
5.39
0.11
-5.67
-11.84
-18.37
-25.33
-32.8
-40.6
-48.12
-54.3
-57.84
-57.64
-53.21
-44.84
-33.56
-20.79
-7.85
4.29
15.14
24.59
32.66
39.36
44.62
48.33
50.46
51.14
50.72
49.62
48.26
46.97
45.9
45.08
44.46
43.95
43.51
43.09
42.69
42.29
41.76
40.93
39.57
37.47
34.53
30.71
26.17
21.11
15.81
10.54
5.51
0.82
-3.64
-8.13
-13.01
-18.58
-24.85
-31.44
-37.59
-42.26
-44.41
-43.25
-38.53
-30.58
-20.26
-8.74
2.85
13.59
22.99
30.89
37.37
42.56
46.53
49.33
50.97
51.56
51.25
50.28
48.89
47.32
45.77
44.37
43.19
42.26
41.52
40.88
40.2
39.31
38.02
36.19
33.74
30.75
27.4
23.93
20.48
17.05
13.48
9.54
5.15
0.43
-4.29
-8.67
-12.52
-15.98
-19.48
-23.55
-28.62
-34.74
-41.53
-48.15
-53.46
-56.29
-55.72
-51.34
-43.35
-32.57
-20.13
-7.29
4.93
15.85
25.19
32.92
39.16
44.06
47.69
50.1
51.35
51.58
51.05
50.1
49.02
48.02
47.16
46.4
45.71
45.1
44.61
44.29
44.07
43.82
43.32
42.39
40.98
39.12
36.95
34.61
32.22
29.81
27.39
24.92
22.33
19.57
16.59
13.37
9.9
6.17
2.21
-1.94
-6.19
-10.44
-14.55
-18.41
-21.94
-25.18
-28.31
-31.66
-35.62
-40.5
-46.3
-52.52
-58.18
-61.99
-62.69
-59.56
-52.67
-42.84
-31.41
-19.68
-8.59
1.47
10.48
18.55
25.6
31.42
35.79
38.65
40.21
40.85
40.98
40.83
40.54
40.14
39.63
39.06
38.52
38.13
38.02
38.23
38.74
39.35
39.76
39.61
38.7
36.98
34.65
32.01
29.4
27.02
24.91
23
21.12
19.13
16.87
14.31
11.49
8.52
5.57
2.7
-0.06
-2.8
-5.61
-8.57
-11.72
-15.01
-18.36
-21.68
-24.89
-27.99
-31.06
-34.3
-37.99
-42.32
-47.31
-52.66
-57.73
-61.61
-63.33
-62.15
-57.7
-50.15
-40.11
-28.5
-16.3
-4.36
6.71
16.5
24.84
31.68
37.12
41.4
44.8
47.63
50.13
52.4
54.46
56.32
58.06
59.83
61.84
64.27
67.21
70.64
74.43
78.42
82.45
86.39
90.2
93.86
97.46
101.15
105.21
109.91
115.51
122.07
129.37
136.91
143.96
149.79
153.85
155.79
155.44
152.69
147.31
138.96
127.36
112.47
94.66
74.71
53.72
32.81
12.96
-5.15
-21.23
-35.16
-46.99
-56.63
-63.82
-68.03
-68.64
-65.19
-57.64
-46.53
-32.96
-18.3
-3.92
9.05
19.88
28.13
33.62
36.34
36.33
33.72
28.69
21.51
12.46
1.87
-9.99
-22.9
-36.78
-51.58
-67.23
-83.57
-100.19
-116.56
-132.1
-146.3
-158.87
-169.74
-178.93
-186.45
-192.13
-195.64
-196.52
-194.33
-188.76
-179.68
-167.14
-151.32
-132.56
-111.38
-88.48
-64.76
-41.23
-18.72
2.26
21.63
39.75
57.16
74.35
91.31
107.37
121.07
130.47
133.65
129.47
118.04
100.95
80.86
60.78
43.22
29.56
20.03
13.94
10.26
8.04
6.61
5.53
4.5
3.27
1.61
-0.51
-2.95
-5.35
-7.34
-8.68
-9.37
-9.63
-9.73
-9.94
-10.41
-11.16
-12.2
-13.5
-15.11
-17.08
-19.52
-22.46
-25.94
-29.84
-33.91
-37.76
-40.99
-43.31
-44.66
-45.23
-45.35
-45.35
-45.48
-45.86
-46.6
-47.79
-49.57
-52.05
-55.3
-59.26
-63.65
-67.93
-71.35
-73.09
-72.55
-69.59
-64.73
-58.99
-53.58
-49.55
-47.55
-47.76
-50.04
-54.12
-59.68
-66.34
-73.62
-80.88
-87.53
-93.11
-97.49
-100.82
-103.34
-105.18
-106.15
-105.82
-103.6
-99.17
-92.61
-84.52
-75.85
-67.62
-60.57
-55.07
-51.03
-48.11
-45.91
-44.14
-42.73
-41.85
-41.79
-42.92
-45.51
-49.67
-55.23
-61.69
-68.21
-73.78
-77.39
-78.33
-76.39
-71.91
-65.69
-58.68
-51.74
-45.37
-39.71
-34.64
-29.97
-25.63
-21.61
-18.02
-14.94
-12.35
-10.08
-7.97
-5.84
-3.63
-1.36
0.93
3.14
5.19
6.91
8.06
8.32
7.44
5.38
2.34
-1.21
-4.82
-8.19
-11.36
-14.63
-18.43
-23.07
-28.58
-34.59
-40.28
-44.49
-45.9
-43.44
-36.63
-25.87
-12.38
2.19
16.27
28.88
39.73
49.06
57.19
64.21
69.92
74
76.3
77.05
76.79
76.12
75.47
74.92
74.32
73.45
72.19
70.67
69.09
67.68
66.49
65.25
63.52
60.88
57.02
52.01
46.17
40
33.94
28.27
23.01
18
12.96
7.55
1.42
-5.64
-13.61
-21.99
-29.75
-35.5
-37.86
-35.95
-29.79
-20.22
-8.7
3.34
14.81
25.2
34.43
42.6
49.73
55.72
60.37
63.58
65.48
66.39
66.7
66.73
66.58
66.2
65.52
64.58
63.59
62.84
62.59
62.87
63.44
63.89
63.77
62.77
60.85
58.18
55.07
51.83
48.65
45.61
42.63
39.53
36.18
32.54
28.7
24.84
21.11
17.59
14.19
10.74
7.02
2.9
-1.64
-6.44
-11.24
-15.78
-19.85
-23.48
-26.87
-30.46
-34.7
-39.97
-46.32
-53.32
-60.03
-65.11
-67.2
-65.27
-58.98
-48.81
-35.98
-22.02
-8.33
4.1
14.85
23.94
31.53
37.74
42.57
46.02
48.14
49.17
49.45
49.28
48.93
48.48
47.97
47.42
46.87
46.42
46.17
46.17
46.38
46.63
46.71
46.4
45.54
44.06
42.05
39.66
37.05
34.4
31.74
29.02
26.09
22.77
19.02
14.94
10.79
6.93
3.62
0.93
-1.35
-3.59
-6.16
-9.23
-12.75
-16.48
-20.12
-23.48
-26.62
-29.76
-33.27
-37.52
-42.68
-48.59
-54.61
-59.69
-62.57
-62.16
-57.93
-50.08
-39.48
-27.39
-15.03
-3.36
7.04
15.86
23
28.44
32.29
34.78
36.22
36.97
37.28
37.26
36.93
36.28
35.4
34.49
33.8
33.51
33.67
34.16
34.79
35.3
35.51
35.3
34.58
33.32
31.55
29.35
26.91
24.44
22.1
19.91
17.8
15.57
13.11
10.39
7.59
4.93
2.57
0.57
-1.23
-3.09
-5.3
-8.09
-11.46
-15.27
-19.16
-22.76
-25.8
-28.28
-30.46
-32.81
-35.84
-39.86
-44.86
-50.38
-55.53
-59.19
-60.29
-58.07
-52.41
-43.77
-33.14
-21.74
-10.67
-0.67
7.89
14.95
20.56
24.76
27.55
28.94
29.07
28.23
26.87
25.42
24.23
23.46
23.08
22.92
22.84
22.75
22.76
23
23.57
24.44
25.35
25.97
25.97
25.17
23.59
21.43
18.94
16.36
13.82
11.38
9.08
6.94
4.95
3.04
1.08
-1.13
-3.76
-6.82
-10.19
-13.63
-16.85
-19.68
-22.1
-24.19
-26.18
-28.31
-30.88
-34.11
-38.1
-42.64
-47.12
-50.56
-51.86
-50.2
-45.32
-37.68
-28.27
-18.29
-8.74
-0.18
7.16
13.29
18.23
21.94
24.36
25.53
25.67
25.12
24.27
23.41
22.66
22.02
21.44
20.88
20.36
19.96
19.74
19.73
19.86
20.02
20.05
19.75
19.01
17.78
16.13
14.23
12.27
10.37
8.57
6.81
4.97
3.01
0.95
-1.14
-3.17
-5.11
-7.06
-9.14
-11.46
-14.07
-16.86
-19.67
-22.33
-24.75
-26.97
-29.14
-31.44
-34.05
-37.08
-40.56
-44.39
-48.27
-51.64
-53.73
-53.72
-50.99
-45.4
-37.41
-27.93
-18.07
-8.74
-0.53
6.42
12.15
16.78
20.34
22.83
24.3
24.86
24.8
24.39
23.92
23.53
23.28
23.09
22.92
22.71
22.53
22.49
22.69
23.13
23.69
24.11
24.09
23.42
22.08
20.21
18.08
15.96
14.03
12.29
10.64
8.89
6.91
4.68
2.31
-0
-2.07
-3.81
-5.33
-6.91
-8.86
-11.4
-14.52
-17.98
-21.43
-24.55
-27.13
-29.22
-31.04
-32.96
-35.37
-38.59
-42.67
-47.26
-51.64
-54.77
-55.62
-53.49
-48.26
-40.45
-31
-21.02
-11.46
-2.97
4.16
9.89
14.32
17.61
19.94
21.46
22.3
22.58
22.42
21.96
21.4
20.89
20.57
20.47
20.56
20.77
21.07
21.44
21.89
22.39
22.84
23.03
22.73
21.73
20
17.67
14.98
12.21
9.52
6.86
4.08
0.99
-2.41
-5.99
-9.48
-12.66
-15.52
-18.22
-21.03
-24.15
-27.6
-31.19
-34.7
-37.97
-41
-43.91
-46.88
-50.11
-53.75
-57.85
-62.4
-67.19
-71.79
-75.5
-77.49
-76.98
-73.44
-66.76
-57.32
-45.9
-33.44
-20.92
-9.14
1.37
10.34
17.73
23.59
28.06
31.23
33.22
34.18
34.34
33.94
33.28
32.64
32.2
32.02
32.07
32.28
32.56
32.86
33.13
33.36
33.49
33.43
33.08
32.3
31
29.15
26.79
24.02
20.99
17.9
14.91
12.16
9.69
7.42
5.16
2.68
-0.21
-3.51
-7.1
-10.71
-14.12
-17.22
-20.1
-23.03
-26.31
-30.16
-34.55
-39.17
-43.37
-46.3
-47.15
-45.34
-40.71
-33.61
-24.78
-15.17
-5.76
2.68
9.63
14.88
18.49
20.7
21.86
22.24
22.07
21.53
20.75
19.95
19.32
19.03
19.09
19.39
19.71
19.87
19.79
19.43
18.84
18.04
17.02
15.82
14.49
13.15
11.92
10.82
9.8
8.68
7.26
5.36
2.95
0.11
-2.95
-6.06
-9.15
-12.28
-15.67
-19.65
-24.45
-30.12
-36.39
-42.59
-47.8
-51.03
-51.54
-49.05
-43.88
-36.76
-28.64
-20.38
-12.66
-5.92
-0.47
3.46
5.68
6.18
5.17
3.06
0.44
-2.13
-4.22
-5.68
-6.66
-7.58
-8.92
-11.02
-13.82
-16.7
-18.54
-18.02
-13.93
-5.72
6.28
20.77
35.77
49.03
58.72
63.89
64.68
62.1
57.68
52.88
48.77
45.86
44.17
43.51
43.6
44.21
45.12
46.15
47.1
47.88
48.56
49.38
50.68
52.71
55.44
58.48
61.14
62.83
63.25
62.65
61.71
61.26
61.79
63.29
65.15
66.48
66.46
64.61
60.92
55.7
49.4
42.47
35.35
28.49
22.36
17.36
13.66
11.04
8.91
6.55
3.43
-0.52
-4.77
-8.53
-11.09
-12.28
-12.51
-12.55
-13.11
-14.36
-15.84
-16.67
-16.04
-13.69
-10.12
-6.38
-3.62
-2.52
-2.98
-4.21
-5.15
-4.98
-3.5
-1.13
1.27
2.75
2.53
0.2
-4.13
-9.72
-15.25
-19.16
-20.36
-19.09
-17.5
-19.26
-28.44
-47.74
-77.02
-112.87
-149.43
-180.14
-199.69
-205.41
-197.74
-179.87
-156.59
-133.08
-113.58
-100.58
-94.49
-93.96
-96.7
-100.35
-103.09
-103.71
-101.44
-95.77
-86.5
-73.9
-58.87
-42.67
-26.52
-11.15
3.35
17.49
31.99
47.53
64.45
82.39
100.05
115.03
124.45
126.03
119.45
107.04
93.13
82.17
76.62
75.91
76.77
75.02
67.43
52.87
32.12
6.87
-21.32
-51.33
-81.81
-110.33
-133.05
-145.38
-143.76
-127.33
-98.98
-64.78
-32.02
-6.71
8.45
14.59
15.38
14.83
15.32
16.94
18.36
18.36
16.96
15.4
15.27
17.34
21.1
25.14
28.13
29.64
30.22
30.99
32.75
35.6
38.93
41.81
43.51
43.7
42.37
39.7
35.87
31.2
26.14
21.31
17.38
14.78
13.57
13.39
13.63
13.68
13.15
11.92
10.06
7.78
5.42
3.47
2.47
2.65
3.57
3.94
1.98
-3.86
-13.94
-26.9
-39.86
-49.52
-53.38
-50.8
-43.03
-32.51
-21.64
-11.88
-3.51
3.95
10.97
17.54
23.04
26.73
28.32
28.22
27.4
26.92
27.34
28.54
29.87
30.67
30.6
29.81
28.74
27.74
26.85
25.79
24.15
21.67
18.47
14.97
11.75
9.3
7.86
7.34
7.43
7.65
7.55
6.81
5.3
3.12
0.45
-2.51
-5.63
-8.86
-12.09
-15.1
-17.64
-19.49
-20.67
-21.54
-22.64
-24.55
-27.68
-32.05
-37.26
-42.53
-46.86
-49.17
-48.61
-44.75
-37.75
-28.37
-17.73
-7.05
2.73
11.08
17.93
23.44
27.85
31.39
34.16
36.26
37.76
38.75
39.25
39.22
38.57
37.23
35.22
32.7
29.92
27.19
24.75
22.71
21.04
19.54
17.93
15.94
13.45
10.54
7.44
4.44
1.74
-0.67
-2.96
-5.32
-7.86
-10.49
-12.95
-14.96
-16.3
-16.85
-16.6
-15.65
-14.19
-12.46
-10.84
-9.68
-9.35
-10.02
-11.67
-14.11
-17.01
-20.08
-23.19
-26.41
-29.8
-33.27
-36.4
-38.43
-38.47
-35.84
-30.33
-22.22
-12.19
-1.09
10.16
20.72
29.76
36.65
41.16
43.65
44.99
46.28
48.37
51.48
55.22
58.85
61.76
63.87
65.71
68.28
72.66
79.55
88.95
100
111.09
120.32
126.16
128.12
127.04
124.72
123.08
123.19
124.72
126.09
125.32
120.95
112.62
100.92
86.85
71.27
54.63
37.12
19.12
1.33
-15.39
-30.38
-43.54
-55.4
-67.03
-79.67
-94.49
-112.35
-133.69
-158.34
-185.48
-213.54
-240.3
-263.13
-279.44
-287.25
-285.7
-275.3
-257.78
-235.58
-211.1
-186.07
-161.36
-137.28
-114.02
-92.13
-72.49
-55.91
-42.73
-32.49
-24.18
-16.66
-9.21
-1.72
5.46
11.88
17.37
22.13
26.62
31.19
35.84
40.15
43.46
45.21
45.18
43.6
41.03
38.24
35.82
34.15
33.16
32.54
31.79
30.47
28.28
25.13
21.18
16.74
12.17
7.86
4.11
1.04
-1.44
-3.7
-6.31
-9.85
-14.67
-20.58
-26.82
-32.11
-35.11
-34.81
-30.85
-23.67
-14.27
-3.92
6.23
15.38
23.05
29.05
33.39
36.16
37.54
37.78
37.13
35.83
34.11
32.2
30.37
28.95
28.28
28.6
29.95
32.08
34.46
36.4
37.23
36.55
34.36
31.09
27.42
24.04
21.4
19.57
18.25
16.95
15.24
12.86
9.81
6.25
2.42
-1.55
-5.58
-9.69
-13.94
-18.37
-23
-27.78
-32.55
-36.96
-40.43
-42.19
-41.43
-37.71
-31.16
-22.63
-13.5
-5.22
1.16
5.37
7.84
9.43
10.98
12.92
15.19
17.4
19.07
19.97
20.09
19.68
19.09
18.68
18.73
19.43
20.84
22.94
25.52
28.22
30.57
32.01
32.08
30.55
27.54
23.48
19.05
14.86
11.3
8.44
5.99
3.57
0.79
-2.52
-6.4
