-301.71
-321.25
-337.82
-353.91
-370.63
-387.32
-401.98
-412.3
-416.43
-413.42
-403.17
-386.05
-362.76
-334.22
-301.7
-266.97
-232.1
-199.05
-169.21
-142.9
-119.37
-97.15
-74.79
-51.69
-28.31
-5.94
14.11
31.11
45.14
56.76
66.48
74.39
80.39
84.5
87.03
88.44
88.99
88.45
86.38
82.53
77.26
71.51
66.4
62.7
60.49
59.33
58.66
58.18
58.02
58.47
59.71
61.54
63.49
65.06
66.02
66.56
67.16
68.29
70.05
72.08
73.59
73.72
71.91
68.07
62.59
55.99
48.63
40.42
31.06
20.29
8.34
-3.94
-15.18
-23.96
-29.27
-30.81
-28.99
-24.7
-19.07
-13.1
-7.6
-3.04
0.43
3.01
5.14
7.32
9.99
13.28
16.98
20.58
23.37
24.71
24.21
21.95
18.6
15.43
13.97
15.57
20.83
29.22
39.26
48.97
56.7
61.75
64.41
65.63
66.33
66.9
67.06
66.17
63.66
59.35
53.43
46.38
38.61
30.44
22.13
14.02
6.5
0
-5.2
-9.02
-11.57
-13.04
-13.63
-13.47
-12.67
-11.33
-9.46
-7.02
-3.78
0.55
6.14
12.85
20.16
27.23
33.18
37.4
39.62
39.97
38.78
36.49
33.53
30.35
27.34
24.82
22.92
21.56
20.48
19.4
18.09
16.49
14.65
12.63
10.43
7.96
5.16
2.03
-1.24
-4.43
-7.34
-9.87
-12.05
-14.03
-15.91
-17.8
-19.76
-21.9
-24.37
-27.25
-30.38
-33.21
-34.89
-34.45
-31.26
-25.32
-17.33
-8.55
-0.37
6.06
10.08
11.56
10.71
7.98
3.88
-1.05
-6.34
-11.56
-16.3
-20.2
-23.01
-24.62
-25.23
-25.3
-25.48
-26.34
-28.13
-30.67
-33.38
-35.54
-36.58
-36.29
-34.86
-32.77
-30.66
-29.14
-28.71
-29.67
-32.13
-36
-40.97
-46.62
-52.43
-57.83
-62.36
-65.8
-68.4
-70.78
-73.8
-78.07
-83.6
-89.56
-94.58
-97.27
-96.7
-92.71
-85.74
-76.47
-65.55
-53.51
-40.98
-28.9
-18.42
-10.53
-5.51
-2.64
-0.52
2.27
6.41
11.56
16.77
21.36
25.65
30.96
38.84
49.93
63.21
76.3
86.71
93.42
97.64
102.25
110.23
123.05
140.07
159.38
179.35
199.82
222.12
247.78
276.85
306.82
333.02
350.31
355.13
346.95
328.31
303.68
277.68
253.54
232.45
213.69
195.56
176.26
154.71
130.67
104.4
76.26
46.3
14.19
-20.52
-58.22
-99.27
-144.13
-193.41
-247.36
-304.96
-363.16
-416.78
-459.68
-486.33
-493.59
-481.64
-453.54
-413.93
-367.46
-317.94
-268.21
-220.51
-176.57
-137.3
-102.24
-69.54
-36.68
-2.16
33.38
66.92
94.48
112.85
121.11
120.24
111.34
94.12
67.07
29.58
-15.68
-62.3
-102.41
-130.34
-145.13
-150.12
-149.77
-146.37
-138.91
-125.16
-105.38
-84.33
-69.96
-69.23
-84.2
-110.88
-141.61
-169.18
-189.42
-201.28
-204.67
-198.65
-181.21
-151.09
-109.76
-62.11
-14.85
26.51
60.27
89.12
118.5
154.11
199.65
255.93
320.97
390.43
458.07
516.29
557.21
574.31
564.4
528.97
473.94
407.98
339.73
275.22
216.51
162.26
109.54
56.02
1.43
-52.45
-103.21
-149.5
-191.77
-231.24
-267.9
-298.68
-317.73
-319.04
-300.05
-264.1
-219.88
-177.97
-146.35
-127.45
-118.12
-112.53
-105.74
-96.05
-84.99
-75.44
-69.42
-66.84
-65.97
-64.65
-61.66
-57.27
-52.86
-50
-49.52
-51.23
-54.08
-56.79
-58.4
-58.52
-57.27
-54.97
-51.8
-47.67
-42.32
-35.5
-27.22
-17.88
-8.27
0.62
7.84
12.87
15.78
17.31
18.56
20.51
23.56
27.28
30.59
32.24
31.43
28.25
23.6
18.91
15.47
14.02
14.6
16.67
19.46
22.26
24.59
26.07
26.34
24.92
21.33
15.34
7.22
-2.24
-12.1
-21.66
-30.71
-39.52
-48.33
-56.89
-64.21
-68.79
-69.28
-65.1
-56.73
-45.48
-32.92
-20.19
-7.86
3.75
14
21.57
24.74
22.2
13.84
1.05
-13.78
-28.12
-40.07
-48.22
-51.14
-46.75
-32.39
-5.93
32.69
80.54
132.24
181.85
225.32
261.87
293.72
324.29
355.94
388.48
419.14
443.64
457.72
458.52
445.33
419.91
386.09
348.84
312.62
279.87
250.07
220.25
186.72
147.31
102.81
56.66
13.18
-24.69
-56.64
-84.78
-111.98
-140.12
-169.06
-196.82
-220.6
-237.87
-247.09
-247.86
-240.93
-227.97
-211.19
-192.99
-175.33
-159
-143.41
-126.98
-108.31
-87.41
-66.49
-49.43
-40.37
-41.77
-53.02
-70.41
-88.29
-101.06
-105
-99.28
-85.87
-68.6
-51.79
-39.12
-32.78
-33.43
-40.47
-52.69
-68.73
-87.13
-106.12
-123.18
-135.16
-138.87
-132.2
-115.16
-90.23
-61.68
-34.13
-10.92
6.73
19.73
30.18
40.18
50.84
61.95
72.17
79.8
83.58
83.33
80.17
76.3
74.23
76
82.51
93.36
107.38
123.14
139.63
155.95
170.74
181.68
185.58
179.52
162.45
136.48
106.73
79.75
61.08
53.31
55.47
64.01
74.75
84.49
91.62
95.64
96.2
92.62
84.18
70.86
54.02
36.2
20.21
7.97
-0.34
-6.26
-12.15
-20.07
-30.73
-43.34
-56.04
-66.83
-74.42
-78.44
-79.37
-77.89
-74.56
-69.65
-63.42
-56.32
-49.13
-42.8
-38.09
-35.43
-34.72
-35.42
-36.62
-37.18
-35.96
-32.12
-25.45
-16.57
-7.09
0.68
4.09
0.67
-11.29
-32.38
-61.86
-97.91
-137.86
-178.72
-217.48
-251.64
-279.55
-300.53
-314.82
-323.16
-326.28
-324.47
-317.55
-305.01
-286.31
-261.32
-230.73
-196.51
-161.91
-130.88
-107.08
-92.5
-86.55
-86.2
-87.26
-86.19
-81.62
-74.54
-67.29
-61.97
-59.33
-58.7
-58.7
-58.1
-56.3
-53.14
-48.46
-41.95
-33.14
-21.76
-8.16
6.58
20.76
32.56
40.59
44.33
44.34
42.03
39.14
37.19
36.92
38.22
40.41
42.71
44.61
46
47.03
47.94
48.94
50.03
50.96
51.2
50.04
46.85
41.43
34.19
26.1
18.35
11.71
6.29
1.51
-3.4
-8.72
-13.89
-17.58
-18.32
-15.17
-8.16
1.84
13.44
25.35
36.6
46.66
55.23
61.99
66.52
68.39
67.34
63.55
57.64
50.57
43.38
36.99
32.09
29.11
28.32
29.86
33.72
39.7
47.31
55.64
63.56
69.94
74
75.52
74.94
73
70.5
67.94
65.45
62.81
59.71
56.1
52.31
49.11
47.45
48.21
51.91
58.58
67.87
79.25
92.24
106.47
121.52
136.68
150.89
162.91
171.68
176.66
177.89
175.94
171.61
165.86
159.79
154.74
152.16
153.22
158.38
166.92
177.13
186.77
193.89
197.41
197.22
193.92
188.25
180.82
171.97
161.92
150.82
138.6
124.8
108.63
89.17
65.9
39.08
9.88
-20.03
-49.09
-76.39
-101.87
-126.24
-150.46
-175.33
-201.01
-226.82
-251.24
-272.13
-287.31
-295.31
-295.98
-290.72
-282.15
-273.25
-266.39
-262.64
-261.5
-261.34
-260.11
-256.04
-248.21
-236.52
-221.54
-204.13
-185.25
-165.86
-146.97
-129.59
-114.44
-101.69
-90.68
-80.01
-67.99
-53.4
-36.06
-17.1
1.48
17.55
29.59
37.1
40.41
40.25
37.41
32.66
26.97
21.58
17.88
16.97
19.25
24.27
31
38.41
45.87
53.19
60.36
67.15
73.01
77.33
79.8
80.73
80.93
81.22
82.07
83.42
84.91
86.28
87.55
89.03
91.12
94.07
97.81
102
106.05
109.19
110.71
110.29
108.29
105.83
104.42
105.24
108.54
113.38
117.93
120.01
117.62
109.3
94.22
72.36
44.8
13.9
-16.85
-43.55
-62.9
-73.03
-73.7
-65.85
-50.73
-29.34
-2.41
29.19
64
99.76
133.76
163.18
185.56
199.22
203.31
197.92
183.91
162.65
135.74
104.75
71.08
35.91
0.5
-33.86
-65.71
-93.72
-116.92
-134.94
-148.02
-156.83
-162.13
-164.63
-164.96
-163.61
-160.97
-157.42
-153.26
-148.77
-144.2
-139.8
-135.73
-131.97
-128.16
-123.57
-117.26
-108.4
-96.57
-81.96
-65.26
-47.41
-29.31
-11.66
5.03
20.34
33.85
45.18
54.12
60.71
65.22
68.01
69.38
69.44
68.15
65.5
61.66
57.09
52.44
48.29
44.97
42.42
40.3
38.2
35.8
33.01
29.89
26.67
23.72
21.5
20.55
21.37
24.17
28.68
34.11
39.26
42.98
44.52
43.94
42.11
40.4
40.2
42.36
46.9
52.94
59.07
63.88
66.38
66.3
63.95
60.01
55.25
50.35
45.87
42.25
39.77
38.53
38.34
38.77
39.22
39.17
38.3
36.65
34.54
32.44
30.83
29.98
29.94
30.45
31.01
30.98
29.76
27.02
22.73
17.24
11.05
4.51
-2.35
-9.93
-18.91
-29.88
-43
-57.73
-72.8
-86.38
-96.41
-101.16
-99.48
-91.16
-77.02
-58.79
-38.73
-19.14
-1.76
12.63
24.22
33.78
42.2
49.98
57.21
63.77
69.73
75.5
81.69
88.72
96.53
104.64
112.47
119.75
126.64
133.46
140.12
145.92
149.7
150.5
148.13
143.47
138.11
133.62
130.94
130.12
130.49
131.22
131.75
131.99
132.18
132.66
133.58
134.83
135.99
136.45
135.54
132.54
126.74
117.54
104.5
87.52
67.08
44.19
20.19
-3.61
-26.38
-47.83
-68.18
-87.83
-107.17
-126.68
-147.05
-169.15
-193.67
-220.28
-247.11
-270.85
-287.58
-294.31
-290.13
-276.61
-257.24
-236.13
-216.82
-201.51
-190.93
-184.51
-180.68
-177.24
-171.6
-161.47
-145.56
-124.18
-99.41
-74.48
-52.79
-36.62
-26.33
-20.16
-14.78
-6.56
7.12
26.82
50.78
75.47
96.78
111.32
117.56
116.1
109.06
98.96
87.47
74.8
59.61
39.74
13.04
-21.88
-65.25
-116.18
-172.74
-232.17
-291
-345.19
-390.54
-423.41
-441.42
-444
-432.39
-409.09
-377.11
-339.15
-297.03
-251.57
-203.18
-152.72
-102.25
-54.97
-14.33
17.42
40.27
56.55
69.79
83.06
97.61
112.59
125.82
135.19
139.63
139.4
135.66
129.86
123.37
117.29
112.56
109.82
109.18
110.01
111.06
110.75
107.83
102.01
94.47
87.88
85.91
91.98
107.84
132.46
161.92
190.43
212.35
224.05
224.9
216.86
203.03
186.19
167.9
148.67
128.68
108.55
89.33
71.99
56.74
42.74
28.66
13.43
-3.03
-19.76
-35.33
-48.62
-59.3
-67.87
-75.25
-82.27
-89.42
-96.78
-104.07
-110.77
-116.19
-119.59
-120.41
-118.55
-114.59
-109.49
-104.16
-98.85
-92.89
-85
-73.93
-59.16
-41.3
-21.78
-2.37
15.47
30.91
43.69
53.86
61.54
66.85
69.82
70.5
68.8
64.49
57.22
46.82
33.67
18.92
4.35
-8.12
-17.02
-21.81
-22.9
-21.4
-18.64
-15.77
-13.6
-12.6
-13.07
-15.22
-19.19
-24.98
-32.36
-40.85
-49.78
-58.33
-65.63
-70.84
-73.18
-72.1
-67.38
-59.31
-48.63
-36.39
-23.69
-11.4
-0.02
10.32
19.63
27.86
34.8
40.14
43.74
45.74
46.52
46.59
46.33
45.86
45.06
43.77
41.93
39.71
37.46
35.46
33.88
32.62
31.42
30.06
28.53
27.16
26.55
27.28
29.66
33.61
38.76
44.77
51.55
59.29
68.28
78.52
89.49
100.2
109.53
116.73
121.82
125.75
130.28
137.72
150.43
170.3
198.14
233.2
273.02
313.82
351.43
382.34
404.47
417.38
421.77
418.77
409.32
394.08
373.68
349.2
322.21
294.48
267.29
240.92
214.6
187.04
157.19
124.97
91.34
57.87
25.94
-3.91
-32.14
-59.98
-88.7
-119.11
-151.2
-184.15
-216.52
-246.64
-273.04
-294.93
-312.58
-327.17
-340.29
-353.11
-365.57
-376.24
-382.79
-383
-375.62
-360.93
-340.61
-317.21
-293.5
-271.76
-253.44
-238.83
-227.19
-217.14
-207.37
-197.36
-187.56
-179.1
-173.09
-170.01
-169.56
-171.03
-173.87
-177.96
-183.19
-188.77
-192.74
-192.12
-184.03
-167.01
-141.89
-111.79
-81.2
-54.66
-35.64
-25.83
-24.99
-31.14
-40.96
-50.64
-56.89
-58.09
-54.92
-50.11
-47.31
-49.44
-57.45
-70.02
-84.31
-97.23
-106.49
-110.92
-110.16
-104.07
-92.55
-75.75
-54.54
-30.86
-7.6
12.24
26.47
34.45
37.35
37.57
37.77
39.93
44.69
51.38
58.54
64.61
68.63
70.48
70.88
71
72.08
74.97
79.92
86.45
93.46
99.45
102.87
102.51
97.85
89.09
77.12
63.2
48.73
35.07
23.48
15.02
10.4
9.85
12.98
18.84
26.15
33.7
40.63
46.52
51.3
55.04
57.7
59.16
59.25
57.94
55.31
51.55
46.86
41.47
35.59
29.52
23.6
18.16
13.38
9.24
5.47
1.76
-2.15
-6.32
-10.62
-14.8
-18.49
-21.25
-22.61
-22.18
-19.87
-16.1
-11.81
-8.17
-6.17
-6.02
-6.9
-7.13
-4.54
2.8
16.18
35.96
61.66
92.07
125.41
159.37
191.24
218.24
238.13
249.77
253.62
251.56
246.2
239.96
234.21
228.93
223.14
215.61
205.55
192.97
178.42
162.6
146.08
129.33
112.84
97.22
82.84
69.34
55.52
39.76
20.94
-0.66
-23.18
-43.92
-60.65
-72.73
-81.27
-88.23
-95.19
-102.42
-108.92
-113.34
-115.01
-114.38
-112.56
-110.41
-107.64
-102.9
-94.53
-81.76
-65.27
-46.99
-29.11
-12.92
1.66
15.68
30.15
45.21
60.11
73.82
85.96
97.33
109.48
123.64
139.69
155.83
169.29
177.52
179.15
174.24
163.73
148.61
129.27
105.49
76.86
43.18
4.75
-37.83
-83.81
-132.4
-182.57
-232.73
-280.63
-323.61
-359.32
-386.42
-405.06
-416.74
-423.6
-427.42
-428.8
-426.86
-419.65
-405.14
-382.31
-351.67
-315.21
-275.55
-235.01
-195.04
-156.11
-118.3
-81.89
-47.66
-16.77
9.78
31.64
49.36
64.13
77.32
89.95
102.43
114.68
126.36
137.14
146.86
155.47
162.76
168.21
170.88
169.69
163.73
152.74
137.33
118.92
99.42
80.65
64.09
50.67
40.92
35.01
32.76
33.34
35.01
35.11
30.42
18.28
-2.31
-29.9
-60.62
-89.31
-111.06
-122.79
-123.97
-116.4
-103.03
-86.81
-69.76
-52.82
-36.28
-20.31
-5.38
7.87
18.84
27.33
33.6
38.13
41.36
43.39
44.06
43.13
40.64
37.11
33.51
30.9
30
30.82
32.58
34.08
34.17
32.24
28.4
23.34
18.01
13.19
9.34
6.61
4.98
4.43
4.94
6.39
8.51
10.81
12.75
13.81
13.63
11.93
8.56
3.59
-2.57
-8.97
-14.2
-16.78
-15.75
-11.13
-3.99
4.02
11.43
17.55
22.68
27.68
33.34
39.79
46.41
52.12
55.86
56.98
55.39
51.44
45.76
39.19
32.6
26.83
22.48
19.73
18.3
17.57
16.85
15.63
13.74
11.29
8.49
5.49
2.32
-1.02
-4.48
-7.83
-10.75
-12.96
-14.37
-15.21
-15.88
-16.88
-18.53
-20.92
-23.86
-27.02
-29.94
-32.13
-33.04
-32.05
-28.65
-22.49
-13.64
-2.6
9.74
22.36
34.33
45.07
54.37
62.32
69.16
75.14
80.47
85.31
89.69
93.49
96.33
97.68
97.1
94.69
91.33
88.67
88.63
92.69
101.24
113.47
127.66
141.84
154.35
164.11
170.56
173.48
172.89
169.1
162.77
154.79
145.98
136.73
126.77
115.33
101.46
84.49
64.28
41.24
16.21
-9.69
-35.15
-58.67
-78.67
-93.84
-103.66
-108.76
-110.94
-112.74
-116.6
-124.12
-135.61
-150.19
-166.24
-182.17
-196.78
-209.51
-220.21
-228.89
-235.46
-239.66
-241.16
-239.7
-235.23
-227.88
-217.92
-205.56
-191.02
-174.6
-156.92
-139.06
-122.43
-108.38
-97.73
-90.38
-85.37
-81.28
-76.86
-71.53
-65.62
-60.08
-55.99
-53.94
-53.64
-53.88
-52.85
-48.85
-40.99
-29.62
-16.29
-3.2
7.67
15.41
20.44
24.36
29.31
37.21
49.32
65.93
86.28
108.56
130
147.3
157.45
158.81
151.89
139.37
125.17
112.93
104.73
100.59
98.98
97.86
95.64
91.51
85.19
76.51
65.23
51.34
35.44
18.89
3.41
-9.72
-20.21
-28.74
-36.47
-44.13
-51.56
-57.64
-60.93
-60.36
-55.86
-48.44
-39.84
-31.91
-26.12
-23.17
-23.02
-25.05
-28.39
-32.17
-35.64
-38.11
-38.82
-36.99
-31.88
-23.15
-11.23
2.63
16.63
28.96
38.39
44.67
48.32
50.21
50.89
50.28
47.83
43.05
36.17
28.32
21.27
16.62
15.11
16.24
18.64
20.8
21.77
21.48
20.53
19.6
19.04
18.69
18.07
16.79
14.78
12.32
9.91
7.99
6.87
6.59
7.05
8.08
9.41
10.75
11.73
11.94
11.01
8.72
5.07
0.46
-4.39
-8.46
-10.69
-10.29
-6.94
-0.93
7
15.95
25.1
33.91
42.07
49.28
55.21
59.53
62.08
63.08
63.2
63.34
64.21
66.01
68.34
70.27
70.77
68.99
64.57
57.59
48.54
38.06
26.96
16.09
6.42
-1.18
-6.03
-7.92
-7.34
-5.46
-3.87
-4.09
-7.15
-13.3
-22.01
-32.29
-43.01
-53.13
-61.81
-68.39
-72.41
-73.66
-72.27
-68.79
-64.09
-59.14
-54.68
-50.95
-47.62
-44.07
-39.73
-34.45
-28.57
-22.64
-17.03
-11.5
-5.26
2.62
12.69
24.62
37.41
49.81
60.97
70.69
79.22
86.77
93.11
97.73
100.22
100.75
100.16
99.54
99.64
100.43
101.16
100.95
99.39
96.77
93.86
91.31
89.12
86.57
82.59
76.38
67.92
58.05
48.14
39.54
33.05
28.65
25.68
23.21
20.45
17.1
13.38
9.86
7.26
6.11
6.6
8.41
10.84
12.95
13.83
12.86
9.91
5.32
-0.3
-6.24
-11.94
-17.04
-21.37
-24.95
-28
-30.95
-34.41
-38.92
-44.66
-51.26
-57.91
-63.56
-67.4
-69.03
-68.59
-66.6
-63.72
-60.61
-57.71
-55.2
-52.97
-50.69
-47.96
-44.5
-40.33
-35.8
-31.55
-28.21
-26.2
-25.63
-26.27
-27.81
-29.92
-32.39
-35.13
-38.08
-41.19
-44.36
-47.33
-49.7
-50.94
-50.54
-48.23
-44.07
-38.54
-32.38
-26.42
-21.25
-17.13
-13.97
-11.5
-9.47
-7.81
-6.66
-6.23
-6.73
-8.13
-10.11
-12.03
-13.06
-12.4
-9.49
-4.23
3
11.47
20.44
29.27
37.6
45.26
52.1
57.87
62.29
65.08
66.04
65.14
62.44
58.12
52.55
46.32
40.22
35.12
31.7
30.24
30.62
32.31
34.53
36.52
37.68
37.78
36.97
35.8
34.97
35.07
36.29
38.24
40.16
41.12
40.35
37.43
32.36
25.49
17.49
9.26
1.8
-3.96
-7.36
-8.2
-6.7
-3.41
0.96
5.76
10.38
14.28
16.97
18.04
17.18
14.34
9.65
3.51
-3.45
-10.35
-16.11
-19.71
-20.52
-18.64
-15
-11.11
-8.51
-8.21
-10.33
-14.34
-19.42
-24.97
-30.75
-36.7
-42.64
-48.13
-52.65
-56.09
-59.06
-62.85
-68.75
-77.35
-87.83
-98.11
-105.48
-107.8
-104.43
-96.53
-86.63
-77.58
-71.52
-69.16
-69.74
-71.44
-72.08
-69.78
-63.4
-52.81
-38.84
-23.07
-7.44
6.3
16.92
23.85
26.98
26.32
21.81
13.37
1.02
-14.83
-33.37
-53.52
-74.17
-94.47
-113.95
-132.9
-152.38
-174.04
-199.41
-228.84
-260.44
-289.65
-310.21
-316.2
-304.48
-276.34
-237.33
-195.24
-157.24
-127.45
-106.16
-90.93
-78.56
-67.04
-56.2
-47.15
-40.97
-37.65
-35.96
-34.3
-31.88
-29.36
-28.36
-30.27
-34.98
-40.61
-44.18
-43.16
-36.83
-26.4
-14.2
-2.16
9.19
20.78
34.02
49.76
67.65
86.35
104.16
119.71
132.2
141.42
147.42
150.43
150.78
148.81
144.75
138.64
130.24
119.27
105.6
89.44
71.38
52.3
33.27
15.47
0.07
-12
-20.42
-25.52
-28.25
-29.7
-30.63
-31.18
-30.87
-28.83
-24.26
-16.79
-6.49
6.21
20.72
36.21
51.55
65.29
75.89
82.29
84.52
84.03
83.33
85.05
90.78
100.26
111.45
121.43
127.72
129.26
126.61
121.41
115.2
108.65
101.29
91.89
79.35
63.59
45.92
28.81
15.01
6.62
4.15
6.35
10.59
13.75
13.24
7.76
-2.59
-16.6
-32.54
-48.68
-63.61
-76.26
-85.91
-92.29
-95.61
-96.58
-96.12
-94.81
-92.33
-87.3
-77.75
-62.12
-40.28
-14.07
13.08
37.21
55.15
65.48
68.61
66.31
60.89
54.42
48.43
43.83
41.07
40.3
41.43
44.12
47.82
51.8
55.16
57.16
57.37
55.88
53.26
50.19
47.02
43.48
38.68
31.73
22.38
11.58
1.36
-6.01
-9.02
-7.7
-3.65
0.86
4.06
5.58
6.57
8.94
14.32
23.05
34.09
45.48
55.25
62.2
66.18
67.92
68.49
68.92
69.79
71.3
73.34
75.73
78.27
80.67
82.37
82.39
79.49
72.48
60.88
45.26
27.35
9.52
-6.14
-18.56
-28.08
-36.2
-44.7
-54.77
-66.38
-78.29
-88.54
-95.26
-97.37
-94.91
-88.92
-80.93
-72.38
-64.23
-56.93
-50.57
-45.22
-41.03
-38.26
-37.12
-37.62
-39.57
-42.64
-46.48
-50.7
-54.86
-58.46
-60.96
-61.95
-61.29
-59.11
-55.76
-51.61
-46.93
-41.78
-36.16
-30.08
-23.73
-17.48
-11.79
-7.06
-3.51
-1.2
-0.09
-0.09
-1.11
-2.93
-5.09
-6.88
-7.48
-6.3
-3.25
1.05
5.49
8.87
10.37
9.83
7.77
5.07
2.58
0.77
-0.44
-1.59
-3.48
-6.87
-12.1
-19
-26.89
-34.77
-41.61
-46.61
-49.29
-49.57
-47.59
-43.66
-38.17
-31.51
-24.2
-16.83
-10.04
-4.4
-0.23
2.43
3.78
4.09
3.57
2.39
0.76
-0.91
-2
-1.85
0
3.51
8.14
13.05
17.45
20.99
23.85
26.7
30.42
35.79
43.21
52.55
63.26
74.53
85.63
96.06
105.53
113.83
120.61
125.34
127.54
126.9
123.52
117.81
110.39
101.91
93.04
84.52
77.24
72.16
69.99
70.77
73.55
76.48
77.28
73.97
65.69
53.14
38.49
24.85
15.3
12.03
15.84
26.3
42.37
63.1
88.11
117.49
151.19
188.34
226.67
262.69
292.4
312.37
320.56
316.61
301.53
277.01
244.8
206.35
162.75
114.81
63.18
8.61
-47.75
-103.96
-157.28
-204.42
-242.27
-268.71
-283.07
-286.21
-280.01
-266.89
-249.33
-229.79
-210.56
-193.61
-180.17
-170.35
-163.15
-156.83
-149.73
-140.89
-130.27
-118.35
-105.58
-91.9
-76.75
-59.61
-40.67
-21.29
-3.83
9.04
15.24
14.04
6.24
-6.1
-20.25
-33.46
-43.51
-49.18
-50.5
-48.73
-46.02
-44.64
-46.18
-50.96
-58
-65.5
-71.59
-74.9
-74.89
-71.75
-66.19
-59.11
-51.32
-43.34
-35.18
-26.4
-16.2
-3.93
10.55
26.52
42.64
57.36
69.52
78.6
84.74
88.33
89.69
88.81
85.44
79.32
70.59
59.86
48.21
36.85
26.7
18.16
10.96
4.42
-2.27
-9.64
-17.64
-25.52
-32.06
-35.87
-35.93
-31.99
-24.76
-15.72
-6.67
0.78
5.68
7.79
7.49
5.42
2.37
-0.84
-3.3
-4.1
-2.53
1.62
7.94
15.45
22.89
29.13
33.41
35.52
35.65
34.35
32.27
30.04
28.05
26.4
24.86
22.98
20.32
16.61
11.96
6.76
1.57
-3.06
-6.76
-9.42
-11.08
-12.01
-12.61
-13.43
-15.05
-18.02
-22.58
-28.54
-35.16
-41.38
-46.04
-48.29
-47.84
-44.98
-40.37
-34.73
-28.64
-22.39
-16.1
-9.86
-3.83
1.72
6.48
10.16
12.54
13.5
12.99
11.07
7.99
4.19
0.21
-3.53
-6.91
-10.11
-13.57
-17.64
-22.45
-27.83
-33.32
-38.45
-42.86
-46.39
-49.06
-51.03
-52.56
-54.01
-55.74
-57.99
-60.74
-63.54
-65.59
-65.92
-63.82
-59.06
-52.1
-43.92
-35.67
-28.26
-22.07
-16.85
-11.97
-6.74
-0.78
5.81
12.46
18.43
23.05
26.03
27.46
27.79
27.61
27.54
28.06
29.55
32.23
36.1
40.96
46.37
51.8
56.83
61.35
65.48
69.45
73.33
76.88
79.66
81.29
81.58
80.59
78.45
75.07
70.18
63.47
54.99
45.34
35.67
27.32
21.35
18.25
17.84
19.49
22.35
25.62
28.64
30.93
32.11
32
30.49
27.72
24.04
19.99
16.25
13.41
11.8
11.37
11.74
12.39
12.86
12.98
12.88
12.86
13.14
13.65
13.97
13.47
11.55
7.93
2.7
-3.72
-10.82
-18.14
-25.42
-32.52
-39.39
-45.98
-52.3
-58.45
-64.55
-70.64
-76.48
-81.52
-85.01
-86.33
-85.2
-81.71
-76.2
-69.04
-60.48
-50.68
-40
-29.08
-18.82
-10.17
-3.79
0.26
2.52
3.98
5.74
8.65
13.13
19.1
26.04
33.19
39.76
45.1
48.86
51.07
52.07
52.43
52.69
53.15
53.76
54.2
54.02
52.9
50.77
47.8
44.25
40.32
36.02
31.22
25.71
19.28
11.84
3.48
-5.52
-14.65
-23.21
-30.47
-35.81
-38.84
-39.49
-37.97
-34.73
-30.4
-25.83
-21.95
-19.67
-19.59
-21.78
-25.65
-30.18
-34.21
-36.88
-37.88
-37.4
-36.01
-34.37
-32.99
-32.1
-31.57
-30.96
-29.63
-26.96
-22.62
-16.73
-9.8
-2.5
4.7
11.64
18.44
25.14
31.45
36.73
40.24
41.52
40.55
37.72
33.42
27.91
21.35
14.22
7.62
3.04
1.66
3.47
7.03
10.01
10.34
7.34
1.98
-3.82
-8.41
-11.5
-14.18
-18.03
-23.91
-31.17
-37.81
-41.58
-41.12
-36.68
-29.87
-22.81
-17.12
-13.35
-11
-9.2
-7.33
-5.43
-4.12
-4.12
-5.68
-8.48
-11.78
-14.91
-17.61
-20.17
-23.15
-27.03
-31.82
-37.07
-42.03
-45.95
-48.41
-49.44
-49.44
-48.85
-47.93
-46.57
-44.4
-40.99
-36.24
-30.45
-24.25
-18.35
-13.21
-8.86
-5.02
-1.34
2.41
6.22
9.99
13.7
17.46
21.32
25.1
28.31
30.3
30.66
29.51
27.55
25.74
24.87
25.22
26.57
28.48
30.66
33.08
35.85
38.89
41.83
44.15
45.51
46.03
46.26
46.8
47.85
49.04
49.55
48.56
45.71
41.25
35.89
30.46
25.53
21.38
18.07
15.71
14.59
15.17
17.91
23.16
31.06
41.64
54.85
70.59
88.51
107.81
127.17
144.94
159.6
170.13
176.26
178.43
177.39
173.86
168.23
160.4
149.98
136.59
120.17
101.38
81.75
63.4
48.52
38.47
33.14
30.69
28.02
21.62
8.54
-13
-43.34
-81.42
-124.94
-170.61
-214.46
-252.42
-281
-297.96
-302.71
-296.16
-280.38
-258.07
-232.12
-205.4
-180.55
-159.62
-143.76
-132.85
-125.55
-119.74
-113.37
-105.1
-94.7
-82.8
-70.47
-58.66
-48.03
-39.08
-32.28
-28.04
-26.39
-26.65
-27.34
-26.63
-23.05
-16.1
-6.52
4.06
13.72
20.93
24.93
25.73
23.85
20.02
14.97
9.19
2.94
-3.74
-10.96
-18.88
-27.51
-36.62
-45.75
-54.21
-61.24
-66.11
-68.23
-67.19
-62.71
-54.73
-43.43
-29.21
-12.87
4.35
20.82
34.69
44.37
48.95
48.55
44.26
37.79
30.81
24.42
19.03
14.54
10.81
8.02
6.77
7.65
10.9
16.05
21.95
27.27
31.02
32.79
32.54
30.23
25.57
18.21
8.27
-3.19
-14.27
-22.87
-27.76
-29.14
-28.66
-28.48
-30.21
-34.16
-39.42
-44.46
-48
-49.39
-48.54
-45.57
-40.45
-33.06
-23.5
-12.39
-0.84
9.74
18.15
23.83
26.94
28.17
28.38
28.23
27.98
27.66
27.18
26.55
25.93
25.58
25.77
26.67
28.34
30.71
33.58
36.58
39.25
41.14
41.89
41.25
38.99
34.84
28.58
20.27
10.55
0.53
-8.56
-15.94
-21.63
-26.28
-30.67
-35.04
-38.79
-40.76
-39.92
-35.99
-29.64
-22.2
-15.02
-9.03
-4.63
-1.82
-0.52
-0.7
-2.36
-5.5
-9.98
-15.46
-21.25
-26.36
-29.57
-29.84
-26.66
-20.26
-11.62
-2.05
7.31
15.83
23.4
30.27
36.68
42.63
47.77
51.6
53.53
53.11
50
43.99
35.15
23.87
10.94
-2.46
-15.04
-25.57
-33.05
-36.73
-36.14
-31.11
-21.86
-9.12
5.77
21.17
35.52
47.78
57.61
65.28
71.24
75.78
78.83
80.14
79.53
77
72.8
67.37
61.22
54.91
48.95
43.8
39.69
36.76
35.14
35.16
37.32
42.1
49.67
59.58
70.83
82.09
92.04
99.71
104.58
106.7
106.59
105.15
103.38
102.1
101.58
101.38
100.55
98.02
92.99
85.07
74.18
60.35
43.69
24.79
5.1
-12.9
-26.33
-32.85
-31.74
-24.46
-14.24
-4.95
0.21
-0.37
-6.6
-17.13
-30.08
-43.63
-56.23
-66.76
-74.6
-79.8
-83.24
-86.26
-90.24
-95.93
-103.13
-110.93
-118.33
-124.83
-130.51
-135.69
-140.33
-143.76
-144.86
-142.62
-136.62
-127.05
-114.44
-99.25
-81.7
-61.98
-40.63
-18.75
2.2
20.94
36.91
50.52
62.94
75.51
89.07
103.51
117.8
130.26
139.06
142.88
141.08
133.8
121.75
106.02
87.93
68.92
50.3
33.09
17.72
3.76
-9.88
-24.66
-41.83
-62.01
-85.01
-109.88
-135.15
-159.05
-179.58
-194.74
-202.66
-202
-192.3
-174.25
-149.64
-120.9
-90.39
-59.81
-30.01
-1.34
25.67
49.87
69.5
82.92
89.49
90.27
87.89
85.61
85.97
89.87
96.29
102.98
107.52
108.14
104.2
96.03
84.52
70.7
55.45
39.38
22.92
6.44
-9.71
-25.14
-39.45
-52.36
-63.72
-73.59
-82.16
-89.64
-96.12
-101.66
-106.29
-110.15
-113.4
-116.07
-117.99
-118.76
-117.96
-115.32
-110.77
-104.29
-95.82
-85.2
-72.3
-57.29
-40.78
-23.93
-8.05
5.84
17.5
27.84
38.96
53.75
75.02
104.38
141.24
182.51
223.29
258.31
283.7
298.04
302.37
298.97
289.99
276.6
259.02
237.45
212.93
187.51
163.71
143.44
127.32
114.77
104.65
95.98
88.38
81.74
75.82
69.8
62.55
53.1
41.29
27.92
14.43
2.52
-6.38
-11.14
-11.03
-5.76
4.17
17.25
31.04
42.69
49.95
51.78
48.48
41.15
30.78
17.82
2.36
-15.31
-34.13
-52.46
-68.89
-83.17
-96.49
-110.86
-127.88
-147.68
-168.64
-188.14
-203.47
-212.73
-215.12
-210.71
-200.27
-185.14
-167.35
-149.61
-134.89
-125.64
-123.02
-126.61
-134.8
-145.82
-158.62
-173.17
-189.95
-208.81
-228.19
-245.06
-255.9
-258.2
-251.59
-238.02
-220.77
-202.99
-186.48
-171.44
-157.15
-142.97
-129
-116.11
-105.29
-96.98
-90.67
-85.05
-78.62
-70.35
-60.15
-48.93
-38.19
-29.51
-23.85
-21.22
-20.71
-20.95
-20.62
-18.95
-15.88
-11.9
-7.75
-4.07
-1.36
0.04
-0.11
-1.81
-4.81
-8.45
-11.8
-13.87
-13.92
-11.67
-7.25
-1.02
6.6
15.26
24.53
33.87
42.61
50.07
55.8
59.72
62.07
63.31
63.87
64.04
63.99
63.73
63.24
62.45
61.29
59.67
57.54
54.94
52.03
49
46.03
43.16
40.26
37.12
33.5
29.31
24.65
19.79
15.08
10.8
7.18
4.31
2.28
1.19
1.22
2.58
5.44
9.84
15.58
22.23
29.26
36.2
42.73
48.74
54.28
59.39
64.04
68.12
71.53
74.3
76.54
78.37
79.87
80.97
81.47
81.18
79.93
77.59
74.1
69.39
63.48
56.53
48.91
41.14
33.79
27.3
21.84
17.27
13.21
9.14
4.7
-0.24
-5.4
-10.16
-13.72
-15.33
-14.46
-10.97
-5.09
2.6
11.26
19.94
27.73
33.98
38.45
41.35
43.23
44.76
46.45
48.48
50.64
52.46
53.43
53.16
51.62
49.13
46.34
44.08
43.03
43.51
45.27
47.65
49.76
50.86
50.55
48.76
45.72
41.74
37.14
32.23
27.31
22.64
18.29
14.05
9.5
4.23
-1.86
-8.32
-14.16
-18.19
-19.38
-17.26
-11.99
-4.24
5.08
15.15
25.31
35.07
43.95
51.32
56.4
58.43
56.98
52.32
45.51
38.27
32.43
29.25
28.94
30.62
32.82
34.18
34.05
32.62
30.55
28.33
25.92
22.87
18.77
13.64
7.99
2.51
-2.48
-7.24
-12.48
-18.83
-26.52
-35.18
-44.13
-52.68
-60.42
-67.19
-72.88
-77.28
-80.01
-80.68
-78.96
-74.74
-68.04
-59
-47.99
-35.6
-22.7
-10.25
0.86
10.05
17.01
21.54
23.36
22.14
17.85
11.26
4.1
-1.25
-2.68
0.7
8.1
17.55
26.96
35.16
42.27
49.01
55.58
60.96
63.03
59.77
50.64
37.29
23.02
11.31
4.16
1.34
0.72
-0.39
-3.91
-10.18
-18.19
-26.3
-33.04
-37.48
-39.1
-37.56
-32.6
-24.15
-12.62
0.98
15.2
28.46
39.42
47.12
51.14
51.49
48.72
43.77
37.76
31.61
25.8
20.31
14.96
9.77
5.16
1.78
0.17
0.38
2.04
4.6
7.68
11.17
15.03
18.99
22.37
24.35
24.4
22.64
19.84
17.13
15.36
14.65
14.37
13.3
10.18
4.08
-5.21
-17.16
-30.62
-44.09
-56.04
-65.18
-70.74
-72.46
-70.64
-65.9
-59.04
-50.75
-41.48
-31.53
-21.19
-10.99
-1.75
5.58
10.25
12.02
11.23
8.67
5.19
1.41
-2.33
-5.83
-8.74
-10.54
-10.69
-9.03
-5.98
-2.57
-0.03
0.73
-0.55
-3.41
-6.99
-10.44
-13.27
-15.45
-17.25
-19.05
-21.07
-23.42
-26.07
-28.86
-31.6
-33.98
-35.56
-35.85
-34.38
-30.88
-25.46
-18.7
-11.49
-4.87
0.4
3.96
6
7.04
7.69
8.36
9.16
9.94
10.46
10.52
10.02
9.01
7.6
5.93
4.08
2
-0.47
-3.55
-7.29
-11.54
-15.83
-19.57
-22.28
-23.77
-24.13
-23.68
-22.67
-21.27
-19.59
-17.75
-15.87
-13.82
-11.02
-6.41
1.1
12.06
26.03
41.54
56.61
69.4
78.82
84.59
86.96
86.26
82.63
76.09
66.8
55.42
43.06
31.03
20.41
11.68
4.62
-1.45
-7.34
-13.47
-19.67
-25.39
-29.93
-32.93
-34.48
-35.11
-35.36
-35.57
-35.7
-35.42
-34.32
-32.06
-28.52
-23.77
-17.99
-11.43
-4.3
3.22
11.04
19.13
27.45
35.72
43.21
48.74
50.98
48.97
42.65
33.03
21.9
11.13
1.99
-5.3
-11.32
-16.89
-22.47
-27.82
-32.18
-34.76
-35.15
-33.42
-29.95
-25.18
-19.42
-12.86
-5.64
2.05
9.91
17.61
24.82
31.18
36.17
39.09
39.13
35.61
28.22
17.25
3.67
-10.99
-24.93
-36.51
-44.6
-48.84
-49.49
-47.19
-42.59
-36.11
-27.87
-17.92
-6.52
5.73
17.96
29.24
38.9
46.57
52.13
55.45
56.25
54.25
49.37
41.85
32.29
21.45
10.07
-1.23
-11.9
-21.44
-29.37
-35.32
-39.17
-41.07
-41.23
-39.76
-36.54
-31.33
-24.15
-15.46
-6.26
2.22
8.92
13.32
15.65
16.58
17.06
17.92
19.74
22.7
26.48
30.12
31.96
29.94
22.29
8.45
-10.42
-31.59
-51.65
-67.71
-78.39
-84.02
-86.14
-86.6
-86.81
-87.33
-87.84
-87.31
-84.44
-78.08
-67.64
-53.13
-34.94
-13.52
10.73
37.18
64.44
89.82
109.76
120.81
121.03
110.86
93
71.35
49.69
30.76
16.07
6.32
1.67
1.79
5.65
11.3
16.17
17.77
14.55
6.45
-4.95
-17.02
-26.91
-32.46
-32.82
-28.55
-21.3
-13.09
-5.5
0.9
6.54
12.38
19.24
27.09
34.92
41.06
43.95
42.72
37.53
29.22
18.84
7.21
-4.99
-17.01
-27.69
-35.53
-39.2
-38.13
-32.78
-24.23
-13.53
-1.03
13.7
31.32
51.87
74.1
95.59
113.53
125.65
131.07
130.4
125.2
117.23
107.88
97.99
88.19
79.22
72.08
67.78
66.78
68.51
71.31
72.8
70.79
64.17
53.31
39.82
25.8
12.89
1.71
-8.14
-17.52
-27.07
-36.66
-45.5
-52.55
-57.14
-59.27
-59.59
-58.95
-57.91
-56.5
-54.33
-51.01
-46.55
-41.56
-37.07
-34.14
-33.42
-34.97
-38.35
-42.9
-48.05
-53.38
-58.61
-63.5
-67.69
-70.74
-72.27
-72.06
-70.12
-66.66
-62
-56.48
-50.4
-44.07
-37.75
-31.61
-25.76
-20.16
-14.65
-9.01
-3.02
3.45
10.41
17.68
24.97
31.9
38.07
43.1
46.63
48.37
48.23
46.32
43.02
38.88
34.5
30.28
26.26
22.19
17.61
12.13
5.6
-1.77
-9.56
-17.21
-24.25
-30.32
-35.24
-38.99
-41.71
-43.72
-45.51
-47.58
-50.33
-53.77
-57.42
-60.34
-61.53
-60.3
-56.75
-51.73
-46.64
-42.86
-41.28
-42.16
-45.17
-49.72
-55.08
-60.41
-64.67
-66.71
-65.56
-60.78
-52.77
-42.64
-31.84
-21.54
-12.31
-4.07
3.63
11.19
18.67
25.77
31.94
36.73
39.97
41.9
43.15
44.7
47.6
52.76
60.69
71.28
83.79
96.96
109.29
119.34
125.92
128.22
125.86
118.98
108.15
94.41
79
63.15
47.67
32.85
18.39
3.8
-11.35
-27.18
-43.49
-59.94
-76.21
-91.92
-106.57
-119.36
-129.16
-134.84
-135.53
-130.94
-121.46
-108.03
-91.96
-74.62
-57.39
-41.45
-27.7
-16.67
-8.4
-2.57
1.38
4
5.74
6.87
7.63
8.3
9.32
11.16
14.21
18.69
24.58
31.66
39.64
48.32
57.59
67.38
77.59
87.98
98.11
107.48
115.7
122.75
129.06
135.51
143.18
153.05
165.51
180.01
194.71
206.6
212.04
207.69
191.61
164.09
127.79
87.02
46.5
10
-20.4
-44.43
-63.05
-77.69
-89.62
-99.77
-108.73
-116.92
-124.54
-131.53
-137.33
-140.95
-141.19
-137.1
-128.5
-116.1
-101.49
-86.6
-73.18
-62.28
-54.16
-48.48
-44.65
-42.25
-41.13
-41.28
-42.66
-45
-47.75
-50.16
-51.58
-51.73
-50.98
-50.39
-51.43
-55.36
-62.58
-72.3
-82.74
-91.82
-97.99
-100.66
-100.02
-96.45
-89.92
-79.86
-65.52
-46.62
-23.8
1.47
27.42
52.58
75.95
96.93
115.05
129.73
140.31
146.42
148.22
146.44
142.11
136.15
129.06
120.78
110.82
98.56
83.45
65.17
43.61
18.85
-8.76
-38.39
-68.37
-96.28
-119.38
-135.65
-144.66
-148.03
-148.84
-150.36
-154.72
-162.15
-171.33
-180.33
-187.85
-193.81
-199.15
-205.05
-212.1
-219.74
-226.29
-229.43
-226.87
-217.12
-200.03
-176.92
-150.31
-123.08
-97.62
-75.18
-55.76
-38.57
-22.72
-7.82
5.86
17.85
27.96
36.69
45.14
54.51
65.53
78.06
91.23
103.87
115.09
124.49
132.05
137.79
141.47
142.65
140.99
136.49
129.63
121.14
111.81
102.28
93.13
84.9
78.12
72.95
69.1
65.72
61.72
56.36
49.65
42.45
36.23
32.88
34.27
41.95
56.58
77.35
101.89
126.71
148.43
165.02
176.45
184.29
190.47
195.96
200.19
201.54
198.46
190.48
178.47
164.04
148.48
132.22
114.87
95.83
74.98
52.95
31.06
10.81
-6.65
-20.94
-32.56
-42.61
-52.34
-62.74
-74.17
-86.33
-98.47
-109.75
-119.58
-127.87
-134.99
-141.64
-148.54
-156.13
-164.41
-172.79
-180.29
-185.63
-187.64
-185.59
-179.45
-169.91
-158.17
-145.49
-132.82
-120.65
-109.02
-97.8
-87.03
-77.01
-68.23
-61.13
-55.93
-52.43
-50.03
-47.74
-44.39
-38.82
-30.24
-18.49
-4.06
11.99
28.4
43.94
57.71
69.09
77.69
83.09
84.73
81.86
73.78
60.14
41.21
18.1
-7.39
-33.03
-56.61
-76.43
-91.63
-102.21
-108.85
-112.63
-114.65
-115.82
-116.69
-117.38
-117.5
-116.26
-112.66
-105.7
-94.74
-79.76
-61.54
-41.52
-21.48
-3.12
12.4
24.77
34.4
42.15
48.87
55.01
60.5
64.87
67.65
68.65
68.17
66.87
65.46
64.5
64.23
64.64
65.52
66.55
67.26
66.99
65
60.68
53.83
44.81
34.43
23.62
13.14
3.3
-5.95
-14.86
-23.52
-31.71
-38.79
-43.92
-46.35
-45.69
-42.07
-36.2
-29.12
-21.95
-15.68
-11.01
-8.31
-7.62
-8.62
-10.56
-12.34
-12.73
-10.79
-6.23
0.51
8.52
16.84
24.94
32.76
40.42
47.85
54.52
59.53
62.04
61.74
59.09
55.13
51.05
47.68
45.21
43.19
40.75
36.89
30.85
22.34
11.68
-0.14
-11.77
-21.72
-28.75
-32.05
-31.32
-26.59
-18.14
-6.55
7.13
21.26
33.79
42.78
47.1
46.9
43.49
38.77
34.4
31.25
29.3
27.92
26.32
23.95
20.57
16.24
11.31
6.33
1.99
-1.09
-2.56
-2.46
-1.06
1.31
4.44
8.29
12.69
17.21
21.12
23.65
24.37
23.39
21.32
18.91
16.75
15.04
13.76
12.84
12.41
12.82
14.38
17.05
20.4
23.75
26.52
28.48
29.76
30.62
31.15
31.08
30.02
27.74
24.51
21.07
18.3
16.74
16.37
16.63
16.84
16.67
16.34
16.41
17.23
18.51
19.21
17.87
13.35
5.4
-5.09
-16.46
-27.02
-35.62
-41.86
-45.82
-47.52
-46.56
-42.2
-33.79
-21.24
-5.34
12.41
30.23
46.5
60.13
70.57
77.62
81.26
81.55
78.69
73.18
65.86
57.97
50.91
45.87
43.51
43.73
45.73
48.25
50.01
50.02
47.85
43.67
38.18
32.48
27.85
25.39
25.69
28.66
33.57
39.36
45.11
50.24
54.53
57.84
59.87
60.1
57.96
53.18
45.84
36.25
24.6
10.86
-5.08
-22.92
-41.59
-59.38
-74.33
-84.96
-90.74
-92.17
-90.44
-87.02
-83.34
-80.65
-80
-82.15
-87.32
-95.01
-104.02
-112.73
-119.57
-123.38
-123.59
-120.14
-113.3
-103.67
-92.13
-79.86
-68.22
-58.48
-51.51
-47.57
-46.37
-47.25
-49.6
-52.86
-56.64
-60.46
-63.71
-65.68
-65.74
-63.68
-59.77
-54.77
-49.62
-45.23
-42.13
-40.44
-39.84
-39.82
-39.87
-39.8
-39.72
-39.9
-40.48
-41.18
-41.22
-39.53
-35.26
-28.16
-18.71
-7.95
3.06
13.66
23.71
33.41
42.78
51.37
58.28
62.52
63.55
61.59
57.63
53.01
48.98
46.26
44.92
44.55
44.51
44.23
43.29
41.47
38.65
34.75
29.78
23.92
17.55
11.27
5.75
1.47
-1.45
-3.33
-4.86
-6.74
-9.44
-12.98
-17.1
-21.36
-25.39
-28.85
-31.37
-32.46
-31.61
-28.42
-22.89
-15.49
-7.12
1.14
8.41
14.18
18.43
21.52
24
26.45
29.27
32.62
36.35
40.03
42.99
44.55
44.22
41.9
37.94
33.12
28.43
24.81
22.9
22.87
24.4
26.8
29.14
30.55
30.32
28.15
24.14
18.78
12.75
6.75
1.24
-3.56
-7.73
-11.48
-15.08
-18.78
-22.74
-26.99
-31.3
-35.16
-37.82
-38.52
-36.78
-32.58
-26.42
-19.05
-11.27
-3.7
3.27
9.33
14.1
17.1
17.81
15.91
11.47
5.08
-2.23
-9.14
-14.42
-17.24
-17.4
-15.43
-12.37
-9.41
-7.51
-7.1
-8.16
-10.4
-13.54
-17.48
-22.29
-28.02
-34.58
-41.68
-48.94
-56.02
-62.64
-68.6
-73.7
-77.78
-80.79
-82.96
-84.81
-86.98
-90.07
-94.32
-99.53
-105.09
-110.16
-113.88
-115.57
-114.67
-110.74
-103.28
-91.81
-76.1
-56.46
-34
-10.61
11.51
30.39
44.93
55.13
61.89
66.51
70.17
73.6
77.03
80.43
83.73
86.94
90.14
93.38
96.61
99.74
102.72
105.62
108.61
111.76
114.94
117.56
118.74
117.49
113.22
105.88
96.06
84.71
72.78
60.97
49.58
38.65
28.13
18.03
8.44
-0.44
-8.4
-15.3
-21.05
-25.79
-29.79
-33.51
-37.25
-41.01
-44.29
-46.24
-45.92
-42.74
-36.61
-27.99
-17.6
-6.18
5.75
17.83
29.71
40.94
50.89
58.87
64.43
67.45
68.24
67.34
65.28
62.36
58.66
54.24
49.54
45.51
43.49
44.76
49.97
58.75
69.82
81.45
92.11
100.99
108.04
113.72
118.46
122.29
124.78
125.37
123.8
120.3
115.62
110.57
105.56
100.37
94.35
86.97
78.51
70.19
63.8
60.93
62.24
67.3
74.87
83.41
91.33
96.97
98.39
93.44
80.36
58.63
29.67
-3.19
-35.47
-62.99
-83.15
-95.51
-101.58
-103.84
-104.76
-106.06
-108.52
-112.23
-116.91
-122.25
-127.95
-133.59
-138.62
-142.43
-144.61
-145.27
-145.12
-145.21
-146.5
-149.33
-153.19
-156.88
-158.88
-157.93
-153.39
-145.38
-134.67
-122.41
-109.74
-97.6
-86.51
-76.57
-67.56
-58.99
-50.45
-41.65
-32.61
-23.49
-14.43
-5.38
4
14.15
25.45
37.96
51.35
64.99
78.1
89.9
99.78
107.29
112.22
114.6
114.78
113.26
110.59
107.24
103.44
99.24
94.56
89.25
83.17
76.23
68.49
60.22
51.89
44.13
37.51
32.37
28.78
26.54
25.31
24.7
24.39
24.12
23.74
23.26
22.85
22.7
22.9
23.29
23.49
23.07
21.79
19.73
17.16
14.35
11.27
7.63
2.97
-3.11
-10.74
-19.74
-29.62
-39.67
-48.94
-56.45
-61.27
-62.79
-61
-56.5
-50.4
-43.97
-38.31
-34.03
-31.14
-29.13
-27.15
-24.21
-19.52
-12.7
-3.88
6.31
17.03
27.53
37.38
46.51
54.95
62.66
69.36
74.64
78.16
79.9
80.14
79.37
78.01
76.18
73.72
70.39
66.02
60.68
54.59
47.96
40.87
33.43
25.93
18.98
13.38
9.78
8.31
8.47
9.39
10.25
10.77
11.26
12.35
14.52
17.79
21.79
26.01
30.11
33.91
37.19
39.55
40.36
39.12
35.78
30.88
25.37
20.16
15.8
12.28
9.2
5.99
2.21
-2.42
-8.01
-14.48
-21.48
-28.37
-34.43
-39.04
-42.04
-43.73
-44.78
-45.77
-46.98
-48.28
-49.26
-49.4
-48.23
-45.38
-40.65
-34.27
-27.04
-20.32
-15.69
-14.43
-17.1
-23.4
-32.46
-43.27
-55.06
-67.29
-79.36
-90.39
-99.18
-104.64
-106.27
-104.59
-100.88
-96.66
-93.02
-90.15
-87.43
-83.91
-78.83
-71.81
-62.69
-51.15
-36.64
-18.65
2.74
26.45
50.47
72.31
89.66
100.79
104.74
101.31
91.01
75.09
55.44
34.3
13.7
-5.1
-21.79
-36.7
-50.43
-63.41
-75.87
-88.03
-100.01
-111.64
-122.08
-129.91
-133.66
-132.67
-127.65
-120.41
-112.86
-106
-99.47
-92.08
-82.99
-72.76
-63.5
-58.11
-58.99
-66.92
-80.71
-97.81
-115.37
-131.27
-144.57
-155.29
-163.68
-169.43
-171.48
-168.46
-159.74
-146.02
-129.27
-111.79
-95.17
-79.89
-65.65
-52.29
-40.43
-31.09
-24.89
-21.3
-18.62
-14.79
-8.61
-0.27
9.07
18.39
27.77
38.23
50.82
65.34
80.01
92.07
99.3
101.14
99.01
95.42
92.54
91.22
90.83
90.16
88.4
85.8
83.39
82.13
82.11
82.34
81.37
78.1
72.31
64.66
56.19
47.67
39.3
30.84
21.98
12.65
3.15
-6.01
-14.29
-21.24
-26.51
-29.77
-30.67
-28.99
-24.83
-18.78
-11.82
-5.02
0.83
5.39
8.82
11.51
13.76
15.71
17.32
18.52
19.36
20
20.66
21.53
22.71
24.21
25.97
27.91
29.88
31.69
33.14
34.09
34.53
34.58
34.47
34.43
34.56
34.84
35.09
35.09
34.66
33.75
32.4
30.72
28.84
26.89
24.97
23.17
21.43
19.41
16.42
11.58
4.18
-5.83
-17.55
-29.35
-39.41
-46.39
-49.94
-50.53
-49.06
-46.24
-42.29
-37.13
-30.68
-23.23
-15.5
-8.39
-2.52
1.93
5.32
8.21
11.12
14.27
17.6
20.79
23.54
25.69
27.31
28.67
30.12
31.94
34.22
36.79
39.29
41.27
42.33
42.3
41.24
39.47
37.41
35.43
33.72
32.24
30.78
29.08
26.93
24.26
21.16
17.78
14.29
10.75
7.19
3.51
-0.4
-4.61
-9.1
-13.63
-17.8
-21.05
-22.79
-22.52
-19.99
-15.19
-8.4
-0.14
8.97
18.3
27.35
35.85
43.69
50.94
57.64
63.74
69.09
73.54
77
79.63
81.71
83.57
85.42
87.27
88.99
90.41
91.55
92.53
93.59
94.86
96.26
97.53
98.3
98.18
96.9
94.3
90.39
85.3
79.34
72.93
66.52
60.43
54.82
49.69
45
40.74
36.99
33.82
31.22
29.13
27.43
26.1
25.23
25.01
25.49
26.53
27.75
28.7
29.09
28.97
28.71
28.77
29.53
30.97
32.75
34.36
35.28
35.2
34.03
31.77
28.49
24.27
19.3
13.97
8.81
4.41
1.12
-1.17
-3.01
-5.27
-8.78
-13.92
-20.51
-27.85
-35.12
-41.71
-47.52
-52.96
-58.68
-65.27
-72.99
-81.74
-91.17
-100.84
-110.23
-118.77
-125.95
-131.47
-135.46
-138.6
-141.81
-145.86
-150.88
-156.32
-161.21
-164.69
-166.48
-166.88
-166.38
-165.12
-162.69
-158.38
-151.83
-143.58
-134.98
-127.6
-122.35
-119.02
-116.39
-112.89
-107.46
-99.96
-91.01
-81.51
-72
-62.49
-52.66
-42.26
-31.4
-20.55
-10.21
-0.6
8.58
17.99
28.26
39.71
52
64.31
75.59
84.92
91.8
96.14
98.09
97.9
95.72
91.76
86.46
80.54
74.89
70.26
66.97
64.79
63.03
60.89
57.77
53.42
48.05
42.2
36.48
31.44
27.34
24.14
21.46
18.69
15.19
10.55
4.82
-1.47
-7.47
-12.3
-15.38
-16.54
-16.05
-14.4
-12.1
-9.48
-6.74
-3.94
-1.26
0.85
1.74
0.72
-2.56
-7.81
-14.05
-19.84
-23.79
-25.06
-23.61
-20.13
-15.73
-11.51
-8.3
-6.48
-6.03
-6.7
-8.11
-9.93
-12
-14.38
-17.25
-20.82
-25.11
-29.94
-34.92
-39.57
-43.34
-45.76
-46.5
-45.46
-42.81
-39.03
-34.84
-31.08
-28.6
-28.04
-29.62
-32.89
-36.66
-39.22
-38.8
-34.11
-24.81
-11.44
4.78
22.44
40.24
57.15
72.25
84.66
93.47
97.78
97.02
91.11
80.73
67.4
53.26
40.53
30.92
24.96
21.98
20.5
19.11
17.17
14.99
13.48
13.47
15.07
17.69
20.39
22.38
23.34
23.35
22.54
20.87
18.07
13.9
8.4
2.05
-4.45
-10.48
-15.82
-20.66
-25.51
-30.9
-37.19
-44.38
-52.02
-59.21
-64.74
-67.36
-66.28
-61.44
-53.56
-43.75
-33.08
-22.16
-11.23
-0.44
9.63
18
23.58
25.71
24.65
21.42
17.46
13.93
11.46
10.02
9.29
8.97
9.01
9.69
11.55
15.16
20.86
28.57
37.64
46.94
55.16
61.23
64.74
66.03
66.02
65.65
65.48
65.4
64.78
62.78
58.83
52.85
45.33
37.08
28.88
21.2
14.14
7.56
1.29
-4.75
-10.5
-15.89
-20.82
-25.15
-28.62
-30.78
-31.19
-29.7
-26.67
-22.99
-19.69
-17.43
-16.25
-15.56
-14.68
-13.3
-11.71
-10.51
-10.14
-10.47
-10.96
-11
-10.49
-9.93
-10.14
-11.71
-14.54
-17.87
-20.68
-22.21
-22.28
-21.3
-19.96
-18.77
-17.89
-17.11
-16.05
-14.38
-12
-9.02
-5.64
-2.1
1.35
4.38
6.45
6.97
5.53
2.15
-2.45
-7.08
-10.51
-11.96
-11.51
-9.93
-8.33
-7.48
-7.47
-7.62
-7.04
-5.09
-1.81
2.08
5.68
8.41
10.29
11.85
13.63
15.75
17.74
18.86
18.59
17.08
15.15
13.79
13.69
14.85
16.66
18.31
19.27
19.53
19.53
19.83
20.81
22.51
24.65
26.87
28.89
30.67
32.33
33.99
35.7
37.34
38.64
39.42
39.57
39.05
37.76
35.39
31.48
25.56
17.53
7.83
-2.61
-12.79
-21.94
-29.88
-36.95
-43.62
-50.18
-56.46
-61.92
-65.85
-67.66
-67.09
-64.28
-59.67
-53.81
-47.16
-39.96
-32.13
-23.48
-13.89
-3.61
6.66
15.82
22.68
26.33
26.39
23.25
18.01
12.31
7.99
6.66
9.2
15.4
23.69
31.32
34.85
31.3
19.47
0.82
-20.51
-38.98
-49.66
-50.15
-41.45
-27.24
-12.08
0.61
9.57
15.6
20.31
24.88
29.4
33.2
35.56
36.32
35.9
34.9
33.48
31.17
27.09
20.63
11.94
2.14
-6.99
-13.71
-16.91
-16.5
-13.4
-9.1
-5.09
-2.39
-1.27
-1.37
-1.95
-2.33
-2.17
-1.53
-0.79
-0.3
-0.2
-0.36
-0.51
-0.43
-0.15
0.15
0.23
-0.03
-0.54
-1.09
-1.43
-1.41
-1.02
-0.33
0.51
1.35
2.03
2.37
2.23
1.51
0.23
-1.48
-3.43
-5.48
-7.55
-9.71
-12.07
-14.73
-17.64
-20.58
-23.13
-24.77
-25.02
-23.59
-20.54
-16.24
-11.33
-6.45
-2.06
1.66
4.77
7.43
9.73
11.63
12.99
13.67
13.68
13.19
12.48
11.8
11.26
10.83
10.33
9.56
8.47
7.18
5.92
4.95
4.37
4.07
3.74
3.09
1.99
0.55
-0.95
-2.26
-3.32
-4.35
-5.69
-7.61
-10.13
-13
-15.98
-18.93
-22
-25.45
-29.37
-33.53
-37.3
-39.92
-40.8
-39.82
-37.27
-33.74
-29.78
-25.73
-21.7
-17.74
-13.91
-10.38
-7.31
-4.74
-2.56
-0.52
1.58
3.8
6.02
8.11
9.99
11.66
13.16
14.43
15.34
15.74
15.6
15.15
14.84
15.14
16.28
18.18
20.45
22.56
24.17
25.16
25.72
26.11
26.57
27.15
27.83
28.63
29.71
31.37
33.96
37.62
42.18
47.13
51.85
55.83
58.88
61.17
63.1
65.1
67.5
70.39
73.75
77.52
81.61
85.78
89.4
91.34
90.04
84.23
73.47
58.57
41.44
24.42
9.41
-2.81
-12.66
-21.24
-29.59
-38.1
-46.5
-54.18
-60.73
-66.2
-70.99
-75.49
-79.75
-83.45
-86.07
-87.24
-86.92
-85.53
-83.52
-81.15
-78.16
-73.89
-67.69
-59.38
-49.64
-39.81
-31.53
-26.05
-23.87
-24.63
-27.44
-31.22
-34.97
-37.82
-38.98
-37.78
-33.77
-26.98
-17.92
-7.5
3.26
13.53
22.63
29.93
34.71
36.21
33.88
27.54
17.65
5.23
-8.23
-20.98
-31.3
-38.01
-40.91
-41.08
-40.63
-41.88
-46.13
-52.89
-59.93
-64.27
-63.62
-57.49
-47.26
-35.59
-25.24
-18.38
-16.37
-19.78
-28.4
-41.03
-55.4
-68.23
-76.01
-75.97
-67.06
-50.37
-28.82
-6.22
13.87
29.31
39.82
46.91
52.99
60.36
70.23
82.44
95.7
108.29
118.78
126.39
130.88
132.31
130.91
126.94
120.79
112.82
103.31
92.3
79.82
66.23
52.49
40.09
30.52
24.58
21.93
21.28
21.05
20.07
18.07
15.45
12.75
10.1
7.18
3.54
-0.83
-5.4
-9.22
-11.52
-12.24
-12.08
-12.14
-13.3
-15.69
-18.51
-20.41
-20.22
-17.73
-14.07
-11.37
-11.94
-17.1
-26.41
-37.75
-48.21
-55.39
-58.41
-58.06
-55.96
-53.43
-50.71
-46.85
-40.45
-30.68
-17.91
-3.61
10.32
22.33
31.69
38.42
42.78
44.97
45
43.06
39.76
36.12
33.08
31.05
29.65
27.97
25.19
21.1
16.2
11.42
7.6
5.16
4.08
4.11
5.03
6.64
8.69
10.7
12.13
12.57
12.01
10.89
9.82
9.3
9.37
9.64
9.55
8.6
6.57
3.39
-0.93
-6.3
-12.42
-18.62
-23.9
-27.2
-27.84
-25.83
-21.95
-17.33
-12.95
-9.33
-6.45
-3.94
-1.44
1.19
3.91
6.56
9.02
11.24
13.34
15.54
18.06
21.11
24.7
28.66
32.64
36.26
39.17
41.21
42.34
42.63
42.2
41.2
39.79
38.21
36.69
35.4
34.4
33.57
32.67
31.39
29.46
26.74
23.29
19.32
15.12
10.98
7.09
3.55
0.31
-2.71
-5.69
-8.81
-12.31
-16.36
-20.93
-25.77
-30.29
-33.78
-35.61
-35.43
-33.3
-29.69
-25.24
-20.59
-16.28
-12.62
-9.76
-7.75
-6.53
-6
-6
-6.42
-7.24
-8.54
-10.49
-13.2
-16.54
-20.14
-23.42
-25.78
-26.84
-26.61
-25.41
-23.86
-22.61
-22.15
-22.68
-23.89
-25.01
-24.82
-22.11
-16.18
-7.33
3.17
13.5
22.21
28.83
34.11
39.51
46.37
55.17
65.23
74.97
82.53
86.38
85.91
81.56
74.74
67.4
61.4
57.88
56.83
57.14
56.99
54.53
48.32
37.55
21.88
1.37
-23.69
-52.53
-83.78
-115.35
-144.79
-169.81
-188.92
-201.96
-209.87
-214.3
-216.73
-217.92
-217.66
-215.04
-208.9
-198.43
-183.49
-164.86
-144.1
-123.22
-104.26
-88.71
-77.06
-68.77
-62.58
-57.24
-52.03
-47.01
-42.67
-39.37
-36.97
-34.87
-32.49
-29.72
-27
-24.96
-23.85
-23.04
-21.14
-16.49
-7.92
4.68
20.28
37.13
53.4
67.73
79.49
88.67
95.62
100.67
103.93
105.2
104.09
100.22
93.57
84.68
74.72
65.21
57.62
53.01
51.77
53.6
57.71
63.04
68.43
72.75
75.16
75.3
73.37
69.99
65.76
60.8
54.6
46.28
35.29
21.96
7.7
-5.5
-15.93
-23.02
-27.45
-30.84
-34.85
-40.34
-47.13
-54.31
-60.87
-66.14
-69.79
-71.48
-70.5
-65.85
-56.68
-42.97
-25.88
-7.55
9.69
24.08
34.98
42.65
47.77
50.81
51.85
50.76
47.58
42.88
37.69
33.12
29.99
28.55
28.54
29.4
30.67
32.17
33.97
36.2
38.89
41.81
44.56
46.75
48.12
48.66
48.49
47.64
45.91
42.75
37.41
29.24
18.02
4.21
-11.06
-26.26
-39.87
-50.83
-58.72
-63.74
-66.49
-67.64
-67.69
-66.96
-65.66
-64.05
-62.52
-61.59
-61.73
-63.22
-66.08
-70.12
-75.08
-80.77
-87.07
-93.84
-100.84
-107.58
-113.47
-117.94
-120.48
-120.58
-117.58
-110.64
-99.06
-82.65
-62.01
-38.47
-13.74
10.67
33.76
55.01
74.13
90.69
104.05
113.63
119.17
120.95
119.61
115.88
110.26
102.98
94.11
83.83
72.5
60.74
49.4
39.51
32.2
28.53
29.16
34.06
42.34
52.47
62.73
71.73
78.77
83.77
86.99
88.63
88.68
87.08
83.91
79.57
74.74
70.08
65.98
62.42
59.15
55.85
52.3
48.48
44.49
40.4
36.1
31.32
25.63
18.73
10.74
2.43
-4.97
-10.12
-12.17
-11.3
-8.87
-7.15
-8.74
-16
-30.55
-52.7
-80.83
-111.06
-137.71
-154.64
-157.4
-144.89
-120.04
-88.69
-57.41
-31.21
-12.33
-0.47
6.13
9.43
11.11
12.52
14.91
19.38
26.35
35.09
43.61
49.36
50.11
44.9
34.33
20.25
5.1
-9.01
-20.78
-29.89
-36.66
-41.67
-45.27
-47.34
-47.33
-44.58
-38.77
-30.18
-19.77
-8.87
1.19
9.52
15.71
19.73
21.56
21.06
17.96
12.26
4.35
-4.87
-14.43
-23.5
-31.75
-39.17
-45.83
-51.66
-56.41
-59.94
-62.48
-64.62
-67.11
-70.41
-74.26
-77.63
-78.96
-76.62
-69.49
-57.29
-40.67
-21
0.04
20.91
40.54
58.42
74.46
88.68
100.95
110.92
118.1
122.11
122.83
120.41
115.09
107.06
96.22
82.37
65.39
45.52
23.59
0.9
-21.07
-41.13
-58.83
-74.62
-89.57
-104.81
-120.81
-137.02
-152.01
-163.97
-171.41
-173.48
-170.04
-161.45
-148.49
-132.25
-114.17
-95.84
-78.63
-63.32
-49.79
-37.26
-24.87
-12.31
-0.1
10.65
18.95
24.65
28.66
32.68
38.36
46.5
56.63
67.17
76.05
81.61
83.1
80.77
75.5
68.31
60
51.1
41.91
32.72
23.78
15.31
7.38
-0.08
-7.17
-13.77
-19.38
-23.11
-23.87
-20.89
-14.22
-4.9
5.21
13.98
19.56
20.72
16.85
7.81
-6.09
-23.84
-43.43
-61.89
-75.72
-81.97
-79.11
-67.59
-49.47
-27.58
-4.55
17.71
38.01
55.56
69.69
79.86
85.96
88.52
88.65
87.67
86.54
85.53
84.24
82
78.35
73.29
67.26
60.9
54.78
49.25
44.5
40.6
37.39
34.47
31.21
26.9
21.05
13.55
4.72
-4.85
-14.52
-23.71
-31.9
-38.64
-43.44
-45.96
-46.09
-43.87
-39.21
-31.72
-20.68
-5.51
13.5
34.75
55.4
72.22
82.64
85.71
82.38
75.03
66.71
60.43
58.58
62.6
72.71
87.67
104.93
121.15
132.94
137.81
134.74
124.45
109.32
92.91
79.24
71.65
71.76
78.97
90.66
103.17
113.28
118.98
119.65
115.54
107.21
95.42
81.27
66.18
51.45
37.46
23.45
8.04
-9.44
-27.86
-44.5
-56.36
-62.15
-63.46
-64.26
-69.11
-81.21
-101.14
-127.17
-156.4
-185.88
-213.25
-236.77
-255.33
-268.56
-276.98
-281.9
-284.86
-286.9
-288.07
-287.56
-284.35
-277.94
-268.55
-256.82
-243.16
-227.43
-209.24
-188.52
-165.99
-143.07
-121.12
-100.69
-81.24
-61.64
-41.08
-19.72
1.43
21.06
38.18
52.21
62.65
68.71
69.43
64.33
54.28
41.75
30.16
22.56
20.4
23.02
28.12
32.9
35.11
33.65
28.51
20.49
10.96
1.66
-5.53
-8.89
-7.41
-1.17
8.5
19.3
28.57
34
34.2
28.98
19.21
6.39
-7.86
-22.11
-35.23
-46.21
-54.21
-58.75
-60.06
-59.31
-58.44
-59.55
-63.91
-71.29
-79.88
-86.92
-89.78
-86.89
-78.06
-64.25
-46.87
-27.35
-6.92
13.33
32.36
49.24
63.4
74.74
83.69
90.84
96.61
100.96
103.57
104.13
102.74
100.09
97.29
95.52
95.67
98.13
102.83
109.35
117.1
125.39
133.54
140.92
147.13
152.15
156.29
160.04
163.83
167.69
170.98
172.41
170.29
163.04
149.77
130.78
107.65
82.83
58.89
37.61
19.43
3.55
-11.51
-26.93
-43.01
-58.96
-73.42
-85.04
-93.07
-97.4
-98.36
-96.39
-91.77
-84.82
-76.08
-66.59
-57.78
-51.09
-47.45
-46.86
-48.45
-50.81
-52.6
-52.89
-51.29
-47.69
-42.11
-34.75
-26.22
-17.71
-10.76
-6.63
-5.47
-6
-5.88
-2.75
4.62
15.8
28.97
41.84
52.72
60.96
66.87
71.08
74
75.51
75.19
72.55
67.32
59.52
49.47
37.64
24.77
11.79
-0.1
-9.62
-15.58
-17.18
-14.24
-7.34
2.3
13.09
23.46
32.23
38.84
43.37
46.37
48.54
50.41
52.13
53.52
54.25
54.06
52.95
51.13
48.94
46.62
44.31
42.03
39.86
37.89
36.25
34.94
33.77
32.46
30.7
28.36
25.44
22.05
18.26
14.08
9.43
4.09
-2.21
-9.71
-18.6
-28.88
-40.25
-52.13
-63.73
-74.33
-83.46
-91.14
-97.72
-103.72
-109.53
-115.32
-121.11
-126.93
-132.8
-138.74
-144.43
-149.21
-152.07
-151.9
-147.85
-139.59
-127.29
-111.43
-92.5
-70.95
-47.31
-22.45
2.3
25.17
44.39
58.61
67.3
70.91
70.58
67.81
63.88
59.65
55.45
51.27
47.08
43.01
39.44
36.78
35.36
35.11
35.61
36.22
36.34
35.68
34.36
32.69
30.89
28.83
25.92
21.44
14.88
6.35
-3.4
-13.18
-21.64
-27.52
-29.75
-27.5
-20.33
-8.4
7.44
25.69
44.71
63.31
81.27
99.34
118.64
139.71
161.82
182.91
200.29
211.74
216.34
214.66
208.13
198.19
185.62
170.5
152.81
133.03
112.38
92.47
74.66
59.57
47.02
36.29
26.53
17.02
7.21
-3.25
-14.56
-26.68
-39.18
-51.29
-62
-70.48
-76.28
-79.63
-81.32
-82.58
-84.69
-88.7
-95.03
-103.4
-112.83
-121.86
-128.96
-132.79
-132.5
-127.87
-119.31
-107.82
-94.82
-81.98
-71.02
-63.38
-59.94
-60.71
-64.67
-70.02
-74.61
-76.65
-75.19
-70.33
-62.91
-54.01
-44.47
-34.66
-24.54
-13.92
-2.7
8.98
20.74
32.05
42.37
51.41
59.2
66.08
72.59
79.15
85.9
92.51
98.35
102.47
103.79
101.15
93.62
80.94
63.86
44.31
24.87
8.09
-4.44
-12.42
-16.79
-19.03
-20.44
-21.7
-22.9
-23.83
-24.31
-24.35
-24.08
-23.54
-22.65
-21.26
-19.39
-17.3
-15.51
-14.5
-14.41
-14.76
-14.46
-12.21
-7.11
1.01
11.38
22.65
33.28
41.99
47.97
50.89
50.86
48.36
44.17
39.16
34.09
29.44
25.28
21.49
17.84
14.26
10.79
7.55
4.57
1.82
-0.81
-3.35
-5.75
-7.96
-9.96
-11.82
-13.64
-15.48
-17.31
-18.96
-20.17
-20.73
-20.56
-19.73
-18.52
-17.34
-16.66
-16.9
-18.36
-21.04
-24.71
-28.94
-33.29
-37.49
-41.51
-45.52
-49.76
-54.42
-59.55
-65.17
-71.27
-77.84
-84.74
-91.48
-97.13
-100.44
-100.2
-95.72
-87.06
-74.97
-60.58
-44.94
-28.75
-12.34
4.11
20.35
35.93
50.38
63.44
75.11
85.69
95.51
104.7
113.16
120.55
126.57
131.07
134.17
136.15
137.32
137.87
137.82
137.05
135.34
132.56
128.71
124.03
118.87
113.56
108.24
102.68
96.31
88.51
78.83
67.32
54.42
40.78
26.94
13.08
-0.92
-15.2
-29.69
-44
-57.53
-69.74
-80.45
-89.89
-98.56
-107.08
-115.93
-125.39
-135.52
-146.16
-156.88
-166.97
-175.49
-181.55
-184.61
-184.81
-182.87
-179.82
-176.51
-173.19
-169.46
-164.58
-158.15
-150.52
-143.1
-137.96
-137.21
-142.32
-153.59
-170
-189.29
-208.27
-223.32
-231.15
-229.47
-217.56
-196.37
-168.16
-135.81
-102.04
-68.97
-38.01
-10.16
13.75
32.94
46.83
55.38
59.22
59.59
58.01
55.83
53.85
52.24
50.67
48.67
46.06
43.05
40.15
37.79
36.11
34.87
33.61
32.02
30.13
28.27
26.74
25.61
24.62
23.36
21.6
19.53
17.76
17.09
18.22
21.5
26.88
33.93
41.95
50.19
57.96
64.7
70.04
73.73
75.65
75.75
74.15
71.1
67.03
62.55
58.21
54.56
51.97
50.74
51.09
53.08
56.54
60.96
65.56
69.62
72.7
74.8
76.19
77.09
77.41
76.74
74.7
71.37
67.48
64.27
63.21
65.59
72.34
83.79
99.58
118.59
138.96
158.47
175.11
187.77
196.78
203.91
211.83
223.12
239.12
259.04
279.8
296.75
304.93
300.64
282.62
252.15
212.52
167.66
121.06
75.18
31.54
-9.03
-46.16
-80.13
-112.22
-144.91
-181.27
-223.78
-272.9
-326.01
-377.44
-419.84
-446.56
-454
-443.1
-418.91
-388.6
-358.72
-332.97
-311.5
-291.73
-270.14
-243.91
-211.92
-174.84
-134.73
-94.52
-57.48
-26.67
-4.31
8.71
13.09
10.8
4.35
-3.9
-12.12
-18.88
-22.89
-22.94
-18.18
-8.74
4.07
17.96
30.61
40.64
48.11
54.3
60.8
68.59
77.51
86.49
94.26
100.06
103.94
106.63
108.92
111.26
113.53
115.22
115.68
114.5
111.57
107.11
101.58
95.56
89.63
84.26
79.73
76.03
72.87
69.75
66.13
61.61
56.1
49.82
43.12
36.33
29.5
22.52
15.16
7.36
-0.86
-9.45
-18.48
-28.19
-38.7
-49.76
-60.45
-69.45
-75.37
-77.32
-75.09
-69.21
-60.46
-49.63
-37.38
-24.36
-11.34
0.74
10.99
18.8
24.06
27.12
28.55
28.88
28.39
27.17
25.18
22.45
19.18
15.63
12.1
8.67
5.22
1.5
-2.75
-7.54
-12.66
-17.74
-22.43
-26.59
-30.3
-33.76
-37.13
-40.53
-44.06
-47.98
-52.72
-58.81
-66.52
-75.7
-85.56
-95
-103.01
-109.05
-113.24
-116.18
-118.51
-120.36
-121.2
-120.03
-115.94
-108.63
-98.55
-86.61
-73.7
-60.22
-46.15
-31.41
-16.33
-1.8
10.95
20.87
27.53
31.25
32.8
33.07
32.76
32.37
32.37
33.28
35.65
39.75
45.38
51.79
57.94
62.82
65.87
67.12
67.07
66.35
65.37
64.17
62.5
60.08
56.84
53.01
48.96
45.03
41.43
38.2
35.35
32.84
30.55
28.2
25.46
22.15
18.47
15.15
13.32
14.02
17.8
24.31
32.44
40.83
48.37
54.55
59.55
63.82
67.83
71.7
75.31
78.31
80.35
81.13
80.44
78.28
74.84
70.58
66.16
62.28
59.44
57.81
57.24
57.43
58.09
58.99
59.96
60.78
61.14
60.62
58.85
55.54
50.65
44.26
36.56
27.77
18.06
7.47
-4.15
-17.09
-31.83
-48.79
-68.1
-89.35
-111.37
-132.4
-150.36
-163.43
-170.47
-171.26
-166.39
-156.94
-144.17
-129.27
-113.34
-97.3
-81.87
-67.48
-54.16
-41.66
-29.51
-17.35
-4.97
7.61
20.21
32.55
44.36
55.24
64.81
72.65
78.53
82.57
85.46
88.38
92.82
100.03
110.51
123.73
138.11
151.43
161.46
166.51
165.67
158.9
146.72
129.92
109.31
85.58
59.28
30.92
1.1
-29.39
-59.6
-88.41
-114.72
-137.4
-155.27
-167.14
-172.07
-169.78
-161.2
-148.43
-134.22
-121.09
-110.45
-102.37
-95.82
-89.5
-82.4
-74.01
-64.27
-53.33
-41.61
-29.82
-18.87
-9.46
-1.62
5.61
13.82
24.6
38.76
56.05
75.41
95.5
115.24
133.96
151.27
166.91
180.67
192.4
202.15
210.1
216.44
221.24
224.34
225.47
224.35
220.79
214.87
206.93
197.49
187.21
176.6
165.98
155.41
144.85
134.25
123.79
113.76
104.52
96.4
89.71
84.74
81.79
81.01
82.2
84.68
87.31
88.8
88.04
84.43
78.07
69.52
59.6
49.01
38.15
27.19
16.13
5.04
-5.89
-16.36
-26.06
-34.85
-42.85
-50.46
-58.19
-66.53
-75.77
-85.99
-97.16
-109.3
-122.44
-136.63
-151.64
-166.89
-181.47
-194.4
-204.97
-212.99
-218.83
-223.28
-227.21
-231.4
-236.22
-241.5
-246.47
-249.81
-249.85
-245.06
-234.47
-218.02
-196.73
-172.44
-147.47
-124.07
-103.94
-87.91
-75.7
-66.12
-57.37
-47.72
-36.09
-22.28
-6.92
9.09
24.99
40.39
55.04
68.52
80.04
88.66
93.75
95.4
94.54
92.54
90.58
89.2
88.26
87.19
85.58
83.5
81.46
80.1
79.73
80
79.89
77.85
72.25
61.83
46.07
25.44
1.26
-24.62
-50.3
-74.23
-95.34
-112.95
-126.59
-135.82
-140.32
-140.11
-135.78
-128.48
-119.73
-111.01
-103.41
-97.51
-93.53
-91.43
-91.04
-91.95
-93.47
-94.61
-94.33
-91.86
-86.98
-80.03
-71.72
-62.77
-53.71
-44.87
-36.47
-28.91
-22.8
-18.77
-17.27
-18.29
-21.37
-25.62
-29.91
-33.13
-34.46
-33.68
-31.36
-28.83
-27.68
-29.15
-33.43
-39.49
-45.45
-49.35
-50.05
-47.63
-43.08
-37.7
-32.4
-27.42
-22.64
-18.02
-14.05
-11.62
-11.67
-14.64
-20.21
-27.33
-34.68
-41.12
-46.07
-49.58
-52.18
-54.63
-57.54
-61.24
-65.72
-70.77
-76.1
-81.45
-86.54
-91
-94.24
-95.49
-93.93
-88.98
-80.55
-69.19
-56.09
-42.71
-30.41
-20.07
-11.77
-4.93
1.41
8.09
15.5
23.38
31.02
37.77
43.21
47.41
50.76
53.63
56.15
58.46
61.1
65.11
71.48
80.11
89.37
96.34
98.25
94.04
85.15
74.97
67.07
63.41
63.44
64.81
64.91
62.42
57.71
52.09
46.53
40.84
33.86
24.38
12.25
-1.46
-14.9
-26.16
-34.27
-39.34
-42.21
-43.82
-44.6
-44.34
-42.41
-38.04
-30.64
-19.98
-6.16
10.29
28.27
46.21
62.36
75.38
84.94
91.9
97.91
104.64
113.02
122.83
132.85
141.33
146.67
147.71
143.83
134.74
120.49
101.47
78.7
53.94
29.46
7.59
-9.92
-22.39
-30.19
-34.43
-36.45
-37.31
-37.55
-37.36
-36.72
-35.7
-34.43
-32.96
-31.2
-28.94
-26.05
-22.79
-19.92
-18.52
-19.53
-23.35
-29.67
-37.63
-46.22
-54.61
-62.26
-68.65
-73.05
-74.5
-72.12
-65.64
-55.66
-43.59
-31.14
-19.69
-9.87
-1.55
5.78
12.57
18.91
24.52
29.03
32.22
34.18
35.18
35.58
35.57
35.22
34.48
33.26
31.55
29.42
27.02
24.53
22.09
19.78
17.56
15.37
13.21
11.22
9.61
8.48
7.71
6.92
5.68
3.72
1.16
-1.61
-4.12
-6.18
-7.94
-9.75
-11.8
-13.89
-15.48
-15.92
-15.01
-13.12
-11.07
-9.76
-9.7
-10.92
-13.02
-15.5
-17.93
-19.92
-21.07
-20.84
-18.71
-14.34
-7.82
0.29
9.15
17.92
25.97
32.99
38.87
43.6
47.22
49.75
51.3
52.06
52.29
52.21
52.03
51.9
51.88
51.99
52.23
52.57
52.95
53.37
53.72
53.89
53.69
53
51.83
50.34
48.8
47.45
46.42
45.71
45.2
44.74
44.2
43.42
42.21
40.32
37.52
33.85
29.59
25.27
21.4
18.25
15.66
13.15
10.2
6.49
2.11
-2.53
-6.89
-10.47
-12.9
-13.92
-13.33
-10.98
-6.78
-0.82
6.6
15
23.76
32.24
39.85
46.14
50.93
54.51
57.61
61.14
65.8
71.66
78.14
84.32
89.52
93.64
97.24
101.01
105.34
110.01
114.51
118.41
121.81
125.2
129.06
133.38
137.56
140.79
142.7
143.63
144.5
146.15
148.75
151.45
152.63
150.66
144.47
134.11
120.68
106.03
92.12
80.44
71.45
64.4
57.53
48.54
35.47
17.37
-5.18
-30.16
-54.69
-75.93
-92.02
-102.8
-109.89
-116.2
-124.91
-138.23
-156.57
-178.31
-200.4
-219.52
-233.32
-241.07
-243.49
-242.02
-237.84
-231.21
-221.65
-208.7
-192.69
-175.26
-158.96
-146.15
-138
-133.99
-132.34
-130.97
-128.48
-124.42
-118.96
-112.3
-104.32
-94.91
-84.47
-74.19
-65.73
-60.38
-58.26
-58.15
-58.05
-56.09
-51.2
-43.17
-32.36
-19.34
-4.76
10.45
24.98
37.4
46.65
52.44
55.51
57.23
59.02
61.85
65.96
71.04
76.46
81.62
86.07
89.52
91.79
92.78
92.41
90.67
87.58
83.24
77.91
71.92
65.61
59.14
52.51
45.62
38.47
31.32
24.69
19.15
14.97
12.04
9.91
8.13
6.53
5.27
4.73
5.09
6.09
7.06
7.18
5.87
3.04
-0.87
-5.13
-8.88
-11.46
-12.57
-12.43
-11.79
-11.77
-13.49
-17.42
-22.9
-27.91
-29.55
-25
-12.68
7.03
31.74
57.94
82.17
102.07
116.79
126.86
133.52
138.17
142.04
146.22
151.65
159.08
168.7
179.84
190.9
199.72
204.31
203.55
197.45
186.96
173.23
157.21
139.46
120.3
100.12
79.4
58.48
37.26
15.22
-8.22
-33.13
-58.71
-83.59
-106.39
-126.35
-143.52
-158.48
-171.97
-184.68
-197.27
-210.42
-224.58
-239.51
-253.89
-265.44
-271.67
-270.8
-262.53
-247.97
-229.12
-207.96
-186.07
-164.63
-144.8
-127.79
-114.6
-105.38
-99.18
-94.08
-88.14
-80.16
-70.21
-59.45
-49.27
-40.59
-33.43
-27.15
-21.05
-14.82
-8.73
-3.27
1.2
4.79
8.05
11.8
16.84
23.7
32.61
43.43
55.78
69.08
82.77
96.33
109.47
122.11
134.31
146.07
157.22
167.29
175.57
181.21
183.51
182.08
176.96
168.65
157.85
145.31
131.56
116.94
101.5
85.12
67.44
47.97
26.27
2.28
-23.45
-49.68
-74.82
-97.47
-116.9
-133.32
-147.65
-161.01
-174.08
-186.58
-197.38
-204.84
-207.53
-204.81
-197.04
-185.32
-170.87
-154.45
-136.01
-114.94
-90.63
-63.14
-33.57
-3.88
23.6
46.86
64.65
76.62
83.13
84.95
83.01
78.27
71.73
64.4
57.25
51.1
46.4
43.1
40.73
38.54
35.91
32.62
28.95
25.58
23.27
22.6
23.74
26.53
30.65
35.94
42.62
51.3
62.63
76.85
93.19
109.81
124.2
134.11
138.42
137.62
133.44
127.91
122.41
117.03
110.8
102.59
92.04
80.05
68.45
58.93
51.7
44.75
34.06
15.09
-15.01
-55.6
-102.14
-147.47
-184.57
-209.13
-220.76
-222.38
-217.96
-210.36
-200.21
-186.31
-167.13
-141.95
-111.26
-76.1
-37.29
4.97
50.42
97.84
144.4
186.03
218.52
238.88
246.28
242.02
228.87
209.9
187.66
163.8
139.16
114.13
88.97
64.01
39.69
16.48
-5.11
-24.65
-41.65
-55.55
-65.7
-71.45
-72.32
-68.18
-59.55
-47.74
-34.77
-23.03
-14.58
-10.42
-10.33
-13.16
-17.47
-22.08
-26.22
-29.41
-31.24
-31.36
-29.77
-27.12
-24.69
-23.99
-26.07
-31
-37.71
-44.51
-49.8
-52.65
-52.86
-50.93
-47.58
-43.53
-39.33
-35.22
-31.23
-27.28
-23.46
-20.13
-17.9
-17.54
-19.86
-25.43
-34.28
-45.55
-57.31
-66.91
-72.02
-71.72
-67.2
-61.31
-57.03
-55.97
-57.5
-59.41
-59.47
-56.9
-52.8
-49.15
-47.33
-47.03
-46.49
-43.62
-37.48
-28.86
-19.92
-13.05
-9.79
-10.48
-14.29
-19.92
-26.12
-32.06
-37.39
-42.03
-45.98
-49.11
-51.09
-51.54
-50.3
-47.56
-43.91
-40.14
-36.86
-34.36
-32.5
-30.91
-29.23
-27.31
-25.32
-23.59
-22.58
-22.66
-24.05
-26.71
-30.35
-34.47
-38.54
-42.2
-45.5
-48.88
-52.89
-57.97
-64.08
-70.7
-77.18
-82.98
-88.02
-92.63
-97.39
-102.76
-109.05
-116.54
-125.57
-136.57
-149.38
-162.67
-173.6
-178.27
-172.87
-155.13
-125.01
-84.5
-36.45
16.63
72.93
130.82
187.77
239.96
282.96
313.36
330.34
336.07
334.77
330.74
326.65
322.93
318.3
310.86
299.03
281.74
258.3
228.24
191.55
149.02
102.56
54.98
9.39
-31.3
-64.93
-90.21
-106.68
-114.86
-116.2
-112.98
-107.83
-103.08
-100.09
-99.09
-99.37
-99.87
-99.72
-98.46
-96.04
-92.7
-88.73
-84.51
-80.36
-76.56
-73.24
-70.29
-67.43
-64.3
-60.65
-56.45
-51.95
-47.54
-43.57
-40.25
-37.62
-35.51
-33.71
-32.03
-30.42
-28.87
-27.48
-26.3
-25.39
-24.81
-24.61
-24.9
-25.77
-27.24
-29.2
-31.41
-33.59
-35.49
-37.05
-38.44
-39.94
-41.86
-44.21
-46.6
-48.28
-48.42
-46.46
-42.3
-36.33
-29.02
-20.65
-11.07
0.17
13.46
28.73
45.16
61.37
75.67
86.59
93.12
94.83
91.79
84.4
73.35
59.72
44.89
30.55
18.34
9.49
4.53
3.11
4.28
6.87
9.89
12.85
15.68
18.61
21.85
25.46
29.26
32.98
36.29
38.91
40.72
41.75
42.19
42.31
42.38
42.57
42.96
43.5
44.15
44.87
45.61
46.26
46.55
46.13
44.59
41.78
37.77
32.87
27.53
22.12
16.84
11.79
7.09
2.94
-0.36
-2.51
-3.39
-3.09
-1.92
-0.28
1.4
2.74
3.35
2.94
1.34
-1.4
-4.81
-8.16
-10.57
-11.29
-9.93
-6.6
-1.79
3.81
9.49
14.71
19.13
22.62
25.14
26.77
27.62
27.83
27.57
26.98
26.19
25.3
24.41
23.56
22.75
21.98
21.22
20.52
19.96
19.64
19.57
19.62
19.49
18.86
17.51
15.48
13.01
10.4
7.86
5.37
2.8
0.02
-2.9
-5.73
-8.19
-10.12
-11.6
-12.87
-14.18
-15.64
-17.21
-18.84
-20.55
-22.52
-24.94
-27.96
-31.48
-35.17
-38.51
-40.91
-41.88
-41.18
-38.85
-35.17
-30.66
-25.85
-21.22
-17.08
-13.59
-10.77
-8.58
-7.01
-5.96
-5.34
-4.9
-4.37
-3.48
-2.03
0.04
2.63
5.52
8.53
11.47
14.24
16.83
19.23
21.52
23.77
26.08
28.51
31.03
33.48
35.67
37.43
38.74
39.75
40.66
41.67
42.71
43.46
43.39
41.93
38.65
33.39
26.32
17.89
8.83
-0.07
-8.05
-14.56
-19.37
-22.61
-24.69
-26.11
-27.29
-28.41
-29.35
-29.78
-29.33
-27.75
-25.03
-21.37
-17.07
-12.49
-7.92
-3.57
0.38
3.77
6.52
8.58
10.01
10.94
11.51
11.87
12.12
12.32
12.52
12.66
12.67
12.44
11.94
11.23
10.45
9.77
9.25
8.81
8.23
7.33
6.03
4.49
2.95
1.63
0.66
-0.04
-0.65
-1.44
-2.58
-4.17
-6.18
-8.49
-10.95
-13.36
-15.64
-17.68
-19.5
-21.12
-22.66
-24.23
-25.95
-27.85
-29.79
-31.48
-32.52
-32.55
-31.34
-28.9
-25.47
-21.41
-17.09
-12.83
-8.87
-5.31
-2.23
0.36
2.45
4.1
5.4
6.4
7.18
7.73
8.04
8.07
7.83
7.41
6.99
6.75
6.85
7.29
7.92
8.53
8.93
9.04
8.95
8.89
9.05
9.53
10.25
11.02
11.6
11.83
11.68
11.21
10.54
9.74
8.8
7.69
6.4
4.99
3.58
2.29
1.21
0.35
-0.32
-0.86
-1.33
-1.85
-2.6
-3.79
-5.55
-7.88
-10.64
-13.62
-16.67
-19.75
-22.94
-26.3
-29.74
-33
-35.77
-37.88
-39.33
-40.36
-41.22
-41.99
-42.58
-42.77
-42.37
-41.18
-38.96
-35.38
-30.1
-23.16
-15.19
-7.5
-1.61
1.49
1.8
0.42
-1.1
-1.43
-0.08
2.62
5.96
9.41
12.88
16.53
20.49
24.51
28.05
30.5
31.48
30.95
29.14
26.34
22.83
18.83
14.58
10.48
7.12
5.29
5.87
9.51
16.46
26.24
37.72
49.27
59.21
66.18
69.44
68.93
65.14
58.85
51.02
42.66
34.76
28.27
23.9
22.04
22.58
24.98
28.35
31.66
34.02
34.86
34.09
32
29.15
26.1
23.17
20.34
17.36
13.91
9.82
5.21
0.39
-4.25
-8.44
-12.16
-15.59
-19.05
-22.85
-27.23
-32.26
-37.9
-43.88
-49.85
-55.41
-60.19
-63.97
-66.71
-68.53
-69.65
-70.18
-70.1
-69.15
-66.92
-62.94
-56.9
-48.74
-38.69
-27.24
-15.03
-2.79
8.73
18.84
26.98
32.86
36.6
38.75
40.1
41.42
43.06
44.87
46.29
46.77
46.06
44.39
42.4
40.73
39.83
39.76
40.26
40.95
41.54
41.85
41.87
41.59
40.98
39.97
38.41
36.2
33.22
29.52
25.28
20.87
16.76
13.37
10.94
9.4
8.4
7.32
5.37
1.76
-4.12
-12.33
-22.28
-32.68
-41.86
-48.39
-51.46
-51.22
-48.54
-44.53
-40.18
-36.01
-32.22
-28.84
-25.86
-23.29
-21.01
-18.77
-16.18
-12.91
-8.87
-4.25
0.49
4.8
8.22
10.48
11.54
11.58
10.92
9.91
8.86
8.03
7.6
7.65
8.14
8.82
9.23
8.79
7.02
3.65
-1.22
-7.3
-14.32
-22.02
-30.07
-37.79
-44.08
-47.72
-48.02
-45.32
-41.12
-37.52
-36.28
-37.98
-41.84
-46.23
-49.61
-51.37
-51.91
-52.14
-52.81
-53.9
-54.65
-54.07
-51.51
-47.05
-41.39
-35.49
-30.04
-25.2
-20.61
-15.71
-10.09
-3.69
3.16
9.92
16.09
21.39
25.83
29.62
33.06
36.35
39.55
42.6
45.39
47.82
49.91
51.7
53.3
54.81
56.26
57.62
58.82
59.81
60.58
61.3
62.1
63.06
63.9
64.04
62.77
59.53
54.33
47.82
41.03
34.82
29.47
24.55
19.34
13.34
6.7
0.14
-5.55
-10.03
-13.66
-17.29
-21.7
-26.99
-32.53
-37.21
-40.04
-40.56
-39
-36.02
-32.33
-28.41
-24.43
-20.4
-16.32
-12.32
-8.66
-5.57
-3.19
-1.48
-0.29
0.53
1.1
1.43
1.46
1.14
0.57
-0.04
-0.22
0.5
2.52
5.88
10.2
14.72
18.46
20.56
20.49
18.14
13.84
8.17
1.93
-4.06
-8.94
-12.03
-13
-12.02
-9.74
-7.1
-4.97
-3.9
-3.96
-4.88
-6.29
-7.89
-9.59
-11.41
-13.37
-15.47
-17.65
-19.91
-22.2
-24.38
-26.23
-27.39
-27.55
-26.56
-24.53
-21.78
-18.71
-15.65
-12.89
-10.62
-8.96
-8.03
-7.79
-8.1
-8.64
-9.06
-9.11
-8.7
-7.93
-6.97
-5.96
-4.86
-3.52
-1.69
0.79
3.9
7.32
10.56
13.09
14.49
14.58
13.43
11.24
8.24
4.65
0.62
-3.64
-7.88
-11.76
-14.94
-17.2
-18.42
-18.62
-17.88
-16.28
-13.92
-11
-7.82
-4.85
-2.56
-1.31
-1.18
-1.92
-3.05
-4.04
-4.54
-4.45
-3.98
-3.42
-3.02
-2.68
-2.04
-0.55
2.27
6.53
11.93
17.73
23.01
26.97
29.16
29.61
28.81
27.45
26.35
26.22
27.53
30.43
34.62
39.46
44.03
47.42
48.97
48.44
46.09
42.52
38.47
34.61
31.32
28.64
26.31
23.87
20.93
17.31
13.01
8.19
2.86
-3.26
-10.65
-19.71
-30.26
-41.3
-51.26
-58.52
-62.11
-62.14
-59.59
-55.74
-51.49
-47.09
-42.27
-36.82
-30.94
-25.26
-20.53
-17.07
-14.54
-12.1
-8.88
-4.47
0.91
6.59
11.91
16.48
20.32
23.7
26.9
30.05
33.11
35.97
38.55
40.93
43.2
45.49
47.81
50.13
52.36
54.43
56.29
57.96
59.49
61.06
62.92
65.29
68.41
72.28
76.62
80.77
83.74
84.3
81.31
73.93
61.85
45.43
25.67
4.14
-17.23
-36.47
-51.97
-62.82
-69.02
-71.38
-71.25
-70.1
-69.07
-68.84
-69.45
-70.49
-71.18
-70.66
-68.22
-63.6
-57.23
-50.14
-43.69
-39.09
-36.97
-37.07
-38.46
-39.92
-40.38
-39.3
-36.62
-32.61
-27.58
-21.78
-15.39
-8.65
-2.02
3.98
8.81
12.22
14.26
15.22
15.57
15.72
16.01
16.67
17.81
19.41
21.3
23.2
24.79
25.99
26.97
28.13
29.88
32.41
35.51
38.74
41.52
43.41
44.12
43.5
41.49
38.12
33.64
28.6
23.79
20.01
17.73
16.9
16.94
17.04
16.54
15.17
13.14
10.83
8.52
6.21
3.66
0.63
-2.86
-6.44
-9.58
-11.89
-13.35
-14.37
-15.5
-17.08
-19.03
-20.88
-22.1
-22.39
-21.97
-21.4
-21.29
-22.02
-23.54
-25.48
-27.37
-28.89
-29.95
-30.72
-31.4
-32.21
-33.24
-34.53
-36.03
-37.62
-39.12
-40.27
-40.81
-40.56
-39.57
-38.11
-36.63
-35.55
-35.13
-35.38
-36.01
-36.65
-36.84
-36.21
-34.53
-31.78
-28.19
-24.34
-21.04
-19.11
-19.12
-21.1
-24.6
-28.9
-33.27
-37.22
-40.49
-42.92
-44.33
-44.48
-43.2
-40.55
-36.9
-32.82
-28.89
-25.47
-22.62
-20.22
-18.04
-15.93
-13.84
-11.83
-9.98
-8.33
-6.88
-5.5
-4.09
-2.64
-1.3
-0.37
-0.21
-1.02
-2.73
-4.99
-7.25
-9.03
-10.04
-10.31
-10.14
-9.91
-10
-10.66
-12.01
-14
-16.47
-19.04
-21.17
-22.29
-22.03
-20.3
-17.41
-13.94
-10.44
-7.25
-4.32
-1.4
1.79
5.3
8.93
12.34
15.21
17.51
19.37
21.12
22.99
25.04
27.14
29.07
30.59
31.6
32.09
32.12
31.73
30.92
29.76
28.34
26.81
25.34
24.03
22.82
21.45
19.57
16.83
13.02
8.15
2.48
-3.58
-9.61
-15.22
-20.21
-24.46
-27.95
-30.69
-32.73
-34.18
-35.23
-36.18
-37.36
-39.11
-41.65
-44.98
-48.9
-52.98
-56.66
-59.42
-60.97
-61.27
-60.62
-59.46
-58.26
-57.27
-56.55
-55.97
-55.31
-54.38
-52.98
-50.96
-48.13
-44.41
-39.86
-34.76
-29.57
-24.71
-20.27
-15.98
-11.19
-5.32
1.91
10.37
19.73
29.8
40.65
52.48
65.15
77.98
89.82
99.6
106.69
111.05
112.87
112.18
108.71
102.14
92.69
81.39
69.88
59.79
52.17
47.15
44.28
43.02
42.99
44.04
45.92
48.18
50.24
51.77
52.97
54.37
56.51
59.55
63.19
66.87
70.25
73.45
76.98
81.38
86.84
93.06
99.19
104.04
106.26
104.68
98.58
88.02
73.88
57.61
40.74
24.33
8.79
-5.94
-20
-33.28
-45.43
-56.07
-65.08
-72.52
-78.5
-82.91
-85.39
-85.45
-82.78
-77.47
-69.94
-60.83
-50.87
-40.79
-31.23
-22.65
-15.17
-8.54
-2.26
4.18
11.06
18.29
25.56
32.55
39.08
45.23
51.23
57.33
63.71
70.44
77.53
84.99
92.9
101.26
110
118.83
127.34
135.17
142.16
148.51
154.68
161.17
168.16
175.46
182.47
188.49
192.91
195.4
195.85
194.22
190.5
184.64
176.74
167.11
156.24
144.69
132.76
120.31
106.74
91.22
73.09
52.26
29.41
5.89
-16.66
-36.84
-53.82
-67.57
-78.69
-88.09
-96.6
-104.73
-112.62
-120.04
-126.68
-132.21
-136.43
-139.28
-140.76
-140.84
-139.48
-136.79
-133.11
-129.06
-125.34
-122.41
-120.19
-118.04
-114.93
-109.84
-102.18
-91.87
-79.32
-65.17
-50.15
-35.03
-20.69
-8.09
1.75
8.05
10.47
9.24
5.12
-0.84
-7.64
-14.47
-20.88
-26.79
-32.31
-37.67
-43.09
-48.69
-54.53
-60.7
-67.35
-74.61
-82.55
-91.03
-99.73
-108.27
-116.53
-124.7
-133.29
-142.86
-153.65
-165.55
-178.2
-191.15
-203.71
-214.77
-222.63
-225.41
-221.63
-211.03
-194.88
-175.45
-155.19
-135.76
-117.76
-101.14
-86.04
-73.23
-63.94
-58.97
-58
-59.5
-61.42
-62.14
-61.27
-59.69
-58.92
-60.23
-63.99
-69.27
-74.31
-77.12
-76.14
-70.54
-60.16
-45.3
-26.58
-4.97
18.06
40.58
60.4
75.69
85.31
89.1
87.67
81.98
73.1
62.12
50.34
39.28
30.42
24.78
22.5
22.76
24.1
25.07
24.75
23
20.27
17.28
14.62
12.52
10.92
9.57
8.21
6.65
4.75
2.25
-1.28
-6.42
-13.6
-22.85
-33.65
-44.98
-55.64
-64.61
-71.27
-75.38
-76.96
-76.12
-72.99
-67.82
-61.03
-53.16
-44.82
-36.46
-28.33
-20.52
-13.02
-5.92
0.64
6.47
11.48
15.71
19.39
22.8
26.14
29.44
32.55
35.17
37.02
37.97
38.15
37.9
37.57
37.46
37.61
37.84
37.83
37.3
36.12
34.34
32.14
29.71
27.15
24.48
21.66
18.66
15.5
12.27
9.06
5.97
3
0.13
-2.79
-5.91
-9.41
-13.37
-17.66
-21.94
-25.64
-28.08
-28.62
-26.82
-22.61
-16.32
-8.58
-0.25
7.9
15.33
21.82
27.43
32.36
36.76
40.63
43.82
46.1
47.35
47.62
47.23
46.65
46.5
47.39
49.79
53.89
59.49
66.02
72.6
78.36
82.72
85.59
87.46
89.13
91.46
94.98
99.59
104.36
107.64
107.37
101.74
89.92
72.62
52.05
31.29
13.26
-0.33
-9.34
-14.87
-18.38
-20.97
-23.11
-25.02
-27.28
-31.06
-37.8
-48.31
-62.03
-76.88
-89.86
-98.23
-100.51
-96.97
-89.26
-79.57
-69.64
-60.28
-51.4
-42.46
-33.06
-23.32
-13.83
-5.32
1.79
7.5
12.28
16.75
21.35
26.21
31.13
35.76
39.82
43.13
45.66
47.4
48.3
48.22
47.06
44.79
41.54
37.65
33.55
29.66
26.38
23.89
22.2
21.11
20.35
19.6
18.66
17.44
15.99
14.39
12.72
10.93
8.91
6.52
3.64
0.19
-3.73
-7.81
-11.52
-14.14
-14.95
-13.45
-9.6
-3.87
2.94
9.93
16.44
22.11
26.96
31.15
34.84
38.09
40.92
43.3
45.21
46.67
47.63
48.02
47.79
47.03
45.97
45.03
44.52
44.55
44.86
44.91
44.22
42.6
40.26
37.67
35.21
33.01
30.88
28.56
25.95
23.27
20.84
18.93
17.4
15.84
13.76
10.9
7.41
3.78
0.58
-1.81
-3.35
-4.3
-5.09
-6.2
-7.98
-10.61
-13.98
-17.75
-21.35
-24.09
-25.37
-24.82
-22.4
-18.42
-13.45
-8.19
-3.35
0.57
3.34
5.06
6.06
6.72
7.32
7.87
8.24
8.3
8.04
7.65
7.43
7.64
8.41
9.67
11.2
12.77
14.18
15.3
16.16
16.84
17.48
18.17
18.9
19.5
19.69
19.18
17.84
15.81
13.48
11.41
10.11
9.75
10.15
10.72
10.78
9.83
7.83
5.23
2.86
1.57
2.02
4.36
8.17
12.55
16.26
18.2
17.69
14.94
11.06
7.78
6.92
9.7
16.21
25.43
35.6
44.95
52.2
56.89
59.28
59.94
59.44
58.12
56.05
53.15
49.27
44.29
38.2
31.27
24.1
17.57
12.63
9.85
9.24
10.28
12.27
14.78
17.76
21.36
25.35
28.81
30.3
28.51
23.13
15.23
6.81
-0.04
-4.21
-6.01
-6.84
-8.47
-12.11
-18.01
-25.55
-33.62
-41.08
-47.04
-50.97
-52.79
-52.86
-51.99
-51.23
-51.65
-53.9
-58.02
-63.38
-68.79
-72.81
-74.15
-71.97
-66.3
-58.09
-49.07
-41.35
-36.67
-35.89
-38.65
-43.52
-48.51
-51.74
-51.99
-48.98
-43.25
-35.78
-27.57
-19.29
-11.19
-3.24
4.7
12.57
20.1
26.71
31.7
34.27
33.78
29.91
22.87
13.55
3.39
-5.95
-13.16
-17.67
-19.87
-20.76
-21.42
-22.48
-23.81
-24.8
-24.75
-23.37
-21.03
-18.57
-16.93
-16.66
-17.69
-19.38
-20.88
-21.44
-20.76
-19.04
-16.79
-14.53
-12.54
-10.74
-8.77
-6.3
-3.28
0.05
3.27
6.12
8.65
11.22
14.25
17.87
21.82
25.44
28.02
29.12
28.81
27.6
26.33
25.79
26.54
28.66
31.71
34.87
37.18
37.85
36.59
33.85
30.64
28.26
27.76
29.59
33.47
38.59
43.99
48.9
52.81
55.48
56.77
56.7
55.48
53.57
51.57
49.92
48.66
47.33
45.3
42.17
38.15
34.01
30.69
28.88
28.67
29.67
31.35
33.36
35.64
38.31
41.4
44.76
48.12
51.17
53.82
56.19
58.55
61.2
64.32
67.88
71.66
75.2
78.01
79.63
79.81
78.5
75.8
71.74
66.14
58.61
48.62
35.67
19.38
-0.55
-24.26
-51.62
-81.89
-113.6
-144.59
-172.48
-195.22
-211.56
-221.16
-224.45
-222.28
-215.76
-206.15
-194.88
-183.34
-172.6
-163.07
-154.46
-146.02
-137.03
-127.17
-116.53
-105.47
-94.34
-83.31
-72.42
-61.74
-51.4
-41.56
-32.36
-23.82
-15.93
-8.76
-2.46
2.83
7.18
10.96
14.77
19.07
23.9
28.71
32.56
34.47
33.83
30.64
25.46
19.14
12.62
6.79
2.4
0.04
-0.1
1.65
4.43
7.04
8.41
8
6.04
3.34
0.87
-0.77
-1.47
-1.54
-1.37
-1.23
-1.11
-0.92
-0.62
-0.28
0.12
0.75
1.92
3.84
6.28
8.5
9.51
8.47
5.21
0.26
-5.38
-10.71
-15.1
-18.41
-20.8
-22.43
-23.23
-22.86
-20.99
-17.53
-12.83
-7.65
-2.95
0.46
2.26
2.69
2.46
2.26
2.45
2.85
2.92
2.12
0.37
-1.94
-4.07
-5.37
-5.63
-5.19
-4.73
-4.96
-6.32
-8.84
-12.19
-15.87
-19.34
-22.1
-23.77
-24.08
-22.89
-20.16
-16.01
-10.69
-4.64
1.62
7.53
12.65
16.8
20.1
22.91
25.58
28.36
31.22
33.96
36.34
38.19
39.48
40.26
40.5
40.1
38.88
36.77
33.85
30.34
26.53
22.56
18.38
13.82
8.75
3.24
-2.35
-7.48
-11.68
-14.69
-16.6
-17.73
-18.54
-19.43
-20.59
-21.99
-23.4
-24.48
-24.9
-24.4
-22.93
-20.65
-17.85
-14.87
-11.99
-9.38
-7.08
-5.1
-3.39
-1.84
-0.29
1.45
3.54
6.03
8.79
11.6
14.22
16.53
18.48
20.11
21.45
22.53
23.45
24.38
25.55
27.13
29.07
31.11
32.88
34.08
34.68
34.85
34.88
34.95
34.99
34.78
34.02
32.53
30.31
27.47
24.19
20.53
16.52
12.16
7.52
2.72
-2.02
-6.53
-10.68
-14.4
-17.61
-20.18
-21.91
-22.62
-22.23
-20.79
-18.52
-15.73
-12.7
-9.55
-6.25
-2.66
1.31
5.6
9.89
13.78
16.97
19.39
21.28
23
24.82
26.78
28.66
30.2
31.29
32.05
32.72
33.51
34.51
35.65
36.77
37.7
38.2
37.94
36.59
33.92
30.01
25.32
20.51
16.16
12.61
9.78
7.41
5.26
3.27
1.61
0.53
0.2
0.53
1.29
2.17
2.9
3.28
3.24
2.81
2.08
1.33
0.99
1.64
3.89
8.25
14.97
23.93
34.67
46.45
58.42
69.88
80.38
89.88
98.69
107.33
116.36
126.19
136.95
148.53
160.55
172.49
183.81
194.09
203.15
211.07
218.2
224.98
231.81
238.78
245.55
251.31
254.96
255.4
252.03
245.01
235.39
224.73
214.6
205.99
199.03
193.09
187.08
179.85
170.57
158.85
144.83
129.09
112.52
96.08
80.61
66.66
54.55
44.44
36.41
30.47
26.25
22.87
19.07
13.63
5.91
-3.7
-14.03
-23.75
-32.15
-39.67
-47.64
-57.7
-71.02
-87.8
-107.4
-128.93
-151.66
-175.19
-199.06
-222.32
-243.33
-260.24
-271.73
-277.67
-279.25
-278.25
-276.24
-273.88
-270.97
-267.01
-261.88
-256.18
-250.9
-246.82
-243.92
-241.26
-237.57
-231.83
-223.89
-214.47
-204.8
-195.99
-188.57
-182.43
-177
-171.67
-166.04
-160.07
-153.91
-147.73
-141.6
-135.53
-129.56
-123.81
-118.52
-113.84
-109.72
-105.78
-101.29
-95.42
-87.48
-77.28
-65.25
-52.37
-39.88
-28.82
-19.69
-12.34
-6.21
-0.74
4.34
8.86
12.44
14.78
15.94
16.27
16.18
15.9
15.3
14.02
11.74
8.4
4.27
-0.2
-4.54
-8.37
-11.3
-12.84
-12.34
-9.34
-3.83
3.45
11.28
18.42
24.16
28.65
32.64
37.01
42.21
48.06
53.94
59.19
63.44
66.67
69.19
71.3
73.21
74.95
76.36
77.15
76.96
75.47
72.48
68
62.24
55.57
48.48
41.5
35.13
29.72
25.28
21.37
17.2
11.75
4.19
-5.89
-18.22
-31.94
-45.83
-58.57
-69.11
-76.82
-81.57
-83.53
-82.89
-79.71
-73.83
-65.13
-53.82
-40.73
-27.24
-15.06
-5.82
-0.72
-0.38
-4.65
-12.64
-22.81
-33.31
-42.49
-49.38
-53.91
-56.74
-58.82
-60.82
-62.99
-65.24
-67.42
-69.52
-71.49
-72.93
-72.97
-70.52
-64.85
-56.09
-45.26
-33.73
-22.5
-11.5
0.28
14.13
30.65
49.03
67.02
81.63
90.25
91.66
86.48
76.8
65.29
54.21
44.86
37.67
32.65
29.91
29.89
33.03
39.34
48.11
57.93
67.13
74.24
78.39
79.31
77.3
72.91
66.91
60.08
53.09
46.33
39.79
33.06
25.51
16.55
5.83
-6.71
-20.87
-36.33
-52.78
-69.76
-86.54
-102.04
-114.95
-124.13
-128.96
-129.53
-126.4
-120.18
-111.15
-99.38
-85.27
-70.09
-56
-45.42
-39.96
-39.62
-42.79
-47.12
-50.69
-52.74
-53.64
-54.13
-54.4
-53.77
-51.03
-45.19
-36.24
-25.31
-14.23
-4.65
2.61
7.85
12.29
17.34
24
32.47
42.21
52.35
62.16
71.18
79.36
86.79
93.64
100.16
106.65
113.36
120.25
126.8
132.13
135.31
136.09
135.14
134.07
134.79
138.7
146.11
156.16
167.2
177.51
185.9
191.91
195.68
197.61
197.97
196.71
193.43
187.45
177.92
164.12
145.5
121.99
94.1
63.14
31.24
1.18
-24.07
-42.11
-51.75
-53.44
-49
-41.03
-32.09
-24.16
-18.49
-15.77
-16.32
-20.12
-26.64
-34.67
-42.53
-48.66
-52.26
-53.73
-54.41
-55.99
-59.73
-66.11
-74.82
-85.11
-96.16
-107.26
-117.91
-127.84
-137.06
-145.87
-154.72
-163.87
-172.99
-181.1
-186.68
-188.38
-185.49
-178.27
-167.69
-154.9
-140.71
-125.5
-109.54
-93.3
-77.74
-64.02
-53.07
-45.15
-39.76
-35.92
-32.69
-29.52
-26.4
-23.61
-21.45
-20.03
-19.2
-18.68
-18.07
-16.99
-15.15
-12.47
-9.18
-5.75
-2.78
-0.77
0.08
-0.14
-1.24
-3.08
-5.68
-9.09
-13.28
-17.91
-22.44
-26.29
-29
-30.44
-30.8
-30.46
-29.96
-29.89
-30.72
-32.71
-35.78
-39.42
-42.86
-45.19
-45.71
-44.04
-40.24
-34.7
-28.04
-20.95
-14.02
-7.78
-2.56
1.51
4.51
6.7
8.46
10.13
11.88
13.69
15.33
16.49
16.96
16.62
15.58
14.09
12.52
11.42
11.39
13.04
16.86
22.94
30.82
39.58
48.13
55.62
61.81
67.2
72.74
79.35
87.47
96.84
106.7
116.21
124.97
133.16
141.3
149.77
158.21
165.54
170.23
170.98
167.29
159.61
149.1
137.04
124.46
111.91
99.55
87.28
74.84
61.84
47.74
32.09
14.74
-3.86
-22.62
-40.06
-54.62
-65.17
-71.28
-73.38
-72.66
-70.7
-68.93
-68.25
-68.71
-69.68
-70.19
-69.5
-67.48
-64.6
-61.65
-59.29
-57.76
-56.77
-55.76
-54.22
-51.94
-49.11
-46.2
-43.68
-41.76
-40.32
-39.02
-37.49
-35.58
-33.47
-31.59
-30.39
-30.15
-30.86
-32.32
-34.22
-36.27
-38.17
-39.55
-40
-39.08
-36.54
-32.47
-27.3
-21.7
-16.28
-11.4
-7.04
-2.94
1.2
5.5
9.82
13.86
17.32
20.06
22.18
23.97
25.76
27.81
30.22
32.93
35.84
38.84
41.89
44.99
48.11
51.06
53.45
54.72
54.41
52.31
48.69
44.22
39.77
36.1
33.57
32.08
31.17
30.27
28.89
26.77
23.9
20.5
16.94
13.6
10.85
8.87
7.67
7.07
6.85
6.8
6.75
6.58
6.13
5.18
3.52
1.01
-2.24
-5.88
-9.28
-11.75
-12.69
-11.8
-9.18
-5.3
-0.82
3.65
7.75
11.35
14.56
17.5
20.23
22.74
24.98
26.99
28.8
30.42
31.74
32.51
32.5
31.62
29.98
27.91
25.81
24
22.69
21.93
21.71
21.94
22.49
23.08
23.45
23.33
22.68
21.75
