2.54
-0.88
-4.1
-7.12
-10.04
-13.12
-16.68
-21.03
-26.34
-32.53
-39.06
-44.99
-49.05
-49.96
-46.83
-39.51
-28.73
-15.92
-2.84
8.96
18.42
25.15
29.29
31.27
31.54
30.46
28.33
25.46
22.29
19.32
17.04
15.77
15.55
16.08
16.9
17.45
17.33
16.36
14.55
12.03
8.99
5.61
2.03
-1.62
-5.25
-8.77
-12.16
-15.54
-19.21
-23.47
-28.47
-33.96
-39.16
-42.89
-43.9
-41.29
-34.81
-25.09
-13.38
-1.26
9.81
18.79
25.18
28.99
30.55
30.3
28.71
26.19
23.15
20
17.21
15.19
14.21
14.37
15.46
17.04
18.54
19.42
19.31
18.05
15.75
12.69
9.19
5.56
1.95
-1.57
-5.07
-8.62
-12.35
-16.39
-20.88
-25.89
-31.28
-36.51
-40.6
-42.34
-40.66
-35.08
-25.99
-14.58
-2.47
8.8
18.21
25.32
30.14
32.84
33.59
32.57
30.11
26.76
23.3
20.52
18.94
18.66
19.33
20.38
21.2
21.37
20.76
19.42
17.48
15.03
12.08
8.65
4.8
0.72
-3.35
-7.18
-10.73
-14.11
-17.58
-21.43
-25.88
-30.96
-36.31
-41.21
-44.53
-45.09
-42.03
-35.17
-25.23
-13.58
-1.89
8.45
16.58
22.21
25.38
26.33
25.34
22.82
19.39
15.79
12.77
10.86
10.24
10.77
12.11
13.8
15.45
16.65
17.12
16.72
15.46
13.48
10.98
8.08
4.83
1.27
-2.5
-6.25
-9.73
-12.87
-15.91
-19.39
-23.77
-29.13
-34.78
-39.36
-41.31
-39.44
-33.49
-24.22
-13.14
-1.9
8.16
16.22
22
25.46
26.71
25.92
23.45
19.86
15.86
12.18
9.32
7.56
6.91
7.21
8.22
9.59
10.91
11.73
11.67
10.53
8.34
5.33
1.86
-1.81
-5.54
-9.28
-13.11
-17.07
-21.25
-25.8
-30.87
-36.46
-42.18
-47.15
-50.08
-49.7
-45.19
-36.6
-24.88
-11.64
1.4
12.83
21.72
27.71
30.81
31.32
29.68
26.55
22.67
18.83
15.68
13.61
12.71
12.81
13.59
14.68
15.77
16.56
16.81
16.3
14.86
12.39
8.97
4.86
0.42
-3.89
-7.8
-11.25
-14.43
-17.71
-21.52
-26.15
-31.63
-37.59
-43.23
-47.39
-48.82
-46.51
-40.08
-29.98
-17.49
-4.28
7.97
18.02
25.24
29.56
31.24
30.77
28.71
25.7
22.43
19.45
17.19
15.77
15.16
15.15
15.48
15.94
16.31
16.42
16.08
15.14
13.51
11.21
8.29
4.95
1.39
-2.21
-5.72
-9.13
-12.55
-16.18
-20.28
-25.06
-30.5
-36.21
-41.38
-44.83
-45.34
-42.03
-34.79
-24.37
-12.23
-0.07
10.65
19.07
24.92
28.35
29.65
29.12
27.1
24.08
20.69
17.66
15.56
14.67
14.93
15.96
17.27
18.38
18.94
18.76
17.79
16.07
13.71
10.88
7.76
4.51
1.28
-1.85
-4.86
-7.84
-11.03
-14.7
-19.15
-24.52
-30.59
-36.7
-41.76
-44.49
-43.78
-39.13
-30.84
-20.03
-8.28
2.81
12.11
19.05
23.55
25.84
26.2
24.94
22.49
19.4
16.31
13.82
12.28
11.76
12.04
12.75
13.6
14.35
14.84
14.91
14.41
13.16
11.09
8.31
5.05
1.58
-1.83
-5.07
-8.15
-11.19
-14.37
-17.87
-21.82
-26.3
-31.16
-35.87
-39.55
-41.09
-39.52
-34.36
-25.96
-15.42
-4.25
6.01
14.29
20.08
23.41
24.58
23.9
21.72
18.4
14.44
10.54
7.45
5.73
5.64
6.95
9.12
11.42
13.22
14.09
13.86
12.53
10.25
7.22
3.69
-0.05
-3.76
-7.28
-10.55
-13.7
-16.97
-20.71
-25.21
-30.46
-36.02
-40.93
-43.86
-43.55
-39.25
-31.11
-20.16
-8.02
3.63
13.47
20.82
25.52
27.8
27.95
26.35
23.42
19.68
15.79
12.39
10.01
8.91
9.04
10.05
11.43
12.58
13.07
12.66
11.32
9.2
6.52
3.5
0.31
-2.93
-6.09
-9.15
-12.11
-15.14
-18.51
-22.62
-27.73
-33.78
-40.14
-45.6
-48.67
-47.98
-42.91
-33.74
-21.69
-8.53
3.99
14.52
22.43
27.6
30.31
30.93
29.89
27.58
24.5
21.2
18.27
16.13
15.04
14.98
15.74
16.96
18.18
18.99
18.99
17.92
15.75
12.67
9.05
5.3
1.73
-1.57
-4.68
-7.74
-10.92
-14.34
-18.17
-22.59
-27.65
-33.06
-37.99
-41.18
-41.3
-37.51
-29.82
-19.25
-7.41
4
13.76
21.25
26.4
29.33
30.18
29.08
26.32
22.5
18.51
15.23
13.24
12.61
13.01
13.91
14.9
15.73
16.33
16.55
16.17
14.94
12.77
9.86
6.6
3.42
0.52
-2.2
-5.08
-8.48
-12.55
-17.29
-22.53
-28.04
-33.45
-38.13
-41.15
-41.44
-38.18
-31.22
-21.28
-9.83
1.42
11.04
18.21
22.78
25.03
25.35
24.06
21.42
17.81
13.76
10.01
7.26
5.95
6.13
7.45
9.29
10.98
12.01
12.1
11.21
9.5
7.19
4.5
1.61
-1.35
-4.31
-7.26
-10.28
-13.55
-17.33
-21.85
-27.17
-32.94
-38.32
-42.15
-43.17
-40.49
-33.94
-24.17
-12.53
-0.63
10.06
18.53
24.37
27.59
28.52
27.6
25.34
22.28
19.02
16.11
13.96
12.78
12.53
12.92
13.53
13.92
13.78
12.92
11.34
9.16
6.6
3.82
0.92
-2.07
-5.16
-8.38
-11.71
-15.22
-19
-23.25
-28.16
-33.59
-39.01
-43.41
-45.52
-44.2
-38.91
-29.93
-18.41
-6.04
5.5
14.95
21.72
25.82
27.66
27.78
26.69
24.84
22.61
20.39
18.5
17.15
16.39
16.11
16.13
16.24
16.24
15.91
15.06
13.49
11.15
8.18
4.82
1.36
-2.02
-5.32
-8.69
-12.32
-16.4
-21.08
-26.39
-32.15
-37.87
-42.7
-45.53
-45.31
-41.4
-33.95
-23.85
-12.48
-1.29
8.55
16.41
22.07
25.58
27.1
26.84
25.09
22.31
19.09
16.14
14.05
13.18
13.5
14.62
15.95
16.92
17.09
16.28
14.5
11.92
8.75
5.27
1.72
-1.64
-4.68
-7.38
-9.89
-12.55
-15.75
-19.81
-24.8
-30.41
-35.89
-40.16
-42.07
-40.68
-35.67
-27.39
-16.87
-5.52
5.26
14.34
21.05
25.18
26.9
26.62
24.95
22.51
19.93
17.73
16.2
15.49
15.5
15.99
16.65
17.14
17.15
16.44
14.91
12.6
9.7
6.44
3.11
-0.08
-2.99
-5.61
-8.05
-10.51
-13.31
-16.75
-21.06
-26.16
-31.51
-36.07
-38.55
-37.8
-33.24
-25.19
-14.75
-3.51
7.03
15.78
22.29
26.52
28.68
29
27.72
25.2
21.95
18.61
15.76
13.82
12.91
12.93
13.66
14.76
15.86
16.52
16.31
14.92
12.31
8.72
4.65
0.64
-2.92
-5.92
-8.51
-11.02
-13.85
-17.33
-21.6
-26.61
-31.91
-36.7
-39.89
-40.38
-37.41
-30.79
-21.15
-9.75
1.88
12.28
20.45
25.93
28.73
29.19
27.83
25.22
21.97
18.69
15.92
14.08
13.38
13.74
14.84
16.19
17.3
17.75
17.32
15.99
13.85
11.11
7.97
4.62
1.28
-1.95
-5.02
-8.01
-11.13
-14.66
-18.9
-23.97
-29.65
-35.27
-39.72
-41.63
-39.84
-33.89
-24.26
-12.37
-0.09
10.78
19.08
24.46
27.16
27.73
26.66
24.36
21.17
17.55
14.04
11.22
9.48
8.88
9.2
9.97
10.69
10.9
10.39
9.07
7.1
4.7
2.13
-0.45
-2.98
-5.49
-8.06
-10.78
-13.76
-17.2
-21.31
-26.29
-32
-37.82
-42.54
-44.71
-43.07
-37.12
-27.39
-15.29
-2.67
8.85
18.2
25.01
29.33
31.4
31.46
29.77
26.7
22.84
18.94
15.64
13.34
12.11
11.75
11.97
12.44
12.91
13.1
12.74
11.59
9.53
6.67
3.3
-0.14
-3.3
-6.05
-8.52
-11.07
-14.19
-18.27
-23.52
-29.72
-36.17
-41.72
-45.01
-44.88
-40.74
-32.81
-22.11
-10.18
1.36
11.22
18.63
23.41
25.81
26.26
25.27
23.36
21
18.66
16.74
15.53
15.08
15.26
15.73
16.11
16.12
15.66
14.76
13.56
12.12
10.39
8.27
5.64
2.5
-0.98
-4.58
-8.15
-11.7
-15.47
-19.78
-24.85
-30.49
-36.04
-40.43
-42.43
-41.05
-35.85
-27.18
-16.07
-4.02
7.39
16.89
23.72
27.69
29.09
28.48
26.51
23.73
20.67
17.77
15.42
13.94
13.44
13.81
14.71
15.69
16.33
16.32
15.53
13.94
11.66
8.83
5.6
2.18
-1.29
-4.66
-7.89
-11.05
-14.34
-18.02
-22.35
-27.41
-32.94
-38.22
-42.21
-43.69
-41.75
-36.01
-26.89
-15.49
-3.33
8.06
17.51
24.37
28.53
30.24
29.91
28.01
25.02
21.5
18.03
15.18
13.36
12.72
13.02
13.84
14.68
15.19
15.17
14.6
13.48
11.8
9.57
6.84
3.77
0.55
-2.66
-5.79
-8.92
-12.19
-15.81
-19.97
-24.8
-30.11
-35.38
-39.63
-41.62
-40.24
-34.94
-26.03
-14.63
-2.39
9.04
18.34
24.83
28.41
29.38
28.28
25.75
22.41
18.79
15.36
12.47
10.41
9.39
9.44
10.42
11.89
13.31
14.15
14.04
12.9
10.87
8.23
5.2
1.97
-1.4
-4.86
-8.32
-11.65
-14.83
-17.93
-21.25
-25.18
-29.89
-35.13
-40.01
-43.14
-43.1
-38.99
-30.89
-19.84
-7.46
4.53
14.8
22.6
27.62
29.87
29.53
27.02
23.02
18.43
14.26
11.24
9.69
9.5
10.23
11.34
12.4
13.11
13.34
13.02
12.08
10.46
8.16
5.2
1.77
-1.82
-5.27
-8.3
-10.91
-13.36
-16.16
-19.87
-24.74
-30.53
-36.43
-41.19
-43.47
-42.31
-37.37
-29.08
-18.47
-6.89
4.33
14.12
21.75
26.81
29.2
29.1
26.94
23.42
19.34
15.47
12.37
10.3
9.24
9.01
9.38
10.12
10.98
11.7
11.92
11.28
9.58
6.84
3.34
-0.49
-4.28
-7.82
-11.14
-14.44
-18.01
-22.1
-26.87
-32.31
-38.13
-43.75
-48.2
-50.32
-49.08
-43.87
-34.84
-22.97
-9.78
3.04
14.11
22.59
28.22
31.13
31.65
30.21
27.32
23.56
19.57
15.97
13.26
11.65
11.11
11.37
12.09
12.89
13.49
13.59
12.98
11.52
9.21
6.22
2.82
-0.71
-4.16
-7.49
-10.79
-14.23
-18.03
-22.42
-27.53
-33.26
-39.13
-44.25
-47.33
-47.11
-42.8
-34.43
-22.97
-10.07
2.45
13.1
21.07
26.19
28.72
29.14
27.97
25.72
22.92
20.07
17.62
15.85
14.86
14.53
14.64
14.93
15.18
15.19
14.8
13.88
12.34
10.1
7.17
3.67
-0.19
-4.09
-7.7
-10.8
-13.43
-15.91
-18.74
-22.44
-27.25
-32.9
-38.54
-42.9
-44.61
-42.64
-36.62
-27.04
-15.12
-2.52
9.1
18.53
25.13
28.88
30.07
29.16
26.63
23
18.9
15.06
12.11
10.45
10.05
10.56
11.47
12.41
13.18
13.74
14.02
13.82
12.86
10.9
7.97
4.39
0.64
-2.83
-5.84
-8.53
-11.32
-14.72
-19.15
-24.74
-31.18
-37.68
-43.05
-45.89
-45.06
-39.97
-30.93
-19.08
-6.1
6.32
16.8
24.57
29.42
31.49
31.13
28.82
25.21
21.08
17.3
14.53
13.08
12.87
13.48
14.4
15.22
15.72
15.84
15.55
14.8
13.44
11.38
8.6
5.21
1.49
-2.26
-5.79
-9.02
-12.14
-15.55
-19.75
-25.04
-31.29
-37.72
-43.07
-45.9
-45.06
-40.09
-31.39
-20.07
-7.67
4.32
14.67
22.64
27.87
30.38
30.47
28.63
25.48
21.66
17.75
14.23
11.48
9.8
9.34
10.07
11.71
13.74
15.59
16.72
16.87
15.95
14.06
11.37
8.01
4.16
0.08
-3.91
-7.55
-10.77
-13.8
-17.12
-21.21
-26.33
-32.24
-38.11
-42.71
-44.72
-43.1
-37.49
-28.32
-16.78
-4.5
6.86
16.06
22.48
26.11
27.35
26.68
24.56
21.35
17.45
13.43
9.94
7.64
6.89
7.61
9.31
11.24
12.72
13.32
12.91
11.58
9.48
6.74
3.53
0.02
-3.52
-6.87
-9.98
-13.01
-16.38
-20.57
-25.92
-32.35
-39.14
-45.04
-48.47
-48.03
-42.99
-33.64
-21.21
-7.51
5.53
16.4
24.25
28.91
30.67
30.08
27.79
24.46
20.72
17.16
14.24
12.25
11.31
11.29
11.89
12.67
13.21
13.16
12.39
10.93
8.95
6.58
3.88
0.87
-2.44
-5.94
-9.56
-13.24
-17.13
-21.53
-26.8
-33.04
-39.91
-46.43
-51.19
-52.69
-49.84
-42.46
-31.33
-18.09
-4.68
7.24
16.65
23.3
27.41
29.36
29.44
27.84
24.89
21.14
17.41
14.49
12.9
12.68
13.47
14.68
15.86
16.77
17.31
17.4
16.83
15.29
12.57
8.69
3.99
-0.98
-5.67
-9.77
-13.32
-16.68
-20.41
-25.03
-30.73
-37.15
-43.32
-47.74
-48.91
-45.74
-38.03
-26.61
-13.08
0.65
12.87
22.54
29.3
33.34
35.12
35.1
33.71
31.35
28.44
25.43
22.75
20.78
19.64
19.28
19.47
19.88
20.21
20.18
19.57
18.22
16.04
13.06
9.38
5.2
0.79
-3.54
-7.56
-11.19
-14.61
-18.32
-22.85
-28.48
-34.9
-41.07
-45.4
-46.29
-42.72
-34.72
-23.35
-10.38
2.33
13.37
21.93
27.82
31.17
32.27
31.45
29.13
25.9
22.48
19.59
17.79
17.28
17.9
19.18
20.58
21.61
21.96
21.5
20.24
18.26
15.71
12.75
9.55
6.24
2.9
-0.43
-3.75
-7.14
-10.76
-14.93
-19.97
-26
-32.64
-38.91
-43.34
-44.45
-41.31
-33.92
-23.28
-11.08
0.93
11.35
19.42
24.96
28.16
29.31
28.78
26.95
24.31
21.41
18.81
16.95
16.03
15.98
16.53
17.23
17.73
17.77
17.26
16.26
14.83
12.99
10.72
7.98
4.78
1.24
-2.42
-6.01
-9.46
-12.9
-16.7
-21.26
-26.8
-33.05
-39.04
-43.33
-44.41
-41.21
-33.63
-22.58
-9.75
3
14.1
22.61
28.23
31.05
31.42
29.77
26.65
22.73
18.83
15.66
13.7
13.06
13.49
14.47
15.48
16.07
16.05
15.36
14.06
12.17
9.76
6.88
3.65
0.24
-3.17
-6.47
-9.62
-12.72
-16.02
-19.82
-24.44
-29.91
-35.81
-41.13
-44.45
-44.35
-39.97
-31.42
-19.8
-6.86
5.54
15.95
23.61
28.38
30.45
30.19
28
24.39
20
15.59
11.91
9.48
8.49
8.78
9.89
11.28
12.39
12.86
12.44
11.07
8.8
5.8
2.3
-1.5
-5.35
-9.15
-12.84
-16.54
-20.47
-24.94
-30.13
-35.87
-41.55
-46.06
-48.08
-46.47
-40.77
-31.38
-19.49
-6.74
5.32
15.49
23.14
28.02
30.23
30.05
27.95
24.59
20.73
17.13
14.34
12.66
12.08
12.37
13.21
14.17
14.87
14.95
14.2
12.62
10.34
7.56
4.44
1.06
-2.56
-6.36
-10.23
-14.1
-18.03
-22.29
-27.29
-33.28
-39.98
-46.45
-51.16
-52.47
-49.22
-41.19
-29.29
-15.29
-1.3
10.9
20.23
26.44
29.81
30.86
30.13
28.07
25.14
21.87
18.85
16.56
15.32
15.11
15.64
16.49
17.22
17.5
17.19
16.23
14.68
12.61
10.08
7.13
3.83
0.25
-3.49
-7.3
-11.19
-15.33
-20.02
-25.51
-31.8
-38.36
-44.14
-47.75
-47.9
-43.8
-35.55
-24.11
-11.04
1.89
13.18
21.93
27.85
31.12
32.2
31.58
29.7
26.95
23.77
20.72
18.39
17.19
17.2
18.07
19.19
19.94
19.93
19.1
17.59
15.51
12.85
9.49
5.41
0.86
-3.72
-7.87
-11.39
-14.41
-17.46
-21.15
-25.86
-31.51
-37.43
-42.4
-45.04
-44.14
-39.15
-30.33
-18.79
-6.2
5.74
15.77
23.25
28.13
30.65
31.15
29.89
27.14
23.33
19.12
15.3
12.62
11.5
11.94
13.42
15.25
16.7
17.3
16.92
15.68
13.81
11.48
8.75
5.58
2.02
-1.77
-5.51
-8.92
-11.97
-14.87
-18.15
-22.33
-27.65
-33.71
-39.45
-43.4
-44.11
-40.69
-33.12
-22.34
-9.89
2.5
13.36
21.79
27.38
30.16
30.38
28.34
24.56
19.7
14.63
10.32
7.53
6.56
7.2
8.82
10.58
11.72
11.88
11.03
9.35
7.14
4.6
1.9
-0.9
-3.71
-6.5
-9.3
-12.27
-15.75
-20.11
-25.65
-32.23
-39.16
-45.22
-48.89
-48.86
-44.44
-35.9
-24.34
-11.42
1.14
11.99
20.33
25.87
28.69
29.07
27.39
24.23
20.25
16.19
12.78
10.49
9.49
9.59
10.33
11.15
11.59
11.37
10.43
8.87
6.83
4.45
1.75
-1.26
-4.58
-8.18
-11.99
-16.01
-20.39
-25.36
-31.1
-37.5
-43.94
-49.24
-51.99
-50.98
-45.69
-36.48
-24.54
-11.46
1.16
12.09
20.55
26.14
28.81
28.8
26.62
23.01
18.88
15.11
12.32
10.8
10.51
11.17
12.41
13.82
14.99
15.57
15.22
13.77
11.27
8
4.4
0.94
-2.15
-4.91
-7.62
-10.71
-14.55
-19.35
-25.15
-31.67
-38.34
-44.17
-47.94
-48.41
-44.81
-37.15
-26.33
-13.89
-1.54
9.38
18.09
24.38
28.37
30.3
30.44
29.07
26.64
23.71
20.89
18.66
17.29
16.8
17
17.61
18.26
18.64
18.49
17.63
16
13.65
10.66
7.19
3.4
-0.52
-4.39
-8.09
-11.65
-15.27
-19.34
-24.22
-29.96
-35.98
-41.08
-43.69
-42.47
-36.84
-27.26
-15.11
-2.24
9.64
19.33
26.3
30.59
32.47
32.37
30.73
28.05
24.89
21.83
19.35
17.77
17.19
17.47
18.33
19.34
20.08
20.2
19.5
17.94
15.64
12.8
9.6
6.21
2.69
-0.93
-4.63
-8.41
-12.36
-16.69
-21.65
-27.31
-33.36
-38.93
-42.66
-43.2
-39.63
-31.98
-21.2
-8.97
2.96
13.22
21.1
26.45
29.46
30.41
29.52
27.05
23.41
19.23
15.29
12.33
10.85
10.92
12.18
13.96
15.47
16.08
15.45
13.6
10.84
7.65
4.49
1.66
-0.78
-3.02
-5.48
-8.6
-12.73
-18.01
-24.2
-30.73
-36.66
-40.85
-42.15
-39.74
-33.4
-23.69
-11.88
0.37
11.5
20.36
26.51
29.99
31.2
30.54
28.41
25.15
21.21
17.2
13.79
11.53
10.66
11.01
12.07
13.13
13.6
13.1
11.62
9.35
6.62
3.65
0.56
-2.68
-6.12
-9.81
-13.82
-18.23
-23.16
-28.68
-34.61
-40.33
-44.84
-46.9
-45.46
-40.06
-31
-19.33
-6.51
5.98
16.93
25.58
31.6
34.97
35.94
34.92
32.45
29.12
25.51
22.1
19.24
17.14
15.85
15.31
15.29
15.44
15.39
14.75
13.28
10.97
8.01
4.68
1.3
-2.01
-5.28
-8.7
-12.45
-16.68
-21.38
-26.41
-31.55
-36.38
-40.29
-42.47
-42.02
-38.27
-31.05
-20.91
-9.07
2.9
13.51
21.74
27.23
30.17
31.06
30.48
28.89
26.68
24.19
21.77
19.72
18.29
17.55
17.44
17.71
18.02
18
17.34
15.89
13.68
10.92
7.9
4.88
1.97
-0.93
-3.99
-7.42
-11.36
-15.85
-20.86
-26.24
-31.64
-36.39
-39.6
-40.29
-37.74
-31.71
-22.66
-11.62
0.07
11.02
20.17
26.88
30.95
32.5
31.9
29.6
26.23
22.45
18.93
16.23
14.62
14.04
14.18
14.62
14.94
14.87
14.27
13.08
11.3
9.02
6.44
3.78
1.24
-1.13
-3.43
-5.89
-8.71
-12.02
-15.9
-20.37
-25.3
-30.34
-34.78
-37.66
-37.94
-34.89
-28.42
-19.16
-8.31
2.72
12.68
20.7
26.34
29.51
30.32
29.08
26.29
22.61
18.83
15.68
13.66
12.87
13.06
13.71
14.29
14.39
13.85
12.67
10.99
8.9
6.52
3.92
1.21
-1.5
-4.08
-6.51
-8.84
-11.23
-13.91
-17.08
-20.86
-25.16
-29.6
-33.49
-35.93
-36.01
-33.12
-27.19
-18.72
-8.77
1.36
10.46
17.64
22.46
24.87
25.12
23.57
20.72
17.12
13.34
9.96
7.45
6.07
5.83
6.49
7.71
9.07
10.22
10.89
10.89
10.15
8.7
6.66
4.19
1.48
-1.34
-4.18
-7.03
-9.9
-12.84
-16
-19.55
-23.59
-27.97
-32.17
-35.34
-36.48
-34.82
-30.12
-22.77
-13.72
-4.13
4.88
12.47
18.09
21.45
22.48
21.41
18.68
14.99
11.14
7.78
5.39
4.1
3.77
4.12
4.82
5.59
6.17
6.36
6.03
5.13
3.72
1.94
-0.07
-2.19
-4.43
-6.83
-9.44
-12.29
-15.33
-18.54
-21.99
-25.75
-29.73
-33.51
-36.26
-36.88
-34.4
-28.45
-19.52
-8.86
1.93
11.37
18.47
22.88
24.74
24.42
22.44
19.37
15.83
12.44
9.68
7.82
6.81
6.43
6.38
6.43
6.46
6.43
6.29
5.92
5.1
3.63
1.38
-1.56
-4.97
-8.45
-11.67
-14.45
-16.89
-19.31
-22.14
-25.74
-30.14
-34.97
-39.4
-42.32
-42.66
-39.71
-33.4
-24.3
-13.55
-2.49
7.6
15.8
21.54
24.68
25.39
24.11
21.5
18.3
15.2
12.68
10.99
10.09
9.76
9.72
9.74
9.69
9.52
9.24
8.77
7.99
6.71
4.74
2.07
-1.17
-4.7
-8.24
-11.56
-14.62
-17.58
-20.72
-24.35
-28.65
-33.53
-38.55
-42.86
-45.3
-44.76
-40.54
-32.66
-21.95
-9.83
2.08
12.4
20.26
25.31
27.66
27.64
25.81
22.77
19.2
15.77
12.97
11.08
10.17
10.09
10.63
11.49
12.37
12.93
12.83
11.83
9.86
7.05
3.7
0.18
-3.17
-6.15
-8.71
-10.98
-13.22
-15.79
-19.03
-23.19
-28.26
-33.82
-39.09
-42.93
-44.2
-42.01
-36.08
-26.86
-15.5
-3.47
7.72
16.87
23.35
26.99
28.02
26.97
24.49
21.28
18.01
15.18
13.14
11.99
11.61
11.77
12.21
12.64
12.85
12.67
11.95
10.6
8.58
5.94
2.77
-0.7
-4.28
-7.76
-10.96
-13.8
-16.33
-18.8
-21.61
-25.16
-29.62
-34.69
-39.48
-42.73
-43.16
-39.96
-33.11
-23.4
-12.18
-0.93
9.09
17.08
22.68
25.85
26.77
25.77
23.33
20.03
16.54
13.48
11.31
10.3
10.41
11.36
12.72
13.97
14.7
14.69
13.86
12.27
10.06
7.34
4.24
0.9
-2.48
-5.73
-8.73
-11.54
-14.4
-17.69
-21.79
-26.81
-32.43
-37.76
-41.59
-42.62
-39.98
-33.51
-23.87
-12.38
-0.62
10
18.49
24.42
27.71
28.57
27.32
24.43
20.44
16.05
11.97
8.81
6.94
6.44
7.12
8.55
10.21
11.53
12.08
11.58
9.97
7.4
4.17
0.65
-2.82
-6.08
-9.13
-12.17
-15.49
-19.45
-24.31
-30.06
-36.28
-42.08
-46.21
-47.33
-44.44
-37.23
-26.21
-12.65
1.79
15.49
27.23
36.35
42.61
46.14
47.28
46.56
44.78
42.85
41.62
41.57
42.63
44.25
45.67
46.18
45.41
43.39
40.31
36.41
31.82
26.61
20.91
14.92
8.94
3.23
-2.11
-7.15
-12.11
-17.32
-23.07
-29.63
-37.14
-45.41
-53.84
-61.35
-66.59
-68.26
-65.63
-58.9
-49.19
-38.18
-27.61
-18.75
-12.17
-7.81
-5.25
-4.03
-3.81
-4.4
-5.63
-7.21
-8.7
-9.6
-9.46
-8.14
-5.86
-3.19
-0.83
0.63
0.88
0.02
-1.67
-3.84
-6.28
-8.91
-11.72
-14.65
-17.61
-20.53
-23.5
-26.88
-31.12
-36.5
-42.8
-49.14
-54.07
-56.02
-53.77
-46.98
-36.3
-23.17
-9.32
3.66
14.65
23.12
28.93
32.19
33.16
32.2
29.87
26.88
24.04
22.01
21.19
21.55
22.74
24.2
25.4
25.96
25.76
24.81
23.18
20.92
18.08
14.78
11.16
7.47
3.87
0.45
-2.85
-6.25
-9.99
-14.36
-19.46
-25
-30.26
-34.07
-35.08
-32.22
-25.14
-14.38
-1.27
12.54
25.56
36.86
46.01
52.96
57.74
60.38
60.99
59.9
57.76
55.42
53.73
53.2
53.98
55.75
58.04
60.36
62.32
63.69
64.26
63.89
62.46
60.01
56.75
53.1
49.51
46.3
43.53
40.91
37.88
33.81
28.29
21.32
13.45
5.82
-0.13
-2.94
-1.54
4.46
14.65
27.95
42.78
57.42
70.28
80.11
86.15
88.15
86.4
81.52
74.48
66.37
58.23
50.95
45.14
41.03
38.44
36.89
35.72
34.29
32.25
29.51
26.3
22.98
19.9
17.34
15.38
14
12.98
12.06
10.97
9.59
7.98
6.46
5.42
5.14
5.64
6.58
7.41
7.48
6.32
3.72
-0.13
-4.87
-10.02
-15.18
-20.07
-24.51
-28.39
-31.62
-34.16
-36.07
-37.52
-38.81
-40.18
-41.76
-43.5
-45.24
-46.76
-47.95
-48.78
-49.27
-49.4
-49.08
-48.29
-47.06
-45.55
-43.97
-42.5
-41.17
-39.94
-38.73
-37.5
-36.32
-35.25
-34.34
-33.57
-32.9
-32.3
-31.74
-31.19
-30.55
-29.73
-28.64
-27.35
-26.07
-25.08
-24.63
-24.79
-25.44
-26.3
-27.09
-27.65
-28.06
-28.66
-29.91
-32.31
-36.18
-41.57
-48.22
-55.68
-63.37
-70.73
-77.3
-82.65
-86.48
-88.54
-88.76
-87.32
-84.61
-81.18
-77.62
-74.49
-72.24
-71.24
-71.58
-72.98
-74.55
-74.9
-72.42
-65.83
-54.71
-39.74
-22.55
-5.15
10.65
23.7
33.54
40.25
44.17
45.66
45.14
43.13
40.24
37.13
34.38
32.37
31.24
30.86
30.91
30.99
30.73
29.85
28.34
26.26
23.79
21.01
17.93
14.53
10.83
6.97
3.11
-0.62
-4.32
-8.31
-13.02
-18.73
-25.28
-31.92
-37.41
-40.33
-39.55
-34.56
-25.71
-14.06
-1.16
11.44
22.42
30.92
36.5
39.1
38.94
36.55
32.71
28.34
24.34
21.41
19.93
19.88
20.97
22.69
24.53
25.98
26.65
26.27
24.75
22.16
18.71
14.67
10.32
5.86
1.47
-2.77
-6.83
-10.8
-14.9
-19.49
-24.9
-31.21
-37.96
-44.09
-48.12
-48.54
-44.39
-35.6
-23.15
-8.74
5.68
18.39
28.28
34.9
38.27
38.74
36.83
33.17
28.53
23.71
19.51
16.53
15.11
15.18
16.36
18.06
19.69
20.79
21.11
20.61
19.36
17.48
15.04
12.08
8.64
4.87
1
-2.67
-5.9
-8.75
-11.56
-14.87
-19.16
-24.39
-29.82
-34.03
-35.23
-31.98
-23.79
-11.32
3.69
19.13
33.04
44.12
51.83
56.11
57.14
55.17
50.64
44.26
37.15
30.54
25.41
22.11
20.29
19.06
17.44
14.77
10.88
6.02
0.68
-4.68
-9.77
-14.5
-18.85
-22.85
-26.52
-29.91
-33.1
-36.19
-39.39
-42.91
-47.02
-51.9
-57.59
-63.74
-69.64
-74.17
-76.1
-74.38
-68.48
-58.66
-45.96
-31.98
-18.49
-7.01
1.42
6.42
8.2
7.37
4.84
1.58
-1.49
-3.58
-4.2
-3.26
-1.12
1.53
3.81
4.88
4.2
1.67
-2.35
-7.12
-11.82
-15.83
-18.91
-21.24
-23.26
-25.44
-28.08
-31.31
-35.13
-39.58
-44.71
-50.33
-55.75
-59.64
-60.33
-56.32
-47.01
-33.02
-16.06
1.66
18.11
31.95
42.69
50.36
55.19
57.46
57.42
55.54
52.59
49.64
47.74
47.65
49.53
52.94
57.03
60.84
63.64
65.1
65.26
64.39
62.7
60.27
57.05
53.06
48.49
43.72
39.12
34.82
30.51
25.5
19.01
10.57
0.32
-10.78
-21.23
-29.32
-33.67
-33.65
-29.43
-21.91
-12.43
-2.38
6.99
14.69
20.04
22.69
22.62
20.13
15.76
10.26
4.35
-1.22
-5.74
-8.61
-9.49
-8.52
-6.43
-4.48
-4
-5.91
-10.37
-16.71
-23.79
-30.52
-36.24
-40.83
-44.53
-47.69
-50.63
-53.63
-57.01
-61.15
-66.29
-72.31
-78.43
-83.31
-85.23
-82.69
-74.95
-62.38
-46.48
-29.47
-13.63
-0.68
8.55
14.16
16.83
17.45
16.72
15.13
13
10.68
8.61
7.29
7.09
8.11
10.08
12.46
14.6
15.94
16.18
15.3
13.54
11.31
8.95
6.7
4.64
2.73
0.94
-0.72
-2.19
-3.6
-5.23
-7.46
-10.45
-13.89
-16.82
-18.02
-16.39
-11.54
-3.92
5.34
14.9
23.71
31.17
37.09
41.46
44.28
45.51
45.27
43.85
41.76
39.63
38.03
37.36
37.74
38.94
40.49
41.78
42.29
41.74
40.16
37.74
34.7
31.12
27.03
22.44
17.45
12.29
7.12
1.93
-3.54
-9.68
-16.67
-24.24
-31.46
-36.95
-39.27
-37.39
-31.06
-20.95
-8.42
4.87
17.41
28.14
36.5
42.34
45.79
47.16
46.9
45.6
43.79
41.91
40.19
38.62
37.15
35.71
34.33
33.08
31.96
30.88
29.66
28.08
25.98
23.28
20
16.25
12.15
7.93
3.69
-0.56
-4.99
-9.88
-15.47
-21.75
-28.23
-34.04
-38.06
-39.34
-37.39
-32.39
-25.09
-16.6
-8.04
-0.27
6.17
10.98
14
15.07
14.19
11.55
7.67
3.38
-0.37
-2.77
-3.39
-2.27
0.17
3.32
6.6
9.58
12.08
14.02
15.31
15.9
15.72
14.78
13.22
11.25
8.99
6.37
3.11
-1.19
-6.77
-13.52
-20.87
-27.76
-32.89
-35.01
-33.25
-27.43
-18.17
-6.77
5.09
15.8
24.18
29.69
32.32
32.43
30.46
26.87
22.18
16.99
12.08
8.17
5.75
4.8
4.86
5.17
5.04
4.1
2.35
-0
-2.8
-6.05
-9.85
-14.23
-18.91
-23.34
-26.92
-29.28
-30.58
-31.55
-33.28
-36.81
-42.79
-51.11
-60.9
-70.61
-78.43
-82.68
-82.33
-77.18
-67.84
-55.61
-42.02
-28.53
-16.27
-6.02
1.8
7.09
10.01
11.01
10.79
10.15
9.85
10.41
12.06
14.71
18.1
21.79
25.32
28.3
30.4
31.46
31.49
30.65
29.17
27.23
24.85
21.9
18.13
13.35
7.52
0.76
-6.7
-14.61
-22.64
-30.35
-37.01
-41.58
-42.96
-40.27
-33.32
-22.76
-10
3.24
15.4
25.51
33.15
38.35
41.32
42.28
41.5
39.3
36.22
32.9
29.93
27.71
26.27
25.35
24.48
23.19
21.14
18.23
14.5
10.18
5.6
1.15
-2.71
-5.6
-7.3
-7.93
-7.94
-8.06
-9.13
-11.84
-16.48
-22.76
-29.88
-36.53
-41.24
-42.7
-40.19
-33.76
-24.25
-13.11
-1.94
7.82
15.25
19.99
22.15
22.13
20.44
17.62
14.24
10.89
8.15
6.49
6.18
7.14
8.99
11.06
12.66
13.2
12.42
10.38
7.41
3.96
0.4
-3.08
-6.48
-9.92
-13.56
-17.55
-22
-27.06
-32.89
-39.54
-46.72
-53.64
-59.02
-61.47
-59.95
-54.25
-45.16
-34.2
-23.05
-13
-4.65
2.06
7.46
11.81
15.13
17.27
18.13
17.84
16.79
15.51
14.45
13.93
14.05
14.73
15.75
16.9
17.87
18.43
18.38
17.64
16.26
14.38
12.12
9.61
6.98
4.28
1.56
-1.24
-4.31
-7.92
-12.32
-17.47
-22.89
-27.58
-30.3
-29.93
-25.9
-18.51
-8.84
1.61
11.36
19.4
25.26
28.89
30.49
30.27
28.53
25.7
22.4
19.31
17.04
15.91
15.9
16.72
17.93
19.11
19.9
20.01
19.23
17.42
14.64
11.1
7.14
3.14
-0.59
-3.92
-6.91
-9.79
-12.84
-16.3
-20.35
-24.99
-29.92
-34.53
-37.95
-39.17
-37.36
-32.13
-23.72
-13.08
-1.61
9.2
18.14
24.55
28.37
29.88
29.57
27.93
25.38
22.34
19.24
16.49
14.4
13.09
12.42
12.14
11.99
11.77
11.4
10.78
9.76
8.12
5.75
2.69
-0.73
-4.08
-7
-9.41
-11.48
-13.65
-16.42
-20.16
-24.91
-30.27
-35.4
-39.11
-40.21
-37.89
-32.01
-23.2
-12.65
-1.71
8.46
17.07
23.68
28.06
30.11
29.92
27.88
24.68
21.18
18.17
16.16
15.24
15.26
15.9
16.89
18.07
19.27
20.3
20.81
20.38
18.66
15.56
11.36
6.62
2.02
-1.95
-5.16
-7.88
-10.57
-13.73
-17.62
-22.28
-27.46
-32.67
-37.2
-40.12
-40.46
-37.57
-31.38
-22.58
-12.49
-2.63
5.77
12.05
16.12
18.24
18.75
17.95
16.16
13.76
11.34
9.43
8.38
8.17
8.51
9.03
9.47
9.76
9.96
10.1
10.07
9.63
8.54
6.74
4.34
1.62
-1.13
-3.67
-5.86
-7.71
-9.34
-11
-13.03
-15.68
-18.86
-21.93
-23.81
-23.2
-19.2
-11.65
-1.28
10.42
21.78
31.45
38.67
43.3
45.67
46.24
45.42
43.45
40.37
36.17
30.85
24.54
17.56
10.43
3.73
-2
-6.41
-9.36
-10.97
-11.51
-11.35
-10.91
-10.59
-10.77
-11.66
-13.29
-15.46
-17.87
-20.28
-22.67
-25.24
-28.3
-32.02
-36.11
-39.8
-41.98
-41.62
-38.14
-31.71
-23.13
-13.63
-4.42
3.58
9.85
14.26
16.9
17.97
17.69
16.36
14.37
12.14
10.17
8.84
8.43
9.01
10.41
12.29
14.19
15.66
16.37
16.18
15.18
13.57
11.56
9.29
6.81
4.12
1.25
-1.74
-4.74
-7.81
-11.12
-14.94
-19.42
-24.31
-28.92
-32.15
-32.87
-30.35
-24.51
-16.04
-6.16
3.75
12.51
19.35
24
26.49
27.04
26.04
23.87
21.01
18
15.38
13.51
12.58
12.45
12.75
13.01
12.87
12.18
11.11
9.91
8.79
7.7
6.4
4.57
2.07
-0.95
-4.15
-7.13
-9.71
-12.02
-14.44
-17.4
-21.11
-25.4
-29.71
-33.17
-34.88
-34.12
-30.59
-24.43
-16.3
-7.17
1.89
9.92
16.2
20.32
22.26
22.24
20.71
18.21
15.29
12.44
10.05
8.43
7.78
8.2
9.58
11.6
13.7
15.24
15.61
14.53
12.08
8.7
5.04
1.64
-1.2
-3.53
-5.6
-7.74
-10.14
-12.91
-16.06
-19.58
-23.43
-27.29
-30.52
-32.21
-31.37
-27.43
-20.45
-11.25
-1.13
8.53
16.67
22.7
26.49
28.18
28
26.21
23.16
19.34
15.39
11.91
9.42
8.16
8.09
8.92
10.19
11.43
12.2
12.28
11.59
10.24
8.45
6.4
4.16
1.71
-1.07
-4.22
-7.74
-11.55
-15.56
-19.79
-24.28
-28.94
-33.34
-36.71
-38
-36.32
-31.24
-23.09
-12.91
-2.11
7.96
16.28
22.36
26.17
27.88
27.79
26.17
23.36
19.74
15.83
12.2
9.35
7.63
7.06
7.42
8.24
9.02
9.33
8.91
7.66
5.63
2.96
-0.21
-3.68
-7.27
-10.78
-14.1
-17.23
-20.32
-23.66
-27.56
-32.22
-37.5
-42.78
-47.03
-49.01
-47.66
-42.49
-33.83
-22.72
-10.66
0.86
10.71
18.27
23.36
26.09
26.71
25.59
23.17
20.06
16.89
14.23
12.46
11.7
11.78
12.44
13.35
14.23
14.85
14.97
14.39
12.98
10.77
7.97
4.92
2.01
-0.52
-2.61
-4.4
-6.18
-8.29
-11.05
-14.67
-19.13
-24.04
-28.58
-31.63
-32.05
-29.08
-22.64
-13.46
-2.86
7.65
16.87
24.07
29.04
31.89
32.79
31.94
29.65
26.4
22.84
19.65
17.29
15.86
15.14
14.77
14.47
14.12
13.74
13.31
12.67
11.59
9.9
7.65
5.03
2.33
-0.32
-2.92
-5.67
-8.73
-12.22
-16.14
-20.46
-25.03
-29.54
-33.37
-35.68
-35.52
-32.21
-25.64
-16.38
-5.6
5.31
15.08
22.9
28.3
31.26
31.9
30.5
27.53
23.57
19.37
15.57
12.61
10.61
9.33
8.46
7.71
7.01
6.42
6.06
5.88
5.65
4.98
3.55
1.27
-1.71
-5.01
-8.23
-11.17
-13.81
-16.38
-19.17
-22.42
-26.22
-30.39
-34.32
-37.17
-37.89
-35.66
-30.15
-21.76
-11.55
-0.95
8.72
16.53
22.1
25.44
26.79
26.39
24.49
21.42
17.68
13.88
10.63
8.31
7.07
6.76
7.09
7.77
8.57
9.22
9.46
9.01
7.66
5.33
2.17
-1.46
-5.16
-8.59
-11.68
-14.58
-17.66
-21.27
-25.64
-30.63
-35.7
-39.96
-42.38
-42.04
-38.44
-31.64
-22.3
-11.49
-0.43
9.74
18.18
24.4
28.23
29.79
29.34
27.33
24.3
20.9
17.73
15.2
13.46
12.35
11.56
10.8
9.98
9.19
8.59
8.22
7.9
7.27
5.94
3.75
0.81
-2.51
-5.8
-8.77
-11.39
-13.94
-16.86
-20.57
-25.15
-30.25
-35.08
-38.56
-39.66
-37.69
-32.52
-24.63
-14.96
-4.6
5.33
13.99
20.85
25.67
28.42
29.24
28.38
26.2
23.13
19.68
16.37
13.69
11.97
11.31
11.56
12.33
13.12
13.48
13.09
11.86
9.93
7.51
4.84
2.08
-0.71
-3.54
-6.43
-9.4
-12.47
-15.76
-19.49
-23.89
-28.92
-34.16
-38.7
-41.32
-40.9
-36.78
-29.09
-18.8
-7.36
3.62
12.95
19.95
24.52
26.89
27.45
26.56
24.53
21.68
18.5
15.54
13.3
12.1
11.86
12.27
12.89
13.44
13.82
14.05
14.14
13.93
13.15
11.54
9.06
5.92
2.54
-0.71
-3.72
-6.64
-9.83
-13.61
-18.16
-23.39
-28.9
-33.96
-37.59
-38.79
-36.75
-31.25
-22.78
-12.52
-1.93
7.61
15.23
20.65
24.04
25.67
25.76
24.39
21.7
18.09
14.2
10.74
8.29
7.03
6.81
7.23
7.9
8.52
8.97
9.14
8.85
7.89
6.09
3.39
-0.03
-3.82
-7.58
-10.95
-13.76
-16.07
-18.21
-20.69
-23.9
-27.92
-32.31
-36.1
-38.08
-37.23
-33.06
-25.83
-16.45
-6.18
3.74
12.32
18.95
23.35
25.52
25.63
24.03
21.18
17.65
13.97
10.67
8.14
6.66
6.28
6.82
7.9
8.98
9.57
9.35
8.25
6.42
4.12
1.59
-1.02
-3.65
-6.27
-8.89
-11.58
-14.5
-17.93
-22.12
-27.19
-32.81
-38.21
-42.19
-43.47
-41.11
-34.88
-25.42
-14.05
-2.33
8.36
17.15
23.67
27.9
29.9
29.77
27.73
24.25
20.11
16.21
13.23
11.46
10.68
10.41
10.17
9.73
9.06
8.19
7.1
5.67
3.76
1.33
-1.51
-4.53
-7.49
-10.3
-12.97
-15.65
-18.63
-22.15
-26.34
-31.09
-35.88
-39.9
-42.15
-41.74
-38.21
-31.62
-22.58
-12.01
-1.04
9.27
17.97
24.42
28.27
29.57
28.67
26.15
22.63
18.71
14.89
11.63
9.3
8.14
8.19
9.17
10.57
11.76
12.21
11.68
10.21
8.04
5.49
2.76
0.02
-2.67
-5.27
-7.78
-10.33
-13.22
-16.82
-21.41
-26.88
-32.59
-37.42
-40.02
-39.28
-34.67
-26.5
-15.78
-3.95
7.54
17.53
25.3
30.52
33.18
33.48
31.78
28.64
24.76
20.85
17.53
15.17
13.79
13.19
13.07
13.12
13.18
13.2
13.11
12.84
12.24
11.11
9.35
6.97
4.11
0.99
-2.2
-5.38
-8.6
-12.04
-15.91
-20.31
-25.07
-29.71
-33.43
-35.29
-34.47
-30.54
-23.66
-14.56
-4.36
5.68
14.46
21.19
25.45
27.21
26.71
24.47
21.17
17.49
14.06
11.25
9.26
8.05
7.54
7.6
8.06
8.7
9.21
9.26
8.55
6.98
4.68
1.95
-0.84
-3.39
-5.57
-7.47
-9.34
-11.51
-14.28
-17.83
-22.1
-26.8
-31.27
-34.61
-35.73
-33.71
-28.09
-19.17
-8.04
3.67
14.22
22.31
27.28
29.21
28.69
26.42
23.05
19.08
14.9
10.97
7.74
5.61
4.82
5.22
6.43
7.85
8.93
9.28
8.75
7.45
5.59
3.37
0.93
-1.69
-4.44
-7.31
-10.2
-13.12
-16.18
-19.63
-23.72
-28.38
-33.04
-36.66
-37.97
-35.93
-30.19
-21.29
-10.52
0.53
10.42
18.24
23.65
26.72
27.68
26.73
24.17
20.39
15.98
11.71
8.35
6.38
5.93
6.65
7.95
9.2
9.87
9.69
8.6
6.7
4.17
1.27
-1.75
-4.71
-7.57
-10.52
-13.84
-17.88
-22.84
-28.52
-34.35
-39.37
-42.44
-42.49
-38.84
-31.46
-21.05
-8.97
3.1
13.57
21.38
26.19
28.34
28.54
27.57
26.02
24.24
22.43
20.73
19.37
18.55
18.36
18.7
19.26
19.61
19.35
18.21
16.11
13.19
9.74
6.03
2.38
-1.04
-4.15
-7.09
-10.1
-13.48
-17.51
-22.28
-27.66
-33.11
-37.8
-40.64
-40.66
-37.22
-30.33
-20.7
-9.54
1.72
11.83
19.93
25.62
28.86
29.86
28.94
26.55
23.2
19.49
16.01
13.23
11.42
10.63
10.68
11.22
11.8
11.99
11.45
10.04
7.83
5.06
2
-1.15
-4.3
-7.52
-10.88
-14.44
-18.26
-22.33
-26.65
-31.11
-35.34
-38.7
-40.29
-39.19
-34.86
-27.36
-17.46
-6.41
4.37
13.75
21.01
25.93
28.61
29.29
28.28
25.98
22.91
19.69
16.97
15.24
14.72
15.28
16.48
17.75
18.57
18.6
17.75
16.13
13.96
11.43
8.74
5.99
3.2
0.36
-2.62
-5.88
-9.58
-13.92
-18.96
-24.55
-30.17
-34.88
-37.55
-37.13
-33.05
-25.48
-15.35
-4.12
6.63
15.57
22.01
25.81
27.33
27.13
25.8
23.82
21.54
19.18
16.89
14.85
13.25
12.26
11.92
12.1
12.48
12.64
12.25
11.17
9.5
7.49
5.37
3.25
1.04
-1.42
-4.23
-7.44
-11.01
-14.94
-19.28
-24.04
-28.99
-33.49
-36.5
-36.91
-33.97
-27.63
-18.64
-8.35
1.8
10.63
17.47
22.13
24.7
25.35
24.28
21.78
18.24
14.26
10.58
7.87
6.52
6.61
7.78
9.43
10.92
11.72
11.66
10.83
9.44
7.67
5.6
3.15
0.24
-3.13
-6.81
-10.6
-14.34
-18.14
-22.18
-26.6
-31.15
-35.09
-37.32
-36.73
-32.71
-25.42
-15.81
-5.32
4.59
12.85
18.88
22.6
24.2
23.98
22.27
19.49
16.11
12.68
9.72
7.65
6.71
6.86
7.83
9.18
10.42
11.09
10.88
9.62
7.42
4.55
1.41
-1.59
-4.2
-6.44
-8.6
-11.15
-14.51
-18.94
-24.29
-30.08
-35.48
-39.48
-41.1
-39.57
-34.59
-26.45
-16.01
-4.59
6.34
15.58
22.36
26.48
28.18
27.94
26.31
23.75
20.65
17.32
14.16
11.51
9.71
8.89
8.93
9.42
9.83
9.71
8.82
7.27
5.35
3.36
1.47
-0.4
-2.45
-4.86
-7.65
-10.68
-13.8
-17.03
-20.6
-24.73
-29.39
-33.97
-37.35
-38.24
-35.7
-29.55
-20.49
-9.91
0.69
10.04
17.42
22.56
25.51
26.45
25.68
23.6
20.76
17.73
15.04
13.05
11.87
11.44
11.54
11.92
12.3
12.43
12.12
11.25
9.81
7.91
5.65
3.21
0.7
-1.76
-4.15
-6.49
-8.89
-11.55
-14.64
-18.29
-22.37
-26.49
-29.96
-31.92
-31.59
-28.51
-22.66
-14.59
-5.26
4.18
12.61
19.22
23.6
25.71
25.82
24.35
21.79
18.64
15.39
12.45
10.15
8.74
8.22
8.47
9.21
10.12
10.9
11.3
11.14
10.31
8.72
6.36
3.37
-0.03
-3.5
-6.7
-9.47
-11.88
-14.27
-17.08
-20.67
-25.08
-29.85
-34.08
-36.66
-36.51
-33.06
-26.39
-17.23
-6.8
3.5
12.48
19.32
23.65
25.55
25.34
23.49
20.5
16.89
13.12
9.67
6.92
5.12
4.36
4.52
5.32
6.4
7.39
8.01
8.03
7.3
5.75
3.46
0.6
-2.53
-5.62
-8.43
-10.91
-13.24
-15.81
-19.07
-23.32
-28.51
-34.05
-38.88
-41.68
-41.36
-37.37
-30
-20.24
-9.48
0.92
9.94
17.02
21.96
24.74
25.43
24.19
21.39
17.57
13.41
9.56
6.52
4.49
3.44
3.12
3.2
3.32
3.2
2.63
1.53
-0.11
-2.2
-4.69
-7.48
-10.47
-13.52
-16.5
-19.32
-22.08
-25.08
-28.72
-33.21
-38.34
-43.31
-46.85
-47.62
-44.69
-37.84
-27.72
-15.65
-3.16
8.31
17.8
24.8
29.26
31.37
31.53
30.19
27.88
25.12
22.35
19.9
17.94
16.53
15.64
15.2
15.1
15.24
15.39
15.27
14.56
13
10.48
7.08
3.12
-1.06
-5.1
-8.81
-12.17
-15.41
-18.88
-22.98
-27.96
-33.68
-39.47
-44.16
-46.37
-44.97
-39.5
-30.42
-18.9
-6.51
5.27
15.36
23.16
28.44
31.23
31.69
30.2
27.31
23.71
20.1
17.01
14.73
13.3
12.64
12.6
13.01
13.67
14.3
14.6
14.23
13.01
10.92
8.09
4.8
1.31
-2.16
-5.52
-8.82
-12.2
-15.86
-20.03
-24.86
-30.31
-35.98
-41.05
-44.37
-44.69
-41.18
-33.7
-23.06
-10.71
1.65
12.59
21.22
27.25
30.78
32.1
31.51
29.38
26.2
22.57
19.19
16.6
15.1
14.66
14.97
15.61
16.19
16.42
16.19
15.45
14.16
12.29
9.81
6.77
3.31
-0.29
-3.76
-6.97
-9.93
-12.91
-16.29
-20.43
-25.5
-31.23
-36.85
-41.19
-43.02
-41.42
-36.08
-27.43
-16.55
-4.81
6.45
16.18
23.72
28.76
31.31
31.66
30.21
27.54
24.24
20.87
17.89
15.65
14.34
13.98
14.36
15.13
15.88
16.28
16.18
15.51
14.28
12.41
9.8
6.44
2.55
-1.46
-5.15
-8.26
-10.91
-13.56
-16.79
-21.01
-26.15
-31.58
-36.25
-38.99
-38.81
-35.19
-28.29
-18.84
-8.05
2.74
12.29
19.72
24.64
27.08
27.41
26.16
23.87
21.05
18.11
15.39
13.2
11.71
11.04
11.13
11.77
12.63
13.32
13.5
12.97
11.68
9.75
7.36
4.66
1.75
-1.32
-4.49
-7.66
-10.77
-13.85
-17.1
-20.79
-25.03
-29.51
-33.42
-35.56
-34.75
-30.32
-22.4
-11.96
-0.48
10.46
19.61
26.27
30.22
31.68
31.05
28.8
25.44
21.52
17.61
14.26
11.85
10.5
10.09
10.29
10.7
11.02
11.04
10.63
9.72
8.26
6.21
3.6
0.56
-2.73
-6.03
-9.22
-12.29
-15.37
-18.68
-22.47
-26.84
-31.65
-36.35
-40.06
-41.74
-40.51
-35.98
-28.42
-18.75
-8.24
1.79
10.37
16.92
21.31
23.67
24.28
23.46
21.61
19.2
16.75
14.68
13.27
12.59
12.5
12.79
13.18
13.44
13.37
12.82
11.73
10.14
8.16
5.92
3.53
1.05
-1.49
-4.02
-6.49
-8.89
-11.37
-14.22
-17.75
-22.02
-26.61
-30.58
-32.69
-31.87
-27.66
-20.42
-11.21
-1.37
7.88
15.75
21.83
26.04
28.36
28.82
27.64
25.21
22.2
19.32
17.1
15.78
15.23
15.11
15.05
14.87
14.51
14.03
13.48
12.77
11.7
10.09
7.82
4.99
1.8
-1.45
-4.53
-7.31
-9.82
-12.27
-14.95
-18.21
-22.21
-26.77
-31.26
-34.73
-36.09
-34.55
-29.86
-22.46
-13.32
-3.65
5.37
12.87
18.32
21.51
22.49
21.53
19.06
15.69
12.11
8.98
6.84
5.97
6.34
7.65
9.43
11.19
12.51
13.07
12.72
11.4
9.26
6.54
3.53
0.48
-2.43
-5.15
-7.74
-10.3
-13.04
-16.18
-19.9
-24.19
-28.71
-32.7
-35.13
-34.95
-31.52
-24.87
-15.77
-5.48
4.59
13.26
19.78
23.85
25.56
25.21
23.21
19.99
16.06
11.93
8.2
5.34
3.64
3.09
3.39
4.02
4.47
4.43
3.83
2.82
1.57
0.13
-1.54
-3.55
-5.9
-8.45
-10.99
-13.43
-15.88
-18.7
-22.28
-26.73
-31.7
-36.3
-39.33
-39.64
-36.58
-30.22
-21.36
-11.24
-1.22
7.58
14.54
19.45
22.4
23.6
23.26
21.6
18.99
15.89
12.86
10.39
8.73
7.83
7.44
7.32
7.34
7.5
7.79
8.06
7.92
6.93
4.78
1.51
-2.46
-6.55
-10.29
-13.52
-16.46
-19.52
-23.14
-27.53
-32.58
-37.75
-42.14
-44.66
-44.26
-40.32
-32.89
-22.78
-11.31
-0.01
9.92
17.75
23.28
26.63
27.98
27.59
25.75
22.92
19.68
16.64
14.26
12.74
12.02
11.88
12.04
12.27
12.41
12.33
11.94
11.12
9.78
7.9
5.47
2.61
-0.52
-3.73
-6.84
-9.81
-12.75
-15.94
-19.69
-24.1
-28.95
-33.64
-37.22
-38.7
-37.27
-32.6
-24.96
-15.19
-4.51
5.77
14.48
20.84
24.56
25.77
24.98
22.82
19.96
16.96
14.26
12.14
10.77
10.17
10.26
10.82
11.6
12.33
12.76
12.73
12.15
11.03
9.38
7.28
4.78
1.96
-1.11
-4.34
-7.66
-11.08
-14.71
-18.76
-23.42
-28.65
-34.06
-38.75
-41.55
-41.31
-37.35
-29.78
-19.48
-7.86
3.53
13.46
21.14
26.35
29.19
30
29.17
27.1
24.22
20.99
17.87
15.34
13.73
13.13
13.36
14
14.55
14.63
14.04
12.86
11.28
9.44
7.42
5.17
2.69
0.02
-2.7
-5.34
-7.87
-10.43
-13.37
-17.08
-21.75
-27.23
-32.86
-37.54
-39.99
-39.17
-34.58
-26.52
-15.96
-4.3
7
16.74
24.09
28.67
30.42
29.64
26.85
22.83
18.47
14.62
11.84
10.38
10.13
10.73
11.68
12.59
13.16
13.26
12.85
11.95
10.58
8.74
6.45
3.77
0.82
-2.24
-5.24
-8.1
-10.89
-13.87
-17.43
-21.88
-27.17
-32.78
-37.68
-40.6
-40.43
-36.58
-29.21
-19.27
-8.2
2.5
11.65
18.57
23.11
25.41
25.75
24.44
21.84
18.4
14.71
11.41
9.03
7.82
7.77
8.55
9.76
10.96
11.78
11.95
11.33
9.92
7.84
5.29
2.46
-0.51
-3.58
-6.7
-9.83
-12.93
-16.06
-19.44
-23.33
-27.84
-32.65
-36.87
-39.28
-38.68
-34.44
-26.73
-16.56
-5.39
5.28
14.32
21.1
25.48
27.54
27.55
25.82
22.78
18.97
14.99
11.46
8.86
7.38
6.95
7.23
7.79
8.22
8.31
7.98
7.26
6.15
4.63
2.61
0.05
-2.98
-6.28
-9.61
-12.79
-15.84
-19.03
-22.79
-27.46
-33.06
-38.97
-44.05
-46.78
-45.92
-40.91
-32.18
-21.03
-9.17
1.89
11.18
18.32
23.34
26.37
27.47
26.75
24.5
21.29
17.89
15.03
13.18
12.47
12.66
13.38
14.25
14.96
15.28
15
13.95
12.04
9.38
6.22
2.86
-0.43
-3.58
-6.67
-9.84
-13.24
-17
-21.24
-26.1
-31.56
-37.29
-42.5
-45.98
-46.46
-43.02
-35.54
-24.83
-12.4
0.01
10.89
19.3
24.91
27.89
28.63
27.64
25.41
22.46
19.3
16.4
14.17
12.9
12.67
13.33
14.53
15.81
16.75
17.02
16.47
15.12
13.09
10.57
7.71
4.68
1.59
-1.46
-4.34
-7
-9.48
-12.09
-15.26
-19.43
-24.73
-30.73
-36.24
-39.7
-39.64
-35.29
-26.96
-15.91
-3.98
7.11
16.18
22.71
26.74
28.55
28.48
26.9
24.29
21.21
18.25
15.92
14.5
14
14.2
14.78
15.43
15.9
15.99
15.58
14.58
12.96
10.71
7.92
4.75
1.43
-1.81
-4.81
-7.59
-10.37
-13.52
-17.43
-22.3
-28.01
-33.98
-39.24
-42.62
-43.02
-39.79
-32.95
-23.18
-11.75
-0.19
10.07
18
23.14
25.57
25.73
24.27
21.8
18.84
15.85
13.2
11.2
10.05
9.79
10.23
11.03
11.84
12.39
12.52
12.18
11.33
9.94
7.98
5.5
2.65
-0.35
-3.29
-6.04
-8.69
-11.49
-14.8
-18.97
-24.09
-29.83
-35.34
-39.34
-40.53
-37.97
-31.44
-21.63
-9.96
1.89
12.36
20.45
25.73
28.28
28.5
26.91
24.06
20.52
16.87
13.62
11.2
9.8
9.43
9.84
10.67
11.5
11.97
11.88
11.15
9.82
7.96
5.64
2.88
-0.29
-3.76
-7.41
-11.1
-14.79
-18.59
-22.79
-27.66
-33.17
-38.83
-43.6
-46.19
-45.44
-40.83
-32.67
-22.05
-10.49
0.53
10
17.43
22.75
26.11
27.65
27.56
26.11
23.78
21.14
18.79
17.13
16.32
16.3
16.82
17.58
18.2
18.33
17.67
16.05
13.52
10.32
6.77
3.18
-0.29
-3.63
-6.83
-9.96
-13.06
-16.31
-20.04
-24.52
-29.81
-35.38
-40.13
-42.58
-41.44
-36.12
-26.99
-15.26
-2.58
9.54
20.04
28.33
34.17
37.47
38.25
36.74
33.45
29.15
24.72
20.97
18.39
17.12
17.02
17.7
18.68
19.45
19.56
18.71
16.82
14.06
10.73
7.24
3.83
0.68
-2.23
-5
-7.81
-10.83
-14.33
-18.56
-23.7
-29.63
-35.75
-40.97
-43.91
-43.34
-38.64
-30.11
-18.9
-6.66
4.91
14.56
21.63
26.04
28.07
28.23
27.08
25.16
22.93
20.77
19
17.79
17.24
17.32
17.9
18.73
19.55
20.1
20.16
19.59
18.31
16.34
13.76
10.67
7.27
3.75
0.29
-3.05
-6.36
-9.85
-13.86
-18.58
-23.95
-29.47
-34.16
-36.77
-36.22
-31.92
-24.12
-13.84
-2.5
8.48
18.05
25.66
31.09
34.33
35.43
34.52
31.9
28.16
24.08
20.46
17.87
16.57
16.4
16.99
17.95
18.88
19.52
19.65
19.1
17.79
15.77
13.22
10.46
7.79
5.39
3.22
1.04
-1.44
-4.58
-8.57
-13.43
-18.85
-24.21
-28.6
-31.01
-30.64
-27.09
-20.6
-11.95
-2.28
7.18
15.45
21.83
25.98
27.95
27.9
26.19
23.26
19.57
15.66
12.02
9.1
7.15
6.24
6.27
6.96
8.03
9.18
10.11
10.52
10.15
8.77
6.31
2.87
-1.21
-5.51
-9.65
-13.39
-16.74
-19.94
-23.35
-27.23
-31.52
-35.72
-38.95
-40.16
-38.52
-33.72
-26.16
-16.75
-6.67
2.95
11.26
17.67
21.84
23.6
23
20.39
16.4
11.89
7.73
4.54
2.6
1.89
2.18
3.14
4.48
5.82
6.83
7.15
6.56
5.07
2.89
0.4
-2.07
-4.36
-6.51
-8.73
-11.23
-14.2
-17.71
-21.76
-26.07
-30.15
-33.17
-34.2
-32.39
-27.39
-19.52
-9.73
0.6
10.13
17.86
23.28
26.27
27.03
25.83
23.02
19.04
14.37
9.64
5.48
2.4
0.71
0.37
1.06
2.23
3.31
3.8
3.43
2.15
0.12
-2.41
-5.19
-8.02
-10.79
-13.52
-16.33
-19.47
-23.24
-27.82
-33.09
-38.45
-42.86
-45.03
-43.85
-38.83
-30.35
-19.52
-7.89
3.09
12.41
19.65
24.79
27.96
29.29
28.88
26.94
23.88
20.27
16.69
13.62
11.28
9.72
8.82
8.41
8.27
8.07
7.51
6.31
4.35
1.69
-1.41
-4.62
-7.64
-10.33
-12.73
-15.08
-17.73
-21.07
-25.35
-30.47
-35.92
-40.75
-43.8
-44.02
-40.78
-34.08
-24.59
-13.42
-1.88
8.79
17.65
24.14
28.1
29.73
29.44
27.79
25.37
22.66
19.99
17.59
15.6
14.11
13.22
12.91
13.09
13.52
13.91
13.92
13.29
11.89
9.71
6.88
3.63
0.23
-3.05
-6.06
-8.87
-11.75
-15.1
-19.34
-24.56
-30.36
-35.79
-39.5
-40.2
-37.07
-30.15
-20.3
-9.01
2.16
11.92
19.53
24.83
27.98
29.31
29.1
27.64
25.24
22.33
19.44
17.07
15.55
14.98
15.2
15.85
16.56
17
17.01
16.49
15.43
13.86
11.83
9.41
6.69
3.76
0.69
-2.47
-5.74
-9.14
-12.81
-16.89
-21.42
-26.15
-30.4
-33.15
-33.3
-30.13
-23.57
-14.33
-3.67
7
16.5
24.07
29.37
32.36
33.14
32.01
29.34
25.72
21.8
18.2
15.37
13.5
12.56
12.31
12.46
12.73
12.92
12.86
12.4
11.47
10
8.06
5.74
3.17
0.45
-2.32
-5.11
-7.92
-10.8
-13.92
-17.48
-21.61
-26.19
-30.59
-33.79
-34.58
-32.02
-25.88
-16.83
-6.24
4.26
13.27
19.93
24.06
25.92
25.93
24.55
22.12
19.03
15.7
12.64
10.29
8.93
8.6
9.09
10.04
11.09
11.91
12.31
12.17
11.4
9.98
7.94
5.39
2.5
-0.47
-3.31
-5.87
-8.15
-10.34
-12.74
-15.66
-19.22
-23.19
-26.97
-29.63
-30.24
-28.12
-23.13
-15.73
-6.91
2.13
10.22
16.48
20.45
22.07
21.65
19.65
16.67
13.25
9.88
6.89
4.5
2.81
1.84
1.51
1.72
2.3
3.06
3.76
4.2
4.18
3.57
2.36
0.59
-1.62
-4.04
-6.42
-8.58
-10.41
-12.07
-13.85
-16.09
-19.04
-22.61
-26.33
-29.36
-30.79
-29.84
-26.16
-20.06
-12.42
-4.42
2.74
8.29
11.93
13.8
14.24
13.6
12.04
9.64
6.52
2.92
-0.71
-3.75
-5.62
-5.88
-4.49
-1.75
1.69
5.05
7.6
8.88
8.71
7.21
4.68
1.46
-2.08
-5.62
-8.86
-11.65
-14.04
-16.3
-18.83
-21.86
-25.31
-28.55
-30.64
-30.58
-27.72
-22.07
-14.31
-5.58
2.86
10
15.2
18.26
19.24
18.38
16.07
12.8
9.16
5.73
2.93
0.95
-0.27
-0.89
-1.02
-0.71
-0.01
0.95
1.9
2.44
2.26
1.24
-0.45
-2.52
-4.66
-6.72
-8.74
-10.88
-13.32
-16.18
-19.51
-23.25
-27.16
-30.79
-33.49
-34.53
-33.22
-29.27
-22.85
-14.68
-5.82
2.51
9.31
14.03
16.52
17.04
15.99
13.8
10.83
7.4
3.93
0.92
-1.12
-1.85
-1.23
0.44
2.57
4.52
5.78
6.09
5.46
4.04
2.12
-0.05
-2.24
-4.34
-6.33
-8.33
-10.5
-13.02
-16.01
-19.54
-23.54
-27.8
-31.89
-35.12
-36.66
-35.69
-31.76
-25.02
-16.27
-6.79
1.98
8.97
13.7
16.23
17
16.47
14.93
12.53
9.42
5.94
2.64
0.16
-1.04
-0.87
0.35
2.02
3.54
4.48
4.69
4.2
3.09
1.47
-0.64
-3.14
-5.89
-8.66
-11.25
-13.66
-16.08
-18.96
-22.67
-27.32
-32.5
-37.29
-40.45
-40.92
-38.13
-32.24
-24.06
-14.74
-5.37
3.18
10.39
15.96
19.67
21.37
21.05
18.92
15.48
11.47
7.68
4.7
2.83
2.08
2.24
3
4.09
5.22
6.15
6.61
6.39
5.35
3.5
0.96
-2.04
-5.29
-8.6
-11.88
-15.11
-18.4
-21.96
-26.01
-30.59
-35.37
-39.56
-42.03
-41.66
-37.81
-30.63
-20.98
-10.2
0.32
9.5
16.7
21.62
24.22
24.65
23.19
20.35
16.77
13.16
10.11
8.02
7.04
7.15
8.15
9.73
11.47
12.85
13.36
12.64
10.63
7.56
3.87
0.04
-3.59
-6.93
-10.05
-13.13
-16.37
-20.03
-24.31
-29.3
-34.75
-39.9
-43.54
-44.3
-41.15
-33.87
-23.21
-10.7
1.82
12.82
21.31
26.97
29.97
30.73
29.68
27.27
23.96
20.18
16.41
13.1
10.63
9.27
9.05
9.82
11.21
12.72
13.87
14.25
13.63
12
9.5
6.37
2.91
-0.63
-4.1
-7.48
-10.97
-14.91
-19.64
-25.31
-31.63
-37.75
-42.43
-44.31
-42.36
-36.27
-26.56
-14.48
-1.66
10.31
20.26
27.6
32.23
34.38
34.38
32.59
29.45
25.49
21.46
18.11
16.08
15.6
16.43
17.93
19.36
20.17
20.13
19.36
18.1
16.56
14.81
12.76
10.29
7.38
4.09
0.56
-3.17
-7.24
-11.94
-17.55
-24.02
-30.72
-36.47
-39.78
-39.42
-34.83
-26.4
-15.33
-3.2
8.49
18.64
26.59
32.02
34.83
35.08
33.12
29.59
25.34
21.28
18.06
16
15.09
15.1
15.75
16.77
17.9
18.8
19.13
18.56
16.93
14.34
11.09
7.54
4.06
0.8
-2.31
-5.5
-9.11
-13.48
-18.82
-25.05
-31.66
-37.64
-41.66
-42.37
-38.88
-31.1
-19.92
-6.95
5.94
17.14
25.66
31.18
33.94
34.38
32.98
30.11
26.16
21.63
17.16
13.51
11.27
10.73
11.69
13.49
15.25
16.16
15.8
14.19
11.72
8.89
6.08
3.43
0.87
-1.72
-4.44
-7.41
-10.81
-14.92
-20.01
-26.02
-32.34
-37.78
-40.77
-40.02
-34.93
-25.92
-14.31
-1.86
9.8
19.56
26.91
31.83
34.44
34.85
33.19
29.73
25.05
19.99
15.48
12.27
10.71
10.66
11.65
13.01
14.15
14.63
14.22
12.92
10.84
8.21
5.24
2.12
-0.99
-4
-6.92
-9.92
-13.38
-17.77
-23.41
-30.22
-37.41
-43.48
-46.61
-45.27
-38.85
-27.97
-14.39
-0.34
12.16
21.78
28.11
31.37
32.12
30.93
28.3
24.66
20.53
16.51
13.18
11
10.15
10.51
11.71
13.22
14.51
15.18
15.01
13.99
12.31
10.18
7.78
5.14
2.2
-1.08
-4.72
-8.67
-12.94
-17.63
-22.96
-28.95
-35.2
-40.7
-43.98
-43.61
-38.76
-29.7
-17.72
-4.77
7.29
17.14
24.27
28.79
31.07
31.44
30.13
27.35
23.51
19.26
15.47
12.9
11.98
12.62
14.26
16.12
17.48
17.88
17.22
15.65
13.45
10.91
8.2
5.41
2.52
-0.58
-3.98
-7.83
-12.21
-17.16
-22.62
-28.28
-33.52
-37.34
-38.59
-36.34
-30.3
-21.13
-10.23
0.64
10.03
17.16
21.97
24.78
25.97
25.76
24.23
21.59
18.25
14.82
11.91
9.94
8.99
8.91
9.39
10.16
10.93
11.48
11.62
11.2
10.11
8.34
5.94
3.05
-0.16
-3.5
-6.81
-10.01
-13.28
-16.94
-21.35
-26.56
-32.06
-36.77
-39.22
-38.16
-32.97
-24.02
-12.52
-0.15
11.47
21.12
28.21
32.64
34.6
34.37
32.3
28.8
24.45
19.98
16.12
13.47
12.29
12.4
13.33
14.43
15.14
15.11
14.26
12.66
10.5
7.97
5.24
2.43
-0.41
-3.3
-6.35
-9.67
-13.44
-17.76
-22.67
-27.99
-33.24
-37.55
-39.86
-39.18
-34.96
-27.37
-17.31
-6.19
4.52
13.64
20.5
24.9
26.95
26.88
25.02
21.8
17.82
13.8
10.45
8.3
7.51
7.9
9.06
10.44
11.56
12.09
11.84
10.77
8.96
6.52
3.68
0.68
-2.27
-5.05
-7.69
-10.34
-13.29
-16.85
-21.21
-26.26
-31.47
-35.87
-38.22
-37.39
-32.83
-24.75
-14.26
-2.91
7.69
16.36
22.54
26.24
27.75
27.44
25.64
22.65
18.84
14.78
11.14
8.58
7.5
7.89
9.35
11.18
12.61
13.08
12.36
10.52
7.85
4.7
1.33
-2.1
-5.5
-8.89
-12.33
-15.96
-20.04
-24.8
-30.29
-36.16
-41.51
-45.07
-45.5
-41.94
-34.38
-23.74
-11.59
0.38
10.79
18.87
24.38
27.47
28.39
27.44
25
21.59
17.84
14.42
11.84
10.41
10.13
10.77
11.92
13.1
13.82
13.71
12.64
10.68
8.1
5.19
2.15
-0.94
-4.15
-7.56
-11.23
-15.19
-19.52
-24.27
-29.44
-34.74
-39.5
-42.66
-43.09
-39.97
-33.15
-23.26
-11.61
0.24
10.84
19.21
24.91
28.01
28.88
28.02
25.86
22.8
19.24
15.63
12.49
10.26
9.2
9.24
9.97
10.85
11.38
11.25
10.4
8.93
6.95
4.61
2.03
-0.67
-3.34
-5.91
-8.38
-10.95
-13.92
-17.66
-22.38
-27.87
-33.41
-37.77
-39.51
-37.47
-31.26
-21.52
-9.78
2.07
12.36
20.13
25.16
27.77
28.44
27.55
25.38
22.19
18.45
14.77
11.83
10.16
9.91
10.84
12.4
13.92
14.79
14.66
13.48
11.46
8.97
6.35
3.82
1.44
-0.88
-3.27
-5.88
-8.87
-12.42
-16.72
-21.83
-27.51
-33.1
-37.5
-39.46
-37.93
-32.53
-23.76
-12.87
-1.55
8.65
16.71
22.24
25.39
26.55
26.07
24.26
21.38
17.85
14.23
11.14
9.04
8.14
8.29
9.15
10.28
11.37
12.18
12.6
12.5
11.75
10.31
8.2
5.62
2.81
-0.01
-2.79
-5.75
-9.23
-13.58
-18.9
-24.84
-30.58
-34.97
-36.82
-35.24
-29.99
-21.51
-10.94
0.24
10.56
18.87
24.54
27.47
27.97
26.5
23.63
19.89
15.78
11.83
8.53
6.25
5.22
5.46
6.67
8.4
10.03
11.03
10.98
9.78
7.57
4.66
1.42
-1.87
-5.03
-8
-10.81
-13.52
-16.35
-19.56
-23.37
-27.78
-32.33
-36.05
-37.68
-36.12
-30.84
-22.22
-11.44
-0.12
10.18
18.39
24.03
27.12
27.91
26.81
24.21
20.6
16.57
12.77
9.75
7.85
7.13
7.41
8.37
9.6
10.74
11.45
11.5
10.74
9.18
6.98
4.38
1.65
-1.06
-3.74
-6.57
-9.8
-13.66
-18.23
-23.36
-28.65
-33.4
-36.67
-37.49
-35.08
-29.22
-20.35
-9.64
1.37
11.13
18.55
23.19
25.23
25.17
23.57
20.86
17.46
13.72
10.12
7.18
5.31
4.68
5.23
6.64
8.48
10.27
11.56
11.96
11.27
9.44
6.7
3.46
0.19
-2.81
-5.54
-8.27
-11.41
-15.31
-20.13
-25.68
-31.38
-36.28
-39.27
-39.32
-35.79
-28.67
-18.72
-7.27
4.07
13.85
21.07
25.33
26.79
25.94
23.43
19.91
15.95
12.07
8.73
6.3
4.99
4.79
5.44
6.5
7.5
8.09
8.06
7.42
6.23
4.54
2.4
-0.13
-2.93
-5.8
-8.62
-11.43
-14.52
-18.29
-23.02
-28.5
-33.99
-38.27
-40.04
-38.4
-33.2
-25.08
-15.27
-5.19
3.98
11.47
16.94
20.36
21.81
21.43
19.38
15.98
11.73
7.36
3.61
1.19
0.43
1.25
3.15
5.38
7.17
8
7.71
6.43
4.53
2.34
0.05
-2.32
-4.88
-7.8
-11.25
-15.36
-20.21
-25.7
-31.4
-36.44
-39.64
-39.87
-36.44
-29.45
-19.83
-9.03
1.44
10.47
17.49
22.4
25.29
26.27
25.42
22.84
18.89
14.19
9.58
5.91
3.74
3.28
4.21
5.9
7.56
8.55
8.51
7.41
5.52
3.17
0.66
-1.88
-4.48
-7.24
-10.35
-14.02
-18.41
-23.59
-29.36
-35.14
-39.97
-42.66
-42.14
-37.79
-29.81
-19.18
-7.4
3.87
13.36
20.35
24.73
26.75
26.81
25.3
22.61
19.19
15.61
12.52
10.51
9.9
10.61
12.18
13.9
15.09
15.28
14.31
12.36
9.78
6.93
4.03
1.11
-1.92
-5.24
-8.97
-13.19
-17.94
-23.19
-28.69
-33.93
-38.07
-40.08
-39.01
-34.4
-26.48
-16.2
-5
5.66
14.61
21.27
25.5
27.52
27.63
26.16
23.43
19.91
16.19
12.92
10.66
9.69
9.91
10.95
12.25
13.32
13.78
13.48
12.34
10.42
7.82
4.76
1.51
-1.57
-4.33
-6.81
-9.38
-12.59
-16.91
-22.34
-28.26
-33.43
-36.32
-35.65
-30.92
-22.61
-12.03
-0.9
9.19
17.24
22.91
26.39
27.98
28.02
26.68
24.18
20.9
17.41
14.44
12.52
11.88
12.3
13.29
14.23
14.67
14.39
13.41
11.85
9.86
7.56
4.99
2.25
-0.56
-3.4
-6.32
-9.53
-13.33
-17.99
-23.48
-29.22
-34.19
-37.05
-36.61
-32.29
-24.37
-13.97
-2.71
7.81
16.39
22.5
26.11
27.54
27.24
25.59
22.99
19.82
16.54
13.61
11.5
10.45
10.45
11.2
12.15
12.75
12.61
11.65
10.03
8.01
5.81
3.5
1.11
-1.39
-3.94
-6.56
-9.36
-12.63
-16.69
-21.62
-27.09
-32.2
-35.74
-36.47
-33.62
-27.15
-17.85
-7.1
3.58
12.88
19.99
24.65
26.98
27.23
25.68
22.67
18.64
14.28
10.4
7.73
6.64
7.08
8.55
10.32
11.71
12.24
11.72
10.24
8.04
5.42
2.66
-0.07
-2.68
-5.2
-7.77
-10.6
-13.99
-18.17
-23.1
-28.36
-33.04
-35.89
-35.76
-31.98
-24.72
-14.99
-4.3
5.85
14.36
20.72
24.89
27.03
27.34
25.97
23.18
19.39
15.27
11.57
8.96
7.83
8.11
9.36
10.93
12.11
12.4
11.61
9.85
7.45
4.76
2.04
-0.66
-3.41
-6.35
-9.62
-13.28
-17.36
-21.87
-26.76
-31.75
-36.2
-39.14
-39.46
-36.32
-29.55
-19.81
-8.48
2.76
12.45
19.71
24.32
26.58
26.97
25.93
23.8
20.87
17.5
14.17
11.43
9.75
9.35
10.14
11.7
13.46
14.76
15.17
14.44
12.64
10.05
7.04
3.9
0.79
-2.3
-5.44
-8.78
-12.51
-16.79
-21.71
-27.18
-32.69
-37.35
-39.95
-39.4
-35.1
-27.24
-16.87
-5.51
5.22
14.13
20.59
24.57
26.34
26.29
24.8
22.23
19
15.59
12.56
10.4
9.39
9.52
10.47
11.72
12.7
13
12.44
11.12
9.29
7.19
4.98
2.68
0.23
-2.45
-5.37
-8.54
-12.04
-16.01
-20.65
-25.88
-31.18
-35.52
-37.55
-36.14
-30.84
-22.19
-11.53
-0.58
9.15
16.74
21.88
24.71
25.56
24.75
22.62
19.56
16.13
12.91
10.41
8.91
8.4
8.66
9.29
9.93
10.26
10.09
9.36
8.11
6.39
4.31
1.92
-0.66
-3.33
-6.02
-8.7
-11.44
-14.47
-18.07
-22.41
-27.37
-32.35
-36.34
-38.12
-36.75
-31.85
-23.85
-13.81
-3.17
6.68
14.72
20.37
23.44
24.04
22.53
19.44
15.49
11.48
8.14
5.94
5.05
5.29
6.3
7.63
8.84
9.59
9.64
8.85
7.26
4.99
2.31
-0.5
-3.22
-5.71
-8.04
-10.37
-13
-16.25
-20.39
-25.49
-31.2
-36.7
-40.76
-42.09
-39.76
-33.56
-24.16
-12.97
-1.63
8.43
16.27
21.55
24.32
24.82
23.36
20.31
16.22
11.77
7.75
4.82
3.33
3.24
4.15
5.48
6.6
7.04
6.48
4.83
2.19
-1.14
-4.75
-8.26
-11.43
-14.2
-16.73
-19.33
-22.39
-26.27
-31.14
-36.77
-42.47
-47.06
-49.13
-47.51
-41.72
-32.25
-20.44
-8.05
3.33
12.64
19.46
23.86
26.06
26.35
24.94
22.18
18.61
14.94
11.9
9.99
9.34
9.71
10.62
11.55
12.13
12.14
11.5
10.22
8.3
5.8
2.83
-0.44
-3.82
-7.21
-10.69
-14.5
-18.97
-24.35
-30.61
-37.3
-43.52
-48.03
-49.61
-47.39
-41.24
-31.78
-20.28
-8.22
3.06
12.7
20.26
25.64
28.81
29.82
28.9
26.52
23.38
20.28
17.89
16.49
16.06
16.35
17.01
17.75
18.25
18.23
17.42
15.66
13.01
9.75
6.22
2.73
-0.63
-3.93
-7.37
-11.17
-15.5
-20.52
-26.25
-32.43
-38.34
-42.79
-44.41
-42.05
-35.33
-24.91
-12.29
0.63
12.21
21.41
27.95
32.03
33.96
34.08
32.63
29.96
26.61
23.24
20.51
18.86
18.41
18.96
20.06
21.15
21.68
21.25
19.73
17.24
14.13
10.83
7.64
4.62
1.6
-1.63
-5.21
-9.2
-13.61
-18.5
-23.91
-29.69
-35.2
-39.37
-40.83
-38.46
-31.95
-21.99
-10.14
1.75
12.11
20.04
25.39
28.41
29.51
29.02
27.22
24.47
21.24
18.1
15.61
14.17
13.9
14.72
16.34
18.32
20.12
21.23
21.26
20.05
17.72
14.55
10.86
6.94
2.91
-1.14
-5.15
-9.12
-13.14
-17.36
-21.97
-26.9
-31.62
-35.14
-36.19
-33.74
-27.44
-17.87
-6.37
5.33
15.68
23.64
28.87
31.55
32.12
31.12
29.05
26.36
23.48
20.78
18.54
16.98
16.14
16.01
16.42
17.11
17.71
17.85
17.2
15.63
13.19
10.09
6.59
2.95
-0.67
-4.23
-7.75
-11.35
-15.19
-19.46
-24.27
-29.44
-34.41
-38.21
-39.7
-37.88
-32.37
-23.55
-12.59
-1.11
9.36
17.69
23.41
26.59
27.56
26.74
24.49
21.2
17.35
13.6
10.63
8.99
8.85
9.93
11.6
13.12
13.94
13.81
12.85
11.35
9.58
7.66
5.51
2.99
0.07
-3.15
-6.41
-9.53
-12.58
-15.87
-19.8
-24.53
-29.64
-34.11
-36.6
-35.86
-31.31
-23.3
-12.98
-1.99
8.13
16.28
21.96
25.12
26.02
24.96
22.33
18.62
14.44
10.53
7.59
6.05
5.97
6.98
8.49
9.84
10.55
10.41
9.44
7.82
5.77
3.49
1.07
-1.45
-4.08
-6.83
-9.69
-12.75
-16.12
-20.02
-24.58
-29.71
-34.84
-38.93
-40.69
-38.99
-33.36
-24.22
-12.9
-1.19
9.25
17.31
22.67
25.58
26.57
26.11
24.47
21.85
18.52
14.98
11.85
9.7
8.8
9.01
9.89
10.86
11.51
11.6
11.1
10
8.36
6.22
3.68
0.94
-1.79
-4.41
-6.97
-9.65
-12.69
-16.3
-20.56
-25.29
-30.1
-34.26
-36.81
-36.75
-33.4
-26.68
-17.29
-6.55
3.97
12.95
19.61
23.81
25.83
26.11
25.05
23.01
20.33
17.45
14.89
13.09
12.32
12.52
13.4
14.46
15.27
15.47
14.9
13.52
11.43
8.73
5.62
2.29
-1.05
-4.23
-7.17
-9.9
-12.56
-15.42
-18.78
-22.85
-27.59
-32.61
-37.07
-39.88
-39.95
-36.62
-29.87
-20.49
-9.82
0.62
9.57
16.3
20.62
22.74
22.99
21.74
19.35
16.3
13.19
10.65
9.16
8.86
9.56
10.82
12.17
13.26
13.95
14.19
13.97
13.24
11.96
10.06
7.57
4.63
1.44
-1.8
-4.96
-8.04
-11.18
-14.62
-18.6
-23.17
-28.04
-32.49
-35.51
-36.03
-33.36
-27.45
-18.96
-9.08
0.86
9.72
16.75
21.64
24.35
25.02
23.91
21.41
18.02
14.4
11.2
8.9
7.76
7.76
8.64
10.06
11.6
12.83
13.42
13.13
11.85
9.67
6.81
3.59
0.33
-2.73
-5.49
-7.99
-10.38
-12.87
-15.73
-19.16
-23.28
-27.92
-32.57
-36.32
-38.08
-36.87
-32.2
-24.32
-14.22
-3.36
6.76
14.98
20.66
23.68
24.27
22.85
19.91
16.04
11.95
8.28
5.58
4.11
3.75
4.15
4.86
5.54
5.98
6.13
5.91
5.22
3.91
1.91
-0.72
-3.74
-6.82
-9.71
-12.25
-14.5
-16.62
-18.87
-21.56
-24.86
-28.7
-32.62
-35.75
-37
-35.38
-30.41
-22.42
-12.41
-1.84
7.9
15.76
21.29
24.43
25.43
24.57
22.2
18.75
14.79
11.01
8.05
6.37
6.01
6.68
7.86
8.98
9.59
9.44
8.44
6.64
4.19
1.32
-1.72
-4.69
-7.46
-10.07
-12.7
-15.61
-19.06
-23.19
-28.06
-33.49
-39.06
-43.97
-47.16
-47.51
-44.24
-37.25
-27.23
-15.58
-3.87
6.5
14.65
20.27
23.49
24.6
23.96
21.96
19.08
15.85
12.82
10.43
8.94
8.35
8.52
9.18
10.06
10.86
11.27
11.02
9.9
7.89
5.16
1.98
-1.3
-4.41
-7.27
-9.97
-12.7
-15.72
-19.25
-23.47
-28.36
-33.62
-38.53
-42.05
-43
-40.45
-34.1
-24.47
-12.86
-0.95
9.67
17.88
23.29
26.03
26.56
25.4
23.07
20.04
16.87
14.12
12.32
11.72
12.25
13.54
14.99
16.08
16.44
15.97
14.77
13.01
10.86
8.41
5.71
2.8
-0.26
-3.38
-6.55
-9.81
-13.35
-17.4
-22.14
-27.57
-33.32
-38.64
-42.48
-43.76
-41.68
-36.02
-27.24
-16.37
-4.79
6.16
15.39
22.26
26.51
28.22
27.77
25.64
22.46
18.87
15.46
12.72
11
10.43
10.9
12.08
13.46
14.51
14.79
14.12
12.52
10.2
7.42
4.41
1.31
-1.8
-4.88
-7.92
-10.92
-13.97
-17.25
-21.06
-25.64
-31
-36.7
-41.74
-44.73
-44.33
-39.73
-31.04
-19.34
-6.34
6.1
16.5
24.01
28.46
30.14
29.55
27.28
23.91
20.03
16.22
13.03
10.83
9.79
9.8
10.54
11.54
12.4
12.81
12.64
11.87
10.55
8.69
6.32
3.48
0.28
-3.11
-6.47
-9.62
-12.55
-15.43
-18.66
-22.6
-27.39
-32.64
-37.39
-40.3
-40.07
-35.97
-28.15
-17.7
-6.22
4.67
13.81
20.61
25.04
27.26
27.5
25.92
22.81
18.7
14.38
10.76
8.53
7.94
8.66
10.06
11.41
12.17
12.09
11.15
9.46
7.15
4.33
1.17
-2.12
-5.31
-8.25
-10.93
-13.58
-16.58
-20.32
-25.1
-30.89
-37.17
-42.9
-46.69
-47.19
-43.49
-35.56
-24.28
-11.3
1.52
12.62
21.03
26.5
29.3
29.93
28.92
26.74
23.81
20.61
17.65
15.44
14.32
14.37
15.31
16.68
17.94
18.68
18.72
18.08
16.87
15.19
13.05
10.43
7.29
3.71
-0.21
-4.34
-8.67
-13.31
-18.51
-24.43
-31.02
-37.74
-43.54
-47.03
-46.94
-42.55
-34.11
-22.75
-10.23
1.71
11.78
19.36
24.43
27.26
28.19
27.48
25.46
22.61
19.58
17.08
15.56
15.12
15.5
16.25
17
17.58
18.02
18.36
18.49
18.15
17.01
14.89
11.82
8.11
4.11
0.12
-3.73
-7.51
-11.42
-15.72
-20.64
-26.2
-32.07
-37.42
-41.08
-41.77
-38.62
-31.47
-21.08
-8.88
3.41
14.3
22.79
28.49
31.47
32.14
30.98
28.57
25.49
22.34
19.64
17.77
16.92
17.01
17.79
18.89
19.92
20.56
20.54
19.7
17.97
15.39
12.16
8.5
4.71
1.01
-2.47
-5.74
-8.87
-12.06
-15.59
-19.78
-24.78
-30.35
-35.72
-39.65
-40.76
-38.05
-31.35
-21.51
-10.03
1.34
11.23
18.81
23.93
26.72
27.45
26.43
23.97
20.56
16.81
13.4
10.94
9.76
9.88
11
12.58
14.07
15.02
15.15
14.36
12.68
10.23
7.14
3.66
0.02
-3.49
-6.73
-9.76
-12.85
-16.44
-20.87
-26.19
-32
-37.4
-41.21
-42.25
-39.72
-33.47
-24.11
-12.86
-1.27
9.22
17.58
23.33
26.47
27.28
26.2
23.69
20.27
16.54
13.18
10.77
9.73
10.07
11.46
13.25
14.76
15.41
14.97
13.49
11.24
8.57
5.75
2.93
0.1
-2.77
-5.81
-9.09
-12.74
-16.93
-21.79
-27.27
-33
-38.16
-41.6
-42.2
-39.22
-32.65
-23.3
-12.47
-1.62
8.1
15.98
21.76
25.44
27.14
27.06
25.52
23.01
20.14
17.53
15.58
14.48
14.14
14.32
14.75
15.2
15.46
15.35
14.71
13.42
11.46
8.88
5.86
2.65
-0.53
-3.51
-6.3
-9.1
-12.24
-16.07
-20.78
-26.2
-31.69
-36.23
-38.6
-37.8
-33.36
-25.55
-15.34
-4.14
6.61
15.77
22.7
27.22
29.5
29.91
28.81
26.63
23.84
21.01
18.64
17.15
16.68
17.1
18.04
19.06
19.74
19.83
19.2
17.82
15.73
13.03
9.84
6.33
2.64
-1.1
-4.81
-8.51
-12.3
-16.39
-20.97
-26.07
-31.38
-36.18
-39.45
-40.12
-37.43
-31.27
-22.18
-11.28
0.05
10.52
19.14
25.31
28.88
30.07
29.39
27.5
25.09
22.71
20.74
19.31
18.41
17.94
17.75
17.73
17.75
17.66
17.32
16.62
15.51
14
12.12
9.88
7.25
4.2
0.73
-3.1
-7.08
-11.08
-15.05
-19.13
-23.5
-28.13
-32.62
-36.04
-37.28
-35.39
-30.05
-21.76
-11.78
-1.63
7.31
14.24
18.98
21.79
23.09
23.23
22.38
20.67
18.27
15.55
12.96
10.98
9.91
9.76
10.32
11.25
12.18
12.83
13.02
12.58
11.35
9.19
6.1
2.28
-1.86
-5.84
-9.31
-12.21
-14.86
-17.78
-21.43
-25.93
-30.84
-35.24
-37.95
-37.92
-34.58
-28.06
-19.09
-8.91
1.15
9.94
16.68
21.09
23.24
23.44
22.1
19.7
16.72
13.63
10.85
8.7
7.4
7
7.41
8.32
9.33
9.99
9.91
8.9
6.99
4.42
1.57
-1.25
-3.81
-6.09
-8.27
-10.58
-13.3
-16.71
-20.94
-25.92
-31.2
-35.89
-38.84
-38.89
-35.35
-28.29
-18.56
-7.61
3
12
18.69
22.89
24.8
24.81
23.35
20.86
17.82
14.75
12.1
10.17
9.09
8.8
9.14
9.88
10.69
11.27
11.31
10.61
9.14
6.98
4.35
1.5
-1.36
-4.06
-6.52
-8.78
-10.96
-13.38
-16.49
-20.65
-25.92
-31.78
-37.12
-40.44
-40.4
-36.31
-28.49
-18.16
-7.06
3.17
11.45
17.37
21.1
23.01
23.46
22.67
20.81
18.16
15.14
12.3
10.13
8.85
8.43
8.63
9.17
9.84
10.49
10.99
11.14
10.7
9.43
7.26
4.32
1
-2.3
-5.29
-7.93
-10.44
-13.28
-16.81
-21.25
-26.36
-31.47
-35.5
-37.32
-36.03
-31.33
-23.65
-13.98
-3.66
6.05
14.23
20.34
24.24
25.97
25.77
23.95
20.95
17.38
13.94
11.24
9.67
9.28
9.81
10.73
11.51
11.78
11.39
10.37
8.83
6.81
4.36
1.6
-1.25
-3.85
-5.95
-7.49
-8.8
-10.39
-12.85
-16.56
-21.43
-26.93
-32.15
-36.01
-37.51
-35.96
-31.1
-23.29
-13.45
-2.84
7.15
15.39
21.22
24.51
25.5
24.67
22.55
19.61
16.34
13.19
10.62
8.97
8.38
8.7
9.54
10.48
11.12
11.27
10.87
9.95
8.53
6.6
4.2
1.41
-1.64
-4.79
-7.91
-10.93
-13.93
-17.07
-20.61
-24.73
-29.41
-34.2
-38.23
-40.38
-39.62
-35.44
-28.04
-18.35
-7.73
2.43
11.06
17.46
21.38
22.84
22.08
19.53
15.81
11.68
7.88
5.07
3.6
3.52
4.55
6.22
8.01
9.43
10.16
10.06
9.14
7.5
5.32
2.74
-0.05
-2.91
-5.71
-8.38
-10.95
-13.56
-16.46
-19.89
-24
-28.54
-32.86
-35.88
-36.46
-33.76
-27.58
-18.55
-7.91
2.8
12.21
19.4
23.98
26
25.79
23.8
20.59
16.78
13.05
10.01
8.06
7.31
7.49
8.17
8.84
9.16
9
8.4
7.49
6.37
5.04
3.41
1.39
-1.08
-3.97
-7.13
-10.46
-13.92
-17.66
-21.93
-26.89
-32.36
-37.73
-41.9
-43.66
-42.03
-36.71
-28.19
-17.65
-6.62
3.54
11.89
18.02
21.97
23.96
24.27
23.11
20.79
17.76
14.63
12.05
10.5
10.07
10.5
11.27
11.87
12.01
11.62
10.76
9.48
7.72
5.42
2.59
-0.56
-3.68
-6.45
-8.74
-10.73
-12.91
-15.87
-20.06
-25.51
-31.67
-37.45
-41.46
-42.39
-39.46
-32.67
-22.89
-11.55
-0.2
9.9
18
23.83
27.42
28.88
28.43
26.36
23.19
19.64
16.49
14.33
13.43
13.66
14.61
15.8
16.8
17.32
17.26
16.55
15.19
13.17
10.53
7.4
4.01
0.61
-2.58
-5.5
-8.29
-11.26
-14.74
-19
-24.02
-29.39
-34.3
-37.67
-38.38
-35.7
-29.51
-20.47
-9.81
0.97
10.6
18.3
23.8
27.19
28.68
28.45
26.68
23.74
20.21
16.8
14.19
12.7
12.31
12.61
13.09
13.37
13.28
12.82
12.05
10.96
9.44
7.43
4.97
2.25
-0.43
-2.83
-4.97
-7.11
-9.73
-13.3
-18.09
-23.92
-30.06
-35.36
-38.5
-38.41
-34.61
-27.42
-17.91
-7.53
2.28
10.44
16.43
20.15
21.81
21.74
20.25
17.69
14.51
11.24
8.44
6.58
5.81
6.02
6.83
7.76
8.44
8.67
8.34
7.48
6.1
4.19
1.8
-0.92
-3.76
-6.52
-9.14
-11.78
-14.81
-18.55
-23.14
-28.23
-33.05
-36.54
-37.62
-35.55
-30.13
-21.84
-11.67
-0.97
8.95
17.05
22.71
25.77
26.46
25.24
22.7
19.43
16.02
12.97
10.65
9.3
8.94
9.42
10.41
11.48
12.22
12.3
11.57
10.09
8.09
5.83
3.48
1
-1.74
-4.94
-8.69
-12.94
-17.67
-22.81
-28.36
-34.12
-39.53
-43.62
-45.16
-43.11
-37.12
-27.7
-16.16
-4.19
6.7
15.49
21.75
25.54
27.15
26.99
25.46
23.05
20.29
17.71
15.74
14.66
14.49
15.02
15.88
16.66
17.01
16.76
15.88
14.47
12.68
10.55
8.11
5.33
2.21
-1.13
-4.55
-7.96
-11.46
-15.34
-19.92
-25.3
-31.09
-36.31
-39.62
-39.79
-36.09
-28.73
-18.76
-7.7
2.93
12.02
18.98
23.66
26.11
26.55
25.28
22.77
19.65
16.59
14.13
12.58
12
12.23
13.04
14.12
15.18
15.91
15.98
15.23
13.63
11.3
8.52
5.58
2.71
0.05
-2.41
-4.85
-7.59
-11.04
-15.55
-21.15
-27.44
-33.48
-38
-39.73
-37.85
-32.22
-23.44
-12.69
-1.36
9.27
18.23
24.94
29.16
30.92
30.48
28.28
24.94
21.15
17.55
14.64
12.74
11.93
12.09
12.98
14.18
15.23
15.67
15.16
13.57
11.09
8.02
4.74
1.5
-1.66
-4.74
-7.8
-10.83
-13.9
-17.18
-20.99
-25.57
-30.74
-35.72
-39.16
-39.66
-36.25
-28.89
-18.56
-6.9
4.33
13.81
20.82
25.23
27.22
27.1
25.22
21.99
17.96
13.78
10.14
7.58
6.38
6.49
7.6
9.15
10.6
11.46
11.47
10.59
8.96
6.77
4.17
1.27
-1.86
-5.1
-8.29
-11.31
-14.21
-17.29
-20.98
-25.65
-31.15
-36.66
-40.8
-42.06
-39.4
-32.74
-22.95
-11.57
-0.2
9.91
18.06
24.01
27.66
28.95
27.91
24.79
20.21
15.09
10.47
7.14
5.44
5.22
5.99
7.13
8.09
8.52
8.24
7.21
5.5
3.27
0.75
-1.88
-4.48
-7.07
-9.76
-12.8
-16.47
-21
-26.43
-32.51
-38.55
-43.54
-46.26
-45.61
-41.06
-32.79
-21.79
-9.55
2.38
12.72
20.7
26.02
28.77
29.19
27.65
24.64
20.79
16.8
13.37
11.05
10.04
10.25
11.29
12.62
13.75
14.31
14.09
13.07
11.35
9.1
6.46
3.57
0.46
-2.87
-6.44
-10.27
-14.41
-18.94
-23.98
-29.55
-35.35
-40.59
-44.1
-44.6
-41.18
-33.73
-23
-10.45
2.21
13.48
22.39
28.49
31.8
32.63
31.41
28.69
25.07
21.17
17.58
14.76
12.97
12.27
12.5
13.32
14.27
14.86
14.73
13.69
11.77
9.16
6.11
2.88
-0.36
-3.53
-6.66
-9.87
-13.33
-17.26
-21.84
-27.12
-32.85
-38.37
-42.56
-44.19
-42.2
-36.2
-26.62
-14.69
-2.08
9.59
19.11
25.91
29.93
31.51
31.12
29.28
26.51
23.34
20.28
17.8
16.22
15.63
15.92
16.77
17.79
18.57
18.73
17.99
16.22
13.45
9.89
5.86
1.72
-2.23
-5.79
-8.93
-11.78
-14.65
-17.98
-22.23
-27.62
-33.79
-39.77
-44.01
-44.93
-41.5
-33.73
-22.69
-10.12
2.12
12.66
20.77
26.27
29.3
30.03
28.7
25.69
21.63
17.39
13.82
11.54
10.73
11.15
12.32
13.68
14.83
15.49
15.47
14.65
12.98
10.52
7.47
4.14
0.86
-2.13
-4.79
-7.26
-9.84
-12.88
-16.72
-21.54
-27.18
-32.99
-37.83
-40.35
-39.33
-34.17
-25.22
-13.71
-1.44
9.83
18.83
24.99
28.37
29.38
28.49
26.11
22.65
18.58
14.57
11.26
9.15
8.37
8.68
9.59
10.55
11.16
11.21
10.61
9.36
7.47
4.97
1.93
-1.48
-5.05
-8.56
-11.95
-15.28
-18.79
-22.8
-27.53
-32.87
-38.25
-42.62
-44.62
-43.04
-37.3
-27.75
-15.66
-2.85
8.88
18.29
24.91
28.86
30.58
30.45
28.74
25.73
21.9
17.96
14.73
12.82
12.39
13.1
14.31
15.33
15.77
15.49
14.6
13.17
11.2
8.63
5.45
1.77
-2.15
-6.04
-9.73
-13.2
-16.6
-20.19
-24.24
-28.86
-33.87
-38.65
-42.1
-42.91
-40.04
-33.1
-22.7
-10.27
2.38
13.68
22.64
28.96
32.74
34.24
33.69
31.35
27.67
23.31
19.07
15.71
13.67
12.97
13.31
14.2
15.1
15.59
15.45
14.64
13.21
11.25
8.82
5.99
2.8
-0.63
-4.16
-7.67
-11.15
-14.73
-18.66
-23.21
-28.42
-33.99
-39.11
-42.62
-43.3
-40.29
-33.44
-23.45
-11.69
0.22
10.81
19.18
25
28.4
29.7
29.29
27.51
24.75
21.5
18.32
15.73
14.11
13.57
13.95
14.9
15.96
16.67
16.69
15.76
13.84
11.03
7.57
3.77
-0.08
-3.75
-7.17
-10.35
-13.42
-16.6
-20.14
-24.29
-29.1
-34.32
-39.19
-42.56
-43.15
-39.98
-32.83
-22.38
-10.1
2.21
12.92
21.01
26.14
28.54
28.72
27.24
24.57
21.15
17.48
14.08
11.47
10.01
9.79
10.58
11.95
13.39
14.48
14.94
14.6
13.42
11.46
8.78
5.6
2.13
-1.38
-4.79
-8.07
-11.31
-14.76
-18.68
-23.27
-28.51
-33.99
-38.83
-41.86
-41.96
-38.4
-31.24
-21.31
-9.97
1.27
11.19
19.1
24.73
28.11
29.37
28.67
26.26
22.59
18.32
14.19
10.89
8.85
8.15
8.59
9.74
11.13
12.31
12.87
12.56
11.25
8.97
5.95
2.5
-1.05
-4.39
-7.3
-9.72
-11.72
-13.63
-15.95
-19.23
-23.75
-29.27
-34.85
-39.07
-40.41
-37.86
-31.28
-21.46
-9.88
1.86
12.35
20.74
26.61
29.88
30.69
29.33
26.27
22.21
17.98
14.38
11.99
10.95
11.04
11.76
12.54
13.02
13.02
12.55
11.65
10.32
8.48
6.1
3.22
0
-3.34
-6.66
-9.93
-13.21
-16.67
-20.48
-24.82
-29.74
-35.04
-40.06
-43.74
-44.84
-42.33
-35.82
-25.84
-13.75
-1.33
9.73
18.34
24.08
27.13
27.92
26.92
24.47
20.94
16.78
12.61
9.12
6.9
6.15
6.73
8.15
9.81
11.2
12
12.06
11.35
9.82
7.48
4.36
0.66
-3.33
-7.28
-10.91
-14.19
-17.29
-20.61
-24.55
-29.32
-34.68
-39.82
-43.51
-44.45
-41.67
-34.96
-24.93
-12.87
-0.44
10.86
19.86
25.99
29.14
29.59
27.83
24.45
20.13
15.49
11.14
7.59
5.22
4.18
4.38
5.51
7.1
8.63
9.65
9.89
9.25
7.77
5.6
2.88
-0.22
-3.57
-7.09
-10.73
-14.49
-18.47
-22.86
-27.82
-33.34
-39.02
-43.94
-46.84
-46.43
-41.89
-33.3
-21.65
-8.65
3.87
14.43
22.21
27
29.03
28.74
26.64
23.34
19.5
15.79
12.78
10.79
9.83
9.65
9.91
10.28
10.56
10.58
10.24
9.41
7.96
5.83
3.04
-0.25
-3.84
-7.46
-10.97
-14.3
-17.56
-21.08
-25.25
-30.39
-36.46
-42.82
-48.24
-51.15
-50.2
-44.74
-35.14
-22.73
-9.35
3.28
13.89
21.91
27.28
30.23
31.04
29.99
27.45
23.96
20.2
16.89
14.6
13.57
13.67
14.49
15.53
16.36
16.65
16.21
14.97
12.94
10.21
6.95
3.37
-0.29
-3.86
-7.27
-10.58
-13.98
-17.8
-22.39
-27.97
-34.35
-40.79
-45.96
-48.35
-46.72
-40.63
-30.68
-18.3
-5.32
6.65
16.59
24.14
29.28
32.14
32.82
31.42
28.31
24.18
19.94
16.52
14.48
13.94
14.58
15.84
17.18
18.16
18.52
18.14
16.94
14.95
12.27
9.09
5.62
2.1
-1.36
-4.71
-8.02
-11.47
-15.34
-19.95
-25.43
-31.54
-37.5
-42.06
-43.83
-41.72
-35.44
-25.62
-13.67
-1.28
10.08
19.49
26.6
31.36
33.9
34.33
32.93
30.16
26.73
23.44
20.91
19.43
18.94
19.14
19.65
20.19
20.52
20.42
19.65
18.01
15.41
11.99
8.07
4.03
0.23
-3.18
-6.2
-9.02
-11.92
-15.28
-19.46
-24.66
-30.72
-36.88
-41.83
-44.02
-42.19
-35.92
-25.84
-13.47
-0.72
10.75
19.87
26.26
30.01
31.44
30.85
28.61
25.12
20.99
16.94
13.67
11.65
11.02
11.53
12.71
14.02
15.02
15.43
15.11
14
12.09
9.42
6.17
2.62
-0.93
-4.24
-7.3
-10.31
-13.66
-17.79
-22.97
-29.07
-35.42
-40.8
-43.73
-42.92
-37.76
-28.64
-16.83
-4.14
7.75
17.69
25.16
30.13
32.76
33.2
31.63
28.47
24.33
20.02
16.29
13.63
12.16
11.76
12.15
13
13.96
14.68
14.74
13.82
11.77
8.69
4.9
0.82
-3.29
-7.33
-11.38
-15.62
-20.23
-25.36
-31.02
-36.99
-42.71
-47.25
-49.44
-48.17
-42.8
-33.51
-21.34
-7.89
5.1
16.29
24.92
30.76
33.88
34.51
32.91
29.56
25.2
20.76
17.15
14.99
14.4
15.01
16.13
17.07
17.4
16.98
15.91
14.39
12.52
10.32
7.79
4.89
1.66
-1.81
-5.42
-9.1
-12.94
-17.15
-22.01
-27.65
-33.86
-39.85
-44.37
-45.99
-43.57
-36.78
-26.28
-13.54
-0.39
11.54
21.18
28.14
32.48
34.46
34.39
32.58
29.47
25.66
21.87
18.8
16.89
16.25
16.63
17.58
18.59
19.23
19.21
18.4
16.74
14.29
11.18
7.61
3.8
-0.08
-3.92
-7.67
-11.33
-15.05
-19.01
-23.49
-28.67
-34.37
-39.9
-44.05
-45.39
-42.76
-35.84
-25.3
-12.69
0.14
11.56
20.54
26.76
30.28
31.41
30.42
27.68
23.7
19.18
14.96
11.77
10.05
9.84
10.79
12.33
13.82
14.74
14.71
13.6
11.46
8.54
5.18
1.72
-1.59
-4.61
-7.32
-9.85
-12.42
-15.39
-19.19
-24.14
-30.2
-36.81
-42.71
-46.29
-46.06
-41.2
-31.98
-19.71
-6.29
6.38
16.87
24.49
29.17
31.19
30.98
28.95
25.54
21.32
16.98
13.18
10.49
9.18
9.17
10.07
11.26
12.05
11.9
10.52
7.97
4.6
0.87
-2.8
-6.2
-9.33
-12.36
-15.52
-18.99
-22.93
-27.51
-32.81
-38.71
-44.61
-49.39
-51.63
-50.07
-44.11
-34.22
-21.72
-8.45
3.88
14.08
21.63
26.48
28.84
28.98
27.24
24.11
20.26
16.39
13.17
10.97
9.92
9.88
10.54
11.55
12.53
13.12
12.98
11.89
9.74
6.62
2.77
-1.44
-5.6
-9.44
-12.83
-15.98
-19.24
-23.1
-27.96
-33.87
-40.3
-46.19
-50.03
-50.42
-46.45
-38.09
-26.29
-12.71
0.76
12.52
21.58
27.62
30.84
31.65
30.53
27.96
24.5
20.79
17.47
15.08
13.89
13.84
14.57
15.54
16.23
16.25
15.45
13.82
11.52
8.74
5.66
2.43
-0.83
-4.04
-7.17
-10.27
-13.59
-17.5
-22.4
-28.43
-35.22
-41.73
-46.45
-47.87
-44.93
-37.56
-26.6
-13.65
-0.47
11.45
21.11
28.1
32.36
34.08
33.54
31.2
27.65
23.61
19.78
16.71
14.76
13.96
14.16
15.03
16.14
17.07
17.43
16.99
15.65
13.53
10.81
7.69
4.35
0.92
-2.54
-6.09
-9.87
-14.18
-19.34
-25.51
-32.45
-39.32
-44.83
-47.5
-46.21
-40.53
-30.99
-18.93
-6.03
6.14
16.44
24.28
29.5
32.2
32.59
31.05
28.07
24.37
20.7
17.76
15.95
15.34
15.69
16.58
17.56
18.24
18.34
17.7
16.26
14.07
11.28
8.1
4.73
1.33
-2.08
-5.57
-9.28
-13.39
-18.08
-23.44
-29.43
-35.68
-41.37
-45.28
-46.09
-42.76
-35.08
-23.79
-10.49
2.9
14.69
23.84
30.02
33.39
34.31
33.13
30.25
26.24
21.87
18
15.37
14.33
14.72
16.03
17.56
18.7
19.07
18.52
17.07
14.83
11.88
8.4
4.6
0.72
-3.03
-6.55
-9.92
-13.36
-17.24
-21.87
-27.35
-33.4
-39.28
-43.87
-45.93
-44.44
-38.96
-29.85
-18.19
-5.53
6.55
16.78
24.4
29.1
30.92
30.16
27.28
22.93
17.9
13
8.97
6.29
5.18
5.47
6.76
8.45
9.92
10.64
10.31
8.88
6.57
3.75
0.75
-2.21
-5.11
-8.06
-11.26
-14.94
-19.35
-24.64
-30.71
-37.03
-42.62
-46.09
-46.12
-41.88
-33.47
-21.88
-8.79
4.04
15.19
23.85
29.83
33.23
34.35
33.49
31.05
27.55
23.64
20
17.13
15.34
14.65
14.85
15.62
16.54
17.17
17.16
16.23
14.32
11.52
8.09
4.36
0.67
-2.83
-6.14
-9.47
-13.18
-17.66
-23.15
-29.6
-36.38
-42.41
-46.24
-46.48
-42.36
-33.99
-22.44
-9.42
3.33
14.39
23
28.9
32.2
33.17
32.18
29.74
26.55
23.35
20.78
19.18
18.62
18.88
19.58
20.35
20.82
20.72
19.9
18.37
16.23
13.67
10.77
7.54
3.94
-0.04
-4.32
-8.75
-13.29
-18.07
-23.29
-29.15
-35.45
-41.44
-45.88
-47.39
-44.91
-38.18
-27.87
-15.41
-2.57
9.03
18.33
24.83
28.57
29.89
29.22
27.08
23.99
20.59
17.43
15.01
13.6
13.27
13.85
15.02
16.4
17.52
17.98
17.49
15.94
13.43
10.24
6.68
3.01
-0.63
-4.24
-7.93
-11.82
-16.13
-21.07
-26.71
-32.84
-38.76
-43.32
-45.23
-43.46
-37.62
-28.23
-16.5
-4.04
7.6
17.28
24.38
28.71
30.41
29.79
27.34
23.63
19.36
15.25
11.9
9.76
8.98
9.46
10.8
12.47
13.84
14.43
13.9
12.28
9.77
6.73
3.45
0.06
-3.48
-7.3
-11.49
-16.06
-21.04
-26.44
-32.25
-38.23
-43.7
-47.56
-48.52
-45.56
-38.42
-27.81
-15.18
-2.32
9.23
18.49
25.07
28.97
30.43
29.76
27.4
23.92
20
16.33
13.47
11.73
11.16
11.52
12.38
13.27
13.75
13.5
12.36
10.32
7.54
4.27
0.79
-2.68
-6.06
-9.4
-12.94
-16.97
-21.78
-27.45
-33.81
-40.22
-45.7
-49.02
-49.03
-45.02
-36.98
-25.74
-12.7
0.46
12.29
21.8
28.58
32.62
34.13
33.45
30.93
27.1
22.59
18.18
14.55
12.17
11.17
11.31
12.08
12.92
13.39
13.22
12.33
10.73
8.5
5.74
2.59
-0.81
-4.33
-7.88
-11.49
-15.32
-19.66
-24.82
-30.91
-37.69
-44.28
-49.33
-51.26
-48.82
-41.66
-30.55
-17.22
-3.73
8.15
17.46
24.01
28.16
30.29
30.65
29.38
26.72
23.21
19.65
16.82
15.22
14.85
15.3
15.98
16.4
16.26
15.55
14.31
12.59
10.39
7.69
4.54
1.09
-2.47
-6
-9.46
-12.99
-16.83
-21.23
-26.33
-31.96
-37.51
-41.99
-44.19
-43.08
-38.12
-29.54
-18.34
-6.01
5.88
16.04
23.68
28.52
30.7
30.58
28.64
25.43
21.54
17.63
14.32
12.07
11.1
11.3
12.24
13.42
14.32
14.61
14.15
12.88
10.87
8.21
5.07
1.69
-1.61
-4.6
-7.16
-9.43
-11.79
-14.75
-18.78
-24.01
-30.08
-36.04
-40.51
-42.03
-39.54
-32.8
-22.5
-10.12
2.57
13.96
22.97
29.12
32.42
33.15
31.69
28.53
24.27
19.61
15.35
12.08
10.14
9.51
9.85
10.71
11.64
12.34
12.61
12.35
11.46
9.89
7.67
4.93
1.91
-1.15
-4.08
-6.88
-9.66
-12.64
-16.14
-20.41
-25.57
-31.38
-37.13
-41.65
-43.57
-41.74
-35.75
-26.13
-14.28
-1.98
9.12
17.96
24.13
27.72
29
28.23
25.61
21.5
16.51
11.51
7.44
4.98
4.28
5.01
6.44
7.79
8.48
8.24
7.07
5.18
2.82
0.25
-2.33
-4.82
-7.26
-9.82
-12.82
-16.59
-21.38
-27.23
-33.85
-40.45
-45.89
-48.84
-48.16
-43.26
-34.43
-22.73
-9.79
2.69
13.31
21.29
26.46
29.03
29.39
27.94
25.02
21.03
16.49
12.04
8.39
6.09
5.35
5.93
7.22
8.49
9.03
8.48
6.81
4.28
1.24
-2.01
-5.31
-8.64
-12.02
-15.52
-19.25
-23.38
-28.15
-33.71
-39.88
-45.93
-50.6
-52.45
-50.29
-43.71
-33.27
-20.36
-6.8
5.74
16.09
23.7
28.55
30.84
30.92
29.2
26.17
22.44
18.7
15.63
13.72
13.08
13.53
14.56
15.59
16.12
15.83
14.6
12.49
9.67
6.37
2.81
-0.84
-4.49
-8.06
-11.62
-15.3
-19.37
-24.14
-29.8
-36.18
-42.57
-47.7
-50.12
-48.55
-42.5
-32.43
-19.69
-6.06
6.72
17.38
25.29
30.31
32.7
32.88
31.34
28.61
25.29
21.92
19.07
17.16
16.42
16.78
17.88
19.15
19.91
19.65
18.14
15.53
12.17
8.52
4.87
1.36
-2.1
-5.62
-9.33
-13.37
-17.93
-23.18
-29.16
-35.56
-41.56
-45.93
-47.33
-44.78
-38.07
-27.86
-15.48
-2.6
9.29
19.08
26.25
30.69
32.63
32.48
30.74
27.91
24.53
21.14
18.3
16.48
15.96
16.7
18.31
20.11
21.4
21.65
20.71
18.77
16.17
13.23
10.09
6.73
3.1
-0.8
-4.84
-9
-13.37
-18.28
-24.03
-30.56
-37.2
-42.62
-45.17
-43.46
-37.01
-26.42
-13.25
0.52
13.07
23.18
30.27
34.29
35.53
34.42
31.52
27.53
23.26
19.47
16.77
15.43
