42.98
35.89
27.81
20.02
13.48
8.55
5.19
3.15
2.13
1.83
1.8
1.54
0.54
-1.43
-4.3
-7.76
-11.54
-15.57
-19.97
-24.77
-29.54
-33.16
-34.1
-30.93
-22.99
-10.83
3.95
19.15
32.73
43.41
50.84
55.33
57.45
57.71
56.46
53.97
50.65
47
43.59
40.78
38.61
36.8
34.93
32.59
29.53
25.71
21.24
16.26
10.86
5.04
-1.25
-8.04
-15.31
-22.87
-30.47
-37.84
-44.9
-51.8
-58.86
-66.31
-74.03
-81.36
-87.13
-89.98
-88.84
-83.22
-73.5
-60.77
-46.53
-32.36
-19.56
-9.07
-1.39
3.35
5.34
5.02
2.92
-0.3
-4.01
-7.61
-10.61
-12.65
-13.6
-13.5
-12.65
-11.46
-10.37
-9.74
-9.76
-10.49
-11.81
-13.59
-15.64
-17.87
-20.22
-22.66
-25.23
-27.98
-31.06
-34.71
-39.15
-44.35
-49.8
-54.45
-56.85
-55.65
-50.05
-40.15
-26.93
-11.92
3.23
17.22
29.12
38.46
44.98
48.65
49.63
48.34
45.37
41.42
37.18
33.15
29.71
27.03
25.18
24.15
23.83
24.02
24.31
24.15
22.93
20.15
15.62
9.55
2.5
-4.82
-11.79
-18.02
-23.46
-28.37
-33.16
-38.28
-43.9
-49.87
-55.41
-59.28
-60
-56.42
-48.16
-35.88
-21.18
-6.12
7.32
17.71
24.42
27.65
28.2
27.22
25.84
24.92
24.94
26.06
28.19
31.25
35.01
39.06
42.7
45
45.08
42.57
37.76
31.49
24.61
17.59
10.4
2.78
-5.33
-13.53
-21.05
-27.25
-31.89
-35.29
-37.89
-39.81
-40.57
-39.29
-35.21
-28.27
-19.25
-9.59
-0.73
6.29
11.07
13.75
14.64
13.99
11.89
8.32
3.4
-2.53
-8.83
-14.77
-19.61
-22.95
-24.72
-25.24
-25.11
-24.94
-25.2
-26.08
-27.46
-29.08
-30.7
-32.2
-33.66
-35.2
-36.94
-38.92
-41.22
-44.05
-47.66
-52.17
-57.27
-62.04
-65.12
-65.09
-61.04
-52.89
-41.49
-28.21
-14.58
-1.82
9.24
18.13
24.62
28.6
30.14
29.55
27.41
24.58
21.94
20.23
19.81
20.65
22.34
24.33
26.07
27.18
27.46
26.88
25.47
23.33
20.62
17.61
14.55
11.64
8.88
6.07
2.86
-1.05
-5.7
-10.76
-15.49
-18.89
-19.96
-18.04
-12.99
-5.34
3.87
13.38
22.09
29.3
34.77
38.57
40.75
41.29
40.05
37
32.44
27.08
21.85
17.62
14.87
13.58
13.3
13.38
13.2
12.27
10.31
7.22
3.14
-1.55
-6.38
-10.97
-15.31
-19.83
-25.23
-32.27
-41.36
-52.24
-64
-75.17
-84.06
-89.13
-89.31
-84.22
-74.25
-60.37
-43.9
-26.19
-8.53
7.96
22.16
33.04
39.79
42.06
40.23
35.39
29.14
23.24
19.25
18.14
20.13
24.63
30.3
35.27
37.6
35.84
29.57
19.6
7.7
-4.03
-14.02
-21.67
-27.48
-32.55
-37.95
-43.98
-49.88
-54
-54.32
-49.24
-38.14
-21.71
-1.76
19.35
39.39
56.83
70.93
81.54
88.66
92.18
92.01
88.24
81.48
72.83
63.58
54.75
46.82
39.73
33.14
26.76
20.49
14.39
8.52
2.79
-2.95
-8.83
-14.83
-20.81
-26.63
-32.28
-37.91
-43.68
-49.53
-55.06
-59.5
-61.79
-60.91
-56.1
-47.14
-34.51
-19.28
-2.95
12.94
27.05
38.57
47.2
53.05
56.41
57.64
57.07
55.05
52.01
48.51
45.1
42.24
40.21
38.97
38.2
37.4
36.05
33.84
30.77
27.1
23.25
19.51
15.96
12.41
8.59
4.21
-0.87
-6.7
-13.3
-20.6
-28.29
-35.58
-41.24
-43.77
-41.97
-35.39
-24.66
-11.32
2.66
15.51
26.04
33.74
38.59
40.74
40.45
38.05
34.11
29.45
25.03
21.72
20.03
19.94
20.95
22.31
23.3
23.42
22.55
20.85
18.64
16.26
13.82
11.25
8.3
4.64
0.02
-5.64
-12.31
-19.77
-27.59
-34.96
-40.75
-43.68
-42.68
-37.31
-28.01
-16.06
-3.15
9.03
19.29
27.02
32.11
34.66
34.86
32.93
29.23
24.34
19.07
14.22
10.39
7.83
6.42
5.71
5.2
4.45
3.18
1.29
-1.22
-4.26
-7.79
-11.71
-15.92
-20.3
-24.78
-29.36
-34.16
-39.32
-44.84
-50.38
-55.14
-57.96
-57.6
-53.25
-44.82
-33.11
-19.6
-5.98
6.33
16.45
24.05
29.16
31.99
32.74
31.7
29.29
26.1
22.81
20.01
18.02
16.82
16.08
15.35
14.22
12.45
10.13
7.49
4.87
2.5
0.37
-1.75
-4.29
-7.72
-12.46
-18.67
-26.2
-34.42
-42.25
-48.29
-51.11
-49.67
-43.66
-33.75
-21.34
-8.18
4.14
14.57
22.65
28.34
31.77
33.06
32.36
29.95
26.31
22.12
18.11
14.86
12.71
11.67
11.54
11.89
12.26
12.18
11.29
9.42
6.64
3.17
-0.69
-4.77
-9.11
-13.83
-19.13
-25.12
-31.65
-38.28
-44.22
-48.44
-49.85
-47.61
-41.39
-31.63
-19.44
-6.34
6.17
16.97
25.51
31.67
35.56
37.28
36.87
34.47
30.49
25.64
20.83
16.9
14.37
13.24
13.03
13.06
12.68
11.52
9.58
7.07
4.26
1.32
-1.81
-5.28
-9.3
-13.96
-19.31
-25.33
-32
-39.07
-45.94
-51.53
-54.46
-53.52
-48.11
-38.54
-26.04
-12.26
1.21
13.23
23.21
30.98
36.47
39.6
40.35
38.82
35.44
30.98
26.36
22.45
19.83
18.62
18.49
18.8
18.92
18.44
17.27
15.59
13.65
11.6
9.36
6.74
3.53
-0.37
-5.01
-10.4
-16.56
-23.39
-30.52
-37.15
-42.12
-44.23
-42.6
-37.13
-28.45
-17.82
-6.65
3.86
12.91
20.08
25.16
28.03
28.62
27.04
23.65
19.08
14.2
9.85
6.72
5.14
5.05
6.02
7.41
8.55
8.9
8.28
6.77
4.66
2.3
-0.04
-2.24
-4.39
-6.68
-9.41
-12.88
-17.25
-22.38
-27.63
-31.97
-34.13
-33.05
-28.21
-19.94
-9.28
2.21
12.97
21.78
27.95
31.34
32.21
30.97
28.09
24.11
19.62
15.22
11.53
8.97
7.7
7.53
7.96
8.41
8.42
7.75
6.41
4.6
2.54
0.36
-1.92
-4.47
-7.43
-10.92
-14.94
-19.42
-24.2
-29.15
-33.95
-38.08
-40.69
-40.79
-37.56
-30.71
-20.7
-8.7
3.72
15.09
24.39
31.14
35.24
36.8
35.91
32.69
27.46
20.9
13.99
7.84
3.34
0.88
0.29
0.98
2.21
3.38
4.09
4.15
3.45
1.91
-0.45
-3.48
-6.89
-10.32
-13.56
-16.69
-20.11
-24.32
-29.61
-35.68
-41.51
-45.51
-46.12
-42.36
-34.33
-23.26
-11
0.54
10.09
17.15
21.9
24.68
25.76
25.14
22.81
18.99
14.27
9.52
5.66
3.31
2.66
3.41
4.95
6.62
7.82
8.21
7.63
6.14
3.84
0.88
-2.58
-6.44
-10.58
-14.92
-19.42
-24.13
-29.11
-34.3
-39.3
-43.38
-45.47
-44.56
-40.04
-32.03
-21.4
-9.53
2.07
12.16
19.92
24.97
27.17
26.54
23.27
17.83
11.04
4.03
-1.94
-5.93
-7.49
-6.82
-4.59
-1.73
0.94
2.88
3.85
3.88
3.13
1.73
-0.24
-2.82
-6.09
-10.13
-14.98
-20.66
-27.12
-34.18
-41.36
-47.76
-52.12
-53.15
-49.94
-42.47
-31.62
-19.05
-6.59
4.28
12.74
18.64
22.14
23.53
23
20.78
17.23
12.95
8.66
5.11
2.81
1.99
2.56
4.13
6.15
8.02
9.25
9.56
8.93
7.51
5.57
3.35
0.92
-1.74
-4.79
-8.5
-13.17
-19.02
-25.94
-33.25
-39.64
-43.34
-42.77
-37.11
-26.75
-13.29
1.07
14.28
24.99
32.72
37.61
40.02
40.22
38.42
34.9
30.2
25.17
20.74
17.65
16.15
16.07
16.79
17.58
17.78
17.03
15.23
12.58
9.39
5.9
2.29
-1.4
-5.23
-9.3
-13.79
-18.95
-25.04
-32.15
-39.99
-47.63
-53.57
-56.09
-53.85
-46.42
-34.56
-20.04
-5.02
8.56
19.45
27.17
31.76
33.5
32.68
29.6
24.73
18.88
13.17
8.81
6.68
7.04
9.38
12.6
15.48
17.08
17.08
15.71
13.52
11.04
8.49
5.83
2.86
-0.55
-4.44
-8.82
-13.75
-19.38
-25.67
-32.18
-37.87
-41.28
-41.02
-36.34
-27.53
-15.85
-3.09
9.02
19.24
26.96
32.03
34.46
34.29
31.69
27.1
21.36
15.62
11.06
8.47
8.1
9.44
11.6
13.46
14.2
13.38
11.12
7.88
4.19
0.51
-3.05
-6.64
-10.63
-15.45
-21.46
-28.72
-36.88
-45.07
-51.92
-55.88
-55.62
-50.57
-41.16
-28.67
-14.92
-1.58
10.13
19.6
26.66
31.35
33.73
33.92
32.21
29.19
25.67
22.48
20.23
19.1
18.89
19.12
19.19
18.71
17.49
15.62
13.32
10.86
8.33
5.69
2.71
-0.82
-5.05
-10.02
-15.69
-21.96
-28.68
-35.44
-41.49
-45.77
-47.13
-44.7
-38.34
-28.76
-17.29
-5.44
5.54
14.99
22.71
28.72
33
35.38
35.74
34.15
31.07
27.31
23.71
20.99
19.46
19.05
19.39
20.01
20.44
20.4
19.74
18.47
16.62
14.22
11.32
7.93
4.09
-0.19
-4.97
-10.29
-16.18
-22.39
-28.27
-32.75
-34.59
-32.74
-26.9
-17.69
-6.54
4.76
14.62
22.1
27.01
29.68
30.6
30.15
28.52
25.91
22.64
19.27
16.5
14.86
14.58
15.4
16.7
17.73
17.88
16.85
14.72
11.82
8.55
5.21
1.88
-1.56
-5.32
-9.56
-14.4
-19.81
-25.67
-31.71
-37.44
-42.11
-44.75
-44.45
-40.7
-33.68
-24.26
-13.82
-3.8
4.72
11.24
15.73
18.45
19.62
19.42
18.03
15.78
13.21
10.99
9.71
9.71
10.92
12.95
15.22
17.11
18.16
18.09
16.9
14.76
12
9.01
6.16
3.76
1.96
0.69
-0.34
-1.62
-3.7
-6.88
-11.03
-15.43
-18.9
-20.26
-18.71
-14.15
-7.23
0.97
9.31
16.91
23.22
28.03
31.17
32.59
32.29
30.45
27.55
24.18
21
18.48
16.84
15.99
15.63
15.41
14.99
14.2
12.98
11.39
9.49
7.39
5.12
2.75
0.34
-2.06
-4.38
-6.67
-9.08
-11.84
-15.16
-19.05
-23.12
-26.56
-28.37
-27.59
-23.75
-17.05
-8.44
0.79
9.31
16.22
21.17
24.28
25.8
25.96
24.82
22.42
18.99
15
11.09
7.88
5.69
4.43
3.71
2.98
1.82
0.04
-2.37
-5.28
-8.56
-12.15
-15.96
-19.87
-23.72
-27.3
-30.51
-33.34
-35.96
-38.6
-41.46
-44.47
-47.2
-48.9
-48.6
-45.49
-39.22
-30.1
-19.07
-7.45
3.46
12.69
19.76
24.67
27.66
29
28.9
27.54
25.2
22.34
19.58
17.54
16.58
16.64
17.27
17.79
17.65
16.56
14.64
12.22
9.61
6.99
4.29
1.31
-2.08
-5.87
-9.95
-14.17
-18.47
-22.93
-27.48
-31.83
-35.31
-36.96
-35.88
-31.6
-24.32
-14.94
-4.77
4.87
12.98
19.06
23.04
25.1
25.51
24.58
22.65
20.16
17.61
15.49
14.15
13.69
13.97
14.64
15.31
15.6
15.25
14.13
12.19
9.57
6.45
3.12
-0.14
-3.12
-5.75
-8.14
-10.54
-13.33
-16.87
-21.36
-26.7
-32.29
-37.07
-39.8
-39.4
-35.42
-28.29
-19.13
-9.43
-0.5
6.85
12.38
16.22
18.58
19.56
19.21
17.65
15.26
12.62
10.42
9.15
8.93
9.48
10.29
10.84
10.79
10
8.54
6.52
4.03
1.12
-2.14
-5.62
-9.09
-12.33
-15.19
-17.71
-20.17
-22.95
-26.49
-31.01
-36.34
-41.87
-46.49
-48.95
-48.19
-43.76
-35.98
-25.92
-14.99
-4.57
4.33
11.23
15.98
18.62
19.29
18.2
15.74
12.45
8.97
5.82
3.35
1.69
0.84
0.75
1.32
2.35
3.58
4.65
5.14
4.83
3.61
1.64
-0.78
-3.33
-5.72
-7.78
-9.54
-11.26
-13.35
-16.24
-20.21
-25.14
-30.45
-35.12
-37.89
-37.62
-33.65
-26.09
-15.83
-4.36
6.67
15.92
22.62
26.69
28.47
28.48
27.16
24.79
21.65
18.11
14.73
12.16
10.9
11.07
12.35
14.02
15.31
15.6
14.68
12.7
10.04
7.04
3.89
0.59
-2.93
-6.74
-10.78
-14.99
-19.38
-24.03
-29.11
-34.59
-40.06
-44.62
-47.1
-46.3
-41.52
-32.84
-21.17
-8.09
4.7
15.8
24.43
30.37
33.85
35.24
34.87
33.07
30.23
26.92
23.78
21.36
19.97
19.59
19.93
20.58
21.18
21.43
21.1
20.01
18.07
15.36
12.1
8.67
5.43
2.5
-0.3
-3.37
-7.2
-12.19
-18.46
-25.8
-33.69
-41.2
-47.14
-50.2
-49.32
-44.04
-34.8
-22.87
-9.96
2.22
12.47
20.3
25.77
29.23
31.08
31.63
31.13
29.88
28.27
26.64
25.28
24.27
23.51
22.77
21.87
20.63
19.03
17.06
14.73
12.01
8.88
5.34
1.46
-2.57
-6.55
-10.28
-13.77
-17.21
-21.01
-25.67
-31.55
-38.54
-45.88
-52.2
-55.88
-55.54
-50.62
-41.6
-29.84
-17.14
-5.13
5.12
13.17
19.05
22.93
24.93
25.19
23.94
21.65
19.03
16.82
15.54
15.36
16.05
17.19
18.36
19.27
19.73
19.6
18.71
16.87
14
10.28
6.13
2.1
-1.44
-4.4
-7.01
-9.65
-12.74
-16.54
-21.17
-26.53
-32.25
-37.61
-41.55
-42.88
-40.7
-34.71
-25.5
-14.39
-3
7.2
15.24
20.82
24.07
25.37
25.1
23.54
20.96
17.59
13.81
10.07
6.84
4.47
3.07
2.5
2.39
2.39
2.18
1.61
0.63
-0.74
-2.46
-4.5
-6.81
-9.3
-11.94
-14.71
-17.63
-20.74
-24.12
-27.89
-32.22
-37.17
-42.58
-47.72
-51.43
-52.25
-49
-41.31
-29.85
-16.2
-2.31
10.14
20.08
27.16
31.52
33.52
33.52
31.96
29.37
26.46
23.99
22.53
22.34
23.33
25.16
27.42
29.73
31.82
33.4
34.16
33.79
32.11
29.1
25.04
20.36
15.55
10.99
6.81
3
-0.64
-4.37
-8.46
-13.13
-18.46
-24.3
-30.1
-34.94
-37.64
-37.11
-32.7
-24.57
-13.73
-1.79
9.48
18.66
25
28.47
29.55
28.82
26.86
24.07
20.79
17.46
14.56
12.53
11.6
11.65
12.28
13.03
13.59
13.85
13.81
13.41
12.43
10.62
7.83
4.17
0.05
-4.03
-7.62
-10.52
-12.77
-14.65
-16.56
-18.91
-21.92
-25.47
-28.93
-31.21
-31.13
-27.81
-21.11
-11.74
-1.04
9.47
18.55
25.38
29.62
31.15
30.04
26.5
21
14.35
7.57
1.75
-2.35
-4.43
-4.69
-3.74
-2.27
-0.88
-0
0.1
-0.69
-2.48
-5.22
-8.72
-12.6
-16.42
-19.85
-22.79
-25.43
-28.15
-31.32
-35.14
-39.56
-44.21
-48.37
-51.08
-51.25
-47.99
-40.92
-30.41
-17.64
-4.31
7.87
17.64
24.42
28.36
29.99
29.94
28.72
26.68
24.08
21.25
18.56
16.36
14.9
14.23
14.17
14.38
14.44
13.95
12.6
10.19
6.74
2.41
-2.46
-7.46
-12.21
-16.5
-20.36
-24.08
-28.12
-32.94
-38.79
-45.52
-52.44
-58.37
-61.9
-61.76
-57.2
-48.24
-35.74
-21.26
-6.61
6.63
17.36
25.17
30.24
33.03
34.1
33.94
32.89
31.3
29.63
28.38
28.06
28.96
30.97
33.56
35.92
37.3
37.19
35.53
32.6
28.8
24.48
19.75
14.58
8.87
2.64
-3.93
-10.63
-17.4
-24.4
-31.94
-40.1
-48.41
-55.7
-60.33
-60.69
-55.91
-46.22
-32.95
-18.12
-3.74
8.72
18.56
25.77
30.68
33.71
35.27
35.77
35.69
35.5
35.58
36.07
36.85
37.67
38.36
38.9
39.45
40.16
40.91
41.29
40.69
38.54
34.5
28.61
21.11
12.47
3.2
-6.14
-15.04
-23.18
-30.59
-37.66
-44.86
-52.37
-59.59
-65.2
-67.47
-65
-57.37
-45.38
-30.76
-15.58
-1.58
10.19
19.3
25.79
29.84
31.69
31.61
29.96
27.27
24.15
21.21
19
17.83
17.77
18.53
19.63
20.44
20.47
19.42
17.22
13.99
9.87
4.98
-0.55
-6.54
-12.7
-18.67
-24.21
-29.35
-34.42
-39.96
-46.39
-53.64
-60.93
-66.79
-69.51
-67.76
-61.16
-50.42
-37.11
-23.07
-9.77
1.92
11.81
19.94
26.37
31.01
33.75
34.74
34.45
33.61
32.95
32.9
33.5
34.45
35.29
35.74
35.67
35.16
34.32
33.08
31.24
28.46
24.54
19.54
13.84
8
2.64
-1.85
-5.38
-8.19
-10.82
-13.87
-17.87
-22.92
-28.6
-33.83
-37.12
-37.11
-33.02
-25.05
-14.34
-2.51
8.84
18.61
26.26
31.71
34.96
36.08
35.17
32.55
28.89
25.05
21.91
20
19.39
19.75
20.52
21.17
21.29
20.63
19.04
16.46
12.88
8.44
3.35
-2.03
-7.32
-12.2
-16.51
-20.24
-23.58
-26.84
-30.33
-34.24
-38.4
-42.22
-44.71
-44.7
-41.26
-34.03
-23.49
-10.85
2.28
14.36
24.33
31.7
36.47
38.88
39.15
37.45
33.99
29.14
23.51
17.85
12.85
8.93
6.14
4.25
2.9
1.75
0.6
-0.69
-2.23
-4.2
-6.77
-10.01
-13.82
-17.84
-21.61
-24.69
-26.94
-28.57
-30.17
-32.5
-36.14
-41.24
-47.24
-53
-56.99
-57.83
-54.64
-47.42
-37.01
-24.83
-12.49
-1.25
8.13
15.43
20.75
24.26
26.07
26.26
25.05
22.86
20.33
18.08
16.46
15.45
14.68
13.72
12.32
10.53
8.56
6.64
4.75
2.67
0.1
-3.16
-7
-11.11
-15.1
-18.73
-21.96
-24.98
-28.12
-31.68
-35.89
-40.72
-45.83
-50.44
-53.39
-53.48
-49.77
-42.1
-31.13
-18.25
-5.09
6.91
16.9
24.62
30.18
33.84
35.78
36.2
35.31
33.48
31.15
28.76
26.66
24.97
23.72
22.8
22.08
21.42
20.63
19.52
17.83
15.43
12.31
8.7
4.99
1.55
-1.38
-3.78
-5.89
-8.06
-10.68
-14.09
-18.48
-23.82
-29.67
-35.13
-38.89
-39.6
-36.29
-28.79
-17.86
-4.97
8.16
20.1
29.89
37.12
41.76
43.98
44.1
42.57
39.98
37.01
34.27
32.23
31.09
30.79
31.07
31.54
31.8
31.6
30.81
29.46
27.62
25.29
22.42
18.9
14.71
9.99
5.09
0.4
-3.77
-7.38
-10.71
-14.29
-18.61
-23.98
-30.26
-36.76
-42.37
-45.78
-45.84
-41.97
-34.34
-23.88
-11.95
0
10.78
19.63
26.16
30.26
31.96
31.5
29.32
26.14
22.85
20.29
19.03
19.16
20.37
22.06
23.71
24.96
25.77
26.22
26.31
25.85
24.5
21.89
17.83
12.49
6.35
0.02
-5.85
-10.91
-15.05
-18.52
-21.8
-25.49
-30.1
-35.82
-42.27
-48.46
-52.93
-54.23
-51.38
-44.25
-33.67
-21.13
-8.32
3.3
12.75
19.52
23.49
24.79
23.77
21.01
17.39
13.88
11.4
10.54
11.33
13.38
15.99
18.47
20.36
21.52
21.99
21.89
21.21
19.8
17.48
14.11
9.8
4.82
-0.45
-5.68
-10.66
-15.36
-19.87
-24.38
-29.18
-34.49
-40.35
-46.36
-51.58
-54.64
-54.14
-49.21
-39.94
-27.5
-13.74
-0.66
10.21
18.04
22.73
24.59
24.05
21.59
17.68
12.91
7.97
3.56
0.27
-1.59
-1.99
-1.2
0.37
2.24
3.94
5.1
5.4
4.61
2.62
-0.55
-4.71
-9.51
-14.54
-19.44
-23.99
-28.2
-32.23
-36.45
-41.31
-47.18
-54
-61.1
-67.12
-70.23
-68.69
-61.58
-49.23
-33.3
-16.2
-0.33
12.66
22.13
28.27
31.61
32.64
31.59
28.7
24.46
19.66
15.3
12.21
10.75
10.77
11.75
13.08
14.27
14.97
14.9
13.74
11.23
7.25
1.96
-4.18
-10.58
-16.74
-22.41
-27.58
-32.5
-37.56
-43.24
-49.95
-57.77
-66.14
-73.69
-78.51
-78.61
-72.74
-60.83
-44.14
-24.83
-5.3
12.55
27.55
39.25
47.73
53.21
56.06
56.74
55.88
54.25
52.63
51.63
51.54
52.27
53.44
54.55
55.11
54.71
53.13
50.17
45.7
39.64
31.98
22.89
12.78
2.21
-8.21
-17.97
-26.87
-35.08
-43.1
-51.64
-61.32
-72.25
-83.76
-94.23
-101.47
-103.28
-98.26
-86.29
-68.75
-47.99
-26.65
-6.93
9.82
23.09
32.94
39.66
43.61
45.21
45
43.66
41.93
40.45
39.59
39.38
39.53
39.61
39.17
37.98
35.97
33.21
29.77
25.6
20.63
14.75
8.04
0.79
-6.49
-13.23
-19.08
-24.04
-28.69
-34
-40.88
-49.71
-59.8
-69.37
-75.86
-76.88
-71
-58.32
-40.52
-20.19
-0.11
17.63
31.82
42.2
49.01
52.74
53.86
52.9
50.5
47.42
44.49
42.3
41.14
40.82
40.88
40.73
40.04
38.71
36.88
34.73
32.24
29.24
25.43
20.62
14.8
8.25
1.37
-5.44
-11.99
-18.39
-25.1
-32.73
-41.8
-52.33
-63.49
-73.57
-80.34
-81.67
-76.33
-64.39
-47.36
-27.63
-7.77
10.16
24.95
36.14
43.79
48.15
49.59
48.59
45.93
42.55
39.44
37.36
36.64
37.15
38.44
39.93
41.16
41.79
41.59
40.34
37.9
34.18
29.23
23.34
16.91
10.42
4.22
-1.49
-6.81
-12.05
-17.71
-24.28
-32.02
-40.6
-49.02
-55.58
-58.31
-55.58
-46.7
-32.26
-14.04
5.47
23.84
39.29
50.92
58.69
63
64.37
63.3
60.24
55.76
50.58
45.55
41.41
38.65
37.37
37.32
38
38.83
39.27
38.91
37.48
34.8
30.78
25.41
18.79
11.1
2.68
-6.03
-14.56
-22.52
-29.79
-36.62
-43.48
-50.8
-58.5
-65.71
-70.75
-71.64
-66.8
-55.82
-39.71
-20.66
-1.28
16.21
30.45
40.99
47.92
51.52
52.05
49.86
45.58
40.29
35.28
31.69
30.07
30.28
31.6
33.12
34.17
34.4
33.79
32.36
30.08
26.81
22.48
17.22
11.42
5.64
0.3
-4.41
-8.61
-12.68
-17.08
-22.24
-28.49
-35.9
-44.04
-51.86
-57.74
-59.85
-56.72
-47.95
-34.42
-18.1
-1.43
13.44
25.19
33.38
38.18
39.94
39.04
35.85
30.98
25.39
20.22
16.49
14.75
14.92
16.4
18.43
20.34
21.76
22.56
22.66
21.95
20.22
17.34
13.32
8.39
2.92
-2.66
-8
-12.96
-17.56
-22.13
-27.16
-33.15
-40.3
-48.17
-55.52
-60.54
-61.37
-56.78
-46.82
-32.82
-17.01
-1.77
11.07
20.61
26.73
29.77
30.1
28.02
23.88
18.26
12.14
6.7
2.98
1.56
2.33
4.58
7.27
9.36
10.14
9.25
6.74
2.92
-1.76
-6.9
-12.17
-17.4
-22.55
-27.69
-33
-38.68
-45.01
-52.14
-59.86
-67.43
-73.52
-76.56
-75.16
-68.76
-57.83
-43.83
-28.65
-14.04
-1.19
9.44
17.79
23.93
27.82
29.34
28.46
25.42
20.88
15.81
11.23
7.95
6.34
6.28
7.2
8.32
8.89
8.36
6.47
3.26
-1.07
-6.15
-11.65
-17.19
-22.48
-27.27
-31.5
-35.34
-39.23
-43.76
-49.43
-56.18
-63.15
-68.68
-70.75
-67.75
-59.1
-45.65
-29.26
-12.21
3.56
16.91
27.46
35.34
40.78
44.03
45.29
44.9
43.39
41.36
39.39
37.8
36.72
36.07
35.71
35.51
35.3
34.9
34.03
32.38
29.69
25.89
21.16
15.84
10.39
5.08
0.04
-4.87
-9.91
-15.45
-21.84
-29.2
-37.31
-45.33
-51.88
-55.29
-54.17
-47.93
-37.05
-23.06
-7.94
6.45
18.84
28.67
35.87
40.6
43.01
43.32
41.89
39.3
36.26
33.4
31.06
29.31
27.99
26.9
25.88
24.83
23.59
21.95
19.66
16.55
12.64
8.18
3.49
-1.14
-5.55
-9.7
-13.67
-17.62
-21.79
-26.56
-32.27
-38.95
-46.11
-52.58
-56.75
-57.09
-52.65
-43.5
-30.72
-16.09
-1.52
11.38
21.68
29.08
33.75
36.07
36.39
35.05
32.41
28.98
25.4
22.45
20.7
20.4
21.27
22.71
23.92
24.24
23.31
21.1
17.82
13.79
9.33
4.65
-0.14
-4.97
-9.84
-14.69
-19.55
-24.53
-29.91
-36.02
-42.97
-50.32
-56.95
-61.24
-61.59
-56.98
-47.46
-34.18
-18.99
-3.87
9.6
20.51
28.55
33.78
36.47
36.94
35.64
33.17
30.26
27.63
25.78
24.92
24.84
25.15
25.4
25.29
24.73
23.74
22.28
20.19
17.19
13.11
8.02
2.27
-3.62
-9.16
-14.1
-18.49
-22.66
-27.16
-32.5
-39.02
-46.54
-54.22
-60.57
-63.83
-62.51
-56.01
-44.93
-30.89
-15.94
-1.93
10.03
19.57
26.82
32.04
35.41
37
36.97
35.71
33.83
32.01
30.73
30.17
30.24
30.62
30.99
31.13
30.92
30.31
29.18
27.33
24.48
20.47
15.35
9.49
3.49
-2
-6.58
-10.26
-13.51
-17.17
-22.06
-28.68
-36.82
-45.51
-53.1
-57.74
-57.91
-52.97
-43.37
-30.5
-16.24
-2.4
9.72
19.45
26.65
31.4
33.92
34.45
33.37
31.26
28.78
26.6
25.17
24.6
24.69
25.07
25.39
25.45
25.2
24.69
23.9
22.64
20.64
17.68
13.71
8.95
3.84
-1.14
-5.64
-9.57
-13.16
-16.84
-21.11
-26.37
-32.64
-39.41
-45.56
-49.62
-50.16
-46.25
-37.93
-26.13
-12.48
1.19
13.4
23.21
30.3
34.73
36.77
36.73
35.02
32.11
28.58
25.08
22.13
20.06
18.93
18.58
18.69
18.96
19.15
19.04
18.42
17.04
14.65
11.18
6.77
1.85
-3.04
-7.42
-11.04
-14.04
-16.77
-19.72
-23.34
-27.91
-33.44
-39.61
-45.69
-50.6
-53.04
-51.9
-46.62
-37.5
-25.68
-12.85
-0.76
9.27
16.58
21.12
23.27
23.51
22.26
19.84
16.57
12.88
9.34
6.53
4.93
4.74
5.81
7.77
10.14
12.46
14.4
15.71
16.16
15.56
13.78
10.88
7.2
3.27
-0.37
-3.4
-5.85
-8.13
-10.9
-14.76
-19.97
-26.2
-32.46
-37.32
-39.28
-37.32
-31.25
-21.88
-10.75
0.36
10.01
17.38
22.29
24.94
25.64
24.6
22.09
18.54
14.63
11.17
8.79
7.7
7.67
8.1
8.43
8.3
7.62
6.47
4.85
2.68
-0.2
-3.81
-7.96
-12.23
-16.18
-19.49
-22.16
-24.45
-26.75
-29.56
-33.24
-37.98
-43.64
-49.56
-54.59
-57.27
-56.23
-50.71
-40.97
-28.25
-14.41
-1.41
9.36
17.24
22.25
24.78
25.32
24.34
22.3
19.77
17.41
15.83
15.41
16.12
17.62
19.41
21.07
22.45
23.57
24.47
25.01
24.83
23.54
20.94
17.17
12.68
8.05
3.7
-0.25
-3.98
-7.81
-12.11
-17.16
-23.06
-29.74
-36.68
-43
-47.44
-48.79
-46.29
-40
-30.82
-20.18
-9.62
-0.22
7.44
13.24
17.26
19.58
20.23
19.4
17.51
15.22
13.27
12.16
12.09
12.84
13.98
15.11
15.95
16.39
16.44
16.1
15.28
13.87
11.71
8.79
5.18
1.13
-3.06
-7.03
-10.55
-13.58
-16.39
-19.45
-23.31
-28.25
-33.98
-39.54
-43.44
-44.11
-40.55
-32.71
-21.65
-9.14
2.93
13.19
21.11
26.85
30.88
33.6
35.15
35.49
34.61
32.77
30.48
28.25
26.4
24.97
23.72
22.39
20.86
19.24
17.77
16.55
15.47
14.16
12.14
9.09
4.97
0.15
-4.8
-9.21
-12.65
-15.11
-17.05
-19.34
-22.93
-28.53
-36.1
-44.74
-52.85
-58.49
-60.14
-57.11
-49.81
-39.53
-27.97
-16.83
-7.39
-0.37
4.01
5.94
5.91
4.55
2.6
0.73
-0.62
-1.26
-1.28
-0.97
-0.64
-0.54
-0.82
-1.46
-2.4
-3.51
-4.7
-5.97
-7.45
-9.31
-11.78
-14.95
-18.74
-22.88
-27.01
-30.8
-34.14
-37.12
-40.06
-43.37
-47.31
-51.87
-56.55
-60.46
-62.4
-61.28
-56.41
-47.85
-36.35
-23.18
-9.73
2.76
13.42
21.71
27.32
30.19
30.45
28.52
25.14
21.23
17.65
15.06
13.71
13.53
14.2
15.3
16.33
16.9
16.6
15.16
12.48
8.68
4.06
-1.02
-6.25
-11.44
-16.51
-21.48
-26.38
-31.26
-36.27
-41.62
-47.53
-53.93
-60.27
-65.43
-67.92
-66.36
-59.99
-49.06
-34.81
-19.15
-4.09
8.79
18.64
25.24
28.89
30.01
29.12
26.73
23.46
20
17.08
15.29
14.97
16.06
18.15
20.56
22.53
23.39
22.75
20.49
16.77
11.9
6.29
0.24
-5.98
-12.2
-18.33
-24.4
-30.48
-36.81
-43.7
-51.34
-59.69
-68.18
-75.71
-80.8
-81.99
-78.33
-69.73
-57.09
-41.93
-25.9
-10.32
4.09
17.01
28.21
37.26
43.58
46.71
46.66
44.15
40.46
37.04
35.03
34.89
36.42
38.99
41.86
44.45
46.37
47.39
47.31
45.95
43.21
39.22
34.28
28.92
23.64
18.75
14.24
9.82
4.97
-0.88
-8.14
-16.87
-26.56
-36.03
-43.56
-47.33
-45.94
-38.87
-26.79
-11.3
5.56
21.83
36.08
47.52
55.88
61.11
63.38
62.94
60.23
55.94
50.82
45.63
40.9
36.93
33.79
31.41
29.63
28.25
26.98
25.45
23.3
20.26
16.3
11.61
6.5
1.27
-3.88
-8.92
-13.96
-19.14
-24.67
-30.82
-37.93
-46.17
-55.32
-64.35
-71.48
-74.44
-71.29
-61.18
-44.86
-24.51
-3.07
16.74
33.08
45.22
53.26
57.61
58.69
56.87
52.74
47.27
41.68
37.17
34.47
33.63
34.15
35.26
36.24
36.69
36.45
35.42
33.51
30.55
26.38
21.02
14.72
7.96
1.29
-4.8
-10.04
-14.46
-18.36
-22.35
-27.09
-33.05
-40.19
-47.71
-54.07
-57.27
-55.53
-47.96
-34.93
-18.04
0.43
18.17
33.46
45.39
53.69
58.43
59.77
58.04
53.89
48.35
42.72
38.21
35.52
34.68
35.13
36.11
36.93
37.26
36.99
36.1
34.48
31.94
28.28
23.52
17.92
11.92
6.06
0.83
-3.5
-6.92
-9.72
-12.54
-16.17
-21.34
-28.39
-36.91
-45.62
-52.65
-55.98
-54.18
-46.92
-35.07
-20.43
-5.14
8.91
20.41
28.65
33.38
34.63
32.64
27.97
21.6
14.76
8.73
4.45
2.29
2.02
3
4.49
5.94
7.04
7.74
8.03
7.86
7.13
5.67
3.47
0.64
-2.53
-5.76
-8.82
-11.71
-14.66
-18.06
-22.34
-27.82
-34.41
-41.42
-47.61
-51.26
-50.72
-44.94
-33.96
-19.03
-2.31
13.78
27.26
37.01
42.84
45.21
44.82
42.39
38.56
34
29.44
25.7
23.38
22.76
23.59
25.24
26.97
28.12
28.31
27.43
25.51
22.64
18.89
14.39
9.3
3.83
-1.78
-7.37
-12.91
-18.47
-24.3
-30.67
-37.72
-45.21
-52.25
-57.38
-58.85
-55.28
-46.24
-32.54
-16.07
0.89
16.29
28.9
38.32
44.67
48.32
49.6
48.85
46.51
43.19
39.62
36.43
34.04
32.55
31.88
31.76
31.86
31.8
31.19
29.69
27.05
23.24
18.42
12.85
6.77
0.31
-6.58
-13.97
-21.87
-30.25
-38.95
-47.87
-56.89
-65.71
-73.6
-79.33
-81.41
-78.61
-70.5
-57.86
-42.48
-26.59
-12.15
-0.29
8.77
15.41
20.12
23.23
24.88
25.21
24.61
23.77
23.53
24.5
26.88
30.3
34.03
37.27
39.36
40.02
39.26
37.24
34.16
30.15
25.39
20.08
14.53
9.09
4.02
-0.62
-4.99
-9.47
-14.55
-20.52
-27.33
-34.37
-40.54
-44.43
-44.77
-40.86
-32.84
-21.74
-9.13
3.23
13.9
22.01
27.28
29.91
30.34
29.08
26.57
23.27
19.6
16.03
13.01
10.82
9.52
8.89
8.49
7.86
6.67
4.79
2.25
-0.91
-4.67
-9.06
-14.01
-19.27
-24.45
-29.1
-33
-36.24
-39.26
-42.62
-46.83
-51.97
-57.65
-62.99
-66.7
-67.5
-64.48
-57.46
-47.13
-34.91
-22.51
-11.37
-2.37
4.31
8.89
11.76
13.2
13.39
12.53
10.99
9.36
8.25
8.15
9.26
11.41
14.16
16.93
19.14
20.35
20.36
19.19
17.07
14.35
11.39
8.41
5.53
2.66
-0.31
-3.53
-7.18
-11.43
-16.46
-22.27
-28.54
-34.5
-38.92
-40.48
-38.14
-31.59
-21.42
-8.98
4.06
16.18
26.34
33.99
38.95
41.24
41.03
38.71
34.92
30.58
26.65
23.83
22.34
21.88
21.85
21.55
20.47
18.32
14.97
10.45
4.87
-1.42
-7.9
-13.9
-18.87
-22.58
-25.24
-27.45
-29.89
-33.2
-37.63
-42.99
-48.58
-53.27
-55.7
-54.69
-49.57
-40.48
-28.41
-14.91
-1.61
10.19
19.85
27.29
32.74
36.48
38.66
39.31
38.51
36.53
33.85
31.1
28.85
27.46
26.93
26.99
27.13
26.77
25.5
23.09
19.62
15.39
10.74
5.98
1.29
-3.37
-8.08
-12.99
-18.24
-23.98
-30.34
-37.26
-44.33
-50.62
-54.81
-55.55
-51.94
-43.96
-32.55
-19.29
-5.94
6.09
16.01
23.61
29.07
32.69
34.74
35.46
35.07
33.84
32.07
30.09
28.17
26.54
25.28
24.34
23.51
22.47
20.91
18.53
15.21
10.94
5.85
0.16
-5.88
-12.01
-17.99
-23.67
-29.12
-34.67
-40.83
-47.99
-56.06
-64.22
-70.99
-74.67
-73.91
-68.23
-58.21
-45.22
-30.96
-16.95
-4.29
6.39
14.81
20.89
24.74
26.65
27.09
26.67
25.91
25.22
24.85
24.88
25.33
26.06
26.84
27.33
27.17
26.15
24.21
21.55
18.46
15.21
11.92
8.61
5.19
1.62
-2.11
-6.02
-10.28
-15.2
-21.03
-27.68
-34.52
-40.28
-43.43
-42.69
-37.53
-28.44
-16.86
-4.61
6.69
15.98
22.97
27.85
31.02
32.76
33.3
32.85
31.78
30.6
29.85
29.87
30.72
32.19
33.9
35.54
36.87
37.79
38.18
37.87
36.63
34.26
30.72
26.15
20.94
15.54
10.35
5.56
1.11
-3.38
-8.39
-14.29
-21.01
-27.87
-33.64
-36.81
-36.17
-31.24
-22.49
-11.15
1.16
12.89
22.88
30.36
34.91
36.41
35.04
31.33
26.16
20.62
15.66
11.81
9.14
7.3
5.85
4.43
2.83
0.99
-1.13
-3.6
-6.5
-9.78
-13.29
-16.8
-20.1
-23.11
-25.9
-28.62
-31.39
-34.25
-37.18
-40.24
-43.5
-47
-50.53
-53.49
-54.92
-53.75
-49.17
-41.06
-30.08
-17.51
-4.87
6.53
15.86
22.79
27.41
30
30.94
30.72
29.89
28.98
28.45
28.54
29.22
30.32
31.51
32.45
32.85
32.45
31.05
28.56
25.05
20.71
15.85
10.83
5.98
1.55
-2.34
-5.71
-8.73
-11.69
-15.06
-19.24
-24.4
-30.34
-36.27
-41.02
-43.3
-42.2
-37.5
-29.8
-20.25
-10.23
-0.89
7.04
13.27
17.71
20.36
21.26
20.6
18.84
16.72
15.1
14.69
15.76
18.07
21.02
23.81
25.84
26.86
26.97
26.61
26.3
26.6
27.83
29.91
32.16
33.28
31.64
25.8
15.18
0.29
-17.34
-35.75
-53.18
-68.43
-80.72
-89.39
-93.59
-92.47
-85.61
-73.51
-57.82
-40.86
-24.98
-11.84
-2.12
4.3
7.96
9.42
9.13
7.5
5.07
2.48
0.41
-0.66
-0.56
0.53
2.26
4.31
6.43
8.43
10.11
11.21
11.41
10.54
8.59
5.81
2.55
-0.84
-4.14
-7.3
-10.29
-13.1
-15.72
-18.22
-20.84
-23.81
-27.16
-30.48
-32.8
-32.92
-29.87
-23.42
-14.26
-3.8
6.29
14.7
20.77
24.43
25.99
25.78
24.1
21.21
17.51
13.54
9.99
7.45
6.23
6.28
7.21
8.45
9.43
9.71
9.04
7.39
4.91
1.92
-1.26
-4.39
-7.37
-10.28
-13.32
-16.71
-20.6
-25.05
-30.07
-35.62
-41.48
-47.13
-51.62
-53.73
-52.3
-46.69
-37.19
-25.03
-12.05
-0.08
9.55
16.37
20.55
22.61
23.01
22.08
20.07
17.32
14.39
11.99
10.71
10.81
12.13
14.11
16.12
17.59
18.18
17.74
16.27
13.8
10.44
6.35
1.74
-3.07
-7.83
-12.34
-16.55
-20.59
-24.81
-29.64
-35.47
-42.32
-49.69
-56.45
-61.05
-62.02
-58.5
-50.65
-39.62
-27.19
-15.19
-4.92
2.99
8.5
11.89
13.4
13.32
11.96
9.87
7.78
6.51
6.63
8.33
11.31
14.89
18.25
20.62
21.52
20.79
18.54
15.04
10.57
5.34
-0.43
-6.5
-12.55
-18.19
-23.13
-27.4
-31.42
-35.86
-41.43
-48.4
-56.28
-63.8
-69.2
-70.8
-67.55
-59.48
-47.59
-33.5
-18.97
-5.4
6.22
15.41
21.96
25.92
27.53
27.25
25.72
23.64
21.63
20.08
19.23
19.03
19.35
19.89
20.29
20.14
19.09
16.9
13.5
8.99
3.61
-2.26
-8.21
-13.81
-18.82
-23.24
-27.32
-31.59
-36.59
-42.7
-49.82
-57.2
-63.5
-67.06
-66.38
-60.69
-50.26
-36.33
-20.77
-5.45
8.26
19.67
28.71
35.63
40.73
44.23
46.23
46.91
46.57
45.66
44.62
43.86
43.53
43.56
43.7
43.64
43.11
41.89
39.88
37.04
33.4
29.08
24.25
19.15
13.98
8.88
3.81
-1.44
-7.25
-14.02
-21.99
-31.01
-40.29
-48.46
-53.74
-54.57
-50.01
-40.24
-26.45
-10.52
5.53
20.05
31.9
40.58
46
48.39
48.26
46.31
43.4
40.31
37.65
35.76
34.7
34.33
34.37
34.51
34.45
33.93
32.8
31.08
28.84
26.22
23.29
20.02
16.4
12.45
8.24
3.75
-1.16
-6.86
-13.86
-22.42
-32.28
-42.35
-50.92
-56.04
-56.18
-50.87
-40.86
-27.93
-14.22
-1.61
8.8
16.68
22.28
26.03
28.28
29.26
29.15
28.26
26.99
25.82
25.09
24.96
25.37
26.05
26.67
26.88
26.34
24.89
22.53
19.43
15.79
11.81
7.53
2.99
-1.76
-6.58
-11.21
-15.55
-19.73
-24.18
-29.43
-35.67
-42.33
-48.12
-51.26
-50.2
-44.25
-33.9
-20.61
-6.28
7.4
19.45
29.53
37.74
44.18
48.76
51.25
51.58
49.98
47.1
43.82
40.92
38.86
37.62
36.86
36.17
35.25
34.03
32.54
30.8
28.74
26.19
23.05
19.34
15.25
10.98
6.58
1.9
-3.43
-9.81
-17.5
-26.47
-36.31
-46.22
-55.03
-61.4
-64.07
-62.18
-55.57
-44.94
-31.7
-17.61
-4.3
7.1
16.06
22.59
26.94
29.42
30.37
30.13
29.08
27.74
26.61
26.07
26.25
27.03
28.08
29.02
29.48
29.17
27.89
25.57
22.25
18.1
13.41
8.53
3.74
-0.81
-5.17
-9.56
-14.36
-19.99
-26.68
-34.41
-42.53
-49.9
-55.02
-56.43
-53.17
-45.19
-33.37
-19.26
-4.64
8.99
20.6
29.75
36.27
40.16
41.52
40.57
37.84
34.13
30.31
27.11
24.9
23.64
23.06
22.81
22.59
22.17
21.38
20
17.82
14.79
11.03
6.88
2.78
-0.93
-4.16
-7.06
-9.95
-13.19
-17.06
-21.74
-27.28
-33.53
-40.03
-45.95
-50.05
-51.03
-47.89
-40.43
-29.46
-16.66
-3.98
6.93
15.25
21
24.75
27.16
28.59
29.18
28.93
28.04
26.98
26.31
26.42
27.32
28.63
29.74
30.13
29.53
27.95
25.58
22.64
19.26
15.47
11.28
6.77
2.09
-2.52
-6.77
-10.46
-13.47
-15.94
-18.23
-20.85
-24.27
-28.61
-33.45
-37.84
-40.51
-40.34
-36.78
-30.07
-21.21
-11.52
-2.24
5.87
12.53
17.75
21.59
24.02
24.94
24.43
22.86
20.87
19.19
18.31
18.28
18.75
19.2
19.24
18.77
18
17.17
16.31
15.18
13.32
10.4
6.45
1.9
-2.56
-6.28
-8.96
-10.72
-12.01
-13.42
-15.53
-18.79
-23.35
-29
-35
-40.16
-43.08
-42.53
-37.94
-29.64
-18.75
-6.8
4.77
14.98
23.36
29.85
34.53
37.51
38.83
38.63
37.16
34.82
32.12
29.54
27.46
26.05
25.3
25.03
25.01
24.97
24.61
23.63
21.69
18.5
13.92
8.12
1.5
-5.27
-11.58
-16.98
-21.29
-24.66
-27.48
-30.25
-33.5
-37.66
-42.87
-48.76
-54.38
-58.32
-59.07
-55.62
-47.82
-36.63
-23.75
-11.07
-0.12
8.38
14.42
18.43
20.83
21.88
21.64
20.26
18.11
15.76
13.82
12.7
12.41
12.65
12.99
13.11
12.87
12.27
11.31
9.87
7.75
4.76
0.87
-3.73
-8.69
-13.62
-18.2
-22.31
-25.94
-29.25
-32.47
-35.91
-39.83
-44.29
-48.94
-52.98
-55.26
-54.69
-50.7
-43.44
-33.89
-23.37
-13.2
-4.22
3.19
9.04
13.47
16.55
18.35
19.04
18.97
18.64
18.57
19.02
20.01
21.29
22.55
23.56
24.17
24.36
24.02
22.9
20.74
17.32
12.71
7.26
1.51
-3.96
-8.76
-12.78
-16.15
-19.13
-22.05
-25.26
-29.15
-34.03
-40.02
-46.75
-53.24
-58.03
-59.62
-56.95
-49.92
-39.41
-26.99
-14.38
-2.92
6.65
14.12
19.58
23.13
24.91
25.09
24.06
22.4
20.75
19.65
19.36
19.84
20.81
21.9
22.78
23.26
23.29
22.94
22.22
21.06
19.3
16.73
13.29
9.13
4.62
0.16
-3.98
-7.8
-11.55
-15.66
-20.55
-26.47
-33.42
-41.17
-49.17
-56.53
-62.11
-64.75
-63.55
-58.22
-49.22
-37.66
-24.99
-12.51
-1.17
8.57
16.59
22.89
27.46
30.31
31.48
31.27
30.15
28.7
27.46
26.72
26.52
26.61
26.73
26.66
26.39
25.96
25.41
24.61
23.28
21.03
17.62
13.09
7.79
2.33
-2.74
-7.11
-10.94
-14.79
-19.41
-25.41
-32.86
-41.15
-49.03
-54.89
-57.27
-55.26
-48.83
-38.76
-26.42
-13.37
-0.99
9.78
18.48
24.95
29.29
31.63
32.18
31.27
29.39
27.24
25.52
24.73
24.98
25.94
26.98
27.49
27.14
26
24.45
22.83
21.26
19.49
17.12
13.8
9.51
4.61
-0.27
-4.56
-7.98
-10.71
-13.22
-16.14
-19.96
-24.88
-30.7
-36.78
-42.14
-45.56
-45.99
-42.76
-35.92
-26.21
-14.94
-3.55
6.68
14.93
20.93
24.7
26.49
26.64
25.53
23.59
21.32
19.18
17.55
16.62
16.33
16.48
16.77
16.95
16.95
16.78
16.48
16
15.13
13.56
11.08
7.65
3.54
-0.76
-4.72
-8
-10.5
-12.45
-14.31
-16.62
-19.87
-24.28
-29.57
-34.86
-38.82
-40.06
-37.62
-31.38
-22.2
-11.53
-0.94
8.45
16.13
22.09
26.45
29.25
30.39
29.9
28.21
26.09
24.47
24
24.74
26.22
27.69
28.59
28.74
28.36
27.76
27.06
26.07
24.37
21.67
17.96
13.58
9.09
4.99
1.59
-1.1
-3.25
-5.17
-7.16
-9.53
-12.57
-16.5
-21.3
-26.56
-31.46
-34.83
-35.52
-32.77
-26.56
-17.66
-7.37
2.88
11.97
19.26
24.51
27.73
28.95
28.29
26.1
23.07
20.09
18
17.22
17.63
18.67
19.64
20.1
19.96
19.44
18.84
18.32
17.79
16.97
15.57
13.41
10.51
7.11
3.55
0.21
-2.62
-4.87
-6.7
-8.56
-10.97
-14.38
-18.95
-24.37
-29.89
-34.36
-36.61
-35.76
-31.54
-24.45
-15.53
-6.13
2.58
9.76
15.1
18.54
20.16
20.08
18.39
15.36
11.49
7.56
4.34
2.44
2.03
2.82
4.22
5.46
5.95
5.27
3.28
-0.01
-4.45
-9.85
-15.99
-22.61
-29.44
-36.19
-42.61
-48.52
-53.84
-58.66
-63.11
-67.31
-71.19
-74.38
-76.11
-75.42
-71.49
-64.02
-53.38
-40.72
-27.52
-15.19
-4.7
3.6
9.79
14.18
17.05
18.61
19.1
18.87
18.48
18.45
19.16
20.62
22.52
24.4
25.84
26.6
26.68
26.2
25.29
24.02
22.35
20.19
17.5
14.26
10.59
6.73
2.98
-0.32
-2.94
-4.87
-6.44
-8.19
-10.79
-14.71
-19.89
-25.64
-30.71
-33.65
-33.24
-28.97
-21.2
-11.07
-0.1
10.17
18.61
24.6
27.99
28.96
27.81
24.97
20.91
16.19
11.44
7.15
3.66
1.05
-0.87
-2.4
-3.85
-5.42
-7.17
-9.1
-11.25
-13.74
-16.75
-20.44
-24.81
-29.7
-34.78
-39.62
-43.9
-47.48
-50.47
-53.19
-56.15
-59.72
-63.95
-68.32
-71.74
-72.77
-70.17
-63.42
-53.04
-40.48
-27.59
-15.99
-6.56
0.68
6.24
10.67
14.24
16.82
18.05
17.79
16.22
13.89
11.51
9.7
8.83
9.04
10.27
12.38
15.12
18.15
21.03
23.25
24.32
23.9
21.94
18.65
14.37
9.5
4.27
-1.27
-7.26
-13.91
-21.29
-29.18
-37
-43.75
-48.28
-49.62
-47.19
-41.06
-31.88
-20.76
-8.93
2.58
13.05
22.19
29.92
36.24
41.07
44.3
45.86
45.91
44.86
43.28
41.72
40.49
39.61
38.8
37.74
36.17
34.06
31.5
28.58
25.28
21.53
17.33
12.81
8.26
3.99
0.14
-3.4
-7.03
-11.23
-16.37
-22.59
-29.7
-37.11
-43.92
-49
-51.28
-50.06
-45.19
-37.22
-27.25
-16.61
-6.45
2.45
9.77
15.52
19.86
22.91
24.79
25.6
25.58
25.1
24.65
24.68
25.49
27.07
29.14
31.19
32.7
33.27
32.67
30.83
27.76
23.59
18.56
13.05
7.55
2.55
-1.73
-5.31
-8.54
-11.88
-15.78
-20.47
-25.87
-31.54
-36.73
-40.42
-41.62
-39.55
-34.05
-25.65
-15.47
-4.89
4.9
13.23
20.01
25.53
30.14
34.01
37.12
39.34
40.71
41.46
42.02
42.77
43.85
45.06
45.94
46.03
45.06
43.09
40.43
37.48
34.49
31.53
28.48
25.17
21.5
17.49
13.27
9
4.74
0.42
-4.2
-9.48
-15.7
-22.81
-30.24
-36.84
-41.16
-41.92
-38.49
-31.24
-21.4
-10.61
-0.33
8.61
16.02
22.14
27.21
31.33
34.4
36.38
37.4
37.83
38.08
38.42
38.92
39.43
39.72
39.62
39.09
38.17
36.96
35.51
33.76
31.61
28.93
25.65
21.82
17.72
13.72
10.2
7.38
5.19
3.31
1.19
-1.68
-5.62
-10.59
-16.13
-21.41
-25.41
-27.16
-26.06
-22.02
-15.52
-7.47
1.03
9
15.71
20.83
24.33
26.37
27.21
27.12
26.37
25.2
23.85
22.47
21.13
19.77
18.31
16.65
14.81
12.9
11.1
9.52
8.11
6.64
4.76
2.17
-1.18
-5.1
-9.19
-13.01
-16.25
-18.83
-20.91
-22.87
-25.11
-28.01
-31.72
-36.08
-40.58
-44.34
-46.43
-46.08
-42.93
-37.19
-29.55
-20.93
-12.27
-4.36
2.23
7.14
10.13
11.16
10.41
8.28
5.41
2.56
0.43
-0.49
-0.09
1.33
3.25
5.03
6.23
6.68
6.52
5.98
5.26
4.37
3.17
1.51
-0.67
-3.24
-5.96
-8.58
-10.94
-12.99
-14.83
-16.67
-18.79
-21.45
-24.75
-28.4
-31.74
-33.8
-33.64
-30.74
-25.23
-17.84
-9.67
-1.73
5.23
10.83
14.96
17.63
18.86
18.73
17.51
15.66
13.77
12.38
11.77
11.97
12.75
13.85
15.05
16.23
17.33
18.15
18.39
17.58
15.3
11.32
5.73
-1.05
-8.34
-15.39
-21.56
-26.53
-30.37
-33.49
-36.48
-39.86
-43.86
-48.23
-52.26
-54.97
-55.42
-53.05
-47.88
-40.49
-31.81
-22.84
-14.34
-6.78
-0.36
4.82
8.62
10.89
11.59
10.96
9.53
7.93
6.69
6.04
5.89
5.99
6.07
6
5.65
4.92
3.65
1.64
-1.26
-5.13
-9.91
-15.49
-21.66
-28.17
-34.59
-40.4
-45.04
-48.2
-49.91
-50.65
-51.21
-52.26
-54.05
-56.13
-57.41
-56.57
-52.62
-45.25
-35.03
-23.09
-10.73
1.04
11.6
20.69
28.17
33.9
37.77
39.77
40.15
39.37
38.03
36.62
35.48
34.7
34.14
33.59
32.85
31.85
30.74
29.69
28.81
28.06
27.09
25.56
23.21
20.07
16.45
12.73
9.24
6.11
3.27
0.55
-2.25
-5.36
-9.03
-13.38
-18.25
-22.99
-26.53
-27.61
-25.37
-19.64
-11.05
-0.8
9.8
19.72
28.28
35.13
40.08
43.03
44
43.31
41.5
39.29
37.2
35.42
33.72
31.69
28.97
25.49
21.53
17.53
13.94
10.97
8.49
6.13
3.41
0.01
-4.16
-8.87
-13.68
-18.12
-21.87
-24.85
-27.35
-29.87
-33.08
-37.52
-43.44
-50.61
-58.17
-64.86
-69.25
-70.2
-67.21
-60.55
-51.14
-40.2
-28.88
-18.07
-8.45
-0.49
5.42
9.04
10.44
10.02
8.55
6.83
5.53
4.93
4.91
5.1
5.09
4.66
3.87
2.97
2.15
1.46
0.63
-0.83
-3.41
-7.35
-12.44
-18.09
-23.43
-27.78
-30.78
-32.58
-33.65
-34.67
-36.31
-39.06
-43.09
-48.19
-53.62
-58.19
-60.42
-59.02
-53.35
-43.66
-31.08
-17.28
-3.91
7.74
16.99
23.63
27.72
29.5
29.3
27.68
25.33
23.07
21.57
21.15
21.73
22.84
23.94
24.63
24.8
24.62
24.34
24.06
23.63
22.65
20.73
17.66
13.6
8.97
4.3
0.01
-3.8
-7.29
-10.85
-14.89
-19.75
-25.61
-32.34
-39.43
-45.9
-50.39
-51.49
-48.21
-40.39
-28.87
-15.28
-1.51
10.87
20.96
28.55
33.85
37.08
38.43
38.02
36.15
33.45
30.75
28.84
28.13
28.54
29.54
30.47
30.82
30.43
29.45
28.15
26.68
24.95
22.68
19.61
15.67
11.06
6.21
1.56
-2.61
-6.36
-9.99
-13.93
-18.6
-24.21
-30.68
-37.59
-44.14
-49.18
-51.51
-50.12
-44.56
-35.16
-22.98
-9.55
3.52
14.99
24.14
30.72
34.81
36.72
36.83
35.63
33.65
31.47
29.56
28.25
27.66
27.68
28.07
28.56
28.94
29.06
28.79
27.95
26.33
23.75
20.2
15.83
10.99
6.07
1.36
-3
-7.08
-11.1
-15.35
-20.17
-25.87
-32.51
-39.71
-46.53
-51.54
-53.31
-50.88
-44.21
-34.25
-22.58
-10.89
-0.47
8.01
14.4
18.81
21.39
22.29
21.82
20.57
19.36
19.03
20.05
22.38
25.43
28.32
30.31
31.01
30.53
29.32
27.88
26.45
24.97
23.1
20.5
17.04
12.85
8.31
3.86
-0.21
-3.83
-7.14
-10.48
-14.25
-18.72
-23.96
-29.53
-34.44
-37.37
-36.99
-32.54
-24.21
-13.07
-0.72
11.27
21.79
30.36
36.88
41.37
43.78
44.11
42.53
39.56
36.02
32.72
30.26
28.87
28.36
28.36
28.47
28.37
27.89
26.95
25.47
23.4
20.64
17.17
13.01
8.23
3.04
-2.36
-7.76
-13.06
-18.32
-23.76
-29.69
-36.38
-43.83
-51.63
-58.83
-64.19
-66.47
-64.9
-59.48
-51.07
-41.04
-30.91
-21.83
-14.36
-8.57
-4.19
-0.89
1.51
3.15
4.09
4.46
4.36
3.96
3.33
2.52
1.57
0.49
-0.67
-1.86
-3.07
-4.34
-5.74
-7.36
-9.24
-11.34
-13.5
-15.46
-16.91
-17.45
-16.77
-14.7
-11.38
-7.3
-3.27
-0.17
1.35
1.16
-0.14
-1.39
-1.24
1.41
6.94
14.91
24.22
33.54
41.73
48.18
52.8
55.87
57.8
58.9
59.34
59.23
58.68
57.91
57.11
56.43
55.86
55.19
54.13
52.43
50.02
47.04
43.72
40.29
36.85
33.35
29.66
25.67
21.44
17.16
13.07
9.35
6.08
3.13
0.26
-2.88
-6.66
-11.38
-16.98
-22.95
-28.28
-31.74
-32.29
-29.55
-23.96
-16.65
-8.97
-1.94
3.93
8.59
12.15
14.66
16.05
16.23
15.34
13.78
12.16
11
10.6
10.92
11.7
12.58
13.32
13.77
13.94
13.84
13.43
12.57
11.12
8.92
5.96
2.45
-1.24
-4.68
-7.54
-9.75
-11.51
-13.25
-15.47
-18.55
-22.57
-27.15
-31.47
-34.44
-34.97
-32.35
-26.53
-18.2
-8.6
0.83
8.87
14.79
18.4
19.89
19.66
18.1
15.56
12.37
8.94
5.7
3.02
1.14
0.02
-0.59
-1.04
-1.58
-2.32
-3.18
-4.02
-4.82
-5.72
-6.99
-8.85
-11.36
-14.37
-17.57
-20.63
-23.29
-25.41
-27.02
-28.36
-29.83
-31.87
-34.74
-38.28
-41.75
-43.96
-43.69
-40.19
-33.53
-24.62
-14.93
-5.85
1.63
7.16
10.96
13.44
15.05
16.02
16.47
16.48
16.23
15.99
16.04
16.52
17.36
18.3
18.95
19.02
18.47
17.51
16.42
15.4
14.36
13.02
11.05
8.33
5.05
1.66
-1.32
-3.52
-4.95
-5.95
-7.07
-8.88
-11.77
-15.8
-20.68
-25.69
-29.8
-31.91
-31.16
-27.23
-20.55
-12.1
-3.18
5.03
11.72
16.57
19.58
20.94
20.88
19.71
17.82
15.72
13.9
12.75
12.37
12.61
13.21
13.89
14.48
14.87
15.01
14.78
14.01
12.54
10.25
7.19
3.55
-0.34
-4.12
-7.5
-10.37
-12.81
-15.02
-17.31
-19.93
-22.99
-26.42
-29.9
-32.86
-34.6
-34.46
-32.05
-27.44
-21.19
-14.19
-7.46
-1.74
2.57
5.45
7.08
7.62
7.23
5.99
4.11
1.9
-0.28
-2.12
-3.48
-4.38
-4.88
-5.02
-4.72
-3.95
-2.81
-1.62
-0.92
-1.24
-2.84
-5.62
-9.11
-12.7
-15.85
-18.33
-20.18
-21.7
-23.28
-25.31
-28.15
-32.02
-36.84
-42.07
-46.73
-49.5
-49.15
-45
-37.23
-26.86
-15.41
-4.39
5.18
12.87
18.72
22.96
25.73
27.12
27.26
26.41
25.06
23.77
22.93
22.7
22.91
23.31
23.66
23.87
23.98
23.97
23.67
22.76
20.91
17.9
13.8
8.98
3.91
-0.93
-5.27
-9.02
-12.33
-15.53
-19.04
-23.42
-29.06
-35.94
-43.44
-50.24
-54.68
-55.29
-51.36
-43.33
-32.57
-20.83
-9.67
-0.01
7.93
14.29
19.26
22.94
25.43
26.95
27.94
28.89
30.1
31.48
32.52
32.61
31.26
28.4
24.42
19.87
15.33
11.14
7.37
3.86
0.36
-3.37
-7.5
-12.05
-16.91
-21.83
-26.43
-30.39
-33.57
-36.19
-38.76
-41.89
-45.94
-50.72
-55.37
-58.58
-58.98
-55.66
-48.5
-38.19
-25.98
-13.28
-1.34
9
17.23
23.17
26.82
28.32
27.99
26.34
23.98
21.62
19.85
19.11
19.52
20.94
22.95
25.02
26.65
27.45
27.18
25.83
23.47
20.35
16.76
12.99
9.27
5.75
2.47
-0.59
-3.44
-6.17
-8.94
-12.08
-15.99
-20.97
-26.89
-32.98
-37.9
-40.11
-38.51
-32.81
-23.76
-12.86
-1.78
8.11
16.01
21.66
25.09
26.41
25.81
23.58
20.25
16.5
13.07
10.5
9.01
8.51
8.7
9.26
9.94
10.51
10.73
10.34
9.07
6.74
3.37
-0.82
-5.48
-10.21
-14.68
-18.65
-22.09
-25.14
-28.15
-31.6
-35.93
-41.25
-47.13
-52.58
-56.25
-56.82
-53.43
-46.03
-35.39
-22.88
-10.09
1.6
11.26
18.51
23.38
26.15
27.14
26.69
25.22
23.23
21.32
20.01
19.56
19.95
20.8
21.68
22.27
22.51
22.51
22.4
22.14
21.46
20.03
17.58
14.12
9.94
5.47
1.15
-2.75
-6.17
-9.3
-12.52
-16.24
-20.84
-26.36
-32.38
-37.99
-41.89
-42.78
-39.84
-33
-23.07
-11.42
0.41
11.17
20.14
27.05
31.99
35.1
36.55
36.6
35.62
34.12
32.61
31.5
30.9
30.68
30.56
30.27
29.61
28.51
27.05
25.28
23.29
21.07
18.58
15.73
12.52
8.95
5.16
1.37
-2.26
-5.65
-8.93
-12.37
-16.35
-21.18
-26.89
-33.16
-39.19
-43.87
-46.01
-44.74
-39.72
-31.4
-20.75
-9.09
2.27
12.29
20.25
25.82
28.91
29.71
28.58
26.02
22.62
19.02
15.89
13.83
13.22
14.07
15.81
17.45
17.81
16.1
12.22
6.78
0.82
-4.78
-9.6
-13.79
-17.72
-21.65
-25.55
-29.19
-32.5
-35.7
-39.39
-44.2
-50.39
-57.54
-64.53
-69.79
-71.86
-69.84
-63.62
-53.99
-42.24
-29.81
-17.83
-6.93
2.69
11.06
18.17
23.88
27.98
30.38
31.25
30.97
30.06
29.02
28.17
27.61
27.35
27.31
27.37
27.41
27.26
26.71
25.58
23.8
21.44
18.7
15.89
13.27
10.97
8.87
6.64
3.72
-0.45
-6.21
-13.42
-21.28
-28.47
-33.45
-34.93
-32.34
-26.01
-17.02
-6.85
3.16
12.09
19.58
25.67
30.46
34.02
36.28
37.21
36.92
35.73
34.08
32.34
30.7
29.2
27.77
26.46
25.37
24.71
24.55
24.74
24.89
24.48
23.08
20.5
16.85
12.45
7.65
2.74
-2.16
-7.12
-12.24
-17.71
-23.65
-30.06
-36.7
-42.94
-47.79
-50.07
-48.78
-43.51
-34.69
-23.46
-11.4
0.05
9.95
18
24.42
29.57
33.67
36.71
38.6
39.3
39.02
38.15
37.1
36.14
35.32
34.55
33.65
32.54
31.18
29.57
27.64
25.22
22.12
18.23
13.6
8.49
3.29
-1.61
-5.89
-9.48
-12.55
-15.55
-19.06
-23.62
-29.44
-36.19
-43.02
-48.63
-51.68
-51.19
-46.83
-39.04
-28.92
-17.83
-7.01
2.65
10.74
17.13
21.87
25.04
26.75
27.24
26.89
26.2
25.62
25.47
25.75
26.29
26.78
26.97
26.79
26.32
25.71
25.06
24.32
23.27
21.64
19.18
15.87
11.85
7.48
3.15
-0.79
-4.2
-7.12
-9.87
-12.92
-16.76
-21.67
-27.44
-33.25
-37.84
-39.74
-37.92
-32.13
-23.08
-12.21
-1.16
8.67
16.56
22.36
26.33
28.77
29.84
29.62
28.21
25.94
23.35
21.1
19.63
19.04
19.05
19.1
18.71
17.6
15.81
13.54
11.07
8.56
6.02
3.37
0.47
-2.75
-6.3
-10.05
-13.82
-17.44
-20.9
-24.4
-28.31
-33.01
-38.61
-44.78
-50.7
-55.2
-57.15
-55.79
-51
-43.33
-33.84
-23.78
-14.22
-5.87
1.03
6.51
10.74
13.81
15.68
16.28
15.75
14.48
13.04
12.01
11.71
12.15
13.07
14.09
14.86
15.14
14.79
13.74
11.96
9.54
6.72
3.91
1.54
-0.06
-0.81
-1.02
-1.29
-2.41
-5.09
-9.75
-16.37
-24.4
-32.76
-40.12
-45.1
-46.64
-44.31
-38.4
-29.94
-20.38
-11.28
-3.9
1.01
3.38
3.6
2.41
0.68
-0.82
-1.48
-0.97
0.8
3.65
7.25
11.18
15.01
18.39
21.17
23.35
25.06
26.38
27.27
27.56
27.03
25.55
23.21
20.37
17.46
14.86
12.69
10.78
8.75
6.17
2.77
-1.6
-6.83
-12.59
-18.17
-22.63
-24.86
-24
-19.79
-12.81
-4.36
3.97
10.85
15.66
18.53
19.94
20.41
20.11
18.94
16.8
13.87
10.72
8.1
6.57
6.26
6.81
7.58
7.9
7.48
6.37
4.93
3.59
2.6
1.97
1.48
0.88
-0.01
-1.17
-2.46
-3.73
-5
-6.44
-8.32
-10.87
-14.27
-18.61
-23.9
-30.01
-36.5
-42.46
-46.66
-47.82
-45.17
-38.87
-30
-20.17
-10.94
-3.25
2.68
7.15
10.54
13.06
14.64
15.13
14.6
13.44
12.3
11.76
12.16
13.42
15.16
16.9
18.26
19.1
19.42
19.31
18.78
17.77
16.18
14.01
11.42
8.74
6.29
4.28
2.62
0.96
-1.17
-4.25
-8.61
-14.29
-21.03
-28.28
-35.14
-40.51
-43.27
-42.57
-38.2
-30.7
-21.29
-11.51
-2.73
4.11
8.74
11.35
12.36
12.2
11.26
9.85
8.32
7
6.17
5.93
6.21
6.77
7.34
7.72
7.84
7.68
7.21
6.32
4.85
2.66
-0.18
-3.38
-6.45
-8.94
-10.64
-11.7
-12.58
-13.86
-16.05
-19.44
-24.07
-29.76
-35.98
-41.93
-46.48
-48.5
-47.18
-42.41
-34.88
-25.89
-16.86
-8.82
-2.18
3.14
7.51
11.15
14.05
16.05
17.06
17.22
16.88
16.49
16.33
16.46
16.71
16.79
16.52
15.86
14.9
13.73
12.35
10.56
8.07
4.64
0.19
-5.03
-10.57
-15.85
-20.38
-23.92
-26.62
-28.93
-31.49
-34.91
-39.42
-44.79
-50.24
-54.58
-56.53
-55.07
-49.7
-40.63
-28.66
-15.02
-0.99
12.28
23.93
33.42
40.42
44.85
46.86
46.88
45.57
43.67
41.81
40.31
39.16
38.2
37.26
36.42
35.89
35.9
36.46
37.23
37.65
37.11
35.23
32.04
27.89
23.33
18.89
14.94
11.65
8.94
6.49
3.79
0.15
-5.05
-12.11
-20.74
-29.94
-38.23
-44.04
-46.3
-44.75
-39.96
-33.03
-25.12
-17.15
-9.68
-3.09
2.21
5.8
7.32
6.74
4.53
1.61
-0.93
-2.22
-1.92
-0.19
2.41
5.27
7.89
10.03
11.56
12.39
12.39
11.37
9.19
5.84
1.49
-3.56
-8.93
-14.26
-19.29
-23.89
-28.15
-32.32
-36.85
-42.14
-48.27
-54.74
-60.45
-63.94
-63.92
-59.77
-51.77
-41.07
-29.22
-17.74
-7.73
0.19
5.8
9.11
10.28
9.63
7.71
5.17
2.69
0.77
-0.42
-0.95
-1.03
-0.85
-0.45
0.24
1.31
2.81
4.61
6.45
7.91
8.61
8.31
7.02
4.94
2.45
-0.12
-2.61
-5.15
-8.12
-11.95
-16.9
-22.92
-29.51
-35.8
-40.74
-43.32
-42.8
-38.9
-31.84
-22.36
-11.5
-0.41
9.91
18.76
25.84
31.2
35.11
37.95
39.98
41.38
42.18
42.38
42
41.2
40.2
39.25
38.57
38.24
38.28
38.54
38.83
38.85
38.25
36.71
33.98
30.03
25.09
19.67
14.42
9.93
6.5
3.95
1.7
-1.1
-5.15
-10.7
-17.3
-23.79
-28.56
-30.05
-27.17
-19.64
-8.08
6.2
21.41
35.76
47.69
56.19
60.96
62.26
60.81
57.39
52.69
47.14
41.01
34.6
28.33
22.72
18.15
14.76
12.35
10.56
9.06
7.7
6.43
5.06
3.21
0.4
-3.72
-9.01
-14.84
-20.19
-24.16
-26.33
-26.95
-26.83
-27.02
-28.38
-31.32
-35.62
-40.52
-44.87
-47.45
-47.21
-43.57
-36.48
-26.49
-14.63
-2.23
9.38
19.08
26.22
30.64
32.7
33.04
32.39
31.38
30.38
29.55
28.93
28.5
28.28
28.19
28.19
28.16
27.98
27.61
27.05
26.22
24.98
23.11
20.35
16.61
11.98
6.76
1.34
-3.94
-8.92
-13.59
-18.12
-22.79
-27.96
-33.89
-40.58
-47.55
-53.83
-58.16
-59.4
-57
-51.25
-43.2
-34.22
-25.53
-17.83
-11.29
-5.8
-1.3
2.1
4.2
4.89
4.36
3.1
1.74
0.85
0.74
1.4
2.61
4
5.24
6.04
6.24
5.81
4.85
3.51
1.91
0.07
-2.04
-4.51
-7.31
-10.28
-13.14
-15.6
-17.55
-19.18
-20.92
-23.35
-26.94
-31.75
-37.28
-42.57
-46.33
-47.43
-45.18
-39.65
-31.53
-21.93
-12.03
-2.69
5.57
12.54
18.19
22.48
25.34
26.82
27.12
26.72
26.24
26.22
26.97
28.45
30.3
32.06
33.34
33.97
33.98
33.45
32.45
30.94
28.8
25.9
22.29
18.15
13.8
9.59
5.7
2.11
-1.45
-5.37
-10.04
-15.71
-22.44
-30.07
-38.09
-45.63
-51.52
-54.52
-53.72
-48.93
-40.79
-30.66
-20.17
-10.66
-2.88
3.08
7.5
10.65
12.65
13.46
13.11
11.81
10.07
8.47
7.53
7.47
8.16
9.27
10.44
11.43
12.19
12.77
13.13
13.11
12.43
10.82
8.13
4.41
-0.09
-5.02
-9.96
-14.68
-19.07
-23.26
-27.53
-32.24
-37.63
-43.64
-49.8
-55.16
-58.56
-58.83
-55.3
-47.98
-37.62
-25.52
-13.12
-1.69
7.97
15.5
20.95
24.48
26.36
26.89
26.48
25.58
24.7
24.26
24.49
25.37
26.58
27.75
28.51
28.64
28.06
26.78
24.75
21.89
18.09
13.36
7.92
2.15
-3.54
-8.81
-13.5
-17.61
-21.38
-25.2
-29.62
-35.15
-42
-49.8
-57.39
-63.11
-65.27
-62.78
-55.54
-44.49
-31.21
-17.4
-4.41
6.88
16.06
22.88
27.25
29.18
28.94
27.13
24.65
22.46
21.29
21.41
22.54
24.09
25.44
26.26
26.53
26.47
26.18
25.5
23.98
21.16
16.85
11.3
5.16
-0.76
-5.86
-9.95
-13.28
-16.43
-20.05
-24.72
-30.72
-37.95
-45.77
-53.06
-58.29
-59.97
-56.98
-49.08
-36.95
-22.12
-6.44
8.39
21.18
31.42
39.03
44.24
47.34
48.7
48.83
48.31
47.72
47.46
47.67
48.22
48.8
49.12
49.05
48.59
47.77
46.52
44.67
41.93
38.09
33.06
27
20.26
13.22
6.32
-0.17
-6.14
-11.68
-17.12
-23.04
-29.99
-38.18
-47.24
-56.01
-62.69
-65.46
-63.05
-55.3
-43.18
-28.5
-13.31
0.72
12.61
22.04
29.12
34.05
36.99
38.05
37.46
35.72
33.56
31.75
30.8
30.81
31.45
32.17
32.48
32.18
31.33
30.1
28.54
26.52
23.78
20.1
15.51
10.25
4.69
-0.77
-5.91
-10.61
-14.94
-19.08
-23.39
-28.31
-34.24
-41.25
-48.83
-55.82
-60.64
-61.8
-58.44
-50.63
-39.35
-26.07
-12.33
0.64
12.04
21.43
28.58
33.4
35.98
36.66
36.07
35
34.12
33.81
34.09
34.62
34.97
34.79
33.95
32.6
30.99
29.33
27.65
25.82
23.61
20.78
17.28
13.15
8.59
3.85
-0.85
-5.37
-9.72
-14.02
-18.53
-23.59
-29.39
-35.78
-42.07
-47.08
-49.42
-47.97
-42.38
-33.25
-21.92
-10.01
1.13
10.77
18.69
24.96
29.62
32.6
33.78
33.27
31.5
29.21
27.18
25.96
25.7
26.09
26.59
26.68
26.04
24.69
22.84
20.75
18.55
16.12
13.3
9.94
6.11
2.09
-1.78
-5.27
-8.33
-11.2
-14.25
-17.89
-22.48
-28.1
-34.49
-40.93
-46.31
-49.37
-49.08
-45.02
-37.53
-27.59
-16.5
-5.43
4.78
13.69
21.09
26.81
30.67
32.6
32.7
31.45
29.52
27.62
26.28
25.63
25.45
25.36
24.99
24.23
23.13
21.88
20.59
19.2
17.49
15.24
12.37
9.01
5.45
1.98
-1.22
-4.18
-7.1
-10.23
-13.85
-18.14
-23.2
-28.9
-34.87
-40.41
-44.54
-46.22
-44.69
-39.66
-31.58
-21.53
-10.86
-0.9
7.42
13.71
17.98
20.48
21.58
21.62
21
20.13
19.49
19.41
19.95
20.85
21.66
21.89
21.27
19.88
17.97
15.89
13.87
11.91
9.89
7.63
5.03
2.1
-1.05
-4.26
-7.39
-10.42
-13.39
-16.47
-19.88
-23.82
-28.39
-33.37
-38.16
-41.81
-43.23
-41.59
-36.63
-28.83
-19.29
-9.32
-0.08
7.75
13.94
18.52
21.59
23.18
23.33
22.22
20.31
18.21
16.52
15.58
15.43
15.78
16.23
16.45
16.3
15.78
14.97
13.9
12.44
10.39
7.58
3.97
-0.23
-4.6
-8.67
-11.99
-14.35
-15.88
-17.06
-18.62
-21.29
-25.48
-31.07
-37.21
-42.53
-45.55
-45.17
-41.1
-33.89
-24.75
-15.04
-5.88
2.07
8.51
13.4
16.72
18.52
18.9
18.18
16.81
15.3
14.02
13.14
12.64
12.45
12.48
12.74
13.24
13.91
14.57
14.88
14.4
12.78
9.84
5.71
0.79
-4.3
-8.92
-12.59
-15.15
-16.82
-18.14
-19.81
-22.48
-26.55
-31.94
-38.06
-43.81
-47.87
-49.07
-46.71
-40.84
-32.22
-22.06
-11.65
-2.04
6.12
12.57
17.28
20.25
21.53
21.24
19.77
17.72
15.8
14.58
14.28
14.63
15.13
15.2
14.54
13.24
11.65
10.12
8.81
7.58
6.15
4.33
2.15
-0.16
-2.32
-4.13
-5.67
-7.2
-9.11
-11.74
-15.27
-19.65
-24.54
-29.29
-33.12
-35.19
-34.85
-31.87
-26.54
-19.56
-11.9
-4.43
2.27
7.98
12.75
16.72
19.99
22.56
24.46
25.79
26.77
27.71
28.8
30.1
31.46
32.63
33.41
33.71
33.55
33
32.05
30.56
28.39
25.42
21.69
17.44
13.01
8.72
4.72
0.96
-2.88
-7.21
-12.46
-18.96
-26.78
-35.6
-44.68
-52.86
-58.77
-61.2
-59.48
-53.74
-44.92
-34.52
-24.1
-14.9
-7.5
-1.95
2.1
5.04
7.13
8.51
9.25
9.43
9.2
8.75
8.23
7.77
7.42
7.15
6.96
6.85
6.84
6.94
7.09
7.14
6.8
5.8
3.98
1.41
-1.53
-4.32
-6.47
-7.76
-8.32
-8.61
-9.23
-10.73
-13.38
-17.03
-21
-24.17
-25.25
-23.14
-17.33
-8.11
3.44
15.74
27.22
36.6
43.15
46.65
47.23
45.34
41.77
37.61
34.17
32.62
33.58
36.77
41.05
44.86
46.82
46.28
43.5
39.4
34.99
30.97
27.45
24.16
20.76
17.04
13.04
8.93
4.81
0.67
-3.62
-8.2
-13.11
-18.36
-23.91
-29.72
-35.63
-41.21
-45.77
-48.34
-48.03
-44.35
-37.44
-28.06
-17.4
-6.62
3.37
11.91
18.58
23.01
24.9
24.12
21.01
16.35
11.32
7.12
4.64
4.3
5.96
9.09
12.89
16.54
19.28
20.64
20.45
18.95
16.57
13.8
11.01
8.35
5.89
3.7
1.95
0.7
-0.27
-1.52
-3.92
-8.25
-14.82
-23.25
-32.48
-41.13
-47.79
-51.44
-51.51
-48
-41.43
-32.77
-23.35
-14.6
-7.69
-3.31
-1.59
-2.1
-4.21
-7.19
-10.4
-13.32
-15.6
-17.06
-17.75
-17.81
-17.42
-16.71
-15.67
-14.22
-12.44
-10.54
-8.9
-7.85
-7.56
-7.96
-8.84
-10.08
-11.63
-13.61
-16.08
-18.98
-22.16
-25.48
-28.94
-32.68
-36.79
-41.05
-44.82
-47.01
-46.54
-42.67
-35.44
-25.7
-14.88
-4.51
4.28
11.03
15.82
18.99
20.86
21.49
20.87
19.03
16.29
13.22
10.51
8.76
8.2
8.78
10.1
11.63
12.82
13.23
12.66
11.09
8.79
6.11
3.34
0.66
-2
-4.74
-7.67
-10.7
-13.64
-16.32
-18.68
-20.87
-23.06
-25.23
-26.94
-27.39
-25.73
-21.44
-14.61
-6.05
3.08
11.62
18.82
24.45
28.67
31.73
33.73
34.58
34.16
32.47
29.84
26.85
24.16
22.27
21.32
21.1
21.22
21.25
20.94
20.25
19.3
18.19
16.91
15.38
13.51
11.34
9.13
7.25
6.02
5.48
5.31
4.92
3.69
1.19
-2.57
-7.17
-11.88
-15.85
-18.39
-19.06
-17.74
-14.66
-10.24
-5.11
0.15
5.05
9.19
12.34
14.28
14.87
14.03
11.75
8.21
3.77
-1.01
-5.47
-9.05
-11.38
-12.43
-12.55
-12.28
-12.18
-12.64
-13.77
-15.37
-17.12
-18.75
-20.21
-21.72
-23.62
-26.17
-29.43
-33.28
-37.5
-41.92
-46.43
-50.81
-54.54
-56.74
-56.36
-52.6
-45.33
-35.26
-23.71
-12.24
-2.1
6.07
12.23
16.75
20.04
22.39
23.89
24.5
24.27
23.41
22.31
21.39
20.94
21.04
21.51
22.06
22.4
22.37
21.88
20.81
19.04
16.42
12.96
8.86
4.55
0.42
-3.37
-7.01
-11.03
-16.07
-22.6
-30.62
-39.58
-48.43
-55.83
-60.51
-61.55
-58.68
-52.36
-43.55
-33.56
-23.55
-14.4
-6.55
-0.12
4.98
8.86
11.67
13.62
14.95
15.94
16.8
17.66
18.54
19.44
20.33
21.24
22.19
23.09
23.74
23.84
23.1
21.34
18.64
15.29
11.65
8.08
4.77
1.76
-1.07
-3.92
-7.08
-10.88
-15.67
-21.5
-27.98
-34.13
-38.53
-39.81
-37.15
-30.66
-21.42
-11.01
-0.94
7.77
14.77
20.09
23.84
26.03
26.53
25.36
22.85
19.68
16.64
14.37
13.13
12.72
12.65
12.41
11.66
10.32
8.43
6.06
3.17
-0.31
-4.44
-9.12
-14.1
-19.03
-23.55
-27.53
-31.05
-34.45
-38.11
-42.3
-46.92
-51.42
-54.77
-55.77
-53.38
-47.08
-37.03
-24.08
-9.52
5.24
18.93
30.6
39.69
46.04
49.8
51.36
51.24
50.03
48.32
46.7
45.66
45.49
46.09
46.94
47.19
46.05
43.17
38.91
34.2
30.06
26.98
24.74
22.43
19.09
14.19
7.93
0.87
-6.48
-14.06
-22.19
-31.11
-40.45
-48.91
-54.6
-55.77
-51.54
-42.33
-29.62
-15.44
-1.6
10.65
20.82
28.84
34.83
38.91
41.15
41.77
41.13
39.82
38.47
37.64
37.62
38.36
39.54
40.59
40.91
40
37.62
33.86
29.1
23.9
18.84
14.31
10.43
7.02
3.67
-0.1
-4.75
-10.52
-17.42
-25.04
-32.64
-39.13
-43.3
-44.11
-40.98
-34.04
-24.14
-12.66
-1.14
9.1
17.19
22.86
26.26
27.83
28.08
27.47
26.38
25.09
23.79
22.66
21.8
21.3
21.1
21.03
20.77
19.99
18.42
15.98
12.78
9.06
5.14
1.3
-2.23
-5.37
-8.16
-10.84
-13.77
-17.35
-21.89
-27.39
-33.51
-39.49
-44.34
-46.95
-46.41
-42.31
-34.87
-25.07
-14.3
-4.07
4.51
10.89
15.14
17.61
18.66
18.54
17.34
15.3
12.83
10.51
8.8
7.85
7.4
6.97
6.18
4.98
3.61
2.38
1.41
0.48
-0.89
-3.12
-6.38
-10.42
-14.76
-18.93
-22.72
-26.28
-29.99
-34.36
-39.7
-45.92
-52.46
-58.19
-61.7
-61.58
-57.03
-48.08
-35.72
-21.59
-7.49
5.13
15.46
23.27
28.76
32.23
33.96
34.19
33.18
31.36
29.25
27.4
26.24
25.91
26.34
27.25
28.37
29.45
30.32
30.82
30.82
30.13
28.65
26.44
23.71
20.75
17.73
14.62
11.1
6.8
1.44
-4.9
-11.79
-18.42
-23.87
-27.25
-27.93
-25.67
-20.67
-13.56
-5.26
3.23
11
17.45
22.26
25.5
27.45
28.48
28.97
29.2
29.27
29.17
28.77
27.94
26.61
24.86
22.94
21.17
19.85
19.1
18.76
18.43
17.6
15.91
13.27
9.89
6.13
2.4
-1.02
-4
-6.58
-8.96
-11.49
-14.52
-18.24
-22.41
-26.27
-28.7
-28.56
-25.17
-18.52
-9.29
1.44
12.53
22.91
31.56
37.5
39.85
38.11
32.53
24.17
14.68
5.72
-1.52
-6.71
-10.17
-12.58
-14.53
-16.33
-18.03
-19.6
-21.01
-22.24
-23.17
-23.51
-23
-21.53
-19.33
-16.96
-15.07
-14.22
-14.68
-16.45
-19.34
-23.1
-27.33
-31.49
-34.87
-36.71
-36.56
-34.41
-30.77
-26.41
-22.09
-18.3
-15.21
-12.82
-11.15
-10.27
-10.29
-11.12
-12.47
-13.82
-14.67
-14.69
-13.84
-12.3
-10.41
-8.5
-6.88
-5.74
-5.16
-5.12
-5.5
-6.12
-6.78
-7.44
-8.21
-9.29
-10.88
-13.03
-15.62
-18.43
-21.29
-24.15
-27.06
-29.96
-32.44
-33.79
-33.18
-30.09
-24.57
-17.35
-9.49
-2.03
4.35
9.41
13.18
15.71
17.03
17.18
16.38
15.06
13.77
12.9
12.56
12.58
12.71
12.81
12.92
13.22
13.79
14.51
15.1
15.19
14.59
13.31
11.57
9.69
7.95
6.54
5.55
4.94
4.57
4.12
3.21
1.55
-0.82
-3.34
-4.98
-4.59
-1.35
4.85
13.26
22.63
31.65
39.34
45.35
49.81
53.13
55.75
58.02
60.05
61.72
62.62
62.2
59.98
55.84
50.2
43.87
37.78
32.51
28.1
24.08
19.83
14.96
9.57
4.22
-0.35
-3.58
-5.35
-6.07
-6.5
-7.47
-9.56
-12.91
-17.11
-21.24
-23.82
-22.91
-16.54
-3.58
15.19
36.4
54.46
63.17
57.96
37.77
5.58
-32.67
-70.2
-101.41
-123.01
-133.91
-134.52
-126.02
-110.14
-89.25
-66.3
-44.47
-26.33
-13.17
-4.77
0.16
3.27
5.76
8.02
9.69
10.09
8.65
5.23
0.15
-5.93
-12.29
-18.33
-23.64
-28.11
-31.87
-35.2
-38.4
-41.61
-44.61
-46.8
-47.36
-45.57
-41.09
-34.11
-25.37
-15.94
-6.9
0.91
7.04
11.39
14.1
15.46
15.82
15.6
15.3
15.42
16.4
18.42
21.34
24.72
27.98
30.56
32.05
32.32
31.46
29.74
27.47
24.98
22.43
19.84
17.05
13.83
10.02
5.62
0.78
-4.31
-9.48
-14.56
-19.3
-23.17
-25.43
-25.25
-22.05
-15.83
-7.2
2.7
12.63
21.55
28.9
34.68
39.22
42.92
45.93
48.11
49.1
48.6
46.63
43.63
40.27
37.07
34.11
30.89
26.71
20.99
13.7
5.39
-3.02
-10.65
-17.02
-22.04
-25.96
-29.06
-31.54
-33.51
-35.14
-36.73
-38.72
-41.46
-44.91
-48.52
-51.15
-51.46
-48.39
-41.59
-31.61
-19.72
-7.48
3.73
13
19.96
24.62
27.14
27.77
26.77
24.5
21.47
18.34
15.68
13.95
13.3
13.63
14.64
15.95
17.24
18.27
18.87
18.94
18.41
17.35
15.96
14.54
13.35
12.49
11.76
10.7
8.65
4.95
-0.79
-8.57
-17.77
-27.22
-35.31
-40.43
-41.43
-38.01
-30.82
-21.23
-10.86
-1.13
7.05
13.36
17.8
20.58
21.9
21.99
21.09
19.56
17.8
16.18
14.94
14.2
13.94
14.05
14.35
14.67
14.77
14.41
13.34
11.41
8.64
5.23
1.55
-2.01
-5.21
-8.04
-10.72
-13.62
-17.13
-21.58
-27.03
-33.21
-39.38
-44.44
-47.16
-46.59
-42.37
-34.96
-25.4
-15.01
-4.98
3.93
11.35
17.19
21.42
24.06
25.17
24.96
23.84
22.31
20.85
19.76
19.14
18.9
18.85
18.75
18.35
17.42
15.78
13.32
10
5.88
1.15
-3.92
-8.97
-13.68
-17.81
-21.3
-24.36
-27.39
-30.92
-35.45
-41.17
-47.8
-54.46
-59.85
-62.56
-61.45
-56.07
-46.77
-34.64
-21.17
-7.79
4.45
14.96
23.56
30.26
35.13
38.3
39.94
40.45
40.34
40.13
40.21
40.7
41.55
42.63
43.85
45.2
46.56
47.67
48.11
47.4
45.25
41.67
36.85
31.14
24.8
18.01
10.92
3.68
-3.49
-10.38
-16.92
-23.19
-29.23
-34.79
-39.19
-41.38
-40.38
-35.74
-27.84
-17.85
-7.34
2.29
10.16
15.97
19.85
21.99
22.6
21.88
20.14
17.92
15.89
14.54
14.05
14.23
14.61
14.72
14.28
13.28
11.91
10.38
8.86
7.37
5.83
4.12
2.15
-0.13
-2.64
-5.25
-7.78
-10.05
-12
-13.72
-15.52
-17.83
-20.95
-24.85
-28.97
-32.35
-33.89
-32.77
-28.83
-22.64
-15.31
-8.07
-1.85
2.89
6.22
8.34
9.47
9.63
8.79
7.03
4.69
2.3
0.39
-0.72
-1.07
-1.02
-0.98
-1.3
-2.05
-3.15
-4.49
-6.04
-7.9
-10.2
-13.01
-16.24
-19.63
-22.79
-25.39
-27.25
-28.43
-29.28
-30.3
-32.07
-34.99
-39.09
-43.9
-48.39
-51.19
-50.96
-46.8
-38.66
-27.36
-14.38
-1.4
10.25
19.83
27.17
32.47
35.93
37.67
37.79
36.52
34.36
32.03
30.28
29.54
29.83
30.76
31.74
32.19
31.84
30.69
28.95
26.88
24.62
22.21
19.56
16.56
13.18
9.51
5.76
2.17
-1.12
-4.11
-7.02
-10.17
-13.86
-18.19
-22.83
-27.1
-30.03
-30.68
-28.46
-23.41
-16.15
-7.69
0.85
8.59
15.03
20.03
23.67
26.07
27.31
27.51
26.85
25.68
24.44
23.49
22.92
22.59
22.17
21.31
19.86
17.96
15.93
14.11
12.65
11.45
10.15
8.33
5.7
2.25
-1.75
-5.91
-9.89
-13.53
-16.84
-20.03
-23.3
-26.82
-30.58
-34.41
-37.86
-40.26
-40.82
-38.82
-33.96
-26.56
-17.51
-8.09
0.44
7.22
11.9
14.55
15.45
14.88
13.14
10.59
7.73
5.14
3.32
2.52
2.61
3.22
3.96
4.64
5.27
5.9
6.55
6.97
6.82
5.84
3.97
1.45
-1.35
-4.09
-6.66
-9.08
-11.49
-13.89
-16.21
-18.43
-20.68
-23.28
-26.57
-30.55
-34.67
-37.86
-38.84
-36.69
-31.18
-22.99
-13.41
-3.89
4.42
10.9
15.46
18.26
19.53
19.45
18.2
16.07
13.48
10.92
8.84
7.52
6.96
7.02
7.43
7.9
8.22
8.18
7.67
6.59
4.92
2.7
0.02
-2.94
-5.98
-8.87
-11.47
-13.74
-15.79
-17.86
-20.32
-23.47
-27.52
-32.29
-37.28
-41.53
-43.93
-43.46
-39.59
-32.51
-23.13
-12.81
-2.95
5.44
11.88
16.4
19.29
20.84
21.33
21.02
20.32
19.71
19.65
20.35
21.64
22.99
23.83
23.75
22.8
21.36
19.93
18.79
17.86
16.74
14.94
12.22
8.63
4.57
0.53
-3.13
-6.34
-9.4
-12.79
-17.06
-22.54
-29.23
-36.7
-44.1
-50.28
-54.02
-54.3
-50.58
-43.02
-32.41
-20.05
-7.34
4.57
15.02
23.84
31.13
36.96
41.15
43.36
43.25
40.84
36.54
31.1
25.33
19.88
15.12
11.16
7.97
5.5
3.69
2.52
1.88
1.54
1.11
0.18
-1.57
-4.15
-7.3
-10.4
-12.86
-14.31
-14.91
-15.3
-16.33
-18.66
-22.33
-26.65
-30.33
-31.95
-30.46
-25.53
-17.75
-8.34
1.13
9.31
15.36
19.09
20.77
20.89
19.87
18.03
15.6
12.82
10.08
7.79
6.28
5.67
5.82
6.43
7.18
7.84
8.32
8.6
8.63
8.29
7.36
5.67
3.14
-0.13
-3.8
-7.36
-10.17
-11.77
-12
-11.11
-9.81
-9.02
-9.64
-12.15
-16.36
-21.26
-25.27
-26.71
-24.33
-17.85
-8.01
3.65
15.28
25.37
33
37.92
40.28
40.39
38.57
35.2
30.79
26.07
21.8
18.66
17
16.78
17.56
18.74
19.75
20.26
20.25
19.88
19.4
18.9
18.24
17.09
15.12
12.14
8.3
4.04
-0.04
-3.45
-6.01
-7.96
-9.86
-12.42
-16.13
-21.05
-26.62
-31.78
-35.29
-36.11
-33.72
-28.27
-20.56
-11.75
-3.04
4.53
10.28
13.88
15.29
14.74
12.62
9.49
6.02
2.87
0.55
-0.7
-0.9
-0.24
0.99
2.51
4.03
5.25
5.86
5.56
4.18
1.78
-1.35
-4.85
-8.31
-11.45
-14.24
-16.83
-19.61
-23.06
-27.67
-33.69
-40.91
-48.51
-55.17
-59.43
-60.15
-56.97
-50.34
-41.42
-31.66
-22.39
-14.53
-8.51
-4.45
-2.17
-1.4
-1.75
-2.71
-3.75
-4.37
-4.27
-3.36
-1.73
0.4
2.74
4.98
6.85
8.07
8.44
7.76
5.88
2.72
-1.64
-6.81
-12.04
-16.34
-18.73
-18.74
-16.63
-13.45
-10.76
-10.03
-12.11
-16.87
-23.21
-29.4
-33.57
-34.23
-30.72
-23.31
-13.11
-1.65
9.51
19.15
26.56
31.46
33.94
34.33
33.18
31.22
29.17
27.58
26.64
26.08
25.43
24.25
22.36
19.93
17.28
14.68
12.18
9.71
7.13
4.39
1.56
-1.27
-4.11
-7.03
-10.17
-13.66
-17.63
-22.25
-27.76
-34.35
-41.91
-49.81
-56.78
-61.17
-61.47
-56.83
-47.43
-34.42
-19.55
-4.63
8.94
20.29
29.01
34.95
38.05
38.37
36.21
32.21
27.29
22.51
18.72
16.34
15.35
15.38
15.9
16.42
16.61
16.23
15.18
13.44
11.08
8.17
4.83
1.08
-3.04
-7.52
-12.28
-17.18
-22.17
-27.34
-32.94
-39.25
-46.19
-53.14
-58.86
-61.82
-60.65
-54.7
-44.29
-30.64
-15.5
-0.64
12.58
23.39
31.54
37.11
40.23
41.1
39.99
37.46
34.31
31.42
29.48
28.75
28.96
29.48
29.7
29.16
27.73
25.47
22.48
18.86
14.75
10.41
6.23
2.61
-0.2
-2.26
-3.92
-5.72
-8.23
-11.85
-16.69
-22.42
-28.33
-33.35
-36.27
-36.06
-32.13
-24.57
-14.16
-2.18
9.97
21.1
30.45
37.82
43.36
47.43
50.34
52.3
53.44
53.83
53.62
53
52.2
51.38
50.62
49.89
49.06
47.93
46.29
43.93
40.71
36.57
31.57
25.9
19.8
13.58
7.54
1.93
-3.14
-7.69
-11.91
-16.11
-20.61
-25.59
-30.88
-35.87
-39.6
-41.03
-39.34
-34.28
-26.34
-16.55
-6.23
3.35
11.28
17.12
20.84
22.71
23.15
22.51
21.15
19.35
17.43
15.74
14.63
14.34
14.9
16.03
17.21
17.89
17.69
16.52
14.62
12.3
9.81
7.21
4.42
1.36
-2.01
-5.64
-9.47
-13.53
-17.97
-22.93
-28.35
-33.83
-38.5
-41.22
-40.85
-36.72
-28.9
-18.29
-6.4
5.12
14.96
22.44
27.49
30.46
31.83
32.01
31.25
29.83
28.06
26.31
24.92
24.07
23.73
23.73
23.83
23.76
23.33
22.44
20.98
18.92
16.25
13
9.26
5.17
0.92
-3.33
-7.44
-11.42
-15.36
-19.49
-24.03
-29.03
-34.19
-38.76
-41.68
-41.87
-38.62
-31.95
-22.66
-12.07
-1.64
7.5
14.78
20.15
23.8
26.01
27.01
26.92
25.97
24.46
22.77
21.33
20.47
20.34
20.96
22.13
23.53
24.72
25.23
24.69
22.95
20.14
16.64
13
9.7
7.04
5.06
3.51
2.04
0.21
-2.32
-5.72
-9.88
-14.29
-18.06
-20.06
-19.21
-14.88
-7.2
2.94
14.01
24.4
32.81
38.56
41.6
42.27
40.99
38.07
33.76
28.36
22.4
16.61
11.71
8.25
6.28
5.45
5.13
4.73
3.97
2.86
1.63
0.49
-0.52
-1.57
-2.93
-4.8
-7.19
-9.9
-12.65
-15.24
-17.73
-20.43
-23.77
-28.15
-33.54
-39.4
-44.64
-47.92
-48.06
-44.45
-37.33
-27.71
-17.1
-7.02
1.38
7.48
11.16
12.6
12.17
10.27
7.41
4.16
1.18
-0.98
-1.99
-1.85
-0.88
0.45
1.66
2.5
2.95
3.15
3.26
3.28
3.08
2.4
1.05
-0.99
-3.5
-6.14
-8.56
-10.54
-12.14
-13.65
-15.56
-18.33
-22.22
-27
-31.99
-36.09
-38.17
-37.42
-33.67
-27.5
-20
-12.42
-5.8
-0.76
2.54
4.26
4.66
4.05
2.77
1.16
-0.38
-1.51
-2.01
-1.81
-1.01
0.15
1.48
2.83
4.05
5.07
5.73
5.85
5.21
3.7
1.38
-1.47
-4.38
-6.86
-8.61
-9.7
-10.57
-11.85
-14.18
-17.89
-22.78
-28.14
-32.89
-35.77
-35.74
-32.27
-25.5
-16.3
-6
3.98
12.44
18.7
22.65
24.5
24.63
23.45
21.36
18.75
16.08
13.8
12.22
11.47
11.37
11.6
11.74
11.53
10.82
9.67
8.12
6.16
3.75
0.81
-2.57
-6.17
-9.63
-12.66
-15.1
-17.07
-18.93
-21.12
-24.07
-28.05
-32.98
-38.41
-43.41
-46.79
-47.4
-44.48
-38.03
-28.83
-18.28
-7.91
1.07
8.03
12.94
16.03
17.62
17.9
16.96
15
12.44
9.8
7.63
6.3
5.89
6.22
7
7.88
8.58
8.85
8.49
7.37
5.48
2.93
-0.07
-3.25
-6.46
-9.65
-12.88
-16.27
-19.87
-23.72
-27.79
-32.14
-36.86
-41.97
-47.19
-51.83
-54.82
-55.06
-51.84
-45.24
-36.24
-26.31
-16.97
-9.21
-3.39
0.66
3.3
4.84
5.53
5.62
5.53
5.85
7.15
9.78
13.67
18.38
23.27
27.69
31.22
33.69
35.13
35.58
35.05
33.5
30.94
27.53
23.65
19.76
16.28
13.39
10.99
8.78
6.42
3.53
-0.15
-4.82
-10.43
-16.58
-22.35
-26.41
-27.37
-24.3
-17.08
-6.56
5.84
18.57
30.31
40.15
47.41
51.48
51.84
48.3
41.27
31.85
21.61
12.14
4.64
-0.35
-2.85
-3.32
-2.39
-0.74
0.81
1.53
0.77
-1.73
-5.81
-10.9
-16.21
-20.9
-24.33
-26.14
-26.32
-25.25
-23.58
-22.13
-21.59
-22.46
-24.76
-28.06
-31.54
-34.07
-34.56
-32.2
-26.72
-18.5
-8.58
1.65
10.86
18.1
23.02
25.75
26.7
26.31
24.94
22.9
20.46
17.99
15.82
14.19
13.18
12.71
12.59
12.61
12.58
12.39
11.96
11.18
9.91
8.01
5.4
2.21
-1.33
-4.87
-8.08
-10.86
-13.43
-16.22
-19.79
-24.47
-30.09
-35.89
-40.63
-42.99
-42.04
-37.52
-29.95
-20.42
-10.23
-0.5
7.99
14.85
19.99
23.44
25.28
25.67
24.84
23.13
21
18.93
17.32
16.41
16.2
16.5
16.98
17.29
17.15
16.42
14.97
12.82
10.04
6.78
3.27
-0.27
-3.69
-6.97
-10.15
-13.36
-16.74
-20.47
-24.75
-29.69
-35.09
-40.33
-44.32
-45.72
-43.49
-37.25
-27.61
-15.99
-4.12
6.47
14.91
21.09
25.37
28.28
30.22
31.35
31.71
31.36
30.55
29.59
28.78
28.24
27.9
27.58
27.2
26.79
26.46
26.2
25.85
25
23.28
20.47
16.7
12.38
8
3.88
0.06
-3.65
-7.68
-12.41
-18.11
-24.78
-31.99
-38.88
-44.21
-46.65
-45.22
-39.68
-30.7
-19.7
-8.41
1.66
9.56
15.01
18.26
19.74
19.88
19.09
17.68
16.04
14.53
13.42
12.78
12.43
12.04
11.31
10.13
8.58
6.88
5.26
3.81
2.47
1.08
-0.52
-2.42
-4.63
-7.06
-9.62
-12.32
-15.24
-18.61
-22.65
-27.5
-33.04
-38.8
-43.88
-47.17
-47.59
-44.48
-37.79
-28.18
-16.89
-5.4
4.96
13.33
19.42
23.4
25.67
26.66
26.79
26.49
26.2
26.32
27.08
28.33
29.64
30.37
30.1
28.7
26.49
23.92
21.3
18.64
15.72
12.3
8.38
4.29
0.5
-2.52
-4.59
-5.88
-6.78
-7.91
-9.85
-13.09
-17.73
-23.45
-29.38
-34.22
-36.64
-35.63
-30.95
-23.22
-13.66
-3.75
5.31
12.78
18.46
22.45
25
26.3
26.53
25.85
24.55
23.01
21.67
20.9
20.87
21.48
22.46
23.42
24.05
24.15
23.64
22.55
20.98
19.03
16.86
14.61
12.45
10.48
8.78
7.34
6.11
4.96
3.64
1.84
-0.76
-4.24
-8.37
-12.42
-15.38
-16.25
-14.46
-10.11
-3.95
2.84
9.16
14.24
17.82
20.02
21.08
21.2
20.38
18.65
16.17
13.37
10.83
9.08
8.38
8.57
9.18
9.6
9.43
8.56
7.18
5.56
3.91
2.16
0.13
-2.32
-5.12
-8
-10.63
-12.86
-14.85
-16.95
-19.63
-23.12
-27.34
-31.88
-36.11
-39.31
-40.8
-40.06
-36.82
-31.21
-23.79
-15.42
-7.04
0.59
7.08
12.34
16.4
19.27
20.86
21.09
20.04
18.05
15.71
13.61
12.21
11.67
11.89
12.59
13.43
14.21
14.68
14.66
13.92
12.28
9.68
6.31
2.54
-1.14
-4.32
-6.82
-8.75
-10.51
-12.64
-15.62
-19.73
-24.83
-30.43
-35.66
-39.52
-41.09
-39.77
-35.52
-28.83
-20.66
-12.16
-4.39
1.94
6.57
9.65
11.51
12.48
12.8
12.57
11.94
11.1
10.41
10.18
10.61
11.59
12.81
13.81
14.26
14.01
13.15
11.91
10.53
9.09
7.54
5.77
3.75
1.56
-0.59
-2.47
-3.99
-5.29
-6.79
-9.02
-12.42
-17.14
-22.78
-28.52
-33.18
-35.64
-35.17
-31.67
-25.66
-18.15
-10.27
-2.97
3.07
7.61
10.65
12.37
13
12.81
12.06
11.04
10.05
9.39
9.27
9.74
10.66
11.73
12.66
13.24
13.47
13.44
13.19
12.59
11.38
9.31
6.35
2.79
-0.83
-3.91
-6.11
-7.4
-8.1
-8.7
-9.76
-11.67
-14.56
-18.19
-21.88
-24.66
-25.56
-23.88
-19.55
-13.08
-5.37
2.59
10.06
16.65
22.08
26.11
28.34
28.37
26.01
21.58
15.88
10.06
5.18
1.85
0.16
-0.35
-0.31
-0.26
-0.44
-0.82
-1.29
-1.83
-2.61
-3.89
-5.84
-8.48
-11.62
-14.98
-18.36
-21.72
-25.13
-28.77
-32.7
-36.87
-41.01
-44.63
-47.15
-47.9
-46.39
-42.43
-36.22
-28.32
-19.48
-10.48
-1.93
5.74
12.26
17.39
20.98
22.94
23.35
22.47
20.68
18.37
15.85
13.31
10.8
8.31
5.87
3.53
1.43
-0.24
-1.38
-2.03
-2.39
-2.78
-3.49
-4.68
-6.35
-8.32
-10.4
-12.45
-14.45
-16.58
-19.08
-22.3
-26.48
-31.66
-37.41
-42.83
-46.6
-47.39
-44.35
-37.44
-27.49
-15.96
-4.46
5.7
13.8
19.66
23.45
25.48
26.09
25.57
24.3
22.66
21.09
19.91
19.37
19.48
20.05
20.79
21.32
21.37
20.75
19.43
17.49
15.06
12.26
9.2
5.97
2.62
-0.74
-4.05
-7.23
-10.28
-13.25
-16.37
-19.96
-24.34
-29.61
-35.41
-40.89
-44.8
-45.9
-43.38
-37.22
-28.15
-17.42
-6.41
3.76
12.35
19.07
23.89
26.92
28.39
28.52
27.63
26.1
24.37
22.9
22
21.71
21.77
21.74
21.18
19.95
18.18
16.19
14.26
12.46
10.66
8.72
6.67
4.72
3.13
1.97
1.03
-0.23
-2.4
-5.9
-10.89
-17.17
-24.27
-31.37
-37.39
-41.16
-41.63
-38.33
-31.46
-22.07
-11.61
-1.54
7.08
13.84
18.84
22.43
24.96
26.64
27.52
27.7
27.34
26.74
26.19
25.89
25.82
25.83
25.73
25.43
24.98
24.43
23.75
22.72
21.05
18.51
15.17
11.41
7.67
4.35
1.54
-0.95
-3.44
-6.23
-9.53
-13.54
-18.34
-23.83
-29.53
-34.5
-37.58
-37.76
-34.66
-28.74
-21.13
-13.14
-5.78
0.43
5.44
9.29
11.98
13.37
13.37
12.07
9.84
7.25
4.85
3.13
2.38
2.74
4.14
6.36
9.09
12.06
15.12
18.25
21.48
24.7
27.61
29.8
30.96
31.1
30.57
29.91
29.55
29.48
29.27
28.12
25.26
20.27
13.31
5.14
-3
-9.66
-13.55
-13.92
-10.85
-5.28
1.2
6.94
10.78
12.41
12.36
11.6
10.89
10.56
10.39
10.03
9.3
8.37
7.59
7.2
7.14
7.01
6.39
5.05
3.17
1.14
-0.63
-2.03
-3.28
-4.82
-7.06
-10.1
-13.69
-17.32
-20.5
-22.99
-24.97
-27
-29.71
-33.54
-38.37
-43.51
-47.81
-50
-49.09
-44.63
-36.9
-26.77
-15.54
-4.56
5.05
12.62
17.93
21.17
22.68
22.84
21.99
20.42
18.46
16.52
15.01
14.23
14.23
14.79
15.59
16.28
16.68
16.71
16.33
15.54
14.25
12.43
10.13
7.48
4.68
1.97
-0.55
-2.85
-5.07
-7.46
-10.34
-13.95
-18.26
-22.79
-26.64
-28.62
-27.78
-23.66
-16.54
-7.29
2.95
13
21.94
28.99
33.62
35.44
34.41
30.85
25.45
19.16
12.85
7.18
2.44
-1.34
-4.28
-6.5
-8.19
-9.51
-10.69
-12
-13.65
-15.69
-18.02
-20.38
-22.49
-24.15
-25.35
-26.19
-26.83
-27.4
-28.01
-28.83
-30.13
-32.29
-35.5
-39.57
-43.67
-46.53
-46.85
-43.79
-37.4
-28.58
-18.8
-9.56
-1.89
3.78
7.59
9.97
11.4
12.24
12.74
13.01
13.15
13.25
13.38
13.61
13.98
14.45
14.93
15.33
15.58
15.69
15.74
15.74
15.62
15.18
14.19
12.49
10.14
7.41
4.75
2.58
1.12
0.25
-0.46
-1.58
-3.64
-6.84
-10.89
-15.06
-18.33
-19.72
-18.6
-14.77
-8.58
-0.74
7.89
16.43
24.21
30.81
36.03
39.91
42.51
43.88
44.1
43.21
41.3
38.43
34.66
29.99
24.49
18.35
11.98
5.91
0.68
-3.46
-6.56
-9.05
-11.47
-14.24
-17.56
-21.32
-25.18
-28.7
-31.41
-32.95
-33.17
-32.27
-30.83
-29.62
-29.3
-30.08
-31.49
-32.39
-31.45
-27.64
-20.73
-11.38
-0.91
9.27
18.12
25.29
30.87
35.09
38.04
39.58
39.56
38.1
35.78
33.44
31.95
31.87
33.38
36.29
40.19
44.43
48.16
50.39
50.19
47.08
41.23
33.53
25.18
17.23
10.24
4.18
-1.21
-6.09
-10.37
-13.84
-16.47
-18.73
-21.39
-25.16
-30.17
-35.72
-40.43
-42.73
-41.57
-36.74
-28.98
-19.57
-9.89
-0.98
6.6
12.6
16.92
19.46
20.12
18.92
16.13
12.3
8.09
4.21
1.24
-0.48
-0.85
-0.02
1.57
3.24
4.24
3.95
2.1
-1.12
-5.14
-9.29
-13.06
-16.27
-19.09
-21.83
-24.75
-27.98
-31.5
-35.35
-39.62
-44.32
-49.16
-53.37
-55.82
-55.36
-51.32
-43.77
-33.66
-22.4
-11.47
-2.01
5.42
10.74
14.2
16.18
16.97
16.86
16.12
14.95
13.57
12.18
10.93
9.88
9.06
8.49
8.11
7.83
7.5
6.85
5.61
3.55
0.58
-3.17
-7.49
-12.06
-16.67
-21.13
-25.37
-29.37
-33.21
-37.12
-41.32
-45.84
-50.32
-53.91
-55.5
-54.13
-49.4
-41.7
-32.02
-21.62
-11.55
-2.41
5.49
12
16.89
19.96
21.22
21.04
20.19
19.5
19.47
20.05
20.73
20.9
20.19
18.75
17.1
15.85
15.38
15.6
16.12
16.48
16.44
16.07
15.65
15.41
15.34
15.12
14.19
11.95
7.89
1.67
-6.7
-16.76
-27.51
-37.5
-45.07
-48.86
-48.16
-43.23
-35.16
-25.5
-15.74
-6.95
0.37
6.19
10.74
14.27
17.05
19.2
20.78
21.78
22.16
21.85
20.86
19.25
17.15
14.82
12.52
10.57
9.15
8.29
7.84
7.49
7.01
6.23
5.15
3.81
2.25
0.41
-1.85
-4.61
-7.84
-11.39
-15
-18.29
-20.85
-22.12
-21.52
-18.68
-13.59
-6.86
0.49
7.23
12.47
15.98
18.24
20.17
22.71
26.39
31.14
36.42
41.45
45.53
48.14
49.08
48.41
46.36
43.34
39.77
36.07
32.5
29.16
25.92
22.52
18.78
14.6
10.13
5.62
1.35
-2.43
-5.62
-8.27
-10.53
-12.71
-15.16
-18.19
-21.97
-26.33
-30.74
-34.29
-35.99
-34.99
-30.97
-24.27
-15.84
-6.96
1.14
7.6
12.06
14.62
15.62
15.54
14.82
13.8
12.81
12.08
11.79
11.99
12.61
13.44
14.13
14.2
13.27
11.08
7.66
3.39
-1.16
-5.4
-8.9
-11.54
-13.43
-14.82
-16
-17.26
-19
-21.61
-25.34
-30.04
-35.02
-39.12
-41.09
-39.95
-35.5
-28.3
-19.48
-10.33
-1.89
5.2
10.72
14.71
17.29
18.62
18.83
18.15
16.86
15.34
13.95
12.97
12.56
12.66
13.08
13.49
13.56
13.04
11.84
10.04
7.83
5.36
2.71
-0.17
-3.41
-7.14
-11.44
-16.37
-21.9
-28.03
-34.62
-41.37
-47.63
-52.49
-54.94
-54.21
-49.98
-42.68
-33.29
-23.12
-13.46
-5.24
1.07
5.42
8.05
9.3
9.54
9.1
8.33
7.51
6.87
6.59
6.81
7.58
8.88
10.55
12.36
13.98
15.07
15.39
14.79
13.3
11.02
8.19
5.09
2.02
-0.77
-3.12
-5.08
-6.97
-9.25
-12.41
-16.57
-21.32
-25.64
-28.2
-27.87
-24.18
-17.5
-8.96
0.08
8.45
15.42
20.66
24.11
25.79
25.74
24.03
20.96
16.94
12.49
8.13
4.29
1.26
-0.85
-2.11
-2.82
-3.35
-4.09
-5.32
-7.18
-9.62
-12.47
-15.38
-17.75
-18.92
-18.38
-16.05
-12.51
-8.86
-6.33
-5.77
-7.22
-9.82
-12.13
-12.65
-10.39
-5.14
2.54
11.59
20.74
28.89
35.26
39.46
41.49
41.61
40.17
37.61
34.26
30.47
26.58
22.94
19.93
17.78
16.54
15.94
15.52
14.79
13.45
11.5
9.22
7
5.16
3.87
3.03
2.41
1.71
0.68
-0.87
-3.09
-6.03
-9.73
-14.14
-19.11
-24.32
-29.23
-33.13
-35.26
-35.03
-32.19
-27.01
-20.21
-12.79
-5.73
0.25
4.83
8.01
9.98
10.89
10.93
10.25
9.15
8.1
7.73
8.61
11.03
14.84
19.44
23.94
27.54
29.78
30.69
30.7
30.34
29.97
29.6
28.96
27.69
25.54
22.49
18.63
14.08
8.89
3.1
-3.07
-9.03
-13.92
-16.85
-17.23
-15.02
-10.7
-5.06
1.13
7.33
13.24
18.68
23.4
27.05
29.18
29.49
27.95
24.92
20.99
16.84
13.11
10.24
8.45
7.64
7.57
7.79
7.87
7.46
6.36
4.58
2.27
-0.33
-2.95
-5.39
-7.54
-9.32
-10.76
-11.95
-13.06
-14.31
-15.98
-18.23
-21.03
-24.03
-26.52
-27.58
-26.44
-22.7
-16.61
-8.93
-0.77
6.84
13.19
17.97
21.19
22.91
23.1
21.65
18.49
13.76
8.01
2.08
-3.02
-6.45
-7.85
-7.44
-5.9
-4.1
-2.79
-2.33
-2.75
-3.96
-5.91
-8.6
-11.99
-15.94
-20.06
-23.91
-27.18
-29.87
-32.27
-34.79
-37.65
-40.63
-43.08
-44.02
-42.57
-38.21
-30.98
-21.54
-10.96
-0.45
8.99
16.69
22.4
26.15
28.01
