-6.61
-11.15
-15.79
-20.89
-26.57
-32.55
-38.01
-41.78
-42.62
-39.63
-32.6
-22.07
-9.3
4.14
16.67
27.13
34.92
39.96
42.56
43.22
42.46
40.77
38.58
36.31
34.27
32.74
31.86
31.59
31.73
31.99
31.98
31.38
29.97
27.68
24.6
20.92
16.9
12.79
8.8
5.04
1.5
-2.03
-5.83
-10.25
-15.57
-21.71
-28.2
-34.03
-37.85
-38.29
-34.43
-26.17
-14.36
-0.61
13.16
25.22
34.49
40.61
43.92
45.03
44.59
43.12
41
38.59
36.3
34.59
33.77
33.93
34.76
35.73
36.19
35.67
33.95
31.16
27.6
23.64
19.56
15.45
11.33
7.05
2.5
-2.45
-7.88
-13.9
-20.47
-27.36
-34.02
-39.57
-42.96
-43.26
-39.99
-33.37
-24.35
-14.27
-4.48
4.02
10.81
15.98
19.84
22.68
24.67
25.79
26.06
25.61
24.75
23.88
23.36
23.39
23.96
24.9
25.92
26.73
27.01
26.48
24.99
22.51
19.2
15.33
11.26
7.26
3.57
0.21
-2.96
-6.23
-10
-14.63
-20.22
-26.37
-32.21
-36.5
-38.01
-36
-30.47
-22.24
-12.54
-2.67
6.44
14.25
20.6
25.4
28.56
29.94
29.59
27.8
25.11
22.21
19.69
17.87
16.91
16.75
17.27
18.25
19.37
20.17
20.11
18.77
16.01
12.03
7.32
2.45
-2.09
-6.02
-9.28
-11.99
-14.41
-16.91
-19.86
-23.6
-28.13
-32.99
-37.21
-39.51
-38.72
-34.25
-26.38
-16.22
-5.45
4.27
11.78
16.68
19.25
20.24
20.32
19.98
19.35
18.45
17.35
16.26
15.44
15.05
15.06
15.22
15.25
14.92
14.2
13.18
11.91
10.35
8.39
5.91
2.96
-0.32
-3.68
-6.93
-10.03
-13.08
-16.26
-19.85
-24.01
-28.77
-33.82
-38.5
-41.78
-42.57
-40.04
-34.02
-25.16
-14.77
-4.44
4.58
11.6
16.61
19.96
22.08
23.18
23.28
22.4
20.65
18.42
16.18
14.35
13.15
12.52
12.31
12.35
12.48
12.6
12.48
11.82
10.29
7.68
4.05
-0.26
-4.69
-8.73
-12.14
-15.02
-17.81
-21.05
-25.11
-29.97
-35.13
-39.72
-42.67
-43.05
-40.32
-34.5
-26.18
-16.38
-6.32
2.98
10.82
16.91
21.32
24.27
25.99
26.61
26.28
25.16
23.55
21.82
20.36
19.38
18.85
18.59
18.27
17.63
16.56
15.09
13.25
11.1
8.58
5.65
2.34
-1.22
-4.78
-8.12
-11.12
-13.91
-16.75
-20.01
-23.98
-28.63
-33.53
-37.81
-40.34
-40.08
-36.39
-29.36
-19.83
-9.11
1.36
10.55
17.93
23.56
27.75
30.93
33.39
35.37
37.01
38.52
40.06
41.67
43.27
44.6
45.36
45.23
43.96
41.42
37.56
32.39
25.92
18.16
9.2
-0.59
-10.37
-18.97
-25.13
-28.16
-28.14
-26.07
-23.34
-21.24
-20.62
-21.83
-24.86
-29.38
-34.58
-38.93
-40.41
-37.2
-28.65
-15.74
-0.7
14.09
27.28
38.89
49.67
59.93
68.8
74.42
75.04
70.18
61.03
49.89
39.01
29.66
21.85
14.95
8.37
2.17
-3.05
-6.6
-8.2
-8.12
-7.16
-6.33
-6.42
-7.8
-10.38
-13.66
-17.02
-20.03
-22.61
-25.19
-28.51
-33.23
-39.53
-46.7
-53.23
-57.22
-56.93
-51.45
-40.97
-26.76
-10.7
5.17
19.15
30.22
38.08
42.97
45.59
46.8
47.36
47.85
48.63
49.97
52.09
55.1
58.93
63.35
68.09
72.92
77.65
81.98
85.35
86.92
85.95
82.23
76.37
69.79
64.08
60.52
59.63
61.16
64.22
67.52
69.41
68.06
61.67
49.15
30.76
8.11
-16.14
-39.49
-60.49
-79.31
-97.4
-116.52
-137.55
-159.92
-181.73
-200.42
-213.55
-219.33
-216.86
-206.18
-188.24
-164.88
-138.64
-112.35
-88.49
-68.7
-53.4
-42.02
-33.49
-26.76
-21.13
-16.33
-12.33
-9.11
-6.69
-5.07
-4.24
-4.16
-4.68
-5.67
-7.02
-8.69
-10.63
-12.94
-15.73
-19.3
-23.91
-29.57
-35.72
-41.18
-44.42
-44.08
-39.55
-31.17
-20.15
-8.05
3.69
14.04
22.51
28.9
33.19
35.43
35.81
34.72
32.74
30.59
28.93
28.23
28.68
30.13
32.24
34.62
36.87
38.67
39.68
39.53
37.83
34.31
29.01
22.34
15
7.8
1.28
-4.41
-9.65
-15.07
-21.41
-29.12
-38.15
-47.88
-57.17
-64.64
-69.07
-69.89
-67.17
-61.65
-54.29
-45.93
-36.95
-27.36
-17.11
-6.41
4.01
13.05
19.58
22.93
23.19
21.18
18.11
15.17
13.18
12.42
12.81
14.05
15.87
18.01
20.23
22.19
23.45
23.63
22.5
20.07
16.62
12.61
8.56
4.92
1.84
-0.89
-3.87
-7.99
-14.01
-22.19
-32.04
-42.25
-51.01
-56.62
-57.9
-54.56
-47.18
-36.97
-25.35
-13.59
-2.63
6.98
14.95
21.14
25.48
27.96
28.73
28.11
26.61
24.78
23.15
22
21.4
21.28
21.53
22.17
23.29
24.96
27.06
29.17
30.66
30.95
29.76
27.27
24.07
20.84
18.07
15.82
13.77
11.43
8.38
4.44
-0.32
-5.55
-10.59
-14.54
-16.29
-14.78
-9.45
-0.54
10.82
22.92
33.92
42.4
47.66
49.62
48.63
45.18
39.73
32.76
24.83
16.61
8.85
2.17
-3.14
-7.12
-10.15
-12.75
-15.34
-18.17
-21.21
-24.24
-26.93
-28.92
-29.88
-29.59
-27.99
-25.3
-22.08
-19.09
-17.07
-16.58
-17.92
-21.1
-25.98
-32.25
-39.26
-45.99
-50.98
-52.72
-50.02
-42.55
-31.01
-16.96
-2.33
11.13
22.25
30.59
36.18
39.31
40.34
39.51
37.13
33.63
29.58
25.64
22.36
20.09
18.86
18.5
18.68
19.02
19.19
18.86
17.79
15.83
13
9.52
5.74
1.97
-1.59
-4.92
-8.15
-11.49
-15.11
-19.21
-23.97
-29.38
-35.12
-40.34
-43.76
-44.04
-40.27
-32.36
-21.2
-8.33
4.62
16.45
26.62
35.07
41.85
46.91
50.02
51.09
50.31
48.34
46
44.01
42.63
41.68
40.68
39.21
37.1
34.41
31.27
27.64
23.31
18.03
11.76
4.76
-2.48
-9.42
-15.64
-21.04
-25.78
-30.17
-34.64
-39.6
-45.33
-51.78
-58.34
-63.81
-66.68
-65.57
-59.81
-49.68
-36.39
-21.62
-6.93
6.57
18.32
28.07
35.6
40.63
42.9
42.51
39.99
36.32
32.65
29.95
28.68
28.7
29.4
29.89
29.44
27.55
24.12
19.4
13.83
7.88
1.94
-3.68
-8.8
-13.25
-16.98
-20.04
-22.69
-25.33
-28.41
-32.26
-36.97
-42.19
-47.14
-50.7
-51.6
-48.85
-42.12
-31.89
-19.44
-6.45
5.52
15.39
22.78
27.86
31.03
32.62
32.86
31.91
30.05
27.74
25.6
24.23
24.1
25.39
27.95
31.33
34.86
37.82
39.59
39.82
38.48
35.85
32.34
28.37
24.27
20.25
16.44
12.89
9.54
6.11
2.19
-2.57
-8.16
-13.84
-18.21
-19.54
-16.43
-8.41
3.85
18.61
33.67
46.92
56.79
62.42
63.59
60.58
53.95
44.51
33.09
20.56
7.69
-4.73
-15.88
-24.93
-31.16
-34.18
-34.09
-31.52
-27.48
-23.13
-19.47
-17.19
-16.52
-17.3
-19.09
-21.37
-23.74
-26.04
-28.37
-31.01
-34.26
-38.31
-43.17
-48.66
-54.32
-59.39
-62.74
-63.13
-59.56
-51.75
-40.37
-26.96
-13.46
-1.64
7.44
13.57
17.12
18.78
19.19
18.86
18.15
17.36
16.79
16.61
16.9
17.54
18.34
19.01
19.25
18.86
17.68
15.63
12.73
9.1
4.95
0.54
-3.85
-8.02
-11.84
-15.33
-18.62
-22.03
-25.95
-30.68
-36.18
-41.91
-46.79
-49.44
-48.68
-43.95
-35.64
-25.01
-13.77
-3.57
4.54
10.28
14.03
16.46
18.24
19.79
21.21
22.41
23.25
23.66
23.64
23.33
22.85
22.3
21.72
21.07
20.29
19.3
18.11
16.67
15.03
13.17
11.14
8.93
6.54
3.95
1.09
-2.12
-5.8
-10.07
-14.9
-20.07
-24.99
-28.77
-30.35
-28.88
-24.03
-16.2
-6.43
3.88
13.39
21.1
26.52
29.59
30.51
29.72
27.76
25.24
22.77
20.82
19.65
19.3
19.64
20.44
21.45
22.37
22.86
22.57
21.23
18.77
15.34
11.37
7.3
3.48
0.03
-3.23
-6.54
-10.19
-14.37
-19.18
-24.67
-30.72
-36.93
-42.55
-46.41
-47.32
-44.41
-37.58
-27.65
-16.17
-4.89
4.69
11.76
16.2
18.4
18.88
18.1
16.4
14.02
11.25
8.48
6.15
4.64
4.11
4.48
5.38
6.38
7.04
7.11
6.55
5.42
3.85
1.93
-0.3
-2.81
-5.52
-8.27
-10.94
-13.54
-16.33
-19.71
-24.01
-29.2
-34.62
-39.05
-41.06
-39.54
-34.09
-25.27
-14.35
-2.97
7.43
15.96
22.26
26.41
28.65
29.2
28.22
25.97
22.8
19.26
15.97
13.48
12.09
11.75
12.05
12.44
12.38
11.52
9.82
7.48
4.83
2.13
-0.53
-3.24
-6.2
-9.58
-13.48
-17.92
-23
-28.77
-35.25
-42.01
-48.11
-52.13
-52.66
-48.86
-40.88
-29.96
-17.95
-6.74
2.46
9.3
14.1
17.41
19.57
20.6
20.31
18.59
15.67
12.13
8.76
6.28
5.13
5.32
6.48
7.99
9.17
9.46
8.57
6.53
3.6
0.18
-3.36
-6.8
-10.09
-13.33
-16.76
-20.66
-25.3
-30.76
-36.8
-42.69
-47.29
-49.27
-47.57
-41.77
-32.32
-20.47
-7.88
3.82
13.51
20.69
25.45
28.2
29.39
29.36
28.31
26.4
23.83
20.99
18.34
16.38
15.43
15.51
16.33
17.41
18.18
18.2
17.25
15.33
12.59
9.28
5.63
1.91
-1.67
-5.02
-8.24
-11.69
-15.89
-21.28
-27.89
-35.11
-41.61
-45.8
-46.22
-42.19
-34.02
-22.92
-10.64
1.11
11.11
18.84
24.38
28.16
30.6
31.9
32.07
31.09
29.09
26.5
23.94
21.96
20.88
20.63
20.84
21.02
20.77
19.87
18.31
16.19
13.63
10.68
7.36
3.68
-0.3
-4.52
-8.96
-13.65
-18.77
-24.51
-30.98
-37.9
-44.5
-49.51
-51.52
-49.5
-43.2
-33.33
-21.37
-9.03
2.25
11.67
19.05
24.51
28.19
30.13
30.34
29
26.6
23.87
21.58
20.16
19.67
19.78
20.03
20.07
19.78
19.23
18.53
17.65
16.39
14.44
11.58
7.85
3.52
-0.96
-5.18
-8.94
-12.35
-15.67
-19.29
-23.48
-28.22
-33.05
-37.16
-39.46
-38.85
-34.68
-26.96
-16.47
-4.59
7.09
17.21
24.97
30.14
32.99
33.95
33.53
32.17
30.27
28.23
26.43
25.17
24.6
24.69
25.22
25.88
26.36
26.43
25.95
24.9
23.29
21.13
18.47
15.3
11.67
7.68
3.4
-1.07
-5.78
-10.82
-16.35
-22.42
-28.75
-34.66
-39.07
-40.79
-38.9
-33.23
-24.46
-14.02
-3.58
5.49
12.47
17.25
20.16
21.52
21.48
20.09
17.47
14.01
10.37
7.28
5.29
4.65
5.26
6.81
8.89
11.01
12.63
13.25
12.57
10.54
7.48
3.88
0.24
-3.16
-6.3
-9.28
-12.17
-15
-17.86
-20.96
-24.66
-29.13
-34
-38.24
-40.31
-38.82
-33.17
-23.89
-12.46
-0.75
9.68
17.98
24.03
28.16
30.74
32.02
32.09
31.13
29.39
27.27
25.19
23.42
22.09
21.21
20.69
20.4
20.21
19.94
19.31
18.02
15.8
12.49
8.2
3.27
-1.75
-6.32
-10.1
-13.09
-15.66
-18.47
-22.23
-27.35
-33.7
-40.45
-46.26
-49.63
-49.44
-45.24
-37.46
-27.21
-15.97
-5.13
4.25
11.58
16.67
19.63
20.77
20.52
19.34
17.7
15.99
14.55
13.56
13.11
13.2
13.68
14.33
14.87
15.03
14.68
13.76
12.33
10.5
8.31
5.78
2.9
-0.27
-3.55
-6.67
-9.48
-12
-14.62
-17.94
-22.49
-28.39
-35.01
-41.03
-44.83
-44.96
-40.8
-32.7
-21.97
-10.36
0.43
9.21
15.5
19.35
21.18
21.51
20.76
19.24
17.24
15.05
13.01
11.46
10.6
10.5
11
11.81
12.58
13.01
12.87
12.03
10.43
8.12
5.25
2.02
-1.31
-4.62
-7.86
-11.06
-14.28
-17.63
-21.24
-25.29
-29.94
-35.08
-40.13
-44.06
-45.57
-43.59
-37.72
-28.53
-17.38
-5.99
4.16
12.13
17.66
20.89
22.16
21.77
20.07
17.42
14.37
11.49
9.27
7.99
7.58
7.75
8.09
8.23
7.93
7.09
5.69
3.72
1.16
-1.98
-5.6
-9.49
-13.35
-16.89
-19.9
-22.37
-24.52
-26.69
-29.3
-32.69
-36.93
-41.65
-45.99
-48.75
-48.68
-44.9
-37.28
-26.53
-14.08
-1.64
9.26
17.64
23.26
26.37
27.52
27.31
26.21
24.6
22.8
21.13
19.84
19.09
18.89
19.16
19.72
20.39
21.01
21.4
21.34
20.59
18.92
16.23
12.59
8.23
3.48
-1.34
-5.9
-9.96
-13.47
-16.61
-19.84
-23.74
-28.79
-34.92
-41.42
-46.93
-49.89
-49.07
-44.04
-35.37
-24.33
-12.5
-1.22
8.62
16.61
22.61
26.63
28.68
28.86
27.49
25.1
22.4
20.07
18.55
17.99
18.25
19
19.89
20.58
20.8
20.32
18.98
16.73
13.61
9.79
5.54
1.21
-2.9
-6.59
-9.79
-12.63
-15.4
-18.52
-22.46
-27.5
-33.54
-39.92
-45.43
-48.62
-48.2
-43.57
-35.02
-23.76
-11.45
0.25
10.18
17.82
23.19
26.6
28.33
28.58
27.55
25.49
22.85
20.19
18.04
16.73
16.33
16.56
17.05
17.38
17.31
16.78
15.8
14.39
12.53
10.07
6.91
3.05
-1.32
-5.89
-10.3
-14.29
-17.83
-21.17
-24.82
-29.3
-34.78
-40.92
-46.67
-50.53
-51.07
-47.43
-39.73
-29.02
-16.92
-5.03
5.43
13.93
20.38
24.91
27.71
28.97
28.96
28.11
27
26.16
25.94
26.37
27.22
28.2
29.04
29.67
30.08
30.3
30.23
29.64
28.2
25.64
21.84
17
11.52
5.92
0.68
-3.96
-8.08
-12.02
-16.32
-21.44
-27.56
-34.39
-41.11
-46.51
-49.26
-48.34
-43.37
-34.86
-24.06
-12.59
-1.99
6.69
13.02
17.03
18.97
19.18
17.91
15.46
12.3
9.02
6.24
4.4
3.62
3.69
4.23
4.88
5.44
5.87
6.16
6.24
5.9
4.89
3.07
0.49
-2.58
-5.78
-8.79
-11.47
-13.9
-16.26
-18.83
-21.84
-25.48
-29.77
-34.36
-38.46
-40.91
-40.5
-36.41
-28.58
-17.81
-5.44
7.06
18.62
28.7
37.18
44.13
49.65
53.77
56.65
58.59
59.98
61.15
62.24
63.2
63.94
64.44
64.82
65.18
65.5
65.51
64.79
62.93
59.69
55.03
49.13
42.21
34.54
26.37
17.99
9.62
1.38
-6.78
-15.12
-23.92
-33.2
-42.47
-50.67
-56.38
-58.37
-56.11
-49.97
-41.2
-31.44
-22.17
-14.3
-8.1
-3.45
-0.11
2.11
3.32
3.77
3.9
4.28
5.4
7.42
10.19
13.29
16.31
18.93
20.96
22.26
22.66
22
20.18
17.34
13.83
10.14
6.67
3.65
0.99
-1.64
-4.7
-8.68
-13.99
-20.89
-29.37
-39.06
-49.02
-57.85
-63.93
-65.83
-62.86
-55.3
-44.45
-32.16
-20.27
-10.14
-2.29
3.37
7.28
9.81
11.14
11.35
10.57
9.19
7.85
7.17
7.53
8.85
10.71
12.55
13.94
14.82
15.37
15.82
16.26
16.54
16.37
15.51
13.9
11.69
9.11
6.37
3.49
0.32
-3.4
-7.97
-13.58
-20.18
-27.31
-34.02
-39.03
-41.05
-39.18
-33.35
-24.41
-13.92
-3.67
4.81
10.64
13.62
14.12
12.79
10.42
7.64
4.96
2.69
0.96
-0.23
-0.94
-1.16
-0.93
-0.26
0.66
1.52
1.87
1.37
-0.22
-2.8
-6.11
-9.73
-13.28
-16.47
-19.2
-21.56
-23.86
-26.54
-30.06
-34.72
-40.49
-46.75
-52.41
-56.08
-56.53
-53.17
-46.2
-36.61
-25.77
-15.05
-5.45
2.46
8.48
12.58
14.81
15.28
14.3
12.33
9.95
7.7
5.98
4.96
4.68
5.04
5.84
6.81
7.6
7.84
7.23
5.61
3.04
-0.24
-3.88
-7.54
-10.96
-14.01
-16.75
-19.36
-22.16
-25.53
-29.64
-34.33
-38.94
-42.37
-43.33
-40.84
-34.56
-25.05
-13.56
-1.62
9.33
18.32
24.97
29.28
31.53
32.09
31.33
29.66
27.54
25.33
23.34
21.73
20.59
19.95
19.79
20.05
20.5
20.81
20.58
19.49
17.46
14.59
11.14
7.4
3.53
-0.4
-4.41
-8.54
-12.89
-17.64
-23
-29.05
-35.53
-41.69
-46.29
-48.03
-45.92
-39.74
-30.18
-18.59
-6.59
4.4
13.44
20.13
24.51
26.85
27.5
26.9
25.47
23.61
21.73
20.15
19.16
18.97
19.62
20.94
22.58
24.06
24.84
24.49
22.85
20.02
16.33
12.18
7.91
3.75
-0.27
-4.17
-8.01
-11.92
-16.04
-20.6
-25.73
-31.3
-36.7
-40.88
-42.58
-40.76
-35.07
-26.02
-14.9
-3.33
7.17
15.62
21.63
25.33
27.19
27.63
27.09
25.88
24.26
22.53
21
19.97
19.61
19.93
20.72
21.66
22.36
22.46
21.72
19.99
17.32
13.89
10.04
6.13
2.45
-0.83
-3.76
-6.56
-9.61
-13.27
-17.87
-23.47
-29.75
-35.85
-40.48
-42.24
-40.04
-33.64
-23.74
-11.9
0.06
10.59
18.81
24.55
28.11
29.9
30.24
29.39
27.6
25.22
22.77
20.76
19.53
19.18
19.54
20.31
21.14
21.68
21.61
20.72
18.92
16.32
13.15
9.76
6.36
3.08
-0.12
-3.35
-6.68
-10.23
-14.11
-18.52
-23.58
-29.12
-34.51
-38.54
-39.8
-37.12
-30.19
-19.76
-7.41
4.94
15.72
24.04
29.77
33.14
34.49
33.98
31.81
28.32
24.18
20.28
17.39
15.94
15.76
16.34
16.96
17.04
16.29
14.61
12.05
8.69
4.63
0.02
-4.85
-9.65
-14.03
-17.78
-20.94
-23.78
-26.76
-30.41
-35.13
-41.01
-47.66
-54.07
-58.88
-60.58
-58.14
-51.35
-41.06
-28.94
-16.91
-6.55
1.29
6.58
9.77
11.5
12.26
12.35
12.02
11.54
11.21
11.32
11.98
13.08
14.3
15.37
16.11
16.53
16.7
16.66
16.33
15.53
14.16
12.23
9.9
7.44
5.01
2.64
0.17
-2.72
-6.31
-10.78
-16.03
-21.61
-26.7
-30.21
-31.01
-28.28
-21.9
-12.54
-1.56
9.43
19.01
26.37
31.36
34.16
35.12
34.44
32.25
28.79
24.5
20.02
16.03
13.02
11.16
10.27
10
9.98
9.82
9.23
7.99
5.95
3.16
-0.16
-3.65
-7.01
-10.05
-12.78
-15.37
-18
-20.9
-24.31
-28.38
-33.1
-38.06
-42.41
-44.87
-44.18
-39.47
-30.74
-18.95
-5.71
7.24
18.51
27.38
33.77
38.06
40.79
42.49
43.61
44.52
45.49
46.73
48.36
50.36
52.58
54.72
56.43
57.38
57.41
56.59
55.18
53.5
51.74
49.8
47.38
44.17
40.03
35.2
30.1
25.14
20.42
15.62
10.13
3.38
-4.72
-13.61
-22.12
-28.86
-32.7
-33.2
-30.76
-26.44
-21.58
-17.36
-14.53
-13.25
-13.36
-14.56
-16.57
-19.25
-22.4
-25.74
-28.84
-31.2
-32.44
-32.4
-31.29
-29.48
-27.46
-25.55
-23.93
-22.68
-21.84
-21.59
-22.07
-23.36
-25.29
-27.46
-29.39
-30.72
-31.39
-31.68
-32.13
-33.34
-35.68
-39.04
-42.86
-46.01
-47.18
-45.25
-39.67
-30.76
-19.7
-8.14
2.31
10.55
16.23
19.63
21.25
21.6
20.99
19.6
17.66
15.51
13.56
12.22
11.67
11.89
12.67
13.66
14.5
14.85
14.37
12.87
10.33
6.96
3.11
-0.81
-4.49
-7.82
-10.83
-13.74
-16.78
-20.21
-24.16
-28.54
-32.9
-36.44
-38.15
-37.02
-32.52
-24.83
-14.91
-4.2
5.75
13.76
19.28
22.34
23.39
22.99
21.67
19.79
17.66
15.55
13.79
12.69
12.44
13.05
14.28
15.69
16.8
17.19
16.63
15.05
12.56
9.35
5.68
1.75
-2.23
-6.06
-9.64
-12.93
-16.13
-19.56
-23.68
-28.79
-34.79
-40.94
-45.88
-48.02
-46.11
-39.81
-29.85
-17.87
-5.81
4.79
13.16
19.29
23.65
26.7
28.66
29.51
29.23
28.02
26.32
24.71
23.69
23.44
23.86
24.58
25.21
25.43
25.09
24.15
22.59
20.44
17.71
14.43
10.67
6.52
2.12
-2.41
-6.97
-11.58
-16.38
-21.64
-27.59
-34.15
-40.65
-45.92
-48.51
-47.31
-42.02
-33.39
-22.96
-12.45
-3.21
4.16
9.67
13.68
16.47
18.08
18.5
17.8
16.35
14.72
13.44
12.88
13.04
13.68
14.45
15.1
15.5
15.6
15.3
14.43
12.74
10.07
6.5
2.36
-1.85
-5.64
-8.69
-11.02
-12.89
-14.75
-17.1
-20.31
-24.47
-29.21
-33.68
-36.65
-36.87
-33.56
-26.69
-17.16
-6.43
3.89
12.59
19.11
23.48
26.08
27.33
27.55
26.9
25.52
23.66
21.63
19.8
18.46
17.79
17.73
18.11
18.64
18.94
18.66
17.54
15.46
12.52
8.98
5.18
1.43
-2.05
-5.16
-7.87
-10.25
-12.46
-14.8
-17.65
-21.37
-25.93
-30.76
-34.75
-36.54
-35.02
-29.84
-21.55
-11.4
-0.89
8.74
16.71
22.71
26.75
28.88
29.26
28.12
25.93
23.34
21.05
19.62
19.24
19.67
20.36
20.72
20.3
19.03
17.13
14.97
12.78
10.6
8.24
5.44
2.11
-1.61
-5.38
-8.86
-11.92
-14.73
-17.67
-21.21
-25.64
-30.87
-36.41
-41.38
-44.73
-45.49
-43.02
-37.25
-28.67
-18.3
-7.39
2.79
11.23
17.35
20.99
22.38
21.91
20.07
17.44
14.61
12.14
10.51
9.94
10.34
11.39
12.66
13.78
14.56
14.94
14.98
14.7
14.07
13.03
11.54
9.66
7.5
5.22
2.95
0.69
-1.7
-4.48
-7.94
-12.26
-17.34
-22.67
-27.41
-30.47
-30.89
-28.08
-22.07
-13.55
-3.67
6.2
14.85
21.45
25.62
27.45
27.34
25.89
23.73
21.35
19.05
17.02
15.36
14.22
13.74
13.94
14.6
15.23
15.23
14.14
11.85
8.59
4.82
0.95
-2.76
-6.27
-9.59
-12.66
-15.41
-17.8
-19.99
-22.37
-25.41
-29.41
-34.14
-38.76
-41.97
-42.42
-39.25
-32.45
-22.93
-12.17
-1.76
7.16
14.06
18.96
22.11
23.78
24.06
22.98
20.71
17.69
14.55
11.99
10.51
10.27
10.98
12.04
12.76
12.63
11.44
9.27
6.42
3.15
-0.34
-3.94
-7.54
-11
-14.14
-16.89
-19.37
-21.95
-25.16
-29.44
-34.87
-40.96
-46.63
-50.49
-51.25
-48.13
-41.22
-31.43
-20.23
-9.2
0.46
8.12
13.73
17.55
19.89
20.94
20.79
19.6
17.71
15.66
14.02
13.2
13.27
14
14.95
15.73
16.08
15.94
15.33
14.27
12.69
10.52
7.69
4.22
0.27
-3.9
-8.03
-11.88
-15.36
-18.63
-22.08
-26.19
-31.28
-37.15
-42.95
-47.26
-48.54
-45.84
-39.07
-29.2
-17.88
-6.76
2.91
10.55
16.09
19.78
21.81
22.4
21.77
20.3
18.49
16.85
15.74
15.35
15.6
16.25
17.04
17.73
18.19
18.33
18.06
17.26
15.7
13.25
9.89
5.87
1.64
-2.34
-5.79
-8.69
-11.36
-14.24
-17.77
-22.29
-27.84
-34.14
-40.45
-45.59
-48.13
-46.86
-41.26
-31.82
-19.93
-7.48
3.84
12.98
19.6
23.92
26.33
27.18
26.76
25.41
23.56
21.73
20.36
19.7
19.75
20.28
21.01
21.66
22.02
21.9
21.15
19.7
17.5
14.61
11.13
7.24
3.16
-0.91
-4.77
-8.3
-11.51
-14.6
-17.96
-22.04
-27.23
-33.53
-40.38
-46.57
-50.49
-50.62
-46.09
-37.09
-24.89
-11.42
1.36
12.04
20.02
25.4
28.62
30.12
30.21
29.1
27.04
24.51
22.11
20.43
19.76
20.03
20.85
21.75
22.37
22.62
22.52
22.03
20.99
19.08
16.07
11.96
7.12
2.09
-2.6
-6.69
-10.24
-13.53
-16.97
-20.96
-25.8
-31.54
-37.89
-44.02
-48.67
-50.39
-48.04
-41.26
-30.69
-17.78
-4.44
7.62
17.24
23.99
28.01
29.76
29.81
28.75
27.13
25.45
24.14
23.45
23.4
23.79
24.28
24.54
24.4
23.8
22.83
21.57
19.98
17.92
15.25
11.95
8.2
4.33
0.73
-2.4
-5.12
-7.7
-10.57
-14.12
-18.62
-24.11
-30.29
-36.4
-41.24
-43.34
-41.47
-35.12
-24.79
-11.99
1.27
13.15
22.52
29.05
33.04
35.01
35.35
34.35
32.32
29.74
27.23
25.36
24.39
24.2
24.38
24.47
24.19
23.54
22.73
21.93
21.17
20.24
18.82
16.65
13.6
9.81
5.5
1
-3.43
-7.59
-11.41
-15.02
-18.81
-23.29
-28.83
-35.32
-41.92
-47.16
-49.37
-47.33
-40.8
-30.68
-18.69
-6.74
3.69
11.85
17.68
21.51
23.72
24.52
24.08
22.6
20.42
18.09
16.16
15.04
14.85
15.4
16.26
17
17.3
17.03
16.2
14.85
12.95
10.46
7.3
3.53
-0.63
-4.79
-8.54
-11.62
-14.01
-16.1
-18.48
-21.8
-26.42
-32.16
-38.18
-43.07
-45.32
-43.79
-38.2
-29.23
-18.37
-7.33
2.39
9.91
14.99
17.8
18.68
17.94
15.85
12.79
9.4
6.48
4.83
4.91
6.68
9.59
12.81
15.54
17.29
17.86
17.32
15.75
13.18
9.6
5.12
-0.02
-5.34
-10.4
-14.9
-18.86
-22.61
-26.65
-31.51
-37.42
-44.15
-50.88
-56.34
-59.17
-58.38
-53.61
-45.39
-34.86
-23.41
-12.32
-2.44
5.83
12.32
17.03
19.94
21.08
20.64
19.04
16.92
15
13.86
13.82
14.8
16.43
18.24
19.86
21.07
21.78
21.89
21.2
19.48
16.63
12.77
8.28
3.66
-0.65
-4.45
-7.8
-11.02
-14.51
-18.7
-23.78
-29.55
-35.3
-39.84
-41.8
-40.1
-34.38
-25.16
-13.74
-1.65
9.72
19.56
27.48
33.43
37.45
39.59
40.06
39.29
37.92
36.61
35.83
35.64
35.76
35.83
35.56
34.9
33.92
32.73
31.29
29.41
26.77
23.11
18.34
12.63
6.39
0.14
-5.63
-10.71
-15.18
-19.46
-24.1
-29.6
-36.09
-43.21
-50.06
-55.38
-57.81
-56.35
-50.66
-41.24
-29.37
-16.73
-4.89
5.1
12.89
18.71
23.18
26.85
29.95
32.39
33.69
33.27
30.65
25.72
18.81
10.68
2.37
-5.07
-10.83
-14.5
-16.18
-16.4
-15.87
-15.36
-15.42
-16.29
-17.85
-19.8
-21.82
-23.71
-25.52
-27.44
-29.72
-32.56
-36.1
-40.35
-45.05
-49.56
-52.76
-53.36
-50.24
-42.98
-32.16
-19.22
-6.07
5.64
14.9
21.55
25.95
28.6
29.85
29.85
28.78
27.02
25.15
23.87
23.65
24.57
26.28
28.18
29.66
30.35
30.08
28.87
26.76
23.75
19.89
15.31
10.35
5.44
0.99
-2.77
-5.94
-8.88
-12.15
-16.24
-21.44
-27.57
-33.88
-39.18
-42.01
-41.12
-35.94
-26.87
-15.23
-2.86
8.49
17.67
24.31
28.59
30.97
31.78
31.2
29.31
26.41
23.06
20
17.92
17.17
17.66
18.94
20.39
21.44
21.75
21.12
19.53
16.98
13.56
9.4
4.74
-0.07
-4.67
-8.85
-12.59
-16.18
-20.01
-24.57
-30.14
-36.64
-43.47
-49.53
-53.41
-53.82
-49.99
-42.04
-30.97
-18.38
-5.97
4.98
13.77
20.3
24.77
27.47
28.62
28.45
27.29
25.61
23.92
22.73
22.33
22.79
23.88
25.23
26.44
27.13
27.03
25.99
23.97
21.02
17.31
13.1
8.71
4.42
0.38
-3.42
-7.11
-10.93
-15.15
-20.05
-25.81
-32.32
-38.99
-44.72
-48.02
-47.57
-42.69
-33.72
-21.98
-9.25
2.74
12.89
20.82
26.67
30.69
33.12
34.03
33.53
31.91
29.65
27.34
25.47
24.33
23.86
23.82
23.87
23.77
23.4
22.66
21.48
19.69
17.14
13.79
9.86
5.68
1.67
-1.89
-5.02
-7.92
-11
-14.65
-19.22
-24.83
-31.34
-38.17
-44.27
-48.28
-48.85
-45.13
-37.11
-25.8
-12.85
-0.15
10.82
19.23
24.96
28.34
29.82
29.82
28.72
26.97
25.1
23.65
23.06
23.36
24.29
25.31
25.92
25.83
25.07
23.82
22.25
20.38
18.05
15.13
11.58
7.58
3.42
-0.6
-4.35
-7.85
-11.32
-15.14
-19.67
-25.21
-31.69
-38.62
-44.9
-49.1
-49.89
-46.52
-39.21
-29.07
-17.72
-6.67
3.13
11.38
18.24
23.92
28.4
31.43
32.83
32.62
31.27
29.51
28.07
27.44
27.69
28.61
29.86
31.15
32.33
33.32
34
34.14
33.41
31.53
28.42
24.36
19.91
15.77
12.47
10.22
8.82
7.73
6.36
4.23
1.27
-2.12
-5.14
-6.77
-6.1
-2.55
3.95
12.9
23.35
34.19
44.38
53.22
60.33
65.6
69.02
70.62
70.55
69.18
67.12
65.2
64.24
64.72
66.71
69.78
73.21
76.27
78.31
78.93
77.9
75.15
70.86
65.5
59.76
54.36
49.77
45.86
41.94
36.96
29.9
20.17
7.73
-6.94
-23
-39.4
-54.92
-68.14
-77.69
-82.61
-82.71
-78.84
-72.74
-66.49
-61.8
-59.6
-59.84
-61.9
-64.97
-68.39
-71.77
-74.82
-77.28
-78.92
-79.7
-79.74
-79.3
-78.58
-77.5
-75.91
-73.63
-70.8
-67.89
-65.51
-64.11
-63.76
-64.11
-64.66
-65.06
-65.2
-65.22
-65.34
-65.77
-66.64
-68.01
-69.82
-71.85
-73.53
-74
-72.28
-67.58
-59.58
-48.56
-35.37
-21.25
-7.43
4.98
15.25
23.06
28.39
31.55
32.94
33.1
32.54
31.71
30.84
29.99
28.99
27.65
25.83
23.58
21.09
18.59
16.23
14.03
11.89
9.71
7.48
5.35
3.57
2.49
2.38
3.37
5.29
7.64
9.7
10.66
9.92
7.37
3.53
-0.53
-3.44
-3.95
-1.33
4.54
13.1
23.33
34.08
44.33
53.36
60.74
66.2
69.47
70.12
67.68
61.79
52.54
40.58
27.07
13.45
1.04
-9.24
-17.07
-22.67
-26.58
-29.45
-31.87
-34.35
-37.27
-40.95
-45.63
-51.4
-58.15
-65.59
-73.28
-80.71
-87.48
-93.38
-98.47
-102.97
-107
-110.39
-112.52
-112.38
-108.98
-101.76
-90.91
-77.44
-62.95
-49.07
-37.03
-27.43
-20.25
-15.1
-11.56
-9.22
-7.68
-6.51
-5.15
-3.1
-0.05
3.99
8.74
13.75
18.61
23.09
27.05
30.44
33.16
35.09
36.12
36.23
35.51
34.16
32.45
30.72
29.24
28.12
27.18
25.87
23.4
19.18
13.16
6.15
-0.28
-4.31
-4.5
-0.36
7.56
17.84
28.84
39.12
47.72
54.07
57.89
59.04
57.58
53.9
48.76
43.28
38.56
35.38
33.91
33.73
34.01
33.95
33.08
31.41
29.28
27.07
24.91
22.66
19.95
16.49
12.17
7.18
1.84
-3.58
-8.95
-14.36
-19.91
-25.8
-32.11
-38.85
-45.77
-52.29
-57.49
-60.22
-59.44
-54.69
-46.3
-35.42
-23.7
-12.72
-3.6
3.25
7.96
10.96
12.71
13.56
13.76
13.59
13.36
13.4
13.9
14.86
16.09
17.28
18.18
18.7
18.93
18.98
18.94
18.74
18.17
16.99
15.03
12.26
8.85
5.05
1.13
-2.78
-6.69
-10.82
-15.43
-20.72
-26.55
-32.25
-36.68
-38.5
-36.58
-30.6
-21.16
-9.68
2.1
12.69
21.21
27.44
31.53
33.77
34.37
33.55
31.68
29.31
27.12
25.71
25.3
25.74
26.57
27.27
27.53
27.29
26.67
25.73
24.41
22.53
19.93
16.61
12.79
8.82
5.05
1.64
-1.44
-4.48
-7.83
-11.86
-16.87
-22.93
-29.78
-36.7
-42.58
-46.13
-46.27
-42.59
-35.48
-26.13
-16.1
-6.81
0.85
6.54
10.45
12.95
14.39
15
15
14.7
14.5
14.81
15.93
17.84
20.23
22.59
24.37
25.18
24.89
23.68
21.84
19.78
17.75
15.81
13.85
11.73
9.42
7.06
4.94
3.23
1.91
0.65
-1.07
-3.59
-6.85
-10.28
-12.92
-13.79
-12.2
-7.96
-1.5
6.37
14.65
22.39
28.85
33.61
36.56
37.81
37.6
36.21
33.98
31.3
28.58
26.26
24.63
23.8
23.63
23.85
24.11
24.19
23.91
23.14
21.78
19.76
17.05
13.73
10.02
6.05
1.94
-2.41
-7.17
-12.52
-18.52
-25.16
-32.24
-39.51
-46.5
-52.49
-56.58
-57.82
-55.58
-49.93
-41.61
-31.98
-22.49
-14.36
-8.33
-4.58
-2.91
-2.87
-3.95
-5.57
-7.16
-8.25
-8.56
-8.03
-6.84
-5.28
-3.64
-2.18
-1.1
-0.51
-0.46
-0.92
-1.78
-2.91
-4.21
-5.58
-6.95
-8.29
-9.57
-10.73
-11.78
-12.81
-14.02
-15.65
-17.9
-20.64
-23.37
-25.2
-25.09
-22.23
-16.34
-7.93
1.9
11.83
20.76
28.08
33.71
37.86
40.79
42.55
43.03
42.19
40.18
37.46
34.67
32.39
31.01
30.6
31
31.94
33.07
34.06
34.48
33.97
32.27
29.37
25.55
21.27
16.97
12.93
9.2
5.62
1.96
-2.02
-6.54
-11.71
-17.41
-23.14
-28.04
-30.96
-30.85
-27.15
-20.12
-10.82
-0.8
8.38
15.56
20.3
22.78
23.47
22.84
21.16
18.52
14.98
10.81
6.49
2.62
-0.37
-2.35
-3.59
-4.55
-5.62
-7.03
-8.79
-10.77
-12.89
-15.08
-17.31
-19.52
-21.58
-23.36
-24.84
-26.08
-27.33
-28.91
-31.19
-34.4
-38.51
-43.08
-47.27
-49.98
-50.2
-47.34
-41.51
-33.47
-24.35
-15.25
-6.89
0.41
6.59
11.62
15.35
17.65
18.55
18.39
17.72
17.09
16.8
16.8
16.83
16.62
16.11
15.45
14.83
14.3
13.68
12.64
10.95
8.56
5.65
2.45
-0.91
-4.42
-8.18
-12.31
-16.94
-22.2
-28.3
-35.44
-43.51
-51.9
-59.45
-64.63
-66.14
-63.4
-56.86
-47.79
-37.87
-28.57
-20.77
-14.7
-10.15
-6.83
-4.55
-3.29
-3.08
-3.78
-5.01
-6.14
-6.6
-6.02
-4.45
-2.29
-0.11
1.59
2.56
2.82
2.57
2.02
1.32
0.45
-0.72
-2.29
-4.33
-6.75
-9.32
-11.78
-13.98
-15.95
-17.88
-19.88
-21.75
-22.79
-21.98
-18.34
-11.37
-1.34
10.79
23.76
36.4
47.96
58.06
66.49
72.95
77
78.24
76.58
72.45
66.69
60.35
54.32
49.09
44.73
40.97
37.48
34.02
30.47
26.81
23
18.92
14.43
9.46
4.03
-1.64
-7.27
-12.61
-17.57
-22.2
-26.77
-31.52
-36.65
-42.12
-47.55
-52.2
-55.07
-55.14
-51.71
-44.77
-35.07
-24.01
-13.21
-4
2.97
7.78
11
13.24
14.89
15.98
16.39
16.06
15.17
14.08
13.18
12.72
12.68
12.87
13.01
12.97
12.71
12.24
11.48
10.21
8.17
5.24
1.51
-2.73
-7.08
-11.19
-14.84
-18.03
-20.88
-23.68
-26.81
-30.58
-35
-39.53
-43.15
-44.5
-42.46
-36.61
-27.56
-16.7
-5.72
4
11.75
17.44
21.33
23.67
24.54
23.99
22.29
19.99
17.89
16.71
16.76
17.88
19.44
20.7
21.07
20.37
18.66
16.19
13.12
9.53
5.45
0.94
-3.78
-8.37
-12.57
-16.23
-19.41
-22.35
-25.35
-28.7
-32.51
-36.57
-40.33
-42.9
-43.23
-40.51
-34.52
-25.78
-15.46
-5
4.35
11.83
17.22
20.63
22.32
22.53
21.5
19.6
17.34
15.33
14.07
13.81
14.44
15.63
16.92
17.93
18.39
18.14
17.14
15.4
12.99
10.04
6.68
3.06
-0.64
-4.33
-7.91
-11.38
-14.92
-18.83
-23.42
-28.76
-34.4
-39.31
-42.09
-41.45
-36.74
-28.29
-17.32
-5.52
5.54
14.84
22.01
27.23
30.82
33.06
34.06
33.83
32.46
30.25
27.61
25.03
22.87
21.28
20.23
19.5
18.86
18.04
16.83
15.04
12.55
9.33
5.44
1.07
-3.53
-8.12
-12.6
-16.9
-21.13
-25.44
-30.04
-35.06
-40.39
-45.47
-49.36
-50.86
-48.94
-43.22
-34.11
-22.79
-10.85
0.29
9.6
16.71
21.64
24.71
26.27
26.7
26.45
26.02
25.95
26.64
28.23
30.56
33.2
35.58
37.19
37.69
36.91
34.79
31.39
26.85
21.47
15.61
9.75
4.23
-0.74
-5.23
-9.46
-13.7
-18.22
-23.22
-28.77
-34.68
-40.28
-44.52
-46.05
-43.79
-37.35
-27.3
-15.06
-2.42
9.11
18.66
26.05
31.56
35.56
38.34
40.07
40.96
41.32
41.53
41.92
42.57
43.29
43.71
43.52
42.59
41.04
39.14
37.09
34.85
32.21
28.9
24.75
19.89
14.58
9.12
3.62
-2.01
-8.04
-14.78
-22.43
-31.01
-40.25
-49.48
-57.59
-63.23
-65.15
-62.67
-56.1
-46.67
-36.15
-26.22
-18.03
-11.89
-7.6
-4.78
-3.22
-2.91
-3.83
-5.73
-8.05
-10.06
-11.15
-11.07
-10.01
-8.37
-6.6
-4.98
-3.56
-2.36
-1.5
-1.2
-1.71
-3.12
-5.19
-7.46
-9.41
-10.74
-11.45
-11.87
-12.42
-13.5
-15.28
-17.79
-20.76
-23.68
-25.72
-25.84
-23.04
-16.82
-7.39
4.17
16.25
27.11
35.53
40.99
43.73
44.36
43.54
41.71
39.08
35.86
32.36
29.04
26.43
24.88
24.42
24.74
25.31
25.59
25.19
23.92
21.82
19.01
15.66
11.93
7.98
3.93
-0.13
-4.11
-8.06
-12.11
-16.45
-21.23
-26.3
-31.05
-34.43
-35.25
-32.65
-26.48
-17.46
-6.98
3.32
12.16
18.86
23.36
25.99
27.17
27.19
26.22
24.44
22.16
19.82
17.93
16.89
16.86
17.7
19.1
20.7
22.15
23.2
23.69
23.56
22.84
21.64
20.2
18.69
17.23
15.84
14.42
12.8
10.82
8.26
4.94
0.7
-4.37
-9.78
-14.61
-17.66
-17.93
-15.04
-9.53
-2.72
3.72
8.37
10.53
10.23
8.05
4.66
0.57
-4.04
-9.15
-14.65
-20.26
-25.42
-29.53
-32.14
-33.13
-32.74
-31.47
-29.88
-28.43
-27.43
-27.08
-27.48
-28.67
-30.59
-33.04
-35.68
-38.2
-40.39
-42.31
-44.27
-46.75
-50.15
-54.58
-59.7
-64.62
-68.07
-68.68
-65.55
-58.57
-48.58
-37.04
-25.59
-15.5
-7.35
-1.15
3.37
6.43
8.12
8.46
7.61
6
4.28
3.12
2.94
3.79
5.32
7.05
8.49
9.31
9.39
8.73
7.36
5.3
2.56
-0.75
-4.39
-8.1
-11.64
-14.92
-18.02
-21.2
-24.83
-29.23
-34.49
-40.26
-45.63
-49.23
-49.65
-45.88
-37.83
-26.44
-13.37
-0.48
10.73
19.48
25.57
29.23
30.85
30.86
29.76
28.15
26.67
25.79
25.78
26.61
28.03
29.68
31.24
32.39
32.83
32.28
30.54
27.58
23.64
19.09
14.34
9.68
5.15
0.67
-3.93
-8.81
-14.08
-19.89
-26.35
-33.45
-40.86
-47.72
-52.74
-54.51
-52.03
-45.11
-34.58
-21.98
-9.07
2.61
12.15
19.25
24.06
26.91
28.22
28.38
27.81
26.87
25.88
25.04
24.43
24.04
23.78
23.55
23.18
22.48
21.27
19.4
16.9
13.92
10.71
7.61
4.83
2.43
0.29
-1.82
-4.25
-7.28
-11.22
-16.16
-21.98
-28.11
-33.55
-36.98
-37.1
-33.09
-24.97
-13.68
-0.84
11.79
22.79
31.42
37.55
41.41
43.28
43.42
42.08
39.68
36.9
34.51
33.15
33.07
34.08
35.65
37.19
38.26
38.65
38.36
37.44
35.97
34.02
31.62
28.81
25.61
22.11
18.35
14.44
10.37
6.08
1.32
-4.19
-10.63
-17.77
-24.89
-30.78
-34.07
-33.65
-29.11
-20.92
-10.32
1.07
11.72
20.51
26.9
30.88
32.67
32.64
31.14
28.52
25.24
21.87
19
17.18
16.71
17.56
19.38
21.59
23.56
24.72
24.7
23.34
20.7
16.96
12.45
7.58
2.72
-1.86
-6.08
-10.1
-14.25
-18.93
-24.39
-30.52
-36.7
-41.85
-44.64
-43.93
-39.18
-30.71
-19.65
-7.58
3.9
13.67
21.17
26.39
29.65
31.29
31.66
31.03
29.73
28.08
26.43
25.06
24.19
23.87
24.02
24.42
24.73
24.58
23.66
21.78
18.96
15.35
11.21
6.78
2.27
-2.17
-6.45
-10.52
-14.45
-18.48
-23
-28.44
-34.86
-41.75
-47.96
-51.95
-52.41
-48.7
-41.24
-31.25
-20.37
-10.06
-1.24
5.73
10.87
14.27
16.06
16.37
15.44
13.68
11.57
9.56
8
7.07
6.75
6.93
7.36
7.77
7.88
7.5
6.51
4.89
2.65
-0.18
-3.61
-7.59
-12.01
-16.66
-21.29
-25.72
-29.97
-34.27
-38.98
-44.33
-50.17
-55.76
-59.81
-60.96
-58.21
-51.47
-41.64
-30.28
-19.05
-9.21
-1.31
4.61
8.72
11.19
12.1
11.64
10.25
8.65
7.64
7.75
9.08
11.21
13.47
15.18
15.92
15.65
14.57
12.99
11.15
9.11
6.8
4.11
1.01
-2.4
-5.95
-9.5
-13.02
-16.69
-20.78
-25.51
-30.89
-36.55
-41.63
-45.01
-45.56
-42.55
-35.96
-26.52
-15.55
-4.47
5.5
13.63
19.63
23.5
25.39
25.45
24
21.52
18.7
16.24
14.68
14.17
14.55
15.44
16.46
17.43
18.24
18.85
19.07
18.58
17
14.13
10.09
5.29
0.35
-4.21
-8.1
-11.37
-14.32
-17.41
-21.09
-25.64
-31.01
-36.6
-41.35
-43.89
-42.99
-38.06
-29.45
-18.34
-6.39
4.78
14.04
20.84
25.14
27.17
27.29
25.94
23.64
21.01
18.6
16.84
15.91
15.76
16.21
16.99
17.78
18.27
18.17
17.31
15.67
13.35
10.55
7.48
4.24
0.93
-2.4
-5.66
-8.73
-11.53
-14.15
-16.9
-20.19
-24.37
-29.32
-34.34
-38.22
-39.55
-37.32
-31.24
-21.97
-10.9
0.31
10.23
18.02
23.45
26.71
28.11
27.9
26.31
23.6
20.24
16.88
14.22
12.77
12.72
13.84
15.61
17.37
18.51
18.59
17.45
15.18
12.06
8.49
4.8
1.21
-2.26
-5.7
-9.26
-13.1
-17.39
-22.36
-28.12
-34.56
-41.1
-46.64
-49.8
-49.36
-44.72
-36.2
-24.98
-12.66
-0.8
9.46
17.56
23.33
26.85
28.27
27.76
25.7
22.63
19.26
16.28
14.17
13.12
13.04
13.61
14.41
15.02
15.1
14.39
12.8
10.39
7.32
3.85
0.22
-3.44
-7.06
-10.7
-14.42
-18.34
-22.6
-27.42
-32.98
-39.21
-45.63
-51.21
-54.67
-54.71
-50.67
-42.68
-31.81
-19.62
-7.76
2.57
10.78
16.78
20.83
23.2
24.19
24.07
23.19
21.96
20.79
20.06
19.89
20.25
20.93
21.66
22.15
22.18
21.59
20.22
17.99
14.94
11.22
7.05
2.67
-1.77
-6.2
-10.61
-15.06
-19.64
-24.53
-29.97
-36.11
-42.7
-48.96
-53.5
-54.77
-51.63
-43.91
-32.61
-19.56
-6.77
4.18
12.57
18.48
22.43
24.99
26.5
27.12
26.96
26.28
25.47
24.99
25.16
25.98
27.16
28.22
28.7
28.37
27.23
25.47
23.29
20.81
18
14.8
11.22
7.37
3.42
-0.48
-4.36
-8.37
-12.82
-17.98
-23.97
-30.57
-37.1
-42.51
-45.53
-45.12
-40.81
-32.89
-22.39
-10.77
0.55
10.46
18.38
24.13
27.83
29.67
29.97
29.15
27.73
26.28
25.23
24.81
25
25.58
26.27
26.81
27.03
26.8
26.03
24.59
22.44
19.6
16.27
12.73
9.27
6.1
3.23
0.59
-2.01
-4.82
-8.12
-12.27
-17.48
-23.7
-30.33
-36.25
-40.04
-40.38
-36.61
-28.96
-18.55
-6.97
4.19
13.75
21.13
26.23
29.24
30.43
30.1
28.62
26.48
24.24
22.49
21.64
21.8
22.7
23.87
24.81
25.16
24.81
23.76
22.03
19.62
16.54
12.86
8.8
4.66
0.66
-3.12
-6.77
-10.48
-14.41
-18.74
-23.6
-29.01
-34.72
-40
-43.73
-44.62
-41.73
-34.87
-24.8
-13.02
-1.28
8.95
16.79
22
24.81
25.64
24.94
23.16
20.7
18.02
15.51
13.61
12.61
12.67
13.73
15.47
17.38
18.86
19.39
18.69
16.72
13.76
10.22
6.56
3.06
-0.21
-3.43
-6.86
-10.85
-15.62
-21.23
-27.55
-34.16
-40.33
-44.99
-46.96
-45.21
-39.31
-29.69
-17.59
-4.75
7.18
17.08
24.59
29.87
33.32
35.2
35.65
34.79
32.91
30.58
28.41
26.92
26.28
26.37
26.86
27.39
27.62
27.3
26.2
24.13
21.09
17.16
12.59
7.62
2.46
-2.83
-8.23
-13.77
-19.44
-25.3
-31.52
-38.24
-45.39
-52.41
-58.19
-61.24
-60.25
-54.67
-45
-32.77
-19.93
-8.24
1.23
8.24
13.12
16.36
18.34
19.2
19.05
18.15
16.89
15.75
15.09
14.98
15.29
15.74
16.07
16.13
15.82
15.1
13.81
11.81
8.95
5.25
0.94
-3.56
-7.82
-11.54
-14.73
-17.73
-21.07
-25.31
-30.77
-37.3
-44.2
-50.27
-54.09
-54.39
-50.54
-42.67
-31.76
-19.31
-6.91
4.19
13.25
20.11
24.86
27.69
28.85
28.59
27.34
25.64
24.04
22.93
22.41
22.32
22.35
22.24
21.85
21.16
20.2
18.9
17.14
14.79
11.82
8.34
4.54
0.71
-2.95
-6.37
-9.58
-12.79
-16.28
-20.35
-25.23
-30.84
-36.67
-41.69
-44.6
-44.18
-39.77
-31.61
-20.8
-9
2.19
11.62
18.82
23.89
27.16
28.95
29.42
28.7
27.03
24.86
22.76
21.21
20.5
20.53
20.99
21.47
21.64
21.28
20.36
18.88
16.84
14.22
10.99
7.17
2.91
-1.57
-6
-10.19
-14.09
-17.86
-21.81
-26.33
-31.63
-37.58
-43.51
-48.32
-50.73
-49.73
-44.92
-36.69
-26.11
-14.59
-3.54
6.06
13.65
19.11
22.48
23.92
23.6
21.89
19.37
16.75
14.7
13.63
13.52
14.04
14.76
15.28
15.47
15.35
14.97
14.27
13.04
11.01
8
4.09
-0.36
-4.86
-8.87
-12.11
-14.7
-17.09
-20.04
-24.2
-29.89
-36.72
-43.7
-49.29
-51.94
-50.56
-44.91
-35.64
-24.11
-11.98
-0.73
8.61
15.61
20.38
23.28
24.78
25.3
25.15
24.59
23.85
23.2
22.89
23.1
23.91
25.29
27.01
28.77
30.18
30.82
30.42
28.88
26.43
23.57
20.9
18.94
17.87
17.49
17.33
16.83
15.6
13.41
10.16
5.98
1.18
-3.51
-7.11
-8.73
-8.09
-5.81
-3.19
-1.55
-1.49
-2.56
-3.49
-3.07
-0.8
2.76
6.42
8.97
9.82
9.02
6.96
3.99
0.11
-4.77
-10.61
-16.97
-22.99
-27.7
-30.33
-30.67
-29.19
-26.91
-24.97
-24.25
-25.04
-27
-29.43
-31.67
-33.32
-34.43
-35.33
-36.49
-38.37
-41.27
-45.09
-49.31
-52.84
-54.3
-52.41
-46.57
-37.11
-25.3
-12.83
-1.27
8.46
16.09
21.78
25.77
28.11
28.74
27.71
25.38
22.49
19.87
18.2
17.75
18.28
19.24
20.08
20.41
20.09
19.15
17.62
15.55
12.89
9.66
5.95
1.95
-2.09
-6.03
-9.87
-13.8
-18.14
-23.28
-29.43
-36.4
-43.42
-49.24
-52.34
-51.43
-46
-36.56
-24.54
-11.77
0.06
9.86
17.28
22.47
25.76
27.41
27.57
26.44
24.36
21.88
19.62
18.06
17.37
17.42
17.86
18.31
18.47
18.16
17.29
15.73
13.35
10.04
5.77
0.73
-4.77
-10.27
-15.4
-19.92
-23.84
-27.47
-31.34
-35.98
-41.51
-47.48
-52.75
-55.78
-55.21
-50.4
-41.63
-30.12
-17.48
-5.22
5.61
14.53
21.47
26.45
29.52
30.74
30.33
28.71
26.58
24.67
23.56
23.5
24.34
25.6
26.74
27.35
27.21
26.29
24.63
22.24
19.14
15.37
11.09
6.52
1.89
-2.67
-7.1
-11.46
-15.92
-20.73
-26.12
-32.06
-38.13
-43.32
-46.26
-45.69
-40.96
-32.42
-21.26
-9.18
2.32
12.29
20.42
26.81
31.61
34.91
36.66
36.94
36.08
34.63
33.23
32.34
32.15
32.46
32.86
32.91
32.31
30.95
28.9
26.25
23.04
19.23
14.76
9.76
4.47
-0.64
-5.2
-9.06
-12.39
-15.67
-19.54
-24.56
-30.82
-37.81
-44.37
-48.98
-50.12
-46.91
-39.42
-28.64
-16.23
-3.88
7.18
16.35
23.6
29.07
32.82
34.76
34.85
33.29
30.69
27.88
25.65
24.47
24.38
25.03
25.87
26.4
26.31
25.45
23.87
21.63
18.81
15.5
11.74
7.63
3.3
-1.06
-5.25
-9.18
-13.02
-17.15
-22.07
-28
-34.55
-40.7
-44.98
-46.07
-43.26
-36.74
-27.45
-16.68
-5.59
4.97
14.5
22.64
29.07
33.46
35.7
35.95
34.73
32.75
30.71
29.14
28.4
28.64
29.88
31.98
34.55
37
38.54
38.45
36.25
31.84
25.52
17.92
9.8
1.87
-5.32
-11.53
-16.86
-21.71
-26.72
-32.51
-39.36
-46.97
-54.31
-59.8
-61.82
-59.24
-51.81
-40.34
-26.37
-11.77
1.8
13.16
21.75
27.45
30.45
31.1
29.94
27.68
25.2
23.31
22.57
23.09
24.51
26.15
27.37
27.69
26.99
25.45
23.37
21.03
18.6
16.08
13.43
10.63
7.73
4.85
2.08
-0.55
-3.22
-6.32
-10.41
-15.96
-22.89
-30.3
-36.5
-39.47
-37.52
-29.93
-17.23
-0.96
16.71
33.51
47.41
56.85
60.89
59.36
52.84
42.63
30.44
17.94
6.4
-3.55
-11.77
-18.54
-24.17
-28.95
-32.99
-36.25
-38.54
-39.67
-39.51
-38.11
-35.64
-32.3
-28.29
-23.79
-19.04
-14.47
-10.67
-8.2
-7.5
-8.71
-11.63
-15.67
-19.97
-23.4
-24.77
-23.11
-17.93
-9.5
1.18
12.57
23.12
31.65
37.68
41.32
43.01
43.22
42.17
39.89
36.39
31.89
26.92
22.22
18.46
16.04
14.97
14.95
15.54
16.4
17.3
18.07
18.48
18.21
16.93
14.39
10.54
5.49
-0.54
-7.3
-14.53
-21.99
-29.44
-36.74
-43.65
-49.78
-54.4
-56.5
-55.03
-49.38
-39.76
-27.31
-13.86
-1.26
9.16
16.87
22.06
25.22
26.75
26.8
25.36
22.46
18.47
14.03
10.02
7.11
5.65
5.53
6.31
7.46
8.64
9.78
10.9
12
12.81
12.9
11.86
9.54
6.12
2.01
-2.47
-7.29
-12.74
-19.25
-27.07
-35.97
-45.16
-53.44
-59.45
-62.08
-60.67
-55.23
-46.46
-35.6
-24.11
-13.36
-4.25
2.79
7.79
10.97
12.56
12.79
11.94
10.39
8.68
7.26
6.41
6.08
6.05
6.09
6.07
5.95
5.68
5.01
3.61
1.19
-2.32
-6.66
-11.32
-15.72
-19.36
-21.93
-23.38
-24.01
-24.43
-25.54
-28.1
-32.35
-37.6
-42.26
-44.33
-42.29
-35.73
-25.59
-13.75
-2.24
7.47
14.84
19.99
23.42
25.51
26.49
26.46
25.67
24.54
23.58
23.17
23.34
23.91
24.49
24.77
24.64
24.15
23.42
22.48
21.16
19.17
16.28
12.44
7.82
2.87
-1.98
-6.41
-10.3
-13.81
-17.32
-21.22
-25.86
-31.26
-37.05
-42.39
-46.1
-46.98
-44.28
-37.92
-28.7
-18.03
-7.49
1.63
8.51
12.97
15.19
15.54
14.48
12.48
10.05
7.74
6.08
5.37
5.7
6.81
8.26
9.54
10.25
10.15
9.2
7.48
5.13
2.3
-0.81
-4.01
-7.11
-9.99
-12.62
-15.12
-17.75
-20.82
-24.63
-29.26
-34.42
-39.37
-43.04
-44.22
-42.06
-36.37
-27.79
-17.55
-7.13
2.24
9.86
15.5
19.31
21.5
22.3
21.93
20.65
18.79
16.7
14.67
12.93
11.68
11.03
11.01
11.49
12.12
12.42
11.94
10.39
7.8
4.39
0.52
-3.5
-7.49
-11.39
-15.18
-18.98
-22.97
-27.43
-32.61
-38.53
-44.72
-50.17
-53.55
-53.62
-49.65
-41.81
-31.07
-19
-7.18
3.14
11.34
17.39
21.6
24.37
25.92
26.33
25.64
24.02
21.91
19.89
18.51
18.05
18.4
19.17
19.94
20.41
20.46
20.11
19.34
18.08
16.24
13.82
10.99
7.93
4.83
1.68
-1.68
-5.54
-10.16
-15.64
-21.79
-28.05
-33.47
-36.86
-37.15
-33.68
-26.55
-16.66
-5.48
5.39
14.68
21.71
26.48
29.43
31.23
32.4
33.23
33.78
33.97
33.75
33.22
32.54
31.87
31.19
30.36
29.13
27.33
24.96
22.14
19.05
15.76
12.24
8.4
4.29
0.12
-3.72
-6.96
-9.68
-12.35
-15.73
-20.47
-26.74
-33.96
-40.83
-45.76
-47.36
-44.94
-38.73
-29.72
-19.28
-8.66
1.23
9.92
17.22
22.93
26.89
28.99
29.39
28.58
27.31
26.28
25.9
26.15
26.65
27.04
27.11
26.91
26.57
26.08
25.26
23.77
21.43
18.29
14.68
10.95
7.35
3.86
0.31
-3.49
-7.67
-12.33
-17.56
-23.39
-29.69
-35.9
-41.05
-43.97
-43.66
-39.8
-32.81
-23.78
-14.01
-4.65
3.54
10.12
14.89
17.76
18.74
18.04
16.1
13.54
11.05
9.15
8.15
7.99
8.43
9.09
9.71
10.13
10.39
10.59
10.75
10.81
10.58
9.87
8.62
6.96
5.21
3.71
2.69
2.06
1.44
0.14
-2.57
-7.07
-13.13
-19.75
-25.36
-28.3
-27.59
-23.21
-16.17
-7.98
0.01
7.09
13.18
18.51
23.07
26.48
28.16
27.74
25.46
22.13
18.79
16.32
15.05
14.8
15.03
15.17
14.8
13.74
12.03
9.79
7.19
4.48
1.88
-0.41
-2.29
-3.75
-4.86
-5.8
-6.86
-8.39
-10.78
-14.27
-18.77
-23.83
-28.63
-32.2
-33.58
-32.17
-27.8
-20.86
-12.19
-2.87
6.11
14.06
20.62
25.65
29.05
30.63
30.18
27.72
23.71
19.03
14.72
11.59
9.89
9.24
8.95
8.33
6.98
4.92
2.39
-0.31
-2.95
-5.44
-7.83
-10.24
-12.77
-15.52
-18.5
-21.7
-25.11
-28.81
-32.83
-37.03
-40.91
-43.59
-44.12
-41.8
-36.61
-29.24
-20.91
-12.9
-6.06
-0.69
3.38
6.46
8.76
10.25
10.88
10.71
10.02
9.27
8.92
9.26
10.38
12.19
14.5
17.01
19.39
21.25
22.26
22.23
21.21
19.45
17.24
14.82
12.22
9.43
6.46
3.46
0.69
-1.75
-4
-6.52
-9.78
-13.9
-18.43
-22.33
-24.36
-23.54
-19.56
-12.78
-4.13
5.25
14.25
21.9
27.51
30.68
31.43
30.22
27.91
25.49
23.82
23.36
24.04
25.38
26.59
26.89
25.68
22.75
18.27
12.77
6.85
0.99
-4.59
-9.87
-14.93
-19.69
-23.95
-27.45
-30.04
-31.82
-33.1
-34.33
-35.96
-38.33
-41.56
-45.48
-49.44
-52.48
-53.45
-51.45
-46.09
-37.75
-27.37
-16.2
-5.32
4.49
12.81
19.44
24.32
27.48
29.12
29.63
29.5
29.12
28.64
27.97
26.88
25.29
23.33
21.34
19.71
18.66
18
17.2
15.5
12.24
7.19
0.67
-6.57
-13.57
-19.61
-24.42
-28.22
-31.6
-35.27
-39.79
-45.43
-51.9
-58.35
-63.45
-65.74
-64.19
-58.67
-50.13
-40.24
-30.69
-22.5
-15.73
-9.85
-4.37
0.72
4.83
7.26
7.81
7.06
6.21
6.55
8.83
13
18.37
24.01
29.18
33.51
36.95
39.51
41.14
41.61
40.75
38.5
35.05
30.75
25.96
21.04
16.22
11.58
7.03
2.33
-2.91
-9.13
-16.52
-24.81
-33.02
-39.72
-43.39
-43.06
-38.69
-31.22
-22.23
-13.35
-5.74
0.09
4.24
7.06
8.89
9.95
10.45
10.65
11
11.96
13.81
16.47
19.5
22.28
24.26
25.16
25.03
24.1
22.55
20.44
17.73
14.43
10.81
7.34
4.53
2.59
1.31
0.08
-1.91
-5.3
-10.39
-17.01
-24.49
-31.85
-37.87
-41.35
-41.38
-37.65
-30.52
-20.97
-10.37
-0.12
8.63
15.11
18.99
20.35
19.59
17.4
14.49
11.44
8.6
5.96
3.41
0.85
-1.68
-4.02
-5.93
-7.3
-8.09
-8.44
-8.55
-8.74
-9.28
-10.29
-11.72
-13.31
-14.71
-15.66
-16.09
-16.23
-16.46
-17.19
-18.77
-21.39
-25.04
-29.34
-33.53
-36.48
-36.99
-34.09
-27.55
-17.94
-6.48
5.36
16.23
25.18
31.67
35.46
36.6
35.39
32.4
28.47
24.53
21.35
19.38
18.72
19.17
20.46
22.32
24.46
26.56
28.1
28.53
27.38
24.51
20.21
15.13
9.96
5.1
0.57
-3.96
-8.86
-14.35
-20.36
-26.71
-33.15
-39.39
-45.01
-49.24
-51.13
-49.77
-44.77
-36.55
-26.26
-15.43
-5.39
3.05
9.65
14.51
17.82
19.67
20.13
19.37
17.78
15.93
14.4
13.64
13.82
14.87
16.55
18.54
20.51
22.14
23.1
23.12
21.99
19.66
16.23
11.99
7.32
2.63
-1.81
-5.93
-9.93
-14.25
-19.45
-25.98
-33.79
-42.14
-49.61
-54.44
-55.09
-50.8
-41.94
-29.88
-16.53
-3.68
7.41
16.21
22.7
27.06
29.51
30.19
29.32
27.34
24.88
22.63
21.04
20.26
20.07
20.12
20.06
19.69
18.86
17.45
15.35
12.44
8.81
4.67
0.36
-3.84
-7.8
-11.63
-15.54
-19.77
-24.58
-30.12
-36.45
-43.36
-50.24
-56.04
-59.48
-59.45
-55.46
-47.87
-37.78
-26.71
-16.1
-7
0.09
5.12
8.24
9.75
9.85
8.81
6.96
4.73
2.64
1.19
0.78
1.49
3.21
5.58
8.23
10.81
13.16
15.24
17.09
18.69
19.92
20.57
20.32
18.97
16.47
13.02
8.95
4.53
-0.15
-5.19
-10.69
-16.48
-21.87
-25.76
-26.99
-24.81
-19.25
-11.15
-1.88
7.17
15.04
21.33
26.14
29.64
31.96
33.02
32.75
31.33
29.22
27.09
25.53
24.85
24.95
25.52
26.13
26.45
26.22
25.24
23.28
20.22
16.11
11.29
6.33
1.8
-1.93
-4.89
-7.44
-10.12
-13.5
-17.93
-23.6
-30.27
-37.33
-43.71
-48.02
-48.94
-45.68
-38.33
-27.95
-16.2
-4.79
5.08
12.99
19.17
24.08
28.01
30.92
32.58
32.86
31.94
30.27
28.45
26.97
26.1
25.82
25.95
26.21
26.31
26
25.12
23.55
21.32
18.46
15.08
11.35
7.51
3.8
0.37
-2.79
-5.95
-9.59
-14.23
-20.07
-26.78
-33.42
-38.59
-40.9
-39.42
-34.08
-25.67
-15.51
-5.06
4.56
12.75
19.37
24.41
27.89
29.74
29.95
28.8
26.87
24.87
23.41
22.79
22.92
23.42
23.81
23.73
22.94
21.39
19.05
15.93
12.09
7.64
2.79
-2.19
-7.1
-11.79
-16.22
-20.41
-24.43
-28.39
-32.4
-36.43
-40.19
-43.05
-44.12
-42.58
-37.91
-30.28
-20.47
-9.65
1.04
10.88
19.57
27.08
33.37
38.22
41.3
42.34
41.31
38.51
34.52
30.03
25.7
22.08
19.48
17.94
17.2
16.81
16.21
15.02
13.1
10.67
8.09
5.76
3.93
2.68
1.91
1.38
0.66
-0.79
-3.49
-7.73
-13.31
-19.48
-25.06
-28.75
-29.58
-27.08
-21.55
-13.82
-5.1
3.36
10.61
16.1
19.8
21.98
23.1
23.51
23.4
22.8
21.64
20.01
18.13
16.41
15.19
14.65
14.75
15.17
15.51
15.42
14.79
13.68
12.26
10.55
8.41
5.53
1.61
-3.41
-9.38
-15.93
-22.78
-29.81
-37
-44.21
-50.94
-56.24
-58.94
-58.09
-53.36
-45.22
-34.83
-23.72
-13.37
-4.85
1.29
5.02
6.7
6.89
6.17
5.02
3.82
2.92
2.63
3.26
4.92
7.51
10.57
13.5
15.7
16.86
16.97
16.28
15.08
13.54
11.7
9.51
7.02
4.39
1.88
-0.38
-2.48
-4.81
-7.88
-12.09
-17.26
-22.65
-26.94
-28.84
-27.54
-23.18
-16.75
-9.77
-3.58
1.08
4.24
6.44
8.26
10.03
11.61
12.71
13.07
12.73
12.02
11.39
11.21
11.6
12.48
13.65
14.87
15.96
16.74
17.06
16.71
15.58
13.62
10.94
7.76
4.32
0.88
-2.37
-5.37
-8.24
-11.22
-14.67
-18.77
-23.29
-27.56
-30.49
-31.01
-28.48
-22.99
-15.34
-6.71
1.76
9.26
15.39
20.09
23.36
25.17
25.49
24.4
22.25
19.61
17.17
15.51
14.9
15.22
16.03
16.76
16.95
16.38
15.1
13.31
11.18
8.75
5.98
2.81
-0.65
-4.17
-7.5
-10.56
-13.45
-16.53
-20.21
-24.63
-29.66
-34.74
-39.07
-41.81
-42.3
-40.28
-35.87
-29.61
-22.26
-14.69
-7.66
-1.81
2.48
5.04
5.97
5.54
4.14
2.23
0.22
-1.49
-2.6
-2.92
-2.45
-1.35
0.06
1.42
2.39
2.75
2.41
1.32
-0.51
-3.04
-6.15
-9.66
-13.38
-17.26
-21.31
-25.65
-30.34
-35.32
-40.34
-44.99
-48.69
-50.82
-50.78
-48.08
-42.48
-34.08
-23.4
-11.32
1.08
12.69
22.65
30.42
35.82
38.97
40.19
39.88
38.4
36.05
33.11
29.84
26.53
23.49
20.93
18.93
17.42
16.07
14.52
12.4
9.54
6.03
2.17
-1.62
-5.03
-7.9
-10.36
-12.69
-15.29
-18.53
-22.63
-27.51
-32.66
-37.24
-40.14
-40.43
-37.64
-31.9
-23.97
-14.94
-5.9
2.29
9.15
14.49
18.34
20.78
22.03
22.3
21.91
21.17
20.39
19.78
19.43
19.31
19.3
19.2
18.85
18.13
17.01
15.52
13.76
11.8
9.7
7.46
5.1
2.67
0.24
-2.13
-4.47
-6.98
-9.91
-13.56
-18.01
-23.03
-27.99
-31.95
-33.94
-33.24
-29.65
-23.53
-15.72
-7.24
0.96
8.19
14.12
18.56
21.51
23
23.19
22.34
20.81
19.06
17.47
16.36
15.88
16.08
16.93
18.29
19.86
21.15
21.6
20.7
18.16
14.12
9.12
3.89
-0.88
-4.71
-7.54
-9.57
-11.19
-12.86
-15.04
-18.09
-22.18
-27.1
-32.13
-36.13
-37.87
-36.44
-31.67
-24.22
-15.33
-6.35
1.66
8.18
13.11
16.57
18.6
19.2
18.41
16.44
13.74
10.92
8.55
6.96
6.24
6.25
6.79
7.63
8.53
9.26
9.48
8.93
7.45
5.12
2.25
-0.75
-3.6
-6.22
-8.82
-11.78
-15.52
-20.31
-26.1
-32.48
-38.64
-43.47
-45.81
-44.82
-40.19
-32.39
-22.52
-12.03
-2.3
5.68
11.49
15.15
16.97
17.37
16.74
15.48
13.94
12.46
11.22
10.32
9.72
9.34
9.16
9.19
9.4
9.68
9.75
9.34
8.26
6.54
4.35
1.94
-0.51
-3.01
-5.66
-8.66
-12.2
-16.42
-21.44
-27.19
-33.24
-38.74
-42.51
-43.32
-40.41
-33.87
-24.58
-14.02
-3.68
5.31
12.44
17.65
21.15
23.15
23.78
23.23
21.78
19.91
18.15
16.89
16.26
16.15
16.31
16.47
16.49
16.25
15.64
14.51
12.69
10.08
6.79
3.04
-0.9
-4.84
-8.7
-12.51
-16.31
-20.22
-24.44
-29.2
-34.65
-40.49
-45.91
-49.62
-50.31
-47.12
-40.09
-30.14
-18.71
-7.33
2.84
11.16
17.48
21.9
24.7
26.15
26.59
26.3
25.6
24.71
23.84
23.13
22.65
22.35
22.06
21.61
20.82
19.62
18.02
16.03
13.68
10.97
7.88
4.44
0.74
-3.09
-6.87
-10.53
-14.11
-17.86
-22.17
-27.24
-32.93
-38.46
-42.62
-44.02
-41.73
-35.68
-26.7
-16.24
-5.8
3.47
11
16.68
20.58
22.82
23.5
22.84
21.21
19.21
17.46
16.45
16.36
17.04
18.13
19.16
19.77
19.75
19.05
17.68
15.67
13.03
9.82
6.18
2.4
-1.23
-4.49
-7.38
-10.15
-13.22
-17.03
-21.84
-27.5
-33.37
-38.41
-41.36
-41.19
-37.4
-30.33
-20.98
-10.77
-1.03
7.33
13.96
18.93
22.44
24.65
25.55
25.12
23.45
20.94
18.18
15.9
14.62
14.5
15.27
16.37
17.13
17.04
15.92
13.87
11.12
7.95
4.53
0.94
-2.76
-6.46
-10.01
-13.38
-16.74
-20.61
-25.57
-31.91
-39.27
-46.48
-51.82
-53.67
-51.16
-44.63
-35.44
-25.42
-16.19
-8.64
-2.87
1.43
4.55
6.45
6.91
5.65
2.74
-1.36
-5.91
-10.17
-13.62
-16.07
-17.61
-18.51
-19.21
-20.3
-22.44
-26.17
-31.51
-37.72
-43.19
-45.93
-44.29
-37.69
-26.88
-13.73
-0.47
10.93
19.17
23.56
23.86
20.07
12.67
2.91
-7.16
-14.97
-18.22
-15.65
-7.51
4.71
18.89
32.91
45.15
54.53
60.49
62.97
62.39
59.68
56.08
52.81
50.62
49.63
49.42
49.43
49.23
48.71
47.86
46.59
44.63
41.64
37.45
32.26
26.61
21.16
16.44
12.58
9.35
6.18
2.43
-2.48
-8.78
-16.23
-24.02
-30.9
-35.52
-36.86
-34.69
-29.7
-23.29
-17.05
-12.19
-9.2
-7.74
-6.96
-5.86
-3.56
0.51
6.52
14.22
22.94
31.63
39.12
44.4
46.9
46.61
43.93
39.5
34.02
28.17
22.65
18.17
15.27
14.11
14.28
14.85
14.77
13.2
9.82
4.8
-1.38
-8.28
-15.55
-22.82
-29.6
-35.2
-38.88
-40.08
-38.63
-34.8
-29.22
-22.64
-15.76
-9.23
-3.58
0.69
3.19
3.69
2.33
-0.4
-3.64
-6.46
-8.13
-8.37
-7.4
-5.75
-4.09
-2.84
-2.12
-1.82
-1.79
-1.98
-2.42
-3.21
-4.36
-5.72
-7.05
-8.1
-8.81
-9.35
-10.11
-11.52
-13.91
-17.3
-21.23
-24.9
-27.35
-27.82
-25.97
-21.94
-16.19
-9.34
-1.91
5.69
13.18
20.28
26.62
31.76
35.32
37.11
37.39
36.86
36.67
38.02
41.87
48.57
57.76
68.5
79.48
89.23
96.33
99.42
97.44
90.02
77.69
62.06
45.44
30.12
17.63
8.34
1.78
-2.75
-5.39
-5.7
-3.02
2.79
11.02
20.26
29.09
36.86
43.96
51.6
60.9
72.22
84.67
96.44
105.37
109.58
107.77
99.24
83.82
61.87
34.61
4.23
-26.14
-53.04
-73.49
-85.85
-90.2
-88.03
-81.59
-72.93
-63.42
-53.66
-43.78
-33.99
-24.68
-16.49
-9.91
-5.05
-1.51
1.26
3.49
4.62
3.38
-1.7
-11.53
-25.67
-42.38
-59.12
-73.65
-84.76
-92.58
-98.12
-102.43
-105.98
-108.45
-109.12
-107.38
-103.02
-96.21
-87.15
-75.83
-62.05
-45.83
-27.71
-8.94
8.75
23.67
34.63
41.25
43.87
43.31
40.51
36.33
31.39
26.08
20.57
14.92
9.08
2.93
-3.65
-10.82
-18.67
-27.16
-35.94
-44.26
-51
-55.01
-55.34
-51.67
-44.39
-34.55
-23.65
-13.22
-4.57
1.49
4.71
5.46
4.54
3.01
1.82
1.63
2.65
4.7
7.37
10.22
12.91
15.33
17.42
19.17
20.59
21.66
22.46
23.15
23.87
24.72
25.53
25.99
25.69
24.35
21.88
18.53
14.61
10.49
6.47
2.81
-0.07
-1.58
-1.02
2.17
8.12
16.35
25.84
35.38
43.98
51.18
57.02
61.79
65.68
68.56
69.95
69.25
66.08
60.55
53.28
45.27
37.6
31.09
26.14
22.63
19.93
16.99
12.44
4.93
-6.42
-21.48
-38.85
-56.16
-70.82
-81.03
-86.46
-88.24
-88.16
-87.83
-87.83
-87.79
-86.89
-84.43
-80.18
-74.29
-66.98
-58.32
-48.43
-37.71
-27.01
-17.47
-10.06
-5.23
-2.73
-1.79
-1.5
-1.08
-0.12
1.54
3.81
6.5
9.38
12.19
14.75
16.88
18.43
19.19
18.85
17.14
13.94
9.5
4.37
-0.73
-5.22
-8.89
-12.01
-15.15
-18.98
-23.95
-30.15
-37.18
-44.24
-50.24
-54.08
-54.91
-52.4
-46.8
-38.89
-29.69
-20.23
-11.29
-3.37
3.34
8.77
12.88
15.69
17.23
17.65
17.25
16.46
15.86
16
17.36
20.13
24.17
28.86
33.42
37.02
39.12
39.67
39.1
38.11
37.3
36.96
36.86
36.48
35.28
33.05
30.02
26.83
24.32
23.33
24.51
28.18
34.13
41.38
48.12
52
50.8
43.29
29.89
12.81
-4.76
-19.63
-29.87
-35.28
-37.12
-37.21
-36.98
-36.95
-36.87
-36.34
-35.31
-34.34
-34.24
-35.47
-37.82
-40.36
-41.99
-42.03
-40.57
-38.45
-36.72
-36.13
-36.78
-38.22
-39.76
-40.87
-41.49
-41.98
-42.97
-44.92
-47.88
-51.18
-53.63
-53.82
-50.68
-43.93
-34.21
-22.88
-11.52
-1.43
6.66
12.52
16.28
18.11
18.2
16.84
14.44
11.59
8.82
6.52
4.79
3.53
2.58
1.81
1.2
0.75
0.46
0.26
0.07
-0.18
-0.45
-0.63
-0.6
-0.32
0.05
0.21
-0.24
-1.67
-4.32
-8.13
-12.74
-17.44
-21.22
-22.93
-21.5
-16.34
-7.61
3.79
16.36
28.54
39.16
47.67
54.12
58.76
61.82
63.39
63.54
62.55
61.03
59.78
59.53
60.69
63.21
66.65
70.33
73.51
75.44
75.45
73.08
68.16
61.02
52.39
43.19
34.19
25.69
17.42
8.7
-1.16
-12.57
-25.39
-38.91
-51.97
-63.17
-71.11
-74.73
-73.65
-68.34
-60.15
-50.91
-42.49
-36.13
-32.17
-30.1
-28.98
-27.98
-26.75
-25.53
-24.85
-25.13
-26.33
-27.78
-28.41
-27.14
-23.31
-16.98
-8.95
-0.45
7.33
13.48
17.63
19.71
19.9
18.34
15.3
11.19
6.67
2.49
-0.72
-2.86
-4.41
-6.23
-9.11
-13.26
-18.08
-22.27
-24.32
-23.1
-18.33
-10.59
-1.14
8.61
17.47
24.73
30.12
33.66
35.6
36.22
35.92
35.11
34.18
33.39
32.84
32.47
32.15
31.75
31.13
30.2
28.85
27.05
24.77
22.08
19.04
15.74
12.23
8.59
4.91
1.26
-2.38
-6.2
-10.5
-15.58
-21.47
-27.71
-33.32
-36.97
-37.49
-34.23
-27.39
-17.99
-7.51
2.6
11.3
18.2
23.39
27.17
29.74
31.16
31.41
30.57
28.93
26.97
25.13
23.73
22.81
22.26
21.81
21.24
20.39
19.16
17.45
15.17
12.29
8.83
4.97
0.99
-2.84
-6.3
-9.38
-12.3
-15.47
-19.38
-24.37
-30.41
-36.97
-42.99
-47.23
-48.57
-46.41
-40.9
-32.85
-23.49
-14.04
-5.41
1.89
7.68
11.89
14.53
15.6
15.3
14.02
12.38
10.92
10.01
9.65
9.62
9.66
9.57
9.35
9.07
8.75
8.33
7.63
6.49
4.9
3.02
1.1
-0.62
-2.13
-3.62
-5.52
-8.28
-12.19
-17.24
-23.03
-28.75
-33.37
-35.85
-35.37
-31.63
-24.9
-16.03
-6.24
3.21
11.38
17.81
22.47
25.61
27.42
28.03
27.48
25.91
23.67
21.26
19.21
17.85
17.27
17.34
17.85
18.61
19.42
20.08
20.26
19.6
17.81
14.83
10.9
6.52
2.25
-1.55
-4.76
-7.56
-10.3
-13.3
-16.82
-20.87
-25.19
-29.22
-32.12
-32.96
-31
-25.94
-18.16
-8.6
1.47
10.85
18.63
24.38
27.98
29.6
29.54
28.28
26.37
24.39
22.81
21.8
21.29
21.04
20.8
20.38
19.72
18.8
17.59
16.06
14.16
11.97
9.63
7.27
4.97
2.74
0.52
-1.77
-4.17
-6.75
-9.63
-12.98
-16.97
-21.55
-26.3
-30.41
-32.78
-32.43
-28.79
-22.04
-13.15
-3.55
5.3
12.38
17.37
20.47
22.22
23.04
23.14
22.55
21.33
19.71
18.06
16.77
15.98
15.58
15.22
14.56
13.46
11.98
10.29
8.51
6.63
4.53
2.04
-0.92
-4.29
-7.88
-11.44
-14.72
-17.59
-20.09
-22.52
-25.31
-28.89
-33.39
-38.31
-42.6
-44.86
-43.9
-39.23
-31.36
-21.62
-11.65
-2.88
3.89
8.54
11.36
12.73
12.95
12.27
11.01
9.67
8.79
8.77
9.69
11.31
13.24
15.11
16.77
18.2
19.38
20.1
20.13
19.22
17.41
14.96
12.22
9.46
6.69
3.74
0.42
-3.35
-7.51
-12.02
-16.86
-22.02
-27.23
-31.85
-34.78
-34.92
-31.55
-24.78
-15.58
-5.52
3.84
11.42
16.75
20
21.53
21.71
20.72
18.73
16.01
13.04
10.41
8.57
7.72
7.68
8.06
8.47
8.62
8.33
7.54
6.19
4.21
1.66
-1.32
-4.44
-7.4
-10.03
-12.33
-14.44
-16.56
-18.93
-21.76
-25.25
-29.38
-33.78
-37.64
-39.75
-38.95
-34.57
-26.83
-16.82
-6.22
3.37
10.9
16.06
19.07
20.35
20.22
18.79
16.19
12.71
8.92
5.52
3.11
2.05
2.28
3.47
5.13
6.74
7.83
8.09
7.36
5.76
3.57
1.15
-1.23
-3.51
-5.88
-8.6
-11.87
-15.75
-20.18
-24.98
-29.91
-34.64
-38.53
-40.75
-40.34
-36.67
-29.67
-20.08
-9.25
1.21
9.94
16.14
19.67
20.9
20.43
18.85
16.66
14.25
11.96
10.12
9.01
8.8
9.43
10.61
11.8
12.41
11.97
10.28
7.54
4.14
0.64
-2.57
-5.27
-7.54
-9.6
-11.72
-14.11
-16.96
-20.44
-24.7
-29.7
-35.1
-40.13
-43.67
-44.54
-41.93
-35.74
-26.64
-15.96
-5.2
4.35
11.93
17.35
20.84
22.77
23.48
23.16
21.98
20.14
17.98
15.96
14.53
13.93
14.16
14.9
15.68
16.11
15.96
15.16
13.73
11.69
9.05
5.89
2.44
-1.04
-4.26
-7.13
-9.79
-12.69
-16.31
-20.98
-26.59
-32.49
-37.59
-40.64
-40.55
-36.82
-29.68
-20.08
-9.43
0.8
9.48
16.03
20.4
22.87
23.85
23.65
22.51
20.74
18.7
16.9
15.81
15.66
16.37
17.53
18.62
19.19
19.05
18.19
16.73
14.73
12.21
9.18
5.72
2.07
-1.48
-4.71
-7.61
-10.43
-13.6
-17.5
-22.25
-27.48
-32.34
-35.74
-36.62
-34.34
-28.9
-20.93
-11.5
-1.78
7.21
14.8
20.66
24.77
27.19
28.12
27.8
26.55
24.83
23.11
21.82
21.16
21.14
21.56
22.12
22.58
22.79
22.68
22.16
21.19
19.68
17.63
15.13
12.37
9.55
6.76
3.94
0.9
-2.63
-6.84
-11.84
-17.52
-23.45
-28.86
-32.71
-33.91
-31.73
-26.1
-17.76
-8.07
1.41
9.4
15.26
19.01
21.11
22.07
22.23
21.71
20.48
18.69
16.66
14.85
13.69
13.36
13.69
14.21
14.42
13.94
12.7
10.82
8.54
6.04
3.36
0.51
-2.47
-5.38
-7.99
-10.11
-11.78
-13.32
-15.23
-18.04
-21.95
-26.69
-31.45
-35.04
-36.3
-34.45
-29.42
-21.82
-12.79
-3.61
4.67
11.4
16.38
19.71
21.6
22.26
21.88
20.68
19
17.24
15.82
14.99
14.77
14.92
15.1
14.96
14.35
13.33
12.03
10.6
9.09
7.44
5.55
3.39
0.95
-1.74
-4.65
-7.88
-11.54
-15.76
-20.49
-25.42
-29.92
-33.08
-33.97
-31.92
-26.81
-19.19
-10.17
-1.02
7.1
13.51
17.98
20.7
21.98
22.12
21.4
20.05
18.36
16.7
15.41
14.79
14.93
15.69
16.77
17.81
18.49
18.66
18.31
17.5
16.34
14.86
13.05
10.9
8.43
5.78
3.12
0.65
-1.56
-3.66
-5.91
-8.65
-12.01
-15.75
-19.22
-21.55
-21.92
-19.85
-15.48
-9.46
-2.73
3.82
9.61
14.35
17.99
20.44
21.53
21
18.74
15.07
10.69
6.65
3.92
3.09
4.12
6.48
9.36
12.03
14.03
15.19
15.51
14.98
13.52
11.03
7.51
3.16
-1.57
-6.21
-10.38
-14
-17.25
-20.48
-23.95
-27.53
-30.66
-32.38
-31.68
-27.85
-20.8
-11.14
0.01
11.32
21.51
29.53
34.59
36.2
34.31
29.42
22.62
15.34
8.97
4.38
1.72
0.5
-0.06
-0.55
-1.25
-2.13
-3.17
-4.4
-5.97
-7.96
-10.22
-12.49
-14.54
-16.43
-18.53
-21.35
-25.27
-30.27
-35.93
-41.59
-46.55
-50.19
-51.95
-51.26
-47.58
-40.64
-30.65
-18.5
-5.59
6.58
16.76
24.29
29.14
31.63
32.19
31.22
29.03
26.05
22.79
19.91
17.88
16.9
16.7
16.65
16.05
14.36
11.44
7.51
3.03
-1.5
-5.66
-9.12
-11.7
-13.3
-14.08
-14.37
-14.71
-15.62
-17.47
-20.29
-23.82
-27.65
-31.18
-33.8
-34.85
-33.67
-29.79
-23.17
-14.36
-4.47
5.11
13.21
19.17
22.93
24.94
25.69
25.49
24.44
22.5
19.85
16.86
14.12
12.06
10.87
10.36
10.17
9.9
9.34
8.42
7.18
5.64
3.82
1.69
-0.69
-3.23
-5.76
-8.13
-10.25
-12.14
-13.95
-15.89
-18.17
-20.89
-23.79
-26.26
-27.45
-26.42
-22.55
-15.77
-6.56
4.13
15.17
25.52
34.44
41.55
46.84
50.57
53.15
54.99
56.42
57.64
58.64
59.33
59.64
59.62
59.45
59.35
59.48
59.77
59.92
59.52
58.14
55.55
51.73
46.77
40.84
34.15
26.82
19
10.81
2.27
-6.67
-16.2
-26.42
-37.22
-48.04
-58.02
-66.08
-71.22
-72.83
-70.88
-65.99
-59.31
-52.18
-45.88
-41.26
-38.64
-37.84
-38.41
-39.8
-41.51
-43.09
-44.12
-44.2
-43.09
-40.76
-37.46
-33.64
-29.73
-26.09
-22.91
-20.34
-18.49
-17.52
-17.51
-18.41
-20.07
-22.2
-24.57
-27.09
-29.72
-32.49
-35.44
-38.64
-42.21
-46.2
-50.36
-54.06
-56.23
-55.75
-51.86
-44.56
-34.75
-23.91
-13.57
-4.82
1.93
6.8
10.16
12.35
13.57
13.98
13.74
13.11
12.36
11.72
11.36
11.41
11.92
12.87
14.12
15.33
16.03
15.77
14.28
11.66
8.28
4.63
1.14
-2.04
-4.99
-7.93
-11.06
-14.53
-18.48
-22.98
-27.89
-32.75
-36.66
-38.41
-36.91
-31.65
-22.99
-12.09
-0.43
10.71
20.67
29.28
36.57
42.24
45.6
45.77
42.23
35.27
26.1
16.56
8.5
3.14
0.82
0.98
2.6
4.61
6.21
6.99
6.77
5.57
3.43
0.46
-3.1
-6.92
-10.68
-14.18
-17.43
-20.7
-24.38
-28.85
-34.36
-40.8
-47.64
-53.85
-58.12
-59.1
-55.91
-48.4
-37.33
-24.2
-10.69
1.74
12.2
20.27
25.71
28.3
27.79
24.14
17.86
10.07
2.32
-3.84
-7.32
-7.81
-5.72
-2
2.26
6.08
8.77
9.98
9.62
7.83
4.89
1.13
-3.11
-7.42
-11.46
-14.98
-18
-20.85
-24.12
-28.33
-33.59
-39.25
-43.94
-46.04
-44.28
-38.29
-28.77
-17.21
-5.31
5.57
14.67
21.85
27.26
31.12
33.57
34.77
34.96
34.5
33.87
33.44
33.39
33.68
34.12
34.46
34.49
34.07
33.12
31.59
29.44
26.67
23.37
19.66
15.72
11.77
8.01
4.58
1.53
-1.31
-4.32
-7.99
-12.74
-18.6
-24.96
-30.64
-34.18
-34.35
-30.69
-23.65
-14.4
-4.45
4.9
12.78
18.86
23.14
25.74
26.86
26.7
25.57
23.9
22.22
20.94
20.3
20.29
20.75
21.46
22.2
22.79
23.1
22.95
22.23
20.84
18.83
16.36
13.61
10.71
7.69
4.5
1.11
-2.45
-6.15
-10.12
-14.55
-19.62
-25.21
-30.59
-34.55
-35.71
-33.1
-26.69
-17.46
-7.02
2.95
11.33
17.7
22.22
25.26
27.05
27.73
27.36
26.17
24.58
23.07
22.04
21.64
21.76
22.12
22.45
22.52
22.15
21.27
19.8
17.79
15.29
12.45
9.44
6.4
3.43
0.55
-2.33
-5.32
-8.64
-12.52
-17.16
-22.45
-27.93
-32.69
-35.54
-35.39
-31.68
-24.63
-15.22
-4.85
5.12
13.73
20.55
25.6
28.97
30.78
31.12
30.22
28.48
26.48
24.73
23.54
22.88
22.49
22.06
21.38
20.39
19.18
17.84
16.35
14.61
12.49
9.9
6.9
3.6
0.2
-3.12
-6.29
-9.34
-12.49
-16.04
-20.24
-25.16
-30.43
-35.21
-38.31
-38.54
-35.25
-28.61
-19.68
-10.05
-1.22
5.82
10.87
14.24
16.4
17.58
17.79
16.9
15
12.48
9.92
7.86
6.58
6.07
6.07
6.27
6.36
6.09
5.24
3.69
1.44
-1.33
-4.35
-7.36
-10.26
-13.11
-16.03
-19.09
-22.27
-25.56
-29
-32.73
-36.85
-41.15
-44.95
-47.13
-46.53
-42.45
-34.98
-25.11
-14.35
-4.23
4.19
10.55
14.98
17.89
19.59
20.24
19.92
18.76
17.1
15.4
14.12
13.5
13.55
14.03
14.62
14.99
14.87
14.08
12.56
10.34
7.57
4.48
1.25
-1.98
-5.2
-8.45
-11.77
-15.2
-18.81
-22.73
-27.15
-32.14
-37.38
-42.08
-45.06
-45.16
-41.7
-34.81
-25.48
-15.16
-5.31
3.08
9.58
14.27
17.49
19.56
20.73
21.16
20.97
20.29
19.25
17.98
16.6
15.28
14.22
13.56
13.32
13.31
13.11
12.2
10.19
6.93
2.6
-2.37
-7.49
-12.38
-16.8
-20.76
-24.38
-27.96
-31.89
-36.62
-42.45
-49.22
-56.15
-61.83
-64.66
-63.4
-57.64
-47.99
-35.86
-22.91
-10.45
0.77
10.57
19.06
26.35
32.42
37.14
40.35
42.04
42.4
41.75
40.42
38.68
36.72
34.55
32.21
29.82
27.65
26.05
25.28
25.3
25.72
25.93
25.38
23.76
21.13
17.75
13.98
10
5.9
1.71
-2.47
-6.31
-9.21
-10.41
-9.13
-4.79
2.71
12.99
25.17
38.09
50.51
61.34
69.71
74.98
76.77
74.91
69.52
61.14
50.78
39.82
29.84
22.16
17.51
15.78
16.25
17.77
19.37
20.45
20.85
20.65
19.89
18.46
16.14
12.85
8.79
4.49
0.63
-2.24
-3.93
-4.78
-5.69
-7.81
-12.14
-18.95
-27.49
-36
-42.31
-44.56
-41.92
-34.9
-25.06
-14.45
-4.84
2.6
7.38
9.39
8.66
5.21
-0.76
-8.75
-17.83
-26.86
-34.74
-40.82
-44.98
-47.56
-49.06
-49.81
-49.82
-48.87
-46.77
-43.58
-39.73
-35.86
-32.6
-30.28
-28.84
-27.92
-27.04
-25.8
-23.92
-21.4
-18.59
-16.3
-15.63
-17.69
-22.98
-30.97
-39.96
-47.5
-51.22
-49.73
-43.11
-32.83
-21.08
-9.95
-0.8
5.89
10.34
13
14.22
14.21
13.1
11.21
9.05
7.29
6.44
6.76
8.03
9.79
11.47
12.67
13.23
13.23
12.92
12.48
12.02
11.45
10.59
9.19
7.09
4.29
0.91
-2.96
-7.44
-12.81
-19.29
-26.59
-33.74
-39.18
-41.25
-38.93
-32.25
-22.34
-10.96
0.14
9.72
17.3
22.9
26.77
29.15
30.15
29.89
28.64
26.8
24.9
23.42
22.66
22.65
23.18
23.87
24.35
24.36
23.79
22.61
20.84
18.45
15.44
11.89
7.95
3.9
-0.01
-3.69
-7.3
-11.17
-15.75
-21.35
-27.91
-34.86
-41.07
-45.18
-45.93
-42.64
-35.41
-25.16
-13.32
-1.42
9.3
18.12
24.76
29.28
31.83
32.65
32.04
30.42
28.34
26.33
24.82
24
23.79
23.92
24.01
23.75
22.91
21.43
19.32
16.64
13.48
9.98
6.24
2.36
-1.63
-5.75
-10.07
-14.68
-19.72
-25.4
-31.87
-39.04
-46.38
-52.86
-57.06
-57.69
-53.96
-46.02
-34.88
-22.12
-9.4
2.01
11.43
18.63
23.76
27.07
28.84
29.39
29.09
28.37
27.61
27.13
27.01
27.21
27.53
27.76
27.65
27.03
25.76
23.77
21.02
17.58
13.58
9.25
4.81
0.46
-3.69
-7.66
-11.56
-15.58
-20.04
-25.24
-31.37
-38.2
-44.92
-50.24
-52.68
-51.11
-45.23
-35.74
-24.04
-11.79
-0.36
9.49
17.54
23.83
28.43
31.32
32.44
32
30.47
28.56
26.99
26.22
26.33
27.1
28.11
28.92
29.25
28.95
27.93
26.18
23.64
20.33
16.32
11.84
7.23
2.87
-1.04
-4.46
-7.63
-11.08
-15.4
-21.08
-28.17
-36.12
-43.64
-49.13
-51.02
-48.36
-41.22
-30.66
-18.39
-6.26
4.33
12.7
18.82
23
25.61
26.87
26.93
25.96
24.28
22.42
20.89
20.06
19.97
20.33
20.74
20.82
20.39
19.42
17.96
15.96
13.35
10.04
6.14
1.93
-2.2
-5.9
-9.13
-12.16
-15.46
-19.58
-24.87
-31.26
-38.2
-44.66
-49.28
-50.81
-48.43
-42.08
-32.54
-21.23
-9.75
0.59
9.04
15.47
20.15
23.42
25.56
26.64
26.76
26.11
25.02
23.93
23.17
22.84
22.85
22.95
22.89
22.46
21.49
19.82
17.3
13.93
9.89
5.54
1.28
-2.64
-6.21
-9.63
-13.25
-17.37
-22.18
-27.76
-34
-40.44
-46.26
-50.28
-51.26
-48.36
-41.55
-31.64
-20.13
-8.64
1.57
9.91
16.4
21.36
25.08
27.66
29.09
29.41
28.86
27.92
27.07
26.65
26.67
26.89
26.96
26.62
25.82
24.62
23.08
21.15
18.69
15.57
11.78
7.51
3.03
-1.37
-5.57
-9.67
-13.95
-18.8
-24.57
-31.31
-38.62
-45.58
-50.87
-53.17
-51.56
-45.9
-36.87
-25.78
-14.15
-3.2
6.28
14.01
20.05
24.57
27.73
29.65
30.43
30.27
29.5
28.49
27.64
27.17
27.13
27.35
27.55
27.48
26.93
25.82
24.08
21.66
18.51
14.67
10.32
5.74
1.2
-3.17
-7.42
-11.76
-16.51
-21.97
-28.29
-35.28
-42.25
-48.06
-51.32
-50.82
-46.05
-37.47
-26.36
-14.43
-3.19
6.45
14.22
20.24
24.68
27.67
29.23
29.56
29.04
28.21
27.57
27.38
27.53
27.76
27.78
27.46
26.88
26.11
25.16
23.86
21.93
19.2
15.68
11.61
7.34
3.23
-0.51
-3.87
-7
-10.16
-13.7
-17.98
-23.21
-29.26
-35.46
-40.71
-43.71
-43.36
-39.2
-31.54
-21.42
-10.26
0.48
9.71
16.83
21.72
24.61
25.9
26
25.24
23.97
22.52
21.24
20.42
20.22
20.5
20.92
21.08
20.69
19.73
18.36
16.77
15.03
13.04
10.62
7.7
4.41
1.03
-2.13
-4.94
-7.48
-10.12
-13.29
-17.42
-22.69
-28.82
-35.07
-40.23
-42.98
-42.28
-37.84
-30.17
-20.5
-10.3
-0.84
7.05
13.07
17.25
19.75
20.75
20.45
19.15
17.3
15.42
14.04
13.5
13.9
15.04
16.48
17.73
18.37
18.17
17.11
15.33
13
10.26
7.19
3.82
0.22
-3.5
-7.2
-10.77
-14.2
-17.64
-21.39
-25.68
-30.54
-35.53
-39.79
-42.22
-41.84
-38.19
-31.52
-22.71
-13.03
-3.69
4.39
10.71
15.12
17.7
18.65
18.23
16.74
14.53
12.02
9.58
7.6
6.37
6
6.45
7.45
8.56
9.36
9.53
8.92
7.59
5.65
3.24
0.42
-2.72
-6.09
-9.56
-13.03
-16.6
-20.61
-25.5
-31.67
-39
-46.74
-53.6
-58.06
-58.96
-55.95
-49.56
-41
-31.67
-22.77
-14.98
-8.54
-3.42
0.53
3.39
5.28
6.39
7.01
7.53
8.22
9.28
10.71
12.44
14.39
16.5
18.67
20.69
22.25
22.97
22.51
20.71
17.58
13.27
7.99
2.01
-4.39
-10.97
-17.51
-23.95
-30.43
-37.15
-44.21
-51.32
-57.7
-62.19
-63.61
-61.19
-54.86
-45.32
-33.79
-21.75
-10.51
-0.99
6.35
11.49
14.73
16.51
17.3
17.5
17.38
17.16
16.91
16.71
16.55
16.32
15.84
14.85
13.17
10.74
7.7
4.33
0.91
-2.37
-5.54
-8.71
-12
-15.42
-18.92
-22.39
-25.88
-29.69
-34.26
-39.9
-46.5
-53.3
-58.98
-62.14
-61.63
-57.09
-49.01
-38.5
-26.93
-15.43
-4.73
4.85
13.19
20.23
25.85
29.97
32.69
34.25
34.99
35.25
35.29
35.16
34.89
34.42
33.8
33.14
32.52
31.89
31.13
30
28.28
25.95
23.11
20.04
17
14.11
11.31
8.39
5.11
1.19
-3.46
-8.81
-14.56
-20.01
-24.19
-25.97
-24.44
-19.28
-11.04
-0.94
9.41
18.65
26.03
31.49
35.43
38.29
40.34
41.58
41.91
41.36
40.24
39.05
38.23
38.06
38.48
39.11
39.55
39.46
38.7
37.36
35.56
33.35
30.63
27.2
22.9
17.79
12.14
6.32
0.63
-4.86
-10.33
-16.04
-22.1
-28.37
-34.32
-39.17
-42.11
-42.46
-39.94
-34.74
-27.51
-19.19
-10.79
-3.18
3.04
7.56
10.29
11.3
10.81
9.18
6.94
4.66
2.88
1.96
2.02
2.93
4.39
5.96
7.22
7.86
7.74
6.94
5.7
4.24
2.63
0.82
-1.36
-4.01
-7.05
-10.18
-13.07
-15.54
-17.68
-19.86
-22.51
-25.77
-29.25
-32.11
-33.22
-31.72
-27.35
-20.57
-12.42
-4.13
3.32
9.44
14.18
17.71
20.16
21.55
21.87
21.26
20.11
18.95
18.27
18.33
19.08
20.2
21.29
22.03
22.25
21.88
20.86
19.13
16.66
13.54
10.05
6.58
3.47
0.9
-1.24
-3.24
-5.47
-8.27
-11.85
-16.22
-21.1
-25.85
-29.56
-31.24
-30.18
-26.19
-19.8
-11.98
-3.94
3.39
9.51
14.35
18.05
20.73
22.35
22.77
21.91
19.89
17.1
14.08
11.38
9.35
8.09
7.45
7.2
7.15
7.24
7.47
7.79
8.01
7.81
6.87
5.08
2.5
-0.56
-3.69
-6.61
-9.21
-11.62
-14.2
-17.33
-21.24
-25.78
-30.33
-33.88
-35.36
-34.1
-30.05
-23.88
-16.68
-9.52
-3.2
1.95
5.79
8.28
9.34
8.89
7.1
4.38
1.34
-1.41
-3.44
-4.6
-4.98
-4.77
-4.2
-3.45
-2.72
-2.2
-2.09
-2.5
-3.43
-4.73
-6.16
-7.46
-8.49
-9.21
-9.71
-10.2
-10.89
-12.05
-13.89
-16.44
-19.44
-22.23
-23.89
-23.46
-20.32
-14.46
-6.53
2.31
10.88
18.25
23.95
27.91
30.2
30.83
29.74
26.92
22.63
17.46
12.27
7.89
4.9
3.4
3.14
3.65
4.48
5.26
5.74
5.77
5.2
3.97
2.15
-0.03
-2.27
-4.31
-6.08
-7.74
-9.57
-11.92
-15
-18.78
-22.93
-26.83
-29.65
-30.52
-28.72
-23.97
-16.49
-7.02
3.42
13.77
23.28
31.54
38.44
43.97
48.1
50.76
51.88
51.62
50.35
48.63
46.97
45.7
44.87
44.23
43.36
41.83
39.31
35.57
30.59
24.49
17.43
9.66
1.43
-7
-15.34
-23.19
-30.21
-36.16
-41.07
-45.19
-48.94
-52.67
-56.44
-59.88
-62.25
-62.8
-60.98
-56.73
-50.49
-43.01
-35.07
-27.31
-20.02
-13.35
-7.42
-2.4
1.4
3.77
4.73
4.53
3.69
2.74
2.07
1.89
2.2
2.88
3.73
4.53
5.04
5.03
4.3
2.8
0.61
-2.04
-4.95
-7.98
-11.08
-14.33
-17.83
-21.66
-25.93
-30.71
-36.03
-41.65
-46.95
-50.94
-52.5
-50.75
-45.49
-37.33
-27.52
-17.46
-8.19
-0.11
6.92
13.32
19.35
24.96
29.83
33.63
36.24
37.83
38.8
39.57
40.46
41.59
42.92
44.28
45.47
46.3
46.52
45.87
44.1
41.01
36.6
31.1
24.91
18.54
12.38
6.5
0.65
-5.62
-12.76
-20.86
-29.53
-37.87
-44.69
-48.94
-49.96
-47.74
-42.89
-36.4
-29.32
-22.51
-16.43
-11.2
-6.71
-2.85
0.42
3.1
5.21
6.91
8.45
10.08
11.9
13.8
15.57
16.99
17.96
18.53
18.85
19.02
19.05
18.8
18.08
16.71
14.64
11.93
8.85
5.68
2.71
0.02
-2.59
-5.56
-9.29
-13.84
-18.71
-22.85
-25.02
-24.29
-20.35
-13.69
-5.31
3.62
12.16
19.77
26.25
31.55
35.63
38.4
39.73
39.67
38.42
36.46
34.34
32.54
31.38
30.86
30.76
30.74
30.53
29.95
28.96
27.55
25.72
23.49
20.88
18.02
15.09
12.29
9.72
7.43
5.3
3.15
0.72
-2.27
-5.91
-9.96
-13.79
-16.41
-16.82
-14.38
-9.05
-1.5
7.15
15.8
23.63
30.25
35.59
39.65
42.4
43.72
43.56
42
39.37
36.11
32.67
29.33
26.19
23.19
20.17
17.02
13.71
10.28
6.84
3.44
0.11
-3.24
-6.71
-10.38
-14.2
-17.96
-21.36
-24.2
-26.44
-28.36
-30.48
-33.28
-36.99
-41.35
-45.61
-48.7
-49.6
-47.64
-42.76
-35.49
-26.8
-17.86
-9.69
-3.02
1.83
4.88
6.43
6.84
6.45
5.53
4.29
2.94
1.76
1.01
0.83
1.17
1.74
2.2
2.25
1.82
1.06
0.23
-0.5
-1.17
-2.01
-3.36
-5.37
-7.98
-10.84
-13.56
-15.92
-17.98
-20.13
-22.81
-26.25
-30.18
-33.81
-36.01
-35.77
-32.57
-26.59
-18.62
-9.74
-0.98
6.9
13.42
18.34
21.54
23.02
22.91
21.54
19.44
17.15
15.11
13.56
12.49
11.77
11.26
10.86
10.56
10.35
10.1
9.57
8.4
6.3
3.23
-0.55
-4.51
-8.07
-10.86
-12.87
-14.42
-16.06
-18.3
-21.42
-25.39
-29.75
-33.73
-36.39
-36.91
-34.81
-30.16
-23.53
-15.79
-7.83
-0.37
6.17
11.53
15.56
18.16
19.3
19.13
18.03
16.52
15.15
14.25
13.97
14.17
14.59
14.96
15.13
15.03
14.71
14.2
13.43
12.3
10.69
8.52
5.89
3.02
0.19
-2.33
-4.47
-6.33
-8.26
-10.63
-13.75
-17.63
-21.86
-25.58
-27.75
-27.43
-24.12
-17.99
-9.8
-0.72
8.11
15.75
21.72
25.88
28.33
29.25
28.81
27.15
24.42
20.75
16.24
10.91
4.7
-2.41
-10.19
-18.1
-25.23
-30.48
-32.92
-32.11
-28.24
-22.21
-15.25
-8.68
-3.55
-0.41
0.65
-0.03
-1.88
-4.24
-6.61
-8.78
-10.81
-12.99
-15.52
-18.24
-20.53
-21.46
-20.18
-16.31
-10.19
-2.76
4.71
11.2
16.13
19.38
21.18
21.81
21.54
20.67
19.65
18.94
19.03
20.12
22.02
24.25
26.18
27.29
27.33
26.37
24.65
22.5
20.08
17.42
14.39
10.86
6.81
2.38
-2.18
-6.58
-10.59
-14.21
-17.61
-21.1
-25.03
-29.61
-34.7
-39.71
-43.6
-45.14
-43.35
-37.9
-29.32
-18.8
-7.81
2.49
11.54
19.47
26.78
33.98
41.24
48.25
54.18
57.97
58.59
55.41
48.53
38.88
28.02
17.68
9.33
3.72
0.87
0.22
0.99
2.37
3.65
4.2
3.42
0.84
-3.79
-10.41
-18.56
-27.58
-36.73
-45.45
-53.41
-60.52
-66.65
-71.45
-74.33
-74.69
-72.17
-67.05
-60.19
-52.84
-46.15
-40.72
-36.48
-32.88
-29.24
-25.13
-20.46
-15.36
-10.05
-4.66
0.69
5.82
10.44
14.23
16.97
18.66
19.61
20.25
20.97
21.9
22.9
23.6
23.59
22.65
20.7
17.91
14.5
10.75
6.8
2.64
-1.98
-7.53
-14.36
-22.45
-31.04
-38.67
-43.6
-44.44
-40.79
-33.49
-24.47
-16.08
-10.38
-8.56
-10.7
-15.95
-22.86
-29.86
-35.64
-39.4
-40.91
-40.39
-38.26
-35.02
-31.07
-26.8
-22.64
-19.03
-16.32
-14.71
-14.12
-14.24
-14.68
-15.17
-15.59
-16.04
-16.77
-17.93
-19.64
-21.85
-24.49
-27.56
-31.21
-35.62
-40.79
-46.34
-51.31
-54.43
-54.45
-50.65
-43.11
-32.8
-21.13
-9.56
0.81
9.49
16.42
21.83
25.97
29.03
31.16
32.58
33.56
34.38
35.22
36.11
36.93
37.51
37.73
37.57
37.07
36.24
34.97
33.12
30.52
27.1
22.95
18.33
13.56
8.96
4.71
0.77
-3.16
-7.56
-12.96
-19.64
-27.35
-35.22
-41.9
-45.91
-46.11
-42.11
-34.33
-23.86
-12.13
-0.49
10
18.76
25.6
30.65
34.16
36.44
37.73
38.25
38.19
37.77
37.29
37.02
37.13
37.64
38.32
38.88
39.02
38.55
37.39
35.54
33.06
30.06
26.66
23.01
19.29
15.61
12
8.36
4.46
-0.04
-5.46
-11.95
-19.29
-26.72
-32.96
-36.54
-36.27
-31.69
-23.29
-12.4
-0.64
10.53
20.21
28.03
33.96
38.03
40.22
40.58
39.36
37.08
34.4
31.92
29.99
28.73
28.01
27.68
27.59
27.56
27.43
26.97
26
24.4
22.15
19.3
15.88
11.94
7.55
2.91
-1.72
-6.12
-10.32
-14.62
-19.45
-25.09
-31.32
-37.28
-41.68
-43.19
-40.93
-34.83
-25.64
-14.71
-3.51
6.77
15.38
22.04
26.79
29.71
30.93
30.59
28.95
26.49
23.81
21.52
20.01
19.35
19.31
19.51
19.58
19.3
18.61
17.51
15.93
13.69
10.63
6.7
2.09
-2.79
-7.51
-11.8
-15.73
-19.7
-24.24
-29.72
-36.06
-42.57
-48.12
-51.36
-51.25
-47.35
-40.03
-30.33
-19.63
-9.25
-0.1
7.39
13.14
17.26
19.89
21.22
21.54
21.24
20.81
20.69
21.07
21.89
22.91
23.85
24.51
24.82
24.79
24.35
23.37
21.68
19.22
16.01
12.18
7.96
3.51
-1.03
-5.59
-10.15
-14.83
-19.79
-25.18
-30.89
-36.43
-40.82
-42.88
-41.61
-36.6
-28.24
-17.62
-6.15
4.88
14.55
22.4
28.26
32.11
34.01
34.18
33.03
31.1
29.04
27.32
26.2
25.73
25.77
26.13
26.57
26.84
26.71
25.99
24.59
22.51
19.87
16.84
13.59
10.22
6.71
3.02
-0.91
-5.17
-9.87
-15.18
-21.28
-28.14
-35.33
-41.94
-46.74
-48.53
-46.58
-41.02
-32.75
-23.17
-13.71
-5.33
1.58
7.13
11.62
15.26
18.08
19.98
20.91
20.98
20.54
20.05
19.9
20.25
21.01
21.85
22.4
22.38
21.66
20.27
18.27
15.8
12.93
9.78
6.47
3.15
-0.1
-3.24
-6.35
-9.63
-13.33
-17.71
-22.81
-28.31
-33.4
-36.91
-37.67
-34.94
-28.77
-20
-9.99
-0.12
8.63
15.83
21.5
25.84
29
31.07
32.13
32.38
32.14
31.8
31.66
31.9
32.54
33.54
34.82
36.37
38.23
40.45
43.05
45.98
49.15
52.43
55.65
58.71
61.55
64.27
67.03
70.12
73.8
78.2
83.06
87.68
91.03
91.96
89.75
84.25
75.93
65.61
54
41.5
28.1
13.84
-0.9
-15.18
-27.77
-37.65
-44.47
-48.74
-51.45
-53.65
-55.88
-58.08
-59.83
-60.74
-60.81
-60.43
-60.19
-60.47
-61.34
-62.59
-63.95
-65.31
-66.73
-68.25
-69.79
-71.14
-72.02
-72.32
-72.24
-72.27
-73.06
-75.06
-78.31
-82.22
-85.69
-87.33
-85.98
-81.15
-73.25
-63.46
-53.37
-44.41
-37.45
-32.7
-29.83
-28.29
-27.55
-27.23
-27
-26.59
-25.68
-24.01
-21.43
-17.95
-13.8
-9.32
-4.96
-1.15
1.77
3.65
4.57
4.74
4.47
4.03
3.53
2.97
2.24
1.23
-0.12
-1.86
-4.14
-7.18
-11.22
-16.25
-21.78
-26.73
-29.68
-29.33
-25.04
-17.11
-6.72
4.52
15.07
23.82
30.26
34.33
36.2
36.11
34.39
31.53
28.13
24.9
22.44
21.02
20.6
20.78
21.08
21.11
20.7
19.9
18.84
17.6
16.14
14.44
12.5
10.46
8.47
6.62
4.77
2.66
-0.02
-3.52
-8.03
-13.57
-19.96
-26.69
-32.8
-37
-38.09
-35.41
-29.16
-20.38
-10.65
-1.5
6.04
11.5
14.94
16.61
16.83
15.94
14.28
12.32
10.49
9.09
8.16
7.49
6.67
5.34
3.42
1.17
-0.94
-2.48
-3.29
-3.62
-4
-5
-6.93
-9.77
-13.15
-16.57
-19.61
-22.13
-24.36
-26.84
-30.26
-35.09
-41.25
-47.88
-53.47
-56.33
-55.2
-49.87
-41.31
-31.36
-22.14
-15.38
-11.99
-12.01
-14.74
-19.02
-23.45
-26.63
-27.45
-25.34
-20.49
-13.83
-6.59
0.1
5.67
10.24
14.33
18.49
22.92
27.36
31.27
34.05
35.35
35.12
33.59
31.03
27.69
23.71
19.1
13.78
7.69
0.88
-6.38
-13.52
-19.69
-23.91
-25.31
-23.39
-18.19
-10.38
-1.11
8.31
16.7
23.32
27.92
30.6
31.71
31.59
30.55
28.87
26.87
24.89
23.24
22.04
21.2
20.43
19.43
18.05
16.36
14.57
12.86
11.21
9.45
7.35
4.79
1.91
-0.98
-3.56
-5.66
-7.44
-9.25
-11.58
-14.83
-19.1
-24.14
-29.27
-33.55
-35.93
-35.57
-32.09
-25.67
-17.06
-7.26
2.65
11.82
19.67
25.89
30.32
32.88
33.67
33
31.47
29.87
28.96
29.3
31.01
33.82
37.13
40.31
42.83
44.54
45.62
46.55
47.91
49.99
52.69
55.47
57.5
57.93
56.19
52.07
