33.85
33.82
32.24
29.66
26.36
22.54
18.45
14.55
11.41
9.52
9.01
9.58
10.62
11.46
11.55
10.61
8.57
5.6
1.92
-2.11
-6.24
-10.26
-14.2
-18.25
-22.73
-27.83
-33.28
-38.26
-41.61
-42.12
-38.99
-32.16
-22.32
-10.68
1.26
12.08
20.64
26.29
29
29.34
28.32
26.92
25.81
25.03
24.18
22.8
20.74
18.37
16.29
15.01
14.55
14.53
14.27
13.24
11.25
8.58
5.62
2.65
-0.29
-3.35
-6.69
-10.3
-14.03
-17.66
-21.19
-24.8
-28.74
-33.06
-37.25
-40.23
-40.61
-37.25
-29.81
-18.94
-6.05
7.12
19.12
29.03
36.53
41.68
44.6
45.35
43.96
40.63
35.92
30.78
26.26
23.18
21.75
21.49
21.5
20.83
18.88
15.67
11.72
7.7
4.03
0.76
-2.41
-5.79
-9.54
-13.49
-17.36
-20.96
-24.35
-27.88
-31.91
-36.47
-41.08
-44.67
-46
-44.02
-38.4
-29.6
-18.81
-7.51
3.02
11.91
18.83
23.79
26.88
28.16
27.7
25.63
22.31
18.33
14.36
10.97
8.4
6.71
5.72
5.25
5.07
4.97
4.73
4.15
3.11
1.58
-0.39
-2.71
-5.34
-8.32
-11.69
-15.45
-19.6
-24.01
-28.46
-32.54
-35.62
-36.88
-35.52
-31.08
-23.62
-13.94
-3.27
6.99
15.74
22.31
26.54
28.58
28.66
27.11
24.27
20.63
16.75
13.3
10.77
9.35
8.89
8.91
8.84
8.21
6.78
4.6
1.82
-1.36
-4.74
-8.11
-11.29
-14.19
-16.89
-19.71
-23.06
-27.22
-31.99
-36.59
-39.8
-40.34
-37.38
-30.85
-21.45
-10.47
0.77
11.13
19.94
26.75
31.24
33.18
32.45
29.27
24.32
18.66
13.45
9.6
7.43
6.69
6.75
6.92
6.72
5.97
4.71
3.04
1.03
-1.32
-4.02
-7.01
-10.23
-13.61
-17.15
-20.97
-25.22
-30.01
-35.07
-39.71
-42.83
-43.19
-39.87
-32.67
-22.29
-10.18
1.92
12.48
20.63
26.17
29.4
30.75
30.65
29.35
27.13
24.3
21.23
18.29
15.72
13.58
11.7
9.77
7.4
4.34
0.53
-3.75
-7.99
-11.55
-14.02
-15.42
-16.26
-17.36
-19.55
-23.36
-28.81
-35.45
-42.4
-48.54
-52.64
-53.57
-50.58
-43.51
-32.95
-20.23
-6.99
5.03
14.55
20.92
24.17
24.87
23.82
21.77
19.21
16.46
13.75
11.37
9.65
8.86
8.86
9.15
9
7.8
5.46
2.43
-0.47
-2.6
-3.79
-4.45
-5.31
-7.01
-9.83
-13.68
-18.21
-23.1
-28.12
-33
-37.29
-40.11
-40.32
-36.81
-29.02
-17.31
-2.94
12.18
26.06
37.23
45.11
49.91
52.34
53.13
52.72
51.27
48.76
45.24
40.99
36.47
32.11
28.19
24.71
21.54
18.53
15.69
13.15
10.93
8.84
6.46
3.34
-0.82
-5.88
-11.24
-16.09
-19.67
-21.61
-22.11
-21.86
-21.7
-22.27
-23.65
-25.22
-25.79
-24.07
-19.13
-10.81
0.16
12.35
24.16
34.26
41.94
47
49.67
50.2
48.87
45.9
41.66
36.78
32.05
28.15
25.48
23.9
22.93
21.94
20.52
18.6
16.38
14.14
11.98
9.79
7.28
4.24
0.66
-3.26
-7.2
-10.9
-14.25
-17.3
-20.19
-23.07
-26
-28.94
-31.82
-34.62
-37.45
-40.54
-44.05
-47.84
-51.3
-53.3
-52.57
-48.19
-40
-28.87
-16.38
-4.23
6.36
14.85
21.26
25.71
28.18
28.48
26.61
23.07
18.84
15.12
12.79
12.06
12.54
13.47
14.25
14.61
14.62
14.47
14.16
13.54
12.29
10.24
7.34
3.82
-0
-3.85
-7.49
-10.84
-13.84
-16.56
-19.17
-21.98
-25.32
-29.38
-34
-38.44
-41.54
-41.98
-38.9
-32.18
-22.68
-11.91
-1.48
7.39
14.17
19.04
22.51
24.98
26.55
26.98
25.93
23.36
19.66
15.66
12.35
10.43
9.95
10.42
11
11.02
10.3
9.08
7.75
6.44
4.91
2.69
-0.53
-4.64
-9.14
-13.38
-17.07
-20.39
-23.88
-28.02
-32.93
-38.1
-42.5
-44.99
-44.66
-41.11
-34.64
-26.03
-16.34
-6.59
2.44
10.12
16.04
19.95
21.77
21.7
20.22
18
15.65
13.58
11.8
10.18
8.57
6.99
5.64
4.77
4.49
4.66
4.97
4.97
4.32
2.79
0.37
-2.8
-6.46
-10.37
-14.36
-18.4
-22.52
-26.78
-31.27
-36
-40.81
-45.37
-49.11
-51.24
-50.97
-47.77
-41.54
-32.74
-22.34
-11.55
-1.44
7.32
14.62
20.84
26.43
31.64
36.27
39.81
41.74
41.93
40.9
39.61
39.12
40.04
42.37
45.44
48.31
50.21
50.78
50.16
48.77
46.96
44.84
42.24
38.81
34.37
29.09
23.48
18.14
13.35
8.9
4.09
-1.77
-8.89
-16.75
-24.09
-29.41
-31.5
-29.89
-24.99
-17.82
-9.6
-1.33
6.44
13.49
19.72
25
29.06
31.63
32.59
32.06
30.3
27.71
24.61
21.29
18.04
15.2
13.03
11.61
10.73
9.95
8.87
7.28
5.2
2.8
0.12
-2.99
-6.82
-11.52
-16.95
-22.65
-27.97
-32.42
-35.81
-38.39
-40.54
-42.76
-45.37
-48.47
-51.96
-55.61
-58.96
-61.33
-61.96
-60.09
-55.25
-47.49
-37.37
-25.98
-14.57
-4.37
3.7
9.18
12.13
12.96
12.38
11.16
9.88
8.97
8.53
8.6
9.11
10.07
11.41
13.01
14.61
15.88
16.6
16.69
16.21
15.26
13.99
12.46
10.86
9.43
8.45
8.06
8.12
8.14
7.44
5.41
1.75
-3.31
-9.06
-14.49
-18.46
-20.06
-18.7
-14.45
-8.03
-0.66
6.3
11.79
15.28
16.86
16.95
16.11
14.68
12.88
10.79
8.52
6.25
4.2
2.53
1.22
0.15
-0.82
-1.81
-2.91
-4.15
-5.51
-7.01
-8.65
-10.4
-12.22
-14.08
-15.94
-17.76
-19.6
-21.53
-23.77
-26.45
-29.57
-32.81
-35.53
-36.88
-36.07
-32.71
-26.96
-19.58
-11.65
-4.22
1.92
6.41
9.21
10.42
10.19
8.7
6.17
2.95
-0.48
-3.66
-6.19
-7.86
-8.67
-8.69
-8.12
-7.19
-6.13
-5.24
-4.85
-5.13
-6.12
-7.62
-9.31
-10.91
-12.3
-13.61
-15.23
-17.59
-20.81
-24.58
-28.06
-30.16
-30.01
-27.15
-21.78
-14.63
-6.66
1.24
8.4
14.39
18.87
21.53
22.13
20.67
17.47
13.23
8.83
5.11
2.59
1.29
0.84
0.63
0.18
-0.68
-1.78
-2.72
-3.07
-2.46
-0.69
2.31
6.38
11.19
16.12
20.35
22.92
23.04
20.29
14.73
6.93
-2.12
-11.18
-18.86
-23.98
-25.88
-24.61
-20.9
-16.03
-11.29
-7.61
-5.2
-3.64
-2.14
-0.09
2.68
5.8
8.62
10.69
12.02
13.11
14.58
16.85
19.92
23.44
26.93
30.12
32.98
35.47
37.37
38.06
36.86
33.24
27.32
19.73
11.49
3.57
-3.5
-9.71
-15.41
-20.96
-26.44
-31.35
-34.8
-35.8
-33.77
-28.85
-21.96
-14.43
-7.49
-1.85
2.39
5.58
8.02
9.83
10.89
11.36
11.84
13.4
17.12
23.49
31.96
41.01
48.78
53.83
55.79
55.2
53.16
50.46
47.19
42.75
36.41
27.91
17.83
7.38
-2.17
-10.1
-16.56
-22.37
-28.49
-35.37
-42.58
-48.85
-52.58
-52.55
-48.37
-40.63
-30.66
-19.92
-9.52
-0.02
8.49
16.06
22.65
28.17
32.54
35.87
38.38
40.25
41.48
42
41.77
40.95
39.88
38.77
37.61
36.06
33.66
30.27
26.18
22
18.28
15.17
12.31
9.03
4.78
-0.64
-6.95
-13.55
-19.8
-25.29
-29.92
-34.05
-38.23
-43.07
-48.93
-55.69
-62.67
-68.78
-72.94
-74.36
-72.96
-69.25
-64.1
-58.43
-52.95
-48.1
-44.12
-41.04
-38.68
-36.58
-34.06
-30.4
-25.25
-18.75
-11.52
-4.44
1.87
7.12
11.46
15.13
18.29
20.88
22.82
24.13
25.03
25.82
26.61
27.22
27.28
26.38
24.27
21.04
17.08
12.94
9.16
6.05
3.52
1.08
-1.9
-5.94
-11.05
-16.55
-21.21
-23.62
-22.68
-18.1
-10.41
-0.78
9.43
19.11
27.64
34.8
40.63
45.14
48.24
49.73
49.49
47.61
44.43
40.49
36.34
32.41
28.88
25.76
22.92
20.22
17.57
14.88
12.09
9.08
5.74
2
-2.08
-6.35
-10.49
-14.28
-17.55
-20.32
-22.82
-25.39
-28.39
-31.96
-35.88
-39.44
-41.74
-41.87
-39.26
-33.94
-26.49
-17.86
-9.05
-0.93
6
11.39
15.05
16.84
16.75
14.97
11.9
8.22
4.63
1.75
-0.07
-0.78
-0.61
-0.05
0.37
0.15
-1.03
-3.14
-5.82
-8.52
-10.74
-12.27
-13.38
-14.61
-16.6
-19.7
-23.78
-28.35
-32.77
-36.43
-38.85
-39.63
-38.37
-34.77
-28.72
-20.51
-10.96
-1.17
7.75
14.99
20.25
23.67
25.67
26.58
26.55
25.43
23
19.29
14.67
9.97
6.12
3.9
3.45
4.33
5.63
6.4
6.05
4.47
1.91
-1.2
-4.56
-8.02
-11.48
-14.79
-17.84
-20.6
-23.3
-26.25
-29.74
-33.54
-36.91
-38.69
-37.73
-33.42
-25.95
-16.25
-5.67
4.52
13.44
20.58
25.77
28.92
29.98
29.06
26.44
22.7
18.57
14.73
11.65
9.42
7.83
6.5
5.07
3.33
1.24
-1.11
-3.7
-6.52
-9.59
-12.73
-15.66
-18.07
-19.85
-21.28
-22.96
-25.47
-28.98
-32.95
-36.12
-37.07
-34.7
-28.75
-19.87
-9.31
1.52
11.51
20
26.76
31.71
34.85
36.11
35.52
33.28
29.84
25.84
21.93
18.62
16.14
14.42
13.23
12.14
10.84
9.1
6.93
4.5
2.09
-0.1
-1.97
-3.66
-5.48
-7.77
-10.85
-14.85
-19.72
-25.09
-30.37
-34.61
-36.76
-35.9
-31.56
-23.98
-14.04
-3.03
7.74
17.19
24.66
29.8
32.43
32.61
30.64
27.1
22.88
18.9
15.91
14.24
13.76
14.01
14.46
14.67
14.46
13.83
12.84
11.48
9.7
7.43
4.71
1.68
-1.61
-5.23
-9.48
-14.65
-20.73
-27.22
-33.01
-36.78
-37.37
-34.32
-27.92
-19.1
-9.08
1.01
10.32
18.27
24.61
29.26
32.18
33.36
32.85
30.78
27.51
23.65
19.92
16.92
14.92
13.76
12.95
11.91
10.26
7.93
5.21
2.46
-0.06
-2.33
-4.49
-6.78
-9.4
-12.51
-16.22
-20.52
-25.26
-30.05
-34.19
-36.69
-36.6
-33.3
-26.88
-18.19
-8.53
0.85
9.16
16.11
21.72
25.93
28.43
28.86
27.06
23.5
19.12
15.03
11.97
10.04
8.8
7.76
6.64
5.43
4.29
3.25
2.13
0.74
-1.02
-3.08
-5.24
-7.39
-9.66
-12.43
-16.11
-20.84
-26.2
-31.19
-34.54
-35.01
-31.99
-25.66
-16.9
-6.94
3.02
12.07
19.67
25.47
29.23
30.81
30.21
27.79
24.13
19.96
15.95
12.55
9.92
8.03
6.65
5.5
4.24
2.65
0.66
-1.61
-3.86
-5.84
-7.43
-8.78
-10.21
-12.18
-15.04
-19
-23.97
-29.53
-34.92
-39.07
-40.84
-39.31
-34.11
-25.57
-14.68
-2.76
8.81
19.01
27.31
33.57
37.85
40.27
40.87
39.77
37.23
33.72
29.81
26.07
22.85
20.28
18.3
16.75
15.42
14.19
12.92
11.49
9.83
7.84
5.45
2.61
-0.81
-5.02
-10.1
-16.04
-22.67
-29.7
-36.89
-43.89
-50.24
-55.25
-57.99
-57.53
-53.33
-45.49
-35.02
-23.58
-12.94
-4.39
1.36
4.36
4.91
3.18
-0.92
-7.83
-18.08
-31.72
-47.96
-65.08
-80.75
-92.61
-98.79
-98.28
-90.95
-77.49
-59.22
-37.81
-15.26
6.48
25.62
40.85
51.54
57.8
60.21
59.62
56.81
52.28
46.39
39.31
31.25
22.72
14.6
8.24
5.11
6.29
12.07
21.84
34.1
46.91
58.47
67.46
73.28
75.96
75.9
73.72
70.08
65.62
60.9
56.46
52.67
49.76
47.8
46.64
46.03
45.64
45.06
43.96
42.18
39.75
36.94
34.06
31.31
28.72
26.11
23.27
20.04
16.45
12.72
9.14
5.94
3.19
0.73
-1.64
-4.12
-6.76
-9.56
-12.52
-15.85
-19.82
-24.7
-30.39
-36.21
-40.94
-43.15
-41.71
-36.24
-27.32
-16.32
-4.84
5.75
14.7
21.93
27.77
32.53
36.25
38.57
38.95
37.17
33.49
28.79
24.13
20.42
18.01
16.65
15.73
14.71
13.4
11.97
10.7
9.58
8.43
6.84
4.54
1.57
-1.73
-4.97
-7.94
-10.68
-13.48
-16.6
-20.07
-23.68
-27.08
-29.98
-32.32
-34.23
-35.98
-37.84
-40.05
-42.65
-45.47
-47.95
-49.27
-48.42
-44.56
-37.43
-27.45
-15.75
-3.77
7.21
16.41
23.56
28.68
31.88
33.2
32.76
30.93
28.38
26.08
24.97
25.65
28.18
32.05
36.42
40.48
43.54
45.21
45.2
43.35
39.63
34.1
27.07
18.94
10.16
1.2
-7.52
-15.64
-22.79
-28.67
-33.22
-36.7
-39.69
-42.81
-46.32
-49.89
-52.54
-53.02
-50.3
-44.02
-34.68
-23.5
-12.17
-2.25
5.16
9.68
11.66
11.86
11.14
10.11
9
7.68
6.11
4.26
2.33
0.54
-0.94
-1.99
-2.57
-2.7
-2.53
-2.27
-2.23
-2.58
-3.4
-4.51
-5.73
-7
-8.41
-10.16
-12.4
-15.2
-18.46
-22.04
-25.8
-29.55
-32.75
-34.55
-33.92
-30.05
-22.88
-13.16
-2.32
8.05
16.68
22.88
26.52
27.86
27.32
25.39
22.59
19.38
16.14
13.08
10.29
7.82
5.68
4
2.85
2.19
1.78
1.3
0.43
-0.99
-2.91
-5.19
-7.68
-10.33
-13.12
-16.08
-19.19
-22.39
-25.64
-28.87
-31.99
-34.77
-36.78
-37.41
-35.97
-31.95
-25.17
-16.01
-5.33
5.53
15.13
22.37
26.84
28.74
28.86
28.04
26.87
25.56
23.96
22
19.78
17.71
16.24
15.61
15.62
15.73
15.3
13.92
11.56
8.51
5.2
1.94
-1.15
-4.26
-7.6
-11.34
-15.42
-19.64
-23.7
-27.48
-31
-34.25
-37.1
-38.99
-39.09
-36.51
-30.79
-22.2
-11.78
-1.06
8.54
16.07
21.24
24.29
25.62
25.62
24.53
22.63
20.2
17.6
15.17
13.09
11.41
10.12
9.17
8.51
8
7.25
5.88
3.59
0.42
-3.26
-6.83
-9.82
-12.02
-13.64
-15.07
-16.69
-18.77
-21.44
-24.77
-28.72
-33.01
-36.92
-39.35
-39.12
-35.44
-28.22
-18.29
-7.13
3.63
12.62
19.17
23.3
25.44
26.21
26.03
25.02
23.13
20.28
16.59
12.62
9.19
7.04
6.53
7.31
8.46
8.92
8.03
5.79
2.78
-0.19
-2.63
-4.48
-6.09
-7.93
-10.2
-12.83
-15.59
-18.43
-21.5
-25.08
-29.24
-33.56
-37.08
-38.57
-36.98
-31.85
-23.51
-13.02
-1.82
8.67
17.31
23.53
27.25
28.69
28.23
26.26
23.16
19.31
15.19
11.26
8.02
5.81
4.69
4.41
4.46
4.31
3.63
2.29
0.39
-1.82
-4.16
-6.48
-8.73
-10.93
-13.14
-15.5
-18.21
-21.48
-25.38
-29.65
-33.63
-36.31
-36.63
-33.83
-27.84
-19.33
-9.48
0.38
9.18
16.32
21.68
25.42
27.69
28.58
28.04
26.09
22.91
18.9
14.68
10.96
8.34
7.1
7.13
7.92
8.78
9.06
8.32
6.45
3.62
0.11
-3.77
-7.71
-11.49
-14.89
-17.83
-20.36
-22.69
-25.17
-28.09
-31.57
-35.38
-38.88
-41.12
-41.09
-37.99
-31.57
-22.34
-11.42
-0.27
9.69
17.38
22.29
24.39
24.11
22.13
19.31
16.4
13.99
12.35
11.46
11.07
10.89
10.66
10.22
9.53
8.57
7.33
5.79
3.96
1.85
-0.47
-2.95
-5.61
-8.4
-11.28
-14.15
-16.99
-19.86
-22.93
-26.23
-29.53
-32.31
-33.81
-33.28
-30.29
-24.88
-17.57
-9.2
-0.73
6.95
13.12
17.38
19.54
19.81
18.65
16.63
14.27
11.86
9.54
7.43
5.77
4.81
4.8
5.72
7.26
9.01
10.57
11.74
12.35
12.3
11.39
9.62
7.25
4.87
3.21
2.85
3.84
5.62
7.24
7.74
6.59
3.76
-0.23
-4.49
-7.92
-9.39
-7.91
-2.93
5.51
16.66
29.18
41.56
52.59
61.58
68.49
73.56
76.96
78.53
77.78
74.24
67.79
58.93
48.63
38.06
28.25
19.83
13.05
7.81
3.98
1.4
-0.02
-0.45
-0.17
0.46
1.05
1.3
1.05
0.39
-0.55
-1.78
-3.54
-6.22
-10.09
-14.98
-20
-23.85
-25.14
-23.05
-17.62
-9.77
-0.86
7.78
15.16
20.8
24.57
26.47
26.53
24.74
21.23
16.29
10.5
4.6
-0.61
-4.58
-7.11
-8.49
-9.37
-10.48
-12.24
-14.6
-17.13
-19.37
-21.1
-22.46
-23.92
-25.9
-28.54
-31.69
-35
-38.29
-41.53
-44.95
-48.68
-52.42
-55.49
-56.88
-55.67
-51.4
-44.26
-35.05
-24.95
-15.1
-6.35
0.79
6.11
9.54
10.98
10.37
7.9
4.12
-0.08
-3.67
-5.83
-6.26
-5.22
-3.41
-1.69
-0.74
-0.92
-2.17
-4.12
-6.3
-8.23
-9.69
-10.72
-11.62
-12.84
-14.83
-17.88
-21.87
-26.28
-30.26
-32.82
-33.13
-30.72
-25.58
-18.19
-9.41
-0.24
8.34
15.58
21.06
24.65
26.41
26.44
24.87
21.93
17.99
13.67
9.74
6.77
5.02
4.28
3.88
3.19
1.76
-0.35
-2.82
-5.24
-7.4
-9.33
-11.23
-13.35
-15.85
-18.85
-22.41
-26.57
-31.04
-35.22
-38.15
-38.71
-36.02
-29.81
-20.6
-9.65
1.43
11.09
18.28
22.68
24.62
24.79
23.9
22.39
20.41
17.9
14.85
11.49
8.25
5.58
3.68
2.38
1.15
-0.5
-2.8
-5.65
-8.67
-11.48
-13.94
-16.2
-18.62
-21.59
-25.35
-29.91
-34.99
-40.03
-44.31
-46.98
-47.13
-44.08
-37.61
-28.14
-16.69
-4.64
6.66
16.3
23.94
29.69
33.86
36.66
38.11
38.11
36.71
34.16
30.91
27.5
24.35
21.75
19.8
18.47
17.55
16.74
15.58
13.57
10.37
5.9
0.44
-5.5
-11.29
-16.45
-20.73
-24.19
-27.22
-30.35
-34.08
-38.6
-43.53
-47.85
-50.22
-49.32
-44.35
-35.41
-23.3
-9.38
4.9
18.33
30.07
39.57
46.53
50.81
52.51
52.01
49.96
47.19
44.41
42.08
40.17
38.35
36.17
33.32
29.8
25.9
22.09
18.72
16.02
14
12.52
11.39
10.3
8.84
6.54
3.01
-1.82
-7.61
-13.7
-19.33
-24.04
-27.84
-31.12
-34.5
-38.47
-43.19
-48.37
-53.23
-56.67
-57.45
-54.59
-47.64
-37
-23.78
-9.66
3.72
15.14
24.11
30.77
35.56
38.88
40.96
41.79
41.38
39.92
37.87
35.82
34.3
33.49
33.23
33.1
32.68
31.81
30.58
29.23
27.97
26.78
25.37
23.38
20.55
16.88
12.66
8.25
3.87
-0.47
-4.93
-9.63
-14.51
-19.22
-23.37
-26.7
-29.27
-31.47
-33.84
-36.81
-40.5
-44.83
-49.41
-53.69
-56.92
-58.14
-56.25
-50.46
-40.56
-27.25
-12.13
2.77
15.57
25.19
31.55
35.39
37.73
39.4
40.67
41.31
41
39.72
37.86
36.15
35.15
34.98
35.21
35.07
34
31.99
29.55
27.38
26.02
25.39
24.95
23.96
21.88
18.63
14.53
10.13
5.88
2.03
-1.39
-4.47
-7.42
-10.4
-13.57
-16.99
-20.61
-24.24
-27.66
-30.76
-33.65
-36.66
-40.19
-44.46
-49.22
-53.73
-56.85
-57.39
-54.47
-47.78
-37.66
-25.11
-11.5
1.78
13.56
23.19
30.58
35.95
39.71
42.07
43.11
42.77
41.18
38.64
35.67
32.83
30.55
29
28.17
27.94
28.11
28.51
28.79
28.57
27.56
25.66
23.04
20.1
17.2
14.46
11.71
8.6
4.88
0.55
-4.12
-8.72
-12.99
-16.85
-20.44
-23.96
-27.56
-31.32
-35.15
-38.86
-42.05
-44.13
-44.4
-42.15
-37.01
-29.13
-19.26
-8.46
2.09
11.52
19.24
24.9
28.42
29.82
29.31
27.34
24.53
21.52
18.86
16.86
15.56
14.93
14.82
15.05
15.45
15.75
15.69
15.21
14.33
13.17
11.87
10.37
8.47
5.93
2.65
-1.24
-5.38
-9.34
-12.81
-15.67
-18.12
-20.47
-23.16
-26.56
-30.78
-35.62
-40.38
-44.02
-45.37
-43.45
-37.81
-28.68
-16.96
-4.04
8.53
19.37
27.57
32.77
35.13
35.23
33.8
31.52
28.87
26.16
23.47
20.93
18.67
16.86
15.61
14.91
14.64
14.63
14.69
14.68
14.45
13.79
12.49
10.38
7.41
3.77
-0.16
-3.93
-7.25
-10.09
-12.75
-15.76
-19.61
-24.44
-29.82
-34.71
-37.69
-37.5
-33.43
-25.74
-15.52
-4.31
6.45
15.79
23.25
28.72
32.17
33.61
33.14
30.99
27.61
23.45
18.92
14.35
10.02
6.3
3.59
2.17
2.04
2.87
4.06
4.94
5.01
4.11
2.39
0.26
-1.84
-3.6
-4.96
-6.17
-7.6
-9.61
-12.31
-15.59
-19.29
-23.3
-27.53
-31.65
-34.84
-35.87
-33.59
-27.47
-18.13
-7.18
3.42
12.09
18.17
21.83
23.63
24.04
23.23
21.26
18.29
14.72
11.14
7.99
5.49
3.58
2.09
0.94
0.2
-0.12
-0.08
-0.07
-0.55
-1.89
-4.11
-6.92
-9.82
-12.4
-14.58
-16.54
-18.69
-21.37
-24.75
-28.74
-33.08
-37.34
-40.94
-43.08
-42.78
-39.19
-32.04
-21.94
-10.37
0.76
9.84
16
19.39
20.82
21.21
21.07
20.37
18.68
15.74
11.76
7.52
3.98
1.86
1.19
1.41
1.7
1.45
0.44
-1.16
-3.09
-5.26
-7.78
-10.81
-14.25
-17.75
-20.84
-23.21
-24.86
-26.12
-27.34
-28.65
-29.83
-30.29
-29.29
-26.13
-20.47
-12.54
-3.09
6.67
15.53
22.52
27.2
29.59
29.94
28.6
25.85
22.08
17.86
13.98
11.15
9.74
9.54
9.77
9.49
7.98
5.15
1.46
-2.28
-5.39
-7.5
-8.71
-9.46
-10.26
-11.58
-13.78
-17.09
-21.52
-26.8
-32.24
-36.71
-38.89
-37.71
-32.71
-24.28
-13.62
-2.37
7.87
15.99
21.6
24.94
26.52
26.82
25.99
23.94
20.62
16.24
11.49
7.3
4.43
3.18
3.16
3.66
3.94
3.5
2.26
0.41
-1.83
-4.2
-6.53
-8.64
-10.47
-12.17
-14.1
-16.71
-20.31
-24.84
-29.82
-34.41
-37.52
-38.08
-35.33
-28.99
-19.53
-8.1
3.64
14.02
21.94
27.05
29.75
30.78
30.77
29.95
28.27
25.64
22.25
18.51
14.93
11.83
9.25
7
4.9
2.85
0.93
-0.75
-2.18
-3.49
-4.93
-6.78
-9.23
-12.28
-15.81
-19.62
-23.59
-27.63
-31.67
-35.48
-38.53
-40.02
-39.15
-35.32
-28.62
-19.74
-9.77
0.23
9.55
17.83
24.91
30.49
34.16
35.49
34.44
31.51
27.55
23.54
20.1
17.44
15.42
13.92
12.86
12.26
12.04
11.82
11.05
9.18
5.88
1.26
-4.25
-10.16
-15.98
-21.46
-26.56
-31.29
-35.62
-39.41
-42.43
-44.28
-44.44
-42.25
-37.12
-28.77
-17.39
-3.75
11
25.61
39
50.41
59.35
65.44
68.49
68.63
66.4
62.69
58.45
54.27
50.31
46.25
41.84
37.06
32.28
28.09
24.86
22.68
21.17
19.7
17.62
14.47
10.12
4.77
-1.24
-7.56
-13.94
-20.43
-27.28
-34.72
-42.78
-51.08
-58.86
-65.13
-68.99
-69.79
-67.23
-61.42
-52.71
-41.71
-29.18
-15.97
-2.9
9.3
20.14
29.28
36.41
41.21
43.25
42.18
37.95
31.14
22.93
14.69
7.6
2.13
-1.95
-5.45
-9.16
-13.45
-18.25
-23.12
-27.72
-32.07
-36.48
-41.2
-46.29
-51.48
-56.39
-60.89
-65.13
-69.41
-73.77
-77.63
-79.84
-79.15
-74.86
-67.23
-57.43
-46.96
-37.05
-28.24
-20.48
-13.41
-6.76
-0.51
5.25
10.37
14.78
18.49
21.54
23.98
25.85
27.24
28.31
29.12
29.68
29.93
29.79
29.28
28.51
27.54
26.31
24.63
22.26
19.12
15.3
11.06
6.61
2.07
-2.48
-6.75
-10.09
-11.51
-10.09
-5.33
2.5
12.28
22.42
31.3
37.87
41.78
43.33
43.14
41.83
39.77
37.17
34.07
30.54
26.75
23.02
19.84
17.77
17.29
18.64
21.71
26.07
31.13
36.33
41.26
45.73
49.69
53.02
55.47
56.76
56.75
55.41
52.95
49.51
45.13
39.75
33.3
26.03
18.67
12.19
7.53
5.11
4.65
5.24
5.8
5.47
3.85
1.06
-2.59
-6.72
-11.07
-15.44
-19.58
-23.18
-25.96
-27.81
-28.89
-29.62
-30.47
-31.85
-33.9
-36.6
-39.81
-43.35
-47.13
-51.15
-55.34
-59.57
-63.54
-66.93
-69.41
-70.9
-71.48
-71.2
-69.93
-67.21
-62.39
-55.01
-45.02
-33.05
-20.26
-8.01
2.55
10.81
16.69
20.5
22.68
23.59
23.37
22.11
19.92
17.06
13.85
10.73
8.13
6.5
6.28
7.85
11.25
16.1
21.49
26.24
29.32
30.23
29.09
26.49
23.14
19.46
15.62
11.68
7.74
4.15
1.27
-0.78
-2.28
-3.94
-6.69
-11.25
-17.87
-26.17
-35.02
-42.81
-47.74
-48.33
-43.97
-35.12
-23.19
-9.96
3
14.93
25.77
35.81
45.2
53.68
60.85
66.41
70.51
73.7
76.62
79.69
82.99
86.33
89.46
92.17
94.17
95.05
94.42
92.13
88.53
84.41
80.52
77.02
73.19
67.75
59.54
48.27
34.78
20.6
7.23
-4.52
-14.72
-23.96
-32.74
-41.06
-48.38
-53.94
-57.33
-58.78
-59.13
-59.5
-60.89
-63.87
-68.35
-73.7
-78.97
-83.09
-85.09
-84.25
-80.2
-73.01
-63.3
-52.13
-40.69
-30.15
-21.25
-14.34
-9.38
-6.22
-4.62
-4.42
-5.34
-6.94
-8.66
-9.86
-10.14
-9.47
-8.15
-6.68
-5.42
-4.37
-3.2
-1.39
1.41
4.99
8.7
11.69
13.29
13.46
12.7
11.76
11.23
11.38
12
12.7
13.01
12.65
11.51
9.63
7.18
4.36
1.43
-1.41
-4.02
-6.39
-8.58
-10.71
-12.9
-15.2
-17.47
-19.26
-19.73
-17.92
-13.08
-5.08
5.29
16.51
26.86
35.01
40.43
43.34
44.28
43.71
41.77
38.45
33.77
28.19
22.5
17.59
14.01
11.78
10.39
9.14
7.46
5.13
2.42
-0.23
-2.41
-3.95
-5.06
-6.11
-7.56
-9.64
-12.36
-15.6
-19.23
-23.16
-27.4
-31.93
-36.53
-40.95
-44.97
-48.52
-51.74
-54.8
-57.65
-59.77
-60.36
-58.55
-53.76
-46.01
-35.88
-24.24
-12.05
-0.1
10.99
20.69
28.62
34.57
38.69
41.47
43.56
45.43
47.12
48.17
47.83
45.45
40.93
34.68
27.51
20.24
13.51
7.59
2.59
-1.48
-4.64
-7.13
-9.4
-12.03
-15.6
-20.31
-25.95
-31.95
-37.63
-42.42
-46.12
-48.89
-51.31
-54.17
-58.17
-63.62
-70.13
-76.46
-80.84
-81.57
-77.66
-69.25
-57.5
-44.1
-30.48
-17.48
-5.28
6.25
17.05
26.73
34.66
40.36
43.91
45.97
47.5
49.3
51.66
54.27
56.52
57.9
58.27
57.9
57.18
56.36
55.24
53.39
50.3
45.82
40.11
33.67
27.05
20.58
14.29
7.91
1.23
-5.91
-13.36
-20.73
-27.49
-32.94
-36.31
-36.91
-34.32
-28.59
-20.38
-10.8
-1.19
7.21
13.65
17.87
20.12
20.95
20.95
20.48
19.74
18.68
17.18
15.2
12.94
10.72
8.88
7.56
6.64
5.83
4.88
3.86
3.19
3.35
4.6
6.71
8.99
10.68
11.29
10.87
9.99
9.29
8.91
8.45
7.1
4.3
0.15
-4.38
-7.94
-9.38
-8.33
-5.38
-1.68
1.5
3.36
3.7
2.81
1.06
-1.3
-4.22
-7.73
-11.62
-15.46
-18.57
-20.3
-20.25
-18.54
-15.75
-12.69
-10.16
-8.55
-7.91
-7.99
-8.42
-9
-9.62
-10.28
-10.98
-11.74
-12.61
-13.72
-15.32
-17.62
-20.59
-23.73
-26.22
-26.97
-25.13
-20.37
-13.07
-4.19
5.02
13.38
20.03
24.55
26.96
27.52
26.64
24.83
22.64
20.57
19.05
18.27
18.31
18.98
19.98
20.82
21.05
20.3
18.55
16.03
13.27
10.84
9.02
7.72
6.45
4.53
1.37
-3.31
-9.27
-15.81
-21.84
-26.23
-28.06
-26.88
-22.91
-16.9
-9.86
-2.82
3.45
8.45
11.84
13.33
12.72
9.91
5.23
-0.55
-6.34
-11.03
-13.83
-14.61
-13.8
-12.22
-10.75
-10
-10.24
-11.38
-13.19
-15.35
-17.51
-19.4
-20.78
-21.67
-22.36
-23.39
-25.39
-28.76
-33.46
-38.72
-43.33
-45.88
-45.21
-40.78
-32.92
-22.7
-11.74
-1.63
6.44
12.04
15.34
16.92
17.33
16.95
15.95
14.34
12.29
10.1
8.2
6.94
6.45
6.45
6.35
5.48
3.35
-0.19
-4.88
-10.09
-15.1
-19.29
-22.45
-24.76
-26.74
-29.03
-32.17
-36.41
-41.67
-47.56
-53.47
-58.55
-61.75
-61.85
-57.69
-48.62
-34.92
-18.02
-0.29
15.77
28.24
36.57
41.4
44.11
46.03
47.9
49.82
51.54
52.97
54.29
55.96
58.21
60.8
63.08
64.23
63.76
61.88
59.38
57.21
55.87
55.11
53.86
50.85
45.25
37.07
27.13
16.6
6.35
-3.26
-12.38
-21.23
-29.72
-37.39
-43.52
-47.27
-47.97
-45.18
-38.78
-28.99
-16.55
-2.59
11.43
24.02
34.05
40.89
44.54
45.44
44.4
42.3
39.98
37.95
36.32
34.83
32.98
30.35
26.81
22.63
18.35
14.63
11.84
9.93
8.47
6.79
4.37
1.04
-2.92
-7
-10.74
-14.02
-17.02
-20
-23.13
-26.23
-28.92
-30.83
-31.75
-31.69
-30.66
-28.5
-24.77
-19.1
-11.47
-2.6
6.09
12.88
16.3
15.66
11.13
3.56
-5.89
-16.17
-26.4
-35.8
-43.48
-48.49
-50.02
-47.71
-41.94
-33.78
-24.62
-15.77
-8.02
-1.53
3.87
8.41
12.09
14.54
15.4
14.57
12.42
9.8
7.71
6.8
7.19
8.46
9.78
10.5
10.32
9.42
8.26
7.27
6.66
6.19
5.41
3.69
0.63
-3.8
-9.18
-14.71
-19.55
-23.03
-24.97
-25.75
-26.3
-27.73
-31.07
-36.86
-44.79
-53.56
-60.96
-64.35
-61.5
-51.5
-35.32
-15.59
4.08
20.61
32.3
39.4
43.45
46.48
49.93
54.25
58.98
63.24
66.34
67.96
68.17
67.17
65.12
61.98
57.7
52.29
45.79
38.43
30.51
22.48
14.89
8.32
3.18
-0.45
-2.84
-4.63
-6.48
-8.91
-12.07
-15.78
-19.76
-23.74
-27.62
-31.43
-35.3
-39.42
-43.97
-48.93
-53.69
-56.68
-55.3
-46.58
-28.19
0.33
37.02
77.7
117.29
151.2
176.6
192.63
199.89
199.6
192.98
181.07
165.05
146.29
126.41
106.81
88.31
70.98
54.42
38.17
22.09
6.46
-8.25
-21.75
-34.12
-45.86
-57.54
-69.47
-81.42
-92.61
-101.87
-108.06
-110.51
-109.37
-105.6
-100.7
-96.2
-93.08
-91.57
-91.14
-90.95
-90.22
-88.64
-86.42
-84.07
-82.22
-81.28
-81.39
-82.26
-83.39
-83.99
-83.35
-81.03
-77.06
-72.04
-66.98
-63.01
-60.91
-60.85
-62.14
-63.5
-63.39
-60.58
-54.46
-45.28
-33.95
-21.71
-9.78
0.91
9.76
16.56
21.34
24.29
25.78
26.24
26.13
25.81
25.55
25.33
24.94
24.16
22.83
21.07
19.17
17.61
16.72
16.59
16.96
17.37
17.32
16.43
14.55
11.79
8.39
4.66
0.94
-2.51
-5.64
-8.47
-11.15
-13.86
-16.73
-19.78
-22.96
-26.32
-29.84
-33.47
-36.82
-39.14
-39.33
-36.36
-29.7
-19.7
-7.53
5.2
16.92
26.62
33.97
39.16
42.6
44.61
45.26
44.58
42.7
39.99
36.96
33.98
31.14
28.24
24.96
21.19
17.28
13.89
11.73
11.16
11.84
12.88
13.3
12.4
10.2
7.15
3.83
0.6
-2.48
-5.54
-8.53
-11.25
-13.47
-15.1
-16.37
-17.84
-20
-23.02
-26.78
-30.83
-34.61
-37.62
-39.39
-39.45
-37.35
-32.67
-25.47
-16.29
-6.23
3.43
11.54
17.59
21.6
24.06
25.54
26.4
26.73
26.42
25.51
24.14
22.69
21.47
20.66
20.26
20.09
20.03
20.01
19.96
19.69
18.99
17.59
15.37
12.38
8.9
5.26
1.72
-1.6
-4.77
-7.88
-10.97
-14.01
-16.99
-19.93
-22.88
-25.76
-28.18
-29.43
-28.71
-25.48
-19.82
-12.52
-4.78
2.15
7.49
11.12
13.44
15.13
16.58
17.93
18.93
19.26
18.67
17.27
15.45
13.66
12.26
11.24
10.31
9.08
7.38
5.33
3.32
1.71
0.59
-0.31
-1.42
-3.13
-5.54
-8.48
-11.7
-15.05
-18.57
-22.44
-26.68
-31.12
-35.25
-38.39
-39.79
-38.76
-34.9
-28.16
-19.03
-8.4
2.45
12.22
19.84
24.76
26.97
26.91
25.29
22.86
20.19
17.72
15.58
13.83
12.34
10.95
9.53
8.03
6.46
4.78
2.94
0.85
-1.53
-4.17
-6.85
-9.4
-11.65
-13.59
-15.39
-17.39
-19.94
-23.2
-27.11
-31.2
-34.7
-36.68
-36.25
-32.87
-26.51
-17.73
-7.54
2.89
12.46
20.43
26.37
30.23
32.15
32.31
30.85
28.01
24.11
19.75
15.72
12.72
11.2
11.13
11.98
13.05
13.67
13.42
12.24
10.2
7.46
4.19
0.53
-3.31
-7.2
-11.09
-15.08
-19.37
-24.13
-29.36
-34.76
-39.75
-43.41
-44.68
-42.55
-36.61
-27.18
-15.43
-3.08
8.24
17.38
24.01
28.45
31.18
32.5
32.51
31.21
28.88
26.15
23.85
22.55
22.24
22.37
22.13
21.07
19.27
17.33
16.01
15.69
16.19
16.72
16.3
14.19
10.23
4.83
-1.23
-7.1
-12.24
-16.49
-20.08
-23.43
-27
-31.06
-35.61
-40.26
-44.36
-46.96
-47
-43.62
-36.45
-25.91
-13.18
0.1
12.35
22.5
30.24
35.79
39.55
41.85
42.84
42.64
41.51
39.88
38.33
37.28
36.95
37.2
37.77
38.35
38.7
38.71
38.35
37.7
36.85
35.89
34.84
33.57
31.82
29.26
25.85
21.79
17.67
14.07
11.45
9.78
8.61
7.26
5.2
2.22
-1.52
-5.6
-9.73
-13.7
-17.47
-21.01
-24.21
-26.89
-28.92
-30.48
-32.02
-34.25
-37.85
-43.12
-49.69
-56.47
-61.83
-64.1
-62.03
-55.23
-44.32
-30.77
-16.34
-2.63
9.25
18.73
25.74
30.37
32.93
33.78
33.43
32.43
31.31
30.4
29.77
29.39
29.1
28.89
28.75
28.74
28.86
29.02
29.18
29.26
29.18
28.74
27.71
25.83
23.09
19.71
16.06
12.56
9.39
6.51
3.64
0.56
-2.84
-6.49
-10.24
-13.94
-17.47
-20.71
-23.54
-25.92
-27.99
-30.1
-32.74
-36.23
-40.4
-44.5
-47.28
-47.46
-44.18
-37.4
-27.85
-16.85
-5.81
4.12
12.34
18.57
22.76
24.92
25.17
23.88
21.7
19.49
18.04
17.8
18.79
20.62
22.76
24.72
26.17
26.91
26.88
26.09
24.66
22.78
20.66
18.41
15.98
13.28
10.32
7.17
3.95
0.81
-2.26
-5.3
-8.38
-11.52
-14.74
-18.06
-21.56
-25.36
-29.46
-33.69
-37.53
-40.24
-40.97
-39.05
-34.21
-26.79
-17.62
-7.81
1.54
9.67
16.25
21.23
24.68
26.59
26.89
25.63
23.13
19.95
16.83
14.37
12.89
12.38
12.55
12.99
13.38
13.64
13.72
13.63
13.28
12.45
10.9
8.51
5.37
1.85
-1.59
-4.59
-6.97
-8.92
-10.85
-13.17
-16.07
-19.5
-23.26
-27.11
-30.9
-34.42
-37.4
-39.35
-39.57
-37.41
-32.56
-25.27
-16.4
-7.16
1.4
8.6
14.31
18.79
22.36
25.06
26.62
26.62
24.73
21.2
16.82
12.74
9.98
8.99
9.45
10.5
11.2
10.97
9.96
8.68
7.73
7.34
7.28
7
5.92
3.73
0.4
-3.76
-8.27
-12.66
-16.55
-19.88
-22.86
-25.97
-29.67
-34.16
-38.97
-43.03
-44.94
-43.51
-38.37
-30.04
-19.79
-9.05
0.99
9.71
16.9
22.53
26.55
28.87
29.54
28.82
27.23
25.22
23.17
21.15
19.12
17.12
15.32
13.94
13.21
13.09
13.34
13.58
13.41
12.47
10.53
7.5
3.44
-1.37
-6.43
-11.13
-14.92
-17.55
-19.15
-20.18
-21.36
-23.35
-26.42
-30.38
-34.44
-37.44
-38.23
-36
-30.61
-22.63
-13.16
-3.44
5.39
12.63
18.07
21.94
24.63
26.44
27.44
27.5
26.64
25.07
23.39
22.24
22.01
22.54
23.22
23.29
22.32
20.4
18.04
15.88
14.2
12.85
11.45
9.56
7.04
3.96
0.5
-3.17
-6.96
-10.76
-14.45
-17.81
-20.74
-23.3
-25.82
-28.62
-31.86
-35.27
-38.16
-39.65
-38.93
-35.67
-30.07
-22.8
-14.71
-6.61
0.97
7.76
13.66
18.64
22.56
25.18
26.25
25.6
23.37
20.09
16.58
13.78
12.33
12.22
12.92
13.62
13.69
12.98
11.79
10.5
9.27
7.92
6.03
3.36
0.02
-3.61
-7.05
-10.07
-12.72
-15.25
-17.77
-20.26
-22.63
-24.91
-27.32
-30.1
-33.08
-35.58
-36.47
-34.62
-29.44
-21.26
-11.31
-1.29
7.36
13.86
18.27
21.14
23.08
24.32
24.72
24.17
22.7
20.72
18.81
17.41
16.59
16.1
15.6
14.91
14.14
13.56
13.37
13.55
13.81
13.88
13.46
12.37
10.39
7.33
3.07
-2.2
-7.9
-13.2
-17.33
-19.98
-21.43
-22.42
-23.87
-26.44
-30.29
-35.07
-39.98
-43.99
-46.06
-45.34
-41.46
-34.53
-25.22
-14.67
-4.09
5.38
13.05
18.66
22.31
24.37
25.2
25.16
24.5
23.45
22.19
20.95
19.86
19.08
18.66
18.6
18.89
19.45
20.19
20.96
21.59
21.92
21.85
21.24
19.97
17.9
14.98
11.42
7.64
4.23
1.7
0.25
-0.44
-1.12
-2.56
-5.25
-9.1
-13.52
-17.73
-21.15
-23.54
-25.1
-26.31
-27.71
-29.69
-32.41
-35.64
-38.73
-40.77
-40.72
-37.78
-31.78
-23.2
-13.07
-2.64
6.99
15.07
21.24
25.39
27.59
28
27.05
25.35
23.65
22.57
22.35
22.8
23.44
23.72
23.38
22.55
21.68
21.23
21.41
22.05
22.75
23.09
22.72
21.57
19.72
17.31
14.55
11.71
9.12
7
5.48
4.28
2.88
0.63
-2.87
-7.56
-12.8
-17.76
-21.69
-24.26
-25.74
-26.78
-28.13
-30.35
-33.63
-37.79
-42.32
-46.63
-49.91
-51.21
-49.64
-44.65
-36.34
-25.59
-13.99
-3.18
5.5
11.52
15.18
17.35
18.99
20.72
22.63
24.36
25.46
25.62
24.95
23.8
22.59
21.58
20.72
19.81
18.65
17.22
15.67
14.21
12.92
11.72
10.46
9.07
7.62
6.22
4.83
3.17
0.82
-2.54
-6.84
-11.56
-15.9
-19.15
-21.02
-21.74
-21.98
-22.49
-23.83
-26.12
-29.12
-32.24
-34.73
-35.79
-34.7
-31.05
-24.88
-16.86
-8.1
0.14
6.96
11.97
15.37
17.58
18.95
19.6
19.49
18.6
17.13
15.44
13.95
12.87
12.21
11.76
11.22
10.33
8.95
7.07
4.96
3.03
1.7
1.18
1.3
1.52
1.15
-0.29
-2.82
-6.08
-9.51
-12.7
-15.58
-18.45
-21.72
-25.7
-30.28
-34.88
-38.59
-40.35
-39.3
-35.13
-28.16
-19.39
-10.14
-1.61
5.46
10.92
14.97
17.92
19.92
20.83
20.44
18.72
15.93
12.63
9.45
6.91
5.22
4.43
4.42
5.04
6.07
7.3
8.37
8.89
8.54
7.17
4.87
1.94
-1.22
-4.29
-7.18
-10.18
-13.71
-18.11
-23.34
-28.87
-33.69
-36.69
-36.96
-34.16
-28.53
-20.93
-12.45
-4.22
2.81
8.08
11.49
13.32
13.99
13.93
13.33
12.22
10.56
8.5
6.41
4.77
3.97
4.04
4.63
5.11
4.86
3.54
1.25
-1.64
-4.61
-7.26
-9.47
-11.34
-13.15
-15.26
-17.99
-21.51
-25.75
-30.42
-34.96
-38.62
-40.66
-40.44
-37.55
-32
-24.2
-15.01
-5.51
3.22
10.37
15.57
18.96
20.92
21.83
21.98
21.44
20.36
18.98
17.7
16.89
16.63
16.71
16.66
16.06
14.73
12.77
10.51
8.24
6.07
3.95
1.75
-0.62
-3.14
-5.74
-8.48
-11.57
-15.43
-20.32
-26.1
-31.99
-36.67
-38.67
-36.97
-31.38
-22.62
-12.12
-1.36
8.47
16.89
23.84
29.52
34.03
37.34
39.32
39.89
39.06
37.08
34.38
31.42
28.71
26.65
25.42
25
25.08
25.24
24.97
23.98
22.22
19.93
17.53
15.4
13.67
12.08
10.1
7.12
2.86
-2.47
-8.22
-13.56
-17.96
-21.4
-24.29
-27.27
-30.85
-35.13
-39.77
-44.1
-47.4
-48.96
-48.17
-44.63
-38.11
-28.73
-17.15
-4.47
7.92
18.73
27.11
32.83
36.17
37.71
38.04
37.62
36.79
35.85
35.09
34.81
35.14
35.99
37.07
38.02
38.54
38.55
38.18
37.71
37.43
37.5
37.94
38.59
39.13
39.17
38.41
36.66
34.08
31.05
28.02
25.36
23.05
20.91
18.65
16.13
13.41
10.71
8.16
5.72
3.16
0.28
-2.95
-6.33
-9.56
-12.51
-15.27
-18.19
-21.52
-25.31
-29.27
-33.03
-36.24
-38.84
-41.05
-43.31
-46.13
-49.88
-54.6
-59.84
-64.64
-67.77
-68.05
-64.77
-57.94
-48.27
-36.82
-24.8
-13.17
-2.68
6.14
12.91
17.44
19.85
20.54
20.19
19.48
18.9
18.68
18.77
19.07
19.47
19.95
20.51
21.15
21.79
22.33
22.72
22.92
22.92
22.59
21.8
20.31
17.95
14.73
10.88
6.99
3.62
1.21
-0.24
-1.18
-2.29
-4.23
-7.26
-11.08
-14.93
-18.02
-19.92
-20.81
-21.43
-22.64
-24.96
-28.29
-31.9
-34.73
-35.79
-34.41
-30.5
-24.4
-16.76
-8.35
0.05
7.8
14.43
19.71
23.57
26.07
27.25
27.26
26.27
24.59
22.66
20.9
19.62
18.92
18.7
18.66
18.52
18.11
17.4
16.52
15.59
14.7
13.85
12.94
11.88
10.59
8.97
6.93
4.41
1.27
-2.53
-6.92
-11.73
-16.62
-21.22
-25.17
-28.31
-30.7
-32.74
-35.05
-38.18
-42.46
-47.61
-52.83
-56.9
-58.52
-56.64
-50.73
-41
-28.29
-14.02
0.21
12.85
22.75
29.41
33.04
34.4
34.51
34.25
34.11
34.22
34.41
34.48
34.28
33.75
32.9
31.78
30.52
29.34
28.52
28.23
28.32
28.4
27.76
25.84
22.48
18.02
13.15
8.53
4.48
0.99
-2.13
-5.01
-7.59
-9.69
-11.34
-12.91
-15.04
-18.35
-23.04
-28.73
-34.45
-39.03
-41.39
-40.93
-37.55
-31.6
-23.73
-14.73
-5.49
3.13
10.46
16.13
20.03
22.29
23.14
22.8
21.51
19.6
17.53
15.82
14.84
14.66
14.98
15.33
15.28
14.66
13.57
12.2
10.75
9.29
7.77
6.13
4.37
2.49
0.64
-1.13
-2.78
-4.41
-6.16
-8.13
-10.33
-12.6
-14.85
-17.05
-19.36
-22.01
-25.1
-28.44
-31.39
-33.11
-32.88
-30.46
-26.14
-20.57
-14.43
-8.02
-1.46
5.27
11.9
17.88
22.42
25.01
25.46
24.11
21.65
18.8
16.18
14.1
12.68
11.84
11.48
11.43
11.51
11.53
11.34
10.88
10.14
9.22
8.26
7.3
6.36
5.27
3.84
1.88
-0.5
-2.92
-4.9
-6.16
-7.1
-8.6
-11.78
-17.14
-24.23
-31.55
-37.18
-39.54
-37.99
-33.04
-25.93
-18.04
-10.42
-3.57
2.43
7.62
11.95
15.27
17.42
18.45
18.63
18.33
17.97
17.65
17.25
16.38
14.82
12.52
9.81
7.09
4.63
2.52
0.54
-1.58
-4.12
-7.18
-10.76
-14.75
-19.01
-23.33
-27.42
-31.03
-34
-36.36
-38.35
-40.16
-41.7
-42.46
-41.63
-38.4
-32.44
-24.09
-14.27
-4.26
4.79
12.1
17.31
20.31
21.21
20.17
17.69
14.46
11.31
8.93
7.58
7.05
6.91
6.77
6.56
6.38
6.4
6.57
6.68
6.47
5.71
4.39
2.56
0.27
-2.49
-5.73
-9.39
-13.3
-17.27
-21.27
-25.39
-29.76
-34.19
-38.16
-40.81
-41.29
-39
-33.82
-26.1
-16.6
-6.25
3.88
12.69
19.22
22.86
23.64
22.27
19.87
17.58
16.03
15.2
14.54
13.39
11.47
9.04
6.81
5.52
5.49
6.46
7.72
8.47
8.23
6.95
4.97
2.74
0.48
-1.9
-4.69
-8.12
-12.1
-16.24
-20.11
-23.42
-26.07
-28.15
-29.57
-29.93
-28.68
-25.21
-19.35
-11.49
-2.51
6.54
14.76
21.58
26.73
30.11
31.8
32.01
31.09
29.57
28.04
26.89
26.16
25.53
24.55
22.84
20.42
17.71
15.29
13.64
12.87
12.64
12.34
11.44
9.69
7.27
4.56
2.01
-0.16
-1.86
-3.16
-4.13
-4.95
-6.04
-7.94
-11.08
-15.46
-20.4
-24.5
-26.17
-24.23
-18.47
-9.72
0.44
10.26
18.37
23.99
27.01
27.72
26.7
24.52
21.71
18.7
15.76
13.06
10.69
8.68
6.93
5.3
3.55
1.55
-0.62
-2.67
-4.32
-5.5
-6.5
-7.89
-10.15
-13.28
-16.74
-19.66
-21.42
-22
-22.1
-22.7
-24.42
-27.17
-30
-31.62
-30.93
-27.48
-21.59
-14.11
-5.97
1.98
9.21
15.39
20.29
23.72
25.57
25.89
24.96
23.19
21.05
18.97
17.13
15.42
13.58
11.4
8.89
6.4
4.42
3.32
3.08
3.24
3.1
2.02
-0.25
-3.54
-7.31
-11
-14.31
-17.26
-20.19
-23.51
-27.42
-31.79
-35.93
-38.84
-39.4
-36.94
-31.49
-23.82
-15.16
-6.7
0.79
6.99
11.92
15.64
18.05
19.02
18.42
16.45
13.58
10.45
7.62
5.45
4.06
3.38
3.31
3.69
4.28
4.73
4.59
3.52
1.39
-1.61
-5.06
-8.56
-11.88
-14.99
-18.07
-21.37
-24.99
-28.86
-32.62
-35.65
-37.11
-36.08
-31.9
-24.53
-14.84
-4.33
5.32
12.86
17.93
20.97
22.73
23.78
24.23
23.7
21.87
18.79
15.03
11.48
8.92
7.69
7.53
7.71
7.39
6.02
3.5
0.22
-3.15
-6.13
-8.52
-10.61
-12.95
-16.08
-20.22
-25.31
-31.08
-37.14
-43.1
-48.31
-51.79
-52.35
-48.87
-40.93
-29.13
-15.04
-0.58
12.42
22.91
30.64
35.99
39.56
41.83
42.98
42.96
41.78
39.51
36.57
33.53
30.97
29.18
27.96
26.59
24.2
20.19
14.56
8.02
1.52
-4.1
-8.52
-11.98
-15.01
-18.16
-21.74
-25.78
-30.12
-34.58
-38.96
-42.89
-45.81
-46.9
-45.17
-39.88
-30.8
-18.43
-3.94
11.25
25.93
39.36
51.4
62.25
72.06
80.71
87.92
93.31
96.7
98.22
98.18
96.89
94.52
91.03
86.3
80.29
73.1
64.9
55.93
46.33
36.11
25.08
12.93
-0.55
-15.33
-30.98
-46.56
-60.71
-71.97
-78.99
-81
-78.05
-70.96
-61.08
-49.94
-38.82
-28.6
-19.78
-12.58
-7.17
-3.69
-2.27
-2.79
-4.87
-7.81
-10.82
-13.2
-14.56
-14.85
-14.4
-13.7
-13.26
-13.4
-14.13
-15.19
-16.18
-16.72
-16.76
-16.58
-16.64
-17.39
-19.03
-21.52
-24.64
-28.15
-31.83
-35.29
-37.9
-38.68
-36.66
-31.17
-22.35
-11.18
0.75
11.81
20.83
27.32
31.38
33.42
33.79
32.77
30.61
27.59
24.19
21.01
18.48
16.75
15.62
14.74
13.79
12.59
11.07
9.28
7.31
5.25
3.23
1.37
-0.35
-2.1
-4.16
-6.84
-10.23
-14.28
-18.73
-23.33
-27.88
-32.13
-35.51
-37.16
-36.06
-31.47
-23.43
-12.89
-1.46
9.07
17.37
22.93
26.04
27.42
27.84
27.68
26.88
25.18
22.32
18.51
14.41
10.93
8.87
8.58
9.84
11.88
13.7
14.37
13.39
10.72
6.82
2.41
-1.8
-5.39
-8.27
-10.66
-12.98
-15.56
-18.57
-21.98
-25.44
-28.45
-30.31
-30.2
-27.39
-21.54
-12.93
-2.58
7.9
16.88
23.1
26.12
26.32
24.73
22.43
20.21
18.35
16.65
14.84
12.98
11.39
10.6
10.84
11.87
12.95
13.25
12.36
10.48
8.13
5.87
3.82
1.7
-0.9
-4.19
-7.92
-11.63
-14.91
-17.65
-19.96
-21.92
-23.31
-23.52
-21.78
-17.53
-10.77
-2.13
7.37
16.59
24.65
30.91
35.06
36.98
36.64
34.14
29.67
23.64
16.66
9.52
3.11
-1.71
-4.42
-4.98
-3.98
-2.49
-1.71
-2.5
-5.02
-8.78
-12.94
-16.75
-19.98
-22.89
-25.97
-29.53
-33.56
-37.79
-41.91
-45.6
-48.47
-49.91
-49.14
-45.37
-38.26
-28.25
-16.5
-4.54
6.23
15.06
21.79
26.68
30.01
31.9
32.32
31.27
28.94
25.82
22.54
19.71
17.81
17.01
17.1
17.66
18.06
17.65
16
12.96
8.82
4.21
-0.11
-3.61
-6.15
-8.07
-10.06
-12.74
-16.45
-21.11
-26.33
-31.58
-36.38
-40.14
-42.13
-41.57
-37.64
-29.98
-18.96
-5.75
7.88
20.11
29.57
35.66
38.53
38.87
37.57
35.4
32.85
30.13
27.32
24.59
22.21
20.55
19.79
19.85
20.28
20.52
20.08
18.87
17.16
15.41
13.86
12.4
10.58
7.86
4.01
-0.74
-5.78
-10.41
-14.09
-16.68
-18.39
-19.79
-21.58
-24.46
-28.75
-34.26
-40.12
-44.86
-46.82
-44.72
-38.1
-27.59
-14.7
-1.29
10.91
20.79
27.9
32.42
34.9
35.97
36.18
35.86
35.08
33.78
31.97
29.72
27.3
25.13
23.61
22.99
23.29
24.19
25.19
25.79
25.66
24.76
23.31
21.58
19.72
17.71
15.32
12.35
8.69
4.41
-0.24
-4.97
-9.55
-13.79
-17.47
-20.53
-22.97
-25
-27.1
-29.77
-33.38
-37.94
-42.88
-47.15
-49.46
-48.68
-44.22
-36.34
-26.03
-14.74
-3.87
5.59
13.26
19.13
23.41
26.19
27.32
26.66
24.27
20.62
16.55
12.9
10.22
8.61
7.87
7.68
7.9
8.54
9.61
10.93
12.01
12.27
11.27
9
5.76
2.1
-1.57
-4.96
-7.92
-10.33
-12.05
-13.07
-13.62
-14.24
-15.51
-17.89
-21.44
-25.68
-29.67
-32.3
-32.6
-30.04
-24.67
-17.09
-8.23
0.8
9.12
16.07
21.27
24.47
25.55
24.47
21.5
17.32
12.9
9.22
6.86
5.89
5.89
6.33
6.84
7.34
7.88
8.51
9.06
9.19
8.59
7.07
4.69
1.68
-1.67
-5.11
-8.51
-11.75
-14.92
-18.21
-21.88
-26.04
-30.44
-34.34
-36.71
-36.5
-33.15
-26.8
-18.35
-9.19
-0.76
5.89
10.19
12.12
11.99
10.28
7.43
3.72
-0.72
-5.9
-11.96
-19.15
-27.85
-38.38
-50.65
-64.04
-77.36
-89.07
-97.55
-101.53
-100.25
-93.58
-81.94
-66.24
-47.85
-28.5
-10.15
5.4
16.81
23.46
25.58
24.14
20.49
16.22
12.82
11.46
12.7
16.42
21.83
27.7
32.77
36.07
37.22
36.45
34.36
31.5
28.28
24.97
21.93
19.65
18.62
19.17
21.24
24.37
27.91
31.32
34.31
36.93
39.28
41.37
42.99
43.84
43.7
42.59
40.77
38.61
36.43
34.31
32.08
29.44
26.18
22.44
18.69
15.69
14.17
14.55
16.9
20.85
25.93
31.62
37.47
43
47.66
50.9
52.27
51.53
48.64
43.82
37.41
29.99
22.26
15.15
9.51
5.95
4.48
4.54
5.05
4.88
3.1
-0.71
-6.5
-13.73
-21.59
-29.22
-35.84
-41.02
-44.76
-47.46
-49.76
-52.18
-54.78
-57.13
-58.37
-57.55
-54.07
-47.9
-39.6
-30.14
-20.64
-12.14
-5.49
-1.1
0.94
0.93
-0.59
-2.95
-5.47
-7.61
-9.05
-9.79
-10.16
-10.61
-11.59
-13.29
-15.47
-17.55
-18.99
-19.65
-20.04
-21.03
-23.43
-27.46
-32.54
-37.78
-42.33
-46
-49.08
-52.15
-55.54
-59.13
-62.37
-64.53
-64.94
-63.06
-58.57
-51.28
-41.2
-28.69
-14.42
0.64
15.51
29.23
41.1
50.62
57.54
61.86
63.8
63.87
62.71
61.03
59.32
57.84
56.45
54.74
52.19
48.36
43.11
36.54
29.07
21.12
13.08
5.14
-2.61
-10.1
-17.23
-23.76
-29.55
-34.49
-38.59
-41.99
-44.74
-46.76
-47.65
-46.84
-43.65
-37.74
-29.21
-18.78
-7.46
3.65
13.7
22.19
28.88
33.76
36.76
37.93
37.56
36.4
35.54
36.05
38.54
42.67
47.23
50.5
50.9
47.63
40.89
31.69
21.38
11.19
1.84
-6.48
-13.94
-20.83
-27.43
-33.94
-40.39
-46.64
-52.37
-57.16
-60.4
-61.52
-59.96
-55.39
-47.71
-37.32
-25.03
-12.02
0.49
11.58
20.73
27.84
32.97
36.2
37.53
37.09
35.27
32.72
30.26
28.4
27.16
26.06
24.29
21.16
16.37
10.11
2.96
-4.45
-11.61
-18.25
-24.28
-29.71
-34.48
-38.52
-41.78
-44.3
-46.03
-46.78
-46.13
-43.46
-38.29
-30.59
-21.06
-10.86
-1.27
6.89
13.39
18.54
22.68
25.66
26.86
25.4
20.77
13.39
4.62
-3.69
-9.9
-13.22
-13.93
-13.07
-11.9
-11.37
-11.89
-13.47
-15.97
-19.29
-23.26
-27.68
-32.06
-35.82
-38.57
-40.3
-41.49
-42.91
-45.12
-48.2
-51.39
-53.42
-52.89
-48.82
-40.94
-29.84
-16.69
-2.96
9.86
20.64
28.63
33.66
36.04
36.41
35.54
34.07
32.34
30.47
28.53
26.68
25.11
23.95
23.14
22.32
21.12
19.38
17.2
14.97
13.06
11.54
10.09
8.16
5.29
1.44
-3
-7.44
-11.27
-14.37
-17.07
-19.9
-23.24
-26.97
-30.32
-32.06
-31.01
-26.37
-18.08
-6.88
5.98
19.07
31.04
40.91
48.19
52.8
55.16
55.85
55.55
54.9
54.37
54.32
54.85
55.91
57.19
58.29
58.79
58.49
57.52
56.2
54.99
54.02
53.12
51.73
49.18
45.08
39.36
32.41
24.8
17.14
9.86
3.16
-3.07
-9.06
-14.98
-20.9
-26.65
-31.96
-36.54
-40.31
-43.46
-46.35
-49.45
-53.02
-57.11
-61.53
-65.78
-69.22
-71.01
-70.27
-66.28
-58.85
-48.37
-35.8
-22.43
-9.5
2.05
11.69
19.26
24.83
28.64
30.95
32
32.14
31.76
31.36
31.48
32.51
34.41
36.71
38.56
39.14
38.02
35.47
32.3
29.53
27.89
27.58
28.19
28.96
29.09
28.02
25.61
22.14
18.23
14.61
11.8
9.89
8.52
7.09
4.99
1.9
-2.13
-6.79
-11.61
-16.17
-20.2
-23.52
-26.1
-28.05
-29.66
-31.33
-33.44
-36.1
-39.03
-41.56
-42.77
-41.82
-38.19
-31.92
-23.65
-14.44
-5.59
1.73
6.72
9.08
8.96
6.85
3.4
-0.68
-4.63
-7.74
-9.39
-9.24
-7.17
-3.61
0.82
5.38
9.47
12.84
15.53
17.78
19.82
21.76
23.47
24.74
25.44
25.52
25.11
24.38
23.49
22.57
21.63
20.6
19.35
17.66
15.25
12.01
7.99
3.51
-1.09
-5.52
-9.59
-13.13
-15.87
-17.32
-16.84
-14.03
-8.97
-2.31
4.96
11.84
17.76
22.45
25.93
28.05
28.57
27.26
24.16
19.85
15.18
11.18
8.46
7.22
7.15
7.68
8.3
8.7
8.81
8.63
8.23
7.5
6.3
4.53
2.15
-0.68
-3.69
-6.61
-9.35
-11.87
-14.29
-16.69
-19.16
-21.79
-24.66
-27.93
-31.7
-35.94
-40.37
-44.52
-47.68
-49.11
-48.21
-44.63
-38.46
-30.26
-21.06
-12.19
-4.82
0.38
3.55
5.38
6.79
8.32
10.06
11.62
12.67
13.19
13.59
14.47
16.08
18.26
20.39
21.83
22.18
21.47
19.92
17.73
14.91
11.4
7.27
2.8
-1.49
-5.06
-7.73
-9.77
-11.79
-14.5
-18.47
-23.89
-30.6
-38.08
-45.48
-51.68
-55.36
-55.35
-51.03
-42.64
-31.22
-18.34
-5.46
6.48
17.05
26.16
33.72
39.39
42.89
44.14
43.46
41.39
38.53
35.33
32.11
29.09
26.47
24.37
22.7
21.11
19.16
16.54
13.18
9.32
5.32
1.44
-2.25
-5.76
-9.23
-12.81
-16.65
-20.86
-25.46
-30.35
-35.32
-40.07
-44.15
-47.12
-48.42
-47.55
-44.16
-38.23
-30.1
-20.65
-11.02
-2.36
4.41
8.9
11.29
12.08
11.95
11.4
10.65
9.67
8.46
7.09
5.81
4.93
4.48
4.25
3.95
3.29
2.2
0.77
-0.93
-2.93
-5.32
-8.15
-11.28
-14.29
-16.8
-18.55
-19.54
-20.07
-20.51
-21.24
-22.44
-24.04
-25.66
-26.63
-26.02
-22.89
-16.74
-7.73
3.17
14.46
24.69
32.86
38.63
42.23
44.03
44.29
43.17
40.8
37.48
33.76
30.2
27.17
24.73
22.66
20.64
18.48
16.22
13.94
11.7
9.4
6.86
3.93
0.58
-3.01
-6.57
-9.8
-12.58
-14.95
-17.19
-19.66
-22.66
-26.38
-30.8
-35.52
-39.85
-42.84
-43.49
-41.04
-35.27
-26.64
-16.21
-5.42
4.37
12.25
17.87
21.41
23.27
23.76
23.04
21.11
18.02
14.06
9.85
6.14
3.6
2.6
3.04
4.39
5.9
6.78
6.58
5.13
2.69
-0.32
-3.36
-6.05
-8.16
-9.74
-11.02
-12.37
-14.18
-16.74
-20.13
-24.11
-28
-30.8
-31.48
-29.34
-24.24
-16.67
-7.56
2.01
10.92
18.28
23.51
26.33
26.81
25.32
22.48
18.96
15.37
12.14
9.55
7.73
6.62
6.01
5.58
4.95
3.85
2.21
0.28
-1.59
-3.05
-4.04
-4.71
-5.39
-6.44
-8.17
-10.8
-14.45
-19.06
-24.39
-29.99
-35.26
-39.59
-42.45
-43.46
-42.34
-38.99
-33.4
-25.8
-16.77
-7.2
1.76
9.06
14.07
16.69
17.36
16.76
15.51
13.94
12.1
9.93
7.49
5.21
3.7
3.55
5.15
8.31
12.45
16.74
20.39
22.83
23.84
23.5
21.99
19.53
16.3
12.38
7.87
2.75
-2.87
-8.86
-15.01
-21.13
-27.07
-32.72
-37.96
-42.4
-45.32
-45.77
-42.85
-36.19
-26.26
-14.43
-2.63
7.16
13.51
15.89
14.85
11.86
8.96
8.16
10.85
17.33
26.67
37.02
46.27
52.77
55.9
56.1
54.48
52.2
49.95
47.84
45.56
42.81
39.56
36.17
33.04
30.36
27.92
25.18
21.68
17.28
12.29
7.2
2.42
-2.01
-6.36
-11.01
-16.27
-22.25
-28.89
-36
-43.18
-49.77
-54.88
-57.43
-56.54
-51.88
-43.78
-33.26
-21.68
-10.37
-0.39
7.71
13.82
18.1
20.78
22.13
22.33
21.74
20.75
19.73
18.88
18.16
17.45
16.75
16.28
16.38
17.24
18.6
19.78
20.01
18.9
16.67
14
11.56
9.6
7.81
5.64
2.64
-1.11
-5.13
-8.85
-11.95
-14.56
-17.13
-20.01
-23.35
-27.03
-30.77
-34.45
-38.05
-41.57
-44.78
-47.11
-47.66
-45.64
-40.77
-33.54
-25.04
-16.56
-9.04
-2.81
2.3
6.56
9.86
11.68
11.39
8.73
4.19
-0.95
-5.17
-7.43
-7.63
-6.59
-5.55
-5.47
-6.54
-8.16
-9.4
-9.69
-9.21
-8.77
-9.34
-11.49
-15.12
-19.6
-24.23
-28.58
-32.64
-36.49
-39.91
-42.28
-42.79
-41.08
-37.53
-33.18
-29.19
-26.06
-23.27
-19.61
-13.93
-5.93
3.65
13.31
21.58
27.71
31.82
34.64
36.94
38.96
40.39
40.53
38.82
35.31
30.76
26.48
23.79
23.54
25.66
29.33
33.25
36.39
38.33
39.29
39.74
39.93
39.72
38.7
36.63
33.66
30.42
27.65
25.72
24.51
23.48
22.09
19.99
17.17
13.76
9.9
5.63
1.08
-3.42
-7.34
-10.17
-11.62
-11.87
-11.35
-10.61
-9.91
-9.21
-8.21
-6.72
-4.86
-3.11
-2.15
-2.54
-4.46
-7.61
-11.38
-15.02
-18.13
-20.58
-22.59
-24.43
-26.28
-28.09
-29.78
-31.31
-32.93
-35.08
-38.09
-41.92
-46.09
-49.89
-52.73
-54.34
-54.84
-54.63
-53.98
-53.01
-51.52
-49.13
-45.37
-39.7
-31.62
-20.82
-7.34
8.11
24.27
39.5
52.36
61.88
67.77
70.41
70.49
68.91
66.53
64.13
62.27
61.11
60.39
59.45
57.56
54.33
49.98
45.32
41.31
38.57
36.86
35.2
32.27
27.02
19.16
9.24
-1.59
-12.25
-21.93
-30.27
-37.27
-43.06
-47.88
-51.95
-55.31
-57.69
-58.48
-56.83
-52
-43.77
-32.62
-19.68
-6.26
6.46
17.74
27.21
34.66
39.9
42.84
43.7
43.03
41.65
40.3
39.43
39.1
39.05
38.91
38.35
37.36
36.09
34.88
33.97
33.38
32.91
32.15
30.71
28.39
25.26
21.48
17.26
12.65
7.63
2.09
-4.02
-10.61
-17.45
-24.06
-29.68
-33.17
-33.38
-29.53
-21.67
-10.88
1.05
12.19
21.13
27.16
30.29
30.82
29.14
25.64
20.75
15.12
9.56
4.79
1.27
-0.99
-2.26
-3.01
-3.62
-4.25
-5.01
-6.07
-7.65
-10.08
-13.48
-17.73
-22.4
-27
-31.21
-35.04
-38.91
-43.29
-48.5
-54.38
-60.28
-65.14
-67.81
-67.35
-63.34
-56.02
-46.23
-35.23
-24.3
-14.4
-6.06
0.69
6.12
10.44
13.77
15.98
16.86
16.37
14.78
12.63
10.64
9.3
8.7
8.5
8.05
6.86
4.68
1.66
-2.01
-6.11
-10.63
-15.53
-20.61
-25.43
-29.49
-32.57
-34.94
-37.18
-39.76
-42.59
-44.93
-45.56
-43.44
-38.15
-30.09
-20.35
-10.2
-0.68
7.53
14.12
19.03
22.21
23.69
23.54
22
19.38
16.05
12.38
8.74
5.6
3.35
2.24
2.2
2.77
3.27
3
1.65
-0.63
-3.39
-6.12
-8.61
-10.98
-13.62
-16.81
-20.62
-24.84
-29.11
-33.03
-36.16
-37.84
-37.26
-33.68
-26.83
-17.26
-6.28
4.47
13.71
20.88
26.16
30.09
33.04
34.96
35.49
34.31
31.54
27.73
23.73
20.18
17.35
15.05
12.95
10.81
8.62
6.54
4.7
3.09
1.48
-0.48
-2.89
-5.75
-8.93
-12.35
-16.09
-20.42
-25.59
-31.47
-37.47
-42.53
-45.42
-45.14
-41.23
-33.84
-23.68
-11.7
1.08
13.66
25.05
34.33
40.84
44.29
44.98
43.56
40.94
37.9
34.94
32.21
29.76
27.67
26.08
25.13
24.88
25.15
25.64
25.93
25.58
24.27
21.78
18.06
13.26
7.64
1.57
-4.51
-10.26
-15.44
-19.98
-24.1
-28.29
-32.99
-38.4
-44.16
-49.25
-52.33
-52.09
-47.84
-39.73
-28.66
-16.02
-3.2
8.58
18.5
26.09
31.23
34.1
35.07
34.63
33.23
31.24
29.02
26.9
25.22
24.15
23.75
23.82
24.19
24.66
25.21
25.88
26.58
27.01
26.72
25.31
22.69
19.21
15.48
12.14
9.6
7.82
6.51
5.18
3.53
1.37
-1.25
-4.19
-7.36
-10.64
-14.02
-17.52
-21.26
-25.36
-29.91
-34.73
-39.24
-42.51
-43.35
-40.8
-34.53
-25.1
-13.91
-2.74
6.87
14.12
19.14
22.72
25.87
29.27
33.1
37.11
40.97
44.51
47.72
50.61
53
54.49
54.69
53.47
51.07
47.94
44.57
41.2
37.68
33.64
28.7
22.71
15.84
8.61
1.6
-4.7
-10.16
-15
-19.74
-24.92
-30.88
-37.64
-44.91
-52.33
-59.63
-66.86
-74.29
-82.24
-90.78
-99.42
-107.11
-112.28
-113.37
-109.33
-99.95
-86.01
-68.92
-50.35
-31.83
-14.55
0.67
13.27
22.91
29.51
33.25
34.58
34.07
32.3
29.88
27.41
25.39
24.29
24.32
25.35
27
28.77
30.21
31.14
31.55
31.49
31.04
30.2
29
27.62
26.3
25.38
25.11
25.55
26.49
27.56
28.23
27.94
26.21
22.62
17.08
9.97
2.17
-5
-10.15
-12.27
-11.05
-6.85
-0.63
6.48
13.39
19.29
23.72
26.51
27.77
27.74
26.71
24.88
22.46
19.54
16.19
12.52
8.64
4.64
0.52
-3.72
-8.1
-12.53
-16.92
-21.18
-25.33
-29.64
-34.49
-40.18
-46.64
-53.31
-59.2
-63.22
-64.64
-63.33
-59.96
-55.56
-51.25
-47.81
-45.62
-44.58
-44.33
-44.26
-43.55
-41.26
-36.47
-28.69
-18.02
-5.29
8.1
20.66
31.17
39.09
44.53
48.15
50.68
52.71
54.5
55.98
56.98
57.45
57.5
57.34
57.16
57
56.71
56.17
55.32
54.19
52.8
50.89
47.9
43.08
35.71
25.56
12.95
-1.16
-15.6
-29.32
-41.69
-52.72
-62.75
-72.25
-81.33
-89.7
-96.63
-101.21
-102.68
-100.62
-95.15
-86.82
-76.54
-65.39
-54.43
-44.44
-35.79
-28.36
-21.6
-14.83
-7.45
0.78
9.73
19.06
28.41
37.5
46.06
53.85
60.46
65.47
68.62
69.95
69.88
68.98
67.78
66.4
64.7
62.31
58.96
54.69
49.8
44.81
40.22
36.38
33.29
30.62
27.76
24.07
19.25
13.46
7.41
2.17
-1.27
-2.35
-1.2
1.44
4.55
7.22
8.92
9.52
9.17
8.02
6.13
3.51
0.27
-3.35
-6.88
-9.92
-12.11
-13.26
-13.34
-12.45
-10.77
-8.59
-6.37
-4.63
-3.92
-4.43
-6.07
-8.42
-11.01
-13.53
-15.92
-18.3
-20.87
-23.77
-27.06
-30.77
-34.96
-39.47
-43.86
-47.22
-48.37
-46.19
-40.17
-30.62
-18.79
-6.37
5.03
14.31
21.03
25.35
27.68
28.41
27.84
26.09
23.3
19.72
15.74
11.91
8.73
6.67
5.91
6.28
7.3
8.36
8.93
8.66
7.52
5.59
2.94
-0.51
-4.82
-9.86
-15.35
-20.73
-25.54
-29.57
-33.06
-36.4
-39.84
-42.96
-44.71
-43.73
-38.89
-30.1
-18.35
-5.56
6.13
15.04
20.45
22.58
22.26
20.53
18.11
15.43
12.62
9.66
6.71
3.95
1.74
0.3
-0.37
-0.66
-1.11
-2.25
-4.34
-7.26
-10.61
-13.87
-16.72
-19.14
-21.4
-23.9
-26.91
-30.5
-34.48
-38.46
-42.08
-44.96
-46.68
-46.73
-44.51
-39.55
-31.73
-21.6
-10.34
0.51
9.53
15.89
19.49
20.8
20.38
18.56
15.37
10.69
4.62
-2.4
-9.56
-15.93
-20.74
-23.67
-24.88
-24.88
-24.38
-23.88
-23.63
-23.42
-22.76
-20.97
-17.58
-12.55
-6.39
-0.08
5.21
8.52
9.38
7.81
4.37
-0.03
-4.19
-6.9
-7.1
-4.19
1.73
9.92
19.13
28.08
35.73
41.58
45.55
47.81
48.6
48.05
46.35
43.64
40.2
36.36
32.46
28.79
25.51
22.69
20.28
18.14
16.08
14.01
11.96
10.01
8.21
6.41
4.22
1.15
-3.06
-8.41
-14.56
-21.15
-28.07
-35.36
-43.16
-51.3
-59.2
-65.92
-70.77
-73.48
-74.24
-73.16
-69.56
-61.9
-48.36
-28.05
-1.83
27.38
55.63
79.28
96.25
106.36
110.76
110.97
108.14
103.01
96.13
88.28
80.43
73.3
67.04
60.91
53.81
44.74
33.2
19.24
3.36
-13.59
-30.2
-44.25
-52.8
-52.85
-42.56
-22.32
5.09
35.3
63.85
87.78
106.26
120.11
130.74
138.9
144.3
145.84
142.47
133.93
120.86
104.61
86.62
67.93
49.02
29.99
11.05
-7.31
-24.08
-38.19
-48.86
-56.08
-60.56
-63.44
-65.61
-67.18
-67.38
-65.08
-59.49
-50.93
-41.03
-32.2
-26.79
-26.2
-30.34
-37.84
-46.83
-55.62
-63.2
-69.3
-73.95
-77.1
-78.44
-77.5
-73.97
-67.81
-59.39
-49.31
-38.39
-27.53
-17.71
-9.9
-4.91
-3.17
-4.54
-8.38
-13.7
-19.48
-24.81
-29.1
-32.11
-33.93
-34.97
-35.74
-36.66
-37.94
-39.46
-40.91
-42.07
-42.82
-43.21
-43.29
-43.08
-42.58
-41.92
-41.39
-41.23
-41.29
-40.79
-38.3
-32.27
-21.63
-6.27
12.9
34.22
55.86
76.33
94.8
111.22
126.13
140.42
155.03
170.71
187.74
205.96
224.7
242.92
259.41
273.08
283.18
289.46
292.13
291.53
287.71
280.22
268.09
250.4
226.81
197.93
165.3
130.9
96.58
63.76
33.4
6.23
-16.96
-35.48
-48.79
-56.96
-60.81
-61.85
-61.97
-62.82
-65.38
-69.64
-74.88
-80.07
-84.72
-89.32
-95.39
-104.92
-119.52
-139.63
-164.18
-190.93
-217.25
-240.98
-261.16
-278.01
-292.48
-305.65
-318.12
-329.94
-340.71
-349.79
-356.38
-359.5
-357.96
-350.75
-337.46
-318.8
-296.4
-272
-246.37
-218.99
-188.4
-153.63
-115.54
-77.2
-42.87
-16.23
1.2
10.66
15.16
17.98
21.22
25.44
30.19
35.02
40.25
47
56.66
69.85
85.89
102.68
117.32
127.09
130.52
127.76
120.41
110.88
101.2
92.22
83.45
73.46
60.8
44.89
26.25
6.25
-13.49
-31.85
-48.39
-63.13
-75.94
-86.03
-91.92
-92.1
-85.75
-73.24
-56.2
-36.96
-17.87
-1
12
19.72
20.98
14.97
1.81
-17.16
-39.33
-61.21
-79.43
-91.6
-96.87
-95.9
-90.46
-82.69
-74.55
-67.18
-60.83
-54.91
-48.35
-40.3
-30.36
-19.04
-7.57
2.34
9.17
12.09
11.34
8.31
5.12
4.04
6.92
14.88
28.03
45.56
65.98
87.44
108.09
126.39
141.33
152.36
159.44
162.74
162.71
159.97
155.48
150.35
145.72
142.41
140.42
139
136.9
132.8
125.89
116.09
103.97
90.45
76.56
63.2
51.16
41.15
33.62
28.59
25.47
23.26
20.88
17.72
13.92
10.35
8.06
7.74
9.27
11.65
13.36
12.94
9.55
3.08
-5.88
-16.59
-28.43
-40.98
-53.88
-66.43
-77.41
-85.33
-89
-88.22
-84.11
-78.87
-74.96
-74.14
-76.91
-82.24
-88.17
-92.37
-92.82
-88.21
-78.24
-63.53
-45.52
-26.04
-6.85
10.7
26.02
39.17
50.76
61.55
72.49
84.5
98.58
115.49
135.28
156.98
178.63
197.68
211.85
219.83
221.54
217.89
210.09
199.02
185.18
168.98
151.2
133.26
116.9
103.49
93.42
85.95
79.56
72.77
64.76
55.66
46.17
36.91
27.95
18.7
8.43
-3.16
-15.52
-27.59
-38.44
-47.95
-57.16
-67.68
-80.81
-96.56
-113.32
-128.36
-138.86
-142.91
-140.09
-131.38
-118.51
-103.28
-87.03
-70.59
-54.46
-39.13
-25.14
-12.98
-3.02
4.76
10.76
15.53
19.68
23.71
27.97
32.71
38.07
44.02
50.23
55.91
59.89
61.01
58.59
52.74
44.41
35.06
25.97
17.75
10.24
2.78
-5.15
-13.59
-22
-29.86
-37
-44.05
-51.99
-61.58
-72.76
-84.37
-94.75
-102.38
-106.56
-107.4
-105.58
-101.74
-96.07
-88.37
-78.39
-66.28
-52.55
-37.94
-23.1
-8.37
6.15
20.38
34.14
47.05
58.7
68.82
77.34
84.25
89.48
92.88
94.43
94.3
92.96
90.98
88.88
86.85
84.76
82.14
78.34
72.69
64.57
53.61
39.76
23.51
5.73
-12.4
-29.64
-44.95
-57.43
-66.33
-71.13
-71.59
-67.96
-61.02
-51.97
-42.08
-32.52
-24.18
-17.64
-13.3
-11.24
-11.11
-12.15
-13.35
-13.91
-13.58
-12.74
-12.03
-11.86
-12.02
-11.8
-10.55
-8.13
-5.06
-2.31
-0.72
-0.69
-2.06
-4.44
-7.55
-11.34
-15.83
-20.94
-26.42
-32.12
-38.12
-44.92
-53.09
-62.83
-73.55
-83.87
-91.97
-96.36
-96.23
-91.64
-83.23
-71.98
-58.81
-44.64
-30.49
-17.59
-7.12
0.06
3.83
4.89
4.55
4.28
5.35
8.52
14.13
22.05
31.64
41.7
50.68
57.01
59.8
59.26
56.52
53.18
50.46
48.74
47.63
46.61
45.57
45.06
45.91
48.57
52.75
57.42
61.38
63.75
64.27
63.2
60.97
57.98
54.44
50.51
46.27
41.69
36.57
30.63
23.64
15.7
7.21
-1.26
-9.29
-16.68
-23.64
-30.17
-36.01
-40.4
-42.31
-40.97
-36.24
-28.81
-20.05
-11.52
-4.49
0.29
2.7
3.13
2.25
0.77
-0.77
-2.09
-3.39
-5.2
-8.01
-11.9
-16.11
-19.07
-18.9
-14.39
-5.57
6.01
17.92
27.7
33.8
35.89
34.56
30.85
25.59
19.32
12.36
5.1
-1.76
-7.45
-11.28
-13.07
-13.07
-12.01
-10.71
-9.82
-9.68
-10.21
-11.15
-12.08
-12.7
-12.76
-11.93
-9.8
-5.94
-0.11
7.45
15.8
23.54
29.12
31.46
30.22
26.09
20.5
15.23
11.83
11.03
12.62
15.53
18.22
19.35
18.09
14.45
8.95
2.38
-4.68
-11.85
-18.87
-25.45
-31.08
-35.29
-37.85
-38.98
-39.51
-40.44
-42.69
-46.81
-52.82
-60.43
-69.11
-78.38
-87.89
-97.29
-106.25
-114.35
-121.24
-126.63
-130.38
-132.44
-132.68
-130.93
-126.92
-120.43
-111.55
-100.68
-88.55
-76.04
-63.98
-53.1
-43.82
-36.41
-30.94
-27.36
-25.52
-25.11
-25.62
-26.32
-26.44
-25.36
-22.81
-19.07
-14.81
-10.92
-8.07
-6.53
-6.03
-6.08
-6.15
-5.99
-5.78
-5.92
-6.91
-9.11
-12.68
-17.4
-22.78
-28.03
-32.13
-33.92
-32.36
-26.71
-16.81
-3.39
12.08
27.62
41.27
51.77
58.66
62.26
63.25
62.19
59.35
54.91
49.28
43.25
37.9
34.09
32.14
31.61
31.58
31.08
29.43
26.45
22.31
17.29
11.72
5.88
0.1
-5.39
-10.41
-15.11
-19.91
-25.33
-31.53
-38.05
-43.6
-46.46
-45.09
-38.66
-27.57
-13.32
2.03
16.54
28.93
38.75
46.23
51.73
55.39
56.97
56.08
52.59
46.99
40.41
34.22
29.76
27.58
27.48
28.51
29.47
29.47
28.09
25.45
21.94
18.03
13.97
10.03
6.33
2.89
-0.49
-4.3
-9.18
-15.64
-23.7
-32.6
-40.78
-46.27
-47.29
-42.84
-33.09
-19.33
-3.44
12.53
26.86
38.46
46.87
52.04
54.32
54.16
52.08
48.64
44.32
39.59
34.88
30.59
27.12
24.75
23.43
22.78
22.09
20.66
18
14.06
9.17
3.76
-1.85
-7.48
-13.04
-18.36
-23.18
-27.31
-30.94
-34.68
-39.14
-44.43
-49.69
-53.13
-52.7
-47.13
-36.4
-22.01
-6.15
9.04
22.21
32.87
41.16
47.17
50.84
51.9
50.21
46.1
40.44
34.51
29.56
26.38
25.03
25.03
25.54
25.88
25.72
25.15
24.31
23.22
21.5
18.53
13.87
7.48
-0
-7.52
-14.06
-19.1
-22.82
-25.97
-29.45
-33.9
-39.53
-46.18
-53.46
-60.77
-67.18
-71.36
-71.64
-66.59
-55.56
-39.27
-19.68
0.6
19.18
34.56
46.4
55.06
61.13
64.99
66.72
66.4
64.35
61.13
57.57
54.4
52.04
50.59
49.87
49.61
49.57
49.65
49.77
49.85
49.77
49.29
48.17
46.14
43.08
39.03
34.22
29.01
23.8
18.82
14.15
9.8
5.76
2.04
-1.32
-4.45
-7.71
-11.58
-16.44
-22.29
-28.57
-34.46
-39.27
-42.79
-45.54
-48.5
-52.59
-58.23
-64.98
-71.55
-76.19
-77.16
-73.3
-64.28
-50.73
-34.02
-15.84
2.05
18.2
31.53
41.43
47.82
51.07
52
51.67
51.07
50.84
51.15
51.73
52.13
52.03
51.38
50.42
49.49
48.9
48.73
48.93
49.23
49.4
49.17
48.29
46.6
44.09
40.96
37.55
34.41
32.03
30.75
30.5
30.77
30.76
29.66
27.02
22.94
18.03
13.05
8.65
5.02
1.87
-1.29
-4.97
-9.42
-14.69
-20.59
-26.85
-33.13
-39.08
-44.4
-48.91
-52.7
-56.11
-59.68
-63.82
-68.67
-73.85
-78.4
-80.99
-80.18
-74.97
-65.1
-51.22
-34.82
-17.8
-2.06
11.02
20.66
26.81
29.78
30.2
28.9
26.8
24.88
23.96
24.56
26.58
29.44
32.15
33.92
34.62
34.79
35.58
38
42.41
48.09
53.63
57.47
58.62
57.01
53.42
48.81
43.9
38.81
33.21
26.75
19.43
11.62
3.97
-3.01
-9.1
-14.46
-19.4
-24.25
-29.15
-34.05
-38.73
-43.01
-46.83
-50.33
-53.74
-57.18
-60.43
-62.72
-62.9
-59.78
-52.75
-42.18
-29.46
-16.57
-5.35
3.03
8.36
11
11.59
10.69
8.68
6.01
3.2
0.85
-0.62
-1.03
-0.51
0.59
1.99
3.51
5.08
6.54
7.65
8.11
7.77
6.75
5.39
3.96
2.48
0.61
-2.16
-6.09
-10.93
-15.91
-20.12
-22.88
-24.14
-24.42
-24.53
-25.23
-26.92
-29.52
-32.59
-35.38
-36.91
-36.15
-32.37
-25.39
-15.92
-5.37
4.57
12.57
18.07
21.36
23.11
23.99
24.25
23.63
21.74
18.25
13.41
7.96
2.92
-0.74
-2.51
-2.47
-1.23
0.5
2.1
3.26
3.92
4.06
3.63
2.49
0.54
-2.19
-5.38
-8.56
-11.32
-13.31
-14.45
-14.89
-14.96
-15.16
-15.95
-17.51
-19.64
-21.67
-22.54
-21.34
-17.54
-11.28
-3.28
5.37
13.57
20.4
25.3
28.11
29.09
28.74
27.57
25.84
23.47
20.14
15.55
9.79
3.42
-2.63
-7.51
-10.88
-13.17
-15.41
-18.64
-23.49
-29.84
-36.88
-43.64
-49.42
-54.06
-57.84
-61.14
-64.01
-66.09
-66.66
-65.1
-61.19
-55.28
-48.01
-39.98
-31.41
-22.02
-11.24
1.43
15.96
31.78
47.78
62.78
75.78
86.21
93.84
98.67
100.83
100.51
97.99
93.74
88.24
81.85
74.84
67.33
59.48
51.59
43.93
36.62
29.55
22.34
14.59
6.24
-2.48
-11.14
-19.34
-27.1
-34.58
-41.99
-49.24
-55.97
-61.6
-65.79
-68.61
-70.53
-72.28
-74.27
-76.24
-77.23
-75.86
-70.87
-61.82
-49.29
-34.78
-20.21
-7.18
3.39
11.33
16.94
20.51
22.2
22.09
20.47
17.9
15.17
13.01
11.82
11.76
12.76
14.74
17.57
21.04
24.68
27.87
29.92
30.3
28.74
25.18
19.79
12.85
4.89
-3.29
-10.82
-17
-21.58
-24.94
-27.85
-31.15
-35.43
-40.73
-46.57
-52.07
-56.03
-57.18
-54.38
-47.12
-35.73
-21.59
-6.63
7.14
18.3
26.39
31.66
34.6
35.52
34.49
31.49
26.9
21.59
16.68
13.1
11.16
10.38
9.88
8.79
6.75
3.94
0.97
-1.64
-3.58
-5.01
-6.45
-8.54
-11.78
-16.41
-22.25
-28.62
-34.66
-39.42
-42.38
-43.5
-43.28
-42.5
-42
-42.34
-43.62
-45.57
-47.4
-48.09
-46.41
-41.3
-32.27
-19.62
-4.6
10.9
24.93
36.09
43.96
49.06
52.52
55.37
58.27
61.33
64.33
66.92
68.88
70.03
70.27
69.47
67.46
64.29
60.24
55.85
51.67
48.14
45.3
42.79
40.08
36.62
32.22
27.1
21.82
16.99
13.04
10.08
7.95
6.32
4.83
3.17
1.03
-1.94
-5.92
-10.82
-16.27
-21.74
-26.79
-31.44
-36.05
-41.23
-47.48
-55.12
-64.21
-74.69
-86.25
-98.19
-109.21
-117.54
-121.35
-119.49
-111.92
-99.79
-84.94
-69
-52.87
-36.53
-19.64
-2.1
15.48
31.86
45.77
56.45
64
69.15
72.72
75.16
76.46
76.33
74.58
71.46
67.53
63.53
60.08
57.47
55.74
54.74
54.18
53.71
53.02
51.85
50.08
47.88
45.44
42.92
40.22
37
32.8
27.33
20.62
13.04
5.22
-2.2
-8.76
-14.24
-18.68
-22.26
-25.34
-28.29
-31.49
-35.14
-39.23
-43.42
-47.22
-50.1
-51.82
-52.57
-52.87
-53.45
-54.8
-56.99
-59.48
-61.26
-61.18
-58.32
-52.39
-43.76
-33.37
-22.36
-11.78
-2.43
5.26
11.1
15.1
17.38
18.28
18.24
17.78
17.42
17.41
17.78
18.3
18.71
18.87
18.91
19.11
19.81
21.3
23.59
26.53
29.72
32.68
34.93
36
35.56
33.53
30.16
26.07
22.13
19
16.82
15.14
13.08
9.86
5.3
-0.11
-5.47
-9.91
-13.14
-15.51
-17.75
-20.63
-24.5
-29.27
-34.45
-39.41
-43.46
-45.95
-46.35
-44.21
-39.32
-31.81
-22.13
-11.16
0.04
10.39
18.96
25.2
28.96
30.32
29.48
26.67
22.11
16.14
9.47
3.05
-2.02
-4.92
-5.55
-4.43
-2.41
-0.11
2.46
5.9
10.93
17.8
26.04
34.49
41.78
46.93
49.61
50.22
49.48
48.02
46.17
43.86
40.95
37.3
32.82
27.39
20.76
12.67
2.99
-7.93
-19.18
-29.39
-37.1
-41.25
-41.54
-38.43
-32.88
-26.03
-18.84
-12.06
-6.23
-1.75
1.1
2.25
1.95
0.74
-0.77
-2.01
-2.74
-3.02
-3.19
-3.58
-4.43
-5.74
-7.33
-8.85
-9.98
-10.52
-10.42
-9.82
-9.09
-8.58
-8.58
-9.21
-10.53
-12.45
-14.92
-17.8
-20.89
-23.92
-26.58
-28.81
-30.88
-33.34
-36.71
-41.12
-45.94
-49.89
-51.51
-49.62
-43.91
-34.98
-24.23
-13.28
-3.62
3.88
8.93
11.82
13.12
13.38
13.06
12.44
11.62
10.64
9.5
8.2
6.86
5.67
4.82
4.59
5.11
6.33
7.93
9.37
10.04
9.47
7.45
4.09
-0.33
-5.53
-11.24
-17.27
-23.49
-29.86
-36.36
-42.99
-49.68
-56.12
-61.77
-66.05
-68.36
-68.36
-65.94
-61.19
-54.29
-45.56
-35.46
-24.8
-14.67
-6.42
-1.41
-0.7
-4.6
-12
-20.12
-24.72
-21.11
-5.98
20.94
56.12
93.09
124.6
145.18
152.88
149.28
138.2
123.72
108.8
94.68
81.44
68.67
55.87
42.58
28.26
12.35
-5.57
-25.08
-44.7
-61.87
-73.55
-77.26
-72.09
-59.23
-41.7
-23.32
-7.4
4.2
11.35
15.16
17.12
18.41
19.72
21.34
23.33
25.65
28.08
30.28
31.73
32.08
31.27
29.38
26.65
23.15
18.83
13.49
7.06
-0.32
-8.35
-16.6
-24.57
-31.67
-37.35
-41.16
-42.97
-43.16
-42.62
-42.37
-43.33
-45.86
-49.64
-53.82
-57.3
-59.04
-58.23
-54.39
-47.47
-37.87
-26.45
-14.43
-3.15
6.22
13.06
17.37
19.55
20.24
19.95
19.01
17.55
15.67
13.57
11.45
9.51
7.83
6.46
5.42
4.81
4.78
5.42
6.57
7.75
8.21
7.18
4.27
-0.3
-5.78
-11.17
-15.7
-19.18
-21.97
-24.78
-28.21
-32.5
-37.44
-42.59
-47.33
-51.01
-52.99
-52.59
-49.3
-42.98
-34.11
-23.71
-13.13
-3.64
3.84
8.91
11.64
12.37
11.57
9.8
7.58
5.42
3.94
3.85
5.8
10.23
17.06
25.52
34.32
41.95
47.24
49.76
49.89
48.46
46.27
43.73
40.74
36.91
31.92
25.77
18.79
11.53
4.39
-2.44
-9.08
-15.76
-22.51
-28.91
-34.01
-36.67
-35.9
-31.34
-23.42
-13.35
-2.65
7.2
15.16
20.76
24.03
25.32
25.17
24.14
22.7
21.2
19.85
18.75
17.99
17.66
17.77
18.19
18.58
18.54
17.81
16.33
14.32
12.08
9.88
7.84
5.86
3.64
0.94
-2.37
-6.17
-10.09
-13.72
-16.83
-19.56
-22.32
-25.63
-29.78
-34.61
-39.65
-44.3
-48.09
-50.71
-51.86
-50.93
-47.18
-39.99
-29.37
-16.29
-2.41
10.5
21.18
29.23
34.91
38.77
41.19
42.28
41.99
40.37
37.75
34.78
32.18
30.61
30.4
31.6
33.85
36.57
39.15
41.09
42.2
42.52
42.24
41.54
40.5
39.22
37.77
36.31
34.84
33.2
31.15
28.43
24.96
20.84
16.35
11.78
7.41
3.54
0.39
-1.88
-3.33
-4.36
-5.68
-7.99
-11.73
-16.73
-22.34
-27.69
-31.98
-34.9
-36.62
-37.76
-39.07
-41.2
-44.5
-48.86
-53.85
-58.82
-63.02
-65.65
-65.9
-62.98
-56.38
-46.16
-33.09
-18.67
-4.7
7.26
16.37
22.67
26.78
29.38
30.86
31.24
30.47
28.78
26.8
25.38
25.26
26.62
29.06
31.8
33.97
34.97
34.61
33.08
30.78
28.13
25.51
23.1
20.91
18.8
16.62
14.31
12.01
9.9
8.11
6.52
4.73
2.32
-0.87
-4.63
-8.39
-11.6
-13.98
-15.74
-17.4
-19.58
-22.64
-26.57
-31.01
-35.46
-39.45
-42.54
-44.41
-44.72
-43.16
-39.4
-33.27
-24.95
-14.93
-4.17
6.22
15.2
22.04
26.53
28.86
29.38
28.44
26.38
23.59
20.63
18.18
16.85
16.89
17.98
19.46
20.57
20.81
20.05
18.51
16.47
14.2
11.77
9.22
6.59
4.01
1.57
-0.74
-3.05
-5.48
-8.11
-10.87
-13.54
-15.93
-17.93
-19.62
-21.29
-23.28
-25.87
-29.12
-32.78
-36.21
-38.5
-38.69
-36.09
-30.5
-22.35
-12.6
-2.39
7.23
15.53
22.08
26.64
29.14
29.66
28.55
26.38
23.81
21.44
19.57
18.3
17.47
16.93
16.51
16.08
15.51
14.61
13.31
11.61
9.72
7.88
6.32
5.06
3.9
2.47
0.36
-2.7
-6.7
-11.26
-15.79
-19.62
-22.39
-24.23
-25.62
-27.22
-29.54
-32.65
-36.2
-39.44
-41.45
-41.33
-38.49
-32.74
-24.47
-14.61
-4.38
5
12.58
17.95
21.23
22.86
23.38
23.18
22.43
21.22
19.59
17.68
15.76
14.09
12.88
12.15
11.66
11.08
10.18
8.93
7.52
6.23
5.18
4.22
2.99
1.11
-1.56
-4.89
-8.41
-11.61
-14.26
-16.55
-18.98
-22.12
-26.29
-31.2
-36
-39.5
-40.57
-38.55
-33.43
-25.84
-16.7
-7.12
1.97
9.75
15.79
19.96
22.53
23.91
24.51
24.48
23.72
22.1
19.63
16.68
13.79
11.44
9.8
8.63
7.56
6.35
5.08
4
3.32
2.91
2.28
0.88
-1.64
-5.23
-9.4
-13.57
-17.29
-20.4
-23.09
-25.76
-28.66
-31.71
-34.32
-35.56
-34.36
-30.12
-22.85
-13.41
-3.17
6.35
14.01
19.3
22.29
23.45
23.3
22.25
20.56
18.43
16.11
13.89
12.05
10.72
9.83
9.15
8.35
7.18
5.61
3.87
2.25
1.07
0.35
-0.15
-0.94
-2.49
-5.1
-8.75
-13.03
-17.45
-21.6
-25.26
-28.42
-30.97
-32.57
-32.59
-30.25
-24.98
-16.87
-6.75
3.87
13.35
20.51
24.89
26.74
26.73
25.53
23.5
20.72
17.29
13.42
9.6
6.44
4.36
3.46
3.51
4
4.41
4.41
3.8
2.55
0.73
-1.58
-4.24
-7.06
-9.87
-12.55
-15.09
-17.6
-20.31
-23.41
-26.98
-30.86
-34.56
-37.29
-38.03
-35.9
-30.49
-22.1
-11.79
-1.07
8.66
16.45
22.08
25.88
28.33
29.79
30.39
30.05
28.81
26.82
24.39
21.84
19.49
17.44
15.76
14.37
13.2
12.14
11.06
9.83
8.26
6.21
3.53
0.17
-3.77
-7.95
-11.87
-15.03
-17.12
-18.35
-19.37
-21.13
-24.3
-29
-34.55
-39.63
-42.74
-42.61
-38.71
-31.33
-21.46
-10.58
-0.16
8.6
15.05
19.16
21.47
22.73
23.64
24.5
25.28
25.68
25.48
24.69
23.43
21.96
20.43
18.98
17.65
16.53
15.71
15.19
14.86
14.52
13.92
12.87
11.33
9.37
7.06
4.48
1.62
-1.44
-4.55
-7.47
-10.02
-12.17
-14.06
-15.97
-18.14
-20.76
-23.97
-27.86
-32.52
-37.78
-43.08
-47.52
-50.03
-49.67
-46.09
-39.59
-31.13
-21.9
-12.99
-5.09
1.47
6.69
10.56
12.96
13.64
12.32
9
4.13
-1.33
-6.11
-9.05
-9.59
-7.95
-4.98
-1.8
0.72
2.24
3
3.57
4.55
6.3
8.91
12.23
15.94
19.62
22.78
24.92
25.58
24.47
21.6
17.22
11.92
6.4
1.3
-2.93
-6.25
-8.94
-11.46
-14.09
-16.69
-18.6
-18.84
-16.47
-10.91
-2.2
9.05
21.88
35.15
47.77
58.68
66.96
71.95
73.35
71.39
66.82
60.83
54.67
49.43
45.74
43.75
43.04
43.05
43.14
42.88
42.12
40.8
38.85
36.07
32.15
26.82
20.06
12.18
3.81
-4.33
-11.77
-18.5
-25.07
-32.34
-41.04
-51.3
-62.37
-72.63
-80.08
-83.07
-80.87
-73.97
-63.92
-52.8
-42.6
-34.69
-29.69
-27.35
-26.92
-27.32
-27.61
-27.09
-25.45
-22.69
-19.12
-15.18
-11.36
-8.05
-5.5
-3.69
-2.36
-0.98
1.09
4.3
8.69
13.87
19.16
23.9
27.75
30.69
32.86
34.27
34.68
33.59
30.61
25.75
19.52
12.95
7.15
3.03
1.12
1.48
3.78
7.44
11.75
15.95
19.51
22.07
23.49
23.82
23.15
21.56
19.09
15.8
11.8
7.34
2.82
-1.23
-4.32
-6.09
-6.51
-5.91
-4.99
-4.61
-5.34
-7.27
-9.91
-12.4
-13.99
-14.4
-13.97
-13.47
-13.75
-15.32
-18.11
-21.52
-24.57
-26.31
-26.06
-23.55
-18.9
-12.59
-5.34
2.04
8.76
14.29
18.29
20.66
21.48
20.96
19.27
16.67
13.47
10.17
7.38
5.72
5.62
7.09
9.69
12.71
15.45
17.33
18.08
17.66
16.31
14.34
12.18
10.08
8.13
6.18
3.87
0.79
-3.21
-8
-13.12
-17.96
-22.05
-24.98
-26.44
-26.16
-23.93
-19.73
-13.95
-7.46
-1.36
3.32
6.03
6.88
6.44
5.31
3.75
1.66
-1.23
-4.85
-8.61
-11.62
-13.13
-13.04
-11.97
-10.97
-10.88
-11.92
-13.66
-15.45
-16.88
-18.06
-19.44
-21.41
-24
-26.9
-29.74
-32.37
-34.91
-37.45
-39.67
-40.75
-39.57
-35.26
-27.75
-17.93
-7.29
2.54
10.42
16.07
19.85
22.47
24.51
26.19
27.33
27.46
26.27
23.74
20.39
17.03
14.51
13.28
13.23
13.69
13.8
12.93
10.81
7.66
3.96
0.11
-3.64
-7.22
-10.67
-14.01
-17.21
-20.29
-23.34
-26.4
-29.42
-32.09
-33.96
-34.43
-33.06
-29.55
-23.94
-16.48
-7.66
1.72
10.76
18.52
24.38
28.04
29.64
29.55
28.34
26.47
24.34
22.22
20.34
18.76
17.48
16.41
15.44
14.51
13.6
12.68
11.66
10.37
8.69
6.51
3.88
0.92
-2.17
-5.16
-7.84
-10.14
-12.25
-14.63
-17.85
-22.32
-27.95
-34
-39.2
-42.17
-41.79
-37.66
-30.11
-20.05
-8.72
2.59
12.83
21.27
27.52
31.46
33.23
33.08
31.48
28.97
26.21
23.7
21.78
20.5
19.75
19.27
18.95
18.7
18.49
18.31
18.02
17.5
16.66
15.43
13.69
11.2
7.76
3.32
-1.87
-7.18
-11.91
-15.47
-17.75
-19.06
-20.13
-21.76
-24.61
-28.83
-33.98
-38.99
-42.39
-42.73
-39.17
-31.81
-21.68
-10.48
0.19
9.15
16.01
20.91
24.12
25.9
26.34
25.64
24.2
22.56
21.26
20.5
20.17
19.92
19.45
18.71
17.93
17.39
17.16
17.05
16.69
15.73
14.05
11.73
8.94
5.8
2.34
-1.34
-5.05
-8.56
-11.65
-14.38
-17.05
-20.16
-24.14
-29.1
-34.61
-39.72
-43.27
-44.17
-41.79
-36.06
-27.54
-17.23
-6.36
3.96
12.87
19.82
24.49
26.77
26.82
25.03
22.11
18.88
16.04
14.04
12.98
12.64
12.76
13.12
13.58
14.04
14.35
14.25
13.53
12.08
9.91
7.14
3.88
0.25
-3.6
-7.44
-11.05
-14.23
-16.97
-19.46
-22.02
-24.95
-28.25
-31.45
-33.68
-33.91
-31.32
-25.76
-17.77
-8.47
0.89
9.35
16.46
22.23
26.79
30.13
31.92
31.79
29.63
25.8
21.16
16.81
13.65
12.16
12.18
13.1
14.11
14.48
13.78
12.02
9.42
6.21
2.56
-1.49
-5.76
-9.96
-13.64
-16.43
-18.27
-19.61
-21.2
-23.83
-27.78
-32.6
-37.21
-40.21
-40.33
-36.86
-29.89
-20.2
-9.09
1.9
11.4
18.55
23.07
25.22
25.6
24.87
23.55
21.9
20.02
17.98
15.9
13.94
12.3
11.13
10.35
9.77
9.05
7.86
6.07
3.77
1.26
-1.16
-3.3
-5.22
-7.19
-9.48
-12.29
-15.65
-19.44
-23.5
-27.63
-31.64
-35.23
-37.96
-39.18
-38.14
-34.22
-27.18
-17.44
-6.07
5.4
15.46
23.1
28.05
30.75
31.93
32.22
31.85
30.75
28.75
25.9
22.57
19.33
16.72
15.02
14.29
14.34
14.84
15.56
16.22
16.56
16.28
15.1
12.93
9.9
6.31
2.57
-0.97
-4.26
-7.51
-11.08
-15.24
-20
-24.98
-29.39
-32.24
-32.5
-29.44
-22.77
-12.91
-0.91
11.67
23.21
32.37
38.37
41.13
41.05
38.82
35.09
30.38
25.09
19.55
14.21
9.47
5.66
2.9
1.14
0.14
-0.37
-0.64
-0.91
-1.34
-2.15
-3.54
-5.67
-8.5
-11.8
-15.28
-18.63
-21.74
-24.59
-27.33
-30.21
-33.42
-37.1
-41.07
-44.81
-47.43
-47.86
-45.13
-38.81
-29.21
-17.37
-4.83
6.97
16.95
24.59
29.86
32.93
33.97
33.27
31.25
28.44
25.43
22.65
20.23
18.16
16.33
14.67
13.21
11.93
10.7
9.39
7.81
5.87
3.68
1.34
-1.08
-3.69
-6.7
-10.32
-14.53
-19
-23.31
-27.08
-30.31
-33.28
-36.38
-39.8
-43.16
-45.51
-45.62
-42.45
-35.67
-25.89
-14.44
-2.88
7.43
15.67
21.56
25.13
26.55
26.01
23.71
20
15.47
10.83
6.78
3.74
1.8
0.73
0.14
-0.25
-0.69
-1.24
-2.04
-3.12
-4.59
-6.46
-8.6
-10.86
-13.11
-15.26
-17.34
-19.43
-21.58
-23.85
-26.32
-28.93
-31.39
-33.1
-33.2
-30.84
-25.49
-17.2
-6.69
4.8
15.9
25.44
32.75
37.67
40.39
41.27
40.59
38.51
35.17
30.81
25.98
21.44
18.05
16.27
16.06
16.81
17.65
17.78
16.89
15.04
12.65
10.05
7.33
4.33
0.78
-3.45
-8.15
-12.98
-17.55
-21.64
-25.25
-28.43
-30.92
-32.14
-31.28
-27.64
-21.06
-12.11
-1.9
8.27
17.3
24.58
29.9
33.28
34.85
34.73
33.08
30.2
26.54
22.54
18.6
14.92
11.6
8.75
6.49
4.98
4.25
4.07
4
3.46
2.01
-0.43
-3.6
-7.08
-10.44
-13.58
-16.69
-20.12
-24.18
-28.94
-34.06
-38.73
-41.91
-42.41
-39.37
-32.51
-22.49
-10.62
1.36
11.94
20.25
26.19
30.2
32.92
34.73
35.72
35.69
34.44
31.99
28.7
25.14
21.98
19.81
18.87
19.06
19.84
20.45
20.1
18.41
15.39
11.52
7.4
3.45
-0.23
-3.86
-7.88
-12.67
-18.43
-25.14
-32.51
-39.85
-46.09
-49.77
-49.5
-44.5
-35.06
-22.51
-8.93
3.69
13.91
21.2
25.77
28.17
28.84
27.96
25.56
21.66
16.68
11.36
6.53
2.87
0.65
-0.39
-0.79
-1.16
-1.92
-3.11
-4.64
-6.45
-8.64
-11.48
-15.16
-19.61
-24.48
-29.33
-33.89
-38.21
-42.71
-47.8
-53.65
-59.77
-65.12
-68.35
-68.34
-64.5
-57.05
-46.96
-35.56
-24.3
-14.33
-6.38
-0.63
2.99
4.75
4.91
3.72
1.42
-1.64
-4.89
-7.8
-9.91
-11.16
-11.88
-12.53
-13.41
-14.35
-14.66
-13.41
-9.86
-3.86
4.05
12.75
20.99
27.71
32.34
34.81
35.5
34.97
33.74
32.17
30.44
28.8
27.61
27.5
29.02
32.41
37.24
42.45
46.71
48.94
48.83
46.86
43.94
40.83
37.7
34.3
30.33
25.85
21.44
17.94
15.92
15.37
15.74
16.31
16.5
16.1
15.14
13.62
11.4
8.39
4.69
0.68
-3.07
-6.12
-8.33
-9.92
-11.36
-13.14
-15.66
-19.07
-23.17
-27.4
-30.82
-32.32
-31.01
-26.47
-19.14
-10.1
-0.83
7.37
13.71
18.01
20.58
21.86
22.14
21.34
19.32
16.04
11.89
7.66
4.34
2.68
2.81
4.24
5.94
7.04
7.01
5.98
4.44
2.96
1.87
1.1
0.42
-0.61
-2.25
-4.68
-7.91
-11.79
-15.89
-19.45
-21.53
-21.15
-17.73
-11.25
-2.36
7.86
18.14
27.29
34.35
38.68
39.96
38.26
34.08
28.37
22.33
17.29
14.2
13.5
14.84
17.36
19.91
21.47
21.55
20.22
17.98
15.44
13.06
11.09
9.54
8.32
7.21
5.87
3.84
0.68
-3.74
-8.96
-13.93
-17.24
-17.72
-14.93
-9.21
-1.57
6.71
14.55
21.23
26.43
30.1
32.27
32.93
32.06
29.69
26.04
21.58
16.92
12.7
9.35
7.01
5.52
4.71
4.51
5.09
6.6
8.99
11.91
14.66
16.44
16.63
15.11
12.12
8.13
3.64
-1.04
-5.62
-9.71
-12.78
-14.08
-12.91
-8.9
-2.34
5.8
14.05
21.01
25.74
28.01
28.24
27.05
24.9
21.96
18.19
13.57
8.34
3.06
-1.59
-5.11
-7.54
-9.4
-11.4
-14
-17.17
-20.51
-23.45
-25.73
-27.47
-29.12
-31.15
-33.82
-37.1
-40.75
-44.51
-48.14
-51.29
-53.32
-53.41
-50.72
-44.74
-35.71
-24.62
-12.97
-2.2
6.69
13.39
18.06
21.06
22.68
23.07
22.46
21.15
19.64
18.4
17.73
17.59
17.67
17.65
17.34
16.71
15.86
14.81
13.46
11.58
9.02
5.75
1.95
-2.18
-6.47
-10.92
-15.62
-20.57
-25.55
-29.89
-32.66
-32.94
-30.31
-25.04
-18.1
-10.71
-3.98
1.48
5.58
8.51
10.45
11.38
11.25
10.02
7.85
5.09
2.14
-0.7
-3.3
-5.61
-7.65
-9.42
-10.97
-12.44
-14
-15.68
-17.32
-18.66
-19.44
-19.76
-20.05
-21.03
-23.24
-26.79
-31.23
-35.67
-39.12
-40.64
-39.64
-35.93
-29.71
-21.67
-12.83
-4.39
2.68
7.93
11.58
14.21
16.4
18.23
19.28
18.82
16.42
12.33
7.44
3.01
0.11
-0.8
0.01
1.62
2.89
2.87
1.21
-1.91
-5.8
-9.63
-12.77
-14.98
-16.47
-17.65
-19
-20.75
-22.89
-25.2
-27.33
-28.94
-29.62
-28.87
-26.2
-21.33
-14.41
-6.15
2.33
9.85
15.51
18.95
20.29
19.91
18.24
15.64
12.49
9.24
6.43
4.46
3.46
3.19
3.16
2.81
1.84
0.25
-1.79
-3.98
-6.17
-8.27
-10.21
-11.92
-13.33
-14.46
-15.52
-16.87
-18.83
-21.56
-24.74
-27.7
-29.53
-29.37
-26.69
-21.47
-14.15
-5.42
3.7
12.27
19.42
24.51
27.23
27.76
26.51
24.05
20.96
17.58
14.19
11.09
8.61
6.98
6.24
5.99
5.68
4.81
3.3
1.5
0.01
-0.73
-0.7
-0.28
-0.04
-0.4
-1.52
-3.39
-6.05
-9.69
-14.39
-19.89
-25.3
-29.3
-30.54
-28.22
-22.54
-14.57
-5.85
2.27
9.04
14.33
18.33
21.2
22.88
23.05
21.46
18.2
13.81
9.1
4.9
1.79
-0.07
-0.87
-1.07
-1.18
-1.64
-2.61
-3.96
-5.37
-6.5
-7.21
-7.61
-8.12
-9.13
-11.02
-13.9
-17.65
-22.01
-26.53
-30.59
-33.44
-34.29
-32.56
-28.19
-21.78
-14.31
-6.83
-0.13
5.48
9.99
13.5
15.95
17.11
16.6
14.33
10.57
6.06
1.76
-1.42
-2.99
-2.95
-1.86
-0.52
0.3
0.2
-0.76
-2.17
-3.54
-4.6
-5.43
-6.38
-7.78
-9.82
-12.45
-15.49
-18.66
-21.7
-24.28
-26.04
-26.47
-25.01
-21.35
-15.51
-8.02
0.27
8.27
15
19.77
22.33
22.82
21.63
19.26
16.19
12.71
9.06
5.45
2.24
-0.17
-1.47
-1.68
-1.3
-1.02
-1.48
-2.86
-4.76
-6.47
-7.38
-7.51
-7.49
-8.25
-10.57
-14.58
-19.66
-24.66
-28.41
-30
-29.07
-25.64
-20.05
-12.83
-4.63
3.75
11.42
17.52
21.37
22.67
21.54
18.45
14.24
9.77
5.86
3.09
1.51
0.78
0.25
-0.73
-2.48
-4.84
-7.28
-9.1
-9.9
-9.74
-9.13
-8.9
-9.78
-12.22
-16.37
-21.89
-28.13
-34.12
-38.75
-40.93
-39.94
-35.57
-28.2
-18.74
-8.36
1.84
10.87
18.08
23.05
25.61
25.77
23.77
20.06
15.41
10.81
7.18
5.03
4.27
4.24
4.07
3.12
1.32
-0.86
-2.79
-4.1
-4.8
-5.33
-6.31
-8.14
-11.02
-14.95
-19.78
-25.31
-30.99
-35.94
-38.91
-38.67
-34.42
-26.19
-14.96
-2.36
9.84
20.21
27.97
33
35.62
36.32
35.49
33.32
29.98
25.72
21.06
16.75
13.57
11.98
11.81
12.29
12.35
11.19
8.67
5.32
2
-0.62
-2.47
-4.08
-6.18
-9.23
-13.4
-18.46
-24.08
-29.83
-35.12
-39.02
-40.46
-38.44
-32.6
-23.39
-11.96
0.21
11.78
