35.4
45.32
52.23
56.24
57.64
56.92
54.76
51.94
49.18
46.97
45.54
44.86
44.86
45.39
46.35
47.61
48.82
49.35
48.32
44.94
38.66
29.34
17.15
2.52
-13.97
-31.6
-49.47
-66.6
-81.78
-94.04
-102.93
-108.42
-110.87
-110.68
-108.23
-103.73
-97.65
-90.77
-84.31
-79.84
-78.49
-80.66
-85.77
-92.49
-99.1
-104.21
-107.03
-107.37
-105.47
-101.55
-95.75
-88.1
-78.58
-67.17
-54.19
-40.24
-26.02
-12.17
1.06
13.73
26.15
38.78
51.97
65.86
80.45
95.58
110.84
125.52
138.43
148.12
153.25
152.8
146.22
133.59
115.6
93.62
69.72
46.43
26.15
10.53
0.01
-5.98
-8.42
-7.93
-4.47
2.34
12.58
25.48
39.43
52.59
63.65
72.21
78.54
83.09
85.82
86.39
84.48
80.24
74.52
68.52
63.27
59.09
55.64
52.24
48.45
44.26
40.03
36.05
32.24
28.1
22.88
16.03
7.45
-2.48
-13.1
-23.54
-32.74
-39.47
-42.44
-40.77
-34.3
-23.94
-11.29
1.84
14.21
25.45
35.82
45.65
54.74
62.46
67.85
70.38
69.95
66.86
61.37
53.27
41.97
26.63
6.74
-17.65
-45.61
-75.32
-104.36
-130.29
-151.21
-166.34
-176.28
-182.73
-187.71
-192.63
-197.55
-201.23
-201.82
-197.88
-189.04
-176.21
-161.01
-144.9
-128.55
-111.78
-94.09
-75.21
-55.64
-36.54
-19.18
-4.36
8
18.56
28.08
36.8
44.15
49.04
50.51
48.3
43.18
36.7
30.41
25.15
20.87
16.82
12.48
8.11
4.93
4.59
8.28
16.12
27.01
39.19
50.83
60.66
68.12
73.19
76.22
77.57
77.51
76.14
73.43
69.36
64.08
58.01
51.84
46.31
41.78
38.1
34.63
30.59
25.41
19.12
12.24
5.47
-0.57
-5.7
-10.1
-14.23
-18.56
-23.39
-28.79
-34.61
-40.62
-46.48
-51.72
-55.67
-57.62
-57.04
-53.9
-48.88
-43.23
-38.32
-35.14
-33.99
-34.45
-35.66
-36.57
-36.28
-34.01
-29.18
-21.44
-10.79
2.25
16.68
31.16
44.3
55.04
62.88
68.06
71.42
74.04
76.8
79.98
83.11
85.38
86.05
84.92
82.48
79.66
77.35
76.1
76.09
77.31
79.92
84.19
90.3
98.02
106.54
114.66
121.09
124.83
125.41
122.8
117.48
110.16
101.71
92.83
83.88
74.71
64.79
53.38
39.88
23.86
5.04
-16.56
-40.56
-65.71
-89.69
-109.39
-121.79
-124.96
-118.82
-105.17
-86.8
-66.52
-46.32
-27.16
-9.23
7.48
22.83
36.44
47.67
55.96
60.89
62.32
60.54
56.13
49.79
42.04
33.11
23
11.84
0.04
-11.67
-22.4
-31.57
-39.05
-45.26
-50.69
-55.6
-59.67
-62.04
-61.74
-58.05
-51.05
-41.53
-30.91
-20.72
-12.08
-5.52
-0.89
2.34
4.8
6.9
8.86
10.77
12.86
15.63
19.76
25.99
34.79
46.23
59.98
75.41
91.76
108.2
123.95
138.25
150.59
160.82
169.41
177.07
184.43
191.49
197.41
200.61
199.41
192.82
180.89
164.8
146.29
126.94
107.56
88.19
68.29
47.42
25.62
3.58
-17.75
-37.53
-55.34
-71.25
-85.65
-98.88
-111.27
-123.26
-135.4
-148.19
-161.35
-173.39
-181.62
-183.13
-176.18
-161.43
-142.1
-122.96
-108.56
-101.76
-103.04
-111.01
-123.45
-138.1
-153.17
-167.27
-179.3
-188.61
-195.24
-199.94
-203.94
-208.26
-213.25
-218.37
-222.33
-223.69
-221.6
-216.45
-210.18
-206.16
-208.29
-219.48
-240.33
-268.27
-297.87
-322.59
-336.87
-338.02
-326.75
-306.3
-280.81
-253.82
-227.75
-204.11
-184.24
-169.33
-160.18
-156.38
-156.24
-157.48
-158.43
-158.54
-157.69
-155.29
-149.82
-140.06
-126.56
-112.08
-100.41
-93.84
-91.16
-87.78
-78.19
-59.36
-32.76
-3.73
21.5
38.87
48.07
51.55
52.38
52.55
52.64
52.8
53.41
55.44
59.71
66.52
75.3
84.79
93.44
99.8
103
102.87
99.92
95.09
89.55
84.28
79.84
76.3
73.24
70.13
66.52
62.27
57.71
53.4
49.91
47.43
45.54
43.29
39.53
33.39
24.72
14.16
2.87
-7.96
-17.64
-25.9
-32.57
-37.12
-38.56
-35.75
-28.1
-16.05
-1.22
14.16
28.11
39.58
48.54
55.59
61.27
65.77
68.9
70.48
70.61
69.75
68.6
67.83
67.95
69.18
71.54
74.85
78.6
82.02
84.13
84.03
81.28
76.07
69.12
61.38
53.53
45.77
37.73
28.74
18.26
6.04
-7.62
-21.95
-35.87
-48.11
-57.52
-63.21
-64.84
-62.58
-57.1
-49.38
-40.47
-31.43
-23.3
-17.05
-13.59
-13.64
-17.89
-26.78
-40.64
-59.46
-82.67
-108.88
-136.06
-162.39
-187.16
-211.34
-236.95
-265.53
-296.29
-325.2
-345.53
-350.01
-333.43
-294.31
-235.19
-161.41
-79.45
4.38
84.64
156.82
217.2
262.98
292.95
307.89
310.66
305.83
298.77
294.4
295.89
304
317.21
332.61
346.67
356.09
358.4
352.33
338.08
317.43
293.3
269.25
248.47
232.96
223.27
218.78
218.2
219.95
222.23
222.95
219.83
210.75
194.26
170.25
140.04
105.87
70.42
36.27
5.52
-20.5
-41.26
-57.07
-68.61
-76.42
-80.79
-81.6
-78.75
-72.67
-64.36
-55.22
-46.53
-38.88
-32.15
-25.75
-19.08
-12.15
-5.67
-0.75
1.44
0.27
-4.1
-10.79
-18.47
-25.79
-31.78
-36.35
-40.13
-44.37
-50.18
-57.96
-66.87
-75
-79.92
-79.5
-72.79
-60.27
-43.71
-25.48
-7.88
7.39
19.47
28.21
34.12
38.05
41.07
44.2
48.34
53.89
60.79
68.55
76.59
84.5
92.21
99.94
107.9
116.13
124.3
131.75
137.69
141.48
142.78
141.66
138.57
134.29
129.83
126.16
123.76
122.24
120.22
115.62
106.37
91.37
70.92
46.8
21.6
-2.27
-23.27
-41.12
-56.44
-70.18
-82.96
-94.98
-106.05
-115.76
-123.74
-129.61
-133.01
-133.63
-131.23
-125.79
-117.52
-106.84
-94.31
-80.55
-66.29
-52.36
-39.83
-29.59
-22.23
-17.7
-15.51
-15.05
-16.05
-18.66
-23.31
-30.19
-38.68
-47.35
-54.15
-57.14
-55.21
-48.82
-40.22
-33.34
-33.03
-43.43
-66.44
-100.41
-140.24
-178.49
-207.76
-222.77
-221.57
-205.46
-177.81
-142.65
-103.8
-64.39
-27.05
5.96
32.83
52.6
65.34
72.2
75.01
75.78
76.11
76.92
78.58
81.29
85.52
92
101.25
113.01
125.82
137.04
143.65
143.33
135.4
120.99
102.25
81.4
59.75
37.75
15.53
-6.56
-27.6
-46.41
-62.4
-76.09
-89.06
-103.23
-119.77
-138.56
-158.46
-177.56
-193.42
-203.32
-204.79
-196.32
-178.1
-152.25
-122.97
-96.19
-77.31
-68.8
-68.84
-72.2
-72.72
-66.06
-50.67
-28.61
-4.93
15.25
29.31
38.26
45.07
52.19
59.61
65.87
68.24
63.36
49
24.72
-8.41
-49.76
-99.6
-158.92
-226.21
-284.92
-314.33
-301.87
-252.94
-184.23
-111.34
-42.13
17.88
73.84
127.66
176.1
213.74
236.81
246.66
242.96
229.85
212.2
194.33
177.46
159.59
137.49
109.05
75.12
38.64
3.6
-27.49
-53.41
-74.82
-93.26
-109.59
-123.22
-131.74
-132.11
-121.44
-98.65
-64.12
-19.9
30.98
85.4
140.59
194.39
244.67
288.83
323.05
343.13
345.81
330.71
301.3
264.41
227.87
197.65
175.75
159.72
144.63
125.83
101.3
72.16
41.24
11.12
-17.22
-44.13
-70.36
-95.88
-119.33
-138.46
-150.97
-155.25
-150.91
-138.81
-120.8
-99.39
-77.5
-57.94
-42.81
-33.12
-28.61
-28.29
-31.02
-35.85
-42.13
-49.15
-55.87
-61.11
-63.8
-63.44
-60.28
-55.18
-49.34
-43.85
-39.38
-36.09
-33.66
-31.7
-29.92
-28.44
-27.68
-28.01
-29.66
-32.55
-36.43
-41.1
-46.56
-52.87
-60.05
-67.71
-75.06
-80.95
-84.34
-84.42
-80.94
-74.05
-64.34
-52.7
-40.14
-27.7
-16.17
-6.02
2.63
9.79
15.43
19.33
21.21
20.98
18.84
15.33
11.05
6.46
1.67
-3.43
-9.01
-15.05
-21.42
-28.17
-35.84
-45.51
-58.53
-75.61
-96.27
-118.33
-138.56
-153.72
-161.94
-163.3
-159.61
-153.34
-146.37
-139.51
-132.54
-125.13
-117.43
-110.41
-105.04
-101.73
-99.7
-97.26
-92.54
-84.18
-71.83
-56.06
-38.1
-19.44
-1.72
13.34
24.05
29.08
27.94
21.11
9.95
-3.75
-18.41
-33.1
-47.55
-61.65
-75.06
-86.76
-95.19
-98.71
-96.15
-87.38
-73.35
-55.79
-36.5
-16.84
2.78
22.59
43.1
64.35
85.52
104.92
120.6
131.16
136.33
137.15
135.51
133.18
131.18
129.44
127.3
124.21
120.23
116.02
112.3
109.13
105.65
100.47
92.55
81.99
70.21
59.49
51.93
48.63
49.21
52.22
55.91
59.02
61.11
62.43
63.39
64.14
64.36
63.52
61.23
57.67
53.61
50.29
48.88
49.94
53.05
56.83
59.43
59.27
55.85
49.99
43.66
39.1
37.86
40.12
44.61
49.33
52.61
53.96
54.3
55.69
60.3
69.55
83.57
101.08
119.77
136.55
148.04
150.98
143.01
123.75
95.57
63.78
35.35
16.6
10.86
17.33
31.72
48.41
63.05
74.11
82.81
91.26
100.52
109.28
114.26
112.04
100.92
82.04
58.98
35.93
15.72
-1.29
-16.99
-34.19
-55.11
-80.5
-109.56
-140.5
-170.72
-196.68
-213.81
-217.15
-203.15
-171.73
-127.38
-78.43
-34.72
-4.69
6.76
-1.08
-25.21
-59.77
-97.1
-128.91
-147.91
-149.99
-135.78
-110.91
-84.15
-64.37
-57.26
-63.79
-80.94
-103.77
-127.82
-150.48
-170.84
-188.89
-204.55
-217.46
-227.18
-233.58
-236.83
-237.35
-235.36
-230.85
-223.92
-215.2
-206.1
-198.73
-195.32
-197.45
-205.4
-217.7
-231.31
-242.15
-245.96
-239.4
-221
-191.35
-152.79
-108.29
-60.34
-10.28
41.64
95.58
151.23
207.16
260.95
309.71
350.96
383.13
405.71
419.04
423.86
420.85
410.49
393.14
369.38
340.32
307.82
274.29
242.12
213.09
187.94
166.35
147.46
130.42
114.92
101.24
89.92
81.32
75.16
70.62
66.71
62.72
58.58
54.82
52.21
51.21
51.61
52.33
51.91
48.99
42.91
34
23.36
12.51
2.63
-5.64
-12.29
-17.63
-22.03
-25.68
-28.6
-30.75
-32.08
-32.57
-32.09
-30.37
-26.87
-21.11
-12.7
-1.54
12.11
27.74
44.7
62.24
79.55
95.79
110.08
121.51
129.48
133.85
135.26
135.06
134.92
136.18
139.12
142.45
143.39
138.38
124.26
99.76
66.33
28.31
-8
-35.98
-50.68
-50.32
-36.97
-16.01
5.69
21.68
27.76
22.68
7.82
-13.94
-39.3
-65.11
-88.44
-106.51
-117.25
-120.11
-116.8
-110.95
-106.69
-106.56
-110.1
-114.04
-114.05
-107.11
-93.03
-74.51
-55.5
-39.19
-26.85
-17.68
-9.98
-2.33
5.73
13.77
21.01
27.03
32.08
36.94
42.59
49.46
57.3
65.15
71.73
75.98
77.59
77.06
75.56
74.41
74.48
75.86
77.89
79.6
80.22
79.71
78.53
76.92
74.35
69.3
60
45.61
27.03
6.56
-13.36
-31.82
-49.82
-69.18
-90.5
-111.96
-129.94
-141.23
-145.34
-145.06
-144.72
-147.11
-151.4
-153.47
-148.4
-133.82
-111.69
-87.4
-66.92
-53.78
-47.63
-44.92
-41.12
-32.99
-19.91
-4.23
9.56
16.34
12.23
-3.73
-28.85
-57.37
-82.44
-98.53
-103.39
-98.48
-87.72
-75.29
-63.75
-53.47
-43.51
-33.27
-23.43
-15.91
-12.57
-14.01
-19.01
-25.08
-29.66
-31.29
-30.1
-27.25
-24.2
-21.93
-20.89
-21.31
-23.51
-27.86
-34.27
-41.82
-48.89
-53.67
-55.04
-52.86
-47.87
-41.12
-33.45
-25.45
-17.58
-10.49
-4.87
-1.15
0.97
2.42
4.42
7.76
12.34
17.13
20.69
21.77
19.9
15.55
9.89
4.44
0.51
-1.21
-0.87
0.59
1.55
0.41
-3.65
-10.08
-16.58
-19.57
-15.39
-1.84
20.63
48.67
77.07
100.51
115.34
120.59
117.73
109.66
99.35
88.94
79.54
71.65
65.56
61.63
60.25
61.43
64.71
69.22
73.81
77.55
79.94
81.02
81.24
81.33
81.79
82.73
83.77
83.96
82.24
77.82
70.61
61.12
50.33
39.12
28.09
17.38
6.85
-3.53
-13.63
-22.93
-30.89
-37.15
-41.78
-45.28
-48.27
-51.26
-54.32
-57.2
-59.49
-61.07
-62.08
-62.99
-64.17
-65.66
-67.09
-67.93
-67.8
-66.75
-65.17
-63.57
-62.31
-61.5
-61.02
-60.7
-60.37
-59.87
-59
-57.6
-55.62
-53.3
-51
-49.08
-47.68
-46.66
-45.72
-44.56
-43.1
-41.33
-39.31
-36.96
-34.05
-30.42
-26.16
-21.81
-18.11
-15.81
-15.07
-15.28
-15.08
-12.9
-7.55
0.99
11.34
21.14
27.95
30.3
28.28
23.37
17.7
12.95
9.69
7.23
4.07
-1.58
-11.22
-25.58
-44.22
-65.33
-85.67
-100.71
-105.79
-97.91
-77.86
-51.42
-28.35
-19.12
-30.6
-62.94
-109.2
-158.18
-198.92
-224.37
-232.57
-225.25
-205.35
-175.3
-136.97
-92.89
-47.26
-5.53
27.42
49.15
60.56
65.03
66.75
69.03
73.36
79.47
86.03
91.55
94.92
95.89
95.02
93.41
92.13
91.6
91.39
90.5
87.97
83.57
78.08
73.03
70.06
70.28
73.7
79.34
85.63
90.94
93.84
93.14
87.83
77.14
61.04
40.6
18.3
-2.55
-18.8
-28.82
-33.13
-34.05
-34.6
-37.05
-42.09
-48.91
-56.01
-62.24
-67.13
-70.79
-73.34
-74.55
-73.75
-70.35
-64.28
-56.18
-47.35
-39.19
-32.72
-28.36
-25.96
-24.91
-24.61
-24.72
-25.32
-26.82
-29.58
-33.58
-38.2
-42.35
-44.69
-44.01
-39.57
-31.36
-20.16
-7.36
5.42
16.77
25.96
32.95
38.18
42.15
45.1
46.92
47.47
46.8
45.36
43.8
42.85
42.97
44.28
46.67
49.96
53.94
58.32
62.7
66.55
69.35
70.76
70.68
69.26
66.62
62.77
57.48
50.5
41.75
31.62
20.86
10.48
1.33
-6.09
-11.67
-15.48
-17.54
-17.79
-16.35
-13.63
-10.53
-8.12
-7.34
-8.6
-11.66
-15.79
-20.16
-23.97
-26.52
-27.31
-26.04
-22.9
-18.72
-14.79
-12.51
-12.78
-15.61
-20.13
-25.09
-29.5
-33.01
-35.86
-38.55
-41.41
-44.44
-47.31
-49.72
-51.52
-52.62
-52.78
-51.43
-47.7
-40.86
-30.7
-17.8
-3.56
10.2
21.73
29.67
33.25
32.42
27.88
21.09
13.95
8.3
5.14
4.26
4.37
3.84
1.81
-1.36
-4.46
-6.28
-6.5
-5.74
-4.98
-4.79
-5.23
-6.57
-10.28
-18.77
-33.98
-55.41
-79.43
-100.61
-114.45
-119.73
-118.96
-116.43
-115.33
-115.87
-115.62
-111.51
-102.19
-88.94
-74.69
-62.16
-52.43
-44.84
-38.02
-31.19
-24.54
-18.79
-14.65
-12.17
-10.95
-10.34
-10.01
-10.22
-11.73
-15.43
-21.71
-30.02
-38.68
-45.46
-48.18
-45.59
-37.77
-26.21
-13.14
-0.77
9.4
17.09
23.14
29.06
36.52
46.43
58.21
69.52
76.68
75.92
65.02
44.61
18.48
-7.35
-26.62
-34.87
-30.7
-15.88
5.68
29.55
51.95
70.52
84.15
92.56
96.04
95.14
90.81
84.34
77.3
71.2
67
64.79
63.73
62.51
59.9
55.12
48.15
39.64
30.57
21.92
14.39
8.25
3.34
-0.73
-4.38
-7.81
-10.89
-13.29
-14.69
-14.92
-14.12
-12.45
-10
-6.88
-3.22
0.74
4.72
8.64
12.94
18.43
25.94
35.79
47.38
59.32
69.96
78.08
83.31
86.14
87.42
87.81
87.52
86.32
83.86
80.12
75.51
70.83
66.94
64.28
62.72
61.61
60.08
57.52
53.78
49.22
44.45
39.94
35.77
31.64
27.15
22.03
16.45
10.84
5.7
1.31
-2.45
-6.01
-9.83
-14.15
-18.92
-23.77
-28.26
-32.11
-35.31
-38.14
-41.1
-44.65
-49
-53.87
-58.23
-60.55
-59.12
-52.82
-41.6
-26.72
-10.21
5.76
19.58
30.58
38.71
44.28
47.52
48.58
47.64
45.15
41.89
38.65
36.09
34.39
33.41
32.77
32.07
30.99
29.39
27.42
25.42
23.92
23.21
23.22
23.36
22.75
20.63
16.75
11.68
6.31
1.62
-2.08
-5.06
-8.01
-11.47
-15.53
-19.75
-23.5
-26.32
-28.1
-29.11
-29.87
-30.88
-32.49
-34.81
-37.5
-39.77
-40.51
-38.59
-33.38
-25.03
-14.5
-3.31
7.07
15.65
22.16
26.81
30
31.98
32.76
32.28
30.57
27.97
25.05
22.46
20.64
19.68
19.27
18.87
17.93
16.1
13.37
10.07
6.77
4.02
2.08
0.67
-0.95
-3.66
-8.07
-14
-20.49
-26.15
-29.92
-31.59
-32.06
-33.01
-36.08
-42.11
-50.72
-60.37
-68.93
-74.45
-75.82
-73.17
-67.72
-61.44
-56.3
-53.47
-52.61
-51.47
-46.44
-33.57
-9.96
25.03
68.76
115
154.77
178.36
178.27
151.95
103.05
40.52
-24.14
-80.6
-122.39
-147.77
-158.69
-158.65
-150.98
-138.16
-122.27
-105.51
-90.29
-78.47
-70.67
-65.9
-62.19
-57.48
-50.71
-42.2
-33.58
-26.91
-23.79
-24.61
-28.55
-33.97
-39.25
-43.45
-46.59
-49.49
-52.98
-57.29
-61.46
-63.61
-61.48
-53.43
-39.18
-20.06
1.42
22.44
40.77
55.32
65.97
73.24
77.71
79.75
79.49
77.2
73.5
69.33
65.7
63.26
62.04
61.44
60.67
59.13
56.71
53.84
51.09
48.83
46.9
44.74
41.55
36.77
30.4
22.89
15.1
7.79
1.43
-4.05
-9.05
-14.27
-20.29
-27.46
-35.73
-44.67
-53.41
-60.68
-64.95
-64.74
-59.1
-48.09
-32.99
-15.86
1.03
16.05
28.48
38.41
46.22
52.12
56.03
57.74
57.29
55.23
52.46
49.81
47.84
46.51
45.45
44.25
42.7
40.92
39.18
37.68
36.42
35.1
33.22
30.26
25.9
20.08
13.1
5.54
-1.99
-8.96
-15.12
-20.57
-25.62
-30.59
-35.72
-41.01
-46.47
-52.17
-58.12
-63.97
-68.79
-70.97
-68.73
-60.96
-47.79
-30.83
-12.62
4.34
18.36
28.99
36.63
41.99
45.43
46.91
46.21
43.35
38.91
33.82
29.04
25.16
22.26
20.03
18.05
15.88
13.32
10.23
6.48
2.02
-3.2
-9.18
-15.91
-23.36
-31.55
-40.39
-49.78
-59.65
-69.98
-80.88
-92.41
-104.38
-116.21
-127.05
-136.16
-143.33
-149.03
-154.21
-159.65
-165.18
-169.33
-169.37
-161.94
-144.1
-114.25
-72.98
-23.16
30.47
82.47
128.01
164.07
189.87
206.67
216.82
222.51
224.97
224.08
218.91
208.47
192.59
172.35
149.94
127.97
108.6
93.08
81.67
73.91
69.17
66.81
66.11
66.01
65.08
61.61
54.26
42.54
26.82
8.09
-12.7
-34.98
-58.51
-83.05
-107.79
-131.18
-151.17
-165.79
-173.85
-175.31
-171.13
-162.63
-150.82
-135.91
-117.27
-94
-65.68
-32.82
3
39.48
74.24
105.37
131.54
152.1
166.81
175.67
179.04
177.58
172.27
164.18
154.31
143.33
131.68
119.62
107.5
95.69
84.45
73.78
63.27
52.26
40.14
26.67
12.11
-2.94
-17.79
-31.94
-45.2
-57.56
-69.07
-79.72
-89.41
-98.17
-106.24
-113.97
-121.67
-129.22
-135.8
-139.91
-139.68
-133.58
-120.91
-102.06
-78.18
-50.76
-21.08
10.03
41.84
73.41
103.07
128.5
147.18
157.11
157.52
149.2
134.42
116.21
97.57
80.73
66.72
55.51
46.4
38.58
31.52
25
18.79
12.47
5.34
-3.47
-14.49
-27.77
-42.81
-58.78
-74.88
-90.62
-105.74
-119.97
-132.82
-143.49
-151.16
-155.23
-155.65
-152.74
-147.07
-139
-128.69
-116.02
-100.89
-83.48
-64.36
-44.43
-24.71
-6.14
10.45
24.25
34.47
40.3
41.11
36.84
28.2
16.87
5.42
-3.19
-6.4
-2.9
6.56
19.08
30.28
35.55
31.7
18.1
-3.04
-27.49
-50.56
-68.5
-79.29
-82.56
-79.03
-69.8
-56.02
-38.97
-20.25
-1.86
14.05
25.82
32.85
35.94
36.98
38.35
41.94
48.51
57.49
67.27
76.09
82.7
86.71
88.43
88.43
87.03
84.24
79.96
74.31
67.83
61.46
56.09
52.18
49.57
47.56
45.36
42.52
39.08
35.42
31.93
28.72
25.52
21.77
16.84
10.26
1.95
-7.82
-18.35
-28.61
-37.55
-44.41
-49.12
-52.37
-55.42
-59.51
-65.39
-72.83
-80.56
-86.56
-88.65
-84.99
-74.8
-58.51
-37.84
-15.25
6.61
25.65
40.66
51.35
58.03
61.15
61.05
58.08
52.79
45.98
38.69
31.85
26.01
21.23
17.15
13.29
9.33
5.26
1.25
-2.46
-5.69
-8.39
-10.61
-12.48
-14.19
-15.95
-17.83
-19.82
-21.69
-23.13
-24.01
-24.46
-24.84
-25.37
-25.87
-25.59
-23.47
-18.67
-11
-1.02
10.2
21.62
32.6
42.92
52.48
60.94
67.62
71.69
72.52
70.18
65.49
59.67
53.92
49.02
45.11
41.9
38.92
35.78
32.32
28.5
24.21
19.26
13.43
6.59
-1.06
-9.01
-16.56
-23.16
-28.66
-33.38
-38
-43.23
-49.52
-56.91
-65.02
-73.19
-80.55
-86.14
-88.99
-88.16
-83.13
-73.92
-61.27
-46.49
-31.06
-16.26
-2.82
8.98
19.05
27.21
33.18
36.82
38.28
38.21
37.53
37.03
37.13
37.75
38.55
39.18
39.61
39.98
40.42
40.79
40.62
39.27
36.3
31.66
25.85
19.65
13.77
8.62
4.1
-0.2
-4.86
-10.33
-16.81
-24.13
-31.72
-38.69
-43.81
-45.85
-43.84
-37.47
-27.27
-14.58
-1.12
11.57
22.46
31.19
37.86
42.68
45.65
46.76
45.9
43.28
39.44
35.13
31.13
28.03
26.1
25.36
25.65
26.57
27.61
28.16
27.73
26.1
23.5
20.42
17.53
15.19
13.36
11.53
9.05
5.46
0.78
-4.39
-9.19
-12.72
-14.55
-14.94
-14.82
-15.59
-18.58
-24.64
-33.69
-44.48
-54.39
-59.74
-56.58
-41.82
-14.43
23.79
68.37
113.2
152.38
181.99
200.9
210.47
213.3
211.65
206.64
198.29
186.27
170.8
152.9
134.07
115.62
98.16
81.5
65.13
48.82
32.93
18.37
6.11
-3.23
-9.64
-13.77
-16.71
-19.54
-23.04
-27.43
-32.27
-36.87
-40.55
-43.08
-44.75
-46.3
-48.45
-51.58
-55.56
-59.84
-63.69
-66.55
-68.19
-68.78
-68.83
-68.98
-69.83
-71.61
-74.1
-76.54
-77.84
-76.89
-73.01
-66.17
-56.97
-46.47
-35.8
-25.88
-17.2
-9.86
-3.73
1.3
5.22
7.82
8.91
8.48
6.89
4.83
3.13
2.47
2.98
4.26
5.52
5.9
4.87
2.34
-1.38
-5.8
-10.45
-15.06
-19.53
-23.89
-28.13
-32.11
-35.48
-37.93
-39.22
-39.42
-38.87
-37.78
-35.65
-31.2
-22.97
-10.38
5.6
22.66
38.33
51.03
60.32
66.02
66.91
60.29
43.08
14.1
-24.07
-64.96
-100.3
-123.32
-131.31
-126.24
-113.02
-96.97
-81.75
-68.82
-58.24
-49.65
-42.99
-38.66
-37.13
-38.31
-41.24
-44.31
-45.8
-44.55
-40.52
-34.74
-28.78
-24.15
-21.54
-20.64
-20.39
-19.6
-17.62
-14.58
-11.3
-8.72
-7.44
-7.46
-8.28
-9.31
-10.19
-10.9
-11.81
-13.34
-15.69
-18.71
-21.89
-24.65
-26.64
-27.88
-28.81
-30
-31.92
-34.55
-37.43
-39.65
-40.25
-38.47
-33.96
-26.88
-17.79
-7.57
2.86
12.64
21.14
28.05
33.29
36.92
39
39.65
39.03
37.51
35.59
33.89
32.88
32.72
33.28
34.06
34.59
34.41
33.35
31.45
29.03
26.4
23.7
20.76
17.04
11.86
4.69
-4.57
-15.43
-26.86
-37.55
-46.14
-51.61
-53.41
-51.53
-46.65
-40
-33.19
-27.83
-25.1
-25.29
-27.64
-30.6
-32.31
-31.34
-27.06
-19.86
-10.87
-1.47
7.17
14.35
19.75
23.36
25.14
25.09
23.32
20.13
16.15
12.26
9.32
7.94
8.22
9.59
10.98
11.22
9.49
5.73
0.6
-5.04
-10.68
-16.63
-24
-34.18
-48.24
-66.54
-88.57
-112.96
-137.47
-159.01
-173.87
-178.43
-170.21
-148.89
-116.86
-78.71
-39.91
-5.24
22.46
42.59
56.37
65.8
72.88
78.94
84.62
89.94
94.59
98.21
100.55
101.4
100.57
97.86
93.21
86.9
79.68
72.59
66.58
62.19
59.25
57.03
54.57
51.11
46.37
40.71
34.9
29.73
25.77
23.01
20.98
18.95
16.37
13.04
9.32
5.78
2.92
0.85
-0.78
-2.63
-5.28
-8.86
-12.92
-16.54
-18.64
-18.5
-15.94
-11.44
-5.89
-0.22
4.82
8.88
11.87
13.77
14.62
14.45
13.32
11.41
9.02
6.39
3.7
1.12
-1.24
-3.21
-4.63
-5.34
-5.28
-4.49
-3.24
-1.98
-1.3
-1.71
-3.45
-6.41
-10.11
-13.83
-16.96
-19.22
-20.69
-21.72
-22.81
-24.34
-26.58
-29.51
-32.81
-35.71
-37.18
-36.09
-31.67
-23.82
-13.28
-1.42
10.14
19.95
27.07
31.19
32.51
31.59
29.07
25.61
21.77
18.01
14.64
11.87
9.68
7.93
6.32
4.62
2.71
0.62
-1.61
-3.99
-6.77
-10.3
-14.69
-19.7
-24.64
-28.64
-31.07
-31.89
-31.68
-31.42
-32.03
-34.04
-37.31
-41.22
-44.83
-47.13
-47.28
-44.71
-39.31
-31.46
-21.97
-11.88
-2
7.18
15.6
23.42
30.66
37.02
41.86
44.32
43.74
40.09
34.5
29.66
29.72
39.19
60.95
94.12
133.1
168.71
191.25
194.04
175.69
139.98
93.73
43.93
-4.18
-47.43
-83.85
-111.71
-129.5
-136.68
-134.54
-126.25
-115.86
-106.86
-101.12
-98.58
-97.8
-96.88
-94.17
-88.88
-81.19
-71.99
-62.52
-53.86
-46.69
-41.02
-36.36
-31.94
-27.17
-21.88
-16.48
-11.67
-8.07
-5.8
-4.4
-3.05
-1.09
1.61
4.61
7.18
8.75
9.25
9.03
8.61
8.38
8.41
8.51
8.41
7.94
7.03
5.7
3.94
1.73
-0.95
-3.91
-6.71
-8.75
-9.31
-7.97
-4.7
0.07
5.62
11.23
16.37
20.87
24.83
28.36
31.41
33.64
34.63
34.02
31.81
28.35
24.26
20.25
16.93
14.59
13.2
12.4
11.74
10.8
9.31
7.16
4.41
1.15
-2.46
-6.17
-9.69
-12.74
-15.09
-16.69
-17.7
-18.39
-18.96
-19.41
-19.51
-18.86
-17.05
-13.73
-8.55
-1.22
8.48
20.85
35.9
53.38
72.77
93.36
114.44
135.12
154.34
170.72
182.93
189.87
191.14
186.9
177.62
163.3
142.97
114.71
76.37
26.85
-32.65
-98.17
-163.65
-222.33
-268.43
-298.27
-310.38
-304.95
-283.2
-247.25
-200.34
-147.07
-93.07
-43.53
-2.04
30
52.58
65.7
68.44
59.36
37.9
5.85
-32.25
-70.46
-103.54
-128.8
-146.59
-159.18
-168.98
-177.2
-183.53
-186.83
-185.99
-180.65
-171.16
-158.44
-143.3
-126.21
-107.31
-86.64
-64.54
-41.92
-20.16
-0.69
15.46
28.12
37.8
45.42
51.85
57.71
63.24
68.47
73.36
77.72
81.42
84.39
86.66
88.45
89.93
91.13
91.71
91.07
88.6
84.07
77.77
70.46
63.11
56.48
50.87
46.09
41.55
36.47
30.3
22.76
14.1
4.94
-3.94
-11.93
-18.86
-24.99
-30.92
-37.19
-44.16
-51.98
-60.63
-69.97
-79.56
-88.4
-94.96
-97.37
-94.11
-84.65
-69.7
-51.04
-30.94
-11.51
5.73
20.06
31.43
40.28
47.39
53.72
60.18
67.37
75.5
84.12
92.45
99.44
104.21
106.32
106.11
104.72
103.67
104.07
105.61
106.18
102.47
91.44
71.99
45.89
17.46
-7.99
-25.76
-32.96
-28.68
-13.72
9.8
38.62
68.58
95.36
115.32
126.72
129.88
126.55
118.47
106.29
89.49
67.17
39.41
7.89
-24.41
-54.46
-80.38
-101.99
-120.26
-136.01
-148.92
-157.24
-158.61
-151.28
-135.42
-113.26
-88.34
-64.09
-42.6
-24.26
-8.22
6.4
19.61
30.28
36.74
37.82
33.63
25.78
16.82
9.27
4.74
3.57
5.01
7.91
11.41
15.38
20.36
27.12
36.17
47.2
59.08
70.2
79.03
84.71
87.29
87.55
86.42
84.53
81.84
77.75
71.61
63.05
52.48
40.88
29.48
19.27
10.66
3.38
-3.08
-9.26
-15.44
-21.6
-27.54
-33.06
-37.93
-41.74
-43.82
-43.24
-39.08
-30.91
-19.06
-4.65
10.61
25.04
37.52
47.64
55.65
62.02
66.98
70.4
71.93
71.41
69.23
66.31
63.78
62.44
62.31
62.62
62.36
60.79
57.85
54.15
50.62
47.88
45.95
44.25
41.96
38.46
33.68
27.99
22.06
16.44
11.36
6.65
2
-2.93
-8.18
-13.56
-18.83
-23.8
-28.56
-33.45
-38.94
-45.42
-53.05
-61.65
-70.54
-78.6
-84.33
-86.22
-83.27
-75.41
-63.81
-50.69
-38.56
-29.51
-24.46
-23.05
-24.09
-26.22
-28.53
-30.92
-33.91
-38.14
-43.9
-50.82
-57.88
-63.92
-68.14
-70.5
-71.82
-73.42
-76.44
-81.26
-87.22
-92.83
-96.33
-96.33
-92.05
-83.09
-69.03
-49.39
-24.26
4.93
35.07
62.27
83.5
98.09
107.9
115.79
123.45
129.71
130.81
122.38
102.06
71.11
34.03
-3.59
-37.54
-66.33
-90.87
-112.87
-133.27
-151.51
-166.11
-175.56
-179.4
-178.37
-173.81
-166.81
-157.61
-145.72
-130.5
-111.91
-90.72
-68.15
-45.28
-22.32
1.2
26.14
53.01
81.6
110.81
138.98
164.34
185.17
200.1
208.15
208.87
202.4
189.65
172.13
151.81
130.77
110.83
93.23
78.33
65.55
53.56
40.81
26.14
9.38
-8.52
-25.71
-39.91
-49.27
-52.83
-50.82
-44.56
-36.1
-27.75
-21.53
-18.64
-19.29
-22.75
-27.9
-33.77
-40.02
-47.13
-56.03
-67.59
-82.1
-98.92
-116.41
-132.16
-143.41
-147.68
-143.43
-130.59
-110.58
-86.04
-60.05
-35.33
-13.67
4.18
18.1
28.31
34.83
37.57
36.36
31.15
22.03
9.35
-6.34
-24.13
-42.75
-60.44
-74.97
-83.94
-85.13
-76.99
-59.19
-32.85
-0.57
33.97
66.8
94.56
115.11
127.79
133.23
132.72
127.86
120.22
111.25
102.19
94.02
87.29
82.09
78.17
75.04
72.2
69.15
65.48
60.87
55.37
49.54
44.5
41.41
40.95
42.96
46.37
49.66
51.52
51.29
48.98
45.02
39.74
33.27
25.76
17.67
9.92
3.44
-1.39
-5.22
-9.47
-15.7
-24.46
-34.82
-44.69
-51.53
-53.58
-50.38
-42.53
-30.94
-16.23
1.52
22.28
45.28
68.73
89.92
105.89
114.47
115.09
109.19
99.86
91.02
86.09
87.02
93.41
102.9
111.95
117.25
116.73
110.07
98.45
83.82
68.36
53.83
41.53
32.11
25.65
21.79
19.81
18.79
17.75
15.83
12.44
7.31
0.63
-6.93
-14.36
-20.69
-25.23
-27.91
-29.25
-30.02
-31
-32.61
-34.87
-37.46
-40.08
-42.4
-44.4
-46.18
-48
-50.09
-52.53
-55.2
-57.81
-60
-61.52
-62.2
-61.91
-60.37
-57.05
-51.34
-42.92
-32.2
-20.3
-8.85
0.6
7.09
10.5
11.38
10.63
8.99
6.97
4.85
2.81
0.98
-0.49
-1.58
-2.38
-3.09
-3.93
-5.09
-6.65
-8.58
-10.74
-12.89
-14.9
-16.77
-18.73
-21.07
-23.92
-27.09
-30.15
-32.51
-33.84
-34.26
-34.38
-35.02
-36.81
-39.83
-43.36
-46
-46.03
-42.09
-33.7
-21.63
-7.65
6.03
17.59
26.08
31.59
34.86
36.7
37.58
37.57
36.45
34.13
30.86
27.08
23.43
20.37
18.16
16.73
15.84
15.15
14.41
13.47
12.32
11.06
9.8
8.52
7.14
5.4
3.02
-0.09
-3.87
-7.97
-11.93
-15.33
-17.98
-19.95
-21.65
-23.6
-26.26
-29.85
-34.15
-38.7
-43.03
-46.94
-50.66
-54.76
-59.88
-66.38
-74.09
-82.4
-90.58
-98.1
-104.95
-111.65
-118.93
-127.4
-137.23
-148.14
-159.45
-170.48
-180.72
-189.98
-198.42
-206.27
-213.65
-220.29
-225.58
-228.46
-227.38
-220.23
-204.61
-178.51
-141.22
-94.18
-41.09
12.72
61.78
101.7
130.08
146.37
151.32
146.27
132.73
112.55
88.1
62.26
38.07
18.03
3.7
-4.46
-6.99
-5.18
-0.7
4.76
9.74
13.23
14.82
14.5
12.57
9.31
5.06
0.16
-4.9
-9.51
-13.09
-15.32
-16.31
-16.42
-16.05
-15.46
-14.68
-13.68
-12.51
-11.41
-10.71
-10.71
-11.49
-12.93
-14.78
-16.86
-19.03
-21.36
-24.02
-27.28
-31.52
-37.02
-43.83
-51.51
-59.01
-64.81
-67.19
-64.79
-56.96
-44.05
-27.2
-8.14
11.42
30.18
47.4
62.85
76.59
88.72
99.16
107.76
114.31
118.85
121.63
123.09
123.71
123.85
123.71
123.24
122.41
121.18
119.57
117.66
115.49
112.99
109.93
106
100.9
94.58
87.31
79.57
71.99
64.97
58.67
52.88
47.33
41.77
36.16
30.59
25.13
19.83
14.68
9.71
5.06
0.97
-2.48
-5.4
-8.22
-11.38
-15.03
-18.9
-22.15
-23.71
-22.54
-18.2
-10.85
-1.29
9.32
19.93
29.82
38.68
46.49
53.28
58.91
63.18
65.87
66.91
66.44
64.74
62.07
58.66
54.57
49.81
44.45
38.61
32.44
26.09
19.72
13.45
7.46
1.82
-3.5
-8.65
-13.77
-18.94
-24.09
-29.06
-33.68
-37.97
-42.11
-46.39
-51.09
-56.32
-61.91
-67.48
-72.6
-77
-80.62
-83.62
-86.25
-88.73
-91.18
-93.56
-95.78
-97.63
-98.86
-99.08
-97.81
-94.55
-88.91
-80.91
-71
-60.08
-49.25
-39.64
-31.98
-26.45
-22.7
-19.96
-17.45
-14.63
-11.46
-8.42
-6.33
-6.13
-8.48
-13.76
-21.78
-31.86
-42.91
-53.55
-62.48
-68.9
-72.9
-75.43
-78.1
-82.38
-88.9
-96.85
-103.96
-107.03
-102.98
-89.93
-68.02
-39.42
-7.67
23.47
51.09
73.84
91.7
105.42
115.76
123.1
127.55
129.31
128.93
127.19
124.95
122.7
120.57
118.47
116.42
114.71
113.91
114.45
116.44
119.44
122.51
124.55
124.63
122.29
117.67
111.48
104.67
98.17
92.48
87.7
83.49
79.37
74.92
69.94
64.48
58.77
53.11
47.74
42.76
38.14
33.63
28.71
22.62
14.61
4.32
-7.82
-20.55
-32.09
-40.72
-45.5
-46.58
-45.1
-42.58
-40.29
-38.89
-38.5
-38.96
-40.06
-41.52
-42.8
-42.96
-40.89
-35.77
-27.52
-16.89
-5.17
6.27
16.52
25.2
32.3
37.87
41.83
44.02
44.46
43.36
41.13
38.03
34.2
29.62
24.44
19.11
14.38
10.94
9.06
8.43
8.28
7.83
6.59
4.48
1.71
-1.49
-5.04
-9.02
-13.44
-18.13
-22.62
-26.4
-29.11
-30.71
-31.48
-31.94
-32.57
-33.73
-35.6
-38.12
-41.04
-43.88
-45.88
-46.09
-43.58
-37.69
-28.31
-16.05
-2.03
12.34
25.74
37.23
46.35
53.11
57.87
61.22
63.96
66.97
71.09
76.74
83.74
91.31
98.32
103.87
107.69
110.1
111.64
112.48
111.95
108.81
101.86
90.63
75.5
57.35
36.83
13.94
-11.76
-40.42
-71.15
-101.83
-129.64
-151.79
-166.07
-170.99
-165.47
-148.84
-121.24
-84.57
-42.91
-2.11
31.7
54.23
64.53
64.98
59.96
53.82
49.15
46.25
43.98
41.05
37.14
33.08
30.07
28.7
28.46
27.86
25.38
20.29
13.06
4.95
-2.56
-8.51
-12.55
-14.71
-15.14
-13.87
-11.02
-6.93
-2.56
0.64
1.02
-2.9
-12
-26.25
-44.56
-64.85
-84.4
-100.62
-111.74
-117.41
-118.63
-117.13
-114.54
-111.74
-108.72
-104.95
-100.02
-93.88
-87.03
-80.33
-74.77
-71.22
-70.21
-71.57
-74.34
-76.82
-77.02
-73.4
-65.45
-53.74
-39.48
-23.73
-6.97
10.82
29.61
48.8
67.16
83.26
96.15
105.65
112.21
116.46
118.87
119.84
120.07
120.65
122.51
125.45
127.47
125.02
114.52
94.04
64.65
30.34
-3.24
-30.87
-49.39
-58.42
-60.13
-58.08
-56.23
-57.98
-65.71
-80.43
-101.7
-127.63
-155.12
-180.31
-199.31
-208.9
-207.26
-194.43
-172.22
-143.68
-112.35
-81.25
-52.61
-27.72
-7.19
8.78
20.23
27.48
31.17
32.11
31.12
28.9
26.16
23.75
22.85
24.81
30.63
40.44
53.1
66.54
78.34
86.8
91.39
92.7
91.89
89.92
87.02
82.72
76.33
67.54
56.67
44.61
32.26
20.14
8.39
-2.95
-13.24
-20.97
-23.99
-20.14
-8.24
11.34
36.68
64.95
93.04
117.85
135.97
143.64
137.33
114.99
77.58
29.66
-21.38
-67.48
-102.34
-123.28
-131.27
-129.74
-122.64
-113.05
-102.82
-92.83
-83.71
-76.09
-70.46
-66.86
-64.51
-61.96
-57.53
-50.06
-39.61
-27.53
-15.97
-6.86
-1.08
2.07
4.49
8.2
14.19
22.01
30.16
37.08
41.94
44.77
46.04
45.98
44.52
41.5
37.37
33.34
30.94
31.19
34.05
38.36
42.62
45.98
48.59
51.23
54.6
58.6
62.22
64.06
63.13
59.49
54.29
49.51
47.35
49.82
57.96
71.12
86.16
97.55
98.73
84.51
53.51
9.45
-39.7
-84.43
-117.11
-134.41
-137.65
-131.03
-119.2
-105.44
-91.19
-77.03
-63.92
-53.34
-46.52
-43.57
-42.6
-40.28
-33.1
-19.07
1.08
24.05
45.26
60.63
68.05
67.98
62.78
55.55
48.76
43.46
39.29
35.18
30.1
23.71
16.44
9.2
2.87
-2.05
-5.48
-7.5
-8.24
-7.83
-6.52
-4.78
-3.29
-2.73
-3.55
-5.79
-9.15
-13.15
-17.33
-21.43
-25.46
-29.57
-33.94
-38.67
-43.71
-48.77
-53.5
-57.49
-60.52
-62.66
-64.35
-66.27
-69.18
-73.58
-79.46
-86.15
-92.4
-96.87
-98.64
-97.58
-94.55
-91.1
-88.85
-88.89
-91.51
-96.19
-102.12
-108.72
-115.89
-124.04
-133.76
-145.32
-158.26
-171.29
-182.57
-190.33
-193.6
-192.64
-188.95
-184.63
-181.44
-180.17
-180.27
-180.11
-177.35
-169.55
-154.69
-131.99
-102.49
-69.48
-38.06
-13.91
-1.44
-2.12
-14.06
-32.69
-52.76
-70.3
-83.76
-93.89
-102.54
-111.25
-120.29
-128.62
-134.34
-135.59
-131.09
-120.36
-103.53
-81.13
-54.17
-24.23
6.45
35.13
59.48
78.26
91.7
101.41
109.65
118.54
129.51
143.3
160.13
180.02
202.83
228.16
255.29
283.26
311.13
337.85
362.21
382.45
396.53
402.52
399.4
387.4
367.96
343.08
314.37
282.55
247.29
207.89
163.86
115.63
64.58
12.91
-36.66
-81.15
-117.57
-143.24
-156.38
-156.64
-145.53
-126.4
-103.78
-82.23
-65.13
-53.93
-47.91
-44.91
-42.26
-37.96
-31.21
-22.71
-14.11
-7.29
-3.68
-3.69
-6.8
-11.83
-17.36
-22.25
-25.97
-28.52
-30.35
-32.08
-34.17
-36.86
-40.08
-43.43
-46.37
-48.32
-48.86
-47.78
-45.33
-42.09
-39.09
-37.47
-38.1
-41.21
-46.14
-51.21
-54.26
-53.35
-47.4
-36.67
-22.67
-7.52
6.77
18.85
28.31
35.31
40.25
43.56
45.5
46.3
46.38
46.32
46.72
48.01
50.24
53.11
56.22
59.21
61.99
64.64
67.2
69.37
70.49
69.52
65.52
58.06
47.37
34.28
19.89
5.22
-8.88
-21.5
-31.55
-37.77
-39.13
-35.38
-27.27
-16.37
-4.53
6.81
16.83
25.27
31.98
36.56
38.29
36.59
31.39
23.47
14.35
5.74
-1.02
-5.33
-7.41
-7.99
-7.96
-8.08
-8.75
-10.18
-12.45
-15.75
-20.26
-26.26
-33.9
-43.21
-54.24
-67.16
-82.22
-99.48
-118.28
-136.89
-152.48
-161.64
-161.29
-149.76
-127.36
-96.31
-60
-21.9
15.12
49.37
80.04
106.82
129.6
148.17
162.4
172.27
178.06
180.22
179.32
175.81
169.92
161.69
151.16
138.49
124.11
108.49
91.97
74.67
56.49
37.42
17.89
-1.24
-18.81
-33.75
-45.38
-53.54
-58.54
-61.09
-62.17
-62.87
-64.41
-67.66
-72.9
-79.42
-85.52
-88.81
-86.94
-78.44
-63.26
-42.94
-20.06
2.65
23.31
41.4
57.54
72.72
87.37
100.99
112.34
120.19
124.06
124.38
122.18
118.46
113.56
107.2
98.86
88.43
76.54
64.51
53.89
45.83
40.73
38.12
37.02
36.36
35.32
33.49
30.75
27.13
22.6
17.12
10.75
3.73
-3.4
-10.01
-15.58
-19.95
-23.32
-26.19
-29.08
-32.4
-36.26
-40.53
-44.93
-49.01
-52.32
-54.5
-55.47
-55.54
-55.37
-55.66
-56.86
-58.84
-60.87
-62.01
-61.59
-59.61
-56.78
-54.24
-52.94
-53.33
-55.18
-57.73
-60.2
-62.04
-63.16
-63.78
-64.31
-65.21
-66.85
-69.64
-73.66
-78.52
-83.07
-85.55
-83.99
-76.96
-64.12
-46.44
-25.77
-4.25
16.35
34.95
51.04
64.4
74.87
82.36
87.02
89.28
89.91
89.68
89.17
88.69
88.26
87.71
86.84
85.52
83.66
81.44
79.21
77.37
76.21
75.6
75
73.62
70.77
66.21
60.21
53.43
46.45
39.56
32.65
25.33
17.34
8.76
0.04
-8.12
-15.11
-20.64
-24.83
-28.11
-30.98
-33.78
-36.69
-39.71
-42.68
-45.32
-47.12
-47.31
-45.16
-40.12
-32.31
-22.5
-11.92
-1.84
6.84
13.73
18.81
22.23
24.12
24.65
24.12
23.05
21.97
21.26
20.93
20.76
20.42
19.79
18.92
18.03
17.23
16.42
15.29
13.54
11.02
7.85
4.38
0.9
-2.38
-5.44
-8.42
-11.34
-14.11
-16.56
-18.54
-20.16
-21.77
-23.87
-26.87
-31
-36.06
-41.41
-46.13
-49.06
-49.19
-45.9
-39.23
-29.85
-18.97
-7.88
2.3
10.86
17.49
22.13
24.82
25.74
25.2
23.73
22.07
20.9
20.67
21.37
22.52
23.41
23.41
22.28
20.2
17.67
15.18
12.99
11.12
9.32
7.35
5.03
2.24
-1.05
-4.8
-8.94
-13.36
-17.89
-22.46
-27.18
-32.2
-37.46
-42.36
-45.73
-46.08
-42.28
-34.08
-22.39
-8.97
4.24
15.8
25.16
32.55
38.5
43.48
47.58
50.61
52.31
52.58
51.59
49.72
47.36
44.87
42.4
40.04
37.72
35.44
33.32
31.43
29.85
28.43
26.85
24.67
21.58
17.56
12.96
8.33
4.09
0.35
-3.23
-7.11
-11.74
-17.21
-23.28
-29.48
-35.34
-40.62
-45.35
-49.83
-54.47
-59.58
-65.15
-70.67
-75.12
-77.16
-75.6
-69.76
-59.92
-47.1
-32.79
-18.38
-4.87
7.28
17.95
27.04
34.37
39.72
42.97
44.32
44.24
43.46
42.58
42.06
42.02
42.3
42.65
42.86
42.88
42.84
42.98
43.36
43.9
44.21
43.87
42.57
40.28
37.24
33.85
30.44
27.12
23.73
20.02
15.82
11.19
6.47
2.1
-1.62
-4.7
-7.48
-10.45
-13.95
-18.03
-22.3
-26.26
-29.54
-32.05
-34.04
-35.83
-37.59
-39.36
-41.14
-43.01
-45.23
-47.92
-50.69
-52.53
-52.09
-48.2
-40.55
-29.96
-18.18
-7.15
1.74
8.07
12.3
15.24
17.52
19.17
19.62
18.17
14.35
8.27
0.71
-7.2
-14.39
-20.4
-25.5
-30.74
-37.48
-46.94
-59.73
-75.69
-93.98
-113.5
-133.43
-153.79
-175.58
-200.47
-230.08
-265.12
-304.55
-345.36
-382.81
-411.22
-425.11
-420.34
-394.97
-349.67
-287.57
-213.53
-133.13
-51.45
27.79
102.39
171.2
233.07
286
326.91
352.48
360.45
350.97
327.24
294.76
259.87
227.73
201
179.71
162.3
147.06
133.28
121.43
112.42
106.75
103.82
102.19
100.38
97.7
94.55
91.95
90.74
90.97
91.8
91.94
90.33
86.55
80.83
73.76
65.86
57.39
48.36
38.57
27.74
15.6
2.04
-12.84
-28.61
-44.68
-60.3
-74.87
-88.02
-99.5
-108.98
-115.81
-119.21
-118.44
-113.31
-104.38
-92.98
-80.78
-69.24
-59.14
-50.54
-43.06
-36.25
-29.98
-24.45
-20
-16.85
-14.91
-13.87
-13.31
-12.93
-12.6
-12.25
-11.9
-11.59
-11.33
-11.13
-10.99
-10.96
-11.06
-11.36
-11.99
-13.13
-14.97
-17.57
-20.9
-24.83
-29.12
-33.51
-37.64
-40.97
-42.91
-42.98
-41.04
-37.45
-33.14
-29.24
-26.63
-25.58
-25.5
-25.02
-22.38
-16.11
-5.6
8.58
24.78
40.61
53.68
62.28
65.69
64.27
59.06
51.39
42.46
33.25
24.33
16.15
9.1
3.49
-0.47
-2.8
-3.78
-3.91
-3.62
-3.22
-2.73
-1.91
-0.57
1.36
3.71
6.08
8.01
9.13
9.23
8.34
6.67
4.48
2.09
-0.3
-2.67
-5.18
-8.07
-11.47
-15.26
-19.09
-22.56
-25.45
-27.91
-30.48
-33.62
-37.45
-41.35
-44.09
-44.21
-40.77
-33.75
-24.08
-13.3
-2.84
6.35
13.97
20.17
25.17
29.08
31.85
33.48
33.99
33.66
32.82
31.82
30.96
30.45
30.41
30.88
31.76
32.77
33.58
33.81
33.23
31.86
29.87
27.57
25.21
22.92
20.65
18.28
15.62
12.53
8.96
4.99
0.75
-3.57
-7.86
-12.06
-16.18
-20.33
-24.67
-29.23
-34.02
-38.91
-43.59
-47.46
-49.74
-49.58
-46.4
-40.15
-31.35
-21.02
-10.28
-0.02
9.23
17.26
24
29.36
33.29
35.94
37.72
39.3
41.28
44.02
47.38
50.88
53.94
56.17
57.58
58.57
59.62
61.09
62.89
64.61
65.67
65.64
64.33
61.77
58.09
53.27
47.25
39.87
30.99
20.46
7.91
-7.28
-25.9
-48.39
-74.23
-101.37
-126.47
-145.48
-154.61
-151.32
-134.56
-104.57
-62.32
-9.37
51.88
117.26
180.58
234.28
271.34
287.87
284.58
266.55
240.94
214.28
190.02
168.35
147.49
125.39
101.09
74.83
47.46
20.06
-6.14
-29.37
-47.31
-58.08
-61.54
-59.9
-57.25
-57.85
-64.15
-75.79
-90.2
-104.04
-114.9
-122.02
-125.74
-126.6
-124.56
-119.09
-110.01
-98.32
-86.22
-76.56
-71.68
-72.2
-76.97
-83.55
-89.1
-91.52
-89.95
-84.75
-77.04
-68.05
-58.54
-48.71
-38.41
-27.62
-16.76
-6.79
1.21
6.42
8.75
8.86
7.88
6.92
6.74
7.39
8.4
9.01
8.52
6.53
3.14
-1.2
-5.98
-10.83
-15.88
-21.69
-29
-38.26
-49.43
-61.71
-73.81
-84.12
-91.11
-93.64
-91.17
-83.94
-72.85
-59.39
-45.15
-31.53
-19.32
-8.61
1.13
10.64
20.56
31.18
42.31
53.38
63.62
72.22
78.58
82.41
83.8
83.18
81.18
78.37
75.19
71.81
68.19
64.17
59.54
54.15
48.01
41.27
34.21
27.25
20.78
15.01
9.9
5.17
0.33
-5.03
-11.17
-17.92
-24.65
-30.5
-34.74
-36.97
-37.41
-36.73
-35.83
-35.56
-36.4
-38.33
-40.84
-43.1
-44.08
-42.8
-38.6
-31.35
-21.53
-10.14
1.62
12.64
22.29
30.41
37.19
42.88
47.6
51.36
54.14
56.15
57.86
59.94
62.98
67.21
72.34
77.66
82.28
85.56
87.32
87.98
88.26
88.92
90.44
92.95
96.16
99.43
101.68
101.44
97.07
87.14
70.95
49.05
23.26
-3.78
-29.28
-51.1
-68.13
-80.19
-87.68
-91.1
-90.83
-87.08
-80.3
-71.32
-61.33
-51.74
-43.64
-37.51
-33.1
-29.66
-26.41
-23
-19.66
-17.04
-15.8
-16.16
-17.76
-19.84
-21.58
-22.46
-22.44
-21.75
-20.78
-19.8
-18.92
-18.22
-17.81
-17.85
-18.43
-19.5
-20.89
-22.42
-24.04
-25.92
-28.22
-31.01
-34.07
-36.98
-39.42
-41.32
-42.92
-44.69
-46.95
-49.78
-52.9
-55.86
-58.17
-59.37
-58.9
-56.18
-50.68
-42.19
-31.1
-18.45
-5.69
5.78
14.96
21.54
25.77
28.14
29.15
29.18
28.45
27.18
25.66
24.08
22.48
20.82
18.97
16.89
14.77
12.97
11.84
11.49
11.74
12.13
12.21
11.7
10.61
9.14
7.53
5.93
4.41
2.95
1.53
0.14
-1.29
-2.83
-4.53
-6.36
-8.12
-9.63
-10.74
-11.53
-12.32
-13.55
-15.55
-18.36
-21.68
-24.92
-27.43
-28.8
-29.05
-28.64
-28.37
-29.05
-31.11
-34.5
-38.66
-42.85
-46.44
-49.07
-50.76
-51.79
-52.56
-53.48
-54.85
-56.71
-58.67
-59.78
-58.82
-54.64
-46.63
-35.15
-21.42
-7.14
6.07
17.1
25.53
31.45
35.19
37.19
37.88
37.73
37.18
36.56
35.98
35.32
34.3
32.78
30.84
28.83
27.22
26.3
26.11
26.31
26.46
26.03
24.75
22.54
19.52
15.96
12.14
8.4
4.99
2.08
-0.35
-2.49
-4.69
-7.33
-10.53
-14.15
-17.66
-20.54
-22.38
-23.2
-23.42
-23.61
-24.28
-25.51
-27.06
-28.46
-29.45
-30.08
-30.85
-32.4
-35.25
-39.51
-44.81
-50.4
-55.14
-57.83
-57.31
-52.77
-44.09
-31.92
-17.66
-3.14
9.89
20.24
27.5
31.86
33.95
34.32
33.46
31.69
29.34
26.76
24.35
22.47
21.32
20.94
21.14
21.61
21.94
21.82
21.13
20
18.78
17.76
17.08
16.51
15.67
14.19
12
9.41
6.91
5.01
3.96
3.73
3.95
4.08
3.54
1.86
-1.08
-5.03
-9.36
-13.4
-16.63
-18.91
-20.59
-22.28
-24.6
-27.97
-32.48
-37.84
-43.49
-48.54
-51.84
-52.27
-48.96
-41.76
-31.4
-19.38
-7.54
2.48
9.66
13.86
15.68
16.17
16.36
16.97
18.25
20.09
22.1
23.97
25.5
26.68
27.64
28.5
29.29
30
30.57
30.97
31.23
31.42
31.54
31.47
31.01
29.78
27.46
23.85
19.01
13.21
6.93
0.68
-5.02
-9.83
-13.59
-16.41
-18.57
-20.48
-22.53
-24.99
-27.98
-31.44
-35
-38.06
-39.74
-39.09
-35.34
-28.15
-17.88
-5.56
7.26
18.98
28.32
34.74
38.27
39.43
38.86
37.18
34.84
32.17
29.5
27.16
25.51
24.78
24.97
25.8
26.84
27.65
27.9
27.56
26.71
25.5
23.99
22.1
19.74
16.89
13.76
10.76
8.4
7.05
6.74
7.11
7.49
7.21
5.85
3.41
0.32
-2.78
-5.36
-7.16
-8.29
-9.11
-10.01
-11.24
-12.82
-14.56
-16.22
-17.58
-18.57
-19.37
-20.34
-21.84
-24.08
-26.95
-30.04
-32.78
-34.76
-35.93
-36.65
-37.53
-39.19
-41.9
-45.41
-49.01
-51.6
-51.92
-48.91
-42.01
-31.43
-18.25
-4.12
9.05
19.7
26.97
30.77
31.64
30.37
27.7
24.2
20.33
16.49
13.16
10.87
9.9
10.23
11.39
12.7
13.48
13.36
12.28
10.5
8.29
5.86
3.23
0.35
-2.8
-6.13
-9.52
-12.78
-15.87
-18.91
-22.11
-25.79
-30.16
-35.22
-40.56
-45.35
-48.27
-47.9
-43.18
-33.96
-21.12
-6.49
7.8
20.04
29.38
35.89
40.19
42.8
43.88
43.25
40.8
36.86
32.25
28
24.81
22.79
21.48
20.21
18.56
16.58
14.64
13.12
12.15
11.42
10.36
8.39
5.14
0.55
-5.08
-11.28
-17.45
-22.98
-27.44
-30.69
-32.93
-34.78
-37.06
-40.47
-45.35
-51.31
-57.2
-61.31
-61.85
-57.59
-48.28
-34.76
-18.69
-2.11
13.14
25.87
35.55
42.35
46.84
49.68
51.48
52.66
53.38
53.66
53.48
52.82
51.82
50.66
49.48
48.41
47.48
46.66
45.99
45.48
45.07
44.58
43.76
42.25
39.83
36.54
32.7
28.81
25.3
22.43
20.15
18.16
16.08
13.72
11.08
8.31
5.58
2.87
0.1
-2.88
-6.07
-9.32
-12.44
-15.27
-17.93
-20.63
-23.66
-27.15
-30.96
-34.82
-38.55
-42.24
-46.23
-51.01
-56.74
-63.21
-69.85
-75.96
-81.15
-85.53
-89.64
-94.15
-99.61
-106.26
-114
-122.42
-130.75
-137.83
-142.2
-142.47
-137.77
-128.35
-115.65
-101.97
-89.61
-80.08
-73.53
-69
-64.99
-60.4
-55.02
-49.6
-45.33
-43.22
-43.61
-45.94
-49.19
-52.3
-54.62
-55.97
-56.25
-55.02
-51.18
-43.05
-28.89
-7.57
21
55.78
94.85
135.79
175.74
211.58
240.32
259.73
269.06
269.51
263.76
254.99
245.69
236.95
228.4
218.96
207.4
192.75
174.4
151.82
124.6
92.73
56.98
19.01
-18.77
-53.74
-83.8
-107.75
-125.67
-138.7
-148.65
-157.13
-164.88
-171.33
-174.86
-173.66
-166.52
-153.53
-136
-115.96
-95.49
-76.17
-58.86
-43.78
-30.73
-19.35
-9.38
-0.7
6.62
12.46
16.82
19.94
22.37
24.61
27.03
29.67
32.3
34.72
36.9
39.08
41.54
44.39
47.28
49.65
50.92
50.8
49.41
47.13
44.37
41.35
38.14
34.65
30.98
27.38
24.12
21.34
18.83
16.23
13.17
9.56
5.64
1.94
-1.08
-3.29
-4.98
-6.81
-9.45
-13.29
-18.11
-23.08
-26.92
-28.32
-26.39
-20.95
-12.6
-2.48
8.07
17.93
26.42
33.36
38.97
43.6
47.61
51.08
53.9
55.83
56.66
56.35
55.02
52.99
50.65
48.37
46.34
44.74
43.65
43.15
43.29
43.96
44.88
45.65
45.89
45.3
43.79
41.45
38.34
34.63
30.42
25.85
21.09
16.3
11.55
6.74
1.78
-3.41
-8.68
-13.67
-18.04
-21.63
-24.74
-27.95
-31.96
-37.25
-43.74
-50.74
-57.06
-61.26
-62.1
-58.89
-51.65
-41.1
-28.51
-15.31
-2.79
8.24
17.44
24.97
31.18
36.42
40.93
44.74
47.71
49.66
50.48
50.16
48.9
46.96
44.7
42.47
40.57
39.25
38.65
38.74
39.25
39.68
39.37
37.76
34.59
30.03
24.65
19.21
14.39
10.55
7.59
5
2.14
-1.44
-5.87
-10.8
-15.71
-20.06
-23.55
-26.31
-28.8
-31.64
-35.34
-40.07
-45.39
-50.38
-53.78
-54.43
-51.62
-45.35
-36.38
-25.95
-15.26
-5.17
3.88
11.84
18.63
24.18
28.4
31.24
32.85
33.5
33.54
33.27
32.94
32.68
32.54
32.53
32.48
32.17
31.4
30.06
28.22
26.1
23.92
21.72
19.31
16.34
12.47
7.63
2.06
-3.67
-8.93
-13.29
-16.7
-19.45
-22.03
-24.84
-28.14
-31.94
-36.23
-40.86
-45.55
-49.73
-52.45
-52.57
-49.23
-42.29
-32.48
-21.36
-10.64
-1.63
5.19
10.18
14.1
17.57
20.85
23.63
25.41
25.87
25.09
23.51
21.72
20.11
18.7
17.31
15.69
13.77
11.81
10.14
8.97
8.21
7.39
5.87
3.22
-0.67
-5.55
-10.93
-16.3
-21.37
-25.93
-30.03
-33.84
-37.62
-41.76
-46.75
-52.95
-60.44
-68.66
-76.42
-82.16
-84.6
-83.21
-78.57
-72.14
-65.71
-60.78
-58.07
-57.41
-58.15
-59.57
-61.1
-62.44
-63.44
-64.15
-64.9
-66.39
-69.34
-74.21
-80.69
-87.52
-92.96
-95.46
-94.33
-89.92
-83.03
-74.1
-62.81
-48.11
-28.98
-5.54
20.75
47.3
71.35
90.86
105.01
113.9
118.11
118.22
114.52
107.31
97.06
84.43
70.09
54.64
38.59
22.63
7.94
-4.01
-11.64
-13.78
-10.19
-1.56
10.61
24.5
38.36
50.71
60.46
67.05
70.43
70.94
69.3
66.32
62.57
58.37
53.82
49.01
44.31
40.27
37.33
35.6
34.81
34.5
34.41
34.5
34.92
35.77
36.67
36.88
35.7
32.89
28.99
25.29
23.16
23.53
26.5
31.3
36.75
41.78
45.69
48.3
49.86
50.78
51.29
51.56
51.6
51.42
50.91
49.58
46.48
40.4
30.22
15.45
-3.22
-23.96
-44.16
-61.41
-74.15
-81.97
-85.33
-85.16
-82.31
-77.37
-70.92
-63.55
-55.92
-48.68
-42.2
-36.58
-31.73
-27.45
-23.5
-19.79
-16.2
-12.63
-9.04
-5.46
-1.88
1.75
5.67
10.2
15.43
21.17
26.9
31.92
35.61
37.58
37.78
36.51
34.2
31.39
28.53
26.01
24.06
22.74
21.97
21.64
21.61
21.62
21.33
20.21
17.57
12.65
4.83
-6.03
-19.46
-34.5
-50.07
-65.4
-80.18
-94.28
-107.49
-119.17
-128.25
-133.49
-134.04
-129.63
-120.86
-108.94
-95.46
-82.09
-70.35
-61.45
-56.17
-54.71
-56.64
-60.95
-66.33
-71.46
-75.27
-77.34
-78.07
-78.54
-79.86
-82.4
-85.21
-86.25
-83.11
-74.15
-59.39
-40.53
-20.29
-1.2
15.54
30.41
45.23
62.21
83.02
108.04
136.3
165.39
191.96
212.32
223.41
223.75
214.16
197.51
177.69
158.04
139.91
122.32
102.79
79.08
50.67
19.36
-11.55
-38.84
-60.61
-77
-89.53
-100.18
-110.42
-120.91
-131.77
-143.04
-155
-167.97
-181.91
-195.84
-207.48
-213.49
-210.17
-194.71
-166.3
-126.72
-80.12
-31.84
12.99
50.84
80.24
101.66
116.68
127.16
134.69
140.37
144.7
147.68
148.89
147.7
143.76
137.41
129.8
122.66
117.67
115.79
116.96
120.3
124.61
128.89
132.58
135.37
136.84
136.35
133.11
126.65
117.2
105.92
94.53
84.76
77.67
73.33
70.85
68.69
65.03
58.33
47.56
32.45
13.69
-7.05
-27.3
-44.32
-56.04
-61.88
-63.06
-62.2
-62.28
-65.36
-71.86
-80.58
-89.49
-96.74
-101.42
-103.57
-103.79
-102.59
-100.02
-95.93
-90.31
-83.69
-77.09
-71.67
-68.26
-67.02
-67.47
-68.69
-69.76
-69.97
-68.91
-66.59
-63.24
-59.33
-55.42
-52.04
-49.53
-47.99
-47.3
-47.23
-47.57
-48.3
-49.55
-51.55
-54.56
-58.75
-64.12
-70.45
-77.21
-83.58
-88.39
-90.34
-88.27
-81.51
-70.2
-55.37
-38.7
-22.06
-6.98
5.72
15.9
23.91
30.27
35.32
39.12
41.61
42.73
42.59
41.51
39.88
37.99
36.03
34.05
32.05
30.04
28.14
26.53
25.27
24.24
23.04
21.1
17.87
13.13
7.09
0.4
-6.2
-12.13
-17.26
-21.9
-26.59
-31.92
-38.25
-45.55
-53.23
-60.23
-65.1
-66.39
-63.04
-54.78
-42.32
-27.2
-11.33
3.55
16.31
26.68
35.03
42.02
48.12
53.42
57.58
60.13
60.78
59.71
57.51
54.97
52.73
51
49.62
48.22
46.59
44.79
43.03
41.45
39.89
37.88
34.86
30.37
24.35
17.08
9.16
1.26
-6.03
-12.39
-17.84
-22.67
-27.37
-32.54
-38.67
-46.01
-54.34
-62.93
-70.43
-75.24
-75.88
-71.42
-61.91
-48.39
-32.57
-16.32
-1.12
12.27
23.64
33.2
41.17
47.64
52.51
55.63
57.03
56.97
55.96
54.66
53.59
52.92
52.38
51.39
49.36
46.08
41.8
37.13
32.7
28.87
25.47
22.02
17.97
13.02
7.36
1.45
-4.1
-8.91
-12.95
-16.6
-20.41
-24.89
-30.32
-36.63
-43.48
-50.26
-56.14
-60.1
-60.99
-57.77
-49.87
-37.51
-21.74
-4.34
12.79
28.09
40.69
50.47
57.77
63.03
66.6
68.72
69.62
69.66
69.33
69.08
69.08
69.2
69.04
68.09
66.06
62.97
59.2
55.34
51.84
48.74
45.65
41.83
36.57
29.55
21.01
11.74
2.65
-5.5
-12.46
-18.42
-23.88
-29.43
-35.52
-42.43
-50.17
-58.45
-66.58
-73.51
-77.92
-78.48
-74.3
-65.2
-51.88
-35.85
-19.07
-3.43
9.62
19.4
25.96
29.84
31.76
32.36
32.14
31.46
30.59
29.77
29.14
28.71
28.36
27.95
27.32
26.4
25.19
23.72
21.98
19.93
17.46
14.43
10.66
6.03
0.62
-5.22
-10.95
-16.01
-20.07
-23.32
-26.43
-30.32
-35.75
-42.87
-51.02
-58.78
-64.32
-65.94
-62.66
-54.48
-42.34
-27.86
-12.78
1.42
13.86
24.16
32.31
38.42
42.56
44.85
45.45
44.68
43.05
41.05
39.11
37.39
35.87
34.47
33.13
31.95
31.06
30.58
30.35
29.97
28.78
26.19
21.91
16.08
9.32
2.5
-3.59
-8.52
-12.43
-15.89
-19.71
-24.62
-31
-38.8
-47.43
-55.76
-62.33
-65.49
-63.86
-56.84
-44.93
-29.77
-13.69
1.01
12.72
20.85
25.74
28.2
29.01
28.67
27.42
25.38
22.83
20.15
17.7
15.63
13.86
12.15
10.29
8.35
6.47
4.87
3.5
1.95
-0.35
-3.87
-8.69
-14.38
-20.24
-25.68
-30.56
-35.2
-40.33
-46.72
-54.99
-65.29
-77.26
-90
-101.99
-111.31
-116.02
-114.79
-107.49
-95.31
-80.27
-64.38
-48.89
-33.94
-18.73
-2.2
16.3
36.69
58.09
79.21
98.72
115.38
128.16
136.21
138.94
136.2
128.46
116.72
102.44
87.23
72.51
59.17
47.42
36.82
26.72
16.81
7.51
0.07
-3.75
-2.52
4.11
14.78
26.69
36.42
41.13
39.54
32.34
21.86
11.17
2.95
-1.16
-0.93
2.76
8.33
14.09
18.54
20.72
20.16
17.04
11.97
5.89
-0.04
-4.68
-7.05
-6.57
-3.09
2.96
10.79
19.44
28.03
35.93
42.85
48.6
52.89
55.19
54.78
50.94
43.25
31.76
17.09
0.33
-17.16
-34
-49.14
-61.94
-72.2
-79.93
-85.09
-87.36
-86.25
-81.23
-72.15
-59.42
-44.08
-27.53
-11.22
3.64
16.25
26.11
32.95
36.71
37.53
35.82
32.26
27.77
23.31
19.58
17.02
15.72
15.54
16.23
17.48
18.86
19.86
19.86
18.36
15.08
10.15
4.09
-2.41
-8.6
-13.97
-18.32
-21.77
-24.6
-27.18
-29.93
-33.13
-36.75
-40.34
-42.97
-43.39
-40.43
-33.45
-22.7
-9.45
4.42
17.04
27.05
33.93
37.92
39.5
39.13
36.98
33.06
27.45
20.3
11.9
2.47
-7.76
-18.5
-29.18
-38.9
-46.68
-51.7
-53.81
-53.51
-51.81
-49.78
-48.15
-47.14
-46.55
-46.02
-45.25
-44.12
-42.76
-41.42
-40.49
-40.44
-41.62
-44.05
-47.22
-50.06
-51.18
-49.29
-43.71
-34.65
-23.16
-10.74
1.19
11.73
20.57
27.81
33.71
38.37
41.66
43.28
43.07
41.13
37.91
34
29.98
26.29
23.09
20.47
18.46
17.21
16.79
17.11
17.81
18.23
17.75
15.94
12.94
9.45
6.43
4.69
4.54
5.59
6.88
7.23
5.57
1.42
-5.04
-12.9
-20.9
-27.65
-32.2
-34.35
-34.74
-34.61
-35.19
-37.22
-40.73
-45.11
-49.6
-53.75
-57.67
-61.79
-66.54
-71.94
-77.47
-82.29
-85.54
-86.79
-86.07
-83.77
-80.25
-75.54
-69.37
-61.34
-51.3
-39.68
-27.5
-16.09
-6.59
0.49
5.35
8.7
11.35
13.84
16.34
18.66
20.52
21.79
22.43
22.49
21.92
20.63
18.59
16.09
13.87
13.09
14.96
20.31
29.15
40.58
53.04
64.82
74.49
81.22
84.67
84.88
81.97
76.04
67.36
56.46
44.2
31.75
20.29
10.67
3.22
-2.29
-6.44
-9.88
-13.04
-16.03
-18.68
-20.71
-22.02
-22.68
-23
-23.42
-24.35
-26.02
-28.5
-31.58
-34.87
-38
-40.71
-43.01
-45.23
-47.82
-51.22
-55.64
-60.82
-66.03
-70.14
-71.83
-70.02
-64.25
-54.88
-43.04
-30.31
-18.14
-7.45
1.6
9.39
16.42
22.93
28.78
33.51
36.69
38.23
38.44
37.99
37.62
37.83
38.74
40.13
41.44
42.16
42.06
41.14
39.69
38.04
36.34
34.48
32.23
29.28
25.51
21
16.09
11.21
6.77
2.98
-0.21
-3.06
-5.99
-9.37
-13.45
-18.25
-23.58
-29.08
-34.27
-38.47
-40.79
-40.28
-36.14
-28.17
-16.94
-3.72
9.88
22.49
33.34
42.38
49.92
56.26
61.41
65.11
67.19
67.79
67.51
67.11
67.3
68.27
69.76
71.16
71.79
71.25
69.49
66.82
63.74
60.68
57.8
54.77
50.87
45.09
36.59
24.98
10.54
-5.89
-23.27
-40.73
-57.77
-74.34
-90.54
-106.36
-121.56
-135.72
-148.25
-158.47
-165.62
-168.81
-167.17
-160.22
-148.03
-131.49
-111.98
-91.05
-69.95
-49.35
-29.35
-9.89
9
26.98
43.48
57.91
69.91
79.41
86.57
91.64
94.88
96.5
96.77
96
94.5
92.49
89.9
86.45
81.79
75.64
68.06
59.39
50.17
41.01
32.44
24.76
17.99
11.83
5.75
-0.77
-8.04
-15.95
-23.9
-30.85
-35.63
-37.28
-35.26
-29.71
-21.37
-11.44
-1.3
7.81
14.99
19.93
22.72
23.72
23.33
21.86
19.59
16.81
13.96
11.47
9.68
8.73
8.54
8.92
9.7
10.69
11.74
12.57
12.74
11.83
9.6
6.2
2.14
-1.85
-5.09
-7.08
-7.68
-7.07
-5.63
-3.95
-2.63
-2.17
-2.86
-4.57
-6.76
-8.61
-9.35
-8.63
-6.86
-5.14
-4.9
-7.27
-12.4
-19.24
-25.88
-30.31
-31.24
-28.59
-23.35
-16.94
-10.49
-4.41
1.52
7.83
14.8
22.26
29.58
36.06
41.08
44.38
46.04
46.22
45.15
42.97
39.69
35.2
29.51
22.78
15.45
8.07
1.1
-5.33
-11.49
-17.85
-24.7
-31.91
-38.77
-44.25
-47.36
-47.65
-45.37
-41.45
-37.2
-33.87
-32.36
-33.01
-35.57
-39.29
-43.28
-46.65
-48.79
-49.49
-48.82
-46.98
-44.16
-40.23
-34.74
-26.98
-16.14
-1.58
16.88
38.66
62.3
85.52
105.48
119.3
124.59
120.07
106.03
84.37
58.24
31.14
5.93
-15.88
-34.29
-50.3
-64.98
-78.81
-91.41
-101.89
-109.54
-114.26
-116.55
-116.98
-115.83
-112.83
-107.5
-99.69
-89.9
-79.24
-69.08
-60.5
-53.86
-48.79
-44.46
-39.99
-34.84
-28.81
-22.15
-15.37
-9.24
-4.56
-2.03
-2.09
-4.78
-9.67
-15.97
-22.82
-29.47
-35.58
-41.2
-46.69
-52.57
-59.28
-67.09
-75.86
-85.04
-93.53
-99.85
-102.48
-100.19
-92.51
-79.88
-63.65
-45.74
-28.19
-12.68
-0.15
9.1
15.44
19.5
22.05
23.69
24.8
25.59
26.07
26.18
25.85
25.11
24.06
22.84
21.45
19.67
17.09
13.37
8.5
2.99
-2.25
-6.31
-8.59
-8.76
-6.69
-2.12
5.31
15.63
28.19
41.54
54
64.54
73.54
82.78
94.52
110.04
128.68
147.66
163.22
172.02
172.42
164.93
151.64
135.19
117.67
100.07
82.36
64.05
44.82
24.91
5.03
-13.87
-31.11
-46.48
-60.28
-72.99
-84.96
-96.03
-105.45
-112.02
-114.43
-111.69
-103.41
-89.87
-71.89
-50.74
-27.94
-5.19
15.72
33.15
45.99
54.09
58.36
60.63
62.95
66.74
72.37
78.93
84.83
88.62
89.58
87.98
84.73
80.78
76.72
72.55
67.87
62.17
55.13
46.66
36.86
25.91
13.94
1.21
-11.94
-25.05
-37.58
-49.1
-59.4
-68.52
-76.71
-84.27
-91.35
-97.88
-103.72
-108.66
-112.75
-116.29
-119.74
-123.38
-127.11
-130.21
-131.54
-129.83
-124.06
-113.84
-99.41
-81.66
-61.86
-41.42
-21.71
-3.86
11.16
22.69
30.37
34.26
34.95
33.48
31.21
29.36
28.82
29.89
32.26
35.31
38.4
41.07
43.21
44.82
45.98
46.68
46.87
46.44
45.36
43.66
41.46
38.87
35.96
32.66
28.79
24.22
19.05
13.89
9.79
7.99
9.35
13.94
21.01
29.18
37.06
43.71
48.89
52.83
55.86
58.14
59.57
59.95
59.24
57.54
55.12
52.32
49.32
46.25
43.23
40.4
37.93
36.01
34.75
34.07
33.75
33.32
32.26
30.12
26.67
22.12
16.99
11.96
7.45
3.38
-0.89
-6.16
-12.93
-20.85
-28.64
-34.4
-36.3
-33.33
-25.67
-14.64
-2.1
10.14
20.84
29.45
35.92
40.42
43.14
44.33
44.27
43.43
42.38
41.54
41.12
41.02
40.98
40.67
39.88
38.62
37
35.23
33.35
31.2
28.37
24.41
18.99
12.14
4.2
-4.26
-12.66
-20.57
-27.84
-34.5
-40.65
-46.35
-51.47
-55.73
-58.65
-59.58
-57.9
-53.24
-45.69
-35.91
-24.97
-14.03
-4.03
4.46
11.25
16.34
19.75
21.58
21.96
21.28
20.05
18.89
18.27
18.37
19.11
20.17
21.17
21.78
21.84
21.48
21
20.74
20.84
21.08
20.89
19.53
16.41
11.32
4.56
-3.26
-11.35
-19.07
-25.96
-31.87
-36.8
-40.85
-44.11
-46.43
-47.5
-46.81
-43.91
-38.6
-31.1
-22.04
-12.35
-2.98
5.33
12.23
17.86
22.59
26.94
31.19
35.33
39.04
41.84
43.41
43.69
42.94
41.46
39.45
36.76
33.11
28.25
22.16
15.19
7.9
0.93
-5.15
-9.89
-13.06
-14.55
-14.51
-13.37
-11.72
-10.24
-9.51
-9.88
-11.48
-14.23
-17.74
-21.23
-23.63
-23.71
-20.63
-14.24
-5.32
4.67
14.04
21.45
26.26
28.55
28.88
27.96
26.25
23.99
21.2
17.82
13.94
9.88
6.14
3.26
1.63
1.22
1.66
2.35
2.79
2.77
2.51
2.52
3.32
5.18
8.01
11.37
14.59
16.92
17.74
16.78
14.22
10.78
7.55
5.67
5.94
8.56
13.14
18.87
24.86
30.33
34.75
37.77
39.1
38.54
36
31.54
25.5
18.37
10.72
3.09
-4.08
-10.55
-16.18
-20.93
-24.82
-27.78
-29.75
-30.61
-30.4
-29.32
-27.74
-26.07
-24.5
-22.95
-20.94
-17.87
-13.37
-7.69
-1.84
2.56
3.85
1.05
-5.48
-13.95
-21.59
-25.65
-24.48
-18.1
-8.15
2.94
13.06
21.24
27.94
34.57
42.61
52.71
64.1
74.6
81.13
80.46
70.07
49.09
19.12
-15.35
-47.07
-67.4
-68.57
-46.44
-2.63
55.22
115.39
165.74
197.49
207.54
198.37
175.87
146.54
115.3
85.02
57.11
32.52
12.16
-3.37
-14.5
-23.01
-31.55
-42.59
-57.14
-74.28
-91.41
-105.37
-113.74
-115.89
-113.02
-107.52
-101.82
-97.35
-94.18
-91.26
-87.33
-81.71
-74.62
-67.09
-60.3
-55.11
-51.76
-50.04
-49.49
-49.64
-50.07
-50.48
-50.66
-50.44
-49.84
-48.91
-47.86
-46.95
-46.37
-46.23
-46.47
-46.87
-47.15
-47.1
-46.63
-45.98
-45.54
-45.77
-46.99
-49.14
-51.7
-53.85
-54.61
-53.21
-49.29
-43.03
-35.11
-26.54
-18.33
-11.19
-5.42
-0.85
2.86
5.97
8.53
10.36
11.26
11.17
10.34
9.25
8.41
8.2
8.67
9.62
10.66
11.47
11.94
12.22
12.51
13.01
13.63
14.08
13.93
12.82
10.65
7.75
4.67
1.97
0.03
-1.04
-1.43
-1.37
-1.17
-1.13
-1.47
-2.35
-3.66
-4.84
-5
-3.12
1.53
8.98
18.4
28.48
37.89
45.78
51.99
56.87
60.87
64.36
67.41
69.98
72.07
73.8
75.33
76.8
78.22
79.58
80.94
82.42
84.19
86.31
88.51
90.31
90.97
89.64
85.46
77.7
65.84
49.76
30.09
8.16
-14.17
-34.88
-52.4
-65.94
-75.61
-82.15
-86.48
-89.36
-91.19
-92.09
-92.16
-91.75
-91.41
-91.69
-92.8
-94.26
-94.95
-93.39
-88.31
-79.18
-66.52
-51.74
-36.65
-22.86
-11.27
-2.09
5
10.35
14.21
16.56
17.37
16.78
15.16
13
10.73
8.52
6.38
4.23
2.07
0.04
-1.67
-2.96
-3.84
-4.61
-5.64
-7.29
-9.75
-12.92
-16.46
-19.94
-22.99
-25.52
-27.75
-30.09
-32.9
-36.26
-39.9
-43.34
-46.08
-47.96
-49.16
-50.11
-51.31
-53.04
-55.37
-58.06
-60.75
-62.86
-63.61
-62
-57.07
-48.27
-35.95
-21.46
-6.74
6.2
16.15
22.99
27.49
30.72
33.41
35.63
37.06
37.35
36.58
35.28
34.1
33.51
33.44
33.48
33.18
32.32
31.08
29.93
29.29
29.29
29.66
29.84
29.19
27.28
24.13
20.16
16.05
12.43
9.56
7.22
4.88
1.98
-1.75
-6.09
-10.41
-14.04
-16.53
-17.95
-18.8
-19.81
-21.62
-24.55
-28.43
-32.64
-36.23
-38.06
-37.03
-32.39
-24.07
-12.77
0.05
12.61
23.27
31.02
35.71
37.89
38.44
38.14
37.4
36.22
34.47
32
28.85
25.24
21.48
17.87
14.6
11.67
8.92
6.1
2.93
-0.78
-5.09
-9.9
-15.03
-20.3
-25.61
-30.96
-36.45
-42.27
-48.59
-55.48
-62.62
-69.25
-74.07
-75.76
-73.33
-66.62
-56.5
-44.65
-32.98
-23.01
-15.49
-10.35
-6.95
-4.43
-1.95
1.21
5.56
11.36
18.43
26.08
33.17
38.48
41.08
40.72
37.8
33.11
27.26
20.26
11.55
0.38
-13.45
-29.21
-45.13
-59.12
-69.51
-75.79
-78.73
-79.97
-81.23
-83.49
-86.64
-89.5
-90.31
-87.4
-79.7
-67.08
-50.34
-31.11
-11.49
6.23
20.11
28.82
31.84
29.7
23.74
15.89
8.16
2.07
-1.68
-3.3
-3.64
-3.87
-5
-7.65
-11.86
-16.96
-21.75
-24.81
-24.79
-20.89
-13.1
-2.18
10.61
23.94
36.82
48.78
59.74
69.84
79.13
87.47
94.54
99.99
103.53
105.14
104.83
102.51
97.77
89.94
78.45
63.44
46.03
28.21
12.27
-0.08
-8.28
-12.97
-15.53
-17.28
-18.96
-20.76
-22.61
-24.67
-27.45
-31.71
-37.93
-46.06
-55.36
-64.75
-73.27
-80.44
-86.33
-91.24
-95.27
-97.85
-97.75
-93.53
-84.19
-69.8
-51.54
-31.34
-11.25
7.14
23.06
36.33
47.17
55.76
62.2
66.54
68.95
69.82
69.61
68.77
67.57
65.95
63.71
60.59
56.4
51.11
44.88
37.93
30.44
22.52
14.08
5.03
-4.57
-14.43
-24
-32.55
-39.55
-44.74
-48.34
-50.93
-53.25
-55.95
-59.48
-64.07
-69.75
-76.42
-83.69
-90.85
-96.8
-100.24
-99.92
-94.92
-84.82
-69.77
-50.47
-28.13
-4.41
18.61
38.75
54.17
63.81
67.71
67.04
63.69
59.7
56.62
55.13
54.93
55.04
54.38
52.17
48.5
44.26
40.81
39.41
40.45
43.2
45.96
46.75
44.07
37.56
27.99
16.91
5.97
-3.65
-11.49
-17.65
-22.61
-26.9
-30.9
-34.81
-38.46
-41.17
-41.79
-38.97
-31.63
-19.52
-3.48
14.73
33
49.51
63.17
73.57
80.78
84.97
86.27
84.83
81.03
75.62
69.6
63.98
59.3
55.55
52.25
48.72
44.59
39.98
35.36
31.33
28.14
25.4
22.32
18.07
12.31
5.41
-1.62
-7.68
-12.02
-14.59
-16
-17.2
-19.25
-22.95
-28.7
-36.46
-45.64
-55.03
-62.9
-67.38
-66.91
-60.93
-50.05
-35.95
-20.89
-6.98
4.42
12.91
18.94
23.33
26.81
29.71
32.03
33.57
34.32
34.5
34.61
35.14
36.4
38.31
40.53
42.56
44.04
44.75
44.66
43.68
41.64
38.26
33.28
26.66
18.71
10.07
1.53
-6.22
-12.92
-18.81
-24.56
-30.92
-38.4
-46.9
-55.71
-63.52
-68.83
-70.26
-66.9
-58.65
-46.19
-30.96
-14.77
0.54
13.65
23.97
31.6
37.02
40.73
42.98
43.78
43.15
41.37
39.03
36.95
35.79
35.84
37.01
38.89
41.09
43.36
45.61
47.79
49.84
51.46
52.31
52
50.15
46.48
40.94
33.77
25.5
16.9
8.74
1.44
-5.03
-11.02
-17.03
-23.24
-29.38
-34.78
-38.66
-40.46
-40.1
-37.97
-34.76
-31.19
-27.68
-24.35
-20.95
-17.16
-12.7
-7.5
-1.63
4.83
11.87
19.43
27.18
34.46
40.35
44.1
45.59
45.49
44.98
45.23
46.81
49.38
51.99
53.56
53.39
51.26
47.44
42.41
36.68
30.7
24.76
18.95
13.05
6.66
-0.7
-9.33
-19.09
-29.4
-39.23
-47.42
-52.95
-55.13
-53.81
-49.37
-42.7
-34.93
-27.21
-20.43
-14.99
-10.87
-7.75
-5.28
-3.28
-1.84
-1.19
-1.46
-2.47
-3.7
-4.53
-4.42
-3.27
-1.46
0.26
1.19
1
-0.11
-1.49
-2.43
-2.47
-1.69
-0.63
-0.07
-0.54
-2.11
-4.25
-6.07
-6.63
-5.35
-2.17
2.33
7.21
11.3
13.43
12.84
9.31
3.41
-3.62
-10.12
-14.76
-16.94
-17.25
-17.11
-18.15
-21.46
-27.12
-34.36
-42.14
-49.88
-57.89
-67.29
-79.23
-94.05
-110.52
-125.81
-135.83
-136.09
-122.56
-92.9
-47.71
8.71
68.52
121.95
160.19
178.46
177.98
165.53
150.82
142.6
145.53
159.05
178.72
198.9
215.21
225.51
229.29
226.42
216.13
197.11
168.49
130.76
86.13
37.93
-10.41
-56.29
-97.9
-133.56
-161.09
-177.78
-181.23
-170.61
-147.73
-116.88
-83.75
-53.71
-30.36
-15
-6.88
-4.12
-4.6
-6.45
-8.39
-9.71
-10.17
-10.06
-9.92
-10.25
-11.33
-12.94
-14.64
-16.02
-17.02
-17.94
-19.29
-21.46
-24.4
-27.6
-30.33
-32.02
-32.64
-32.86
-33.78
-36.48
-41.42
-48.21
-55.67
-62.37
-67.35
-70.59
-72.93
-75.7
-80.02
-86.53
-95.24
-105.62
-116.43
-125.43
-129.25
-124.13
-107.56
-80.03
-45.96
-12.68
12.11
23.58
21.71
11.01
-1.87
-11.22
-14.49
-12.54
-7.95
-2.98
1.82
7.65
16.08
27.66
41.12
53.93
63.54
68.71
70.15
69.96
70.39
72.44
75.3
76.9
75.1
68.95
59.25
48.1
37.8
29.81
24.23
20.05
16.01
11.24
5.7
0.02
-4.94
-8.57
-10.67
-11.44
-11.31
-10.66
-9.79
-8.8
-7.58
-5.92
-3.57
-0.32
3.85
8.75
14.02
19.36
24.67
30.2
36.42
43.93
53.01
63.44
74.45
84.83
93.31
98.89
101.04
99.84
95.94
90.35
84.27
78.58
73.58
68.79
63.04
55.08
44.21
30.76
16.12
2.24
-9.13
-17.11
-22.01
-25.08
-27.99
-32.15
-38.27
-46.27
-55.35
-64.39
-72.41
-78.84
-83.8
-88.01
-92.35
-97.55
-103.81
-110.74
-117.7
-124.03
-129.24
-133.03
-134.97
-134.28
-130.03
-121.51
-108.82
-93.12
-76.39
-60.78
-47.91
-38.36
-31.49
-25.91
-19.82
-11.41
0.74
17.32
37.9
60.74
82.8
100.33
109.77
108.98
98.12
79.94
58.99
40.05
26.28
18.07
13.03
7.36
-2.13
-16.3
-33.49
-50.23
-63.24
-70.86
-73.84
-74.55
-75.97
-80.61
-90.1
-105.46
-126.97
-154
-184.54
-215.22
-241.51
-258.49
-261.54
-247.1
-213.3
-160.44
-91.46
-11.82
71.34
150.52
219.44
273.8
311.24
330.7
332.14
316.5
286.43
246.7
203.46
162.72
128.41
101.44
79.98
61.04
42.08
21.99
1.31
-18.43
-35.45
-48.34
-56.16
-58.72
-56.57
-51.02
-43.77
-36.58
-30.84
-27.25
-25.87
-26.08
-26.79
-26.67
-24.39
-19.1
-10.8
-0.79
8.7
15.09
16.44
12.14
3.06
-8.89
-21.49
-32.95
-42.21
-48.86
-52.75
-53.78
-52.05
-47.88
-42.02
-35.54
-29.55
-24.96
-22.49
-22.69
-26.11
-33.1
-43.43
-55.74
-67.64
-76.03
-78.2
-72.77
-60.31
-43.07
-24.12
-6.19
9.06
21.17
30.53
37.67
42.9
46.1
47.05
45.73
42.72
39.06
36.01
34.51
34.72
35.86
36.64
35.75
32.61
27.54
21.58
15.91
11.3
7.74
4.48
0.4
-5.43
-13.57
-23.99
-36.15
-49.15
-61.66
-72.02
-78.47
-79.57
-74.75
-64.74
-51.44
-37.36
-24.72
-14.84
-7.88
-3.33
-0.7
0.03
-1.58
-5.87
-12.56
-20.45
-27.81
-32.99
-35.08
-34.22
-31.49
-28.36
-26.2
-25.89
-27.69
-31.26
-35.94
-41.09
-46.29
-51.68
-57.77
-65.36
-75.22
-87.79
-102.77
-118.93
-134.01
-144.96
-148.68
-143.12
-128.15
-106.02
-80.79
-56.99
-38.18
-25.94
-19.91
-18.53
-20.09
-23.43
-28.06
-33.76
-40.14
-46.4
-51.38
-53.96
-53.35
-49.28
-42.04
-32.46
-21.57
-10.44
0.02
9.14
16.33
20.91
22.03
18.97
11.37
-0.39
-15.17
-31.36
-47.17
-60.85
-70.69
-74.92
-71.99
-61.06
-42.74
-19.22
6.14
29.91
49.85
65.43
77.7
88.37
98.83
109.42
119.14
125.76
126.19
117.12
95.86
61.2
14.18
-41.63
-100.41
-155.18
-199.18
-227.54
-238.3
-232.77
-214.67
-188.73
-159.02
-127.96
-96.41
-64.59
-33.12
-3.43
22.45
42.87
57.12
65.5
69.05
69.13
67.36
65.69
66.45
71.72
82.63
98.9
118.87
140.31
161.14
179.96
195.79
207.79
215.19
217.61
215.49
210.13
203.34
196.78
191.54
187.95
185.81
184.6
183.45
181.16
176.33
167.65
154.54
137.35
117.17
95.23
72.37
49.04
25.64
3.04
-17.58
-35.21
-49.73
-62.04
-73.42
-84.65
-95.25
-103.69
-108.22
-108.1
-104.18
-98.52
-93.19
-89.14
-85.63
-80.81
-72.73
-60.47
-44.55
-26.54
-8.25
9.24
25.93
42.78
61.24
82.73
108.35
138.73
173.86
212.82
253.32
291.69
323.24
343.47
349.31
340
317.23
284.35
245.18
202.93
159.7
116.73
74.93
35.51
0.18
-29.11
-50.62
-63.38
-67.41
-63.71
-53.87
-39.85
-23.62
-7.06
8.24
21.13
31
37.95
42.77
46.79
51.38
57.57
65.53
74.65
83.71
91.37
96.62
99.05
98.95
97.29
95.38
94.6
95.79
98.72
101.65
101.35
93.66
74.63
42.14
-3.05
-56.88
-112.95
-164.32
-205.41
-233.38
-248.37
-252.75
-249.82
-242.78
-233.93
-224.66
-215.64
-206.96
-198.22
-188.67
-177.56
-164.51
-149.86
-134.57
-119.77
-106.27
-94.26
-83.5
-73.46
-63.72
-53.98
-44.03
-33.71
-22.9
-11.38
1.4
16.45
35.17
58.51
86.1
115.74
143.68
165.55
177.74
178.37
167.53
147.42
121.98
96.47
76.17
64.43
60.77
60.34
55.64
40.19
12.15
-24.44
-61.63
-92.04
-112.49
-125.04
-134.4
-144.06
-153.87
-160.64
-161.54
-157.21
-152.43
-153.25
-162.57
-177.34
-189.28
-188.86
-170.1
-133.34
-84.51
-31.87
17.67
60.52
96.02
124.79
146.98
162.06
169.2
168.44
160.92
148.64
133.85
118.69
105.25
95.44
90.74
91.41
96.21
102.56
107.5
108.89
106.09
100
92.27
84.52
77.67
71.77
66.39
60.97
55.2
48.94
42.06
34.47
26.65
20.07
17.15
20.54
31.68
49.42
69.82
87.09
95.67
92.39
77.48
54
26.29
-1.96
-28.75
-53.51
-76.2
-96.31
-112.55
-123.69
-129.62
-132.03
-134.21
-139.7
-150.54
-165.99
-182.66
-195.68
-200.75
-195.62
-180.48
-156.99
-126.82
-90.71
-48.93
-2.47
45.8
91.03
128.02
153.27
166.31
169.62
166.83
160.73
152.2
140.89
126.67
111
96.4
84.61
74.79
63
43.8
13.18
-29.09
-79
-130.28
-177.15
-216.57
-248.12
-272.27
-288.24
-293.32
-284.08
-258.84
-219.79
-173.18
-127.45
-90.2
-65.86
-54.64
-53.36
-57.22
-61.35
-61.93
-56.53
-44.19
-25.49
-2.49
21.69
43.86
61.57
73.89
81.26
84.91
86.01
85.12
82.2
76.84
68.66
57.55
44.1
29.74
16.8
8.1
5.94
11.21
22.76
37.67
52.24
63.39
69.4
70.16
66.72
60.63
53.45
46.44
40.2
34.55
28.54
20.96
11
-0.83
-12.7
-21.97
-26.48
-25.63
-20.82
-14.81
-10.51
-9.7
-12.33
-16.64
-19.74
-18.37
-9.67
8
34.22
65.83
96.95
120.14
128.35
117.31
87.42
44.18
-3.05
-43.88
-70.05
-77.75
-68.31
-47.05
-20.92
3.76
22.74
34.09
37.55
33.72
23.63
8.89
-8.11
-24.29
-36.57
-43.02
-43.64
-40.35
-36.05
-33.3
-33.18
-35.17
-37.64
-38.91
-38.22
-35.99
-33.29
-31.22
-30.08
-29.37
-28.2
-26.01
-22.99
-20.08
-18.34
-18.34
-19.86
-22.03
-23.77
-24.26
-23.13
-20.31
-15.95
-10.2
-3.37
4.15
12.08
20.65
30.78
43.98
61.64
84.14
110.26
137.15
161.09
178.63
187.68
187.9
180.5
167.47
150.74
131.8
111.61
90.91
70.51
51.33
34.2
19.54
7.04
-4.22
-15.31
-26.89
-38.75
-49.9
-59.13
-65.64
-69.55
-71.81
-73.72
-76.22
-79.5
-83.01
-85.86
-87.32
-87.17
-85.74
-83.72
-81.94
-81.11
-81.63
-83.55
-86.31
-88.91
-90.02
-88.54
-84.09
-77.21
-69.19
-61.5
-55.2
-50.45
-46.67
-42.85
-38.29
-32.98
-27.67
-23.42
-21.08
-20.76
-21.81
-23.09
-23.52
-22.51
-20.07
-16.64
-12.72
-8.54
-4.15
0.5
5.24
9.65
13.21
15.49
16.38
16.03
14.66
12.31
8.96
4.63
-0.23
-4.68
-7.52
-7.8
-5.28
-0.64
4.63
8.88
10.82
9.96
6.64
1.81
-3.45
-8.18
-11.72
-13.75
-14.23
-13.51
-12.26
-11.3
-11.11
-11.46
-11.12
-8.28
-1.26
10.6
26.43
44.18
61.36
76.13
87.9
97.19
104.88
111.48
116.8
120
120.29
117.32
111.59
104.19
96.47
89.5
83.47
77.59
70.15
59.32
43.86
23.88
0.83
-23.07
-45.7
-65.78
-83.07
-97.99
-110.94
-121.84
-130.14
-135.2
-136.81
-135.52
-132.62
-129.66
-127.96
-128.1
-129.75
-131.91
-133.33
-133.09
-130.86
-127.04
-122.38
-117.71
-113.7
-110.86
-109.66
-110.4
-112.93
-116.16
-117.77
-114.72
-104.05
-84.25
-56.16
-22.99
10.67
40.42
63.52
79.51
89.76
96.35
100.92
104.08
105.54
104.7
101.27
95.47
87.91
79.19
69.62
59.19
47.63
34.75
20.62
5.7
-9.24
-23.27
-35.76
-46.58
-56.11
-65.16
-74.39
-84.04
-93.76
-102.67
-109.68
-113.75
-113.99
-109.53
-99.62
-83.73
-61.96
-35.32
-5.72
24.36
52.49
76.92
96.81
112.1
123.28
131.1
136.46
140.54
144.66
150.09
157.47
166.62
176.26
184.49
189.32
189.23
183.69
173.26
159.21
143.28
127.06
111.77
98.13
86.43
76.63
68.61
62.14
56.87
52.29
47.64
41.95
34.31
23.97
10.54
-5.97
-25.21
-46.53
-69.12
-92.21
-115.24
-137.71
-158.99
-178
-192.92
-201.48
-201.63
-192.56
-175.28
-152.41
-127.03
-101.56
-77.24
-54.32
-32.87
-13.31
3.74
18.08
30.44
42.16
54.41
67.13
78.86
87.41
91.15
89.95
85.25
79.23
73.72
69.56
66.66
64.47
62.36
59.83
56.57
52.36
47.15
41.01
34.17
26.74
18.73
10.03
0.73
-8.64
-17.18
-23.79
-27.75
-28.96
-28.03
-26.03
-24.06
-23.1
-23.89
-27
-32.96
-42.14
-54.31
-68.34
-81.91
-91.9
-95.29
-90.29
-77.38
-59.36
-40.64
-25.72
-17.78
-17.9
-25
-36.55
-49.23
-59.5
-64.08
-60.38
-47.16
-25.19
2.48
31.23
55.89
72.34
78.5
74.63
62.78
46.06
27.53
9.69
-5.76
-18.07
-27.23
-33.78
-38.49
-42.15
-45.3
-48.26
-51.08
-53.45
-54.92
-54.95
-53.21
-49.77
-45.2
-40.6
-37.28
-36.44
-38.59
-43.3
-49.04
-53.39
-53.79
-48.26
-36.18
-18.63
1.88
22.2
39.47
52.02
59.68
63.38
64.56
64.4
63.35
61.26
57.78
52.87
47.15
41.56
36.88
33.3
30.34
27.18
23.26
18.69
14.23
10.79
8.83
7.93
6.99
4.77
0.55
-5.45
-12.17
-18.19
-22.35
-24.28
-24.52
-24.25
-24.72
-26.7
-30.15
-34.08
-36.96
-37.13
-33.38
-25.37
-13.68
0.31
14.84
28.23
39.3
47.45
52.79
55.71
56.72
56.17
54.3
51.31
47.55
43.61
40.08
37.27
35.13
33.24
31.11
28.41
25.25
21.98
18.9
16.03
12.99
9.24
4.37
-1.67
-8.67
-16.21
-23.91
-31.35
-38.12
-43.88
-48.42
-51.94
-54.97
-58.34
-62.7
-68.16
-74.04
-79
-81.35
-79.62
-73.11
-62.12
-48.05
-33.04
-19.5
-9.35
-3.6
-2.08
-3.67
-7
-10.97
-15.2
-19.86
-25.41
-32.03
-39.45
-46.88
-53.3
-57.8
-59.6
-57.94
-52.1
-41.54
-26.35
-7.66
12.24
30.53
44.68
53.45
57.32
58.08
57.96
58.57
60.39
62.83
64.86
65.58
64.73
62.61
59.79
56.91
54.5
52.99
52.75
53.92
56.38
59.68
63
65.33
65.87
64.1
59.95
53.79
46.26
38.08
30
22.67
16.54
11.86
8.52
6.19
4.42
2.94
1.76
1.08
1.15
1.92
2.99
3.75
3.64
2.5
0.65
-1.3
-2.75
-3.48
-3.68
-3.86
-4.68
-6.71
-10.13
-14.74
-19.9
-24.72
-28.34
-30.31
-30.72
-30.25
-29.89
-30.51
-32.59
-35.95
-39.78
-42.75
-43.39
-40.44
-33.21
-21.9
-7.6
7.96
22.92
35.74
45.65
52.64
57.13
59.59
60.18
58.71
54.75
48
38.38
26.15
11.79
-4.1
-20.86
-37.66
-53.52
-67.45
-78.52
-86.22
-90.53
-92.03
-91.74
-90.82
-90.29
-90.83
-92.52
-94.64
-95.78
-94.18
-88.54
-78.64
-65.81
-52.71
-42.62
-38.3
-40.88
-49.15
-59.76
-68.07
-69.66
-61.63
-43.66
-17.87
11.76
40.68
64.72
80.86
87.39
84.02
71.8
53.09
31.48
11.12
-4.18
-12.04
-12.07
-5.81
4.05
14.79
24.59
32.97
40.44
47.86
55.75
63.82
71.11
76.39
78.78
78.09
74.95
70.48
65.81
61.8
58.86
57.13
56.63
57.44
59.47
62.47
65.75
68.55
70.27
70.75
70.06
68.28
65.12
59.84
51.73
40.53
26.75
11.65
-3.3
-16.94
-28.7
-38.57
-46.75
-53.24
-57.89
-60.57
-61.32
-60.63
-59.2
-57.77
-57.11
-57.94
-60.85
-66.16
-73.53
-81.57
-87.91
-89.54
-83.81
-69.56
-47.75
-21.44
5.18
28.48
46.75
60.72
72.75
85.31
99.28
113.34
124.44
129.51
126.97
117.52
103.62
88.17
73.33
60.03
48.3
37.84
28.47
20.15
12.57
5.08
-3.13
-12.43
-22.28
-31.14
-37.1
-38.76
-35.9
-29.66
-22.01
-14.89
-9.56
-6.36
-4.94
-4.64
-4.84
-5.13
-5.32
-5.32
-5.18
-5.07
-5.36
-6.44
-8.56
-11.77
-15.78
-20.26
-24.88
-29.42
-33.71
-37.48
-40.38
-41.9
-41.63
-39.21
-34.56
-27.86
-19.55
-10.4
-1.28
6.86
13.33
17.74
20.06
20.55
19.58
17.51
14.66
11.28
7.61
3.93
0.46
-2.63
-5.29
-7.52
-9.41
-11.01
-12.48
-14.13
-16.55
-20.61
-27.29
-37.57
-52.16
-70.94
-92.71
-115
-134.36
-147.34
-151.48
-146.05
-132.1
-112.07
-88.98
-66.02
-46.33
-32.83
-27.64
-31.44
-42.7
-57.67
-71.28
-78.73
-77.22
-66.76
-49.95
-30.83
-13.56
-1.43
3.81
2.07
-5.58
-17.52
-32.14
-48.3
-65.26
-82.22
-97.84
-110.26
-117.65
-119.28
-116.05
-110.34
-105.09
-102.23
-101.54
-100.17
-93.57
-76.88
-46.73
-2.48
53.12
114.31
173.43
222.98
257.55
275.12
277.26
268.02
252.34
234.43
216.8
200.28
184.53
168.86
152.82
136.54
120.54
105.45
91.64
79.04
67.32
56.19
45.86
37.01
30.58
27.09
26.15
26.51
26.68
25.95
24.92
25.27
28.81
36.37
47.16
59.11
69.89
77.87
82.67
84.75
84.77
82.87
78.69
71.79
62.14
50.55
38.42
27.33
18.43
12.28
8.77
7.4
7.47
8.15
8.66
8.32
6.76
3.97
0.33
-3.69
-7.71
-11.62
-15.62
-19.93
-24.66
-29.56
-34.23
-38.26
-41.55
-44.34
-47.18
-50.67
-55.14
-60.41
-65.72
-69.84
-71.39
-69.14
-62.46
-51.51
-37.26
-21.25
-5.29
9.01
20.52
28.74
33.75
35.95
35.91
34.17
31.25
27.66
24.02
20.93
18.97
18.46
19.33
21.15
23.18
24.73
25.25
24.62
22.99
20.66
17.84
14.51
10.53
5.76
0.29
-5.5
-11.08
-15.97
-19.95
-23.16
-25.99
-28.96
-32.59
-37.2
-42.87
-49.11
-54.85
-58.52
-58.44
-53.51
-43.74
-30.57
-16.48
-4.26
4.02
7.65
7.26
4.39
0.63
-2.96
-6.15
-9.26
-12.82
-17.07
-21.7
-25.99
-28.96
-29.82
-28.22
-24.57
-19.97
-16.27
-15.66
-20.28
-31.41
-48.63
-69.16
-87.99
-98.89
-96.61
-79.21
-49.27
-13.55
19.24
41.57
49.5
43.44
27.13
5.66
-16.45
-35.93
-50.66
-59.06
-59.72
-51.7
-35.14
-11.59
16.13
44.5
70.34
91.38
106.56
115.85
119.84
119.31
114.91
107.07
95.94
81.74
64.86
46.07
26.46
7.3
-10.13
-24.78
-36.1
-44.29
-50.2
-54.98
-59.56
-64.17
-68.24
-70.57
-70.01
-65.86
-58.36
-48.57
-37.94
-27.81
-18.85
-11.07
-4.1
2.25
7.68
11.31
12.22
10.05
5.45
0.18
-3.6
-4.31
-1.74
2.9
7.54
10.18
9.72
6.22
0.81
-4.85
-9.24
-11.36
-10.89
-8.1
-3.68
1.55
6.71
11.09
14.1
15.42
15.08
13.49
11.36
9.49
8.38
7.85
7.05
4.79
0.07
-7.32
-16.56
-26.08
-34.08
-39.24
-41.19
-40.46
-38.06
-35.04
-32.09
-29.56
-27.68
-26.88
-27.7
-30.65
-35.73
-42.11
-48.29
-52.51
-53.55
-51.31
-46.96
-42.32
-39.06
-37.78
-37.86
-37.8
-36.1
-32.09
-26.12
-19.42
-13.37
-8.9
-6.32
-5.47
-6.06
-7.86
-10.63
-13.8
-16.28
-16.47
-12.69
-3.9
9.94
27.61
47.06
65.96
82.32
94.95
103.56
108.44
110.18
109.37
106.48
101.92
96.1
89.48
82.57
75.82
69.57
64
59.14
54.94
51.44
48.74
46.94
45.93
45.26
44.07
41.35
36.34
28.87
19.47
9.21
-0.76
-9.72
-17.65
-25.19
-33.22
-42.39
-52.69
-63.33
-73
-80.28
-84.06
-83.83
-79.74
-72.43
-62.91
-52.22
-41.26
-30.64
-20.57
-11.04
-1.92
6.78
14.89
22.07
28.05
32.84
36.75
40.27
43.79
47.43
50.98
54.06
56.34
57.63
57.87
56.94
54.67
50.8
45.21
38.06
29.96
21.83
14.61
9.06
5.49
3.84
3.72
4.51
5.66
6.66
7.15
7.01
6.26
5.03
3.42
1.43
-1.05
-4.14
-7.83
-11.93
-16.15
-20.12
-23.64
-26.7
-29.5
-32.31
-35.42
-39.01
-43.22
-47.96
-52.82
-57.03
-59.47
-58.97
-54.74
-46.65
-35.45
-22.44
-9.07
3.46
14.51
23.83
31.45
37.46
41.84
44.66
46.05
46.3
45.76
44.84
43.94
43.43
43.43
43.88
44.4
44.51
43.89
42.58
40.93
39.38
38.12
36.93
35.24
32.48
28.37
23.11
17.22
11.38
6.12
1.69
-1.97
-5.19
-8.42
-12.09
-16.44
-21.34
-26.31
-30.63
-33.67
-35.16
-35.31
-34.79
-34.4
-34.83
-36.38
-39
-42.1
-44.85
-46.18
-45.06
-40.84
-33.49
-23.65
-12.45
-1.17
9.16
17.83
24.67
29.8
33.53
36.22
38.16
39.56
40.48
40.85
40.54
39.55
38.11
36.59
35.39
34.61
34.09
33.45
32.41
30.94
29.24
27.57
25.93
23.98
21.16
16.98
11.39
4.81
-1.96
-8.16
-13.38
-17.61
-21.18
-24.42
-27.52
-30.48
-33.23
-35.78
-38.23
-40.64
-42.93
-44.87
-46.22
-47.03
-47.75
-48.99
-51.28
-54.55
-58.05
-60.54
-60.74
-57.81
-51.65
-42.86
-32.51
-21.78
-11.66
-2.8
4.61
10.82
16.28
21.48
26.71
31.88
36.67
40.76
44.11
46.95
49.71
52.73
56.09
59.53
62.65
65.07
66.51
66.78
65.67
62.96
58.54
52.6
45.57
38.08
30.78
24.16
18.39
13.46
9.19
5.3
1.61
-2.1
-5.94
-9.89
-13.82
-17.56
-20.92
-23.83
-26.35
-28.65
-31.03
-33.82
-37.33
-41.56
-46.06
-49.82
-51.54
-50.01
-44.67
-35.89
-24.86
-13.24
-2.57
6.25
13.03
18.13
22.05
25.19
27.64
29.39
30.49
31.17
31.86
32.98
34.76
37.12
39.71
41.99
43.43
43.64
42.38
39.69
35.79
31.12
26.13
21.21
16.52
12.03
7.62
3.2
-1.16
-5.36
-9.33
-13.16
-17.02
-21.02
-25.07
-28.97
-32.47
-35.55
-38.36
-41.08
-43.64
-45.6
-46.14
-44.39
-39.81
-32.47
-23.14
-13.04
-3.43
4.72
10.96
15.33
18.11
19.61
19.99
19.33
17.79
15.7
13.62
12.09
11.44
11.53
11.98
12.19
11.72
10.42
8.27
5.43
2.09
-1.58
-5.32
-8.74
-11.41
-13
-13.43
-12.86
-11.63
-10.14
-8.64
-7.31
-6.28
-5.75
-5.9
-6.81
-8.21
-9.42
-9.46
-7.35
-2.46
5.1
14.44
24.09
32.38
37.82
39.51
37.13
30.96
21.74
10.48
-1.67
-13.6
-24.47
-33.86
-41.71
-48.17
-53.34
-57.1
-59.22
-59.51
-57.97
-54.96
-50.99
-46.55
-41.97
-37.46
-33.19
-29.5
-26.82
-25.5
-25.67
-27.16
-29.7
-32.98
-36.79
-40.86
-44.68
-47.47
-48.28
-46.34
-41.47
-34.24
-25.83
-17.72
-11.04
-6.33
-3.51
-2.1
-1.55
-1.45
-1.59
-1.86
-2.18
-2.42
-2.43
-2.21
-1.75
-1.15
-0.5
0.13
0.66
0.91
0.72
-0.12
-1.68
-3.83
-6.35
-9.06
-11.84
-14.69
-17.59
-20.54
-23.64
-27.06
-30.98
-35.49
-40.27
-44.56
-47.25
-47.3
-44.16
-38
-29.79
-20.8
-12.28
-5.13
0.23
3.73
5.56
6.06
5.65
4.69
3.45
2.06
0.5
-1.26
-3.16
-5.07
-6.75
-7.95
-8.52
-8.38
-7.62
-6.51
-5.5
-5.11
-5.79
-7.68
-10.57
-13.87
-16.82
-18.84
-19.73
-19.68
-19.23
-18.91
-19.13
-19.95
-21.02
-21.54
-20.53
-17.11
-10.77
-1.71
9.16
20.48
30.84
39.21
45.28
49.3
51.88
53.62
54.84
55.59
55.71
55.06
53.59
51.36
48.56
45.38
42.01
38.59
35.26
32.09
29.11
26.33
23.71
21.19
18.7
16.12
13.3
10.15
6.59
2.67
-1.46
-5.55
-9.37
-12.71
-15.58
-18.06
-20.37
-22.74
-25.36
-28.36
-31.78
-35.43
-38.92
-41.61
-42.73
-41.61
-37.94
-31.89
-24.08
-15.47
-6.96
0.79
7.41
12.81
17.08
20.38
22.88
24.8
26.26
27.34
28.05
28.39
28.36
28.05
27.54
26.93
26.2
25.31
24.25
23.05
21.72
20.22
18.37
15.98
12.94
9.31
5.38
1.51
-2.04
-5.19
-8.13
-11.14
-14.53
-18.47
-22.92
-27.64
-32.21
-36
-38.32
-38.47
-35.98
-30.75
-23.24
-14.38
-5.35
2.75
9.31
14.31
18.24
21.71
25.08
28.36
31.27
33.5
34.94
35.76
36.3
36.78
37.29
37.66
37.67
37.18
36.14
34.69
33.04
31.33
29.68
28.09
26.51
24.85
23.1
21.31
19.64
18.31
17.47
17.15
17.18
17.25
17.08
16.41
15.24
13.67
11.92
10.17
8.49
6.84
5.08
3.11
0.86
-1.57
-4.03
-6.32
-8.34
-10.12
-11.84
-13.79
-16.17
-19.07
-22.38
-25.78
-28.93
-31.51
-33.36
-34.53
-35.29
-36.04
-37.3
-39.46
-42.63
-46.59
-50.64
-53.89
-55.35
-54.25
-50.2
-43.37
-34.45
-24.48
-14.64
-5.82
1.46
7.19
11.76
15.56
18.81
21.41
23.17
23.95
23.95
23.59
23.35
23.57
24.3
25.3
26.37
27.28
27.97
28.42
28.64
28.54
27.97
26.8
24.93
22.43
19.46
16.32
13.33
10.85
9.09
8.23
8.15
8.61
9.12
9.15
8.27
6.36
3.82
1.41
-0.01
0.01
1.26
2.85
3.53
2.36
-0.81
-5.15
-9.11
-10.93
-9.3
-3.61
5.97
18.64
33.32
48.73
63.59
76.65
86.95
94.21
99.12
103.01
106.93
110.58
111.74
107.02
93.46
70.46
40.61
9.03
-18.71
-38.78
-50.14
-54.03
-52.42
-46.53
-36.61
-22.77
-5.97
11.6
27.43
40.09
50.14
59.95
72.35
88.93
109.07
130.17
148.72
162.05
169.25
171.35
170.73
169.95
170.71
173.47
177.46
181.26
183.44
182.93
178.95
170.99
158.69
142.05
121.78
99.24
76.18
54.19
33.98
15.06
-3.82
-24.04
-46.23
-69.94
-93.79
-116.07
-135.33
-150.8
-162.59
-171.35
-178.12
-183.93
-189.59
-195.57
-201.83
-207.82
-212.66
-215.29
-214.74
-210.45
-202.39
-191.11
-177.58
-163.02
-148.55
-135.06
-123.1
-112.79
-103.94
-96.13
-88.86
-81.84
-75.17
-69.42
-65.46
-64.02
-65.26
-68.51
-72.46
-75.52
-76.56
-75.16
-71.64
-66.62
-60.59
-53.66
-45.58
-35.98
-24.53
-11.12
4.13
20.78
38.03
54.68
69.39
80.84
88.22
91.5
91.39
89.12
85.97
82.87
80.19
77.69
74.8
70.87
65.47
58.51
50.2
40.82
30.53
19.35
7.33
-5.2
-17.49
-28.63
-37.88
-45.11
-50.95
-56.46
-62.57
-69.61
-77.23
-84.59
-91.06
-96.48
-101.34
-106.52
-112.92
-120.98
-130.56
-140.87
-150.7
-158.72
-163.67
-164.65
-161.21
-153.47
-142.21
-128.68
-114.22
-99.83
-85.75
-71.46
-55.87
-38.02
-17.66
4.38
26.32
46.04
61.75
72.6
78.87
81.68
82.51
82.63
82.67
82.69
82.26
80.89
78.35
74.76
70.57
66.22
61.86
57.27
52.05
45.87
38.81
31.57
25.25
20.89
18.99
19.16
20.2
20.57
19.02
15.05
9.06
2.06
-4.84
-10.84
-15.71
-19.84
-24.02
-29.38
-37.06
-47.81
-61.56
-77.06
-92.05
-103.82
