-93.03
-112.43
-136.3
-163.44
-189.4
-207.67
-212.02
-199.12
-170.09
-130.35
-87.9
-50.78
-24.99
-13.31
-15.37
-28.05
-46.26
-63.84
-74.79
-75
-63.85
-44.67
-23.54
-6.53
2.91
5.38
4.7
5.43
10.33
19.18
29.37
37.87
43.1
45.57
47.16
49.72
53.92
59.11
64.04
67.89
70.87
74.01
78.38
84.29
90.82
96.22
98.77
97.67
93.58
88.26
83.76
81.43
81.32
82.34
82.95
82.09
79.57
76.11
72.77
70.26
68.75
67.99
67.68
67.73
68.23
69.17
70.19
70.66
70.23
69.21
68.7
70.16
74.7
82.53
92.88
104.27
114.85
122.44
124.4
117.65
99.58
69.5
30.32
-10.91
-44.4
-60.91
-55.61
-30.48
6.09
42.76
70.02
83.94
87.09
86.21
88.21
96.56
110.09
124.24
133.82
135.22
127.27
110.78
87.51
59.54
29.2
-1
-28.72
-52.52
-72.69
-91.12
-110.33
-132.03
-155.96
-179.46
-198.16
-207.3
-203.49
-186.25
-158.93
-128.53
-103.86
-92.57
-98.05
-118.12
-145.99
-173.37
-193.89
-205.13
-208.48
-207.28
-204.48
-201.06
-195.95
-186.8
-170.96
-146.23
-111.18
-65.47
-9.92
53.36
121
188.46
250.58
302.67
341.69
367.53
383.37
394.48
405.64
418.42
429.89
433.53
422.3
392.02
343.5
282.39
216.96
155.3
103.08
62.72
33.91
14.56
1.75
-7.76
-17.54
-31.48
-53.19
-84.64
-124.41
-166.77
-202.49
-221.85
-218.69
-193.51
-153.91
-111.9
-79.45
-64.31
-68.23
-87.69
-116.59
-148.71
-179.14
-204.49
-222.47
-231.74
-232.05
-224.4
-210.86
-194.03
-176.42
-159.91
-145.58
-133.67
-123.65
-114.38
-104.64
-93.71
-81.92
-70.68
-61.77
-56.59
-55.17
-56.13
-57.41
-57.22
-55.19
-52.56
-51.92
-56.03
-66.15
-80.71
-95.04
-102.89
-98.79
-80.62
-50.74
-15.29
18.42
44.76
61.88
71.76
78.85
88.06
103.12
125.85
156.09
192.13
230.96
268.83
301.94
327.21
343.28
350.91
353.19
354.65
359.72
370.59
385.49
398.77
402.82
391.1
361.12
315.66
261.54
206.8
157.69
117.01
84.24
56.88
31.92
6.77
-20.61
-51.75
-87.52
-128.01
-172.02
-217.33
-261.39
-301.87
-337.74
-369.84
-400.89
-434.75
-474.7
-521.21
-570.45
-614.71
-644.76
-653.51
-638.95
-604.9
-559
-509.26
-460.79
-414.44
-367.72
-317.21
-260.74
-198.24
-131.28
-61.84
8.57
79.04
149.02
217.85
284.78
348.83
409.22
465.53
517.63
565.23
607.24
641.23
663.45
669.61
656.23
622.18
569.52
503.38
430.68
358.37
291.95
234.78
188.36
153.03
128.67
115.02
111.63
117.53
131.13
150.15
171.82
193.13
211.13
223.32
227.95
224.37
213.03
195.32
173.12
148.17
121.56
93.6
64
32.35
-1.35
-36.33
-71.25
-104.54
-135.11
-162.8
-188.31
-213.05
-238.78
-267.12
-299.05
-334.13
-369.96
-402.1
-425.01
-433.81
-426.34
-404.39
-373.09
-338.98
-307.43
-280.78
-258.31
-237.65
-216.93
-196.29
-177.8
-164.14
-156.78
-154.72
-154.5
-151.39
-141.31
-122.68
-97.4
-70.15
-46.91
-32.67
-29.77
-37.57
-53.21
-73.17
-94.62
-115.98
-136.85
-157.75
-180.07
-205.72
-236.41
-272.29
-310.69
-345.89
-370.62
-378.9
-368.75
-343.28
-309.47
-275.3
-246.86
-226.89
-215.05
-209.46
-208.06
-208.97
-209.97
-207.98
-198.95
-178.87
-145.38
-99.28
-44.91
10.7
60.18
98.62
125.3
143.77
159.9
178.93
203.12
231.02
258.82
282.61
300.04
310.72
315.4
314.85
309.21
298.4
282.63
262.94
240.86
217.84
195.11
173.89
155.8
142.91
137.05
138.57
145.61
154.3
160.17
160.05
153.37
142.24
130.37
121.38
117.53
119.32
125.77
135.2
145.76
155.75
163.69
168.56
169.89
167.69
162.19
153.42
141.08
124.75
104.41
80.78
55.52
30.83
8.96
-8.09
-18.64
-21.14
-14.2
2.96
29.84
64.23
102.2
138.86
169.52
190.68
200.6
199.42
188.7
170.87
148.48
123.46
96.76
68.46
38.39
7.12
-23.16
-48.7
-65.16
-69.62
-62.18
-46.66
-29.69
-18.65
-19.62
-35.6
-66.14
-107.53
-153.46
-195.64
-224.9
-233.09
-215.97
-175.84
-122.36
-70.68
-36.82
-32.33
-60.49
-115.58
-185.58
-256.53
-316.41
-357.34
-375.42
-369.81
-341.83
-294.78
-233.92
-165.96
-97.33
-32.33
27.97
84.92
139.94
192.29
237.94
270.94
286.28
282.77
264.17
237.99
212.62
194.46
186.39
187.73
195.45
205.58
214.03
217.04
211.16
193.64
163.03
120.03
68
12.75
-38.49
-79.08
-104.97
-116.13
-116.42
-111.94
-108.75
-111.08
-121.09
-139.51
-166.49
-201.15
-240.55
-278.44
-305.83
-313.48
-295.33
-250.78
-184.53
-104.38
-18.51
65.81
142.08
203.66
243.8
257.23
242.38
202.51
144.67
77.1
6.97
-60.36
-120.31
-168.1
-198.84
-209.1
-199.03
-173.1
-138.77
-103.65
-72.86
-48.15
-28.87
-13.73
-2.31
4.61
6.18
2.7
-3.69
-9.77
-12.69
-11.46
-7.57
-4.23
-4.79
-11.03
-22.4
-36.41
-49.85
-60.05
-65.53
-65.88
-61.36
-52.74
-41.29
-28.87
-17.68
-9.53
-4.89
-2.59
-0.25
4.49
12.88
24.38
37.02
48.46
57.23
63.44
68.72
75.24
84.39
95.8
107.27
115.62
118.16
114.03
104.64
92.98
82.29
74.55
69.89
66.85
63.41
58.12
50.76
42.21
33.76
26.33
19.89
13.61
6.15
-3.58
-15.92
-30.22
-44.88
-57.92
-67.42
-72.02
-71.09
-64.79
-54.04
-40.42
-26.15
-13.62
-4.92
-1.36
-3.33
-10.47
-22.07
-37.33
-55.31
-74.76
-94.04
-111.49
-126.06
-137.77
-147.6
-156.78
-165.81
-173.79
-178.74
-178.89
-174.32
-167.9
-164.71
-169.92
-185.95
-210.54
-236.96
-256.53
-262.39
-252.42
-229.84
-200.94
-171.68
-144.7
-118.77
-90.56
-57.53
-19.76
20.16
58.9
94.7
128.39
162.65
199.65
238.71
275.59
303.89
318.13
316.51
301.88
280.2
257.7
238.18
222.04
207.32
191.49
172.84
150.67
124.82
95.34
62.9
29.48
-1.45
-25.9
-40.93
-46.05
-43.1
-35.15
-25.24
-15.61
-8.09
-4.72
-7.93
-19.69
-40.1
-66.4
-93.27
-114.59
-125.71
-125.31
-115.63
-101.21
-86.59
-74.25
-63.8
-53
-39.73
-23.96
-8.43
2.52
5.3
-0.8
-12.82
-25.3
-32.58
-31.14
-20.81
-4.5
13.34
28.48
38.22
41.96
40.92
37.5
34.27
33.03
34.11
36.26
37.35
35.59
30.68
24.17
18.69
16.47
18.08
21.99
25.43
25.94
22.8
17.41
12.41
10.03
10.8
13.4
15.68
16.27
15.63
15.87
19.38
27.18
37.93
48.56
56.11
59.52
60.33
61.64
66.24
75.01
86.62
98.66
109.11
117.3
123.68
128.74
131.99
131.89
126.6
115.03
97.5
75.39
50.55
24.77
-0.21
-22.37
-39.4
-49.29
-51.31
-46.47
-37.4
-27.34
-18.98
-13.49
-10.63
-9.37
-8.38
-6.28
-1.55
7.19
20.5
37.43
55.45
71.62
84.29
94.17
103.87
115.84
130.12
143.59
151.44
150.06
139.37
123
106.1
92.26
81.57
71.08
57.1
37.63
13.17
-14.17
-42.39
-70.82
-99.98
-130.13
-160.17
-187.71
-210.21
-226.52
-237.17
-243.14
-243.99
-236.69
-216.45
-179.46
-125.87
-61.12
5.53
64.39
109.01
138
154.12
161.68
163.81
161.4
153.84
140.9
124.12
106.55
91.24
79.59
70.68
62.28
52.73
42.44
33.91
30.19
32.61
39.44
46.31
48.55
43.88
33.96
23.7
18.64
21.95
32.79
46.66
57.34
59.51
50.73
32
7.33
-17.63
-37.13
-46.84
-45.12
-33.52
-16.45
0.2
11.1
13.24
6.41
-7.6
-26.42
-48
-70.64
-92.08
-109.11
-118.4
-118.55
-112.09
-105.72
-108.01
-125.28
-157.84
-198.78
-236.32
-258.6
-258.38
-235.33
-195.01
-145.32
-92.63
-39.66
14.01
69.51
125.93
178.88
221.3
246.28
250.11
234.15
204.36
168.71
134.05
104.01
79.05
58.07
40.4
26.67
18.08
15.11
16.56
19.83
22.39
23.1
22.72
23.12
25.93
31.46
38.65
45.85
51.87
56.39
59.68
61.64
60.99
55.22
41.33
17.47
-15.5
-53.36
-89.19
-115.34
-125.91
-118.85
-96.44
-64.39
-29.75
1.27
24.79
39.66
46.97
49.15
49.05
49.27
51.59
56.66
63.94
71.87
78.71
83.38
86.04
88.16
91.79
98.4
107.92
118.31
126.13
127.68
120.21
102.81
76.5
43.76
7.62
-29.17
-64.65
-97.51
-126.5
-149.84
-165.14
-170.03
-163.47
-146.69
-123.3
-98.2
-75.56
-57.12
-41.82
-27.04
-10.88
5.73
18.93
23.8
17.35
0.79
-20.34
-38.52
-47.72
-46.12
-36.59
-24.9
-16.66
-14.76
-18.42
-24.34
-28.74
-29.25
-25.71
-19.81
-13.89
-9.85
-8.55
-9.78
-12.68
-16.32
-19.93
-23.06
-25.5
-27.24
-28.6
-30.43
-34.13
-41.3
-53.03
-69.05
-87.42
-104.78
-117.54
-123.2
-121.43
-114.35
-105.83
-100.06
-99.92
-105.88
-115.9
-126.33
-133.43
-134.74
-129.71
-119.45
-105.87
-90.61
-74.49
-57.4
-38.61
-17.44
6.23
31.5
56.34
77.91
93.26
100.33
98.8
90.36
78.24
66.14
57.08
52.71
53.18
57.53
64.3
72.02
79.48
85.77
90.42
93.3
94.66
94.9
94.45
93.65
92.65
91.44
89.82
87.41
83.7
78.35
71.4
63.4
55.23
47.76
41.38
35.88
30.73
25.53
20.46
16.3
14.07
14.65
18.36
24.99
33.88
44.08
54.3
62.98
68.37
68.93
63.92
53.78
40.38
26.61
15.86
10.91
12.67
19.28
26.14
27.15
16.85
-7.2
-43.05
-84.69
-124.24
-154.84
-172.95
-179.16
-177.06
-171.28
-165.49
-161.53
-159.57
-158.81
-158.16
-156.61
-153.21
-147.22
-138.14
-125.87
-110.6
-92.65
-72.25
-49.7
-25.75
-2.17
18.44
33.39
41.19
42.42
39.65
36.35
35.21
37.07
40.66
43.52
43.23
38.4
29.04
16.5
3.24
-7.67
-13.27
-11.72
-3.29
9.37
22.07
30.75
33.09
29.18
20.88
10.39
-0.93
-12.67
-24.77
-36.51
-46.22
-51.99
-52.73
-48.87
-42.04
-34.04
-25.65
-16.32
-4.75
10
27.69
46.71
64.72
79.68
90.43
96.77
99.26
98.74
96.19
92.81
89.87
88.55
89.27
91.13
91.83
88.44
78.73
62.65
42.94
24.43
12.07
8.49
12.55
19.58
23.4
19.1
5.07
-16.75
-42.44
-68.16
-91.78
-113.01
-132.41
-150.24
-165.76
-177.42
-183.47
-182.6
-174.24
-158.76
-137.55
-112.92
-87.89
-65.36
-47.37
-34.38
-25.36
-18.4
-11.45
-3.07
7.57
20.7
36.11
52.81
68.91
81.65
88.23
86.88
77.9
63.97
49.23
37.77
31.71
29.94
28.21
20.67
2.43
-28.14
-68.54
-113.2
-155.91
-192.12
-219.88
-239.1
-249.69
-250.32
-238.59
-212.74
-173.5
-124.96
-73.49
-25.52
14.83
46.73
72.01
93.33
112.59
130
144.41
153.87
156.52
151.01
136.8
114.5
86.24
55.65
27.39
6.02
-5.38
-6.06
2.37
17.03
35.17
55.15
76.41
98.44
119.97
138.65
151.99
158.57
158.96
155.6
151.68
149.58
149.8
150.67
149
141.2
124.43
97.5
61.38
19.17
-24.35
-63.54
-93.17
-109.58
-111.68
-101.45
-83.63
-64.68
-51.12
-47.79
-56.52
-75.86
-101.72
-128.84
-152.37
-169.17
-178.38
-181.14
-179.78
-176.56
-172.79
-168.33
-161.74
-150.99
-134.33
-111.11
-82.05
-49.32
-16.05
14.39
39.3
57.57
70.23
80.62
93.35
112.85
141.33
177.63
217.36
254.52
283.74
302.01
308.95
305.68
293.21
271.66
240.76
201.56
157.72
115.32
80.6
56.96
42.74
31.74
16.36
-8.28
-41.51
-77.27
-107.14
-124.34
-126.79
-117.33
-101.57
-84.95
-70.6
-59.13
-50.1
-43.73
-41.6
-46.13
-59.04
-80.12
-106.9
-135.58
-162.5
-185.55
-204.68
-221.5
-237.99
-255.12
-271.6
-283.8
-286.69
-275.58
-248.03
-204.88
-149.99
-88.73
-26.24
33.83
88.9
136.47
173.38
196.28
203.25
195.48
177.7
156.65
138.52
126.57
120.57
118.07
116.67
115.53
115.55
118.04
123.2
129.46
133.89
133.33
125.36
108.64
82.98
49.53
11.13
-27.3
-59.47
-79.24
-82.99
-71
-47.36
-18
11.88
39.32
63.64
85.05
103.29
117.21
125.51
127.86
125.49
120.54
114.88
108.95
101.64
91.14
76.23
57.23
36.11
16.02
0.32
-8.18
-8.1
-0.01
13.57
28.79
41.76
49.85
52.54
51.15
47.84
44.19
40.5
36.03
29.93
22.29
14.27
7.28
1.85
-3.08
-9.72
-19.99
-34.33
-51.39
-68.94
-85.4
-100.9
-117
-135.52
-157.23
-181.32
-205.75
-228.22
-246.97
-260.93
-269.73
-273.51
-273.02
-269.55
-264.41
-258.08
-249.51
-236.25
-215.49
-185.62
-147.26
-103.15
-56.92
-11.63
31.22
71.36
108.84
143.18
173.02
196.56
212.37
220.09
220.56
215.61
207.58
198.89
191.74
187.69
187.42
190.43
195.16
199.31
200.58
197.41
189.5
177.87
164.37
151.01
139.32
130.15
123.64
119.52
117.32
116.49
116.27
115.73
113.86
109.81
103
92.92
79.03
60.53
36.48
6.31
-29.79
-70.53
-113.75
-157.08
-198.98
-239.3
-278.91
-318.38
-356.23
-388.17
-407.78
-408.91
-388.41
-347.91
-293.4
-232.84
-172.9
-116.71
-63.9
-12.67
37.33
83.48
120.74
144.28
152.33
147.75
137.13
128.05
125.73
130.82
139.13
143.72
137.85
117.57
82.82
36.8
-15.45
-68.63
-117.85
-158.71
-187.1
-199.55
-194.31
-172.6
-138.96
-100.37
-64.01
-34.88
-14.31
-0.16
11.3
23.05
35.6
46.97
54.06
54.71
48.99
39.31
29.16
21.37
16.91
14.77
12.96
9.79
4.94
-0.48
-4.53
-5.66
-3.47
0.89
5.17
6.82
4
-3.67
-14.87
-27.04
-37.19
-42.95
-43.17
-38.16
-29.65
-20.53
-14.6
-15.83
-27.42
-50.24
-81.88
-116.78
-147.96
-169.8
-180.26
-181.42
-177.61
-172.46
-166.31
-155.92
-136.37
-104.59
-62.07
-15.36
26.19
54.33
65.48
62.05
50.74
39.3
33.12
33.78
39.76
48.71
59.32
72.01
87.61
105.37
122.02
132.66
133.24
122.99
105.26
86
71.08
63.69
63.41
67.35
72.21
76.09
78.75
80.34
79.77
74.02
59.47
34.53
1.88
-31.58
-57.4
-69.64
-67.84
-56.92
-43.93
-33.5
-25
-13.28
7.45
39.18
77.99
115.7
144.1
159.39
163.77
163.62
165.68
173.49
186.18
199.75
209.75
213.42
210.44
201.96
189.02
171.35
147.17
114.01
70.03
15.42
-46.69
-110.2
-166.97
-208.8
-229.65
-227.66
-205.75
-170.54
-129.91
-90.47
-55.77
-26.46
-1.52
20.05
38.23
52.27
61.67
67.04
70.04
72.5
75.27
77.82
78.81
77.21
73.39
69.03
66.27
66.45
69.47
74.08
78.88
83.29
87.81
93.57
101.37
111.17
122.1
132.81
141.84
147.71
148.87
143.92
132.24
114.62
93.55
72.59
54.82
41.46
31.23
20.84
6.16
-16.05
-46.89
-84.72
-125.27
-162.98
-192.65
-211.1
-217.98
-215.46
-206.93
-195.42
-182.62
-168.9
-153.96
-137.49
-119.55
-100.28
-79.67
-57.57
-34.01
-9.59
14.34
35.92
52.74
61.9
60.36
46.1
19.54
-15.28
-51.02
-79.25
-93.41
-91.15
-74.69
-48.86
-18.05
16.02
54.61
100.33
154.65
216.02
279.41
337.45
382.5
408.75
413.68
398.49
367.45
326.36
280.94
235.56
192.84
154.05
119.7
90.17
65.61
45.49
28.07
10.28
-11.71
-41.29
-79.89
-125.86
-174.36
-218.66
-252.27
-271.32
-275.78
-269.05
-256.19
-241.42
-226.61
-211.14
-192.99
-170.18
-141.93
-108.87
-72.77
-36.36
-3.18
22.52
36.5
35.84
20.53
-5.81
-36.49
-63.86
-81.93
-88.45
-85.34
-77.3
-69.29
-64.21
-61.82
-59.48
-54.14
-44.4
-31.55
-18.83
-9.72
-6.23
-8.15
-13.63
-20.36
-26.88
-32.79
-38.32
-43.46
-47.41
-48.83
-46.53
-40.27
-30.99
-20.61
-11.34
-4.85
-1.77
-1.61
-3.19
-5.16
-6.6
-7.28
-7.57
-8.08
-9.3
-11.39
-14.05
-16.74
-18.81
-19.53
-18.4
-15.3
-10.72
-5.78
-1.99
-0.67
-2.52
-7.23
-13.69
-20.6
-27.09
-33.08
-39.19
-46.24
-54.78
-64.76
-75.59
-86.4
-96.4
-105.08
-112.38
-118.8
-125.52
-134.24
-146.57
-162.87
-181.23
-197.32
-205.33
-199.9
-178.19
-140.64
-90.39
-31.82
30.86
93.79
152.95
203.65
241.07
261.89
266.09
257.64
243.19
229.5
221
218.79
221.47
226.7
232.38
236.75
237.85
233.12
219.95
196.84
164.46
125.65
84.34
44.29
8.09
-22.8
-47.57
-65.5
-76.07
-79.52
-77.41
-72.58
-68.28
-67
-69.56
-74.92
-80.89
-85.13
-86.14
-83.66
-78.56
-72.22
-65.82
-59.92
-54.37
-48.59
-42.01
-34.37
-25.71
-16.11
-5.46
6.64
20.59
36.48
53.72
70.97
86.44
98.47
106.09
109.34
109.23
107.31
105.09
103.54
102.83
102.48
101.79
100.23
97.72
94.57
91.12
87.4
83
77.17
68.95
57.33
41.32
20.06
-6.77
-38.59
-73.75
-109.91
-144.87
-177.36
-207.52
-236.53
-265.63
-294.92
-322.76
-346.03
-361.13
-365.51
-358.68
-342.35
-319.62
-293.82
-267.52
-242.31
-219.32
-199.92
-185.99
-179.18
-179.41
-183.7
-186.24
-180.09
-160.19
-125.64
-80.52
-32.17
11.87
46.94
72.58
91.82
108.79
126.3
144.59
161.75
175.52
185.02
191.6
198.04
207.01
219.36
233.41
245.7
252.66
252.41
245.67
235.4
225.33
218.24
214.65
212.75
209.23
200.87
185.9
164.74
139.86
114.86
93.32
77.76
69.23
67.49
71.51
79.88
90.86
102.26
111.46
115.92
114.11
106.38
95.12
84
76.62
75.26
80.52
91.73
107.44
125.65
143.45
156.84
161.46
154.28
135.25
107.78
77.26
48.42
22.87
-1.41
-28.19
-60.1
-96.37
-132.98
-164.66
-187.63
-201.29
-207.94
-211.4
-215.32
-222.61
-235.2
-253.98
-278.22
-304.75
-328.05
-341.7
-341.18
-326.08
-300.67
-271.82
-245.69
-224.99
-208.55
-193.19
-176.27
-157.21
-137.04
-116.73
-95.47
-70.67
-39.65
-1.63
41.3
85
125.49
161.31
194.1
227.11
262.37
298.21
328.86
346.26
343.52
317.94
272.09
212.4
146.42
80.16
17.06
-41.27
-93.45
-137.28
-169.92
-189.01
-193.78
-185.43
-166.47
-140.12
-109.78
-79.14
-51.78
-30.42
-15.92
-6.91
-0.45
6.02
12.82
17.46
15.98
5.57
-13.24
-35.94
-55.68
-66.09
-63.85
-49.72
-27.5
-1.91
23.33
46.41
67.08
85.74
102.66
117.74
130.74
141.61
150.44
157.09
161.09
161.7
158.52
151.97
143.29
134.1
125.57
117.91
110.38
102.09
92.67
82.58
72.97
65.07
59.77
57.2
56.83
57.43
57.32
54.57
47.4
34.78
16.74
-5.53
-29.99
-54.23
-76.03
-93.7
-106.29
-113.59
-116.17
-115.19
-111.93
-107.36
-101.72
-94.62
-85.53
-74.23
-61.12
-47.06
-33.05
-19.81
-7.75
3.17
13.32
23.44
34.47
47.42
62.99
81.16
101.09
121.24
139.85
155.44
167.14
174.69
178.15
177.59
172.94
163.98
150.5
132.54
110.64
85.73
58.98
31.25
2.76
-26.79
-57.7
-89.47
-120.41
-147.84
-168.88
-181.17
-183.53
-176.07
-160.19
-138.53
-114.97
-94.27
-81.01
-78.22
-85.98
-101.19
-118.64
-133.24
-142.18
-145.98
-147.8
-151.44
-159.31
-171.16
-184.45
-195.53
-201.17
-199.51
-190.24
-174.17
-152.73
-127.66
-100.9
-74.56
-50.74
-31.15
-16.96
-8.69
-6.28
-9.31
-17.24
-29.35
-44.94
-63.14
-82.84
-102.72
-121.19
-136.87
-149.02
-157.7
-163.35
-166
-164.34
-155.51
-136.31
-105.04
-63.14
-15.5
31.29
71.66
103.33
127.62
147.92
167.06
185.61
201.59
211.8
213.82
207.26
193.99
177.31
160.86
147.56
139.04
135.27
134.71
134.7
132.23
124.77
110.78
89.5
60.36
22.76
-23.67
-77.88
-136.38
-193.22
-241.5
-275.65
-293.52
-296.83
-289.78
-276.51
-259.23
-237.65
-210.22
-176.13
-136.73
-95.43
-56.43
-22.78
4.75
27.52
47.72
66.74
84.29
98.69
108.4
113.51
116.44
120.96
130.05
143.76
158.57
168.86
169.68
159.41
140.49
117.98
96.86
79.78
66.6
55.66
45.76
37.33
31.97
30.77
32.8
34.74
32.09
21.38
1.8
-24.32
-52.64
-78.57
-99.04
-113.25
-122.28
-127.9
-131.34
-132.56
-130.47
-123.85
-112.65
-98.59
-85.11
-76.26
-75.31
-83.29
-98.54
-117.12
-134.17
-145.45
-148.59
-143.55
-132.36
-118.14
-104.06
-92.17
-82.88
-75.09
-67.15
-58.12
-48.93
-42.39
-42.15
-50.93
-68.97
-93.52
-119.69
-142.29
-157.77
-165.2
-166.02
-162.65
-157.05
-149.71
-139.69
-125.49
-106.19
-82.22
-55.36
-28.18
-3.02
18.7
36.62
50.82
61.18
67.13
67.97
63.84
56.47
49.31
46.8
52.8
69.11
94.76
126.44
159.87
191.7
220.49
246.5
270.25
290.87
305.68
311.47
306.72
293.12
275.41
259
247.08
239.14
231.77
221.33
206.36
188.07
168.63
148.73
126.65
99.59
66.71
31.28
0.51
-17.31
-16.52
3.33
37.16
76.26
111.05
133.71
139.65
128.07
101.75
66.15
28.13
-5.79
-31.19
-46.87
-54.87
-59.39
-65
-74.81
-89.43
-106.83
-123.22
-134.52
-137.68
-131.58
-117.23
-97.42
-76.21
-58.36
-48.33
-49.12
-60.8
-79.53
-97.97
-107.19
-99.78
-72.77
-28.87
24.47
77.94
123.46
156.56
176.74
186.33
188.65
186.29
180.34
170.46
155.76
135.71
110.96
83.38
55.48
29.46
6.41
-13.95
-32.62
-50.28
-66.56
-79.96
-88.85
-92.59
-92.28
-90.4
-89.72
-91.91
-96.86
-102.93
-107.93
-110.12
-108.86
-104.43
-97.66
-89.27
-79.61
-68.7
-56.54
-43.45
-30.21
-17.96
-7.82
-0.44
4.37
7.57
10.64
14.87
20.93
28.65
37.14
45.24
51.99
56.82
59.73
61.19
61.86
62.26
62.53
62.2
60.38
56.21
49.33
40.38
30.96
23.23
19.15
19.75
24.61
31.91
38.92
42.85
41.84
35.65
25.82
15.21
7.07
3.69
5.49
10.6
15.46
16.33
10.91
-0.38
-14.44
-26.71
-33.11
-31.72
-23.3
-10.59
3.18
15.61
25.71
33.48
39.18
42.66
43.28
40.56
34.72
27.09
19.69
14.47
12.4
12.99
14.36
14.16
10.55
3.02
-7.41
-18.8
-29.16
-37.25
-42.72
-45.73
-46.21
-43.57
-36.85
-25.43
-9.7
8.7
27.38
44.05
57.38
67.27
74.39
79.6
83.35
85.67
86.55
86.24
85.27
83.99
82.07
78.29
71
59.15
43.19
25.45
9.45
-1.33
-4.8
-0.77
9.22
22.87
38.08
53.47
68.41
82.66
95.97
108.08
118.8
128.13
136.17
142.87
147.75
149.99
148.53
142.53
131.39
114.74
92.45
64.73
32.33
-3.3
-40.28
-76.89
-111.99
-145.14
-176.02
-203.63
-225.97
-240.51
-245.46
-241.03
-229.85
-216.04
-203.46
-194.06
-187.14
-180.06
-169.89
-154.97
-135.89
-115.15
-96.15
-81.86
-73.94
-72.37
-75.82
-82.08
-88.53
-92.56
-91.75
-84.42
-69.95
-49.13
-24.02
2.44
27.04
46.95
60.01
65.15
62.62
54.33
43.63
34.69
31.17
34.94
45.55
60.59
76.95
92.14
104.91
115.07
122.84
128.15
130.6
129.86
126.06
119.9
112.45
104.67
97.18
90.17
83.44
76.5
68.68
59.26
47.87
34.62
20.17
5.44
-8.85
-22.54
-36
-49.82
-64.31
-79.13
-93.16
-104.9
-113.02
-116.75
-116.11
-111.59
-104.01
-94.3
-83.53
-73.06
-64.5
-59.47
-59.1
-63.73
-72.74
-84.8
-98.32
-111.73
-123.72
-133.35
-140.13
-144.28
-146.84
-149.52
-154.04
-161.31
-170.92
-181.19
-189.81
-194.65
-194.39
-188.66
-177.83
-162.79
-144.94
-126.24
-109.12
-95.81
-87.43
-83.26
-80.49
-75.11
-63.32
-43.05
-14.66
19.31
55.33
90.31
122.46
151.48
177.9
202.15
224.01
242.64
257.33
268.39
277.45
286.91
298.78
313.58
330.03
345.72
358.34
366.69
370.74
370.87
366.91
357.56
341
316.01
283.2
245.26
206.3
170.24
139.36
113.67
91.18
69.06
44.93
17.95
-11.12
-40.26
-67.22
-90.33
-108.76
-122.57
-132.41
-139.48
-145.54
-153.02
-164.47
-181.67
-204.65
-230.9
-255.68
-273.12
-277.95
-267.08
-240.67
-201.99
-156.55
-110.59
-69.49
-36.72
-13.28
1.85
10.97
16.54
20.44
23.72
26.69
29.4
31.95
34.57
37.45
40.49
43.16
44.68
44.39
42.2
38.76
35.34
33.37
33.88
37.1
42.42
48.73
54.79
59.51
62.13
62.07
58.95
52.52
42.77
29.78
13.65
-5.58
-27.9
-53.09
-80.42
-108.43
-134.98
-157.57
-173.89
-182.43
-182.95
-176.55
-165.42
-152.26
-139.53
-128.76
-120.13
-112.64
-104.68
-94.77
-82.22
-67.3
-50.83
-33.56
-15.67
3.19
23.3
43.98
63.21
77.79
84.53
81.68
69.82
51.91
32.14
14.26
0.1
-10.79
-20.51
-31.35
-44.42
-59.18
-73.72
-85.76
-93.58
-96.42
-94.4
-87.91
-77.21
-62.39
-43.74
-22.19
0.53
22.17
40.61
54.55
63.8
69.19
71.99
73.26
73.5
72.63
70.46
67.17
63.52
60.68
59.65
60.65
62.91
65.02
65.48
63.39
58.83
52.59
45.85
39.65
34.66
31.14
29.06
28.24
28.32
28.92
29.63
30.05
29.84
28.7
26.36
22.58
17.29
10.73
3.54
-3.39
-9.22
-13.54
-16.71
-19.61
-23.17
-27.76
-32.77
-36.71
-37.95
-35.54
-29.83
-22.49
-15.88
-12.04
-11.93
-15.16
-20.32
-25.78
-30.23
-33.01
-34.05
-33.68
-32.61
-31.95
-32.92
-36.19
-40.87
-43.78
-39.9
-24.01
6.82
51.05
102.03
149.55
183.05
194.96
183.12
151.04
106.1
56.99
11.21
-26.42
-54.08
-72.32
-83.26
-89.74
-94.53
-99.7
-105.82
-111.37
-112.79
-105.43
-85.04
-49.58
-0.42
57.5
116.78
169.48
209.27
232.92
240.73
235.83
222.51
204.63
184.58
163.31
141.25
119.34
99.52
84.39
75.91
74.26
77.39
81.65
83.23
79.52
69.93
55.66
38.92
21.82
5.78
-8.53
-20.72
-30.08
-35.36
-35.22
-29.19
-18.42
-5.84
4.81
10.46
10.09
5.06
-1.78
-7.68
-11.47
-13.99
-17.28
-23.19
-32.14
-42.83
-52.88
-59.97
-62.65
-60.8
-55.33
-47.64
-39.29
-31.65
-25.97
-23.24
-24.12
-28.57
-35.81
-44.29
-52.03
-57.2
-58.66
-56.4
-51.45
-45.53
-40.28
-36.68
-34.7
-33.49
-31.9
-29.15
-25.12
-20.48
-16.35
-13.85
-13.69
-15.82
-19.36
-22.74
-24.18
-22.33
-16.97
-9.29
-1.49
4.21
6.73
6.9
7.13
10.29
18.28
31.04
46.62
62.29
75.75
85.86
92.5
95.87
95.96
92.74
86.76
79.7
74.1
72.27
74.92
80.52
85.81
87.28
82.64
71.71
56.12
38.25
20.12
2.81
-13.46
-28.93
-43.77
-57.8
-70.42
-80.76
-87.88
-91.25
-91.2
-89.19
-87.65
-89.27
-95.86
-107.42
-121.62
-134.22
-140.39
-136.49
-121.69
-98.41
-71.61
-46.78
-27.94
-16.39
-10.87
-8.9
-8.33
-8.19
-8.52
-9.44
-10.43
-10.3
-8.01
-3.59
1.57
5.34
5.94
2.74
-3.65
-12.08
-21.58
-31.7
-42.15
-52.22
-60.65
-66.01
-67.51
-65.63
-61.95
-58.52
-56.7
-56.5
-56.6
-55.25
-51.23
-44.49
-36.11
-27.55
-19.88
-13.37
-7.65
-2.21
3.05
7.69
11.05
12.7
12.83
12.18
11.68
11.99
13.19
14.83
16.26
16.87
16.23
14.16
10.69
6.04
0.66
-4.9
-10.2
-15.01
-19.38
-23.38
-26.81
-29.02
-29.11
-26.32
-20.51
-12.34
-3.11
5.79
13.3
19.03
23.05
25.58
26.78
26.67
25.35
23.16
20.65
18.45
16.94
16.17
15.92
16.04
16.59
17.95
20.51
24.38
29.17
34.1
38.28
41.19
42.81
43.6
44.24
45.31
47.06
49.54
52.51
55.65
58.71
61.43
63.66
65.31
66.46
67.36
68.61
70.96
75.04
80.93
87.75
93.66
96.32
93.69
84.97
71.21
55.23
41.05
32.88
33.99
45.96
68.2
97.97
130.97
162.29
187.64
204.26
211.46
210.24
202.68
190.97
176.63
160.32
141.83
120.59
96.16
68.88
40.04
11.88
-13.17
-33.42
-48.96
-61.77
-75.05
-91.83
-113.62
-139.69
-167.59
-194.22
-217.19
-235.53
-249.83
-261.74
-273.22
-286.06
-301.42
-319.34
-338.38
-355.71
-368.01
-373.14
-371.81
-367.97
-367.41
-374.87
-391.32
-412.9
-432.58
-443.7
-443.06
-432.02
-414.93
-396
-376.81
-355.98
-330.76
-299.48
-263.01
-224.44
-187.73
-156.06
-130.87
-111.68
-96.63
-83.06
-68.24
-50.06
-27.77
-2.28
24.3
49.6
72.04
91.37
108.15
122.79
134.78
142.57
144.43
139.6
129.19
116.07
103.9
95.86
93.47
96.27
102.29
109.24
115.71
121.83
129.25
140.25
156.71
179.49
208.36
242.4
280.26
319.85
357.98
390.35
412.56
421.82
418.57
406.64
391.74
378.72
369.48
362.35
353.79
340.95
323.62
304.21
286
270.72
257.25
242.44
223
197.66
167.79
136.66
107.46
81.76
59.05
37.51
15.54
-7.14
-29.11
-48.2
-62.81
-73.22
-81.82
-92.23
-107.67
-129.16
-154.78
-180.1
-200.21
-211.8
-214.87
-212.74
-210.73
-213.95
-225.43
-245.22
-270.58
-296.83
-318.38
-329.76
-326.64
-306.57
-269.86
-219.47
-160.29
-97.77
-36.28
22.06
77.6
132.14
186.96
240.85
289.15
324.52
339.31
328.56
292.16
235.35
167.23
97.98
35.85
-14.72
-53.56
-83.43
-107.94
-129.65
-149.09
-165.29
-177.01
-184.15
-188.11
-191.02
-194.2
-196.66
-195.39
-187.06
-170.32
-147.17
-122.35
-101.06
-86.47
-78.49
-74.59
-71.69
-68.16
-64.51
-62.76
-64.81
-71.08
-80.04
-88.88
-94.61
-95.4
-91.16
-83.36
-74.19
-65.49
-58.15
-52
-46.48
-41.39
-37.21
-34.74
-34.33
-35.28
-35.91
-34.3
-29.28
-20.96
-10.63
-0.17
8.73
15
18.21
18.16
14.69
7.54
-3.24
-16.95
-32.01
-46.26
-57.46
-64.15
-66.15
-64.44
-60.51
-55.39
-49.18
-41.26
-31.17
-19.28
-6.82
4.89
15.55
26.15
38.61
54.66
74.86
98.39
123.53
148.5
171.96
193.15
211.46
226.61
238.75
248.77
258.37
269.51
283.6
300.77
319.98
339.68
358.71
376.61
393.05
406.58
413.75
409.52
389.06
350.27
295.24
229.91
161.56
95.75
34.34
-24.49
-84.22
-147.39
-213.71
-279.85
-341.04
-393.45
-435.93
-470.11
-498.89
-523.88
-543.37
-552.26
-544.12
-514.35
-462.99
-395.34
-320
-245.36
-176.42
-113.8
-55.27
1.27
55.34
103.58
141.44
165.81
176.95
178.73
177.15
177.95
184.45
196.54
211.41
225.01
233.93
236.51
232.99
224.76
213.38
200
185.15
169.08
152.2
135.14
118.65
103.13
88.13
72.43
54.47
33.2
8.87
-16.7
-40.53
-59.51
-71.44
-75.67
-73.07
-65.4
-54.65
-42.51
-30.34
-19.3
-10.47
-4.68
-2.22
-2.7
-5.17
-8.51
-11.85
-14.87
-17.78
-20.92
-24.37
-27.75
-30.27
-31
-29.3
-24.88
-17.92
-8.8
2.12
14.65
28.67
44
60.16
76.33
91.51
104.87
116.09
125.37
133.15
139.68
144.53
146.31
142.8
131.78
112.21
85.24
54.36
24.26
-1.04
-19.93
-33.7
-45.5
-58.29
-73.03
-88.25
-101.08
-109.18
-112.03
-111.08
-108.54
-106.01
-103.76
-101.06
-97.12
-91.66
-85.03
-77.65
-69.55
-60.23
-49.19
-36.46
-22.94
-10.2
0.08
6.83
10.03
10.63
10.2
10.5
12.95
18.41
27.01
38.04
50.16
61.6
70.62
76.02
77.42
75.17
70.22
63.54
55.81
47.29
37.93
27.73
16.96
6.23
-3.71
-12.2
-18.79
-23.34
-25.85
-26.5
-25.6
-23.62
-21.18
-19.04
-17.81
-17.78
-18.86
-20.51
-22.07
-23.04
-23.29
-23.19
-23.53
-25.22
-28.82
-34.22
-40.29
-45.14
-46.7
-43.45
-35.06
-22.6
-8.09
6.16
18.39
27.8
34.51
39.07
42.07
43.8
44.35
43.82
42.41
40.46
38.29
35.98
33.41
30.39
26.82
22.8
18.69
14.8
11.38
8.44
5.89
3.55
1.25
-1.13
-3.7
-6.37
-9.07
-11.62
-13.92
-16.05
-18.28
-21.01
-24.5
-28.64
-32.74
-35.67
-36.21
-33.48
-27.38
-18.63
-8.59
1.3
9.94
16.81
21.96
25.7
28.29
29.8
30.2
29.45
27.7
25.26
22.46
19.57
16.71
13.97
11.41
9.19
7.44
6.26
5.55
5.07
4.48
3.47
1.94
0.13
-1.37
-1.95
-1.14
1.03
4.02
6.89
8.64
8.49
6.1
1.63
-4.38
-11.12
-17.59
-22.83
-25.97
-26.54
-24.58
-20.58
-15.4
-9.96
-4.95
-0.67
2.89
6.01
8.93
11.83
14.72
17.53
20.13
22.43
24.36
25.95
27.25
28.32
29.19
29.77
29.87
29.16
27.26
23.91
19.07
13.01
6.29
-0.42
-6.57
-11.83
-16.29
-20.31
-24.44
-29.17
-34.69
-40.82
-46.92
-52
-54.93
-54.68
-50.7
-43.07
-32.54
-20.43
-8.22
2.76
11.64
18.08
22.22
24.41
25.08
24.55
23.02
20.69
17.76
14.47
11.12
8.03
5.42
3.39
1.93
0.92
0.26
-0.15
-0.43
-0.66
-0.96
-1.44
-2.15
-3.07
-4.22
-5.63
-7.44
-9.87
-13.17
-17.43
-22.53
-27.9
-32.63
-35.67
-36
-33.09
-27.06
-18.66
-9.07
0.38
8.67
15.18
19.75
22.58
24.02
24.46
24.2
23.42
22.21
20.58
18.58
16.33
14.04
11.96
10.3
9.11
8.21
7.38
6.42
5.3
4.1
2.98
1.98
0.98
-0.24
-1.9
-4.06
-6.61
-9.45
-12.52
-15.84
-19.26
-22.33
-24.19
-23.91
-20.88
-15.19
-7.71
0.25
7.4
12.98
16.86
19.37
20.96
21.9
22.17
21.58
19.96
17.31
13.82
9.84
5.73
1.78
-1.81
-4.97
-7.69
-9.98
-11.78
-13.03
-13.76
-14.15
-14.55
-15.34
-16.79
-18.92
-21.56
-24.49
-27.51
-30.63
-33.9
-37.25
-40.27
-42.29
-42.45
-40.04
-34.76
-26.91
-17.24
-6.89
3.01
11.55
18.21
22.94
26.02
27.9
28.97
29.45
29.41
28.83
27.68
26.1
24.28
22.45
20.75
19.21
17.79
16.41
14.98
13.46
11.76
9.77
7.36
4.45
1.08
-2.59
-6.29
-9.78
-12.9
-15.67
-18.31
-21.1
-24.29
-27.87
-31.45
-34.28
-35.39
-33.93
-29.47
-22.28
-13.25
-3.63
5.32
12.73
18.23
21.9
24.14
25.36
25.85
25.76
25.1
23.88
22.16
20.11
17.97
16.01
14.42
13.26
12.44
11.84
11.27
10.57
9.61
8.24
6.38
3.99
1.11
-2.09
-5.36
-8.5
-11.37
-14.03
-16.67
-19.6
-23.04
-26.97
-30.97
-34.19
-35.62
-34.37
-30.06
-23.02
-14.2
-4.88
3.75
10.9
16.33
20.13
22.6
24
24.47
24.12
23.1
21.66
20.15
18.84
17.89
17.32
17.06
17.02
17.18
17.51
17.87
17.99
17.48
16.01
13.5
10.13
6.3
2.46
-1.13
-4.45
-7.68
-11.1
-14.98
-19.52
-24.82
-30.81
-37.1
-42.97
-47.35
-49.13
-47.55
-42.57
-34.88
-25.72
-16.44
-8.08
-1.15
4.21
8.16
10.86
12.41
12.97
12.7
11.84
10.62
9.23
7.82
6.55
5.56
4.93
4.65
4.53
4.29
3.64
2.43
0.71
-1.36
-3.61
-5.98
-8.47
-11.13
-13.89
-16.58
-19.06
-21.32
-23.53
-25.99
-28.85
-31.83
-34.19
-34.91
-33.11
-28.49
-21.46
-13.03
-4.39
3.45
9.94
14.93
18.53
20.92
22.19
22.42
21.72
20.2
18.09
15.65
13.18
10.98
9.25
8.03
7.12
6.25
5.14
3.73
2.15
0.68
-0.49
-1.31
-1.98
-2.73
-3.73
-5.05
-6.64
-8.51
-10.8
-13.66
-17.07
-20.67
-23.66
-25.06
-23.98
-20
-13.44
-5.24
3.31
10.98
16.98
21.08
23.48
24.59
24.77
24.23
23
21.17
18.9
16.52
14.35
12.63
11.42
10.59
9.92
9.21
8.3
7.11
5.57
3.7
1.5
-0.91
-3.39
-5.78
-8
-10.14
-12.4
-15.09
-18.4
-22.3
-26.34
-29.71
-31.41
-30.57
-26.79
-20.31
-12.03
-3.14
5.17
12.14
17.5
21.38
24.12
25.97
27
27.12
26.25
24.5
22.28
20.2
18.83
18.49
18.98
19.75
20.02
19.18
17.04
13.89
10.41
7.28
4.98
3.56
2.77
2.15
1.21
-0.47
-3.17
-6.96
-11.55
-16.32
-20.23
-22.13
-21.12
-16.98
-10.4
-2.91
3.81
8.53
11.04
12.17
13.34
15.66
19.33
23.47
26.49
27.02
24.68
20.31
15.49
11.68
9.37
8.05
6.59
4.02
0.06
-4.87
-10.14
-15.43
-20.97
-27.43
-35.25
-44.41
-54.45
-64.91
-75.92
-88.37
-103.5
-122.1
-143.86
-166.93
-188.31
-204.5
-212.36
-209.79
-196.03
-171.71
-138.73
-99.84
-58.28
-17.12
21.2
55.24
84.56
109.38
130.19
147.36
161.15
171.69
179.22
184.04
186.49
186.72
184.56
179.59
171.3
159.54
144.74
128.07
111.03
95
80.55
67.31
54.3
40.7
26.53
12.7
0.39
-10.02
-19.55
-30.49
-45.41
-65.92
-91.99
-121.9
-152.83
-181.49
-204.51
-218.79
-221.74
-212.08
-190.48
-159.82
-124.54
-89.21
-56.92
-28.35
-2.11
24.03
51.47
79.75
106.46
128.21
141.99
146.32
141.64
129.95
114
96.34
78.75
62.22
47.24
34.23
23.62
15.86
11.02
8.72
8.15
8.4
8.87
9.41
10.3
11.84
14.13
16.67
18.62
18.98
17.07
12.92
7.38
1.88
-2
-3.13
-1.23
3.11
8.7
14.25
18.84
22.17
24.3
25.49
25.86
25.31
23.7
21.09
17.77
14.32
11.33
9.18
7.89
7.17
6.63
5.96
5.13
4.29
3.66
3.32
3.14
2.82
2.04
0.62
-1.38
-3.67
-5.89
-7.78
-9.34
-10.75
-12.35
-14.49
-17.45
-21.31
-25.92
-30.87
-35.45
-38.77
-39.94
-38.36
-33.9
-27.1
-18.94
-10.56
-2.92
3.45
8.46
12.24
14.91
16.49
16.9
16.18
14.58
12.53
10.55
9.05
8.18
7.85
7.78
7.71
7.45
6.95
6.28
5.56
4.79
3.83
2.42
0.28
-2.76
-6.57
-10.73
-14.66
-17.79
-19.94
-21.24
-22.21
-23.47
-25.59
-28.81
-33.02
-37.67
-41.88
-44.62
-44.95
-42.33
-36.86
-29.28
-20.82
-12.71
-5.87
-0.64
3.2
6.12
8.51
10.52
12.03
12.83
12.84
12.19
11.24
10.38
9.9
9.83
9.98
10.1
10.02
9.72
9.33
8.97
8.68
8.35
7.72
6.51
4.56
1.94
-1.11
-4.19
-6.9
-8.98
-10.39
-11.34
-12.22
-13.44
-15.37
-18.18
-21.76
-25.68
-29.25
-31.66
-32.14
-30.21
-25.84
-19.52
-12.08
-4.49
2.5
8.44
13.32
17.34
20.66
23.18
24.47
24.08
21.81
18.05
13.76
10.15
8.19
8.17
9.73
11.96
14.02
15.35
15.88
15.74
15.15
14.12
12.54
10.23
7.16
3.44
-0.65
-4.77
-8.59
-11.88
-14.6
-16.9
-19.01
-21.21
-23.65
-26.35
-29.25
-32.26
-35.26
-38
-39.99
-40.47
-38.65
-34.04
-26.76
-17.58
-7.69
1.66
9.59
15.74
20.14
22.98
24.46
24.73
24.05
22.81
21.51
20.58
20.2
20.21
20.13
19.4
17.59
14.62
10.82
6.87
3.45
1.07
-0.17
-0.57
-0.69
-1.13
-2.27
-4.2
-6.77
-9.67
-12.68
-15.62
-18.42
-21.1
-23.74
-26.44
-29.36
-32.57
-36
-39.32
-41.94
-43.09
-42.06
-38.47
-32.45
-24.65
-16.09
-7.83
-0.72
4.83
8.83
11.55
13.28
14.24
14.5
14.06
12.94
11.23
9.11
6.8
4.54
2.63
1.36
1.03
1.77
3.5
5.89
8.5
10.91
12.89
14.39
15.42
16.01
16.2
16.06
15.81
15.76
16.14
17.05
18.21
19.15
19.51
19.12
18.32
17.64
17.69
18.77
20.86
23.64
26.78
30.02
33.16
36.03
38.33
39.6
39.34
37.22
33.24
27.72
21.32
14.66
8.27
2.45
-2.72
-7.28
-11.33
-14.94
-18.13
-20.89
-23.22
-25.18
-26.86
-28.43
-29.98
-31.55
-33.05
-34.33
-35.29
-35.97
-36.54
-37.2
-38.15
-39.43
-41.03
-42.86
-44.7
-46.18
-46.75
-45.66
-42.29
-36.37
-28.19
-18.57
-8.7
0.34
7.82
13.44
17.3
19.65
20.69
20.59
19.51
17.64
15.33
12.99
10.98
9.56
8.84
8.74
9.07
9.6
10.08
10.35
10.21
9.54
8.24
6.33
3.9
1.13
-1.75
-4.52
-7
-9.09
-10.76
-12.11
-13.39
-14.93
-16.93
-19.23
-21.17
-21.69
-19.74
-14.73
-6.93
2.58
12.19
20.4
26.33
29.86
31.39
31.53
30.65
28.88
26.2
22.73
18.78
14.85
11.38
8.56
6.29
4.34
2.55
0.98
-0.15
-0.64
-0.42
0.31
1.16
1.71
1.57
0.5
-1.54
-4.49
-8.12
-12.15
-16.24
-20.15
-23.78
-27.18
-30.38
-33.27
-35.41
-36.09
-34.59
-30.48
-23.93
-15.69
-6.86
1.49
8.69
14.57
19.35
23.31
26.54
28.89
30.1
30.06
28.94
27.19
25.36
23.85
22.76
21.95
21.13
20.09
18.75
17.24
15.77
14.44
13.17
11.7
9.66
6.78
3.06
-1.19
-5.44
-9.17
-12.08
-14.32
-16.33
-18.68
-21.8
-25.72
-30.11
-34.29
-37.43
-38.72
-37.61
-33.91
-27.9
-20.26
-11.9
-3.83
3.16
8.68
12.68
15.39
17.08
17.99
18.3
18.16
17.76
17.28
16.87
16.53
16.11
15.43
14.41
13.18
11.97
11.04
10.48
10.16
9.77
8.96
7.45
5.21
2.42
-0.62
-3.55
-6.16
-8.43
-10.55
-12.87
-15.72
-19.34
-23.7
-28.48
-32.97
-36.33
-37.63
-36.22
-31.94
-25.21
-17.01
-8.57
-1.04
4.94
9.22
12.14
14.23
15.93
17.4
18.6
19.32
19.44
18.94
17.87
16.37
14.47
12.2
9.62
6.9
4.38
2.42
1.17
0.39
-0.56
-2.56
-6.31
-11.93
-18.77
-25.64
-31.28
-34.85
-36.26
-36.17
-35.57
-35.42
-36.23
-38
-40.29
-42.34
-43.22
-41.95
-37.8
-30.61
-21.01
-10.2
0.33
9.51
17.02
23.27
28.87
34.14
38.79
42.07
43.23
41.92
38.44
33.59
28.41
23.91
20.96
20.25
22.25
27.12
34.58
43.91
54.03
63.71
71.72
77.05
78.85
76.5
69.78
59.02
45.33
30.47
16.44
4.8
-3.93
-10.49
-16.44
-23.29
-31.62
-40.7
-48.84
-54.18
-55.71
-53.7
-49.44
-44.62
-40.45
-37.21
-34.34
-30.98
-26.58
-21.35
-16.27
-12.75
-12.25
-15.68
-23.03
-32.85
-42.29
-47.57
-45.24
-33.74
-14.48
8.14
28.22
40.63
43.07
36.92
26.51
17.1
12.8
15.25
23.58
35.35
47.92
59.42
69.06
76.88
83.22
88.28
91.89
93.78
93.83
92.18
88.95
84.01
76.91
67.26
55.36
42.63
31.34
23.74
21.09
23.06
27.98
33.7
38.51
41.62
43
42.92
41.47
38.56
34.18
28.62
22.56
16.81
11.97
8.2
5.18
2.28
-1.06
-5.05
-9.59
-14.41
-19.42
-24.79
-30.89
-37.98
-46.08
-55.1
-65.04
-76.06
-88.19
-100.93
-112.98
-122.56
-128.23
-129.69
-128.08
-125.38
-123.39
-122.7
-122.61
-121.66
-118.63
-113.21
-105.86
-97.29
-87.68
-76.6
-63.16
-46.7
-27.19
-5.44
17.17
39.16
59.37
77.17
92.31
104.72
114.26
120.85
124.57
125.81
125.15
123.12
119.87
115.03
108.04
98.49
86.63
73.46
60.5
49.16
40.11
33.02
26.66
19.63
11.01
0.85
-9.95
-20.16
-28.9
-36.16
-42.73
-49.71
-57.9
-67.45
-77.82
-88.17
-97.73
-106.11
-113.48
-120.32
-127.25
-134.72
-142.68
-150.56
-157.27
-161.46
-161.82
-157.32
-147.35
-131.82
-111.06
-85.78
-57.07
-26.16
5.62
37.07
67.07
94.64
118.81
138.69
153.59
163.13
167.4
166.85
162.13
153.77
142.07
127.02
108.53
86.59
61.67
34.84
7.84
-17.22
-38.4
-54.35
-64.55
-69.28
-69.26
-65.4
-58.63
-49.81
-39.79
-29.34
-19.07
-9.21
0.38
10.1
20.28
30.91
41.5
51.19
59.07
64.28
66.32
65.12
61.09
55.19
48.78
43.42
40.4
40.47
43.58
48.88
55.09
60.85
65.06
67.03
66.48
63.39
57.97
50.56
41.58
31.54
20.88
10.04
-0.62
-10.78
-20.11
-28.31
-35.08
-40.18
-43.44
-44.92
-44.9
-43.94
-42.85
-42.47
-43.55
-46.53
-51.4
-57.58
-64.04
-69.4
-72.16
-71.15
-65.76
-56.26
-43.6
-29.21
-14.57
-0.9
10.94
20.53
27.72
32.74
36.11
38.66
41.25
44.42
48.17
51.89
54.54
55
52.53
46.92
38.51
28.02
16.34
4.3
-7.4
-18.16
-27.57
-35.31
-41.24
-45.44
-48.19
-49.98
-51.23
-52.19
-52.82
-52.86
-51.98
-49.9
-46.46
-41.45
-34.7
-26.12
-15.95
-4.94
5.76
14.88
21.6
25.81
28.15
29.56
30.81
32.15
33.32
33.82
33.23
31.36
28.18
23.78
18.18
11.48
3.95
-3.9
-11.35
-17.73
-22.56
-25.79
-27.66
-28.67
-29.38
-30.26
-31.59
-33.48
-35.82
-38.36
-40.88
-43.12
-44.97
-46.54
-48.06
-49.83
-52.05
-54.57
-56.88
-58.12
-57.33
-53.8
-47.33
-38.41
-28.07
-17.5
-7.71
0.85
8.27
15
21.49
27.87
33.93
39.21
43.26
45.86
47.09
47.24
46.62
45.42
43.73
41.52
38.79
35.57
32.02
28.34
24.66
21.03
17.47
13.96
10.53
7.32
4.52
2.29
0.66
-0.54
-1.69
-3.15
-5.3
-8.3
-12.19
-16.82
-21.87
-26.75
-30.69
-32.83
-32.41
-29.14
-23.28
-15.62
-7.31
0.55
7.19
12.28
15.91
18.35
19.92
20.86
21.31
21.37
21.15
20.74
20.27
19.81
19.38
18.98
18.57
18.1
17.51
16.75
15.74
14.41
12.64
10.34
7.43
3.94
0.04
-3.99
-7.81
-11.15
-13.92
-16.28
-18.62
-21.4
-24.99
-29.48
-34.57
-39.55
-43.43
-45.18
-44.03
-39.73
-32.7
-23.93
-14.7
-6.18
0.87
6.22
10.1
12.92
15.07
16.78
18.09
18.94
19.32
19.26
18.88
18.36
17.82
17.35
16.95
16.56
16.08
15.37
14.26
12.63
10.4
7.64
4.5
1.24
-1.92
-4.8
-7.35
-9.64
-11.85
-14.19
-16.87
-19.93
-23.09
-25.73
-26.94
-25.81
-21.78
-14.99
-6.24
3.24
12.18
19.72
25.54
29.79
32.85
35.07
36.65
37.66
38.06
37.92
37.34
36.58
35.93
35.7
36.05
36.94
38.13
39.21
39.8
39.58
38.31
35.8
31.83
26.23
19.06
10.71
1.75
-7.34
-16.49
-26.14
-36.96
-49.41
-63.22
-77.42
-90.61
-101.63
-109.86
-115.2
-117.56
-116.53
-111.39
-101.56
-87.25
-69.72
-51.1
-33.54
-18.53
-6.45
3.17
11.12
17.99
23.91
28.64
31.76
32.76
30.99
25.77
16.71
4.15
-10.42
-24.64
-35.92
-42.42
-43.82
-41.4
-37.34
-33.74
-31.61
-30.7
-29.84
-27.71
-23.37
-16.52
-7.29
4.09
17.41
32.37
48.44
64.65
79.79
92.56
101.86
106.97
107.62
104.06
97.03
87.88
78.3
70.05
64.48
61.95
61.71
61.97
60.58
55.78
46.98
34.94
21.49
8.68
-2.03
-10.24
-16.59
-22.16
-27.79
-33.68
-39.45
-44.59
-48.83
-52.35
-55.5
-58.5
-61.15
-62.92
-63.29
-62.05
-59.51
-56.32
-53.09
-50.06
-46.95
-43.15
-38.1
-31.53
-23.52
-14.33
-4.22
6.46
17.15
26.81
34.06
37.59
36.73
31.83
24.24
15.75
8.03
2.08
-1.8
-3.82
-4.48
-4.3
-3.86
-3.87
-5.03
-7.88
-12.56
-18.73
-25.67
-32.42
-38.03
-41.63
-42.43
-39.89
-33.91
-25.1
-14.92
-5.53
0.81
2.43
-1.04
-8.51
-17.82
-26.48
-32.58
-35.35
-35.17
-33.1
-30.35
-27.74
-25.66
-24.2
-23.57
-24.41
-27.72
-34.72
-46.44
-63.4
-85.43
-111.65
-140.37
-168.99
-194.27
-212.7
-221.33
-218.52
-204.25
-179.93
-147.55
-108.87
-65.02
-16.75
34.83
87.66
138.65
184.31
221.94
250.41
270.3
283.27
291.01
294.42
293.37
287.17
275.16
257.45
235.07
209.8
183.62
158.24
134.77
113.56
94.44
77.06
61.11
46.64
34.06
23.75
15.76
9.45
3.59
-3.14
-11.72
-22.37
-34.8
-48.61
-63.68
-80.18
-98.02
-116.21
-132.68
-144.78
-150.28
-148.34
-139.67
-125.99
-108.98
-89.8
-69.17
-48.22
-29.02
-14.39
-6.93
-7.82
-16.18
-29.45
-44.76
-60.12
-75.07
-90.15
-105.79
-121.34
-134.93
-144.14
-147.12
-143.49
-134.42
-122.07
-108.52
-94.87
-81.05
-66.16
-49.27
-30.21
-9.96
9.56
26.16
38.11
44.86
47.21
47.26
47.85
51.78
61.01
76.09
95.97
118.38
140.46
159.5
173.56
181.59
183.33
179.02
169.26
155.12
138.25
120.83
105.24
93.4
86.09
82.7
81.55
80.63
78.46
74.58
69.51
64.17
59.18
54.44
49.32
43.16
35.93
28.36
21.58
16.35
12.59
9.31
5.22
-0.38
-7.14
-13.82
-19.04
-22.09
-23.41
-24.16
-25.43
-27.57
-29.97
-31.64
-32.06
-31.59
-31.35
-32.49
-35.34
-39.22
-42.7
-44.4
-43.73
-41.11
-37.63
-34.48
-32.37
-31.38
-31.13
-31.1
-30.91
-30.42
-29.76
-29.2
-29.13
-29.9
-31.63
-34.06
-36.51
-37.92
-37.27
-33.88
-27.71
-19.37
-9.89
-0.3
8.59
16.36
22.92
28.3
32.63
36.05
38.73
40.81
42.49
43.87
45.06
46.16
47.29
48.57
50.1
51.78
53.37
54.61
55.29
55.35
54.87
53.89
52.32
49.97
46.72
42.67
38.24
33.98
30.16
26.56
22.55
17.6
11.74
5.68
0.47
-3.26
-5.84
-8.35
-11.86
-16.54
-21.35
-24.59
-25.07
-22.87
-19.44
-16.83
-16.56
-19.1
-23.92
-30.25
-37.63
-45.98
-55.21
-64.63
-72.98
-78.82
-81.15
-79.86
-75.66
-69.68
-63.01
-56.4
-50.18
-44.34
-38.54
-32.23
-24.76
-15.58
-4.57
7.76
20.17
31.16
39.44
44.64
47.48
49.4
51.93
55.84
60.67
64.96
67
65.69
61.17
54.79
48.53
44.21
42.88
44.63
48.86
54.76
61.63
69
76.5
83.6
89.39
92.63
91.82
85.64
73.29
54.87
31.47
5.03
-21.96
-46.98
-67.92
-83.48
-93.19
-97.4
-97.02
-93.2
-87.1
-79.7
-71.71
-63.61
-55.68
-48.08
-40.88
-34.14
-27.9
-22.28
-17.52
-13.99
-12.09
-12.12
-14.09
-17.7
-22.36
-27.31
-31.86
-35.48
-37.89
-38.98
-38.76
-37.29
-34.7
-31.17
-26.89
-22.16
-17.28
-12.57
-8.31
-4.69
-1.82
0.18
1.15
0.85
-0.96
-4.29
-8.83
-13.93
-18.83
-22.9
-25.87
-27.85
-29.07
-29.69
-29.61
-28.68
-26.85
-24.44
-22.02
-20.18
-19.29
-19.32
-20.03
-21.14
-22.65
-24.73
-27.56
-31.03
-34.55
-37.27
-38.25
-36.93
-33.23
-27.48
-20.33
-12.48
-4.63
2.58
8.65
13.2
16.1
17.5
17.75
17.25
16.37
15.32
14.21
13.13
12.2
11.55
11.29
11.35
11.53
11.45
10.7
8.99
6.29
2.8
-1.01
-4.69
-7.92
-10.7
-13.2
-15.71
-18.44
-21.39
-24.49
-27.54
-30.41
-32.93
-34.84
-35.64
-34.74
-31.62
-26.07
-18.46
-9.62
-0.69
7.32
13.78
18.54
21.86
24.07
25.48
26.19
26.24
25.66
24.58
23.24
21.87
20.65
19.62
18.74
17.99
17.3
16.63
15.85
14.86
13.51
11.75
9.66
7.41
5.21
3.14
1.17
-0.92
-3.38
-6.43
-10.14
-14.4
-18.84
-22.9
-25.86
-26.99
-25.78
-22.07
-16.2
-8.95
-1.35
5.68
11.5
15.9
18.96
20.92
21.94
22.11
21.45
20.09
18.29
16.44
14.91
13.89
13.38
13.15
12.89
12.34
11.41
10.09
8.46
6.58
4.51
2.3
-0
-2.32
-4.62
-6.91
-9.26
-11.75
-14.5
-17.58
-21.04
-24.88
-28.96
-32.81
-35.74
-36.83
-35.35
-31.02
-24.23
-15.92
-7.33
0.49
6.93
11.89
15.54
18.13
19.81
20.59
20.46
19.46
17.73
15.54
13.17
10.93
9.07
7.8
7.14
6.96
7.03
7.04
6.74
5.9
4.47
2.44
-0.04
-2.73
-5.29
-7.43
-8.99
-10.11
-11.13
-12.52
-14.72
-17.87
-21.77
-25.77
-29
-30.5
-29.55
-25.94
-19.97
-12.49
-4.55
2.82
8.92
13.47
16.52
18.31
19.1
19.04
18.28
16.93
15.15
13.14
11.13
9.28
7.72
6.54
5.83
5.7
6.18
7.18
8.39
9.43
9.88
9.51
8.35
6.64
4.73
2.87
1.11
-0.69
-2.78
-5.4
-8.67
-12.6
-17.04
-21.68
-26.05
-29.47
-31.23
-30.75
-27.82
-22.65
-15.87
-8.33
-0.86
5.94
11.75
16.46
20.06
22.57
23.99
24.37
23.84
22.56
20.71
18.53
16.22
13.98
11.98
10.34
9.07
8.09
7.22
6.24
4.97
3.3
1.26
-1.04
-3.43
-5.73
-7.81
-9.67
-11.42
-13.22
-15.31
-17.84
-20.8
-23.97
-26.89
-28.88
-29.23
-27.35
-23.05
-16.61
-8.78
-0.49
7.41
14.33
20.11
24.76
28.34
30.81
32.01
31.83
30.38
27.97
25.06
22.02
19.02
16
12.82
9.3
5.31
0.65
-5.12
-12.63
-22.54
-35.25
-50.69
-68.27
-87.04
-105.93
-123.89
-139.87
-152.8
-161.59
-165.28
-163.28
-155.49
-142.31
-124.45
-102.66
-77.58
-49.79
-19.96
10.9
41.37
69.9
95.01
115.67
131.49
142.63
149.64
153.22
153.98
152.44
149.13
144.61
139.5
134.43
129.83
125.9
122.65
119.92
117.34
114.41
110.36
104.34
95.74
84.39
70.88
56.34
42.1
29.17
17.93
8.19
-0.51
-8.45
-15.66
-21.92
-27.12
-31.46
-35.39
-39.38
-43.59
-47.66
-50.78
-52.05
-50.8
-46.93
-40.99
-33.96
-26.97
-20.95
-16.45
-13.57
-12.15
-11.97
-12.84
-14.64
-17.15
-20
-22.61
-24.36
-24.8
-23.8
-21.58
-18.58
-15.33
-12.24
-9.61
-7.65
-6.46
-6.11
-6.49
-7.44
-8.68
-9.95
-11.08
-11.98
-12.63
-13.08
-13.38
-13.66
-14.18
-15.25
-17.2
-20.19
-24.14
-28.59
-32.77
-35.79
-36.77
-35.19
-30.95
-24.47
-16.58
-8.22
-0.28
6.7
12.51
17.2
20.88
23.64
25.42
26.13
25.8
24.69
23.25
22
21.31
21.23
21.58
21.99
22.1
21.78
21.05
20.02
18.79
17.43
15.95
14.38
12.71
10.89
8.77
6.21
3.14
-0.26
-3.6
-6.47
-8.76
-10.85
-13.46
-17.34
-22.8
-29.45
-36.16
-41.43
-44.01
-43.35
-39.85
-34.7
-29.3
-24.94
-22.26
-21.25
-21.34
-21.86
-22.4
-23.06
-24.62
-28.38
-35.96
-48.74
-66.95
-88.43
-108.15
-119.06
-114.28
-89.55
-44.89
15.28
83.74
152.54
214.77
265.27
300.48
318.22
317.71
300.06
268.35
227.04
180.93
133.92
88.78
47.37
11.29
-18.13
-40.04
-54.5
-62.62
-65.9
-65.8
-63.16
-58.17
-50.78
-41.23
-30.37
-19.42
-9.67
-2.13
2.58
4.31
3.31
0.01
-5.01
-11.21
-18.21
-25.75
-33.61
-41.38
-48.43
-53.95
-57.29
-58.22
-57.17
-54.99
-52.56
-50.43
-48.63
-46.81
-44.58
-41.89
-39.1
-36.86
-35.69
-35.71
-36.51
-37.38
-37.7
-37.14
-35.86
-34.29
-32.98
-32.32
-32.38
-32.98
-33.64
-33.68
-32.34
-28.92
-23.04
-14.86
-5.16
4.94
14.31
22.39
29.22
35.27
40.88
45.7
48.62
48.13
43.17
33.91
21.86
9.29
-1.76
-10.44
-17.53
-25.16
-35.87
-51.47
-72.42
-97.75
-125.53
-153.34
-178.72
-199.42
-213.7
-220.88
-221.7
-218.29
-213.48
-209.69
-208.06
-208.16
-208.77
-208.92
-208.61
-208.46
-208.29
-205.69
-195.75
-172.66
-132.28
-74.46
-3.74
72.1
144.88
208.91
262.77
309.2
353.24
399.54
449.51
500.02
543.8
571.8
576.6
555.26
510.5
449.47
380.9
312.11
247.31
187.8
133.08
82.22
34.45
-11.03
-55.2
-98.87
-141.7
-181.44
-214.1
-235.4
-242.5
-235.21
-216.06
-188.95
-157.43
-123.52
-87.75
-50.22
-11.77
25.61
59.29
87.14
108.6
124.6
136.71
146.02
152.58
155.72
155.2
151.97
148.18
146.27
147.77
152.53
158.95
164.82
168.35
168.62
165.27
158.16
147.2
132.52
114.81
95.36
75.31
54.69
32.02
5.05
-27.49
-64.03
-99.73
-128.1
-143.83
-145.73
-137.6
-126.73
-120.67
-123.91
-136.42
-154.39
-172.64
-187.11
-196.23
-200.8
-202.61
-202.81
-201.02
-195.81
-186.1
-172.7
-158.86
-149.05
-146.67
-151.71
-160.2
-165.76
-162.88
-149.85
-129.75
-108.9
-93.67
-87.41
-89.19
-95.04
-100.57
-103.65
-105.46
-109.55
-119.56
-136.74
-159.15
-182.19
-200.55
-210.19
-209.2
-197.56
-176.16
-146.1
-108.76
-66.84
-25
10.57
34.13
42.92
38.8
27.97
18.72
18.25
29.92
52.37
80.46
107.87
129.88
145.06
155.15
163.31
171.89
181.15
189.62
195.58
198.67
200.33
202.68
206.79
211.39
213.12
208.24
194.68
173.09
146.41
118.27
91.48
67.48
46.76
29.74
17.22
10.21
9.12
13.21
20.44
27.9
32.65
32.52
26.89
16.99
5.82
-2.62
-4.36
3.22
20.5
45.49
74.42
102.86
126.88
143.83
152.54
153.28
147.5
137.54
126.17
115.99
108.58
103.89
100.15
94.39
83.59
65.89
41.51
12.7
-16.94
-43.82
-65.62
-81.85
-93.71
-103.15
-112.01
-121.45
-132.08
-144.26
-158.41
-174.73
-192.64
-210.29
-224.81
-233.36
-234.78
-230.79
-225.99
-226.29
-236.3
-256.78
-283.51
-308.26
-321.41
-315.42
-287.32
-239.51
-178.55
-112.93
-50.91
1.04
38.82
60.91
68.29
64.34
54.27
44.07
38.83
41.24
50.83
64.41
77.49
86.09
88.16
83.98
75.69
66.07
57.48
51.32
48.09
47.98
51.29
58.43
69.38
83.11
97.47
109.62
117.2
119.03
115.43
107.71
97.22
84.64
69.72
51.92
31.17
8.56
-13.73
-33.1
-47.62
-57.01
-62.65
-66.91
-71.68
-77.21
-81.82
-82.87
-78.21
-67.46
-52.19
-35.02
-18.13
-2.41
12.59
27.73
43.34
58.76
72.69
84.01
92.52
99.09
105.08
111.76
119.54
127.84
135.12
139.14
137.35
127.37
107.67
78.26
41.31
1.04
-37.05
-67.66
-87.02
-93.9
-89.52
-76.71
-58.79
-38.54
-18.08
0.81
16.21
25.79
27.18
18.66
0.08
-26.8
-58.55
-90.89
-119.8
-142.54
-158.09
-167.01
-170.74
-170.64
-167.19
-159.84
-147.46
-129.21
-105.53
-78.79
-53.08
-33.48
-24.63
-29.42
-47.95
-77.19
-111.47
-143.5
-166.04
-173.33
-162.36
-133.51
-90.22
-38.12
16.5
68.1
113.21
150.86
182.16
208.9
231.96
250.29
260.98
260.72
247.45
221.63
186.04
144.51
100.47
56.39
14.38
-22.59
-50.16
-63.56
-59.79
-39.7
-8.45
26.07
56.18
77.22
88.41
91.82
90.15
84.84
75.65
61.77
43.47
22.97
4.01
-9.84
-16.94
-18.32
-16.98
-16.22
-17.79
-21.15
-23.95
-23.47
-18.22
-8.63
3.34
15.37
25.91
34.65
42.08
48.62
54.12
58.04
60.22
61.51
63.68
68.43
76.14
85.12
92.03
93.37
86.92
72.44
51.24
25.09
-4.52
-36.35
-68.95
-100.38
-128.68
-152.75
-172.91
-190.78
-208.04
-225.27
-241.32
-253.66
-259.15
-255.22
-240.33
-214.05
-177.13
-131.3
-79.14
-23.6
32.51
86.7
136.37
178.06
207.57
221.12
217.5
199.59
174.24
149.84
132.89
125.49
125.14
126.92
126.32
121.21
111.6
98.18
80.87
58.82
31.59
0.73
-29.82
-54.9
-70.12
-73.67
-66.85
-53.29
-37.39
-22.75
-11.46
-3.96
0.51
3.24
5.62
8.68
12.95
18.4
24.61
30.97
36.87
41.66
44.55
44.6
41
33.46
22.61
9.87
-3.05
-14.97
-25.7
-35.87
-46.29
-57.07
-67.25
-75.19
-79.65
-80.77
-80.33
-81.1
-85.47
-94.27
-106.2
-118.34
-127.37
-130.89
-128.22
-120.45
-109.81
-98.69
-89.02
-81.83
-77.57
-76.44
-78.62
-83.89
-91.09
-97.52
-99.1
-91.33
-70.81
-36.39
10.49
66.36
126.4
185
235.94
273.05
291.41
289.29
269.51
239.2
207.58
182.44
167.13
159.75
154.91
146.8
132.06
110.73
85.33
58.97
33.74
10.41
-10.98
-30.29
-46.92
-59.92
-68.67
-73.32
-74.79
-74.37
-73.23
-72.14
-71.38
-70.87
-70.07
-68.03
-63.4
-54.91
-42.01
-25.57
-8.05
7.07
16.55
18.59
13.47
3.38
-8.5
-19.14
-26.48
-29.93
-30.13
-28.37
-25.96
-23.38
-19.88
-13.62
-2.44
14.91
37.81
63.58
88.25
107.82
119.45
121.88
115.22
100.28
78.15
50.32
19.09
-12.12
-39.1
-57.78
-65.67
-62.95
-52.68
-39.99
-30.4
-27.95
-33.82
-46.11
-60.71
-73.08
-80.03
-80.73
-76.66
-70.62
-65.48
-62.99
-63.5
-66.01
-68.95
-70.86
-70.93
-69.05
-65.46
-60.34
-53.56
-44.79
-33.98
-21.78
-9.67
0.57
7.67
11.45
13.1
14.49
17.3
22.16
28.43
34.66
39.39
41.94
42.69
42.75
43.3
44.84
46.95
48.47
48.15
45.39
40.58
34.89
29.62
25.52
22.43
19.46
15.61
10.12
2.79
-6.21
-16.3
-26.15
-33.38
-34.36
-25.17
-3.27
30.65
71.95
113
145.82
164.86
168.62
159.4
141.42
118.64
93.47
66.82
39.04
10.98
-15.78
-39.41
-58.65
-73.29
-84.1
-92.47
-99.84
-107.36
-115.61
-124.38
-132.62
-138.55
-140.13
-135.75
-124.91
-108.53
-88.76
-68.23
-49.28
-33.25
-20.32
-9.92
-1.26
6.16
12.37
17.18
20.37
21.97
22.3
21.81
20.93
20.1
19.78
20.47
22.7
26.64
31.91
37.37
41.32
41.98
38.18
29.84
18.25
5.64
-5.62
-13.99
-19.43
-23.47
-28.39
-35.72
-44.86
-52.54
-53.4
-41.61
-13.14
32.54
91.42
155.43
214.23
257.7
278.83
275.83
252.74
218.07
182.01
152.94
134.91
126.96
124.46
121.51
113.33
97.56
74.11
44.29
9.95
-27.14
-65.36
-103.2
-139.07
-171.28
-198.02
-217.62
-228.81
-231.26
-226.02
-215.41
-202.44
-189.73
-178.7
-169.26
-160.3
-150.68
-140.07
-129.26
-119.5
-111.86
-106.49
-102.54
-98.52
-92.99
-85.1
-74.75
-62.48
-49.06
-35.03
-20.6
-5.66
9.94
26.08
42.23
57.65
71.53
83.31
92.71
99.62
103.87
105.26
103.59
99.03
92.32
84.68
77.44
71.53
67.04
63.39
59.74
55.56
51.04
46.95
44.12
42.81
42.24
40.6
35.55
25.13
8.65
-12.43
-34.37
-51.77
-59.01
-52.15
-30.58
2.38
40.17
74.92
99.7
110.38
106.28
89.75
65.08
37.22
10.9
-10.07
-23.2
-27.79
-25.16
-18.49
-11.82
-8.76
-11.25
-19.05
-30.23
-42.28
-53.38
-62.87
-71.09
-78.45
-84.78
-89.03
-89.75
-85.93
-77.49
-65.44
-51.48
-37.37
-24.41
-13.38
-4.65
1.67
5.54
7.07
6.53
4.39
1.1
-3.15
-8.67
-16.16
-26.42
-39.75
-55.57
-72.43
-88.47
-102.28
-113.31
-121.92
-128.63
-133.14
-133.8
-127.75
-111.79
-83.58
-42.7
8.73
66.08
122.8
171.63
206.07
221.92
218.51
198.87
168.95
135.93
106.28
84.15
70.8
64.84
63.29
62.75
60.3
54.02
43.11
27.72
8.77
-12.22
-33.38
-52.72
-68.48
-79.43
-85.05
-85.6
-81.76
-74.42
-64.53
-53.02
-40.91
-29.29
-19.23
-11.45
-6.16
-3.05
-1.5
-0.88
-0.69
-0.6
-0.29
0.57
2.3
5.08
8.52
11.56
12.53
9.69
1.88
-10.77
-26.86
-44.33
-61.31
-77.01
-91.78
-106.25
-120.19
-131.66
-137.06
-132.34
-114.52
-82.82
-38.53
15.57
75.79
137.52
194.8
240.32
266.55
268.05
243.78
198.2
140.24
80.27
26.77
-15.86
-47.45
-70.4
-87.52
-100.52
-109.64
-114.21
-113.62
-107.89
-97.86
-84.96
-71.01
-57.54
-45.58
-35.38
-26.51
-18.12
-9.44
-0.2
9.22
18.08
25.59
31.22
34.78
36.17
35.15
31.37
24.58
14.96
3.39
-8.79
-20.38
-30.8
-40.28
-49.5
-58.94
-68.42
-77
-83.56
-87.44
-89.03
-89.71
-91.21
-94.72
-100.04
-105.46
-108.18
-105.35
-95.13
-77.45
-54.09
-28.04
-2.67
19.2
35.95
47.4
54.87
60.88
68.52
80.45
97.74
119.26
141.7
160.78
172.85
176.35
172.23
163.22
152.51
142.38
133.78
126.54
120.08
113.89
107.48
100.15
90.95
78.95
63.9
46.59
28.82
12.75
-0.01
-9.01
-15.11
-19.93
-25.17
-31.92
-40.51
-50.57
-61.44
-72.32
-82.44
-91.04
-97.27
-100.4
-99.95
-96
-89.27
-81.14
-73.23
-67.07
-63.66
-63.19
-64.93
-67.47
-69.01
-67.85
-62.94
-54.18
-42.51
-29.65
-17.67
-8.39
-3.19
-2.79
-7.3
-16.24
-28.51
-42.34
-55.47
-65.43
-69.95
-67.37
-56.86
-38.58
-13.72
15.55
46.38
75.57
100.14
117.85
127.48
128.98
123.23
111.76
96.52
79.73
63.56
49.79
39.52
32.94
29.45
27.75
26.08
22.64
15.88
4.84
-10.53
-29.35
-50.11
-71.06
-90.83
-108.65
-124.37
-138.11
-150.01
-160.21
-168.78
-175.67
-180.3
-181
-175
-159.1
-131.02
-90.76
-41.08
13.25
67.03
116.26
158.71
193.37
219.46
235.66
240.53
233.56
216.03
190.89
161.54
130.46
98.6
66.01
33.22
2.31
-23.14
-39.33
-44.22
-38.69
-26.49
-12.8
-2.27
2.51
1.36
-4.01
-11.27
-18.67
-25.49
-31.85
-38.13
-44.27
-49.53
-52.73
-52.95
-50.19
-45.65
-41.49
-39.82
-41.79
-46.58
-51.19
-51.21
-42.08
-20.41
15.14
63.68
122.13
185.28
245.94
295.61
325.98
331.24
310.25
267.48
211.77
153.6
101.76
61.34
33.41
16.44
8.02
5.8
7.59
10.9
12.95
11.29
4.75
-6.11
-19.33
-32.41
-43.4
-51.43
-56.6
-59.52
-60.78
-60.72
-59.47
-57.01
-53.08
-47.09
-38.07
-24.89
-6.78
16.12
42.41
69.76
95.36
116.74
132.2
141.02
143.32
140
132.73
123.87
116.24
112.27
113.04
117.39
121.98
122.27
114.17
95.67
67.66
33.63
-1.74
-34.14
-60.95
-81.7
-97.66
-110.95
-123.54
-136.61
-150.34
-164.21
-177.35
-189.02
-198.66
-205.57
-208.77
-206.94
-199.1
-185.4
-167.73
-149.29
-133.34
-121.39
-112.24
-102.35
-87.86
-66.92
-41.11
-15.08
5.86
18.4
23.01
23.59
25.26
31.62
43.11
57.07
69.44
77.01
78.76
75.79
70.04
62.9
54.24
42.86
27.58
8.42
-12.76
-32.69
-47.81
-55.59
-55.31
-48.25
-37.2
-25.46
-16
-10.69
-10.13
-13.79
-20.68
-29.76
-40.21
-51.27
-61.83
-70.34
-74.75
-73.21
-64.56
-48.85
-27.38
-2.43
23.35
47.43
67.79
83.12
92.78
96.75
95.43
89.44
79.59
66.93
52.94
39.24
27.2
17.34
8.85
-0.32
-12.7
-30.33
-53.79
-81.78
-111.47
-139.43
-162.85
-180.32
-192.17
-200.14
-206.62
-213.75
-222.64
-232.86
-242.3
-247.63
-245.07
-231.52
-205.6
-168.23
-122.7
-73.75
-26.43
15.31
49.5
76.21
96.94
113.53
127.36
138.88
147.92
154.16
157.69
159
158.79
157.5
155.25
152.06
148.32
144.92
142.86
142.48
142.71
141.3
135.6
123.86
106.22
84.73
62.74
43.65
30.01
22.73
21.06
22.88
25.26
25.54
22.24
15.93
9.05
5.05
6.85
15.63
30.48
49.02
68.49
86.38
100.59
109.02
109.68
101.26
84.16
61
35.97
13.38
-4
-15.59
-22.41
-25.5
-24.77
-18.95
-6.86
10.93
31.39
49.76
61.62
65.02
61.31
54.4
48.73
47.22
50.16
55.5
60.15
61.4
57.74
48.68
34.21
14.62
-9.17
-34.87
-58.64
-75.84
-82.84
-78.68
-65.85
-49.34
-34.39
-24.18
-18.59
-14.87
-9.7
-1.41
8.97
18.29
23.14
21.71
14.56
4.16
-6.48
-15.1
-21.03
-24.91
-28.02
-31.5
-35.73
-40.46
-45.03
-48.89
-51.82
-53.91
-55.34
-56.15
-56.21
-55.27
-53.19
-49.91
-45.38
-39.48
-32.02
-22.98
-12.74
-2.18
7.59
15.72
21.92
26.48
29.74
31.71
31.87
29.67
25.16
19.27
13.5
8.91
5.31
1.12
-5.9
-17.51
-34.16
-55.05
-78.8
-104.21
-130.53
-157.01
-182.11
-203.19
-217.16
-221.93
-217.79
-207.88
-197.25
-190.74
-191.09
-197.95
-208.47
-218.69
-225.1
-225.45
-218.73
-204.73
-183.86
-157.23
-127.12
-96.96
-70.87
-52.74
-45.03
-47.76
-58.15
-71.05
-80.49
-81.77
-73.4
-57.65
-39.59
-24.61
-15.77
-12.47
-11.03
-6.93
2.76
18.14
36.86
55.59
71.69
83.88
92.14
97.08
99.54
100.33
100.27
100.21
101.09
104.07
110.23
119.92
131.83
142.47
146.69
139.43
118.08
84.15
43.22
3.12
-28.95
-48.57
-54.85
-49.46
-35.17
-14.66
9.64
35.23
59.39
79.55
94.26
103.71
109.54
113.71
117.36
120.05
120.07
115.47
105.19
89.88
71.74
53.63
37.86
25.37
15.22
5.19
-7.41
-24.82
-48.04
-76.6
-108.3
-139.37
-165.37
-182.58
-189.78
-189.34
-187.01
-190.01
-204.2
-231.38
-268.14
-306.72
-337.76
-353.48
-349.99
-327.73
-290.43
-243.33
-191.67
-140.07
-92.62
-53
-24.3
-8.37
-4.82
-10.38
-19.32
-25.03
-22.05
-7.99
16.08
46.29
77.85
106.9
131.59
152.27
170.57
188.31
206.75
226.55
248.17
272.21
299.1
328.29
357.51
382.87
399.93
405.48
398.84
382.01
358.58
332.01
304.32
275.97
246.59
215.95
184.52
153.28
123.09
94.48
67.74
43.43
22.76
7.35
-1.48
-3.29
1.05
9.66
20.45
31.7
42.51
52.56
61.62
69.01
73.42
73.34
67.69
56.53
41.31
24.51
8.92
-3.19
-10.56
-13.12
-11.96
-9.18
-7.6
-10.19
-19.03
-34.35
-54.03
-74.01
-89.55
-96.89
-94.51
-83.52
-66.94
-48.52
-31.5
-17.97
-8.78
-3.84
-2.55
-4.17
-8.17
-14.29
-22.6
-33.08
-45.21
-57.68
-68.57
-75.94
-78.5
-76.13
-69.83
-61.24
-51.96
-43.07
-34.88
-27.12
-19.24
-10.6
-0.56
11.49
26.1
43.76
64.51
87.66
111.53
133.5
150.46
159.75
160
151.71
137.09
119.27
101.14
84.66
70.6
58.86
48.83
39.78
30.88
21.35
10.72
-0.78
-12.14
-21.99
-29.38
-34.56
-38.91
-44.27
-51.71
-60.8
-69.67
-75.97
-78.25
-76.62
-72.68
-68.33
-64.78
-61.96
-58.92
-54.81
-49.68
-44.63
-41.23
-40.51
-42.31
-45.41
-48.24
-49.74
-49.89
-49.54
-49.73
-50.97
-52.9
-54.42
-54.28
-51.53
-45.8
-37.37
-26.96
-15.72
-5.02
3.68
9.11
10.46
7.64
1.37
-7.07
-16.14
-24.42
-30.86
-34.89
-36.34
-35.39
-32.37
-27.87
-22.68
-17.69
-13.65
-10.93
-9.29
-7.86
-5.56
-1.49
4.57
12.06
19.89
26.94
32.48
36.49
39.45
41.96
44.26
45.98
46.37
44.69
40.72
35.02
28.79
23.36
19.66
17.87
17.37
17.05
15.78
12.84
8.19
2.43
-3.49
-8.63
-12.42
-14.73
-15.9
-16.47
-17.08
-18.39
-20.88
-24.55
-28.43
-30.04
-25.57
-10.67
17.97
61.06
115.71
175.8
233.43
280.93
312.54
325.33
319.01
295.52
258.4
212.33
162.73
115.09
73.94
41.95
19.55
5.18
-3.55
-8.74
-11.25
-10.82
-6.71
1.41
12.95
26.44
40.13
52.63
63.05
70.62
74.03
70.9
57.86
31.46
-10.33
-66.79
-133.58
-203.08
-265.73
-312.16
-335.13
-331.06
-300.92
-250.38
-189.04
-128.31
-78.34
-44.78
-27.06
-19.18
-13.02
-2.65
12.79
29.1
40.12
41.6
33.79
21.01
8.76
0.51
-3.95
-7.71
-14.26
-25.05
-38.6
-51.2
-58.7
-58.38
-49.98
-35.57
-18.62
-2.62
9.94
17.94
21.55
21.6
19.2
15.52
11.72
8.87
7.69
8.15
9.36
9.79
7.86
2.49
-6.38
-17.87
-30.3
-41.49
-49.08
-50.96
-45.65
-32.69
-12.86
11.96
39.06
65.37
87.85
104.12
113.11
115.64
114.43
113.39
116.23
124.96
139.01
155.5
170.3
179.57
181.07
174.61
161.9
145.82
129.47
115.51
105.52
99.68
96.79
94.52
89.96
80.29
63.45
38.6
6.31
-31.64
-72.76
-114.53
-155.14
-193.92
-231.58
-269.95
-311.31
-357.11
-406.65
-456.05
-498.51
-525.95
-531.49
-512.08
-469.79
-411.12
-344.83
-279.05
-219.17
-167.17
-122.42
-82.87
-46.2
-10.39
25.81
62.52
98.27
130
153.56
164.95
161.87
144.55
116.07
81.5
46.62
16.4
-5.91
-19.19
-23.92
-21.37
-12.8
0.77
18.34
38.26
57.87
73.83
83.15
84.52
78.93
69.36
59.47
52.22
49
49.66
53.35
59.22
66.8
75.82
85.63
95.02
102.26
105.59
103.92
97.22
86.57
73.73
60.57
48.4
37.78
28.55
20.26
12.55
5.4
-0.92
-6.1
-10
-12.89
-15.24
-17.56
-20.04
-22.48
-24.27
-24.75
-23.58
-20.99
-17.82
-15.21
-14.18
-15.11
-17.6
-20.59
-22.87
-23.73
-23.27
-22.46
-22.71
-25.27
-30.71
-38.69
-48.14
-57.53
-65.37
-70.43
-71.99
-69.99
-65.1
-58.67
-52.19
-46.82
-42.75
-39.02
-33.81
-25.06
-11.3
7.89
31.69
58.29
85.21
109.85
129.95
143.85
150.81
150.9
144.87
133.72
118.5
100.3
80.47
60.76
43.07
29.04
19.37
13.63
10.36
7.82
4.8
1.18
-2.09
-3.59
-2.08
2.74
10.15
18.68
26.86
33.79
39.44
44.42
49.39
54.67
59.84
64.06
66.37
66.06
62.66
55.77
44.81
29.16
8.6
-16.01
-42.33
-66.8
-85.52
-95.55
-95.93
-87.99
-74.82
-60.1
-46.83
-36.54
-29.14
-23.46
-18.1
-12.08
-5.24
1.8
8.03
12.39
14.05
12.54
7.73
-0.09
-10.12
-21
-30.91
-37.92
-40.63
-38.66
-32.65
-23.95
-14.06
-4.09
5.43
14.23
21.9
27.69
30.53
29.6
24.93
17.59
9.43
2.26
-3.07
-7.17
-12
-20.12
-33.52
-52.56
-75.52
-98.95
-118.85
-132.06
-137.28
-135.5
-129.59
-123.21
-119.54
-120.12
-124.3
-129.48
-132.22
-129.72
-121.22
-108.37
-94.64
-83.81
-78.18
-77.44
-78.58
-76.87
-67.4
-46.63
-13.41
30.58
81.16
132.44
178.13
213.04
234.26
241.86
238.6
228.85
217
206.06
196.82
187.84
176.35
159.52
135.79
105.63
71.48
36.99
5.92
-18.93
-36.34
-46.73
-51.93
-54.57
-57.47
-62.82
-71.67
-83.55
-96.64
-108.31
-115.87
-117.34
-111.89
-100.04
-83.61
-65.47
-48.9
-36.82
-30.85
-30.67
-34.11
-37.87
-38.93
-35.67
-28.35
-18.79
-9.42
-2.26
1.58
1.89
-0.95
-6.32
-13.62
-22.12
-31.04
-39.47
-46.67
-52.19
-56.13
-58.9
-61.08
-63.13
-65.26
-67.44
-69.48
-71.05
-71.58
-70.19
-65.58
-56.52
-42.25
-22.99
-0.15
23.96
46.83
66.35
81.28
91.36
96.92
98.67
97.38
93.83
89
84.07
80.32
78.91
80.54
85.29
92.38
100.58
108.58
115.61
121.92
128.62
137.23
148.8
163.32
179.32
194.09
204.33
206.88
199.53
181.46
153.36
117.09
75.18
30.29
-15.01
-58.21
-96.75
-128
-149.76
-160.91
-161.97
-155.03
-143.07
-128.91
-114.42
-100.39
-86.94
-74.11
-62.3
-52.06
-43.69
-37.01
-31.43
-26.32
-21.48
-17.07
-13.48
-10.87
-8.9
-6.89
-4.24
-0.88
2.53
4.83
4.97
2.46
-2.3
-8.21
-14.05
-19.11
-23.51
-28.14
-34.22
-42.7
-53.99
-67.91
-83.86
-101.06
-118.58
-135.25
-149.72
-160.59
-166.89
-168.36
-165.56
-159.46
-150.9
-140.1
-126.66
-109.96
-89.74
-66.57
-41.87
-17.58
4.53
23.25
38.42
50.92
62.42
74.81
89.51
106.8
125.59
143.75
158.89
169.41
175.11
177.08
176.71
174.73
170.7
163.42
152.08
137.2
120.9
106.05
94.99
88.42
85.36
83.96
82.67
81.02
79.48
78.63
78.25
77.12
73.71
67.21
58.41
49.43
42.77
39.89
40.25
41.5
40.6
35.47
26.07
14.47
3.74
-3.58
-6.59
-6.19
-4.35
-2.99
-3.1
-4.65
-6.9
-9.04
-10.55
-11.3
-11.4
-11.13
-10.96
-11.71
-14.34
-19.56
-27.27
-36.27
-44.45
-49.57
-50.06
-45.69
-37.45
-27.16
-16.72
-7.58
-0.24
6.05
13.54
26.09
48.37
84.35
135.1
197.08
261.91
318.22
355.21
366.06
350.07
312.17
260.39
202.58
144.18
87.7
33.93
-16.36
-61.59
-99.7
-129.38
-151.11
-167.22
-180.83
-194.28
-208.06
-220.69
-229.82
-233.59
-231.64
-225.19
-216.4
-207.32
-199.07
-191.73
-184.68
-177.2
-168.85
-159.52
-149.14
-137.23
-122.9
-105.04
-82.96
-56.86
-28.09
1.11
28.15
50.81
67.75
78.76
84.7
87.2
88.26
89.8
93.14
98.6
105.45
112.23
117.39
119.95
119.92
118.16
115.81
113.73
112.09
110.38
107.63
102.58
93.56
78.51
55.4
23.27
-16.67
-60.5
-102.43
-136.79
-160.32
-173.29
-178.87
-181.01
-182.12
-181.95
-178.24
-168.6
-152.32
-131.09
-108.24
-87.16
-69.91
-56.53
-45.58
-35.2
-24.33
-13.3
-3.83
1.95
2.59
-1.9
-9.99
-19.57
-28.99
-37.8
-46.47
-55.29
-63.26
-67.86
-66.02
-55.78
-37.85
-15.64
6.08
23.14
33.65
38.25
39.07
38.04
35.76
31.33
23.34
11.06
-4.81
-22.25
-38.73
-52.14
-61.33
-66.07
-66.92
-64.81
-61
-56.95
-54.02
-53
-53.69
-54.89
-54.77
-51.76
-45.13
-35.23
-23.17
-10.27
2.39
14.03
24.04
31.93
37.39
40.57
42.33
43.95
46.66
51.02
56.47
61.59
64.65
64.42
60.62
53.95
45.78
37.63
30.79
25.96
23.26
22.32
22.42
22.74
22.47
21.05
18.2
14.02
8.92
3.6
-1.16
-4.68
-6.57
-6.89
-6.25
-5.65
-6.18
-8.74
-13.59
-20.18
-27.17
-32.69
-34.94
-32.73
-25.95
-15.59
-3.42
8.65
19.11
27.14
32.5
35.31
35.89
34.69
32.4
29.83
27.72
26.5
26.04
25.86
25.48
24.78
24.11
24.03
24.96
26.78
28.91
30.55
31.06
30.24
28.22
25.33
21.85
17.98
13.85
9.59
5.33
1.09
-3.3
-8.18
-13.94
-20.78
-28.46
-36.24
-42.94
-47.2
-47.88
-44.39
-36.96
-26.64
-14.99
-3.7
5.89
13
17.39
19.14
18.58
16.08
12.16
7.57
3.1
-0.5
-2.84
-3.9
-4.01
-3.54
-2.71
-1.5
0.21
2.41
4.76
6.67
7.49
6.83
4.75
1.74
-1.51
-4.43
-6.86
-9.05
-11.53
-14.82
-19.16
-24.48
-30.46
-36.69
-42.67
-47.85
-51.42
-52.36
-49.72
-43.07
-32.84
-20.35
-7.55
3.7
12.16
17.59
20.56
22.18
23.61
25.71
28.91
33.26
38.43
43.89
48.97
53.06
55.71
56.81
56.54
55.34
53.71
52.02
50.39
48.69
46.64
43.95
40.48
36.32
31.68
26.78
21.69
16.23
9.91
2.12
-7.57
-19.12
-31.78
-44.22
-55.12
-64.01
-71.75
-80.48
-92.83
-110.69
-134.47
-163.04
-194.31
-226.08
-256.38
-283.38
-304.98
-318.93
-323.3
-317.31
-301.76
-278.61
-250.06
-217.69
-182.06
-143.16
-101.2
-56.95
-11.61
33.78
78.51
122.05
163.36
200.63
231.61
254.57
269.19
276.69
279.07
277.89
273.34
264.28
249.19
227.27
199.16
166.93
133.4
101.44
73.48
51.36
36.33
28.92
28.77
34.59
44.24
55.11
64.62
70.81
72.59
69.94
63.76
55.55
46.99
39.34
33.18
28.27
23.85
19.01
13.08
5.89
-2.23
-10.58
-18.3
-24.73
-29.49
-32.72
-35.02
-37.25
-40.25
-44.51
-49.92
-55.66
-60.39
-62.59
-61.17
-55.85
-47.47
-37.64
-28.14
-20.16
-13.89
-8.64
-3.35
2.59
8.95
14.72
18.69
20.04
18.84
15.91
12.38
9.26
7.09
5.89
5.45
5.47
5.69
5.89
5.84
5.33
4.25
2.68
0.72
-1.56
-4.26
-7.56
-11.55
-16.1
-20.91
-25.65
-30.08
-34.07
-37.33
-39.26
-39.03
-35.91
-29.8
-21.46
-12.4
-4.28
1.7
5.33
7.19
8.29
9.44
10.95
12.62
13.99
14.61
14.2
12.81
10.76
8.57
6.85
6.08
6.38
7.38
8.4
8.68
7.82
5.87
3.18
0.18
-2.95
-6.34
-10.22
-14.63
-19.35
-23.96
-28.11
-31.61
-34.4
-36.25
-36.62
-34.63
-29.55
-21.29
-10.68
0.67
10.91
18.72
23.62
26.08
27.09
27.58
28.08
28.65
29.16
29.47
29.59
29.63
29.63
29.52
29.2
28.6
27.79
26.85
25.72
24.13
21.73
18.27
13.94
9.19
4.65
0.73
-2.53
-5.48
-8.57
-12.14
-16.25
-20.67
-24.98
-28.67
-31.18
-31.95
-30.47
-26.51
-20.24
-12.32
-3.72
4.6
11.94
18.02
22.84
26.59
29.31
30.94
31.35
30.52
28.72
26.41
24.13
22.25
20.97
20.22
19.86
19.68
19.51
19.17
18.51
17.35
15.53
13.01
9.9
6.45
2.99
-0.17
-2.86
-5.09
-7.08
-9.22
-11.93
-15.57
-20.2
-25.45
-30.51
-34.2
-35.35
-33.15
-27.53
-19.22
-9.56
-0.05
8.16
14.51
19.15
22.54
25.19
27.33
28.83
29.36
28.65
26.74
24.06
21.32
19.22
18.2
18.25
18.91
19.51
19.45
18.46
16.65
14.41
12.13
10.06
8.19
6.4
4.48
2.36
0
-2.61
-5.5
-8.66
-11.98
-15.2
-17.97
-20.16
-21.91
-23.7
-26.17
-29.74
-34.34
-39.24
-43.2
-44.86
-43.22
-38.02
-29.84
-19.94
-9.86
-0.91
6.14
11.17
14.58
16.93
18.65
19.87
20.46
20.31
19.46
18.24
17.14
16.56
16.66
17.28
18.05
18.58
18.71
18.45
17.96
17.32
16.5
15.35
13.73
11.55
8.89
5.92
2.8
-0.29
-3.23
-5.96
-8.45
-10.69
-12.75
-14.72
-16.72
-18.84
-21.17
-23.78
-26.66
-29.66
-32.31
-33.91
-33.57
-30.65
-24.99
-17.16
-8.29
0.3
7.6
13.18
17.15
19.96
21.93
23.13
23.42
22.73
21.27
19.57
18.26
17.68
17.82
18.22
18.35
17.86
16.74
15.25
13.73
12.42
11.36
10.45
9.52
8.43
7.04
5.17
2.6
-0.8
-4.97
-9.55
-13.95
-17.51
-19.81
-20.89
-21.28
-21.77
-23.18
-25.96
-30
-34.68
-38.87
-41.41
-41.27
-37.93
-31.52
-22.76
-12.86
-3.19
5.13
11.52
15.99
18.98
21.06
22.56
23.55
23.86
23.34
22.07
20.37
18.71
17.43
16.6
16.02
15.44
14.76
14.09
13.73
13.92
14.63
15.42
15.63
14.65
12.19
8.44
3.91
-0.71
-4.9
-8.41
-11.27
-13.63
-15.7
-17.69
-19.9
-22.64
-26.15
-30.4
-34.93
-38.8
-40.88
-40.16
-36.17
-29.17
-20.07
-10.22
-0.99
6.55
11.86
14.93
16.11
15.9
14.8
13.23
11.6
10.29
9.6
9.6
9.98
10.08
9.19
6.94
3.6
0.06
-2.61
-3.72
-3.3
-2.15
-1.35
-1.76
-3.67
-6.82
-10.65
-14.66
-18.58
-22.35
-25.99
-29.5
-32.73
-35.39
-37.06
-37.24
-35.43
-31.32
-24.95
-16.85
-7.89
0.94
8.84
15.33
20.3
23.81
26.01
27.12
27.37
27
26.27
25.4
24.47
23.49
22.44
21.37
20.41
19.73
19.49
19.66
19.99
20.03
19.22
17.14
13.63
8.93
3.62
-1.55
-5.97
-9.43
-12.18
-14.78
-17.89
-21.94
-26.93
-32.36
-37.37
-40.96
-42.27
-40.81
-36.57
-29.98
-21.84
-13.04
-4.43
3.23
9.43
13.87
16.58
17.82
18.07
17.76
17.13
16.11
14.43
11.93
8.76
5.46
2.73
1.08
0.47
0.33
-0.25
-2.09
-5.65
-10.95
-17.57
-24.93
-32.38
-39.24
-44.84
-48.62
-50.34
-50.15
-48.69
-46.83
-45.35
-44.61
-44.35
-43.75
-41.82
-37.75
-31.27
-22.76
-13.02
-3.04
6.29
14.36
20.81
25.45
28.23
29.3
29.03
28.03
26.94
26.2
25.96
26.08
26.28
26.28
25.9
24.99
23.42
21.12
18.19
14.91
11.71
8.97
6.78
4.98
3.18
1.05
-1.54
-4.61
-8.14
-12.2
-16.92
-22.35
-28.14
-33.61
-37.82
-39.84
-38.99
-35.06
-28.28
-19.31
-9.09
1.36
11.03
19.19
25.46
29.8
32.43
33.74
34.08
33.68
32.73
31.33
29.62
27.84
26.26
25.12
24.59
24.64
25.06
25.49
25.52
24.75
22.9
19.89
15.86
11.23
6.46
2.08
-1.61
-4.48
-6.75
-8.86
-11.42
-15.01
-19.96
-26.13
-32.7
-38.36
-41.62
-41.29
-36.95
-29.12
-19.04
-8.28
1.72
10.05
16.35
20.75
23.63
25.39
26.33
26.56
26.05
24.68
22.36
19.14
15.29
11.27
7.62
4.86
3.3
2.98
3.64
4.72
5.54
5.45
4.09
1.48
-1.92
-5.48
-8.61
-10.97
-12.63
-13.94
-15.4
-17.51
-20.52
-24.32
-28.35
-31.61
-32.86
-30.99
-25.54
-16.96
-6.54
4
13.17
20.18
25.05
28.3
30.5
31.93
32.61
32.49
31.7
30.6
29.55
28.76
28.08
27.17
25.67
23.49
20.86
18.21
15.95
14.21
12.8
11.31
9.24
6.21
2.11
-2.88
-8.36
-13.77
-18.57
-22.42
-25.26
-27.46
-29.58
-32.3
-36.08
-40.95
-46.45
-51.59
-55.15
-55.9
-53.08
-46.52
-36.86
-25.29
-13.3
-2.19
7.19
14.53
19.95
23.7
25.98
26.89
26.49
25.06
23.15
21.36
20.19
19.8
19.89
19.95
19.5
18.36
16.73
15.05
13.71
12.84
12.28
11.63
10.45
8.42
5.36
1.31
-3.54
-8.79
-13.89
-18.32
-21.76
-24.25
-26.26
-28.45
-31.28
-34.7
-37.91
-39.59
-38.44
-33.77
-25.86
-15.92
-5.58
3.7
11.17
16.88
21.42
25.45
29.26
32.67
35.2
36.42
36.22
34.84
32.81
30.7
28.94
27.69
26.88
26.26
25.55
24.61
23.38
21.98
20.52
19.02
17.37
15.4
12.95
10.04
6.82
3.52
0.28
-2.8
-5.7
-8.42
-10.96
-13.32
-15.65
-18.22
-21.39
-25.47
-30.51
-36.09
-41.27
-44.73
-45.22
-41.93
-34.91
-25.08
-13.88
-2.85
6.95
15.03
21.37
26.14
29.51
31.55
32.29
31.91
30.71
29.06
27.24
25.42
23.67
22.04
20.58
19.29
18.13
16.93
15.54
13.87
11.93
9.87
7.8
5.82
3.87
1.87
-0.36
-2.88
-5.64
-8.54
-11.37
-13.98
-16.32
-18.47
-20.64
-23.16
-26.29
-30.13
-34.42
-38.48
-41.3
-41.8
-39.18
-33.21
-24.44
-13.91
-2.98
7.15
15.61
22.02
26.39
28.99
30.18
30.36
29.81
28.69
27.12
25.16
23.05
21.15
19.86
19.43
19.76
20.48
21.03
21.03
20.31
19
17.34
15.57
13.79
11.97
9.97
7.61
4.74
1.31
-2.53
-6.47
-10.13
-13.25
-15.78
-17.96
-20.21
-22.92
-26.29
-30.3
-34.69
-39.06
-42.79
-45.07
-45.06
-42.07
-35.93
-27.1
-16.64
-5.79
4.33
13.05
20.19
25.88
30.24
33.27
34.88
35.01
33.84
31.71
29.1
26.39
23.79
21.26
18.57
15.47
11.82
7.66
3.3
-0.83
-4.26
-6.78
-8.42
-9.56
-10.7
-12.2
-14.1
-16.1
-17.69
-18.45
-18.32
-17.58
-16.83
-16.71
-17.64
-19.73
-22.84
-26.74
-31.12
-35.65
-39.73
-42.51
-43.01
-40.46
-34.62
-26
-15.76
-5.23
4.47
12.74
19.44
24.6
28.19
29.94
29.61
27.2
23.22
18.6
14.42
11.58
10.43
10.76
11.83
12.8
13.01
12.26
10.74
8.92
7.25
5.93
4.85
3.67
2.04
-0.21
-3.05
-6.28
-9.69
-13.14
-16.56
-19.89
-22.99
-25.75
-28.22
-30.63
-33.33
-36.41
-39.45
-41.43
-41.06
-37.34
-30.14
-20.33
-9.49
0.82
9.61
16.69
22.37
26.95
30.36
32.19
32.06
30.01
26.76
23.41
20.91
19.72
19.67
20.17
20.64
20.7
20.31
19.56
18.58
17.41
16.04
14.43
12.58
10.42
7.87
4.86
1.38
-2.43
-6.26
-9.81
-12.91
-15.59
-18.09
-20.72
-23.8
-27.52
-31.86
-36.51
-40.88
-44.11
-45.27
-43.62
-38.88
-31.38
-22.02
-11.97
-2.4
5.92
12.68
17.96
21.95
24.83
26.63
27.29
26.9
25.66
23.95
22.2
20.67
19.4
18.27
17.12
15.9
14.74
13.85
13.41
13.42
13.55
13.35
12.37
10.36
7.35
3.61
-0.43
-4.38
-8.01
-11.3
-14.36
-17.36
-20.43
-23.59
-26.85
-30.14
-33.36
-36.19
-38.1
-38.36
-36.25
-31.43
-24.14
-15.2
-5.81
2.96
10.44
16.53
21.43
25.34
28.2
29.79
29.87
28.49
26.11
23.37
20.9
19.1
18.02
17.45
17.07
16.66
16.08
15.32
14.44
13.49
12.55
11.6
10.48
8.88
6.52
3.22
-0.91
-5.45
-9.83
-13.56
-16.35
-18.3
-19.81
-21.4
-23.64
-26.97
-31.46
-36.78
-42.07
-46.15
-47.75
-45.99
-40.66
-32.31
-22.1
-11.42
-1.53
6.69
12.86
17.05
19.63
21.11
21.92
22.38
22.61
22.62
22.45
22.19
21.94
21.75
21.5
20.96
19.9
18.36
16.6
15.01
13.85
13.01
12.04
10.36
7.6
3.82
-0.41
-4.36
-7.42
-9.44
-10.71
-11.82
-13.3
-15.43
-18.21
-21.43
-24.79
-27.87
-30.12
-30.85
-29.35
-25.19
-18.46
-9.9
-0.63
8.21
15.79
21.88
26.58
30.19
32.88
34.72
35.69
35.85
35.35
34.35
32.96
31.19
29.06
26.66
24.27
22.15
20.47
19.2
18.14
17.1
15.95
14.58
12.82
10.42
7.04
2.52
-2.95
-8.77
-14.13
-18.35
-21.16
-22.84
-24
-25.29
-27.15
-29.65
-32.52
-35.3
-37.35
-38.02
-36.65
-32.8
-26.41
-17.98
-8.45
0.98
9.25
15.87
20.88
24.77
28.06
31.01
33.45
34.92
34.95
33.35
30.44
26.85
23.34
20.46
18.34
16.76
15.28
13.55
11.41
8.9
6.07
2.87
-0.77
-4.86
-9.12
-13.05
-16.11
-18.15
-19.51
-20.96
-23.3
-26.76
-30.79
-34.2
-35.57
-33.92
-29.05
-21.61
-12.79
-3.86
4.21
10.89
16.02
19.62
21.76
22.54
22.16
21.06
19.83
19.08
19.29
20.52
22.41
24.36
25.8
26.45
26.34
25.68
24.56
22.77
19.9
15.61
9.94
3.43
-2.98
-8.41
-12.38
-15
-16.88
-18.7
-20.9
-23.4
-25.66
-26.95
-26.75
-24.98
-22.06
-18.63
-15.17
-11.8
-8.37
-4.76
-1.21
1.62
2.89
2.06
-0.77
-4.88
-9.33
-13.31
-16.51
-18.86
-20.35
-20.8
-19.95
-17.81
-14.94
-12.35
-11.08
-11.73
-14.18
-17.62
-21.05
-23.68
-25.19
-25.74
-25.71
-25.58
-25.66
-26.13
-26.88
-27.49
-27.27
-25.38
-21.26
-14.93
-7.18
0.68
7.33
11.98
14.65
16.01
16.93
17.95
19.02
19.68
19.41
18.05
16.03
14.1
12.98
12.94
13.69
14.48
14.52
13.39
11.16
8.26
5.23
2.4
-0.22
-2.89
-5.86
-9.28
-13.05
-16.93
-20.66
-24.09
-27.23
-30.25
-33.38
-36.73
-40.13
-42.96
-44.18
-42.64
-37.63
-29.2
-18.35
-6.74
3.94
12.51
18.6
22.54
24.94
26.23
26.56
25.92
24.48
22.77
21.54
21.47
22.75
24.99
27.44
29.4
30.58
31.19
31.66
32.36
33.3
34.16
34.44
33.75
32.06
29.69
27.25
25.44
24.75
25.33
26.94
28.97
30.78
31.83
31.95
31.27
30.22
29.41
29.57
31.47
35.83
43.12
53.18
65.05
76.94
86.83
92.9
94.09
90
80.61
65.66
44.37
15.76
-20.39
-62.64
-107.43
-149.59
-183.88
-206.68
-217.31
-218.1
-213.19
-206.82
-201.82
-199.14
-198.47
-199.4
-202.11
-207.16
-214.64
-223.25
-230.27
-232.5
-227.67
-215.4
-197.22
-175.61
-152.63
-129.16
-104.88
-78.98
-50.72
-19.73
14.18
51.11
90.93
132.56
173.55
210.13
237.96
253.49
255.3
244.62
225.04
201.39
178.27
158.88
144.42
134.07
125.7
116.77
105.33
90.52
72.7
53.14
33.46
15.09
-1.09
-14.69
-25.73
-34.27
-40.33
-43.97
-45.36
-45
-43.71
-42.36
-41.57
-41.6
-42.24
-43.01
-43.42
-43.31
-42.79
-42.3
-42.12
-42.27
-42.37
-41.82
-40.16
-37.24
-33.43
-29.37
-25.79
-23.2
-21.73
-21.27
-21.64
-22.79
-24.78
-27.55
-30.68
-33.28
-34.11
-32.04
-26.49
-17.61
-6.28
6.3
18.98
30.98
41.9
51.62
60.07
67.13
72.62
76.35
78.24
78.43
77.27
75.28
73.07
71.09
69.56
68.42
67.39
66.18
64.65
62.78
60.64
58.27
55.53
52.16
47.88
42.58
36.37
29.58
22.53
15.45
8.34
1.15
-6.19
-13.59
-20.83
-27.67
-33.94
-39.63
-44.88
-49.8
-54.36
-58.28
-60.99
-61.84
-60.2
-55.77
-48.67
-39.46
-29.05
-18.4
-8.35
0.62
8.33
14.88
20.45
25.21
29.21
32.45
34.88
36.45
37.15
37.04
36.26
35.06
33.76
32.61
31.8
31.29
30.92
30.47
29.8
28.83
27.56
26.02
24.18
22
19.46
16.52
13.3
9.92
6.57
3.37
0.43
-2.22
-4.58
-6.75
-8.88
-11.23
-14.08
-17.67
-22.02
-26.68
-30.78
-33.02
-32.13
-27.31
-18.68
-7.5
4.1
13.7
19.33
19.88
15.28
6.2
-6.35
-21.28
-37.5
-53.77
-68.71
-81.07
-90.06
-95.65
-98.57
-99.91
-100.57
-100.82
-100.23
-97.92
-93.01
-85.04
-74.15
-60.94
-46.28
-30.96
-15.69
-1.04
12.44
24.25
34.12
42.1
48.8
55.19
62.25
70.53
79.79
89.04
96.87
101.92
103.24
100.63
94.64
86.35
77.25
68.91
62.61
59.04
58.17
59.28
61.35
63.46
64.97
65.66
65.59
64.82
63.38
61.25
58.46
55.18
51.7
48.28
45.06
41.98
38.89
35.64
32.35
29.37
27.18
26.17
26.36
27.45
28.91
30.22
31.14
31.76
32.38
33.31
34.61
36
36.87
36.45
34.02
29.15
21.83
12.48
1.83
-9.39
-20.6
-31.52
-42.06
-52.24
-61.97
-70.97
-78.75
-84.55
-87.4
-86.3
-80.34
-69.07
-52.83
-32.84
-11.17
9.67
27.29
40.01
47.25
49.69
49.03
47.48
47.17
49.75
56.44
68.17
85.7
109.36
138.34
170.06
200.12
223.12
234.31
231.12
214.11
186.53
153.11
118.42
85.75
56.84
32.17
11.68
-5.05
-18.64
-30.11
-40.87
-52.36
-65.5
-80.14
-94.82
-107.27
-115.12
-116.95
-112.75
-103.97
-92.9
-81.7
-71.68
-63.1
-55.47
-48.15
-40.76
-33.34
-26.2
-19.7
-14.18
-9.91
-7.02
-5.3
-4.04
-2.1
1.62
7.51
14.82
21.68
25.74
25.21
19.66
10.17
-1.09
-11.79
-20.33
-26.51
-31.67
-38.23
-48.67
-64.22
-83.87
-104.4
-121.31
-130.77
-131.29
-124.38
-114.01
-104.98
-101.49
-106.21
-120.21
-143.11
-173.15
-206.83
-238.87
-262.81
-272.59
-264.39
-238.01
-196.89
-146.86
-94.17
-43.77
1.51
40.64
73.33
99.27
117.78
128.35
131.08
127
117.91
105.96
93.21
81.54
72.48
66.88
64.53
64
63.48
62.24
62.08
67.36
83.32
113.04
155.12
203.36
248.95
283.97
304.33
310.11
304.23
290.11
270.26
246.22
219.55
192.46
167.66
147.48
133.01
124.65
123.39
131.55
152.18
186.86
233.33
284.47
329.85
358.62
363.76
344.55
306.14
256.75
204.29
154.02
108.14
67
29.06
-7.03
-41.7
-74.6
-104.92
-131.62
-153.41
-168.69
-175.83
-176.91
-175.61
-175.8
-180.12
-189.36
-202.87
-219.33
-237.08
-254.55
-275.32
-304.08
-343.58
-392.8
-447.32
-501.73
-552.1
-596.74
-635.98
-677.42
-729.59
-796.94
-877.53
-964.09
-1047.9
-1122.1
-1182.7
-1186
-1100.1
-915.35
-652.02
-351.88
-57.52
202.83
417.35
585.53
708.21
792.06
840.37
856.47
846.75
820.65
787.68
754.6
724.65
697.47
667.7
628.71
576.87
512.73
440.76
366.65
295.14
229.24
170.49
116.86
64.66
11.46
-43.8
-99.84
-154.12
-203.43
-244.61
-274.68
-292.56
-298.92
-295.11
-284.57
-270.71
-256.51
-243.41
-231.48
-219.66
-207.04
-193.32
-178.63
-165.85
-157.81
-156.55
-162.43
-175.5
-196.3
-225.55
-263.28
-292.21
-297.05
-268.69
-210.44
-136.1
-63.47
-6.78
27.48
40.72
39.93
31.32
19.51
3.96
-13.68
-31.23
-45.97
-55.13
-56.98
-51.53
-42.43
-34.11
-30.29
-31.72
-36.71
-42.68
-47.04
-47.99
-45
-39.85
-35.03
-32.59
-32.89
-35.13
-37.81
-39.37
-38.81
-35.96
-31.92
-28.18
-25.96
-25.52
-26.5
-28.14
-29.6
-30.3
-30
-29.04
-27.96
-27.22
-26.87
-26.81
-26.78
-26.55
-25.91
-24.84
-23.38
-21.65
-19.77
-17.8
-15.79
-13.81
-11.88
-9.98
-8.06
-6
-3.71
-1.09
1.89
5.22
8.77
12.41
15.97
19.28
22.24
24.8
26.96
28.73
30.19
31.38
32.36
33.27
34.27
35.57
37.38
39.8
42.78
46.13
49.49
52.49
54.94
56.89
58.66
60.72
63.59
67.52
72.51
78.23
84.23
90.19
96.1
102.23
109.09
117.12
126.44
136.72
147.37
157.69
167.25
176.07
184.61
193.74
204.53
218.15
235.68
257.66
283.52
311.17
337.19
357.86
370.43
374.42
371.78
365.94
360.11
355.65
351.62
345.35
334.02
316
291.42
261.79
229.11
195.02
160.4
125.49
90.13
54.18
17.79
-18.47
-53.66
-86.31
-114.4
-135.37
-146.43
-145.38
-131.62
-106.95
-75.59
-43.48
-16.79
-0.24
4.06
-3.1
-18.79
-39.2
-60.83
-80.92
-97.22
-107.65
-110.19
-103.35
-86.99
-63
-35.29
-8.87
11.61
23.38
26.27
22.39
14.98
7.09
0.68
-3.54
-5.73
-6.37
-5.76
-3.95
-0.84
3.56
8.96
14.86
20.71
26.08
30.74
34.54
37.25
38.49
37.84
35.08
30.42
24.54
18.39
12.76
8.02
4.02
0.34
-3.42
-7.3
-10.9
-13.61
-14.84
-14.24
-11.6
-6.7
0.71
10.63
22.33
34.09
43.32
47.4
44.74
35.66
22.5
8.76
-2.31
-9.09
-12.02
-13.16
-15.01
-19.37
-26.71
-36.2
-46.23
-55.01
-61.05
-63.18
-60.69
-53.28
-41.36
-26.4
-10.82
2.51
11.24
14.37
12.64
8.09
3.13
-0.55
-2.62
-3.91
-5.56
-8.13
-11.12
-13.24
-13.23
-10.72
-6.52
-2.28
0.32
0.28
-2.32
-6.6
-11.29
-15.14
-17.18
-16.79
-13.77
-8.48
-2
3.89
7.25
6.62
1.57
-7.05
-17.59
-28.19
-37.39
-44.49
-49.36
-52.2
-53.22
-52.67
-50.85
-48.29
-45.55
-43.02
-40.54
-37.32
-32.18
-24.11
-12.98
0.28
13.82
25.58
34.04
38.73
40.3
39.97
38.85
37.42
35.51
32.58
28.21
22.41
15.77
9.11
3.2
-1.65
-5.57
-8.98
