8.22
23.8
35.48
44
50.24
54.95
58.68
61.7
64.08
65.81
66.91
67.52
67.89
68.31
68.97
69.91
70.98
71.94
72.6
72.81
72.45
71.46
69.7
67.12
63.73
59.63
55.02
50.13
45.11
40.1
35.2
30.48
26.06
22.04
18.43
15.16
11.99
8.6
4.8
0.53
-3.98
-8.46
-12.66
-16.63
-20.64
-25.17
-30.54
-36.81
-43.65
-50.54
-56.96
-62.67
-67.8
-72.76
-78.15
-84.59
-92.53
-101.97
-112.2
-121.74
-128.4
-129.87
-124.37
-111.37
-91.86
-68.14
-43.16
-19.62
0.64
16.85
29.16
38.18
44.65
49.17
52.24
54.25
55.55
56.52
57.48
58.67
60.21
61.97
63.79
65.46
66.9
68.17
69.37
70.52
71.39
71.55
70.47
67.81
63.59
58.22
52.32
46.49
41.14
36.37
32.06
27.96
23.89
19.7
15.37
11.01
6.76
2.77
-0.83
-3.95
-6.64
-9.09
-11.65
-14.8
-18.93
-24.16
-30.16
-36.38
-42.11
-46.99
-51.19
-55.43
-60.68
-67.72
-76.7
-86.86
-96.57
-103.67
-106.03
-102.12
-91.49
-74.94
-54.35
-32.17
-10.82
7.79
22.66
33.56
40.88
45.24
47.28
47.5
46.35
44.29
41.93
39.97
39.03
39.48
41.26
43.94
46.8
49.24
50.94
51.83
52.07
51.67
50.47
48.13
44.35
39.1
32.81
26.22
20.08
14.94
10.86
7.48
4.21
0.51
-3.9
-8.96
-14.33
-19.59
-24.38
-28.58
-32.23
-35.55
-38.87
-42.6
-47.19
-53.02
-60.15
-68.13
-75.88
-81.71
-83.77
-80.58
-71.6
-57.4
-39.63
-20.45
-2.02
14.02
26.77
36.01
41.91
44.81
45.05
43.05
39.42
35.03
30.91
27.98
26.79
27.36
29.29
31.96
34.84
37.59
40.02
41.89
42.88
42.51
40.43
36.56
31.23
25.03
18.7
12.75
7.35
2.3
-2.82
-8.41
-14.64
-21.32
-28
-34.14
-39.31
-43.45
-46.94
-50.52
-55.09
-61.42
-69.76
-79.59
-89.43
-97.16
-100.48
-97.6
-87.88
-72.05
-52.03
-30.34
-9.45
8.88
23.75
35.07
43.22
48.81
52.43
54.63
55.84
56.47
56.78
56.97
57.16
57.42
57.84
58.5
59.44
60.71
62.17
63.66
64.85
65.41
64.97
63.27
60.19
55.88
50.7
45.17
39.84
35.11
31.14
27.78
24.68
21.44
17.83
13.95
10.16
6.92
4.58
3.14
2.24
1.28
-0.32
-2.92
-6.56
-11.07
-16.1
-21.36
-26.61
-31.74
-36.77
-41.88
-47.39
-53.57
-60.54
-68.09
-75.76
-83.01
-89.52
-95.38
-101.18
-107.81
-116.08
-126.39
-138.38
-150.68
-161.15
-167.2
-166.56
-158.01
-141.85
-119.92
-95.12
-70.56
-48.76
-31.2
-18.17
-9.17
-3.28
0.43
2.78
4.4
5.85
7.59
10.05
13.57
18.41
24.76
32.76
42.46
53.79
66.55
80.28
94.29
107.73
119.67
129.28
135.95
139.4
139.68
137.16
132.4
126.04
118.72
110.95
103.11
95.44
88.02
80.84
73.82
66.96
60.28
53.96
48.18
43.08
38.59
34.42
30.08
25.17
19.48
13.17
6.65
0.37
-5.36
-10.58
-15.64
-21.05
-27.24
-34.33
-42.07
-49.87
-57.05
-63.16
-68.12
-72.31
-76.52
-81.63
-88.33
-96.87
-106.72
-116.57
-124.44
-128.06
-125.52
-115.87
-99.5
-78.08
-54.15
-30.43
-9.11
8.53
22.1
31.91
38.58
42.8
45.19
46.33
46.77
47.06
47.62
48.69
50.24
52.06
53.94
55.75
57.55
59.51
61.71
64.04
66.1
67.36
67.27
65.51
62.09
57.33
51.79
46.11
40.85
36.36
32.69
29.6
26.76
23.79
20.46
16.74
12.73
8.61
4.52
0.63
-2.99
-6.28
-9.29
-12.19
-15.25
-18.79
-22.98
-27.82
-33.05
-38.27
-43.11
-47.43
-51.4
-55.49
-60.31
-66.45
-74.16
-83.05
-91.98
-99.13
-102.41
-100.1
-91.33
-76.57
-57.42
-36.22
-15.32
3.4
18.85
30.68
38.97
43.97
46.03
45.65
43.49
40.45
37.42
35.1
33.87
33.71
34.45
35.89
37.94
40.58
43.7
47.06
50.28
52.91
54.57
55.01
54.13
51.98
48.72
44.66
40.2
35.72
31.5
27.56
23.75
19.85
15.63
11.06
6.27
1.46
-3.13
-7.3
-10.97
-14.15
-17.01
-19.89
-23.12
-27.02
-31.7
-36.98
-42.49
-47.8
-52.57
-56.79
-60.76
-65.01
-70.2
-76.81
-84.85
-93.7
-102.02
-107.9
-109.32
-104.71
-93.5
-76.36
-55.13
-32.29
-10.37
8.71
23.91
35.06
42.53
46.98
49.06
49.34
48.39
46.83
45.33
44.49
44.69
45.97
48.07
50.57
53.14
55.64
58.08
60.5
62.81
64.68
65.64
65.24
63.29
59.93
55.56
50.73
45.93
41.44
37.34
33.58
30.04
26.62
23.33
20.19
17.27
14.62
12.28
10.2
8.31
6.5
4.63
2.5
-0.08
-3.29
-7.19
-11.71
-16.53
-21.22
-25.45
-29.13
-32.52
-36.13
-40.45
-45.72
-51.77
-58.12
-64.22
-69.73
-74.68
-79.41
-84.52
-90.63
-98.15
-107.19
-117.2
-126.95
-134.52
-137.67
-134.4
-123.71
-105.91
-82.7
-56.64
-30.52
-6.7
13.28
28.8
39.96
47.35
51.87
54.55
56.32
57.95
59.87
62.11
64.49
66.65
68.34
69.49
70.24
70.85
71.59
72.58
73.77
74.94
75.77
75.95
75.18
73.29
70.22
66.11
61.23
55.94
50.64
45.58
40.91
36.62
32.63
28.86
25.26
21.82
18.52
15.34
12.27
9.34
6.57
3.95
1.39
-1.24
-4.1
-7.23
-10.58
-13.98
-17.29
-20.44
-23.48
-26.53
-29.76
-33.29
-37.22
-41.63
-46.6
-52.1
-57.99
-63.99
-69.81
-75.27
-80.54
-86.15
-92.76
-100.91
-110.53
-120.66
-129.39
-134.28
-132.98
-124.07
-107.59
-85.17
-59.61
-34
-10.92
8.12
22.76
33.47
41.03
46.18
49.5
51.53
52.79
53.83
55.05
56.59
58.33
59.97
61.31
62.37
63.31
64.4
65.72
67.18
68.46
69.17
68.96
67.64
65.18
61.78
57.72
53.34
48.93
44.63
40.46
36.34
32.2
28.09
24.16
20.62
17.65
15.25
13.21
11.2
8.92
6.15
2.83
-0.92
-4.95
-9.12
-13.38
-17.75
-22.25
-26.9
-31.65
-36.47
-41.29
-46.11
-50.96
-55.92
-61.14
-66.83
-73.25
-80.54
-88.5
-96.39
-102.88
-106.23
-104.74
-97.37
-84.08
-65.99
-45.05
-23.52
-3.41
13.83
27.48
37.35
43.65
46.79
47.32
45.89
43.23
40.11
37.22
35.19
34.46
35.2
37.33
40.48
44.13
47.7
50.77
53.15
54.78
55.65
55.67
54.69
52.5
49.04
44.53
39.43
34.34
29.75
25.85
22.48
19.2
15.52
11.2
6.31
1.28
-3.39
-7.31
-10.45
-13.09
-15.74
-18.95
-23.02
-27.97
-33.57
-39.41
-45.11
-50.4
-55.24
-59.78
-64.39
-69.54
-75.73
-83.26
-92.02
-101.17
-109.22
-114.12
-113.87
-107.11
-93.64
-74.57
-52.02
-28.54
-6.49
12.42
27.32
38.12
45.22
49.36
51.31
51.77
51.33
50.43
49.45
48.77
48.73
49.59
51.39
53.89
56.71
59.47
61.9
63.92
65.54
66.73
67.32
67.02
65.55
62.83
59.05
54.61
50
45.62
41.64
38.01
34.55
31
27.2
23.12
18.91
14.84
11.21
8.2
5.72
3.46
1.01
-1.96
-5.6
-9.76
-14.1
-18.24
-21.94
-25.17
-28.19
-31.4
-35.21
-39.83
-45.22
-51.06
-56.91
-62.41
-67.42
-72.1
-76.89
-82.34
-89.04
-97.3
-106.97
-117.14
-126.08
-131.55
-131.3
-123.84
-108.99
-88.05
-63.46
-38.07
-14.45
5.68
21.57
33.31
41.52
47.05
50.7
53.12
54.76
55.93
56.91
57.94
59.2
60.83
62.77
64.86
66.89
68.77
70.48
72.14
73.78
75.27
76.34
76.63
75.85
73.89
70.86
67.05
62.83
58.53
54.4
50.54
46.85
43.15
39.22
34.93
30.28
25.49
20.85
16.65
13.07
10.15
7.69
5.38
2.82
-0.31
-4.1
-8.4
-12.84
-17
-20.62
-23.77
-26.75
-30.06
-34.08
-38.89
-44.35
-50.06
-55.67
-60.9
-65.66
-70
-74.12
-78.44
-83.48
-89.77
-97.49
-106.18
-114.47
-120.32
-121.49
-116.31
-104.29
-86.28
-64.32
-40.92
-18.47
1.28
17.32
29.39
37.74
42.87
45.46
46.2
45.78
44.81
43.84
43.29
43.39
44.19
45.54
47.21
49.03
50.93
52.96
55.13
57.3
59.07
59.94
59.48
57.5
54.21
50.08
45.66
41.35
37.35
33.51
29.58
25.28
20.52
15.51
10.6
6.19
2.5
-0.54
-3.32
-6.32
-9.96
-14.42
-19.55
-24.99
-30.27
-35.02
-39.12
-42.78
-46.46
-50.76
-56.21
-63.02
-70.95
-79.13
-86.15
-90.33
-90.03
-84.22
-72.77
-56.63
-37.63
-17.96
0.39
16.06
28.45
37.54
43.64
47.06
48.15
47.31
45.16
42.45
39.95
38.24
37.56
37.82
38.72
39.97
41.39
42.95
44.65
46.42
48.01
49.03
49.03
47.64
44.78
40.71
35.95
31.13
26.73
22.92
19.47
15.98
12.04
7.48
2.43
-2.75
-7.6
-11.82
-15.34
-18.43
-21.5
-25.06
-29.4
-34.51
-40.06
-45.59
-50.67
-55.16
-59.2
-63.22
-67.79
-73.46
-80.69
-89.54
-99.47
-109.14
-116.5
-119.19
-115.32
-104.16
-86.5
-64.51
-41.08
-18.93
0.05
15.09
26.47
34.99
41.53
46.69
50.71
53.59
55.35
56.19
56.51
56.79
57.43
58.54
60
61.6
63.18
64.72
66.29
67.85
69.19
69.93
69.69
68.27
65.75
62.42
58.65
54.69
50.63
46.44
42.13
37.74
33.41
29.27
25.38
21.79
18.49
15.6
13.2
11.31
9.77
8.25
6.28
3.47
-0.32
-4.92
-9.93
-14.84
-19.29
-23.17
-26.65
-30.14
-34.04
-38.63
-43.99
-49.87
-55.9
-61.65
-66.84
-71.39
-75.51
-79.69
-84.62
-91
-99.21
-108.96
-118.99
-127.16
-130.86
-127.89
-117.22
-99.44
-76.64
-51.69
-27.4
-5.83
11.96
25.77
35.88
42.83
47.26
49.91
51.55
52.86
54.2
55.6
56.89
57.82
58.41
58.84
59.41
60.35
61.71
63.31
64.84
66.02
66.61
66.48
65.52
63.66
60.87
57.23
52.92
48.25
43.55
39.08
34.93
31.04
27.31
23.71
20.35
17.43
15.11
13.4
12.05
10.69
8.95
6.68
3.95
0.99
-1.97
-4.88
-7.92
-11.38
-15.52
-20.4
-25.83
-31.43
-36.83
-41.77
-46.17
-50.22
-54.27
-58.89
-64.63
-71.9
-80.58
-89.88
-98.15
-103.27
-103.17
-96.57
-83.44
-65.06
-43.67
-21.78
-1.53
15.65
29.12
38.8
44.95
47.94
48.25
46.48
43.38
39.86
36.82
34.99
34.71
35.91
38.19
41.04
44.03
46.92
49.65
52.13
54.13
55.27
55.14
53.48
50.35
46.11
41.29
36.39
31.75
27.51
23.61
19.95
16.38
12.75
8.94
4.93
0.79
-3.31
-7.15
-10.57
-13.52
-16.16
-18.82
-21.89
-25.69
-30.39
-35.89
-41.87
-47.88
-53.52
-58.55
-63.09
-67.64
-72.97
-79.82
-88.44
-98.26
-107.71
-114.55
-116.43
-111.67
-99.82
-81.86
-59.85
-36.36
-13.81
6.04
22.23
34.53
43.21
48.81
52.03
53.61
54.15
54.21
54.12
54.08
54.13
54.32
54.69
55.36
56.46
58.09
60.25
62.76
65.29
67.39
68.61
68.6
67.23
64.63
61.12
57.12
53.02
49.03
45.22
41.53
37.88
34.28
30.83
27.67
24.82
22.18
19.47
16.48
13.17
9.68
6.32
3.34
0.79
-1.55
-4.01
-6.88
-10.25
-13.97
-17.76
-21.38
-24.77
-28.02
-31.36
-35.02
-39.12
-43.69
-48.72
-54.11
-59.79
-65.59
-71.33
-76.8
-81.95
-87.04
-92.64
-99.45
-107.85
-117.51
-127.04
-134.21
-136.49
-131.86
-119.57
-100.36
-76.29
-50.12
-24.61
-1.93
16.62
30.66
40.51
46.95
50.93
53.37
55.03
56.4
57.77
59.23
60.76
62.31
63.83
65.35
66.98
68.82
70.97
73.41
75.87
77.96
79.17
79.08
77.44
74.31
69.98
64.91
59.58
54.37
49.46
44.87
40.46
36.07
31.62
27.15
22.83
18.88
15.45
12.57
10.09
7.73
5.17
2.25
-1.09
-4.68
-8.33
-11.83
-15.14
-18.33
-21.6
-25.12
-29.05
-33.47
-38.36
-43.57
-48.95
-54.28
-59.47
-64.55
-69.73
-75.38
-81.85
-89.24
-97.19
-104.73
-110.32
-112.2
-108.82
-99.38
-84.15
-64.53
-42.65
-20.89
-1.27
14.93
27.23
35.8
41.17
43.97
44.8
44.21
42.72
40.9
39.31
38.37
38.31
39.14
40.74
42.97
45.68
48.75
51.99
55.03
57.42
58.64
58.3
56.29
52.76
48.17
43.07
37.99
33.32
29.18
25.49
21.97
18.35
14.47
10.38
6.31
2.56
-0.65
-3.32
-5.69
-8.16
-11.21
-15.15
-20.04
-25.65
-31.5
-37.08
-42.06
-46.44
-50.57
-55.07
-60.58
-67.6
-76.19
-85.84
-95.39
-103.02
-106.66
-104.47
-95.54
-80.25
-60.31
-38.26
-16.7
2.42
18.13
30.33
39.38
45.76
49.81
51.76
52
51.02
49.47
47.97
46.98
46.77
47.37
48.74
50.72
53.13
55.8
58.48
60.93
62.81
63.84
63.72
62.29
59.56
55.76
51.29
46.63
42.16
38.1
34.37
30.7
26.82
22.54
17.92
13.25
8.92
5.28
2.41
0.1
-2.09
-4.67
-7.93
-11.87
-16.16
-20.36
-24.14
-27.45
-30.58
-33.95
-37.96
-42.75
-48.16
-53.85
-59.4
-64.55
-69.28
-73.85
-78.79
-84.74
-92.26
-101.51
-111.92
-122.04
-129.69
-132.4
-128.23
-116.41
-97.71
-74.27
-48.94
-24.47
-2.86
14.88
28.59
38.59
45.46
49.75
52.05
53.02
53.29
53.42
53.75
54.42
55.39
56.6
58.05
59.75
61.8
64.2
66.91
69.75
72.45
74.63
75.86
75.77
74.11
70.95
66.59
61.59
56.55
51.91
47.83
44.18
40.69
37.06
33.16
29.05
24.93
20.99
17.33
13.95
10.76
7.61
4.38
0.93
-2.8
-6.8
-10.93
-15.03
-18.88
-22.44
-25.82
-29.3
-33.23
-37.88
-43.27
-49.15
-55.09
-60.69
-65.74
-70.38
-75.07
-80.54
-87.42
-96.01
-105.85
-115.61
-123.24
-126.42
-123.23
-112.81
-95.65
-73.52
-48.96
-24.61
-2.63
15.65
29.75
39.86
46.57
50.59
52.63
53.28
53.05
52.37
51.65
51.21
51.25
51.81
52.81
54.08
55.46
56.85
58.26
59.71
61.15
62.34
62.94
62.55
60.89
57.94
53.93
49.31
44.6
40.2
36.29
32.79
29.45
26.02
22.43
18.8
15.4
12.44
10.02
7.97
6.03
3.92
1.51
-1.19
-4.07
-7.02
-9.96
-12.94
-16.07
-19.46
-23.27
-27.52
-32.14
-36.97
-41.74
-46.26
-50.44
-54.47
-58.68
-63.51
-69.33
-76.3
-84.12
-91.99
-98.56
-102.19
-101.24
-94.59
-82.06
-64.63
-44.18
-23.07
-3.51
12.92
25.47
34.19
39.49
41.96
42.13
40.47
37.53
34
30.73
28.56
28.04
29.3
31.95
35.36
38.86
41.99
44.57
46.62
48.15
49.03
48.97
47.7
45.1
41.37
36.97
32.45
28.22
24.43
20.88
17.23
13.13
8.5
3.52
-1.36
-5.67
-9.14
-11.83
-14.13
-16.65
-19.95
-24.3
-29.63
-35.51
-41.38
-46.71
-51.31
-55.37
-59.49
-64.42
-70.95
-79.4
-89.49
-100.1
-109.37
-115.14
-115.42
-109
-95.87
-77.21
-55.11
-32.09
-10.48
8.05
22.62
33.19
40.27
44.7
47.32
48.82
49.64
50.07
50.29
50.51
50.95
51.8
53.17
55.04
57.3
59.81
62.37
64.75
66.61
67.62
67.5
66.13
63.62
60.2
56.16
51.73
47.08
42.3
37.52
32.9
28.61
24.76
21.32
18.14
15.03
11.84
8.47
4.91
1.14
-2.84
-7.06
-11.53
-16.23
-21.1
-26.12
-31.34
-36.89
-42.92
-49.49
-56.43
-63.38
-69.93
-75.89
-81.44
-87.22
-94.08
-102.7
-113.08
-124.22
-134.13
-140.25
-140.15
-132.34
-116.79
-94.98
-69.49
-43.27
-18.92
1.85
18.31
30.56
39.22
45.17
49.27
52.29
54.84
57.28
59.76
62.29
64.72
66.92
68.8
70.35
71.66
72.92
74.32
75.94
77.7
79.28
80.23
80.09
78.55
75.55
71.35
66.37
61.17
56.16
51.57
47.38
43.41
39.45
35.35
31.11
26.84
22.66
18.59
14.56
10.47
6.26
2.01
-2.11
-5.99
-9.67
-13.4
-17.54
-22.38
-28.03
-34.31
-40.84
-47.24
-53.23
-58.78
-64.22
-70.14
-77.25
-86.06
-96.56
-107.86
-118.28
-125.56
-127.46
-122.41
-110.03
-91.25
-68.14
-43.32
-19.35
1.79
19.02
32.11
41.4
47.47
50.9
52.18
51.75
50.21
48.29
46.75
46.21
46.88
48.69
51.29
54.39
57.76
61.32
64.9
68.17
70.59
71.58
70.77
68.08
63.85
58.64
53.02
47.37
41.85
36.38
30.88
25.3
19.75
14.4
9.39
4.76
0.35
-4.07
-8.7
-13.61
-18.7
-23.76
-28.64
-33.31
-37.92
-42.76
-48.23
-54.7
-62.45
-71.39
-80.94
-89.85
-96.29
-98.31
-94.38
-83.89
-67.53
-47.08
-24.95
-3.5
15.46
30.92
42.59
50.5
54.93
56.22
54.9
51.72
47.68
43.81
40.92
39.36
39.1
39.82
41.14
42.86
44.84
46.99
49.1
50.78
51.61
51.19
49.25
45.68
40.57
34.27
27.31
20.34
13.87
8.15
2.89
-2.49
-8.66
-15.94
-24.17
-32.68
-40.61
-47.25
-52.38
-56.37
-60.03
-64.4
-70.38
-78.41
-88.13
-98.23
-106.62
-110.84
-108.82
-99.49
-83.24
-61.83
-37.87
-14.07
7.36
25.1
38.71
48.32
54.5
57.89
59.16
59
58
56.69
55.48
54.65
54.34
54.58
55.37
56.64
58.32
60.24
62.19
63.86
64.87
64.85
63.51
60.75
56.65
51.53
45.77
39.71
33.54
27.29
20.91
14.38
7.78
1.36
-4.64
-10.07
-15
-19.71
-24.59
-29.92
-35.73
-41.82
-47.86
-53.6
-59.01
-64.28
-69.78
-76.01
-83.49
-92.65
-103.56
-115.65
-127.41
-136.56
-140.44
-136.85
-124.91
-105.41
-80.73
-54.07
-28.49
-6.09
12.24
26.68
37.93
46.71
53.55
58.71
62.34
64.64
65.84
66.25
66.2
66.11
66.44
67.68
70.24
74.19
79.28
84.85
90.06
94.09
96.31
96.35
94.16
89.9
83.95
76.92
69.54
62.52
56.3
51
46.35
41.88
37.17
32.05
26.64
21.34
16.52
12.43
8.97
5.79
2.42
-1.55
-6.31
-11.75
-17.56
-23.29
-28.56
-33.18
-37.23
-41.05
-45.16
-49.97
-55.66
-62.09
-68.76
-75.09
-80.6
-85.23
-89.38
-93.9
-99.76
-107.7
-117.73
-128.83
-138.95
-145.44
-145.72
-138.07
-122.19
-99.38
-72.2
-43.79
-17.11
5.7
23.59
36.56
45.29
50.8
54.07
55.88
56.78
57.14
57.28
57.47
57.87
58.63
59.75
61.19
62.84
64.63
66.42
68.08
69.38
70.03
69.71
68.12
65.11
60.75
55.41
49.67
44.14
39.34
35.41
32.12
28.91
25.21
20.65
15.31
9.71
4.54
0.37
-2.65
-4.84
-6.9
-9.53
-13.25
-18.23
-24.23
-30.77
-37.3
-43.36
-48.74
-53.56
-58.3
-63.69
-70.42
-78.77
-88.31
-97.76
-105.15
-108.28
-105.39
-95.67
-79.58
-58.74
-35.58
-12.62
8.02
24.99
37.78
46.51
51.64
53.73
53.39
51.25
48.06
44.62
41.69
39.8
39.13
39.52
40.59
41.96
43.37
44.7
45.9
46.86
47.39
47.24
46.21
44.14
40.98
36.77
31.63
25.82
19.74
13.87
8.57
3.99
-0.04
-3.87
-7.91
-12.37
-17.24
-22.33
-27.41
-32.31
-36.93
-41.27
-45.31
-49.22
-53.35
-58.31
-64.72
-72.93
-82.53
-92.16
-99.72
-102.84
-99.68
-89.48
-72.94
-51.91
-28.96
-6.64
13.02
28.83
40.43
48.06
52.34
53.94
53.55
51.81
49.3
46.66
44.44
43.13
42.97
43.98
45.97
48.62
51.62
54.66
57.44
59.65
60.91
60.87
59.27
56.1
51.57
46.1
40.19
34.22
28.37
22.61
16.79
10.82
4.76
-1.12
-6.5
-11.1
-14.95
-18.4
-22.05
-26.51
-32.13
-38.79
-46.02
-53.12
-59.52
-65.05
-69.97
-74.95
-80.85
-88.4
-97.93
-109
-120.29
-129.66
-134.56
-132.64
-122.64
-104.82
-81.08
-54.38
-27.95
-4.37
14.88
29.55
40.24
47.93
53.61
58.07
61.83
65.14
68.07
70.56
72.51
73.83
74.58
74.95
75.27
75.87
76.94
78.47
80.17
81.54
81.99
81.05
78.52
74.51
69.4
63.73
58.03
52.68
47.85
43.51
39.51
35.68
31.86
27.93
23.82
19.6
15.39
11.44
8
5.18
2.92
0.93
-1.16
-3.68
-6.78
-10.39
-14.34
-18.39
-22.39
-26.27
-30.02
-33.7
-37.49
-41.6
-46.27
-51.68
-57.8
-64.38
-71.04
-77.42
-83.38
-89.13
-95.17
-102.18
-110.71
-120.86
-131.98
-142.48
-149.97
-151.84
-146.03
-131.76
-109.99
-83.16
-54.52
-27.15
-3.28
16.03
30.81
41.69
49.53
55.16
59.24
62.29
64.72
66.77
68.64
70.37
71.97
73.44
74.69
75.73
76.55
77.22
77.86
78.53
79.14
79.44
79.07
77.71
75.15
71.47
66.93
61.93
56.88
52.06
47.63
43.56
39.71
35.88
31.86
27.58
23.11
18.71
14.65
11.12
8.07
5.19
2.08
-1.63
-6.08
-11.12
-16.42
-21.54
-26.17
-30.22
-33.9
-37.53
-41.5
-46.07
-51.29
-57
-62.94
-68.85
-74.58
-80.21
-86.04
-92.58
-100.3
-109.38
-119.35
-128.82
-135.65
-137.43
-132.19
-119.17
-99.19
-74.43
-47.81
-22.17
0.36
18.63
32.42
42.16
48.69
52.96
55.84
58.01
59.86
61.51
62.95
64.11
64.95
65.54
65.98
66.34
66.69
67.08
67.51
67.94
68.24
68.19
67.51
65.96
63.36
59.67
55.04
49.76
44.27
38.96
34.16
29.91
26.03
22.22
18.22
13.9
9.36
4.78
0.38
-3.71
-7.46
-10.88
-14.07
-17.2
-20.52
-24.28
-28.67
-33.63
-38.88
-43.99
-48.64
-52.72
-56.46
-60.37
-65.12
-71.34
-79.38
-89.05
-99.41
-108.76
-114.93
-115.79
-109.91
-97.12
-78.54
-56.36
-33.15
-11.23
7.76
23.01
34.36
42.04
46.49
48.21
47.77
45.79
42.99
40.05
37.6
36.05
35.61
36.26
37.81
39.96
42.39
44.78
46.87
48.49
49.43
49.53
48.58
46.42
42.97
38.31
32.75
26.78
20.96
15.81
11.54
8.09
5.1
2.07
-1.5
-5.89
-11.07
-16.74
-22.4
-27.57
-31.99
-35.72
-39.11
-42.72
-47.12
-52.73
-59.66
-67.59
-75.66
-82.46
-86.3
-85.51
-79.08
-66.93
-50.09
-30.52
-10.55
7.75
22.86
34.11
41.48
45.35
46.29
44.83
41.52
36.96
31.89
27.09
23.31
21.12
20.76
22.21
25.14
29.08
33.51
37.81
41.37
43.61
44.09
42.65
39.46
35
29.83
24.37
18.8
13.04
6.95
0.44
-6.45
-13.49
-20.43
-27
-33.1
-38.79
-44.31
-50.06
-56.53
-64.02
-72.36
-80.7
-87.49
-90.82
-88.98
-81.05
-67.29
-49.07
-28.5
-7.91
10.72
26.03
37.4
44.81
48.74
49.85
48.85
46.44
43.2
39.67
36.41
33.91
32.59
32.63
33.98
36.34
39.24
42.15
44.56
46.06
46.3
45.1
42.43
38.41
33.35
27.54
21.29
14.76
8.01
1.04
-6.13
-13.4
-20.58
-27.41
-33.66
-39.24
-44.3
-49.26
-54.71
-61.35
-69.59
-79.34
-89.66
-98.77
-104.35
-104.13
-96.71
-82.04
-61.7
-38.35
-14.98
5.94
23.03
36.03
45.43
51.96
56.24
58.7
59.71
59.72
59.3
58.91
58.79
58.87
58.96
58.96
58.97
59.33
60.37
62.14
64.4
66.55
67.88
67.74
65.75
61.84
56.33
49.81
42.99
36.5
30.67
25.42
20.42
15.21
9.52
3.37
-2.94
-9
-14.48
-19.33
-23.76
-28.2
-33.09
-38.74
-45.1
-51.88
-58.56
-64.71
-70.15
-75.12
-80.31
-86.62
-94.89
-105.41
-117.54
-129.48
-138.57
-141.92
-137.32
-124.04
-103.14
-77.19
-49.52
-23.23
-0.5
17.7
31.45
41.49
48.81
54.37
58.93
62.98
66.77
70.27
73.31
75.72
77.37
78.28
78.61
78.59
78.47
78.48
78.77
79.28
79.8
79.86
78.95
76.64
72.83
67.8
62.18
56.66
51.68
47.33
43.29
39.11
34.49
29.48
24.42
19.86
16.14
13.32
11.04
8.71
5.73
1.79
-3.04
-8.32
-13.49
-18.16
-22.28
-26.21
-30.53
-35.75
-42.08
-49.31
-56.94
-64.36
-71.09
-76.96
-82.13
-87.05
-92.43
-99.06
-107.56
-117.94
-129.27
-139.55
-146.04
-146.02
-137.75
-121.1
-97.67
-70.37
-42.53
-16.96
4.57
21.5
34.2
43.52
50.38
55.5
59.42
62.46
64.87
66.87
68.58
70.09
71.32
72.23
72.82
73.31
74.02
75.27
77.11
79.24
81.05
81.82
81.03
78.46
74.32
69.07
63.31
57.58
52.24
47.4
42.94
38.67
34.37
29.93
25.39
20.84
16.36
11.93
7.44
2.77
-2.06
-6.96
-11.76
-16.36
-20.76
-25.19
-29.93
-35.21
-41.13
-47.48
-53.9
-59.92
-65.26
-69.91
-74.27
-79.01
-84.89
-92.47
-101.83
-112.31
-122.42
-130.03
-132.7
-128.47
-116.49
-97.37
-73.21
-46.92
-21.41
1.1
19.43
33.42
43.48
50.23
54.31
56.31
56.86
56.59
56.11
55.91
56.22
57.03
58.22
59.6
61.13
62.82
64.72
66.78
68.76
70.27
70.8
69.98
67.63
63.82
58.9
53.27
47.35
41.44
35.71
30.19
24.81
19.46
14.11
8.8
3.71
-0.93
-5.01
-8.63
-12.12
-15.93
-20.47
-25.89
-32.04
-38.5
-44.78
-50.55
-55.7
-60.47
-65.33
-70.9
-77.83
-86.46
-96.54
-107
-115.85
-120.64
-119.11
-109.98
-93.51
-71.45
-46.57
-21.79
0.51
18.97
33.17
43.35
50.02
53.75
55.05
54.49
52.69
50.32
48.07
46.49
45.91
46.42
47.85
49.83
51.93
53.7
54.93
55.53
55.61
55.23
54.29
52.55
49.65
45.41
39.93
33.66
27.22
21.22
15.91
11.21
6.74
2.09
-3
-8.58
-14.41
-20.17
-25.55
-30.37
-34.62
-38.51
-42.37
-46.61
-51.7
-58.04
-65.82
-74.71
-83.7
-91.11
-94.9
-93.32
-85.42
-71.54
-53.15
-32.51
-12.01
6.37
21.34
32.38
39.54
43.21
44
42.6
39.75
36.15
32.52
29.44
27.41
26.66
27.22
28.86
31.22
33.84
36.29
38.21
39.33
39.49
38.7
37
34.43
30.97
26.52
20.96
14.34
6.89
-0.94
-8.66
-15.89
-22.45
-28.34
-33.68
-38.72
-43.79
-49.31
-55.74
-63.28
-71.63
-79.73
-85.9
-88.16
-84.9
-75.46
-60.41
-41.46
-20.97
-1.27
15.84
29.43
39.3
45.77
49.28
50.3
49.21
46.47
42.64
38.48
34.75
32.09
30.87
31.14
32.63
34.88
37.38
39.59
41.12
41.66
41.06
39.22
36.11
31.73
26.06
19.17
11.21
2.46
-6.72
-15.92
-24.74
-32.81
-39.9
-46.02
-51.39
-56.54
-62.24
-69.24
-77.98
-88.21
-98.77
-107.69
-112.59
-111.42
-103.06
-87.77
-67.19
-43.85
-20.44
0.78
18.51
32.41
42.85
50.48
55.89
59.47
61.45
62.01
61.52
60.47
59.4
58.67
58.36
58.29
58.24
58.05
57.8
57.65
57.67
57.67
57.18
55.58
52.33
47.23
40.52
32.84
24.96
17.57
10.97
5.07
-0.63
-6.72
-13.57
-21.15
-29.03
-36.59
-43.34
-49.18
-54.38
-59.52
-65.27
-72.23
-80.75
-90.76
-101.58
-111.73
-119.01
-120.96
-115.63
-102.35
-82.15
-57.54
-31.78
-7.81
12.48
28.53
40.78
50.12
57.36
62.96
67.1
69.86
71.47
72.34
72.93
73.61
74.46
75.3
75.9
76.06
75.79
75.29
74.72
74.13
73.34
71.99
69.73
66.36
61.93
56.7
51.03
45.29
39.81
34.85
30.52
26.81
23.5
20.23
16.59
12.31
7.36
2.03
-3.26
-8.07
-12.13
-15.48
-18.46
-21.65
-25.68
-30.97
-37.57
-45.1
-52.9
-60.25
-66.65
-72.07
-76.92
-82.02
-88.25
-96.31
-106.35
-117.72
-128.84
-137.42
-140.85
-136.95
-124.72
-104.71
-79.01
-50.63
-22.68
2.35
23.03
38.98
50.54
58.37
63.29
65.98
67.16
67.45
67.43
67.54
68.02
68.89
70.03
71.3
72.56
73.76
74.86
75.85
76.62
76.97
76.59
75.15
72.4
68.24
62.83
56.56
49.94
43.51
37.63
32.46
27.95
23.92
20.14
16.41
12.62
8.68
4.55
0.2
-4.25
-8.62
-12.68
-16.29
-19.49
-22.59
-26.03
-30.18
-35.19
-40.89
-46.84
-52.58
-57.75
-62.27
-66.4
-70.77
-76.17
-83.36
-92.57
-103.19
-113.59
-121.33
-123.78
-118.94
-106.17
-86.47
-62.17
-36.28
-11.61
9.77
26.82
39.3
47.53
52.07
53.63
52.91
50.78
48.07
45.54
43.77
43.09
43.54
45.02
47.31
50.15
53.25
56.23
58.78
60.55
61.28
60.8
59.01
55.91
51.59
46.24
40.21
33.91
27.81
22.27
17.45
13.27
9.48
5.72
1.67
-2.86
-7.89
-13.3
-18.82
-24.2
-29.22
-33.81
-38.07
-42.26
-46.74
-51.91
-58.1
-65.38
-73.37
-81.12
-87.07
-89.38
-86.43
-77.32
-62.36
-42.98
-21.45
-0.23
18.51
33.43
43.95
50.24
52.83
52.45
49.83
45.75
40.94
36.17
32.14
29.41
28.31
28.84
30.74
33.53
36.67
39.6
41.85
42.99
42.68
40.71
36.99
31.71
25.24
18.1
10.81
3.77
-2.88
-9.26
-15.59
-22.03
-28.59
-35.02
-40.94
-45.97
-50
-53.29
-56.52
-60.61
-66.37
-74.08
-83.22
-92.39
-99.52
-102.44
-99.45
-89.81
-74
-53.59
-30.88
-8.35
11.8
28.12
40.03
47.76
52.12
54.06
54.38
53.55
51.85
49.54
47.06
45
43.96
44.28
45.86
48.26
50.87
53.15
54.77
55.58
55.48
54.35
52.02
48.39
43.53
37.69
31.23
24.53
17.83
11.27
4.85
-1.34
-7.23
-12.71
-17.81
-22.68
-27.7
-33.26
-39.61
-46.71
-54.16
-61.44
-68.04
-73.81
-79.02
-84.32
-90.55
-98.38
-108.06
-119.03
-129.87
-138.35
-141.9
-138.23
-126.13
-105.87
-79.39
-49.73
-20.27
6.13
27.69
43.92
55.37
63.18
68.61
72.64
75.86
78.49
80.55
82.02
82.97
83.44
83.49
83.1
82.22
80.91
79.41
78.09
77.31
77.18
77.46
77.61
77.04
75.34
72.46
68.64
64.23
59.57
54.82
49.97
44.96
39.76
34.51
29.41
24.69
20.49
16.82
13.59
10.62
7.79
4.99
2.16
-0.76
-3.82
-7.07
-10.53
-14.2
-18.06
-22.1
-26.28
-30.55
-34.8
-38.95
-43.02
-47.15
-51.63
-56.75
-62.69
-69.47
-77.05
-85.3
-94.1
-103.13
-111.75
-118.97
-123.58
-124.57
-121.4
-114.32
-104.12
-91.93
-78.89
-65.97
-54.07
-44.15
-37.06
-33.47
-33.5
-36.56
-41.41
-46.57
-50.67
-52.89
-53
-51.25
-48.13
-44.2
-39.93
-35.7
-31.75
-28.09
-24.5
-20.4
-15.11
-7.93
1.49
12.97
25.72
38.63
50.54
60.62
68.54
74.39
78.45
80.87
81.46
79.68
74.7
65.69
52
33.46
10.7
-14.54
-39.2
-59.06
-69.5
-66.68
-48.7
-16.52
26.15
73.77
120.36
160.93
192.35
213.4
224.28
225.8
219.01
205.02
185.2
161.44
136.1
111.7
90.4
73.56
61.55
53.95
49.78
47.96
47.46
47.44
47.14
45.92
43.23
38.74
32.35
24.25
14.88
4.77
-5.56
-15.7
-25.39
-34.58
-43.32
-51.68
-59.67
-67.2
-74.17
-80.64
-86.92
-93.49
-100.72
-108.53
-116.02
-121.59
-123.21
-119.14
-108.57
-91.97
-71.01
-48.1
-25.73
-5.91
10.18
22.19
30.39
35.46
38.11
38.98
38.52
37.04
34.81
32.11
29.35
26.92
25.12
24.13
23.92
24.34
25.13
25.99
26.67
26.93
26.56
25.35
23.15
19.84
15.41
9.95
3.67
-3.18
-10.3
-17.47
-24.53
-31.4
-38.14
-44.87
-51.73
-58.87
-66.38
-74.17
-81.9
-88.79
-93.62
-94.91
-91.26
-81.9
-67.09
-48.19
-27.43
-7.23
10.48
24.67
35.16
42.37
46.84
48.92
48.79
46.65
42.94
38.38
33.85
30.08
27.44
25.9
25.2
25
25.14
25.55
26.22
26.98
27.51
27.29
25.83
22.8
18.14
12.08
5.13
-2.04
-8.81
-14.7
-19.56
-23.66
-27.62
-32.22
-38.15
-45.66
-54.3
-62.86
-69.67
-72.88
-71.07
-63.63
-50.93
-34.23
-15.41
3.5
20.72
34.96
45.53
52.26
55.35
55.27
52.66
48.24
42.82
37.21
32.08
27.92
24.9
22.93
21.82
21.35
21.36
21.76
22.44
23.19
23.66
23.38
21.89
18.79
13.94
7.59
0.37
-6.88
-13.4
-18.78
-23.18
-27.33
-32.26
-38.86
-47.36
-57.2
-66.97
-74.74
-78.63
-77.26
-70.17
-57.93
-41.94
-24.1
-6.34
9.74
23.15
33.45
40.63
44.9
46.61
46.14
43.95
40.59
36.68
32.81
29.45
26.86
25.03
23.8
22.95
22.31
21.83
21.54
21.44
21.35
20.9
19.6
17.01
12.86
7.24
0.57
-6.51
-13.39
-19.62
-25.12
-30.13
-35.19
-40.9
-47.69
-55.55
-63.88
-71.49
-76.87
-78.48
-75.16
-66.5
-52.99
-35.92
-17.23
1.03
17.07
29.73
38.56
43.74
45.85
45.57
43.55
40.38
36.65
32.95
29.86
27.74
26.64
26.3
26.26
26.09
25.58
24.78
23.87
23.01
22.15
21.07
19.4
16.78
13.01
8.15
2.46
-3.62
-9.63
-15.26
-20.36
-25
-29.36
-33.72
-38.36
-43.57
-49.52
-56.12
-62.88
-68.81
-72.53
-72.67
-68.28
-59.2
-46.21
-30.82
-14.88
-0.08
12.36
21.83
28.29
32.07
33.75
33.93
33.19
32
30.69
29.45
28.35
27.31
26.25
25.13
24.05
23.21
22.85
23.04
23.6
24.14
24.14
23.19
21.13
18.02
14.14
9.8
5.25
0.66
-3.94
-8.51
-13.05
-17.48
-21.7
-25.63
-29.27
-32.72
-36.2
-40.04
-44.51
-49.79
-55.71
-61.73
-66.87
-69.86
-69.43
-64.69
-55.46
-42.45
-27.15
-11.38
3.12
15.1
23.97
29.73
32.72
33.42
32.36
30.07
27.15
24.13
21.51
19.55
18.33
17.76
17.7
18.12
19.01
20.39
22.12
23.93
25.38
26.06
25.65
24.08
21.51
18.27
14.74
11.25
7.95
4.79
1.59
-1.9
-5.83
-10.17
-14.68
-19.07
-23.09
-26.63
-29.82
-33.02
-36.62
-40.97
-46.22
-52.2
-58.37
-63.81
-67.34
-67.79
-64.27
-56.51
-45.02
-30.97
-15.95
-1.47
11.23
21.43
28.78
33.29
35.09
34.48
31.87
27.86
23.11
18.33
14.12
10.92
9
8.51
9.41
11.47
14.22
17.01
19.17
20.25
20.06
18.73
16.56
13.84
10.71
7.2
3.29
-0.98
-5.5
-10.06
-14.54
-18.93
-23.33
-27.88
-32.6
-37.44
-42.32
-47.28
-52.48
-58.06
-63.88
-69.21
-72.77
-72.99
-68.57
-59.03
-45
-28.04
-10.24
6.46
20.66
31.65
39.3
43.8
45.45
44.63
41.86
37.79
33.22
28.96
25.65
23.61
22.88
23.24
24.45
26.33
28.76
31.59
34.49
36.96
38.4
38.36
36.68
33.57
29.52
25.04
20.52
16.1
11.69
7.07
2
-3.7
-10.11
-17.14
-24.59
-32.1
-39.22
-45.6
-51.1
-55.94
-60.74
-66.28
-73.12
-81.16
-89.34
-95.74
-98.14
-94.72
-84.73
-68.81
-48.77
-26.95
-5.61
13.51
29.37
41.47
49.71
54.35
55.89
55.08
52.82
49.95
47.15
44.9
43.43
42.91
43.38
44.86
47.25
50.36
53.88
57.45
60.66
63.09
64.4
64.34
62.83
59.96
56.03
51.45
46.65
42.02
37.69
33.56
29.36
24.73
19.44
13.5
7.22
1.1
-4.38
-8.92
-12.58
-15.7
-18.85
-22.55
-27.12
-32.59
-38.62
-44.7
-50.32
-55.19
-59.41
-63.46
-68.1
-74.1
-81.98
-91.62
-102.13
-111.79
-118.32
-119.46
-113.61
-100.33
-80.61
-56.53
-30.81
-6.03
15.81
33.56
46.9
56.08
61.66
64.3
64.63
63.23
60.73
57.79
55.13
53.34
52.85
53.69
55.63
58.29
61.28
64.31
67.2
69.71
71.5
72.21
71.55
69.47
66.12
61.84
56.99
51.85
46.64
41.57
36.83
32.54
28.71
25.18
21.66
17.86
13.59
8.91
4.01
-0.8
-5.31
-9.48
-13.46
-17.52
-21.93
-26.76
-31.9
-37.06
-41.97
-46.47
-50.65
-54.78
-59.25
-64.45
-70.7
-78.19
-86.82
-96.05
-104.66
-110.86
-112.61
-108.25
-97.04
-79.52
-57.45
-33.3
-9.67
11.33
28.37
40.98
49.33
54.02
55.76
55.25
53.15
50.06
46.59
43.33
40.82
39.43
39.25
40.23
42.13
44.77
47.91
51.26
54.37
56.65
57.51
56.57
53.82
49.64
44.63
39.4
34.29
29.4
24.63
19.84
14.97
10.08
5.31
0.74
-3.55
-7.6
-11.41
-15.06
-18.56
-22
-25.49
-29.17
-33.1
-37.19
-41.25
-45.12
-48.78
-52.56
-56.97
-62.48
-69.16
-76.3
-82.47
-85.72
-84.2
-76.73
-63.3
-45.1
-24.25
-3.2
15.88
31.52
43.09
50.7
54.82
56.03
54.89
51.83
47.38
42.14
36.84
32.22
28.89
27.22
27.22
28.6
30.9
33.65
36.53
39.27
41.6
43.17
43.55
42.4
39.71
35.8
31.19
26.4
21.61
16.77
11.71
6.43
1.13
-3.82
-8.19
-12.06
-15.78
-19.83
-24.43
-29.58
-34.92
-40.13
-44.99
-49.47
-53.73
-58.05
-62.79
-68.39
-75.2
-83.24
-91.84
-99.5
-104.13
-103.6
-96.5
-82.72
-63.52
-41.17
-18.22
3.14
21.45
35.94
46.38
52.91
55.92
55.97
53.91
50.62
46.94
43.5
40.68
38.71
37.65
37.53
38.29
39.79
41.85
44.22
46.66
48.9
50.62
51.43
50.88
48.6
44.45
38.6
31.62
24.25
17.23
11.02
5.67
0.89
-3.8
-8.9
-14.6
-20.83
-27.22
-33.32
-38.77
-43.44
-47.48
-51.23
-55.24
-60.08
-66.22
-73.89
-82.77
-91.82
-99.31
-103.05
-101.07
-92.22
-76.71
-56.09
-32.84
-9.68
11.21
28.45
41.56
50.67
56.26
58.91
59.31
58.16
56.18
54
52.05
50.62
49.82
49.68
50.15
51.15
52.53
54.09
55.59
56.76
57.32
57.02
55.69
53.28
49.81
45.45
40.39
34.79
28.81
22.64
16.46
10.5
4.95
-0.07
-4.58
-8.81
-13.04
-17.52
-22.36
-27.45
-32.53
-37.32
-41.63
-45.52
-49.25
-53.32
-58.26
-64.58
-72.52
-81.88
-91.79
-100.68
-106.4
-106.76
-100.24
-86.55
-66.86
-43.59
-19.6
2.5
20.94
34.98
44.69
50.6
53.33
53.53
51.8
48.86
45.45
42.36
40.18
39.29
39.68
41.08
43.08
45.22
47.18
48.82
50.12
50.99
51.24
50.51
48.43
44.77
39.68
33.62
27.17
20.82
14.74
8.74
2.49
-4.25
-11.43
-18.69
-25.48
-31.37
-36.21
-40.3
-44.32
-49.15
-55.58
-63.96
-73.82
-83.74
-91.5
-94.63
-91.26
-80.71
-63.86
-42.88
-20.55
0.53
18.52
32.56
42.56
48.83
51.86
52.17
50.32
47.05
43.16
39.46
36.63
35.06
34.81
35.64
37.14
38.9
40.54
41.76
42.35
42.09
40.84
38.55
35.28
31.12
26.19
20.54
14.2
7.3
0.09
-7.04
-13.69
-19.62
-24.85
-29.6
-34.29
-39.3
-45
-51.65
-59.32
-67.74
-76.04
-82.71
-85.87
-83.76
-75.37
-60.94
-42.01
-20.99
-0.48
17.45
31.66
41.94
48.73
52.67
54.32
54.12
52.45
49.78
46.71
43.87
41.77
40.67
40.53
41.13
42.12
43.21
44.12
44.62
44.51
43.56
41.68
38.83
35.09
30.57
25.46
19.84
13.8
7.36
0.63
-6.25
-13.03
-19.45
-25.31
-30.53
-35.25
-39.79
-44.71
-50.53
-57.61
-65.83
-74.43
-81.99
-86.64
-86.6
-80.69
-68.81
-52.03
-32.35
-12.13
6.46
21.93
33.52
41.21
45.41
46.71
45.75
43.1
39.39
35.27
31.43
28.57
27.19
27.46
29.12
31.57
34.04
35.88
36.7
36.49
35.44
33.79
31.62
28.88
25.38
21.05
15.96
10.4
4.77
-0.59
-5.51
-10.03
-14.29
-18.42
-22.49
-26.51
-30.61
-35.14
-40.56
-47.16
-54.72
-62.24
-68.03
-70.16
-67.13
-58.44
-44.83
-28.07
-10.38
6.15
20.03
30.59
37.74
41.81
43.21
42.32
39.55
35.38
30.55
25.92
22.44
20.81
21.29
23.59
26.97
30.54
33.43
35.1
35.32
34.13
31.66
28.15
23.83
19
13.87
8.58
3.18
-2.41
-8.24
-14.26
-20.26
-25.97
-31.16
-35.74
-39.87
-43.85
-48.2
-53.47
-60.14
-68.37
-77.65
-86.65
-93.3
-95.33
-90.98
-79.74
-62.63
-41.91
-20.38
-0.55
16.02
28.75
37.82
43.72
46.94
47.92
47.13
45.17
42.85
40.95
40.05
40.36
41.7
43.64
45.76
47.73
49.37
50.61
51.31
51.29
50.33
48.31
45.28
41.52
37.42
33.26
29.19
25.13
20.89
16.31
11.35
6.14
0.93
-4.06
-8.76
-13.29
-17.93
-22.94
-28.43
-34.25
-40.04
-45.41
-50.07
-54.05
-57.71
-61.72
-66.89
-73.88
-82.92
-93.54
-104.31
-113.06
-117.24
-114.7
-104.44
-87.02
-64.46
-39.71
-15.77
5.04
21.53
33.58
41.84
47.25
50.7
52.87
54.21
55.02
55.55
56.06
56.8
57.96
59.52
61.32
63.06
64.49
65.5
66.16
66.6
66.79
66.55
65.53
63.41
60.05
55.6
50.4
44.87
39.31
33.99
29.03
24.54
20.51
16.87
13.4
9.8
5.84
1.42
-3.33
-8.11
-12.62
-16.66
-20.33
-23.91
-27.81
-32.31
-37.44
-42.94
-48.34
-53.26
-57.56
-61.46
-65.48
-70.35
-76.74
-84.93
-94.67
-104.85
-113.58
-118.55
-117.58
-109.37
-94.02
-73.04
-49.02
-24.78
-2.71
15.72
30.01
40.32
47.13
50.96
52.3
51.67
49.64
46.92
44.24
42.22
41.3
41.59
43
45.25
48
50.89
53.58
55.69
56.9
56.89
55.48
52.68
48.74
44.08
39.17
34.33
29.67
25.1
20.41
15.48
10.38
5.38
0.77
-3.33
-7.02
-10.57
-14.31
-18.38
-22.72
-27.09
-31.28
-35.19
-38.98
-42.91
-47.44
-52.99
-59.95
-68.34
-77.68
-86.73
-93.63
-96.27
-92.94
-82.95
-66.97
-46.92
-25.33
-4.68
13.26
27.64
38.35
45.68
49.98
51.58
50.83
48.32
44.87
41.43
38.89
37.73
37.99
39.32
41.24
43.31
45.27
47.03
48.54
49.63
50.05
49.5
47.81
44.99
41.31
37.15
32.91
28.85
25.04
21.36
17.61
13.61
9.26
4.59
-0.19
-4.81
-9.02
-12.68
-15.89
-18.93
-22.22
-26.18
-31.04
-36.75
-42.91
-48.94
-54.3
-58.84
-62.89
-67.35
-73.23
-81.27
-91.38
-102.36
-112.05
-117.82
-117.35
-109.36
-94.03
-72.93
-48.61
-23.89
-1.2
17.82
32.44
42.7
49.19
52.75
54.3
54.73
54.71
54.69
54.88
55.32
55.97
56.8
57.85
59.12
60.58
62.07
63.38
64.32
64.79
64.77
64.2
63
60.96
57.9
53.8
48.85
43.47
38.12
33.15
28.71
24.75
21.12
17.66
14.25
10.8
7.24
3.53
-0.27
-4.01
-7.54
-10.77
-13.8
-16.83
-20.14
-23.96
-28.35
-33.22
-38.42
-43.77
-49.14
-54.41
-59.56
-64.7
-70.15
-76.43
-83.99
-92.85
-102.13
-110.05
-114.22
-112.38
-103.29
-87.24
-66.08
-42.59
-19.66
0.42
16.41
27.99
35.48
39.58
41.09
40.85
39.7
38.39
37.49
37.29
37.85
39.02
40.58
42.29
44.02
45.69
47.33
48.93
50.4
51.56
52.03
51.49
49.76
46.94
43.41
39.65
36.04
32.7
29.52
26.25
22.69
18.87
14.99
11.35
8.06
5.07
2.14
-0.95
-4.33
-7.96
-11.75
-15.65
-19.68
-23.93
-28.44
-33.14
-38.02
-43.17
-48.86
-55.42
-62.91
-70.77
-77.68
-81.81
-81.38
-75.33
-63.74
-47.89
-29.8
-11.68
4.65
18.04
27.99
34.53
37.97
38.76
37.47
34.83
31.61
28.57
26.31
25.22
25.43
26.86
29.27
32.32
35.6
38.7
41.2
42.74
43.06
41.98
39.5
35.77
31.07
25.8
20.37
15.17
10.43
6.29
2.71
-0.41
-3.18
-5.75
-8.25
-10.89
-13.82
-17.21
-21.07
-25.31
-29.77
-34.32
-38.87
-43.49
-48.36
-53.84
-60.32
-68.07
-77
-86.39
-94.82
-100.41
-101.26
-96.14
-84.89
-68.58
-49.2
-29.12
-10.48
5.24
17.38
26
31.61
34.93
36.68
37.48
37.8
37.99
38.36
39.08
40.26
41.85
43.77
45.79
47.75
49.56
51.19
52.64
53.91
54.87
55.33
55.01
53.67
51.21
47.74
43.61
39.22
35.01
31.25
28.07
25.44
23.22
21.26
19.43
17.62
15.79
13.93
12.05
10.14
8.14
5.9
3.22
-0.06
-3.98
-8.32
-12.76
-16.89
-20.48
-23.58
-26.53
-29.83
-33.9
-38.87
-44.56
-50.55
-56.35
-61.61
-66.14
-70.04
-73.6
-77.3
-81.82
-87.81
-95.56
-104.74
-114.05
-121.42
-124.45
-121.2
-110.92
-94.34
-73.48
-50.97
-29.33
-10.34
5.12
16.98
25.67
31.87
36.25
39.41
41.83
43.82
45.59
47.27
48.96
50.71
52.5
54.21
55.7
56.86
57.73
58.5
59.39
60.45
61.45
61.94
61.39
59.52
56.41
52.43
48.11
43.81
39.65
35.56
31.46
27.37
23.46
19.96
16.96
14.36
11.96
9.49
6.85
4.03
1.19
-1.51
-3.97
-6.23
-8.45
-10.88
-13.73
-17.15
-21.14
-25.59
-30.26
-34.92
-39.35
-43.44
-47.28
-51.13
-55.43
-60.66
-67.15
-74.8
-82.86
-89.93
-94.2
-93.95
-88.08
-76.53
-60.33
-41.37
-21.95
-4.2
10.39
21.14
28.21
32.25
34.08
34.39
33.62
32.05
30.03
28.05
26.73
26.64
28.09
30.95
34.75
38.85
42.65
45.81
48.19
49.75
50.45
50.21
48.9
46.42
42.78
38.14
32.8
27.2
21.73
16.78
12.5
8.87
5.66
2.54
-0.78
-4.45
-8.44
-12.59
-16.7
-20.61
-24.25
-27.7
-31.08
-34.6
-38.5
-43.12
-48.73
-55.37
-62.68
-69.67
-74.84
-76.5
-73.34
-64.87
-51.7
-35.38
-17.98
-1.46
12.76
23.92
31.83
36.61
38.51
37.93
35.44
31.89
28.23
25.33
23.75
23.61
24.68
26.56
28.86
31.3
33.71
36
38.01
39.46
40.05
39.44
37.45
34.06
29.55
24.41
19.21
14.43
10.3
6.68
3.18
-0.68
-5.26
-10.66
-16.6
-22.63
-28.25
-33.2
-37.47
-41.43
-45.64
-50.75
-57.32
-65.48
-74.74
-83.88
-91.05
-94.23
-91.78
-83.03
-68.54
-49.98
-29.67
-9.97
7.22
20.82
30.57
36.87
40.5
42.33
43.07
43.22
43.05
42.8
42.68
42.98
43.88
45.39
47.27
49.17
50.77
51.91
52.64
53.04
53.1
52.65
51.45
49.3
46.18
42.28
37.93
33.42
28.92
24.4
19.77
15.03
10.28
5.73
1.56
-2.17
-5.69
-9.34
-13.51
-18.35
-23.81
-29.57
-35.26
-40.6
-45.62
-50.61
-56.12
-62.79
-71.1
-81.12
-92.14
-102.58
-110.18
-112.55
-107.98
-96.08
-78.05
-56.35
-33.91
-13.31
3.88
17.22
27.12
34.44
40
44.46
48.24
51.6
54.66
57.47
60.04
62.33
64.32
66.01
67.45
68.69
69.77
70.75
71.62
72.3
72.64
72.39
71.29
69.2
66.13
62.28
57.96
53.53
49.23
45.21
41.5
38.04
34.76
31.56
28.41
25.25
22.11
19.03
16.1
13.42
11.01
8.77
6.47
3.87
0.77
-2.85
-6.77
-10.68
-14.3
-17.48
-20.31
-23.06
-26.04
-29.47
-33.41
-37.76
-42.32
-46.85
-51.14
-54.99
-58.39
-61.47
-64.65
-68.52
-73.73
-80.7
-89.32
-98.72
-107.23
-112.7
-113
-106.79
-93.96
-75.83
-54.74
-33.44
-14.23
1.46
13.18
21.29
26.53
29.69
31.52
32.63
33.49
34.48
35.87
37.71
39.91
42.31
44.73
47.03
49.18
51.18
53.02
54.62
55.7
55.94
55.02
52.79
49.39
45.26
40.88
36.64
32.68
28.87
24.94
20.76
16.37
12.06
8.16
4.9
2.3
0.09
-2.11
-4.67
-7.81
-11.58
-15.84
-20.38
-24.96
-29.43
-33.71
-37.92
-42.38
-47.52
-53.67
-60.86
-68.54
-75.55
-80.22
-80.85
-76.2
-65.96
-51.01
-33.21
-14.96
1.56
14.89
24.56
30.96
34.9
37.18
38.31
38.53
37.97
36.91
35.82
35.2
35.41
36.52
38.28
40.33
42.37
44.26
45.92
47.32
48.29
48.61
48.05
46.53
44.11
41.02
37.51
33.81
30.11
26.55
23.24
20.25
17.55
15.08
12.72
10.37
7.94
5.38
2.68
-0.19
-3.25
-6.49
-9.85
-13.25
-16.66
-20.09
-23.62
-27.41
-31.55
-36.1
-40.94
-45.94
-50.88
-55.59
-60.05
-64.36
-68.85
-73.95
-80.13
-87.57
-95.87
-103.85
-109.65
-111.21
-106.89
-96.18
-79.94
-60.19
-39.52
-20.34
-4.32
7.84
16.33
21.9
25.61
28.41
31.06
33.91
37
40.12
43.04
45.6
47.83
49.85
51.8
53.71
55.53
57.11
58.3
59.01
59.13
58.64
57.51
55.78
53.62
51.26
48.94
46.79
44.83
42.87
40.73
38.25
35.43
32.42
29.41
26.54
23.86
21.28
18.71
16.06
13.32
10.56
7.88
5.29
2.79
0.25
-2.41
-5.28
-8.32
-11.42
-14.42
-17.28
-20.09
-23.15
-26.77
-31.17
-36.27
-41.75
-47.14
-52.08
-56.42
-60.37
-64.4
-69.09
-75.01
-82.47
-91.29
-100.58
-108.75
-113.75
-113.58
-106.92
-93.74
-75.44
-54.39
-33.36
-14.62
0.48
11.67
19.42
24.58
27.99
30.34
32.09
33.59
35.09
36.76
38.73
41
43.48
46
48.35
50.36
51.92
53.07
53.9
54.54
54.98
55.04
54.35
52.58
49.58
45.54
40.96
36.48
32.62
29.65
27.53
25.92
24.36
22.42
19.89
16.82
13.57
10.59
8.28
6.74
5.7
4.54
2.61
-0.54
-4.95
-10.19
-15.63
-20.7
-25.12
-29.12
-33.22
-38.15
-44.41
-52.03
-60.46
-68.54
-74.77
-77.57
-75.75
-68.76
-56.97
-41.59
-24.46
-7.61
7.18
18.72
26.6
31.14
33.07
33.25
32.4
31.08
29.59
28.17
27.09
26.64
27.08
28.5
30.76
33.53
36.34
38.78
40.57
41.56
41.72
41.03
39.47
37.02
33.73
29.72
25.2
20.44
15.75
11.4
7.56
4.29
1.47
-1.13
-3.8
-6.81
-10.28
-14.2
-18.46
-22.87
-27.23
-31.42
-35.36
-39.1
-42.81
-46.86
-51.73
-57.83
-65.2
-73.39
-81.25
-87.17
-89.47
-86.89
-78.95
-66.25
-50.21
-32.76
-15.79
-0.79
11.4
20.64
27.23
31.68
34.51
36.12
36.85
36.96
36.78
36.61
36.72
37.26
38.27
39.73
41.53
43.58
45.74
47.85
49.67
50.94
51.43
50.96
49.49
47.09
43.94
40.34
36.64
33.14
30.04
27.35
25
22.83
20.71
18.61
16.56
14.66
12.97
11.48
10.05
8.49
6.57
4.12
1.13
-2.24
-5.75
-9.16
-12.31
-15.2
-17.96
-20.83
-24.07
-27.89
-32.31
-37.18
-42.17
-46.89
-51.06
-54.66
-57.88
-61.16
-65.06
-70.06
-76.48
-84.26
-92.8
-100.86
-106.63
-108.12
-103.78
-93.09
-76.85
-57.17
-36.71
-18.03
-2.84
8.24
15.58
20.16
23.06
25.21
27.23
29.39
31.8
34.4
37.08
39.67
42.1
44.39
46.62
48.9
51.28
53.67
55.83
57.44
58.26
58.14
57.08
55.13
52.39
48.98
45.06
40.92
36.95
33.49
30.7
28.53
26.69
24.81
22.7
20.36
18.04
15.98
14.34
12.99
11.67
10.02
7.81
4.98
1.7
-1.79
-5.2
-8.45
-11.62
-14.97
-18.73
-23
-27.61
-32.18
-36.33
-39.83
-42.79
-45.6
-48.79
-52.82
-57.94
-64.04
-70.65
-76.85
-81.36
-82.8
-79.97
-72.3
-60.12
-44.71
-27.89
-11.66
2.43
13.46
21.25
26.07
28.49
29.04
28.24
26.57
24.52
22.61
21.4
21.32
22.6
25.22
28.79
32.77
36.58
39.72
41.94
43.12
43.29
42.52
40.84
38.3
34.98
31.12
27.02
23.09
19.6
16.65
14.11
11.74
9.37
6.89
4.29
1.61
-1.24
-4.44
-8.21
-12.62
-17.57
-22.73
-27.68
-32.16
-36.14
-39.84
-43.72
-48.28
-53.91
-60.74
-68.41
-75.97
-81.9
-84.49
-82.26
-74.6
-62.01
-46.04
-28.89
-12.68
1.05
11.64
19.18
24.24
27.47
29.38
30.36
30.8
31.1
31.69
32.91
34.84
37.33
40.1
42.79
45.22
47.32
49.14
50.71
51.99
52.81
52.91
52.04
50.1
47.26
43.89
40.47
37.43
34.96
32.98
31.24
29.49
27.61
25.66
23.8
22.15
20.65
19.11
17.32
15.18
12.79
10.41
8.25
6.37
4.58
2.56
-0.02
-3.28
-7.08
-11.13
-15.07
-18.69
-21.98
-25.12
-28.39
-32.03
-36.17
-40.73
-45.48
-50.1
-54.28
-57.9
-61.11
-64.33
-68.15
-73.13
-79.55
-87.24
-95.37
-102.54
-106.97
-106.93
-101.29
-89.92
-73.84
-54.99
-35.7
-18.13
-3.72
6.95
14.14
18.62
21.37
23.31
25.12
27.16
29.57
32.31
35.24
38.23
41.15
43.9
46.35
48.43
50.09
51.38
52.43
53.32
54.07
54.47
54.16
52.79
50.22
46.62
42.46
38.3
34.57
31.45
28.84
26.48
24.19
21.91
19.71
17.72
15.94
14.26
12.48
10.41
7.92
5.08
2.03
-1.09
-4.22
-7.43
-10.87
-14.75
-19.15
-24.01
-29.06
-33.92
-38.22
-41.77
-44.7
-47.5
-50.85
-55.39
-61.25
-67.9
-74
-77.84
-77.72
-72.67
-62.71
-48.88
-32.9
-16.67
-1.88
10.3
19.3
25.07
27.99
28.7
27.98
26.6
25.18
24.22
24
24.68
26.25
28.59
31.48
34.62
37.75
40.61
43.03
44.88
46.04
46.36
45.74
44.1
41.49
38.05
34.06
29.87
25.78
22.06
18.78
15.84
13.02
10.12
7.07
3.98
1.11
-1.32
-3.21
-4.75
-6.32
-8.41
-11.37
-15.25
-19.89
-24.91
-29.98
-34.9
-39.7
-44.59
-49.9
-55.96
-62.95
-70.79
-78.9
-86.16
-91.01
-91.82
-87.44
-77.68
-63.44
-46.53
-29.13
-13.12
0.25
10.52
17.93
23.1
26.76
29.57
31.96
34.12
36.06
37.68
38.99
40.09
41.23
42.62
44.38
46.44
48.62
50.69
52.46
53.85
54.8
55.24
55.07
54.16
52.45
50.02
47.13
44.1
41.31
38.95
37.06
35.48
33.99
32.38
30.52
28.31
25.77
22.99
20.12
17.43
15.12
13.28
11.74
10.09
7.89
4.8
0.79
-3.87
-8.66
-13.05
-16.71
-19.56
-21.79
-23.81
-26.07
-28.89
-32.41
-36.53
-40.93
-45.28
-49.3
-52.92
-56.32
-59.89
-64.17
-69.65
-76.58
-84.74
-93.23
-100.47
-104.49
-103.48
-96.39
-83.39
-65.94
-46.4
-27.28
-10.59
2.65
12.37
19.2
24.01
27.51
30.2
32.42
34.39
36.37
38.57
41.07
43.75
46.36
48.63
50.36
51.56
52.35
52.93
53.41
53.82
54.04
53.87
53.04
51.37
48.8
45.46
41.71
38
34.72
32.06
29.93
28.06
26.23
24.31
22.39
20.57
18.87
17.16
15.25
13.03
10.55
7.94
5.34
2.77
0.1
-2.85
-6.14
-9.69
-13.29
-16.76
-20.06
-23.28
-26.6
-30.13
-33.78
-37.33
-40.47
-43.1
-45.48
-48.23
-52.09
-57.58
-64.67
-72.53
-79.6
-84.08
-84.38
-79.64
-70.01
-56.56
-40.98
-25.06
-10.37
1.99
11.45
17.96
21.79
23.43
23.52
22.73
21.65
20.78
20.44
20.82
21.99
23.91
26.43
29.3
32.21
34.89
37.17
38.97
40.25
40.89
40.64
39.24
36.55
32.72
28.21
23.58
19.31
15.59
12.36
9.42
6.66
4.01
1.49
-1.03
-3.78
-7.06
-11.02
-15.55
-20.33
-24.96
-29.23
-33.18
-37.17
-41.73
-47.35
-54.21
-62.03
-69.88
-76.32
-79.72
-78.71
-72.71
-62.08
-48.13
-32.65
-17.46
-3.91
7.23
15.74
21.79
25.77
28.14
29.44
30.15
30.69
31.28
32.05
32.97
34.05
35.35
36.94
38.83
40.85
42.73
44.15
44.85
44.71
43.78
42.13
39.81
36.86
33.25
29.05
24.41
19.56
14.82
10.45
6.61
3.28
0.3
-2.63
-5.86
-9.71
-14.34
-19.72
-25.55
-31.41
-36.87
-41.64
-45.87
-50.02
-54.87
-61.15
-69.19
-78.63
-88.3
-96.34
-100.62
-99.45
-92.05
-78.95
-61.85
-43.17
-25.27
-9.95
2.07
10.96
17.55
22.8
27.49
32
36.4
40.55
44.33
47.66
50.58
53.14
55.4
57.41
59.19
60.77
62.14
63.29
64.15
64.59
64.46
63.54
61.61
58.53
54.3
49.16
43.61
38.26
33.61
29.85
26.74
23.82
20.7
17.25
13.71
10.5
7.9
5.84
3.9
1.51
-1.82
-6.31
-11.79
-17.88
-24.11
-30.08
-35.58
-40.54
-45.14
-49.75
-54.87
-61.05
-68.57
-77.19
-85.87
-92.9
-96.25
-94.23
-86.15
-72.65
-55.55
-37.3
-20.2
-5.74
5.52
13.9
20.15
24.98
28.96
32.42
35.52
38.39
41.14
43.85
46.53
49.12
51.48
53.44
54.89
55.82
56.28
56.41
56.31
56
55.34
54.12
52.09
49.15
45.33
40.87
36.12
31.43
27.12
23.35
20.15
17.42
14.88
12.22
9.13
5.45
1.26
-3.17
-7.45
-11.33
-14.78
-18.11
-21.82
-26.41
-32.18
-38.98
-46.26
-53.02
-58.05
-60.14
-58.43
-52.59
-43.02
-30.76
-17.28
-4.08
7.57
16.91
23.68
27.93
29.96
30.14
28.85
26.61
24.03
21.79
20.42
20.25
21.27
23.15
25.43
27.63
29.42
30.66
31.34
31.48
31.03
29.8
27.57
24.24
20.01
15.35
10.81
6.87
3.6
0.76
-2.09
-5.36
-9.13
-13.21
-17.2
-20.77
-23.81
-26.56
-29.45
-33.04
-37.78
-43.84
-50.96
-58.38
-64.94
-69.19
-69.81
-66
-57.75
-45.97
-32.28
-18.56
-6.36
3.4
10.67
15.95
20
23.39
26.4
29
31.11
32.7
33.88
34.86
35.71
36.37
36.68
36.53
35.92
35.04
34.12
33.29
32.46
31.38
29.7
27.2
23.88
20.01
16.03
12.34
9.25
6.8
4.78
2.84
0.58
-2.33
-6.01
-10.36
-15.08
-19.83
-24.27
-28.28
-31.9
-35.47
-39.47
-44.4
-50.52
-57.66
-65.03
-71.32
-74.96
-74.59
-69.52
-60
-47.23
-32.98
-19.05
-6.8
3.11
10.72
16.46
20.9
24.44
27.34
29.74
31.77
33.62
35.45
37.34
39.19
40.77
41.87
42.34
42.31
42.05
41.89
41.99
42.26
42.41
42.06
40.95
39.06
36.62
33.96
31.43
29.22
27.35
25.72
24.21
22.7
21.14
19.55
17.99
16.5
15.15
13.92
12.74
11.48
10.01
8.26
6.27
4.18
2.18
0.41
-1.15
-2.6
-4.19
-6.16
-8.69
-11.77
-15.23
-18.77
-22.06
-24.98
-27.63
-30.33
-33.42
-37.1
-41.23
-45.48
-49.41
-52.76
-55.51
-57.9
-60.33
-63.2
-66.88
-71.59
-77.32
-83.65
-89.57
-93.62
-94.18
-90.12
-81.18
-68.27
-53.14
-37.84
-24.04
-12.68
-3.91
2.68
7.66
11.57
14.8
17.63
20.31
23.08
26.05
29.23
32.48
35.56
38.23
40.37
41.94
43.01
43.73
44.23
44.58
44.81
44.79
44.31
43.15
41.17
38.45
35.31
32.24
29.64
27.76
26.48
25.48
24.37
22.93
21.2
19.42
17.84
16.47
15.14
13.51
11.3
8.49
5.31
2.11
-0.81
-3.36
-5.72
-8.22
-11.16
-14.72
-18.83
-23.23
-27.51
-31.24
-34.1
-35.97
-36.99
-37.56
-38.27
-39.71
-42.33
-46.22
-50.94
-55.61
-59.02
-59.91
-57.37
-51.1
-41.52
-29.76
-17.32
-5.71
3.9
10.92
15.32
17.47
17.98
17.44
16.34
15.05
13.87
13.09
13
13.78
15.42
17.69
20.25
22.72
24.76
26.22
27.01
27.14
26.6
25.4
23.57
21.22
18.48
15.56
12.63
9.87
7.39
5.24
3.44
1.9
0.44
-1.2
-3.26
-5.89
-9.12
-12.77
-16.56
-20.18
-23.48
-26.43
-29.22
-32.14
-35.57
-39.86
-45.22
-51.49
-58.04
-63.77
-67.29
-67.38
-63.37
-55.47
-44.67
-32.47
-20.37
-9.51
-0.45
6.7
12.14
16.1
18.82
20.5
21.36
21.71
21.93
22.39
23.35
24.87
26.75
28.66
30.25
31.31
31.84
31.98
31.95
31.83
31.52
30.72
29.14
26.68
23.5
19.99
16.59
13.62
11.11
8.79
6.26
3.19
-0.51
-4.67
-8.94
-12.99
-16.64
-19.85
-22.75
-25.53
-28.41
-31.71
-35.79
-40.95
-47.22
-54.16
-60.76
-65.6
-67.27
-64.81
-58.06
-47.8
-35.44
-22.66
-10.93
-1.23
6.08
11.2
14.66
17.03
18.8
20.21
21.33
22.17
22.78
23.31
23.94
24.96
26.47
28.52
31
33.71
36.32
38.55
40.11
40.82
40.64
39.67
38.08
36.03
33.64
30.93
27.97
24.79
21.48
18.13
14.8
11.57
8.53
5.71
3.04
0.3
-2.79
-6.49
-10.79
-15.43
-19.89
-23.72
-26.71
-29.11
-31.5
-34.59
-38.89
-44.59
-51.37
-58.5
-64.91
-69.29
-70.41
-67.32
-59.69
-48.08
-33.84
-18.82
-4.92
6.45
14.67
19.85
22.65
23.84
24.13
23.85
23.25
22.54
22.01
22.03
22.87
24.58
26.92
29.5
31.93
34.01
35.79
37.43
39
40.35
41.1
40.8
39.17
36.2
32.27
27.88
23.52
19.49
15.88
12.59
9.41
6.13
2.61
-1.14
-5.03
-8.85
-12.34
-15.39
-18.04
-20.58
-23.47
-27.18
-32.05
-38.11
-45.01
-52.01
-58.04
-61.8
-62.03
-57.92
-49.34
-37.07
-22.65
-8.01
5.1
15.48
22.72
27.08
29.18
29.7
29.16
27.97
26.44
24.94
23.87
23.6
24.37
26.12
28.58
31.29
33.83
35.87
37.3
38.12
38.35
37.97
36.8
34.7
31.54
27.4
22.64
17.78
13.3
9.41
6.04
2.82
-0.61
-4.42
-8.43
-12.27
-15.57
-18.23
-20.5
-22.9
-26.07
-30.53
-36.52
-43.84
-51.79
-59.19
-64.48
-66.14
-63.07
-55.08
-42.99
-28.49
-13.6
-0.07
10.92
18.97
24.25
27.22
28.43
28.41
27.69
26.77
26.1
26.03
26.7
28.08
29.93
31.99
34.01
35.79
37.15
37.93
37.92
36.99
35.11
32.37
28.99
25.26
21.49
17.89
14.55
11.49
8.58
5.66
2.58
-0.73
-4.25
-7.84
-11.34
-14.64
-17.8
-21.11
-24.96
-29.73
-35.54
-41.97
-47.99
-52.15
-52.93
-49.32
-41.25
-29.68
-16.34
-3.14
8.35
17.27
23.45
27.16
28.78
28.69
27.2
24.73
21.77
18.97
16.92
16.03
16.38
17.75
19.7
21.71
23.31
24.14
24.07
23.06
21.18
18.58
15.45
12.02
8.48
4.95
1.38
-2.4
-6.56
-11.15
-16.02
-20.82
-25.19
-28.97
-32.33
-35.75
-39.83
-45.16
-51.96
-60.07
-68.81
-76.98
-83.04
-85.37
-82.72
-74.63
-61.71
-45.56
-28.4
-12.45
0.69
10.38
16.9
21.13
24.11
26.61
29.06
31.53
33.93
36.13
38.04
39.6
40.83
41.76
42.47
43
43.37
43.54
43.4
42.78
41.52
39.51
36.7
33.11
28.82
23.98
18.78
13.43
8.1
2.9
-2.15
-7.04
-11.77
-16.35
-20.78
-25.13
-29.59
-34.47
-40.09
-46.63
-53.85
-60.95
-66.56
-69.03
-66.99
-59.89
-48.27
-33.76
-18.5
-4.49
6.97
15.44
21.23
24.95
27.17
28.27
28.51
28.15
27.58
27.24
27.49
28.47
30.04
31.89
33.69
35.18
36.25
36.9
37.13
36.89
36.03
34.41
31.96
28.68
24.66
20.06
15.07
9.92
4.9
0.35
-3.57
-6.85
-9.78
-12.84
-16.56
-21.37
-27.38
-34.37
-41.75
-48.6
-53.8
-56.21
-54.92
-49.56
-40.47
-28.77
-16.02
-3.81
6.69
15
21.24
25.85
29.19
31.37
32.34
32.03
30.7
28.88
27.33
26.63
26.98
28.07
29.29
29.96
29.67
28.36
26.33
23.96
21.53
19.05
16.29
12.92
8.71
3.69
-1.87
-7.52
-12.87
-17.66
-21.86
-25.63
-29.26
-33.15
-37.7
-43.23
-49.71
-56.53
-62.47
-65.89
-65.22
-59.61
-49.32
-35.7
-20.74
-6.43
5.8
15.36
22.3
27.06
30.11
31.81
32.44
32.32
31.81
31.28
31.04
31.2
31.74
32.53
33.39
34.23
35.01
35.73
36.35
36.7
36.49
35.32
32.87
29.07
24.18
18.76
13.43
8.67
4.58
0.96
-2.66
-6.65
-11.12
-15.9
-20.58
-24.8
-28.39
-31.48
-34.47
-37.93
-42.46
-48.55
-56.27
-65.16
-74.02
-81.05
-84.27
-82.08
-73.87
-60.37
-43.5
-25.77
-9.51
3.84
13.98
21.54
27.56
32.87
37.82
42.23
45.68
47.93
49.1
49.63
50.09
50.88
52.06
53.4
54.54
55.21
55.36
55.14
54.71
54.13
53.23
51.7
49.23
45.63
41.06
35.88
30.58
25.48
20.7
16.14
11.64
7.18
2.91
-0.94
-4.23
-7.15
-10.16
-13.72
-18.08
-23.11
-28.35
-33.3
-37.68
-41.61
-45.52
-50
-55.51
-62.24
-69.96
-77.88
-84.7
-88.79
-88.55
-82.88
-71.73
-56.16
-38.18
-20.18
-4.21
8.44
17.41
23.07
26.23
27.82
28.61
29.2
29.95
30.99
32.28
33.76
35.35
37.01
38.67
40.24
41.57
42.51
42.91
42.71
41.86
40.31
38.01
34.92
31.14
26.87
22.46
18.22
14.29
10.61
6.97
3.14
-0.93
-5.04
-8.9
-12.22
-14.99
-17.41
-19.96
-23.22
-27.6
-33.22
-39.77
-46.49
-52.25
-55.78
-55.87
-51.8
-43.55
-31.96
-18.5
-4.99
6.99
16.37
22.79
26.48
27.97
27.81
26.46
24.25
21.57
18.91
16.89
16.05
16.64
18.51
21.11
23.73
25.69
26.61
26.42
25.33
23.59
21.49
19.15
16.6
13.74
10.45
6.63
2.29
-2.43
-7.23
-11.79
-15.88
-19.44
-22.65
-25.81
-29.32
-33.49
-38.51
-44.33
-50.53
-56.28
-60.42
-61.61
-58.83
-51.72
-40.85
-27.64
-13.93
-1.42
8.71
16.04
20.81
23.6
25.06
25.65
25.68
25.31
24.75
24.23
23.98
24.13
24.66
25.42
26.24
27.01
27.73
28.44
29.12
29.54
29.32
28.05
25.51
21.77
17.25
12.48
7.89
3.64
-0.44
-4.64
-9.18
-14.01
-18.84
-23.27
-27
-29.98
-32.52
-35.12
-38.37
-42.75
-48.52
-55.53
-63.07
-69.9
-74.38
-74.92
-70.56
-61.36
-48.49
-33.89
-19.66
-7.37
2.23
9.25
14.3
18.13
21.3
24.13
26.7
28.97
30.87
32.37
33.5
34.37
35.08
35.7
36.27
36.77
37.21
37.63
38.12
38.69
39.24
39.51
39.17
37.95
35.76
32.78
29.41
26.18
23.51
21.63
20.42
19.48
18.25
16.28
13.35
9.66
5.64
1.81
-1.49
-4.32
-6.96
-9.87
-13.4
-17.68
-22.56
-27.73
-32.82
-37.56
-41.78
-45.5
-48.91
-52.37
-56.33
-61.21
-67.28
-74.28
-81.39
-87.18
-89.94
-88.18
-81.19
-69.34
-54.04
-37.35
-21.32
-7.48
3.45
11.5
17.11
20.89
23.37
24.96
25.98
26.77
27.59
28.62
29.87
31.22
32.44
33.36
33.92
34.2
34.38
34.56
34.74
34.8
34.54
33.83
32.56
30.75
28.48
25.8
22.77
19.49
16.13
12.91
9.99
7.38
4.93
2.35
-0.59
-3.94
-7.55
-11.15
-14.51
-17.63
-20.74
-24.18
-28.28
-33.23
-38.96
-45.16
-51.29
-56.6
-60.18
-61.1
-58.63
-52.54
-43.2
-31.58
-19.05
-7.01
3.4
11.52
17.14
20.42
21.73
21.52
20.33
18.75
17.42
16.88
17.48
19.3
22.06
25.2
28.16
30.49
32.06
32.94
33.28
33.12
32.37
30.9
28.68
25.94
22.98
20.07
17.19
14.12
10.53
6.34
1.79
-2.61
-6.39
-9.31
-11.52
-13.47
-15.67
-18.5
-22.14
-26.65
-31.96
-37.89
-43.98
-49.38
-52.88
-53.19
-49.46
-41.67
-30.78
-18.42
-6.41
3.85
11.73
17.3
21.05
23.5
24.99
25.64
25.49
24.69
23.55
22.49
21.95
22.26
23.57
25.78
28.6
31.6
34.25
36.11
36.89
36.49
35.03
32.74
29.99
27.07
24.21
21.45
18.74
15.95
12.94
9.65
6.06
2.24
-1.64
-5.41
-8.9
-12.05
-14.91
-17.66
-20.52
-23.71
-27.27
-31.11
-35.1
-39.2
-43.53
-48.44
-54.24
-61.04
-68.41
-75.35
-80.44
-82.22
-79.59
-72.24
-60.74
-46.44
-31.12
-16.47
-3.73
6.47
14.14
19.66
23.6
26.46
28.62
30.31
31.69
32.87
33.97
35.07
36.22
37.42
38.6
39.7
40.69
41.65
42.64
43.66
44.59
45.2
45.26
44.57
43.09
40.92
38.25
35.32
32.34
29.48
26.85
24.5
22.34
20.29
18.26
16.24
14.37
12.82
11.73
10.95
10.16
8.88
6.77
3.8
0.25
-3.35
-6.55
-9.17
-11.43
-13.73
-16.51
-20
-24.13
-28.64
-33.17
-37.48
-41.44
-45.1
-48.58
-52.18
-56.28
-61.33
-67.56
-74.75
-82.03
-87.89
-90.65
-88.91
-82.13
-70.82
-56.38
-40.64
-25.36
-11.85
-0.83
7.49
13.27
16.9
18.97
20.12
20.98
22.1
23.81
26.21
29.19
32.5
35.86
38.99
41.69
43.88
45.57
46.82
47.68
48.15
48.1
47.33
45.69
43.14
39.88
36.26
32.71
29.56
26.95
24.75
22.66
20.36
17.65
14.54
11.28
8.2
5.58
3.54
1.92
0.38
-1.5
-4.11
-7.61
-11.87
-16.53
-21.08
-25.11
-28.4
-31.09
-33.59
-36.52
-40.45
-45.72
-52.14
-58.96
-64.89
-68.38
-68.06
-63.17
-53.85
-41.16
-26.72
-12.35
0.49
10.91
18.57
23.62
26.35
27.12
26.36
24.55
22.31
20.33
19.19
19.3
20.7
23.17
26.25
29.39
32.12
34.12
35.27
35.65
35.42
34.73
33.62
32.02
29.78
26.81
23.16
19.09
14.94
11.07
7.68
4.8
2.28
-0.2
-2.95
-6.18
-9.96
-14.16
-18.51
-22.71
-26.62
-30.26
-33.85
-37.69
-42.13
-47.4
-53.52
-60.2
-66.76
-72.13
-75.02
-74.22
-69.01
-59.47
-46.51
-31.64
-16.63
-3
8.17
16.41
21.77
24.75
26.04
26.38
26.37
26.36
26.47
26.69
27.04
27.6
28.53
29.95
31.92
34.36
37.07
39.77
42.12
43.74
44.27
43.5
41.48
38.53
35.1
31.63
28.34
25.22
22.07
18.71
15.08
11.29
7.56
4.07
0.82
-2.32
-5.6
-9.2
-13.17
-17.44
-21.86
-26.32
-30.73
-35.09
-39.42
-43.82
-48.49
-53.75
-59.91
-67.03
-74.63
-81.54
-86.12
-86.65
-81.96
-71.97
-57.71
-41.12
-24.43
-9.51
2.56
11.59
18.06
22.73
26.29
29.14
31.46
33.39
35.07
36.77
38.66
40.78
42.92
44.78
46.14
46.97
47.51
48.07
48.88
49.85
50.63
50.7
49.63
47.3
43.89
39.86
35.72
31.82
28.26
24.87
21.46
17.88
14.21
10.67
7.46
4.64
2.09
-0.51
-3.47
-7.02
-11.22
-15.91
-20.86
-25.75
-30.33
-34.52
-38.42
-42.4
-47.01
-52.79
-59.99
-68.29
-76.69
-83.66
-87.42
-86.53
-80.31
-69.05
-53.98
-36.89
-19.75
-4.21
8.63
18.32
24.88
28.77
30.61
31.06
30.79
30.36
30.29
30.92
32.41
34.62
37.21
39.74
41.81
43.25
44.08
44.53
44.77
44.88
44.7
43.92
42.21
39.31
35.23
30.26
24.93
19.79
15.26
11.5
8.36
5.51
2.56
-0.76
-4.54
-8.65
-12.83
-16.74
-20.2
-23.22
-26.11
-29.38
-33.58
-39.05
-45.63
-52.61
-58.79
-62.72
-63.11
-59.22
-51.01
-39.24
-25.26
-10.66
3.05
14.68
23.59
29.54
32.65
33.3
32.01
29.44
26.35
23.52
21.61
20.99
21.72
23.52
25.94
28.58
31.16
33.54
35.61
37.19
37.99
37.66
35.94
32.78
28.44
23.42
18.33
13.67
9.69
6.3
3.09
-0.45
-4.69
-9.67
-15.08
-20.4
-25.14
-29.07
-32.3
-35.29
-38.64
-42.99
-48.81
-56.22
-64.76
-73.4
-80.53
-84.37
-83.39
-76.87
-65.09
-49.39
-31.73
-14.22
1.42
14.12
23.59
30.1
34.3
36.91
38.49
39.43
39.98
40.31
40.59
41.01
41.73
42.81
44.15
45.59
46.95
48.15
49.2
50.11
50.78
51
50.46
48.91
46.28
42.79
38.86
35.01
31.65
29.03
27.15
25.78
24.57
23.18
21.39
19.22
16.86
14.66
12.94
11.78
11.02
10.27
9.09
7.08
4.13
0.34
-3.96
-8.38
-12.59
-16.49
-20.19
-24
-28.28
-33.24
-38.83
-44.68
-50.29
-55.25
-59.38
-62.93
-66.41
-70.43
-75.53
-81.97
-89.62
-97.88
-105.58
-111.07
-112.53
-108.41
-98.02
-81.92
-61.85
-40.37
-20.07
-2.94
10.04
18.92
24.49
27.88
30.21
32.31
34.64
37.32
40.19
43
45.55
47.72
49.47
50.82
51.81
52.53
53.11
53.73
54.47
55.27
55.85
55.8
54.74
52.49
49.17
45.19
41.07
37.27
34.05
31.39
29.09
26.88
24.56
22.08
19.56
17.08
14.72
12.39
9.94
7.32
4.56
1.8
-0.87
-3.52
-6.44
-10.02
-14.53
-19.97
-26
-32.06
-37.58
-42.26
-46.14
-49.62
-53.44
-58.37
-65
-73.33
-82.56
-91.08
-96.75
-97.53
-92.13
-80.54
-64.05
-44.91
-25.67
-8.52
5.23
15.19
21.66
25.36
27
27.21
26.46
25.18
23.82
22.81
22.55
23.22
24.86
27.32
30.39
33.8
37.25
40.43
43.05
44.86
45.7
45.54
44.4
42.32
39.34
35.6
31.28
26.73
22.33
18.38
14.97
11.91
8.82
5.27
0.97
-4.04
-9.42
-14.64
-19.24
-23.01
-26.12
-29.1
-32.6
-37.25
-43.36
-50.88
-59.23
-67.33
-73.78
-77
-75.71
-69.32
-58.17
-43.53
-27.26
-11.27
2.89
14.32
22.8
28.47
31.71
32.94
32.56
31.06
28.99
26.95
25.51
25.09
25.8
27.51
29.81
32.24
34.38
36.04
37.2
37.96
38.38
38.32
37.44
35.36
31.79
26.82
20.91
14.83
9.33
4.89
1.51
-1.2
-3.84
-6.97
-10.85
-15.43
-20.39
-25.31
-29.87
-33.95
-37.71
-41.56
-46.16
-52.07
-59.61
-68.41
-77.29
-84.4
-87.66
-85.37
-76.89
-62.84
-45.06
-25.95
-7.89
7.41
19.15
27.36
32.64
35.81
37.62
38.6
39.13
39.44
39.69
40.05
40.61
41.45
42.6
44
45.53
47.05
48.41
49.5
50.27
50.66
50.61
49.96
48.58
46.27
42.99
38.82
33.98
28.82
23.62
18.61
13.91
9.53
5.46
1.6
-2.25
-6.34
-10.95
-16.23
-22.16
-28.43
-34.64
-40.44
-45.72
-50.72
-55.95
-62
-69.29
-77.73
-86.56
-94.33
-99.2
-99.38
-93.76
-82.32
-66.19
-47.38
-28.12
-10.37
4.63
16.45
25.3
31.73
36.43
40
42.97
45.66
48.22
50.65
52.81
54.57
55.84
56.71
57.34
57.97
58.71
59.58
60.44
61.08
61.32
61.01
60.04
58.34
55.86
52.61
48.7
44.42
40.1
36.1
32.64
29.78
27.35
25.05
22.55
19.57
16.02
12.02
7.8
3.63
-0.31
-4.02
-7.6
-11.29
-15.28
-19.7
-24.55
-29.67
-34.78
-39.51
-43.59
-46.94
-49.72
-52.44
-55.74
-60.26
-66.34
-73.79
-81.85
-89.16
-94
-94.75
-90.32
-80.51
-66.14
-48.94
-31.01
-14.3
-0.22
10.67
18.49
23.84
27.4
29.74
31.21
32.03
32.42
32.69
33.16
34.06
35.44
37.19
39.07
40.86
42.43
43.69
44.59
44.99
44.71
43.58
41.47
38.4
34.56
30.29
26.04
22.22
19.09
16.64
14.55
12.34
9.56
5.99
1.73
-2.85
-7.25
-11.11
-14.27
-16.88
-19.34
-22.2
-25.99
-31.05
-37.39
-44.55
-51.65
-57.45
-60.64
-60.13
-55.37
-46.53
-34.54
-20.84
-7.08
5.31
15.38
22.76
27.57
30.19
31.11
30.74
29.42
27.5
25.4
23.56
22.39
22.12
22.76
24.08
25.67
27.14
28.2
28.68
28.48
27.54
25.73
22.98
19.32
14.95
10.22
5.5
1.07
-2.95
-6.62
-10.06
-13.39
-16.67
-19.92
-23.19
-26.58
-30.27
-34.53
-39.56
-45.41
-51.77
-57.86
-62.42
-64.09
-61.76
-55.08
-44.62
-31.74
-18.23
-5.67
4.86
12.92
18.55
22.06
23.84
24.28
23.86
23.06
22.32
21.98
22.19
22.95
24.19
25.83
27.76
29.86
31.97
33.83
35.23
35.99
36
35.2
33.58
31.13
27.89
24.02
19.8
15.58
11.64
8.11
4.89
1.68
-1.88
-6.07
-10.93
-16.23
-21.5
-26.27
-30.21
-33.34
-36.03
-38.89
-42.62
-47.78
-54.57
-62.65
-71.02
-78.13
-82.2
-81.68
-75.84
-65.07
-50.81
-35.18
-20.24
-7.49
2.49
9.86
15.26
19.38
22.7
25.5
27.9
30
31.96
33.95
36.09
38.35
40.55
42.39
43.62
44.17
44.21
44.07
44.05
44.25
44.48
44.45
43.88
42.74
41.26
39.75
38.44
37.37
36.36
35.17
33.67
31.87
29.88
27.78
25.54
23.05
20.26
17.23
14.19
11.41
9.05
7.04
5.1
2.92
0.25
-3.01
-6.72
-10.59
-14.28
-17.54
-20.29
-22.67
-25.01
-27.71
-31.05
-35.06
-39.48
-43.9
-47.9
-51.33
-54.31
-57.26
-60.75
-65.22
-70.94
-77.79
-85.16
-91.88
-96.41
-97.13
-92.87
-83.37
-69.51
-53.08
-36.37
-21.35
-9.25
-0.29
6.05
10.65
14.37
17.73
21.01
24.31
27.63
30.92
34.03
36.74
38.85
40.27
41.15
41.76
42.38
43.15
43.95
44.49
44.47
43.68
42.1
39.86
37.22
34.44
31.8
29.52
27.75
26.44
25.4
24.32
22.93
21.07
18.83
16.5
14.43
12.87
11.75
10.79
9.53
7.58
4.76
1.18
-2.82
-6.83
-10.51
-13.77
-16.72
-19.62
-22.72
-26.1
-29.62
-33.05
-36.15
-38.9
-41.51
-44.35
-47.77
-52.01
-56.95
-62.18
-66.96
-70.3
-71.18
-68.74
-62.57
-52.92
-40.75
-27.51
-14.78
-3.84
4.67
10.72
14.77
17.42
19.14
20.18
20.65
20.69
20.5
20.48
20.99
22.29
24.41
27.11
30.03
32.76
34.97
36.42
37.02
36.79
35.87
34.42
32.59
30.49
28.11
25.41
22.4
19.17
15.89
12.77
9.97
7.47
5.2
2.89
0.34
-2.64
-6.09
-9.93
-13.98
-18.07
-22.04
-25.75
-29.16
-32.3
-35.26
-38.33
-41.91
-46.41
-52.01
-58.43
-64.8
-69.81
-72.01
-70.27
-64.17
-54.17
-41.5
-27.84
-14.86
-3.77
4.89
11.26
15.91
19.44
22.28
24.55
26.21
27.21
27.75
28.11
28.66
29.56
30.82
32.29
33.87
35.51
37.25
39.09
40.8
42.02
42.34
41.51
39.58
36.91
34.06
31.52
29.59
28.31
27.47
26.78
25.99
24.97
23.67
22.09
20.21
18.01
15.48
12.6
9.41
6.01
2.54
-0.88
-4.08
-6.96
-9.53
-11.91
-14.26
-16.8
-19.74
-23.16
-27.06
-31.27
-35.58
-39.73
-43.55
-47.05
-50.47
-54.18
-58.71
-64.42
-71.38
-79.09
-86.52
-92.14
-94.33
-91.78
-84.03
-71.64
-56.15
-39.63
-24.11
-11.03
-1.01
6.15
11.11
14.69
17.56
20.15
22.67
25.23
27.85
30.56
33.32
36.1
38.77
41.22
43.4
45.32
47.06
48.72
50.32
51.74
52.75
53
52.23
50.34
47.5
44.08
40.51
37.17
34.21
31.56
29.06
26.59
24.15
21.83
19.74
17.85
15.99
13.91
11.46
8.62
5.59
2.61
-0.16
-2.77
-5.48
-8.56
-12.23
-16.43
-20.88
-25.19
-29.04
-32.39
-35.48
-38.79
-42.76
-47.75
-53.83
-60.74
-67.87
-74.26
-78.67
-79.8
-76.6
-68.74
-56.78
-42.19
-26.94
-12.89
-1.29
7.43
13.52
17.58
20.26
22.01
23.16
23.94
24.55
25.17
25.94
26.97
28.31
29.98
31.95
34.14
36.37
38.44
40.2
41.55
42.42
42.75
42.41
41.25
39.11
36.03
32.2
28.01
23.83
19.96
16.54
13.46
10.52
7.45
4.1
0.43
-3.46
-7.32
-10.89
-13.96
-16.49
-18.59
-20.54
-22.75
-25.66
-29.6
-34.63
-40.36
-45.96
-50.21
-51.86
-49.99
-44.32
-35.41
-24.39
-12.72
-1.76
7.49
14.52
19.24
21.83
22.61
21.92
20.16
17.77
15.23
13.06
11.76
11.65
12.83
15.05
17.84
20.65
23.06
24.87
26.1
26.85
27.12
26.83
25.76
23.81
21.04
17.69
14.12
10.66
7.5
4.6
1.78
-1.22
-4.55
-8.23
-12.08
-15.85
-19.34
-22.52
-25.57
-28.9
-32.94
-37.99
-44.07
-50.77
-57.26
-62.38
-64.86
-63.67
-58.33
-49.17
-37.3
-24.32
-11.84
-1.02
7.54
13.9
18.45
21.68
24
25.67
26.86
27.68
28.2
28.53
28.84
29.34
30.22
31.64
33.55
35.74
37.91
39.73
41.03
41.76
41.96
41.64
40.76
39.26
37.1
34.4
31.41
28.47
25.86
23.72
22.06
20.71
19.43
18.03
16.42
14.65
12.87
11.22
9.74
8.3
6.69
4.62
1.94
-1.27
-4.73
-8.08
-10.97
-13.33
-15.34
-17.37
-19.83
-22.99
-26.82
-31.07
-35.3
-39.09
-42.2
-44.63
-46.71
-49.03
-52.27
-57.04
-63.62
-71.73
-80.47
-88.34
-93.57
-94.59
-90.44
-81.16
-67.79
-52.1
-36.13
-21.68
-9.89
-1.11
5.06
9.47
13.02
16.43
19.96
23.54
26.91
29.84
32.33
34.58
36.89
39.46
42.27
45.1
47.66
49.71
51.18
52.09
52.5
52.43
51.83
50.62
48.77
46.35
43.54
40.57
37.69
35.08
32.87
31
29.36
27.73
25.92
23.85
21.58
19.29
17.23
15.54
14.14
12.71
10.85
8.26
4.87
0.97
-3.02
-6.68
-9.84
-12.61
-15.3
-18.21
-21.51
-25.11
-28.74
-32.09
-34.97
-37.37
-39.42
-41.34
-43.42
-46.03
-49.53
-54.29
-60.35
-67.28
-74.01
-78.99
-80.57
-77.58
-69.76
-57.92
-43.69
-28.99
-15.52
-4.38
4.01
9.77
13.33
15.24
16.05
16.27
16.37
16.78
17.89
19.95
23
26.84
31.05
35.11
38.59
41.27
43.17
44.46
45.26
45.58
45.25
44.07
41.98
39.1
35.71
32.17
28.81
25.8
23.11
20.64
18.15
15.48
12.63
9.75
7.11
4.95
3.34
2.05
0.64
-1.4
-4.48
-8.69
-13.75
-19.13
-24.22
-28.61
-32.17
-35.12
-37.99
-41.44
-46.04
-52.16
-59.65
-67.77
-75.22
-80.31
-81.44
-77.54
-68.5
-55.27
-39.62
-23.62
-9.12
2.7
11.47
17.51
21.52
24.28
26.4
28.17
29.66
30.87
31.86
32.86
34.15
35.93
38.23
40.83
43.45
45.86
48.06
50.16
52.28
54.32
55.9
56.5
55.71
53.43
49.97
45.91
41.89
38.34
35.42
32.95
30.63
28.19
25.49
22.59
19.63
16.81
14.23
11.9
9.73
7.57
5.29
2.79
0.07
-2.85
-5.93
-9.13
-12.42
-15.78
-19.17
-22.63
-26.21
-30.03
-34.17
-38.63
-43.3
-47.98
-52.44
-56.58
-60.56
-64.81
-69.91
-76.27
-83.88
-92.04
-99.32
-103.91
-104.06
-98.65
-87.6
-72.01
-53.8
-35.24
-18.33
-4.32
6.39
14.07
19.41
23.18
26.07
28.6
31.18
34.04
37.25
40.69
44.07
47.06
49.46
51.23
52.58
53.78
54.99
56.19
57.25
57.96
58.18
57.85
56.94
55.43
53.28
50.54
47.41
44.27
41.5
39.29
37.55
35.9
33.93
31.37
28.32
25.06
22.04
19.49
17.45
15.67
13.82
11.53
8.63
5.07
1.01
-3.21
-7.28
-10.91
-14.08
-17.04
-20.19
-23.94
-28.49
-33.69
-39.13
-44.24
-48.6
-52.07
-54.89
-57.64
-61.05
-65.75
-72.05
-79.62
-87.53
-94.21
-97.81
-96.62
-89.64
-77
-60.06
-41.07
-22.54
-6.61
5.58
13.89
18.97
21.79
23.28
24.11
24.72
25.43
26.49
28.1
30.32
33.03
35.97
38.86
41.54
43.96
46.17
48.27
50.24
51.96
53.17
53.59
52.95
51.17
48.35
44.79
40.89
37.06
33.55
30.53
27.97
25.72
23.63
21.53
19.32
16.92
14.27
11.38
8.3
5.16
2.1
-0.84
-3.72
-6.73
-10.09
-13.86
-17.93
-22.03
-25.85
-29.25
-32.31
-35.37
-38.91
-43.41
-49.19
-56.23
-64.08
-71.78
-77.97
-81.12
-79.92
-73.66
-62.55
-47.72
-31.03
-14.57
-0.13
11.14
18.95
23.69
26.08
26.93
26.85
26.27
25.51
24.91
24.81
25.47
26.99
29.18
31.76
34.41
36.97
39.39
41.69
43.78
45.48
46.54
46.74
46.03
44.49
42.3
39.61
36.55
33.19
29.68
26.19
22.94
20.11
17.72
15.64
13.66
11.54
9.14
6.47
3.69
1.01
-1.36
-3.37
-5.13
-6.92
-9.13
-12.11
-16.1
-21.12
-26.99
-33.26
-39.43
-45.02
-49.77
-53.83
-57.68
-62.09
-67.76
-75.02
-83.49
-92
-98.77
-101.84
-99.66
-91.57
-78.04
-60.62
-41.56
-23.16
-7.33
4.88
13.33
18.61
21.77
23.9
25.85
28.12
30.79
33.74
36.73
39.6
42.27
44.77
47.21
49.68
52.27
54.91
57.47
59.75
61.47
62.36
62.23
60.94
58.5
55.08
50.97
46.54
42.16
38.09
34.51
31.45
28.87
26.72
24.92
23.35
21.92
20.5
19
17.43
15.83
14.27
12.76
11.28
9.71
7.95
5.9
3.48
0.69
-2.38
-5.59
-8.76
-11.84
-14.87
-18.03
-21.55
-25.58
-30.17
-35.18
-40.36
-45.39
-49.97
-53.92
-57.33
-60.59
-64.38
-69.43
-76.15
-84.27
-92.68
-99.51
-102.66
-100.5
-92.36
-78.87
-61.71
-43.13
-25.36
-10.02
2.03
10.72
16.46
19.92
21.83
22.9
23.76
24.86
26.47
28.63
31.19
33.92
36.66
39.35
42.01
44.69
47.36
49.93
52.17
53.84
54.67
54.49
53.22
50.92
47.79
44.11
40.27
36.62
33.45
30.93
29.01
27.48
25.98
24.15
21.76
18.81
15.47
12.07
8.9
6.14
3.77
1.62
-0.64
-3.29
-6.53
-10.39
-14.66
-19.01
-23.13
-26.86
-30.29
-33.69
-37.42
-41.77
-46.87
-52.7
-59.04
-65.35
-70.78
-74.18
-74.25
-70.07
-61.42
-49.01
-34.36
-19.3
-5.52
5.93
14.72
20.98
25.12
27.49
28.42
28.25
27.44
26.54
26.16
26.73
28.43
31.14
34.47
37.92
41.09
43.7
45.67
47.04
47.84
48.04
47.47
45.97
43.46
40.04
35.97
31.61
27.27
23.18
19.53
16.44
13.95
12.05
10.58
9.28
7.82
5.92
3.42
0.38
-2.99
-6.37
-9.52
-12.36
-15.09
-18.08
-21.69
-26.06
-31
-36
-40.52
-44.23
-47.17
-49.85
-52.95
-57.14
-62.78
-69.75
-77.3
-84.1
-88.43
-88.64
-83.63
-73.34
-58.83
-42.05
-25.25
-10.34
1.55
10.15
15.91
19.6
22.04
23.9
25.62
27.46
29.5
31.68
33.89
35.96
37.83
39.55
41.29
43.2
45.36
47.64
49.8
51.53
52.58
52.77
51.98
50.22
47.59
44.29
40.7
37.18
34.09
31.56
29.58
27.97
26.51
25.02
23.45
21.78
20.05
18.26
16.4
14.46
12.49
10.59
8.94
7.65
6.76
6.16
5.61
4.78
3.39
1.3
-1.47
-4.76
-8.3
-11.87
-15.3
-18.56
-21.73
-25.05
-28.81
-33.27
-38.45
-44.12
-49.85
-55.16
-59.84
-64.04
-68.28
-73.22
-79.26
-86.24
-93.23
-98.72
-101.03
-98.79
-91.33
-79.01
-63.07
-45.39
-28.02
-12.66
-0.41
8.48
14.4
18.15
20.62
22.53
24.29
26.08
27.96
29.98
32.15
34.44
36.71
38.78
40.49
41.78
42.8
43.75
44.77
45.85
46.74
47.05
46.45
44.81
42.25
39.14
35.93
32.98
30.47
28.4
26.66
25.09
23.6
22.16
20.74
19.27
17.61
15.6
13.12
10.25
7.24
4.42
2.08
0.24
-1.41
-3.35
-6.14
-10.04
-14.92
-20.31
-25.6
-30.33
-34.37
-37.9
-41.29
-44.94
-49.24
-54.44
-60.56
-67.27
-73.68
-78.43
-79.9
-76.78
-68.56
-55.85
-40.27
-24
-9.03
3.29
12.52
18.94
23.19
25.83
27.21
27.54
26.95
25.7
24.18
22.82
21.97
21.81
22.41
23.71
25.65
28.1
30.85
33.59
35.93
37.53
38.13
37.68
36.31
34.3
31.95
29.54
27.16
24.77
22.14
19.03
15.32
11.06
6.56
2.23
-1.55
-4.63
-7.2
-9.61
-12.26
-15.38
-18.98
-22.84
-26.67
-30.24
-33.48
-36.56
-39.82
-43.74
-48.82
-55.34
-63.19
-71.6
-79.17
-84.14
-84.85
-80.29
-70.53
-56.73
-40.83
-24.93
-10.78
0.64
9.13
15.09
19.21
22.16
24.4
26.23
27.79
29.14
30.35
31.51
32.69
33.95
35.3
36.75
38.32
40.04
41.96
44.05
46.21
48.19
49.72
50.47
50.26
49.09
47.12
44.64
41.9
39.05
36.16
33.19
30.2
27.29
24.62
22.31
20.42
18.95
17.81
16.88
15.96
14.87
13.42
11.56
9.38
7.17
5.18
3.47
1.86
-0.08
-2.73
-6.29
-10.5
-14.91
-18.98
-22.41
-25.28
-27.92
-30.79
-34.19
-38.16
-42.45
-46.68
-50.57
-54.04
-57.33
-60.87
-65.2
-70.71
-77.56
-85.44
-93.57
-100.74
-105.4
-106.06
-101.62
-91.78
-77.25
-59.66
-41.16
-23.82
-9.13
2.27
10.53
16.36
20.59
23.98
27.1
30.28
33.68
37.31
41.05
44.7
47.98
50.66
52.63
53.95
54.84
55.6
56.45
57.43
58.38
58.97
58.85
57.81
55.82
53.1
49.94
46.69
43.59
40.77
38.24
35.95
33.76
31.62
29.44
27.19
24.86
22.5
20.16
17.93
15.91
14.08
12.35
10.56
8.57
6.31
3.82
1.2
-1.54
-4.45
-7.68
-11.34
-15.42
-19.79
-24.24
-28.54
-32.54
-36.23
-39.68
-43
-46.36
-49.97
-54.09
-59.05
-65.11
-72.13
-79.44
-85.72
-89.25
-88.47
-82.5
-71.59
-57.05
-40.87
-25.08
-11.19
0.01
8.43
14.35
18.18
20.28
20.97
20.63
19.73
18.83
18.42
18.86
20.24
22.42
25.17
28.23
31.47
34.83
38.2
41.35
43.95
45.64
46.15
45.35
43.34
40.32
36.61
32.62
28.72
25.24
22.26
19.7
17.28
14.79
12.11
9.37
6.81
4.59
2.7
0.78
-1.56
-4.75
-8.9
-13.84
-19.14
-24.32
-29.03
-33.17
-36.98
-40.92
-45.56
-51.33
-58.37
-66.22
-73.8
-79.57
-81.81
-79.26
-71.54
-59.36
-44.33
-28.44
-13.51
-0.68
9.59
17.49
23.46
27.94
31.25
33.61
35.2
36.23
36.93
37.49
38.07
38.76
39.65
40.85
42.44
44.42
46.68
49.02
51.12
52.7
53.55
53.55
52.66
50.9
48.35
45.16
41.64
38.12
34.95
32.3
30.13
28.2
26.22
23.98
21.43
18.73
16.11
13.85
12.1
10.85
9.97
9.19
8.22
6.82
4.86
2.36
-0.59
-3.83
-7.23
-10.72
-14.3
-18.02
-21.96
-26.22
-30.87
-35.9
-41.12
-46.24
-50.92
-54.94
-58.41
-61.76
-65.68
-70.84
-77.57
-85.58
-93.87
-100.8
-104.47
-103.27
-96.31
-83.84
-67.29
-48.82
-30.77
-14.99
-2.42
6.93
13.68
18.65
22.57
25.92
28.96
31.88
34.78
37.71
40.58
43.21
45.4
47.07
48.35
49.52
50.92
52.71
54.83
56.92
58.48
59.04
58.38
56.52
53.77
50.59
47.43
44.67
42.55
41.1
40.25
39.73
39.23
38.4
36.99
34.86
32.04
28.69
25.02
21.23
17.46
13.8
10.32
7.13
4.27
1.75
-0.44
-2.39
-4.21
-5.98
-7.72
-9.41
-11.06
-12.73
-14.65
-17.13
-20.48
-24.81
-29.93
-35.37
-40.54
-44.91
-48.34
-51.09
-53.78
-57.16
-61.86
-68.04
-75.23
-82.37
-87.93
-90.28
-88.11
-80.87
-68.98
-53.76
-37.12
-21.01
-6.92
4.31
12.59
18.27
21.87
23.86
24.59
24.35
23.53
22.63
22.23
22.83
24.72
27.8
31.66
35.7
39.41
42.46
44.74
46.28
47.08
47.09
46.21
44.44
41.96
39.05
36.05
33.13
30.33
27.56
24.79
22.09
19.59
17.39
15.41
13.49
11.36
8.89
6.13
3.21
0.34
-2.4
-4.97
-7.49
-10.07
-12.8
-15.75
-18.91
-22.25
-25.68
-29.09
-32.38
-35.57
-38.75
-42.19
-46.2
-51.1
-57.01
-63.72
-70.57
-76.41
-79.8
-79.34
-74.09
-64.03
-50.07
-33.99
-17.89
-3.64
7.64
15.68
20.96
24.3
26.43
27.82
28.61
28.84
28.65
28.35
28.4
29.08
30.44
32.25
34.17
35.97
37.65
39.33
41.13
42.93
44.44
45.27
45.16
44.07
42.25
40.09
37.95
36.07
34.48
33.08
31.73
30.27
28.62
26.8
24.92
23.08
21.34
19.68
18.01
16.21
14.21
12.02
9.77
7.6
5.55
3.55
1.37
-1.21
-4.31
-7.85
-11.58
-15.23
-18.65
-21.87
-25.1
-28.61
-32.55
-36.93
-41.57
-46.23
-50.68
-54.84
-58.74
-62.58
-66.62
-71.19
-76.55
-82.8
-89.69
-96.51
-102.07
-104.83
-103.29
-96.52
-84.54
-68.46
-50.21
-32
-15.67
-2.26
8.04
15.64
21.23
25.37
28.5
30.83
32.6
34
35.24
36.51
37.89
39.36
40.81
42.18
43.42
44.63
45.93
47.42
49.03
50.52
51.52
51.71
50.91
49.1
46.49
43.31
39.82
36.23
32.8
29.76
27.27
25.42
24.09
23.06
22.06
20.88
19.51
18.01
16.55
15.17
13.84
12.38
10.6
8.34
5.58
2.42
-0.96
-4.38
-7.74
-11
-14.19
-17.36
-20.57
-23.85
-27.24
-30.73
-34.3
-37.82
-41.16
-44.26
-47.21
-50.27
-53.88
-58.45
-64.17
-70.8
-77.47
-82.85
-85.31
-83.43
-76.51
-64.81
-49.61
-32.82
-16.42
-1.97
9.67
18.24
23.98
27.29
28.64
28.53
27.55
26.24
25.12
24.49
24.5
25.19
26.57
28.63
31.3
34.33
37.39
40.11
42.25
43.73
44.57
44.75
44.21
42.79
40.45
37.36
33.92
30.63
27.88
25.75
24
22.26
20.21
17.79
15.19
12.73
10.62
8.9
7.35
5.66
3.54
0.82
-2.55
-6.55
-11.12
-16.17
-21.5
-26.83
-31.83
-36.27
-40.15
-43.7
-47.42
-51.88
-57.54
-64.53
-72.42
-80.17
-86.21
-88.81
-86.54
-78.82
-66.14
-50.03
-32.58
-15.94
-1.66
9.47
17.47
22.83
26.21
28.22
29.31
29.84
30.13
30.48
31.15
32.27
33.89
35.89
38.21
40.8
43.67
46.75
49.89
52.78
55.06
56.33
56.34
55.03
52.58
49.31
45.7
42.22
39.18
36.7
34.71
32.94
31.16
29.16
26.89
24.4
21.83
19.32
16.94
14.72
12.66
10.71
8.8
6.89
4.92
2.8
0.49
-2.1
-4.98
-8.05
-11.11
-13.95
-16.4
-18.54
-20.67
-23.26
-26.68
-31.07
-36.14
-41.39
-46.25
-50.37
-53.76
-56.74
-59.93
-63.97
-69.38
-76.34
-84.46
-92.7
-99.42
-102.76
-101.1
-93.65
-80.76
-63.87
-45.11
-26.76
-10.6
2.4
12.1
18.97
23.71
27.01
29.35
31.04
32.32
33.44
34.63
36.03
37.69
39.5
41.36
43.24
45.23
47.45
49.89
52.37
54.51
55.94
56.43
55.98
54.73
52.87
50.47
47.52
44.04
40.2
36.3
32.73
29.7
27.18
24.94
22.75
20.42
18.01
15.7
13.65
11.89
10.3
8.66
6.69
4.26
1.41
-1.68
-4.73
-7.45
-9.77
-11.81
-13.9
-16.37
-19.41
-23.01
-26.94
-30.95
-34.83
-38.49
-41.97
-45.44
-49.2
-53.66
-59.22
-65.97
-73.45
-80.49
-85.46
-86.68
-83.02
-74.28
-61.31
-45.69
-29.29
-13.73
-0.24
10.44
18.01
22.54
24.38
24.16
22.67
20.73
19
17.89
17.71
18.54
20.43
23.23
26.64
30.24
33.59
36.42
38.69
40.49
41.84
42.64
42.6
41.42
39.01
35.58
31.58
27.53
23.81
20.52
17.56
14.64
11.53
8.12
4.5
0.9
-2.47
-5.52
-8.36
-11.24
-14.4
-17.92
-21.71
-25.58
-29.38
-33.15
-37.06
-41.41
-46.52
-52.63
-59.8
-67.75
-75.72
-82.34
-85.9
-84.76
-78.02
-65.93
-49.92
-32.21
-15.07
-0.26
11.34
19.64
25.07
28.2
29.61
29.81
29.3
28.58
28.08
28.09
28.74
30.05
31.95
34.39
37.3
40.51
43.8
46.85
49.32
50.93
51.52
51.03
49.52
47.11
43.99
40.4
36.61
32.85
29.29
25.95
22.7
19.29
15.59
11.6
7.55
3.8
0.71
-1.64
-3.5
-5.39
-7.92
-11.45
-16
-21.29
-26.85
-32.32
-37.49
-42.35
-47.04
-51.82
-57.09
-63.28
-70.61
-78.83
-86.95
-93.26
-95.75
-92.79
-83.8
-69.46
-51.69
-32.9
-15.35
-0.56
10.91
19.26
25.13
29.21
32.08
34.21
35.98
37.73
39.69
41.95
44.4
46.78
48.86
50.53
51.89
53.17
54.6
56.22
57.87
59.21
59.82
59.41
57.88
55.38
52.2
48.68
45.07
41.49
37.99
34.64
31.63
29.17
27.29
25.87
24.5
22.72
20.32
17.47
14.63
12.35
10.89
10.09
9.43
8.28
6.25
3.31
-0.23
-3.91
-7.34
-10.36
-13.07
-15.74
-18.71
-22.24
-26.42
-31.15
-36.17
-41.12
-45.74
-49.89
-53.64
-57.24
-61.04
-65.47
-70.84
-77.24
-84.34
-91.22
-96.46
-98.36
-95.43
-86.94
-73.35
-56.13
-37.5
-19.64
-4.24
7.89
16.68
22.55
26.07
27.75
28.08
27.52
26.62
25.95
25.97
26.96
28.93
31.63
34.72
37.87
40.86
43.62
46.14
48.38
50.15
51.16
51.1
49.79
47.27
43.86
39.97
36
32.24
28.76
25.5
22.29
18.96
15.45
11.83
8.32
5.17
2.51
0.26
-1.88
-4.37
-7.55
-11.44
-15.77
-20.12
-24.1
-27.69
-31.15
-34.93
-39.53
-45.25
-52.15
-59.93
-67.86
-74.71
-78.89
-78.86
-73.57
-63.01
-48.29
-31.32
-14.29
1.02
13.58
23.14
29.94
34.44
37.07
38.26
38.47
38.15
37.78
37.68
38.02
38.81
39.95
41.25
42.6
43.9
45.08
46.1
46.91
47.43
47.56
47.14
45.98
43.94
40.95
37.13
32.81
28.45
24.51
21.29
18.79
16.78
14.91
12.9
10.62
8.14
5.57
2.97
0.28
-2.57
-5.62
-8.83
-12.08
-15.3
-18.52
-21.91
-25.63
-29.82
-34.38
-39.11
-43.71
-47.91
-51.58
-54.78
-57.74
-60.94
-64.96
-70.34
-77.3
-85.4
-93.43
-99.51
-101.68
-98.47
-89.49
-75.58
-58.56
-40.6
-23.61
-8.88
3.03
12.12
18.67
23.12
25.98
27.85
29.41
31.21
33.56
36.43
39.48
42.29
44.55
