-23.88
-27.64
-31.64
-36.26
-41.65
-47.57
-53.38
-58.1
-60.56
-59.68
-54.67
-45.37
-32.28
-16.59
0.06
15.99
29.75
40.46
47.83
52.07
53.65
53.16
51.21
48.33
45.08
41.96
39.38
37.52
36.4
35.85
35.75
36.07
36.8
37.86
38.94
39.57
39.24
37.64
34.75
30.79
26.13
21.09
15.85
10.55
5.21
-0.18
-5.7
-11.47
-17.61
-24.12
-30.76
-37.19
-43.01
-48.08
-52.61
-57.16
-62.38
-68.67
-75.82
-82.91
-88.41
-90.61
-88.1
-80.26
-67.5
-51.12
-32.99
-15.06
1.03
14.24
24.17
30.96
35.14
37.41
38.44
38.82
38.96
39.15
39.62
40.53
41.98
43.95
46.31
48.84
51.29
53.43
55.18
56.47
57.29
57.61
57.35
56.39
54.6
51.94
48.39
44.07
39.15
33.88
28.51
23.23
18.08
12.89
7.37
1.25
-5.58
-12.92
-20.32
-27.3
-33.55
-39.19
-44.64
-50.56
-57.55
-65.88
-75.41
-85.5
-95.07
-102.8
-107.37
-107.73
-103.51
-95.14
-83.8
-71.16
-58.88
-48.25
-39.92
-33.85
-29.53
-26.25
-23.24
-19.93
-15.87
-10.85
-4.79
2.32
10.38
19.25
28.7
38.42
48
56.9
64.58
70.52
74.39
76.07
75.67
73.4
69.56
64.39
58.08
50.86
43.07
35.12
27.5
20.59
14.58
9.42
4.86
0.62
-3.57
-7.9
-12.51
-17.45
-22.63
-27.71
-32.03
-34.72
-34.92
-32.09
-26.22
-17.92
-8.1
2.18
12.07
20.92
28.3
33.83
37.15
37.97
36.22
32.17
26.44
19.8
13.05
6.84
1.66
-2.14
-4.36
-4.93
-4
-1.99
0.49
2.8
4.4
4.99
4.44
2.8
0.14
-3.39
-7.51
-11.88
-16.08
-19.83
-23.07
-26
-28.99
-32.43
-36.56
-41.31
-46.26
-50.63
-53.4
-53.55
-50.26
-43.32
-33.18
-20.91
-7.96
4.26
14.71
22.83
28.44
31.57
32.31
30.8
27.32
22.38
16.73
11.21
6.46
2.84
0.34
-1.28
-2.32
-3.04
-3.6
-4.13
-4.81
-5.92
-7.82
-10.84
-15.17
-20.71
-27.08
-33.7
-40.02
-45.77
-51.04
-56.3
-62.21
-69.26
-77.46
-86.13
-93.96
-99.29
-100.59
-96.92
-88.1
-74.82
-58.36
-40.4
-22.62
-6.54
6.79
16.86
23.75
27.89
29.92
30.38
29.68
28.14
26.17
24.27
22.92
22.33
22.24
22
20.78
18
13.51
7.63
0.89
-6.28
-13.7
-21.4
-29.49
-37.85
-46.22
-54.22
-61.52
-67.92
-73.39
-78.01
-81.98
-85.5
-88.75
-91.82
-94.66
-97.02
-98.4
-97.98
-94.63
-87.04
-73.9
-54.24
-27.8
4.8
42.04
81.8
121.87
160.28
195.4
225.72
249.63
265.47
271.89
268.55
256.47
238.1
216.74
195.65
177.08
161.81
149.38
138.74
129.07
120.19
112.51
106.48
102.07
98.51
94.64
89.46
82.61
74.42
65.63
56.83
48.21
39.56
30.65
21.5
12.58
4.63
-1.67
-5.86
-7.79
-7.47
-5.07
-0.77
5.12
12.15
19.77
27.25
33.85
38.69
40.96
40.1
36.14
29.95
23.19
17.8
15.29
16.04
19.06
22.26
23.14
19.74
11.29
-1.49
-16.64
-31.62
-44.09
-52.63
-57.04
-58.15
-57.2
-55.06
-51.88
-47.19
-40.5
-31.95
-22.54
-13.8
-7.21
-3.72
-3.79
-7.7
-15.66
-27.62
-42.76
-59.18
-74.17
-85.05
-90.22
-89.79
-85.38
-79.27
-73.29
-68.16
-63.41
-57.86
-50.32
-40.17
-27.62
-13.59
0.61
13.57
24.23
32.03
36.99
39.47
40
39.13
37.46
35.69
34.62
35.03
37.36
41.42
46.28
50.64
53.22
53.29
50.92
46.75
41.6
36.04
30.22
24.06
17.54
10.97
4.93
0.03
-3.35
-5.28
-6.16
-6.56
-6.95
-7.56
-8.39
-9.3
-10.17
-10.95
-11.65
-12.31
-12.93
-13.49
-13.9
-14.11
-14.17
-14.24
-14.54
-15.25
-16.42
-17.99
-19.77
-21.61
-23.45
-25.33
-27.36
-29.66
-32.27
-35.19
-38.31
-41.35
-43.91
-45.42
-45.3
-43.06
-38.56
-32.08
-24.23
-15.85
-7.77
-0.67
4.99
8.96
11.27
12.19
12.33
12.55
13.83
16.9
22.04
28.81
36.13
42.51
46.37
46.54
42.45
34.34
23.26
10.78
-1.39
-11.83
-19.8
-25.28
-28.8
-31.05
-32.56
-33.54
-33.85
-33.31
-31.88
-29.8
-27.53
-25.63
-24.57
-24.55
-25.47
-27.03
-28.87
-30.75
-32.66
-34.73
-37.09
-39.66
-42.1
-43.84
-44.31
-43.08
-39.99
-35.15
-28.85
-21.64
-14.29
-7.74
-2.91
-0.45
-0.43
-2.25
-4.8
-6.92
-7.78
-7.19
-5.4
-2.96
-0.3
2.38
5.04
7.64
9.96
11.64
12.41
12.31
11.72
11.27
11.51
12.64
14.55
16.93
19.52
22.24
25.01
27.64
29.7
30.57
29.74
27.12
23.09
18.31
13.38
8.48
3.32
-2.61
-9.79
-18.44
-28.4
-39.34
-50.79
-62.19
-72.79
-81.7
-87.99
-90.92
-90.32
-86.64
-80.89
-74.33
-68.06
-62.75
-58.57
-55.22
-52.28
-49.42
-46.49
-43.62
-41.09
-39.09
-37.71
-36.81
-36.15
-35.47
-34.61
-33.52
-32.17
-30.53
-28.49
-25.9
-22.64
-18.56
-13.63
-7.89
-1.52
5.17
11.77
18.08
24.01
29.55
34.75
39.56
43.87
47.58
50.78
53.63
56.14
57.74
57.01
52.24
42.09
26.43
6.54
-15.34
-36.78
-55.75
-71.12
-82.53
-89.76
-92.56
-90.92
-85.59
-78.49
-72.11
-67.92
-65.91
-64.51
-60.71
-51.37
-34.66
-10.81
17.53
46.72
74.64
100.03
122.05
140.51
155.19
165.74
171.89
173.17
170
165.48
162.44
161.84
163.34
165.36
165.71
162.37
153.09
136.7
115.53
92.2
68.01
44.03
20.8
-1.74
-17.45
-21.39
-24.61
-33.29
-45.03
-59.02
-74.53
-90.82
-107.12
-122.55
-137.19
-151.16
-162.24
-168.77
-170.76
-168.44
-162.22
-152.64
-140.42
-127.34
-115.31
-104.19
-93.62
-83.72
-74.06
-64.22
-54.38
-45.69
-40.48
-40.92
-46.77
-56.23
-66.73
-75.31
-79.84
-79.7
-75.79
-70.05
-64.41
-59.65
-55.99
-53.5
-51.99
-51.27
-51.22
-51.91
-53.69
-57.02
-61.92
-67.97
-74.33
-79.99
-84.41
-87.86
-91.37
-96.01
-101.93
-107.79
-111.04
-108.87
-99.53
-83.21
-62.01
-39
-17.05
2.04
17.8
30.87
42.64
55.21
71.24
93.44
123.53
160.97
202.47
242.54
275.28
296.46
304.97
302.94
294.57
284.35
275.44
268.99
264.29
259.52
252.63
242.08
227.12
207.82
184.72
158.55
130.1
100.41
71.11
44.57
23.48
9.86
4.1
4.45
7.6
9.95
9.04
4.54
-1.79
-7.21
-9.25
-6.76
-0.09
9.37
20.1
31.17
42.6
55.22
70.06
87.68
107.52
127.73
145.46
157.78
162.59
159.38
149.3
134.65
118.05
101.61
86.55
73.17
61
49.16
36.67
22.81
7.41
-8.94
-25.16
-40.14
-53.35
-65.14
-76.55
-88.73
-102.24
-116.79
-131.51
-145.55
-158.57
-170.74
-182.31
-193.09
-202.23
-208.58
-211.26
-210.22
-206.08
-199.67
-191.42
-181
-167.6
-150.49
-129.52
-105.23
-78.8
-51.71
-25.72
-2.87
14.75
25.34
28.25
24.39
16.22
6.94
-0.6
-4.79
-5.5
-3.62
-0.31
3.52
7.39
11.05
14.2
16.38
17.12
16.09
13.32
9.14
4.08
-1.36
-6.76
-11.88
-16.64
-21.13
-25.56
-30.09
-34.81
-39.56
-44.11
-48.31
-52.24
-56.33
-61.07
-66.82
-73.37
-79.81
-84.63
-86.08
-82.74
-74.07
-60.57
-43.59
-24.85
-5.81
12.54
29.68
45.24
58.62
68.96
75.36
77.28
74.92
69.15
61.36
53.11
45.78
40.45
37.75
37.61
39.19
40.77
40.26
35.97
27.48
16.09
4.49
-4.36
-8.53
-7.91
-4.09
0.54
4.01
5.58
5.76
5.79
6.87
9.66
14.1
19.63
25.36
30.42
34.08
35.88
35.72
33.87
30.79
27.07
23.36
20.37
18.82
19.24
21.68
25.53
29.63
32.61
33.33
31.03
25.45
16.61
4.93
-8.78
-23.25
-36.89
-48.3
-56.65
-61.92
-64.66
-65.67
-65.53
-64.56
-62.93
-60.8
-58.39
-55.85
-53.16
-50.2
-46.81
-42.97
-38.76
-34.23
-29.33
-23.98
-18.29
-12.7
-7.93
-4.75
-3.54
-3.96
-5.03
-5.49
-4.09
0.11
7.66
18.72
33.02
50.03
68.87
88.29
106.59
121.83
132.35
137.28
136.74
131.55
122.94
111.9
98.84
83.58
65.96
46.43
26.37
7.56
-8.98
-22.91
-34.43
-43.95
-51.87
-58.44
-63.71
-67.57
-70.24
-73.15
-77.24
-82.45
-87.85
-92.51
-96.12
-98.94
-101.12
-103.08
-106.51
-112.16
-119.26
-126.14
-131.41
-134.67
-135.99
-134.87
-131.15
-126.68
-122.56
-118.79
-114.84
-110.82
-107.99
-107.77
-110.59
-103.66
-81.84
-49.76
-18.1
5.71
21.19
31.94
38.12
43.63
49.42
52.73
51.47
45.9
38.08
31.35
26.3
21.9
17.24
11.24
2.07
-10.76
-26.27
-42.57
-57.91
-71.22
-81.51
-87.49
-89.12
-88.16
-86.29
-83.89
-79.68
-71.55
-58.15
-39.51
-17.03
6.54
28.14
46.14
60.63
72.72
83.2
91.78
97.45
99.53
98.04
93.87
88.61
83.81
80.48
78.84
78.43
78.48
78.26
77.08
74.42
70.12
64.48
58.2
52.26
47.55
44.67
43.78
44.63
46.64
48.97
50.62
50.48
47.59
41.3
31.59
19.19
5.63
-6.94
-16.1
-19.72
-16.66
-7.16
6.93
22.7
37.03
47.52
53.12
53.97
50.98
45.25
37.99
30.52
24.32
20.72
20.25
22.25
25.05
26.76
26.28
23.88
20.76
18.24
16.83
16.02
14.77
12.34
8.57
3.76
-1.81
-8.23
-15.57
-23.41
-30.58
-35.43
-36.66
-34.01
-28.41
-21.49
-14.67
-8.53
-2.7
3.69
11.39
20.65
31.14
42.16
52.85
62.41
70.13
75.41
77.73
76.68
71.98
63.74
52.65
39.94
27.07
15.22
4.84
-4.22
-12.18
-18.45
-21.45
-19.19
-10.6
3.55
20.7
37.73
52.46
64.43
74.36
82.75
88.83
90.65
86.28
75.47
60.14
43.57
28.79
17.09
7.94
-0
-7.53
-14.1
-18.15
-18.23
-14
-6.71
1.27
7.42
9.98
8.53
3.78
-2.84
-9.64
-15.07
-17.79
-16.78
-11.47
-1.93
11.03
25.83
40.46
52.93
61.72
66.1
66.13
62.41
55.77
47.07
36.99
26.09
14.89
3.83
-6.66
-16.31
-25.06
-33.09
-40.79
-48.55
-56.52
-64.35
-71.15
-75.66
-76.69
-73.54
-66.32
-55.97
-43.95
-31.77
-20.56
-10.83
-2.57
4.52
10.61
15.68
19.48
21.76
22.48
21.9
20.47
18.63
16.73
14.9
13.2
11.73
10.56
9.73
9.06
8.15
6.45
3.54
-0.73
-6.16
-12.32
-18.69
-24.91
-30.8
-36.37
-41.76
-47.14
-52.69
-58.48
-64.42
-70.12
-74.83
-77.51
-77.14
-72.98
-64.86
-53.21
-38.93
-23.15
-7.03
8.37
22.04
33.18
41.31
46.42
49.04
50.07
50.41
50.7
51.3
52.33
53.99
56.66
60.76
66.5
73.53
80.9
87.23
91.1
91.33
87.3
79.02
67.05
52.4
36.23
19.6
3.14
-13.02
-29.22
-45.87
-63.01
-79.98
-95.35
-107.32
-114.29
-115.51
-111.38
-103.28
-93.09
-82.56
-72.84
-64.37
-57.14
-51.09
-46.33
-43.12
-41.53
-41.25
-41.51
-41.33
-39.92
-37.01
-32.87
-28.07
-23.1
-18.15
-13.15
-8.03
-2.97
1.51
4.64
5.89
5.16
2.93
-0.02
-3
-5.76
-8.58
-12.04
-16.5
-21.75
-26.91
-30.69
-31.96
-30.23
-25.87
-19.9
-13.6
-8.05
-3.89
-1.4
-0.73
-2.04
-5.42
-10.61
-16.81
-22.68
-26.8
-28.14
-26.49
-22.31
-16.47
-9.69
-2.4
5.09
12.29
18.36
22.31
23.57
22.43
20.13
18.44
18.96
22.41
28.53
36.13
43.61
49.31
51.93
50.53
44.77
35.11
22.82
9.91
-1.36
-9.06
-12.11
-10.59
-5.52
1.51
8.94
15.67
21.17
25.42
28.74
31.46
33.91
36.27
38.61
40.77
42.4
42.99
41.99
39.19
34.83
29.74
25.01
21.66
20.1
20.06
20.73
21.14
20.66
19.07
16.46
12.9
8.19
1.94
-6.19
-16.2
-27.58
-39.47
-51
-61.58
-70.94
-78.97
-85.49
-90.12
-92.47
-92.37
-90.18
-86.78
-83.35
-80.93
-80.28
-81.63
-84.87
-89.61
-95.27
-101.14
-106.43
-110.39
-112.39
-112.05
-109.15
-103.52
-94.95
-82.97
-67.05
-46.79
-22.41
5.05
33.74
61.32
85.47
104.46
117.45
124.58
126.85
125.78
123.08
120.26
118.31
117.49
117.24
116.44
113.79
108.37
99.92
88.96
76.54
63.86
51.85
40.94
31
21.49
11.81
1.62
-9.03
-19.7
-29.81
-38.85
-46.52
-52.62
-57
-59.38
-59.55
-57.53
-53.84
-49.58
-46.14
-44.97
-47.09
-52.77
-61.36
-71.24
-80.01
-84.84
-83.14
-73.32
-55.43
-31.36
-4.48
21.38
43.1
59.16
69.76
76.24
80.07
82
81.85
78.95
72.82
63.84
53.14
42.29
32.55
24.59
18.44
13.86
10.73
9.24
9.73
12.35
16.77
22.1
27.14
30.77
32.35
31.9
30.01
27.6
25.61
24.76
25.55
28.22
32.84
39.18
46.76
54.79
62.33
68.63
73.36
76.8
79.7
82.9
86.89
91.52
96.1
99.81
102.36
104.35
107.25
112.76
121.88
134.25
147.97
160.07
167.47
167.85
160.11
144.46
121.96
94.15
62.8
29.8
-2.86
-33.21
-59.43
-80.11
-94.37
-101.96
-103.3
-99.42
-91.89
-82.7
-73.82
-66.89
-62.98
-62.57
-65.77
-72.39
-81.97
-93.91
-107.55
-122.36
-138.09
-154.59
-171.25
-186.47
-197.51
-201.22
-195.27
-179.21
-155
-126.2
-96.7
-69.48
-46
-26.49
-10.6
1.98
11.38
17.61
20.72
20.89
18.45
13.7
7.02
-1.2
-10.49
-20.32
-30.04
-38.82
-45.66
-49.51
-49.69
-46.29
-40.44
-34.01
-29.11
-27.15
-28.25
-31.07
-33.29
-32.65
-27.89
-19.39
-9.08
0.43
6.86
9.17
7.76
4.02
-0.47
-4.64
-8.17
-11.22
-14.03
-16.56
-18.54
-19.57
-19.52
-18.5
-16.82
-14.75
-12.34
-9.32
-5.33
-0.17
5.98
12.53
18.64
23.58
27.09
29.49
31.48
33.75
36.64
39.95
43.16
45.76
47.58
48.88
50.19
51.99
54.6
58.01
62.06
66.49
70.94
74.9
77.73
78.77
77.57
74.22
69.44
64.5
60.9
59.94
62.36
68.19
76.89
87.53
99.05
110.27
119.84
126.16
127.49
122.41
110.31
91.74
68.38
42.53
16.36
-8.55
-31.29
-51.29
-67.87
-80.13
-87.35
-89.57
-88.01
-84.91
-82.73
-83.02
-85.78
-89.44
-91.69
-90.56
-85.38
-76.95
-67.05
-57.56
-49.68
-43.65
-38.94
-34.76
-30.55
-26.27
-22.34
-19.43
-18.1
-18.56
-20.57
-23.44
-26.21
-27.86
-27.49
-24.57
-18.95
-11
-1.43
8.86
19.06
28.7
37.72
46.45
55.27
64.24
72.8
79.65
82.99
81.14
73.14
59.22
40.83
20.18
-0.42
-19.2
-35.25
-48.44
-59.13
-67.83
-74.94
-80.74
-85.34
-88.81
-91.15
-92.44
-92.83
-92.6
-92.07
-91.47
-90.69
-89.28
-86.53
-81.87
-75.15
-66.88
-58
-49.66
-42.7
-37.49
-33.78
-30.84
-27.71
-23.42
-17.21
-8.69
2.15
14.9
28.81
42.9
56.15
67.73
77.11
84.13
88.85
91.37
91.65
89.43
84.55
77.31
68.8
60.91
55.85
55.48
60.55
70.45
83.35
96.65
107.68
114.32
115.48
111.37
103.37
93.55
83.92
75.51
67.95
59.66
48.43
32.45
10.95
-15.45
-45
-75.31
-103.94
-128.86
-148.85
-163.67
-173.9
-180.63
-184.88
-187.18
-187.42
-185.08
-179.68
-171.22
-160.25
-147.63
-134.09
-119.93
-105.08
-89.32
-72.76
-55.99
-39.94
-25.45
-12.75
-1.33
9.72
20.96
32.13
42.08
49.39
53.26
54.12
53.48
53.22
54.59
57.61
61.31
64.3
65.58
64.84
62.25
58.04
52.2
44.6
35.26
24.59
13.41
2.54
-7.49
-16.56
-24.88
-32.77
-40.34
-47.41
-53.35
-57.24
-57.97
-54.75
-47.47
-37.01
-24.99
-13.16
-2.78
5.86
13.14
19.67
25.63
30.65
33.97
35.11
34.25
32.32
30.76
31
34
39.83
47.76
56.42
64.34
70.44
74.43
76.73
78.08
78.96
79.21
78.13
74.84
68.84
60.34
50.13
39.35
29
19.73
11.7
4.63
-2.09
-9.21
-17.26
-26.3
-35.69
-44.27
-50.74
-54.17
-54.34
-51.63
-46.72
-40.25
-32.72
-24.53
-16.19
-8.24
-1.21
4.68
9.47
13.2
15.73
16.62
15.51
12.48
8.36
4.47
2.09
1.84
3.4
5.83
8.18
9.99
11.35
12.59
13.68
13.97
12.38
8.11
1.33
-6.54
-13.24
-16.65
-15.75
-11.2
-5.17
-0.48
0.38
-3.93
-13.38
-26.73
-42.01
-56.87
-68.94
-76.02
-76.45
-69.48
-55.53
-36.26
-14.13
8.27
28.69
45.74
58.98
68.77
75.89
81.17
85.09
87.71
88.76
88.09
86.04
83.49
81.56
80.96
81.5
81.94
80.54
75.87
67.56
56.41
43.91
31.41
19.52
8.09
-3.26
-14.49
-24.98
-33.86
-40.76
-46.25
-51.84
-59.08
-68.61
-79.54
-89.72
-96.64
-98.55
-95.07
-87.15
-76.42
-64.4
-52.05
-39.78
-27.78
-16.43
-6.5
1.17
6.02
8.16
8.47
8.35
9.25
12.13
17.2
24.03
31.92
40.34
49.2
58.67
68.69
78.52
86.64
91.02
89.9
82.55
69.78
53.8
37.54
23.51
13.03
5.87
0.69
-4.31
-10.59
-19.07
-30.15
-43.69
-58.92
-73.97
-85.94
-91.59
-88.43
-75.93
-55.92
-31.89
-7.58
14.33
32.92
48.64
62.44
74.93
86.14
95.84
103.95
110.66
116.37
121.3
125.25
127.75
128.22
126.19
121.33
113.54
102.92
89.75
74.59
58.24
41.57
25.21
9.37
-6.25
-22.19
-38.9
-56.39
-74.18
-91.52
-107.75
-122.54
-135.88
-147.94
-158.83
-168.52
-176.87
-183.7
-188.78
-191.82
-192.29
-189.57
-183.08
-172.52
-158.18
-141.11
-122.95
-105.63
-90.79
-79.23
-70.65
-63.87
-57.5
-50.62
-43.13
-35.61
-28.59
-21.9
-14.48
-4.89
7.78
23.11
39.29
53.62
63.61
67.78
66.1
59.69
50.2
39.19
27.64
16.1
5.11
-4.49
-11.49
-14.92
-14.73
-12.22
-9.47
-8.3
-9.1
-10.58
-10.64
-7.74
-1.91
5.38
12.36
18.48
24.81
33.57
46.58
64.03
84.2
104.29
121.82
135.6
145.83
153.43
159.12
162.7
163.16
159.26
150.46
137.55
122.66
108.43
96.94
88.86
83.37
78.95
74.44
69.67
65.4
62.59
61.65
61.98
62.24
60.87
56.66
48.89
37.29
21.91
3.16
-18.02
-40.08
-60.97
-78.55
-91.1
-97.72
-98.65
-95.18
-89.27
-83.04
-77.96
-74.49
-72.12
-69.77
-66.42
-61.54
-54.91
-46.37
-35.45
-21.53
-4.26
15.9
37.6
59.07
78.71
95.64
109.61
120.6
128.38
132.54
132.84
129.69
124.21
117.75
111.24
104.72
97.56
88.98
78.71
67.16
55.09
43.07
31.13
18.97
6.38
-6.34
-18.34
-28.48
-35.89
-40.18
-41.63
-40.9
-38.81
-36.14
-33.57
-31.48
-29.96
-28.78
-27.48
-25.65
-23.2
-20.36
-17.62
-15.46
-13.96
-12.71
-10.86
-7.49
-1.95
5.64
14.4
22.96
30.04
34.97
37.84
39.17
39.36
38.32
35.47
30.28
22.73
13.51
3.77
-5.55
-14.15
-22.37
-30.83
-39.86
-49.17
-58.08
-65.79
-71.86
-76.25
-79.17
-80.8
-81.2
-80.31
-78.15
-74.89
-70.83
-66.35
-61.77
-57.44
-53.77
-51.33
-50.78
-52.71
-57.48
-65.07
-75.18
-87.3
-100.8
-114.97
-129.09
-142.36
-154
-163.28
-169.55
-172.32
-171.33
-166.67
-158.84
-148.72
-137.39
-125.87
-114.94
-105.15
-96.99
-90.93
-87.29
-85.94
-86.01
-86.02
-84.37
-79.95
-72.49
-62.38
-50.15
-36.1
-20.21
-2.34
17.26
37.81
58.23
77.53
95.23
111.35
126.22
140.15
153.22
165.3
176.24
185.99
194.51
201.69
207.16
210.37
210.54
207.02
199.37
187.61
172.3
154.44
135.21
115.63
96.22
77.01
57.73
38.25
18.91
0.61
-15.35
-27.71
-35.57
-38.55
-36.75
-30.72
-21.35
-10.03
1.58
11.65
18.67
21.84
21.27
17.82
12.71
7.12
1.73
-3.19
-7.76
-12.11
-16.07
-19.07
-20.2
-18.59
-13.87
-6.62
1.8
9.68
15.61
18.98
19.92
18.86
16.07
11.37
4.39
-5.01
-16.31
-28.35
-39.68
-49.11
-56.08
-60.61
-63.13
-64.19
-64.26
-63.72
-62.91
-62.1
-61.46
-61.08
-60.97
-61.22
-62.09
-64.08
-67.64
-72.95
-79.54
-86.27
-91.53
-93.72
-91.72
-85.22
-74.7
-61.18
-45.96
-30.28
-15.37
-2.32
7.91
14.68
17.84
17.95
16.1
13.69
11.98
11.76
13.17
15.9
19.36
23.07
26.73
30.32
33.93
37.67
41.56
45.52
49.5
53.51
57.72
62.49
68.15
74.97
83.08
92.32
102.4
112.81
122.8
131.35
137.19
139.04
135.86
127.2
113.34
95.23
74.24
51.98
30.04
9.87
-7.44
-21.27
-31.57
-38.77
-43.54
-46.6
-48.52
-49.87
-51.33
-53.71
-57.76
-63.68
-70.86
-77.9
-83.12
-85.13
-83.19
-77.24
-67.61
-54.82
-39.61
-23.16
-7.12
6.62
16.5
21.73
22.42
19.31
13.42
5.67
-3.18
-12.59
-22.27
-32.27
-42.97
-54.9
-68.21
-82.55
-97.25
-111.81
-126.35
-141.46
-157.42
-173.27
-186.45
-193.32
-190.49
-176.19
-150.91
-117.1
-78.28
-38.03
0.63
35.45
64.87
87.89
104.04
113.5
116.97
115.65
111.02
104.57
97.56
90.86
84.77
79.11
73.57
67.92
62.31
57.15
52.85
49.48
46.77
44.25
41.49
38.39
35.07
31.77
28.5
25.05
21.03
16.14
10.38
4.1
-2.1
-7.68
-12.4
-16.34
-19.85
-23.4
-27.38
-32.07
-37.65
-44.22
-51.77
-60.04
-68.32
-75.41
-79.86
-80.43
-76.75
-69.61
-60.89
-52.86
-47.44
-45.44
-46.39
-48.87
-51.17
-51.79
-49.88
-45.1
-37.4
-26.85
-13.63
1.8
18.68
35.92
52.38
67.1
79.45
89.16
96.11
100.24
101.52
99.97
95.8
89.41
81.43
72.59
63.62
55.17
47.65
41.15
35.46
30.1
24.55
18.47
11.84
4.93
-1.87
-8.23
-14.13
-19.82
-25.73
-32.33
-39.89
-48.37
-57.24
-65.57
-72
-75.1
-73.81
-67.83
-57.73
-44.93
-31.23
-18.28
-7.18
1.73
8.71
14.3
18.99
23.08
26.71
29.94
32.98
36.05
39.34
42.81
46.19
49.11
51.28
52.62
53.28
53.57
53.72
53.84
53.8
53.38
52.3
50.37
47.59
44.22
40.69
37.54
35.13
33.47
32.14
30.48
27.8
23.67
18.02
11.08
3.26
-4.97
-13.19
-21.03
-28.24
-34.79
-40.92
-47.07
-53.58
-60.39
-66.83
-71.63
-73.33
-70.88
-64.02
-53.49
-40.87
-27.99
-16.45
-7.21
-0.54
3.79
6.22
7.14
6.8
5.42
3.23
0.65
-1.82
-3.7
-4.67
-4.65
-3.74
-2.09
0.24
3.2
6.75
10.74
14.85
18.67
21.84
24.2
25.79
26.7
26.93
26.24
24.27
20.7
15.48
8.99
1.87
-5.14
-11.52
-17.07
-21.97
-26.69
-31.78
-37.74
-44.79
-52.74
-60.9
-68.07
-72.74
-73.51
-69.48
-60.66
-48.04
-33.28
-18.21
-4.26
7.93
18.43
27.7
36.15
43.87
50.63
56.24
60.67
64.26
67.46
70.62
73.79
76.82
79.44
81.59
83.37
84.95
86.22
86.83
86.18
83.81
79.63
73.97
67.29
59.88
51.56
41.92
30.66
18.1
5.22
-6.66
-16.39
-23.64
-28.96
-33.5
-38.46
-44.67
-52.4
-61.5
-71.66
-82.42
-93.09
-102.62
-109.58
-112.56
-110.6
-103.69
-92.8
-79.63
-66.08
-53.58
-42.91
-34.15
-26.95
-20.9
-15.69
-11.13
-7.12
-3.47
0.12
4
8.4
13.38
18.78
24.22
29.33
33.85
37.75
41.21
44.41
47.4
49.91
51.49
51.62
50.05
46.88
42.62
37.99
33.66
30.08
27.36
25.31
23.53
21.56
18.93
15.3
10.56
4.83
-1.51
-7.98
-14.14
-19.74
-24.71
-29.12
-32.95
-35.99
-37.77
-37.65
-35.11
-29.95
-22.45
-13.37
-3.81
5.15
12.67
18.47
22.72
25.93
28.61
31.02
33.12
34.7
35.64
36.05
36.38
37.13
38.61
40.71
42.99
44.85
45.81
45.78
44.96
43.66
42.09
40.26
38.03
35.33
32.19
28.84
25.56
22.45
19.49
16.48
13.33
10.12
7.23
5.11
4.09
4.12
4.72
5.1
4.47
2.32
-1.35
-6.1
-11.15
-15.84
-19.89
-23.63
-27.82
-33.29
-40.53
-49.29
-58.61
-66.94
-72.71
-74.64
-72.16
-65.58
-55.93
-44.85
-34.21
-25.77
-20.76
-19.76
-22.46
-27.88
-34.63
-41.24
-46.5
-49.8
-51.17
-51.17
-50.44
-49.32
-47.66
-45.11
-41.67
-38.25
-36.51
-38.22
-44.33
-54.3
-66.2
-77.48
-86.12
-91.19
-92.99
-92.4
-90.28
-86.95
-82.17
-75.41
-66.25
-54.64
-41.05
-26.43
-11.86
1.84
14.38
25.92
36.6
45.84
52.23
54.03
50.13
40.98
28.59
15.64
4.35
-4.55
-11.56
-17.56
-22.58
-25.34
-23.79
-16.32
-2.96
14.32
32.35
48.06
59.67
67.16
71.76
75
77.85
80.38
82.06
82.44
81.61
80.34
79.64
80.23
82.1
84.56
86.52
86.99
85.38
81.66
76.15
69.32
61.59
53.23
44.4
35.19
25.63
15.63
5.06
-6.1
-17.54
-28.53
-38.15
-45.65
-50.93
-54.53
-57.44
-60.54
-64.12
-67.88
-71.18
-73.57
-75.05
-76.06
-77.17
-78.7
-80.68
-82.85
-84.94
-86.73
-88.02
-88.43
-87.38
-84.11
-78
-68.85
-57.2
-44.26
-31.72
-21.31
-14.26
-11.08
-11.38
-14.15
-18.11
-22.02
-24.98
-26.43
-26.08
-23.74
-19.38
-13.19
-5.66
2.45
10.39
17.63
24.01
29.66
34.73
39.11
42.44
44.33
44.63
43.74
42.54
42.3
44.3
49.57
58.45
70.27
83.16
94.33
100.88
100.9
94.4
83.39
71.05
60.46
53.38
49.9
48.81
48.56
47.95
46.36
43.5
39
32.42
23.72
13.85
5
0.21
2.02
11.05
25.16
40.05
51.03
55.15
52.35
45.12
36.98
30.57
26.75
24.83
23.71
22.8
22.28
22.54
23.55
24.55
24.43
22.41
18.46
13.27
7.87
3.11
-0.54
-3.09
-4.9
-6.59
-8.71
-11.54
-14.91
-18.21
-20.69
-21.8
-21.5
-20.23
-18.63
-17.16
-15.85
-14.4
-12.41
-9.73
-6.73
-4.29
-3.62
-6.02
-12.35
-22.65
-35.87
-50
-62.55
-71.2
-74.45
-71.88
-64.02
-52.03
-37.45
-21.89
-6.92
6.19
16.7
24.59
30.46
35.13
39.18
42.61
44.93
45.7
45
43.59
42.55
42.68
44.01
45.78
46.77
46
43.09
38.29
32.31
25.82
19.19
12.46
5.59
-1.36
-7.99
-13.77
-18.21
-21.1
-22.68
-23.47
-24.14
-25.15
-26.69
-28.56
-30.32
-31.55
-32.17
-32.43
-32.95
-34.32
-36.8
-40.06
-43.19
-44.96
-44.27
-40.56
-33.99
-25.38
-15.84
-6.47
1.96
9.07
14.82
19.27
22.47
24.34
24.74
23.67
21.33
18.21
15.01
12.36
10.61
9.71
9.29
8.78
7.79
6.15
3.98
1.51
-1.08
-3.75
-6.62
-9.91
-13.77
-18.23
-23.07
-27.91
-32.25
-35.69
-38.14
-39.81
-41.17
-42.78
-45.05
-48.09
-51.73
-55.53
-58.82
-60.81
-60.63
-57.63
-51.55
-42.82
-32.4
-21.62
-11.68
-3.3
3.46
8.99
13.83
18.32
22.5
26.13
28.94
30.79
31.83
32.36
32.77
33.33
34.15
35.1
35.94
36.32
35.94
34.63
32.47
29.73
26.69
23.63
20.59
17.46
14.1
10.42
6.5
2.49
-1.43
-5.18
-8.76
-12.25
-15.62
-18.87
-22
-25.21
-28.84
-33.34
-38.97
-45.62
-52.67
-58.98
-63.24
-64.28
-61.46
-54.9
-45.52
-34.65
-23.72
-13.75
-5.18
2.1
8.5
14.44
20.09
25.31
29.84
33.41
35.97
37.67
38.79
39.64
40.37
41
41.44
41.54
41.24
40.58
39.68
38.67
37.66
36.66
35.55
34.12
32.13
29.45
26.08
22.2
18.13
14.18
10.47
6.93
3.36
-0.5
-4.77
-9.45
-14.42
-19.56
-24.71
-29.77
-34.6
-39.12
-43.29
-47.23
-51.23
-55.66
-60.81
-66.61
-72.56
-77.7
-80.9
-81.19
-78.11
-71.88
-63.34
-53.66
-43.97
-34.99
-26.91
-19.53
-12.49
-5.48
1.57
8.51
15.1
21.09
26.41
31.07
35.16
38.78
41.92
44.51
46.51
47.88
48.67
48.95
48.79
48.23
47.29
46.05
44.71
43.54
42.87
42.91
43.68
44.96
46.34
47.32
47.51
46.66
44.77
42.03
38.72
35.13
31.47
27.83
24.18
20.43
16.49
12.31
7.85
3.12
-1.89
-7.15
-12.6
-18.21
-23.97
-29.96
-36.33
-43.06
-49.82
-55.84
-60.03
-61.32
-58.98
-53.06
-44.29
-33.96
-23.35
-13.47
-4.83
2.32
7.77
11.1
11.8
9.55
4.62
-1.98
-8.7
-13.96
-16.71
-16.78
-14.88
-12.17
-9.69
-8.05
-7.25
-6.76
-6.15
-5.27
-4.33
-3.63
-3.32
-3.34
-3.43
-3.21
-2.37
-0.78
1.46
4.23
7.46
11.15
15.23
19.37
23.06
26.04
28.06
29.01
29.16
29.07
29.29
30.12
31.06
31.41
31.18
30.32
28.92
27.74
27.98
30.87
37.2
46.13
56.27
67.12
77.15
83.87
85.09
79.33
66.27
47.07
23.03
-3.27
-26.89
-45.33
-59.22
-70.42
-80.84
-91.43
-102.02
-113.57
-126.74
-139.59
-151.76
-163.79
-174.48
-181.19
-181.07
-162.09
-120.85
-77.18
-40.08
-8.75
15.97
33.87
45.21
50.58
51.06
46.58
38.15
30.13
24.93
22.4
21.82
22.3
23.23
24.3
24.04
21.43
18.01
14.41
10.26
5.91
2.26
0.45
1.34
4.29
8.32
13.66
19.82
25.78
30.92
35.05
38.1
40.05
40.43
38.88
35.81
31.26
24.9
16.61
6.62
-4.3
-14.99
-24.35
-31.49
-35.84
-37.54
-37.34
-36.04
-34.34
-32.67
-31.21
-29.94
-28.53
-26.4
-22.79
-17.01
-8.8
1.46
12.83
24.1
34.37
43.21
50.74
57.35
63.26
68.47
72.68
75.53
76.81
76.51
74.77
71.81
67.88
63.35
58.72
54.64
51.74
50.44
50.85
52.72
55.5
58.54
61.23
63.11
63.88
63.38
61.51
58.12
53
45.95
36.99
26.53
15.4
4.82
-4.1
-10.66
-14.94
-17.74
-20.31
-23.91
-29.4
-37.07
-46.63
-57.33
-68.12
-77.84
-85.36
-89.9
-91.24
-89.81
-86.6
-82.84
-79.74
-78.05
-78.06
-79.62
-82.25
-85.36
-88.4
-90.92
-92.7
-93.76
-94.25
-94.32
-93.95
-92.88
-90.71
-87.1
-81.9
-75.24
-67.45
-58.89
-49.74
-40.03
-29.62
-18.43
-6.61
5.42
16.96
27.29
35.8
42.21
46.56
49.17
50.35
50.35
49.27
47.2
44.25
40.67
36.74
32.7
28.69
24.7
20.73
16.81
13.03
9.53
6.37
3.56
1
-1.28
-3.02
-3.68
-2.51
1.18
7.66
16.58
27.02
37.64
47.11
54.42
59.11
61.17
60.91
58.77
55.21
50.72
45.87
41.27
37.47
34.85
33.48
33.19
33.56
34.12
34.43
34.21
33.4
32.07
30.42
28.67
26.87
24.94
22.65
19.85
16.55
13.09
9.98
7.62
6.1
5.08
3.91
2
-0.9
-4.67
-8.94
-13.35
-17.82
-22.55
-27.9
-34.14
-41.21
-48.63
-55.6
-61.14
-64.29
-64.43
-61.34
-55.4
-47.37
-38.18
-28.67
-19.4
-10.72
-2.88
3.85
9.15
12.83
15.07
16.45
17.94
20.47
24.69
30.68
37.87
45.28
51.86
56.91
60.23
62.2
63.58
65.2
67.64
71.12
75.4
79.96
84.07
86.95
87.87
86.25
81.74
74.32
64.22
51.89
37.87
22.81
7.46
-7.18
-20.03
-30.15
-37.09
-41.09
-42.97
-43.86
-44.67
-45.85
-47.11
-47.7
-46.61
-42.95
-36.32
-27.07
-16.27
-5.51
3.55
9.8
12.99
13.69
12.94
11.66
10.2
8.37
5.76
2.17
-2.12
-6.41
-9.94
-12.25
-13.34
-13.57
-13.4
-13.16
-13.02
-12.95
-12.93
-12.97
-13.1
-13.35
-13.68
-14.07
-14.46
-14.84
-15.19
-15.42
-15.41
-14.99
-14.08
-12.77
-11.28
-9.86
-8.65
-7.58
-6.43
-4.94
-2.92
-0.41
2.38
5.05
7.2
8.48
8.82
8.35
7.48
6.82
7.08
8.92
12.92
19.38
28.15
38.55
49.35
58.93
65.62
68.24
66.27
60.02
50.29
38.04
24.22
9.64
-4.8
-18.11
-29.38
-38.01
-44.03
-48.15
-51.46
-54.97
-59.22
-64.13
-69.15
-73.68
-77.27
-79.8
-81.23
-81.58
-80.7
-78.33
-74.1
-67.65
-58.75
-47.5
-34.52
-20.94
-8.27
2.06
9.04
12.45
12.79
10.93
7.8
4.01
-0.14
-4.45
-8.69
-12.6
-16
-18.96
-21.8
-24.95
-28.79
-33.39
-38.49
-43.51
-47.62
-49.94
-49.67
-46.39
-40.2
-31.78
-22.34
-13.28
-5.87
-0.92
1.3
1.03
-1.12
-4.4
-8.05
-11.37
-13.65
-14.31
-12.85
-8.96
-2.63
5.75
15.33
24.91
33.19
39.08
42.08
42.47
41.14
39.3
37.93
37.47
37.74
38.2
38.31
37.85
36.97
36.16
35.88
36.46
37.88
39.89
42.02
43.69
44.37
43.63
41.25
37.23
31.84
25.51
18.72
11.87
5.12
-1.59
-8.53
-16.03
-24.33
-33.25
-42.21
-50.26
-56.24
-59.18
-58.43
-53.94
-46.26
-36.35
-25.44
-14.65
-4.87
3.44
10.12
15.26
19.04
21.72
23.56
24.94
26.19
27.6
29.29
31.16
32.94
34.34
35.12
35.22
34.76
33.92
32.87
31.74
30.55
29.2
27.48
25.16
22.02
17.94
12.99
7.41
1.51
-4.43
-10.26
-16.04
-21.92
-28.04
-34.36
-40.58
-46.28
-51.12
-55.06
-58.39
-61.64
-65.36
-69.88
-75.19
-80.96
-86.58
-91.31
-94.38
-95.01
-92.66
-87.11
-78.66
-68.06
-56.39
-44.73
-33.88
-24.23
-15.82
-8.45
-1.92
3.95
9.26
14.15
18.78
23.3
27.74
31.96
35.71
38.73
40.93
42.6
44.35
47.03
51.51
58.38
67.66
78.75
90.53
101.66
110.97
117.81
122.15
124.46
125.42
125.64
125.53
125.33
125.11
124.83
124.28
123.1
120.85
117.19
112.05
105.67
98.46
90.73
82.44
73.15
62.19
49.01
33.5
16.19
-1.81
-19.01
-33.91
-45.33
-52.76
-56.55
-57.78
-58.01
-58.7
-60.82
-64.58
-69.56
-75.04
-80.43
-85.49
-90.36
-95.27
-100.31
-105.31
-109.81
-113.26
-115.12
-115.06
-112.97
-109.09
-104.04
-98.79
-94.41
-91.74
-91.02
-91.73
-92.82
-92.95
-90.99
-86.24
-78.47
-67.94
-55.19
-41
-26.29
-12.01
0.98
12.05
20.91
27.6
32.35
35.44
37.08
37.39
36.52
34.86
33.13
32.44
33.93
38.47
46.27
56.7
68.49
80.1
90.09
97.43
101.6
102.54
100.59
96.42
90.91
84.94
79.12
73.67
68.37
62.84
56.78
50.17
43.2
36.01
28.5
20.26
10.82
-0.04
-12.08
-24.64
-36.86
-47.91
-57.25
-64.6
-69.94
-73.37
-75.07
-75.27
-74.25
-72.28
-69.65
-66.61
-63.39
-60.27
-57.53
-55.39
-53.88
-52.81
-51.69
-49.88
-46.69
-41.66
-34.72
-26.2
-16.77
-7.14
2.09
10.56
18.06
24.34
29.1
31.95
32.65
31.32
28.55
25.27
22.46
20.85
20.7
21.82
23.66
25.58
26.89
27.09
25.88
23.23
19.35
14.63
9.52
4.48
-0.14
-4.2
-7.79
-11.22
-14.98
-19.51
-25.03
-31.38
-38.04
-44.34
-49.73
-54.04
-57.59
-61.01
-64.93
-69.66
-74.92
-79.78
-82.96
-83.21
-79.77
-72.7
-62.94
-51.93
-41.18
-31.78
-24.2
-18.24
-13.35
-8.88
-4.4
0.22
4.83
9.14
12.88
15.94
18.4
20.45
22.32
24.16
26.15
28.4
31.08
34.23
37.7
41.08
43.75
45.24
45.5
45.13
45.09
46.3
49.19
53.45
58.28
62.76
66.17
68.13
68.41
66.81
63.05
56.98
48.68
38.55
27.1
14.81
1.96
-11.34
-25.06
-39.21
-53.82
-68.83
-83.92
-98.27
-110.46
-118.78
-121.8
-118.84
-110.21
-97.13
-81.33
-64.7
-48.94
-35.26
-24.09
-14.9
-6.33
3.49
16.18
32.57
52.47
74.89
98.47
121.8
143.42
161.85
175.55
183.32
184.76
180.52
172.01
160.74
147.54
132.13
113.57
91.04
64.92
37.18
10.81
-11.25
-27.23
-36.97
-41.53
-42.19
-39.79
-34.64
-27.07
-18
-9.18
-2.55
0.52
-0.1
-3.46
-8.16
-13.16
-18.12
-23.26
-28.93
-35.19
-41.81
-48.47
-54.95
-61.19
-67.24
-72.94
-77.83
-81.15
-82.1
-80.04
-74.81
-66.78
-56.79
-45.93
-35.18
-25.23
-16.32
-8.37
-1.15
5.5
11.62
17.14
22.05
26.46
30.6
34.78
39.28
44.22
49.53
54.95
60.13
64.62
68.13
70.56
72.12
73.14
73.94
74.64
75.14
75.19
74.62
73.37
71.47
68.89
65.35
60.43
53.7
45.02
34.65
23.11
11.05
-1.07
-13.08
-24.96
-36.73
-48.21
-58.99
-68.46
-75.99
-81.11
-83.69
-83.95
-82.46
-79.88
-76.87
-73.95
-71.37
-69.24
-67.52
-66.16
-65.02
-63.98
-62.98
-62.1
-61.5
-61.26
-61.21
-60.78
-59.09
-55.24
-48.75
-39.77
-29.16
-18.18
-8.05
0.42
6.96
11.65
14.69
16.19
16.21
15
13.09
11.37
10.77
11.94
14.91
19.16
23.77
27.89
31
33.02
34.14
34.65
34.86
35.1
35.76
37.24
39.72
42.98
46.41
49.23
50.78
50.92
49.99
48.67
47.56
46.92
46.62
46.22
45.25
43.39
40.53
36.74
32.11
26.78
20.89
14.59
8.03
1.32
-5.5
-12.49
-19.69
-27.04
-34.24
-40.81
-46.22
-50.15
-52.64
-54.07
-55.06
-56.21
-57.9
-60.3
-63.33
-66.69
-69.91
-72.22
-72.64
-70.22
-64.34
-55.01
-42.93
-29.19
-14.85
-0.68
12.97
26.03
38.41
49.87
60.1
68.83
75.96
81.69
86.36
90.4
94.19
97.95
101.71
105.28
108.23
110.07
110.32
108.68
105.14
99.88
93.14
85.18
76.25
66.57
56.37
45.81
34.99
23.83
12.18
-0.16
-13.29
-27.21
-41.72
-56.4
-70.64
-83.69
-94.87
-103.72
-110.23
-114.83
-118.18
-120.93
-123.39
-125.44
-126.73
-126.8
-125.41
-122.52
-118.32
-113.07
-107.11
-100.78
-94.5
-88.61
-83.24
-78.18
-72.83
-66.33
-57.87
-47
-33.86
-19.19
-4.13
10.07
22.42
32.43
40.08
45.75
49.91
53.01
55.4
57.39
59.29
61.47
64.23
67.64
71.42
74.94
77.47
78.41
77.55
75.1
71.59
67.63
63.65
59.83
56.12
52.32
48.17
43.37
37.7
31.01
23.4
15.29
7.47
0.86
-3.71
-5.88
-5.93
-4.64
-2.96
-1.69
-1.2
-1.44
-2.05
-2.65
-2.92
-2.69
-1.94
-0.7
0.82
2.39
3.63
4.2
3.89
2.74
0.94
-1.27
-3.75
-6.6
-10.04
-14.24
-19.21
-24.72
-30.35
-35.52
-39.57
-41.8
-41.62
-38.79
-33.6
-26.96
-20.09
-14.19
-9.94
-7.28
-5.51
-3.71
-0.99
3.19
9.05
16.71
26.22
37.54
50.33
63.68
76.08
85.64
90.5
89.42
82.28
70.04
54.66
38.47
23.6
11.47
2.6
-3.35
-7.26
-10.23
-13.21
-16.75
-20.97
-25.62
-30.32
-34.78
-38.85
-42.48
-45.51
-47.67
-48.7
-48.6
-47.71
-46.69
-46.19
-46.59
-47.83
-49.56
-51.39
-53.06
-54.62
-56.3
-58.41
-61.11
-64.42
-68.04
-71.36
-73.37
-72.93
-69.08
-61.36
-50.1
-36.34
-21.62
-7.56
4.48
13.59
19.39
22.01
22
20.24
17.89
16.09
15.78
17.35
20.59
24.88
29.37
33.28
35.96
37.02
36.46
34.6
32.24
30.48
30.34
32.39
36.41
41.47
46.33
49.99
51.98
52.31
51.15
48.54
44.32
38.47
31.38
23.89
17.01
11.45
7.32
4.06
0.82
-3.11
-7.91
-13.3
-18.78
-24
-29.03
-34.32
-40.56
-48.28
-57.63
-68.23
-79.11
-88.94
-96.27
-99.87
-99.09
-93.98
-85.31
-74.34
-62.48
-50.95
-40.54
-31.6
-24.12
-17.94
-12.89
-8.87
-5.87
-3.89
-2.8
-2.31
-1.95
-1.16
0.56
3.48
7.47
12.1
16.72
20.72
23.65
25.3
25.62
24.65
22.47
19.21
15.18
10.84
6.69
3.16
0.45
-1.53
-3.01
-4.27
-5.41
-6.42
-7.12
-7.33
-6.88
-5.7
-3.9
-1.77
0.15
1.18
0.71
-1.6
-5.47
-9.96
-13.6
-14.79
-12.32
-5.86
3.93
15.53
27.09
37.03
44.49
49.41
52.38
54.22
55.6
56.88
58.12
59.25
60.19
60.8
60.95
60.4
58.89
56.31
52.78
48.71
44.73
41.41
39.18
38.11
37.96
38.24
38.37
37.79
36
32.65
27.62
21.1
13.6
5.91
-1.13
-6.91
-11.26
-14.47
-17.15
-19.88
-23.08
-26.88
-31.25
-36.11
-41.32
-46.62
-51.41
-54.79
-55.78
-53.6
-48.01
-39.47
-28.99
-17.82
-7.02
2.84
11.75
20.04
28.12
36.21
44.29
52.13
59.53
66.41
72.86
78.99
84.79
89.94
93.88
95.9
95.37
91.88
85.3
75.81
63.66
49.16
32.58
14.15
-5.68
-26.24
-46.6
-65.76
-82.85
-97.28
-108.74
-117.11
-122.34
-124.42
-123.48
-119.79
-113.78
-105.93
-96.77
-86.91
-76.98
-67.72
-59.75
-53.4
-48.42
-43.99
-38.92
-32.04
-22.66
-10.77
2.95
17.45
31.45
43.86
53.96
61.46
66.59
69.88
71.89
73.06
73.53
73.21
72.03
70.03
67.55
65.01
62.76
60.81
58.88
56.49
53.19
48.83
43.49
37.49
31.21
25.03
19.2
13.89
9.18
5.01
1.36
-1.81
-4.49
-6.72
-8.67
-10.63
-12.97
-15.8
-18.91
-21.78
-23.8
-24.53
-23.96
-22.4
-20.29
-17.92
-15.4
-12.7
-9.92
-7.36
-5.5
-4.77
-5.24
-6.5
-7.71
-7.84
-6.1
-2.21
3.38
9.58
14.98
18.33
18.92
16.77
12.55
7.13
1.23
-4.76
-10.77
-16.75
-22.45
-27.46
-31.35
-33.93
-35.41
-36.17
-36.62
-36.85
-36.6
-35.53
-33.4
-30.25
-26.42
-22.3
-18.2
-14.27
-10.58
-7.21
-4.27
-1.87
-0.06
1.16
1.88
2.16
2.04
1.51
0.61
-0.54
-1.82
-3.12
-4.39
-5.71
-7.15
-8.76
-10.52
-12.45
-14.59
-17.05
-19.97
-23.46
-27.5
-32.03
-37.05
-42.57
-48.65
-55.14
-61.45
-66.52
-69
-67.7
-62.09
-52.55
-40.28
-26.89
-13.9
-2.32
7.46
15.48
22.02
27.38
31.78
35.32
38.1
40.18
41.63
42.49
42.84
42.79
42.45
41.96
41.4
40.85
40.36
39.98
39.76
39.7
39.71
39.61
39.17
38.19
36.58
34.42
31.88
29.25
26.74
24.54
22.67
21.02
19.38
17.49
15.06
11.88
7.93
3.36
-1.4
-5.83
-9.41
-11.85
-13.22
-13.84
-14.24
-14.87
-15.96
-17.47
-19.19
-20.97
-22.86
-25.15
-28.21
-32.3
-37.29
-42.71
-47.7
-51.24
-52.41
-50.53
-45.34
-37.07
-26.37
-14.24
-1.83
9.76
19.73
27.75
34.01
38.99
43.18
46.85
50
52.55
54.62
56.59
58.97
62.09
65.82
69.53
72.4
73.75
73.42
71.64
68.9
65.5
61.45
56.42
49.93
41.62
31.33
19.24
5.79
-8.36
-22.43
-35.7
-47.61
-57.96
-66.75
-74.26
-80.81
-86.71
-92.1
-96.95
-101.07
-104.14
-105.74
-105.43
-102.93
-98.22
-91.68
-84.03
-76.21
-69.08
-63.25
-58.97
-56.25
-54.93
-54.85
-55.73
-57.1
-58.14
-57.8
-55.04
-49.26
-40.65
-30.18
-19.31
-9.48
-1.57
4.26
8.56
12.19
15.87
20.03
24.67
29.59
34.48
39.16
43.52
47.55
51.25
54.64
57.6
59.99
61.55
61.97
61.02
58.61
54.91
50.31
45.41
40.79
36.97
34.19
32.48
31.72
31.76
32.49
33.77
35.36
36.78
37.39
36.59
34.17
30.39
25.97
21.66
17.86
14.48
10.99
6.87
1.85
-3.85
-9.82
-15.73
-21.66
-28.04
-35.44
-44.12
-53.75
-63.31
-71.31
-76.26
-77.13
-73.77
-67.05
-58.56
-50.13
-43.23
-38.56
-35.94
-34.63
-33.85
-33.05
-32.11
-31.14
-30.14
-28.81
-26.61
-22.93
-17.34
-9.79
-0.54
10.05
21.67
34.1
47.09
60.13
72.33
82.65
90.1
94.17
95
93.29
90.08
86.36
82.82
79.83
77.52
75.95
75.11
74.89
74.98
74.83
73.79
71.31
67.09
61.26
54.17
46.29
37.97
29.35
20.42
11.15
1.67
-7.82
-17.11
-26.12
-34.89
-43.36
-51.16
-57.39
-60.78
-60.12
-54.82
-45.32
-33.11
-20.26
-8.74
0.17
6.24
9.99
12.33
13.99
15.34
16.38
17.05
17.42
17.81
18.59
19.94
21.67
23.27
24.14
23.87
22.48
20.38
18.14
16.23
14.72
13.31
11.52
8.89
5.34
1.15
-3.14
-6.97
-10.02
-12.32
-14.19
-16.09
-18.37
-21.17
-24.32
-27.53
-30.53
-33.22
-35.72
-38.28
-41.2
-44.67
-48.72
-53.16
-57.55
-61.2
-63.24
-62.78
-59.22
-52.46
-43.07
-32.14
-20.97
-10.75
-2.24
4.22
8.61
11.11
12.01
11.65
10.52
9.24
8.4
8.39
9.32
10.98
12.98
14.96
16.71
18.16
19.26
19.89
19.84
18.8
16.55
13.09
8.65
3.72
-1.1
-5.32
-8.66
-11.16
-13.12
-14.98
-17.17
-19.95
-23.4
-27.51
-32.33
-37.92
-44.25
-50.97
-57.28
-61.94
-63.69
-61.66
-55.7
-46.46
-35.13
-23.08
-11.47
-1.03
7.92
15.41
21.7
27.09
31.92
36.46
40.86
45.21
49.62
54.19
59
64.04
69.05
73.59
77.19
79.5
80.45
80.24
79.25
77.8
75.98
73.58
70.09
64.81
57.05
46.28
32.32
15.38
-3.98
-24.97
-46.81
-68.76
-90.27
-110.89
-130.3
-148.27
-164.6
-178.93
-190.61
-198.51
-201.11
-196.87
-184.7
-164.42
-136.96
-104.36
-69.45
-35.19
-4.17
21.87
42.12
56.6
65.89
70.75
71.98
70.36
66.67
61.69
56.15
50.46
44.7
38.53
31.44
22.99
13.1
2.09
-9.35
-20.29
-29.81
-37.22
-42.19
-44.83
-45.55
-44.93
-43.51
-41.62
-39.37
-36.63
-33.16
-28.7
-23.14
-16.59
-9.44
-2.24
4.42
10.1
14.61
17.89
19.93
20.7
20.12
18.24
15.28
11.65
7.74
3.74
-0.26
-4.12
-7.26
-8.62
-6.96
-1.38
8.09
20.32
33.44
45.54
55.36
62.73
68.3
73.17
78.25
84.02
90.37
96.74
102.31
106.2
107.73
106.5
102.49
96.11
87.94
78.61
68.67
58.58
48.69
39.33
30.7
22.75
15.08
6.96
-2.4
-13.56
-26.43
-40.29
-53.87
-65.75
-74.7
-80.07
-81.96
-81.14
-78.82
-76.2
-74.12
-72.82
-72.01
-71.12
-69.56
-66.95
-63.25
-58.7
-53.77
-48.95
-44.56
-40.54
-36.28
-30.72
-22.56
-10.84
4.58
22.73
41.56
58.44
70.85
77.08
76.71
70.62
60.69
49.16
38.07
28.84
22.23
18.63
18.25
21.21
27.37
35.95
45.5
54.13
60.07
62.34
61.08
57.41
52.85
48.75
45.71
43.61
41.83
39.79
37.27
34.53
32.1
30.47
29.7
29.43
28.9
27.34
24.25
19.53
13.61
7.18
0.98
-4.49
-9.07
-12.99
-16.75
-20.9
-25.85
-31.68
-38.01
-44.11
-48.9
-51.34
-50.65
-46.64
-39.8
-31.19
-22.12
-13.77
-6.86
-1.55
2.43
5.58
8.32
10.94
13.62
16.46
19.57
22.96
26.47
29.75
32.36
33.95
34.49
34.28
33.82
33.59
33.94
35.01
36.76
39.03
41.56
43.95
45.73
46.43
45.85
44.11
41.7
39.28
37.46
36.54
36.45
36.82
37.21
37.24
36.74
35.67
34.12
32.09
29.56
26.48
22.91
19.04
15.2
11.6
8.25
4.9
1.14
-3.33
-8.59
-14.37
-20.27
-25.83
-30.77
-34.9
-38.25
-40.96
-43.25
-45.38
-47.59
-50.04
-52.74
-55.59
-58.46
-61.33
-64.39
-67.99
-72.39
-77.45
-82.39
-85.86
-86.35
-82.67
-74.55
-62.77
-49.06
-35.44
-23.68
-14.71
-8.56
-4.41
-1.12
2.36
6.58
11.5
16.52
20.88
23.89
25.28
25.25
24.33
23.15
22.2
21.81
22.08
22.99
24.36
25.84
26.9
26.97
25.59
22.63
18.34
13.27
8
2.94
-1.79
-6.27
-10.6
-14.81
-18.74
-22.24
-25.17
-27.61
-29.79
-32
-34.47
-37.14
-39.75
-41.84
-43.02
-43.13
-42.37
-41.24
-40.41
-40.48
-41.82
-44.52
-48.36
-52.79
-57
-60.02
-60.89
-58.9
-53.9
-46.31
-37.04
-27.23
-17.88
-9.67
-2.93
2.3
6.1
8.66
10.29
11.39
12.47
13.89
15.82
18.09
20.41
22.55
24.61
27.02
30.27
34.62
39.82
45.24
50.2
54.33
57.67
60.51
63.02
64.99
65.91
65.33
63.28
60.3
57.26
54.78
52.8
50.46
46.5
39.82
30.02
17.55
3.6
-10.42
-23.23
-34.06
-42.66
-49.31
-54.61
-59.33
-64.15
-69.45
-75.06
-80.13
-83.32
-83.22
-78.86
-70.2
-58.23
-44.75
-31.72
-20.68
-12.28
-6.28
-1.91
1.71
5.1
8.4
11.42
14
16.12
17.95
19.76
21.77
24.09
26.75
29.7
32.86
36.02
38.88
41.1
42.47
42.97
42.77
42.11
41.15
39.93
38.33
36.26
33.71
30.83
27.79
24.7
21.61
18.53
15.59
13.04
11.19
10.21
9.99
10.07
9.82
8.63
6.15
2.47
-2.04
-6.83
-11.47
-15.73
-19.69
-23.64
-28.02
-33.29
-39.77
-47.6
-56.6
-66.31
-75.93
-84.55
-91.21
-95.07
-95.51
-92.21
-85.19
-74.8
-61.69
-46.76
-31.16
-16.03
-2.43
8.9
17.79
24.67
30.41
35.94
41.76
47.71
53.03
56.77
58.25
57.43
54.85
51.41
48.01
45.21
43.22
41.84
40.7
39.3
37.28
34.41
30.76
26.61
22.4
18.62
15.7
13.93
13.45
14.23
16.01
18.37
20.78
22.85
24.55
26.17
28.25
31.15
34.82
38.68
41.84
43.43
42.9
40.24
35.82
30.25
24.04
17.46
10.41
2.42
-7.19
-18.98
-33.13
-49.06
-65.53
-80.78
-93.11
-101.43
-105.59
-106.3
-104.72
-102
-98.85
-95.46
-91.68
-87.18
-81.77
-75.38
-68.1
-59.99
-51.09
-41.38
-31
-20.44
-10.55
-2.28
3.7
7.45
9.79
12.02
15.38
20.43
26.94
34.11
41.01
47.07
52.15
56.39
59.92
62.66
64.48
65.31
65.32
64.77
63.81
62.34
59.97
56.34
51.34
45.23
38.49
31.64
24.93
18.4
12
5.81
0.02
-5.19
-9.79
-13.97
-18.02
-22.17
-26.5
-31.13
-36.37
-42.79
-50.93
-60.97
-72.36
-83.79
-93.58
-100.23
-102.9
-101.6
-97.05
-90.33
-82.55
-74.64
-67.37
-61.24
-56.45
-52.88
-50.09
-47.45
-44.38
-40.4
-35.4
-29.5
-23.09
-16.66
-10.69
-5.35
-0.48
4.44
10.14
17.16
25.58
34.88
44.07
52.11
58.3
62.44
64.72
65.46
64.86
62.97
59.86
55.79
51.21
46.64
42.34
38.17
33.67
28.24
21.44
13.16
3.53
-7.14
-18.63
-30.7
-43.09
-55.29
-66.44
-75.36
-80.8
-81.78
-77.85
-69.37
-57.42
-43.63
-29.72
-17.13
-6.56
2.01
9.15
15.56
21.66
27.43
32.52
36.63
39.87
42.78
46.13
50.49
55.88
61.67
66.92
70.84
73.13
74.01
73.92
73.2
71.8
69.36
65.49
60.11
53.63
46.85
40.66
35.64
31.85
28.89
26.14
23.03
19.22
14.67
9.51
3.93
-1.87
-7.68
-13.27
-18.42
-22.97
-27
-30.78
-34.77
-39.37
-44.79
-51.04
-58
-65.54
-73.63
-82.14
-90.58
-97.9
-102.56
-103.03
-98.34
-88.62
-75.1
-59.75
-44.55
-30.94
-19.47
-9.98
-1.81
5.72
13.14
20.71
28.35
35.81
42.74
48.87
54.14
58.61
62.45
65.8
68.71
71.18
73.22
74.92
76.38
77.62
78.48
78.57
77.42
74.63
70.07
64
57.07
50.17
44.2
39.72
36.72
34.58
32.3
28.93
23.93
17.36
9.74
1.72
-6.22
-13.9
-21.29
-28.4
-35.04
-40.88
-45.54
-48.73
-50.36
-50.49
-49.3
-47.05
-43.94
-40.16
-35.85
-31.19
-26.42
-21.86
-17.92
-14.97
-13.27
-12.85
-13.6
-15.24
-17.61
-20.61
-24.39
-29.22
-35.34
-42.83
-51.39
-60.22
-68.06
-73.47
-75.23
-72.79
-66.54
-57.7
-47.92
-38.72
-31.04
-25.13
-20.75
-17.44
-14.91
-12.97
-11.51
-10.34
-9.09
-7.35
-4.7
-0.86
4.34
10.86
18.41
26.42
34.04
40.39
44.86
47.36
48.37
48.76
49.44
51.01
53.72
57.44
61.76
66.15
69.96
72.58
73.56
72.84
70.75
67.92
64.99
62.36
59.94
57.35
54.12
50.1
45.54
40.98
36.95
33.69
30.98
28.24
24.84
20.46
15.28
9.91
5.09
1.23
-1.8
-4.83
-8.99
-15.43
-24.91
-37.6
-53.06
-70.26
-87.84
-104.25
-118
-127.86
-133.04
-133.23
-128.66
-120.07
-108.6
-95.77
-83.25
-72.53
-64.5
-59.2
-55.81
-52.88
-48.94
-42.96
-34.66
-24.46
-13.22
-1.91
8.57
17.5
24.41
29.09
31.68
32.64
32.62
32.31
32.22
32.73
34.08
36.5
40.25
45.56
52.57
61.16
70.83
80.56
88.95
94.45
95.86
92.68
85.28
74.73
62.41
49.61
37.1
25.09
13.41
1.97
-9.07
-19.1
-27.42
-33.54
-37.51
-39.85
-41.07
-41.12
-38.8
-31.88
-17.75
5.32
36.78
73.08
108.04
134.51
146.66
142.16
123.2
95.82
67.83
46.15
34.69
33.57
39.63
47.46
50.64
42.98
19.91
-19.76
-72.4
-129.47
-179.39
-211.13
-218.05
-200.09
-163.34
-117.19
-70.63
-29.65
3.36
28.33
45.72
55.48
57.32
51.55
39.96
25.76
12.52
3.04
-1.62
-2.28
-0.73
1.39
3.49
6.37
11.82
21.71
37.05
57.16
79.43
99.98
114.99
122.42
122.93
119.49
115.6
113.25
111.88
109.01
102.05
90.06
74.15
56.54
38.91
21.47
3.41
-15.93
-35.9
-54.62
-69.99
-81
-88.13
-92.87
-96.63
-100.12
-103.28
-105.7
-106.84
-105.94
-101.92
-93.55
-80.29
-63.06
-44.45
-27.84
-15.96
-9.57
-7.14
-5.69
-2.51
3.62
11.8
19.46
23.5
21.33
11.58
-5.69
-28.98
-55.34
-80.49
-99.47
-107.83
-103.14
-86.27
-61.49
-35.27
-14.02
-1.8
0.78
-3.64
-10.92
-17.4
-21.22
-22.46
-22.25
-21.64
-20.92
-20.01
-19.32
-20.35
-25.55
-37.25
-55.81
-78.46
-99.65
-113.11
-114.66
-104
-84.52
-61.15
-37.53
-14.75
7.73
29.87
49.46
62.63
66.21
60.35
49.11
38.68
34.08
36.78
44.56
53.59
60.97
66.03
69.71
72.95
75.7
76.96
75.8
72.36
67.78
63.42
59.81
56.55
52.76
48.06
42.9
38.42
35.72
35.13
36.18
37.91
39.51
40.67
41.54
42.5
43.83
45.72
48.47
52.65
58.92
67.58
77.92
87.94
94.7
95.43
88.72
75.34
58.26
41.76
30.03
25.73
29.17
38.27
49.36
58.46
62.4
59.68
50.39
35.76
17.42
-3.14
-24.59
-45.69
-65.13
-81.78
-95.1
-105.49
-114.22
-122.75
-131.92
-141.28
-149.39
-154.37
-154.89
-150.71
-142.65
-132.2
-120.91
-109.97
-100.09
-91.55
-84.28
-78.03
-72.39
-66.82
-60.71
-53.47
-44.58
-33.73
-20.97
-6.81
7.86
21.86
34.07
43.68
50.37
54.33
56.08
56.18
55.05
52.91
49.84
45.89
41.28
36.52
32.22
28.9
26.62
24.84
22.55
18.75
13.02
5.82
-1.61
-7.82
-11.81
-13.45
-13.38
-12.56
-11.77
-11.31
-11.06
-10.79
-10.51
-10.56
-11.47
-13.67
-17.28
-22.07
-27.46
-32.8
-37.45
-40.87
-42.57
-42.14
-39.35
-34.28
-27.43
-19.62
-11.79
-4.73
1.16
5.81
9.39
12.01
13.67
14.37
14.09
13.04
11.57
10.02
8.7
7.84
7.65
8.31
9.92
12.35
15.17
17.74
19.47
19.97
19.28
17.67
15.5
12.97
10.1
6.88
3.44
0.09
-2.79
-4.93
-6.14
-6.33
-5.32
-2.99
0.64
5.11
9.55
12.99
14.7
14.62
13.29
11.46
9.66
7.9
5.93
3.44
0.36
-3.19
-7.26
-12.15
-18.32
-25.88
-34.09
-41.29
-45.36
-44.62
-38.68
-28.74
-17.14
-6.4
1.77
7.02
10.04
11.95
13.47
14.69
15.18
14.67
13.44
12.43
12.8
15.24
19.59
24.8
29.46
32.36
32.97
31.49
28.6
25.05
21.39
17.86
14.47
11.17
8
5.12
2.79
1.31
0.86
1.42
2.76
4.42
5.9
6.82
7.07
6.81
6.45
6.38
6.77
7.5
8.12
8.02
6.71
4.03
0.25
-3.94
-7.8
-10.7
-12.47
-13.41
-14.32
-16.16
-19.82
-25.81
-34.03
-43.71
-53.54
-62
-67.6
-69.24
-66.37
-59.03
-47.93
-34.3
-19.77
-6.04
5.57
14.57
21.37
27.02
32.74
39.3
46.85
55.02
63.43
71.98
80.93
90.52
100.53
110.06
117.79
122.49
123.67
121.74
117.85
113.22
108.52
103.61
97.58
89.46
78.73
65.84
52.09
39.13
28.34
20.34
14.84
11.02
8.05
5.44
3.22
1.55
0.34
-1.04
-3.7
-8.71
-16.52
-26.57
-37.44
-47.47
-55.39
-60.8
-64.14
-66.41
-68.63
-71.63
-75.8
-81.12
-87.2
-93.24
-98.07
-100.32
-98.88
-93.32
-84.17
-72.78
-60.98
-50.27
-41.46
-34.42
-28.36
-22.3
-15.6
-8.29
-0.92
5.67
10.81
14.25
16.2
17.24
18.02
19.18
21.11
23.97
27.69
32.01
36.63
41.2
45.31
48.46
50.12
49.82
47.4
43.02
37.15
30.36
23.08
15.51
7.63
-0.6
-9.08
-17.52
-25.54
-32.83
-39.21
-44.61
-48.97
-52.16
-54.1
-54.78
-54.34
-52.99
-50.97
-48.42
-45.41
-42.03
-38.41
-34.85
-31.77
-29.77
-29.44
-31.35
-35.79
-42.66
-51.21
-60.09
-67.54
-71.86
-71.94
-67.58
-59.48
-48.85
-37.02
-25.05
-13.58
-3.02
6.41
14.61
21.66
27.88
33.75
39.69
45.93
52.38
58.63
64.15
68.5
71.5
73.4
74.89
76.76
79.67
83.77
88.73
93.88
98.48
101.9
103.57
103
99.85
94.2
86.72
78.6
70.87
63.85
56.81
48.41
37.71
25.04
12.18
1.67
-4.4
-5.28
-1.8
4.15
10.45
15.29
17.45
16.31
11.68
3.89
-6.15
-17.08
-27.28
-35.36
-40.57
-43
-43.58
-43.83
-45.36
-49.3
-55.86
-64.13
-72.29
-78.31
-80.68
-79.05
-74.3
-68.17
-62.47
-58.45
-56.42
-55.82
-55.48
-54.22
-51.23
-46.28
-39.74
-32.38
-25.01
-18.21
-12.12
-6.5
-0.91
5.04
11.49
18.28
25.01
31.28
36.75
41.15
44.29
46.04
46.42
45.76
44.61
43.75
43.87
45.33
48
51.39
54.87
57.95
60.46
62.32
63.43
63.4
61.58
57.41
50.69
41.82
31.68
21.33
11.67
3.32
-3.46
-8.54
-11.92
-13.82
-14.82
-15.97
-18.52
-23.5
-31.25
-41.16
-51.97
-62.32
-71.47
-79.74
-88.21
-98.13
-109.93
-122.77
-134.56
-142.71
-145.24
-141.49
-132.3
-119.59
-105.44
-91.42
-78.24
-65.87
-53.96
-42.23
-30.68
-19.5
-9
0.67
9.6
18.08
26.48
35.11
43.95
52.73
61.02
68.4
74.65
79.77
83.83
86.8
88.57
89.01
88.2
86.49
84.42
82.45
80.64
78.41
74.68
68.14
57.95
44.21
28.26
12.46
-0.54
-8.62
-11.02
-8.52
-3.11
2.9
7.69
10.37
10.93
9.84
7.58
4.38
0.29
-4.72
-10.59
-17.12
-24.07
-31.21
-38.33
-45.25
-51.78
-57.75
-63
-67.44
-70.89
-73.05
-73.42
-71.45
-66.71
-59.07
-48.78
-36.47
-23.01
-9.33
3.69
15.38
25.3
33.34
39.69
44.72
48.85
52.34
55.21
57.25
58.07
57.27
54.61
50.16
44.4
38.14
32.37
27.94
25.27
24.2
24.14
24.28
23.94
22.76
20.76
18.16
15.26
12.34
9.65
7.4
5.75
4.72
4.14
3.63
2.73
1.1
-1.27
-4.1
-6.88
-9.12
-10.58
-11.28
-11.57
-11.88
-12.59
-13.91
-15.84
-18.18
-20.57
-22.65
-24.09
-24.81
-24.97
-25.02
-25.56
-27.06
-29.76
-33.58
-38.25
-43.42
-48.82
-54.15
-58.94
-62.43
-63.64
-61.63
-55.88
-46.65
-34.9
-22.11
-9.79
0.92
9.49
16.04
21.12
25.41
29.47
33.51
37.37
40.67
43
44.25
44.59
44.52
44.57
45.2
46.62
48.9
51.98
55.71
59.84
63.91
67.33
69.57
70.27
69.43
67.39
64.66
61.78
59.15
56.98
55.27
53.87
52.43
50.61
48.06
44.71
40.73
36.54
32.62
29.27
26.5
24.11
21.93
20
18.65
18.24
18.84
19.93
20.56
19.71
16.82
12.16
6.65
1.39
-2.93
-6.37
-9.65
-13.78
-19.57
-27.31
-36.73
-47.08
-57.26
-65.96
-71.91
-74.15
-72.4
-67.22
-59.91
-52.04
-44.95
-39.31
-35.08
-31.76
-28.76
-25.69
-22.46
-19.22
-16.17
-13.5
-11.3
-9.61
-8.43
-7.71
-7.37
-7.31
-7.37
-7.34
-7.05
-6.38
-5.44
-4.58
-4.34
-5.26
-7.58
-11.04
-14.81
-17.79
-19.01
-18.02
-15.07
-10.95
-6.63
-2.92
-0.26
1.3
1.92
1.81
1.22
0.37
-0.48
-1.07
-1.29
-1.17
-0.93
-0.88
-1.3
-2.4
-4.24
-6.8
-9.87
-13.1
-16
-17.99
-18.64
-17.79
-15.64
-12.8
-10.15
-8.62
-8.92
-11.29
-15.31
-19.95
-23.81
-25.65
-24.72
-21.08
-15.58
-9.47
-3.99
0.03
2.35
3.29
3.47
3.56
4.06
5.21
7.06
9.49
12.37
15.59
19.09
22.74
26.42
29.97
33.33
36.5
39.53
42.43
45.07
47.21
48.58
49.05
48.67
47.71
46.54
45.53
44.91
44.78
45.09
45.69
46.36
46.85
46.92
46.42
45.37
43.93
42.27
40.43
38.2
35.16
30.81
24.74
16.82
7.2
-3.66
-15.14
-26.52
-37.11
-46.43
-54.27
-60.84
-66.65
-72.37
-78.58
-85.58
-93.25
-100.93
-107.53
-111.77
-112.42
-108.78
-100.91
-89.78
-76.98
-64.28
-53.11
-44.11
-37.09
-31.31
-25.89
-20.26
-14.31
-8.35
-2.87
1.75
5.45
8.45
11.08
13.52
15.68
17.25
17.89
17.59
16.6
15.43
14.56
14.15
13.94
13.47
12.29
10.31
7.88
5.66
4.32
4.22
5.28
7.02
8.92
10.69
12.36
14.25
16.62
19.37
22.06
24.04
24.84
24.46
23.37
22.25
21.68
21.83
22.51
23.29
23.85
24.08
24.1
24.16
24.4
24.78
25.09
24.93
23.91
21.85
18.89
15.46
12.1
9.1
6.33
3.17
-1.19
-7.36
-15.43
-25.08
-35.84
-47.36
-59.38
-71.5
-82.83
-92.03
-97.61
-98.67
-95.3
-88.67
-80.57
-72.64
-65.8
-60.09
-54.97
-49.83
-44.28
-38.33
-32.16
-25.99
-19.88
-13.88
-8.09
-2.66
2.21
6.45
10.16
13.69
17.4
21.59
26.33
31.46
36.57
41.13
44.53
46.3
46.21
44.38
41.3
37.72
34.35
31.72
29.97
28.87
28.04
27.1
25.92
24.49
22.96
21.35
19.51
17.17
14.16
10.48
6.54
2.92
0.12
-1.66
-2.65
-3.35
-4.24
-5.59
-7.39
-9.45
-11.64
-13.93
-16.35
-18.84
-21.25
-23.4
-25.27
-27.09
-29.32
-32.37
-36.27
-40.53
-44.11
-45.69
-44.11
-38.67
-29.44
-17.29
-3.75
9.32
20.12
27.42
30.83
30.91
28.79
25.73
22.62
19.83
17.33
15
12.98
11.6
11.26
12.03
13.59
15.31
16.66
17.43
17.84
18.26
18.92
19.69
20.17
19.97
19.04
17.78
16.89
16.99
18.31
20.5
22.74
24.08
23.75
21.49
17.54
12.47
6.92
1.42
-3.75
-8.56
-13.08
-17.44
-21.75
-26.06
-30.29
-34.17
-37.17
-38.61
-37.86
-34.51
-28.66
-20.91
-12.28
-3.91
3.26
8.78
12.76
15.7
18.25
20.8
23.45
26.03
28.33
30.25
31.84
33.15
34.09
34.53
34.4
33.9
33.47
33.52
34.14
35
35.42
34.7
32.43
28.69
23.93
18.74
13.62
8.91
4.78
1.24
-1.79
-4.5
-7.13
-9.83
-12.61
-15.21
-17.31
-18.71
-19.54
-20.33
-21.8
-24.63
-29.1
-34.88
-41.13
-46.74
-50.67
-52.24
-51.27
-47.97
-42.9
-36.75
-30.23
-23.93
-18.24
-13.22
-8.64
-4.11
0.74
5.99
11.42
16.48
20.59
23.45
25.12
26.07
26.86
27.92
29.36
31.04
32.73
34.28
35.68
36.89
37.76
38.02
37.41
35.91
33.89
32
30.87
30.8
31.49
32.09
31.63
29.39
25.27
19.87
14.18
9.13
5.2
2.25
-0.31
-3.21
-7.04
-12.08
-18.18
-24.89
-31.57
-37.41
-41.68
-43.89
-44.04
-42.75
-41.09
-40.33
-41.47
-44.79
-49.65
-54.65
-58.05
-58.41
-55.1
-48.49
-39.76
-30.4
-21.63
-14.06
-7.61
-1.93
3.27
8.01
12.06
15.2
17.52
19.45
21.56
24.27
27.61
31.26
34.81
37.97
40.72
43.18
45.3
46.69
46.69
44.71
40.62
34.93
28.72
23.13
18.91
16.13
14.33
12.8
10.99
8.67
5.84
2.58
-1.1
-5.2
-9.6
-14.05
-18.15
-21.65
-24.64
-27.56
-31.07
-35.67
-41.41
-47.74
-53.67
-58.15
-60.38
-60.11
-57.61
-53.48
-48.43
-43.03
-37.7
-32.67
-28.01
-23.66
-19.58
-15.73
-12.24
-9.36
-7.4
-6.57
-6.69
-7.28
-7.59
-6.89
-4.76
-1.17
3.49
8.57
13.32
17.16
19.7
20.87
20.87
20.13
19.31
19.18
20.4
23.28
27.57
32.49
36.99
40.16
41.6
41.57
40.82
40.28
40.68
42.35
45.18
48.73
52.26
55
56.31
56
54.49
52.64
51.24
50.49
49.79
48.03
44.26
38.41
31.4
24.8
20.05
17.69
17.15
17.09
16.05
13.12
8.13
1.53
-6
-13.94
-22.06
-30.31
-38.68
-47.01
-54.86
-61.66
-66.77
-69.67
-70.06
-67.96
-63.69
-57.97
-51.67
-45.77
-41.1
-38.26
-37.62
-39.31
-43.27
-49.09
-56.1
-63.3
-69.68
-74.52
-77.65
-79.39
-80.23
-80.34
-79.32
-76.41
-70.79
-62.21
-51.03
-38.08
-24.2
-9.84
4.94
20.32
36.3
52.54
68.37
83.08
96.17
107.44
116.96
124.8
130.86
134.86
136.36
135.08
131.04
124.73
116.82
107.97
98.57
88.69
78.27
67.3
55.85
43.97
31.61
18.63
4.95
-9.24
-23.47
-37.19
-50.11
-62.27
-73.85
-84.74
-94.14
-100.67
-102.76
-99.39
-90.43
-76.74
-59.8
-41.22
-22.39
-4.37
12.1
26.54
38.64
48.29
55.58
60.77
64.08
65.58
65.16
62.66
58.2
52.37
46.18
40.81
37.2
35.7
35.97
37.07
37.85
37.23
34.58
29.7
22.88
14.83
6.65
-0.48
-5.77
-9.31
-12.12
-15.54
-20.51
-26.87
-33.6
-39.56
-44.3
-48.4
-52.98
-58.8
-65.58
-72.03
-76.76
-79.22
-80.12
-81.03
-83.35
-87.46
-92.58
-97.27
-100.17
-100.49
-98.09
-93.27
-86.62
-78.9
-70.91
-63.39
-56.83
-51.31
-46.49
-41.84
-36.94
-31.65
-26.15
-20.76
-15.69
-11.02
-6.63
-2.47
1.42
4.96
8.21
11.44
15.17
19.95
26.01
33.22
41.04
48.82
55.92
61.88
66.33
68.88
69.16
66.91
62.2
55.51
47.59
39.26
31.09
23.34
15.93
8.63
1.26
-6.18
-13.39
-19.86
-25.09
-28.8
-31.1
-32.58
-34.06
-36.3
-39.77
-44.58
-50.49
-57.01
-63.42
-68.71
-71.76
-71.41
-66.9
-58.15
-45.9
-31.52
-16.56
-2.38
10.23
21.13
30.67
39.39
47.58
55
60.84
64.1
64.08
60.78
54.98
47.93
40.87
34.66
29.64
25.84
23.07
21.06
19.36
17.28
14.03
9.05
2.33
-5.43
-13.06
-19.37
-23.51
-25.29
-25.13
-23.76
-21.95
-20.16
-18.4
-16.28
-13.24
-8.88
-3.19
3.29
9.65
14.86
18.14
19.23
18.37
16.11
12.98
9.31
5.24
0.86
-3.57
-7.48
-10.1
-10.76
-9.22
-5.8
-1.3
3.3
7.27
10.3
12.51
14.22
15.62
16.6
16.85
16.1
14.39
12.05
9.66
7.66
6.28
5.43
4.93
4.66
4.53
4.5
4.41
4.08
3.38
2.41
1.48
0.93
1.01
1.66
2.61
3.45
3.91
3.94
3.78
3.82
4.32
5.29
6.38
7.12
7.16
6.45
5.3
4.11
3.16
2.33
1.11
-1.08
-4.61
-9.33
-14.59
-19.5
-23.19
-25.2
-25.46
-24.3
-22.29
-20.03
-17.97
-16.28
-14.69
-12.52
-8.82
-2.76
5.9
16.52
27.6
37.26
43.95
46.93
46.47
43.57
39.41
34.86
30.41
26.23
22.43
19.23
16.86
15.47
15.03
15.29
15.97
16.78
17.52
18.02
18.11
17.53
15.99
13.17
8.81
2.89
-4.4
-12.66
-21.42
-30.2
-38.66
-46.53
-53.54
-59.34
-63.42
-65.24
-64.35
-60.5
-53.79
-44.71
-34.08
-22.9
-12.15
-2.49
5.83
12.94
19.27
25.2
30.88
36.12
40.48
43.39
44.41
43.26
39.99
34.96
28.8
22.29
16.11
10.65
5.83
1.21
-3.78
-9.51
-16.01
-22.9
-29.59
-35.48
-40.23
-43.82
-46.55
-48.88
-51.26
-53.89
-56.59
-58.87
-60.13
-60.06
-58.79
-56.9
-55.02
-53.42
-51.74
-49.06
-44.3
-36.63
-25.68
-11.55
5.34
24.33
44.48
64.55
82.96
98.11
108.8
114.56
115.8
113.59
109.26
103.97
98.53
93.32
88.49
83.97
79.69
75.51
71.24
66.72
61.73
56.07
49.63
42.43
34.65
26.71
19.03
12
5.7
-0.07
-5.74
-11.65
-17.84
-23.93
-29.28
-33.25
-35.51
-36.06
-35.25
-33.58
-31.55
-29.57
-28.05
-27.3
-27.49
-28.47
-29.6
-29.92
-28.36
-24.19
-17.25
-8.03
2.5
13.19
22.98
31.07
36.96
40.45
41.7
41.16
39.5
37.46
35.52
33.79
31.96
29.51
26.01
21.25
15.32
8.47
1.03
-6.74
-14.6
-22.29
-29.58
-36.22
-42.18
-47.62
-52.94
-58.56
-64.7
-71.27
-77.79
-83.58
-87.92
-90.35
-90.77
-89.51
-87.21
-84.58
-82.17
-80.17
-78.38
-76.33
-73.58
-69.91
-65.53
-60.92
-56.49
-52.34
-48
-42.63
-35.3
-25.46
-13.11
1.12
16.17
30.93
44.48
56.27
66.25
74.72
82.15
89.02
95.74
102.48
109.3
116.09
122.67
128.79
134.21
138.77
142.37
145.1
147.07
148.32
148.53
147.06
143.01
135.61
124.54
110.03
92.85
74.02
54.7
35.93
18.65
3.56
-9.03
-19.16
-27.28
-34.08
-40.29
-46.44
-52.74
-59.1
-65.23
-70.85
-75.8
-80.1
-83.99
-87.8
-91.84
-96.27
-101.03
-105.86
-110.36
-113.96
-115.9
-115.26
-111.02
-102.53
-89.75
-73.55
-55.6
-37.99
-22.68
-11.15
-4.16
-1.78
-3.51
-8.33
-14.98
-21.99
-28.04
-32.19
-34.03
-33.74
-31.88
-29.06
-25.75
-22.07
-17.89
-12.99
-7.26
-0.85
5.79
12.03
17.22
20.88
22.88
23.34
22.53
20.73
18.08
14.66
10.64
6.24
1.88
-2
-5.07
-7.15
-8.29
-8.69
-8.66
-8.66
-9.17
-10.59
-12.89
-15.53
-17.51
-17.79
-15.82
-11.88
-7.06
-2.94
-0.98
-2.1
-6.32
-12.82
-20.16
-26.58
-30.43
-30.56
-26.51
-18.67
-8.03
4.1
16.42
27.77
37.25
44.2
48.44
50.42
51.23
52.37
55.14
60.12
66.88
74.1
80.14
83.68
84.16
81.93
77.91
73.26
68.94
65.54
63.18
61.65
60.43
58.9
56.46
52.76
47.73
41.6
34.85
27.99
21.5
15.69
10.71
6.63
3.44
1.05
-0.71
-2.15
-3.69
-5.67
-8.18
-11.01
-13.75
-16.02
-17.81
-19.59
-22.24
-26.6
-33.18
-41.82
-51.76
-61.86
-70.91
-77.92
-82.13
-83.11
-80.76
-75.34
-67.55
-58.41
-49
-40.17
-32.35
-25.57
-19.65
-14.39
-9.74
-5.63
-1.98
1.41
4.83
8.44
12.12
15.46
17.88
18.94
18.5
16.71
13.92
10.5
6.8
3.19
0.16
-1.79
-2.33
-1.57
-0.16
0.94
0.81
-0.94
-3.98
-7.42
-10.32
-12.14
-12.98
-13.44
-14.14
-15.46
-17.33
-19.54
-22.03
-25.2
-29.68
-36
-44.04
-52.83
-60.7
-65.85
-66.94
-63.66
-56.69
-47.46
-37.58
-28.44
-20.93
-15.46
-12.11
-10.83
-11.56
-14.17
-18.48
-24.05
-30.26
-36.31
-41.47
-45.24
-47.45
-48.21
-47.77
-46.42
-44.29
-41.35
-37.46
-32.53
-26.58
-19.78
-12.4
-4.62
3.39
11.46
19.29
26.4
32.23
36.32
38.52
39.14
38.78
38.09
37.56
37.34
37.39
37.52
37.59
37.48
37.03
35.93
33.68
29.71
23.57
15.28
5.49
-4.47
-12.85
-18.07
-19.19
-16.33
-10.57
-3.44
3.61
9.71
14.64
18.57
21.72
24.15
25.8
26.67
26.92
26.91
26.97
27.37
28.12
29.16
30.41
31.84
33.48
35.28
37.19
39.1
41.02
43.09
45.44
48.09
50.72
52.66
53.12
51.45
47.5
41.7
34.85
27.87
21.36
15.43
9.83
4.16
-1.78
-7.91
-13.95
-19.62
-24.78
-29.52
-33.95
-37.99
-41.36
-43.61
-44.4
-43.69
-41.88
-39.64
-37.71
-36.56
-36.11
-35.72
-34.17
-30.1
-22.4
-10.77
3.98
20.06
35.21
47.48
55.78
60.11
61.25
60.24
57.92
54.74
51.01
47.05
43.24
39.86
36.88
33.88
30.21
25.5
19.85
13.92
8.67
4.89
2.9
2.43
2.79
3.2
3.06
2.06
0.22
-2.24
-5.1
-8.13
-11.18
-14.08
-16.63
-18.54
-19.53
-19.43
-18.34
-16.6
-14.68
-12.93
-11.37
-9.66
-7.29
-3.89
0.44
5.11
9.13
11.51
11.53
8.98
4.22
-1.91
-8.16
-13.18
-15.68
-14.88
-10.63
-3.39
5.92
16.21
26.42
35.52
42.6
46.97
48.37
47.12
44.11
40.47
37.19
34.73
33.09
31.89
30.79
29.63
28.38
27.03
25.5
23.73
21.81
19.94
18.41
17.34
16.63
15.97
14.92
13.07
10.12
5.88
0.39
-6.14
-13.19
-20.08
-26.22
-31.39
-35.76
-39.8
-43.88
-47.98
-51.65
-54.21
-55.17
-54.39
-52.2
-49.18
-46.02
-43.36
-41.71
-41.51
-42.92
-45.73
-49.22
-52.19
-53.21
-51.04
-45.03
-35.32
-22.83
-8.9
5.09
18.04
29.38
38.97
46.89
53.11
57.31
58.94
57.56
53.24
46.8
39.7
33.47
29.11
26.63
25.21
23.67
21.14
17.52
13.29
9.19
5.53
2.1
-1.62
-5.95
-10.65
-14.98
-18.18
-20.01
-20.96
-22.06
-24.29
-28.09
-33.2
-38.83
-44.09
-48.4
-51.55
-53.7
-55.1
-56.01
-56.61
-57.15
-57.86
-58.98
-60.58
-62.57
-64.56
-65.94
-65.96
-63.82
-58.91
-51.05
-40.67
-28.82
-16.92
-6.34
2.02
7.95
11.84
14.48
16.56
18.54
20.46
22.19
23.63
24.91
26.31
28.17
30.64
33.57
36.55
39.05
40.65
41.11
40.45
38.84
36.51
33.66
30.4
26.8
22.83
18.5
13.85
9.05
4.44
0.48
-2.39
-3.92
-4.11
-3.29
-1.92
-0.61
0.03
-0.58
-2.96
-7.36
-13.58
-20.93
-28.22
-34.04
-37.1
-36.63
-32.47
-25.08
-15.34
-4.3
7
17.63
26.87
34.28
39.77
43.45
45.52
46.22
45.77
44.4
42.48
40.51
38.87
37.65
36.53
34.92
32.29
28.5
23.86
18.93
14.06
9.13
3.56
-3.23
-11.35
-20.21
-28.65
-35.44
-39.82
-41.85
-42.3
-42.2
-42.35
-43
-43.85
-44.3
-43.81
-42.12
-39.31
-35.73
-31.89
-28.38
-25.73
-24.21
-23.65
-23.25
-21.71
-17.67
-10.2
0.71
13.99
27.86
40.43
50.39
57.37
61.92
64.97
67.4
69.67
71.7
73.1
73.33
71.84
67.99
61.11
50.57
36.25
18.71
-0.63
-19.73
-36.45
-49.08
-56.73
-59.35
-57.57
-52.35
-44.66
-35.35
-25.01
-14.21
-3.54
6.29
14.53
20.5
23.83
24.54
23.1
20.23
16.66
13.03
9.8
7.3
5.71
5.11
5.3
5.93
6.47
6.35
5.19
2.96
0.09
-2.63
-4.16
-3.66
-0.89
3.57
8.39
11.99
13.18
11.77
8.66
5.42
3.48
3.35
4.46
5.47
5.13
2.9
-0.71
-4.51
-7.26
-8.24
-7.41
-5.24
-2.21
1.51
5.97
11.28
17.26
23.32
28.71
32.76
35.24
36.39
36.79
37.04
37.47
37.98
38.14
37.44
35.59
32.68
29.13
25.47
22.08
18.93
15.65
11.63
6.37
-0.3
-8.12
-16.56
-25.06
-33.26
-41.14
-48.92
-56.81
-64.9
-73.03
-80.84
-87.92
-93.91
-98.57
-101.79
-103.63
-104.31
-104.24
-104.02
-104.15
-104.88
-105.87
-106.28
-104.92
-100.69
-93
-81.95
-68.34
-53.37
-38.32
-24.35
-12.26
-2.52
4.81
10.11
14.15
17.9
22.18
27.38
33.18
38.82
43.41
46.48
48.18
49.16
50.22
51.72
53.5
54.91
55.31
54.42
52.48
50.1
47.88
46.24
45.24
44.86
45.03
45.82
47.25
49.19
51.17
52.47
52.4
50.63
47.39
43.51
40.03
37.77
36.95
37.08
37.21
36.37
33.99
30.06
24.99
19.25
13.11
6.62
-0.25
-7.34
-14.34
-20.84
-26.68
-32.06
-37.47
-43.35
-49.69
-55.75
-60.16
-61.38
-58.36
-51.06
-40.59
-28.92
-18.12
-9.69
-4.05
-0.53
2.17
5.26
9.4
14.47
19.82
24.62
28.3
30.69
31.98
32.56
32.84
33.22
34.02
35.44
37.49
39.78
41.5
41.46
38.4
31.56
21.03
7.97
-5.79
-18.29
-28.01
-34.22
-37.07
-37.37
-36.31
-34.86
-33.42
-31.72
-29.19
-25.34
-20.26
-14.76
-10.28
-8.26
-9.47
-13.62
-19.86
-27.25
-35.02
-42.39
-48.24
-51.06
-49.25
-41.71
-28.47
-11.37
6.29
21.06
30.66
34.76
34.66
32.63
31
31.62
34.86
39.55
43.73
45.52
43.73
37.8
27.94
13.67
-2.6
-16.43
-24.22
-25.34
-22.46
-17.96
-13.38
-9.46
-6.28
-3.23
0.12
3.84
7.76
11.65
15.32
18.28
19.96
20.04
18.84
16.96
14.87
12.9
11.24
9.98
8.93
7.78
6.34
4.7
3.03
1.35
-0.4
-2.27
-4.22
-6.23
-8.32
-10.44
-12.39
-14.05
-15.39
-16.46
-17.4
-18.39
-19.77
-22.07
-25.76
-31.09
-37.89
-45.49
-52.72
-58.21
-60.62
-59.14
-53.71
-44.98
-34.22
-22.85
-12.25
-3.32
3.55
8.48
11.91
14.34
16.15
17.63
19.03
20.54
22.34
24.48
26.86
29.25
31.37
32.96
33.91
34.19
33.84
32.86
31.24
28.97
26.1
22.77
19.23
15.77
12.65
10.03
7.95
6.27
4.7
2.92
0.65
-2.21
-5.59
-9.28
-12.94
-16.28
-19.07
-21.26
-22.96
-24.44
-26.09
-28.23
-31.12
-34.79
-39.03
-43.38
-47.18
-49.65
-50.02
-47.72
-42.61
-35.02
-25.78
-15.98
-6.72
1.31
7.87
13.16
17.62
21.61
25.48
29.63
34.68
41.43
50.49
61.87
74.72
87.6
98.92
107.64
113.52
116.9
118.27
117.73
114.91
109.23
100.43
88.87
75.5
61.58
48.21
36.02
25.01
14.72
4.38
-6.84
-19.54
-33.85
-49.36
-65.18
-80.1
-93.04
-103.36
-110.99
-116.37
-120.13
-122.79
-124.56
-125.35
-124.87
-122.77
-118.68
-112.28
-103.38
-92.12
-79.11
-65.48
-52.62
-41.75
-33.53
-27.76
-23.63
-20.03
-16.12
-11.59
-6.73
-2.11
1.77
4.7
6.81
8.49
10.07
11.74
13.43
14.89
15.86
16.24
16.14
15.83
15.63
15.8
16.4
17.31
18.27
18.95
19.15
18.77
17.91
16.77
15.62
14.72
14.19
13.94
13.64
12.88
11.22
8.47
4.81
0.76
-3.03
-5.98
-7.86
-8.77
-9.19
-9.63
-10.47
-11.73
-12.93
-13.11
-11.12
-5.97
2.68
14.32
27.54
40.45
51.18
58.48
62.01
62.29
60.37
57.34
54
50.62
47.13
43.32
39.09
34.67
30.57
27.38
25.47
24.81
24.99
25.39
25.45
24.76
23.11
20.41
16.61
11.79
6.24
0.51
-4.62
-8.37
-10.3
-10.4
-9.09
-7.03
-4.86
-3
-1.63
-0.72
-0.15
0.31
0.88
1.68
2.66
3.56
3.92
3.27
1.26
-2.2
-6.89
-12.27
-17.54
-21.76
-23.97
-23.47
-20.09
-14.33
-7.29
-0.37
5.13
8.43
9.43
8.56
6.53
4.01
1.47
-0.86
-2.96
-4.87
-6.65
-8.29
-9.75
-10.94
-11.74
-12.09
-11.89
-11.09
-9.61
-7.37
-4.37
-0.74
3.24
7.19
10.74
13.66
15.95
17.84
19.64
21.62
23.85
26.18
28.31
29.86
30.6
30.45
29.55
28.19
26.67
25.19
23.8
22.34
20.44
17.71
13.79
8.59
2.31
-4.57
-11.46
-17.87
-23.59
-28.71
-33.5
-38.37
-43.68
-49.75
-56.72
-64.41
-72.16
-78.87
-83.16
-83.8
-80.15
-72.45
-61.77
-49.63
-37.6
-26.87
-18.14
-11.64
-7.29
-4.82
-3.81
-3.71
-3.94
-4.01
-3.56
-2.41
-0.44
2.43
6.32
11.33
17.45
24.47
31.94
39.32
46.08
51.79
56.19
59.08
60.34
59.94
57.99
54.74
50.57
45.87
40.97
36.06
31.26
26.65
22.35
18.53
15.33
12.78
10.75
9.03
7.37
5.62
3.75
1.83
-0.09
-2.05
-4.15
-6.6
-9.51
-12.89
-16.6
-20.45
-24.31
-28.16
-32.02
-35.86
-39.51
-42.75
-45.38
-47.4
-49.04
-50.68
-52.67
-55.14
-57.8
-60.03
-60.99
-59.79
-55.79
-48.75
-38.87
-26.87
-13.8
-0.73
11.45
22.33
32.02
40.89
49.38
57.66
65.57
72.72
78.75
83.54
87.23
90.12
92.45
94.14
94.88
94.31
92.18
88.5
83.44
77.16
69.75
61.18
51.47
40.85
29.71
18.58
7.9
-2.07
-11.27
-19.78
-27.64
-34.89
-41.46
-47.32
-52.42
-56.73
-60.12
-62.31
-62.98
-61.84
-58.83
-54.24
-48.69
-42.98
-37.86
-33.91
-31.38
-30.32
-30.57
-31.85
-33.78
-35.92
-37.83
-39.26
-40.28
-41.27
-42.76
-45.11
-48.25
-51.59
-54.11
-54.74
-52.72
-47.89
-40.74
-32.26
-23.56
-15.62
-9.11
-4.33
-1.36
-0.09
-0.24
-1.42
-3.08
-4.68
-5.82
-6.39
-6.56
-6.65
-6.92
-7.36
-7.75
-7.75
-7.07
-5.69
-3.78
-1.64
0.39
2.05
3.12
3.47
3.08
2.04
0.58
-0.91
-2.01
-2.37
-1.8
-0.32
1.89
4.62
7.69
11.05
14.7
18.61
22.61
26.42
29.74
32.32
34.2
35.6
36.89
38.4
40.24
42.25
44.14
45.62
46.58
47.18
47.76
48.7
50.25
52.43
55
57.46
59.09
59.07
56.75
51.91
45.03
37.27
30.25
25.42
23.55
24.37
26.67
28.81
29.28
27.25
22.66
16.04
8.09
-0.48
-9.2
-17.73
-25.81
-33.31
-40.06
-46
-51.02
-55
-57.82
-59.37
-59.66
-58.95
-57.69
-56.43
-55.63
-55.5
-55.98
-56.7
-57.16
-56.82
-55.28
-52.47
-48.59
-44.13
-39.67
-35.69
-32.49
-30.15
-28.58
-27.67
-27.33
-27.57
-28.44
-30.02
-32.34
-35.39
-39.07
-43.23
-47.71
-52.32
-56.89
-61.33
-65.65
-70
-74.58
-79.38
-83.96
-87.25
-87.66
-83.55
-73.74
-58.14
-37.75
-14.48
9.52
32.45
53.23
71.45
87.11
100.3
111
119.16
124.86
128.4
130.28
131.07
131.11
130.42
128.68
125.45
120.28
112.95
103.48
92.16
79.5
66.3
53.57
42.44
33.9
28.63
26.8
28.16
32.14
37.97
44.76
51.5
57.23
61.1
62.65
61.82
58.94
54.4
48.46
41.07
32
21.05
8.31
-5.69
-20.12
-34.03
-46.67
-57.61
-66.88
-74.76
-81.58
-87.49
-92.23
-95.19
-95.64
-92.9
-86.76
-77.64
-66.56
-54.95
-44.31
-35.78
-29.88
-26.49
-24.98
-24.61
-24.77
-25.09
-25.39
-25.63
-25.76
-25.71
-25.4
-24.74
-23.57
-21.64
-18.67
-14.63
-9.83
-4.99
-1
1.47
2.39
2.45
2.79
4.62
8.69
15.09
23.32
32.63
42.29
51.8
60.87
69.16
76.23
81.47
84.23
84.09
80.94
74.96
66.53
56.11
44.11
31.01
17.43
4.16
-7.74
-17.19
-23.29
-25.56
-24.14
-19.77
-13.64
-7.13
-1.53
2.23
3.72
2.94
0.28
-3.65
-8.16
-12.55
-16.21
-18.7
-19.82
-19.61
-18.38
-16.57
-14.62
-12.76
-10.93
-8.75
-5.73
-1.41
4.29
11.07
18.23
24.94
30.49
34.44
36.58
36.76
34.85
30.69
24.32
16.04
6.49
-3.69
-14.04
-24.5
-35.32
-46.76
-58.81
-71.04
-82.6
-92.48
-99.69
-103.48
-103.52
-100.02
-93.76
-85.91
-77.77
-70.33
-64.03
-58.69
-53.79
-48.79
-43.33
-37.41
-31.22
-25.07
-19.19
-13.77
-8.87
-4.45
-0.29
3.91
8.48
13.61
19.31
25.33
31.29
36.81
41.51
45.08
47.18
47.47
45.68
41.73
35.91
28.82
21.23
13.87
7.12
1.02
-4.66
-10.25
-16.01
-22.03
-28.24
-34.43
-40.17
-44.72
-47.07
-46.09
-40.86
-31.04
-17.08
-0.24
17.81
35.41
51.49
65.67
78.32
90.19
101.95
113.93
125.93
137.38
147.53
155.75
161.64
165.06
166.04
164.62
160.8
154.57
146.04
135.48
123.24
109.63
94.66
78.06
59.36
38.29
15.05
-9.55
-34.25
-57.65
-78.6
-96.49
-111.23
-123.07
-132.34
-139.28
-143.97
-146.39
-146.6
-144.86
-141.75
-138.08
-134.63
-131.8
-129.39
-126.66
-122.38
-115.48
-105.37
-92.25
-77.03
-61.06
-45.6
-31.49
-19.06
-8.12
1.69
10.72
19.15
26.93
33.84
39.67
44.42
48.19
51.28
53.88
55.92
57.05
56.78
54.79
51.19
46.69
42.36
39.3
38.12
38.71
40.32
41.93
42.79
42.73
42.15
41.68
41.82
42.57
43.51
44.06
43.84
42.83
41.26
39.44
37.53
35.53
33.43
31.32
29.33
27.44
25.42
22.79
19.06
13.98
7.75
0.86
-6.1
-12.67
-18.58
-23.72
-27.98
-31.29
-33.77
-35.74
-37.75
-40.34
-43.8
-48.01
-52.55
-56.97
-60.98
-64.7
-68.43
-72.55
-77.27
-82.45
-87.53
-91.54
-93.32
-91.75
-86.2
-76.68
-63.95
-49.27
-34.1
-19.68
-6.9
3.75
12.23
18.86
24.23
28.92
33.24
36.98
39.48
39.95
37.96
33.74
28.17
22.42
17.51
13.96
11.84
10.94
11.03
11.89
13.31
14.81
15.7
15.19
12.8
8.61
3.34
-1.91
-6.12
-8.73
-9.81
-9.93
-9.87
-10.22
-11.27
-12.98
-15.09
-17.26
-19.23
-20.76
-21.77
-22.36
-22.84
-23.65
-25.25
-27.9
-31.55
-35.84
-40.17
-43.86
-46.19
-46.59
-44.73
-40.62
-34.69
-27.69
-20.52
-13.97
-8.49
-4.14
-0.73
2
4.16
5.67
6.47
6.76
7.08
8.21
10.79
14.93
20.02
25.03
28.86
30.91
31.17
29.94
27.44
23.61
18.29
11.76
4.99
-0.53
-3.43
-3.16
-0.31
3.73
7.58
10.45
12.26
13.31
13.82
13.81
13.22
12.16
10.98
9.98
9
7.51
4.93
1.18
-3.03
-6.6
-8.68
-9.11
-8.18
-6.13
-2.7
2.78
10.6
19.99
29.03
35.46
37.83
36.36
32.75
29.1
26.69
25.54
24.93
24.35
24.08
24.92
27.24
30.2
31.83
29.96
23.38
12.65
-0.15
-12.39
-22.06
-28.45
-32.08
-34.02
-35.27
-36.31
-37.23
-37.97
-38.53
-39.04
-39.74
-40.78
-42.06
-43.25
-43.82
-43.32
-41.51
-38.53
-34.89
-31.26
-28.14
-25.63
-23.44
-21.1
-18.33
-15.27
-12.55
-11.01
-11.41
-14.14
-19.05
-25.55
-32.62
-38.88
-42.81
-42.93
-38.28
-28.83
-15.67
-0.76
13.67
25.95
35.34
42.12
47.1
51.04
54.32
56.88
58.54
59.31
59.62
60.13
61.45
63.75
66.69
69.68
72.19
74.07
75.5
76.8
78.16
79.48
80.49
81.02
81.15
81.14
81.2
81.24
80.83
79.39
76.46
71.83
65.44
57.32
47.53
36.29
24.21
12.24
1.43
-7.5
-14.51
-20.19
-25.47
-31.04
-37.06
-43.04
-48.19
-51.79
-53.49
-53.49
-52.32
-50.67
-49.15
-48.15
-47.85
-48.23
-49.18
-50.52
-52.07
-53.67
-55.33
-57.2
-59.63
-63.02
-67.63
-73.4
-79.74
-85.6
-89.65
-90.7
-88.08
-81.8
-72.61
-61.71
-50.47
-40.03
-31.13
-24.05
-18.68
-14.62
-11.34
-8.3
-5.12
-1.61
2.19
6.05
9.74
13.05
15.9
18.26
20.13
21.52
22.46
23
23.29
23.47
23.64
23.89
24.15
24.33
24.32
24.13
23.87
23.86
24.38
25.57
27.24
28.88
29.96
30.18
29.68
28.99
28.67
29.01
29.86
30.74
31.15
30.81
29.7
28
25.82
23.16
19.96
16.15
11.81
7.15
2.46
-2
-6.08
-9.77
-13.28
-16.94
-21.12
-26.1
-31.94
-38.34
-44.73
-50.3
-54.14
-55.45
-53.7
-48.83
-41.36
-32.33
-22.99
-14.51
-7.63
-2.5
1.21
4.09
6.64
9.12
11.54
13.82
15.96
18.17
20.72
23.79
27.26
30.71
33.57
35.34
35.8
34.96
33
29.98
25.94
20.91
15.05
8.82
2.85
-2.23
-6.05
-8.61
-10.31
-11.66
-13.01
-14.31
-15.13
-14.89
-13.22
-10.28
-6.78
-3.68
-1.71
-1.02
-1.07
-0.95
0.11
2.37
5.48
8.72
11.42
13.25
14.14
14.15
13.21
11.13
7.76
3.28
-1.74
-6.52
-10.47
-13.49
-15.88
-18.09
-20.06
-21.1
-19.95
-15.41
-7.03
4.58
17.82
30.79
41.97
50.75
57.34
62.39
66.42
69.57
71.56
72.08
71.07
68.89
66.18
63.56
61.41
59.74
58.3
56.75
54.82
52.44
49.73
46.94
44.34
42.11
40.24
38.54
36.73
34.54
31.96
29.14
26.46
24.3
22.95
22.52
22.93
23.92
25.16
26.31
27.07
27.3
27
26.26
25.19
23.81
22.02
19.73
16.84
13.33
9.17
4.31
-1.45
-8.34
-16.61
-26.4
-37.67
-50.31
-64.01
-78.29
-92.38
-105.1
-115.07
-120.96
-122.01
-118.27
-110.69
-100.75
-90.01
-79.71
-70.54
-62.74
-56.31
-51.21
-47.47
-45.05
-43.75
-43.11
-42.51
-41.29
-38.96
-35.28
-30.27
-24.18
-17.4
-10.35
-3.41
3.08
8.81
13.54
17.08
19.33
20.35
20.38
19.77
18.89
18.02
17.19
16.17
14.61
12.09
8.34
3.33
-2.72
-9.3
-15.72
-21.23
-25.22
-27.47
-28.35
-28.72
-29.7
-32.19
-36.41
-41.75
-46.82
-49.91
-49.61
-45.33
-37.49
-27.35
-16.48
-6.21
2.75
10.4
17.1
23.16
28.59
33.04
36.03
37.24
36.77
35.18
33.27
31.77
31.12
31.4
32.31
33.43
34.32
34.73
34.58
33.94
32.94
31.69
30.26
28.64
26.87
24.96
23.01
21.08
19.19
17.27
15.08
12.29
8.6
3.85
-1.9
-8.35
-15.2
-22.18
-29.19
-36.09
-42.65
-48.48
-53.16
-56.4
-58.26
-59.02
-58.99
-58.17
-56.19
-52.35
-46.07
-37.2
-26.34
-14.72
-3.96
4.37
9.2
10.22
8.08
4.17
0.33
-1.61
-0.32
4.76
13.32
24.32
36.31
47.83
57.74
65.39
70.7
74.08
76.24
77.94
79.8
82.03
84.43
86.46
87.55
87.32
85.69
82.82
78.88
73.88
67.61
59.72
49.89
37.97
24.02
8.19
-9.29
-28.08
-47.64
-67.16
-85.64
-102.2
-116.33
-128.09
-138.03
-146.88
-155.11
-162.64
-168.72
-172.12
-171.54
-166.01
-155.2
-139.64
-120.55
-99.8
-79.45
-61.41
-46.86
-36.05
-28.23
-22
-15.8
-8.45
0.72
11.79
24.59
38.87
54.44
71.02
88.05
104.53
119.21
131.03
139.56
145.23
149.15
152.27
154.61
154.82
150.46
139.09
119.47
92.18
59.39
24.05
-10.91
-42.95
-69.82
-89.5
-100.6
-102.97
-98.17
-89.13
-79.07
-70.33
-63.46
-57.43
-50.57
-41.78
-31.31
-20.81
-12.79
-9.74
-13.22
-23.19
-37.88
-54.4
-69.61
-81.18
-87.85
-89.02
-83.95
-71.41
-50.22
-20.51
15.18
51.9
83.6
105.36
115.21
114.6
107.34
97.8
89.04
82.23
76.97
72.45
68.13
64.28
61.58
60.62
61.42
63.46
65.86
67.84
68.99
69.15
68.37
66.6
63.76
59.86
55.12
50.05
45.28
41.44
38.9
37.61
37.2
36.91
35.84
33.13
28.18
20.79
11.2
-0.05
-12.35
-25.22
-38.44
-51.93
-65.6
-79.23
-92.4
-104.61
-115.41
-124.53
-131.94
-137.79
-142.39
-146.19
-149.64
-152.96
-155.95
-157.81
-157.2
-152.63
-142.95
-127.92
-108.38
-86.15
-63.47
-42.36
-24.12
-9.13
2.94
12.69
20.69
27.13
31.92
34.86
35.79
34.77
32.13
28.37
24.1
19.9
16.26
13.5
11.82
11.23
11.63
12.77
14.27
15.68
16.61
16.86
16.56
16.15
16.25
17.36
19.75
23.38
28.01
33.47
39.69
46.76
54.91
64.23
74.63
85.8
97.22
108.36
118.76
128.01
135.77
141.74
145.62
147.29
146.84
144.67
141.3
137.13
132.14
125.88
117.66
107.11
94.5
80.85
67.41
55.06
43.8
32.79
20.94
7.38
-8.04
-24.77
-41.88
-58.31
-72.99
-84.89
-92.9
-96.13
-94.17
-87.38
-76.97
-64.65
-52.23
-41.06
-31.88
-24.82
-19.57
-15.58
-12.21
-8.87
-5.17
-1.03
3.31
7.4
10.71
12.91
13.96
14.15
13.9
13.52
12.94
11.72
9.23
5.04
-0.81
-7.75
-14.88
-21.29
-26.4
-30.06
-32.44
-33.84
-34.52
-34.68
-34.52
-34.3
-34.31
-34.78
-35.72
-36.94
-38.14
-39
-39.32
-39.06
-38.32
-37.29
-36.26
-35.56
-35.58
-36.56
-38.63
-41.71
-45.56
-49.9
-54.49
-59.22
-64.04
-68.92
-73.78
-78.37
-82.22
-84.57
-84.43
-80.94
-73.59
-62.6
-49
-34.25
-19.93
-7.15
3.66
12.67
20.37
27.21
33.42
38.88
43.4
46.86
49.41
51.48
53.59
56.16
59.23
62.45
65.21
66.99
67.61
67.3
66.54
65.78
65.19
64.64
63.81
62.38
60.12
56.88
52.47
46.73
39.63
31.39
22.5
13.57
4.98
-3.24
-11.45
-20.18
-29.89
-40.84
-53.04
-66.24
-79.9
-93.13
-104.73
-113.37
-118.08
-118.65
-115.76
-110.82
-105.34
-100.29
-95.7
-90.67
-83.75
-73.62
-59.56
-41.82
-21.58
-0.63
19.04
35.66
47.85
54.67
55.61
50.71
40.84
27.9
14.83
4.93
0.91
3.72
12.02
22.6
31.71
36.66
36.85
33.81
29.99
27.45
26.79
27.22
27.35
26.25
24.11
22.01
21.19
22.28
25.1
29.13
34.16
40.53
48.6
58.02
67.16
73.41
74.41
69.27
59.2
47.07
35.9
27.53
21.9
17.54
12.66
6.27
-1.51
-9.77
-17.42
-23.67
-28.07
-30.31
-30.04
-26.95
-20.99
-12.62
-2.82
7.09
15.84
22.52
26.84
29.16
30.29
31.29
33.1
36.27
40.92
46.7
52.98
59.04
64.2
67.95
70.1
70.73
70.21
68.98
67.32
65.21
62.45
58.7
53.87
48.1
41.79
35.4
29.22
23.28
17.38
11.2
4.36
-3.34
-11.93
-21.12
-30.47
-39.37
-47.33
-54.17
-60.12
-65.82
-72.16
-79.91
-89.46
-100.46
-111.74
-121.45
-127.46
-128.01
-122.36
-111.16
-96.38
-80.64
-66.45
-55.34
-47.61
-42.46
-38.56
-34.66
-30.03
-24.55
-18.52
-12.34
-6.21
-0.1
6.14
12.54
18.92
24.81
29.78
33.69
36.77
39.55
42.45
45.46
48.01
49.31
48.74
46.36
42.87
39.22
36
33.09
29.67
24.81
17.98
9.44
0.18
-8.51
-15.57
-20.52
-23.54
-25.29
-26.7
-28.57
-31.46
-35.41
-39.93
-44.03
-46.43
-45.94
-41.86
-34.27
-23.96
-12.18
-0.16
11.23
21.68
31.33
40.45
49.24
57.53
64.87
70.72
74.75
76.97
77.8
77.83
77.53
77.13
76.5
75.38
73.65
71.53
69.62
68.65
69.16
71.17
74.15
77.22
79.43
80.08
78.87
75.77
70.98
64.67
56.97
47.85
37.25
25.27
12.17
-1.54
-15.25
-28.46
-40.91
-52.68
-64.05
-75.39
-86.9
-98.67
-110.72
-123.11
-135.88
-148.93
-161.64
-172.75
-180.45
-182.84
-178.64
-167.71
-151.2
-131.13
-109.75
-88.74
-68.88
-50.21
-32.43
-15.49
0.23
14.07
25.4
34.05
40.36
45.02
48.77
52.1
55.22
58.1
60.64
62.76
64.47
65.78
66.73
67.32
67.53
67.29
66.44
64.81
62.18
58.48
53.85
48.64
43.32
38.28
33.66
29.32
24.97
20.35
15.47
10.57
6.02
2.11
-1.13
-3.97
-6.86
-10.21
-14.23
-18.84
-23.78
-28.73
-33.42
-37.74
-41.76
-45.66
-49.72
-54.3
-59.67
-66.01
-73.16
-80.5
-86.95
-91.09
-91.63
-87.79
-79.65
-68.2
-55.01
-41.82
-29.93
-20.03
-12.14
-5.89
-0.85
3.28
6.71
9.58
12.06
14.41
16.82
19.35
21.92
24.3
26.34
28.02
29.47
30.96
32.65
34.54
36.41
37.92
38.72
38.65
37.73
36.22
34.44
32.79
31.56
30.9
30.77
30.93
31
30.55
29.22
26.84
23.49
19.48
15.2
11.04
7.23
3.84
0.79
-2.06
-4.82
-7.49
-10.01
-12.3
-14.35
-16.27
-18.31
-20.69
-23.56
-26.89
-30.48
-34.06
-37.4
-40.4
-43.19
-46.11
-49.69
-54.43
-60.62
-68.06
-75.9
-82.64
-86.5
-85.93
-80.16
-69.51
-55.37
-39.73
-24.6
-11.44
-0.87
7.3
13.7
19.03
23.69
27.81
31.29
34.17
36.68
39.24
42.24
45.81
49.67
53.28
56.08
57.77
58.39
58.3
57.89
57.44
57.01
56.47
55.61
54.24
52.34
50.03
47.57
45.26
43.34
41.84
40.59
39.28
37.63
35.51
33.05
30.51
28.18
26.26
24.71
23.34
21.78
19.72
16.91
13.35
9.23
4.87
0.6
-3.42
-7.25
-11.12
-15.28
-19.8
-24.6
-29.42
-34.06
-38.43
-42.67
-46.92
-51.36
-56.05
-61.05
-66.49
-72.58
-79.44
-86.89
-94.27
-100.43
-103.97
-103.62
-98.73
-89.49
-76.91
-62.6
-48.23
-35.18
-24.23
-15.52
-8.74
-3.34
1.21
5.33
9.24
13.09
16.92
20.73
24.47
28.06
31.51
34.85
38.19
41.57
44.92
48.01
50.58
52.42
53.48
53.9
53.9
53.69
53.36
52.92
52.32
51.58
50.72
49.81
48.81
47.6
46
43.86
41.15
37.99
34.6
31.17
27.79
24.38
20.84
17.09
13.13
9.14
5.24
1.57
-1.9
-5.3
-8.83
-12.63
-16.81
-21.37
-26.23
-31.22
-36.12
-40.67
-44.71
-48.22
-51.47
-54.96
-59.34
-65.1
-72.28
-80.23
-87.6
-92.66
-93.77
-89.95
-81.15
-68.34
-53.12
-37.34
-22.6
-9.98
0.04
7.6
13.25
17.78
21.95
26.27
30.88
35.56
39.85
43.33
45.8
47.31
48.09
48.39
48.37
48.04
47.29
