4.04
0.11
-4.12
-8.55
-13.08
-17.54
-21.78
-25.71
-29.35
-32.89
-36.5
-40.32
-44.15
-47.44
-49.4
-49.28
-46.71
-41.9
-35.6
-28.81
-22.37
-16.74
-11.92
-7.72
-3.98
-0.74
1.84
3.6
4.58
5.06
5.45
6.16
7.37
8.98
10.64
11.91
12.45
12.18
11.23
9.94
8.58
7.26
5.92
4.41
2.68
0.84
-0.92
-2.47
-3.85
-5.28
-7
-9.13
-11.58
-14.16
-16.63
-18.82
-20.52
-21.43
-21.04
-18.83
-14.53
-8.41
-1.29
5.7
11.54
15.76
18.52
20.43
22.14
23.92
25.5
26.27
25.54
23.03
18.96
14.02
9.04
4.68
1.18
-1.59
-3.99
-6.29
-8.53
-10.58
-12.39
-14.07
-15.91
-18.21
-20.95
-23.71
-25.81
-26.64
-26.01
-24.24
-21.98
-19.86
-18.24
-17.17
-16.54
-16.28
-16.35
-16.57
-16.52
-15.51
-12.96
-8.7
-3.19
2.58
7.66
11.56
14.52
17.29
20.61
24.71
29.11
32.9
35.23
35.77
34.88
33.36
32.01
31.27
31.09
31.04
30.63
29.6
27.98
26.01
23.9
21.77
19.59
17.22
14.54
11.51
8.2
4.72
1.24
-2.1
-5.15
-7.87
-10.27
-12.43
-14.46
-16.51
-18.71
-21.17
-23.96
-27.1
-30.41
-33.56
-36.02
-37.23
-36.74
-34.43
-30.51
-25.47
-19.95
-14.52
-9.5
-4.99
-0.9
2.93
6.61
10.09
13.21
15.75
17.59
18.79
19.6
20.3
21.1
22.01
22.87
23.5
23.81
23.87
23.82
23.82
23.95
24.24
24.69
25.33
26.17
27.09
27.85
28.22
28.09
27.6
27.03
26.7
26.7
26.9
27.08
27.08
27
27.1
27.63
28.66
29.94
30.92
31.01
29.8
27.25
23.74
19.97
16.67
14.37
13.18
12.78
12.48
11.51
9.24
5.37
0.04
-6.24
-12.74
-18.77
-24
-28.6
-33.2
-38.56
-45.18
-52.94
-61.08
-68.42
-73.81
-76.45
-76.13
-73.11
-67.97
-61.34
-53.86
-46.07
-38.5
-31.57
-25.58
-20.6
-16.56
-13.24
-10.39
-7.83
-5.49
-3.39
-1.59
-0.08
1.28
2.69
4.35
6.27
8.35
10.34
12.05
13.35
14.23
14.69
14.74
14.41
13.77
13.06
12.54
12.42
12.68
13.08
13.16
12.59
11.31
9.6
8.02
7.03
6.83
7.17
7.46
7.03
5.48
2.82
-0.6
-4.31
-7.89
-11.21
-14.25
-16.97
-19.2
-20.68
-21.22
-20.89
-20.11
-19.52
-19.76
-21.24
-23.98
-27.66
-31.74
-35.6
-38.71
-40.58
-40.86
-39.25
-35.56
-29.91
-22.82
-15.3
-8.61
-3.95
-2
-2.75
-5.59
-9.55
-13.7
-17.36
-19.97
-21
-19.75
-15.43
-7.48
3.89
17.45
31.03
42.17
48.83
50.08
46.12
37.91
26.67
13.38
-1.21
-16.28
-30.83
-43.74
-54.26
-62.34
-68.66
-74.13
-79.25
-83.58
-85.85
-84.65
-79.17
-69.83
-58.16
-46.19
-35.5
-26.57
-18.61
-9.87
1.32
15.4
30.89
44.46
52.09
50.78
40.02
22.37
2.79
-12.95
-19.93
-15.29
1.33
28.18
61.98
98.54
133.46
162.83
183.92
195.58
198.07
192.35
179.38
159.96
135.37
108.21
82.68
63.73
55.41
59.15
72.86
91.61
109.62
122.3
127.81
127.12
122.95
118.2
114.99
114.26
116.2
120.7
127.4
135.17
141.7
143.72
138.25
124.07
102.5
76.63
49.41
21.98
-6.69
-38.36
-73.18
-108.49
-139.33
-160.82
-170.66
-170.32
-164.06
-156.62
-151.13
-148.26
-147
-146.05
-144.77
-143.27
-141.77
-140.07
-137.4
-132.76
-125.52
-115.71
-104.04
-91.67
-79.81
-69.41
-61.01
-54.64
-49.74
-45.39
-40.56
-34.64
-27.73
-20.69
-14.73
-10.72
-8.7
-7.71
-6.3
-3.14
2.27
9.5
17.4
24.66
30.36
34.21
36.49
37.84
39.02
40.65
42.99
45.88
48.79
50.98
51.91
51.39
49.63
47.06
44.18
41.41
39.2
37.82
36.88
34.78
28.58
14.75
-9.01
-42.12
-80.52
-118.04
-149
-170.59
-183.65
-191.57
-198.2
-205.98
-215.24
-224.84
-233.16
-238.81
-240.6
-237.48
-228.44
-212.84
-190.63
-162.56
-129.94
-94.54
-58.53
-24.21
6.22
31.38
51.25
67.07
80.65
93.44
106.18
118.77
130.68
141.05
148.73
152.21
150.02
141.44
127.25
109.84
92.38
77.47
65.95
56.74
47.67
36.77
23.32
8.11
-7.12
-20.61
-31.23
-38.71
-43.43
-45.98
-46.84
-46.24
-44.24
-41.03
-37.11
-33.28
-30.46
-29.44
-30.6
-33.82
-38.51
-43.8
-48.63
-52.02
-53.15
-51.57
-47.29
-40.82
-33.01
-24.74
-16.67
-8.99
-1.57
5.88
13.55
21.33
28.91
35.95
42.17
47.51
51.96
55.58
58.32
60.1
60.89
60.78
59.95
58.74
57.44
56.23
55.13
53.98
52.44
50.15
46.76
42.05
36
28.79
20.88
12.85
5.35
-1.13
-6.4
-10.63
-14.32
-18.03
-22.14
-26.64
-31.06
-34.61
-36.41
-35.72
-32.11
-25.54
-16.4
-5.39
6.58
18.6
29.83
39.67
47.76
54.01
58.53
61.57
63.53
64.78
65.63
66.3
66.91
67.57
68.43
69.61
71.19
72.96
74.51
75.31
75.02
73.65
71.59
69.36
67.28
65.23
62.73
59.15
54.18
47.92
40.86
33.61
26.68
20.35
14.8
10.15
6.45
3.59
1.04
-2.01
-6.34
-12.35
-19.61
-26.99
-32.99
-36.31
-36.27
-32.96
-27.08
-19.6
-11.56
-3.76
3.21
9.04
13.67
17.26
20.09
22.42
24.37
25.9
26.89
27.26
27.08
26.59
26.04
25.61
25.33
25.03
24.55
23.78
22.69
21.32
19.69
17.73
15.27
12.11
8.1
3.23
-2.32
-8.18
-13.82
-18.67
-22.25
-24.25
-24.59
-23.49
-21.4
-18.94
-16.73
-15.25
-14.68
-14.69
-14.56
-13.34
-10.24
-4.99
1.96
9.5
16.27
21.13
23.56
23.79
22.73
21.58
21.52
23.36
27.38
33.29
40.38
47.69
54.29
59.46
62.87
64.61
65.07
64.78
64.27
63.84
63.47
62.79
61.13
57.83
52.51
45.3
36.91
28.39
20.69
14.31
9.15
4.6
-0.04
-5.22
-11.03
-17.29
-23.85
-30.73
-38.17
-46.37
-55.27
-64.48
-73.52
-82
-89.84
-97.13
-103.87
-109.72
-113.99
-115.95
-115.27
-112.25
-107.66
-102.28
-96.39
-89.55
-80.87
-69.57
-55.5
-39.38
-22.53
-6.49
7.48
18.56
26.43
31.03
32.52
31.22
27.78
23.3
19.36
17.66
19.53
25.3
33.99
43.42
50.84
53.91
51.59
44.46
34.36
23.58
13.97
6.34
0.58
-3.95
-7.75
-10.93
-13.24
-14.5
-14.83
-14.82
-15.17
-16.35
-18.27
-20.44
-22.28
-23.46
-24.06
-24.28
-24.15
-23.33
-21.19
-17.27
-11.55
-4.6
2.71
9.56
15.54
20.77
25.68
30.74
36.1
41.54
46.48
50.17
51.92
51.44
48.94
45.13
41.05
37.62
35.42
34.54
34.74
35.68
37.02
38.55
39.93
40.73
40.43
38.66
35.39
31.11
26.58
22.6
19.66
17.84
16.98
16.91
17.72
19.68
23.17
28.33
34.91
42.23
49.19
54.51
56.93
55.46
49.55
39.23
25.13
8.39
-9.49
-26.83
-41.98
-53.58
-60.77
-63.31
-61.76
-57.3
-51.49
-45.93
-41.89
-40.06
-40.35
-42.04
-43.92
-44.74
-43.67
-40.73
-36.87
-33.46
-31.79
-32.28
-34.42
-37.06
-39.1
-40.07
-40.24
-40.21
-40.41
-40.78
-40.91
-40.45
-39.45
-38.36
-37.69
-37.61
-37.7
-37.16
-35.26
-31.81
-27.29
-22.71
-19.14
-17.38
-17.58
-19.29
-21.61
-23.68
-24.95
-25.46
-25.56
-25.58
-25.39
-24.27
-21.19
-15.41
-7.01
3.01
13.11
21.87
28.54
33.19
36.41
38.76
40.4
41.08
40.42
38.37
35.32
32.05
29.35
27.7
27.08
27.09
27.23
27.16
26.8
26.26
25.59
24.64
22.99
20.21
16.05
10.7
4.69
-1.37
-7.11
-12.46
-17.62
-22.75
-27.76
-32.24
-35.76
-38.13
-39.6
-40.72
-42.09
-43.95
-46.19
-48.43
-50.34
-51.74
-52.64
-53
-52.61
-51.14
-48.37
-44.34
-39.55
-34.68
-30.4
-27.03
-24.54
-22.68
-21.21
-20.08
-19.36
-19.16
-19.47
-20.15
-20.89
-21.44
-21.61
-21.36
-20.64
-19.28
-16.9
-13.04
-7.44
-0.25
7.78
15.55
21.99
26.5
29.19
30.68
31.71
32.66
33.42
33.51
32.5
30.31
27.29
24.08
21.26
19.1
17.4
15.66
13.32
10.13
6.37
2.82
0.48
0.13
1.95
5.42
9.64
13.77
17.44
20.73
23.95
27.16
30.06
32.08
32.8
32.36
31.38
30.73
31.04
32.36
34.2
35.85
36.77
36.93
36.66
36.4
36.4
36.53
36.43
35.78
34.42
32.49
30.25
27.9
25.54
23.17
20.71
18.2
15.69
13.2
10.64
7.82
4.54
0.71
-3.62
-8.31
-13.19
-18.05
-22.65
-26.63
-29.49
-30.75
-30.11
-27.68
-24.02
-20
-16.41
-13.68
-11.8
-10.37
-8.97
-7.38
-5.68
-4.13
-2.9
-1.98
-1.2
-0.28
0.91
2.4
4.1
5.91
7.74
9.48
11.01
12.12
12.71
12.74
12.34
11.64
10.82
9.96
9.12
8.42
8
8.04
8.56
9.41
10.24
10.65
10.31
9.14
7.34
5.2
3.06
1.11
-0.7
-2.57
-4.84
-7.71
-11.24
-15.12
-18.83
-21.75
-23.45
-23.77
-22.92
-21.33
-19.5
-17.91
-16.94
-16.87
-17.77
-19.48
-21.54
-23.27
-24.06
-23.58
-22.04
-20.03
-18.31
-17.47
-17.72
-18.85
-20.54
-22.5
-24.64
-27
-29.55
-32.13
-34.42
-36.08
-36.92
-37.06
-36.85
-36.8
-37.31
-38.52
-40.32
-42.44
-44.68
-46.98
-49.5
-52.49
-56.01
-59.77
-63.07
-64.97
-64.67
-61.76
-56.45
-49.44
-41.63
-33.75
-26.27
-19.31
-12.87
-6.92
-1.49
3.44
8.01
12.5
17.3
22.64
28.58
34.94
41.4
47.66
53.46
58.61
62.93
66.26
68.53
69.73
70
69.55
68.58
67.13
65.11
62.31
58.56
53.91
48.65
43.28
38.24
33.78
29.71
25.58
20.8
14.95
7.96
0.12
-8
-15.77
-22.69
-28.48
-33.12
-36.83
-39.98
-42.97
-46.07
-49.23
-52.11
-54.11
-54.64
-53.34
-50.24
-45.67
-40.17
-34.24
-28.34
-22.82
-18.04
-14.39
-12.11
-11.14
-11.09
-11.33
-11.26
-10.6
-9.46
-8.25
-7.35
-7.01
-7.17
-7.68
-8.37
-9.1
-9.78
-10.24
-10.29
-9.77
-8.69
-7.23
-5.65
-4.12
-2.66
-1.18
0.31
1.7
2.73
3.25
3.33
3.22
3.35
4.08
5.69
8.3
11.97
16.56
21.75
26.99
31.59
34.9
36.56
36.55
35.13
32.76
29.91
26.99
24.39
22.43
21.4
21.44
22.5
24.31
26.35
28.06
28.84
28.32
26.42
23.36
19.61
15.72
12.14
9.11
6.66
4.69
3.08
1.79
0.82
0.13
-0.45
-1.18
-2.32
-4.1
-6.5
-9.29
-12.12
-14.7
-16.89
-18.83
-20.86
-23.34
-26.4
-29.81
-33.02
-35.32
-36.13
-35.17
-32.61
-28.91
-24.62
-20.23
-16.05
-12.24
-8.93
-6.29
-4.49
-3.66
-3.7
-4.38
-5.32
-6.16
-6.66
-6.65
-6.16
-5.28
-4.19
-3.12
-2.25
-1.7
-1.41
-1.2
-0.89
-0.43
0.05
0.2
-0.36
-1.83
-4.19
-7.17
-10.37
-13.46
-16.24
-18.68
-20.93
-23.15
-25.47
-27.84
-29.99
-31.43
-31.63
-30.17
-26.93
-22.1
-16.14
-9.63
-3.2
2.59
7.32
10.7
12.64
13.25
12.86
11.83
10.57
9.31
8.16
7.14
6.22
5.51
5.19
5.56
6.89
9.35
12.81
16.94
21.24
25.25
28.63
31.24
33.11
34.3
34.94
35.13
34.93
34.41
33.52
32.04
29.71
26.31
21.89
16.83
11.75
7.3
3.94
1.72
0.39
-0.57
-1.76
-3.7
-6.72
-10.79
-15.46
-19.87
-23.03
-24.05
-22.52
-18.71
-13.38
-7.48
-1.83
3.18
7.49
11.2
14.34
16.86
18.63
19.69
20.33
20.9
21.71
22.78
23.8
24.31
23.99
22.82
21.17
19.61
18.55
18.09
17.93
17.54
16.45
14.47
11.8
8.94
6.42
4.61
3.64
3.41
3.64
4.03
4.33
4.39
4.23
4.03
4.11
4.79
6.19
8.18
10.3
11.92
12.53
11.95
10.6
9.36
9.39
11.7
16.78
24.5
34.13
44.59
54.74
63.59
70.37
74.55
75.8
74.1
69.76
63.36
55.6
47.01
37.91
28.44
18.92
9.98
2.55
-2.54
-4.98
-5.2
-4.21
-3.11
-2.62
-2.88
-3.53
-4.03
-3.94
-3.1
-1.68
-0.08
0.99
0.65
-2.03
-7.57
-15.81
-25.81
-36.12
-45.36
-52.75
-58.36
-62.95
-67.56
-72.93
-79.22
-85.95
-92.16
-96.72
-98.65
-97.22
-92.02
-83.06
-70.68
-55.71
-39.21
-22.28
-5.53
11.2
28.7
47.83
68.58
89.58
108.25
121.79
128.42
128.08
122.36
113.5
103.4
92.96
82.37
71.73
61.64
53.17
47.25
44.08
42.77
41.77
39.68
35.97
31.21
26.67
23.71
23.06
24.51
26.9
28.59
28.06
24.42
17.58
8.16
-2.91
-14.79
-26.81
-38.49
-49.54
-59.98
-70.17
-80.89
-92.86
-106.16
-119.79
-131.77
-139.7
-141.8
-137.73
-128.76
-117.12
-105.02
-93.7
-83.34
-73.42
-63.32
-52.8
-42.11
-31.81
-22.41
-14.1
-6.53
0.87
8.58
16.89
25.99
36.06
47.2
59.32
71.78
83.76
93.66
99.47
99.61
93.76
82.98
69.2
54.42
40.21
28.38
19.82
14.5
12.18
13.03
17.66
26.51
39.16
54.09
70.21
85.4
96.77
102.17
101.6
97.22
92.12
88.97
88.98
93.61
102.22
112.08
120.01
124
123.44
118.09
107.37
79.8
33.43
-22.37
-72.68
-106.62
-121.41
-120.61
-110.84
-98.85
-89.47
-83.11
-78.63
-76.25
-77.12
-82.09
-90.78
-101.76
-113.23
-123.75
-131.58
-134.64
-133.92
-131.76
-130.19
-130.11
-131.4
-133.42
-135.38
-135.69
-133.53
-129.54
-124.85
-120.04
-114.79
-108.05
-98.64
-85.85
-69.24
-49.22
-27.16
-4.48
17.91
39.5
59.78
77.91
92.66
102.97
108.23
108.43
104.53
98.11
90.77
83.55
76.79
70.3
63.97
57.98
52.79
48.88
46.34
44.78
43.52
42.01
40.22
38.46
37.11
36.2
35.29
33.72
31.14
27.78
24.41
21.88
20.66
20.46
20.42
19.56
17.28
13.68
9.6
6.24
4.68
5.52
8.63
13.25
18.27
22.52
25.15
25.77
24.46
21.68
18.11
14.42
11.2
8.85
7.52
7.15
7.45
7.99
8.31
8.07
7.16
5.79
4.33
3.12
2.39
2.01
1.59
0.52
-1.89
-6.28
-13.09
-22.39
-33.71
-46.04
-58.06
-68.5
-76.55
-82.08
-85.59
-87.78
-89.09
-89.51
-88.5
-85.4
-79.76
-71.61
-61.53
-50.41
-39.26
-28.88
-19.76
-11.99
-5.43
0.18
5.01
9.06
12.1
13.93
14.5
14.06
13.06
12.08
11.52
11.54
12.05
12.83
13.71
14.59
15.49
16.43
17.29
17.95
18.2
17.95
17.15
15.78
13.82
11.15
7.76
3.69
-0.92
-5.92
-11.26
-16.97
-23.13
-29.68
-36.37
-42.8
-48.39
-52.58
-54.82
-54.65
-51.86
-46.6
-39.58
-31.97
-25.11
-20.03
-17.04
-15.63
-14.88
-13.94
-12.45
-10.56
-8.65
-6.84
-4.89
-2.25
1.57
6.75
13.02
19.83
26.47
32.29
36.72
39.34
39.96
38.86
36.71
34.48
33.03
32.76
33.36
34.01
33.74
31.93
28.61
24.47
20.47
17.56
16.31
16.81
18.75
21.6
24.77
27.72
30.05
31.47
31.91
31.4
30.16
28.62
27.26
26.64
27.19
29.04
31.87
34.93
37.16
37.54
35.47
31.07
25.13
18.88
13.5
9.75
7.85
7.48
8.1
9.12
10.04
10.41
9.83
7.9
4.36
-0.8
-7.25
-14.42
-21.51
-27.68
-32.1
-34.11
-33.3
-29.69
-23.8
-16.58
-9.18
-2.61
2.56
6.29
8.93
10.96
12.77
14.61
16.65
19.08
22.04
25.46
28.88
31.41
31.97
29.84
25.03
18.45
11.6
5.98
2.46
1.01
0.82
0.79
0.09
-1.5
-3.75
-6.14
-8.3
-10.1
-11.64
-13.09
-14.53
-15.94
-17.3
-18.58
-19.72
-20.55
-20.74
-19.84
-17.43
-13.33
-7.71
-1.09
5.87
12.43
17.94
21.9
24.02
24.21
22.71
20
16.78
13.83
11.76
10.91
11.33
12.73
14.65
16.55
17.91
18.34
17.7
16.1
13.83
11.27
8.77
6.55
4.7
3.2
1.94
0.85
-0.12
-1.02
-1.85
-2.69
-3.7
-5.09
-7.16
-10.15
-14.06
-18.54
-22.96
-26.48
-28.42
-28.38
-26.34
-22.64
-17.76
-12.24
-6.62
-1.43
2.79
5.66
7.04
7.14
6.47
5.61
4.97
4.67
4.51
4.27
3.86
3.49
3.5
4.26
5.87
8.12
10.63
12.96
14.85
16.21
17.04
17.39
17.21
16.48
15.15
13.31
11.12
8.82
6.64
4.79
3.39
2.44
1.81
1.21
0.34
-1.05
-3.06
-5.56
-8.3
-10.99
-13.4
-15.42
-16.99
-18.14
-19.03
-19.93
-21.26
-23.33
-26.15
-29.32
-32.11
-33.65
-33.33
-30.96
-26.84
-21.61
-15.97
-10.55
-5.78
-1.93
0.86
2.6
3.43
3.57
3.29
2.81
2.31
1.92
1.78
2
2.67
3.78
5.24
6.84
8.37
9.63
10.51
10.96
10.99
10.62
9.93
9.03
8.03
7.05
6.14
5.36
4.71
4.21
3.83
3.48
3.04
2.34
1.34
0.15
-1.01
-1.88
-2.35
-2.47
-2.49
-2.68
-3.18
-4.05
-5.19
-6.49
-7.91
-9.41
-11.07
-12.94
-15.09
-17.49
-20.04
-22.52
-24.67
-26.17
-26.74
-26.25
-24.72
-22.31
-19.28
-15.9
-12.38
-8.78
-5.07
-1.18
2.86
6.95
10.89
14.59
18.04
21.44
25.03
29.07
33.66
38.8
44.36
50.11
55.66
60.52
64.1
66.04
66.36
65.51
64.3
63.45
63.34
63.83
64.45
64.7
64.36
63.55
62.58
61.71
60.92
59.92
58.34
55.95
52.75
48.88
44.34
38.93
32.23
23.83
13.66
2.14
-9.95
-21.71
-32.57
-42.44
-51.73
-61.01
-70.84
-81.45
-92.66
-104
-114.69
-123.81
-130.52
-134.27
-134.95
-132.98
-129.13
-124.27
-119.12
-114.1
-109.37
-104.91
-100.68
-96.63
-92.65
-88.49
-83.85
-78.44
-72.17
-65.18
-57.79
-50.33
-43.06
-36.07
-29.32
-22.77
-16.55
-10.94
-6.36
-3.14
-1.37
-0.82
-0.92
-1.06
-0.87
-0.34
0.2
0.34
-0.16
-1.21
-2.47
-3.66
-4.79
-6.15
-8.21
-11.23
-15.09
-19.25
-23.06
-26.06
-28.17
-29.72
-31.28
-33.39
-36.43
-40.48
-45.35
-50.57
-55.4
-59.02
-60.6
-59.55
-55.67
-49.25
-40.89
-31.45
-21.76
-12.58
-4.48
2.14
7.12
10.58
12.83
14.32
15.5
16.73
18.2
19.96
21.91
23.88
25.77
27.52
29.27
31.15
33.3
35.65
37.86
39.48
40.03
39.34
37.56
35.08
32.3
29.44
26.5
23.37
19.96
16.31
12.53
8.79
5.16
1.65
-1.78
-5.12
-8.25
-11.09
-13.67
-16.21
-19.14
-22.91
-27.79
-33.6
-39.67
-44.9
-48.06
-48.13
-44.67
-37.94
-28.83
-18.57
-8.37
0.8
8.4
14.23
18.33
20.85
21.99
22
21.23
20.12
19.11
18.61
18.8
19.71
21.27
23.35
25.83
28.63
31.64
34.66
37.45
39.72
41.24
41.83
41.45
40.1
37.86
34.88
31.42
27.81
24.39
21.42
18.93
16.71
14.45
11.86
8.89
5.75
2.81
0.31
-1.75
-3.77
-6.37
-10.08
-15
-20.57
-25.64
-28.84
-29.15
-26.24
-20.63
-13.39
-5.74
1.45
7.82
13.47
18.61
23.38
27.68
31.36
34.39
36.93
39.24
41.55
43.93
46.35
48.71
50.96
53.09
55.06
56.72
57.84
58.18
57.58
56.02
53.64
50.58
47.05
43.24
39.3
35.41
31.63
28.02
24.54
21.17
17.87
14.52
10.9
6.62
1.3
-5.31
-13.26
-22.32
-32.05
-41.87
-51.15
-59.33
-65.99
-70.99
-74.48
-76.76
-78.01
-78.1
-76.59
-72.96
-67.02
-59.14
-50.27
-41.52
-33.63
-26.68
-20.21
-13.63
-6.68
0.39
7.01
12.66
17.14
20.71
23.72
26.48
29.1
31.66
34.41
37.84
42.55
48.84
56.4
64.35
71.46
76.68
79.45
79.76
77.97
74.42
69.26
62.44
53.85
43.63
32.22
20.29
8.53
-2.61
-13.05
-23.07
-33.1
-43.61
-54.79
-66.57
-78.46
-89.69
-99.22
-105.94
-108.85
-107.25
-100.96
-90.44
-76.71
-61.25
-45.68
-31.45
-19.63
-10.66
-4.37
-0.13
2.96
5.7
8.61
11.81
15.18
18.42
21.24
23.51
25.27
26.78
28.4
30.5
33.25
36.55
39.94
42.83
44.73
45.42
45.1
44.25
43.42
43.01
43.19
43.91
45.02
46.41
48.01
49.73
51.46
52.95
53.75
53.26
50.79
45.79
38.1
28.08
16.56
4.61
-6.78
-16.93
-25.44
-32.08
-36.54
-38.51
-37.74
-34.36
-28.98
-22.61
-16.4
-11.26
-7.67
-5.6
-4.76
-4.66
-4.81
-4.69
-3.85
-2.01
0.8
4.17
7.4
9.83
11.12
11.42
11.27
11.36
12.13
13.67
15.66
17.63
19.13
19.93
20.03
19.55
18.63
17.2
15.1
12.04
7.78
2.27
-4.3
-11.54
-18.96
-26.05
-32.3
-37.19
-40.25
-41.16
-39.85
-36.69
-32.31
-27.48
-22.75
-18.32
-14.05
-9.66
-4.94
0.14
5.35
10.33
14.59
17.72
19.51
20.1
20.05
20.29
21.72
24.92
29.8
35.68
41.59
46.82
51.08
54.51
57.32
59.46
60.5
59.79
56.83
51.59
44.66
37.11
30.1
24.55
20.72
18.11
15.62
11.89
5.76
-3.38
-15.37
-29.43
-44.34
-58.6
-70.58
-78.67
-81.44
-78.15
-69.13
-55.89
-40.87
-26.53
-14.52
-5.29
1.9
8.26
14.79
21.83
29.17
36.33
42.87
48.49
52.87
55.61
56.19
54.37
50.32
44.78
38.64
32.65
27.08
21.71
16.12
9.98
3.16
-4.24
-12.05
-20.22
-28.69
-37.42
-46.24
-54.79
-62.61
-69.24
-74.36
-77.89
-80.01
-81.04
-81.46
-81.63
-81.83
-82.11
-82.32
-82.07
-80.72
-77.46
-71.55
-62.6
-50.9
-37.45
-23.77
-11.41
-1.46
5.8
10.8
14.47
17.74
21.22
25.19
29.51
33.84
37.73
40.71
42.45
42.87
42.22
41.1
40.38
40.88
43.09
46.75
50.8
53.68
53.83
50.44
43.75
35.06
26.14
18.64
13.49
10.72
9.6
9.04
7.93
5.36
0.74
-6.08
-14.69
-24.07
-32.81
-39.37
-42.65
-42.2
-38.37
-32.08
-24.4
-16.42
-8.98
-2.65
2.25
5.7
7.86
9.06
9.62
9.76
9.66
9.54
9.85
11.28
14.5
19.83
26.99
35.13
43.13
50
55.2
58.69
60.68
61.39
60.92
59.3
56.56
52.87
48.53
43.85
39.18
34.82
31.06
28.05
25.76
23.78
21.36
17.56
11.46
2.64
-8.67
-21.42
-33.93
-44.18
-50.37
-51.32
-46.8
-37.63
-25.46
-12.43
-0.62
8.41
13.9
15.97
15.43
13.4
10.8
8.15
5.47
2.54
-0.75
-4.14
-7.01
-8.64
-8.51
-6.58
-3.17
1.28
6.5
12.52
19.4
26.89
34.28
40.43
44.16
44.68
41.86
36.15
28.34
19.25
9.57
-0.21
-9.82
-19.19
-28.59
-38.48
-49.32
-61.2
-73.59
-85.27
-94.72
-100.61
-102.3
-99.99
-94.6
-87.39
-79.51
-71.71
-64.17
-56.59
-48.29
-38.5
-26.64
-12.62
2.93
18.82
33.52
45.63
54.27
59.32
61.4
61.59
61.05
60.71
61.09
62.26
63.95
65.76
67.26
68.05
67.62
65.4
60.71
53.01
42.24
29
14.58
0.62
-11.4
-20.59
-26.83
-30.67
-33.12
-35.24
-37.9
-41.5
-45.86
-50.16
-53.23
-53.97
-51.76
-46.73
-39.65
-31.54
-23.31
-15.5
-8.34
-1.97
3.36
7.36
9.89
11.13
11.59
11.89
12.51
13.6
14.99
16.39
17.6
18.64
19.68
20.97
22.59
24.35
25.81
26.44
25.83
23.76
20.26
15.51
9.71
3.1
-4.09
-11.58
-19.02
-26.06
-32.54
-38.52
-44.27
-50.11
-56.25
-62.57
-68.65
-73.84
-77.41
-78.74
-77.43
-73.4
-66.93
-58.62
-49.24
-39.64
-30.61
-22.71
-16.21
-11.11
-7.14
-4.07
-1.68
0.06
1.06
1.28
0.8
-0.11
-1.07
-1.69
-1.73
-1.11
0.06
1.55
3.04
4.25
4.94
5.05
4.75
4.34
4.21
4.62
5.6
6.93
8.15
8.61
7.56
4.38
-1.2
-8.86
-17.6
-25.99
-32.56
-36.35
-37.26
-35.92
-33.38
-30.5
-27.71
-24.98
-22.08
-18.89
-15.41
-11.65
-7.34
-1.91
5.25
14.36
24.82
35.27
44.06
49.91
52.52
52.68
51.8
51.22
51.55
52.58
53.54
53.72
52.94
51.62
50.5
50.19
50.9
52.46
54.54
56.87
59.24
61.34
62.52
61.88
58.54
52.1
43.03
32.63
22.62
14.54
9.2
6.54
5.81
6
6.29
6.22
5.63
4.54
2.93
0.68
-2.24
-5.73
-9.48
-13.08
-16.25
-19.05
-21.77
-24.82
-28.32
-31.87
-34.53
-35.24
-33.3
-28.77
-22.62
-16.26
-11.06
-7.72
-6.16
-5.73
-5.71
-5.67
-5.57
-5.58
-5.69
-5.57
-4.65
-2.49
0.89
4.9
8.61
11.29
12.8
13.81
15.43
18.69
24.01
30.88
38.09
44.21
48.12
49.3
48.04
45.11
41.49
38.06
35.36
33.49
32.16
30.88
29.3
27.33
25.26
23.52
22.44
22.01
21.91
21.72
21.16
20.21
19.04
17.8
16.44
14.74
12.47
9.58
6.27
2.83
-0.53
-3.8
-7.21
-10.96
-15.09
-19.44
-23.67
-27.5
-30.78
-33.48
-35.52
-36.66
-36.6
-35.12
-32.32
-28.7
-24.96
-21.74
-19.43
-18.04
-17.41
-17.33
-17.67
-18.37
-19.25
-20.08
-20.6
-20.63
-20.15
-19.15
-17.62
-15.48
-12.67
-9.33
-5.87
-2.93
-1.11
-0.77
-1.85
-3.99
-6.66
-9.49
-12.22
-14.78
-17.19
-19.49
-21.85
-24.52
-27.89
-32.33
-37.96
-44.46
-51.06
-56.73
-60.41
-61.39
-59.46
-54.99
-48.73
-41.72
-34.9
-28.97
-24.26
-20.72
-18.05
-15.92
-14.08
-12.51
-11.27
-10.31
-9.39
-8.13
-6.13
-3.31
0.04
3.37
6.16
8.17
9.48
10.38
11.11
11.72
12.04
11.91
11.39
10.72
10.25
10.18
10.37
10.4
9.76
8.14
5.48
1.99
-2.03
-6.3
-10.51
-14.29
-17.22
-18.96
-19.43
-18.91
-17.91
-16.9
-16.06
-15.22
-14.12
-12.65
-11.12
-10.12
-10.22
-11.55
-13.77
-16.09
-17.67
-17.9
-16.54
-13.75
-10.01
-5.98
-2.34
0.39
2.04
2.82
3.2
3.71
4.64
5.98
7.51
8.97
10.27
11.46
12.64
13.8
14.86
15.78
16.73
17.99
19.78
22.01
24.16
25.52
25.47
23.85
21.06
17.84
14.98
12.94
11.66
10.64
9.31
7.28
4.66
2.04
0.26
-0.02
1.46
4.37
8.03
11.74
15.03
17.65
19.53
20.45
20.12
18.21
14.69
9.93
4.63
-0.41
-4.58
-7.67
-9.85
-11.54
-13.19
-15.18
-17.69
-20.72
-24.03
-27.16
-29.58
-30.8
-30.64
-29.28
-27.19
-24.93
-22.86
-20.97
-18.99
-16.6
-13.7
-10.53
-7.52
-5.07
-3.28
-1.87
-0.5
1.07
2.75
4.14
4.84
4.6
3.5
1.79
-0.31
-2.67
-5.25
-7.97
-10.56
-12.66
-13.93
-14.28
-13.88
-13.14
-12.56
-12.46
-13.07
-14.41
-16.46
-19.2
-22.51
-26.13
-29.44
-31.59
-31.74
-29.41
-24.78
-18.7
-12.38
-6.84
-2.59
0.59
3.29
6.08
9.11
12.15
14.73
16.63
17.95
19.07
20.34
21.79
23.09
23.7
23.27
21.8
19.79
17.96
16.86
16.6
16.78
16.63
15.37
12.61
8.36
3.02
-2.82
-8.71
-14.25
-19.13
-22.98
-25.31
-25.61
-23.59
-19.37
-13.54
-7.06
-0.89
4.32
8.38
11.55
14.21
16.59
18.6
19.95
20.35
19.88
19.01
18.54
19.2
21.33
24.56
27.93
30.18
30.24
27.66
22.8
16.68
10.54
5.41
1.78
-0.43
-1.7
-2.67
-3.85
-5.54
-7.85
-10.81
-14.32
-18.14
-21.78
-24.56
-25.76
-24.92
-22.13
-18.03
-13.65
-10
-7.65
-6.55
-6.17
-5.85
-5.15
-4.04
-2.85
-1.97
-1.57
-1.46
-1.17
-0.27
1.43
3.74
6.21
8.34
9.9
10.94
11.77
12.75
14.14
16.02
18.28
20.77
23.23
25.39
26.99
27.91
28.19
28.04
27.75
27.47
27.23
26.87
26.37
25.85
25.6
26.01
27.19
28.85
30.32
30.83
29.8
27.12
23.12
18.31
13.09
7.59
1.77
-4.35
-10.33
-15.47
-18.95
-20.37
-20.01
-18.78
-17.75
-17.65
-18.51
-19.76
-20.61
-20.63
-19.94
-19.1
-18.75
-19.16
-20.06
-20.87
-21.02
-20.33
-19.08
-17.9
-17.33
-17.62
-18.55
-19.58
-20.06
-19.57
-18.05
-15.76
-13.16
-10.63
-8.35
-6.19
-3.82
-0.9
2.75
6.99
11.37
15.26
18.07
19.53
19.73
19.07
18
16.77
15.39
13.67
11.48
8.85
6.03
3.31
0.74
-1.89
-4.92
-8.52
-12.45
-16.18
-19.02
-20.54
-20.84
-20.37
-19.84
-19.85
-20.73
-22.54
-25.07
-27.95
-30.67
-32.62
-33.32
-32.46
-30.14
-26.85
-23.34
-20.37
-18.47
-17.74
-17.86
-18.24
-18.27
-17.52
-15.87
-13.47
-10.65
-7.8
-5.26
-3.2
-1.66
-0.52
0.42
1.36
2.44
3.71
5.11
6.53
7.79
8.7
8.99
8.41
6.85
4.37
1.33
-1.73
-4.24
-5.94
-6.89
-7.56
-8.52
-10.11
-12.29
-14.45
-15.74
-15.34
-12.9
-8.69
-3.53
1.46
5.41
8
9.6
10.94
12.76
15.39
18.64
21.98
24.78
26.66
27.57
27.76
27.58
27.33
27.13
26.94
26.64
26.12
25.39
24.47
23.46
22.42
21.34
20.18
18.83
17.14
14.99
12.37
9.37
6.23
3.26
0.63
-1.58
-3.52
-5.39
-7.32
-9.35
-11.43
-13.58
-15.87
-18.38
-21
-23.34
-24.84
-25.15
-24.24
-22.5
-20.44
-18.3
-15.89
-12.82
-8.82
-4.13
0.48
4.08
6.07
6.44
5.73
4.64
3.61
2.65
1.44
-0.3
-2.59
-5.13
-7.44
-9.13
-10.1
-10.52
-10.73
-11.03
-11.57
-12.25
-12.83
-13.02
-12.59
-11.55
-10.16
-8.89
-8.3
-8.78
-10.38
-12.76
-15.35
-17.61
-19.28
-20.48
-21.47
-22.47
-23.37
-23.72
-22.87
-20.39
-16.18
-10.56
-4.09
2.76
9.72
16.81
24.19
31.98
40.18
48.6
56.99
64.97
72.12
77.9
81.78
83.41
82.88
80.82
78.33
76.58
76.3
77.38
78.79
79.04
76.69
70.94
61.78
49.84
36.1
21.55
7.12
-6.41
-18.37
-28.33
-36.26
-42.54
-47.88
-52.91
-57.89
-62.56
-66.24
-68.17
-67.86
-65.29
-60.91
-55.4
-49.49
-43.68
-38.22
-33.14
-28.33
-23.64
-19
-14.42
-9.97
-5.8
-2.01
1.4
4.42
7.04
9.22
10.9
12.04
12.75
13.21
13.61
13.93
13.94
13.19
11.33
8.23
4.23
0.04
-3.51
-5.81
-6.67
-6.45
-5.85
-5.72
-6.75
-9.33
-13.5
-18.95
-25.08
-30.98
-35.65
-38.13
-37.8
-34.58
-28.99
-21.95
-14.57
-7.7
-1.82
3.03
7.01
10.37
13.29
15.8
17.91
19.59
20.87
21.86
22.75
23.78
25.11
26.69
28.31
29.59
30.22
30.09
29.28
28.01
26.48
24.65
22.29
19.08
14.81
9.53
3.62
-2.41
-8.07
-13.04
-17.29
-20.89
-24.02
-26.74
-28.99
-30.61
-31.39
-31.17
-29.85
-27.39
-23.73
-18.8
-12.62
-5.34
2.64
10.7
18.18
24.6
29.82
34
37.45
40.36
42.57
43.68
43.31
41.42
38.43
35.14
32.36
30.56
29.63
29.11
28.44
27.27
25.65
23.89
22.29
20.96
19.75
18.29
16.27
13.65
10.67
7.81
5.64
4.56
4.69
5.73
7.06
7.86
7.43
5.32
1.6
-3.25
-8.4
-12.94
-15.99
-16.99
-15.72
-12.41
-7.64
-2.16
3.29
8.2
12.31
15.52
17.81
19.09
19.28
18.36
16.48
13.95
11.2
8.67
6.7
5.49
5.08
5.31
5.86
6.24
5.97
4.61
2.05
-1.52
-5.63
-9.68
-13.1
-15.54
-16.91
-17.34
-17.17
-16.8
-16.66
-17.16
-18.56
-20.83
-23.54
-25.77
-26.3
-24.06
-18.54
-10.12
-0.05
9.96
18.37
24.31
27.82
29.58
30.46
31.09
31.74
32.35
32.76
32.86
32.68
32.23
31.42
30.03
27.74
24.27
19.56
13.77
7.23
0.36
-6.45
-12.92
-18.85
-24.07
-28.4
-31.71
-34.01
-35.53
-36.67
-37.97
-39.82
-42.38
-45.61
-49.35
-53.43
-57.66
-61.79
-65.32
-67.5
-67.58
-65.09
-60.08
-53.11
-45.07
-36.78
-28.79
-21.31
-14.36
-8.02
-2.45
2.08
5.38
7.48
8.69
9.52
10.44
11.75
13.42
15.25
16.91
18.17
18.97
19.45
19.85
20.4
21.25
22.4
23.83
25.48
27.39
29.66
32.48
36.01
40.35
45.47
51.09
56.65
61.4
64.53
65.37
63.53
59.01
52.19
43.74
34.56
25.61
17.8
11.81
7.98
6.23
6.14
7.12
8.57
10.03
11.19
11.86
11.95
11.42
10.38
9.08
7.83
6.95
6.62
6.81
7.33
7.89
8.31
8.48
8.47
8.45
8.55
8.87
9.3
9.62
9.51
8.71
7.04
4.54
1.35
-2.28
-6.05
-9.67
-12.9
-15.63
-17.85
-19.8
-21.86
-24.49
-27.97
-32.33
-37.12
-41.52
-44.56
-45.35
-43.4
-38.73
-31.91
-23.91
-15.83
-8.7
-3.2
0.41
2.31
2.92
2.78
2.35
1.9
1.5
1.05
0.34
-0.96
-3.2
-6.7
-11.62
-17.79
-24.63
-31.22
-36.57
-39.94
-41.2
-40.78
-39.57
-38.51
-38.17
-38.63
-39.62
-40.79
-42.02
-43.5
-45.56
-48.35
-51.67
-54.94
-57.54
-59.07
-59.51
-59.03
-57.64
-55.05
-50.69
-44.11
-35.37
-25.29
-15.1
-6.04
1.23
6.68
10.77
13.99
16.55
18.42
19.51
19.95
20.23
20.94
22.48
24.85
27.58
30.09
31.96
33.18
34.16
35.48
37.52
40.32
43.5
46.51
48.87
50.26
50.55
49.57
47.11
42.99
37.28
30.44
23.24
16.51
10.7
5.75
1.24
-3.26
-7.91
-12.55
-16.91
-20.86
-24.49
-27.97
-31.22
-33.81
-35.05
-34.34
-31.5
-26.94
-21.51
-16.15
-11.62
-8.23
-5.89
-4.21
-2.64
-0.71
1.92
5.27
9.15
13.22
17.12
20.63
23.69
26.29
28.4
29.84
30.35
29.76
28.14
25.8
23.17
20.54
17.91
14.95
11.24
6.47
0.64
-5.98
-12.99
-20
-26.72
-32.79
-37.76
-40.97
-41.74
-39.63
-34.78
-27.95
-20.38
-13.41
-7.93
-4.24
-1.97
-0.5
0.7
1.76
2.43
2.38
1.48
0.05
-1.21
-1.54
-0.46
1.97
5.27
8.8
12.23
15.61
19.33
23.73
28.69
33.55
37.29
39.06
38.56
36.27
33.17
30.35
28.47
27.6
27.25
26.72
25.39
22.84
18.95
13.76
7.49
0.59
-6.27
-12.18
-16.25
-17.77
-16.53
-12.82
-7.41
-1.16
5.18
11.18
16.75
21.87
26.59
30.73
34.15
36.79
38.88
40.95
43.68
47.64
53.01
59.38
65.74
70.72
72.89
71.34
65.9
57.29
46.98
36.68
27.84
21.09
16.04
11.41
5.5
-3.12
-15.01
-29.62
-45.34
-60.08
-71.98
-79.91
-83.83
-84.59
-83.49
-81.73
-79.98
-78.27
-76.24
-73.37
-69.29
-63.85
-57.06
-48.86
-39.19
-28.06
-15.88
-3.51
7.84
17.04
23.56
27.65
30.31
32.74
35.81
39.69
43.88
47.53
49.94
50.84
50.59
49.9
49.58
50.14
51.54
53.17
54.07
53.34
50.55
45.98
40.57
35.54
31.98
30.41
30.5
31.03
30.16
25.93
16.93
2.9
-15.04
-34.46
-52.37
-66.05
-73.86
-75.65
-72.6
-66.58
-59.51
-52.71
-46.82
-41.83
-37.55
-33.78
-30.53
-27.96
-26.11
-24.89
-23.9
-22.63
-20.65
-17.79
-14.22
-10.31
-6.45
-2.93
0.16
2.85
5.25
7.4
9.25
10.77
11.87
12.52
12.73
12.52
11.84
10.56
8.52
5.64
1.97
-2.22
-6.6
-10.86
-14.87
-18.71
-22.55
-26.45
-30.2
-33.35
-35.4
-36.03
-35.3
-33.59
-31.4
-29.18
-27.13
-25.24
-23.33
-21.27
-19.06
-16.9
-15.14
-14.16
-14.14
-14.95
-16.09
-16.87
-16.62
-15.04
-12.28
-8.89
-5.61
-3.11
-1.81
-1.83
-2.96
-4.8
-6.88
-8.76
-10.2
-11.14
-11.79
-12.51
-13.7
-15.64
-18.45
-21.9
-25.44
-28.22
-29.14
-27.27
-22.14
-14.17
-4.66
4.61
11.98
16.55
18.49
18.79
18.66
19.01
20.11
21.75
23.55
25.32
27.09
28.93
30.77
32.42
33.73
34.77
35.9
37.47
39.6
41.88
43.42
43.19
40.41
34.94
27.31
18.54
9.83
2.1
-4.25
-9.45
-14.12
-18.95
-24.26
-29.84
-34.86
-38.19
-38.84
-36.32
-30.95
-23.68
-15.92
-8.98
-3.75
-0.48
1.01
1.22
0.6
-0.43
-1.51
-2.32
-2.47
-1.79
-0.31
1.6
3.48
5
6.13
7.15
8.45
10.24
12.37
14.43
15.89
16.38
15.77
14.14
11.76
8.9
5.85
2.91
0.33
-1.81
-3.66
-5.71
-8.59
-12.77
-18.18
-24.01
-28.83
-31.09
-29.73
-24.65
-16.8
-7.64
1.36
9.27
15.73
20.72
24.17
25.91
25.67
23.51
19.85
15.5
11.29
7.78
5.17
3.43
2.55
2.6
3.58
5.17
6.67
7.16
5.98
3.13
-0.64
-4.16
-6.41
-6.99
-6.27
-5.15
-4.59
-5.21
-7.16
-10.17
-13.85
-17.75
-21.48
-24.59
-26.58
-26.95
-25.37
-21.86
-16.76
-10.81
-4.81
0.48
4.65
7.64
9.77
11.52
13.28
15.18
17.02
18.37
18.84
18.29
17
15.61
14.84
15.14
16.48
18.28
19.67
19.81
18.25
15.03
10.68
5.91
1.31
-2.81
-6.5
-10.02
-13.72
-17.89
-22.69
-28.12
-33.92
-39.55
-44.21
-47.02
-47.21
-44.46
-38.97
-31.51
-23.14
-14.97
-7.78
-1.87
2.91
6.95
10.66
14.18
17.35
19.69
20.77
20.43
18.92
16.84
14.83
13.31
12.24
11.29
10.07
8.39
6.35
4.24
2.3
0.58
-1.06
-2.89
-5.05
-7.55
-10.25
-13.09
-16.07
-19.38
-23.16
-27.41
-31.85
-35.91
-38.81
-39.78
-38.24
-33.96
-27.19
-18.67
-9.34
-0.2
8.02
14.95
20.61
25.25
29.09
32.19
34.36
35.36
35.05
33.52
31.15
28.47
25.95
23.85
22.17
20.69
19.16
17.44
15.52
13.49
11.44
9.32
6.99
4.28
1.06
-2.58
-6.41
-10.14
-13.53
-16.56
-19.4
-22.41
-25.85
-29.67
-33.41
-36.17
-36.95
-35.01
-30.27
-23.37
-15.42
-7.59
-0.63
5.26
10.31
14.91
19.26
23.3
26.75
29.39
31.21
32.42
33.32
34.18
35.08
35.96
36.68
37.08
37.05
36.47
35.23
33.24
30.53
27.27
23.74
20.33
17.29
14.71
12.52
10.54
8.57
6.5
4.27
1.78
-1.1
-4.54
-8.64
-13.36
-18.43
-23.47
-28.02
-31.67
-34.08
-35.02
-34.31
-31.95
-28.07
-23
-17.26
-11.33
-5.64
-0.43
4.24
8.4
12.1
15.35
18.12
20.33
21.94
22.98
23.52
23.72
23.73
23.77
23.99
24.5
25.25
26.03
26.49
26.23
24.96
22.61
19.38
15.62
11.71
7.9
4.28
0.86
-2.38
-5.36
-7.99
-10.16
-11.98
-13.71
-15.68
-18.22
-21.52
-25.54
-30.03
-34.49
-38.18
-40.18
-39.64
-36.07
-29.59
-21.01
-11.58
-2.49
5.48
12.11
17.48
21.61
24.37
25.58
25.36
24.38
23.67
24.09
25.9
28.61
31.21
32.79
32.94
31.77
29.67
26.91
23.47
19.19
14.07
8.41
2.79
-2.29
-6.61
-10.36
-13.93
-17.56
-21.14
-24.21
-26.24
-27.05
-27
-26.92
-27.74
-30.15
-34.36
-40.11
-46.88
-54.02
-60.86
-66.62
-70.4
-71.23
-68.48
-62.12
-52.86
-42.01
-31.09
-21.32
-13.33
-7.13
-2.27
1.82
5.56
9.06
12.17
14.66
16.37
17.39
17.97
18.41
18.93
19.61
20.4
21.17
21.82
22.2
22.13
21.4
19.91
17.78
15.27
12.81
10.74
9.2
8.17
7.45
6.96
6.68
6.71
7.07
7.62
8.04
7.91
6.84
4.66
1.43
-2.59
-7.04
-11.69
-16.49
-21.53
-26.92
-32.52
-37.74
-41.7
-43.36
-42.01
-37.58
-30.77
-22.87
-15.31
-9.11
-4.65
-1.59
0.71
2.87
5.1
7.22
8.91
10.04
10.88
11.98
13.97
17.16
21.45
26.33
31.17
35.48
39.07
41.98
44.41
46.5
48.29
49.73
50.74
51.24
51.23
50.65
49.42
47.42
44.57
40.93
36.72
32.25
27.79
23.46
19.17
14.7
9.82
4.43
-1.49
-7.83
-14.52
-21.46
-28.52
-35.47
-41.9
-47.19
-50.72
-52.05
-51.1
-48.23
-44.12
-39.53
-35.01
-30.79
-26.76
-22.69
-18.44
-14.08
-9.95
-6.42
-3.75
-1.85
-0.36
1.3
3.57
6.69
10.53
14.73
18.83
22.44
25.34
27.45
28.78
29.36
29.32
28.82
28
26.9
25.41
23.26
20.2
16.14
11.27
6.09
1.15
-3.17
-6.73
-9.68
-12.23
-14.53
-16.52
-18.07
-19.11
-19.77
-20.43
-21.51
-23.34
-26.01
-29.36
-33.03
-36.56
-39.4
-40.97
-40.7
-38.22
-33.51
-26.96
-19.34
-11.5
-4.14
2.32
7.72
12.07
15.39
17.59
18.66
18.65
17.72
16.23
14.62
13.35
12.82
13.18
14.35
16.01
17.71
19.03
19.75
19.83
19.42
18.7
17.75
16.57
15.04
13.03
10.46
7.43
4.09
0.65
-2.68
-5.84
-8.87
-11.97
-15.38
-19.26
-23.58
-28.1
-32.32
-35.68
-37.61
-37.73
-35.91
-32.32
-27.39
-21.64
-15.62
-9.73
-4.19
0.96
5.84
10.6
15.36
20.11
24.67
28.72
31.82
33.52
33.51
31.75
28.5
24.22
19.48
14.84
10.69
7.29
4.69
2.79
1.3
-0.18
-2.11
-4.89
-8.71
-13.5
-18.9
-24.47
-29.71
-34.32
-38.17
-41.41
-44.37
-47.5
-51.2
-55.76
-61.14
-67.04
-72.91
-78
-81.59
-83.04
-81.93
-78.18
-72.08
-64.34
-55.87
-47.51
-39.77
-32.76
-26.21
-19.79
-13.29
-6.76
-0.43
5.5
10.96
16.1
21.11
26.12
31.06
35.79
40.1
43.92
47.24
50.1
52.47
54.34
55.62
56.24
56.11
55.12
53.04
49.66
44.84
38.64
31.48
24.04
17.11
11.27
6.69
3
-0.54
-4.63
-9.66
-15.42
-21.08
-25.49
-27.47
-26.16
-21.17
-12.65
-1.33
11.56
24.31
35.12
42.49
45.82
45.69
43.63
41.53
40.81
41.84
43.94
45.83
46.43
45.35
43.04
40.4
38.25
36.94
36.31
35.9
35.31
34.39
33.27
32.21
31.36
30.71
30.1
29.28
28.08
26.42
24.39
22.13
19.81
17.45
14.91
11.94
8.27
3.73
-1.57
-7.31
-13.08
-18.53
-23.57
-28.43
-33.57
-39.48
-46.53
-54.79
-64.04
-73.67
-82.75
-90.08
-94.39
-94.6
-90.15
-81.28
-69.03
-55.01
-40.93
-28.2
-17.59
-9.25
-2.85
2.04
5.83
8.74
10.88
12.34
13.15
13.4
13.2
12.7
12.05
11.44
11.1
11.18
11.8
12.91
14.39
16.01
17.52
18.71
19.45
19.71
19.57
19.27
19.12
19.39
20.22
21.51
22.88
23.85
24.02
23.24
21.73
19.92
18.31
17.12
16.35
15.77
15.17
14.52
13.92
13.46
13.05
12.31
10.75
7.93
3.71
-1.73
-7.87
-13.99
-19.26
-22.87
-24.17
-22.83
-19.02
-13.52
-7.47
-2.04
1.93
4.19
5.06
5.14
5.03
5.12
5.52
6.04
6.44
6.52
6.26
5.8
5.42
5.37
5.79
6.56
7.35
7.81
7.7
7.03
6.02
4.96
4
3.14
2.25
1.23
0.11
-0.95
-1.81
-2.44
-3.01
-3.78
-4.88
-6.24
-7.59
-8.58
-9.07
-9.16
-9.23
-9.73
-10.97
-13.05
-15.9
-19.45
-23.77
-29.11
-35.66
-43.34
-51.55
-59.13
-64.66
-66.88
-65.11
-59.55
-51.1
-41.02
-30.54
-20.61
-11.79
-4.45
1.2
5.05
7.24
8.12
8.24
8.14
8.17
8.48
9.07
10.02
11.5
13.71
16.69
20.17
23.67
26.75
29.23
31.27
33.27
35.54
38.14
40.89
43.59
46.09
48.41
50.59
52.36
53.15
52.2
48.94
43.39
36.22
28.51
21.16
14.41
7.75
0.26
-8.76
-19.23
-30.11
-39.77
-46.59
-49.58
-48.69
-44.64
-38.62
-31.8
-25.1
-19.13
-14.19
-10.34
-7.47
-5.45
-4.22
-3.84
-4.5
-6.36
-9.33
-13.01
-16.71
-19.68
-21.4
-21.66
-20.62
-18.64
-16.12
-13.39
-10.75
-8.46
-6.8
-6.05
-6.37
-7.78
-10.1
-13.02
-16.04
-18.67
-20.46
-21.21
-21.03
-20.41
-20.05
-20.67
-22.7
-26.12
-30.35
-34.42
-37.18
-37.7
-35.48
-30.6
-23.71
-15.66
-7.28
0.92
8.81
16.49
24.08
31.49
38.33
43.96
47.78
49.44
49
46.98
44.18
41.43
39.33
38.08
37.42
36.85
35.76
33.73
30.59
26.36
21.15
15.07
8.3
1.08
-6.19
-13.04
-19.04
-23.97
-27.87
-31.04
-33.91
-36.93
-40.48
-44.73
-49.55
-54.45
-58.6
-61.02
-60.86
-57.75
-52
-44.44
-36.1
-27.85
-20.1
-12.9
-6.07
0.51
6.81
12.65
17.85
22.31
25.97
28.89
31.11
32.72
33.86
34.69
35.36
35.98
36.57
37.08
37.41
37.46
37.09
36.09
34.19
31.09
26.71
21.23
15.17
9.25
4.13
0.08
-3.13
-6.15
-9.79
-14.64
-20.79
-27.79
-34.75
-40.65
-44.59
-46.02
-44.79
-41.13
-35.53
-28.57
-20.89
-13.06
-5.57
1.17
6.85
11.3
14.5
16.64
18.05
19.17
20.34
21.74
23.32
24.85
26.11
27
27.58
27.99
28.32
28.5
28.26
27.31
25.41
22.55
19.01
15.31
11.95
9.37
7.7
6.7
5.87
4.52
2.03
-1.9
-7.21
-13.5
-20.27
-27.1
-33.74
-40.05
-45.97
-51.52
-56.9
-62.52
-68.87
-76.23
-84.3
-92.15
-98.45
-102
-102.18
-99.09
-93.38
-85.68
-76.36
-65.44
-52.88
-38.87
-23.98
-8.99
5.43
18.96
31.86
44.68
58.06
72.33
87.39
102.64
117.25
130.34
141.29
149.87
156.28
161.08
164.91
168.34
171.52
174.08
175.14
173.55
168.25
158.61
144.6
126.66
105.41
81.19
53.96
23.43
-10.25
-45.88
-80.98
-112.26
-136.91
-153.68
-163.34
-168.08
-170.24
-171.15
-170.67
-167.67
-160.96
-150.42
-137.24
-123.38
-110.55
-99.49
-89.91
-81.01
-72.2
-63.27
-54.59
-46.84
-40.53
-35.62
-31.42
-27.14
-22.3
-16.98
-11.1
-4.88
1.37
7.56
14.06
21.7
31.04
41.97
53.59
65.97
78.85
91.59
103.41
114.05
123.78
132.86
141.02
147.45
153.29
159.09
164.23
167.25
167.05
163.97
159.62
156.1
154.94
159
168.5
180.49
190.61
196.1
197.18
195.8
193.51
173.01
125.31
54.38
-24.41
-94.84
-147.15
-178.67
-191.73
-191.85
-185.81
-176.58
-166.73
-159.11
-156.53
-159.62
-166.05
-170.98
-168.34
-153.12
-121.76
-76.55
-26.66
15.26
39.17
42.12
29.24
11.25
-0.45
3.49
23.69
52.87
79.87
95.69
96.5
83.66
61.77
30.91
0.3
-22.38
-34.61
-38.67
-37.15
-31.62
-22.69
-11.38
-0.26
8.14
10.37
4.64
-8.8
-26.12
-42.79
-55.98
-65.82
-74.72
-85.43
-101.2
-119.34
-140.05
-161.06
-177.54
-183.37
-173.5
-146.39
-105.04
-57.32
-12.9
20.04
38.88
45.99
46.41
44.85
43.68
43.11
42.06
40.01
37.23
35.36
35.66
38
40.9
42.6
41.96
39.19
35.67
32.82
31.97
33.36
36.13
38.71
39.65
38.28
34.95
30.93
27.74
27.12
30.18
36.6
43.88
47.81
43.82
29.02
3.94
-27.16
-57.63
-81.1
-93.82
-95.95
-90.68
-82.39
-74.77
-69.83
-67.85
-67.94
-69
-68.75
-65.2
-56.64
-42.3
-22.65
0.56
24.61
46.25
62.3
70.62
70.81
64.6
55.27
46.31
39.8
35.64
32.05
27.08
20.26
12.87
7.21
4.89
5.78
7.84
8.25
4.91
-2.55
-12.74
-23.45
-32.39
-38.02
-39.76
-37.97
-33.8
-28.69
-23.94
-20.17
-17.23
-14.47
-11.27
-7.55
-3.75
-0.52
1.94
3.99
6.37
9.7
13.9
18.12
21.4
23.33
24.52
26.16
29.24
33.83
39.03
43.45
46.08
46.87
46.66
46.45
46.84
47.74
47.71
45.72
41.24
34.28
25.24
14.67
3.15
-8.49
-19.17
-27.59
-32.49
-33.23
-29.83
-23.01
-13.75
-3.02
8.57
20.78
33.51
46.41
58.42
67.62
71.73
68.82
58.1
40.19
17.07
-8.63
-34.13
-57
-75.24
-87.23
-91.78
-88.4
-77.69
-61.49
-42.49
-23.64
-7.24
5.72
15.63
23.68
30.85
37.29
42.44
45.54
46.41
45.57
43.37
38.97
29.69
12.27
-14.78
-48.94
-83.34
-108.84
-118.06
-108.82
-85.33
-56
-29.57
-11.56
-3.05
-1.99
-5.72
-12.94
-23.98
-39.48
-58.42
-77.61
-92.78
-100.63
-100.59
-95.08
-88.08
-82.87
-80.19
-78.21
-74.27
-67.22
-58.76
-52.36
-51.04
-54.7
-59.48
-59.52
-50.27
-31.54
-8.11
12.24
22.32
18.95
4.34
-14.97
-31.2
-38.54
-35.21
-23.23
-6.6
11.39
30.13
51.68
78.7
111.64
146.8
176.85
193.86
193.11
175.6
147.75
118.28
94.21
78.27
68.77
61.65
53.4
42.83
31.09
20.46
12.63
7.87
5.17
3.09
0.56
-2.82
-6.82
-11.1
-15.51
-20.31
-25.91
-32.68
-40.75
-49.94
-59.87
-70.13
-80.44
-90.58
-100.37
-109.39
-116.78
-121.18
-120.82
-114.05
-99.94
-78.96
-53.27
-26.35
-2.11
16.37
27.74
32.8
33.87
33.77
34.63
37.39
41.82
47.1
52.45
57.46
62.16
66.61
70.73
74.16
76.32
76.7
75.19
72.23
68.62
65.28
62.78
61.07
59.47
57.05
53.11
47.65
41.41
35.59
31.21
28.73
27.84
27.77
27.77
27.47
26.98
26.67
26.8
27.3
27.64
27.13
25.1
21
14.57
5.72
-5.45
-18.53
-32.71
-46.81
-59.58
-70.03
-77.72
-82.91
-86.28
-88.55
-90.13
-90.87
-90.22
-87.42
-81.83
-73.18
-61.53
-47.26
-30.91
-13.2
5.08
22.97
39.42
53.39
64.07
71.15
74.91
76.17
75.9
74.92
73.61
71.99
69.89
67.2
64.03
60.61
57.15
53.64
49.9
45.66
40.94
36.01
31.4
27.67
25.13
23.74
23.14
22.79
22.11
20.57
17.74
13.4
7.55
0.43
-7.46
-15.58
-23.33
-30.32
-36.39
-41.63
-46.41
-51.23
-56.64
-63.09
-70.71
-79.1
-87.31
-93.97
-97.7
-97.58
-93.46
-86.04
-76.56
-66.35
-56.34
-46.86
-37.78
-28.78
-19.7
-10.7
-2.14
5.61
12.31
17.88
22.32
25.55
27.41
27.74
26.58
24.32
21.7
19.64
18.88
19.71
21.71
23.98
25.44
25.28
23.33
20.02
16.14
12.48
9.53
7.33
5.74
4.63
3.99
3.95
4.44
5.15
5.59
5.33
4.31
2.97
2.04
2.05
3.07
4.54
5.6
5.64
4.72
3.64
3.71
6.16
11.69
20.2
30.88
42.48
53.68
63.28
70.39
74.42
75.1
72.53
67.2
60.02
52.05
44.26
37.15
30.6
23.9
16.2
6.97
-3.57
-14.54
-24.79
-33.46
-40.44
-46.29
-51.83
-57.57
-63.36
-68.56
-72.51
-74.99
-76.39
-77.43
-78.6
-79.8
-80.41
-79.73
-77.6
-74.66
-72.11
-71.08
-72.03
-74.52
-77.39
-79.13
-78.31
-73.86
-65.19
-52.32
-36.1
-18.13
-0.57
14.44
25.59
32.8
37.24
40.67
44.48
49
53.42
56.4
57.08
55.83
54.2
54.26
57.38
63.43
70.7
76.68
79.27
77.68
72.54
65.27
57.26
49.25
41.28
33.15
24.89
16.96
10.15
5.09
1.95
0.29
-0.8
-2.29
-4.89
-8.87
-14.07
-20.16
-26.77
-33.55
-40.26
-46.6
-52.25
-56.9
-60.31
-62.35
-62.95
-62.04
-59.52
-55.38
-49.87
-43.51
-36.96
-30.75
-25.01
-19.46
-13.59
-6.91
0.8
9.49
18.85
28.33
37.12
44.21
48.63
49.63
47.13
41.78
34.94
28.28
23.3
20.98
21.49
24.29
28.22
31.78
33.47
32.1
27.24
19.38
9.96
0.9
-5.94
-9.35
-9.14
-6.02
-1.16
4.29
9.65
14.64
19.26
23.45
27.05
29.93
32.07
33.71
35.15
36.52
37.75
38.57
38.71
38.12
36.94
35.36
33.45
31.16
28.31
24.84
20.77
16.26
11.51
6.64
1.74
-3.13
-7.83
-12.11
-15.63
-18.18
-19.8
-20.92
-22.32
-24.99
-29.7
-36.67
-45.35
-54.58
-63.01
-69.55
-73.75
-75.94
-76.84
-77.3
-77.83
-78.51
-78.91
-78.23
-75.54
-70.12
-61.72
-50.78
-38.39
-25.94
-14.75
-5.63
1.29
6.44
10.45
13.87
16.96
19.7
22.02
23.88
25.45
27
28.78
30.8
32.83
34.43
35.12
34.61
32.99
30.64
28.15
25.96
24.23
22.67
20.86
18.34
15.01
11.16
7.38
4.34
2.5
1.85
1.89
1.8
0.87
-1.12
-3.66
-5.67
-5.93
-3.59
1.41
8.36
16.16
23.81
30.73
36.75
41.79
45.53
47.37
46.68
43.26
37.49
30.3
22.72
15.52
9.08
3.55
-0.92
-4.01
-5.28
-4.45
-1.58
2.95
8.49
14.39
20.02
24.84
28.37
30.29
30.51
29.26
27.05
24.36
21.35
17.76
13.09
6.88
-0.9
-9.79
-18.84
-26.94
-33.05
-36.49
-37.01
-34.92
-31.15
-27
-23.85
-22.62
-23.38
-25.37
-27.28
-28.01
-27.12
-25.05
-22.68
-20.83
-19.79
-19.29
-18.9
-18.34
-17.61
-16.87
-16.13
-15.1
-13.34
-10.66
-7.27
-3.89
-1.32
-0.1
-0.25
-1.27
-2.49
-3.37
-3.7
-3.62
-3.43
-3.45
-4.03
-5.47
-8.06
-11.99
-17.17
-23.09
-28.78
-33
-34.61
-33.01
-28.45
-22.02
-15.28
-9.67
-5.97
-3.98
-2.75
-1.09
1.86
6.21
11.36
16.35
20.38
23.06
24.53
25.16
25.35
25.33
25.14
24.75
24.18
23.47
22.64
21.63
20.28
18.46
16.16
13.54
10.87
8.45
6.49
5.03
3.88
2.63
0.7
-2.38
-6.78
-12.06
-17.2
-20.8
-21.63
-19.1
-13.51
-5.99
1.94
8.88
13.98
17.12
18.7
19.39
19.73
19.95
20.02
19.8
19.3
18.73
18.41
18.59
19.29
20.22
20.97
21.25
20.99
20.35
19.55
18.65
17.49
15.71
13.03
9.42
5.21
1.07
-2.24
-4.2
-4.82
-4.67
-4.71
-5.85
-8.53
-12.56
-17.31
-22.03
-26.27
-29.9
-32.92
-35.14
-36.15
-35.36
-32.43
-27.54
-21.34
-14.76
-8.54
-3.06
1.72
5.94
9.73
13.13
16.24
19.29
22.63
26.4
30.28
33.49
35.1
34.57
32.1
28.69
25.68
24.18
24.61
26.49
28.7
29.8
28.49
23.96
16.2
6.07
-4.8
-14.41
-21.05
-23.84
-23.06
-19.95
-16.12
-12.86
-10.76
-9.6
-8.66
-7.14
-4.46
-0.31
5.37
12.46
20.7
29.56
38.37
46.37
52.99
58
61.48
63.59
64.21
62.92
59.12
52.54
43.62
33.64
24.42
17.77
14.83
15.8
19.87
25.55
31.13
35.16
36.8
35.9
32.87
28.35
22.84
16.51
9.32
1.31
-7.01
-14.64
-20.39
-23.42
-23.82
-22.67
-21.78
-22.91
-27.12
-34.32
-43.21
-51.8
-57.99
-60.33
-58.5
-53.37
-46.68
-40.23
-35.25
-31.95
-29.63
-27.22
-23.97
-19.86
-15.56
-12.02
-9.95
-9.53
-10.37
-11.83
-13.22
-14.03
-13.95
-12.93
-11.2
-9.16
-7.37
-6.19
-5.6
-5.19
-4.42
-3.02
-1.28
-0.07
-0.36
-2.7
-6.82
-11.73
-16.23
-19.53
-21.73
-23.7
-26.48
-30.53
-35.35
-39.58
-41.57
-40.17
-35.15
-27.09
-16.95
-5.57
6.67
19.66
33.28
47.06
60.15
71.65
80.97
88.07
93.5
97.98
101.97
105.32
107.24
106.54
102.2
93.75
81.5
66.46
49.86
32.82
15.98
-0.48
-16.6
-32.3
-47.23
-60.83
-72.48
-81.85
-89.02
-94.45
-98.79
-102.66
-106.41
-110.03
-113.17
-115.25
-115.56
-113.44
-108.43
-100.41
-89.72
-77.13
-63.73
-50.6
-38.5
-27.68
-17.97
-8.97
-0.41
7.62
14.76
20.52
24.7
27.46
29.4
31.21
33.37
35.83
38.1
39.46
39.4
37.84
35.2
32.04
28.76
25.32
21.38
16.69
11.39
6.13
1.83
-0.86
-1.88
-1.85
-1.77
-2.52
-4.49
-7.48
-10.95
-14.24
-16.92
-18.81
-19.88
-20.08
-19.22
-17.1
-13.6
-8.89
-3.51
1.88
6.66
10.47
13.29
15.23
16.36
16.57
15.64
13.31
9.54
4.49
-1.51
-8.02
-14.54
-20.52
-25.47
-28.99
-31.01
-31.83
-31.98
-32.04
-32.36
-32.89
-33.26
-33.04
-31.98
-30.18
-28.01
-25.91
-24.16
-22.78
-21.56
-20.15
-18.25
-15.59
-12.11
-7.91
-3.37
0.8
3.71
4.47
2.63
-1.5
-6.68
-11.04
-12.63
-10.1
-3.2
7.23
19.56
31.98
43.01
51.76
57.96
61.76
63.54
63.67
62.54
60.38
57.37
53.6
49.13
44.07
38.6
32.98
27.47
22.18
17.04
11.77
6.03
-0.5
-7.88
-15.92
-24.15
-32.01
-39
-44.79
-49.28
-52.54
-54.69
-55.86
-56.16
-55.67
-54.42
-52.36
-49.38
-45.37
-40.38
-34.74
-28.94
-23.45
-18.55
-14.16
-9.98
-5.72
-1.1
4.04
9.94
16.81
24.66
33.04
40.92
47.08
50.66
51.66
51.05
50.23
50.21
51.07
51.96
51.63
49.2
44.6
38.59
32.32
26.88
22.91
20.58
19.62
19.5
19.59
19.29
18.18
16.05
12.93
8.93
4.18
-1.15
-6.76
-12.1
-16.56
-19.61
-21.19
-21.81
-22.29
-23.44
-25.75
-29.2
-33.46
-38.08
-42.62
-46.75
-50.05
-52.08
-52.41
-50.88
-47.62
-43.08
-37.78
-32.1
-26.23
-20.19
-14.09
-8.23
-3.14
0.67
2.88
3.55
3.04
1.99
0.97
0.41
0.55
1.41
2.85
4.53
5.99
6.73
6.34
4.66
1.87
-1.57
-5.11
-8.21
-10.57
-12.06
-12.7
-12.62
-12.02
-11.22
-10.58
-10.52
-11.35
-13.28
-16.23
-19.88
-23.61
-26.64
-28.17
-27.62
-24.77
-19.81
-13.31
-5.88
1.88
9.6
17.04
24.02
30.31
35.63
39.77
42.67
44.5
45.55
46.25
46.9
47.58
48.13
48.17
47.21
44.93
41.34
36.88
32.29
28.35
25.56
23.95
23.12
22.54
21.8
20.88
20.08
19.88
20.56
22.02
23.81
25.22
25.69
24.94
23.15
20.71
18.04
15.31
12.38
8.93
4.62
-0.57
-6.33
-11.99
-16.79
-20.03
-21.33
-20.62
-18.2
-14.62
-10.52
-6.46
-2.8
0.35
3.15
5.82
8.54
11.33
14.04
16.47
18.48
20.14
21.69
23.43
25.61
28.25
31.13
33.78
35.65
36.18
35.07
32.36
28.46
24.04
19.82
16.36
13.9
12.33
11.32
10.48
9.49
8.21
6.68
4.98
3.23
1.5
-0.14
-1.66
-3.09
-4.51
-6.14
-8.33
-11.44
-15.62
-20.82
-26.59
-32.3
-37.28
-40.98
-43.08
-43.52
-42.39
-39.88
-36.29
-31.93
-27.13
-22.22
-17.43
-12.92
-8.76
-4.98
-1.57
1.52
4.37
7.07
9.64
12.02
14.04
15.52
16.35
16.6
16.46
16.26
16.29
16.83
17.98
19.72
21.86
24.05
25.89
26.96
27.09
26.33
24.96
23.35
21.7
19.97
17.84
14.95
11.17
6.72
2.08
-2.21
-5.87
-9.07
-12.34
-16.35
-21.52
-27.82
-34.7
-41.35
-47.01
-51.29
-54.3
-56.59
-58.95
-62.06
-66.29
-71.55
-77.26
-82.55
-86.47
-88.35
-87.99
-85.72
-82.26
-78.43
-74.84
-71.74
-68.97
-66.11
-62.71
-58.41
-53.12
-47.06
-40.72
-34.72
-29.61
-25.66
-22.72
-20.18
-17.23
-13.09
-7.32
0.08
8.68
17.79
26.63
34.47
40.83
45.55
48.75
50.8
52.1
52.94
53.37
53.26
52.4
50.62
47.82
43.97
38.88
32.24
23.69
13.01
0.45
-13.25
-26.97
-39.51
-49.96
-57.87
-63.28
-66.57
-68.13
-68.34
-67.47
-65.72
-63.21
-59.96
-55.84
-50.68
-44.4
-37.2
-29.69
-22.67
-16.83
-12.31
-8.73
-5.37
-1.47
3.38
9.22
15.87
23.14
30.8
38.53
45.78
51.83
55.97
57.91
57.85
56.4
54.23
51.78
49.13
46.1
42.48
38.21
33.42
28.49
23.86
19.95
16.98
14.85
13.23
11.73
10.17
8.78
8.1
8.66
10.64
13.68
17.06
20.1
22.5
24.44
26.38
28.68
31.33
33.94
35.98
37.11
37.3
36.8
35.92
34.83
33.49
31.76
29.61
27.34
25.5
24.74
25.46
27.51
30.12
32.21
32.81
31.56
28.8
25.41
22.32
20.1
18.68
17.58
16.17
14.09
11.43
8.58
5.9
3.44
0.8
-2.64
-7.46
-13.77
-21.15
-28.68
-35.33
-40.37
-43.65
-45.71
-47.5
-49.98
-53.64
-58.33
-63.14
-66.87
-68.47
-67.41
-63.88
-58.61
-52.42
-45.95
-39.41
-32.75
-25.98
-19.23
-12.88
-7.25
-2.38
1.96
6.17
10.5
14.86
18.85
22.03
24.09
25.04
25.09
24.5
23.48
22.18
20.75
19.47
18.6
18.28
18.36
18.44
17.94
16.45
13.93
10.71
7.38
4.46
2.15
0.18
-1.96
-4.77
-8.44
-12.71
-16.96
-20.44
-22.6
-23.25
-22.61
-21.35
-20.31
-20.45
-22.5
-26.81
-33.12
-40.49
-47.46
-52.38
-53.9
-51.42
-45.37
-37.02
-28.16
-20.38
-14.62
-10.77
-7.89
-4.68
-0.11
6.02
13.03
19.58
24.35
26.54
26.18
24.03
21.16
18.55
16.72
15.79
15.56
15.79
16.23
16.63
16.81
16.55
15.77
14.44
12.7
10.68
8.54
6.38
4.31
2.36
0.48
-1.48
-3.76
-6.54
-9.81
-13.25
-16.38
-18.78
-20.33
-21.38
-22.6
-24.64
-27.86
-32.08
-36.68
-40.74
-43.3
-43.61
-41.32
-36.5
-29.7
-21.81
-13.84
-6.62
-0.59
4.32
8.53
12.55
16.72
21.06
25.29
29.08
32.15
34.45
36.08
37.23
38.03
38.52
38.72
38.64
38.3
37.74
36.89
35.62
33.72
31.05
27.69
23.9
20.1
16.76
14.08
12.07
10.45
8.85
6.91
4.44
1.42
-2.01
-5.66
-9.35
-13
-16.58
-20.15
-23.85
-27.87
-32.35
-37.23
-42.09
-46.12
-48.35
-47.97
-44.74
-39.11
-32.07
-24.76
-18.07
-12.44
-7.91
-4.29
-1.39
0.91
2.77
4.43
6.16
8.22
10.65
13.34
16.07
18.71
21.27
23.89
26.71
29.73
32.77
35.51
37.67
39.15
40.06
40.7
41.41
42.4
43.61
44.67
45
44
41.3
36.83
30.83
23.71
15.94
7.88
-0.05
-7.45
-13.88
-19.09
-23.15
-26.55
-29.99
-33.97
-38.41
-42.53
-45.03
-44.71
-41.02
-34.39
-26.06
-17.54
-10.03
-4
0.81
5.06
9.41
14.25
19.66
25.52
31.57
37.56
43.06
47.52
50.38
51.24
50
46.95
42.6
37.61
32.66
28.4
25.47
24.31
25.01
27.11
29.53
30.94
30.14
26.57
20.48
12.85
5.08
-1.49
-5.73
-7.09
-5.67
-2.28
1.61
4.29
4.27
0.88
-5.44
-13.31
-20.85
-26.45
-29.24
-29.24
-27.18
-23.96
-20.29
-16.46
-12.39
-7.85
-2.69
3.03
8.94
14.58
19.45
23.21
25.66
26.75
26.44
24.77
21.86
17.95
13.49
8.95
4.75
1.13
-1.68
-3.5
-4.13
-3.48
-1.76
0.42
2.2
2.8
1.92
-0.12
-2.54
-4.54
-5.72
-6.21
-6.49
-7.09
-8.25
-10.01
-12.28
-15.03
-18.27
-21.81
-25.12
-27.2
-26.96
-23.69
-17.54
-9.54
-1.3
5.68
10.55
13.28
14.42
14.62
14.16
12.99
10.98
8.26
5.38
3.19
2.31
2.9
4.44
6.05
6.93
6.72
5.62
4.2
3.07
2.55
2.63
2.93
2.98
2.38
0.95
-1.31
-4.29
-7.88
-12.06
-16.83
-22.25
-28.27
-34.72
-41.29
-47.54
-52.95
-56.95
-58.99
-58.74
-56.16
-51.68
-46.01
-40.03
-34.42
-29.48
-25.08
-20.89
-16.55
-11.97
-7.35
-3.06
0.58
3.46
5.74
7.75
9.79
12
14.29
16.42
18.15
19.4
20.33
21.21
22.16
23.08
23.6
23.25
21.76
19.12
15.55
11.3
6.54
1.28
-4.45
-10.47
-16.33
-21.41
-25.16
-27.35
-28.2
-28.28
-28.34
-29.08
-30.9
-33.79
-37.21
-40.21
-41.69
-40.77
-37.16
-31.35
-24.43
-17.69
-12.08
-7.83
-4.33
-0.59
4.26
10.47
17.61
24.85
31.48
37.17
42.11
46.64
50.94
54.83
57.85
59.53
59.67
58.57
56.7
54.61
52.52
50.27
47.49
43.88
39.54
35.05
31.26
28.88
28.12
28.46
28.84
28.28
26.26
22.95
18.97
14.94
11.05
7.2
3.19
-0.93
-4.9
-8.54
-12.09
-16.28
-21.81
-28.79
-36.21
-42.17
-44.68
-42.58
-36.21
-27.26
-17.99
-10.2
-4.6
-0.78
2.25
5.39
8.99
12.9
16.81
20.62
24.63
29.35
35.07
41.59
48.17
53.8
57.66
59.43
59.38
58.14
56.41
54.66
53.12
51.75
50.43
48.96
47.04
44.33
40.5
35.44
29.47
23.27
17.77
13.63
10.97
9.27
7.57
4.93
0.79
-4.89
-11.76
-19.41
-27.59
-36.05
-44.44
-51.91
-57.15
-58.71
-55.69
-48.24
-37.73
-26.44
-16.64
-9.77
-5.96
-4.13
-2.76
-0.61
2.63
6.37
9.52
11.07
10.57
8.25
4.77
0.98
-2.48
-5.22
-7.19
-8.54
-9.45
-10.09
-10.5
-10.69
-10.66
-10.49
-10.38
-10.67
-11.57
-13.16
-15.28
-17.64
-19.94
-22.03
-23.98
-26.02
-28.38
-31.12
-34.08
-36.94
-39.41
-41.42
-43.19
-45.12
-47.47
-50.13
-52.46
-53.48
-52.31
-48.56
-42.6
-35.42
-28.16
-21.59
-15.92
-10.73
-5.5
0.12
5.97
11.59
16.43
20.26
23.19
25.55
27.62
29.43
30.75
31.34
31.07
30.09
28.7
27.12
25.44
23.57
21.43
19.1
16.86
15.05
13.84
13.09
12.35
11.12
9.05
6.07
2.43
-1.46
-5.23
-8.69
-11.83
-14.78
-17.75
-20.88
-24.25
-27.91
-31.86
-36.08
-40.49
-44.92
-49.13
-52.9
-56.18
-59.13
-62.15
-65.63
-69.73
-74.12
-78.04
-80.48
-80.59
-78.01
-72.93
-65.96
-57.85
-49.22
-40.42
-31.58
-22.72
-13.94
-5.45
2.41
9.38
15.27
20.06
23.84
26.79
29.11
31.01
32.68
34.23
35.72
37.1
38.27
39.13
39.69
40.06
40.43
40.94
41.54
41.95
41.88
41.1
39.59
37.55
35.26
32.94
30.73
28.66
26.74
24.91
23.06
20.93
18.22
14.78
10.69
6.37
2.34
-0.99
-3.63
-5.94
-8.47
-11.68
-15.76
-20.59
-25.81
-30.96
-35.51
-38.95
-40.77
-40.6
-38.37
-34.41
-29.43
-24.26
-19.62
-15.87
-12.9
-10.27
-7.46
-4.04
0.07
4.68
9.42
13.86
17.68
20.72
23
24.58
25.61
26.23
26.57
26.72
26.77
26.74
26.58
26.24
25.58
24.42
22.61
20.07
16.86
13.23
9.55
6.14
3.14
0.55
-1.76
-3.93
-6
-7.95
-9.73
-11.32
-12.77
-14.16
-15.54
-17.01
-18.64
-20.56
-22.96
-25.95
-29.56
-33.65
-38
-42.25
-45.99
-48.68
-49.79
-48.86
-45.63
-40.26
-33.36
-25.82
-18.65
-12.52
-7.63
-3.73
-0.33
2.99
6.32
9.5
12.21
14.25
15.67
16.7
17.63
18.65
19.76
20.87
21.86
22.68
23.32
23.76
23.9
23.58
22.63
21.06
19.03
16.89
15
13.62
12.74
12.18
11.64
10.84
9.64
8.05
6.2
4.23
2.25
0.29
-1.65
-3.67
-5.94
-8.66
-11.98
-15.88
-20.09
-24.05
-27.01
-28.27
-27.4
-24.41
-19.75
-14.21
-8.58
-3.43
1
4.76
8.09
11.16
13.98
16.45
18.43
19.91
21.01
22.02
23.14
24.47
25.94
27.42
28.77
29.92
30.8
31.38
31.6
31.44
30.99
30.36
29.68
28.98
28.24
27.43
26.56
25.65
24.76
23.75
22.4
20.46
17.84
14.72
11.49
8.58
6.14
3.98
1.55
-1.77
-6.39
-12.29
-18.9
-25.29
-30.37
-33.25
-33.5
-31.29
-27.32
-22.53
-17.88
-13.94
-10.81
-8.17
-5.45
-2.21
1.67
5.85
9.76
12.81
14.75
15.71
16.12
16.45
16.93
17.49
17.78
17.47
16.47
14.98
13.4
12.1
11.18
10.48
9.64
8.33
6.43
4.07
1.55
-0.82
-2.87
-4.59
-6.14
-7.78
-9.75
-12.28
-15.53
-19.53
-24.17
-29.15
-33.97
-38.12
-41.09
-42.56
-42.43
-40.83
-38.03
-34.38
-30.22
-25.8
-21.27
-16.68
-12.05
-7.41
-2.8
1.65
5.78
9.4
12.37
14.63
16.2
17.23
17.92
18.51
19.14
19.85
20.52
20.99
21.08
20.68
19.72
18.18
16.07
13.46
10.48
7.35
4.24
1.27
-1.52
-4.15
-6.62
-8.88
-10.85
-12.54
-14.06
-15.71
-17.9
-21.04
-25.41
-31.01
-37.43
-43.83
-49.12
-52.15
-52.19
-49.15
-43.71
-37.02
-30.32
-24.43
-19.57
-15.42
-11.5
-7.52
-3.52
0.2
3.39
5.93
7.95
9.65
11.15
12.52
13.91
15.62
18.12
21.77
26.45
31.38
35.3
36.95
35.69
31.86
26.52
21.09
16.66
13.83
12.74
13.43
15.92
20.18
25.8
31.85
37.08
40.38
41.35
40.52
39.13
38.51
39.47
41.87
44.73
46.59
46.06
42.23
34.97
24.92
13.3
1.6
-8.84
-17.11
-22.88
-26.48
-28.62
-30.28
-32.49
-36.03
-41.3
-48.13
-55.69
-62.61
-67.25
-68.13
-64.38
-56.03
-44.03
-29.94
-15.51
-2.26
8.86
17.53
23.97
28.7
32.32
35.29
37.92
40.39
42.86
45.5
48.45
51.72
55.1
58.21
60.63
62.04
62.39
61.75
60.29
58.1
55.29
52.05
48.69
45.46
42.41
39.22
35.38
30.55
24.81
18.76
13.14
8.57
5.13
2.47
0.04
-2.63
-5.8
-9.66
-14.43
-20.35
-27.4
-35.12
-42.59
-48.69
-52.62
-54.12
-53.56
-51.57
-48.61
-44.71
-39.38
-31.86
-21.5
-8.12
7.77
24.79
40.93
54.01
62.28
65.06
62.95
57.65
51.19
45.23
40.65
37.6
35.92
35.47
36.15
37.59
38.95
38.93
36.36
30.85
23.13
14.9
8.06
3.94
2.89
4.4
7.48
11.14
14.56
17.01
17.77
16.22
12.13
5.87
-1.55
-8.92
-15.28
-20.53
-25.46
-31.37
-39.45
-50.07
-62.49
-75.14
-86.15
-94.15
-98.66
-100.14
-99.58
-97.96
-95.8
-93.15
-89.81
-85.72
-81.17
-76.63
-72.52
-68.87
-65.32
-61.29
-56.36
-50.54
-44.24
-38.04
-32.4
-27.4
-22.78
-18.19
-13.45
-8.67
-4.26
-0.72
1.55
2.4
1.93
0.42
-1.78
-4.34
-7.02
-9.53
-11.61
-12.89
-13.05
-11.91
-9.59
-6.57
-3.61
-1.57
-1.1
-2.4
-5.06
-8.17
-10.6
-11.36
-9.93
-6.45
-1.58
3.7
8.5
12.24
14.76
16.22
16.91
17.13
17.13
17.02
16.95
16.99
17.18
17.5
17.91
18.34
18.72
18.86
18.54
17.5
15.64
13.11
10.42
8.19
6.9
6.6
6.83
6.92
6.26
4.72
2.65
0.58
-1.09
-2.35
-3.55
-5.14
-7.4
-10.34
-13.84
-17.7
-21.72
-25.63
-28.93
-30.98
-31.13
-29.06
-25
-19.69
-14.14
-9.21
-5.34
-2.41
0.08
2.67
5.69
9.01
12.13
14.45
15.56
15.53
14.79
13.96
13.44
13.32
13.34
13.24
12.92
12.53
12.29
12.3
12.41
12.29
11.66
10.44
8.83
7.11
5.48
3.95
2.34
0.35
-2.16
-5.24
-8.8
-12.73
-16.98
-21.61
-26.59
-31.73
-36.57
-40.4
-42.5
-42.41
-40.04
-35.74
-30.15
-23.99
-17.91
-12.27
-7.18
-2.53
1.88
6.2
10.4
14.27
17.49
19.81
21.18
21.78
21.97
22.06
22.17
22.24
22.14
21.84
21.46
21.23
21.27
21.47
21.52
21.05
19.77
17.7
15.08
12.21
9.36
6.59
3.86
1.07
-1.81
-4.62
-7.05
-8.74
-9.35
-8.76
-7.16
-5.03
-3.07
-1.95
-2.15
-3.72
-6.33
-9.41
-12.36
-14.76
-16.47
-17.46
-17.77
-17.31
-15.91
-13.43
-9.89
-5.48
-0.55
4.56
9.64
14.65
19.6
24.37
28.61
31.76
33.28
32.98
31.15
28.7
26.79
26.37
27.84
30.82
34.33
37.2
38.55
38.16
36.56
34.79
34
34.98
37.88
42.13
46.69
50.32
52.04
51.44
48.72
44.65
40.42
37.24
36.01
36.93
39.34
41.77
42.45
39.97
33.85
24.76
14.23
4.03
-4.46
-10.7
-15.03
-18.41
-21.94
-26.47
-32.31
-39.14
-46.09
-52.05
-56.06
-57.53
-56.5
-53.43
-49
-43.79
-38.22
-32.54
-26.94
-21.62
-16.69
-12.19
-8.03
-3.97
0.29
5.12
10.85
17.62
25.18
32.79
39.38
44
46.28
46.72
46.45
46.62
47.78
49.47
50.58
49.88
46.74
41.36
34.57
27.33
20.35
13.95
8.22
3.25
-0.8
-3.8
-5.87
-7.47
-9.24
-11.76
-15.25
-19.47
-23.73
-27.27
-29.56
-30.62
-31.05
-31.81
-33.79
-37.31
-41.96
-46.66
-50.14
-51.52
-50.69
-48.37
-45.63
-43.19
-41
-38.31
-34.1
-27.94
-20.36
-12.73
-6.75
-3.58
-3.38
-5.35
-8.12
-10.38
-11.27
-10.49
-8.1
-4.33
0.52
6.03
11.63
16.58
20.29
22.44
23.18
23.11
23.06
23.82
25.87
29.23
33.42
37.66
41.06
42.92
42.94
41.25
38.24
34.26
29.44
23.59
16.59
8.6
0.27
-7.38
-13.45
-17.49
-19.84
-21.33
-22.96
-25.33
-28.54
-32.28
-36.12
-39.91
-43.7
-47.67
-51.71
-55.32
-57.64
-57.76
-55.13
-49.88
-42.81
-35.15
-28.08
-22.35
-18.08
-14.82
-11.9
-8.7
-4.92
-0.68
3.56
7.23
9.83
11.22
11.57
11.36
11.05
10.91
10.86
10.55
9.72
8.27
6.44
4.58
3.03
1.79
0.68
-0.61
-2.31
-4.43
-6.74
-8.97
-10.88
-12.37
-13.47
-14.3
-14.97
-15.52
-16.01
-16.48
-17.01
-17.72
-18.77
-20.31
-22.47
-25.3
-28.81
-32.78
-36.77
-40.16
-42.25
-42.47
-40.57
-36.63
-31.02
-24.24
-16.78
-9.16
-1.88
4.47
9.38
12.54
13.99
14.09
13.4
12.47
11.56
10.69
9.73
8.53
7.2
6.02
5.43
5.77
7.2
9.53
12.44
15.44
18.04
19.87
20.71
20.61
19.84
18.85
18.06
17.76
18.01
18.66
19.51
20.29
20.84
21.05
20.88
20.38
19.66
18.82
17.84
16.48
14.41
11.39
7.56
3.59
0.45
-0.94
-0.12
2.71
6.85
11.42
15.77
19.67
23.11
26.2
28.84
30.83
31.91
32.02
31.42
30.53
29.76
29.29
29.04
28.65
27.68
25.77
22.73
18.65
13.79
8.6
3.56
-0.95
-4.77
-8.02
-11.02
-14.06
-17.26
-20.41
-23.15
-25.08
-26.07
-26.32
-26.28
-26.51
-27.44
-29.23
-31.76
-34.62
-37.23
-38.9
-39.05
-37.34
-33.8
-28.84
-23.1
-17.27
-11.85
-7.16
-3.3
-0.26
2.07
3.91
5.63
7.67
10.38
13.86
17.81
21.66
24.87
27.11
28.49
29.44
30.51
32.09
34.25
36.63
38.64
39.61
39.04
36.68
32.61
27.12
20.59
13.47
6.23
-0.57
-6.46
-11.28
-15.35
-19.39
-24.18
-30
-36.21
-41.43
-44.11
-43.35
-39.49
-33.94
-28.59
-24.87
-23.12
-22.72
-22.54
-21.63
-19.72
-17.15
-14.57
-12.55
-11.3
-10.6
-10.02
-9.15
-7.73
-5.73
-3.22
-0.32
2.91
6.47
10.31
14.26
18.08
21.43
24.01
25.63
26.28
26.1
25.35
24.34
23.33
22.42
21.56
20.53
19.07
17.01
14.34
11.19
7.63
3.54
-1.29
-6.91
-12.91
-18.16
-21.02
-19.81
-13.43
-1.85
13.76
31.34
48.61
63.67
75.41
83.52
88.17
89.66
88.24
84.18
77.89
70.08
61.67
53.58
46.51
40.85
36.7
33.93
32.31
31.52
31.12
30.59
29.51
27.64
25.02
21.86
18.36
14.65
10.75
6.71
2.68
-1.05
-4.16
-6.46
-8.01
-9.1
-10.19
-11.72
-14.02
-17.13
-20.79
-24.55
-27.99
-30.87
-33.3
-35.66
-38.38
-41.75
-45.8
-50.33
-55.04
-59.64
-63.83
-67.21
-69.27
-69.45
-67.33
-62.9
-56.63
-49.3
-41.75
-34.57
-28.01
-22.03
-16.51
-11.41
-6.83
-2.9
0.3
2.72
4.41
5.5
6.21
6.85
7.74
9.15
11.05
13.15
14.95
15.89
15.61
14.06
11.55
8.58
5.67
3.23
1.42
0.25
-0.44
-0.88
-1.31
-1.94
-2.86
-4.04
-5.31
-6.48
-7.37
-7.83
-7.78
-7.15
-5.94
-4.25
-2.39
-0.79
0.08
-0.07
-1.18
-2.86
-4.53
-5.73
-6.32
-6.47
-6.45
-6.32
-5.69
-3.92
-0.32
5.34
12.6
20.35
27.28
32.37
35.36
36.68
37.08
37.1
36.71
35.39
32.64
28.51
23.8
19.79
17.57
17.48
18.86
20.53
21.43
21.2
20.19
19.05
18.13
17.2
15.56
12.54
7.99
2.44
-3.13
-7.82
-11.18
-13.33
-14.79
-16.13
-17.8
-20.01
-22.76
-25.99
-29.56
-33.44
-37.71
-42.64
-48.57
-55.73
-64.03
-72.92
-81.53
-88.95
-94.46
-97.63
-98.22
-96.09
-91.19
-83.77
-74.51
-64.61
-55.33
-47.59
-41.53
-36.55
-31.68
-26.17
-19.82
-12.93
-6.1
0.21
5.82
10.74
15.08
18.88
22.2
25.24
28.26
31.56
35.23
39.08
42.68
45.52
47.14
47.32
46.01
43.33
39.57
35.16
30.74
26.95
24.31
22.9
22.37
22.1
21.41
19.93
17.7
14.93
11.82
8.24
3.85
-1.71
-8.53
-16.29
-24.5
-32.66
-40.51
-47.87
-54.43
-59.51
-62.1
-61.29
-56.77
-49.18
-39.99
-30.96
-23.45
-17.94
-14
-10.58
-6.66
-1.67
4.36
10.91
17.28
22.91
27.54
31.25
34.28
36.88
39.18
41.12
42.5
42.99
42.27
40.11
36.44
31.43
25.49
19.16
13.05
7.6
3.07
-0.52
-3.22
-5.17
-6.45
-7.21
-7.69
-8.26
-9.37
-11.43
-14.69
-19.1
-24.38
-30.1
-35.75
-40.92
-45.3
-48.73
-51.1
-52.36
-52.44
-51.18
-48.35
-43.6
-36.66
-27.43
-16.29
-4.06
8.04
18.77
27.27
33.35
37.47
40.43
43.03
45.73
48.65
51.67
54.73
57.85
61.15
64.58
67.93
70.82
72.96
74.35
75.27
76.14
77.23
78.42
79.29
79.19
77.63
74.38
69.52
63.33
56.14
48.3
40.16
32.19
24.88
18.66
13.68
9.81
6.64
3.68
0.59
-2.75
-6.21
-9.57
-12.61
-15.28
-17.62
-19.67
-21.33
-22.36
-22.46
-21.47
-19.54
-17.08
-14.56
-12.38
-10.6
-9.06
-7.54
-5.94
-4.37
-3.05
-2.14
-1.68
-1.59
-1.75
-2.06
-2.42
-2.68
-2.62
-2.12
-1.28
-0.51
-0.45
-1.64
-4.35
-8.36
-13.1
-17.92
-22.33
-26.13
-29.39
-32.23
-34.7
-36.7
-38.16
-39.07
-39.65
-40.3
-41.5
-43.64
-46.91
-51.18
-56
-60.6
-64.04
-65.46
-64.26
-60.31
-54.07
-46.41
-38.4
-31
-24.71
-19.64
-15.42
-11.64
-7.92
-4.16
-0.48
2.91
5.85
8.28
10.22
11.81
13.08
14.09
14.86
15.4
15.79
16.13
16.49
16.85
17.18
17.3
17.02
16.14
14.55
12.27
9.49
6.52
3.61
0.93
-1.5
-3.82
-6.17
-8.74
-11.72
-15.32
-19.68
-24.71
-30
-34.73
-37.89
-38.6
-36.52
-32.03
-26.11
-19.96
-14.49
-10.08
-6.48
-3.1
0.61
4.88
9.61
14.45
19.03
23.13
26.72
29.83
32.41
34.37
35.55
35.96
35.76
35.32
34.97
34.95
35.2
35.53
35.73
35.67
35.41
35.03
34.58
33.97
33.09
31.86
30.34
28.68
27.03
25.42
23.75
21.86
19.74
17.46
15.2
13.09
11.17
9.36
7.51
5.52
3.34
1.07
-1.15
-3.16
-4.84
-6.2
-7.35
-8.56
-10.14
-12.4
-15.54
-19.59
-24.3
-29.12
-33.32
-36.19
-37.26
-36.53
-34.43
-31.8
-29.56
-28.51
-29.14
-31.59
-35.63
-40.69
-45.82
-49.83
-51.47
-49.81
-44.51
-36.06
-25.61
-14.69
-4.7
3.45
9.58
14.09
17.69
20.98
24.21
27.24
29.75
31.56
32.71
33.5
34.13
34.6
34.68
34.25
33.54
33.31
34.57
37.97
43.3
49.33
54.21
56.3
54.92
50.62
44.84
39.08
34.2
30.11
26.01
21.11
15.17
8.71
2.72
-1.94
-4.9
-6.45
-7.21
-7.81
-8.67
-9.96
-11.76
-14.15
-17.21
-20.86
-24.8
-28.4
-31.05
-32.37
-32.43
-31.84
-31.53
-32.47
-35.37
-40.37
-46.99
-54.23
-60.8
-65.54
-67.76
-67.38
-64.97
-61.34
-57.29
-53.3
-49.49
-45.74
-41.96
-38.17
-34.43
-30.79
-27.06
-22.83
-17.53
-10.71
-2.21
7.65
18.09
28.06
36.52
42.7
46.31
47.6
47.3
46.46
46.23
47.51
50.74
55.55
60.82
64.84
66.02
63.35
56.92
47.8
37.58
27.73
19.16
12.17
6.63
2.37
-0.7
-2.66
-3.79
-4.66
-5.96
-8.21
-11.44
-15.04
-17.97
-19.05
-17.39
-12.69
-5.35
3.47
12.06
18.46
21
18.82
12.2
2.77
-6.95
-14.21
-16.87
-14.09
-6.51
4.02
15.25
25.24
32.87
37.92
40.73
41.77
41.35
39.63
36.82
33.38
30.11
27.81
26.98
27.52
28.67
29.29
28.32
25.24
20.27
14.37
8.8
4.64
2.28
1.37
0.92
-0.09
-2.24
-5.38
-8.76
-11.58
-13.39
-14.31
-14.77
-15.13
-15.35
-15.03
-13.81
-11.74
-9.36
-7.58
-7.14
-8.35
-11
-14.58
-18.65
-23
-27.67
-32.84
-38.63
-45.1
-52.14
-59.53
-66.88
-73.65
-79.13
-82.63
-83.63
-81.95
-77.81
-71.76
-64.51
-56.81
-49.15
-41.77
-34.66
-27.63
-20.55
-13.36
-6.22
0.52
6.4
10.99
14.07
15.67
16.19
16.15
16.09
16.28
16.76
17.33
17.75
17.86
17.64
17.14
16.42
15.53
14.47
13.27
12.01
10.8
9.82
9.27
9.36
10.18
11.65
13.32
14.48
14.31
12.18
8
2.27
-4.14
-10.32
-15.78
-20.59
-25.17
-29.97
-35.09
-40.21
-44.73
-48.09
-49.93
-50.17
-48.88
-46.14
-42.04
-36.75
-30.58
-23.91
-17.09
-10.32
-3.65
2.94
9.35
15.33
20.58
24.85
28.07
30.35
31.88
32.87
33.47
33.79
33.88
33.77
33.41
32.67
31.38
29.36
26.49
22.84
18.7
14.51
10.8
7.91
5.89
4.35
2.61
-0.04
-4.05
-9.38
-15.58
-21.91
-27.7
-32.45
-35.89
-37.87
-38.35
-37.37
-35.12
-32.09
-29.01
-26.7
-25.74
-26.18
-27.43
-28.36
-27.56
-23.88
-16.7
-6.25
6.38
19.48
31.06
39.48
43.98
44.91
43.55
41.62
40.57
41.04
42.87
45.47
48.33
51.54
55.68
61.55
69.63
79.7
90.9
101.93
111.44
118.23
121.32
119.97
113.79
102.99
88.55
72.22
56.1
42
30.86
22.48
15.8
9.54
2.81
-4.58
-12.21
-19.49
-26.12
-32.22
-38.19
-44.41
-50.88
-57.1
-62.23
-65.43
-66.22
-64.7
-61.52
-57.58
-53.65
-50.09
-46.72
-43.13
-38.93
-34.13
-29.1
-24.44
-20.6
-17.68
-15.27
-12.8
-9.77
-6.16
-2.45
0.51
1.95
1.6
-0.1
-2.07
-3.09
-2.35
0.15
3.58
6.67
8.32
8.04
6.07
3.13
0.03
-2.66
-4.74
-6.26
-7.39
-8.36
-9.37
-10.62
-12.17
-13.9
-15.52
-16.67
-17.26
-17.57
-18.25
-20.09
-23.63
-28.81
-34.93
-40.82
-45.16
-46.84
-45.28
-40.52
-33.12
-24.02
-14.27
-4.82
3.69
10.94
16.92
21.79
25.76
29.03
31.6
33.38
34.13
33.67
31.96
29.21
25.92
22.73
20.29
18.99
18.86
19.47
20.04
19.76
18.03
14.73
10.29
5.48
1.16
-2.11
-4.15
-5.27
-6.04
-7.04
-8.64
-10.88
-13.47
-15.96
-17.86
-18.83
-18.78
-17.84
-16.33
-14.62
-13.07
-11.93
-11.31
-11.34
-12.06
-13.57
-15.89
-19.02
-22.79
-26.91
-30.97
-34.57
-37.44
-39.53
-41.04
-42.32
-43.67
-45.22
-46.77
-47.97
-48.37
-47.66
-45.67
-42.38
-37.91
-32.52
-26.59
-20.6
-14.99
-9.93
-5.26
-0.49
4.8
10.74
16.97
22.77
27.41
30.47
32.03
32.56
32.72
33.11
34.2
36.31
39.55
43.8
48.6
53.21
56.72
58.42
58.02
55.77
52.37
48.58
44.98
41.77
38.86
36.02
33.08
30.1
27.32
25.14
23.91
23.94
25.34
28.07
31.81
36
39.81
42.37
42.94
41.07
36.76
30.38
22.54
14.05
5.72
-1.7
-7.71
-12.14
-15.3
-17.9
-20.86
-25.01
-30.68
-37.56
-44.67
-50.61
-53.89
-53.38
-48.73
-40.48
-30.07
-19.28
-9.68
-2.08
3.61
8.14
12.28
16.32
19.93
22.42
23.24
22.44
20.74
19.15
18.43
18.72
19.49
19.89
19.17
17.14
14.17
11.03
8.5
7.05
6.69
7.18
8.13
9.29
10.56
11.85
12.98
13.65
13.53
12.44
10.48
8.04
5.58
3.53
2.02
0.98
0.13
-0.85
-2.3
-4.47
-7.51
-11.41
-15.98
-20.9
-25.74
-30.13
-33.77
-36.46
-38.2
-39.2
-39.89
-40.85
-42.43
-44.44
-46.09
-46.1
-43.31
-37.24
-28.44
-18.43
-9.14
-2.18
1.64
2.5
1.24
-1.03
-3.36
-5.16
-6.17
-6.31
-5.63
-4.18
-2.07
0.51
3.31
6.02
8.46
10.55
12.39
14.21
16.17
18.31
20.5
22.43
23.74
24.08
23.25
21.24
18.2
14.4
10.16
5.8
1.61
-2.14
-5.2
-7.45
-8.98
-10.16
-11.52
-13.53
-16.39
-19.91
-23.63
-27.14
-30.24
-32.97
-35.44
-37.47
-38.49
-37.69
-34.42
-28.56
-20.64
-11.64
-2.59
5.83
13.35
19.99
25.79
30.62
34.19
36.25
36.75
36.04
34.65
33.12
31.76
30.65
29.74
28.91
28.08
27.19
26.16
24.78
22.72
19.53
14.85
8.45
0.49
-8.46
-17.42
-25.24
-30.96
-34.11
-34.79
-33.67
-31.63
-29.51
-27.85
-26.81
-26.32
-26.17
-26.13
-26.07
-26.04
-26.26
-27.11
-28.96
-31.99
-35.94
-40.13
-43.57
-45.24
-44.41
-40.91
-35.11
-27.85
-20.19
-13.09
-7.23
-2.8
0.42
2.95
5.32
7.94
10.87
13.9
16.74
19.1
20.85
21.93
22.36
22.21
21.61
20.86
20.33
20.36
21.12
22.51
24.22
25.87
27.11
27.67
27.38
26.11
23.89
20.91
17.52
14.15
11.2
8.81
6.93
5.27
3.41
0.96
-2.45
-7.02
-12.73
-19.24
-25.88
-31.77
-35.95
-37.71
-36.77
-33.36
-28.13
-21.93
-15.55
-9.54
-4.1
0.78
5.2
9.16
12.57
15.32
17.42
19.11
20.77
22.71
25.02
27.52
29.86
31.81
33.36
34.7
36.04
37.37
38.5
39.11
39.08
38.53
37.85
37.38
37.23
37.25
37.17
36.82
36.28
35.78
35.5
35.36
34.95
33.77
31.51
28.24
24.48
20.91
18.17
16.5
15.72
15.31
14.68
13.41
11.34
8.64
5.62
2.53
-0.52
-3.51
-6.46
-9.31
-11.99
-14.44
-16.68
-18.86
-21.04
-23.22
-25.23
-26.89
-28.17
-29.34
-30.82
-33.06
-36.23
-40.08
-44.02
-47.4
-49.81
-51.34
-52.47
-53.98
-56.66
-60.99
-66.89
-73.74
-80.41
-85.68
-88.5
-88.26
-84.92
-79.01
-71.37
-62.91
-54.4
-46.21
-38.35
-30.44
-21.86
-12.07
-1.02
10.81
22.64
33.67
43.45
51.81
58.83
64.82
69.87
73.6
75.43
75.06
72.86
70
67.82
67.35
69.22
72.99
77.25
80.18
80.42
77.44
71.51
62.83
51.65
38.86
25.95
14.61
6.31
1.63
-0.15
-0.91
-3.16
-11.71
-28.01
-49.2
-69.98
-86.83
-99.57
-111.43
-124.09
-136.52
-145.57
-146.59
-136.29
-114.85
-86.55
-58.11
-35.9
-23.07
-18.67
-18.3
-16.12
-8.15
5.76
22.31
37.4
48.62
56.64
63.93
72.67
83.15
93.21
99.4
99.06
91.97
80.52
68.43
58.78
52.71
49.6
47.79
45.86
43.4
41.15
40.35
41.75
44.99
48.57
50.61
49.7
45.58
39.25
32.51
27.08
23.9
22.73
22.53
22.2
21.19
19.66
18.18
17.25
17.05
17.56
18.88
21.31
25.2
30.59
36.96
43.43
49.27
54.35
59.21
64.69
71.19
78.33
84.91
89.47
90.91
88.85
83.58
75.63
65.3
52.57
37.19
19.19
-0.88
-21.92
-42.53
-61.47
-77.96
-91.64
-102.36
-109.9
-113.9
-114.02
-110.37
-103.65
-95.04
-85.79
-76.82
-68.47
-60.61
-52.88
-44.96
-36.82
-28.74
-21.36
-15.35
-11.17
-8.69
-7.1
-5.11
-1.43
4.68
12.9
21.78
28.91
31.33
26.14
11.4
-12.95
-44.48
-78.4
-108.86
-130.77
-141.67
-142.37
-136.11
-126.61
-116.38
-105.92
-94.42
-81.19
-66.71
-52.66
-40.98
-32.65
-27.19
-22.99
-18.41
-12.82
-6.84
-1.83
1.02
1.5
0.5
-0.48
-0.15
1.98
5.4
8.98
11.62
12.71
12.34
11.09
9.55
8.08
6.63
4.94
2.78
0.19
-2.57
-5.11
-7.19
-8.82
-10.26
-11.82
-13.75
-16.13
-18.89
-21.79
-24.46
-26.4
-26.98
-25.54
-21.66
-15.32
-6.99
2.5
12.18
21.31
29.47
36.57
42.87
48.79
54.88
61.68
69.52
78.33
87.67
96.87
105.27
112.53
118.78
124.52
130.53
137.54
146.12
156.4
167.8
178.66
186.3
187.38
178.89
159.29
129.17
91.29
49.61
8.09
-30.28
-63.98
-92.61
-116.34
-135.32
-149.59
-159.25
-164.59
-166.1
-164.29
-159.55
-152.13
-142.41
-131
-118.7
-106.18
-93.68
-80.91
-67.29
-52.32
-35.87
-18.42
-1.05
14.55
26.33
32.19
30.69
21.79
7.27
-9.52
-24.8
-35.63
-40.74
-40.57
-36.43
-29.59
-20.83
-10.66
0.1
9.92
16.82
19.17
16.47
9.69
0.81
-7.99
-15.27
-20.68
-24.84
-28.74
-33.07
-37.82
-42.18
-44.88
-44.8
-41.46
-35.25
-27.34
-19.22
-12.2
-6.91
-3.23
-0.35
2.68
6.52
11.1
15.67
19.14
20.65
19.94
17.41
13.82
9.85
5.79
1.62
-2.74
-7.23
-11.61
-15.62
-19.2
-22.52
-25.77
-28.95
-31.71
-33.37
-33.27
-31.05
-26.86
-21.36
-15.52
-10.44
-7.05
-6.01
-7.53
-11.27
-16.34
-21.38
-24.9
-25.58
-22.76
-16.59
-8.21
0.75
8.65
14.46
18.03
20.01
21.41
23.09
25.49
28.53
31.92
35.45
39.12
43.05
47.26
51.45
55.03
57.31
57.87
56.83
54.77
52.5
50.6
49.2
47.97
46.36
44.03
41.02
37.76
34.7
32.02
29.38
26.02
21.12
14.14
5.07
-5.59
-16.98
-28.21
-38.52
-47.36
-54.38
-59.36
-62.17
-62.7
-60.88
-56.59
-49.69
-40.2
-28.53
-15.63
-2.95
7.91
15.83
20.46
22.48
23.06
23.36
24.07
25.29
26.84
28.48
30.24
32.32
35.03
38.61
43.28
49.21
56.31
64.14
71.7
77.69
80.95
80.99
78.2
73.67
68.64
64.04
60.3
57.53
55.84
55.37
56.08
57.47
58.47
57.83
54.68
49.09
42.08
35.05
29.28
25.26
22.79
21.3
20.3
19.57
19.19
19.22
19.61
20.36
21.74
24.3
28.45
33.8
38.67
40.37
36.28
25.14
7.89
-12.88
-34.13
-53.79
-71.01
-85.31
-95.2
-97.88
-90.59
-73.19
-49.88
-28.22
-15.55
-14.84
-22.95
-32.8
-38.18
-38.04
-36.92
-41.45
-54.9
-74.12
-90.93
-97.03
-89.25
-71.19
-50.26
-32.38
-18.17
-3.21
17.92
46.77
78.93
105.84
119.29
115.84
98.36
74.08
50.89
33.72
23.43
17.81
13.96
10.24
6.88
5.22
6.39
10.25
15.42
19.89
22.01
21.27
18.46
15.1
12.68
11.98
12.78
14.05
14.64
13.79
11.4
7.89
3.83
-0.34
-4.49
-8.71
-13.06
-17.62
-22.38
-27.32
-32.34
-37.27
-41.83
-45.86
-49.51
-53.29
-57.77
-63.08
-68.59
-73.06
-75.2
-74.52
-71.69
-68.42
-66.65
-67.67
-71.62
-77.51
-83.82
-89.09
-92.39
-93.4
-92.32
-89.65
-86.03
-82
-77.83
-73.28
-67.71
-60.37
-50.89
-39.5
-27.04
-14.47
-2.32
9.65
22.22
36.16
51.53
67.34
81.89
93.43
100.91
104.41
104.91
103.7
101.64
98.77
94.3
87.08
76.21
61.6
44.16
25.62
8
-6.96
-18.26
-25.77
-30.05
-31.84
-31.65
-29.67
-25.86
-20.35
-13.87
-7.83
-4
-3.93
-8.24
-16.19
-25.83
-34.49
-39.73
-40.08
-35.56
-27.49
-17.95
-9
-2.01
2.67
5.6
7.83
10.34
13.67
17.81
22.38
26.98
31.49
36.22
41.71
48.42
56.29
64.56
71.88
76.62
77.42
73.49
64.63
51.09
33.29
11.86
-12.16
-37.05
-60.42
-79.74
-93.14
-100.02
-101.24
-98.58
-93.89
-88.36
-82.41
-75.98
-69.05
-61.83
-54.65
-47.66
-40.6
-32.99
-24.48
-15.24
-5.94
2.59
9.95
16.45
23.12
31.13
41
52.16
62.93
71.12
74.94
73.8
68.48
60.74
52.53
45.25
39.29
34.17
28.87
22.33
13.73
2.71
-10.54
-25.41
-40.89
-55.85
-69.18
-79.99
-87.69
-91.93
-92.72
-90.36
-85.48
-78.84
-71.21
-63.09
-54.74
-46.23
-37.64
-29.17
-21.18
-13.97
-7.7
-2.2
2.92
8.11
13.76
20.02
26.79
33.71
40.31
46.15
50.96
54.63
57.27
59.01
59.94
60.05
59.26
57.52
54.77
51.04
46.43
41.13
35.36
29.42
23.62
18.31
13.78
10.25
7.79
6.25
5.18
3.9
1.62
-2.22
-7.63
-13.95
-19.89
-23.85
-24.36
-20.5
-12.21
-0.36
13.5
27.46
39.77
49.28
55.65
59.28
60.98
61.6
61.6
60.95
59.3
56.33
51.99
46.67
41.13
36.11
32.17
29.45
27.76
26.79
26.26
26
25.92
25.86
25.48
24.39
22.33
19.32
15.75
12.21
9.21
6.97
5.29
3.68
1.63
-1.21
-4.95
-9.46
-14.57
-20.18
-26.2
-32.59
-39.28
-46.2
-53.25
-60.28
-66.95
-72.63
-76.43
-77.34
-74.59
-67.98
-58.06
-46.06
-33.49
-21.74
-11.72
-3.75
2.32
6.83
10.1
12.33
13.65
14.26
14.44
14.47
14.6
14.93
15.45
16.07
16.79
17.67
18.71
19.82
20.64
20.64
19.32
16.44
12.15
7.08
2.05
-2.11
-4.87
-6.09
-6.08
-5.36
-4.57
-4.22
-4.59
-5.75
-7.63
-10.11
-13.15
-16.72
-20.83
-25.34
-29.86
-33.73
-36.04
-35.9
-32.66
-26.24
-17.16
-6.42
4.75
15.23
24.23
31.37
36.56
39.8
41.05
40.32
37.72
33.7
29.07
24.79
21.72
20.29
20.38
21.43
22.66
23.35
23.04
21.56
18.91
15.27
10.83
5.76
0.11
-6.15
-13.15
-20.93
-29.29
-37.72
-45.55
-52.11
-57.05
-60.36
-62.4
-63.69
-64.78
-66.09
-67.88
-70.05
-72.1
-73.08
-71.77
-67.13
-58.74
-47.14
-33.64
-19.95
-7.57
2.58
10.28
15.72
19.31
21.42
22.43
22.8
23.05
23.66
24.92
26.78
28.9
30.76
31.94
32.31
32.01
31.43
30.96
30.85
31.06
31.29
31.06
29.95
27.67
24.22
19.82
14.89
9.91
5.35
1.58
-1.25
-3.34
-5.29
-7.99
-12.38
-18.94
-27.41
-36.61
-44.77
-50.13
-51.54
-48.83
-42.84
-34.95
-26.61
-18.85
-12.16
-6.6
-2.08
1.49
4.18
6.09
7.55
9.01
10.95
13.64
17.02
20.72
24.19
26.96
28.77
29.56
29.4
28.33
26.39
23.56
19.89
15.45
10.36
4.71
-1.41
-7.79
-14.11
-19.83
-24.32
-27.11
-28.12
-27.85
-27.34
-27.82
-30.26
-34.85
-40.78
-46.48
-50.14
-50.44
-47.03
-40.67
-32.83
-25.05
-18.39
-13.08
-8.72
-4.59
-0.14
4.68
9.4
13.27
15.68
16.48
16.06
15.27
15
15.84
17.91
20.89
24.33
27.78
31
33.72
35.57
36
34.32
30.12
23.45
14.9
5.43
-3.97
-12.62
-20.2
-26.7
-32.26
-36.94
-40.87
-44.26
-47.51
-50.89
-54.32
-57.11
-58.09
-56
-50.07
-40.47
-28.33
-15.37
-3.34
6.6
14.11
19.67
24.23
28.67
33.47
38.49
43.13
46.7
48.88
50.02
51.04
53.04
56.73
61.96
67.78
72.87
76.11
77.11
76.15
73.86
70.64
66.35
60.38
52.21
41.94
30.59
19.88
11.58
6.75
5.26
5.86
6.68
5.88
2.27
-4.48
-13.86
-24.66
-35.26
-43.85
-48.78
-48.87
-43.77
-34.07
-21.13
-6.76
7.28
19.61
29.36
36.22
40.25
41.77
41.23
39.19
36.32
33.31
30.88
29.66
30.02
31.92
34.79
37.71
39.73
40.22
39.11
36.86
34.16
31.6
29.38
27.36
25.24
22.65
19.31
15.04
9.73
3.51
-3.22
-9.74
-15.28
-19.32
-21.91
-23.67
-25.5
-28.14
-31.91
-36.66
-42
-47.51
-52.78
-57.3
-60.34
-61.04
-58.72
-53.29
-45.38
-36.22
-27.14
-18.98
-11.85
-5.18
1.79
9.55
18.01
26.49
34.01
39.69
43.06
44.12
43.28
41.12
38.24
35.2
32.44
30.38
29.23
28.87
28.83
28.32
26.53
22.98
17.7
11.28
4.64
-1.37
-6.25
-9.96
-12.81
-15.24
-17.63
-20.24
-23.19
-26.52
-30.18
-34.02
-37.77
-41.06
-43.58
-45.2
-46.06
-46.57
-47.27
-48.62
-50.76
-53.43
-55.95
-57.39
-56.76
-53.35
-46.94
-38
-27.53
-16.8
-7.04
0.9
6.67
10.36
12.37
13.21
13.37
13.25
13.17
13.34
13.89
14.76
15.79
16.65
16.94
16.19
14.13
10.65
6.05
0.98
-3.73
-7.38
-9.68
-10.84
-11.51
-12.5
-14.45
-17.64
-21.94
-27.03
-32.57
-38.39
-44.44
-50.64
-56.84
-62.8
-68.23
-72.87
-76.43
-78.45
-78.27
-75.16
-68.6
-58.67
-46.2
-32.58
-19.41
-7.98
1.05
7.62
12.06
14.86
16.36
16.81
16.33
15.15
13.55
11.9
10.45
9.21
7.9
6.02
3.13
-0.88
-5.66
-10.41
-14.22
-16.44
-17.04
-16.56
-15.91
-15.98
-17.28
-19.78
-23
-26.1
-28.14
-28.24
-25.82
-20.87
-13.96
-6.25
0.82
5.96
8.39
8.05
5.42
1.4
-2.98
-6.7
-8.8
-8.48
-5.24
1.02
9.95
20.88
32.98
45.39
57.36
68.12
76.98
83.31
86.91
88.23
88.43
89.07
91.48
96.18
