-45.17
-39.41
-33.91
-28.9
-24.46
-20.57
-17.06
-13.87
-11.19
-9.47
-9.12
-10.06
-11.45
-11.79
-9.57
-3.98
4.52
14.22
22.89
28.67
30.92
30.37
28.84
28.41
30.78
36.86
46.73
59.58
73.95
87.85
99.04
105.61
106.42
101.46
91.91
79.75
67.1
55.47
45.39
36.49
28.01
19.41
10.79
2.92
-3.17
-6.63
-7.21
-5.39
-2.18
1.19
3.64
4.56
3.92
2.36
1.07
1.44
4.65
11.19
20.61
31.52
41.97
50.01
54.25
54.17
50.17
43.27
34.7
25.55
16.6
8.25
0.68
-6.1
-12.12
-17.64
-23.13
-29.23
-36.65
-45.85
-56.9
-69.33
-82.13
-93.82
-102.9
-108.18
-109.23
-106.61
-101.73
-96.3
-91.63
-88.01
-84.56
-79.74
-72.03
-60.73
-46.3
-30.02
-13.49
1.92
15.33
26.32
34.75
40.76
44.78
47.69
50.82
55.64
63.29
74.11
87.48
102.06
116.43
129.56
140.95
150.37
157.3
160.63
158.85
150.72
136.01
115.87
92.48
68.34
45.61
25.71
9.46
-2.59
-10.1
-13.26
-13.1
-11.59
-11.2
-14.21
-22.16
-35.62
-54.52
-78.36
-106.08
-135.62
-163.77
-186.84
-202
-208.58
-208.42
-204.71
-200.04
-194.87
-187.42
-175.23
-157.05
-133.96
-108.72
-84.14
-61.39
-39.69
-17.36
6.59
31.48
55.18
75.33
90.63
101.16
108.08
112.79
116.26
118.95
121.09
122.95
124.69
126.2
126.95
126.24
123.66
119.34
113.98
108.49
103.48
99.03
94.64
89.62
83.51
76.24
68.07
59.36
50.3
40.98
31.25
20.97
10.03
-1.6
-13.71
-25.74
-36.89
-46.31
-53.47
-58.28
-61.15
-62.75
-63.55
-63.56
-62.2
-58.44
-51.12
-39.47
-23.63
-5.4
11.6
22.58
23.06
10.91
-12.37
-41.67
-69.94
-90.75
-100.44
-98.85
-88.47
-72.73
-54.5
-35.52
-16.75
0.86
15.97
27.14
33.55
35.46
34.25
32.07
30.99
32.36
36.36
42.02
47.72
51.85
53.43
52.36
49.31
45.26
41.01
37.02
33.48
30.54
28.34
27.08
26.86
27.67
29.33
31.58
34.09
36.44
38.18
38.81
37.88
35.13
30.59
24.54
17.55
10.43
4.1
-0.51
-2.7
-2.16
1.01
6.34
13.21
20.96
29.02
36.76
43.57
48.81
51.85
52.27
49.88
44.84
37.65
29.03
19.81
10.76
2.44
-4.82
-10.9
-15.83
-19.69
-22.6
-24.76
-26.48
-28.11
-29.95
-32.1
-34.34
-36.23
-37.16
-36.56
-34.11
-29.84
-24.16
-17.78
-11.53
-6.04
-1.62
1.84
4.76
7.61
10.73
14.18
17.77
21.12
23.78
25.35
25.62
24.64
22.94
21.51
21.52
24.01
29.34
37.02
45.89
54.54
61.83
67.05
70.01
70.89
70.25
68.84
67.37
66.07
64.51
61.62
56.42
48.67
39.43
30.82
25.19
24.06
27.38
33.55
40.21
45.28
47.55
46.79
43.18
36.83
27.62
15.38
0.34
-16.61
-33.95
-50.05
-63.72
-74.62
-83.26
-90.51
-97.06
-103.06
-108.06
-111.4
-112.6
-111.7
-109.24
-106.1
-103.27
-101.58
-101.48
-102.95
-105.51
-108.36
-110.53
-111.29
-110.27
-107.54
-103.6
-99.13
-94.74
-90.91
-87.82
-85.48
-83.67
-81.92
-79.58
-75.86
-70.08
-61.94
-51.64
-39.84
-27.41
-15.12
-3.4
7.59
17.84
27.28
35.76
43.05
49.06
53.92
57.77
60.7
62.54
62.93
61.44
57.73
51.58
42.92
31.68
17.94
2.07
-15.17
-32.7
-49.38
-64.26
-76.78
-86.55
-93.24
-96.37
-95.45
-90.24
-81.15
-69.24
-55.99
-42.82
-30.78
-20.39
-11.81
-5.03
0.04
3.57
5.93
7.74
9.8
12.91
17.51
23.43
29.7
34.79
37.1
35.56
30.26
22.44
14.14
7.38
3.42
2.39
3.42
5.28
6.91
7.9
8.35
8.58
8.76
8.82
8.51
7.71
6.6
5.7
5.6
6.66
8.69
11.02
12.72
13.14
12.15
10.29
8.42
7.28
7.11
7.53
7.91
7.72
6.91
5.87
5.33
5.85
7.64
10.41
13.49
16.13
17.78
18.31
18.1
18.07
19.29
22.65
28.46
36.29
45.2
54.19
62.75
71.2
80.45
91.48
104.75
119.79
135.28
149.51
161.04
169.16
174.1
176.64
177.76
178.12
177.92
176.63
173.07
165.29
150.71
126.58
90.76
42.83
-15.09
-78.31
-140.61
-196.01
-240.61
-273.62
-296.93
-313.88
-327.46
-339.32
-349.63
-357.82
-363.45
-366.73
-368.51
-369.72
-370.91
-371.88
-371.93
-370.18
-365.87
-358.57
-348.35
-335.6
-320.77
-304.2
-285.69
-264.36
-238.94
-208.18
-171.29
-128.54
-81.21
-31.13
19.9
70.57
119.9
166.63
208.64
242.99
266.75
278.34
278.56
270.55
258.66
246.52
235.7
225.68
215.08
203.29
191.53
182.47
178.69
181.12
188.35
197.36
205.23
210.45
213.41
215.55
217.86
219.71
219.08
213.72
202.6
186.7
168.53
150.87
135.38
122.14
110.01
97.95
85.94
75.19
67.37
63.48
63.06
64.11
63.79
59.55
50.13
35.98
18.93
1.5
-14.05
-26.44
-35.63
-42.65
-49.04
-56.31
-65.35
-76.36
-88.76
-101.48
-113.23
-122.82
-129.26
-131.89
-130.38
-124.67
-115.13
-102.61
-88.49
-74.51
-62.31
-52.98
-46.71
-42.77
-39.92
-37.01
-33.56
-29.94
-27.28
-26.9
-29.76
-35.93
-44.49
-53.76
-61.9
-67.49
-70.05
-70.18
-69.12
-68.21
-68.3
-69.36
-70.69
-71.2
-69.88
-66.03
-59.48
-50.6
-40.39
-30.38
-22.38
-18.03
-18.16
-22.25
-28.49
-34.16
-36.54
-33.94
-26.1
-14.31
-0.72
12.28
22.81
29.92
33.52
34.2
32.79
30.19
27.14
24.09
21.31
18.81
16.52
14.52
13.29
13.79
17.53
26.27
41.36
62.96
89.08
115.53
136.93
148.58
148.44
138.12
122.2
106.34
94.96
89.67
89.34
91.18
92.49
91.73
88.67
83.8
77.48
69.57
59.5
46.63
30.49
10.93
-11.86
-37.24
-64.13
-91.08
-116.29
-137.99
-154.57
-165.07
-169.38
-168.22
-162.95
-155.12
-145.98
-136.22
-126.09
-115.66
-105.11
-94.73
-84.88
-75.73
-67.24
-59.23
-51.63
-44.54
-38.22
-32.94
-28.77
-25.55
-22.98
-20.85
-19.12
-17.96
-17.66
-18.47
-20.41
-23.15
-26.08
-28.46
-29.77
-29.99
-29.7
-29.89
-31.4
-34.34
-37.85
-40.29
-39.86
-35.3
-26.36
-13.77
1.1
16.76
32
46.06
58.54
69.33
78.44
85.98
92.05
96.65
99.66
100.89
100.15
97.45
93.14
87.82
82.2
76.91
72.35
68.68
65.96
64.2
63.47
63.74
64.87
66.56
68.44
70.15
71.41
72.03
71.84
70.68
68.38
64.9
60.38
55.29
50.39
46.64
45.07
46.56
51.66
60.41
72.27
86.02
99.73
110.7
115.91
112.78
100.06
78.66
51.62
23.35
-1.82
-20.96
-33.25
-39.71
-42.21
-42.44
-41.37
-39.31
-36.47
-33.34
-30.71
-29.28
-29.27
-30.25
-31.39
-31.97
-31.69
-30.78
-29.87
-29.47
-29.77
-30.46
-30.96
-30.71
-29.49
-27.63
-25.91
-25.33
-26.61
-29.87
-34.48
-39.14
-42.38
-43.01
-40.56
-35.35
-28.32
-20.57
-12.98
-6.05
0.15
5.66
10.5
14.55
17.69
19.97
21.69
23.37
25.48
28.22
31.49
35.14
39.24
44.22
50.65
58.91
68.78
79.42
89.56
98
103.87
106.71
106.39
102.93
96.44
87.25
75.9
63.15
49.82
36.58
23.88
11.9
0.69
-9.7
-19.12
-27.32
-33.9
-38.47
-40.8
-40.99
-39.47
-36.86
-33.82
-30.75
-27.84
-25.06
-22.35
-19.72
-17.21
-14.84
-12.58
-10.35
-8.09
-5.82
-3.57
-1.42
0.62
2.56
4.36
5.99
7.39
8.59
9.65
10.64
11.53
12.2
12.38
11.92
10.73
9
6.96
4.92
3
1.18
-0.7
-2.83
-5.36
-8.34
-11.67
-15.08
-18.12
-20.24
-20.97
-20.02
-17.43
-13.51
-8.73
-3.61
1.42
5.94
9.65
12.3
13.85
14.52
14.78
15.2
16.21
17.93
20.06
22.14
23.67
24.41
24.37
23.81
23.06
22.35
21.8
21.43
21.15
20.8
20.12
18.73
16.32
12.75
8.26
3.49
-0.77
-3.9
-5.83
-7.03
-8.36
-10.58
-14
-18.35
-22.91
-26.88
-29.57
-30.62
-29.93
-27.63
-24.02
-19.57
-14.87
-10.47
-6.91
-4.53
-3.51
-3.77
-5.07
-6.96
-8.93
-10.51
-11.48
-11.94
-12.29
-12.97
-14.25
-16.05
-17.94
-19.36
-19.89
-19.44
-18.28
-16.94
-16
-15.96
-16.93
-18.76
-20.95
-22.85
-23.94
-23.94
-23.01
-21.56
-20.1
-18.97
-18.25
-17.9
-17.81
-17.83
-17.78
-17.25
-15.7
-12.58
-7.6
-0.96
6.75
14.74
22.29
28.98
34.71
39.6
43.83
47.54
50.8
53.57
55.69
57
57.35
56.74
55.32
53.22
50.39
46.52
41.15
34.02
25.28
15.57
5.85
-3.09
-10.82
-17.43
-23.25
-28.51
-33.17
-36.91
-39.35
-40.33
-40.07
-39.03
-37.73
-36.57
-35.79
-35.48
-35.59
-36.02
-36.53
-36.72
-36.16
-34.53
-31.84
-28.4
-24.72
-21.24
-18.13
-15.34
-12.7
-10.12
-7.73
-5.8
-4.58
-4.15
-4.35
-4.88
-5.45
-5.88
-6.19
-6.52
-7.04
-7.83
-8.91
-10.19
-11.54
-12.81
-13.91
-14.82
-15.65
-16.57
-17.77
-19.28
-20.88
-22.04
-22.03
-20.2
-16.23
-10.34
-3.3
3.86
10.12
14.8
17.62
18.66
18.18
16.52
14.09
11.3
8.56
6.11
3.98
1.97
-0.16
-2.5
-4.8
-6.59
-7.3
-6.48
-3.93
0.2
5.47
11.25
16.85
21.71
25.5
28.21
30.14
31.66
33.05
34.31
35.13
35.01
33.38
29.79
24.02
16.17
6.61
-3.94
-14.52
-23.96
-31.13
-35.12
-35.5
-32.49
-26.95
-20.13
-13.27
-7.17
-2.03
2.49
6.93
11.71
16.87
21.99
26.34
29.07
29.4
26.84
21.25
13.04
3.06
-7.54
-17.66
-26.51
-33.71
-39.28
-43.38
-46.16
-47.67
-47.96
-47.2
-45.76
-44.17
-42.9
-42.18
-41.84
-41.31
-39.9
-37.02
-32.51
-26.59
-19.82
-12.93
-6.54
-1.12
2.99
5.6
6.7
6.48
5.38
4
2.97
2.87
4.02
6.49
10.08
14.43
19.11
23.72
28.05
32
35.64
39.04
42.17
44.93
47.05
48.13
47.65
45.1
40.07
32.6
23.28
13.16
3.48
-4.85
-11.5
-16.73
-21.17
-25.43
-29.84
-34.35
-38.74
-42.76
-46.29
-49.36
-52.06
-54.52
-56.76
-58.65
-59.88
-59.98
-58.45
-54.98
-49.52
-42.34
-33.86
-24.52
-14.63
-4.49
5.63
15.43
24.53
32.55
39.1
43.75
46.05
45.5
41.83
35.18
26.33
16.56
7.41
0.18
-4.45
-6.54
-6.65
-5.46
-3.35
-0.26
4.09
9.9
16.96
24.48
31.26
36.06
37.91
36.55
32.36
26.22
19.13
11.88
4.83
-2.04
-8.9
-15.93
-23.14
-30.42
-37.65
-44.79
-51.78
-58.43
-64.25
-68.48
-70.34
-69.33
-65.59
-59.85
-53.2
-46.65
-40.71
-35.42
-30.41
-25.27
-19.79
-13.98
-7.97
-1.82
4.54
11.2
18.18
25.3
32.16
38.34
43.47
47.34
49.88
51.09
50.97
49.55
46.96
43.4
39.19
34.64
29.86
24.75
19.02
12.41
4.95
-2.88
-10.31
-16.49
-20.77
-22.91
-23.14
-21.93
-19.93
-17.7
-15.64
-13.89
-12.31
-10.62
-8.49
-5.75
-2.45
1.17
4.82
8.36
11.76
15.09
18.23
20.92
22.65
22.98
21.7
19.03
15.47
11.62
8.02
5.02
2.8
1.38
0.69
0.5
0.45
0.11
-0.83
-2.39
-4.25
-5.94
-7.05
-7.52
-7.59
-7.62
-7.85
-8.24
-8.52
-8.41
-7.78
-6.67
-5.16
-3.3
-1.09
1.3
3.47
4.7
4.27
1.86
-2.17
-6.78
-10.61
-12.41
-11.56
-8.24
-3.31
1.97
6.43
9.33
10.6
10.74
10.54
10.68
11.54
13.07
15.04
17.23
19.53
21.88
24.1
25.71
26.21
25.27
23.03
20.09
17.25
14.99
13.26
11.54
9.18
5.9
1.91
-2.17
-5.69
-8.36
-10.32
-12.02
-13.82
-15.78
-17.5
-18.36
-17.73
-15.26
-10.96
-5.3
0.99
6.97
11.72
14.45
14.75
12.75
9.19
5.35
2.74
2.68
5.89
12.25
20.91
30.59
40.06
48.45
55.44
60.99
65.16
67.89
68.9
67.99
65.1
60.44
54.38
47.3
39.49
31.17
22.61
14.22
6.52
-0.03
-5.15
-8.83
-11.3
-12.86
-13.8
-14.4
-14.93
-15.66
-16.79
-18.38
-20.31
-22.38
-24.35
-26.15
-27.77
-29.24
-30.6
-31.82
-32.91
-33.95
-35.17
-36.78
-38.85
-41.18
-43.31
-44.58
-44.35
-42.23
-38.17
-32.49
-25.65
-18.09
-9.98
-1.22
8.43
19.08
30.41
41.59
51.51
59.18
64.04
66.18
66.07
64.19
60.82
55.87
49.07
40.33
29.97
18.8
7.87
-1.85
-9.89
-16.3
-21.61
-26.49
-31.43
-36.58
-41.72
-46.41
-50.19
-52.76
-54.01
-54
-52.89
-50.87
-48.15
-45.01
-41.7
-38.44
-35.22
-31.7
-27.35
-21.54
-13.92
-4.6
5.87
16.69
27.12
36.72
45.37
53.09
59.83
65.36
69.34
71.4
71.24
68.74
64
57.45
49.92
42.53
36.33
31.93
29.29
27.76
26.54
25.07
23.29
21.42
19.7
18.05
16.04
13.19
9.26
4.4
-0.92
-6.24
-11.33
-16.31
-21.49
-27.2
-33.39
-39.58
-44.86
-48.23
-48.88
-46.61
-41.91
-35.82
-29.51
-23.85
-19.21
-15.42
-12.05
-8.71
-5.31
-2.06
0.66
2.55
3.5
3.69
3.45
3.09
2.81
2.6
2.32
1.79
0.89
-0.36
-1.84
-3.4
-4.9
-6.34
-7.78
-9.34
-11.15
-13.29
-15.8
-18.72
-22.08
-25.85
-29.86
-33.7
-36.82
-38.63
-38.66
-36.78
-33.18
-28.32
-22.75
-16.97
-11.38
-6.2
-1.58
2.48
5.94
8.79
10.9
12.13
12.35
11.63
10.29
8.74
7.43
6.64
6.36
6.38
6.35
5.99
5.08
3.54
1.33
-1.41
-4.45
-7.36
-9.6
-10.69
-10.27
-8.33
-5.15
-1.27
2.71
6.26
9.05
11.03
12.35
13.3
14.18
15.22
16.55
18.14
19.88
21.61
23.15
24.35
25.18
25.72
26.15
26.74
27.71
29.17
31.05
33.14
35.2
37.05
38.75
40.55
42.92
46.28
50.94
56.96
64.19
72.43
81.5
91.27
101.48
111.66
121.18
129.38
135.85
140.51
143.41
144.37
142.72
137.45
127.68
113.35
95.64
76.83
59.56
45.79
36
29.11
22.96
15.39
5.11
-7.81
-22.21
-36.44
-49.11
-59.52
-67.65
-73.8
-78.17
-80.82
-81.7
-81.04
-79.49
-78.01
-77.58
-78.72
-81.31
-84.57
-87.47
-89.12
-89.21
-88.02
-86.29
-84.89
-84.38
-84.95
-86.33
-88.01
-89.51
-90.53
-90.96
-90.99
-90.84
-90.75
-90.85
-91.12
-91.43
-91.57
-91.27
-90.25
-88.1
-84.24
-78.08
-69.12
-57.18
-42.55
-25.87
-7.84
10.86
29.65
47.93
64.86
79.45
90.77
98.36
102.46
104.05
104.49
105.11
106.81
109.83
113.86
118.26
122.33
125.61
128.06
130.24
133.16
137.8
144.52
152.57
160.11
164.64
164
157.09
144.21
126.79
106.68
85.35
63.62
41.75
19.97
-1.1
-20.4
-36.86
-49.92
-59.88
-67.74
-74.65
-81.26
-87.42
-92.24
-94.7
-94.38
-91.79
-88.27
-85.42
-84.31
-85.12
-87.14
-89.3
-90.74
-91.18
-90.82
-90.06
-89.14
-87.9
-86.04
-83.36
-79.95
-76.16
-72.3
-68.36
-63.86
-58.06
-50.36
-40.75
-29.95
-19.15
-9.54
-1.75
4.47
9.96
15.65
22.04
28.89
35.39
40.59
43.83
44.81
43.51
39.9
33.94
25.69
15.52
4.26
-6.92
-16.93
-25.01
-30.96
-34.94
-37.22
-37.99
-37.31
-35.26
-32.19
-28.75
-25.79
-24.1
-24
-25.18
-26.71
-27.31
-25.78
-21.39
-14.04
-4.18
7.35
19.64
31.76
42.9
52.28
59.21
63.13
63.79
61.36
56.46
50.04
43.14
36.54
30.53
24.88
19.03
12.42
4.86
-3.34
-11.55
-19.11
-25.7
-31.4
-36.59
-41.68
-46.81
-51.89
-56.61
-60.73
-64.18
-67.16
-70.04
-73.33
-77.54
-83.2
-90.86
-101.02
-114.01
-129.78
-147.59
-165.96
-182.76
-195.66
-202.65
-202.42
-194.6
-179.6
-158.41
-132.45
-103.45
-73.42
-44.49
-18.54
3.1
20.05
32.85
42.82
51.64
60.94
71.88
84.89
99.51
114.41
127.84
137.95
143.34
143.23
137.49
126.56
111.26
92.71
72.36
51.71
32.18
14.7
-0.52
-13.85
-26.01
-37.56
-48.69
-59.15
-68.44
-76
-81.42
-84.39
-84.63
-81.98
-76.41
-68.23
-58.09
-46.93
-35.67
-25.03
-15.43
-6.96
0.42
6.75
12.08
16.5
20.07
22.95
25.25
27.03
28.33
29.12
29.51
29.63
29.65
29.67
29.65
29.38
28.64
27.27
25.22
22.6
19.64
16.57
13.54
10.55
7.44
4.03
0.15
-4.14
-8.53
-12.52
-15.51
-16.94
-16.42
-13.89
-9.53
-3.88
2.26
7.98
12.51
15.38
16.62
16.68
16.27
16.02
16.34
17.38
19.08
21.33
24.05
27.08
30.14
32.88
35.02
36.43
37.26
37.75
38.09
38.28
38.14
37.52
36.42
35.03
33.61
32.36
31.18
29.69
27.42
23.93
19.07
13.01
6.3
-0.24
-5.69
-9.18
-10.17
-8.59
-4.89
0.06
5.26
9.81
13.23
15.48
16.85
17.74
18.38
18.73
18.6
17.88
16.7
15.45
14.55
14.23
14.37
14.57
14.41
13.71
12.59
11.44
10.64
10.36
10.45
10.52
10.11
8.96
7.03
4.54
1.83
-0.79
-3.17
-5.33
-7.42
-9.62
-12.15
-15.21
-18.95
-23.44
-28.39
-33.2
-36.94
-38.64
-37.65
-33.89
-27.92
-20.71
-13.28
-6.35
-0.23
5.1
9.77
13.89
17.41
20.23
22.3
23.7
24.6
25.25
25.76
26.17
26.46
26.56
26.5
26.29
25.99
25.6
25.09
24.4
23.49
22.32
20.88
19.09
16.9
14.27
11.26
8.02
4.68
1.33
-2.02
-5.35
-8.64
-11.81
-14.81
-17.7
-20.64
-23.76
-26.99
-29.93
-31.96
-32.41
-30.84
-27.18
-21.71
-14.9
-7.37
0.23
7.15
12.67
16.26
17.74
17.49
16.31
15.17
14.9
15.88
18.02
20.79
23.57
25.82
27.26
27.91
28.01
27.88
27.77
27.72
27.55
26.98
25.78
23.81
21.15
18
14.56
11.01
7.41
3.76
0.07
-3.66
-7.33
-10.87
-14.17
-17.11
-19.68
-21.95
-24.11
-26.49
-29.36
-32.81
-36.59
-40.12
-42.59
-43.27
-41.76
-38.17
-33.11
-27.48
-22.21
-17.83
-14.4
-11.46
-8.28
-4.24
0.98
7.28
14.26
21.48
28.53
35.1
40.81
45.21
47.85
48.41
46.93
43.85
39.83
35.56
31.51
27.88
24.7
21.89
19.33
16.86
14.3
11.44
8.2
4.58
0.81
-2.8
-5.95
-8.42
-10.25
-11.71
-13.25
-15.38
-18.5
-22.72
-27.72
-32.82
-37.1
-39.69
-40.01
-37.88
-33.58
-27.68
-20.95
-14.16
-7.9
-2.49
2.04
5.82
9.02
11.68
13.74
15.11
15.86
16.17
16.36
16.61
16.91
17.07
16.8
15.99
14.77
13.38
12.09
10.99
9.99
8.96
7.79
6.5
5.26
4.22
3.44
2.85
2.21
1.29
-0.03
-1.77
-3.8
-6.05
-8.58
-11.54
-15.06
-19.02
-22.91
-25.95
-27.36
-26.72
-24.12
-20.17
-15.67
-11.28
-7.36
-3.98
-1.02
1.61
3.9
5.75
7.02
7.65
7.63
7.01
5.93
4.57
3.18
2.04
1.4
1.38
1.93
2.83
3.76
4.46
4.73
4.49
3.8
2.76
1.56
0.4
-0.58
-1.28
-1.79
-2.35
-3.3
-4.92
-7.29
-10.22
-13.22
-15.71
-17.12
-17.04
-15.29
-11.92
-7.17
-1.4
4.94
11.44
17.71
23.47
28.6
33.04
36.87
40.15
42.9
45.11
46.69
47.65
48.09
48.26
48.41
48.62
48.76
48.44
47.26
44.95
41.46
36.98
31.67
25.56
18.52
10.42
1.33
-8.34
-17.91
-26.69
-34.28
-40.62
-45.95
-50.5
-54.37
-57.39
-59.37
-60.27
-60.37
-60.14
-59.95
-59.78
-59.16
-57.38
-53.81
-48.27
-41.09
-32.99
-24.77
-17.03
-10.06
-3.91
1.47
6.17
10.23
13.7
16.68
19.33
21.74
24.02
26.13
28.02
29.69
31.21
32.72
34.37
36.19
37.98
39.37
39.95
39.45
37.85
35.35
32.24
28.72
24.93
21
17.22
14.05
11.96
11.29
12.09
14.18
17.29
21.22
25.78
30.71
35.45
39.29
41.53
41.84
40.44
37.79
34.28
29.91
24.3
17.21
9.02
0.93
-5.16
-7.47
-5.04
1.84
11.81
23.15
34.51
45.21
55.1
64.07
71.71
77.29
80.1
79.88
76.96
72.12
66.32
60.51
55.77
53.37
54.68
60.72
71.36
84.83
97.76
105.98
105.86
95.49
75.41
48.52
19.13
-8.41
-31.06
-47.87
-60.06
-70.22
-81.12
-94.63
-111.34
-130.68
-151.49
-172.38
-191.78
-207.82
-218.37
-221.7
-217.27
-206.39
-192.01
-177.92
-167.52
-162.84
-164.38
-171.26
-181.87
-194.1
-205.69
-214.44
-218.64
-217.56
-211.67
-202.38
-191.41
-180.02
-168.63
-156.82
-143.77
-128.86
-111.9
-93.2
-73.38
-53.13
-33.08
-13.73
4.38
20.77
34.97
46.76
56.22
63.65
69.53
74.33
78.62
83.14
88.88
96.82
107.47
120.26
133.39
144.31
150.63
151.19
146.56
138.8
130.36
123.07
117.47
112.93
108.36
102.99
96.73
90.14
83.92
78.41
73.4
68.26
62.24
54.84
45.96
35.77
24.59
12.85
1.09
-10.01
-19.58
-26.81
-31.13
-32.46
-31.2
-28.21
-24.49
-20.99
-18.36
-16.86
-16.34
-16.17
-15.51
-13.48
-9.55
-3.79
3.05
9.73
14.93
17.67
17.72
15.54
12.05
8.16
4.41
0.72
-3.32
-8.18
-14.07
-20.76
-27.63
-33.94
-39
-42.32
-43.67
-43.03
-40.59
-36.8
-32.28
-27.67
-23.46
-19.79
-16.5
-13.3
-10.02
-6.91
-4.51
-3.43
-3.86
-5.31
-6.54
-6.08
-2.75
3.8
12.92
23.25
33.24
41.76
48.29
52.93
56.04
57.99
59.07
59.49
59.42
58.92
57.75
55.25
50.52
42.86
32.28
19.68
6.66
-5.04
-14.11
-20.13
-23.44
-24.86
-25.24
-25.22
-25.15
-25.25
-25.69
-26.59
-28
-29.81
-31.75
-33.5
-34.85
-35.74
-36.32
-36.76
-37.15
-37.32
-36.86
-35.23
-32.08
-27.43
-21.77
-15.89
-10.53
-6.1
-2.57
0.42
3.32
6.44
9.86
13.41
16.86
19.88
22.16
23.39
23.4
22.25
20.27
17.96
15.79
14.02
12.6
11.29
9.83
8.07
6.03
3.85
1.61
-0.64
-2.84
-4.89
-6.63
-7.9
-8.64
-8.98
-9.18
-9.6
-10.57
-12.24
-14.54
-17.07
-19.25
-20.4
-19.96
-17.69
-13.67
-8.34
-2.23
4.15
10.42
16.39
21.98
27.14
31.77
35.75
38.87
40.91
41.64
40.9
38.7
35.28
31.09
26.69
22.54
18.86
15.59
12.45
9.14
5.52
1.62
-2.36
-6.22
-9.79
-13.05
-16.06
-18.9
-21.61
-24.2
-26.69
-29.05
-31.24
-33.25
-35.07
-36.73
-38.29
-39.84
-41.32
-42.55
-43.16
-42.71
-40.79
-37.2
-31.99
-25.45
-18.02
-10.13
-2.08
5.93
13.77
21.28
28.17
34.03
38.44
41.12
42.09
41.69
40.44
38.87
37.35
35.98
34.7
33.4
32
30.49
28.89
27.14
25.18
22.98
20.64
18.35
16.33
14.7
13.42
12.35
11.35
10.43
9.76
9.58
10.04
11.05
12.23
13.1
13.3
12.81
11.95
11.34
11.6
13.1
15.83
19.36
23.05
26.23
28.35
29.16
28.64
27.07
24.83
22.3
19.72
17.06
14.11
10.59
6.45
1.88
-2.61
-6.41
-8.98
-9.99
-9.47
-7.67
-5.02
-2
0.98
3.53
5.39
6.39
6.49
5.76
4.35
2.51
0.53
-1.37
-3.07
-4.66
-6.3
-8.17
-10.23
-12.18
-13.48
-13.63
-12.3
-9.48
-5.52
-0.97
3.63
7.89
11.61
14.76
17.35
19.34
20.68
21.33
21.33
20.77
19.85
18.79
17.77
16.93
16.33
15.91
15.53
15.01
14.19
12.98
11.43
9.6
7.62
5.56
3.39
1.08
-1.35
-3.84
-6.31
-8.78
-11.39
-14.32
-17.62
-21.07
-24.17
-26.27
-26.83
-25.66
-23
-19.33
-15.21
-11.01
-6.85
-2.69
1.49
5.58
9.31
12.34
14.44
15.53
15.7
15.16
14.14
12.85
11.5
10.28
9.33
8.76
8.46
8.24
7.79
6.93
5.62
4.08
2.62
1.46
0.63
-0.13
-1.17
-2.8
-5.09
-7.93
-11.07
-14.31
-17.46
-20.37
-22.81
-24.44
-24.87
-23.85
-21.38
-17.79
-13.55
-9.14
-4.85
-0.82
2.95
6.43
9.46
11.91
13.63
14.68
15.17
15.31
15.18
14.76
13.99
12.85
11.42
9.87
8.41
7.19
6.25
5.49
4.76
3.88
2.71
1.22
-0.57
-2.55
-4.62
-6.68
-8.67
-10.54
-12.33
-14.16
-16.2
-18.58
-21.32
-24.14
-26.6
-28.08
-28.1
-26.48
-23.42
-19.38
-14.91
-10.45
-6.25
-2.35
1.24
4.46
7.19
9.27
10.58
11.17
11.22
11
10.69
10.38
9.98
9.37
8.49
7.43
6.37
5.54
5.09
4.99
5.09
5.11
4.79
3.96
2.59
0.85
-0.95
-2.48
-3.54
-4.17
-4.6
-5.22
-6.3
-7.91
-9.91
-12.03
-14.03
-15.73
-16.98
-17.61
-17.32
-15.9
-13.28
-9.66
-5.47
-1.2
2.78
6.28
9.24
11.6
13.23
13.97
13.75
12.79
11.52
10.51
10.14
10.49
11.31
12.15
12.6
12.42
11.61
10.38
8.99
7.63
6.4
5.35
4.45
3.7
3.07
2.55
2.13
1.76
1.42
1.11
0.75
0.26
-0.51
-1.68
-3.27
-5.19
-7.27
-9.35
-11.35
-13.33
-15.5
-17.99
-20.83
-23.79
-26.44
-28.24
-28.78
-27.83
-25.5
-22.14
-18.23
-14.21
-10.41
-7
-3.98
-1.29
1.18
3.45
5.51
7.29
8.7
9.64
10.12
10.17
9.89
9.4
8.78
8.1
7.42
6.81
6.3
5.86
5.38
4.72
3.71
2.3
0.52
-1.44
-3.36
-5.01
-6.29
-7.23
-8.01
-8.89
-10.1
-11.76
-13.84
-16.16
-18.49
-20.48
-21.77
-22.03
-21.01
-18.7
-15.34
-11.36
-7.3
-3.52
-0.18
2.75
5.37
7.69
9.67
11.22
12.33
13.04
13.44
13.62
13.56
13.31
12.87
12.37
11.9
11.54
11.26
10.97
10.56
9.95
9.17
8.28
7.32
6.3
5.12
3.67
1.95
0.04
-1.87
-3.56
-4.93
-6.06
-7.1
-8.29
-9.77
-11.62
-13.8
-16.2
-18.63
-20.78
-22.25
-22.58
-21.43
-18.76
-14.87
-10.3
-5.69
-1.51
2.06
5.06
7.64
9.93
11.96
13.71
15.16
16.39
17.47
18.5
19.44
20.18
20.59
20.55
20.06
19.21
18.23
17.31
16.63
16.15
15.74
15.13
14.11
12.62
10.72
8.59
6.38
4.18
2.03
-0.02
-1.84
-3.4
-4.68
-5.98
-7.63
-9.9
-12.7
-15.49
-17.48
-17.92
-16.47
-13.31
-9.06
-4.45
-0.09
3.69
6.81
9.3
11.22
12.57
13.3
13.4
12.96
12.16
11.22
10.3
9.46
8.62
7.69
6.66
5.64
4.82
4.35
4.2
4.17
3.92
3.11
1.53
-0.78
-3.59
-6.6
-9.48
-11.99
-14.02
-15.61
-16.93
-18.24
-19.8
-21.77
-24.18
-26.79
-29.22
-31
-31.7
-31.07
-29.11
-26.05
-22.28
-18.18
-14.02
-9.92
-5.91
-2
1.72
5.07
7.87
10.01
11.49
12.4
12.84
12.94
12.75
12.41
12.05
11.83
11.85
12.09
12.37
12.46
12.19
11.56
10.66
9.66
8.59
7.4
5.97
4.22
2.2
0.01
-2.25
-4.55
-6.87
-9.2
-11.46
-13.61
-15.66
-17.79
-20.27
-23.28
-26.74
-30.25
-33.16
-34.85
-34.95
-33.44
-30.61
-26.84
-22.48
-17.8
-13.04
-8.44
-4.27
-0.7
2.2
4.47
6.23
7.55
8.45
8.91
9.03
8.94
8.78
8.66
8.47
8.01
7.14
5.82
4.23
2.64
1.32
0.41
-0.14
-0.44
-0.61
-0.72
-0.77
-0.66
-0.29
0.41
1.44
2.66
3.8
4.58
4.77
4.42
3.75
3.11
2.74
2.65
2.59
2.13
0.95
-1.11
-3.94
-7.26
-10.76
-14.14
-17.04
-19.07
-19.81
-18.9
-16.3
-12.24
-7.3
-2.2
2.44
6.26
9.28
11.85
14.4
17.21
20.22
23.02
25.07
25.99
25.8
24.89
23.85
23.09
22.68
22.4
21.97
21.34
20.76
20.57
20.96
21.81
22.7
23.2
23.07
22.36
21.33
20.27
19.34
18.54
17.78
17.01
16.24
15.49
14.76
13.94
12.91
11.54
9.83
7.89
5.87
3.83
1.71
-0.72
-3.72
-7.46
-11.85
-16.57
-21.07
-24.73
-26.94
-27.23
-25.36
-21.36
-15.61
-8.8
-1.77
4.75
10.3
14.88
18.82
22.55
26.37
30.27
33.99
37.18
39.65
41.35
42.41
42.9
42.81
42.01
40.41
38.07
35.21
32.14
29.01
25.82
22.3
18.17
13.25
7.65
1.76
-3.85
-8.63
-12.23
-14.61
-16.06
-16.98
-17.8
-18.76
-19.89
-21.11
-22.29
-23.34
-24.27
-25.14
-26.06
-27.17
-28.59
-30.43
-32.65
-34.95
-36.78
-37.46
-36.42
-33.46
-28.83
-23.16
-17.26
-11.81
-7.17
-3.4
-0.32
2.3
4.63
6.72
8.58
10.18
11.5
12.51
13.24
13.7
13.98
14.14
14.28
14.39
14.42
14.26
13.83
13.12
12.18
11.08
9.88
8.59
7.19
5.65
3.95
2.12
0.2
-1.78
-3.81
-5.88
-7.99
-10.16
-12.36
-14.52
-16.61
-18.6
-20.56
-22.61
-24.82
-27.12
-29.24
-30.77
-31.17
-30.14
-27.65
-24.06
-19.92
-15.79
-12.01
-8.63
-5.49
-2.37
0.8
3.87
6.57
8.63
9.9
10.44
10.46
10.27
10.14
10.23
10.52
10.88
11.06
10.88
10.25
9.27
8.1
6.94
5.89
5
4.21
3.46
2.71
1.86
0.82
-0.56
-2.34
-4.44
-6.63
-8.59
-10.05
-10.96
-11.56
-12.25
-13.47
-15.41
-17.97
-20.73
-23.15
-24.69
-25.02
-24.04
-21.86
-18.73
-14.95
-10.83
-6.67
-2.73
0.76
3.64
5.84
7.44
8.63
9.61
10.55
11.51
12.39
13.03
13.25
13.01
12.43
11.78
11.3
11.13
11.23
11.43
11.47
11.19
10.57
9.66
8.63
7.59
6.59
5.62
4.6
3.43
2.04
0.41
-1.45
-3.46
-5.53
-7.55
-9.47
-11.28
-13.05
-14.91
-16.98
-19.36
-21.97
-24.53
-26.52
-27.35
-26.59
-24.17
-20.46
-16.2
-12.18
-8.91
-6.5
-4.64
-2.83
-0.69
1.92
4.77
7.47
9.65
11.15
11.98
12.32
12.39
12.32
12.23
12.15
12.17
12.32
12.6
12.87
12.93
12.51
11.47
9.84
7.84
5.8
4.06
2.77
1.88
1.21
0.53
-0.34
-1.42
-2.63
-3.89
-5.13
-6.29
-7.36
-8.32
-9.25
-10.26
-11.58
-13.4
-15.8
-18.57
-21.25
-23.22
-23.93
-23.08
-20.75
-17.32
-13.34
-9.33
-5.68
-2.52
0.18
2.59
4.83
6.96
8.94
10.66
12.03
13.03
13.62
13.83
13.68
13.22
12.53
11.79
11.17
10.76
10.59
10.61
10.67
10.72
10.64
10.33
9.73
8.81
7.64
6.44
5.48
4.95
4.85
4.89
4.64
3.68
1.79
-0.92
-4.08
-7.19
-9.77
-11.5
-12.33
-12.51
-12.52
-12.89
-13.99
-15.9
-18.33
-20.7
-22.42
-23.06
-22.44
-20.61
-17.76
-14.15
-10.1
-5.98
-2.2
0.89
3.14
4.71
5.93
7.15
8.55
10.02
11.26
12
12.13
11.8
11.29
10.88
10.69
10.69
10.8
10.93
11.07
11.16
11.13
10.87
10.24
9.22
7.87
6.35
4.82
3.34
1.94
0.59
-0.73
-2.03
-3.32
-4.6
-5.82
-6.86
-7.51
-7.61
-7.16
-6.42
-5.9
-6.1
-7.29
-9.33
-11.65
-13.49
-14.22
-13.58
-11.76
-9.26
-6.65
-4.37
-2.58
-1.13
0.27
1.89
3.93
6.37
9.07
11.81
14.4
16.72
18.77
20.62
22.36
24.06
25.76
27.44
29.05
30.49
31.63
32.22
31.94
30.57
28.07
24.67
20.89
17.3
14.32
12.08
10.4
8.95
7.46
5.81
4.11
2.52
1.13
-0.12
-1.42
-2.96
-4.85
-7.08
-9.57
-12.21
-14.87
-17.38
-19.53
-21.02
-21.56
-20.97
-19.28
-16.71
-13.64
-10.51
-7.71
-5.47
-3.91
-2.99
-2.62
-2.68
-2.98
-3.31
-3.42
-3.09
-2.2
-0.89
0.49
1.47
1.69
1.05
-0.18
-1.52
-2.54
-3.01
-3.12
-3.25
-3.82
-5.03
-6.75
-8.62
-10.26
-11.46
-12.23
-12.79
-13.38
-14.21
-15.34
-16.74
-18.34
-20.07
-21.82
-23.37
-24.41
-24.53
-23.43
-21.07
-17.68
-13.84
-10.2
-7.35
-5.57
-4.76
-4.45
-4.07
-3.16
-1.62
0.3
2.16
3.56
4.37
4.74
4.97
5.32
5.85
6.44
6.87
6.97
6.68
6.07
5.23
4.23
3.13
1.95
0.72
-0.57
-1.9
-3.24
-4.49
-5.54
-6.34
-6.99
-7.74
-8.91
-10.78
-13.34
-16.3
-19.18
-21.41
-22.63
-22.67
-21.65
-19.83
-17.49
-14.88
-12.1
-9.19
-6.17
-3.05
0.06
3
5.59
7.65
9.12
10.12
10.88
11.68
12.62
13.62
14.38
14.6
14.17
13.25
12.22
11.48
11.21
11.31
11.45
11.3
10.69
9.68
8.44
7.17
5.89
4.54
3.03
1.3
-0.62
-2.6
-4.46
-6.05
-7.3
-8.3
-9.25
-10.41
-12.03
-14.2
-16.82
-19.6
-22.1
-23.87
-24.48
-23.68
-21.45
-18.07
-14.04
-9.92
-6.17
-2.99
-0.35
1.94
4.05
6.01
7.76
9.18
10.23
10.9
11.29
11.45
11.44
11.28
10.99
10.61
10.19
9.83
9.61
9.66
10.06
10.81
11.79
12.74
13.34
13.3
12.38
10.56
8.06
5.27
2.68
0.68
-0.58
-1.26
-1.82
-2.73
-4.31
-6.57
-9.23
-11.93
-14.37
-16.47
-18.29
-19.91
-21.35
-22.57
-23.49
-24.06
-24.19
-23.73
-22.44
-20.09
-16.59
-12.09
-7.02
-1.89
2.87
7.06
10.72
14.02
17.09
19.82
21.99
23.29
23.54
22.78
21.35
19.73
18.4
17.66
17.57
17.97
18.62
19.4
20.42
21.94
24.24
27.45
31.35
35.5
39.37
42.57
44.92
46.47
47.41
47.91
48.05
47.84
47.33
46.65
46.01
45.62
45.59
45.84
46.16
46.28
45.99
45.23
44.03
42.46
40.55
38.32
35.84
33.4
31.51
30.86
32.07
35.31
40.27
46.13
51.96
57.15
61.61
65.74
70.21
75.69
82.66
91.28
101.35
112.24
123.03
132.76
140.6
146.12
149.13
149.42
146.48
139.39
127.15
109.28
86.32
59.84
32.1
5.3
-19.03
-40.21
-58.28
-73.55
-86.38
-97.12
-106.03
-113.43
-119.69
-125.17
-130.06
-134.31
-137.5
-139
-138.07
-134.12
-126.96
-116.93
-104.94
-92.24
-80.09
-69.35
-60.25
-52.28
-44.41
-35.54
-24.85
-12.21
1.84
16.16
29.37
40.26
48.04
52.64
54.59
54.81
54.22
53.35
52.19
50.34
47.29
42.74
36.82
30
22.91
16.08
9.83
4.3
-0.39
-3.95
-6.02
-6.27
-4.67
-1.66
1.94
5.13
7.1
7.53
6.51
4.36
1.23
-3.04
-8.85
-16.57
-26.22
-37.32
-49.06
-60.59
-71.32
-81.07
-89.92
-98.07
-105.58
-112.36
-118.11
-122.39
-124.74
-124.77
-122.36
-117.73
-111.48
-104.45
-97.53
-91.35
-86.2
-81.91
-77.99
-73.81
-68.8
-62.65
-55.55
-48.1
-41.19
-35.68
-32.1
-30.48
-30.51
-31.86
-34.39
-38.28
-43.67
-50.27
-57.18
-63.09
-66.85
-68.01
-67.03
-65.03
-63.16
-62.26
-62.82
-65.26
-70.26
-78.67
-91.11
-107.34
-126.16
-145.67
-163.89
-179.4
-191.31
-198.94
-201.38
-197.4
-185.91
-166.7
-140.97
-111.32
-81.11
-53.59
-31.01
-14.25
-2.75
5.12
11.54
18.63
28.02
40.57
56.33
74.68
94.45
114.22
132.53
148.2
160.61
169.94
177.15
183.65
190.74
199.07
208.53
218.2
226.66
232.19
232.95
227.38
214.79
196.03
173.68
151.46
132.85
119.58
110.97
104.35
96.58
85.7
71.86
57.03
43.72
33.76
27.78
25.41
26.01
29.08
34.16
40.38
46.03
48.82
46.7
38.77
25.7
9.39
-8.02
-25.06
-41.24
-56.69
-71.42
-84.75
-95.35
-101.83
-103.33
-99.92
-92.37
-81.71
-68.83
-54.3
-38.57
-22.16
-5.73
10.07
24.82
38.43
51.09
63.05
74.34
84.42
92.1
95.8
94.01
85.9
71.85
53.58
33.77
15.42
0.99
-8.11
-11.72
-10.73
-6.75
-1.65
2.77
5.01
4.03
-0.53
-8.4
-18.63
-29.89
-40.71
-49.89
-56.81
-61.56
-64.86
-67.73
-71.04
-75.05
-79.23
-82.45
-83.53
-81.93
-78.17
-73.78
-70.79
-70.94
-74.98
-82.46
-92.14
-102.59
-112.81
-122.3
-130.69
-137.27
-140.84
-139.98
-133.67
-121.85
-105.6
-86.76
-67.35
-48.88
-32.03
-16.71
-2.29
11.96
26.62
41.99
57.98
74.18
89.9
104.45
117.25
128.05
137.04
144.7
151.69
158.53
165.3
171.41
175.59
175.92
170.2
156.41
133.21
100.55
60.01
14.71
-31.22
-73.69
-109.7
-138.12
-159.72
-176.49
-190.66
-203.64
-215.63
-225.65
-232.12
-233.41
-228.43
-216.79
-199.04
-176.55
-151.35
-125.63
-101.2
-78.96
-58.77
-39.72
-20.79
-1.49
17.79
36.03
52
64.89
74.54
81.35
85.89
88.62
89.79
89.6
88.37
86.66
85.06
83.95
83.12
81.73
78.4
71.63
60.38
44.59
25.45
5.15
-13.67
-28.84
-39.25
-45.1
-47.45
-47.56
-46.15
-43.22
-38.26
-30.83
-21.05
-9.65
2.29
13.79
24.34
33.92
42.8
51.14
58.79
65.15
69.38
70.76
69
64.44
57.95
50.71
43.78
37.92
33.33
29.84
27.1
24.78
22.77
21.11
19.95
19.3
18.99
18.66
17.87
16.34
14.05
11.28
8.4
5.72
3.28
0.89
-1.72
-4.7
-7.94
-11.19
-14.15
-16.74
-19.14
-21.74
-24.95
-29.12
-34.41
-40.73
-47.73
-54.71
-60.67
-64.5
-65.24
-62.43
-56.26
-47.51
-37.19
-26.15
-14.82
-3.16
9.09
22.07
35.49
48.57
60.26
69.63
76.23
80.22
82.3
83.28
83.63
83.24
81.48
77.55
71
62.11
51.89
41.79
33.23
27.18
23.88
22.97
23.7
25.31
27.25
29.3
31.45
33.68
35.84
37.57
38.49
38.33
37.01
34.56
31
26.25
20.18
12.88
4.82
-3.22
-10.34
-15.96
-20.1
-23.37
-26.62
-30.52
-35.23
-40.25
-44.72
-47.73
-48.6
-47.06
-43.27
-37.7
-31.03
-23.97
-17.15
-10.98
-5.63
-1.05
2.88
6.17
8.78
10.6
11.64
12.08
12.29
12.66
13.39
14.44
15.62
16.68
17.53
18.23
18.91
19.64
20.35
20.79
20.72
20.03
18.79
17.27
15.81
14.67
13.89
13.28
12.5
11.26
9.49
7.4
5.39
3.79
2.75
2.11
1.56
0.77
-0.42
-2.04
-3.98
-6.06
-8.01
-9.41
-9.7
-8.4
-5.37
-1.14
3.18
6.22
6.99
5.29
1.89
-1.77
-4.23
-4.54
-2.58
1.04
5.41
9.72
13.62
17.12
20.46
23.81
27.22
30.52
33.5
35.99
37.8
38.79
38.78
37.59
35.17
31.69
27.58
23.46
19.97
17.53
16.18
15.57
15.04
13.78
11.11
6.7
0.64
-6.47
-13.76
-20.28
-25.36
-28.75
-30.62
-31.44
-31.71
-31.65
-31.14
-29.74
-26.98
-22.61
-16.87
-10.32
-3.75
2.2
7.22
11.39
15.03
18.58
22.31
26.25
30.23
33.96
37.25
40.16
42.96
46.03
49.59
53.5
57.19
59.86
60.71
59.32
55.72
50.36
43.89
36.98
30.19
24.01
18.82
14.85
11.98
9.62
6.66
1.83
-5.81
-16.4
-28.98
-41.8
-52.9
-60.85
-65.25
-66.75
-66.54
-65.69
-64.71
-63.45
-61.36
-58
-53.24
-47.31
-40.49
-32.93
-24.61
-15.54
-6.03
3.18
11.09
16.72
19.41
19.08
16.17
11.43
5.73
-0.07
-5.25
-9.21
-11.55
-12.14
-11.09
-8.73
-5.47
-1.74
2.04
5.43
7.97
9.23
8.91
6.99
3.66
-0.63
-5.34
-10.02
-14.37
-18.23
-21.48
-23.93
-25.32
-25.33
-23.77
-20.6
-16.13
-10.91
-5.63
-0.92
2.88
5.73
7.89
9.63
11.13
12.31
12.97
12.9
12.1
10.79
9.31
7.95
6.74
5.56
4.22
2.73
1.36
0.54
0.61
1.55
2.89
3.94
4.09
3.11
1.26
-0.93
-2.97
-4.66
-6.12
-7.66
-9.55
-11.94
-14.8
-17.98
-21.11
-23.56
-24.42
-22.72
-17.77
-9.62
0.84
12.1
22.55
31.04
37.02
40.51
41.66
40.4
36.41
29.3
19.01
6.12
-8.14
-22.19
-34.48
-44.02
-50.5
-54.33
-56.28
-57.13
-57.39
-57.24
-56.65
-55.56
-54.04
-52.26
-50.4
-48.53
-46.56
-44.35
-41.8
-38.94
-35.97
-33.14
-30.75
-28.94
-27.75
-27.1
-26.82
-26.7
-26.51
-25.87
-24.26
-20.96
-15.18
-6.34
5.68
20.37
36.69
53.36
69.23
83.57
96.11
106.95
116.27
124.2
130.75
135.91
139.68
142.13
143.34
143.22
141.52
137.75
131.48
122.59
111.55
99.38
87.42
76.79
67.91
60.26
52.65
43.77
32.81
19.95
6.21
-6.99
-18.52
-27.94
-35.57
-42.15
-48.39
-54.67
-60.94
-67
-72.64
-77.77
-82.3
-86.05
-88.72
-90.06
-90.14
-89.36
-88.36
-87.69
-87.47
-87.35
-86.66
-84.73
-81.23
-76.2
-69.97
-62.9
-55.27
-47.25
-39.08
-31.1
-23.8
-17.65
-12.82
-9.1
-5.85
-2.14
2.92
9.93
18.96
29.54
40.67
51.04
59.31
64.35
65.5
62.55
55.81
45.97
33.96
20.95
8.32
-2.41
-9.86
-13.06
-11.89
-7.12
-0.27
6.97
13.31
18.19
21.77
24.67
27.49
30.53
33.73
36.84
39.64
42.1
44.38
46.64
48.88
50.77
51.56
50.12
45.13
35.37
20.23
-0.01
-23.93
-49.16
-72.84
-92.24
-105.38
-111.49
-111.07
-105.57
-96.9
-86.93
-77.02
-68.05
-60.44
-54.29
-49.56
-46.07
-43.5
-41.37
-39.15
-36.38
-32.79
-28.38
-23.35
-18.02
-12.71
-7.75
-3.4
0.01
2.17
2.78
1.66
-1.12
-5.09
-9.46
-13.28
-15.76
-16.51
-15.74
-14.19
-12.74
-12.12
-12.61
-13.96
-15.7
-17.27
-18.35
-18.91
-19.23
-19.76
-20.93
-23.06
-26.17
-29.92
-33.68
-36.71
-38.38
-38.45
-37.25
-35.55
-34.3
-34.21
-35.52
-37.92
-40.81
-43.69
-46.42
-49.34
-53.08
-58.28
-65.3
-74.1
-84.16
-94.56
-104.05
-111.22
-114.86
-114.27
-109.5
-101.32
-90.97
-79.71
-68.44
-57.5
-46.86
-36.33
-25.81
-15.36
-5.09
4.93
14.73
24.25
33.23
41.1
47.13
50.66
51.47
49.89
46.79
43.31
40.37
38.42
37.29
36.34
34.78
32.01
27.81
22.37
16.23
10.15
4.95
1.39
0.05
1.13
4.42
9.42
15.46
21.96
28.55
35.04
41.3
47.2
52.5
56.96
60.48
63.1
64.99
66.3
67.05
67.2
66.67
65.45
63.68
61.5
58.99
56.19
53.06
49.64
46.1
42.7
39.69
37.2
35.11
33.19
31.16
28.86
26.3
23.63
21.05
18.72
16.65
14.71
12.68
10.38
7.74
4.84
1.88
-0.94
-3.52
-5.87
-8.14
-10.55
-13.3
-16.53
-20.25
-24.28
-28.22
-31.46
-33.34
-33.26
-30.95
-26.51
-20.41
-13.33
-6.01
0.91
6.96
11.85
15.47
17.81
18.97
19.18
18.79
18.2
17.82
17.9
18.48
19.33
20.12
20.5
20.34
19.69
18.73
17.65
16.53
15.35
14.01
12.47
10.68
8.63
6.32
3.77
1.06
-1.59
-3.97
-5.93
-7.56
-9.13
-11.07
-13.73
-17.28
-21.59
-26.25
-30.63
-34.02
-35.74
-35.34
-32.69
-28.03
-21.95
-15.13
-8.21
-1.6
4.51
10.06
14.99
19.19
22.55
24.96
26.46
27.15
27.2
26.78
25.97
24.83
23.37
21.73
20.05
18.53
17.36
16.58
16.12
15.79
15.35
14.62
13.5
12.01
10.24
8.27
6.22
4.15
2.08
-0.04
-2.34
-5.05
-8.42
-12.61
-17.48
-22.48
-26.72
-29.2
-29.16
-26.4
-21.31
-14.76
-7.77
-1.16
4.6
9.46
13.59
17.25
20.62
23.69
26.31
28.28
29.46
29.88
29.73
29.32
28.93
28.65
28.41
28.01
27.32
26.34
25.25
24.26
23.46
22.74
21.77
20.17
17.63
14.15
9.98
5.58
1.45
-2.05
-4.81
-6.96
-8.78
-10.6
-12.7
-15.27
-18.38
-21.92
-25.6
-28.92
-31.22
-31.88
-30.49
-27.03
-21.93
-15.88
-9.64
-3.74
1.55
6.28
10.6
14.58
18.16
21.11
23.17
24.21
24.31
23.8
23.1
22.59
22.43
22.56
22.79
22.94
22.89
22.63
22.22
21.62
20.77
19.54
17.88
15.86
13.66
11.48
9.46
7.66
6.04
4.47
2.81
0.97
-1.12
-3.45
-5.85
-8.07
-9.89
-11.22
-12.28
-13.53
-15.5
-18.51
-22.42
-26.54
-29.81
-31.22
-30.18
-26.7
-21.35
-14.98
-8.4
-2.19
3.38
8.19
12.2
15.34
17.54
18.82
19.31
19.19
18.71
18.03
17.3
16.62
16.09
15.73
15.5
15.26
14.89
14.33
13.6
12.8
12.02
11.32
10.63
9.84
8.86
7.67
6.31
4.8
3.09
1.14
-1.05
-3.36
-5.59
-7.52
-9.05
-10.28
-11.44
-12.81
-14.55
-16.7
-19.13
-21.59
-23.8
-25.43
-26.14
-25.62
-23.74
-20.58
-16.51
-12
-7.5
-3.23
0.74
4.45
7.83
10.68
12.75
13.86
14.1
13.72
13.06
12.41
11.84
11.34
10.82
10.28
9.75
9.27
8.84
8.44
8.06
7.73
7.51
7.4
7.36
7.24
6.92
6.33
5.42
4.22
2.67
0.75
-1.52
-3.98
-6.34
-8.29
-9.64
-10.41
-10.82
-11.19
-11.78
-12.76
-14.19
-16.04
-18.21
-20.51
-22.57
-23.9
-23.98
-22.48
-19.39
-15.04
-10.06
-5.07
-0.5
3.5
7.06
10.41
13.65
16.69
19.2
20.85
21.45
21.09
20.11
18.98
18.09
17.61
17.47
17.52
17.6
17.69
17.88
18.36
19.24
20.5
21.95
23.32
24.4
25.11
25.51
25.76
26.02
26.36
26.69
26.87
26.76
26.25
25.34
24.13
22.77
21.55
20.75
20.61
21.21
22.35
23.56
24.2
23.79
22.24
19.98
17.9
17.02
18.1
21.35
26.32
32.09
37.59
41.94
44.62
45.48
44.57
41.99
37.72
31.69
23.87
14.33
3.29
-8.88
-21.69
-34.55
-46.76
-57.42
-65.47
-69.83
-69.7
-64.92
-56.23
-45.2
-34.05
-25.05
-19.97
-19.68
-23.97
-31.68
-41.17
-50.8
-59.43
-66.61
-72.53
-77.69
-82.51
-87.06
-91.08
-94.08
-95.65
-95.52
-93.51
-89.45
-83.05
-74.03
-62.18
-47.37
-29.52
-8.36
16.5
45.24
77.28
110.82
142.92
170.32
190.46
202.4
206.9
205.72
200.46
191.62
178.33
158.95
132.18
98.21
59.1
18.48
-19.52
-51.61
-76.18
-93.56
-105.31
-113.25
-118.4
-120.67
-119.09
-112.8
-101.78
-87.2
-70.95
-54.91
-40.16
-26.82
-14.42
-2.46
8.96
19.12
26.94
31.52
32.46
29.91
24.27
16
5.5
-6.73
-19.86
-32.71
-43.96
-52.57
-58.09
-60.64
-60.61
-58.32
-53.69
-46.4
-36.2
-23.31
-8.55
6.75
21.18
33.48
42.76
48.41
50.04
47.53
41.08
31.47
19.99
8.28
-2.16
-10.37
-16.16
-20.02
-22.75
-25.07
-27.31
-29.53
-31.6
-33.42
-34.98
-36.36
-37.62
-38.83
-40.01
-41.19
-42.36
-43.36
-43.9
-43.54
-41.89
-38.76
-34.26
-28.78
-22.89
-17.16
-12.05
-7.83
-4.6
-2.27
-0.59
0.83
2.32
4.09
6.15
8.25
10.06
11.25
11.74
11.71
11.53
11.59
12.05
12.8
13.5
13.77
13.38
12.37
11.02
9.79
9.28
10.06
12.57
16.96
22.95
29.78
36.39
41.63
44.6
44.85
42.33
37.34
30.29
21.67
11.92
1.51
-9.06
-19.31
-28.71
-36.76
-42.94
-46.83
-48.25
-47.3
-44.4
-40.16
-35.19
-29.96
-24.82
-19.95
-15.5
-11.62
-8.39
-5.79
-3.64
-1.73
0.13
2.01
3.88
5.69
7.36
8.88
10.23
11.42
12.48
13.48
14.54
15.75
17.1
18.48
19.66
20.4
20.57
20.16
19.3
18.17
16.89
15.45
13.81
11.97
9.95
7.9
5.96
4.2
2.58
0.99
-0.67
-2.43
-4.21
-5.9
-7.29
-8.2
-8.45
-7.92
-6.5
-4.24
-1.34
1.9
5.07
7.85
10.01
11.53
12.5
13.08
13.43
13.63
13.69
13.56
13.2
12.56
11.65
10.5
9.14
7.6
5.93
4.25
2.74
1.61
0.94
0.67
0.54
0.28
-0.26
-0.99
-1.61
-1.76
-1.27
-0.25
0.88
1.63
1.62
0.74
-0.87
-2.87
-4.9
-6.65
-7.92
-8.7
-9.16
-9.63
-10.55
-12.19
-14.6
-17.47
-20.26
-22.34
-23.2
-22.61
-20.68
-17.69
-14.1
-10.33
-6.76
-3.6
-0.96
1.23
3.14
5.01
7.07
9.41
11.96
14.43
16.47
17.79
18.28
18.04
17.34
16.45
15.56
14.7
13.83
12.95
12.07
11.24
10.47
9.67
8.73
7.64
6.44
5.33
4.44
3.79
3.18
2.37
1.2
-0.3
-1.88
-3.27
-4.19
-4.62
-4.75
-4.89
-5.37
-6.43
-8.13
-10.35
-12.85
-15.28
-17.24
-18.33
-18.22
-16.84
-14.34
-11.12
-7.66
-4.38
-1.46
1.11
3.44
5.61
7.56
9.11
10.1
10.49
10.43
10.22
10.14
10.34
10.8
11.32
11.71
11.84
11.78
11.71
11.8
12.07
12.35
12.34
11.79
10.63
9.01
7.22
5.57
4.18
3.07
2.14
1.28
0.39
-0.59
-1.74
-3.09
-4.67
-6.4
-8.18
-9.87
-11.39
-12.77
-14.12
-15.6
-17.27
-19.05
-20.65
-21.67
-21.72
-20.62
-18.46
-15.59
-12.46
-9.4
-6.58
-3.96
-1.46
0.88
2.95
4.53
5.53
5.96
5.95
5.65
5.2
4.68
4.22
3.95
4.01
4.4
4.98
5.53
5.83
5.84
5.67
5.48
5.32
5.07
4.53
3.6
2.4
1.21
0.27
-0.37
-0.87
-1.48
-2.31
-3.31
-4.29
-5.12
-5.77
-6.4
-7.21
-8.38
-10.01
-12.1
-14.45
-16.78
-18.69
-19.71
-19.51
-18.03
-15.49
-12.34
-9.06
-5.99
-3.27
-0.88
1.23
3.04
4.5
5.6
6.43
7.14
7.92
8.81
9.74
10.53
11
11.08
10.78
10.23
9.5
8.59
7.43
6
4.37
2.62
0.77
-1.32
-3.91
-7.26
-11.46
-16.39
-21.76
-27.21
-32.48
-37.42
-41.98
-46.16
-50.02
-53.57
-56.83
-59.57
-61.14
-60.47
-56.31
-47.73
-34.55
-17.59
1.62
21.39
40.38
57.92
73.85
88.26
101.17
112.51
122.18
130.13
136.12
139.53
139.17
133.61
121.82
103.87
81.19
56.3
31.98
10.43
-7.22
-20.86
-31
-38.27
-43.13
-45.99
-47.28
-47.51
-47.16
-46.48
-45.32
-43.24
-39.8
-34.83
-28.68
-22.18
-16.42
-12.43
-10.81
-11.55
-14.05
-17.37
-20.6
-23.13
-24.86
-26.07
-27.27
-28.87
-31.05
-33.69
-36.5
-39.06
-41
-42.03
-41.95
-40.67
-38.19
-34.64
-30.28
-25.41
-20.44
-15.74
-11.63
-8.19
-5.28
-2.59
0.21
3.23
6.29
8.98
10.9
11.93
12.37
12.77
13.71
15.41
17.66
19.91
21.61
22.45
22.51
22.15
21.81
21.73
21.92
22.23
22.53
22.87
23.48
24.6
26.35
28.59
30.95
33.05
34.59
35.52
35.96
36.04
35.83
35.28
34.24
32.62
30.51
28.22
26.27
25.3
25.92
28.59
33.41
40.09
47.89
55.88
63.14
69.05
73.47
76.64
79.06
81.16
83.28
85.53
87.93
90.47
93
95.28
96.84
97.17
95.97
93.38
90.04
86.84
84.59
83.61
83.56
83.54
82.38
78.94
72.47
62.71
49.96
34.98
18.85
2.68
-12.53
-26.17
-38.05
-48.27
-57.16
-65.18
-72.83
-80.65
-89.16
-98.69
-109.37
-121.03
-133.27
-145.5
-157.08
-167.47
-176.29
-183.36
-188.61
-191.97
-193.17
-191.73
-186.96
-178.28
-165.44
-148.77
-129.11
-107.47
-84.8
-61.72
-38.57
-15.54
7.1
28.91
49.25
67.25
82.04
92.87
99.32
101.52
100.05
95.87
89.97
83.08
75.57
67.48
58.79
49.6
40.21
30.98
22.21
14
6.34
-0.83
-7.55
-13.81
-19.55
-24.66
-28.99
-32.3
-34.36
-35.04
-34.33
-32.41
-29.53
-25.99
-22.1
-18.08
-14.16
-10.5
-7.17
-4.19
-1.58
0.67
2.47
3.74
4.44
4.73
4.81
4.97
5.38
5.98
6.55
6.84
6.7
6.19
5.54
5.01
4.74
4.69
4.61
4.16
3.04
1.08
-1.66
-4.91
-8.24
-11.23
-13.59
-15.34
-16.74
-18.28
-20.44
-23.45
-27.16
-31.01
-34.22
-36.03
-36
-34.06
-30.49
-25.72
-20.15
-14.16
-8.04
-2.15
3.17
7.6
11.04
13.6
15.54
17.14
18.5
19.58
20.31
20.68
20.83
20.95
21.19
21.51
21.8
21.92
21.84
21.66
21.47
21.21
20.67
19.54
17.63
15.02
12
9
6.29
3.95
1.84
-0.21
-2.28
-4.3
-6.05
-7.35
-8.15
-8.63
-9.1
-9.87
-11.14
-13.02
-15.49
-18.45
-21.8
-25.24
-28.35
-30.47
-31.05
-29.74
-26.62
-22.21
-17.18
-12.12
-7.31
-2.71
1.84
6.48
11.09
15.45
19.31
22.48
24.96
26.8
28.1
28.97
29.55
29.94
30.3
30.73
31.24
31.76
32.23
32.62
32.96
33.37
33.94
34.63
35.21
35.26
34.31
32.03
28.37
23.61
18.26
12.87
7.79
3.11
-1.37
-5.96
-11.01
-16.68
-22.92
-29.33
-35.22
-39.77
-42.18
-41.99
-39.27
-34.55
-28.68
-22.49
-16.6
-11.28
-6.62
-2.6
0.73
3.32
5.16
6.4
7.28
8.07
8.93
9.89
10.78
11.35
11.39
10.78
9.6
8.08
6.49
4.98
3.54
1.89
-0.26
-3.07
-6.41
-9.93
-13.25
-16.16
-18.77
-21.36
-24.24
-27.55
-31.28
-35.37
-39.8
-44.58
-49.65
-54.68
-59.02
-61.89
-62.56
-60.72
-56.45
-50.24
-42.75
-34.67
-26.62
-19.12
-12.54
-7.11
-2.89
0.24
2.52
4.25
5.67
6.91
8.01
8.91
9.59
10.06
10.45
10.94
11.73
12.87
14.24
15.55
16.34
16.27
15.21
13.33
11.05
8.82
6.99
5.64
4.58
3.41
1.71
-0.83
-4.25
-8.32
-12.63
-16.77
-20.51
-23.88
-27.19
-30.82
-35.05
-39.89
-45.03
-49.9
-53.76
-55.91
-55.84
-53.36
-48.65
-42.22
-34.81
-27.19
-19.96
-13.45
-7.65
-2.34
2.71
7.54
11.99
15.7
18.43
20.12
21.04
21.56
22
22.49
22.87
22.96
22.59
21.83
20.86
19.84
18.85
17.78
16.49
14.89
12.93
10.61
7.99
5.1
2.04
-1.04
-3.94
-6.56
-8.93
-11.19
-13.56
-16.22
-19.28
-22.75
-26.54
-30.46
-34.08
-36.8
-37.94
-36.97
-33.78
-28.72
-22.5
-15.89
-9.54
-3.76
1.39
5.99
10.13
13.89
17.23
20.08
22.27
23.6
23.96
23.38
22.16
20.78
19.67
19.11
19.05
19.22
19.29
18.99
18.27
17.17
15.83
14.35
12.82
11.2
9.48
7.6
5.47
3.06
0.3
-2.83
-6.33
-10.15
-14.1
-17.91
-21.21
-23.83
-25.87
-27.8
-30.28
-33.87
-38.61
-43.85
-48.4
-50.85
-50.24
-46.33
-39.74
-31.64
-23.29
-15.57
-8.81
-2.93
2.33
7.07
11.16
14.37
16.57
17.89
18.72
19.52
20.63
22.06
23.59
24.85
25.57
25.62
25.17
24.42
23.62
22.9
22.27
21.61
20.8
19.79
18.5
16.96
15.13
13
10.59
8.03
5.59
3.59
2.23
1.52
1.23
0.97
0.32
-0.98
-2.94
-5.33
-7.64
-9.16
-9.17
-7.03
-2.48
4.2
12.2
20.35
27.45
32.54
35.23
35.62
34.12
31.19
27.19
22.38
16.94
11.16
5.34
-0.23
-5.39
-10.15
-14.51
-18.35
-21.32
-23.03
-23.19
-21.84
-19.38
-16.41
-13.56
-11.3
-9.85
-9.17
-9.03
-9.04
-8.78
-7.92
-6.36
-4.36
-2.53
-1.69
-2.59
-5.56
-10.36
-16.2
-21.94
-26.44
-28.9
-28.95
-26.66
-22.36
-16.53
-9.72
-2.57
4.12
9.59
13.26
14.99
15.14
14.39
13.42
12.71
12.41
12.42
12.54
12.53
12.21
11.46
10.26
8.77
7.28
6.14
5.5
5.25
4.93
3.97
1.97
-1.11
-4.93
-8.91
-12.48
-15.32
-17.4
-18.97
-20.47
-22.35
-24.92
-28.28
-32.23
-36.28
-39.77
-41.97
-42.32
-40.55
-36.74
-31.33
-24.86
-17.88
-10.73
-3.58
3.47
10.22
16.36
21.52
25.38
27.89
29.23
29.79
29.91
29.8
29.51
28.91
27.94
26.59
24.96
23.21
21.48
19.87
18.4
17.01
15.59
13.99
12.06
9.78
7.22
4.55
1.92
-0.7
-3.43
-6.59
-10.44
-15.05
-20.25
-25.59
-30.45
-34.24
-36.5
-36.91
-35.41
-32.11
-27.31
-21.35
-14.61
-7.49
-0.36
6.4
12.38
17.23
20.78
23.07
24.39
25.17
25.82
26.6
27.53
28.42
29.05
29.21
28.86
28.11
27.18
26.35
25.8
25.56
25.49
25.36
24.97
24.22
23.12
21.7
19.97
17.89
15.39
12.49
9.33
6.13
3.12
0.36
-2.21
-4.8
-7.61
-10.71
-14.11
-17.68
-21.34
-25.04
-28.85
-32.86
-37.04
-41.15
-44.66
-46.94
-47.38
-45.74
-42.18
-37.16
-31.29
-25.06
-18.72
-12.33
-5.89
0.51
6.67
12.29
17.12
20.98
23.82
25.68
26.72
27.13
27.15
26.98
26.74
26.5
26.31
26.18
26.11
26
25.68
24.97
23.83
22.38
20.91
19.75
19.04
18.7
18.37
17.68
16.42
14.55
12.24
9.68
7
4.22
1.35
-1.58
-4.49
-7.28
-9.85
-12.2
-14.33
-16.3
-18.21
-20.19
-22.48
-25.33
-28.92
-33.2
-37.73
-41.76
-44.41
-44.95
-43.09
-39.03
-33.41
-27
-20.49
-14.31
-8.63
-3.47
1.2
5.4
9.13
12.44
15.37
17.9
19.94
21.39
22.22
22.52
22.55
22.55
22.69
22.91
23.06
23.04
22.87
22.67
22.53
22.42
22.11
21.41
20.25
18.78
17.25
15.86
14.6
13.3
11.74
9.83
7.73
5.76
4.17
3.06
2.22
1.25
-0.28
-2.61
-5.72
-9.3
-12.92
-16.18
-18.9
-21.16
-23.22
-25.47
-28.11
-31.22
-34.58
-37.79
-40.38
-41.76
-41.5
-39.34
-35.34
-29.84
-23.49
-17.02
-11.08
-6.04
-1.95
1.46
4.52
7.54
10.61
13.59
16.29
18.53
20.22
21.41
22.19
22.69
22.94
23.02
22.99
22.89
22.78
22.61
22.29
21.62
20.54
19.14
17.69
16.47
15.63
15.08
14.58
13.82
12.66
11.15
9.49
7.92
6.52
5.21
3.84
2.28
0.59
-1.1
-2.57
-3.73
-4.63
-5.45
-6.44
-7.87
-9.88
-12.54
-15.67
-18.95
-21.83
-23.69
-23.95
-22.28
-18.73
-13.74
-8.02
-2.23
3.18
8.05
12.44
16.48
20.18
23.37
25.91
27.67
28.73
29.2
29.22
28.89
28.28
27.54
26.86
26.46
26.43
26.71
27.05
27.25
27.23
27.12
27.15
27.35
27.54
27.34
26.34
24.37
21.53
18.17
14.66
11.28
8.1
5.05
1.94
-1.42
-5.24
-9.59
-14.43
-19.48
-24.28
-28.35
-31.39
-33.4
-34.75
-36.04
-37.82
-40.42
-43.75
-47.22
-50
-51.18
-50.18
-46.94
-41.78
-35.34
-28.13
-20.53
-12.72
-4.98
2.18
8.02
11.75
12.93
11.62
8.32
3.67
-1.72
-7.39
-12.77
-17.11
-19.75
-20.51
-20.16
-20.2
-22.18
-26.77
-33.27
-39.93
-44.89
-47.25
-47.5
-47.17
-47.76
-49.91
-53.09
-56.09
-57.82
-57.89
-56.67
-54.88
-53.08
-51.37
-49.49
-47.01
-43.7
-39.63
-35.27
-31.35
-28.68
-27.91
-29.11
-31.75
-34.58
-36.08
-34.88
-30.3
-22.63
-12.96
-2.85
6.27
13.45
18.38
21.18
22.22
21.94
20.73
19.07
17.48
16.53
16.64
18.13
20.96
24.69
28.58
31.72
33.42
33.34
31.61
28.7
25.13
21.27
17.23
13.03
8.74
4.6
0.96
-1.94
-4.17
-6.08
-8.2
-10.96
-14.62
-19.13
-24.32
-29.88
-35.41
-40.35
-43.97
-45.52
-44.47
-40.73
-34.85
-27.79
-20.62
-14.14
-8.58
-3.66
1.13
6.22
11.61
16.9
21.44
24.65
26.3
26.55
25.88
24.88
24.03
23.57
23.56
23.84
24.24
24.61
24.7
24.32
23.2
21.21
18.38
14.92
11.13
7.3
3.53
-0.23
-4.18
-8.51
-13.35
-18.75
-24.6
-30.67
-36.53
-41.61
-45.23
-46.68
-45.54
-41.72
-35.57
-27.79
-19.27
-10.8
-2.88
4.35
11.06
17.45
23.63
29.49
34.7
38.94
42.09
44.3
45.84
47.04
47.95
48.51
48.51
47.9
46.81
45.47
44.13
42.91
41.8
40.65
39.36
37.89
36.21
34.34
32.25
29.91
27.28
24.39
21.32
18.14
14.94
11.75
8.52
5.17
1.59
-2.26
-6.33
-10.46
-14.49
-18.36
-22.21
-26.31
-31
-36.47
-42.52
-48.6
-53.81
-57.23
-58.19
-56.44
-52.15
-45.8
-37.95
-29.14
-19.83
-10.43
-1.32
7.17
14.8
21.47
27.16
31.84
35.5
38.1
39.76
40.7
41.28
41.78
42.35
42.98
43.57
44.09
44.55
45
45.39
45.58
45.43
44.86
43.98
43.01
42.09
41.2
40.11
38.48
36.09
33.02
29.53
26.03
22.85
20.15
17.85
15.83
13.94
12.1
10.26
8.32
6.22
3.83
1.15
-1.8
-4.9
-7.98
-10.92
-13.68
-16.32
-19.02
-21.99
-25.42
-29.39
-33.81
-38.3
-42.22
-44.76
-45.17
-43.01
-38.33
-31.68
-23.98
-16.2
-9.09
-3.05
1.92
6.06
9.6
12.71
15.45
17.84
19.92
21.72
23.26
24.51
25.37
25.75
25.63
25.13
24.45
23.86
23.58
23.67
24.06
24.68
25.42
26.2
26.88
27.2
26.8
25.4
22.95
19.76
16.43
13.58
11.56
10.27
9.21
7.75
5.49
2.41
-1.18
-4.82
-8.15
-11.06
-13.65
-16.13
-18.63
-21.27
-24.1
-27.2
-30.68
-34.56
-38.58
-42.21
-44.67
-45.19
-43.24
-38.82
-32.42
-24.97
-17.44
-10.56
-4.58
0.64
5.44
10.07
14.5
18.48
21.69
23.89
25.14
25.66
25.76
25.67
25.41
24.88
24.01
22.88
21.75
20.95
20.66
20.75
20.81
20.4
19.22
17.34
15.12
12.96
11.08
9.41
7.76
5.91
3.84
1.68
-0.48
-2.65
-4.97
-7.58
-10.57
-13.87
-17.39
-21.09
-24.95
-28.88
-32.55
-35.45
-36.93
-36.48
-33.95
-29.64
-24.2
-18.37
-12.83
-7.94
-3.77
-0.15
3.15
6.34
9.51
12.62
15.45
17.73
19.22
19.79
19.56
18.87
18.23
18.08
18.61
19.68
20.86
21.63
21.63
20.71
19.06
16.97
14.78
12.69
10.77
8.96
7.16
5.29
3.34
1.39
-0.56
-2.52
-4.59
-6.9
-9.52
-12.39
-15.31
-18.08
-20.6
-22.92
-25.21
-27.56
-29.77
-31.4
-31.83
-30.59
-27.59
-23.21
-18.14
-13.13
-8.66
-4.82
-1.41
1.89
5.22
8.48
11.39
13.66
15.23
16.23
16.93
17.51
17.97
18.18
17.97
17.35
16.5
15.75
15.32
15.2
15.11
14.71
13.72
12.14
10.19
8.23
6.55
5.22
4.08
2.85
1.26
-0.78
-3.2
-5.75
-8.21
-10.42
-12.37
-14.19
-16.14
-18.51
-21.48
-25.02
-28.84
-32.33
-34.79
-35.56
-34.31
-31.14
-26.52
-21.13
-15.58
-10.33
-5.6
-1.48
2
4.82
7.03
8.76
10.21
11.62
13.07
14.53
15.84
16.8
17.31
17.43
17.28
17.04
16.81
16.67
16.65
16.7
16.68
16.39
15.58
14.15
12.21
10.04
8.03
6.36
4.97
3.52
1.58
-1.08
-4.44
-8.11
-11.59
-14.49
-16.67
-18.28
-19.69
-21.28
-23.35
-25.99
-29.14
-32.59
-36.03
-39.04
-41.1
-41.67
-40.3
-36.82
-31.5
-24.95
-17.98
-11.26
-5.23
0.03
4.63
8.68
12.2
15.15
17.56
19.5
21.21
22.9
24.64
26.34
27.77
28.69
28.98
28.73
28.15
27.5
26.98
26.62
26.31
25.86
25.09
23.92
22.34
20.48
18.52
16.59
14.74
12.84
10.75
8.31
5.48
2.31
-1.06
-4.51
-8.01
-11.53
-15.05
-18.48
-21.79
-24.97
-28.2
-31.65
-35.38
-39.19
-42.57
-44.9
-45.69
-44.73
-42.19
-38.43
-33.86
-28.88
-23.76
-18.68
-13.8
-9.18
-4.93
-1.13
2.1
4.64
6.38
7.28
7.47
7.27
7.07
7.27
8.06
9.39
10.96
12.39
13.35
13.68
13.44
12.82
12
11.08
10.01
8.64
6.91
4.83
2.51
0.11
-2.24
-4.49
-6.68
-8.95
-11.54
-14.7
-18.72
-23.62
-29.18
-34.79
-39.7
-43.13
-44.55
-43.77
-40.97
-36.48
-30.78
-24.35
-17.64
-11.06
-4.89
0.71
5.75
10.34
14.56
18.35
21.55
23.89
25.2
25.44
24.78
23.57
22.22
21.04
20.19
19.64
19.25
18.81
18.09
16.9
15.07
12.45
9.03
4.98
0.65
-3.5
-7.12
-10.08
-12.52
-14.82
-17.48
-20.93
-25.41
-30.81
-36.58
-41.91
-45.84
-47.54
-46.63
-43.22
-37.85
-31.21
-23.96
-16.57
-9.31
-2.34
4.24
10.31
15.76
20.51
24.46
27.48
29.43
30.22
29.91
28.79
27.31
25.95
25.08
24.82
25
25.35
25.59
25.52
25.08
24.29
23.14
21.58
19.53
16.99
14.07
10.97
7.95
5.16
2.63
0.25
-2.09
-4.58
-7.38
-10.61
-14.4
-18.86
-24.03
-29.82
-35.89
-41.61
-46.17
-48.66
-48.4
-45.21
-39.46
-32.03
-24
-16.27
-9.35
-3.27
2.22
7.37
12.19
16.48
19.92
22.34
23.85
24.81
25.65
26.61
27.69
28.61
29.05
28.83
28.14
27.4
27.01
27.14
27.53
27.66
27
25.38
23.06
20.57
18.45
16.86
15.5
13.81
11.24
7.62
3.28
-1.09
-4.86
-7.74
-9.94
-12.04
-14.73
-18.51
-23.45
-29.22
-35.11
-40.26
-43.76
-44.91
-43.34
-39.11
-32.72
-25.05
-17.04
-9.45
-2.66
3.38
8.85
13.95
18.62
22.65
25.8
27.95
29.21
29.84
30.08
30.07
29.85
29.42
28.86
28.33
28
27.97
28.11
28.14
27.7
26.55
24.64
22.08
19.15
16.23
13.62
11.49
9.81
8.33
6.69
4.6
1.96
-1.14
-4.41
-7.59
-10.61
-13.58
-16.77
-20.45
-24.75
-29.64
-34.9
-40.14
-44.77
-48.06
-49.22
-47.75
-43.62
-37.43
-30.23
-23.11
-16.77
-11.31
-6.29
-1.23
4.12
9.54
14.55
18.71
21.98
24.64
27.09
29.49
31.66
33.21
33.84
33.55
32.68
31.62
30.67
29.85
29
27.88
26.36
24.45
22.23
19.81
17.28
14.66
12.01
9.33
6.57
3.64
0.5
-2.85
-6.38
-10.11
-14.22
-19
-24.69
-31.37
-38.79
-46.46
-53.88
-60.53
-65.98
-69.79
-71.42
-70.34
-66.25
-59.3
-50.26
-40.3
-30.65
-22.13
-15.08
-9.3
-4.46
-0.33
3.07
5.53
6.86
7.06
6.29
4.84
2.98
0.81
-1.62
-4.26
-7.01
-9.65
-11.96
-13.87
-15.47
-17.04
-18.94
-21.47
-24.79
-28.95
-33.82
-39.17
-44.73
-50.11
-54.84
-58.47
-60.54
-60.8
-59.31
-56.33
-52.32
-47.69
-42.76
-37.61
-32.29
-26.88
-21.57
-16.6
-12.01
-7.49
-2.29
4.51
13.7
25.44
39.11
53.4
66.55
76.81
82.72
83.29
78.13
67.45
52.13
33.7
14.07
-4.65
-20.63
-32.54
-39.73
-42.27
-40.98
-37.44
-33.66
-31.49
-31.82
-34.05
-36.21
-35.91
-31.59
-23.34
-12.95
-2.8
5.26
10.81
14.71
18.24
22.2
26.53
30.63
34.08
37.06
40.21
44.18
48.89
53.51
56.74
57.41
55
49.85
42.99
35.75
29.37
24.71
22.2
21.85
23.38
26.34
30.23
34.6
39.1
43.49
47.6
51.28
54.36
56.7
58.17
58.76
58.53
57.61
56.15
54.23
51.88
49.09
45.89
42.37
38.73
35.18
31.9
28.9
26.08
23.18
19.93
16.19
11.97
7.49
3.1
-0.89
-4.29
-7.14
-9.61
-11.96
-14.4
-17.06
-19.94
-22.9
-25.62
-27.57
-28.1
-26.57
-22.64
-16.44
-8.62
-0.11
8.23
15.84
22.63
28.76
34.46
39.84
45.01
50.1
55.26
60.56
65.7
69.91
72.12
71.27
66.81
58.8
47.92
35.13
21.43
7.72
-5.17
-16.42
-25.28
-31.25
-34.39
-35.43
-35.65
-36.48
-39.06
-43.87
-50.6
-58.37
-66.02
-72.49
-77.11
-79.73
-80.57
-79.97
-78.16
-75.08
-70.5
-64.19
-56.19
-46.95
-37.2
-27.73
-19.09
-11.49
-4.75
1.35
7.01
12.26
17.01
21.16
24.58
27.24
29.09
30.16
30.63
30.79
31.02
31.57
32.47
33.49
34.26
34.44
33.9
32.7
31.02
29.08
26.98
24.78
22.55
20.33
18.21
16.18
14.16
11.98
9.46
6.49
3.07
-0.65
-4.47
-8.14
-11.56
-14.76
-17.97
-21.47
-25.46
-29.87
-34.24
-37.77
-39.55
-38.91
-35.68
-30.29
-23.57
-16.48
-9.69
-3.53
1.95
6.86
11.18
14.84
17.75
19.9
21.44
22.6
23.59
24.49
25.24
25.66
25.62
25.14
24.36
23.56
22.89
22.36
21.75
20.8
19.33
17.44
15.44
13.7
12.37
11.34
10.29
8.83
6.79
4.22
1.38
-1.41
-3.93
-6.13
-8.11
-10.11
-12.42
-15.21
-18.57
-22.33
-26.17
-29.55
-31.85
-32.54
-31.3
-28.14
-23.41
-17.76
-11.85
-6.27
-1.26
3.22
7.39
11.45
15.37
18.93
21.76
23.58
24.34
24.26
23.66
22.89
22.13
21.37
20.53
19.5
18.27
16.91
15.49
14
12.33
10.34
7.95
5.24
2.44
-0.17
-2.42
-4.27
-5.79
-7.15
-8.45
-9.78
-11.14
-12.58
-14.14
-15.95
-18.11
-20.69
-23.55
-26.34
-28.51
-29.43
-28.67
-26.13
-22.14
-17.3
-12.18
-7.18
-2.38
2.27
6.78
10.94
14.36
16.66
17.64
17.43
16.43
15.15
14.01
13.23
12.78
12.43
11.93
11.05
9.75
8.17
6.55
5.13
4.04
3.18
2.29
1
-0.92
-3.5
-6.57
-9.77
-12.8
-15.46
-17.76
-19.92
-22.18
-24.82
-27.92
-31.39
-34.87
-37.81
-39.55
-39.5
-37.32
-33.06
-27.11
-20.12
-12.75
-5.48
1.43
7.88
13.77
19.01
23.4
26.8
29.17
30.7
31.68
32.44
33.2
33.95
34.55
34.76
34.45
33.66
32.61
31.53
30.59
29.79
28.88
27.51
25.35
22.24
18.35
14.1
10.05
6.6
3.82
1.34
-1.47
-5.21
-10.12
-15.94
-21.89
-27.01
-30.46
-31.75
-30.85
-28.05
-23.74
-18.35
-12.23
-5.68
0.97
7.45
13.49
18.92
23.68
27.77
31.2
33.99
36.21
37.97
39.39
40.52
41.33
41.73
41.67
41.28
40.94
41.11
42.07
43.7
45.43
46.44
45.94
43.4
38.7
32.04
23.84
14.65
5.09
-4.23
-12.78
-20.32
-26.89
-32.86
-38.66
-44.64
-50.84
-56.93
-62.25
-65.96
-67.27
-65.62
-60.91
-53.59
-44.56
-34.9
-25.51
-16.92
-9.24
-2.39
3.74
9.2
13.98
18.15
21.78
24.78
26.66
26.64
23.86
18
9.51
-0.29
-9.68
-17.15
-21.92
-24.12
-24.46
-23.87
-23.03
-22.25
-21.53
-20.81
-20.12
-19.58
-19.36
-19.41
-19.39
-18.77
-16.98
-13.82
-9.65
-5.35
-2
-0.53
-1.33
-4.26
-8.77
-14.22
-20.08
-25.91
-31.24
-35.43
-37.77
-37.74
-35.36
-31.31
-26.74
-22.84
-20.46
-19.93
-21.29
-24.47
-29.29
-35.08
-40.39
-43.01
-40.82
-32.84
-20.07
-5.37
7.63
16.11
19.34
18.74
16.94
16.36
18.09
21.82
26.46
31.11
35.49
39.92
44.72
49.77
54.39
57.67
58.89
57.86
54.98
50.91
46.26
41.32
36.03
30.21
23.86
17.35
11.49
7.32
5.79
7.26
11.35
17.02
22.98
28.1
31.82
34.21
35.69
36.74
37.62
38.34
38.71
38.48
37.47
35.63
33.12
30.24
27.5
25.52
24.88
25.92
28.76
33.22
38.87
45.21
51.73
58.03
63.83
69.1
73.95
78.52
82.77
86.33
88.42
87.97
83.97
75.77
63.35
47.39
29.11
10.05
-8.37
-24.96
-39.01
-50.36
-59.47
-67.38
-75.39
-84.65
-95.54
-107.4
-118.66
-127.36
-131.84
-131.13
-125.03
-113.82
-98.26
-79.51
-59.34
-39.97
-23.52
-11.24
-3.02
2.39
6.54
10.29
13.38
14.79
13.55
9.35
2.53
-6.49
-17.83
-32.14
-50.03
-71.09
-93.34
-113.55
-128.05
-134.05
-130.57
-118.71
-101.16
-81.25
-61.87
-44.81
-30.55
-18.46
-7.6
2.65
12.19
20.11
25.05
25.83
21.95
14.02
3.73
-6.52
-14.37
-18.42
-18.81
-17.32
-16.57
-18.84
-24.94
-33.67
-42.35
-47.82
-47.72
-41.22
-29.1
-13.27
3.87
20.11
33.84
44.31
51.64
56.83
61.37
66.81
74.21
83.59
93.94
103.45
110.17
112.78
111.01
105.7
98.39
90.73
83.87
78.21
73.45
68.91
63.83
57.52
49.24
38.32
24.45
8.04
-9.44
-25.71
-38.32
-45.69
-47.8
-46.42
-44.65
-45.83
-52.36
-64.8
-81.66
-99.91
-116.17
-127.83
-133.95
-135.37
-134
-131.78
-129.74
-127.68
-124.61
-119.51
-112.1
-102.98
-93.31
-84.22
-76.38
-69.71
-63.81
-58.21
-52.79
-47.87
-43.88
-41.09
-39.19
-37.4
-34.65
-30.18
-23.84
-16.27
-8.66
-2.28
1.95
3.76
3.62
2.48
1.49
1.67
3.54
7.15
12.07
17.65
23.23
28.33
32.74
36.41
39.43
41.92
44.07
46.11
48.21
50.38
52.48
54.25
55.53
56.3
56.69
56.78
56.42
55.22
52.67
48.56
43.09
36.87
30.71
25.17
20.48
16.46
12.7
8.67
3.82
-2.51
-10.98
-22
-35.41
-50.11
-64.18
-75.25
-81.31
-81.35
-75.7
-65.81
-53.7
-41.43
-30.62
-22.33
-17.07
-14.67
-14.26
-14.38
-13.2
-9.11
-1.26
10.19
24.25
39.53
54.81
69.33
82.74
94.86
105.37
113.76
119.34
121.4
119.44
113.35
103.55
91.14
77.58
64.31
52.23
41.45
31.39
21.22
10.39
-1.14
-12.9
-24.2
-34.44
-43.21
-50.24
-55.31
-58.1
-58.33
-56.01
-51.63
-46.22
-41.26
-38.22
-38.22
-41.65
-48.01
-56.05
-64.06
-70.25
-73.16
-71.94
-66.5
-57.65
-46.9
-36.13
-27.14
-21.07
-18.05
-17.27
-17.24
-16.44
-13.91
-9.45
-3.64
2.55
8.11
12.48
15.51
17.57
19.21
20.89
22.92
25.4
28.35
31.65
35.01
37.93
39.77
39.96
38.31
35.16
31.19
27.24
23.88
21.27
19.21
17.34
15.32
12.95
10.12
6.69
2.57
-2.29
-7.78
-13.61
-19.34
-24.5
-28.67
-31.45
-32.55
-31.75
-29.01
-24.52
-18.78
-12.47
-6.3
-0.93
3.22
5.93
7.27
7.41
6.56
4.89
2.49
-0.63
-4.28
-7.93
-10.75
-11.8
-10.35
-6.24
0.03
7.47
15
21.77
27.41
31.85
35.2
37.56
38.9
39.21
38.58
37.25
35.64
34.21
33.26
32.83
32.7
32.34
31.24
29.12
26.14
22.8
19.8
17.6
16.13
14.77
12.54
8.52
2.32
-5.64
-14.31
-22.25
-28.18
-31.4
-31.96
-30.64
-28.53
-26.75
-26.12
-26.98
-29.19
-32.2
-35.15
-37.11
-37.31
-35.41
-31.73
-27.24
-23.25
-20.86
-20.66
-22.4
-25.15
-27.69
-28.93
-28.29
-25.82
-22.18
-18.29
-15.13
-13.35
-13.16
-14.33
-16.35
-18.74
-21.2
-23.73
-26.46
-29.44
-32.57
-35.5
-37.81
-39.24
-39.62
-39
-37.47
-35.16
-32.21
-28.8
-25.05
-20.89
-15.98
-9.74
-1.56
8.9
21.57
36
51.52
67.33
82.51
95.85
105.97
111.55
111.88
107.37
99.65
91.11
84.08
79.96
78.8
79.59
80.82
81.24
80.25
77.86
74.49
70.55
66.29
61.75
56.82
51.18
44.43
36.18
26.13
14.32
1.18
-12.56
-26.03
-38.53
-49.53
-58.76
-66.07
-71.49
-75.14
-77.34
-78.58
-79.29
-79.69
-79.58
-78.35
-75.25
-69.61
-61.19
-50.11
-36.87
-22.04
-6.24
10.06
26.47
42.71
58.53
73.74
88.19
101.75
114.38
125.96
136.3
144.88
150.93
153.63
152.37
147.06
138.22
126.8
113.86
100.22
86.42
72.87
60.17
49.1
40.47
34.79
31.99
31.48
32.43
34.16
36.28
38.72
41.45
44.23
46.55
47.72
47.17
44.64
40.24
34.23
26.79
17.84
7.12
-5.44
-19.28
-33.13
-45.21
-53.92
-58.61
-59.76
-58.94
-57.99
-58.26
-60.15
-63.19
-66.54
-69.53
-71.99
-74.13
-76.17
-78.09
-79.55
-80.13
-79.69
-78.44
-76.95
-75.77
-75.14
-74.8
-74.1
-72.33
-69.04
-64.25
-58.38
-51.85
-44.98
-37.81
-30.25
-22.43
-14.75
-7.91
-2.6
0.91
2.86
4.05
5.45
7.92
11.85
17.12
23.14
29.03
33.91
37.09
38.3
37.71
35.9
33.5
31.03
28.61
26.11
23.3
20.09
16.65
13.31
10.32
7.67
5.1
2.28
-0.93
-4.39
-7.72
-10.59
-12.79
-14.36
-15.38
-15.82
-15.52
-14.29
-12.09
-9.22
-6.2
-3.64
-2.04
-1.73
-2.95
-5.87
-10.6
-16.99
-24.48
-32.05
-38.51
-42.74
-44.09
-42.52
-38.59
-33.23
-27.58
-22.68
-19.34
-17.97
-18.62
-21
-24.72
-29.36
-34.57
-39.99
-45.07
-49.11
-51.43
-51.7
-50.13
-47.49
-44.71
-42.52
-41.14
-40.36
-39.79
-39.22
-38.73
-38.66
-39.37
-41.04
-43.57
-46.68
-50.07
-53.6
-57.32
-61.38
-65.88
-70.68
-75.24
-78.66
-79.91
-78.14
-73.04
-64.92
-54.62
-43.19
-31.55
-20.31
-9.8
-0.14
8.51
15.93
21.81
25.91
28.13
28.68
28.04
26.82
25.61
24.79
24.47
24.54
24.88
25.42
26.21
27.26
28.41
29.28
29.39
28.35
26.09
22.93
19.46
16.34
14.06
12.77
12.31
12.27
12.16
11.53
10.11
7.85
4.99
2.04
-0.25
-1.09
0.18
3.94
10.13
18.34
27.88
38.08
48.45
58.67
68.63
78.16
86.99
94.73
100.92
105.2
107.43
107.77
106.59
104.38
101.55
98.43
95.26
92.24
89.54
87.31
85.61
84.39
83.58
83.07
82.85
82.98
83.49
84.37
85.48
86.58
87.37
87.77
87.68
87.19
86.33
85.04
83.2
80.51
76.56
70.87
62.95
52.4
39.13
23.46
6.07
-12.12
-30.19
-47.43
-63.44
-78.06
-91.28
-103.06
-113.3
-121.81
-128.32
-132.56
-134.21
-132.98
-128.72
-121.57
-112.01
-100.78
-88.79
-76.81
-65.43
-54.88
-45.19
-36.22
-27.83
-19.89
-12.39
-5.31
1.32
7.43
12.92
17.63
21.42
24.17
25.99
27.09
27.75
28.12
28.21
27.81
26.72
24.86
22.41
19.72
17.12
14.91
13.19
12.03
11.54
11.84
12.91
14.54
16.33
17.89
19.05
19.93
20.96
22.45
24.38
26.31
27.55
27.46
25.78
22.72
18.78
14.47
10.08
5.54
0.62
-4.93
-11.19
-17.99
-25.02
-31.9
-38.25
-43.76
-48.12
-51.08
-52.51
-52.49
-51.3
-49.38
-47.13
-44.78
-42.29
-39.52
-36.4
-33.15
-30.28
-28.39
-27.93
-28.98
-31.19
-34.04
-37.04
-39.92
-42.57
-44.91
-46.68
-47.54
-47.23
-45.78
-43.61
-41.36
-39.65
-38.84
-39.1
-40.5
-43.11
-46.8
-51.02
-54.71
-56.49
-55.23
-50.66
-43.54
-35.34
-27.63
-21.35
-16.65
-13.03
-9.87
-6.87
-4.12
-1.93
-0.56
0.05
0.17
0.11
-0.02
-0.39
-1.37
-3.23
-5.96
-8.98
-11.28
-11.71
-9.44
-4.42
2.61
10.36
17.58
23.45
27.83
31.08
33.74
36.19
38.5
40.6
42.46
44.28
46.4
49.2
52.8
57.01
61.38
65.4
68.74
71.42
73.71
76.08
78.92
82.41
86.41
90.45
93.9
96.08
96.45
94.69
90.7
84.59
76.51
66.67
55.25
42.44
28.48
13.61
-1.89
-17.77
-33.81
-49.77
-65.28
-79.9
-93.01
-103.89
-111.83
-116.24
-116.86
-113.95
-108.3
-101.02
-93.26
-85.82
-78.98
-72.57
-66.26
-59.97
-53.89
-48.43
-43.85
-40.03
-36.49
-32.69
-28.41
-23.9
-19.76
-16.61
-14.69
-13.78
-13.25
-12.53
-11.3
-9.74
-8.28
-7.41
-7.33
-7.94
-8.82
-9.54
-9.82
-9.66
-9.32
-9.07
-9.19
-9.77
-10.84
-12.52
-14.89
-18
-21.61
-25.1
-27.57
-28.15
-26.36
-22.35
-16.86
-10.92
-5.45
-0.94
2.64
5.65
8.47
11.31
14.13
16.72
18.96
20.8
22.36
23.75
25
26
26.61
26.75
26.45
25.91
25.27
24.62
23.9
23
21.83
20.41
18.88
17.39
16.06
14.93
13.89
12.79
11.43
9.64
7.32
4.49
1.36
-1.66
-3.94
-4.84
-3.77
-0.45
5
12.05
19.89
27.7
34.75
40.62
45.2
48.62
51.1
52.94
54.41
55.65
56.72
57.51
57.85
57.52
56.39
54.41
51.63
48.12
44
39.4
34.46
29.38
24.36
19.58
15.07
10.77
6.54
2.26
-2.09
-6.41
-10.53
-14.35
-17.83
-21.09
-24.27
-27.49
-30.74
-33.86
-36.61
-38.8
-40.38
-41.48
-42.38
-43.34
-44.54
-45.97
-47.49
-48.8
-49.47
-48.94
-46.62
-42.02
-35.07
-26.12
-16.01
-5.7
4
12.66
20.3
27.15
33.49
39.46
45.07
50.27
55.05
59.47
63.61
67.55
71.39
75.27
79.39
83.89
88.76
93.77
98.43
102.1
104.21
104.42
102.71
99.4
95
90
84.7
79.19
73.36
67.19
60.81
54.54
48.75
43.55
38.66
33.47
27.19
19.14
8.96
-3.34
-17.41
-32.57
-47.88
-62.25
-74.56
-83.99
-90.19
-93.51
-94.79
-95.14
-95.56
-96.69
-98.7
-101.35
-104.18
-106.62
-108.2
-108.63
-107.92
-106.36
-104.42
-102.64
-101.42
-100.95
-101.1
-101.53
-101.71
-101.09
-99.31
-96.32
-92.42
-88.17
-84.14
-80.64
-77.62
-74.7
-71.42
-67.47
-62.92
-58.08
-53.4
-49.16
-45.35
-41.74
-38
-33.89
-29.36
-24.52
-19.55
-14.63
-9.92
-5.6
-1.85
1.2
3.62
5.8
8.43
12.27
17.85
25.22
33.9
43.09
52.04
60.26
67.7
74.48
80.65
86.02
90.24
92.95
94.08
93.9
92.83
91.21
89.17
86.49
82.93
78.38
73.1
67.61
62.52
58.26
54.9
52.23
49.87
47.43
44.65
41.44
37.78
33.69
29.08
23.86
17.91
11.24
3.99
-3.58
-11.21
-18.83
-26.6
-34.86
-43.89
-53.7
-63.79
-73.26
-81
-86.11
-88.07
-86.98
-83.41
-78.3
-72.61
-67.11
-62.16
-57.7
-53.4
-48.84
-43.79
-38.2
-32.24
-26.08
-19.82
-13.49
-7.08
-0.77
5.13
10.2
14.05
16.52
17.67
17.81
17.32
16.59
15.78
14.87
13.73
12.21
10.45
8.86
8.08
8.67
10.87
14.41
18.7
23
26.8
29.89
32.41
34.59
36.58
38.41
39.96
41.04
41.52
41.39
40.73
39.81
39.03
38.85
39.71
41.83
45.07
48.85
52.26
54.34
54.39
52.18
48.02
42.59
36.51
30.18
23.58
16.62
9.34
2.2
-4.08
-8.86
-11.92
-13.69
-14.85
-16.05
-17.5
-18.96
-20
-20.36
-20.23
-20.07
-20.4
-21.43
-22.95
-24.49
-25.51
-25.64
-24.76
-22.92
-20.3
-17.03
-13.27
-9.16
-4.81
-0.28
4.45
9.57
15.39
22.17
29.96
38.37
46.57
53.49
58.23
60.41
60.35
58.96
57.39
56.59
56.97
58.34
60.02
61.1
60.67
58.09
53.11
46.01
37.57
28.92
21.18
15.19
11.28
9.37
9.13
10.14
12.05
14.46
16.87
18.75
19.64
19.31
17.94
16.04
14.25
13.11
12.83
13.34
14.4
15.8
17.61
20.15
23.87
29.12
35.89
43.74
51.89
59.43
65.67
70.27
73.18
74.61
74.87
74.28
73.15
71.8
70.45
69.15
67.75
65.86
62.89
58.2
51.22
41.75
30.01
16.69
2.73
-11.08
-24.4
-37.36
-50.43
-64.01
-78.13
-92.36
-106.08
-118.69
-129.77
-139.09
-146.43
-151.58
-154.34
-154.73
-153.02
-149.68
-145.11
-139.52
-132.92
-125.29
-116.72
-107.52
-97.98
-88.31
-78.54
-68.6
-58.5
-48.44
-38.81
-30
-22.3
-15.75
-10.11
-5.06
-0.29
4.36
8.83
12.92
16.34
18.84
20.34
21.01
21.18
21.19
21.22
21.17
20.75
19.62
17.6
14.75
11.3
7.56
3.81
0.21
-3.07
-5.82
-7.76
-8.63
-8.28
-6.79
-4.52
-1.89
0.72
3.15
5.52
8.1
11.1
14.5
17.97
21.05
23.31
24.59
25.1
25.36
25.92
27.17
29.14
31.55
33.93
35.88
37.18
37.95
38.48
39.17
40.39
42.34
44.96
47.91
50.7
52.74
53.48
52.46
49.41
44.33
37.52
29.56
21.16
12.97
5.31
-1.85
-8.91
-16.28
-24.05
-31.78
-38.5
-43.06
-44.55
-42.81
-38.45
-32.66
-26.8
-21.92
-18.57
-16.73
-16.02
-15.91
-15.85
-15.35
-13.97
-11.46
-7.89
-3.7
0.33
3.4
4.94
4.91
3.68
1.93
0.33
-0.68
-0.9
-0.37
0.72
2.03
3.28
4.25
4.86
5.24
5.6
6.06
6.54
6.67
5.97
4.09
1.03
-2.8
-6.76
-10.18
-12.72
-14.41
-15.53
-16.51
-17.59
-18.8
-20.05
-21.19
-22.21
-23.19
-24.3
-25.51
-26.67
-27.42
-27.38
-26.32
-24.35
-21.83
-19.2
-16.85
-14.87
-13.12
-11.28
-9.08
-6.37
-3.2
0.24
3.71
7.01
10.06
12.89
15.64
18.47
21.5
24.81
28.29
31.68
34.57
36.51
37.15
36.41
34.47
31.72
28.56
25.16
21.45
17.2
12.28
6.89
1.65
-2.65
-5.39
-6.45
-6.28
-5.6
-5.02
-4.74
-4.47
-3.7
-2.1
0.28
2.97
5.34
6.9
7.46
7.13
6.15
4.77
3.11
1.32
-0.37
-1.64
-2.16
-1.81
-0.71
0.73
2.04
2.86
3.11
2.96
2.69
2.54
2.58
2.76
3.05
3.41
3.92
4.57
5.21
5.63
5.62
5.1
4.22
3.25
2.47
1.93
1.52
0.96
0.12
-0.92
-1.89
-2.56
-2.94
-3.42
-4.52
-6.66
-9.8
-13.37
-16.5
-18.3
-18.27
-16.5
-13.52
-10.04
-6.66
-3.64
-0.95
1.5
3.84
5.97
7.71
8.86
9.35
9.23
8.67
7.91
7.12
6.44
5.96
5.81
6.08
6.87
8.15
9.81
11.65
13.44
15.03
16.41
17.7
19.08
20.7
22.61
24.71
26.79
28.6
29.9
30.52
30.4
29.59
28.17
26.24
23.84
20.99
17.81
14.56
11.57
9.19
7.52
6.3
5.04
3.25
0.72
-2.38
-5.56
-8.26
-10.11
-10.93
-10.74
-9.65
-7.79
-5.39
-2.78
-0.37
1.51
2.74
3.4
3.74
4
4.31
4.67
5.02
5.29
5.46
5.54
5.6
5.79
6.33
7.37
8.91
10.76
12.51
13.74
14.19
13.8
12.69
11.09
9.17
7.07
5.04
3.41
2.56
2.74
3.9
5.55
6.93
7.28
6.11
3.38
-0.58
-5.18
-9.82
-13.99
-17.26
-19.37
-20.08
-19.27
-17
-13.55
-9.32
-4.85
-0.63
2.95
5.71
7.72
9.38
11.43
14.83
20.56
29.34
41.3
55.81
71.47
86.34
98.43
106.2
109.02
107.3
102.19
94.88
85.83
74.36
59
38.38
12.31
-17.82
-49.39
-79.6
-106.49
-129.39
-148.51
-164.15
-176.17
-183.93
-186.89
-185.11
-179.43
-171.1
-161.22
-150.52
-139.42
-128.45
-118.42
-110.11
-103.94
-99.51
-95.74
-91.36
-85.59
-78.53
-71.09
-64.45
-59.41
-55.95
-53.38
-50.73
-47.38
-43.38
-39.44
-36.54
-35.44
-36.35
-38.81
-41.91
-44.72
-46.63
-47.53
-47.76
-47.8
-47.83
-47.59
-46.39
-43.55
-38.8
-32.6
-25.94
-19.93
-15.26
-11.91
-9.29
-6.71
-3.83
-0.9
1.43
2.51
2.14
0.6
-1.48
-3.44
-4.89
-5.88
-6.76
-8
-9.94
-12.67
-15.96
-19.27
-21.92
-23.21
-22.66
-20.08
-15.63
-9.83
-3.31
3.21
9.18
14.26
18.31
21.37
23.58
25.06
25.85
25.9
25.18
23.8
21.96
19.98
18.15
16.55
15.05
13.43
11.46
9.12
6.58
4.11
1.91
0.03
-1.68
-3.49
-5.55
-7.96
-10.69
-13.64
-16.76
-19.97
-23.13
-25.93
-27.92
-28.65
-27.8
-25.34
-21.47
-16.53
-10.8
-4.52
2.19
9.19
16.34
23.44
30.23
36.4
41.56
45.41
47.79
48.88
49.14
49.2
49.53
50.32
51.34
52.17
52.49
52.23
51.6
50.86
50.11
49.19
47.8
45.68
42.74
39.1
35.01
30.69
26.29
21.83
17.29
12.59
7.65
2.39
-3.17
-8.92
-14.51
-19.46
-23.21
-25.21
-25.09
-22.75
-18.43
-12.72
-6.49
-0.64
4.12
7.46
9.51
10.66
11.34
11.72
11.71
11.03
9.53
7.28
4.63
2.06
0.05
-0.91
-0.27
2.55
8.03
16.29
26.7
37.95
48.43
56.75
62.22
65.03
65.87
65.54
64.53
62.98
60.96
58.62
56.28
54.23
52.57
51.08
49.38
47.07
43.91
39.85
35.01
29.65
24.19
19.24
15.46
13.46
13.53
15.49
18.79
22.64
26.35
29.49
31.97
33.89
35.38
36.46
37
36.83
35.87
34.22
32.1
29.81
27.54
25.39
23.36
21.4
19.45
17.43
15.23
12.7
9.75
6.41
2.82
-0.81
-4.25
-7.37
-10.18
-12.75
-15.22
-17.71
-20.23
-22.7
-24.99
-27.02
-28.86
-30.73
-32.95
-35.8
-39.38
-43.52
-47.88
-51.95
-55.21
-57.15
-57.33
-55.44
-51.43
-45.61
-38.63
-31.18
-23.68
-16.04
-7.65
2.23
13.97
27.2
40.85
53.46
63.79
71.22
75.9
78.53
79.87
80.45
80.33
79.29
77.11
73.81
69.78
65.6
61.77
58.45
55.31
51.76
47.26
41.57
34.96
27.95
21.08
14.56
8.25
1.84
-4.96
-12.11
-19.29
-26.04
-32.02
-37.14
-41.62
-45.76
-49.78
-53.68
-57.19
-59.92
-61.55
-61.93
-61.08
-58.95
-55.37
-49.98
-42.5
-32.97
-22.03
-10.73
-0.28
8.47
15.31
20.6
24.96
28.83
32.32
35.22
37.3
38.55
39.25
39.8
40.51
41.42
42.33
42.91
42.87
42.13
40.76
38.98
36.98
34.89
32.7
30.32
27.6
24.44
20.9
17.28
14.04
11.65
10.28
9.59
8.82
6.99
3.36
-2.29
-9.51
-17.51
-25.51
-33.05
-40.03
-46.57
-52.66
-58.06
-62.34
-65.13
-66.29
-65.91
-64.2
-61.24
-56.95
-51.19
-44
-35.7
-26.89
-18.25
-10.27
-3.12
3.32
9.21
14.65
19.58
23.9
27.57
30.72
33.56
36.23
38.69
40.71
42.01
42.36
41.66
40.02
37.71
35.14
32.85
31.35
30.99
31.73
32.94
33.51
32.21
28.17
21.24
12.22
2.63
-5.74
-11.32
-13.27
-11.57
-6.94
-0.42
7.09
15.13
23.7
33.05
43.32
54.25
65.16
75.08
82.96
87.82
88.8
85.19
76.65
63.51
46.96
29.14
12.61
-0.35
-8.45
-11.82
-11.93
-11
-11.29
-14.46
-21.18
-31.18
-43.45
-56.65
-69.44
-80.92
-90.72
-99.05
-106.5
-113.7
-121.06
-128.39
-134.98
-139.56
-140.68
-137.03
-127.82
-113.1
-93.78
-71.66
-48.98
-28
-10.49
2.7
11.66
17.22
20.51
22.48
23.66
24.18
23.86
22.54
20.22
17.06
13.37
9.38
5.22
0.98
-3.23
-7.15
-10.42
-12.63
-13.54
-13.18
-11.85
-10.05
-8.26
-6.78
-5.67
-4.79
-3.97
-3.23
-2.69
-2.56
-2.99
-3.9
-5.03
-6.13
-7.01
-7.71
-8.41
-9.31
-10.52
-11.94
-13.34
-14.39
-14.84
-14.57
-13.59
-12.06
-10.25
-8.4
-6.7
-5.22
-3.92
-2.73
-1.59
-0.58
0.14
0.4
0.13
-0.61
-1.59
-2.64
-3.6
-4.43
-5.18
-5.88
-6.53
-7.13
-7.71
-8.33
-9.04
-9.83
-10.63
-11.32
-11.88
-12.35
-12.9
-13.63
-14.59
-15.64
-16.58
-17.16
-17.12
-16.32
-14.68
-12.3
-9.46
-6.59
-4.14
-2.4
-1.38
-0.83
-0.34
0.43
1.59
3.02
4.41
5.43
5.85
5.65
4.96
4.01
3.06
2.33
1.95
1.94
2.23
2.68
3.09
3.27
3.05
2.39
1.35
0.09
-1.13
-2.14
-2.83
-3.26
-3.62
-4.19
-5.19
-6.72
-8.65
-10.65
-12.23
-12.98
-12.68
-11.4
-9.44
-7.2
-4.98
-2.9
-0.95
0.95
2.78
4.44
5.84
6.89
7.64
8.2
8.66
9.07
9.42
9.72
10.01
10.39
10.97
11.73
12.54
13.18
13.49
13.42
13.05
12.56
12.04
11.51
10.83
9.85
8.51
6.88
5.14
3.53
2.19
1.15
0.32
-0.4
-1.08
-1.79
-2.48
-3.16
-3.87
-4.69
-5.75
-7.15
-8.93
-10.95
-12.97
-14.67
-15.74
-15.98
-15.34
-13.88
-11.74
-9.1
-6.14
-3.08
-0.1
2.58
4.85
6.66
8.05
9.06
9.72
9.96
9.73
9.16
8.49
8.09
8.26
9.05
10.23
11.38
12.06
12.08
11.57
10.85
10.3
10.06
9.98
9.72
8.97
7.67
6.03
4.44
3.23
2.51
2.11
1.75
1.19
0.4
-0.44
-1.09
-1.5
-1.82
-2.4
-3.53
-5.31
-7.5
-9.66
-11.28
-11.99
-11.71
-10.59
-8.94
-7.01
-4.99
-2.9
-0.72
1.49
3.63
5.51
6.99
7.99
8.57
8.85
8.96
8.96
8.81
8.5
8.02
7.48
7
6.73
6.7
6.86
7.08
7.2
7.15
6.89
6.51
6.04
5.53
4.95
4.23
3.33
2.29
1.24
0.36
-0.14
-0.19
0.15
0.63
0.95
0.86
0.34
-0.47
-1.3
-1.91
-2.21
-2.24
-2.08
-1.69
-0.86
0.79
3.62
7.77
13
18.71
24.16
28.8
32.44
35.31
37.84
40.28
42.57
44.33
45.16
45.06
44.65
45.06
47.46
52.56
60.2
69.52
79.44
89.1
98.29
107.36
116.78
126.71
136.79
146.19
154.06
159.92
163.71
165.74
166.35
165.68
163.74
160.49
156.06
150.82
145.09
139.09
132.73
125.84
118.4
110.72
103.36
96.78
90.95
85.1
77.96
68.25
55.22
39.06
20.86
2.2
-15.39
-30.75
-43.48
-53.89
-63
-72.21
-82.87
-95.67
-110.16
-124.68
-136.88
-144.73
-147.27
-145.06
-139.72
-132.99
-125.99
-118.97
-111.8
-104.61
-98.12
-93.45
-91.47
-92.42
-95.94
-101.49
-108.81
-117.92
-128.73
-140.6
-152.07
-161.34
-167
-168.69
-167.23
-164.14
-160.88
-158.25
-156.13
-153.8
-150.31
-144.95
-137.34
-127.5
-115.78
-102.79
-89.49
-76.95
-66.19
-57.87
-52.03
-48.09
-45.08
-42.03
-38.29
-33.67
-28.39
-22.89
-17.57
-12.74
-8.52
-4.95
-1.99
0.43
2.4
4.06
5.55
7
8.45
9.78
10.77
11.1
10.54
9
6.59
3.54
0.1
-3.48
-7
-10.23
-12.87
-14.59
-15.12
-14.29
-12.12
-8.81
-4.66
-0.03
4.73
9.24
13.14
16.08
17.84
18.4
17.98
17.01
15.94
15.11
14.68
14.56
14.52
14.26
13.63
12.74
11.97
12.03
13.67
17.37
23.07
30.11
37.48
44.23
49.89
54.73
59.49
65.05
71.89
79.86
88.19
95.79
101.61
104.99
105.77
104.18
100.65
95.59
89.16
81.21
71.38
59.33
44.88
28.24
9.97
-9.07
-27.77
-44.86
-59.07
-69.29
-74.72
-75.07
-70.6
-62.17
-51.11
-39.13
-28.05
-19.5
-14.61
-13.74
-16.4
-21.39
-27.13
-32.05
-35.13
-36.05
-35.2
-33.46
-31.76
-30.75
-30.52
-30.69
-30.69
-30.07
-28.71
-26.86
-24.95
-23.38
-22.4
-22.11
-22.55
-23.62
-25.08
-26.45
-27.04
-26.22
-23.63
-19.44
-14.36
-9.29
-4.97
-1.61
1.09
3.75
6.88
10.61
14.62
18.37
21.41
23.61
25.1
26.1
26.7
26.81
26.32
25.27
24.01
23
22.6
22.81
23.35
23.74
23.63
22.99
21.99
20.9
19.82
18.66
17.25
15.43
13.22
10.79
8.32
5.88
3.37
0.6
-2.65
-6.44
-10.61
-14.79
-18.46
-21.04
-22.1
-21.35
-18.8
-14.79
-9.92
-4.94
-0.47
3.08
5.71
7.62
9.16
10.53
11.78
12.77
13.32
13.41
13.16
12.84
12.69
12.87
13.36
14.01
14.64
15.12
15.35
15.23
14.71
13.79
12.52
10.99
9.34
7.69
6.13
4.64
3.14
1.58
-0.08
-1.79
-3.45
-4.98
-6.38
-7.7
-9.06
-10.59
-12.39
-14.52
-16.98
-19.7
-22.45
-24.86
-26.41
-26.67
-25.44
-22.85
-19.37
-15.54
-11.82
-8.37
-5.16
-2.12
0.71
3.17
5.08
6.37
7.12
7.57
7.91
8.23
8.53
8.76
8.96
9.24
9.7
10.33
11.01
11.54
11.73
11.54
11.03
10.36
9.69
9.12
8.67
8.32
7.95
7.45
6.66
5.45
3.75
1.6
-0.88
-3.52
-6.17
-8.77
-11.31
-13.78
-16.06
-17.95
-19.1
-19.28
-18.34
-16.33
-13.49
-10.14
-6.64
-3.27
-0.25
2.29
4.35
6
7.38
8.59
9.7
10.63
11.27
11.55
11.45
11.07
10.55
10.07
9.77
9.75
10.03
10.51
10.98
11.12
10.67
9.47
7.58
5.27
2.9
0.75
-1.08
-2.64
-4.05
-5.4
-6.72
-8.04
-9.42
-10.98
-12.89
-15.21
-17.87
-20.56
-22.85
-24.25
-24.5
-23.58
-21.71
-19.27
-16.63
-13.96
-11.27
-8.49
-5.58
-2.69
-0.09
1.91
3.11
3.55
3.43
3.07
2.71
2.51
2.46
2.58
2.85
3.26
3.8
4.43
5.04
5.54
5.9
6.09
6.11
5.96
5.61
5.06
4.33
3.48
2.6
1.76
1
0.3
-0.31
-0.82
-1.25
-1.72
-2.39
-3.49
-5.08
-7.04
-9
-10.44
-10.89
-10.07
-7.98
-4.81
-0.84
3.65
8.43
13.29
17.95
22.07
25.34
27.55
28.76
29.24
29.37
29.45
29.61
29.75
29.63
29.03
27.8
25.9
23.43
20.61
17.66
14.84
12.23
9.82
7.42
4.86
2.04
-0.91
-3.73
-6.2
-8.24
-9.99
-11.73
-13.7
-15.95
-18.3
-20.43
-21.97
-22.63
-22.23
-20.71
-18.15
-14.76
-10.83
-6.74
-2.82
0.65
3.58
5.96
7.85
9.26
10.19
10.59
10.55
10.19
9.69
9.18
8.7
8.15
7.41
6.46
5.35
4.25
3.3
2.54
1.87
1.17
0.29
-0.84
-2.21
-3.77
-5.5
-7.4
-9.52
-11.92
-14.64
-17.68
