-109.94
-110.82
-110.23
-108.25
-105.29
-101.9
-98.63
-95.73
-93.21
-90.89
-88.69
-86.83
-85.74
-85.96
-87.78
-91.15
-95.81
-101.47
-108.03
-115.62
-124.38
-134.24
-144.8
-155.36
-165.13
-173.46
-179.96
-184.53
-187.22
-188.05
-186.87
-183.37
-177.15
-167.85
-155.2
-139.11
-119.52
-96.47
-70.04
-40.55
-8.63
24.66
57.99
89.96
119.32
145.14
166.85
184.25
197.46
206.94
213.29
217.16
219.01
219.08
217.35
213.77
208.33
201.09
192.2
181.68
169.55
155.87
140.9
125.17
109.32
93.92
79.2
65.13
51.59
38.64
26.74
16.65
9.11
4.48
2.52
2.5
3.6
5.31
7.63
10.96
15.66
21.69
28.43
34.85
39.92
43
44.03
43.5
42.15
40.77
39.95
39.97
40.75
41.86
42.62
42.21
39.93
35.36
28.52
19.79
9.94
-0.12
-9.45
-17.33
-23.44
-27.95
-31.44
-34.52
-37.58
-40.5
-42.7
-43.5
-42.45
-39.65
-35.67
-31.38
-27.46
-24.25
-21.64
-19.26
-16.73
-13.83
-10.54
-7.02
-3.47
-0.04
3.22
6.29
9.1
11.51
13.32
14.4
14.79
14.81
14.93
15.6
17.07
19.3
21.95
24.57
26.72
28.04
28.29
27.3
24.99
21.48
17.04
12.12
7.24
2.76
-1.08
-4.17
-6.48
-8.04
-8.94
-9.39
-9.72
-10.19
-10.82
-11.31
-11.17
-9.83
-6.94
-2.47
3.47
10.67
18.97
28.2
37.9
47.31
55.5
61.71
65.83
68.36
70.24
72.21
74.46
76.55
77.66
77.03
74.25
69.31
62.47
54.07
44.31
33.27
21.02
7.81
-5.84
-19.08
-30.78
-39.79
-45.22
-46.73
-44.67
-39.97
-33.89
-27.76
-22.74
-19.77
-19.59
-22.57
-28.6
-36.96
-46.4
-55.48
-62.99
-68.33
-71.76
-74.24
-76.97
-80.9
-86.33
-92.9
-99.86
-106.65
-113.23
-120.11
-128.06
-137.61
-148.63
-160.21
-170.87
-178.93
-182.92
-181.91
-175.59
-164.25
-148.64
-129.76
-108.72
-86.58
-64.2
-42.26
-21.12
-0.95
18.24
36.38
53.19
68.07
80.26
89.13
94.53
96.98
97.52
97.36
97.5
98.4
99.95
101.64
102.99
103.79
104.19
104.54
105.09
105.77
106.26
106.19
105.26
103.31
100.01
94.78
86.88
75.98
62.68
48.73
36.67
28.79
26.24
28.53
33.89
40.13
45.45
48.79
49.65
47.76
42.9
35
24.59
12.92
1.85
-6.79
-11.74
-12.76
-10.58
-6.57
-2.12
1.77
4.76
7.09
9.26
11.74
14.69
17.9
21
23.75
26.28
29.17
33.4
40.02
49.87
63.29
80.08
99.5
120.56
142.21
163.69
184.7
205.6
227.22
250.37
275.14
300.12
322.32
337.74
342.66
335.09
315.41
286.35
251.69
214.87
178.03
141.77
105.87
70.08
34.68
0.33
-32.42
-63.64
-94.1
-124.94
-157.09
-190.97
-226.51
-263.56
-302.02
-341.68
-381.68
-419.99
-453.56
-479.08
-494.21
-498.47
-493.25
-481.02
-464.21
-444.57
-423.24
-401.53
-381.39
-365.32
-355.42
-352.22
-354.18
-358.11
-360.49
-358.77
-352
-340.6
-325.47
-307.04
-284.93
-258.14
-225.74
-187.46
-143.86
-96.03
-45.09
7.88
61.67
114.29
162.67
203.05
231.98
247.68
251.03
245.52
236.15
227.62
222.74
221.55
221.64
219.48
211.8
196.92
175.23
148.94
121.39
96.13
76.24
63.79
59.57
63.08
72.59
85.45
98.56
109.09
115.14
116.12
112.67
106.24
98.26
89.53
80.11
69.61
57.78
44.89
31.63
18.83
7.13
-3.22
-12.03
-19.06
-23.96
-26.45
-26.55
-24.57
-20.92
-15.94
-9.98
-3.76
1.25
2.97
-0.58
-10.2
-24.79
-41.43
-56.45
-66.82
-71.25
-70.41
-66.32
-61.26
-56.94
-54.12
-52.74
-52.45
-52.83
-53.63
-54.59
-55.28
-54.93
-52.67
-47.87
-40.46
-31.11
-21.04
-11.62
-3.89
1.68
5.29
7.59
9.36
11.22
13.36
15.54
17.17
17.61
16.45
13.82
10.37
6.98
4.27
2.28
0.38
-2.37
-6.75
-12.86
-20.03
-26.99
-32.33
-34.75
-33.42
-28.1
-19.49
-9.31
-0.28
4.43
2.13
-8.53
-27.22
-52.25
-81.35
-112.27
-142.94
-171.09
-193.95
-208.32
-211.33
-201.47
-179.25
-147.26
-109.3
-69.22
-30.02
6.54
39.66
68.99
94.38
115.72
133.13
147.08
158.41
168.12
177.2
186.42
196.09
206.08
215.75
224.11
229.88
231.63
228.04
218.11
201.64
179.33
152.88
124.79
97.91
74.88
57.47
46.24
40.51
38.71
39.01
40.07
41.34
42.85
44.85
47.22
49.45
50.9
51.4
51.66
53.1
57.14
64.32
73.87
83.96
92.51
97.96
99.71
97.8
92.39
83.57
71.59
57.42
42.96
30.64
22.32
18.35
17.27
16.51
13.63
7.53
-1.23
-11.05
-20.3
-28.1
-34.52
-40.06
-45.17
-49.96
-54.37
-58.57
-63.08
-68.5
-75.05
-82.2
-88.79
-93.44
-95.07
-93.26
-88.15
-80.15
-69.82
-57.91
-45.45
-33.72
-23.96
-16.83
-12.32
-9.84
-8.77
-9.04
-11.17
-15.94
-23.68
-33.8
-44.8
-54.88
-62.59
-67.47
-69.97
-71.01
-71.26
-70.7
-68.7
-64.46
-57.61
-48.65
-38.78
-29.39
-21.33
-14.57
-8.2
-1.09
7.54
17.67
28.59
39.26
48.67
56.1
61.13
63.59
63.52
61.22
57.23
52.26
46.95
41.61
36.18
30.3
23.67
16.33
8.87
2.35
-2.08
-3.5
-1.45
3.85
11.59
20.41
28.74
35.08
38.43
38.62
36.38
33.05
30.12
28.65
28.88
30.32
32.09
33.41
33.89
33.54
32.62
31.27
29.43
26.96
23.74
19.85
15.6
11.42
7.72
4.78
2.74
1.51
0.82
0.31
-0.4
-1.54
-3.08
-4.77
-6.3
-7.46
-8.26
-9.01
-10.21
-12.4
-16.07
-21.4
-28.25
-36.02
-43.75
-50.29
-54.67
-56.41
-55.76
-53.56
-50.84
-48.4
-46.54
-45.11
-43.77
-42.29
-40.61
-38.7
-36.46
-33.83
-30.97
-28.53
-27.58
-29.17
-33.6
-39.81
-45.56
-48.2
-45.73
-37.78
-25.69
-11.97
0.69
10.31
15.97
17.76
16.42
13.01
8.68
4.51
1.42
0.01
0.44
2.44
5.39
8.54
11.17
12.76
13.07
12.18
10.48
8.54
6.86
5.74
5.19
4.98
4.79
4.43
3.83
2.99
2.03
1.08
0.33
-0.03
0.09
0.56
0.92
0.54
-1.1
-4.08
-7.9
-11.6
-14.23
-15.17
-14.33
-12.01
-8.61
-4.39
0.6
6.31
12.47
18.58
23.97
28.13
30.85
32.27
32.67
32.31
31.22
29.17
25.89
21.16
15.09
8.02
0.49
-7.07
-14.46
-21.78
-29.24
-36.87
-44.41
-51.32
-57.07
-61.49
-64.96
-68.17
-71.75
-75.79
-79.72
-82.5
-83.09
-80.91
-76.06
-69.17
-61.19
-53.01
-45.36
-38.77
-33.78
-30.83
-30.19
-31.8
-35.02
-38.74
-41.68
-42.81
-41.8
-39.07
-35.58
-32.35
-29.98
-28.38
-27
-25.26
-23
-20.76
-19.52
-20.34
-23.69
-29.17
-35.46
-40.79
-43.41
-42.09
-36.41
-26.69
-13.71
1.58
18.31
35.73
53.05
69.52
84.48
97.58
108.98
119.04
127.95
135.29
139.81
139.76
133.54
120.44
100.97
76.66
49.45
21.17
-6.8
-33.49
-58.13
-80.03
-98.65
-113.7
-125.05
-132.54
-135.7
-133.78
-126.05
-112.27
-93.16
-70.29
-45.75
-21.36
1.75
23.3
43.49
62.48
80.03
95.42
107.79
116.55
121.69
123.71
123.3
120.91
116.61
110.17
101.51
91.07
79.87
69.14
59.85
52.28
46.03
40.43
35.09
30.2
26.52
24.88
25.68
28.7
33.14
38.05
42.73
46.85
50.33
53.1
54.98
55.73
55.34
54.12
52.67
51.67
51.44
51.84
52.34
52.31
51.4
49.64
47.33
44.78
42.08
39.01
35.15
30.13
23.78
16.2
7.83
-0.66
-8.45
-14.81
-19.31
-22
-23.32
-23.89
-24.25
-24.54
-24.64
-24.3
-23.39
-22.09
-20.73
-19.6
-18.75
-17.91
-16.67
-14.7
-11.95
-8.62
-5.1
-1.75
1.19
3.7
5.79
7.46
8.63
9.13
8.8
7.43
4.88
1.07
-3.86
-9.5
-15.15
-19.95
-23.15
-24.34
-23.63
-21.4
-18.14
-14.14
-9.49
-4.19
1.6
7.41
12.63
16.7
19.52
21.33
22.67
23.96
25.29
26.29
26.41
25.23
22.73
19.4
15.98
13.17
11.28
10.16
9.35
8.3
6.55
3.92
0.43
-3.79
-8.46
-13.17
-17.42
-20.62
-22.29
-22.19
-20.35
-17.05
-12.68
-7.58
-2
3.84
9.72
15.29
20.1
23.73
25.92
26.69
26.24
24.89
22.92
20.53
17.8
14.83
11.72
8.65
5.67
2.78
-0.16
-3.25
-6.45
-9.52
-12.16
-14.19
-15.66
-16.9
-18.26
-19.91
-21.81
-23.65
-25.06
-25.74
-25.47
-24.15
-21.79
-18.51
-14.53
-10.25
-6.08
-2.39
0.65
3.03
4.85
6.2
7.15
7.72
7.94
7.88
7.6
7.18
6.69
6.15
5.54
4.85
4
2.9
1.43
-0.47
-2.72
-5.21
-7.81
-10.48
-13.24
-16.07
-18.81
-21.09
-22.43
-22.39
-20.76
-17.59
-13.24
-8.21
-3.07
1.66
5.58
8.38
9.97
10.4
9.87
8.74
7.36
6.09
5.17
4.68
4.55
4.57
4.45
4
3.12
1.88
0.41
-1.12
-2.64
-4.17
-5.87
-7.92
-10.5
-13.63
-17.15
-20.7
-23.82
-26.04
-26.94
-26.3
-24.11
-20.5
-15.71
-10.14
-4.19
1.68
6.94
11.1
13.78
14.85
14.54
13.41
12.13
11.17
10.61
10.13
9.28
7.75
5.57
3.08
0.68
-1.42
-3.23
-4.86
-6.36
-7.66
-8.68
-9.49
-10.4
-11.82
-13.97
-16.67
-19.3
-21.04
-21.18
-19.4
-15.85
-11.09
-5.8
-0.53
4.42
9.02
13.3
17.25
20.68
23.33
24.98
25.59
25.34
24.5
23.37
22.07
20.59
18.79
16.56
13.89
10.88
7.68
4.41
1.11
-2.3
-5.91
-9.84
-14.08
-18.49
-22.89
-27.1
-31.03
-34.63
-37.77
-40.16
-41.38
-40.98
-38.73
-34.72
-29.42
-23.52
-17.69
-12.48
-8.24
-5.16
-3.36
-2.82
-3.41
-4.88
-6.9
-9.17
-11.52
-13.84
-16.07
-18.22
-20.3
-22.4
-24.7
-27.35
-30.38
-33.63
-36.71
-39.22
-40.96
-42.07
-42.98
-44.12
-45.72
-47.54
-49.01
-49.41
-48.11
-44.82
-39.52
-32.43
-23.88
-14.37
-4.53
4.8
12.81
18.88
22.86
25.11
26.32
27.29
28.6
30.49
32.76
35.03
36.86
37.9
38.08
37.52
36.49
35.24
33.89
32.38
30.52
28.17
25.32
22.11
18.68
15.06
11.26
7.31
3.54
0.49
-1.18
-1.04
0.93
4.32
8.46
12.74
16.75
20.31
23.35
25.79
27.5
28.37
28.36
27.57
26.21
24.49
22.54
20.47
18.25
15.84
13.21
10.42
7.67
5.19
3.17
1.64
0.47
-0.6
-1.76
-3.16
-4.87
-6.97
-9.59
-12.83
-16.5
-20.1
-22.85
-23.94
-22.84
-19.48
-14.29
-7.93
-1.09
5.72
12.25
18.32
23.86
28.73
32.79
35.91
38.05
39.29
39.81
39.93
39.89
39.84
39.8
39.57
38.97
37.89
36.33
34.41
32.2
29.66
26.56
22.6
17.59
11.64
5.15
-1.26
-7.02
-11.77
-15.47
-18.32
-20.47
-21.98
-22.76
-22.67
-21.73
-20.22
-18.59
-17.42
-17.23
-18.31
-20.7
-24.15
-28.27
-32.56
-36.58
-40.01
-42.67
-44.51
-45.65
-46.28
-46.69
-47.15
-47.91
-49.01
-50.27
-51.35
-51.79
-51.22
-49.48
-46.55
-42.43
-37.04
-30.13
-21.38
-10.6
2.1
16.16
30.69
44.71
57.35
68.16
76.99
83.88
88.85
91.84
92.68
91.27
87.73
82.36
75.55
67.62
58.71
48.78
37.72
25.54
12.45
-1.14
-14.79
-28.13
-40.97
-53.25
-64.92
-75.81
-85.55
-93.59
-99.34
-102.26
-102.01
-98.51
-92.05
-83.34
-73.5
-63.88
-55.64
-49.38
-44.94
-41.49
-37.98
-33.61
-28.16
-21.92
-15.43
-9.18
-3.53
1.24
4.74
6.49
6.13
3.69
-0.35
-5.08
-9.45
-12.64
-14.19
-14.11
-12.66
-10.21
-7.05
-3.23
1.36
7
13.86
21.88
30.71
39.7
48.06
55.01
59.87
62.03
61.05
56.76
49.43
39.96
29.74
20.32
12.95
8.23
5.93
5.29
5.36
5.33
4.71
3.3
1.08
-1.76
-4.8
-7.47
-9.03
-8.88
-6.75
-2.74
2.7
8.99
15.58
22
27.83
32.71
36.3
38.44
39.24
38.98
38.06
36.77
35.25
33.47
31.4
29.04
26.53
24.04
21.66
19.43
17.32
15.2
12.93
10.33
7.2
3.4
-1.05
-5.91
-10.71
-14.79
-17.45
-18.15
-16.62
-12.96
-7.65
-1.36
5.2
11.48
17.12
21.99
25.99
29
30.82
31.29
30.37
28.32
25.62
22.92
20.71
19.19
18.17
17.24
15.96
14.11
11.73
8.98
6.07
3.03
-0.19
-3.71
-7.62
-11.91
-16.56
-21.48
-26.49
-31.21
-35.03
-37.23
-37.2
-34.69
-29.97
-23.65
-16.5
-9.22
-2.32
3.9
9.24
13.59
16.91
19.2
20.45
20.63
19.75
17.96
15.6
13.16
11.14
9.81
9.15
8.86
8.54
7.86
6.66
4.95
2.8
0.28
-2.55
-5.68
-9.03
-12.54
-16.15
-19.88
-23.75
-27.74
-31.68
-35.21
-37.86
-39.11
-38.52
-35.88
-31.24
-24.98
-17.71
-10.13
-2.8
3.9
9.9
15.24
19.87
23.63
26.21
27.42
27.32
26.35
25.12
24.2
23.82
23.84
23.92
23.79
23.38
22.86
22.42
22.12
21.89
21.54
20.94
20.05
18.81
17.08
14.55
10.88
5.91
-0.16
-6.7
-12.87
-17.9
-21.31
-23.05
-23.35
-22.57
-21.03
-18.95
-16.56
-14.16
-12.07
-10.57
-9.65
-9.06
-8.31
-6.98
-4.88
-2.19
0.69
3.37
5.65
7.59
9.42
11.31
13.27
15.14
16.72
17.82
18.4
18.47
18.07
17.24
16.01
14.4
12.39
10.04
7.33
4.24
0.71
-3.32
-7.79
-12.47
-16.89
-20.39
-22.19
-21.74
-18.79
-13.59
-6.74
0.96
8.77
16.15
22.7
28.18
32.41
35.29
36.85
37.33
37.08
36.53
36.06
35.96
36.39
37.47
39.28
41.91
45.43
49.96
55.6
62.48
70.64
80.12
90.85
102.71
115.54
129.05
142.76
155.86
167.26
175.6
179.62
178.33
171.26
158.56
141
119.85
96.75
73.45
51.58
32.48
16.96
5.22
-3.24
-9.56
-15.36
-22.49
-32.5
-46.16
-63.16
-82.03
-100.62
-116.74
-128.85
-136.49
-140.11
-140.66
-138.98
-135.53
-130.34
-123.37
-114.86
-105.55
-96.47
-88.72
-83.15
-80.07
-79.28
-79.99
-80.9
-80.49
-77.45
-71.27
-62.59
-53.14
-45.07
-40.01
-38.23
-38.5
-38.66
-36.57
-31.15
-22.69
-12.67
-2.95
4.9
10.01
12.14
11.45
8.13
2.33
-5.75
-15.56
-26.03
-35.67
-42.83
-46.21
-45.27
-40.33
-32.51
-23.2
-13.71
-4.93
2.63
8.64
12.74
14.51
13.69
10.32
5.01
-1.24
-7.33
-12.34
-15.74
-17.33
-17.09
-15.14
-11.78
-7.55
-3.33
-0.04
1.65
1.63
0.43
-1.09
-2.09
-2.18
-1.44
-0.22
1.16
2.66
4.44
6.73
9.44
12.18
14.32
15.25
14.64
12.56
9.26
5.05
0.11
-5.55
-11.94
-19.03
-26.63
-34.49
-42.43
-50.38
-58.34
-66.3
-74.1
-81.32
-87.43
-91.77
-93.73
-92.8
-88.71
-81.52
-71.72
-60.19
-48.18
-36.98
-27.69
-20.96
-16.79
-14.64
-13.67
-13.11
-12.54
-12.11
-12.47
-14.42
-18.52
-24.75
-32.47
-40.73
-48.78
-56.49
-64.46
-73.7
-85.17
-99.29
-115.68
-133.05
-149.16
-160.82
-164.51
-157.41
-138.94
-111.81
-81.82
-56.07
-40.16
-35.79
-40.11
-47.17
-50.74
-46.82
-34.75
-16.52
4.79
26.45
46.61
64.06
77.95
87.62
93.08
95.18
95.43
95.49
96.51
98.73
101.53
103.92
104.93
103.91
100.64
95.27
88.25
80.3
72.26
64.98
59.23
55.6
54.51
56.08
60.3
67.01
75.95
86.56
97.88
108.48
116.54
120.35
118.72
111.5
99.68
85.13
70.07
56.33
44.99
36.27
29.86
25.32
22.43
21.33
22.31
25.57
30.81
37.17
43.36
48.02
50.26
49.96
47.66
44.28
40.65
37.27
34.33
31.84
29.8
28.14
26.62
24.85
22.41
19.05
14.92
10.46
6.1
1.95
-2.28
-7.05
-12.58
-18.5
-24.02
-28.24
-30.72
-31.7
-31.91
-32.08
-32.45
-32.54
-31.31
-27.74
-21.24
-12.02
-1.09
10.07
19.81
26.73
29.96
29.4
25.72
20.3
14.71
10.29
7.63
6.45
5.88
5.1
3.83
2.42
1.55
1.53
1.96
1.73
-0.49
-5.44
-13.02
-22.18
-31.52
-39.91
-46.94
-52.92
-58.46
-63.98
-69.28
-73.68
-76.44
-77.15
-76.1
-74.15
-72.34
-71.46
-71.85
-73.35
-75.44
-77.46
-78.65
-78.23
-75.52
-70.07
-61.86
-51.39
-39.61
-27.58
-16.31
-6.44
1.66
7.88
12.2
14.68
15.47
14.81
13.09
10.65
7.88
5.08
2.48
0.28
-1.41
-2.56
-3.23
-3.64
-4.14
-5.21
-7.33
-10.88
-15.99
-22.28
-28.94
-34.65
-38.06
-38.08
-34.29
-27.07
-17.53
-7.07
3.01
11.81
18.9
24.22
27.79
29.65
29.88
28.62
26.18
22.98
19.42
15.76
12.01
8.1
4.03
-0.03
-3.81
-7.05
-9.75
-12.17
-14.82
-18.27
-22.92
-28.91
-35.93
-43.27
-49.77
-54.13
-55.23
-52.38
-45.68
-35.95
-24.5
-12.77
-1.95
7.2
14.39
19.62
23.11
25.09
25.73
25.17
23.49
20.84
17.45
13.58
9.51
5.47
1.64
-1.88
-5.09
-8.08
-11.05
-14.27
-18.08
-22.79
-28.53
-35.24
-42.49
-49.47
-55.04
-57.94
-57.12
-52.09
-43.08
-31
-17.15
-2.86
10.86
23.33
34.11
42.91
49.49
53.84
56.23
57.2
57.5
57.83
58.63
59.99
61.66
63.13
63.85
63.47
61.96
59.62
56.94
54.26
51.52
48.14
43.09
35.25
23.87
9.11
-7.74
-24.43
-38.36
-47.39
-50.53
-48.11
-41.46
-32.22
-21.7
-10.63
0.61
11.68
21.96
30.55
36.57
39.52
39.42
36.81
32.47
27.17
21.59
16.15
11.02
6.12
1.29
-3.56
-8.41
-13.02
-17.17
-20.65
-23.33
-25.17
-26.15
-26.31
-25.89
-25.38
-25.44
-26.69
-29.36
-33.04
-36.63
-38.65
-37.72
-33.03
-24.62
-13.35
-0.6
12.17
23.75
33.4
40.82
45.98
49
49.98
49.12
46.78
43.51
40.04
37
34.69
32.97
31.32
29.18
26.24
22.67
19.01
15.82
13.38
11.48
9.58
7.06
3.52
-1.15
-6.74
-12.84
-18.86
-23.91
-26.88
-26.65
-22.37
-13.94
-2.04
12.08
27.05
41.8
55.71
68.35
79.22
87.62
92.84
94.56
93.1
89.44
84.87
80.48
76.81
73.81
71.05
68.07
64.57
60.45
55.69
50.22
43.92
36.67
28.57
20
11.55
3.78
-3.05
-9.28
-15.65
-23
-31.67
-41.16
-50.06
-56.54
-58.96
-56.48
-49.29
-38.44
-25.45
-11.85
1.08
12.47
21.77
28.77
33.44
35.84
36.04
34.12
30.3
25.04
19.11
13.41
8.71
5.35
3.22
1.86
0.73
-0.47
-1.78
-2.99
-3.9
-4.42
-4.68
-5.13
-6.34
-8.97
-13.42
-19.7
-27.15
-34.55
-40.41
-43.48
-43.17
-39.77
-34.47
-28.99
-25.12
-24.2
-26.59
-31.5
-37.11
-41.12
-41.45
-37.09
-28.59
-18.14
-8.81
-3.52
-3.87
-9.62
-18.98
-29.47
-38.97
-46.36
-51.59
-55.2
-57.83
-59.94
-61.88
-64.1
-67.32
-72.28
-79.3
-87.93
-96.84
-104.06
-107.59
-105.92
-98.45
-85.65
-68.76
-49.45
-29.36
-9.84
8.16
23.97
37.14
47.35
54.54
58.92
61.03
61.63
61.46
61.02
60.43
59.35
57.12
52.92
46.18
36.8
25.34
12.87
0.6
-10.6
-20.46
-29.31
-37.77
-46.35
-55.1
-63.56
-70.76
-75.49
-76.48
-72.72
-63.69
-49.57
-31.33
-10.72
10.08
28.84
43.75
53.74
58.66
59.2
56.62
52.38
47.75
43.59
40.27
37.8
36.08
35
34.58
34.83
35.74
37.16
38.8
40.27
41.13
41.11
40.2
38.87
37.99
38.61
41.44
46.37
52.28
57.29
59.45
57.51
51.34
42.03
31.34
21.13
12.77
6.94
3.72
2.9
4.16
7.14
11.39
16.3
21.02
24.66
26.47
26
23.27
18.68
12.93
6.85
1.23
-3.36
-6.62
-8.65
-9.9
-11.03
-12.66
-15.19
-18.6
-22.51
-26.29
-29.18
-30.38
-29.22
-25.41
-19.21
-11.6
-4.05
1.98
5.6
6.93
7.02
7.38
9.25
13.21
18.98
25.85
32.89
39.27
44.22
46.86
46.32
41.98
33.91
23.14
11.54
1.14
-6.6
-11.41
-14.2
-16.55
-19.87
-24.79
-31.05
-37.79
-44.2
-49.83
-54.71
-59.15
-63.32
-67.19
-70.56
-73.34
-75.72
-78.2
-81.31
-85.24
-89.61
-93.31
-94.84
-92.78
-86.29
-75.5
-61.48
-45.85
-30.23
-15.85
-3.32
7.26
16.01
23.14
28.81
33.16
36.26
38.01
37.92
35.13
28.59
17.58
2.26
-16.01
-34.86
-51.49
-63.54
-69.77
-70.23
-66.03
-58.88
-50.6
-42.84
-36.96
-33.9
-33.97
-36.67
-40.63
-43.87
-44.4
-40.81
-32.86
-21.4
-7.99
5.75
18.68
30.34
40.82
50.43
59.35
67.52
74.71
80.71
85.51
89.28
92.31
94.74
96.48
97.21
96.52
94.13
90.04
84.57
78.33
71.95
65.86
60.1
54.22
47.4
38.7
27.39
13.37
-2.67
-19.2
-34.26
-45.89
-52.71
-54.24
-50.95
-43.96
-34.6
-24.09
-13.23
-2.49
7.77
17.18
25.24
31.46
35.55
37.63
38.11
37.56
36.4
34.72
32.3
28.91
24.5
19.37
14.05
8.96
4.21
-0.43
-5.37
-10.87
-16.94
-23.42
-30.05
-36.68
-43.07
-48.81
-53.18
-55.29
-54.4
-50.25
-43.29
-34.52
-25.11
-16.11
-8.17
-1.52
3.75
7.63
9.96
10.62
9.56
6.98
3.27
-1.03
-5.27
-8.83
-11.14
-11.9
-11.05
-9.01
-6.47
-4.25
-3
-2.93
-3.78
-5.04
-6.29
-7.44
-8.86
-11.1
-14.53
-19.05
-23.88
-27.82
-29.59
-28.36
-24
-17.11
-8.75
-0.01
8.32
15.82
22.38
27.96
32.41
35.46
36.88
36.66
35.16
32.96
30.8
29.21
28.44
28.35
28.57
28.62
28.15
27.06
25.51
23.8
22.17
20.61
18.79
16.2
12.43
7.43
1.69
-3.82
-7.96
-9.71
-8.47
-4.12
3
12.3
22.96
34
44.23
52.33
57.02
57.51
53.69
46.23
36.4
25.65
15.29
6.21
-1.1
-6.48
-10.03
-12.04
-13.06
-13.78
-14.86
-16.74
-19.4
-22.45
-25.28
-27.5
-29.12
-30.63
-32.77
-36.2
-41.15
-47.14
-53.03
-57.31
-58.6
-56.13
-49.98
-40.96
-30.29
-19.12
-8.15
2.38
12.4
21.74
29.82
35.8
38.89
38.74
35.74
30.99
25.87
21.55
18.57
16.63
14.89
12.38
8.4
2.81
-4.01
-11.51
-19.25
-27.09
-35.17
-43.73
-52.91
-62.63
-72.49
-81.78
-89.55
-94.74
-96.43
-94.06
-87.59
-77.57
-64.89
-50.52
-35.24
-19.7
-4.4
10.11
23.18
34.23
42.98
49.63
54.8
59.38
64.2
69.76
76.12
82.92
89.52
95.09
98.81
99.98
98.16
93.33
85.85
76.36
65.52
53.8
41.38
28.27
14.43
-0.09
-15.06
-30.12
-44.7
-58.05
-69.28
-77.51
-82.17
-83.2
-81.2
-77.18
-72.22
-67.06
-61.97
-56.83
-51.48
-45.98
-40.68
-36.04
-32.25
-29.16
-26.27
-22.98
-18.92
-14
-8.51
-2.94
2.08
5.96
8.18
8.37
6.43
2.6
-2.6
-8.5
-14.54
-20.47
-26.42
-32.85
-40.27
-48.98
-58.82
-69.08
-78.58
-85.9
-89.68
-88.96
-83.37
-73.22
-59.38
-43.08
-25.68
-8.49
7.43
21.33
32.76
41.61
48
52.23
54.75
56.01
56.37
56.11
55.36
54.16
52.6
50.78
48.89
47.08
45.36
43.56
41.35
38.49
34.91
30.82
26.59
22.5
18.68
14.98
11.16
6.96
2.32
-2.68
-7.78
-12.78
-17.6
-22.36
-27.3
-32.73
-38.82
-45.48
-52.24
-58.26
-62.46
-63.73
-61.3
-54.94
-45
-32.35
-18.09
-3.3
11.09
24.39
36.1
45.87
53.51
58.99
62.46
64.2
64.52
63.76
62.24
60.22
58
55.78
53.69
51.63
49.38
46.73
43.61
40.18
36.72
33.47
30.39
27.19
23.46
18.94
13.69
8.05
2.48
-2.66
-7.25
-11.4
-15.27
-19.08
-22.98
-27.17
-31.86
-37.21
-43.21
-49.4
-54.95
-58.73
-59.65
-56.99
-50.68
-41.31
-29.91
-17.63
-5.4
6.15
16.72
26.08
33.92
39.9
43.74
45.42
45.25
43.79
41.66
39.34
37.09
34.93
32.72
30.33
27.69
24.86
22.02
19.34
16.92
14.67
12.33
9.53
5.95
1.49
-3.69
-9.22
-14.66
-19.61
-23.91
-27.61
-31.02
-34.52
-38.54
-43.32
-48.83
-54.64
-59.94
-63.67
-64.76
-62.45
-56.54
-47.55
-36.52
-24.71
-13.24
-2.76
6.6
14.94
22.37
28.76
33.73
36.92
38.21
37.91
36.63
35.11
33.87
33.11
32.68
32.27
31.64
30.71
29.54
28.35
27.31
26.47
25.71
24.76
23.29
21.07
18.06
14.56
11.03
7.89
5.3
2.97
0.18
-4.03
-10.52
-19.68
-31.19
-43.93
-56.2
-66.1
-72.12
-73.49
-70.35
-63.58
-54.36
-43.78
-32.62
-21.43
-10.68
-0.91
7.38
13.93
18.83
22.43
25.06
26.77
27.31
26.32
23.6
19.31
13.92
7.91
1.59
-4.95
-11.7
-18.62
-25.57
-32.37
-38.9
-45.17
-51.16
-56.7
-61.45
-65.02
-67.19
-67.98
-67.82
-67.34
-67.21
-67.86
-69.22
-70.67
-71.13
-69.35
-64.17
-54.94
-41.6
-24.73
-5.35
15.3
35.98
55.65
73.52
89.03
101.8
111.54
118.09
121.44
121.84
119.91
116.43
112.23
107.87
103.56
99.3
95.1
91.11
87.74
85.48
84.6
84.99
86
86.51
85.08
80.34
71.4
58.3
42.24
25.28
9.68
-2.94
-12.23
-19.08
-24.84
-30.49
-35.9
-39.83
-40.67
-37.3
-29.77
-19.26
-7.48
4.07
14.5
23.53
31.02
36.62
39.68
39.47
35.67
28.57
19.07
8.38
-2.46
-12.79
-22.42
-31.44
-39.93
-47.84
-54.98
-61.06
-65.89
-69.43
-71.81
-73.3
-74.19
-74.84
-75.51
-76.36
-77.39
-78.5
-79.52
-80.44
-81.47
-83.11
-85.88
-90.06
-95.2
-100.17
-103.25
-102.8
-97.78
-88.17
-74.98
-59.81
-44.33
-29.76
-16.7
-5.27
4.67
13.2
20.32
25.99
30.24
33.27
35.38
36.89
38.02
38.81
39.11
38.71
37.46
35.38
32.68
29.68
26.7
23.89
21.29
18.75
16.11
13.14
9.5
4.73
-1.76
-10.39
-21.04
-32.89
-44.41
-53.72
-59.19
-59.97
-56.21
-48.96
-39.76
-30.1
-21.06
-13.12
-6.3
-0.45
4.44
8.14
10.19
10.21
8.15
4.39
-0.35
-5.36
-10.17
-14.67
-19.02
-23.4
-27.83
-32.17
-36.16
-39.52
-42.11
-43.93
-45.12
-45.9
-46.49
-47.04
-47.55
-47.93
-48.11
-48.13
-48.13
-48.24
-48.21
-47.34
-44.5
-38.52
-28.67
-15.05
1.37
19.12
36.67
52.84
66.95
78.77
88.44
96.4
103.55
111.11
120.45
132.57
147.61
164.55
181.3
195.33
204.6
208.24
206.73
201.57
194.39
186.27
177.39
167.29
155.38
141.37
125.5
108.3
90.22
71.37
51.63
30.9
9.41
-12.13
-32.62
-50.76
-65.16
-74.56
-78
-75.12
-66.36
-53.06
-37.18
-20.79
-5.59
7.48
18.25
27.02
34.28
40.3
45.14
48.65
50.64
50.96
49.46
45.97
40.39
32.83
23.82
14.34
5.64
-1.19
-5.7
-8.26
-9.95
-12.13
-15.92
-21.87
-29.77
-38.91
-48.16
-56.39
-62.64
-66.38
-67.72
-67.4
-66.68
-66.87
-68.99
-73.4
-79.71
-86.78
-93
-96.69
-96.53
-91.99
-83.5
-72.37
-60.26
-48.57
-37.98
-28.39
-19.31
-10.24
-1.05
8.04
16.75
25.04
33.06
41.02
48.91
56.26
62.29
66.15
67.34
65.85
62.27
57.38
51.96
46.43
40.9
35.26
29.49
23.75
18.39
13.76
10
6.97
4.18
0.95
-3.45
-9.68
-18.19
-29.2
-42.59
-57.86
-74
-89.53
-102.59
-111.31
-114.36
-111.41
-103.45
-92.45
-80.82
-70.66
-63.26
-58.97
-57.51
-58.33
-60.79
-64.2
-67.59
-69.83
-69.83
-66.97
-61.38
-53.9
-45.83
-38.45
-32.76
-29.29
-28.13
-28.95
-31.11
-33.65
-35.55
-35.99
-34.64
-31.81
-28.32
-25.15
-23.04
-22.31
-22.98
-24.93
-28.13
-32.53
-37.79
-43.07
-47.07
-48.4
-46.06
-39.85
-30.43
-19
-6.9
4.8
15.37
24.42
31.78
37.41
41.45
44.21
46.17
47.81
49.52
51.5
53.75
56.18
58.69
61.23
63.82
66.51
69.32
72.28
75.32
78.33
81.18
83.72
85.87
87.6
88.96
89.99
90.61
90.74
90.25
89.13
87.5
85.56
83.51
81.58
80.03
79.22
79.67
81.81
85.9
91.69
98.56
105.64
112.23
117.82
121.99
124.11
123.07
117.53
106.45
89.82
68.98
46.27
24.21
4.5
-12.55
-27.82
-42.56
-57.45
-72.1
-85.21
-95.12
-100.53
-100.81
-96.1
-87.31
-76.12
-65.04
-57
-54.61
-59.17
-70.01
-84.5
-99.03
-110.39
-116.84
-118.38
-116.17
-111.46
-104.91
-96.51
-86.07
-73.8
-60.44
-47.07
-34.54
-23.11
-12.48
-2.2
7.87
17.3
25.19
30.61
33.06
32.74
30.44
27.18
23.77
20.48
17.11
13.16
8.06
1.45
-6.75
-16.29
-26.53
-36.46
-44.91
-50.67
-52.97
-51.75
-47.71
-42.01
-35.79
-29.82
-24.34
-19.3
-14.68
-10.58
-7.2
-4.53
-2.14
0.75
4.99
11.12
19.12
28.47
38.42
48.26
57.54
65.93
73.14
78.68
81.96
82.47
80.03
75.01
68.34
61.28
54.99
50.37
47.75
46.97
47.42
48.17
48.09
46.01
40.99
32.5
20.65
6.24
-9.35
-24.58
-38.11
-49.22
-57.97
-65.06
-71.5
-78.04
-84.77
-91.01
-95.57
-97.31
-95.66
-90.91
-83.96
-75.9
-67.51
-59.09
-50.56
-41.86
-33.34
-25.78
-20.16
-17.2
-16.84
-18.27
-20.23
-21.67
-22.22
-22.29
-22.77
-24.39
-27.3
-30.94
-34.44
-37.03
-38.43
-38.91
-39.05
-39.52
-40.86
-43.4
-47.22
-51.95
-56.64
-59.61
-58.78
-52.13
-38.54
-18.32
6.59
33.16
58.11
78.92
94.52
105.17
111.96
115.86
117.21
115.68
110.8
102.77
92.74
82.58
74.13
68.36
64.93
62.49
59.31
54.02
45.89
34.72
20.46
3.15
-16.83
-38.5
-60.09
-79.51
-95.05
-106.13
-113.38
-118.29
-122.25
-125.85
-128.71
-129.78
-128.1
-123.26
-115.56
-105.71
-94.47
-82.42
-69.96
-57.51
-45.57
-34.79
-25.72
-18.65
-13.43
-9.52
-6.2
-2.85
0.82
4.64
8.11
10.68
12
12.09
11.34
10.26
9.2
8.19
6.95
5.03
2.05
-2.3
-8.17
-15.6
-24.37
-33.89
-43.07
-50.5
-54.74
-54.78
-50.28
-41.68
-29.9
-16.13
-1.5
13.04
26.69
38.78
48.8
56.45
61.73
64.83
66.09
65.89
64.57
62.41
59.63
56.46
53.11
49.76
46.55
43.52
40.64
37.73
34.59
30.95
26.63
21.59
15.98
10.12
4.34
-1.11
-6.16
-10.97
-15.88
-21.26
-27.29
-33.77
-40.02
-44.92
-47.19
-45.71
-39.93
-29.97
-16.67
-1.3
14.82
30.67
45.73
59.9
73.3
85.97
97.8
108.45
117.65
125.41
132.09
138.32
144.62
151.14
157.59
163.43
168.16
171.47
173.23
173.4
171.81
168.22
162.48
154.7
145.33
135.1
124.78
114.9
105.6
96.57
87.18
76.74
64.7
50.85
35.34
18.55
0.97
-17.02
-35.02
-52.63
-69.25
-83.99
-95.9
-104.12
-108.1
-107.8
-103.61
-96.34
-87.17
-77.66
-69.77
-65.63
-66.97
-74.46
-87.12
-102.42
-117.02
-127.93
-133.6
-134.23
-131.36
-126.81
-121.88
-116.91
-111.64
-105.72
-99.25
-92.77
-86.95
-82.21
-78.5
-75.39
-72.38
-69.17
-65.76
-62.4
-59.48
-57.29
-55.94
-55.27
-54.97
-54.81
-54.82
-55.38
-56.99
-59.91
-63.79
-67.55
-69.67
-68.67
-63.72
-54.93
-43.24
-29.97
-16.31
-2.98
9.77
21.96
33.6
44.48
54.24
62.46
68.89
73.61
76.95
79.43
81.6
83.83
86.34
89.16
92.23
95.54
99.12
103.03
107.36
112.12
117.12
121.91
125.79
127.95
127.8
125.3
121.06
116.06
111.06
106.19
100.72
93.48
83.55
70.79
56.06
40.88
26.87
15.21
6.49
0.86
-1.8
-1.84
-0.03
2.17
2.69
-0.69
-9.42
-23.44
-40.85
-58.4
-72.61
-81.03
-83.13
-80.34
-75.21
-70.23
-66.89
-65.34
-64.79
-64.29
-63.29
-61.75
-59.91
-57.87
-55.44
-52.33
-48.44
-44.16
-40.25
-37.47
-36.25
-36.49
-37.79
-39.76
-42.26
-45.3
-48.65
-51.66
-53.08
-51.55
-46.15
-36.71
-23.93
-9.01
6.83
22.62
37.66
51.36
63.06
72.03
77.72
79.98
79.19
76.04
71.28
65.51
59.19
52.72
46.67
41.71
38.4
36.89
36.75
37.09
36.84
35.27
32.2
28.06
23.71
19.95
17.32
15.87
15.11
14.18
12.14
8.23
2.25
-5.36
-13.54
-20.89
-26.05
-27.82
-25.38
-18.35
-6.9
8.05
24.9
41.54
55.91
66.36
71.96
72.52
68.38
60.2
48.85
35.43
21.2
7.52
-4.35
-13.51
-19.58
-22.71
-23.52
-22.96
-22.13
-22.03
-23.38
-26.44
-31.12
-37.07
-43.86
-50.99
-57.9
-63.9
-68.29
-70.53
-70.38
-67.91
-63.36
-56.97
-48.93
-39.39
-28.67
-17.26
-5.82
5
14.74
23.2
30.31
36.04
40.24
42.74
43.44
42.44
40.11
36.94
33.41
29.8
26.13
22.14
17.51
11.99
5.49
-1.91
-10.08
-18.85
-28.01
-37.23
-45.97
-53.51
-59.07
-62.01
-62.02
-59.15
-53.82
-46.64
-38.32
-29.51
-20.76
-12.53
-5.14
1.16
6.18
9.73
11.71
12.1
11.09
9.08
6.56
3.98
1.61
-0.55
-2.66
-4.88
-7.34
-10.05
-13.08
-16.6
-20.86
-26.08
-32.17
-38.59
-44.32
-48.12
-48.9
-46.13
-39.93
-31.06
-20.63
-9.74
0.73
10.26
18.65
25.91
32.11
37.26
41.29
44
45.23
44.87
43.07
40.13
36.55
32.81
29.2
25.82
22.53
19.15
15.51
11.55
7.32
2.91
-1.55
-6.04
-10.56
-15.21
-20.16
-25.59
-31.73
-38.69
-46.43
-54.55
-62.27
-68.45
-71.94
-71.81
-67.79
-60.28
-50.13
-38.39
-25.91
-13.27
-0.82
11.12
22.2
31.97
40.04
46.16
50.27
52.46
52.87
51.74
49.32
45.93
41.92
37.59
33.28
29.22
25.5
22.08
18.72
15.11
10.94
6.08
0.58
-5.28
-11.14
-16.63
-21.48
-25.6
-29.12
-32.38
-35.93
-40.38
-46.11
-53.06
-60.44
-66.96
-71.15
-71.84
-68.59
-61.65
-51.86
-40.18
-27.46
-14.35
-1.37
10.91
21.87
30.89
37.53
41.64
43.38
43.13
41.36
38.5
34.89
30.69
26.02
20.97
15.74
10.67
6.05
2.07
-1.45
-4.95
-9
-14.02
-20.05
-26.81
-33.82
-40.63
-47.04
-53.03
-58.74
-64.3
-69.79
-75.1
-79.88
-83.47
-84.92
-83.15
-77.14
-66.33
-50.78
-31.24
-9.05
14.24
37.04
58.1
76.54
91.86
103.82
112.36
117.45
119.12
117.54
113.03
106.08
97.29
87.33
76.78
66.19
56.01
46.61
38.18
30.67
23.77
16.96
9.67
1.52
-7.58
-17.31
-27.15
-36.53
-45.06
-52.62
-59.34
-65.62
-71.93
-78.84
-86.69
-95.47
-104.56
-112.76
-118.51
-120.28
-117.05
-108.65
-95.8
-79.78
-62.11
-44.06
-26.41
-9.5
6.66
22.11
36.79
50.34
62.24
71.8
78.49
82.15
83.09
81.97
79.48
75.97
71.19
64.5
55.13
42.73
27.6
10.63
-6.84
-23.28
-37.25
-47.36
-52.51
-52
-45.78
-34.7
-20.43
-5.02
9.59
22.22
32.65
41.49
49.66
57.81
66.11
74.31
82.19
89.83
97.69
106.24
115.37
124.1
130.64
133.14
130.55
123.27
112.98
101.78
91.1
81.03
70.45
57.9
42.72
25.55
8.13
-7.49
-19.96
-29.06
-35.48
-40.36
-44.83
-49.94
-57.05
-67.77
-83.49
-104.49
-129.19
-154.41
-176.51
-192.99
-203.43
-209.25
-212.42
-213.68
-211.81
-204.07
-187.88
-162.47
-129.62
-93
-56.62
-23.38
5.53
30.08
50.53
66.68
77.84
83.43
83.51
79.1
71.91
63.88
56.62
51.13
47.61
45.63
44.21
42.14
38.5
32.91
25.79
18.08
10.75
4.35
-1.25
-6.62
-12.48
-19.25
-27
-35.65
-45.09
-55.14
-65.33
-74.59
-81.24
-83.42
-79.8
-70.2
-55.79
-38.67
-21.1
-4.68
9.88
22.63
33.75
43.09
50.08
54.07
54.86
52.97
49.56
45.94
43.07
41.2
39.94
38.62
36.65
33.8
30.15
25.96
21.47
16.73
11.64
6.02
-0.31
-7.51
-15.67
-24.73
-34.33
-43.62
-51.24
-55.61
-55.31
-49.64
-38.92
-24.39
-7.79
9.18
25.25
39.64
51.88
61.54
68.15
71.29
70.97
67.76
62.83
57.54
52.97
49.57
47.03
44.51
41.09
36.23
30.03
23.09
16.27
10.24
5.13
0.57
-4.19
-10.02
-17.59
-27.17
-38.4
-50.23
-60.96
-68.55
-71.09
-67.43
-57.54
-42.58
-24.54
-5.63
12.33
28.18
41.41
51.83
59.33
63.82
65.29
63.98
60.52
55.75
50.53
45.52
41.01
36.93
32.96
28.83
24.39
19.71
15.04
10.64
6.6
2.77
-1.2
-5.76
-11.35
-18.25
-26.54
-35.98
-45.93
-55.21
-62.19
-65.04
-62.32
-53.44
-39.02
-20.78
-1.08
17.84
34.35
47.59
57.32
63.61
66.58
66.44
63.62
58.89
53.36
48.18
44.25
41.9
40.79
40.08
38.75
36.07
31.8
26.29
20.19
14.13
8.46
3.13
-2.15
-7.73
-13.82
-20.56
-28.1
-36.55
-45.81
-55.2
-63.33
-68.24
-68.08
-61.77
-49.58
-33.09
-14.62
3.48
19.48
32.51
42.37
49.24
53.32
54.82
53.92
51.01
46.64
41.57
36.53
32.15
28.78
26.42
24.73
23.13
21
17.91
13.81
9
3.96
-0.91
-5.49
-9.98
-14.81
-20.34
-26.76
-34.04
-41.99
-50.28
-58.4
-65.55
-70.52
-71.96
-68.74
-60.48
-47.77
-32.12
-15.41
0.65
14.92
26.85
36.26
43.05
47.09
48.33
47.02
43.81
39.63
35.44
31.95
29.43
27.76
26.53
25.22
23.32
20.47
16.55
11.76
6.56
1.6
-2.6
-5.89
-8.58
-11.28
-14.72
-19.47
-25.8
-33.65
-42.65
-52.01
-60.45
-66.28
-67.73
-63.52
-53.41
-38.49
-20.87
-3.04
12.99
26.13
36.31
43.99
49.71
53.74
55.98
56.27
54.6
51.33
47.13
42.77
38.86
35.64
32.94
30.32
27.27
23.52
19.09
14.29
9.45
4.81
0.35
-4.12
-8.84
-13.93
-19.36
-25.12
-31.32
-38.16
-45.88
-54.35
-62.86
-70.06
-74.27
-74.02
-68.6
-58.29
-44.36
-28.58
-12.75
1.73
14.07
23.97
31.49
36.75
39.93
41.16
40.67
38.74
35.82
32.41
29
25.92
23.27
20.95
18.61
15.91
12.6
8.67
4.29
-0.23
-4.61
-8.71
-12.54
-16.28
-20.21
-24.64
-29.95
-36.36
-43.9
-52.12
-60.06
-66.24
-69.07
-67.25
-60.35
-48.93
-34.42
-18.7
-3.49
9.96
21.09
29.75
36.07
40.16
42.11
42.06
40.34
37.43
33.89
30.22
26.79
23.8
21.35
19.41
17.8
16.18
14.19
11.5
8
3.84
-0.7
-5.32
-9.9
-14.48
-19.18
-24.13
-29.46
-35.36
-42
-49.34
-56.84
-63.34
-67.18
-66.77
-61.17
-50.59
-36.42
-20.74
-5.65
7.38
17.73
25.6
31.52
35.99
39.17
40.95
41.14
39.71
36.89
33.25
29.43
25.98
23.16
20.9
18.93
16.84
14.36
11.34
7.77
3.73
-0.73
-5.59
-10.81
-16.29
-21.92
-27.55
-33.22
-39.19
-45.82
-53.32
-61.34
-68.84
-74.2
-75.73
-72.27
-63.69
-50.9
-35.58
-19.58
-4.35
9.15
20.5
29.48
35.97
39.96
41.63
41.51
40.31
38.75
37.23
35.81
34.31
32.56
30.63
28.77
27.31
26.31
25.55
24.5
22.58
19.36
14.7
8.81
2.15
-4.68
-11.11
-16.76
-21.6
-25.98
-30.54
-36.02
-42.94
-51.27
-60.29
-68.63
-74.55
-76.47
-73.43
-65.36
-53.15
-38.27
-22.4
-6.89
7.36
19.98
30.83
39.84
46.85
51.65
54.16
54.51
53.16
50.76
48.06
45.62
43.72
42.31
41.08
39.63
37.62
34.87
31.4
27.41
23.17
18.87
14.53
10
5.06
-0.35
-6.1
-11.89
-17.4
-22.51
-27.34
-32.14
-37.17
-42.65
-48.68
-55.32
-62.53
-69.96
-76.79
-81.72
-83.32
-80.45
-72.72
-60.68
-45.58
-28.93
-12.09
3.93
18.49
31.18
41.73
49.97
55.84
59.42
60.98
60.86
59.5
57.38
54.89
52.33
49.85
47.44
45
42.43
39.68
36.76
33.73
30.62
27.46
24.16
20.65
16.87
12.76
8.26
3.38
-1.88
-7.43
-13.09
-18.62
-23.8
-28.52
-32.89
-37.22
-42.01
-47.74
-54.67
-62.51
-70.41
-76.92
-80.37
-79.38
-73.31
-62.55
-48.33
-32.29
-15.96
-0.39
13.9
26.77
38.11
47.75
55.36
60.66
63.54
64.19
63.04
60.74
57.9
55.04
52.5
50.33
48.46
46.73
45.02
43.26
41.36
39.21
36.58
33.25
29.05
24
18.25
12.07
5.7
-0.66
-6.92
-12.98
-18.77
-24.22
-29.28
-34.05
-38.77
-43.86
-49.68
-56.35
-63.48
-70.06
-74.6
-75.54
-71.77
-63.16
-50.57
-35.65
-20.27
-5.93
6.57
16.99
25.42
31.92
36.45
38.9
39.42
38.48
36.75
34.96
33.48
32.27
30.94
29.03
26.34
23.06
19.67
16.65
14.22
12.19
10
7.06
2.96
-2.3
-8.37
-14.7
-20.8
-26.42
-31.62
-36.67
-41.99
-47.96
-54.76
-62.25
-69.84
-76.49
-80.8
-81.43
-77.44
-68.66
-55.84
-40.44
-24.16
-8.49
5.64
17.9
28.36
37.11
44.19
49.45
52.76
54.15
53.95
52.64
50.78
48.73
46.6
44.32
41.7
38.64
35.25
31.75
28.41
25.35
22.44
19.25
15.26
10.11
3.81
-3.15
-10.04
-16.15
-21.2
-25.37
-29.24
-33.45
-38.51
-44.64
-51.84
-59.9
-68.25
-75.9
-81.37
-83.06
-79.74
-71.19
-58.31
-42.86
-26.81
-11.61
2.08
14.28
25.26
35.13
43.73
50.68
55.67
58.67
59.89
59.71
58.54
56.71
54.5
52.13
49.8
47.68
45.86
44.27
42.72
40.93
38.56
35.42
31.49
26.96
22.12
17.24
12.4
7.48
2.19
-3.62
-9.95
-16.47
-22.74
-28.41
-33.37
-37.85
-42.31
-47.3
-53.25
-60.3
-68.15
-76.04
-82.7
-86.63
-86.48
-81.43
-71.6
-57.97
-42.12
-25.7
-10.01
4.3
17.09
28.44
38.43
46.97
53.82
58.79
61.83
63.12
62.98
61.82
60
57.86
55.65
53.62
51.94
50.7
49.78
48.93
47.74
45.84
42.97
39.14
34.57
29.6
24.57
19.67
14.91
10.12
5.11
-0.22
-5.78
-11.34
-16.68
-21.67
-26.35
-30.86
-35.42
-40.27
-45.64
-51.8
-58.83
-66.49
-73.99
-80
-82.95
-81.56
-75.34
-64.8
-51.31
-36.5
-21.77
-7.91
4.87
16.68
27.5
37.1
44.97
50.66
54.02
55.3
55.1
54.19
53.2
52.45
51.91
51.36
50.52
49.31
47.78
46.13
44.51
42.8
40.72
37.88
34.07
29.33
24.05
18.69
13.67
9.11
4.9
0.79
-3.46
-7.91
-12.51
-17.12
-21.67
-26.11
-30.42
-34.57
-38.5
-42.3
-46.19
-50.61
-55.91
-62.12
-68.64
-74.27
-77.44
-76.81
-71.77
-62.65
-50.6
-37.15
-23.69
-11.05
0.44
10.82
20.23
28.62
35.73
41.21
44.85
46.73
47.19
46.78
45.94
44.96
43.86
42.64
41.31
40.05
39.07
38.4
37.93
37.28
36.08
34.13
31.41
28.09
24.39
20.46
16.39
12.23
8.02
3.81
-0.33
-4.33
-8.14
-11.74
-15.17
-18.53
-21.89
-25.39
-29.16
-33.39
-38.38
-44.31
-51.09
-58.07
-64.11
-67.78
-67.91
-63.99
-56.42
-46.29
-34.94
-23.53
-12.68
-2.57
6.86
15.57
23.26
29.44
33.6
35.56
35.56
34.19
32.18
30.13
28.33
26.83
25.55
24.43
23.46
22.65
21.96
21.21
20.18
18.73
16.76
14.28
11.31
7.83
3.87
-0.41
-4.74
-8.83
-12.57
-16.14
-19.95
-24.42
-29.81
-35.99
-42.49
-48.58
-53.42
-56.21
-56.26
-53.12
-46.76
-37.6
-26.55
-14.74
-3.28
7.03
15.75
22.72
27.93
31.32
32.94
33
31.99
30.57
29.32
28.59
28.3
28.07
27.46
26.14
24.07
21.41
18.43
15.36
12.22
8.85
5.01
0.52
-4.56
-9.94
-15.18
-19.9
-24.01
-27.69
-31.36
-35.42
-40.16
-45.7
-52.08
-59.19
-66.68
-73.77
-79.28
-81.8
-80.26
-74.34
-64.7
-52.69
-39.84
-27.28
-15.53
-4.57
5.76
15.4
24.01
31.08
36.29
39.64
41.46
42.27
42.47
42.25
41.57
40.31
38.47
36.17
33.67
31.22
28.93
26.61
23.94
20.5
16
10.37
3.82
-3.21
-10.18
-16.58
-22.18
-27.04
-31.59
-36.56
-42.64
-50.28
-59.26
-68.61
-76.77
-82.03
-83.02
-79.2
-70.91
-59.25
-45.63
-31.39
-17.55
-4.77
6.63
16.45
24.61
30.99
35.57
38.39
39.57
39.41
38.27
36.53
34.44
32.07
29.33
26.14
22.59
18.97
15.65
12.84
10.36
7.72
4.25
-0.45
-6.27
-12.58
-18.54
-23.48
-27.19
-30
-32.53
-35.51
-39.54
-45.02
-51.97
-59.92
-67.81
-74.07
-76.92
-74.91
-67.43
-54.93
-38.86
-21.19
-3.77
12.14
26.05
38.04
48.35
57.03
63.85
68.48
70.81
71.19
70.43
69.37
68.64
68.38
68.4
68.52
68.93
70.26
73.28
78.43
85.47
93.39
100.57
105.28
106.1
102.31
93.95
81.77
66.88
50.57
33.94
17.78
2.56
-11.53
-24.46
-36.25
-46.85
-56.13
-63.69
-68.95
-71.16
-69.64
-63.98
-54.38
-41.63
-26.97
-11.77
2.76
15.76
26.69
35.17
40.88
43.47
42.75
38.83
32.25
23.86
14.61
5.36
-3.32
-11.06
-17.56
-22.5
-25.53
-26.32
-24.73
-20.91
-15.3
-8.64
-1.79
4.48
9.77
14.18
18.4
23.36
29.8
37.79
46.41
53.98
58.46
58.27
52.83
42.81
29.86
16.27
4.27
-4.34
-8.53
-8.12
-3.71
3.55
12.2
20.86
28.48
34.44
38.48
40.5
40.41
38.12
33.72
27.61
20.59
13.65
7.61
2.8
-1.04
-4.6
-8.69
-13.84
-20.35
-28.14
-36.94
-46.27
-55.36
-63.33
-69.42
-73.33
-75.34
-76.15
-76.56
-77.03
-77.67
-78.52
-79.9
-82.56
-87.52
-95.47
-106.33
-119.1
-132.12
-143.6
-152.08
-156.68
-157.04
-153.14
-145.11
-133.28
-118.11
-100.31
-80.85
-60.85
-41.46
-23.8
-8.73
3.28
12.24
18.68
23.39
27.21
30.7
34.01
36.91
39.01
40.17
40.58
40.74
41.15
41.99
42.95
43.42
42.75
40.58
36.95
32.28
27.09
21.89
16.93
12.24
7.56
2.47
-3.6
-11.16
-20.43
-31.07
-41.95
-51.19
-56.46
-55.68
-47.72
-32.89
-12.95
9.4
31.48
51.45
68.7
83.56
96.72
108.52
118.6
126.08
129.94
129.66
125.55
118.89
111.6
105.71
102.68
103.01
106.07
110.46
114.45
116.58
115.99
112.62
107.16
100.93
95.49
92.15
91.32
92.03
91.89
87.65
76.36
56.58
29.19
-2.75
-35.07
-64.08
-87.81
-106.45
-121.63
-135.21
-147.97
-159.21
-167.17
-170.1
-167.26
-159.21
-147.37
-133.3
-118.02
-102.08
-85.98
-70.75
-58.04
-49.63
-46.76
-49.41
-56.18
-64.74
-72.56
-77.71
-79.34
-77.72
-73.84
-68.83
-63.39
-57.57
-50.88
-42.8
-33.25
-22.93
-13.14
-5.32
-0.4
1.58
1.44
0.49
-0.15
0.06
0.94
1.83
1.99
0.93
-1.53
-5.37
-10.36
-16.01
-21.39
-25.14
-25.61
-21.43
-12.05
1.96
19.03
37.23
54.83
70.83
84.89
97
107.13
115.02
120.33
122.83
122.6
120.04
115.79
110.5
104.78
99.12
93.84
89.16
85.13
81.75
78.83
76.14
73.47
70.63
67.47
63.87
59.58
54.33
47.82
39.92
30.86
21.24
11.91
3.69
-2.93
-7.94
-11.8
-15.28
-19.28
-24.61
-31.69
-40.41
-49.94
-58.88
-65.55
-68.55
-67.22
-61.77
-53.2
-42.81
-31.85
-21.19
-11.31
-2.4
5.41
11.88
16.68
19.43
19.87
18.02
14.18
8.97
3.18
-2.29
-6.57
-8.93
-8.91
-6.42
-1.82
4.13
10.41
16.08
20.5
23.5
25.33
26.38
27.03
27.46
27.67
27.51
26.74
25.02
21.95
17.16
10.4
1.73
-8.54
-19.9
-31.9
-44.25
-56.66
-68.63
-79.15
-86.71
-89.69
-86.9
-78.1
-64.17
-46.88
-28.27
-10.19
6.16
20.27
32.11
41.86
49.63
55.35
58.84
59.96
58.88
56.13
52.55
49.03
46.19
44.25
43.12
42.54
42.27
42.2
42.24
42.22
41.86
40.88
39.09
36.59
33.59
30.34
26.92
23.15
18.76
13.51
7.36
0.58
-6.43
-13.2
-19.4
-25.03
-30.35
-35.94
-42.37
-49.98
-58.49
-66.92
-73.74
-77.35
-76.63
-71.4
-62.44
-51.24
-39.38
-28.08
-17.94
-8.97
-0.98
6.18
12.34
17.16
20.3
21.76
21.98
21.72
21.78
22.69
24.45
26.66
28.75
30.34
31.44
32.34
33.35
34.65
36.07
37.29
38.02
38.21
38.03
37.75
37.59
37.59
37.61
37.49
37.16
36.71
36.38
36.34
36.54
36.61
35.96
33.94
30.07
24.25
16.82
8.49
0.13
-7.38
-13.36
-17.49
-19.81
-20.8
-21.13
-21.51
-22.39
-23.77
-25.26
-26.36
-26.8
-26.76
-26.88
-27.95
-30.46
-34.39
-39.1
-43.62
-47.01
-48.72
-48.71
-47.25
-44.8
-41.69
-38.04
-33.83
-29.02
-23.78
-18.55
-13.96
-10.66
-9.03
-9.04
-10.19
-11.75
-13.02
-13.69
-13.85
-13.94
-14.5
-15.91
-18.34
-21.71
-25.74
-29.94
-33.58
-35.77
-35.58
-32.42
-26.3
-17.92
-8.43
0.86
8.92
15.2
19.54
22.05
22.84
22.01
19.79
16.55
12.88
9.49
6.97
5.57
5.13
5.15
4.97
4.04
2.05
-0.97
-4.73
-8.8
-12.87
-16.75
-20.38
-23.86
-27.26
-30.58
-33.76
-36.76
-39.69
-42.87
-46.62
-51.02
-55.58
-59.22
-60.65
-58.81
-53.42
-45.15
-35.34
-25.44
-16.4
-8.46
-1.23
5.69
12.36
18.35
22.89
25.39
25.72
24.34
22.07
19.8
18.17
17.48
17.83
19.17
21.42
24.42
27.86
31.39
34.69
37.64
40.27
42.68
44.8
46.23
46.26
44.03
38.86
30.57
19.55
6.65
-7.06
-20.61
-33.26
-44.38
-53.37
-59.51
-62.06
-60.61
-55.3
-46.99
-37
-26.68
-16.91
-7.98
0.31
8.21
15.72
22.5
28.05
32.03
34.39
35.43
35.59
35.27
34.7
34.02
33.29
32.51
31.71
30.78
29.57
27.88
25.6
22.83
19.79
16.74
13.78
10.74
7.27
3.05
-2.05
-7.82
-13.83
-19.66
-25.05
-29.99
-34.65
-39.25
-43.97
-48.99
-54.47
-60.45
-66.76
-72.81
-77.51
-79.59
-77.96
-72.12
-62.42
-49.88
-35.82
-21.48
-7.67
5.2
17.01
27.7
37.13
45.08
51.32
55.77
58.51
59.74
59.75
58.76
57
54.61
51.74
48.55
45.22
41.88
38.56
35.18
31.55
27.49
22.93
17.93
12.7
7.49
2.53
-2.08
-6.38
-10.48
-14.62
-18.96
-23.63
-28.62
-33.8
-39.03
-44.18
-49.24
-54.39
-59.94
-66.13
-72.91
-79.7
-85.42
-88.76
-88.55
-84.18
-75.85
-64.46
-51.33
-37.77
-24.71
-12.58
-1.42
8.97
18.63
27.42
35.01
41.05
45.37
48.15
49.83
50.91
51.75
52.38
52.59
52.13
50.93
49.18
47.22
45.29
43.42
41.36
38.77
35.39
31.23
26.52
21.64
16.91
12.51
8.42
4.46
0.46
-3.74
-8.18
-12.84
-17.63
-22.4
-26.97
-31.14
-34.75
-37.81
-40.56
-43.35
-46.57
-50.32
-54.25
-57.47
-58.79
-56.99
-51.27
-41.48
-28.16
-12.37
4.49
21.02
35.92
48.1
56.79
61.69
62.94
61.3
57.87
53.95
50.65
48.62
47.88
47.96
48.16
47.85
46.74
44.89
42.68
40.59
38.95
37.87
37.14
36.32
34.93
32.62
29.35
25.41
21.28
17.37
13.9
10.69
7.39
3.66
-0.59
-5.2
-9.77
-13.96
-17.6
-20.74
-23.6
-26.47
-29.71
-33.68
-38.7
-44.82
-51.58
-57.9
-62.23
-63.03
-59.31
-51.15
-39.64
-26.51
-13.55
-1.95
7.91
16.35
23.97
31.18
37.94
43.77
47.96
49.89
49.27
46.27
41.36
35.23
28.55
21.84
15.53
9.92
5.23
1.56
-1.24
-3.48
-5.61
-8.07
-11.08
-14.62
-18.47
-22.32
-25.94
-29.17
-32.01
-34.47
-36.67
-38.77
-40.97
-43.49
-46.44
-49.68
-52.86
-55.51
-57.35
-58.35
-58.9
-59.46
-60.29
-61
-60.57
-57.56
-50.71
-39.54
-24.52
-7.15
10.68
27.14
40.99
51.66
59.16
63.77
65.89
66.04
64.86
63.15
61.71
61.08
61.33
61.96
62.14
61.02
58.19
53.81
48.57
43.37
38.94
35.59
33.14
31.16
29.19
26.9
24.14
20.86
17.04
12.65
7.65
2.11
-3.74
-9.53
-14.83
-19.24
-22.53
-24.77
-26.37
-27.98
-30.34
-33.79
-38.14
-42.39
-45.16
-45.12
-41.68
-35.31
-27.38
-19.61
-13.39
-9.25
-6.86
-5.26
-3.36
-0.23
4.73
11.82
20.99
31.84
43.42
54.38
63.26
69.04
71.59
71.76
71.11
71.29
73.46
77.9
83.91
90.05
94.52
95.69
92.39
84.2
71.24
53.87
32.33
6.91
-21.49
-50.97
-78.62
-101.46
-117.53
-126.77
-130.78
-131.69
-130.8
-127.81
-121.35
-110.14
-94.25
-75.27
-55.72
-37.7
-22.13
-8.8
2.93
13.25
21.66
27.37
30
29.99
28.7
27.86
28.84
32.18
37.3
42.78
46.87
48.1
45.91
40.87
34.69
29.5
27.13
28.34
32.5
37.82
41.93
42.53
38.11
28.11
12.88
-6.61
-29.1
-53.25
-77.59
-100.48
-119.97
-134
-140.75
-139.35
-130.26
-115.39
-97.55
-79.53
-63.29
-49.6
-38.38
-29.24
-21.94
-16.49
-12.79
-10.48
-8.87
-7.22
-5.1
-2.54
-0.02
1.91
2.88
2.8
1.82
0.18
-2
-4.73
-8.16
-12.59
-18.27
-25.3
-33.34
-41.48
-48.26
-52.01
-51.33
-45.62
-35.31
-21.74
-6.74
7.96
21.19
32.52
42.09
50.23
57.17
62.84
66.98
69.29
69.75
68.61
66.3
63.23
59.62
55.49
50.87
45.97
41.26
37.32
34.47
32.57
30.96
28.74
25.13
19.87
13.22
5.88
-1.38
-7.95
-13.58
-18.43
-22.97
-27.86
-33.74
-41.04
-49.77
-59.38
-68.73
-76.29
-80.49
-80.13
-74.74
-64.77
-51.38
-36.14
-20.5
-5.5
8.42
21.21
32.99
43.77
53.3
61.14
66.83
70.09
70.91
69.63
66.81
63.21
59.52
56.25
53.63
51.48
49.37
46.78
43.33
38.97
33.95
28.67
23.47
18.43
13.38
7.88
1.51
-6
-14.53
-23.55
-32.3
-40.03
-46.35
-51.47
-56.13
-61.46
-68.45
-77.63
-88.58
-100
-109.9
-116.19
-117.33
-112.87
-103.55
-91.04
-77.38
-64.31
-52.77
-42.53
-32.2
-19.69
-2.97
18.8
44.58
71.3
94.82
111.49
119.87
121.33
119.57
118.98
122.8
132.1
145.74
161.28
176.11
188.28
196.79
201.43
202.46
200.27
195.1
186.95
175.47
159.93
139.39
112.81
79.48
39.59
-5.25
-51.8
-95.65
-132.29
-158.46
-173.34
-178.69
-178.17
-175.91
-175.04
-176.76
-180.25
-183.28
-183.26
-178.17
-167.17
-150.85
-130.85
-109.33
-88.18
-68.55
-50.7
-34.36
-19.18
-5.17
7.15
17
23.66
26.71
26.17
22.44
16.19
8.28
-0.33
-8.67
-15.83
-21.19
-24.6
-26.39
-27.19
-27.61
-27.85
-27.66
-26.49
-23.97
-20.38
-16.67
-14.3
-14.51
-17.88
-23.93
-31.36
-38.53
-44.02
-47.07
-47.56
-45.88
-42.64
-38.54
-34.29
-30.62
-28.05
-26.61
-25.64
-23.88
-19.88
-12.58
-1.75
11.9
27.02
42.08
55.98
68.14
78.47
87.02
93.76
98.48
100.98
101.16
99.21
95.58
90.92
85.98
81.46
77.94
75.74
74.85
74.87
75.07
74.62
72.85
69.48
64.65
58.75
52.22
45.33
38.13
30.68
23.15
15.86
9.16
3.24
-2.11
-7.4
-13.33
-20.34
-28.42
-36.99
-45.03
-51.33
-54.82
-54.74
-50.87
-43.46
-33.24
-21.28
-8.7
3.43
14.35
23.67
31.28
37.29
41.78
44.78
46.25
46.18
44.72
42.26
39.31
36.4
33.88
31.82
30.08
28.39
26.59
24.66
22.72
20.81
18.78
16.25
12.76
7.97
1.95
-4.86
-11.77
-18.09
-23.42
-27.75
-31.46
-35.11
-39.31
-44.48
-50.73
-57.68
-64.44
-69.72
-72.13
-70.64
-64.92
-55.5
-43.55
-30.53
-17.64
-5.6
5.42
15.5
24.66
32.63
38.9
42.94
44.53
43.96
41.92
39.24
36.61
34.3
32.25
30.19
27.99
25.76
23.77
22.27
21.27
20.42
19.13
16.87
13.43
8.99
4.01
-1.04
-5.95
-10.85
-15.96
-21.4
-27.08
-32.7
-38.08
-43.26
-48.54
-54.15
-59.84
-64.77
-67.65
-67.23
-62.83
-54.64
-43.67
-31.36
-19.09
-7.85
2.01
10.62
18.33
25.45
31.98
37.54
41.54
43.4
42.92
40.38
36.49
32.19
28.2
24.9
22.26
20.01
17.94
15.95
14.1
12.51
11.21
10.11
9
7.69
5.96
3.71
0.83
-2.73
-7.02
-11.97
-17.44
-23.17
-28.84
-34.24
-39.37
-44.51
-50.04
-56.25
-62.99
-69.54
-74.61
-76.7
-74.58
-67.8
-56.9
-43.36
-29.13
-16.09
-5.4
2.66
8.61
13.35
17.71
22.23
27.04
32.15
37.45
42.75
47.71
51.86
54.76
56.27
56.75
56.95
57.67
59.2
61.17
62.56
62.2
59.24
53.45
45.31
35.66
25.51
15.71
6.97
-0.25
-5.68
-9.33
-11.57
-13.09
-14.75
-17.18
-20.49
-24.12
-26.98
-27.97
-26.38
-22.28
-16.42
-9.95
-3.95
0.87
4.22
6.13
6.82
6.75
6.48
6.65
7.71
9.72
12.2
14.27
15.06
14.13
11.78
9.03
7.34
8.02
11.84
18.72
27.81
37.79
47.41
55.99
63.63
71.18
80.17
92.5
110.24
135.02
167.27
205.43
245.62
282.37
309.92
324.1
323.44
309.31
284.97
254.1
219.63
183.33
146.13
108.67
71.66
35.84
1.6
-31.29
-63.62
-96.34
-129.8
-163.24
-194.49
-220.47
-238.2
-246.01
-244.28
-235.36
-222.63
-209.31
-197.4
-187.46
-179.05
-171.51
-164.46
-157.98
-152.3
-147.42
-142.93
-138.12
-132.25
-124.92
-116.26
-106.84
-97.57
-89.29
-82.48
-77.09
-72.67
-68.61
-64.52
-60.37
-56.37
-52.83
-49.88
-47.41
-45.32
-43.6
-42.37
-41.85
-42.12
-43
-44.15
-45.19
-45.78
-45.63
-44.28
-41.13
-35.67
-27.79
-18.14
-8.1
0.75
7.17
10.84
12.37
12.93
13.62
15.05
17.26
19.98
22.94
26.02
29.21
32.34
34.99
36.64
36.82
35.37
32.52
28.82
24.94
21.44
18.64
16.54
14.85
13.05
10.64
7.35
3.27
-1.15
-5.27
-8.58
-10.86
-12.25
-13.18
-14.18
-15.73
-18.14
-21.43
-25.21
-28.69
-30.81
-30.66
-27.8
-22.45
-15.42
-7.76
-0.35
6.34
12.17
17.11
21
23.55
24.51
23.91
22.16
19.87
17.6
15.53
13.5
11.18
8.37
5.28
2.42
0.43
-0.37
-0.14
0.58
1.04
0.72
-0.51
-2.39
-4.46
-6.26
-7.57
-8.43
-9.11
-10.1
-11.88
-14.85
-19.13
-24.42
-30.07
-35.04
-38.25
-38.85
-36.55
-31.72
-25.3
-18.44
-12.17
-7.16
-3.65
-1.6
-0.85
-1.22
-2.48
-4.33
-6.35
-8.16
-9.55
-10.51
-11.3
-12.25
-13.6
-15.39
-17.45
-19.48
-21.09
-21.97
-21.98
-21.28
-20.28
-19.59
-19.77
-21.06
-23.35
-26.27
-29.49
-32.96
-36.94
-41.64
-46.85
-51.73
-54.92
-55.04
-51.29
-43.76
-33.37
-21.45
-9.15
2.87
14.39
25.42
35.77
44.97
52.32
57.18
59.34
59.15
57.36
54.88
52.49
50.59
49.14
47.86
46.45
44.81
43.12
41.65
40.54
39.59
38.28
36.03
32.53
27.93
22.77
17.71
13.2
9.29
5.72
2.02
-2.2
-7.25
-13.37
-20.65
-28.9
-37.4
-44.86
-49.72
-50.62
-46.88
-38.77
-27.4
-14.34
-1.11
11.08
21.59
30.23
37.1
42.2
45.35
46.19
44.47
40.38
34.72
28.74
23.66
20.13
17.89
16.09
13.77
10.53
6.68
3
0.24
-1.43
-2.56
-4.1
-6.95
-11.48
-17.33
-23.54
-28.92
-32.57
-34.19
-34.27
-33.77
-33.81
-35.28
-38.59
-43.62
-49.83
-56.28
-61.75
-64.8
-64.05
-58.57
-48.23
-33.8
-16.78
1.03
18.04
33.12
45.69
55.51
62.5
66.6
67.88
66.52
62.86
57.4
50.7
43.36
36.02
29.29
23.81
20.06
18.3
18.43
19.95
22.08
23.9
24.75
24.33
22.84
20.83
19.03
17.9
17.51
17.39
16.82
15.07
11.75
6.96
1.21
-4.75
-10.05
-13.82
-15.21
-13.69
-9.36
-3.23
2.95
7.32
8.78
7.72
5.87
5.54
8.25
13.87
20.52
25.5
26.59
23.14
16.45
9.19
4.19
3.34
6.78
12.97
19.42
23.71
24.57
22.28
18.36
14.85
13.3
14.16
16.79
19.83
21.93
22.28
20.65
17.18
12.09
5.43
-2.81
-12.51
-23.31
-34.59
-45.66
-55.94
-65
-72.35
-77.33
-79.06
-76.67
-69.78
-58.71
-44.49
-28.51
-11.9
4.73
21.25
37.73
53.99
69.43
83.18
94.42
102.74
108.37
111.95
114.36
116.25
117.88
119.1
119.63
119.32
118.33
117.01
115.75
114.79
114.25
114.32
115.23
116.99
119.02
119.85
117.59
110.52
98.04
80.93
61.04
40.31
20.01
0.5
-18.31
-36.08
-51.58
-63.05
-69.07
-69.64
-66.63
-63.3
-63.29
-69.42
-82.84
-103.02
-128.13
-155.6
-182.42
-205.23
-220.63
-225.73
-219.08
-201.34
-175.32
-145.13
-114.82
-87.33
-64.01
-45.02
-29.96
-18.47
-10.18
-4.47
-0.35
3.32
7.39
12.01
16.7
20.74
23.47
24.56
23.88
21.41
17.13
11.28
4.51
-2.08
-7.16
-9.7
-9.29
-6.25
-1.42
4.24
9.98
15.39
20.31
24.68
28.45
31.61
34.24
36.52
38.64
40.55
41.93
42.21
40.91
37.87
33.41
28.27
23.21
18.84
15.42
12.94
11.3
10.45
10.25
10.45
10.49
9.72
7.57
3.81
-1.37
-7.44
-13.78
-19.83
-25.12
-29.17
-31.39
-31.18
-28.17
-22.45
-14.65
-5.8
2.97
10.73
16.92
21.4
24.35
26.05
26.83
26.9
26.38
25.31
23.8
22.01
20.21
18.61
17.28
16.11
14.88
13.38
11.51
9.35
7.05
4.77
2.58
0.5
-1.49
-3.46
-5.56
-7.96
-10.89
-14.48
-18.73
-23.43
-28.18
-32.45
-35.58
-36.93
-35.93
-32.3
-26.22
-18.34
-9.7
-1.45
5.47
10.48
13.43
14.5
13.99
12.27
9.72
6.8
4.01
1.88
0.74
0.62
1.2
1.95
2.34
2.19
1.64
1.14
1.12
1.71
2.58
3.13
2.67
0.86
-2.21
-6.05
-10.04
-13.67
-16.76
-19.45
-22.07
-24.98
-28.35
-32.03
-35.53
-38.11
-38.97
-37.59
-33.87
-28.09
-20.85
-12.82
-4.65
2.96
9.3
13.73
15.82
15.6
13.57
10.52
7.21
4.01
0.9
-2.4
-6.15
-10.37
-14.81
-19.19
-23.32
-27.24
-31.19
-35.43
-40.19
-45.64
-51.96
-59.35
-67.98
-77.95
-89.03
-100.78
-112.61
-124.02
-134.89
-145.38
-155.83
-166.37
-176.61
-185.72
-192.63
-196.51
-197.04
-194.44
-189.12
-181.34
-171.06
-157.88
-141.45
-121.61
-98.46
-72.18
-42.84
-10.25
26.03
66.19
109.66
154.5
197.31
233.81
260.04
273.68
274.96
266.44
252.01
235.39
219
203.73
189.38
175.59
162.41
150.28
139.69
130.69
122.77
115.18
107.31
99.09
91.04
84.06
79.02
76.39
76.01
77.17
78.97
80.65
81.96
83.07
84.27
85.46
85.88
84.21
79.02
69.37
55.22
37.61
18.37
-0.28
-16.33
-28.29
-35.52
-38.21
-37.39
-34.76
-32.35
-32
-34.75
-40.49
-47.87
-54.87
-59.52
-60.6
-58.03
-52.67
-45.86
-38.98
-33.08
-28.88
-26.74
-26.76
-28.65
-31.74
-34.97
-37.16
-37.35
-35.15
-30.8
-25
-18.72
-12.74
-7.48
-2.97
1.05
4.82
8.4
11.55
13.86
14.99
14.8
13.44
11.21
8.48
5.59
2.76
0.14
-2.21
-4.3
-6.28
-8.36
-10.72
-13.46
-16.48
-19.52
-22.31
-24.68
-26.72
-28.82
-31.5
-35.32
-40.62
-47.36
-55.05
-62.76
-69.29
-73.45
-74.41
-71.82
-65.97
-57.56
-47.51
-36.7
-25.84
-15.41
-5.77
2.71
9.73
15.07
18.73
21.02
22.39
23.31
24.02
24.45
24.29
23.22
21.14
18.34
15.38
12.78
10.81
9.27
7.66
5.43
2.28
-1.66
-5.96
-10.08
-13.66
-16.6
-19.04
-21.31
-23.73
-26.69
-30.54
-35.54
-41.66
-48.38
-54.75
-59.51
-61.48
-59.98
-54.98
-47.09
-37.31
-26.68
-16.04
-5.9
3.51
12.11
19.87
26.63
32.14
36.1
38.28
38.71
37.71
35.87
33.82
32.04
30.69
29.64
28.63
27.4
25.76
23.6
20.85
17.45
13.41
8.89
4.12
-0.63
-5.2
-9.61
-14.06
-18.89
-24.46
-31.03
-38.6
-46.74
-54.5
-60.54
-63.52
-62.44
-57.13
-48.23
-36.98
-24.73
-12.5
-0.84
10.07
20.11
29.01
36.35
41.73
44.95
46.15
45.7
44.13
41.92
39.47
37.03
34.78
32.8
31.1
29.58
28.03
26.17
23.72
20.52
16.59
12.09
7.38
2.83
-1.31
-4.94
-8.24
-11.6
-15.53
-20.44
-26.38
-32.83
-38.69
-42.52
-42.98
-39.27
-31.39
-20.08
-6.35
8.93
25.28
42.57
60.59
78.77
96.03
111.11
123.09
131.83
138.06
143.16
148.64
155.57
164.18
173.72
182.58
188.6
189.55
183.62
169.7
147.52
117.71
81.61
41.31
-0.66
-41.54
-78.83
-110.56
-135.34
-152.25
-160.69
-160.52
-152.37
-138.11
-120.73
-103.75
-90.1
-81.14
-76.4
-74.06
-72.03
-68.84
-63.96
-57.58
-50.06
-41.68
-32.61
-23.19
-13.99
-5.8
0.69
5.09
7.31
7.75
6.97
5.71
4.57
3.93
3.73
3.56
2.9
1.45
-0.62
-2.85
-4.81
-6.52
-8.65
-12.22
-18.04
-26.23
-36.08
-46.33
-55.76
-63.67
-70.06
-75.43
-80.41
-85.28
-89.75
-92.98
-93.77
-90.96
-83.83
-72.32
-57.21
-39.82
-21.64
-3.91
12.55
27.38
40.41
51.46
60.3
66.68
70.61
72.35
72.47
71.72
70.94
70.99
72.61
76.21
81.53
87.54
92.6
95.05
93.72
88.36
79.42
67.76
54.22
39.65
25.11
12.07
2.08
-3.93
-6.3
-6.8
-7.91
-11.6
-18.41
-27.2
-35.89
-42.5
-45.99
-46.37
-44.16
-39.65
-32.56
-22.29
-8.54
8.11
26.09
43.34
58.01
69.09
76.63
81.57
85.14
88.42
92.05
96.24
100.99
106.38
112.59
119.95
128.69
138.77
149.77
161.04
171.82
181.6
190.25
198.03
205.47
213.02
220.79
228.53
235.6
241.1
244
243.31
238.32
228.92
215.84
200.56
184.89
170.24
157.09
144.74
131.75
116.64
98.52
77.36
53.75
28.45
2.07
-24.99
-52.3
-79.06
-104.23
-126.82
-146.45
-163.64
-179.91
-197.35
-217.96
-242.83
-271.49
-301.62
-329.44
-350.87
-362.85
-364.58
-357.86
-346.36
-334.21
-324.26
-317.23
-311.72
-305.28
-295.72
-282.26
-265.74
-248.28
-232.47
-220.45
-213.22
-210.31
-209.76
-208.63
-203.83
-192.92
-174.78
-149.7
-119.1
-84.97
-49.36
-14.13
19.01
48.53
73.07
91.68
104.16
111.29
114.65
116.26
117.96
120.96
125.57
131.31
137.24
142.31
145.62
146.44
144.14
138.18
128.17
114.05
96.36
76.16
54.86
33.89
14.39
-2.88
-17.56
-29.76
-40.01
-49.24
-58.59
-69.08
-81.08
-94
-106.34
-116.11
-121.6
-121.86
-116.98
-107.85
-95.82
-82.27
-68.43
-55.27
-43.51
-33.54
-25.5
-19.32
-14.87
-12.16
-11.39
-12.69
-15.76
-19.79
-23.36
-24.98
-23.57
-18.9
-11.34
-1.58
9.83
22.5
35.92
49.13
60.71
69.04
72.95
72.13
67.21
59.31
49.51
38.48
26.55
13.98
1.24
-10.97
-22.09
-31.92
-40.76
-49.06
-56.9
-63.69
-68.21
-69.19
-65.87
-58.44
-48.07
-36.35
-24.71
-13.97
-4.25
4.7
12.99
20.37
26.09
29.27
29.31
26.16
20.49
13.42
6.27
0.06
-4.71
-8.01
-10.06
-10.96
-10.57
-8.54
-4.66
0.93
7.65
14.62
20.86
25.62
28.37
28.83
26.97
23.01
17.58
11.76
6.74
3.38
1.61
0.35
-2.23
-7.8
-16.88
-28.36
-39.69
-47.74
-49.73
-43.83
-29.19
-5.91
24.92
60.81
97.71
130.59
154.88
168.07
170.57
165.2
155.43
143.55
129.92
113.67
94.3
73.04
52.87
37.12
27.8
24.45
24.52
24.77
22.88
18.4
12.51
7.03
3.19
0.97
-0.86
-3.99
-9.63
-17.95
-28
-38.3
-47.58
-55.34
-62.05
-68.68
-76.1
-84.53
-93.36
-101.44
-107.66
-111.52
-113.3
-113.84
-113.86
-113.37
-111.43
-106.51
-97.31
-83.51
-66.16
-47.21
-28.81
-12.45
1.36
12.93
22.92
31.91
40.25
48.18
55.93
63.51
70.53
75.96
78.4
76.74
70.81
61.79
51.81
43.24
37.75
35.88
37
39.77
42.7
44.59
44.68
42.65
38.41
32.03
23.68
13.74
2.86
-8.01
-17.9
-26.16
-32.82
-38.77
-45.43
-54.08
-65.14
-77.7
-89.77
-98.92
-103.24
-101.98
-95.74
-86.08
-74.82
-63.46
-52.91
-43.54
-35.53
-29.15
-24.86
-23.07
-23.74
-26.12
-28.82
-30.19
-29.1
-25.3
-19.6
-13.45
-8.19
-4.57
-2.46
-1.2
0.01
1.58
3.46
5.28
6.6
7.22
7.18
6.75
6.24
5.93
5.89
6
5.92
5.2
3.46
0.42
-3.93
-9.36
-15.4
-21.37
-26.38
-29.44
-29.61
-26.16
-19.02
-8.72
3.6
16.67
29.43
41.29
52.1
61.81
70.17
76.69
80.78
82.13
80.97
78.06
74.42
70.95
68.11
65.9
64.03
62.17
60.08
57.63
54.73
51.3
47.28
42.7
37.67
32.36
26.97
21.63
16.34
11.03
5.51
-0.44
-6.96
-13.96
-20.94
-27.04
-31.11
-32.01
-29.05
-22.16
-12.04
0.06
12.71
24.71
35.29
44.17
51.33
56.68
60.01
61
59.56
56.12
51.64
47.34
44.12
42.13
40.53
37.85
32.65
24.07
12.35
-1.39
-15.44
-28.09
-38.02
-44.54
-47.6
-47.59
-45.21
-41.18
-36.29
-31.33
-27.17
-24.72
-24.65
-27.06
-31.21
-35.58
-38.26
-37.7
-33.26
-25.34
-15.08
-3.78
7.68
18.99
30.17
41.21
51.67
60.66
67.11
70.15
69.43
65.27
58.56
50.57
42.59
35.59
30.06
25.99
22.99
20.58
18.37
16.22
14.1
12.03
9.86
7.38
4.33
0.64
-3.56
-7.9
-11.98
-15.51
-18.52
-21.35
-24.55
-28.69
-34.15
-40.9
-48.59
-56.62
-64.27
-70.81
-75.55
-77.77
-76.92
-72.72
-65.27
-55.16
-43.3
-30.65
-17.97
-5.71
5.87
16.53
25.78
32.95
37.37
38.78
37.52
34.61
31.44
29.25
28.58
28.94
28.84
26.34
19.82
8.69
-6.27
-23.13
-39.48
-53.24
-63.27
-69.53
-72.87
-74.47
-75.47
-76.65
-78.46
-81.21
-85.31
-91.07
-98.29
-106.14
-113.35
-118.75
-121.92
-123.28
-123.73
-123.98
-124.09
-123.54
-121.72
-118.46
-114.07
-108.86
-102.45
-93.5
-80.27
-61.53
-37.44
-9.77
18.83
45.7
68.88
87.29
100.51
108.72
112.45
112.61
110.47
107.4
104.41
101.8
99.04
95.04
88.58
78.87
65.77
50.02
33.07
16.9
3.67
-4.78
-7.38
-4.22
3.32
12.9
21.83
27.94
30.17
28.86
25.37
21.37
18.13
16.03
14.64
13.04
10.2
5.36
-1.86
-11.46
-22.97
-35.41
-47.29
-56.89
-62.61
-63.3
-58.5
-48.23
-32.84
-12.7
11.69
39.6
69.93
101.13
131.42
159
182.2
199.64
210.34
213.84
210.52
201.74
189.67
176.81
165.33
156.5
150.53
146.86
144.61
143.01
141.64
140.25
138.69
136.82
134.61
132.1
129.31
125.95
121.3
114.34
104.04
89.83
71.8
50.55
26.87
1.51
-25.01
-52.15
-79.14
-105
-128.64
-149.24
-166.37
-180.12
-190.73
-198.31
-202.67
-203.37
-200.01
-192.6
-181.69
-168.22
-153.19
-137.15
-120.03
-101.37
-80.67
-57.93
-33.86
-9.86
12.2
30.53
43.86
51.74
54.56
53.33
49.25
43.3
36.14
28.28
20.3
13.12
7.88
5.48
6.15
9.2
13.21
16.61
18.26
17.78
15.55
12.29
8.69
5.06
1.4
-2.5
-6.81
-11.47
-16.28
-21.07
-25.86
-30.91
-36.43
-42.32
-47.94
-52.18
-53.9
-52.41
-47.69
-40.38
-31.41
-21.58
-11.34
-0.95
9.42
19.4
28.48
36.21
42.35
46.98
50.4
52.93
54.83
56.31
57.54
58.63
59.6
60.22
60.08
58.76
56.01
51.92
46.97
41.74
36.67
31.91
27.32
22.7
18.03
13.56
9.72
6.93
5.36
4.75
4.57
4.17
2.94
0.48
-3.33
-8.4
-14.52
-21.38
-28.65
-35.89
-42.44
-47.44
-49.94
-49.18
-44.93
-37.65
-28.36
-18.36
-8.75
-0.17
7.17
13.32
18.32
22.05
24.41
25.34
24.86
22.94
19.39
13.97
6.7
-1.92
-10.83
-18.71
-24.41
-27.37
-27.73
-26.04
-22.98
-19.07
-14.54
-9.57
-4.37
0.7
5.16
8.57
10.59
11.09
10.15
7.99
4.82
0.79
-4.04
-9.62
-15.86
-22.53
-29.34
-36.01
-42.23
-47.6
-51.58
-53.51
-52.81
-49.24
-43.12
-35.27
-26.67
-18.19
-10.25
-2.92
3.88
10.15
15.66
20.08
23.27
25.43
27.16
29.29
32.52
37.18
43.07
49.57
55.99
61.9
67.35
72.82
78.88
85.76
93.04
99.62
104.07
105.16
102.33
95.79
86.31
74.77
61.84
47.92
33.3
18.3
3.3
-11.57
-26.67
-42.88
-61.17
-81.95
-104.41
-126.49
-145.46
-158.96
-165.77
-166.12
-161.16
-152.32
-140.66
-126.74
-111.03
-94.23
-77.48
-62.17
-49.54
-40.26
-34.23
-30.74
-28.83
-27.62
-26.48
-25.13
-23.54
-21.79
-19.91
-17.76
-15.18
-12.09
-8.66
-5.2
-2.04
0.77
3.46
6.45
10.08
14.3
18.81
23.2
27.37
31.6
36.43
42.4
49.58
57.41
64.8
70.41
73.01
71.84
66.92
59.09
49.9
41.23
34.73
31.33
30.98
32.76
35.44
38
40.09
42.09
44.77
48.83
54.41
60.94
67.17
71.54
72.73
70.02
63.58
54.36
43.8
33.34
24.11
16.63
10.84
6.41
2.91
0.02
-2.35
-4.22
-5.58
-6.53
-7.33
-8.36
-9.95
-12.36
-15.61
-19.55
-23.96
-28.6
-33.26
-37.72
-41.74
-45.08
-47.6
-49.23
-50
-49.91
-48.79
-46.38
-42.44
-36.97
-30.3
-23.11
-16.16
-10.17
-5.61
-2.65
-1.15
-0.67
-0.6
-0.29
0.75
2.64
5.13
7.72
9.75
10.64
10.03
7.84
4.35
0.15
-3.89
-6.87
-8.18
-7.82
-6.43
-5.03
-4.6
-5.7
-8.26
-11.83
-15.83
-19.93
-24.15
-28.79
-34.17
-40.47
-47.62
-55.32
-63.18
-70.68
-77.25
-82.28
-85.14
-85.38
-82.83
-77.68
-70.4
-61.67
-52.07
-42.11
-32.08
-22.22
-12.76
-3.98
3.75
10.12
14.9
18.03
19.69
20.32
20.55
20.98
22.07
23.81
25.91
27.84
29.11
29.47
28.91
27.64
25.77
23.23
19.74
15.05
9.09
2.24
-4.79
-11.2
-16.46
-20.62
-24.27
-28.31
-33.52
-40.09
-47.49
-54.58
-60.03
-62.69
-61.91
-57.52
-49.77
-39.2
-26.57
-12.87
0.81
13.43
24.28
33.1
40.1
45.78
50.64
54.92
58.58
61.42
63.31
64.36
64.88
65.21
65.4
65.14
63.77
60.38
54.01
43.91
29.72
11.66
-9.45
-32.29
-55.37
-77.27
-96.93
-113.66
-127.06
-136.75
-142.16
-142.47
-136.88
-124.97
-107.1
-84.56
-59.42
-34.04
-10.48
10
27.2
41.82
55
67.78
80.59
93.08
104.13
112.04
115.01
111.6
101.29
84.7
63.69
40.92
19.26
1.11
-12.06
-19.81
-22.64
-21.56
-17.85
-12.73
-7.14
-1.81
2.9
6.73
9.56
11.27
11.76
11.02
9.26
6.88
4.5
2.84
2.51
3.87
6.94
11.36
16.51
21.7
26.46
30.72
34.84
39.27
44.31
49.75
54.91
58.94
61.21
61.44
59.72
56.32
51.53
45.66
39.16
32.67
26.92
22.47
19.43
17.38
15.57
13.25
9.97
5.73
0.84
-4.18
-8.88
-13.01
-16.55
-19.74
-23
-26.86
-31.76
-38
-45.4
-53.28
-60.48
-65.58
-67.36
-65.24
-59.49
-51.06
-41.2
-30.95
-20.81
-10.84
-0.97
8.66
17.57
25.13
30.89
34.81
37.26
38.78
39.77
40.4
40.55
40.12
39.14
37.89
36.8
36.18
36.04
35.97
35.39
33.73
30.85
27.03
22.9
19.05
15.78
13.04
10.5
7.8
4.74
1.3
-2.44
-6.43
-10.64
-14.99
-19.32
-23.37
-27.02
-30.38
-33.84
-37.93
-43.03
-49.16
-55.92
-62.38
-67.46
-70.03
-69.35
-65.14
-57.72
-47.81
-36.41
-24.52
-12.94
-2.2
7.44
15.89
23.08
28.94
33.38
36.36
38
38.54
38.34
37.71
36.81
35.6
33.93
31.85
29.57
27.49
25.93
24.95
24.19
23.11
21.26
18.58
15.47
12.51
10.07
8.07
6.02
3.3
-0.34
-4.65
-8.97
-12.66
-15.45
-17.58
-19.68
-22.33
-25.81
-30.09
-34.95
-40.2
-45.66
-50.99
-55.53
-58.34
-58.56
-55.82
-50.43
-43.32
-35.59
-28.08
-21.11
-14.53
-8.02
-1.44
5.02
10.87
15.64
18.94
20.75
21.34
21.13
20.49
19.67
18.7
17.57
16.33
15.14
14.2
13.58
13.14
12.49
11.24
9.16
6.29
2.93
-0.57
-3.98
-7.31
-10.7
-14.3
-18.15
-22.21
-26.34
-30.43
-34.41
-38.34
-42.32
-46.49
-50.95
-55.72
-60.54
-64.94
-68.14
-69.31
-67.74
-63.12
-55.73
-46.34
-36.04
-25.85
-16.47
-8.11
-0.61
6.28
12.66
18.39
23.12
26.58
28.74
29.85
30.31
30.49
30.55
30.44
30
29.15
27.88
26.25
24.29
22
19.27
16.06
12.37
8.22
3.63
-1.4
-6.83
-12.48
-18.15
-23.68
-29.04
-34.46
-40.3
-46.98
-54.74
-63.59
-73.23
-83.15
-92.69
-101.12
-107.82
-112.38
-114.7
-115.04
-113.89
-111.82
-109.25
-106.32
-102.9
-98.74
-93.7
-87.9
-81.83
-76.2
-71.76
-69.11
-68.58
-70.17
-73.68
-78.76
-84.93
-91.62
-98.14
-103.77
-107.77
-109.5
-108.5
-104.54
-97.61
-88.04
-76.5
-63.95
-51.55
-40.26
-30.45
-21.66
-12.77
-2.51
9.86
24.17
39.61
55.37
71.32
88.13
106.72
127.4
149.27
170.36
188.42
201.88
210.29
214.19
214.46
211.84
206.78
199.67
191.02
181.22
170.28
157.64
142.51
124.43
103.99
82.82
63.06
46.63
34.53
26.77
22.62
21.21
21.74
23.61
26.19
28.66
30.08
29.53
26.45
20.74
12.79
3.22
-7.35
-18.53
-30.2
-42.35
-54.79
-66.93
-77.74
-85.96
-90.45
-90.53
-86.15
-77.85
-66.49
-52.96
-38.04
-22.14
-5.4
12.29
31
50.53
70.19
88.77
104.85
117.2
125.27
129.33
130.41
129.94
129.26
129.32
130.43
132.33
134.41
135.92
136.11
134.4
130.3
123.46
113.71
101.22
86.67
71.32
56.67
43.9
33.42
24.65
16.33
7.28
-2.95
-13.72
-23.61
-31.12
-35.38
-36.43
-35.07
-32.36
-29.12
-25.83
-22.66
-19.65
-16.94
-14.73
-13.27
-12.81
-13.56
-15.68
-19.23
-24.03
-29.7
-35.51
-40.61
-44.24
-45.95
-45.72
-43.91
-41.15
-38.02
-35.09
-32.78
-31.43
-31.27
-32.51
-35.17
-39.09
-43.86
-48.97
-53.97
-58.56
-62.55
-65.76
-67.9
-68.57
-67.42
-64.27
-59.26
-52.87
-45.66
-38.19
-30.85
-23.79
-17.08
-10.69
-4.63
1.03
6.14
10.46
13.72
15.57
15.88
14.77
12.75
10.57
9.01
8.56
9.31
10.84
12.46
13.52
13.57
12.58
10.81
8.67
6.54
4.61
2.82
0.94
-1.32
-4.34
-8.39
-13.73
-20.62
-29.29
-39.9
-52.26
-65.81
-79.51
-92.26
-103.29
-112.35
-119.68
-125.31
-128.53
-127.91
-122.06
-110.92
-96.47
-82.23
-71.65
-66.08
-64.03
-61.93
-56.32
-45.82
-31.75
-16.89
-3.42
8.5
20.5
34.59
51.27
68.98
84.9
96.66
103.68
107.15
109.06
110.71
111.99
111.67
108.45
102.03
93.43
84.55
77.23
72.42
69.85
68.32
66.48
63.48
59.3
54.58
50.13
46.36
43.03
39.3
33.89
25.58
13.41
-2.91
-22.71
-44.18
-64.47
-80.18
-88.29
-87.18
-77.14
-60.46
-40.55
-20.96
-4.41
7.79
15.6
20.02
22.46
24.22
26.03
27.86
29.08
28.83
26.75
23.32
19.81
17.76
18.19
21.09
25.47
29.82
32.66
32.87
29.84
23.32
13.49
1
-12.88
-26.46
-38.08
-46.67
-52.11
-55.13
-56.73
-57.66
-58.09
-57.81
-56.59
-54.6
-52.42
-50.76
-50.12
-50.63
-52.02
-53.88
-55.71
-57.02
-57.26
-55.81
-52.08
-45.68
-36.64
-25.36
-12.5
1.14
14.85
27.93
39.79
49.94
58.15
64.42
68.96
72
73.75
74.31
73.8
72.54
70.98
69.61
68.71
68.24
67.81
66.94
65.29
62.72
59.3
55.09
50.03
43.84
36.29
27.24
16.78
5.26
-6.93
-19.3
-31.38
-42.69
-52.78
-61.19
-67.66
-72.29
-75.44
-77.71
-79.56
-81.1
-81.86
-80.98
-77.49
-70.76
-60.8
-48.36
-34.72
-21.29
-9.21
0.95
9.28
16.28
22.63
28.73
34.62
39.96
44.21
46.96
48.18
48.2
47.59
46.9
46.42
46.14
45.85
45.37
44.65
43.89
43.31
43.03
42.91
42.49
41.19
38.6
34.63
29.6
24.08
18.63
13.49
8.61
3.68
-1.65
-7.61
-14.24
-21.37
-28.67
-35.66
-41.77
-46.36
-48.89
-49.04
-46.87
-42.84
-37.67
-32.16
-26.91
-22.2
-17.92
-13.72
-9.22
-4.21
1.17
6.57
11.57
15.94
19.69
23.07
26.35
29.63
32.77
35.47
37.37
38.22
37.93
36.56
34.3
31.38
28.04
24.46
20.77
16.99
13.03
8.72
3.87
-1.72
-8.19
-15.49
-23.3
-30.93
-37.45
-41.85
-43.4
-41.8
-37.34
-30.71
-22.82
-14.51
-6.42
1.05
7.69
13.45
18.39
22.6
26.2
29.18
31.44
32.74
32.88
31.82
29.76
27.12
24.44
22.17
20.59
19.7
19.31
19.05
18.58
17.63
16.06
13.88
11.14
7.95
4.41
0.67
-3.14
-6.83
-10.3
-13.57
-16.79
-20.19
-24.04
-28.43
-33.33
-38.54
-43.79
-48.67
-52.68
-55.17
-55.5
-53.23
-48.3
-41.1
-32.43
-23.21
-14.23
-5.93
1.61
8.48
14.77
20.47
25.45
29.59
32.75
34.9
36.12
36.56
36.46
36.19
36.06
36.28
36.88
37.69
38.4
38.74
38.49
37.61
36.16
34.3
32.16
29.89
27.55
25.16
22.66
19.97
17.08
14
10.77
7.37
3.78
-0.02
-4.03
-8.15
-12.25
-16.14
-19.63
-22.5
-24.43
-25.05
-24.04
-21.31
-17.11
-12.04
-6.81
-2.05
1.97
5.31
8.31
11.34
14.57
17.9
20.87
22.9
23.35
21.79
18.18
12.9
6.74
0.65
-4.44
-7.93
-9.66
-9.85
-8.99
-7.67
-6.46
-5.75
-5.68
-6.16
-6.9
-7.52
-7.69
-7.27
-6.29
-4.91
-3.33
-1.73
-0.27
0.79
1.15
0.51
-1.28
-4.14
-7.73
-11.48
-14.7
-16.74
-17.13
-15.64
-12.34
-7.65
-2.2
3.38
8.61
13.37
17.74
21.88
25.86
29.52
32.54
34.58
35.53
35.51
34.9
34.13
33.52
33.18
32.93
32.42
31.36
29.65
27.39
24.84
22.23
19.6
16.86
13.76
10.12
5.94
1.36
-3.49
-8.48
-13.63
-18.97
-24.48
-30.02
-35.32
-40.16
-44.47
-48.39
-52.1
-55.66
-58.8
-60.99
-61.6
-60.11
-56.42
-50.87
-44.13
-36.97
-30.01
-23.63
-17.93
-12.92
-8.52
-4.72
-1.59
0.85
2.55
3.58
4.04
4.06
3.8
3.39
3.01
2.76
2.73
2.9
3.15
3.23
2.94
2.17
0.98
-0.41
-1.78
-2.99
-4.05
-5.03
-6.05
-7.14
-8.32
-9.58
-11.03
-12.8
-15.02
-17.85
-21.28
-25.26
-29.58
-33.91
-37.75
-40.48
-41.51
-40.47
-37.42
-32.85
-27.53
-22.28
-17.66
-13.83
-10.57
-7.47
-4.16
-0.58
3.08
6.47
9.29
11.43
13.01
14.23
15.27
16.21
17.1
17.96
18.77
19.4
19.6
18.99
17.33
14.67
11.51
8.67
6.92
6.67
7.74
9.49
11.17
12.26
12.75
13.12
14.14
16.48
20.27
24.98
29.46
32.28
32.3
29.1
23.13
15.61
8.09
1.98
-1.88
-3.31
-2.79
-1.11
0.86
2.42
3.16
2.91
1.67
-0.56
-3.76
-7.94
-13
-18.65
-24.5
-30.04
-34.94
-38.96
-42.01
-44.01
-44.94
-44.74
-43.43
-41.19
-38.3
-35.14
-32.01
-29.04
-26.14
-23.03
-19.42
-15.15
-10.31
-5.2
-0.21
4.32
8.25
11.58
14.26
16.17
17.01
16.51
14.68
11.98
9.21
7.21
6.47
7.05
8.53
10.36
12.07
13.38
14.22
14.54
14.24
13.19
11.31
8.61
5.18
1.07
-3.8
-9.59
-16.36
-23.9
-31.72
-39.16
-45.58
-50.62
-54.19
-56.4
-57.45
-57.47
-56.56
-54.82
-52.43
-49.72
-47.04
-44.68
-42.74
-41.14
-39.66
-38.11
-36.43
-34.78
-33.45
-32.73
-32.79
-33.65
-35.11
-36.94
-38.79
-40.29
-40.91
-40.1
-37.29
-32.18
-24.84
-15.71
-5.52
5.01
15.25
24.82
33.51
41.28
48.22
54.43
60.02
64.94
68.99
71.87
73.36
73.46
72.41
70.64
68.54
66.42
64.45
62.72
61.35
60.42
59.89
59.41
58.44
56.29
52.47
46.85
39.76
31.86
23.89
16.46
9.91
4.26
-0.8
-5.73
-10.97
-16.69
-22.62
-28.1
-32.28
-34.4
-34.09
-31.47
-27.08
-21.62
-15.76
-9.94
-4.35
0.94
5.9
10.48
14.57
18.05
20.71
22.41
23.09
22.85
21.98
20.86
19.82
19.05
18.5
17.97
17.21
16.06
14.58
13.07
11.94
11.52
11.98
13.09
14.4
15.39
15.68
15.19
14.09
12.65
11.11
9.67
8.53
8.06
8.76
11.06
15.1
20.56
26.72
32.78
38.12
42.6
46.39
49.79
52.94
55.68
57.64
58.4
57.7
55.61
52.52
48.94
45.39
42.17
39.28
36.52
33.58
30.17
26.12
21.29
15.55
8.84
1.19
-7.12
-15.57
-23.46
-30.15
-35.31
-38.96
-41.48
-43.35
-44.96
-46.54
-48.09
-49.44
-50.2
-49.94
-48.13
-44.39
-38.65
-31.24
-22.83
-14.16
-5.79
2.03
9.39
16.49
23.48
30.3
36.71
42.33
46.84
49.94
51.52
51.56
50.26
47.88
44.78
41.33
37.8
34.4
31.2
28.15
25.15
22.02
18.6
14.87
10.94
7.07
3.52
0.38
-2.46
-5.3
-8.43
-12.03
-15.97
-19.91
-23.54
-26.68
-29.49
-32.39
-35.91
-40.29
-45.31
-50.21
-53.94
-55.49
-54.33
-50.59
-44.95
-38.4
-31.83
-25.83
-20.56
-16.03
-12.12
-8.79
-5.98
-3.63
-1.7
-0.17
0.89
1.38
1.3
0.82
0.26
-0
0.3
1.2
2.52
4.03
5.61
7.33
9.3
11.5
13.61
15.16
15.69
15
13.27
10.86
8.17
5.37
2.29
-1.45
-6.27
-12.39
-19.7
-27.78
-36.01
-43.79
-50.7
-56.39
-60.58
-62.89
-62.89
-60.32
-55.33
-48.61
-41.3
-34.54
-29.07
-24.91
-21.47
-18
-14.04
-9.73
-5.66
-2.53
-0.69
0.01
0.11
0.26
0.79
1.74
2.87
3.9
4.67
5.22
5.6
5.76
5.52
4.65
2.98
0.57
-2.3
-5.23
-7.79
-9.65
-10.64
-10.8
-10.31
-9.5
-8.71
-8.19
-8.06
-8.27
-8.67
-9.16
-9.73
-10.46
-11.41
-12.55
-13.58
-13.96
-13.08
-10.49
-6.12
-0.46
5.64
11.23
15.63
18.66
20.66
22.22
23.82
25.63
27.47
28.98
29.85
30.03
29.7
29.18
28.7
28.34
27.95
27.3
26.29
24.93
23.43
22.03
20.85
19.82
18.74
17.35
15.49
13.13
10.41
7.5
4.46
1.25
-2.25
-6.1
-10.21
-14.37
-18.33
-21.96
-25.32
-28.52
-31.69
-34.72
-37.28
-38.9
-39.1
-37.62
-34.5
-30.09
-24.87
-19.38
-14
-8.98
-4.47
-0.57
2.58
4.8
5.92
5.92
5.02
3.71
2.62
2.33
3.2
5.19
7.93
10.84
13.37
15.16
16.19
16.64
16.87
17.19
17.81
18.73
19.79
20.67
21.02
20.58
19.3
17.37
15.16
13.09
11.41
10.13
8.98
7.55
5.47
2.53
-1.22
-5.47
-9.74
-13.33
-15.57
-15.94
-14.26
-10.81
-6.32
-1.77
1.96
4.28
5.2
5.16
4.87
4.92
5.59
6.77
8.1
9.24
10.05
10.7
11.52
12.75
14.3
15.78
16.72
16.79
16.11
15.12
14.35
14.09
14.14
13.98
13.02
10.97
7.95
4.47
1.13
-1.7
-4.01
-6.16
-8.65
-11.86
-15.94
-20.8
-26.25
-32.14
-38.32
-44.5
-50.11
-54.36
-56.47
-56.08
-53.43
-49.33
-44.81
-40.62
-36.96
-33.49
-29.7
-25.26
-20.3
-15.34
-11.03
-7.78
-5.57
-4.02
-2.61
-1.01
0.71
2.18
2.97
2.92
2.44
2.28
3.26
5.81
9.75
14.44
19.08
23.1
26.39
29.17
31.83
34.64
37.68
40.77
43.59
45.78
47
46.95
45.42
42.38
38.03
32.95
27.94
23.92
21.62
21.38
23.05
26.1
29.86
33.68
37.07
39.52
40.48
39.39
35.85
29.86
21.87
12.73
3.25
-6.01
-15.01
-24.02
-33.43
-43.46
-53.99
-64.61
-74.64
-83.32
-89.86
-93.72
-94.79
-93.61
-91.29
-89.22
-88.43
-89.12
-90.39
-90.62
-88.19
-82.31
-73.44
-63.1
-53.13
-44.92
-38.96
-34.82
-31.71
-28.89
-26.04
-23.04
-19.82
-16.01
-11.22
-5.17
1.94
9.38
16.22
21.72
25.63
28.29
30.31
32.14
33.78
34.85
34.89
33.76
31.79
29.67
28.08
27.31
27.14
27
26.33
24.9
22.95
20.99
19.46
18.42
17.56
16.42
14.68
12.4
9.93
7.66
5.71
3.8
1.43
-1.82
-5.93
-10.42
-14.65
-18.21
-21.11
-23.75
-26.52
-29.44
-32.01
-33.4
-32.87
-30.12
-25.44
-19.53
-13.21
-7.07
-1.36
3.96
9.07
14.11
18.99
23.4
26.91
29.12
29.83
29.19
27.65
25.84
24.3
23.3
22.73
22.27
21.54
20.34
18.74
16.98
15.36
14.01
12.88
11.79
10.5
8.84
6.84
4.67
2.58
0.82
-0.49
-1.43
-2.28
-3.43
-5.16
-7.57
-10.54
-13.83
-17.18
-20.39
-23.24
-25.41
-26.47
-25.93
-23.41
-18.9
-12.77
-5.72
1.38
7.84
13.25
17.53
20.88
23.57
25.85
27.77
29.29
30.21
30.43
29.97
29.07
28.04
27.19
26.64
26.36
26.17
25.93
25.52
24.9
24.04
22.9
21.46
19.75
17.85
15.89
13.97
12.09
10.17
8.1
5.88
3.6
1.4
-0.61
-2.49
-4.43
-6.67
-9.39
-12.54
-15.91
-19.02
-21.31
-22.28
-21.55
-19.08
-15.11
-10.13
-4.68
0.75
5.84
10.46
14.54
18.05
20.91
23.02
24.36
25.04
25.29
25.36
25.46
25.65
25.85
25.94
25.8
25.4
24.79
24.07
23.33
22.66
22.04
21.46
20.79
19.97
18.9
17.57
16.09
14.63
13.37
12.4
11.67
11.05
10.34
9.41
8.27
7.05
5.96
5.09
4.35
3.43
1.94
-0.32
-3.23
-6.33
-8.97
-10.58
-10.98
-10.37
-9.21
-7.94
-6.8
-5.78
-4.81
-3.92
-3.29
-3.13
-3.45
-4.1
-4.78
-5.26
-5.54
-5.76
-6.08
-6.54
-6.97
-7.13
-6.94
-6.54
-6.27
-6.39
-6.96
-7.74
-8.33
-8.38
-7.76
-6.54
-4.86
-2.87
-0.7
1.49
3.47
5
5.87
6.09
5.79
5.24
4.64
4.08
3.53
2.98
2.41
1.9
1.44
0.95
0.35
-0.35
-0.88
-0.72
0.71
3.8
8.48
14.25
20.35
26.08
31.08
35.39
39.29
43.01
46.57
49.67
51.81
52.46
51.27
48.11
43.13
36.83
29.9
23.23
17.56
13.25
10.07
7.22
3.74
-1.03
-7.04
-13.54
-19.25
-22.97
-23.91
-22.01
-17.85
-12.48
-7.06
-2.65
0.04
0.74
-0.37
-2.81
-5.98
-9.43
-12.9
-16.36
-19.82
-23.12
-25.93
-27.76
-28.21
-27.17
-24.95
-22.12
-19.39
-17.26
-15.81
-14.84
-13.91
-12.8
-11.63
-10.92
-11.31
-13.23
-16.63
-20.87
-25.13
-28.57
-30.76
-31.52
-30.84
-28.65
-24.9
-19.68
-13.56
-7.58
-2.99
-0.74
-0.99
-2.97
-5.36
-6.91
-7.09
-6.33
-5.83
-6.93
-10.51
-16.54
-24.16
-32.01
-38.82
-43.8
-46.85
-48.45
-49.34
-50.36
-52.2
-55.36
-60.09
-66.25
-73.35
-80.46
-86.47
-90.33
-91.34
-89.27
-84.2
-76.35
-65.93
-53.12
-38.35
-22.41
-6.38
8.69
22.25
34.57
46.6
59.54
74.26
90.82
108.47
125.97
142.11
155.98
167.2
175.76
181.89
186.04
188.66
189.91
189.12
184.5
173.38
153.41
123.89
86.78
46.47
8.43
-22.76
-44.84
-58.18
-64.81
-67.09
-66.68
-64.37
-60.66
-56.44
-53.08
-52.12
-54.52
-60.15
-67.75
-75.49
-81.59
-84.96
-85.42
-83.6
-80.51
-77.14
-74.04
-71.25
-68.48
-65.36
-61.8
-58.02
-54.46
-51.5
-49.29
-47.73
-46.57
-45.63
-44.88
-44.37
-44.12
-43.93
-43.33
-41.77
-38.75
-34.18
-28.31
-21.67
-14.84
-8.26
-2.17
3.37
8.27
12.48
15.81
18.1
19.28
19.43
18.8
17.7
16.4
15.08
13.89
12.91
12.26
11.97
11.96
12.02
11.85
11.18
9.97
8.34
6.55
4.87
3.38
2.03
0.61
-1.15
-3.43
-6.35
-9.82
-13.51
-16.85
-19.1
-19.64
-18.11
-14.67
-9.89
-4.58
0.53
4.97
8.66
11.74
14.38
16.63
18.43
19.7
20.38
20.53
20.33
19.95
19.53
19.15
18.78
18.35
17.76
16.87
15.63
14.04
12.18
10.19
8.2
6.29
4.53
2.85
1.2
-0.52
-2.45
-4.69
-7.45
-10.85
-14.89
-19.26
-23.36
-26.31
-27.28
-25.74
-21.78
-16.13
-9.89
-4.16
0.42
3.85
6.59
9.29
12.23
15.3
17.99
19.78
20.36
19.89
18.78
17.58
16.66
16.13
15.94
15.9
15.85
15.67
15.26
14.6
13.67
12.52
11.16
9.63
7.87
5.83
3.52
0.99
-1.67
-4.47
-7.51
-10.94
-14.7
-18.41
-21.34
-22.61
-21.64
-18.4
-13.47
-7.78
-2.26
2.58
6.63
10.14
13.36
16.37
19.11
21.45
23.3
24.65
25.52
25.83
25.43
24.3
22.58
20.64
18.95
17.84
17.27
16.9
16.2
14.79
12.63
10.06
7.54
5.45
3.91
2.65
1.3
-0.48
-2.91
-5.93
-9.36
-12.82
-15.86
-17.95
-18.62
-17.57
-14.85
-10.82
-6.15
-1.61
2.26
5.26
7.58
9.58
11.55
13.55
15.35
16.58
16.98
16.5
15.34
13.82
12.23
10.75
9.44
8.33
7.49
6.96
6.73
6.72
6.72
6.46
5.73
4.45
2.71
0.71
-1.41
-3.57
-5.8
-8.16
-10.6
-12.83
-14.42
-14.84
-13.76
-11.2
-7.54
-3.35
0.77
4.48
7.7
10.56
13.23
15.79
18.18
20.26
21.96
23.24
24.25
25.07
25.74
26.16
26.21
25.85
25.2
24.47
23.83
23.27
22.58
21.42
19.56
16.97
13.91
10.8
8.06
5.89
4.21
2.71
1
-1.12
-3.57
-5.97
-7.82
-8.81
-8.92
-8.5
-8.04
-7.86
-7.98
-8.05
-7.63
-6.35
-4.16
-1.2
2.26
6.01
9.95
14
18.08
22.04
25.76
29.27
32.82
36.76
41.37
46.57
51.8
56.17
58.82
59.32
57.99
55.81
54
53.34
53.71
54
52.53
47.74
38.88
26.19
10.76
-6.02
-22.89
-38.99
-53.79
-66.84
-77.71
-86.12
-92.13
-96.31
-99.56
-102.74
-106.31
-110.14
-113.59
-115.8
-115.89
-113.2
-107.39
-98.53
-87.17
-74.32
-61.3
-49.51
-39.88
-32.76
-27.74
-23.97
-20.46
-16.57
-12.03
-7.02
-1.85
3.18
7.93
12.38
16.51
20.24
23.35
25.68
27.25
28.39
29.54
31.12
33.26
35.67
37.84
39.26
39.65
39.02
37.62
35.66
33.14
29.97
26.15
22.01
18.34
16.13
16.2
18.73
23.15
28.37
33.3
37.31
40.46
43.27
46.23
49.34
52.03
53.32
52.37
48.82
42.79
34.62
24.51
12.35
-1.98
-18.21
-35.28
-51.47
-64.96
-74.72
-80.93
-84.96
-88.46
-92.49
-96.72
-99.59
-99.16
-94.22
-85
-73.16
-61.03
-50.6
-42.77
-37.32
-33.38
-30.21
-27.61
-25.9
-25.42
-26.04
-26.98
-27.05
-25.31
-21.52
-16.37
-11.12
-6.94
-4.45
-3.37
-2.76
-1.59
0.86
4.68
9.36
14.07
18.08
20.86
22.28
22.56
22.11
21.41
20.84
20.59
20.64
20.81
20.87
20.58
19.82
18.48
16.49
13.86
10.7
7.19
3.65
0.3
-2.7
-5.38
-7.81
-10.04
-12.03
-13.75
-15.28
-16.73
-18.28
-19.9
-21.26
-21.85
-21.18
-19.07
-15.73
-11.76
-7.8
-4.3
-1.36
1.2
3.69
6.32
9.16
12.12
15
17.61
19.67
20.95
21.27
20.64
19.21
17.23
14.96
12.51
9.92
7.23
4.65
2.57
1.49
1.7
3.11
5.14
7.07
8.35
8.83
8.88
8.98
9.39
9.88
9.91
9.01
7.19
5.1
3.69
3.8
5.58
8.54
11.78
14.57
16.6
18.05
19.29
20.54
21.74
22.62
22.99
22.9
22.56
22.25
22.09
21.97
21.7
21.2
20.5
19.69
18.78
17.5
15.47
12.33
7.94
2.44
-3.79
-10.29
-16.64
-22.4
-27.15
-30.5
-32.27
-32.6
-32.07
-31.44
-31.28
-31.72
-32.23
-32
-30.18
-26.4
-20.71
-13.63
-5.76
