4.15
8.02
11.14
13.39
14.86
15.79
16.46
17.07
17.67
18.17
18.47
18.63
18.76
19.01
19.48
20.02
20.33
20.15
19.33
17.98
16.36
14.7
13.1
11.52
9.82
7.92
5.79
3.44
0.86
-1.95
-4.95
-7.98
-10.73
-12.98
-14.71
-16.24
-18.14
-20.94
-24.92
-29.94
-35.41
-40.46
-44.16
-45.74
-44.77
-41.26
-35.63
-28.56
-20.89
-13.33
-6.4
-0.36
4.69
8.71
11.71
13.79
15.14
16.08
16.87
17.69
18.51
19.23
19.75
20.06
20.27
20.5
20.81
21.15
21.42
21.54
21.48
21.2
20.6
19.51
17.76
15.27
12.14
8.6
4.91
1.28
-2.15
-5.35
-8.25
-10.84
-13.14
-15.32
-17.66
-20.49
-24.03
-28.23
-32.69
-36.68
-39.35
-39.97
-38.14
-33.9
-27.76
-20.42
-12.65
-5.07
1.86
7.82
12.52
15.77
17.47
17.83
17.33
16.64
16.4
16.94
18.15
19.51
20.41
20.42
19.55
18.22
17.02
16.34
16.16
16.01
15.25
13.37
10.28
6.3
2.01
-2.05
-5.51
-8.32
-10.62
-12.73
-15.07
-18
-21.78
-26.33
-31.15
-35.37
-37.95
-38.1
-35.43
-30.16
-22.92
-14.6
-6.09
1.86
8.77
14.38
18.71
21.92
24.28
26.02
27.3
28.19
28.73
28.97
29.06
29.14
29.31
29.56
29.76
29.74
29.38
28.65
27.6
26.27
24.73
22.9
20.68
17.97
14.75
11.1
7.3
3.66
0.44
-2.29
-4.67
-7.01
-9.64
-12.88
-16.88
-21.68
-27.25
-33.44
-39.93
-46.25
-51.66
-55.33
-56.48
-54.64
-49.81
-42.49
-33.56
-23.96
-14.52
-5.75
2.16
9.2
15.43
20.85
25.35
28.83
31.26
32.69
33.32
33.41
33.23
32.98
32.79
32.72
32.71
32.63
32.34
31.79
30.93
29.79
28.4
26.81
25.04
23.12
21.06
18.85
16.46
13.75
10.57
6.77
2.32
-2.57
-7.55
-12.15
-16.04
-19.14
-21.72
-24.34
-27.61
-32
-37.44
-43.34
-48.55
-51.85
-52.26
-49.4
-43.64
-35.81
-27.01
-18.08
-9.61
-1.76
5.41
11.79
17.19
21.42
24.45
26.49
27.94
29.19
30.45
31.72
32.79
33.55
33.93
34.02
33.9
33.59
33.01
32.08
30.86
29.48
28.18
26.96
25.67
24.01
21.72
18.8
15.47
12.12
9.03
6.31
3.81
1.33
-1.31
-4.1
-6.99
-9.86
-12.72
-15.67
-18.86
-22.42
-26.38
-30.73
-35.44
-40.41
-45.4
-49.88
-53.1
-54.2
-52.59
-48.19
-41.46
-33.33
-24.72
-16.3
-8.37
-0.97
5.88
11.97
17
20.69
23.01
24.29
25.01
25.64
26.36
27.03
27.36
27.08
26.18
24.91
23.72
22.94
22.64
22.66
22.67
22.38
21.67
20.54
19.04
17.17
14.9
12.26
9.43
6.64
4.08
1.81
-0.34
-2.6
-5.1
-7.8
-10.52
-13.03
-15.31
-17.53
-19.99
-23
-26.71
-31.04
-35.65
-40.08
-43.73
-46.07
-46.62
-45.1
-41.47
-36
-29.17
-21.63
-14
-6.78
-0.27
5.42
10.29
14.32
17.45
19.6
20.81
21.24
21.27
21.26
21.55
22.21
23.13
24.03
24.68
24.91
24.65
23.87
22.55
20.66
18.33
15.76
13.23
10.89
8.74
6.61
4.36
1.88
-0.71
-3.25
-5.63
-7.88
-10.16
-12.63
-15.45
-18.61
-22.05
-25.65
-29.25
-32.62
-35.37
-37.04
-37.16
-35.47
-31.93
-26.79
-20.51
-13.65
-6.78
-0.42
5.03
9.28
12.23
13.93
14.58
14.49
14.05
13.65
13.59
14
14.79
15.66
16.25
16.27
15.69
14.73
13.72
12.91
12.33
11.71
10.73
9.11
6.84
4.09
1.12
-1.87
-4.83
-7.79
-10.8
-13.89
-17.1
-20.49
-24.14
-27.93
-31.48
-34.12
-35.04
-33.63
-29.74
-23.85
-16.81
-9.52
-2.6
3.72
9.48
14.7
19.19
22.55
24.43
24.82
24.13
23.05
22.28
22.17
22.62
23.26
23.62
23.5
22.93
22.11
21.2
20.23
19.09
17.63
15.81
13.66
11.37
9.02
6.66
4.21
1.54
-1.38
-4.48
-7.51
-10.27
-12.69
-15.03
-17.77
-21.41
-26.1
-31.59
-37.13
-41.73
-44.58
-45.15
-43.38
-39.56
-34.18
-27.82
-21.01
-14.21
-7.77
-1.83
3.61
8.61
13.2
17.34
20.93
23.89
26.11
27.63
28.44
28.66
28.4
27.85
27.28
26.9
26.84
27.05
27.37
27.49
27.13
26
23.95
21.05
17.57
14
10.76
8.08
5.81
3.57
0.96
-2.15
-5.57
-8.89
-11.78
-14.17
-16.33
-18.7
-21.66
-25.42
-29.97
-35.09
-40.44
-45.43
-49.39
-51.52
-51.16
-48.05
-42.38
-34.8
-26.22
-17.52
-9.36
-2.03
4.41
10.02
14.83
18.74
21.6
23.38
24.26
24.69
25.21
26.14
27.46
28.81
29.72
29.91
29.45
28.67
27.93
27.38
26.86
26.07
24.78
23.01
20.99
18.97
16.99
14.88
12.32
9.1
5.29
1.21
-2.69
-6.09
-8.91
-11.32
-13.58
-15.95
-18.63
-21.71
-25.25
-29.24
-33.56
-37.85
-41.53
-43.86
-44.11
-41.79
-36.81
-29.55
-20.73
-11.26
-1.97
6.4
13.39
18.7
22.24
24.12
24.56
23.9
22.56
20.92
19.3
17.88
16.75
15.92
15.44
15.32
15.59
16.17
16.85
17.31
17.24
16.47
15.02
13.07
10.87
8.61
6.35
4.07
1.72
-0.71
-3.18
-5.67
-8.2
-10.82
-13.57
-16.47
-19.6
-23.04
-26.89
-31.17
-35.7
-40.04
-43.57
-45.7
-46.04
-44.51
-41.32
-36.8
-31.24
-24.9
-18.03
-10.98
-4.21
1.77
6.57
10.06
12.38
13.87
14.94
15.86
16.8
17.77
18.73
19.62
20.35
20.81
20.87
20.47
19.62
18.5
17.23
15.84
14.16
11.94
9
5.42
1.57
-2.04
-4.95
-7.05
-8.51
-9.74
-11.21
-13.22
-15.94
-19.41
-23.59
-28.27
-33.03
-37.22
-40.07
-40.9
-39.37
-35.54
-29.86
-23.01
-15.76
-8.76
-2.45
2.87
7.08
10.12
12.06
13.03
13.28
13.17
13.03
13.13
13.57
14.24
14.93
15.43
15.59
15.4
14.88
14.06
12.89
11.37
9.55
7.53
5.47
3.44
1.44
-0.61
-2.78
-5.18
-7.91
-11.04
-14.62
-18.62
-22.87
-27.01
-30.56
-33.02
-34.02
-33.35
-30.99
-27.07
-21.8
-15.51
-8.59
-1.55
5.1
10.83
15.19
17.91
18.94
18.57
17.34
15.91
14.88
14.58
15
15.78
16.5
16.82
16.69
16.26
15.74
15.19
14.47
13.23
11.22
8.36
4.84
1.09
-2.46
-5.54
-8.15
-10.55
-13.13
-16.22
-19.95
-24.23
-28.69
-32.79
-35.83
-37.15
-36.23
-32.9
-27.38
-20.3
-12.42
-4.53
2.79
9.2
14.52
18.65
21.55
23.3
24.17
24.53
24.76
25.04
25.28
25.26
24.83
24.07
23.25
22.73
22.61
22.69
22.55
21.67
19.77
16.87
13.3
9.52
6
3.03
0.65
-1.31
-3.17
-5.29
-7.95
-11.37
-15.67
-20.91
-26.96
-33.38
-39.3
-43.6
-45.2
-43.53
-38.73
-31.57
-23.19
-14.57
-6.34
1.25
8.08
14.01
18.83
22.37
24.7
26.13
27.09
27.89
28.59
29.07
29.15
28.78
28.08
27.29
26.57
25.95
25.26
24.3
22.96
21.28
19.4
17.42
15.31
12.94
10.17
7.02
3.72
0.59
-2.17
-4.63
-7.18
-10.35
-14.53
-19.73
-25.63
-31.7
-37.45
-42.54
-46.7
-49.57
-50.72
-49.67
-46.1
-40.05
-32
-22.69
-13.01
-3.74
4.53
11.42
16.76
20.6
23.19
24.93
26.19
27.23
28.16
28.99
29.71
30.36
31.01
31.74
32.52
33.26
33.79
33.96
33.63
32.76
31.34
29.35
26.87
23.96
20.79
17.52
14.29
11.11
7.93
4.62
1.12
-2.49
-6.1
-9.56
-12.82
-16
-19.33
-23.07
-27.38
-32.28
-37.54
-42.73
-47.26
-50.45
-51.72
-50.7
-47.37
-42.02
-35.24
-27.65
-19.75
-11.92
-4.35
2.77
9.23
14.77
19.2
22.44
24.58
25.86
26.59
27.03
27.36
27.67
27.94
28.07
27.92
27.35
26.31
24.86
23.2
21.54
20.09
18.82
17.53
15.86
13.54
10.54
7.11
3.74
0.77
-1.7
-3.91
-6.28
-9.11
-12.48
-16.15
-19.87
-23.45
-26.9
-30.24
-33.3
-35.57
-36.32
-34.88
-30.92
-24.72
-16.98
-8.66
-0.67
6.41
12.26
16.84
20.2
22.43
23.61
23.85
23.33
22.31
21.13
20.03
19.2
18.68
18.42
18.28
18.14
17.87
17.35
16.55
15.45
14.13
12.64
11
9.12
6.89
4.25
1.23
-1.96
-5.1
-8.07
-10.92
-13.86
-17.09
-20.61
-24.12
-27.05
-28.78
-28.87
-27.21
-24.01
-19.72
-14.73
-9.4
-3.9
1.62
6.93
11.68
15.42
17.76
18.49
17.73
15.86
13.5
11.27
9.68
9.01
9.26
10.18
11.39
12.52
13.31
13.62
13.49
12.98
12.18
11.09
9.64
7.75
5.41
2.67
-0.27
-3.17
-5.86
-8.23
-10.3
-12.19
-14.04
-16.04
-18.45
-21.5
-25.27
-29.53
-33.6
-36.52
-37.36
-35.55
-31.21
-25.03
-17.95
-10.81
-4.12
1.89
7.16
11.55
14.87
16.98
17.91
17.95
17.53
17.03
16.65
16.38
16.02
15.43
14.53
13.49
12.63
12.18
12.22
12.48
12.5
11.84
10.29
8.01
5.42
2.94
0.81
-0.96
-2.56
-4.19
-6.05
-8.28
-11.04
-14.41
-18.21
-22.01
-25.02
-26.5
-25.91
-23.23
-18.84
-13.38
-7.46
-1.59
3.9
8.75
12.71
15.57
17.23
17.79
17.55
16.88
16.18
15.75
15.67
15.84
16.09
16.22
16.15
15.87
15.46
14.92
14.14
12.97
11.23
8.87
6.03
2.98
0.06
-2.48
-4.53
-6.23
-7.86
-9.8
-12.35
-15.66
-19.56
-23.64
-27.29
-29.86
-30.85
-30.05
-27.52
-23.59
-18.67
-13.2
-7.48
-1.78
3.64
8.51
12.53
15.5
17.36
18.25
18.44
18.23
17.86
17.49
17.15
16.85
16.52
16.07
15.43
14.56
13.56
12.56
11.71
11.05
10.43
9.61
8.34
6.54
4.34
1.94
-0.42
-2.65
-4.77
-6.96
-9.38
-12.17
-15.39
-18.9
-22.42
-25.51
-27.68
-28.47
-27.49
-24.55
-19.78
-13.54
-6.44
0.86
7.75
13.79
18.6
22
23.86
24.23
23.32
21.47
19.11
16.62
14.23
11.98
9.87
7.93
6.31
5.24
4.9
5.25
6.1
7.14
8.07
8.59
8.44
7.36
5.12
1.57
-3.2
-8.89
-15.04
-21.19
-26.97
-32.12
-36.41
-39.51
-40.94
-40.16
-36.8
-30.9
-23.02
-14.13
-5.43
2.03
7.6
11.15
13.01
13.74
13.88
13.68
13.16
12.12
10.32
7.64
4.18
0.25
-3.55
-6.44
-7.62
-6.46
-2.77
3.04
10.01
16.8
22.05
24.7
24.28
20.99
15.63
9.34
3.34
-1.44
-4.49
-5.89
-6.12
-5.97
-6.3
-7.82
-11.04
-16.07
-22.59
-29.74
-36.39
-41.23
-43.31
-42.21
-38.2
-32.05
-24.67
-16.86
-9.14
-1.89
4.57
9.86
13.5
15.16
14.77
12.72
9.67
6.4
3.54
1.4
0.02
-0.72
-0.93
-0.67
0.01
1.01
2.06
2.84
3.05
2.57
1.52
0.18
-1.15
-2.3
-3.34
-4.49
-6
-8.02
-10.58
-13.57
-16.77
-19.95
-22.76
-24.8
-25.67
-25.05
-22.78
-18.99
-14.02
-8.46
-2.88
2.24
6.6
10.04
12.49
13.99
14.58
14.38
13.55
12.31
10.84
9.32
7.91
6.66
5.62
4.76
4.12
3.72
3.66
4.04
4.89
6.11
7.46
8.65
9.34
9.35
8.59
7.08
4.84
1.81
-2.09
-6.92
-12.48
-18.36
-23.83
-28.09
-30.47
-30.62
-28.57
-24.73
-19.68
-13.92
-7.87
-1.78
4.1
9.37
13.59
16.34
17.43
16.97
15.38
13.17
10.77
8.45
6.33
4.51
3.09
2.22
1.91
2.03
2.38
2.69
2.78
2.47
1.7
0.38
-1.47
-3.69
-6.03
-8.22
-10.15
-12
-14.12
-16.8
-20.04
-23.4
-26.1
-27.39
-26.79
-24.35
-20.57
-16.17
-11.71
-7.42
-3.22
1.08
5.5
9.72
13.23
15.51
16.36
16.02
15.05
14.07
13.51
13.36
13.39
13.25
12.75
11.99
11.17
10.5
9.94
9.24
8.07
6.22
3.75
0.97
-1.68
-3.9
-5.59
-6.89
-8.07
-9.39
-11.04
-13.12
-15.66
-18.57
-21.62
-24.42
-26.48
-27.31
-26.61
-24.36
-20.77
-16.23
-11.15
-5.91
-0.8
3.96
8.23
11.84
14.71
16.78
18.04
18.53
18.34
17.64
16.65
15.64
14.85
14.43
14.44
14.77
15.25
15.67
15.87
15.7
15.1
14.02
12.49
10.64
8.69
6.89
5.32
3.92
2.43
0.6
-1.74
-4.52
-7.46
-10.25
-12.66
-14.7
-16.57
-18.61
-21.12
-24.26
-27.92
-31.64
-34.62
-35.93
-34.81
-30.99
-24.9
-17.51
-9.99
-3.28
2.18
6.46
9.92
12.85
15.37
17.35
18.71
19.51
20.01
20.52
21.19
21.9
22.32
22.13
21.2
19.68
18.01
16.7
16.07
16.12
16.52
16.77
16.45
15.4
13.77
11.9
10.12
8.59
7.23
5.84
4.21
2.3
0.14
-2.16
-4.55
-7.01
-9.53
-11.99
-14.21
-16.06
-17.54
-18.97
-20.83
-23.61
-27.47
-32.11
-36.79
-40.55
-42.54
-42.27
-39.69
-35.18
-29.33
-22.79
-16.08
-9.55
-3.42
2.16
7.06
11.16
14.35
16.59
17.99
18.81
19.39
20.02
20.82
21.71
22.42
22.77
22.65
22.12
21.32
20.39
19.36
18.22
16.99
15.7
14.43
13.25
12.17
11.12
9.99
8.65
7.04
5.04
2.55
-0.43
-3.73
-6.97
-9.67
-11.49
-12.43
-12.95
-13.76
-15.57
-18.75
-23.16
-28.15
-32.81
-36.2
-37.65
-36.93
-34.13
-29.67
-24.03
-17.65
-10.92
-4.18
2.22
7.86
12.4
15.63
17.6
18.62
19.11
19.44
19.83
20.28
20.68
20.9
20.89
20.63
20.1
19.31
18.28
17.08
15.94
15.15
14.91
15.15
15.51
15.48
14.66
12.97
10.74
8.49
6.65
5.37
4.48
3.62
2.57
1.27
-0.23
-1.88
-3.77
-6.01
-8.72
-11.92
-15.5
-19.33
-23.21
-26.95
-30.27
-32.81
-34.27
-34.45
-33.34
-31.02
-27.71
-23.6
-18.88
-13.72
-8.37
-3.11
1.73
5.88
9.19
11.61
13.22
14.18
14.7
15.01
15.27
15.59
15.96
16.39
16.91
17.56
18.37
19.24
20
20.43
20.37
19.82
18.85
17.61
16.18
14.58
12.9
11.26
9.86
8.82
8.02
7.1
5.58
3.17
-0.04
-3.62
-6.97
-9.7
-11.8
-13.62
-15.59
-17.99
-20.91
-24.17
-27.54
-30.76
-33.49
-35.35
-35.87
-34.69
-31.66
-26.94
-20.96
-14.3
-7.55
-1.24
4.19
8.46
11.44
13.21
14.01
14.17
14.04
13.84
13.64
13.47
13.32
13.22
13.22
13.38
13.74
14.23
14.76
15.19
15.38
15.24
14.77
13.98
12.96
11.74
10.34
8.79
7.08
5.23
3.23
1.04
-1.38
-4.04
-6.84
-9.58
-11.99
-13.95
-15.54
-17.14
-19.29
-22.33
-26.2
-30.3
-33.7
-35.44
-34.95
-32.16
-27.51
-21.76
-15.69
-9.94
-4.93
-0.87
2.22
4.45
6
7.09
7.93
8.66
9.34
10
10.62
11.13
11.42
11.36
10.89
10.09
9.16
8.41
8.06
8.14
8.46
8.63
8.25
7.12
5.28
3.05
0.83
-1.01
-2.32
-3.19
-3.87
-4.64
-5.79
-7.49
-9.89
-12.99
-16.65
-20.55
-24.21
-27
-28.37
-27.95
-25.67
-21.8
-16.79
-11.16
-5.33
0.31
5.47
9.8
12.96
14.76
15.18
14.56
13.44
12.41
11.87
11.88
12.19
12.45
12.38
12.01
11.5
11.12
11
11.06
11.07
10.75
9.92
8.48
6.4
3.73
0.58
-2.82
-6.12
-8.99
-11.25
-12.97
-14.57
-16.57
-19.41
-23.2
-27.55
-31.63
-34.44
-35.15
-33.44
-29.56
-24.23
-18.29
-12.38
-6.74
-1.34
3.88
8.79
12.94
15.8
17.1
16.97
16.02
14.98
14.46
14.66
15.43
16.37
17.08
17.32
17.01
16.3
15.38
14.52
13.89
13.53
13.3
12.9
12.03
10.46
8.22
5.5
2.55
-0.43
-3.31
-6.08
-8.75
-11.38
-14.14
-17.27
-21.02
-25.5
-30.52
-35.56
-39.89
-42.77
-43.62
-42.21
-38.58
-33.07
-26.2
-18.58
-10.84
-3.51
2.98
8.37
12.57
15.62
17.72
19.16
20.22
21.1
21.89
22.57
23.11
23.48
23.8
24.18
24.66
25.17
25.51
25.48
24.94
23.92
22.51
20.81
18.86
16.63
14.09
11.31
8.4
5.47
2.55
-0.41
-3.48
-6.68
-9.98
-13.35
-16.89
-20.84
-25.46
-30.79
-36.48
-41.72
-45.45
-46.65
-44.74
-39.76
-32.43
-23.9
-15.4
-7.84
-1.56
3.61
8.19
12.59
16.87
20.68
23.49
24.91
24.99
24.18
23.17
22.47
22.33
22.63
23.19
23.84
24.53
25.31
26.12
26.76
26.9
26.14
24.23
21.22
17.46
13.51
9.89
6.89
4.43
2.11
-0.47
-3.52
-6.92
-10.32
-13.32
-15.75
-17.79
-19.9
-22.6
-26.22
-30.67
-35.44
-39.62
-42.2
-42.32
-39.65
-34.42
-27.39
-19.59
-11.94
-5.02
1.01
6.26
10.87
14.81
17.84
19.69
20.3
19.96
19.28
18.91
19.24
20.23
21.48
22.48
22.87
22.65
22.09
21.52
21.08
20.71
20.16
19.25
17.83
15.91
13.55
10.84
7.92
4.97
2.19
-0.35
-2.72
-5.21
-8.2
-12.03
-16.76
-22.08
-27.34
-31.64
-34.1
-34.06
-31.32
-26.13
-19.15
-11.22
-3.21
4.18
10.5
15.51
19.21
21.73
23.32
24.25
24.7
24.76
24.43
23.76
22.9
22.14
21.75
21.83
22.28
22.8
23.04
22.77
21.97
20.73
19.15
17.29
15.12
12.6
9.71
6.49
3.07
-0.43
-3.88
-7.13
-10.05
-12.65
-15.13
-17.89
-21.4
-25.93
-31.29
-36.76
-41.32
-43.89
-43.8
-40.93
-35.69
-28.78
-20.92
-12.7
-4.6
2.9
9.27
14.03
16.99
18.36
18.76
18.97
19.59
20.76
22.22
23.49
24.2
24.33
24.16
24.06
24.23
24.63
24.95
24.87
24.19
22.92
21.2
19.2
17
14.56
11.8
8.69
5.28
1.72
-1.82
-5.18
-8.27
-11.09
-13.72
-16.4
-19.4
-23.04
-27.46
-32.55
-37.86
-42.67
-46.14
-47.57
-46.61
-43.28
-38.04
-31.47
-24.27
-16.92
-9.72
-2.82
3.69
9.64
14.75
18.7
21.32
22.69
23.16
23.2
23.23
23.48
23.95
24.57
25.25
25.96
26.67
27.29
27.7
27.75
27.38
26.53
25.2
23.36
21.04
18.3
15.36
12.44
9.69
7.05
4.34
1.38
-1.85
-5.17
-8.4
-11.4
-14.19
-16.89
-19.61
-22.47
-25.54
-28.95
-32.78
-36.95
-41.04
-44.32
-45.98
-45.45
-42.61
-37.77
-31.52
-24.45
-17.06
-9.74
-2.86
3.22
8.26
12.2
15.22
17.59
19.58
21.31
22.8
23.98
24.85
25.47
25.89
26.15
26.22
26.09
25.72
25.14
24.38
23.48
22.51
21.52
20.56
19.63
18.6
17.24
15.29
12.58
9.14
5.3
1.5
-1.85
-4.61
-6.95
-9.24
-11.91
-15.19
-19.13
-23.51
-28.01
-32.18
-35.52
-37.48
-37.58
-35.56
-31.46
-25.67
-18.86
-11.78
-5.07
0.88
5.97
10.22
13.73
16.55
18.63
19.96
20.58
20.74
20.78
21.02
21.64
22.6
23.66
24.55
25.02
24.96
24.31
23.11
21.43
19.43
17.29
15.22
13.29
11.4
9.36
7.04
4.41
1.62
-1.14
-3.79
-6.42
-9.2
-12.29
-15.74
-19.48
-23.4
-27.28
-30.79
-33.47
-34.68
-33.86
-30.69
-25.36
-18.47
-10.88
-3.4
3.47
9.55
14.88
19.54
23.47
26.5
28.5
29.48
29.72
29.64
29.64
29.96
30.51
30.98
31
30.43
29.34
28.04
26.82
25.77
24.76
23.48
21.67
19.29
16.55
13.76
11.19
8.86
6.48
3.74
0.41
-3.39
-7.19
-10.49
-12.96
-14.67
-16.01
-17.54
-19.7
-22.76
-26.76
-31.59
-36.98
-42.37
-46.98
-49.88
-50.33
-48.08
-43.48
-37.29
-30.37
-23.34
-16.5
-9.89
-3.53
2.52
8.12
13.2
17.7
21.55
24.62
26.79
28.03
28.5
28.57
28.62
28.89
29.32
29.65
29.6
28.97
27.81
26.26
24.49
22.61
20.57
18.3
15.77
13.1
10.52
8.31
6.62
5.33
4.14
2.6
0.47
-2.21
-5.08
-7.7
-9.8
-11.42
-12.95
-14.83
-17.43
-20.87
-25.07
-29.76
-34.64
-39.24
-43.02
-45.39
-45.8
-43.98
-39.96
-34.2
-27.36
-20.15
-13.14
-6.66
-0.83
4.36
8.89
12.74
15.81
18.06
19.56
20.43
20.89
21.06
20.99
20.63
19.94
19
18.02
17.3
17.14
17.66
18.74
19.98
20.8
20.7
19.39
16.98
13.91
10.78
8.1
6.08
4.63
3.48
2.28
0.86
-0.88
-2.93
-5.27
-7.88
-10.69
-13.55
-16.32
-18.95
-21.55
-24.45
-27.87
-31.86
-36.06
-39.76
-42.1
-42.4
-40.39
-36.21
-30.36
-23.43
-16
-8.51
-1.33
5.17
10.64
14.76
17.37
18.47
18.42
17.67
16.8
16.23
16.17
16.57
17.17
17.73
18.09
18.3
18.48
18.73
19.04
19.19
18.93
18.01
16.42
14.29
11.92
9.56
7.38
5.39
3.55
1.84
0.29
-1.03
-2.15
-3.18
-4.35
-5.91
-8.03
-10.78
-14.08
-17.71
-21.26
-24.2
-25.92
-25.94
-23.99
-20.14
-14.75
-8.38
-1.61
5.04
11.17
16.52
20.97
24.47
27.07
28.88
30.06
30.79
31.33
31.96
32.87
34.19
35.89
37.83
39.77
41.45
42.66
43.27
43.27
42.85
42.31
41.97
41.97
42.22
42.26
41.53
39.48
35.84
30.63
24.13
16.75
8.85
0.73
-7.39
-15.4
-23.24
-30.9
-38.26
-45.04
-50.74
-54.72
-56.37
-55.41
-51.92
-46.37
-39.37
-31.49
-23.16
-14.68
-6.33
1.57
8.7
14.89
20.21
24.96
29.62
34.51
39.76
45.14
50.2
54.41
57.38
59.04
59.59
59.46
58.93
58.1
56.7
54.37
50.85
46.12
40.49
34.42
28.31
22.32
16.49
10.76
5.2
-0.03
-4.86
-9.34
-13.75
-18.52
-24.03
-30.4
-37.44
-44.69
-51.59
-57.72
-62.89
-67.16
-70.65
-73.42
-75.38
-76.36
-76.3
-75.25
-73.42
-71.06
-68.33
-65.32
-62.07
-58.74
-55.65
-53.19
-51.52
-50.49
-49.51
-47.7
-44.24
-38.7
-31.22
-22.58
-13.95
-6.59
-1.52
0.71
0.12
-2.66
-6.56
-10.24
-12.43
-12.22
-9.41
-4.61
0.82
5.17
6.97
5.49
1.08
-5.04
-11.22
-16.12
-19.1
-20.31
-20.49
-20.51
-21.06
-22.55
-25.21
-29.23
-34.68
-41.35
-48.52
-55
-59.36
-60.43
-57.72
-51.64
-43.36
-34.45
-26.34
-19.99
-15.66
-13
-11.32
-9.89
-8.21
-6.06
-3.44
-0.4
3.05
6.87
10.9
14.73
17.65
19
18.32
15.67
11.63
7.05
2.81
-0.49
-2.5
-3.2
-2.81
-1.81
-0.88
-0.67
-1.69
-4.01
-7.25
-10.75
-13.86
-16.23
-17.94
-19.38
-21.01
-23.11
-25.74
-28.7
-31.71
-34.47
-36.63
-37.78
-37.58
-35.74
-32.21
-27.23
-21.25
-14.85
-8.62
-3
1.61
4.9
6.66
6.8
5.43
2.86
-0.45
-4
-7.41
-10.39
-12.82
-14.5
-15.21
-14.69
-12.78
-9.7
-6.01
-2.68
-0.78
-1.16
-4.15
-9.44
-16.25
-23.59
-30.73
-37.33
-43.53
-49.8
-56.66
-64.58
-73.85
-84.62
-96.7
-109.45
-121.63
-131.5
-137.24
-137.6
-132.5
-123.15
-111.6
-99.9
-89.35
-80.06
-71.25
-61.91
-51.47
-40.12
-28.58
-17.55
-7.25
2.82
13.54
25.7
39.51
54.63
70.23
85.49
99.92
113.44
126.04
137.53
147.38
154.84
159.54
161.84
162.97
164.58
167.97
173.52
180.4
187.02
191.64
193.01
190.58
184.38
174.79
162.33
147.67
131.65
115.28
99.55
85.05
71.92
59.77
48.05
36.38
24.76
13.59
3.35
-5.65
-13.41
-20.22
-26.46
-32.53
-38.76
-45.49
-53.06
-61.71
-71.36
-81.53
-91.39
-100
-106.58
-110.69
-112.1
-110.6
-105.85
-97.5
-85.5
-70.42
-53.5
-36.32
-20.36
-6.48
5.26
15.43
24.82
34.06
43.28
52.13
59.96
66.08
70
71.55
70.91
68.45
64.53
59.51
53.69
47.46
41.43
36.35
32.9
31.43
31.76
33.06
34.17
33.92
31.53
26.75
19.81
11.19
1.37
-9.36
-21.02
-33.79
-47.89
-63.28
-79.41
-95.04
-108.3
-117.09
-119.73
-115.46
-104.74
-89.06
-70.4
-50.53
-30.7
-11.52
6.66
23.41
38
49.44
56.9
60.07
59.4
55.95
51.05
45.8
40.73
35.82
30.74
25.32
19.84
15.09
12.15
11.99
15.14
21.5
30.53
41.32
52.84
64.02
73.84
81.34
85.73
86.47
83.25
76.14
65.5
52.04
36.77
20.9
5.71
-7.71
-18.58
-26.63
-31.98
-35.1
-36.61
-37.15
-37.28
-37.47
-38.09
-39.25
-40.98
-43.15
-45.6
-48.07
-50.22
-51.48
-51.1
-48.24
-42.4
-33.76
-23.31
-12.65
-3.41
3.28
6.96
7.92
6.81
4.35
1.21
-1.88
-4.08
-4.58
-2.86
1.06
6.57
12.76
18.79
24.17
28.79
32.7
35.89
38.27
39.81
40.76
41.66
43.25
46.04
50.03
54.52
58.33
60.09
58.6
53.22
44
31.89
18.55
6.08
-3.57
-9.17
-10.59
-8.89
-5.87
-3.42
-2.91
-4.86
-8.98
-14.49
-20.44
-25.97
-30.4
-33.23
-34.15
-33.13
-30.47
-26.81
-22.95
-19.68
-17.48
-16.4
-16.01
-15.67
-14.78
-13.01
-10.38
-7.19
-3.85
-0.7
2.12
4.58
6.74
8.68
10.45
12.05
13.46
14.62
15.34
15.44
14.82
13.58
11.95
10.28
8.85
7.76
7
6.43
6.03
5.82
5.87
6.2
6.66
6.96
6.77
5.88
4.32
2.36
0.39
-1.22
-2.35
-3.12
-3.87
-5.01
-6.84
-9.49
-12.85
-16.6
-20.31
-23.45
-25.54
-26.22
-25.35
-22.98
-19.46
-15.18
-10.56
-5.91
-1.45
2.61
6.04
8.54
9.88
9.98
9.09
7.65
6.21
5.26
5.06
5.61
6.63
7.78
8.7
9.2
9.26
8.94
8.4
7.78
7.19
6.62
5.99
5.19
4.07
2.56
0.69
-1.44
-3.68
-5.89
-7.99
-9.88
-11.59
-13.16
-14.61
-15.93
-17.06
-17.85
-18.08
-17.53
-16.09
-13.83
-10.97
-7.79
-4.52
-1.28
1.91
4.96
7.7
9.84
11.09
11.39
10.93
10.05
9.06
8.14
7.25
6.28
5.19
4.07
3.11
2.39
1.91
1.56
1.25
1.04
1.04
1.26
1.58
1.67
1.19
-0.05
-1.95
-4.17
-6.27
-7.94
-9.05
-9.74
-10.29
-11.03
-12.2
-13.81
-15.64
-17.26
-18.13
-17.87
-16.32
-13.64
-10.16
-6.29
-2.37
1.33
4.58
7.15
8.82
9.43
9.01
7.84
6.36
5.01
4.1
3.66
3.59
3.66
3.71
3.67
3.53
3.37
3.26
3.3
3.59
4.21
5.07
5.98
6.54
6.4
5.37
3.59
1.47
-0.48
-1.89
-2.73
-3.27
-3.97
-5.24
-7.25
-9.92
-12.88
-15.59
-17.45
-17.93
-16.78
-14.12
-10.39
-6.28
-2.46
0.68
3.1
5
6.67
8.25
9.62
10.57
11.01
11
10.82
10.73
10.86
11.1
11.26
11.18
10.89
10.55
10.34
10.4
10.65
10.9
10.94
10.55
9.6
8.03
5.84
3.12
0.07
-3.06
-6.03
-8.65
-10.88
-12.73
-14.25
-15.45
-16.35
-17.06
-17.83
-18.93
-20.55
-22.6
-24.61
-25.93
-25.94
-24.27
-21.03
-16.66
-11.82
-7.11
-2.9
0.63
3.5
5.71
7.27
8.14
8.4
8.21
7.82
7.5
7.41
7.52
7.76
8
8.18
8.35
8.58
8.87
9.15
9.3
9.26
9.07
8.88
8.81
8.88
9.02
9.06
8.89
8.42
7.58
6.35
4.71
2.74
0.62
-1.34
-2.85
-3.81
-4.31
-4.65
-5.1
-5.85
-6.81
-7.71
-8.19
-7.82
-6.29
-3.48
0.6
5.67
11.27
16.86
22
26.46
30.24
33.45
36.23
38.56
40.24
41.03
40.77
39.46
37.32
34.72
31.99
29.34
26.79
24.21
21.49
18.54
15.38
11.96
8.15
3.7
-1.58
-7.64
-14.08
-20.25
-25.52
-29.5
-32.27
-34.17
-35.66
-37.01
-38.23
-39.23
-39.89
-40.22
-40.34
-40.42
-40.54
-40.65
-40.63
-40.26
-39.31
-37.59
-35.05
-31.8
-28.11
-24.29
-20.62
-17.23
-14.11
-11.31
-8.94
-7.31
-6.69
-7.21
-8.7
-10.69
-12.62
-13.98
-14.55
-14.34
-13.61
-12.59
-11.5
-10.44
-9.48
-8.68
-8.06
-7.73
-7.7
-7.96
-8.42
-8.97
-9.52
-9.97
-10.3
-10.47
-10.49
-10.34
-10.13
-9.97
-10.05
-10.5
-11.42
-12.83
-14.56
-16.31
-17.63
-18.05
-17.25
-15.16
-11.99
-8.14
-4.07
-0.11
3.55
6.8
9.57
11.72
13.15
13.79
13.71
13.02
11.82
10.17
8.08
5.64
3.04
0.55
-1.61
-3.33
-4.67
-5.79
-6.86
-8.02
-9.28
-10.66
-12.1
-13.55
-14.83
-15.74
-16.16
-16.09
-15.83
-15.77
-16.33
-17.67
-19.68
-22.04
-24.35
-26.29
-27.58
-27.98
-27.22
-25.16
-21.85
-17.64
-13.1
-8.77
-5.02
-1.88
0.77
3.13
5.25
7.05
8.41
9.29
9.76
9.96
9.98
9.85
9.6
9.3
9.15
9.38
10.1
11.32
12.8
14.26
15.39
16.01
16.11
15.78
15.21
14.56
13.9
13.21
12.42
11.41
10.15
8.67
7.08
5.53
4.16
3.08
2.3
1.79
1.38
0.83
-0.11
-1.56
-3.36
-5.15
-6.39
-6.6
-5.65
-3.74
-1.38
0.87
2.62
3.76
4.44
4.89
5.26
5.62
5.9
6.04
6.1
6.28
6.77
7.72
9.04
10.41
11.36
11.53
10.81
9.49
8.07
7.08
6.7
6.77
6.88
6.6
5.77
4.49
2.98
1.45
-0.08
-1.72
-3.55
-5.51
-7.46
-9.23
-10.72
-12
-13.18
-14.4
-15.74
-17.31
-19.26
-21.72
-24.7
-27.97
-31.01
-33.14
-33.8
-32.7
-29.94
-25.84
-20.82
-15.25
-9.42
-3.63
1.8
6.49
10.14
12.65
14.12
14.84
15.03
14.84
14.3
13.46
12.5
11.77
11.66
12.42
14.09
16.41
18.94
21.22
22.91
23.73
23.63
22.65
20.92
18.66
16.14
13.59
11.11
8.71
6.29
3.78
1.2
-1.33
-3.58
-5.36
-6.6
-7.44
-8.21
-9.32
-11.13
-13.79
-17.13
-20.73
-24.02
-26.43
-27.54
-27.13
-25.15
-21.67
-16.88
-11.18
-5.05
0.85
5.97
9.98
12.83
14.74
15.95
16.6
16.7
16.23
15.28
14.13
13.19
12.76
12.91
13.43
13.97
14.24
14.17
13.9
13.59
13.3
12.94
12.27
11.06
9.25
7
4.63
2.46
0.64
-0.84
-2.19
-3.62
-5.32
-7.32
-9.59
-12.07
-14.76
-17.65
-20.62
-23.34
-25.34
-26.12
-25.34
-22.89
-19
-14.04
-8.48
-2.77
2.67
7.5
11.45
14.39
16.29
17.21
17.32
16.81
15.97
15.08
14.45
14.24
14.36
14.55
14.43
13.75
12.55
11.15
9.99
9.43
9.49
9.78
9.73
8.86
7.01
4.43
1.61
-1.03
-3.36
-5.55
-7.9
-10.65
-13.75
-16.89
-19.75
-22.13
-23.98
-25.31
-26
-25.77
-24.24
-21.19
-16.65
-10.99
-4.8
1.35
6.93
11.62
15.23
17.71
19.11
19.56
19.29
18.55
17.58
16.63
15.88
15.41
15.26
15.31
15.35
15.16
14.58
13.59
12.38
11.21
10.25
9.52
8.81
7.78
6.14
3.79
0.93
-2.06
-4.71
-6.7
-7.99
-8.84
-9.76
-11.21
-13.53
-16.8
-20.86
-25.4
-30.01
-34.22
-37.51
-39.34
-39.28
-37.12
-32.98
-27.3
-20.73
-13.9
-7.33
-1.33
3.89
8.24
11.65
14.11
15.71
16.54
16.78
16.57
16.15
15.75
15.62
15.89
16.51
17.28
17.91
18.2
18.12
17.86
17.59
17.41
17.16
16.59
15.41
13.51
11.02
8.15
5.18
2.21
-0.75
-3.79
-7.01
-10.4
-13.87
-17.37
-20.92
-24.6
-28.45
-32.37
-36.04
-38.93
-40.4
-39.96
-37.38
-32.79
-26.66
-19.62
-12.32
-5.27
1.18
6.86
11.7
15.63
18.64
20.69
21.87
22.36
22.46
22.51
22.78
23.38
24.2
25.04
25.65
25.85
25.68
25.28
24.83
24.44
24.13
23.78
23.24
22.45
21.41
20.12
18.51
16.49
13.95
10.88
7.41
3.78
0.17
-3.41
-7.12
-11.27
-16.07
-21.52
-27.24
-32.55
-36.58
-38.63
-38.28
-35.56
-30.83
-24.66
-17.7
-10.56
-3.84
1.95
6.44
9.53
11.39
12.4
12.93
13.23
13.38
13.37
13.32
13.42
13.89
14.78
15.87
16.79
17.24
17.12
16.65
16.07
15.54
15
14.12
12.53
9.96
6.41
2.17
-2.21
-6.16
-9.25
-11.42
-13
-14.64
-16.95
-20.23
-24.25
-28.25
-31.24
-32.3
-30.96
-27.31
-21.88
-15.48
-8.84
-2.5
3.32
8.6
13.37
17.51
20.76
22.79
23.37
22.56
20.74
18.47
16.33
14.69
13.68
13.24
13.22
13.43
13.77
14.08
14.18
13.82
12.8
11.06
8.73
6.14
3.58
1.23
-1.05
-3.64
-7.01
-11.51
-17.13
-23.43
-29.57
-34.6
-37.61
-38.07
-35.82
-31.22
-24.95
-17.93
-11.05
-4.99
-0.07
3.72
6.56
8.71
10.3
11.35
11.8
11.57
10.72
9.37
7.72
6.05
4.63
3.74
3.48
3.8
4.4
4.86
4.71
3.65
1.67
-0.98
-3.82
-6.43
-8.58
-10.4
-12.28
-14.66
-17.72
-21.2
-24.38
-26.32
-26.26
-23.82
-19.11
-12.52
-4.6
4.13
13.03
21.27
27.96
32.32
33.98
33.19
30.69
27.35
23.89
20.67
17.73
15.08
12.77
10.98
9.79
9.11
8.62
7.95
6.86
5.31
3.45
1.46
-0.55
-2.59
-4.74
-7.16
-9.95
-13.21
-16.99
-21.2
-25.58
-29.69
-32.9
-34.57
-34.18
-31.46
-26.52
-19.83
-12.13
-4.32
2.75
8.42
12.39
14.75
15.81
15.97
15.5
14.6
13.41
12.12
11
10.32
10.16
10.35
10.56
10.38
9.58
8.19
6.36
4.37
2.36
0.39
-1.57
-3.55
-5.53
-7.61
-10
-13.03
-16.89
-21.41
-25.94
-29.4
-30.67
-29.05
-24.5
-17.75
-9.98
-2.34
4.42
10.06
14.7
18.52
21.47
23.32
23.8
22.94
21.11
19.05
17.5
16.87
17.14
17.92
18.71
19.12
18.96
18.14
16.61
14.29
11.2
7.54
3.67
0.03
-3.1
-5.71
-8.07
-10.64
-13.88
-18.02
-22.94
-28.1
-32.59
-35.35
-35.42
-32.38
-26.45
-18.56
-9.98
-1.94
4.78
9.98
13.98
17.23
20.13
22.74
24.87
26.2
26.57
26.05
25.03
23.93
22.99
22.16
21.19
19.82
18.07
16.22
14.66
13.59
12.85
12.02
10.58
8.29
5.28
2.01
-1.05
-3.57
-5.64
-7.55
-9.68
-12.39
-15.8
-19.97
-24.74
-29.8
-34.57
-38.24
-39.93
-38.94
-35.09
-28.77
-20.87
-12.44
-4.32
2.98
9.31
14.68
19.08
22.42
24.6
25.64
25.78
25.48
25.2
25.24
25.63
26.19
26.61
26.72
26.48
26.02
25.47
24.84
24.05
22.96
21.52
19.8
17.95
16.05
14.03
11.68
8.83
5.43
1.68
-2.1
-5.57
-8.6
-11.23
-13.69
-16.25
-19.21
-22.75
-26.95
-31.64
-36.31
-40.17
-42.28
-41.89
-38.7
-32.98
-25.45
-17.03
-8.61
-0.84
5.9
11.43
15.77
18.98
21.2
22.61
23.4
23.75
23.8
23.66
23.41
23.13
22.9
22.81
22.86
23.03
23.17
23.13
22.76
22.01
20.96
19.74
18.51
17.32
16.16
14.98
13.74
12.4
10.9
9.16
7.02
4.37
1.21
-2.29
-5.81
-9.06
-11.76
-13.89
-15.59
-17.2
-19.18
-21.88
-25.36
-29.27
-32.88
-35.25
-35.62
-33.59
-29.31
-23.29
-16.27
-8.98
-2.04
4.12
9.27
13.34
16.39
18.55
19.96
20.76
21.02
20.83
20.3
19.62
19.04
18.75
18.77
19.02
19.36
19.69
19.95
20.05
19.82
18.97
17.29
14.82
11.91
9.13
6.98
5.66
4.89
4.09
2.68
0.37
-2.67
-5.97
-8.99
-11.45
-13.33
-14.89
-16.51
-18.51
-21.06
-24.15
-27.52
-30.72
-33.16
-34.26
-33.57
-30.93
-26.49
-20.67
-14.06
-7.23
-0.68
5.23
10.26
14.22
17.06
18.83
19.62
19.62
19.04
18.1
17.02
16.04
15.29
14.8
14.48
14.14
13.61
12.77
11.64
10.34
9.03
7.84
6.78
5.75
4.62
3.23
1.52
-0.45
-2.52
-4.5
-6.22
-7.65
-8.86
-10
-11.25
-12.77
-14.77
-17.41
-20.77
-24.65
-28.46
-31.38
-32.53
-31.34
-27.81
-22.5
-16.31
-10.14
-4.55
0.32
4.58
8.43
11.86
14.69
16.63
17.49
17.35
16.51
15.37
14.28
13.43
12.82
12.39
12.09
11.89
11.83
11.89
12
12.05
11.91
11.47
10.71
9.66
8.37
6.88
5.25
3.53
1.74
-0.09
-1.95
-3.78
-5.55
-7.26
-8.98
-10.9
-13.25
-16.18
-19.65
-23.38
-26.86
-29.53
-30.83
-30.44
-28.28
-24.55
-19.62
-13.99
-8.17
-2.61
2.34
6.5
9.9
12.7
15.07
17.1
18.73
19.74
20.02
19.58
18.6
17.39
16.23
15.26
14.5
13.89
13.31
12.74
12.13
11.43
10.57
9.45
8.07
6.47
4.75
2.98
1.21
-0.52
-2.16
-3.65
-4.93
-6.04
-7.14
-8.5
-10.35
-12.79
-15.73
-18.92
-22.07
-25
-27.64
-30.05
-32.24
-34.09
-35.31
-35.5
-34.31
-31.56
-27.35
-22.02
-16.1
-10.16
-4.62
0.26
4.32
7.49
9.74
11.08
11.63
11.58
11.18
10.67
10.17
9.74
9.39
9.12
8.96
8.97
9.14
9.4
9.67
9.8
9.77
9.59
9.32
9.03
8.73
8.36
7.78
6.85
5.46
3.63
1.47
-0.9
-3.37
-5.92
-8.56
-11.27
-13.95
-16.51
-18.93
-21.31
-23.82
-26.51
-29.19
-31.37
-32.44
-31.95
-29.78
-26.28
-22.01
-17.56
-13.25
-9.1
-4.99
-0.85
3.18
6.8
9.63
11.44
12.26
12.37
12.18
12.03
12.11
12.39
12.76
13.03
13.12
12.97
12.66
12.27
11.86
11.4
10.82
9.95
8.7
7.06
5.2
3.31
1.54
-0.12
-1.79
-3.65
-5.8
-8.17
-10.55
-12.74
-14.59
-16.15
-17.65
-19.34
-21.38
-23.76
-26.25
-28.38
-29.58
-29.36
-27.37
-23.69
-18.78
-13.33
-8
-3.17
1.04
4.73
7.97
10.7
12.7
13.81
14.03
13.63
13
12.5
12.35
12.58
13.05
13.58
13.96
13.97
13.49
12.49
11.1
9.6
8.23
7.16
6.28
5.36
4.1
2.36
0.2
-2.15
-4.49
-6.73
-9.01
-11.56
-14.56
-17.98
-21.54
-24.81
-27.34
-28.77
-28.89
-27.56
-24.73
-20.5
-15.13
-9.11
-3.04
2.54
7.21
10.77
13.26
14.74
15.31
15.13
14.37
13.37
12.52
12.14
12.39
13.15
14.08
14.83
15.14
14.99
14.5
13.84
13.07
12.09
10.76
8.99
6.88
4.72
2.77
1.16
-0.19
-1.52
-3.07
-4.96
-7.22
-9.84
-12.91
-16.55
-20.84
-25.54
-30.11
-33.74
-35.59
-35.18
-32.51
-28.06
-22.56
-16.65
-10.73
-4.94
0.61
5.8
10.25
13.64
15.74
16.65
16.73
16.49
16.32
16.42
16.77
17.22
17.64
17.92
17.99
17.79
17.32
16.64
15.82
15.01
14.2
13.29
12.06
10.34
8.11
5.55
2.96
0.56
-1.57
-3.62
-5.92
-8.75
-12.18
-16.13
-20.35
-24.61
-28.71
-32.41
-35.35
-37.11
-37.19
-35.26
-31.33
-25.77
-19.25
-12.56
-6.29
-0.67
4.31
8.81
12.86
16.33
18.99
20.63
21.31
21.31
21.01
20.75
20.65
20.61
20.42
20.01
19.44
18.91
18.6
18.53
18.54
18.37
17.81
16.76
15.34
13.71
11.94
10.04
7.87
5.36
2.56
-0.31
-3.03
-5.46
-7.68
-9.91
-12.3
-14.94
-17.73
-20.63
-23.72
-27.14
-30.9
-34.62
-37.53
-38.67
-37.34
-33.46
-27.67
-21.02
-14.44
-8.42
-2.96
2.15
6.97
11.27
14.63
16.77
17.73
17.9
17.82
17.91
18.29
18.79
19.17
19.24
18.98
18.49
17.96
17.47
17.03
16.59
15.98
15.06
13.73
12.02
10.04
7.94
5.78
3.58
1.29
-1.08
-3.41
-5.56
-7.51
-9.42
-11.58
-14.32
-17.74
-21.59
-25.24
-27.89
-28.82
-27.68
-24.6
-20.09
-14.81
-9.33
-4.04
0.88
5.36
9.21
12.2
14.11
14.84
14.57
13.69
12.69
11.97
11.68
11.67
11.63
11.26
10.43
9.33
8.31
7.7
7.61
7.85
8.01
7.72
6.85
5.52
4.02
2.57
1.2
-0.26
-2.05
-4.31
-7.06
-10.18
-13.56
-16.98
-20.16
-22.67
-24
-23.68
-21.46
-17.46
-12.1
-6.06
-0
5.53
10.26
14.11
17.08
19.18
20.4
20.75
20.36
19.52
18.58
17.86
17.52
17.54
17.81
18.14
18.41
18.53
18.45
18.07
17.28
16
14.2
11.9
9.17
6.14
2.98
-0.06
-2.72
-4.91
-6.71
-8.4
-10.4
-13.02
-16.37
-20.26
-24.22
-27.57
-29.58
-29.65
-27.48
-23.19
-17.31
-10.68
-4.21
1.37
5.71
8.83
11.04
12.71
14.08
15.29
16.37
17.37
18.38
19.5
20.7
21.78
22.42
22.3
21.35
19.79
18.09
16.68
15.77
15.12
14.25
12.72
10.32
7.32
4.23
1.54
-0.62
-2.5
-4.62
-7.4
-10.95
-15.06
-19.34
-23.37
-26.89
-29.69
-31.49
-31.88
-30.46
-27.09
-22.08
-16.13
-10.16
-4.82
-0.38
3.3
6.44
9.16
11.33
12.71
13.17
12.88
12.3
11.9
11.94
12.32
12.71
12.79
12.42
11.76
11.04
10.44
9.99
9.54
8.9
7.98
6.74
5.24
3.51
1.59
-0.48
-2.66
-4.87
-7.07
-9.3
-11.71
-14.53
-17.97
-22.06
-26.54
-30.88
-34.28
-36.02
-35.68
-33.26
-29.22
-24.24
-18.95
-13.77
-8.82
-4.16
0.24
4.27
7.78
10.65
12.81
14.27
15.14
15.59
15.82
15.98
16.15
16.35
16.49
16.47
16.28
15.99
15.76
15.66
15.64
15.49
14.9
13.64
11.65
9.14
6.44
3.94
1.83
0.1
-1.55
-3.51
-6.12
-9.52
-13.55
-17.79
-21.69
-24.73
-26.5
-26.8
-25.64
-23.18
-19.74
-15.65
-11.22
-6.65
-2.03
2.59
7.06
11.08
14.26
16.25
16.93
16.56
15.63
14.65
13.98
13.7
13.64
13.55
13.29
12.83
12.31
11.83
11.45
11.16
10.86
10.41
9.66
8.49
6.89
4.96
2.9
0.96
-0.74
-2.22
-3.69
-5.49
-7.94
-11.24
-15.27
-19.65
-23.7
-26.68
-28
-27.37
-24.89
-21.01
-16.31
-11.37
-6.56
-2.1
1.99
5.71
9
11.78
13.9
15.3
15.99
16.13
15.95
15.67
15.44
15.26
15.03
14.6
13.91
12.97
11.94
11.03
10.38
9.97
9.63
9.08
8.06
6.45
4.38
2.15
0.16
-1.27
-2.01
-2.13
-1.89
-1.67
-1.82
-2.69
-4.5
-7.35
-11.08
-15.26
-19.22
-22.13
-23.24
-22.08
-18.69
-13.6
-7.7
-1.97
2.92
6.77
9.8
12.37
14.69
16.65
17.93
18.25
17.7
16.66
15.7
15.23
15.26
15.49
15.47
14.91
13.92
12.77
11.75
10.97
10.22
9.18
7.62
5.53
3.08
0.55
-1.93
-4.37
-6.89
-9.51
-12.13
-14.44
-16.21
-17.43
-18.37
-19.57
-21.56
-24.64
-28.73
-33.31
-37.57
-40.65
-41.84
-40.74
-37.32
-31.87
-24.98
-17.39
-9.96
-3.41
1.7
5.2
7.25
8.3
8.89
9.53
10.55
12.02
13.85
15.76
17.46
18.71
19.44
19.75
19.87
19.94
19.98
19.83
19.3
18.3
16.94
15.39
13.79
12.11
10.16
7.74
4.84
1.62
-1.65
-4.72
-7.47
-9.9
-12.05
-13.99
-15.84
-17.81
-20.26
-23.45
-27.39
-31.64
-35.33
-37.45
-37.21
-34.36
-29.36
-23.16
-16.78
-11.06
-6.4
-2.85
-0.25
1.55
2.77
3.59
4.24
4.95
5.8
6.67
7.35
7.61
7.41
6.92
6.39
6.06
5.98
6.03
6.03
5.8
5.24
4.33
3.16
1.79
0.38
-0.94
-2.08
-3.01
-3.81
-4.68
-5.9
-7.72
-10.29
-13.48
-16.86
-19.79
-21.53
-21.53
-19.58
-15.9
-11.03
-5.68
-0.47
4.22
8.16
11.36
13.81
15.58
16.67
17.06
16.81
16
14.85
13.61
12.49
11.57
10.8
10.05
9.22
8.35
7.59
7.1
6.85
6.67
6.17
5.08
3.36
1.24
-0.87
-2.64
-3.99
-5.14
-6.42
-8.14
-10.4
-13.12
-16.15
-19.32
-22.46
-25.34
-27.61
-28.83
-28.61
-26.76
-23.38
-18.9
-13.94
-9.09
-4.77
-1.15
1.85
4.41
6.72
8.85
10.69
12.14
13.12
13.71
14.12
14.55
15.05
15.44
15.45
14.92
13.92
12.8
12
11.85
12.3
13.02
13.47
13.25
12.15
10.32
8
5.41
2.68
-0.23
-3.38
-6.77
-10.34
-14.02
-17.72
-21.37
-24.86
-27.97
-30.3
-31.41
-30.95
-28.82
-25.2
-20.5
-15.19
-9.78
-4.55
0.31
4.66
8.41
11.44
13.56
14.66
14.81
14.23
13.32
12.46
11.96
11.86
12.04
12.26
12.31
12.13
11.78
11.38
10.98
10.52
9.87
8.81
7.26
5.18
2.66
-0.18
-3.13
-6.03
-8.78
-11.41
-14.1
-17.08
-20.47
-24.17
-27.8
-30.85
-32.81
-33.41
-32.6
-30.5
-27.22
-22.83
-17.42
-11.28
-4.92
0.96
5.78
9.33
11.83
13.74
15.45
17.09
18.48
19.34
19.5
19.1
18.49
18.04
17.97
18.25
18.64
18.88
18.8
18.38
17.7
16.86
15.91
14.81
13.49
11.87
9.97
7.84
5.59
3.3
1.02
-1.26
-3.59
-6.03
-8.66
-11.57
-14.89
-18.66
-22.87
-27.33
-31.64
-35.28
-37.65
-38.32
-37.09
-34.1
-29.73
-24.44
-18.65
-12.61
-6.49
-0.4
5.42
10.59
14.75
17.63
19.2
19.66
19.37
18.72
18.03
17.5
17.19
17.14
17.36
17.87
18.61
19.5
20.33
20.85
20.8
20.05
18.68
16.95
15.23
13.73
12.43
11
8.99
6.12
2.42
-1.65
-5.51
-8.67
-10.99
-12.76
-14.45
-16.55
-19.36
-22.86
-26.85
-30.98
-34.79
-37.71
-39.14
-38.44
-35.28
-29.77
-22.52
-14.51
-6.73
0.11
5.72
10.17
13.67
16.38
18.33
19.55
20.11
20.33
20.56
21.07
21.88
22.78
23.4
23.48
22.95
22
20.91
19.92
19.2
18.74
18.49
18.36
18.25
17.94
17.17
15.75
13.61
10.97
8.26
5.93
4.21
3.02
2.03
0.83
-0.85
-3.04
-5.58
-8.27
-10.96
-13.65
-16.43
-19.46
-22.89
-26.77
-31.01
-35.23
-38.86
-41.18
-41.49
-39.46
-35.12
-28.98
-21.76
-14.27
-7.12
-0.73
4.71
9.13
12.5
14.83
16.15
16.64
16.54
16.21
15.99
16.12
16.69
17.57
18.56
19.37
19.8
19.74
19.27
18.53
17.71
16.9
16.03
15
13.69
12.11
10.4
8.74
7.22
5.71
3.92
1.43
-1.99
-6.33
-11.27
-16.26
-20.78
-24.51
-27.44
-29.86
-32.23
-34.97
-38.4
-42.56
-47.13
-51.61
-55.19
-57.12
-56.76
-53.82
-48.5
-41.39
-33.38
-25.34
-17.92
-11.39
-5.69
-0.59
4.13
8.57
12.79
16.81
20.74
24.68
28.66
32.57
36.1
38.92
40.8
41.74
41.92
41.59
40.93
39.98
38.72
37.06
35.06
32.77
30.28
27.66
24.94
22.15
19.32
16.46
13.52
10.41
7.08
3.53
-0.07
-3.47
-6.45
-8.88
-10.8
-12.47
-14.26
-16.56
-19.6
-23.34
-27.38
-30.94
-33.1
-33.07
-30.59
-26.03
-20.25
-14.2
-8.6
-3.66
0.76
4.88
8.68
11.86
13.97
14.76
14.33
13.22
12.09
11.48
11.64
12.44
13.56
14.63
15.37
15.61
15.34
14.65
13.7
12.64
11.63
10.69
9.77
8.76
7.52
6
4.17
2.08
-0.23
-2.67
-5.16
-7.63
-10.01
-12.32
-14.66
-17.21
-20.1
-23.3
-26.5
-29.03
-30.13
-29.12
-25.75
-20.29
-13.56
-6.53
-0.07
5.32
9.53
12.72
15.09
16.67
17.47
17.5
16.93
16.08
15.33
14.95
14.91
14.99
14.87
14.39
13.65
12.98
12.68
12.74
12.83
12.4
10.99
8.49
5.27
1.93
-1
-3.29
-5.12
-6.91
-9.07
-11.84
-15.23
-19.1
-23.28
-27.52
-31.43
-34.48
-36.06
-35.65
-33.04
-28.42
-22.34
-15.49
-8.61
-2.17
3.55
8.49
12.65
15.98
18.38
19.76
20.12
19.63
18.63
17.52
16.65
16.21
16.1
16.07
15.87
15.4
14.77
14.2
13.83
13.66
13.47
12.98
11.92
10.16
7.72
4.71
1.34
-2.25
-5.96
-9.65
-13.21
-16.51
-19.51
-22.31
-25.16
-28.37
-32.18
-36.46
-40.67
-43.91
-45.21
-43.92
-39.92
-33.7
-26.09
-18
-10.11
-2.8
3.7
9.24
13.7
17.01
19.21
20.52
21.22
21.6
21.9
22.22
22.57
22.91
23.17
23.32
23.37
23.33
23.18
22.86
22.25
21.26
19.86
18.14
16.25
14.36
12.55
10.8
8.99
6.96
4.59
1.91
-1.01
-3.92
-6.58
-8.8
-10.56
-12.06
-13.67
-15.77
-18.6
-22.26
-26.57
-31.09
-35.15
-37.9
-38.48
-36.28
-31.19
-23.68
-14.61
-4.88
4.84
14.24
23.24
31.8
39.76
46.82
52.69
57.29
60.78
63.43
65.53
67.21
68.43
69.11
69.19
68.73
67.87
66.76
65.51
64.1
62.41
60.33
57.78
54.83
51.63
48.39
45.22
42.12
39.05
35.93
32.77
29.67
26.69
23.85
21.05
18.08
14.85
11.38
7.85
4.58
1.83
-0.34
-2.16
-4.12
-6.79
-10.66
-15.9
-22.35
-29.49
-36.56
-42.76
-47.35
-49.77
-49.74
-47.27
-42.75
-36.86
-30.43
-24.18
-18.56
-13.72
-9.64
-6.34
-3.99
-2.74
-2.6
-3.22
-3.96
-4.22
-3.76
-2.79
-1.89
-1.57
-2.01
-2.97
-3.99
-4.73
-5.18
-5.65
-6.57
-8.17
-10.38
-12.78
-14.82
-16.1
-16.58
-16.59
-16.69
-17.34
-18.7
-20.57
-22.51
-24.21
-25.68
-27.26
-29.44
-32.46
-36.31
-40.69
-45.27
-49.86
-54.28
-58.27
-61.24
-62.38
-61.01
-56.94
-50.65
-43.13
-35.49
-28.47
-22.36
-17.05
-12.38
-8.33
-5.11
-2.97
-2.01
-2.1
-2.96
-4.25
-5.71
-7.22
-8.74
-10.27
-11.89
-13.72
-15.85
-18.3
-20.93
-23.44
-25.5
-26.94
-27.81
-28.51
-29.56
-31.42
-34.22
-37.65
-40.98
-43.33
-43.93
-42.37
-38.75
-33.52
-27.35
-20.89
-14.68
-9.23
-5.03
-2.63
-2.36
-4.13
-7.12
-9.89
-10.69
-8.1
-1.59
8.23
19.85
31.4
41.33
48.83
53.83
56.71
57.89
57.61
55.92
52.92
48.82
44.07
39.16
34.49
30.33
26.76
23.83
21.6
20.17
19.55
19.58
19.92
20.1
19.66
18.36
16.23
13.59
10.9
8.56
6.76
5.44
4.36
3.24
1.87
0.1
-2.12
-4.78
-7.83
-11.14
-14.57
-18.05
-21.66
-25.6
-29.99
-34.65
-38.93
-41.8
-42.08
-38.97
-32.38
-23.05
-12.34
-1.66
7.94
16.08
22.9
28.74
33.75
37.75
40.37
41.27
40.43
38.2
35.13
31.74
28.42
25.3
22.54
20.28
18.75
18.18
18.58
19.79
21.43
23.13
24.51
25.44
25.89
25.92
25.53
24.57
22.83
20.11
16.45
12.09
7.42
2.82
-1.6
-5.96
-10.58
-15.77
-21.71
-28.27
-35.15
-41.83
-47.68
-52.04
-54.26
-53.89
-50.72
-44.89
-36.89
-27.43
-17.4
-7.67
0.93
7.89
12.95
16.38
18.75
20.76
22.98
25.57
28.28
30.62
32.14
32.64
32.27
31.37
30.32
29.32
28.38
27.38
26.12
24.47
22.33
19.75
16.81
13.69
10.59
7.63
4.81
1.97
-1.08
-4.49
-8.11
-11.65
-14.73
-17.15
-19.06
-20.87
-23.13
-26.24
-30.27
-34.9
-39.6
-43.77
-46.83
-48.34
-47.99
-45.58
-41.08
-34.68
-26.83
-18.11
-9.26
-0.97
6.18
11.82
15.75
18.04
18.98
19.04
18.77
18.6
18.7
18.97
19.16
19.02
18.51
17.77
17
16.36
15.86
15.41
14.9
14.25
13.41
12.29
10.78
8.74
6.2
3.33
0.46
-2.17
-4.54
-6.88
-9.56
-12.88
-16.89
-21.31
-25.61
-29.2
-31.53
-32.2
-31
-27.91
-23.11
-16.99
-10.09
-3.02
3.63
9.37
13.91
17.12
19.08
19.98
20.14
19.87
19.49
19.18
19.05
19.05
19.11
19.2
19.29
19.38
19.44
19.4
19.14
18.57
17.62
16.3
14.66
12.71
10.44
7.8
4.76
1.37
-2.21
-5.77
-9.13
-12.24
-15.17
-18.12
-21.27
-24.69
-28.31
-31.9
-35.12
-37.5
-38.62
-38.11
-35.83
-31.82
-26.35
-19.82
-12.73
-5.6
1.09
6.93
11.6
14.97
17.11
18.35
19.15
19.93
20.96
22.25
23.57
24.56
24.85
24.26
22.81
20.83
18.87
17.46
16.95
17.29
18.06
18.51
17.94
15.93
12.59
8.44
4.17
0.31
-2.94
-5.69
-8.18
-10.53
-12.7
-14.53
-16.01
-17.34
-19.03
-21.65
-25.62
-30.9
-36.98
-42.89
-47.52
-49.92
-49.52
-46.37
-41
-34.23
-26.87
-19.5
-12.33
-5.39
1.35
7.76
13.5
18.15
21.41
23.28
24.08
24.33
24.47
24.75
25.13
25.44
25.56
25.42
25.09
24.66
24.19
23.68
23.09
22.38
21.45
20.19
18.46
16.11
13.12
9.6
5.84
2.2
-1.02
-3.72
-6.01
-8.19
-10.66
-13.73
-17.54
-21.95
-26.57
-30.76
-33.84
-35.2
-34.53
-31.8
-27.31
-21.55
-15.11
-8.56
-2.36
3.11
7.62
11.09
13.55
15.2
16.26
16.99
17.59
18.11
18.51
18.68
18.46
17.77
16.65
15.29
14.06
13.29
13.16
13.53
14.02
14.13
13.48
11.91
9.58
6.78
3.83
0.96
-1.73
-4.2
-6.51
-8.77
-11.17
-13.91
-17.13
-20.73
-24.41
-27.64
-29.85
-30.64
-29.83
-27.46
-23.79
-19.16
-13.93
-8.42
-2.88
2.48
7.43
11.73
15.13
17.42
18.57
18.74
18.32
17.72
17.23
16.97
16.82
16.56
16.03
15.2
14.18
13.15
12.23
11.49
10.85
10.21
9.41
8.3
6.81
4.9
2.62
0.08
-2.7
-5.79
-9.35
-13.52
-18.24
-23.14
-27.51
-30.55
-31.57
-30.27
-26.82
-21.74
-15.71
-9.43
-3.43
1.98
6.65
10.59
13.82
16.34
18.11
19.1
19.3
18.84
18.03
17.22
16.79
16.9
17.48
18.24
18.77
18.74
18.02
16.72
15.11
13.56
12.29
11.3
10.32
8.97
6.9
4
0.39
-3.54
-7.3
-10.48
-12.87
-14.59
-16.01
-17.68
-20.1
-23.51
-27.86
-32.72
-37.44
-41.2
-43.19
-42.84
-39.85
-34.34
-26.83
-18.16
-9.26
-1.07
5.75
10.82
14.11
15.82
16.33
16.08
15.51
14.98
14.7
14.8
15.26
15.95
16.71
17.33
17.65
17.56
17.1
16.4
15.64
14.95
14.31
13.57
12.52
10.94
8.82
6.32
3.72
1.28
-0.91
-2.96
-5.07
-7.44
-10.16
-13.14
-16.28
-19.5
-22.89
-26.53
-30.32
-33.87
-36.54
-37.56
-36.35
-32.76
-27.17
-20.39
-13.38
-6.98
-1.72
2.25
5.09
7.14
8.72
10.08
11.28
12.25
12.9
13.13
12.96
12.48
11.82
11.05
10.24
9.38
8.53
7.8
7.32
7.21
7.42
7.75
7.86
7.46
6.39
4.74
2.8
0.95
-0.52
-1.58
-2.47
-3.67
-5.6
-8.53
-12.34
-16.62
-20.84
-24.36
-26.71
-27.55
-26.7
-24.18
-20.2
-15.23
-9.94
-5.02
-0.98
2.08
4.43
6.61
9.01
11.67
14.25
16.21
17.1
16.86
15.77
14.34
12.93
11.67
10.47
9.28
8.22
7.57
7.54
8.06
8.65
8.71
7.67
5.41
2.17
-1.52
-5.19
-8.57
-11.64
-14.66
-17.93
-21.71
-26.05
-30.79
-35.37
-38.96
-40.66
-39.78
-36.2
-30.39
-23.26
-15.85
-8.91
-2.74
2.77
7.85
12.57
16.76
20.07
22.21
23.09
22.85
21.69
19.83
17.41
14.57
11.49
8.46
5.82
3.78
2.34
1.32
0.36
-0.86
-2.46
-4.41
-6.54
-8.68
-10.71
-12.67
-14.69
-17
-19.79
-23.18
-27.14
-31.4
-35.5
-38.77
-40.54
-40.3
-37.77
-33.09
-26.68
-19.14
-11.09
-3.09
4.39
10.96
16.28
20.13
22.38
23.1
22.43
20.67
18.11
15.07
11.85
8.72
5.9
3.57
1.81
0.63
-0.01
-0.21
-0.16
-0.05
-0.14
-0.55
-1.36
-2.47
-3.77
-5.24
-6.96
-9.17
-12.06
-15.78
-20.24
-25.05
-29.54
-32.9
-34.31
-33.26
-29.71
-24.06
-17.13
-9.78
-2.69
3.82
9.71
15.02
19.69
23.58
26.5
28.39
29.41
29.86
30.08
30.33
30.67
31.07
31.39
31.49
31.34
30.97
30.49
29.99
29.46
28.76
27.7
26.13
24.01
21.44
18.62
15.62
12.47
9.07
5.35
1.35
-2.78
-6.91
-10.97
-15.1
-19.54
-24.53
-30.11
-36.04
-41.76
-46.46
-49.32
-49.73
-47.48
-42.84
-36.44
-29.01
-21.15
-13.21
-5.23
2.76
10.68
18.19
24.78
29.89
33.23
34.82
35.03
34.49
33.85
33.56
33.8
34.44
35.23
35.94
36.44
36.78
37
37.08
36.9
36.3
35.14
33.49
31.48
29.31
27.14
25.04
22.97
20.9
18.8
16.63
14.44
12.21
9.98
7.79
5.65
3.53
1.32
-1.1
-3.77
-6.62
-9.46
-12.1
-14.44
-16.62
-18.96
-21.85
-25.63
-30.32
-35.54
-40.57
-44.41
-46.04
-44.82
-40.54
-33.55
-24.64
-14.71
-4.61
5.1
14.18
22.69
30.86
38.9
46.8
54.22
60.48
64.81
66.64
65.8
62.74
58.27
53.35
48.72
44.75
41.45
38.65
36.24
34.13
32.37
30.96
29.81
28.7
27.33
25.45
22.9
19.67
15.89
11.79
7.68
3.85
0.46
-2.52
-5.32
-8.33
-11.94
-16.35
-21.5
-27.07
-32.52
-37.23
-40.73
-42.81
-43.66
-43.78
-43.88
-44.62
-46.44
-49.42
-53.27
-57.49
-61.43
-64.48
-66.1
-65.89
-63.7
-59.64
-54.1
-47.59
-40.54
-33.23
-25.78
-18.31
-11.01
-4.19
1.86
6.99
11.3
15.02
18.45
21.69
24.65
27.11
28.96
30.25
31.27
32.33
33.55
34.82
35.73
35.83
34.78
32.45
28.96
24.65
19.9
15.07
10.38
5.9
1.63
-2.5
-6.47
-10.18
-13.47
-16.18
-18.3
-19.94
-21.35
-22.74
-24.22
-25.75
-27.18
-28.45
-29.68
-31.16
-33.24
-36.09
-39.51
-42.93
-45.54
-46.61
-45.72
-42.84
-38.32
-32.7
-26.53
-20.2
-13.94
-7.8
-1.77
4.19
10.07
15.69
20.77
24.95
27.93
29.61
30.11
29.74
28.79
27.4
25.53
23.11
20.25
17.28
14.72
13.02
12.38
12.63
13.37
14.14
14.62
14.62
14.03
12.72
10.52
7.37
3.39
-1.06
-5.46
-9.37
-12.58
-15.19
-17.56
-20.08
-23.03
-26.56
-30.66
-35.11
-39.55
-43.41
-45.95
-46.41
-44.22
-39.14
-31.49
-21.94
-11.37
-0.63
9.63
18.96
27.04
33.6
38.43
41.54
43.17
43.8
43.98
44.08
44.11
43.71
42.37
39.68
35.56
30.38
24.78
19.5
15.21
12.32
11.07
11.51
13.47
16.55
20.1
23.3
25.36
25.82
24.71
22.55
20.04
17.75
15.82
14.05
12.04
9.49
6.33
2.62
-1.63
-6.5
-11.97
-17.8
-23.25
-27.3
-29
-27.88
-24.18
-18.64
-12.18
-5.53
0.86
6.75
11.84
15.72
18
18.45
17.26
14.96
12.27
9.84
8.08
7.04
6.57
6.38
6.13
5.41
3.7
0.45
-4.77
-12.03
-20.91
-30.61
-40.17
-48.9
-56.52
-63.21
-69.23
-74.71
-79.52
-83.46
-86.54
-89.2
-92.17
-96.15
-101.28
-106.91
-111.7
-114.13
-113.17
-108.69
-101.48
-92.84
-83.86
-74.98
-65.76
-55.17
-42.23
-26.45
-8.23
11.41
31.17
49.95
66.97
81.82
94.31
104.42
112.4
118.86
124.61
130.33
136.04
140.82
142.96
140.54
132.26
117.91
98.54
75.93
51.99
28.28
5.9
-14.21
-31.04
-43.57
-51.01
-53.3
-51.39
-46.99
-42.12
-38.42
-36.61
-36.48
-37.21
-37.79
-37.57
-36.35
-34.29
-31.73
-28.86
-25.77
-22.36
-18.44
-13.8
-8.21
-1.52
6.24
14.74
23.35
31.29
37.85
42.63
45.58
46.96
47.13
46.41
45.05
43.26
41.34
39.67
38.57
38.14
38.1
37.77
36.17
32.37
25.79
16.45
4.95
-7.63
-20.21
-31.93
-42.27
-50.99
-57.83
-62.39
-64.18
-62.79
-58.19
-50.75
-41.22
-30.43
-19.2
-8.2
1.92
10.55
17.2
21.6
23.84
24.26
23.38
21.66
19.43
16.92
14.37
12.06
10.32
9.4
9.38
10.15
11.49
13.19
15.09
17.1
19.08
20.78
21.77
21.56
19.77
16.27
11.26
5.1
-1.81
-9.27
-17.17
-25.42
-33.7
-41.25
-47.07
-50.18
-49.99
-46.59
-40.68
-33.34
-25.55
-17.98
-10.81
-4.03
2.33
7.94
12.31
14.97
15.74
14.89
13.03
10.83
8.76
6.99
5.52
4.34
3.52
3.1
3.01
2.95
2.51
1.39
-0.43
-2.69
-5
-7.17
-9.18
-11.29
-13.83
-17.02
-20.86
-25.16
-29.52
-33.41
-36.21
-37.39
-36.53
-33.6
-28.83
-22.71
-15.8
-8.63
-1.63
4.79
10.27
14.57
17.56
19.34
20.11
20.16
19.69
18.82
17.65
16.29
14.96
13.84
13.03
12.44
11.85
11.04
9.87
8.32
6.46
4.35
2.02
-0.47
-3.11
-5.82
-8.58
-11.46
-14.66
-18.31
-22.43
-26.78
-30.86
-34.02
-35.63
-35.19
-32.51
-27.67
-21.1
-13.48
-5.59
1.85
8.36
13.78
18.17
21.63
24.21
25.86
26.49
26.19
25.23
24
22.81
21.79
20.78
19.51
17.7
15.33
12.54
9.63
6.96
4.72
2.98
1.68
0.65
-0.3
-1.37
-2.7
-4.39
-6.46
-8.9
-11.67
-14.74
-18.13
-21.7
-25.21
-28.14
-29.78
-29.5
-26.93
-22.24
-16.06
-9.29
-2.7
3.3
8.66
13.56
18.05
21.93
24.76
26.2
26.27
25.37
24.15
23.18
22.68
22.5
22.29
21.74
20.78
19.51
18.1
16.66
15.15
13.39
11.21
8.49
5.32
1.89
-1.52
-4.66
-7.39
-9.7
-11.78
-13.88
-16.29
-19.14
-22.32
-25.47
-28.03
-29.41
-29.16
-27.03
-23.05
-17.48
-10.71
-3.2
4.45
11.6
17.56
21.81
24.08
24.55
23.71
22.24
20.69
19.34
18.21
17.15
15.99
14.71
13.34
11.95
10.59
9.25
7.93
6.69
5.62
4.77
4.13
3.46
2.45
0.79
-1.65
-4.76
-8.2
-11.59
-14.79
-17.9
-21.16
-24.63
-28.08
-30.84
-32.11
-31.29
-28.22
-23.33
-17.33
-10.96
-4.69
1.33
7.09
12.48
17.16
20.63
22.52
22.74
21.63
19.84
18.02
16.56
15.54
14.74
13.91
12.96
12.07
11.49
11.4
11.66
11.89
11.57
10.34
8.15
5.31
2.31
-0.39
-2.63
-4.57
-6.65
-9.35
-12.95
-17.38
-22.28
-27.02
-30.96
-33.49
-34.09
-32.46
-28.56
-22.72
-15.61
-8.11
-1.12
4.74
9.23
12.52
14.86
16.43
17.19
16.97
15.75
13.76
11.48
9.4
7.84
6.82
6.15
5.58
4.99
4.37
3.75
3.1
2.3
1.21
-0.26
-2.06
-4.04
-6.01
-7.89
-9.73
-11.71
-14.07
-17.05
-20.71
-24.92
-29.22
-32.95
-35.35
-35.82
-34.05
-30.13
-24.54
-17.97
-11.16
-4.7
1.05
5.93
9.93
13.07
15.3
16.55
16.76
16.01
14.55
12.82
11.34
10.45
10.23
10.48
10.73
10.57
9.71
8.19
6.28
4.33
2.61
1.11
-0.35
-2.08
-4.3
-7.05
-10.29
-13.87
-17.7
-21.65
-25.46
-28.72
-30.83
-31.15
-29.28
-25.18
-19.31
-12.42
-5.36
1.18
6.77
11.24
14.57
16.73
17.75
17.69
16.72
15.13
13.26
11.47
9.96
8.8
7.89
7.06
6.19
5.23
4.17
3.07
1.93
0.73
-0.63
-2.31
-4.48
-7.29
-10.85
-15.13
-19.98
-24.98
-29.52
-32.85
-34.26
-33.33
-30.07
-24.89
-18.48
-11.55
-4.62
2.01
8.17
13.68
18.23
21.48
23.16
23.24
22.01
19.99
17.79
15.88
14.56
13.86
13.6
13.57
13.56
13.4
13
12.26
11.05
9.28
6.86
3.86
0.43
-3.21
-6.93
-10.79
-14.95
-19.43
-23.95
-27.83
-30.16
-30.1
-27.29
-21.98
-14.93
-7.1
0.68
7.92
14.43
20.12
24.9
28.54
30.89
31.97
31.97
31.2
29.93
28.28
26.3
24.09
21.91
20.09
18.9
18.31
17.92
17.12
15.4
12.63
9.11
5.36
1.86
-1.17
-3.81
-6.24
-8.74
-11.58
-15.04
-19.27
-24.25
-29.51
-34.15
-37.1
-37.42
-34.71
-29.23
-21.73
-13.17
-4.35
4.14
11.88
18.5
23.63
27.09
28.96
29.7
29.96
30.37
31.23
32.57
34.05
35.31
36.06
36.13
35.55
34.44
33.05
31.63
30.39
29.44
28.68
27.8
26.43
24.36
21.55
18.2
14.6
11
7.48
4.04
0.62
-2.76
-6.03
-9.08
-11.92
-14.63
-17.38
-20.39
-23.87
-27.98
-32.85
-38.47
-44.51
-50.27
-54.72
-56.78
-55.67
-51.29
-44.15
-35.28
-25.72
-16.24
-7.15
1.48
9.61
17.06
23.44
28.36
31.61
33.32
33.95
34.07
34.22
34.65
35.39
36.18
36.81
37.14
37.24
37.28
37.4
37.57
37.6
37.21
36.18
34.51
32.42
30.18
27.97
25.79
23.47
20.89
17.99
14.88
11.78
8.84
6.12
3.6
1.17
-1.25
-3.73
-6.28
-8.88
-11.55
-14.32
-17.27
-20.48
-24.06
-28.11
-32.67
-37.71
-43.08
-48.45
-53.28
-56.85
-58.39
-57.25
-53.15
-46.32
-37.49
-27.69
-17.97
-9.05
-1.31
5.27
10.79
15.35
18.97
21.66
23.53
24.79
25.75
26.64
27.53
28.39
29.1
29.6
29.9
30.1
30.24
30.35
30.33
30.08
29.49
28.49
27.06
25.23
23.12
20.89
18.73
16.76
15.03
13.48
12.02
10.54
8.93
7.07
4.77
1.91
-1.53
-5.29
-8.95
-12.1
-14.57
-16.52
-18.34
-20.51
-23.28
-26.71
-30.66
-34.87
-38.99
-42.56
-44.98
-45.67
-44.19
-40.54
-35.1
-28.55
-21.54
-14.48
-7.56
-0.88
5.35
10.75
14.91
17.67
19.17
19.91
20.42
21.05
21.81
22.48
22.83
22.79
22.51
22.27
22.26
22.49
22.81
23
22.93
22.59
22.05
21.35
20.46
19.23
17.54
15.28
12.46
9.29
6.01
2.9
0.13
-2.19
-4.13
-5.76
-7.25
-8.7
-10.3
-12.19
-14.47
-17.25
-20.59
-24.5
-28.85
-33.35
-37.43
-40.37
-41.45
-40.13
-36.35
-30.56
-23.58
-16.29
-9.4
-3.29
1.96
6.39
10.06
13
15.24
16.8
17.76
18.2
18.24
17.99
17.58
17.13
16.75
16.49
16.35
16.28
16.24
16.22
16.2
16.08
15.62
14.6
12.86
10.54
7.95
5.49
3.41
1.71
0.12
-1.72
-4.04
-6.85
-9.91
-12.85
-15.39
-17.5
-19.39
-21.48
-24.19
-27.71
-31.83
-35.88
-38.94
-40.16
-39.06
-35.77
-30.89
-25.27
-19.64
-14.32
-9.31
-4.39
0.56
5.39
9.7
13.02
15.11
15.99
16.01
15.68
15.43
15.44
15.65
15.91
16.05
16.05
15.96
15.78
15.42
14.69
13.38
11.41
8.93
6.22
3.64
1.38
-0.48
-2.09
-3.58
-5.05
-6.58
-8.27
-10.28
-12.88
-16.2
-20.14
-24.33
-28.13
-30.82
-31.8
-30.74
-27.7
-23
-17.26
-11.15
-5.28
-0.04
4.45
8.19
11.21
13.45
14.73
14.99
14.35
13.24
12.17
11.57
11.5
11.76
12.02
12.05
11.76
11.22
10.48
9.49
8.18
6.52
4.63
2.74
1.05
-0.41
-1.78
-3.29
-5.15
-7.4
-10.03
-13
-16.31
-19.9
-23.52
-26.73
-28.9
-29.46
-28.12
-25
-20.55
-15.41
-10.12
-5.06
-0.38
3.84
7.53
10.57
12.86
14.38
15.25
15.7
15.93
16.02
15.87
15.3
14.19
12.61
10.84
9.33
8.48
8.42
8.95
9.6
9.79
9.11
7.46
5.04
2.2
-0.69
-3.45
-6.11
-8.8
-11.65
-14.74
-18.11
-21.8
-25.76
-29.85
-33.61
-36.3
-37.12
-35.6
-31.78
-26.3
-20.08
-13.91
-8.14
-2.73
2.49
7.5
11.96
15.33
17.17
17.5
16.74
15.55
14.54
14.02
13.99
14.25
14.58
14.78
14.72
14.32
13.57
12.53
11.35
10.23
9.28
8.44
7.5
6.18
4.31
1.9
-0.85
-3.7
-6.52
-9.36
-12.35
-15.56
-18.9
-22.19
-25.26
-28.16
-31.1
-34.31
-37.75
-40.99
-43.25
-43.72
-41.92
-37.9
-32.18
-25.56
-18.72
-12.13
-5.96
-0.3
4.76
9.02
12.25
14.36
15.43
15.76
15.73
15.68
15.82
16.19
16.67
17.09
17.33
17.33
17.11
16.71
16.15
15.4
14.42
13.17
11.66
9.91
7.98
5.92
3.8
1.63
-0.55
-2.75
-5
-7.34
-9.79
-12.29
-14.84
-17.48
-20.35
-23.61
-27.22
-30.85
-33.76
-35.11
-34.14
-30.6
-24.78
-17.52
-9.82
-2.51
3.92
9.36
13.92
17.74
20.79
23
24.26
24.56
24.09
23.24
22.46
22.13
22.35
22.94
23.45
23.47
22.79
21.54
20.06
18.7
17.57
16.49
15.16
13.44
11.5
9.72
8.46
7.7
6.94
5.46
2.7
-1.39
-6.25
-11
-14.87
-17.62
-19.57
-21.45
-23.96
-27.49
-31.97
-36.92
-41.66
-45.48
-47.72
-47.92
-45.78
-41.32
-34.9
-27.19
-18.98
-11.03
-3.79
2.58
8.13
12.93
16.9
19.88
21.72
22.55
22.73
22.81
23.2
24.01
25.01
25.81
26.12
25.87
25.27
24.58
23.96
23.38
22.72
21.81
20.61
19.14
17.5
15.75
13.94
12.04
10
7.79
5.33
2.59
-0.36
-3.38
-6.27
-8.83
-11.01
-13.02
-15.23
-18.03
-21.69
-26.19
-31.28
-36.49
-41.32
-45.25
-47.85
-48.77
-47.77
-44.76
-39.85
-33.36
-25.79
-17.76
-9.85
-2.59
3.65
8.71
12.58
15.45
17.57
19.26
20.8
22.38
24.04
25.65
26.96
27.66
27.61
26.92
25.96
25.17
24.8
24.76
24.69
24.15
22.95
21.23
19.35
17.63
16.12
14.62
12.79
10.44
7.63
4.63
1.75
-0.88
-3.38
-5.96
-8.86
-12.1
-15.51
-18.82
-21.9
-24.79
-27.79
-31.24
-35.29
-39.66
-43.59
-46.12
-46.42
-44.16
-39.6
-33.39
-26.38
-19.19
-12.18
-5.46
0.87
6.72
11.88
16.11
19.23
21.17
22.02
22
21.45
20.7
20.06
19.7
19.63
19.85
20.26
20.85
21.53
22.15
22.45
22.15
21.09
19.37
17.28
15.21
13.46
12.03
10.65
9.04
6.9
4.21
1.13
-2.15
-5.51
-8.91
-12.37
-15.83
-19.16
-22.21
-25.01
-27.82
-31.01
-34.82
-39.08
-43.09
-45.78
-46.12
-43.54
-38.19
-30.9
-22.81
-14.96
-7.96
-1.96
3.23
7.81
11.78
14.89
16.89
17.63
17.36
16.59
15.95
15.86
16.4
17.33
18.25
18.92
19.3
19.49
19.58
19.54
19.26
18.65
17.75
16.66
15.46
14.14
12.56
10.57
8.13
5.39
2.6
0.01
-2.28
-4.37
-6.5
-8.94
-11.93
-15.6
-19.97
-24.95
-30.27
-35.46
-39.88
-42.8
-43.63
-42.03
-38.03
-32.09
-24.86
-17.08
-9.32
-2.01
4.58
10.19
14.56
17.53
19.07
19.43
19
18.3
17.75
17.52
17.62
17.88
18.13
18.31
18.45
18.59
18.72
18.7
18.32
17.34
15.64
13.27
10.45
7.46
4.54
1.76
-0.91
-3.66
-6.62
-9.92
-13.6
-17.66
-22.04
-26.52
-30.67
-33.83
-35.35
-34.71
-31.84
-27.1
-21.11
-14.54
-7.9
-1.5
4.48
9.83
14.32
17.74
20
21.23
21.72
21.84
21.94
22.28
22.91
23.77
24.66
25.38
25.78
25.8
25.45
24.76
23.74
22.37
20.63
18.51
15.99
13.11
9.87
6.41
2.89
-0.44
-3.41
-5.96
-8.35
-10.97
-14.18
-18.14
-22.73
-27.67
-32.62
-37.44
-42.01
-46.19
-49.55
-51.43
-51.16
-48.31
-42.97
-35.71
-27.38
-18.81
-10.54
-2.85
4.2
10.6
16.26
21.06
24.84
27.53
29.22
30.1
30.53
30.8
31.18
31.71
32.24
32.5
32.24
31.42
30.18
28.76
27.32
25.91
24.37
22.55
20.35
17.86
15.24
12.64
10.07
7.4
4.46
1.17
-2.4
-6.06
-9.62
-12.98
-16.3
-19.86
-23.95
-28.69
-33.89
-39.05
-43.46
-46.35
-47
-44.93
-39.9
-32.1
-22.11
-10.85
0.65
11.49
21.07
29.15
35.72
40.8
44.41
46.54
47.34
47.15
46.49
45.81
45.33
45.01
44.6
43.89
42.82
41.53
40.26
39.14
38.16
37.23
36.2
35.08
33.9
32.72
31.53
30.22
28.62
26.68
24.45
22.06
19.61
17.11
14.46
11.57
8.41
5.05
1.65
-1.63
-4.64
-7.33
-9.67
-11.72
-13.6
-15.54
-17.77
-20.51
-23.91
-28.15
-33.26
-39.19
-45.59
-51.76
-56.77
-59.68
-59.88
-57.38
-52.82
-47.14
-41.21
-35.48
-29.95
-24.45
-18.91
-13.54
-8.83
-5.22
-2.93
-1.77
-1.31
-1.03
-0.53
0.34
1.55
2.96
4.42
5.73
6.79
7.52
7.97
8.29
8.68
9.3
10.17
11.27
12.55
14.03
15.73
17.67
19.73
21.73
23.48
24.93
26.14
27.24
28.3
29.27
29.98
30.29
30.07
29.25
27.71
25.32
21.94
17.51
12.1
5.92
-0.78
-7.76
-14.77
-21.54
-27.74
-33.13
-37.61
-41.34
-44.69
-48.02
-51.48
-54.84
-57.51
-58.69
-57.68
-54.01
-47.48
-38.04
-25.65
-10.29
7.94
28.57
50.67
72.93
93.85
112
126.25
135.92
140.75
140.96
137.1
129.99
120.57
109.74
98.26
86.67
75.34
64.54
54.42
45.07
36.51
28.78
21.86
15.63
9.8
3.89
-2.69
-10.27
-18.66
-27.16
-34.69
-40.26
-43.31
-43.82
-42.24
-39.17
-35.25
-30.92
-26.48
-22.14
-18.09
-14.47
-11.43
-9.15
-7.76
-7.32
-7.73
-8.71
-9.85
-10.78
-11.29
-11.42
-11.38
-11.36
-11.4
-11.41
-11.21
-10.7
-10.01
-9.38
-9.09
-9.38
-10.29
-11.6
-13
-14.13
-14.85
-15.25
-15.65
-16.48
-18.06
-20.48
-23.57
-27.01
-30.53
-33.9
-36.94
-39.33
-40.63
-40.3
-38.03
-33.91
-28.55
-22.82
-17.5
-12.99
-9.24
-5.91
-2.73
0.35
3.08
5.09
6.17
6.3
5.74
4.76
3.63
2.47
1.26
-0.02
-1.41
-2.85
-4.29
-5.63
-6.84
-7.97
-9.13
-10.53
-12.31
-14.61
-17.42
-20.73
-24.44
-28.51
-32.87
-37.45
-42.19
-47.02
-51.93
-57.02
-62.4
-68.12
-74.04
-79.76
-84.67
-88.08
-89.47
-88.63
-85.82
-81.59
-76.7
-71.88
-67.67
-64.39
-62.09
-60.65
-59.87
-59.57
-59.67
-60.11
-60.84
-61.54
-61.65
-60.38
-56.97
-50.92
-42.18
-31.2
-18.7
-5.51
7.7
20.32
31.79
41.56
49.1
54.12
56.74
57.51
57.23
56.57
55.83
54.85
53.26
50.75
47.3
43.22
38.9
34.65
30.53
26.39
22.04
17.46
12.75
8.12
3.79
-0.18
-3.8
-7.15
-10.32
-13.39
-16.35
-19.15
-21.59
-23.26
-23.67
-22.33
-18.94
-13.54
-6.55
1.37
9.5
17.27
24.33
30.54
35.82
40.1
43.25
45.17
45.88
45.58
44.54
43.08
41.48
39.87
38.34
36.89
35.57
34.39
33.41
32.67
32.14
31.72
31.21
30.4
29.15
27.49
25.62
23.81
22.35
21.29
20.48
19.59
18.25
16.26
13.6
10.46
7.09
3.67
0.37
-2.75
-5.62
-8.19
-10.43
-12.44
-14.41
-16.61
-19.28
-22.46
-25.83
-28.81
-30.65
-30.72
-28.77
-24.97
-19.92
-14.34
-8.86
-3.87
0.55
4.45
7.85
10.65
12.7
13.91
14.46
14.64
14.85
15.31
16
16.68
17.08
17.05
16.64
16.1
15.64
15.38
15.27
15.18
14.98
14.61
14.07
13.33
12.38
11.15
9.62
7.88
6.04
4.3
2.82
1.65
0.73
-0.08
-1.02
-2.3
-4.05
-6.29
-8.88
-11.61
-14.17
-16.21
-17.42
-17.62
-16.71
-14.71
-11.79
-8.23
-4.37
-0.57
2.87
5.81
8.21
10.18
11.79
13.09
14.03
14.49
14.34
13.61
12.45
11.17
10.1
9.41
9.08
8.91
8.65
8.15
7.44
6.68
6.05
5.64
5.37
5.08
4.65
3.97
3.09
2.02
0.76
-0.72
-2.41
-4.22
-6
-7.65
-9.18
-10.74
-12.44
-14.19
-15.64
-16.28
-15.72
-13.88
-11.16
-8.14
-5.33
-2.93
-0.78
1.46
4.02
6.81
9.48
11.58
12.78
13.05
12.56
11.63
10.57
9.58
8.8
8.28
7.97
7.82
7.69
7.42
6.87
6.01
4.91
3.78
2.85
2.24
1.94
1.79
1.55
1.09
0.39
-0.5
-1.43
-2.35
-3.25
-4.18
-5.24
-6.45
-7.86
-9.49
-11.35
-13.42
-15.57
-17.61
-19.22
-20.01
-19.6
-17.71
-14.37
-9.93
-5.09
-0.62
2.89
5.22
6.57
7.34
7.97
8.64
9.3
9.75
9.82
9.47
8.79
7.98
7.21
6.58
6.14
5.91
5.89
6.15
6.67
7.33
7.81
7.73
6.75
4.9
2.55
0.31
-1.35
-2.33
-2.94
-3.7
-4.96
-6.66
-8.4
-9.71
-10.37
-10.59
-10.86
-11.63
-13.07
-15.03
-17.17
-19.25
-21.23
-23.24
-25.32
-27.26
-28.59
-28.69
-27.2
-24.19
-20.16
-15.82
-11.81
-8.43
-5.58
-3
-0.4
2.33
5.05
7.53
9.5
10.72
11.09
10.69
9.75
8.64
7.75
7.36
7.46
7.87
8.27
8.5
8.58
8.66
8.92
9.31
9.64
9.59
8.95
7.72
6.12
4.46
2.94
1.63
0.41
-0.87
-2.26
-3.76
-5.31
-6.88
-8.46
-10.07
-11.65
-13.16
-14.53
-15.78
-17.04
-18.53
-20.44
-22.88
-25.77
-28.81
-31.6
-33.61
-34.41
-33.75
-31.61
-28.2
-23.89
-19.14
-14.35
-9.84
-5.81
-2.32
0.58
2.92
4.65
5.66
5.82
5.12
3.75
2.12
0.79
0.21
0.49
1.39
2.44
3.13
3.25
2.81
2.08
1.3
0.56
-0.15
-0.98
-1.96
-3.02
-3.96
-4.64
-5.03
-5.29
-5.7
-6.53
-7.91
-9.77
-11.88
-13.98
-15.81
-17.27
-18.37
-19.25
-20.09
-21.03
-22.14
-23.36
-24.48
-25.14
-25.01
-23.82
-21.43
-17.83
-13.07
-7.26
-0.65
6.4
13.36
19.67
24.8
28.41
30.43
30.99
30.39
29.07
27.47
25.97
24.7
23.66
22.67
21.57
20.37
19.16
18.13
17.34
16.72
16.03
15.09
13.84
12.35
10.81
9.32
7.83
6.23
4.37
2.17
-0.39
-3.2
-6.12
-8.94
-11.46
-13.55
-15.28
-16.93
-18.87
-21.44
-24.73
-28.49
-32.12
-34.86
-36.05
-35.25
-32.36
-27.65
-21.62
-14.89
-8.07
-1.67
3.96
8.59
12.12
14.49
15.75
16.15
15.98
15.57
15.15
14.83
14.55
14.26
13.98
13.78
13.67
13.59
13.32
12.64
11.54
10.2
8.98
8.09
7.42
6.61
5.19
2.92
-0.06
-3.34
-6.43
-9.05
-11.27
-13.41
-15.93
-19.12
-23.03
-27.4
-31.69
-35.27
-37.5
-37.84
-36
-31.93
-25.97
-18.72
-10.94
-3.34
3.61
9.76
15.22
20.21
24.8
28.82
31.92
33.72
34.06
33.14
31.39
29.31
27.19
25.11
22.97
20.8
18.85
17.62
17.58
18.89
21.18
23.57
24.98
24.56
21.99
17.59
12.07
6.21
0.59
-4.58
-9.38
-13.94
-18.35
-22.6
-26.57
-30.21
-33.5
-36.41
-38.68
-39.83
-39.24
-36.38
-31.06
-23.63
-14.86
-5.73
2.84
10.2
16.07
20.41
23.38
25.21
26.19
26.66
26.92
27.24
27.65
27.99
27.92
27.05
25.19
22.4
19.07
15.7
12.74
10.36
8.46
6.65
4.57
2.04
-0.71
-3.19
-4.84
-5.35
-4.82
-3.75
-2.86
-2.79
-3.99
-6.59
-10.54
-15.64
-21.54
-27.79
-33.71
-38.51
-41.4
-41.83
-39.61
-34.95
-28.36
-20.5
-12.04
-3.59
4.29
11.12
16.49
20.15
22.02
22.36
21.6
20.33
19.03
17.98
17.24
16.72
16.39
16.25
16.41
16.85
17.43
17.86
17.82
17.13
15.84
14.08
12
9.62
6.87
3.67
0.04
-3.94
-8.11
-12.46
-17.06
-21.95
-26.93
-31.42
-34.55
-35.43
-33.57
-29.07
-22.56
-14.94
-6.97
0.86
8.32
15.24
21.32
26.15
29.33
30.73
30.49
29.11
27.17
25.22
23.61
22.53
21.91
21.55
21.17
20.45
19.29
17.73
15.9
13.95
11.95
9.8
7.41
4.77
1.98
-0.8
-3.46
-6.09
-8.96
-12.41
-16.7
-21.84
-27.41
-32.65
-36.53
-38.11
-36.74
-32.39
-25.58
-17.24
-8.32
0.42
8.52
15.78
22.02
27.05
30.66
32.76
33.49
33.2
32.29
31.1
29.8
28.42
26.96
25.49
24.13
23.01
22.22
21.71
21.3
20.66
19.43
17.33
14.29
10.54
6.49
2.61
-0.76
-3.54
-5.95
-8.39
-11.28
-14.94
-19.48
-24.75
-30.33
-35.53
-39.47
-41.29
-40.34
-36.37
-29.61
-20.77
-10.85
-1
7.81
14.94
20.26
24.05
26.84
29.05
30.8
31.97
32.32
31.82
30.76
29.66
29.03
29.02
29.33
29.44
28.91
27.61
25.77
23.77
21.87
20.02
17.94
15.32
12.05
8.35
4.6
1.13
-1.88
-4.51
-7.01
-9.59
-12.33
-15.26
-18.37
-21.69
-25.28
-29.08
-32.82
-35.9
-37.51
-36.87
-33.52
-27.55
-19.59
-10.63
-1.69
6.44
13.35
18.95
23.31
26.58
28.86
30.24
30.82
30.77
30.28
29.55
28.79
28.13
27.68
27.44
27.33
27.19
26.88
26.3
25.48
24.51
23.47
22.38
21.11
19.51
17.44
14.95
12.23
9.52
7.01
4.74
2.59
0.37
-2.01
-4.52
-6.95
-9.07
-10.77
-12.11
-13.36
-14.8
-16.7
-19.15
-22.11
-25.49
-29.14
-32.95
-36.64
-39.76
-41.64
-41.64
-39.3
-34.63
-28.11
-20.56
-12.83
-5.58
0.85
6.33
10.88
14.52
17.24
19.08
20.1
20.48
20.42
20.07
19.53
18.83
17.97
16.97
15.92
14.96
14.21
13.79
13.64
13.64
13.52
13.07
12.2
11.02
9.76
8.61
7.69
6.93
6.19
5.28
4.08
2.54
0.67
-1.5
-3.9
-6.41
-8.88
-11.1
-12.95
-14.43
-15.72
-17.09
-18.84
-21.16
-24.01
-27.14
-30.06
-32.21
-33.09
-32.37
-29.96
-25.96
-20.65
-14.42
-7.77
-1.26
4.56
9.23
12.52
14.49
15.44
15.72
15.63
15.25
14.53
13.41
11.99
10.59
9.64
9.47
10.07
11.07
11.84
11.85
10.91
9.27
7.46
6.04
5.29
5.05
4.85
4.15
2.62
0.27
-2.64
-5.72
-8.58
-11.01
-12.93
-14.46
-15.79
-17.21
-18.91
-20.92
-23.08
-25.01
-26.24
-26.36
-25.14
-22.63
-19.07
-14.84
-10.26
-5.63
-1.19
2.84
6.2
8.63
9.97
10.26
9.75
8.8
7.82
7.07
6.64
6.45
6.37
6.26
6.03
5.66
5.2
4.75
4.46
4.35
4.36
4.28
3.86
3
1.72
0.19
-1.42
-3
-4.54
-6.07
-7.55
-8.97
-10.32
-11.78
-13.59
-15.99
-18.98
-22.22
-25.1
-26.89
-27.09
-25.47
-22.21
-17.76
-12.74
-7.72
-3.16
0.72
3.83
6.21
7.93
9.05
9.73
10.15
10.52
11.01
11.62
12.2
12.5
12.36
11.81
11.02
10.27
9.68
9.17
8.56
7.71
6.55
5.25
3.97
2.81
1.73
0.57
-0.75
-2.25
-3.8
-5.28
-6.61
-7.87
-9.25
-10.91
-12.95
-15.34
-17.99
-20.7
-23.21
-25.26
-26.53
-26.81
-26.03
-24.3
-21.8
-18.74
-15.28
-11.5
-7.54
-3.56
0.17
3.43
6.04
7.97
9.29
10.11
10.55
10.75
10.81
10.85
10.95
11.1
11.24
11.29
11.21
11.01
10.78
10.66
10.72
10.97
11.28
11.46
11.28
10.54
9.18
7.25
4.96
2.58
0.4
-1.4
-2.83
-4.01
-5.16
-6.49
-8.03
-9.64
-11.14
-12.4
-13.52
-14.74
-16.36
-18.59
-21.43
-24.66
-27.96
-30.97
-33.29
-34.54
-34.38
-32.6
-29.22
-24.53
-18.98
-13.11
-7.3
-1.84
3.1
7.33
10.65
12.93
14.22
14.8
15.02
15.19
15.47
15.75
15.88
15.71
15.26
14.7
14.18
13.78
13.45
13.07
12.58
12.06
11.67
11.53
11.61
11.72
11.53
10.85
9.66
8.17
6.72
5.57
4.77
4.09
3.22
1.88
0.01
-2.18
-4.33
-6.11
-7.41
-8.39
-9.43
-10.96
-13.3
-16.52
-20.43
-24.58
-28.4
-31.31
-32.82
-32.65
-30.73
-27.23
-22.52
-17.08
-11.48
-6.15
-1.43
2.56
5.81
8.39
10.28
11.43
11.83
11.61
11.11
10.76
10.92
11.64
12.72
13.71
14.27
14.25
13.8
13.2
12.66
12.25
11.89
11.44
10.8
9.92
8.81
7.53
6.11
4.64
3.18
1.76
0.4
-0.99
-2.48
-4.14
-5.91
-7.68
-9.3
-10.71
-11.98
-13.33
-15.07
-17.39
-20.32
-23.56
-26.49
-28.4
-28.69
-27.1
-23.81
-19.32
-14.3
-9.28
-4.55
-0.19
3.81
7.36
10.36
12.64
14.22
15.22
15.9
16.46
16.91
17.13
16.89
16.08
14.81
13.35
12.01
10.99
10.28
9.74
9.12
8.28
7.2
5.92
4.57
3.24
1.97
0.75
-0.47
-1.75
-3.05
-4.3
-5.46
-6.57
-7.83
-9.57
-12.02
-15.19
-18.72
-22.02
-24.48
-25.64
-25.36
-23.75
-21.05
-17.48
-13.3
-8.78
-4.34
-0.4
2.69
4.89
6.37
7.44
8.37
9.2
9.88
10.26
10.32
10.17
9.95
9.8
9.72
9.67
9.6
9.55
9.52
9.49
9.28
8.65
7.42
5.58
3.36
1.03
-1.16
-3.2
-5.24
-7.46
-9.96
-12.7
-15.61
-18.53
-21.39
-24.02
-26.18
-27.48
-27.49
-25.95
-22.83
-18.44
-13.28
-7.91
-2.8
1.8
5.75
8.98
11.4
12.92
13.49
13.15
12.11
10.69
9.27
8.12
7.34
6.88
6.61
6.42
6.31
6.3
6.42
6.58
6.54
6.09
5.05
3.49
1.59
-0.34
-2.14
-3.8
-5.49
-7.35
-9.4
-11.57
-13.78
-16.05
-18.45
-21.03
-23.68
-26
-27.49
-27.71
-26.51
-24.02
-20.53
-16.34
-11.61
-6.48
-1.14
4.06
8.65
12.21
14.51
15.66
15.99
15.94
15.82
15.76
15.68
15.43
14.97
14.4
13.88
13.55
13.36
13.09
12.45
11.3
9.74
8.04
6.5
5.25
4.17
2.98
1.38
-0.81
-3.58
-6.8
-10.26
-13.79
-17.21
-20.32
-22.88
-24.63
-25.25
-24.5
-22.24
-18.54
-13.78
-8.48
-3.29
1.21
4.68
7.04
8.4
9.01
9.08
8.72
7.95
6.82
5.36
3.72
2.11
0.76
-0.14
-0.46
-0.21
0.45
1.33
2.15
2.72
2.88
2.57
1.78
0.54
-1.06
-2.96
-5.16
-7.7
-10.68
-14.19
-18.25
-22.67
-27.05
-30.82
-33.35
-34.09
-32.75
-29.27
-23.86
-16.96
-9.15
-1.05
6.71
13.65
19.46
23.96
27.13
29.03
29.79
29.57
28.6
27.11
25.42
23.8
22.53
21.73
21.41
21.45
21.71
22.08
22.45
22.62
22.3
21.16
18.92
15.55
11.27
6.55
1.81
-2.64
-6.73
-10.55
-14.2
-17.77
-21.37
-25.17
-29.34
-33.89
-38.38
-41.93
-43.47
-42.17
-37.86
-31.11
-22.93
-14.35
-6.04
1.72
8.87
15.21
20.39
23.93
25.66
25.78
24.91
23.81
23.08
22.89
23.08
23.31
23.33
23.11
22.81
22.67
22.92
23.6
24.59
25.66
26.5
26.84
26.57
25.73
24.41
22.77
20.87
18.75
16.38
13.72
10.71
7.27
3.35
-1.01
-5.58
-10.07
-14.11
-17.6
-20.8
-24.25
-28.56
-34.05
-40.46
-46.89
-52.12
-55
-54.86
-51.71
-46.15
-39.04
-31.16
-23.03
-14.93
-7.08
0.26
6.73
11.97
15.79
18.26
19.67
20.44
20.95
21.44
22.05
22.79
23.57
24.29
24.8
25
24.88
24.56
24.21
23.98
23.93
23.99
23.98
23.7
22.98
21.77
20.08
18.02
15.74
13.39
11.07
8.86
6.69
4.47
2.09
-0.51
-3.27
-6.05
-8.67
-11.01
-13.09
-15.16
-17.59
-20.76
-24.96
-30.09
-35.63
-40.68
-44.22
-45.29
-43.35
-38.34
-30.76
-21.5
-11.64
-2.21
6
12.55
17.33
20.57
22.62
23.92
24.8
25.45
25.92
26.18
26.22
26.1
25.93
25.85
25.94
26.19
26.51
26.7
26.61
26.1
25.16
23.82
22.22
20.54
18.87
17.28
15.66
13.89
11.87
9.58
7.21
4.91
2.79
0.75
-1.39
-3.81
-6.49
-9.27
-11.91
-14.33
-16.62
-19.08
-22.01
-25.58
-29.69
-33.92
-37.65
-40.12
-40.62
-38.73
-34.4
-28.06
-20.51
-12.67
-5.3
1.13
6.51
10.84
14.17
16.47
17.71
18
17.66
17.16
16.93
17.19
17.85
18.65
19.27
19.54
19.47
19.19
18.87
18.57
18.24
17.77
17.04
16.05
14.85
13.48
11.97
10.32
8.52
6.58
4.58
2.57
0.58
-1.38
-3.37
-5.43
-7.59
-9.9
-12.43
-15.27
-18.45
-21.91
-25.35
-28.33
-30.29
-30.79
-29.59
-26.78
-22.64
-17.55
-11.86
-5.82
0.33
6.32
11.74
16.17
19.26
20.89
21.27
20.84
20.1
19.39
18.85
18.41
17.96
17.4
16.77
16.15
15.58
15.04
14.43
13.62
12.53
11.19
9.69
8.15
6.66
5.23
3.83
2.38
0.78
-1
-3
-5.15
-7.39
-9.66
-11.92
-14.18
-16.55
-19.16
-22.15
-25.59
-29.33
-32.96
-35.85
-37.22
-36.45
-33.32
-28.09
-21.48
-14.42
-7.74
-1.93
2.9
6.95
10.44
13.44
15.86
17.53
18.42
18.63
18.41
18.01
17.58
17.12
16.61
16.11
15.77
15.78
16.24
17
17.74
18.03
17.57
16.26
14.19
11.62
8.81
5.99
3.34
0.92
-1.33
-3.51
-5.69
-7.93
-10.16
-12.27
-14.17
-15.92
-17.67
-19.72
-22.31
-25.53
-29.29
-33.17
-36.59
-38.84
-39.28
-37.47
-33.42
-27.53
-20.59
-13.5
-6.97
-1.45
3.02
6.59
9.45
11.67
13.32
14.41
15.09
15.62
16.17
16.8
17.42
17.87
18.1
18.18
18.25
18.45
18.77
19.08
19.18
18.92
18.25
17.19
15.8
14.14
12.25
10.17
8.01
5.81
3.57
1.25
-1.2
-3.72
-6.17
-8.45
-10.53
-12.5
-14.57
-16.89
-19.49
-22.26
-25.07
-27.78
-30.29
-32.45
-34.01
-34.6
-33.86
-31.58
-27.82
-22.85
-17.12
-11.09
-5.1
0.61
5.82
10.32
13.91
16.43
17.93
18.68
19.05
19.35
19.67
19.94
19.94
19.56
18.82
17.91
17.06
16.52
16.31
16.32
16.27
15.93
15.13
13.89
12.39
10.84
9.41
8.06
6.55
4.58
2
-1.06
-4.16
-6.85
-8.82
-10.15
-11.15
-12.23
-13.72
-15.75
-18.33
-21.37
-24.77
-28.29
-31.56
-34.06
-35.27
-34.84
-32.69
-29.04
-24.28
-18.85
-13.1
-7.37
-1.94
2.93
7.03
10.25
12.62
14.31
15.5
16.33
16.85
17.06
16.98
16.7
16.34
16.02
15.82
15.74
15.77
15.85
15.93
15.88
15.6
14.92
13.78
12.22
10.42
8.66
7.11
5.82
4.6
3.16
1.21
-1.37
-4.46
-7.79
-11.05
-14.04
-16.66
-18.94
-21.01
-23.03
-25.17
-27.55
-30.21
-33.02
-35.68
-37.71
-38.65
-38.11
-35.91
-32.07
-26.78
-20.41
-13.42
-6.4
0.08
5.54
9.71
12.59
14.35
15.25
15.53
15.46
15.25
15.15
15.32
15.82
16.58
17.47
18.35
19.07
19.51
19.49
18.89
17.66
15.96
14.02
12.14
10.39
8.68
6.8
4.64
2.3
0.06
-1.86
-3.43
-4.88
-6.54
-8.67
-11.32
-14.46
-18
-21.82
-25.69
-29.2
-31.7
-32.53
-31.33
-28.19
-23.7
-18.64
-13.63
-8.97
-4.68
-0.68
2.98
6.06
8.29
9.54
10
10.05
10.1
10.46
11.2
12.16
13.08
13.74
14.05
14.05
13.88
13.64
13.35
12.95
12.29
11.24
9.71
7.7
5.29
2.65
-0.08
-2.72
-5.1
-7.15
-8.92
-10.52
-12.22
-14.27
-16.88
-20.1
-23.74
-27.38
-30.34
-31.93
-31.59
-29.12
-24.73
-18.94
-12.4
-5.67
0.84
6.87
12.21
16.62
19.93
22.07
23.21
23.75
24.14
24.74
25.6
26.54
27.26
27.56
27.44
27.13
26.89
26.82
26.76
26.37
25.3
23.39
20.81
17.89
15
12.23
9.49
6.54
3.19
-0.51
-4.26
-7.64
-10.28
-12.1
-13.33
-14.43
-15.89
-18.02
-20.88
-24.27
-27.89
-31.37
-34.32
-36.36
-37.07
-36.03
-33.08
-28.32
-22.21
-15.4
-8.44
-1.67
4.79
10.82
16.11
20.14
22.3
22.22
20.04
16.39
12.23
8.47
5.69
4.09
3.58
3.99
5.13
6.84
8.88
10.92
12.64
13.79
14.29
14.27
13.88
13.21
12.26
10.96
9.26
7.28
5.25
3.39
1.76
0.25
-1.43
-3.53
-6.18
-9.23
-12.39
-15.3
-17.78
-19.83
-21.48
-22.66
-23.05
-22.15
-19.51
-14.98
-8.91
-1.99
4.89
11
16.02
20
23.26
26.05
28.35
29.94
30.54
30.11
28.87
27.29
25.87
24.97
24.71
25.04
25.85
27.05
28.5
29.98
31.13
31.58
31.12
29.78
27.9
25.87
24
22.3
20.6
18.61
16.08
12.94
9.24
5.2
1.05
-3
-6.82
-10.32
-13.53
-16.46
-19.15
-21.62
-23.92
-26.12
-28.4
-30.93
-33.72
-36.49
-38.58
-39.2
-37.62
-33.52
-27.12
-19.09
-10.26
-1.4
6.93
14.35
20.58
25.38
28.6
30.31
30.75
30.34
29.48
28.46
27.4
26.32
25.21
24.13
23.06
21.99
20.8
19.34
17.54
15.47
13.33
11.29
9.4
7.51
5.36
2.8
-0.08
-2.91
-5.26
-6.85
-7.69
-8.1
-8.48
-9.13
-10.11
-11.29
-12.41
-13.25
-13.67
-13.62
-13.24
-12.71
-12.36
-12.48
-13.26
-14.69
-16.62
-18.84
-21.14
-23.39
-25.45
-27.18
-28.36
-28.8
-28.36
-26.97
-24.6
-21.21
-16.74
-11.27
-5.05
1.39
7.37
12.26
15.66
17.6
18.46
18.79
19.01
19.3
19.5
19.32
18.5
17
15
12.75
10.5
8.36
6.42
4.72
3.42
2.7
2.71
3.39
4.44
5.39
5.78
5.38
4.2
2.5
0.61
-1.26
-3.07
-4.86
-6.62
-8.23
-9.49
-10.25
-10.63
-11.04
-12
-13.92
-16.84
-20.41
-24.08
-27.32
-29.85
-31.7
-33.06
-34.13
-34.92
-35.3
-35
-33.78
-31.48
-28.04
-23.5
-18
-11.85
-5.45
0.62
5.79
9.58
11.81
12.59
12.44
12.04
12.05
12.84
14.34
16.08
17.45
17.94
17.41
16.1
14.38
12.57
10.78
8.93
6.99
5.07
3.41
2.23
1.59
1.42
1.61
2.07
2.77
3.63
4.43
4.88
4.76
4.08
3.12
2.15
1.38
0.61
-0.58
-2.66
-5.89
-10.09
-14.88
-19.72
-24.18
-27.96
-30.88
-32.76
-33.42
-32.69
-30.52
-27.06
-22.62
-17.59
-12.28
-6.96
-1.85
2.79
6.65
9.36
10.62
10.36
8.71
6.16
3.27
0.71
-1.03
-1.66
-1.21
0.01
1.56
3.01
4.14
4.96
5.58
6.16
6.7
7.14
7.33
7.24
6.9
6.35
5.61
4.67
3.48
2.11
0.64
-0.78
-2.05
-3.14
-4.09
-4.92
-5.59
-6.05
-6.34
-6.65
-7.31
-8.61
-10.7
-13.39
-16.24
-18.64
-20.04
-20.12
-18.85
-16.44
-13.18
-9.41
-5.44
-1.55
2.05
5.2
7.84
10
11.73
13.01
13.82
14.09
13.87
13.27
12.45
11.56
10.65
9.73
8.76
7.81
6.95
6.33
6.03
6
6.12
6.2
6.13
5.83
5.33
4.63
3.66
2.3
0.5
-1.69
-4.1
-6.45
-8.51
-10.22
-11.61
-12.76
-13.77
-14.67
-15.51
-16.43
-17.69
-19.53
-22
-24.8
-27.38
-29.07
-29.43
-28.33
-26.05
-22.98
-19.53
-16.01
-12.63
-9.46
-6.55
-3.87
-1.35
1.03
3.23
5.11
6.56
7.54
8.21
8.84
9.66
10.69
11.72
12.5
12.8
12.7
12.48
12.44
12.76
13.32
13.85
14.01
13.59
12.56
11.06
9.32
7.55
5.92
4.48
3.15
1.76
0.16
-1.76
-3.98
-6.34
-8.67
-10.79
-12.58
-13.97
-14.98
-15.67
-16.26
-17.11
-18.67
-21.24
-24.85
-29.03
-33.01
-35.88
-37
-36.17
-33.64
-29.92
-25.52
-20.82
-15.99
-11.16
-6.43
-1.99
1.93
5.13
7.5
9.09
10.08
10.73
11.28
11.92
12.66
13.42
14
14.27
14.17
13.84
13.52
13.47
13.77
14.31
14.8
14.92
14.46
13.42
11.95
10.27
8.58
6.9
5.23
3.46
1.58
-0.39
-2.35
-4.24
-6.05
-7.84
-9.68
-11.6
-13.57
-15.49
-17.33
-19.14
-21.11
-23.42
-26.22
-29.42
-32.66
-35.32
-36.71
-36.29
-33.83
-29.56
-23.98
-17.81
-11.72
-6.12
-1.21
3.06
6.75
9.91
12.49
14.42
15.72
16.54
17.14
17.71
18.36
18.95
19.23
18.98
18.12
16.85
15.57
14.75
14.65
15.28
16.27
17.07
17.19
16.36
14.68
12.53
10.37
8.46
6.82
5.24
3.41
1.15
-1.47
-4.17
-6.6
-8.56
-10.11
-11.54
-13.29
-15.71
-18.96
-22.96
-27.35
-31.6
-35.09
-37.25
-37.64
-36.11
-32.78
-27.99
-22.2
-15.91
-9.53
-3.46
1.94
6.36
9.55
11.46
12.29
12.37
12.11
11.88
11.89
12.19
12.77
13.54
14.47
15.52
16.56
17.45
17.98
17.98
17.42
16.4
15.17
13.92
12.77
11.64
10.34
8.66
6.59
4.26
1.88
-0.4
-2.62
-5.01
-7.85
-11.3
-15.27
-19.44
-23.34
-26.51
-28.59
-29.39
-28.85
-26.99
-23.92
-19.77
-14.75
-9.17
-3.38
2.19
7.15
11.2
14.19
16.12
17.14
17.49
17.48
