161.64
161.19
156.03
149.25
141.68
133.81
126.01
118.52
111.51
105.12
99.44
94.54
90.52
86.73
82.69
78.1
72.75
66.6
59.84
52.81
46.02
40.12
35.16
31.29
28.59
27.02
26.38
26.45
26.93
27.49
27.93
27.69
26.39
23.82
19.9
14.78
8.78
2.34
-4.05
-9.98
-15.39
-20.43
-25.36
-30.46
-35.87
-41.47
-46.95
-51.91
-56.12
-59.71
-63.14
-67.12
-72.29
-78.99
-87.05
-95.84
-104.56
-112.63
-119.97
-127.13
-135.09
-144.81
-156.79
-170.81
-186
-201.25
-215.63
-228.83
-241.29
-254.01
-268.39
-285.99
-308.05
-334.72
-364.27
-392.84
-415.01
-425.56
-421.5
-403.27
-374.61
-340.93
-307.26
-276.7
-250.03
-226.32
-203.96
-181.47
-157.67
-131.99
-104.39
-75.67
-47.4
-21.48
0.62
18.47
32.58
43.87
52.82
59.25
62.63
62.87
60.83
58.13
56.44
56.53
57.93
59.3
59.41
58.03
56.21
55.77
58.16
63.53
70.44
76.63
80.15
80.5
78.73
76.63
75.57
75.56
75.29
73.14
68.27
61.38
54.33
48.99
46.06
44.72
43.23
40.07
34.89
28.51
22.2
16.83
12.46
8.64
5.05
1.54
-2.21
-7.31
-15.96
-30.57
-52.41
-80.51
-111.42
-140.71
-164.28
-179.52
-185.7
-183.81
-175.7
-163.36
-148.42
-131.72
-113.56
-93.32
-69.96
-42.98
-13.25
17.08
45.64
71.09
93.74
113.94
131.67
145.72
154.3
156.36
153.44
150.07
151.95
163.08
181
199.06
209.53
207.2
191.54
167.15
142
123.89
117.25
117.04
114.96
103.36
78.13
38.49
-13.85
-75.65
-142.89
-210.53
-279
-345.48
-403.33
-445.12
-468.22
-476.63
-478.04
-478.73
-480.15
-487.15
-499.39
-512.26
-520.3
-521.92
-520.66
-522.7
-533.78
-504.14
-410.23
-261.49
-91.82
68.25
204.9
315.71
401.52
463.68
505.01
521.9
515.02
490.5
457.52
423.35
391.66
364.01
342.01
327.72
315.79
301.14
281.31
257.04
230
201.94
174.59
150.36
131.69
116.11
100.8
84.26
67.1
50.05
35.33
25.08
21.61
26.56
38.35
53.72
68.87
81.31
89.52
93.24
93.12
90.87
88.54
87.64
89.08
93.16
100
108.36
115.24
116.69
110.05
92.56
68.3
45.64
28.15
16.18
7.08
-3.26
-18.17
-38.23
-61.67
-85.37
-107.53
-128.81
-151.05
-174.94
-200.67
-227.57
-253.84
-276.54
-291.9
-296.62
-289.59
-272.11
-248.39
-224.63
-206.72
-197.83
-197.68
-203.06
-210.35
-217.34
-223.32
-228.66
-233.77
-238.16
-240.43
-239.15
-233.54
-224.22
-212.96
-201.49
-190.69
-180.24
-168.63
-153.7
-133.7
-107.48
-75.63
-40.35
-4.61
28.92
58.62
84.28
106.84
127.83
149.88
174.44
201.19
228.44
254.23
277.5
298.47
318.42
339.11
364.6
396.78
434.52
474.28
511.83
544.44
571.47
594.03
614.2
638.65
671.85
714.82
764.49
815.1
859.48
889.85
898.78
880.85
840.32
783.28
715.9
642.51
566.09
489.37
415.32
346.84
252.82
122.61
-35.16
-195.5
-333.01
-434.42
-498.87
-531.7
-539.85
-529.63
-498.56
-449.01
-387.13
-322.78
-266.4
-225.73
-204.24
-201.91
-221.01
-249.89
-274.99
-286.32
-281.55
-264.56
-241.48
-219.93
-204.02
-196.45
-196.02
-203.17
-218.24
-240
-264.25
-284.68
-289.46
-273.3
-238.73
-192.65
-146.18
-110.03
-91.53
-92.72
-110.2
-135.92
-159.19
-168.36
-152.94
-109.16
-42.32
33.33
99.43
140.79
151.58
137.17
111.38
89.57
80.95
85.41
95.15
100.17
94.1
76.6
51.7
24.77
-0.79
-24.47
-47.3
-69.42
-88.6
-100.62
-101.7
-90.76
-69.65
-42.04
-11.65
18.94
48.13
74.11
93.98
103.81
99.83
80.25
46.2
1.76
-47.36
-95.37
-137.18
-168.74
-187.51
-192.87
-186.58
-172.84
-156.98
-143.45
-134.27
-128.39
-122.59
-113.26
-98.07
-76.63
-50.34
-21.53
7.15
33.1
53.87
67.34
72.28
68.84
58.68
44.57
29.3
14.99
2.78
-6.73
-12.9
-14.75
-11.2
-1.91
12.04
28.18
43.45
55.46
63.72
69.9
77.02
87.79
103.07
121.17
138.4
150.42
153.57
145.74
126.61
97.56
61.45
22.42
-14.57
-44.78
-64.95
-74.57
-76.16
-74.26
-73.44
-76.36
-82.78
-90.04
-94.84
-95.24
-91.69
-86.8
-83.89
-85
-89.76
-95.51
-98.79
-97.23
-90.76
-81.44
-71.96
-63.97
-57.15
-49.75
-40.1
-28.25
-16.72
-9.74
-11.57
-24.56
-47.94
-77.83
-108.43
-133.7
-149.16
-152.91
-145.71
-130.23
-109.7
-86.86
-63.44
-40.36
-18.34
1.66
18.52
31.39
40.2
45.78
49.52
52.78
56.37
60.3
63.93
66.32
66.63
64.39
59.75
53.45
46.69
40.75
36.61
34.53
33.98
33.9
33.18
31.15
27.85
23.86
19.97
16.8
14.67
13.47
12.94
12.73
12.62
12.5
12.36
12.24
12.14
12.08
12.07
12.21
12.65
13.5
14.71
15.89
16.35
15.39
12.66
8.55
4.12
0.73
-0.55
0.49
3.15
6.2
8.49
9.5
9.4
8.86
8.49
8.53
8.77
8.76
8.25
7.18
5.81
4.41
3.18
2.29
1.86
2.21
3.67
6.48
10.55
15.38
20.31
24.63
27.99
30.26
31.52
31.89
31.35
29.94
27.76
25.18
22.77
21.14
20.73
21.5
22.94
24.2
24.52
23.55
21.63
19.61
18.42
18.66
20.26
22.53
24.5
25.36
24.72
22.51
18.9
14.13
8.51
2.66
-2.59
-6.31
-7.78
-6.9
-4.28
-0.9
2.22
4.56
6.23
7.74
9.59
11.82
13.89
14.88
14.04
11.04
6.12
-0.08
-6.86
-13.77
-20.63
-27.36
-33.75
-39.3
-43.4
-45.54
-45.67
-44.35
-42.5
-41.16
-41.13
-42.56
-45.13
-48.18
-51.07
-53.43
-55.28
-56.82
-58.21
-59.53
-60.59
-61.06
-60.63
-59.04
-56.2
-52.24
-47.5
-42.33
-37.16
-32.24
-27.64
-23.21
-18.6
-13.51
-7.75
-1.35
5.46
12.37
19.02
25.11
30.34
34.48
37.2
38.35
37.85
35.87
32.74
28.95
24.96
21.14
17.75
14.95
12.95
11.9
11.92
12.92
14.6
16.62
18.67
20.63
22.5
24.37
26.14
27.51
28.13
27.71
26.3
24.18
21.84
19.61
17.73
16.12
14.64
13.29
12.19
11.64
11.81
12.78
14.41
16.46
18.58
20.42
21.68
22.13
21.7
20.53
18.88
17.12
15.6
14.52
13.99
13.97
14.22
14.46
14.45
14.07
13.43
12.76
12.31
12.08
11.95
11.58
10.78
9.61
8.38
7.41
6.8
6.36
5.71
4.64
3.26
1.88
0.86
0.19
-0.35
-1.19
-2.52
-4.24
-5.87
-6.87
-6.91
-5.93
-4.19
-2
0.32
2.61
4.73
6.59
8.08
9.11
9.75
10.17
10.6
11.14
11.74
12.12
11.91
10.87
9.07
7.04
5.44
4.91
5.64
7.35
9.44
11.23
12.28
12.4
11.66
10.11
7.82
4.84
1.33
-2.43
-6.18
-9.86
-13.72
-18.03
-22.9
-27.76
-31.59
-33.08
-31.35
-26.28
-18.64
-9.77
-1.08
6.45
12.45
16.95
20.21
22.48
23.98
24.92
25.52
25.98
26.39
26.62
26.37
25.32
23.3
20.38
16.97
13.57
10.72
8.69
7.34
6.22
4.75
2.53
-0.5
-3.85
-6.88
-8.97
-9.88
-9.86
-9.38
-9
-9.05
-9.49
-9.96
-9.98
-9.08
-7
-3.72
0.58
5.58
10.8
15.68
19.71
22.48
23.88
24.21
24.06
24.14
24.82
25.99
27.1
27.48
26.71
24.97
22.92
21.35
20.88
21.58
23.18
25.21
27.24
28.96
30.16
30.56
29.96
28.34
25.9
23.16
20.73
18.94
17.81
17.11
16.56
16.11
16.06
16.88
18.92
22.24
26.46
30.94
35.01
38.21
40.34
41.54
42.12
42.46
42.91
43.67
44.89
46.51
48.45
50.51
52.47
54.03
54.9
54.83
53.71
51.65
48.82
45.24
40.8
35.21
28.24
19.91
10.66
1.07
-8.3
-17.14
-25.57
-33.81
-41.97
-49.85
-57
-62.96
-67.51
-70.82
-73.33
-75.6
-78.04
-80.87
-84.05
-87.45
-90.86
-94.14
-97.22
-100.02
-102.34
-103.8
-103.88
-102.11
-98.12
-91.92
-83.8
-74.41
-64.56
-55.03
-46.45
-39.19
-33.31
-28.6
-24.73
-21.35
-18.28
-15.61
-13.49
-12.05
-11.22
-10.6
-9.65
-7.85
-4.92
-0.88
3.94
9.1
14.17
18.82
22.83
25.93
27.85
28.36
27.38
25.07
21.91
18.4
15.02
11.97
9.07
5.98
2.5
-1.26
-4.81
-7.48
-8.73
-8.4
-6.78
-4.42
-1.92
0.41
2.51
4.46
6.36
8.09
9.34
9.82
9.43
8.42
7.27
6.44
6.06
5.95
5.6
4.6
2.91
0.97
-0.52
-0.97
-0.2
1.46
3.39
4.96
5.8
5.97
5.79
5.66
5.8
6.21
6.62
6.68
6.07
4.61
2.37
-0.36
-3.2
-5.79
-7.88
-9.47
-10.67
-11.67
-12.64
-13.53
-14.09
-13.89
-12.41
-9.38
-4.91
0.47
5.95
10.76
14.32
16.45
17.19
16.78
15.43
13.31
10.69
8.02
5.86
4.66
4.65
5.65
7.22
8.8
10
10.77
11.26
11.65
11.96
11.92
11.28
9.86
7.9
5.86
4.3
3.52
3.37
3.25
2.47
0.63
-2.18
-5.3
-7.82
-9.07
-8.91
-7.7
-6.08
-4.56
-3.25
-1.86
0.03
2.65
5.82
9.11
12.01
14.33
16.1
17.52
18.76
19.81
20.5
20.62
20.05
18.79
16.95
14.69
12.15
9.53
7.06
5.01
3.62
2.99
2.99
3.35
3.78
4.13
4.43
4.87
5.61
6.68
7.85
8.74
9.01
8.55
7.49
6.04
4.29
2.07
-0.92
-4.98
-10
-15.48
-20.64
-24.87
-27.91
-29.92
-31.36
-32.55
-33.64
-34.52
-34.96
-34.88
-34.29
-33.28
-31.9
-30.21
-28.31
-26.44
-24.93
-24.05
-23.9
-24.23
-24.44
-23.83
-21.86
-18.38
-13.74
-8.84
-4.75
-2.42
-2.2
-3.58
-5.37
-5.86
-3.55
2.5
12.18
24.56
37.83
49.96
59.12
64.09
64.62
61.26
55.08
47.21
38.53
29.53
20.43
11.46
3.03
-4.33
-10.15
-14.19
-16.64
-17.88
-18.37
-18.39
-18.03
-17.14
-15.52
-13.06
-9.89
-6.36
-3.01
-0.29
1.51
2.37
2.49
2.29
2.14
2.22
2.58
3.14
3.75
4.4
5.1
5.86
6.69
7.46
7.96
8.01
7.57
6.79
5.94
5.29
4.88
4.49
3.72
2.28
0.13
-2.31
-4.36
-5.42
-5.17
-3.74
-1.6
0.69
2.73
4.35
5.62
6.69
7.62
8.37
8.75
8.59
7.76
6.32
4.5
2.58
0.84
-0.61
-1.79
-2.81
-3.7
-4.38
-4.67
-4.41
-3.67
-2.67
-1.77
-1.3
-1.4
-2
-2.92
-3.92
-4.92
-5.97
-7.18
-8.7
-10.48
-12.35
-14.04
-15.23
-15.69
-15.34
-14.2
-12.43
-10.28
-8.15
-6.48
-5.72
-6.14
-7.62
-9.68
-11.54
-12.38
-11.77
-9.75
-6.88
-3.97
-1.77
-0.66
-0.66
-1.44
-2.5
-3.41
-3.99
-4.22
-4.3
-4.44
-4.84
-5.62
-6.72
-8.03
-9.4
-10.74
-12.03
-13.34
-14.75
-16.24
-17.76
-19.02
-19.74
-19.64
-18.61
-16.8
-14.53
-12.12
-9.68
-7.18
-4.47
-1.5
1.49
4.02
5.58
5.95
5.41
4.68
4.54
5.42
7.22
9.32
10.95
11.59
11.15
9.89
8.28
6.69
5.34
4.25
3.31
2.39
1.41
0.37
-0.8
-2.15
-3.75
-5.63
-7.66
-9.51
-10.7
-10.83
-9.82
-8.11
-6.4
-5.42
-5.5
-6.39
-7.39
-7.77
-7.02
-5.16
-2.62
0
2.19
3.69
4.43
4.43
3.76
2.55
1.09
-0.23
-0.9
-0.54
0.9
3.11
5.51
7.45
8.47
8.46
7.58
6.23
4.73
3.33
2.13
1.17
0.48
0.07
-0.03
0.17
0.69
1.48
2.51
3.74
5.09
6.4
7.46
8.12
8.34
8.28
8.18
8.36
9.04
10.19
11.58
12.81
13.57
13.74
13.42
12.88
12.38
12.08
11.98
11.97
11.97
12
12.19
12.72
13.62
14.74
15.88
16.83
17.49
17.89
18.06
17.96
17.41
16.19
14.18
11.42
8.17
4.78
1.58
-1.37
-4.09
-6.75
-9.47
-12.23
-14.82
-17.02
-18.56
-19.34
-19.41
-19.01
-18.37
-17.85
-17.66
-17.9
-18.58
-19.45
-20.16
-20.26
-19.38
-17.33
-14.36
-10.93
-7.69
-5.19
-3.74
-3.3
-3.58
-4.13
-4.54
-4.55
-4.11
-3.42
-2.77
-2.38
-2.41
-2.86
-3.67
-4.76
-6.07
-7.49
-8.88
-10.1
-10.95
-11.31
-11.19
-10.62
-9.57
-7.99
-5.71
-2.72
0.82
4.51
7.85
10.33
11.64
11.81
11.06
9.82
8.51
7.44
6.75
6.37
6.09
5.71
5.05
4.1
3.04
2.17
1.77
2.06
2.93
4.08
5.03
5.32
4.7
3.19
1.13
-0.97
-2.56
-3.28
-2.98
-1.79
-0.07
1.77
3.39
4.57
5.32
5.88
6.56
7.61
9.16
11.01
12.77
13.93
14.14
13.27
11.61
9.68
8.08
7.21
7.12
7.54
8.08
8.39
8.29
7.74
6.77
5.35
3.5
1.29
-1.06
-3.3
-5.25
-6.87
-8.33
-9.81
-11.41
-13.03
-14.55
-15.8
-16.68
-17.17
-17.28
-16.97
-16.25
-15.22
-14
-12.72
-11.34
-9.68
-7.51
-4.68
-1.31
2.18
5.18
7.18
7.92
7.57
6.59
5.61
5.14
5.44
6.42
7.76
9.03
9.91
10.24
10.09
9.6
8.96
8.32
7.79
7.28
6.68
5.68
4.03
1.61
-1.57
-5.14
-8.56
-11.18
-12.59
-12.67
-11.73
-10.42
-9.47
-9.47
-10.6
-12.57
-14.6
-15.84
-15.7
-14.08
-11.47
-8.67
-6.46
-5.3
-5.2
-5.78
-6.53
-7
-6.94
-6.32
-5.17
-3.6
-1.64
0.59
2.93
5.15
7
8.36
9.19
9.64
9.89
10.06
10.07
9.72
8.8
7.22
5.11
2.74
0.47
-1.47
-2.96
-4
-4.67
-4.98
-4.89
-4.28
-3.08
-1.27
1.03
3.61
6.2
8.55
10.53
12.05
13.14
13.85
14.2
14.19
13.77
12.95
11.78
10.38
8.87
7.33
5.76
4.08
2.21
0.13
-2.13
-4.6
-7.4
-10.82
-15.14
-20.41
-26.32
-32.17
-37.07
-40.26
-41.48
-40.88
-39
-36.45
-33.66
-30.94
-28.47
-26.38
-24.79
-23.69
-22.81
-21.57
-19.17
-14.79
-7.95
1.22
11.83
22.33
31.01
36.53
38.4
37.11
33.89
30.02
26.41
23.25
20.13
16.6
12.59
8.51
5.03
2.78
1.93
2.22
3.12
4.04
4.65
4.84
4.62
4.03
3.1
1.91
0.58
-0.61
-1.32
-1.27
-0.28
1.63
4.23
7.25
10.36
13.37
16.27
19.19
22.33
25.83
29.77
34.11
38.75
43.45
47.96
52.06
55.55
58.29
60.09
60.69
59.76
57.1
52.69
46.82
40.06
33
26.01
19.16
12.31
5.28
-1.79
-8.53
-14.41
-19.09
-22.58
-25.25
-27.64
-30.24
-33.35
-37
-41.06
-45.4
-49.9
-54.57
-59.36
-64.08
-68.38
-71.8
-73.72
-73.67
-71.36
-66.73
-60.02
-51.64
-42.1
-32.04
-22.15
-13.21
-5.9
-0.7
2.39
3.82
4.25
4.27
4.2
3.97
3.4
2.44
1.29
0.46
0.44
1.35
2.95
4.63
5.77
5.97
5.25
3.96
2.63
1.7
1.34
1.48
1.96
2.59
3.33
4.2
5.24
6.4
7.51
8.37
8.93
9.36
10.02
11.34
13.49
16.26
19.07
21.25
22.34
22.32
21.52
20.47
19.65
19.24
19.1
18.94
18.47
17.54
16.25
14.73
13.23
11.98
11.05
10.36
9.78
9.11
8.24
7.1
5.64
3.79
1.45
-1.4
-4.68
-8.11
-11.42
-14.46
-17.2
-19.75
-22.13
-24.05
-25
-24.41
-22
-18.05
-13.32
-8.72
-5.07
-2.85
-2.06
-2.47
-3.66
-5.18
-6.64
-7.69
-8.04
-7.6
-6.6
-5.35
-4.23
-3.42
-2.84
-2.24
-1.4
-0.19
1.19
2.37
3.01
2.87
1.95
0.41
-1.63
-4.07
-6.81
-9.72
-12.59
-15.11
-17.05
-18.18
-18.41
-17.76
-16.28
-13.92
-10.74
-6.75
-2.08
2.98
8.05
12.7
16.59
19.6
21.99
24.19
26.71
29.75
33
35.77
37.32
37.2
35.51
32.81
29.81
27.08
24.86
23.03
21.42
19.98
18.84
18.21
18.21
18.8
19.76
20.81
21.67
22.31
22.88
23.68
25.05
27.21
30.07
33.28
36.38
38.98
40.99
42.5
43.76
44.85
45.61
45.66
44.6
42.19
38.43
33.55
27.81
21.46
14.69
7.67
0.71
-5.82
-11.69
-16.95
-21.96
-27.24
-33.12
-39.53
-45.94
-51.58
-55.75
-58.15
-58.99
-58.89
-58.53
-58.44
-58.78
-59.43
-59.97
-60.03
-59.28
-57.66
-55.26
-52.3
-49
-45.44
-41.71
-37.81
-33.78
-29.71
-25.69
-21.81
-18.14
-14.76
-11.71
-9.06
-6.89
-5.23
-3.99
-3.06
-2.24
-1.32
-0.09
1.58
3.65
5.96
8.25
10.28
12
13.55
15.14
16.96
19
20.95
22.38
22.8
21.89
19.59
16.08
11.75
7.1
2.66
-1.03
-3.59
-4.7
-4.24
-2.3
0.86
4.78
8.82
12.33
14.78
15.89
15.7
14.48
12.63
10.53
8.43
6.35
4.27
2.19
0.21
-1.45
-2.48
-2.7
-2.2
-1.49
-1.38
-2.69
-5.95
-11.18
-17.82
-24.92
-31.46
-36.69
-40.26
-42.23
-42.82
-42.27
-40.81
-38.71
-36.35
-34.13
-32.28
-30.55
-28.22
-24.33
-18.24
-10.09
-0.96
7.58
14.1
17.97
19.55
19.73
19.3
18.39
16.52
13.15
8.31
2.94
-1.28
-2.61
-0.09
5.93
13.8
21.12
25.62
26.06
22.74
17.47
12.96
11.73
15.1
22.77
32.84
42.8
50.4
54.56
55.39
53.85
51.07
47.93
45.07
43.14
42.9
45.17
50.35
57.99
66.76
74.68
79.84
80.98
77.76
70.7
60.92
49.72
38.34
27.84
19.05
12.5
8.42
6.53
6.14
6.34
6.16
4.92
2.37
-1.42
-6.25
-11.9
-18.22
-24.96
-31.65
-37.55
-42
-44.64
-45.75
-46.18
-46.9
-48.57
-51.23
-54.26
-56.8
-58.07
-57.77
-56.06
-53.45
-50.52
-47.77
-45.57
-44.06
-43.27
-43.11
-43.34
-43.71
-43.9
-43.68
-42.97
-41.75
-40.08
-38.08
-35.9
-33.73
-31.85
-30.53
-29.93
-30.03
-30.5
-30.85
-30.64
-29.72
-28.24
-26.57
-25.18
-24.39
-24.25
-24.64
-25.28
-25.85
-26.01
-25.37
-23.62
-20.55
-16.14
-10.61
-4.4
1.94
7.84
12.84
16.73
19.48
21.15
21.91
21.89
21.19
19.96
18.39
16.79
15.5
14.79
14.76
15.32
16.27
17.37
18.5
19.59
20.53
21.24
21.49
21.04
19.73
17.55
14.73
11.8
9.33
7.81
7.51
8.41
10.28
12.89
15.99
19.39
23
26.64
30.18
33.47
36.33
38.54
39.91
40.16
39.1
36.71
33.2
28.99
24.57
20.32
16.44
13
9.95
7.28
5
3.17
1.81
0.89
0.39
0.16
0.04
-0.15
-0.59
-1.39
-2.6
-4.13
-5.83
-7.49
-8.92
-9.93
-10.38
-10.17
-9.34
-8.07
-6.6
-5.19
-3.99
-3.08
-2.42
-2.03
-2
-2.49
-3.56
-5.09
-6.73
-7.97
-8.31
-7.41
-5.19
-1.89
2.04
6.02
9.36
11.47
12.03
11.09
9.1
6.74
4.65
3.29
2.71
2.71
2.89
2.9
2.48
1.57
0.24
-1.32
-2.82
-3.94
-4.36
-3.82
-2.2
0.43
3.78
7.47
10.97
13.81
15.63
16.3
15.94
14.95
13.74
12.66
11.85
11.14
10.27
9.13
7.75
6.39
5.34
4.69
4.29
3.8
2.83
1.13
-1.25
-4.13
-7.17
-10.14
-12.86
-15.35
-17.6
-19.63
-21.43
-22.98
-24.28
-25.22
-25.67
-25.46
-24.4
-22.39
-19.54
-16.19
-12.88
-10.15
-8.4
-7.8
-8.26
-9.46
-10.91
-12.07
-12.51
-12.05
-10.8
-9.16
-7.62
-6.51
-5.79
-5.02
-3.62
-1.26
1.94
5.33
8.11
9.65
9.87
9.15
8.14
7.46
7.32
7.61
7.99
8.16
8.03
7.71
7.34
6.96
6.54
6.11
5.86
6.17
7.41
9.72
12.92
16.46
19.7
22.15
23.58
24.11
23.98
23.45
22.7
21.81
20.82
19.73
18.57
17.33
16.02
14.61
13.13
11.71
10.49
9.65
9.26
9.23
9.34
9.29
8.89
8.2
7.49
7.16
7.47
8.37
9.52
10.41
10.54
9.7
8
5.79
3.55
1.67
0.45
-0.06
0.07
0.55
1.08
1.28
0.89
-0.24
-2.06
-4.39
-7.08
-10
-13.25
-16.89
-20.91
-25.13
-29.09
-32.22
-33.97
-34.12
-32.74
-30.34
-27.57
-25.07
-23.36
-22.67
-22.96
-23.93
-25.17
-26.17
-26.53
-26.08
-24.85
-23.12
-21.23
-19.53
-18.24
-17.39
-16.81
-16.17
-15.12
-13.34
-10.72
-7.29
-3.35
0.73
4.53
7.69
10.04
11.51
12.17
12.13
11.54
10.51
9.21
7.75
6.32
5.15
4.47
4.51
5.3
6.76
8.52
10.19
11.41
12.04
12.13
11.85
11.39
10.87
10.35
9.84
9.34
8.84
8.22
7.37
6.1
4.3
2.03
-0.54
-3.06
-5.15
-6.43
-6.63
-5.6
-3.48
-0.59
2.54
5.36
7.51
8.88
9.64
10.01
10.17
10.09
9.62
8.62
7.09
5.26
3.46
2.05
1.3
1.32
2
3.07
4.17
4.9
5.01
4.39
3.23
1.81
0.48
-0.55
-1.3
-1.9
-2.53
-3.25
-3.98
-4.56
-4.87
-4.93
-4.84
-4.79
-4.88
-5.03
-4.98
-4.39
-2.98
-0.77
1.99
4.96
7.75
10.14
12.04
13.44
14.34
14.62
14.18
13.07
11.61
10.32
9.76
10.3
11.94
14.34
16.9
19.03
20.36
20.77
20.39
19.54
18.61
17.92
17.66
17.84
18.27
18.73
18.95
18.87
18.55
18.24
18.15
18.51
19.4
20.84
22.83
25.29
28.19
31.35
34.51
37.29
39.37
40.42
40.24
38.59
35.23
29.91
22.43
12.82
1.35
-11.44
-24.82
-37.96
-50.01
-60.11
-67.51
-71.81
-73.13
-72.32
-70.62
-69.17
-68.58
-68.63
-68.55
-67.51
-65.13
-61.7
-57.98
-54.67
-52.1
-50.13
-48.37
-46.59
-44.87
-43.52
-42.74
-42.4
-41.84
-40.21
-36.75
-31.1
-23.45
-14.55
-5.47
2.62
8.78
12.48
13.67
12.68
10.29
7.38
4.82
3.3
3.15
4.31
6.39
8.83
10.94
12.31
12.77
12.52
12.06
11.83
12.08
12.76
13.59
14.28
14.72
14.97
15.25
15.85
16.92
18.36
19.89
21.02
21.28
20.4
18.36
15.63
13.09
11.81
12.71
16.09
21.39
27.29
32.12
34.38
33.26
28.81
21.79
13.5
5.43
-1.03
-4.81
-5.48
-3.49
-0.07
3.1
4.53
3.51
0.27
-4.35
-9.35
-14.08
-18.4
-22.33
-25.77
-28.39
-29.65
-29.33
-27.69
-25.45
-23.38
-21.99
-21.19
-20.43
-19
-16.41
-12.6
-7.91
-2.86
2.18
7.08
11.96
17
22.24
27.54
32.5
36.66
39.69
41.51
42.26
42.35
42.26
42.4
43
44.03
45.28
46.53
47.65
48.68
49.86
51.4
53.36
55.6
57.82
59.68
61.01
61.88
62.52
63.2
64.08
65.11
66.16
67
67.45
67.2
65.8
62.51
56.57
47.32
34.47
18.16
-1.24
-23.4
-48.21
-75.59
-105.2
-135.76
-164.97
-189.73
-206.9
-214.22
-210.87
-197.59
-176.24
-149.25
-119.04
-87.97
-58.26
-31.89
-10.54
4.87
14.35
18.79
19.63
18.42
16.26
13.79
11.34
9.05
7.23
6.11
5.84
6.3
7.09
7.69
7.53
6.39
4.25
1.47
-1.45
-3.89
-5.27
-5.1
-3.12
0.61
5.77
11.69
17.64
22.9
26.93
29.52
30.8
31.15
31.11
31.19
31.67
32.6
33.86
35.12
36.08
36.54
36.44
35.89
35.07
34.13
33.09
31.83
30.07
27.59
24.22
19.97
14.94
9.22
2.83
-4.14
-11.49
-18.89
-25.86
-32.06
-37.37
-41.93
-45.97
-49.62
-52.62
-54.47
-54.65
-52.85
-49.24
-44.39
-39
-33.64
-28.62
-23.99
-19.65
-15.49
-11.5
-7.65
-3.78
0.39
5.12
10.53
16.24
21.52
25.48
27.44
27.25
25.35
22.57
19.72
17.29
15.27
13.29
10.84
7.67
3.83
-0.33
-4.39
-7.99
-10.96
-13.26
-14.85
-15.6
-15.32
-13.85
-11.24
-7.76
-3.84
0.1
3.76
6.97
9.67
11.76
13.05
13.36
12.62
10.97
8.72
6.32
4.16
2.52
1.57
1.29
1.56
2.13
2.75
3.2
3.44
3.52
3.57
3.71
3.89
3.95
3.63
2.73
1.23
-0.68
-2.67
-4.34
-5.32
-5.27
-4.01
-1.47
2.17
6.59
11.31
15.78
19.52
22.2
23.68
24.04
23.44
22.13
20.28
18.09
15.71
13.28
10.89
8.65
6.77
5.45
4.92
5.29
6.4
7.72
8.41
7.54
4.42
-1.03
-8.3
-16.26
-23.52
-28.89
-31.63
-31.58
-29.1
-24.88
-19.75
-14.61
-10.15
-6.85
-4.96
-4.44
-5.07
-6.52
-8.51
-10.68
-12.79
-14.46
-15.21
-14.6
-12.33
-8.36
-3
3.13
9.28
14.66
18.69
21
21.52
20.5
18.35
15.58
12.72
10.22
8.49
7.83
8.47
10.41
13.53
17.34
21.07
23.95
25.41
25.35
24.19
22.65
21.36
20.52
19.86
18.74
16.69
13.61
9.91
6.25
3.19
0.84
-1.14
-3.31
-6.23
-10.14
-15.06
-20.88
-27.45
-34.51
-41.7
-48.39
-53.81
-57.35
-58.72
-58.18
-56.37
-54.12
-52.16
-50.92
-50.6
-51.12
-52.39
-54.22
-56.32
-58.25
-59.29
-58.65
-55.64
-49.92
-41.75
-31.98
-21.75
-12.05
-3.37
4.56
12.43
20.95
30.41
40.42
50.05
58.18
63.95
66.94
67.28
65.32
61.58
56.56
50.78
44.79
39.28
34.9
32.07
30.81
30.67
30.82
30.52
29.33
27.42
25.41
23.97
23.43
23.54
23.61
22.77
20.51
16.8
12.13
7.28
2.91
-0.6
-3.18
-4.94
-6.05
-6.57
-6.54
-5.94
-4.81
-3.3
-1.67
-0.16
1.03
1.76
2.03
1.78
1.01
-0.22
-1.81
-3.5
-4.92
-5.72
-5.72
-5
-3.94
-3.04
-2.71
-3.21
-4.47
-6.23
-8.15
-9.95
-11.52
-13.01
-14.65
-16.67
-19.15
-21.87
-24.44
-26.38
-27.22
-26.58
-24.19
-20.08
-14.46
-7.97
-1.43
4.27
8.5
11.04
12.16
12.39
12.22
11.95
11.51
10.7
9.38
7.57
5.51
3.62
2.34
1.95
2.54
3.87
5.43
6.66
7.08
6.56
5.38
4.16
3.49
3.69
4.68
6.02
7.18
7.64
7.09
5.39
2.68
-0.53
-3.38
-4.75
-3.59
0.57
7.26
15.17
22.47
27.52
29.46
28.42
25.32
21.35
17.49
14.16
11.39
8.98
6.81
5.01
3.86
3.49
3.71
4.01
3.77
2.58
0.5
-2
-4.23
-5.56
-5.82
-5.19
-4.16
-3.26
-2.76
-2.69
-2.8
-2.83
-2.52
-1.72
-0.37
1.55
4.02
7.03
10.44
14
17.37
20.12
21.93
22.65
22.27
20.92
18.87
16.46
14.05
11.96
10.35
9.27
8.53
7.85
6.89
5.58
4
2.43
1.12
0.08
-0.88
-2.16
-4.04
-6.57
-9.54
-12.54
-15.12
-16.99
-18.04
-18.22
-17.61
-16.28
-14.34
-11.96
-9.38
-6.86
-4.54
-2.57
-0.97
0.21
0.88
0.99
0.43
-0.82
-2.71
-5.01
-7.32
-9.12
-9.89
-9.3
-7.38
-4.64
-1.94
-0.18
-0.02
-1.62
-4.56
-8.06
-11.23
-13.38
-14.27
-14.19
-13.77
-13.76
-14.72
-16.77
-19.53
-22.26
-24.13
-24.58
-23.37
-20.66
-16.82
-12.28
-7.45
-2.7
1.68
5.41
8.21
9.92
10.37
9.53
7.46
4.46
0.97
-2.43
-5.27
-7.38
-8.84
-9.94
-11
-12.14
-13.22
-14
-14.3
-14.05
-13.39
-12.51
-11.56
-10.73
-10.14
-9.93
-10.24
-11.04
-12.08
-12.95
-13.11
-12.14
-9.82
-6.22
-1.61
3.58
8.85
13.8
17.98
21.06
22.8
23.15
22.21
20.24
17.5
14.32
11.02
7.84
4.9
2.17
-0.6
-3.84
-7.94
-13.14
-19.3
-25.91
-32.18
-37.33
-40.89
-42.84
-43.6
-43.79
-44.03
-44.62
-45.43
-46.01
-45.73
-44.03
-40.64
-35.7
-29.66
-23.26
-17.25
-12.3
-8.89
-7.29
-7.52
-9.35
-12.27
-15.51
-18.18
-19.49
-18.93
-16.46
-12.52
-7.83
-3.18
0.83
3.96
6.21
7.76
8.84
9.53
9.85
9.77
9.28
8.52
7.71
7.07
6.72
6.75
7.14
7.98
9.37
11.32
13.69
16.2
18.4
19.86
20.4
20.1
19.35
18.55
18.08
18.06
18.45
19.09
19.75
20.29
20.57
20.51
20.1
19.37
18.42
17.39
16.37
15.42
14.6
13.86
13.12
12.28
11.16
9.6
7.57
5.2
2.81
0.77
-0.63
-1.31
-1.33
-0.82
0.17
1.68
3.75
6.33
9.18
11.93
14.19
15.68
16.21
15.78
14.45
12.46
10.08
7.68
5.61
4.19
3.52
3.52
4.02
4.85
5.88
6.97
8
8.82
9.32
9.51
9.46
9.29
8.98
8.36
7.11
4.96
1.91
-1.61
-4.95
-7.38
-8.41
-8.04
-6.57
-4.47
-2.22
-0.03
1.98
3.84
5.6
7.28
8.76
9.96
10.76
11.07
10.94
10.39
9.55
8.52
7.41
6.36
5.56
5.27
5.56
6.4
7.47
8.38
8.78
8.6
8.04
7.47
7.14
7.07
7.06
6.73
5.84
4.36
2.52
0.65
-0.95
-2.14
-2.91
-3.31
-3.35
-3.03
-2.28
-1.19
0.12
1.38
2.4
3.01
3.17
2.92
2.26
1.22
-0.22
-2.01
-3.99
-5.91
-7.38
-8.07
-7.78
-6.47
-4.34
-1.73
0.94
3.3
5.03
5.9
5.81
4.76
2.96
0.72
-1.57
-3.67
-5.45
-7.02
-8.56
-10.18
-11.84
-13.32
-14.2
-14.13
-12.89
-10.49
-7.16
-3.33
0.52
3.88
6.35
7.67
7.78
6.79
4.94
2.51
-0.2
-2.97
-5.62
-7.98
-9.96
-11.51
-12.61
-13.36
-13.89
-14.38
-15.01
-15.83
-16.8
-17.72
-18.35
-18.43
-17.81
-16.5
-14.58
-12.2
-9.4
-6.1
-2.12
2.69
8.25
14.28
20.29
25.91
30.89
35.2
38.85
41.79
43.89
45.03
45.28
44.89
44.29
43.81
43.45
42.89
41.57
39.08
35.31
30.45
24.88
19.04
13.21
7.54
2.15
-2.79
-7.03
-10.28
-12.4
-13.5
-13.84
-13.79
-13.6
-13.29
-12.68
-11.51
-9.57
-6.84
-3.44
0.37
4.25
7.89
10.94
13.17
14.46
14.97
15.01
14.96
15.01
15.09
14.98
14.4
13.36
12.09
10.96
10.18
9.8
9.57
9.25
8.77
8.16
7.49
6.72
5.66
3.89
1.08
-2.93
-8.12
-14.26
-21.15
-28.63
-36.49
-44.55
-52.58
-60.44
-68.05
-75.41
-82.38
-88.6
-93.51
-96.4
-96.77
-94.44
-89.45
-81.95
-72.01
-59.64
-44.88
-28.08
-9.93
8.49
26
41.43
53.79
62.33
66.75
67.31
64.84
60.58
55.71
51.05
46.81
42.69
38.24
33.25
27.83
22.37
17.26
12.64
8.48
4.73
1.51
-0.88
-2.02
-1.78
-0.4
1.49
3.03
3.54
2.72
0.92
-1.11
-2.32
-1.84
0.77
5.19
10.46
15.11
17.55
16.47
11.28
2.4
-8.78
-20.06
-29.13
-34.06
-33.92
-29.06
-20.94
-11.56
-2.87
3.92
8.56
11.59
13.85
15.97
18.18
20.21
21.69
22.44
22.45
21.89
20.95
19.56
17.58
15.02
12.22
9.66
7.7
6.09
3.98
0.17
-6.25
-15.33
-26.09
-36.91
-46.18
-52.95
-57
-58.53
-57.74
-54.62
-49.18
-41.9
-34.05
-27.32
-23.22
-22.35
-24.09
-26.99
-29.58
-31.06
-31.66
-32.15
-33.21
-34.83
-36.14
-35.86
-32.82
-26.66
-17.92
-7.9
1.79
9.72
14.87
16.81
15.68
12.19
7.51
3.03
0.1
-0.46
1.46
5.22
9.67
13.59
16.13
17.05
16.67
15.69
14.85
14.68
15.37
16.77
18.44
19.81
20.36
19.75
17.86
14.74
10.58
5.6
0.1
-5.5
-10.63
-14.58
-16.55
-15.85
-12.2
-5.81
2.56
11.84
20.99
29.41
36.87
43.36
48.79
52.68
54.13
52.16
46.27
36.72
24.6
11.36
-1.68
-13.79
-24.94
-35.74
-46.7
-57.83
-68.44
-77.29
-83.4
-86.42
-86.93
-86.42
-87.08
-90.63
-97.56
-106.71
-114.96
-118.54
-113.61
-97.07
-67.45
-26.37
22.81
76.01
129.61
181.85
231.93
280.51
329.41
379.63
427.97
468.66
495
501.97
489.55
461.05
422.36
380.39
339.87
299.18
254.67
203.7
146.09
85.87
25.53
-35.15
-94.15
-146.82
-191.11
-225.7
-250.23
-277.29
-305.92
-333.37
-359.42
-387.51
-413.35
-440.57
-471.87
-506.76
-541.79
-569.25
-582.72
-577.45
-551.01
-487.74
-388.49
-267.1
-145.76
-45.09
26.05
68.62
89.39
96.31
95.55
87.41
70.31
48.35
28.95
20.93
29.48
54.42
90.64
129.55
159
170.33
161.2
136.69
106.64
82.11
71.86
78.94
100.41
128.03
155.05
178.88
200.93
223.74
247.06
268.77
286.23
298.14
303.61
305.96
306.84
307.12
306.12
299.57
282.99
253.43
210.96
156.72
93.41
23.76
-49.99
-126.69
-208.84
-298.97
-398.87
-500.14
-594.73
-675.18
-735.97
-773.98
-770.52
-716.98
-616.13
-482.41
-335.58
-194.64
-72.26
25.95
99.25
150.05
180.12
192.88
192.87
185.94
176.69
168.22
162.49
159.31
157.6
154.2
147.16
137.05
128.17
126.76
138.58
166.59
208.85
256.89
298.91
324.86
329.67
314.3
283.78
239.96
191.21
142.2
94.97
50.32
9.63
-25.03
-51.94
-70.57
-82.31
-88.73
-93.06
-97.72
-104.11
-112.42
-122.08
-132.46
-142.71
-152.55
-160.66
-167.03
-169.48
-165.41
-152.26
-128.45
-93.99
-50.31
-1.17
49.15
95.43
133.27
159.35
171.83
170.19
152.75
122.66
83.16
37.78
-10.4
-58.32
-103.24
-142.75
-175.54
-200.2
-214.76
-218.4
-210.94
-192.91
-165.34
-130.01
-89.22
-45.63
-3.06
35.84
68.73
94.27
112.01
122.44
126.55
125.56
120.92
114.05
106.42
98.74
91.47
84.73
78.53
72.78
67.24
61.8
56.49
51.52
46.86
42.63
38.76
35.25
31.85
28.54
25.3
22.2
19.49
17.32
16.34
16.81
19.33
23.99
30.75
39.3
49.06
59.77
69.29
76.08
78.48
75.51
66.54
51.66
31.82
8.77
-15.4
-38.61
-58.54
-73.6
-82.78
-85.94
-83.56
-76.74
-67.04
-55.93
-44.97
-35.3
-27.81
-22.8
-20.08
-19.19
-19.04
-18.93
-17.79
-15.04
-10.64
-5.23
0.62
6.51
11.99
17.24
22.38
28.08
34.54
41.39
47.61
52.17
54.46
54.37
52.71
50.89
51.15
54.99
63.06
75.14
90.46
107.92
126.56
145.93
165.73
186.84
210.01
235.82
264.05
293.1
319.54
338.82
346.84
335.88
304.25
255.15
195.53
133.74
76.97
29.55
-7.22
-34.16
-53.01
-64.72
-70.48
-71.73
-70.36
-68.39
-67.4
-68.19
-70.89
-75.27
-80.58
-86.73
-94.13
-103.34
-114.59
-127.38
-140.54
-152.61
-162.5
-169.59
-174.5
-178.67
-183.64
-190.1
-197.09
-202.08
-201.71
-193.31
-175.82
-150.78
-121.96
-94.22
-72.07
-58.36
-53.57
-55.77
-61.2
-65.45
-64.94
-58.24
-46.48
-32.85
-21.07
-13.73
-11.41
-12.7
-15.34
-17.5
-18.43
-18.42
-18.06
-17.48
-16.17
-13.19
-7.59
1.16
13.04
27.53
43.82
60.69
76.93
91.4
103.29
112.2
118.1
121.27
122.11
121.21
119.22
116.92
115.05
114.19
114.69
116.45
118.86
120.88
121.17
118.36
111.42
99.85
83.74
63.66
40.24
13.94
-15.16
-47.1
-81.72
-118.16
-154.71
-189.05
-218.81
-242.43
-259.65
-271.68
-280.49
-288.03
-295.26
-301.82
-306.37
-307.29
-303.52
-294.89
-282.05
-265.96
-247.42
-226.84
-204.16
-179.08
-151.28
-120.86
-88.46
-55.35
-23.19
6.26
31.53
51.58
65.86
74.28
77.02
74.73
68.45
59.68
50.07
41.14
34.03
29.47
27.94
29.66
34.48
41.55
49.37
56.12
60.35
61.56
60.31
57.76
55.07
52.9
51.2
49.67
48.07
46.46
45.27
45.23
47.16
51.89
59.93
70.94
83.69
96.08
105.8
111.22
112.05
109.24
104.46
99.07
93.55
87.5
80.33
71.86
62.71
54.08
47.05
42.13
38.9
36.28
33
27.98
20.76
11.27
-0.11
-12.86
-26.42
-40.27
-53.85
-66.64
-78.14
-88.02
-96.17
-102.8
-108.05
-111.75
-113.02
-110.52
-103.08
-90.54
-74.33
-57.25
-42.48
-32.22
-26.88
-25.05
-24.51
-23.46
-21.36
-18.73
-16.39
-14.53
-12.35
-8.43
-1.57
8.38
20.26
32.03
41.63
47.66
49.92
49.17
46.63
43.46
40.34
37.41
34.39
30.9
26.66
21.63
16.1
10.64
6.14
3.52
3.57
6.52
11.87
18.42
24.69
29.42
31.95
32.27
30.72
27.56
22.74
16.15
8.02
-0.71
-8.47
-13.57
-14.99
-12.89
-8.71
-4.61
-2.52
-3.26
-6.41
-10.47
-13.68
-14.95
-14.17
-12.24
-10.48
-9.97
-11.1
-13.65
-16.96
-20.24
-22.74
-23.63
-22.06
-17.49
-10.03
-0.68
8.74
16.24
20.35
20.67
17.94
13.5
8.61
3.87
-0.77
-5.64
-10.78
-15.66
-19.21
-20.25
-18.04
-12.66
-5.05
3.27
10.76
16.27
19.51
20.92
21.33
21.56
22.03
22.68
23
22.48
20.66
17.54
13.44
9
5.09
2.69
2.72
5.75
11.84
20.2
29.39
37.53
42.92
44.44
41.67
34.91
24.99
13.2
1.23
-9.09
-16.08
-18.76
-17.11
-12.28
-6.3
-1.33
0.99
0.17
-3
-6.92
-9.93
-10.98
-10.04
-7.95
-5.93
-4.9
-5.14
-6.35
-8.11
-10.18
-12.42
-14.46
-15.33
-13.74
-8.63
-0.06
10.65
21.22
29.38
33.85
34.65
32.82
29.6
25.8
21.72
17.4
13.06
9.33
7.09
7.13
9.79
14.76
21
27.18
31.86
34.09
33.72
31.28
27.8
24.21
20.93
17.71
14
9.25
3.18
-4.16
-12.63
-22.03
-32.03
-41.81
-50.17
-55.67
-57.32
-55.04
-49.91
-43.69
-38.14
-34.44
-32.82
-32.82
-33.72
-34.99
-36.33
-37.59
-38.5
-38.44
-36.67
-32.55
-25.92
-17.37
-8.11
0.41
7.04
11.15
12.81
12.43
10.57
7.73
4.36
0.91
-2.26
-4.9
-7.02
-8.83
-10.65
-12.52
-14.12
-14.65
-13.11
-8.64
-1.09
8.82
19.5
28.92
35.4
38.05
37.17
33.89
29.53
25.02
20.65
16.2
11.5
6.88
3.04
0.84
0.83
2.87
6.11
9.34
11.41
11.64
10.02
7.04
3.45
-0.07
-3.1
-5.47
-7.17
-8.29
-9.03
-9.66
-10.63
-12.35
-14.88
-17.59
-19.18
-18.04
-12.96
-3.83
8.1
20.62
31.34
38.56
41.67
41.07
37.69
32.36
25.68
18.13
10.4
3.54
-1.25
-3.04
-1.59
2.48
7.99
13.54
18.12
21.24
22.92
23.37
22.79
21.23
18.81
15.67
12.16
8.71
5.62
2.96
0.3
-2.97
-7.34
-12.68
-18
-21.68
-22.08
-18.35
-10.95
-1.67
7.14
13.32
15.79
14.64
10.85
5.58
-0.3
-6.4
-12.44
-17.95
-22.15
-24.13
-23.27
-19.53
-13.59
-6.65
0.02
5.35
8.79
10.18
9.66
7.63
4.56
1.1
-2.05
-4.27
-5.32
-5.4
-5.24
-5.8
-7.81
-11.46
-15.97
-19.84
-21.21
-18.7
-12.01
-2.28
8.17
16.69
21.1
20.55
15.52
7.46
-1.96
-11.37
-19.77
-26.61
-31.37
-33.63
-33.13
-30.03
-25.05
-19.42
-14.53
-11.44
-10.65
-11.9
-14.42
-17.23
-19.48
-20.62
-20.45
-19.02
-16.48
-13.05
-9.06
-5.08
-1.84
-0.01
0.41
0.25
1.12
4.71
12.06
22.89
35.61
47.86
57.48
63.19
64.88
63.22
59.27
54.02
48.22
42.49
37.35
33.11
29.92
27.68
26.07
24.8
23.54
21.94
19.62
16.28
11.71
5.97
-0.64
-7.71
-14.76
-21.42
-27.33
-32.12
-35.35
-37.01
-37.35
-37.02
-36.68
-36.51
-36.08
-34.49
-30.99
-25.39
-18.41
-11.3
-5.43
-1.72
-0.43
-1.24
-3.55
-6.72
-10.26
-13.71
-16.59
-18.34
-18.46
-16.49
-12.27
-5.98
1.66
9.47
15.98
19.87
20.39
17.59
12.43
6.31
0.64
-3.63
-6.18
-7.28
-7.47
-7.3
-7.22
-7.42
-7.81
-8.05
-7.37
-4.91
-0.07
7.11
15.71
24.07
30.46
33.75
33.74
31.16
27.08
22.39
17.44
12.22
6.53
0.64
-4.59
-7.88
-7.95
-4.13
3.13
12.29
21.12
27.47
30.1
29.05
25.57
21.73
19.52
20.24
23.97
29.61
35.11
38.15
36.59
28.95
15.07
-3.98
-25.67
-46.47
-62.65
-71.3
-71.16
-63.18
-50.19
-35.85
-23.48
-15.01
-10.64
-9.42
-10.05
-11.5
-13.31
-15.21
-16.82
-17.46
-16.42
-13.38
-8.6
-3.04
2.19
6.25
8.9
10.51
11.62
12.63
13.51
13.85
13.14
11.07
7.84
4.21
1.17
-0.62
-1.22
-1.48
-2.44
-4.7
-7.76
-10.22
-10.41
-7.45
-1.81
4.87
10.52
13.66
13.87
11.71
8.11
3.85
-0.7
-5.38
-9.72
-12.9
-13.8
-11.58
-6.1
1.91
11.02
19.66
26.59
31.27
33.75
34.44
33.74
31.84
28.81
24.79
20.05
15.03
10.05
5.09
-0.03
-5.48
-11.29
-17.22
-22.93
-28.08
-32.28
-35.08
-35.79
-33.71
-28.42
-20.17
-9.94
0.77
10.41
17.92
22.85
25.25
25.36
23.38
19.61
14.63
9.35
4.74
1.54
-0.18
-0.95
-1.53
-2.49
-3.85
-5.19
-5.94
-5.88
-5.3
-4.94
-5.49
-7.31
-10.13
-13.24
-15.86
-17.32
-17.44
-16.33
-14.57
-12.89
-11.95
-11.96
-12.47
-12.43
-10.63
-6.24
0.75
9.3
17.67
24.05
27.05
26.26
22.23
16.12
9.29
2.97
-1.99
-5.17
-6.51
-6.33
-5.16
-3.65
-2.36
-1.75
-2.06
-3.3
-5.36
-8.03
-11.28
-15.21
-20
-25.65
-31.73
-37.41
-41.69
-43.62
-42.73
-39.26
-34.01
-28.19
-22.96
-18.83
-15.43
-11.52
-5.63
3.08
14.23
26.09
36.1
41.96
42.55
38.26
30.82
22.44
15.05
9.91
7.53
7.96
10.93
15.87
21.87
27.78
32.48
35.09
35.29
33.19
29.31
24.23
18.49
12.49
6.61
1.28
-3.02
-5.88
-7.19
-7.27
-6.8
-6.55
-7.01
-8.37
-10.5
-13.18
-16.11
-18.91
-20.84
-20.82
-17.72
-10.79
-0.39
11.92
23.75
32.65
36.92
36.05
30.74
22.39
12.68
3.07
-5.29
-11.58
-15.33
-16.47
-15.37
-12.71
-9.33
-5.83
-2.49
0.73
3.92
6.94
9.41
10.8
10.79
9.38
6.99
4.12
1.29
-1.16
-3.09
-4.36
-5.02
-5.36
-6.06
-8
-11.75
-17.02
-22.36
-25.68
-25.07
-19.88
-11.16
-1.28
7.07
12.11
13.55
12.45
10.36
8.45
7.02
5.64
3.72
1.12
-1.72
-4.09
-5.35
-5.28
-4.01
-1.9
0.75
3.65
6.43
8.71
10.1
10.41
9.81
8.72
7.66
6.96
6.71
6.75
6.86
6.68
5.76
3.6
-0.1
-5.04
-10.11
-13.55
-13.64
-9.63
-2.34
6.09
13
16.36
15.56
11.46
5.75
0.14
-4.31
-7.3
-8.91
-9.34
-8.74
-7.13
-4.79
-2.11
0.47
2.72
4.76
6.9
9.46
12.34
15.1
17.01
17.41
16.08
13.41
10.1
6.99
4.7
3.41
2.86
2.46
1.48
-0.51
-3.49
-6.71
-8.89
-8.58
-5.02
1.37
8.92
15.26
18.28
17
11.97
4.75
-2.75
-9.22
-14.09
-17.27
-18.8
-18.7
-16.98
-13.97
-10.32
-6.82
-3.91
-1.46
1.04
3.99
7.18
9.8
10.65
8.98
4.92
-0.44
-5.54
-9.01
-10.23
-9.4
-7.4
-5.48
-4.75
-5.93
-8.98
-13.19
-17.22
-19.52
-18.92
-15.01
-8.46
-0.81
6.01
10.3
11.18
8.85
4.43
-0.65
-5.14
-8.51
-10.89
-12.85
-14.9
-17.15
-19.25
-20.68
-21.24
-21.1
-20.89
-21.15
-22.03
-23.12
-23.73
-23.2
-21.38
-18.67
-15.64
-12.65
-9.62
-6.12
-1.93
2.56
6.32
8.17
7.49
4.93
2.27
1.63
4.38
10.38
18.01
25.02
29.53
30.76
29.27
26.14
22.42
18.67
15.13
12.04
9.89
9.26
10.31
12.64
15.12
16.57
16.41
14.92
13.04
11.68
11.2
11.16
10.8
9.48
7.16
4.39
1.84
-0.11
-1.44
-2.49
-3.56
-4.72
-5.98
-7.36
-9.1
-11.48
-14.39
-17.13
-18.61
-17.84
-14.56
-9.64
-4.81
-1.96
-2.22
-5.48
-10.45
-15.45
-19.19
-21.2
-21.77
-21.37
-20.12
-17.77
-13.83
-8.14
-1.15
6.18
12.7
17.57
20.53
21.85
21.94
21.16
19.59
17.16
13.8
9.69
5.21
0.94
-2.67
-5.46
-7.67
-9.77
-12.16
-14.82
-17.16
-18.23
-17.13
-13.43
-7.39
-0.01
7.34
13.28
16.81
17.47
15.39
11.2
5.82
0.3
-4.38
-7.51
-8.69
-8
-5.86
-3.06
-0.3
1.9
3.3
4.09
4.55
4.93
5.19
5.16
4.5
3
0.65
-2.34
-5.51
-8.24
-9.8
-9.67
-7.73
-4.58
-1.42
0.31
-0.39
-3.52
-7.93
-11.69
-12.95
-10.79
-5.58
1.08
7.08
10.58
10.67
7.55
2.36
-3.36
-8.33
-11.72
-13.37
-13.51
-12.53
-10.68
-8.06
-4.68
-0.66
3.69
7.89
11.48
14.1
15.63
16.01
15.22
13.18
9.87
5.45
0.39
-4.61
-8.69
-11.11
-11.52
-10.09
-7.6
-5.25
-4.21
-5.17
-7.94
-11.4
-13.91
-13.91
-10.68
-4.55
3.14
10.58
16.21
19.13
19.43
17.79
15.11
12.16
9.54
7.56
6.5
6.49
7.47
9.16
11.13
12.84
13.98
14.56
14.86
15.19
15.56
15.53
14.42
11.69
7.37
2.2
-2.63
-6.08
-7.57
-7.29
-6.04
-4.89
-4.79
-6.35
-9.55
-13.83
-18.1
-20.88
-20.84
-17.28
-10.38
-1.42
7.73
15.18
19.69
20.92
19.41
16.26
12.51
9.08
6.5
5.04
4.73
5.37
6.55
7.78
8.68
8.95
8.56
7.5
5.85
3.69
1.15
-1.5
-3.99
-6.13
-7.99
-9.83
-11.92
-14.12
-15.84
-16.35
-15.26
-13.08
-11.11
-10.85
-12.9
-16.55
-19.74
-20.08
-16.02
-7.65
3.14
13.49
20.72
23.43
21.74
17.12
11.52
6.43
2.6
-0.03
-1.84
-3.11
-3.81
-3.7
-2.59
-0.6
1.8
4.09
5.85
6.97
7.56
7.76
7.6
6.98
5.84
4.14
2.02
-0.35
-2.77
-4.9
-6.42
-7.08
-6.88
-6.24
-5.81
-6.16
-7.29
-8.56
-8.72
-6.65
-1.85
5.1
12.74
19.22
22.98
23.4
20.84
16.42
11.48
7.11
3.89
1.91
0.96
0.73
0.96
1.46
2.07
2.64
3.03
3.19
3.14
2.95
2.61
1.95
0.7
-1.34
-4.18
-7.69
-11.5
-15.13
-18.03
-19.79
-20.16
-19.37
-18.05
-17.01
-16.88
-17.62
-18.45
-18.03
-15.09
-8.97
-0.14
9.94
19.26
25.98
29
28.2
24.27
18.45
12.04
6.21
1.71
-0.96
-1.82
-1.16
0.37
2.07
3.5
4.53
5.52
6.95
9.24
12.17
15
16.67
16.23
13.39
8.53
2.67
-3.01
-7.43
-10.1
-11.03
-10.85
-10.52
-10.99
-12.77
-15.6
-18.44
-19.73
-18.1
-13.02
-5.12
3.84
11.66
16.46
17.38
14.71
9.73
4.1
-0.74
-3.8
-4.77
-3.76
-1.29
2.1
5.87
9.59
12.97
15.77
17.82
19.01
19.38
19
18.07
16.74
15.07
13
10.37
7.17
3.69
0.57
-1.36
-1.46
0.34
3.34
6.27
7.9
7.67
6.12
4.73
5.17
8.46
14.38
21.45
27.71
31.5
32.13
30
26.14
21.73
17.65
14.52
12.79
12.91
15.37
20.45
28.04
37.61
48.33
59.26
69.61
78.81
86.56
92.72
97.36
100.74
103.18
105.02
106.39
107.28
107.72
108.03
108.93
111.32
115.85
122.42
130.1
137.46
143.23
146.72
147.86
146.62
142.5
134.28
120.32
99.23
70.59
35.08
-5.53
-48.95
-92.64
-134.14
-171.17
-202.04
-225.86
-242.98
-255.1
-264.75
-274.5
-285.82
-298.38
-309.81
-316.42
-314.52
-301.8
-278.4
-246.96
-211.94
-177.93
-148.38
-124.69
-106.34
-91.78
-79.45
-68.56
-59.02
-51.01
-44.32
-38.07
-31.01
-22.15
-11.54
-0.31
9.77
17.27
21.74
23.9
25.14
26.63
28.81
31.29
33.39
34.84
36.11
38.14
41.79
47.19
53.59
59.68
64.17
66.18
65.46
62.3
57.27
51.08
44.47
38.05
32.36
27.69
24
20.93
17.74
13.61
7.9
0.72
-6.96
-13.22
-15.89
-13.4
-5.56
6.09
18.78
29.54
36.23
38.15
36
31.11
24.82
18.08
11.36
4.93
-0.82
-5.42
-8.41
-9.61
-9.4
-8.73
-8.94
-11.22
-16.18
-23.38
-31.51
-38.85
-43.9
-46.02
-45.39
-42.82
-39.22
-35.23
-31.21
-27.4
-24.07
-21.39
-19.15
-16.54
-12.33
-5.53
4.02
15.27
26.29
34.98
39.88
40.61
37.93
33.21
27.87
22.86
18.57
14.92
11.64
8.57
5.64
3.06
1.05
-0.17
-0.53
-0.03
1.19
2.91
4.79
6.33
6.9
5.95
3.18
-1.05
-5.87
-10.06
-12.58
-13.11
-12.22
-11.13
-11.11
-12.7
-15.21
-16.93
-15.96
-11.15
-2.85
7.28
16.99
24.35
28.37
29.03
26.84
22.45
16.49
9.6
2.69
-3.18
-7.04
-8.35
-7.17
-4.09
0.09
4.58
8.82
12.43
15.27
17.39
19.06
20.62
22.35
24.27
26.17
27.84
29.21
30.55
32.28
34.65
37.45
39.97
41.24
40.75
38.86
36.89
36.7
39.74
46.28
55.12
63.99
70.46
72.83
70.74
65.06
57.34
49.04
41.04
33.5
26.29
19.34
12.93
7.61
3.77
1.36
-0.19
-1.68
-3.71
-6.34
-9.07
-11.23
-12.45
-12.95
-13.34
-14.28
-16.03
-18.34
-20.72
-22.82
-24.74
-27.03
-30.31
-34.86
-40.21
-45.27
-48.61
-49.06
-46.15
-40.37
-32.91
-25.46
-19.48
-15.97
-15.25
-17.07
-20.84
-25.94
-31.77
-37.59
-42.59
-45.73
-46.06
-42.97
-36.53
-27.6
-17.58
-8.04
-0.26
5.05
7.83
8.49
7.73
6.43
5.41
5.19
5.86
6.96
7.66
6.99
4.39
0.03
-5.06
-9.33
-11.16
-9.62
-4.82
1.97
8.71
13.34
14.53
12.06
6.85
0.32
-6.33
-12.52
-18.3
-23.87
-29.08
-33.23
-35.26
-34.21
-29.73
-22.4
-13.52
-4.72
2.48
7.19
9.24
9.13
7.75
6.05
4.61
3.62
2.95
2.53
2.56
3.43
5.5
8.72
12.72
17.05
21.67
26.91
33.21
40.53
47.94
53.83
56.44
54.81
49.01
40.08
29.29
17.75
6.21
-4.57
-13.65
-19.87
-22.37
-21.03
-16.76
-11.16
-5.78
-1.48
1.7
4.36
7.1
10.13
13.27
16.03
17.88
18.23
16.46
11.83
3.69
-7.97
-22.21
-36.93
-49.35
-56.78
-57.72
-52.31
-42.38
-30.65
-19.81
-11.76
-7.29
-6.21
-7.65
-10.49
-13.56
-15.84
-16.62
-15.64
-13.15
-9.6
-5.38
-0.56
4.94
11.04
17.12
22.05
24.68
24.37
21.42
16.91
12.18
8.27
5.61
4.23
3.97
4.72
6.2
7.98
9.44
10.2
10.43
11
12.99
16.99
22.72
28.9
33.93
36.63
36.72
34.76
31.6
27.85
23.61
18.72
13.32
8.05
3.98
2.03
2.41
4.47
6.96
8.66
8.95
8.02
6.63
5.59
5.31
5.64
6.02
5.91
4.98
3.25
0.92
-1.82
-4.9
-8.34
-11.94
-15.22
-17.32
-17.33
-14.67
-9.6
-3.26
2.62
6.49
7.58
6.17
3.26
-0.05
-3.18
-6.08
-9.07
-12.34
-15.67
-18.47
-20.01
-19.71
-17.44
-13.52
-8.68
-3.83
0.05
2.06
1.67
-1.05
-5.35
-9.99
-13.64
-15.38
-15
-12.99
-10.38
-8.21
-7.12
-6.97
-6.84
-5.44
-1.75
4.48
12.53
20.82
27.5
31.1
31.02
27.65
22.08
15.67
9.51
4.24
0.03
-3.04
-4.93
-5.39
-4.14
-1.16
3.11
7.75
11.64
13.84
13.99
12.33
9.61
6.66
4.14
2.23
0.7
-0.84
-2.7
-4.95
-7.44
-9.84
-11.69
-12.47
-11.64
-8.78
-3.9
2.5
9.46
15.83
20.64
23.31
23.72
22.09
18.75
14.01
8.24
2
-3.86
-8.3
-10.47
-9.93
-6.93
-2.33
2.61
6.6
8.71
8.72
7.1
4.7
2.34
0.46
-0.92
-2.14
-3.46
-5.01
-6.7
-8.5
-10.48
-12.75
-15.29
-17.47
-18.15
-16.04
-10.47
-1.94
7.88
16.69
22.4
24.04
21.91
17.32
11.83
6.57
1.89
-2.46
-6.76
-10.89
-14.29
-16.14
-15.88
-13.54
-9.92
-6.18
-3.44
-2.31
-2.74
-4.08
-5.5
-6.31
-6.15
-4.99
-3.12
-0.94
1.01
2.13
1.89
0.01
-3.24
-6.99
-10.01
-11.13
-9.72
-6.08
-1.26
3.26
6.2
6.95
5.67
3.17
0.44
-1.77
-3.19
-3.99
-4.61
-5.4
-6.46
-7.41
-7.71
-6.82
-4.61
-1.39
2.18
5.42
7.83
9.14
9.22
7.96
5.3
1.34
-3.38
-8.02
-11.72
-13.98
-15.11
-15.98
-17.63
-20.45
-23.82
-26.24
-26.02
-22.06
-14.51
-4.83
4.82
12.24
16.1
16.19
13.31
8.75
3.67
-1.17
-5.5
-9.2
-11.98
-13.25
-12.36
-8.96
-3.43
3.16
9.38
14.05
16.62
17.34
16.86
15.81
14.33
12.19
9.04
4.83
0.12
-4.05
-6.6
-6.98
-5.43
-2.96
-0.74
0.5
0.98
1.69
3.85
8.06
13.92
20.26
25.7
29.05
29.92
28.54
25.64
22
18.08
14
9.99
6.43
3.89
2.89
3.67
6.11
9.69
13.28
15.78
16.72
16.51
16
15.95
16.69
18.09
19.75
20.16
18.13
13.75
8.68
4.86
3.44
4.18
5.95
7.6
6.75
2.44
-3.41
-6.51
-2.99
8.25
25.27
44.61
63.07
75.63
78.81
72.78
61.58
49.96
40.95
35.41
32.61
30.38
20.84
-5.08
-52.9
-121.5
-205.85
-299.54
-396.3
-490.54
-550.89
-551.19
-488.24
-385.28
-270.78
-162.74
-67.23
15.66
87.8
151.15
203.22
241.07
266.36
284.49
299.2
311.45
319.89
322.54
318.06
302.93
274.23
225.65
164.35
100.08
40.43
-10.45
-50.8
-79.96
-100.11
-114.22
-124.31
-129.84
-131.05
-128.98
-125.2
-121.4
-118.85
-119
-121.66
-123.85
-119.41
-103.46
-74.55
-35.86
5.77
42.39
67.58
78.91
78.19
70.59
60.97
52.55
46.61
43.13
41.68
41.55
41.94
41.92
40.81
38.11
33.97
29.06
24.53
21.69
21.47
23.64
25.96
24.23
13.04
-11.36
-48.6
-92.51
-132.43
-157.16
-159.57
-139.69
-104.48
-65.15
-30.24
-4.97
9.96
16.78
18.35
16.66
12.76
7.52
2.53
-0.03
1.54
8.04
18.82
32.11
45.86
58.72
70.34
81.14
91.64
101.46
109.42
114.03
114.21
109.88
102.19
93.08
84.5
77.98
74.09
72.62
72.6
72.18
69.15
61.89
50.67
38.22
28.93
26.49
31.47
39.86
44.29
37.24
14.81
-20.94
-62.72
-101.1
-128.27
-140.54
-138.43
-124.89
-102.81
-74.02
-39.54
-0.72
39.66
77.13
106.41
123.13
124.92
112.21
88.48
59.16
30.07
5.72
-11.57
-21.79
-26.59
-28.58
-30.45
-34.46
-41.91
-52.73
-65.28
-76.57
-83.32
-83.18
-75.69
-62.52
-46.48
-30.34
-16
-4.43
3.87
8.25
7.98
2.96
-5.6
-15.15
-22.58
-25.42
-22.62
-14.6
-2.96
10.33
23.22
33.77
40.35
41.93
38.39
30.61
20.16
8.53
-3.26
-14.74
-25.59
-35.04
-41.86
-44.61
-42.37
-35.3
-24.72
-12.69
-1.3
7.93
14.39
18.04
19.3
18.7
16.93
14.74
12.76
11.28
9.95
7.9
4.04
-2.39
-11.23
-21.25
-30.47
-36.62
-37.73
-32.77
-21.81
-6.17
11.78
29.25
43.57
52.99
57.01
56.43
52.88
48.3
44.5
42.86
44.26
48.94
56.72
66.85
78.34
90
100.74
109.83
117.04
122.74
127.91
133.95
142.27
153.76
168.44
185.4
203.1
219.88
234.39
245.69
252.93
255.13
251
239.18
218.76
189.97
154.35
114.53
73.62
34.33
-1.48
-32.91
-59.86
-82.67
-101.71
-117.3
-129.71
-139.07
-145.38
-148.35
-147.55
-142.55
-133.48
-121.29
-107.91
-95.91
-87.74
-85.03
-88.12
-96.12
-107.37
-120.19
-133.44
-146.9
-161.15
-177.38
-197.17
-221.92
-251.9
-285.23
-317.42
-342.06
-352.85
-345.91
-321.42
-283.67
-239.36
-194.85
-154.11
-118.11
-85.8
-55.94
-28.5
-4.68
14.07
27.19
35.65
41.53
47.15
54.19
63.22
73.57
83.84
92.52
98.52
101.46
101.63
99.75
96.46
92.16
86.91
80.71
73.65
65.94
57.64
48.22
36.76
22.71
6.95
-7.56
-16.45
-15.87
-4.64
14.54
35.65
51.77
57.76
51.98
36.08
13.24
-13.48
-41.94
-70.01
-94.6
-111.57
-117.29
-111.23
-97.59
-84.24
-79.14
-85.93
-101.33
-116.64
-122.27
-113.08
-91.1
-64.11
-40.92
-26.63
-20.55
-17.79
-13.19
-4.62
6.2
15.6
20.95
22.7
24.06
28.82
38.89
52.87
66.73
75.83
77.1
70.35
57.99
43.45
29.34
16.39
3.69
-9.79
-23.52
-34.77
-39.63
-35.13
-21.32
-1.68
18.27
33.49
41.57
43.27
41.22
38.06
34.97
31.5
26.63
19.99
12.35
5.3
0.2
-2.71
-4.36
-6.19
-8.98
-12.12
-13.56
-10.81
-2.17
12.44
31.26
51.18
68.91
81.84
88.76
89.87
86.13
78.53
67.66
53.77
37.19
19.19
2.26
-10.28
-15.67
-13.43
-6.08
1.34
3.13
-4.66
-22.33
-46.06
-69.04
-83.75
-84.73
-70.66
-45.51
-17.59
2.93
7.56
-7.46
-39.72
-81.64
-123.33
-155.84
-173.85
-176.46
-166.27
-147.59
-125.12
-102.9
-83.78
-69.56
-61.06
-58.42
-61
-67.39
-75.5
-82.9
-87.47
-88.08
-84.73
-78.04
-68.44
-55.68
-39.12
-18.77
3.98
26.34
45.22
58.59
66.33
70.15
72.57
75.7
80.27
85.75
90.62
93
91.23
84.35
72.56
57.57
42.5
31.15
26.66
30.25
40.68
54.64
67.97
77.21
80.54
78.03
70.93
60.8
48.76
35.49
21.49
7.65
-4.89
-14.98
-21.96
-25.84
-27.17
-26.6
-24.63
-21.56
-17.95
-14.68
-12.97
-13.86
-17.65
-23.48
-29.49
-33.59
-34.21
-30.82
-23.98
-15.11
-6.12
0.92
4.35
3.55
-0.57
-5.72
-8.85
-7.32
-0.04
11.9
25.79
38.39
47.2
51.09
50.22
45.42
37.73
28.19
17.91
8.14
0.05
-5.46
-8.02
-7.76
-5.14
-0.9
4.02
8.59
11.81
12.95
11.71
8.5
4.36
0.68
-1.23
-0.58
2.73
8.05
14.08
19.18
21.79
20.88
16.33
9.15
1.27
-4.88
-7.04
-3.81
4.67
16.66
29.27
39.58
45.64
47.09
45.05
41.35
37.87
35.96
36.42
39.76
46.28
55.97
68.09
80.86
91.64
97.65
96.95
89.21
75.79
59.17
42.09
26.62
13.86
3.97
-3.36
-8.5
-11.7
-13.35
-14.17
-15.19
-17.26
-20.34
-23.2
-23.71
-19.68
-9.89
5.04
22.81
40.26
54.54
64.2
69.3
70.91
70.13
67.48
62.58
54.81
44
31.07
18.03
7.37
1.01
-0.38
2.31
6.99
11.19
12.76
10.46
4.19
-5.11
-15.93
-26.6
-35.8
-42.95
-48.15
-52.21
-56.18
-60.88
-66.65
-72.98
-78.48
-81.27
-79.36
-71.3
-57.09
-38.35
-18.06
0.31
13.95
21.5
23.18
20.21
14.24
6.52
-2.12
-11.09
-19.82
-27.47
-33.03
-35.69
-35.1
-31.54
-25.9
-19.47
-13.55
-9.2
-7.09
-7.35
-9.63
-13.14
-16.92
-20.03
-21.84
-22.26
-21.94
-21.96
-23.42
-26.8
-31.62
-36.4
-39.09
-37.86
-31.69
-20.85
-6.79
8.23
21.72
31.69
37.01
37.46
33.6
26.42
16.96
6.31
-4.43
-14.13
-21.51
-25.49
-25.43
-21.47
-14.49
-5.88
2.77
10.09
15.02
17.03
16.06
12.53
7.27
1.3
-4.47
-9.58
-14.11
-18.55
-23.38
-28.67
-33.82
-37.69
-38.84
-35.94
-28.21
-15.6
0.86
19.22
36.82
51
59.85
62.7
60.25
54.05
45.93
37.39
29.51
23.11
18.96
17.79
19.81
24.45
30.27
35.27
37.62
36.19
30.85
22.4
12.09
1.27
-8.76
-16.94
-22.45
-24.87
-24.38
-22.08
-19.74
-19.3
-22.08
-27.89
-34.86
-39.91
-39.96
-33.31
-20.53
-4.5
10.72
21.35
25.22
22.32
14.33
3.57
-7.94
-19.05
-29.29
-38.5
-46.46
-52.77
-57.07
-59.15
-59.1
-57.12
-53.46
-48.54
-42.97
-37.82
-34.22
-33.14
-34.78
-38.37
-42.31
-44.79
-44.5
-41.11
-35.45
-29.1
-23.73
-20.57
-19.93
-21.24
-23.13
-23.85
-21.6
-15.07
-3.86
11.15
27.92
43.76
56.2
63.7
66.06
64.19
59.47
53.17
46.24
39.5
33.85
30.32
29.92
33.07
39.37
47.59
56.18
63.67
69.12
72.23
73.25
72.74
71.36
69.7
68.11
66.66
65.05
62.74
58.92
52.79
43.67
31.37
16.59
1.1
-12.47
-21.43
-24.05
-20.34
-11.97
-1.61
8.18
15.72
20.38
22.19
21.13
16.97
9.69
-0.15
-11.16
-21.39
-29.17
-33.62
-34.8
-33.4
-30.25
-25.98
-21.13
-16.3
-12.3
-9.87
-9.39
-10.68
-13.03
-15.43
-17.19
-18.19
-18.97
-20.47
-23.55
-28.54
-34.91
-41.47
-46.57
-48.64
-46.41
-39.23
-27.15
-11.01
7.43
25.86
41.71
52.93
58.39
58.12
53.12
44.77
34.53
23.6
13.06
3.93
-2.91
-6.88
-7.89
-6.36
-3.02
1.31
5.75
9.31
10.93
9.74
5.36
-1.72
-10.21
-18.47
-25.13
-29.61
-32.13
-33.61
-35.24
-38.11
-42.91
-49.58
-57.17
-63.94
-67.65
-66.28
-58.74
-45.25
-27.29
-7.14
12.78
30.43
44.22
53.15
56.78
55.36
49.74
41.27
31.49
21.76
13.27
6.92
3.42
3.22
6.29
11.91
18.69
24.79
28.47
28.57
24.76
17.57
8.04
-2.53
-12.8
-21.64
-28.24
-32.43
-34.75
-36.26
-38.19
-41.29
-45.53
-49.8
-52.34
-51.34
-45.7
-35.48
-22.01
-7.53
5.54
15.3
20.74
21.89
19.5
14.73
8.77
2.74
-2.34
-5.46
-5.69
-2.3
4.88
15.4
28.01
41
52.44
60.62
64.31
63.05
57.21
48.04
37.36
27.14
18.95
13.64
11.25
11.11
12.07
12.74
11.82
8.46
2.58
-4.84
-11.89
-16.29
-16.24
-11.26
-2.53
7.55
16.26
21.61
22.84
20.38
15.35
8.92
2.1
-4.48
-10.28
-14.78
-17.45
-17.85
-15.8
-11.39
-5.13
2.22
9.64
16.06
20.48
22.2
20.95
16.94
10.83
3.6
-3.57
-9.64
-13.88
-16.12
-16.78
-16.84
-17.37
-19.2
-22.49
-26.48
-29.69
-30.27
-26.59
-17.88
-4.65
11.26
27.03
39.52
46.32
46.26
39.86
29
16.19
3.85
-6.37
-13.74
-18.32
-20.46
-20.48
-18.62
-15.01
-10.03
-4.34
1.09
5.31
7.6
7.63
5.53
1.77
-3.02
-8.18
-13.02
-17.03
-19.87
-21.64
-22.74
-23.7
-24.88
-26.12
-26.63
-25.13
-20.32
-11.52
0.98
15.75
30.62
43.15
51.29
53.8
50.54
42.39
30.92
17.99
5.28
-5.92
-14.88
-21.24
-24.77
-25.27
-22.63
-17.11
-9.6
-1.6
5.11
8.98
9.4
6.83
2.65
-1.4
-3.95
-4.42
-3.16
-1.16
0.41
0.62
-0.85
-3.72
-7.11
-9.72
-10.08
-6.86
0.63
12.18
26.42
41.07
53.51
61.4
63.33
59.1
49.63
36.57
21.93
7.6
-4.95
-14.75
-21.4
-24.95
-25.77
-24.39
-21.49
-17.81
-14.05
-11.01
-9.31
-9.4
-11.27
-14.45
-18.04
-20.98
-22.46
-22.18
-20.63
-18.92
-18.57
-20.68
-25.44
-31.76
-37.33
-39.44
-35.85
-25.66
-9.71
9.56
28.83
44.83
55.19
58.9
56.28
48.61
37.73
25.64
14.22
4.99
-1.06
-3.6
-2.89
0.34
5.16
10.66
16.14
21.05
24.83
26.91
26.73
24.1
19.38
13.58
7.94
3.52
0.67
-1.12
-3.06
-6.44
-12.02
-19.5
-27.52
-34.12
-37.33
-35.79
-29.05
-17.72
-3.38
11.71
25.02
34.27
37.93
35.56
27.79
16.23
2.88
-10.29
-21.73
-30.39
-35.71
-37.37
-35.33
-29.87
-21.7
-11.97
-2.2
6.02
11.44
13.45
12.25
8.55
3.46
-2.06
-7.31
-11.96
-16.11
-20.31
-25.25
-31.49
-39.03
-46.89
-53.26
-55.87
-52.9
-43.61
-28.73
-10.24
9.12
26.58
39.98
47.98
50.21
47.16
39.99
30.24
19.5
9.28
0.67
-5.43
-8.32
-7.49
-2.78
5.35
15.67
26.13
34.39
38.44
37.29
31.18
21.5
10.32
-0.35
-9.04
-15.25
-19.25
-22.01
-24.61
-27.94
-32.3
-37.17
-41.34
-43.03
-40.56
-32.9
-20.08
-3.45
14.56
30.96
43.13
49.32
49.18
43.57
34.2
22.95
11.46
0.91
-7.87
-14.27
-17.8
-18.17
-15.5
-10.36
-3.78
2.98
8.54
11.81
12.13
9.32
3.89
-3.22
-10.7
-17.28
-22.09
-24.86
-25.97
-26.35
-27.06
-28.9
-32.07
-35.93
-39.12
-39.79
-36.3
-27.71
-14.25
2.46
19.82
34.83
44.93
48.61
45.73
37.54
26.23
14.31
3.86
-3.91
-8.9
-11.75
-13.28
-13.9
-13.35
-10.97
-6.32
0.14
7.02
12.38
14.65
13.2
8.61
2.32
-4.19
-9.94
-14.74
-18.95
-23.16
-27.73
-32.61
-37.45
-41.58
-44.13
-44.03
-40.34
-32.46
-20.5
-5.57
10.23
24.24
33.95
37.67
35.1
27.2
15.91
3.43
-8.4
-18.42
-26.18
-31.43
-33.93
-33.1
-28.47
-20.04
-8.87
2.96
12.86
18.68
19.73
16.82
12
7.54
5.02
4.82
6.31
8.41
10.08
10.61
9.55
6.67
2.01
-3.86
-9.54
-13.02
-12.27
-5.99
5.65
20.81
36.39
49.1
56.39
57.15
51.79
41.86
29.36
16.26
4.05
-6.32
-14.31
-19.59
-21.82
-20.68
-16
-8.14
1.83
12.12
20.59
25.48
25.84
21.91
14.95
6.73
-1.15
-7.67
-12.56
-16.19
-19.29
-22.63
-26.69
-31.39
-36.11
-39.65
-40.37
-36.67
-27.49
-12.83
5.8
25.53
42.84
54.52
58.75
55.58
46.78
35.17
23.49
13.51
5.74
-0.19
-4.93
-8.75
-11.25
-11.67
-9.28
-3.94
3.65
12.09
19.71
25.04
27.14
25.75
21.22
14.42
6.51
-1.34
-8.1
-13.28
-16.95
-19.78
-22.73
-26.65
-31.82
-37.56
-42.17
-43.37
-39.09
-28.3
-11.64
8.48
28.45
44.61
54.15
55.86
50.2
38.94
24.58
9.69
-3.53
-13.6
-19.99
-22.91
-23.11
-21.34
-18.12
-13.6
-7.92
-1.51
4.7
9.45
11.6
10.59
6.67
0.76
-5.87
-12.02
-16.85
-20.05
-21.85
-22.94
-24.26
-26.62
-30.42
-35.23
-39.66
-41.71
-39.34
-31.3
-17.76
-0.52
17.5
33.08
43.65
47.94
45.99
39.02
28.79
17.21
5.83
-4.14
-12.02
-17.51
-20.46
-20.75
-18.35
-13.36
-6.28
1.81
9.27
14.34
15.83
13.53
8.41
2.15
-3.52
-7.42
-9.2
-9.21
-8.21
-7.03
-6.39
-6.87
-8.79
-12.01
-15.63
-17.99
-17.07
-11.37
-0.6
13.85
29.2
42.26
50.45
52.65
49.2
41.71
32.14
22.17
12.77
4.31
-3.16
-9.45
-14
-16.04
-14.85
-10.33
-3.25
4.96
12.42
17.42
18.84
16.29
10.29
2.16
-6.36
-13.52
-18.04
-19.63
-19.07
-17.98
-18.18
-20.94
-26.41
-33.45
-39.89
-43.07
-40.74
-31.83
-16.83
1.82
20.54
35.49
43.81
44.44
38.22
27.42
14.88
3.05
-6.55
-13.27
-17.15
-18.45
-17.39
-14.12
-8.83
-1.91
5.94
13.59
19.8
23.37
23.47
19.95
13.39
5.06
-3.45
-10.67
-15.7
-18.42
-19.51
-20.15
-21.59
-24.59
-29.03
-33.84
-37.1
-36.65
-30.82
-19.12
-2.69
15.8
32.88
45.28
50.95
49.55
42.39
31.8
20.17
9.41
0.6
-5.88
-9.94
-11.54
-10.54
-6.88
-0.77
7.01
15.23
22.42
27.23
28.76
26.82
21.88
14.97
7.37
0.26
-5.64
-10.11
-13.58
-16.81
-20.61
-25.52
-31.38
-37.19
-41.15
-41.11
-35.27
-23.06
-5.59
14.36
33.1
47.09
54.06
53.54
46.74
35.95
23.6
11.71
1.44
-6.68
-12.58
-16.23
-17.52
-16.35
-12.83
-7.48
-1.32
4.3
8.15
9.4
7.94
4.34
-0.48
-5.55
-10.22
-14.32
-17.97
-21.48
-25.17
-29.18
-33.39
-37.41
-40.5
-41.55
-39.34
-32.76
-21.52
-6.43
10.37
25.9
37.14
42.16
40.66
33.94
24.39
14.41
5.65
-1.3
-6.6
-10.6
-13.29
-14.23
-12.84
-8.89
-2.72
4.59
11.55
16.73
19.05
18.19
14.44
8.57
1.65
-5.19
-11.14
-15.74
-19.21
-22.32
-26.13
-31.42
-38.18
-45.25
-50.4
-51.11
-45.36
-32.67
-14.46
6.14
25.29
39.6
47.18
47.97
43.31
35.3
25.85
16.19
6.83
-2.08
-10.35
-17.41
-22.27
-23.98
-21.89
-16.16
-7.9
0.99
8.26
12.03
11.23
6.08
-2.1
-11.3
-19.47
-25.28
-28.28
-29.01
-28.58
-28.31
-29.17
-31.6
-35.31
-39.19
-41.5
-40.35
-34.37
-23.37
-8.75
6.8
20.16
28.82
31.71
29.18
22.76
14.23
5.05
-3.79
-11.7
-18.17
-22.56
-24.14
-22.42
-17.32
-9.38
0.23
9.97
18.29
23.97
26.5
26.11
23.58
20.01
16.29
12.87
9.74
6.49
2.51
-2.72
-9.34
-16.99
-24.56
-30.43
-32.64
-29.63
-20.77
-6.86
9.89
26.38
39.59
47.52
49.55
46.54
40.16
32.23
24.15
16.76
10.34
5.01
0.91
-1.65
-2.34
-0.95
2.29
6.61
10.8
13.49
13.64
10.82
5.39
-1.73
-9.5
-17.14
-24.34
-31.08
-37.49
-43.62
-49.49
-55.05
-60.31
-65.07
-68.64
-69.76
-66.93
-58.91
-45.45
-27.69
-7.96
10.82
26.09
36.32
41.23
41.62
38.82
34.25
29.01
23.88
19.47
16.37
15.19
16.38
19.95
25.3
31.19
36.11
38.69
38.22
34.77
29.04
22.03
14.78
8.11
2.55
-1.76
-5.15
-8.34
-12.28
-17.56
-24.04
-30.34
-34.12
-32.9
-25.03
-10.63
8.24
28.14
45.39
57.2
62.51
61.93
57.12
49.92
41.72
33.23
24.81
16.72
9.61
4.43
2.19
3.43
7.89
14.36
21.05
26.05
28.06
26.83
23.17
18.54
14.46
11.96
11.33
12.29
14.21
16.45
18.36
19.41
19.29
18.23
17.15
17.46
20.59
27.23
36.91
47.97
58.15
65.48
68.91
68.54
65.24
60.12
54.03
47.58
41.16
35.32
30.95
29.12
30.8
36.37
45.29
56.06
66.72
75.38
80.91
83.25
83.29
82.48
82.2
83.35
86.18
90.34
95.1
99.54
102.87
104.58
105
105.51
108.63
117.23
133.3
156.34
182.51
205.08
216.15
209.56
183.09
139.42
85.15
28.58
-22.92
-64.54
-94.32
-112.55
-120.51
-119.72
-111.8
-98.64
-82.63
-66.55
-53.16
-44.54
-41.83
-45.34
-54.96
-70.98
-94.2
-125.27
-163.4
-205.17
-244.61
-274.86
-290.63
-290.22
-276.19
-253.97
-229.75
-207.98
-190.43
-176.31
-163.67
-150.9
-137.32
-123.22
-109.06
-95.02
-81.06
-67.41
-54.99
-45.42
-40.41
-40.72
-45.24
-50.88
-53.45
-49.38
-37.31
-18.79
2.39
21.65
35.19
41.09
39.29
30.82
16.98
-1.26
-23.17
-47.78
-73.46
-97.95
-118.87
-134.46
-143.91
-147.04
-143.56
-132.84
-114.36
-88.66
-58.03
-26.5
1.38
22.33
35.53
43.02
48.72
56.85
70.21
89.28
112.26
135.81
156.36
171.34
179.99
183.28
183.3
181.85
179.33
174.37
164.42
147.2
122.17
91.19
58.1
27.46
2.79
-14.69
-26.44
-35.57
-45.23
-56.92
-69.65
-80.46
-85.86
-83.49
-73.1
-56.61
-37.23
-18.29
-2.4
8.64
14
13.54
7.7
-2.31
-14.59
-27.07
-38.02
-46.7
-53.18
-57.77
-60.45
-60.71
-58.01
-52.32
-44.52
-36.11
-28.66
-23.07
-19.31
-16.72
-14.56
-12.49
-10.6
-9.13
-8.18
-7.74
-7.89
-8.79
-10.38
-12.04
-12.42
-9.95
-3.62
6.3
17.99
28.79
36.22
38.97
37.1
31.7
24.05
15.15
5.55
-4.33
-13.78
-21.86
-27.35
-29.2
-26.99
-21.1
-12.8
-4.12
2.67
5.53
3.33
-3.63
-13.38
-22.79
-28.56
-28.53
-22.66
-13.04
-2.91
4.69
8.47
9.37
10.17
14.38
24.72
42.02
64.82
89.77
112.58
129.36
137.77
137.64
130.81
120.02
107.78
95.49
83.26
70.44
56.63
42.22
28.61
17.69
10.83
8.34
9.2
11.41
12.84
12.02
8.48
2.69
-4.4
-11.97
-19.58
-27.01
-34.07
-40.36
-45.41
-48.94
-51.17
-52.56
-53.44
-53.53
-51.85
-47.25
-38.93
-27.16
-13.29
0.54
12.28
20.5
24.67
25.03
22.31
17.42
11.35
5.11
-0.32
-3.97
-4.98
-2.86
2.29
9.58
17.37
23.78
27.29
27.38
24.78
21.06
17.76
15.78
14.99
14.55
13.55
11.35
7.72
2.68
-3.41
-9.91
-15.78
-19.8
-21.13
-19.63
-15.94
-11.07
-5.73
-0.02
6.21
12.81
18.69
21.8
20.06
12.39
-0.62
-16.74
-32.89
-46.22
-54.81
-57.88
-55.76
-49.42
-40.23
-29.77
-19.7
-11.64
-6.85
-5.88
-8.53
-13.9
-20.6
-27.07
-31.76
-33.15
-29.95
-21.67
-9.18
5.34
18.95
29.13
34.79
36.59
36.26
35.28
33.94
31.36
26.43
18.87
9.72
0.8
-6.38
-11.36
-14.77
-17.49
-19.83
-21.21
-20.83
-18.59
-15.37
-12.69
-11.65
-12.32
-13.78
-14.84
-14.74
-13.67
-12.26
-11.22
-10.86
-11.22
-12.27
-14.26
-17.6
-22.47
-28.33
-33.58
-35.96
-33.41
-24.92
-11.21
5.47
22.07
35.85
45.25
50.26
51.85
51.11
48.64
44.21
37.32
27.96
17.16
7.04
0.11
-1.81
1.51
8.53
16.37
21.94
23.03
18.86
9.95
-2.27
-16.17
-30.24
-43.08
-53.55
-60.94
-65.43
-68.07
-70.43
-73.6
-77.36
-80.17
-80.06
-75.69
-66.96
-54.77
-40.17
-23.75
-5.81
12.82
30.25
43.69
50.75
50.73
45.19
37.4
30.89
28.08
29.6
34.54
41.21
47.82
53
55.94
56.28
54.21
50.18
44.73
38.26
30.99
23.12
15
7.11
-0.06
-6.2
-11.21
-14.94
-16.96
-16.64
-13.43
-7.31
0.97
10.02
18.34
24.72
28.59
30.04
29.45
27.13
23.14
17.52
10.47
2.64
-4.89
-10.85
-14.16
-14.32
-11.51
-6.62
-0.97
3.95
6.86
6.91
4.01
-1.03
-6.77
-11.54
-14.18
-14.67
-14.04
-13.91
-15.61
-19.46
-24.47
-28.75
-30.24
-27.51
-20.38
-9.83
2.27
13.76
22.82
28.38
30.17
28.5
24.06
17.54
9.72
1.51
-5.95
-11.38
-13.67
-12.33
-7.69
-0.84
6.59
13.04
17.45
19.47
19.54
18.56
17.37
16.56
16.17
15.66
14.42
12.12
9
5.84
3.75
3.63
6.04
11.1
18.47
27.56
37.5
47.15
55.24
60.58
62.19
59.64
53.14
43.48
31.95
20.06
9.42
1.48
-2.75
-3.02
0.03
4.94
9.88
13.24
13.94
11.83
7.57
2.38
-2.51
-6.19
-8.39
-9.56
-10.73
-13.07
-17.46
-23.88
-31.14
-37.07
-39.22
-35.9
-26.89
-13.61
1.31
15.01
25.4
31.53
33.43
31.6
26.46
18.35
7.72
-4.35
-16.12
-25.36
-30.24
-30.01
-25.41
-18.45
-11.66
-7.04
-5.37
-6.2
-8.21
-10.08
-11.1
-11.33
-11.39
-12.17
-14.44
-18.61
-24.69
-32
-39.23
-44.42
-45.46
-40.91
-30.63
-16.06
0.15
14.95
25.95
32.01
33.27
30.72
25.54
18.79
11.16
3.22
-4.43
-10.97
-15.43
-17.03
-15.5
-11.4
-5.97
-0.77
2.87
4.27
3.5
1.26
-1.61
-4.32
-6.53
-8.36
-10.36
-13.24
-17.69
-23.83
-31.03
-37.76
-41.88
-41.42
-35.26
-23.78
-8.86
6.69
20.01
29.09
33.29
33.17
29.94
24.85
18.74
12.05
5
-1.99
-8.2
-12.67
-14.54
-13.44
-9.66
-4.08
2.04
7.42
11.11
12.58
11.86
9.37
5.7
1.55
-2.62
-6.45
-9.92
-13.28
-17.01
-21.56
-26.91
-32.31
-36.18
-36.67
-32.35
-22.96
-9.75
4.87
18.2
28.22
34.09
36.04
34.86
31.34
26.04
19.28
11.45
3.16
-4.7
-11.2
-15.54
-17.23
-16.16
-12.7
-7.61
-2.14
2.32
4.6
4.08
0.9
-4.13
-9.82
-15.05
-18.93
-21
-21.32
-20.54
-19.79
-20.36
-23.12
-28.04
-33.87
-38.4
-39.23
-34.74
-24.8
-10.92
4.16
17.58
27.15
32.02
32.79
30.88
27.81
24.64
21.6
18.47
15.02
11.42
8.44
7.07
7.94
10.83
14.69
18.02
19.57
18.76
15.84
11.57
6.87
2.32
-1.89
-5.83
-9.55
-12.88
-15.5
-17.16
-18.02
-18.75
-20.28
-23.3
-27.54
-31.63
-33.23
-30
-20.67
-5.9
11.8
28.87
42.08
49.7
51.59
48.89
43.15
35.75
27.59
19.4
11.92
5.94
2.2
1.08
2.52
6.02
10.77
15.77
19.98
22.5
22.77
20.8
17.13
12.62
8.18
4.27
1.01
-1.76
-4.18
-6.45
-8.73
-11.3
-14.5
-18.3
-22.12
-24.58
-23.95
-18.78
-8.82
4.62
18.89
30.85
38.07
39.54
35.84
28.57
19.45
9.7
-0.16
-9.87
-19
-26.73
-31.9
-33.53
-31.23
-25.46
-17.45
-8.81
-1.15
4.26
6.8
6.47
3.78
-0.38
-5.11
-9.7
-13.6
-16.58
-18.62
-20.02
-21.33
-23.2
-26.15
-30.06
-33.88
-35.66
-33.22
-25.02
-11.04
6.92
25.65
41.71
52.46
56.88
55.37
49.31
40.16
29.25
17.67
6.53
-3.06
-10.08
-13.92
-14.64
-12.87
-9.54
-5.57
-1.67
1.65
3.96
4.84
3.93
1.05
-3.55
-9.28
-15.2
-20.35
-23.86
-25.32
-25
-23.84
-23.2
-24.32
-27.68
-32.53
-36.91
-38.2
-34.16
-23.9
-8.42
9.49
26.21
38.43
44.19
43.22
36.71
26.6
14.95
3.54
-6.38
-13.94
-18.73
-20.67
-20.02
-17.2
-12.79
-7.31
-1.32
4.54
9.54
12.88
13.95
12.42
8.42
2.49
-4.65
-12.15
-19.2
-24.99
-29
-31.18
-32.06
-32.55
-33.59
-35.5
-37.74
-38.88
-37.06
-30.87
-19.92
-5.22
11.06
26.24
37.99
44.89
46.61
43.71
37.28
28.59
18.96
9.67
1.88
-3.53
-6.1
-5.94
-3.58
0.17
4.61
9.23
13.69
17.55
20.21
20.91
18.99
14.27
7.26
-0.89
-8.72
-14.86
-18.46
-19.55
-19.04
-18.49
-19.55
-23.25
-29.4
-36.49
-41.89
-42.87
-37.51
-25.57
-8.65
10.27
27.86
41.35
49.2
51.14
47.87
40.65
30.96
20.36
10.36
2.27
-3.01
-5.1
-4.21
-0.98
3.69
8.81
13.44
16.78
18.39
18.16
16.37
13.53
10.17
6.63
3.06
-0.48
-3.79
-6.51
-8.28
-9.03
-9.15
-9.46
-10.76
-13.19
-15.85
-16.84
-14.1
-6.31
6.3
21.82
37.23
49.56
56.93
58.96
56.46
50.74
42.85
33.5
23.3
13.2
4.71
-0.44
-0.98
3.28
11.24
20.8
29.51
35.34
37.05
34.44
28.09
19.13
8.92
-1.09
-9.74
-16.25
-20.36
-22.4
-23.14
-23.66
-25
-27.88
-32.34
-37.65
-42.21
-43.91
-40.91
-32.18
-18.22
-1.2
15.64
29.01
36.57
37.63
33.1
24.84
14.92
4.94
-4.2
-12.09
-18.49
-22.99
-25.15
-24.6
-21.41
-16.06
-9.47
-2.75
3.01
6.94
8.44
7.27
3.47
-2.55
-10.09
-18.21
-25.74
-31.57
-35.09
-36.54
-36.87
-37.51
-39.55
-43.27
-47.59
-50.39
-49.15
-42.02
-28.73
-10.82
8.64
26.05
38.32
43.78
42.42
35.68
25.79
15.11
5.44
-2.23
-7.68
-11.18
-12.99
-13.19
-11.63
-8.21
-3.2
2.61
7.98
11.7
12.95
11.52
7.71
2.1
-4.69
-12.09
-19.35
-25.63
-30.2
-32.73
-33.67
-34.09
-35.16
-37.43
-40.41
-42.48
-41.47
-35.65
-24.45
-8.86
8.74
25.42
38.49
46.21
48.11
44.91
37.98
28.88
19.06
9.59
1.37
-5.03
-9.21
-10.86
-9.89
-6.45
-1.14
5.1
11.09
15.84
18.38
18.28
15.67
11.16
5.69
0.22
-4.34
-7.26
-7.9
-6.65
-4.55
-2.92
-2.73
-4.2
-6.7
-8.72
-8.14
-2.79
7.49
21.4
36.75
51.69
65.22
76.95
86.79
94.88
101.35
104.09
100.82
90.54
74.62
56.42
39.5
26.45
18.91
16.74
15.14
7.15
-14.41
-54.08
-112.08
-184.45
-263.66
-339.42
-387.58
-387.19
-330.26
-229.76
-111.25
2.36
99.02
176.41
238.33
292.91
340.84
379.1
402.57
408.7
399.1
379.2
351.63
321.05
291.34
260.31
224.34
177.68
117.47
44.69
-35.66
-117.64
-194.75
-261.68
-318.06
-362.73
-397.44
-424.44
-447.8
-472.53
-505.35
-550.84
-608.97
-677.66
-721.62
-706.76
-615.6
-460.15
-271.97
-83.88
76.1
213.31
331.78
432.03
507.83
553.22
559.94
531.75
472.7
398.15
327.82
271.34
228.62
189.02
140.89
78.41
6.06
-65.32
-127.23
-172.66
-201.85
-215.92
-216.83
-205.87
-184.88
-156.49
-125.23
-96.8
-69.64
-47.92
-31.73
-16.7
3.31
31.57
67.17
108.12
151.33
193.59
229.99
257.35
269.45
263.07
238.13
198.92
153.34
110.67
78.85
59.71
49.82
42.38
30.11
7.37
-27.24
-70.51
-115.99
-156.85
-189.24
-212.16
-224.91
-225.98
-212.8
-182.16
-132.14
-64.17
15
92.98
149.38
167
141.91
84.79
13.13
-58.14
-120.75
-172.39
-214.08
-249.97
-278.52
-296
-299.86
-290.83
-272.63
-250.44
-228.95
-211.27
-198.12
-185.81
-171.39
-153.32
-132.34
-110.76
-91.25
-75.89
-65.56
-59.79
-56.26
-52.72
-47.74
-41.3
-34.44
-28.45
-24.36
-22.61
-22.96
-24.32
-25.72
-26.55
-26.74
-26.64
-26.63
-26.92
-27.45
-27.96
-27.92
-27.03
-25.11
-22.25
-18.71
-14.74
-10.59
-6.36
-2.16
1.98
5.97
9.74
13.18
16.24
18.88
21.03
22.68
23.81
24.44
24.6
24.32
23.58
22.43
20.84
18.79
16.23
13.1
9.37
5.09
0.33
-4.79
-10.06
-15.25
-20.17
-24.62
-28.47
-31.68
-34.26
-36.29
-37.95
-39.32
-40.55
-41.69
-42.73
-43.62
-44.28
-44.55
-44.32
-43.57
-42.27
-40.53
-38.49
-36.26
-34.05
-31.98
-30.15
-28.65
-27.49
-26.62
-26
-25.53
-25.03
-24.45
-23.63
-22.52
-21.09
-19.37
-17.38
-15.15
-12.68
-9.87
-6.69
-3.03
1.15
5.84
10.94
16.31
21.74
27.1
32.38
37.58
42.83
48.13
53.44
58.6
63.41
67.63
71.27
74.53
77.77
81.42
85.73
90.72
96.13
101.53
106.51
111.04
115.39
120.18
126.16
133.84
143.39
154.52
166.69
179.26
191.86
204.35
216.89
229.88
243.95
259.79
277.97
298.22
319.06
337.54
349.86
352.61
344.19
325.55
299.85
271.28
243.5
218.56
196.85
177.72
160.41
144.62
130.4
117.76
106.35
95.63
85.11
74.74
64.96
56.21
48.62
41.62
34.13
25.16
14.4
2.43
-9.24
-18.79
-24.83
-26.8
-25.05
-20.65
-14.88
-8.94
-3.87
-0.34
1.21
0.68
-1.54
-4.68
-7.75
-9.87
-10.57
-9.96
-8.54
-7.04
-6.25
-6.63
-8.29
-11.01
-14.27
-17.5
-20.3
-22.54
-24.39
-26.27
-28.42
-30.79
-33.04
-34.56
-34.82
-33.55
-30.82
-26.97
-22.44
-17.62
-12.86
-8.52
-4.86
-2.11
-0.34
0.46
0.53
0.06
-0.69
-1.6
-2.65
-3.76
-4.85
-5.82
-6.64
-7.38
-8.21
-9.27
-10.6
-12.08
-13.42
-14.28
-14.51
-14.16
-13.57
-13.24
-13.64
-14.93
-17.01
-19.42
-21.65
-23.19
-23.76
-23.29
-21.86
-19.66
-16.85
-13.55
-9.87
-5.99
-2.11
1.52
4.64
7.04
8.54
9.08
8.71
7.65
6.18
4.71
3.71
3.64
4.78
7.07
10.08
13.08
15.39
16.52
16.33
14.99
12.83
10.2
7.33
4.39
1.42
-1.59
-4.73
-8.11
-11.76
-15.54
-18.98
-21.47
-22.39
-21.45
-18.79
-14.94
-10.52
-6.18
-2.44
0.37
2.04
2.48
1.79
0.21
-1.83
-3.88
-5.53
-6.57
-6.92
-6.68
-6
-5.06
-4.02
-3.02
-2.19
-1.56
-1.2
-1.23
-1.76
-2.88
-4.56
-6.6
-8.8
-10.99
-13.1
-15.16
-17.14
-18.92
-20.18
-20.47
-19.39
-16.74
-12.64
-7.51
-1.95
3.35
7.85
11.2
13.27
14.12
13.92
12.85
11.13
8.95
6.61
4.41
2.61
1.37
0.66
0.3
0.07
-0.23
-0.75
-1.46
-2.33
-3.31
-4.38
-5.59
-7
-8.69
-10.77
-13.31
-16.29
-19.67
-23.12
-26.21
-28.4
-29.2
-28.33
-25.77
-21.67
-16.28
-9.89
-2.74
4.77
12.06
18.39
23.11
25.81
26.56
25.89
24.44
22.81
21.33
20.06
18.96
17.98
17.09
16.29
15.59
14.91
14.21
13.44
12.63
11.83
10.94
9.75
8.06
5.66
2.52
-1.17
-5.04
-8.63
-11.42
-13.07
-13.41
-12.39
-10.26
-7.41
-4.28
-1.36
0.88
2.2
2.47
1.78
0.36
-1.42
-3.23
-4.72
-5.69
-6.15
-6.17
-5.99
-5.81
-5.84
-6.18
-6.82
-7.63
-8.4
-8.96
-9.19
-9.16
-9.03
-9.03
-9.34
-9.99
-10.81
-11.57
-11.95
-11.67
-10.6
-8.75
-6.22
-3.23
-0
3.25
6.35
9.11
11.37
12.94
13.7
13.64
12.85
11.57
10.03
8.4
6.71
4.85
2.71
0.22
-2.5
-5.25
-7.72
-9.63
-10.86
-11.49
-11.74
-11.92
-12.23
-12.78
-13.51
-14.32
-15.03
-15.45
-15.37
-14.59
-12.92
-10.27
-6.78
-2.78
1.2
4.66
7.28
9
9.96
10.4
10.5
10.3
9.73
8.72
7.26
5.44
3.35
1.13
-1.17
-3.49
-5.62
-7.23
-7.99
-7.69
-6.37
-4.38
-2.22
-0.41
0.73
1.14
1
0.47
-0.28
-1.15
-1.97
-2.45
-2.28
-1.19
0.85
3.66
6.83
9.92
12.57
14.6
15.9
16.41
16.04
14.75
12.6
9.81
6.73
3.76
1.25
-0.58
-1.66
-2.16
-2.33
-2.48
-2.93
-3.81
-5.03
-6.37
-7.49
-8.22
-8.56
-8.68
-8.9
-9.48
-10.45
-11.57
-12.53
-12.92
-12.57
-11.43
-9.6
-7.31
-4.77
-2.13
0.42
2.6
4.16
4.8
4.44
3.23
1.55
-0.15
-1.51
-2.37
-2.83
-2.97
-2.84
-2.45
-1.76
-0.89
-0.14
0.13
-0.29
-1.38
-2.83
-4.31
-5.62
-6.76
-7.95
-9.38
-11.17
-13.16
-15.18
-16.99
-18.52
-19.7
-20.38
-20.41
-19.57
-17.79
-15.07
-11.61
-7.71
-3.76
-0.14
2.86
4.97
6.1
6.28
5.75
4.78
3.71
2.7
1.79
0.92
-0.02
-1.07
-2.21
-3.34
-4.36
-5.18
-5.8
-6.27
-6.63
-6.96
-7.25
-7.53
-7.83
-8.13
-8.42
-8.56
-8.47
-8.01
-7.09
-5.65
-3.72
-1.44
1.07
3.61
6.03
8.15
9.8
10.8
11.13
10.81
9.97
8.76
7.31
5.71
4.17
2.9
2.15
2.1
2.68
3.53
4.18
4.16
3.33
1.84
0.05
-1.65
-3.09
-4.23
-5.24
-6.23
-7.24
-8.21
-9.02
-9.54
-9.67
-9.36
-8.53
-7.22
-5.43
-3.3
-1
1.23
3.16
4.59
5.39
5.54
5.1
4.21
3.05
1.82
0.73
-0.07
-0.41
-0.27
0.31
1.15
2.05
2.76
3.08
2.97
2.43
1.53
0.33
-1.06
-2.67
-4.46
-6.38
-8.35
-10.19
-11.78
-12.97
-13.7
-13.89
-13.46
-12.36
-10.54
-8.11
-5.26
-2.31
0.42
2.69
4.35
5.37
5.69
5.26
4.07
2.22
-0.09
-2.52
-4.66
-6.22
-7.02
-7.17
-6.92
-6.55
-6.33
-6.39
-6.71
-7.19
-7.73
-8.23
-8.74
-9.33
-10.06
-11
-12.14
-13.43
-14.72
-15.86
-16.65
-16.94
-16.59
-15.58
-13.95
-11.78
-9.2
-6.23
-2.99
0.48
4.03
7.48
10.55
12.95
14.45
14.93
14.49
13.35
11.95
10.72
10.03
10.01
10.54
11.31
11.92
12.01
11.34
9.91
7.77
5.07
1.92
-1.56
-5.21
-8.83
-12.11
-14.76
-16.59
-17.58
-17.9
-17.77
-17.46
-17.09
-16.7
-16.22
-15.5
-14.44
-12.94
-11.02
-8.76
-6.33
-3.82
-1.3
1.24
3.85
6.51
9.07
11.24
12.78
13.54
13.61
13.23
12.71
12.21
11.73
11.11
10.15
8.81
7.17
5.43
3.74
2.09
0.34
-1.7
-4.13
-6.89
-9.74
-12.38
-14.6
-16.3
-17.54
-18.38
-18.84
-18.92
-18.59
-17.91
-17.02
-16.09
-15.26
-14.59
-14.04
-13.53
-13.04
-12.59
-12.21
-11.99
-11.95
-12.08
-12.34
-12.58
-12.65
-12.34
-11.51
-10.13
-8.38
-6.63
-5.34
-4.89
-5.4
-6.69
-8.31
-9.67
-10.29
-9.93
-8.61
-6.61
-4.37
-2.25
-0.52
0.81
1.96
3.24
4.99
7.36
10.24
13.24
15.89
17.72
18.42
17.91
16.34
13.98
11.18
8.25
5.39
2.7
0.24
-1.94
-3.81
-5.36
-6.57
-7.43
-7.89
-7.91
-7.49
-6.62
-5.51
-4.38
-3.54
-3.22
-3.52
-4.34
-5.42
-6.5
-7.29
-7.7
-7.69
-7.39
-6.91
-6.35
-5.7
-4.89
-3.82
-2.32
-0.28
2.37
5.52
8.89
12.09
14.74
16.6
17.62
17.86
17.45
16.49
15.04
13.15
10.98
8.76
6.78
5.28
4.31
3.8
3.52
3.23
2.7
1.83
0.6
-0.83
-2.26
-3.54
-4.63
-5.69
-6.86
-8.27
-9.83
-11.29
-12.23
-12.32
-11.4
-9.53
-7.06
-4.36
-1.77
0.53
2.53
4.32
6
7.5
8.62
9.12
8.82
7.75
6.23
4.7
3.51
2.85
2.64
2.63
2.54
2.22
1.64
0.88
0.01
-0.98
-2.13
-3.45
-4.87
-6.28
-7.5
-8.45
-9.19
-9.81
-10.48
-11.24
-12.01
-12.53
-12.57
-11.95
-10.66
-8.88
-6.89
-4.95
-3.23
-1.72
-0.36
0.91
2.08
3.08
3.78
4.16
4.2
3.96
3.54
2.98
2.38
1.85
1.46
1.26
1.28
1.43
1.63
1.76
1.69
1.31
0.61
-0.39
-1.62
-2.89
-4.09
-5.15
-6.09
-7.07
-8.2
-9.43
-10.53
-11.17
-11.06
-10.18
-8.71
-7
-5.42
-4.17
-3.29
-2.65
-2.15
-1.77
-1.63
-1.85
-2.47
-3.35
-4.21
-4.7
-4.57
-3.78
-2.53
-1.15
0.01
0.72
0.99
0.98
0.91
0.96
1.13
1.25
1.14
0.59
-0.44
-1.87
-3.5
-5.18
-6.82
-8.43
-10.04
-11.64
-13.15
-14.32
-14.93
-14.72
-13.62
-11.71
-9.22
-6.45
-3.66
-1.09
1.22
3.25
5.02
6.49
7.54
8.05
8.02
7.56
6.91
6.35
6.11
6.22
6.55
6.84
6.86
6.52
5.75
4.59
3.09
1.32
-0.54
-2.22
-3.5
-4.18
-4.22
-3.9
-3.53
-3.57
-4.3
-5.79
-7.87
-10.2
-12.33
-13.83
-14.46
-14.09
-12.78
-10.76
-8.32
-5.78
-3.43
-1.51
-0.18
0.52
0.66
0.35
-0.37
-1.4
-2.71
-4.15
-5.52
-6.54
-6.99
-6.71
-5.79
-4.5
-3.08
-1.81
-0.79
-0.11
0.19
0.06
-0.56
-1.68
-3.28
-5.16
-7.12
-8.96
-10.52
-11.79
-12.81
-13.64
-14.28
-14.65
-14.57
-13.87
-12.41
-10.09
-7.02
-3.43
0.3
3.73
6.46
8.26
9.08
9.1
8.65
7.98
7.28
6.62
5.99
5.39
4.83
4.34
4
3.9
4
4.23
4.45
4.54
4.45
4.15
3.69
3.12
2.51
1.83
1.06
0.09
-1.14
-2.6
-4.23
-5.92
-7.56
-9.04
-10.28
-11.11
-11.37
-10.87
-9.45
-7.12
-4.04
-0.49
3.11
6.46
9.32
11.54
13.11
14.03
14.31
13.95
12.96
11.43
9.59
7.72
6.16
5.11
4.62
4.57
4.8
5.09
5.33
5.45
5.38
5.05
4.32
3.12
1.39
-0.78
-3.25
-5.81
-8.25
-10.45
-12.34
-13.97
-15.41
-16.63
-17.48
-17.67
-16.94
-15.09
-12.19
-8.5
-4.43
-0.41
3.23
6.32
8.75
10.47
11.49
11.85
11.69
11.21
10.62
10.07
9.63
9.28
8.96
8.59
8.12
7.58
6.97
6.33
5.7
5.1
4.56
4.07
3.56
2.94
2.17
1.21
0.11
-1.09
-2.44
-3.94
-5.62
-7.4
-9.08
-10.37
-11.03
-10.88
-9.94
-8.36
-6.38
-4.28
-2.34
-0.82
0.09
0.28
-0.21
-1.28
-2.71
-4.27
-5.71
-6.89
-7.72
-8.23
-8.5
-8.69
-8.93
-9.34
-9.95
-10.74
-11.6
-12.43
-13.18
-13.9
-14.68
-15.64
-16.82
-18.18
-19.61
-20.9
-21.79
-21.99
-21.31
-19.6
-16.79
-12.98
-8.35
-3.22
2.06
7.13
11.69
15.45
18.24
19.96
20.65
20.56
20
19.42
19.13
19.32
19.95
20.82
21.7
22.41
22.91
23.17
23.11
22.58
21.37
19.41
16.74
13.6
10.33
7.2
4.39
1.85
-0.47
-2.72
-4.95
-7.3
-9.77
-12.39
-15.09
-17.68
-19.93
-21.62
-22.66
-23.04
-22.9
-22.25
-21.11
-19.51
-17.5
-15.2
-12.84
-10.63
-8.68
-7.1
-5.87
-5
-4.43
-3.99
-3.38
-2.23
-0.29
2.49
5.84
9.25
12.29
14.77
16.91
19.2
22.26
26.44
31.64
37.15
41.92
44.84
45.15
42.72
37.99
31.81
25.06
18.41
12.11
6.16
0.52
-4.72
-9.28
-12.84
-15.19
-16.37
-16.6
-16.25
-15.68
-15.06
-14.45
-13.82
-13.08
-12.19
-11.18
-10.05
-8.8
-7.46
-6.01
-4.47
-2.91
-1.45
-0.27
0.37
0.34
-0.4
-1.69
-3.15
-4.42
-5.19
-5.36
-5.1
-4.69
-4.37
-4.32
-4.5
-4.73
-4.86
-4.82
-4.7
-4.75
-5.22
-6.16
-7.47
-8.85
-9.92
-10.39
-10.11
-9.08
-7.37
-5.06
-2.2
1.15
4.77
8.3
11.32
13.52
14.7
14.84
14.11
12.69
10.85
8.77
6.69
4.82
3.39
2.51
2.14
2.17
2.41
2.8
3.27
3.87
4.54
5.19
5.56
5.4
4.61
3.18
1.36
-0.64
-2.55
-4.28
-5.83
-7.21
-8.42
-9.39
-10.11
-10.5
-10.56
-10.23
-9.49
-8.32
-6.72
-4.82
-2.75
-0.81
0.87
2.16
3.06
3.64
3.93
4.03
3.92
3.62
3.09
2.41
1.66
0.93
0.38
0.05
0.04
0.28
0.71
1.2
1.64
1.9
1.91
1.68
1.32
0.96
0.67
0.43
0.16
-0.29
-1.04
-2.14
-3.53
-5.12
-6.77
-8.35
-9.77
-10.99
-12.02
-12.94
-13.79
-14.56
-15.14
-15.32
-14.89
-13.72
-11.84
-9.47
-6.89
-4.37
-2.09
-0.25
1.11
1.96
2.31
2.23
1.81
1.15
0.4
-0.28
-0.75
-0.91
-0.69
-0.16
0.54
1.24
1.81
2.23
2.55
2.86
3.16
3.37
3.39
3.09
2.47
1.57
0.48
-0.66
-1.74
-2.65
-3.29
-3.65
-3.75
-3.65
-3.47
-3.25
-3.02
-2.73
-2.25
-1.51
-0.5
0.72
2.14
3.66
5.2
6.68
7.93
8.75
9.03
8.76
8.06
7.22
6.5
6.04
5.89
5.91
5.91
5.73
5.32
4.68
3.89
3.08
2.29
1.55
0.83
0.14
-0.58
-1.3
-2.01
-2.75
-3.56
-4.49
-5.58
-6.87
-8.34
-9.93
-11.6
-13.29
-14.9
-16.31
-17.3
-17.64
-17.14
-15.69
-13.31
-10.24
-6.86
-3.59
-0.84
1.1
2.1
2.21
1.58
0.46
-0.93
-2.39
-3.74
-4.83
-5.5
-5.63
-5.14
-4.15
-2.81
-1.35
0.09
1.42
2.64
3.76
4.78
5.61
6.18
6.45
6.42
6.18
5.76
5.17
4.38
3.4
2.24
1.04
-0.03
-0.86
-1.37
-1.53
-1.35
-0.8
0.17
1.54
3.22
5.01
6.58
7.66
8.16
8.07
7.53
6.76
5.86
4.95
4.02
3.02
2
1.08
0.41
0.17
0.42
1.07
1.97
2.84
3.47
3.71
3.52
2.97
2.19
1.3
0.41
-0.41
-1.13
-1.78
-2.39
-2.99
-3.63
-4.26
-4.84
-5.42
-5.98
-6.54
-7.06
-7.42
-7.44
-6.88
-5.62
-3.66
-1.19
1.44
3.88
5.86
7.22
7.97
8.24
8.14
7.77
7.21
6.54
5.89
5.44
5.33
5.59
6.2
6.98
7.76
8.41
8.86
9.08
9.07
8.8
8.23
7.34
6.09
4.54
2.68
0.56
-1.77
-4.16
-6.45
-8.51
-10.28
-11.88
-13.42
-15.05
-16.8
-18.51
-19.94
-20.78
-20.77
-19.78
-17.84
-15.14
-11.97
-8.65
-5.39
-2.36
0.45
3.07
5.49
7.6
9.15
9.94
9.9
9.22
8.18
7.17
6.49
6.33
6.74
7.64
8.83
10.07
11.04
11.43
11.03
9.79
7.8
5.27
2.39
-0.59
-3.49
-6.12
-8.27
-9.85
-10.87
-11.53
-12.05
-12.66
-13.43
-14.32
-15.2
-15.85
-16.09
-15.84
-15.01
-13.52
-11.33
-8.53
-5.3
-2
0.98
3.35
4.98
5.98
6.54
6.85
7.05
7.13
7.06
6.88
6.7
6.7
7
7.58
8.24
8.74
8.87
8.51
7.74
6.68
5.48
4.2
2.87
1.4
-0.2
-1.94
-3.78
-5.68
-7.64
-9.69
-11.79
-13.82
-15.64
-17.04
-17.97
-18.46
-18.58
-18.38
-17.8
-16.68
-14.87
-12.39
-9.37
-6.01
-2.58
0.72
3.72
6.25
8.21
9.48
10.01
9.91
9.37
8.59
7.77
6.97
6.22
5.53
4.96
4.56
4.45
4.62
5.04
5.57
5.99
6.14
5.89
5.25
4.3
3.18
2.03
0.94
-0.01
-0.74
-1.23
-1.49
-1.62
-1.75
-2.07
-2.7
-3.6
-4.57
-5.32
-5.49
-4.97
-3.79
-2.15
-0.28
1.62
3.43
5.1
6.53
7.65
8.31
8.42
8.1
7.56
7.03
6.67
6.49
6.38
6.24
6.04
5.9
6.06
6.66
7.72
9.1
10.49
11.59
12.14
12.02
11.28
10.1
8.65
7.1
5.56
4.01
2.37
0.62
-1.22
-3.02
-4.63
-5.95
-6.93
-7.55
-7.82
-7.79
-7.41
-6.8
-6.14
-5.69
-5.6
-5.84
-6.06
-5.87
-4.94
-3.23
-1
1.27
3.13
4.32
4.88
5.01
4.94
4.82
4.67
4.32
3.52
2.12
0.06
-2.42
-4.92
