-18.28
-21.87
-24.75
-26.35
-26.24
-24.31
-20.82
-16.24
-11.2
-6.19
-1.58
2.44
5.8
8.47
10.41
11.57
11.97
11.71
11.02
10.18
9.5
9.15
9.2
9.59
10.14
10.71
11.19
11.55
11.8
11.98
12.02
11.8
11.17
9.98
8.22
6.04
3.63
1.29
-0.81
-2.54
-3.9
-5.04
-6.21
-7.76
-10.07
-13.3
-17.25
-21.34
-24.68
-26.41
-26.01
-23.5
-19.35
-14.31
-9.07
-4.04
0.6
4.8
8.49
11.46
13.4
14.08
13.51
12.05
10.29
8.87
8.23
8.47
9.32
10.38
11.28
11.84
12.12
12.25
12.38
12.55
12.67
12.6
12.22
11.44
10.23
8.61
6.65
4.44
2.11
-0.24
-2.46
-4.47
-6.3
-8.12
-10.23
-12.94
-16.35
-20.23
-23.92
-26.56
-27.39
-26.12
-22.93
-18.44
-13.35
-8.19
-3.22
1.49
5.85
9.6
12.3
13.6
13.44
12.16
10.43
8.96
8.21
8.22
8.68
9.15
9.34
9.26
9.13
9.24
9.68
10.38
11.01
11.24
10.86
9.84
8.35
6.62
4.86
3.18
1.65
0.22
-1.18
-2.65
-4.38
-6.54
-9.31
-12.71
-16.5
-20.19
-23.11
-24.56
-24.11
-21.7
-17.61
-12.47
-6.91
-1.52
3.31
7.33
10.4
12.42
13.36
13.27
12.34
10.92
9.47
8.37
7.83
7.8
8.07
8.4
8.65
8.87
9.16
9.61
10.14
10.5
10.39
9.64
8.23
6.31
4.11
1.86
-0.29
-2.25
-3.96
-5.49
-6.99
-8.79
-11.18
-14.31
-17.98
-21.59
-24.3
-25.39
-24.46
-21.62
-17.41
-12.5
-7.47
-2.7
1.59
5.26
8.14
10.04
10.89
10.76
9.92
8.73
7.51
6.51
5.85
5.58
5.69
6.12
6.78
7.5
8.07
8.34
8.23
7.75
7
6.03
4.85
3.45
1.85
0.09
-1.78
-3.75
-5.97
-8.58
-11.69
-15.15
-18.49
-21.06
-22.17
-21.44
-18.87
-14.93
-10.27
-5.56
-1.31
2.26
5.11
7.33
8.98
10.03
10.41
10.07
9.05
7.53
5.85
4.38
3.45
3.19
3.54
4.22
4.91
5.33
5.36
5.01
4.36
3.53
2.5
1.28
-0.15
-1.75
-3.42
-5.16
-7.1
-9.51
-12.63
-16.48
-20.68
-24.51
-27.07
-27.64
-25.96
-22.26
-17.19
-11.51
-5.85
-0.6
4.04
7.96
11.05
13.09
13.9
13.41
11.84
9.68
7.52
5.94
5.25
5.45
6.24
7.21
7.99
8.4
8.41
8.12
7.61
6.87
5.85
4.48
2.75
0.81
-1.22
-3.24
-5.34
-7.72
-10.57
-13.88
-17.28
-20.1
-21.6
-21.21
-18.82
-14.76
-9.7
-4.39
0.56
4.8
8.19
10.76
12.55
13.61
13.96
13.63
12.74
11.49
10.15
9.04
8.42
8.39
8.89
9.71
10.52
11.03
11.01
10.43
9.35
7.93
6.3
4.54
2.72
0.9
-0.86
-2.54
-4.31
-6.43
-9.21
-12.76
-16.84
-20.79
-23.74
-24.88
-23.78
-20.53
-15.64
-9.89
-4.03
1.4
6.1
9.92
12.83
14.77
15.71
15.67
14.75
13.24
11.53
10.05
9.1
8.82
9.08
9.61
10.13
10.43
10.44
10.19
9.67
8.86
7.72
6.23
4.48
2.64
0.89
-0.65
-2.02
-3.44
-5.21
-7.66
-10.94
-14.9
-19.01
-22.46
-24.36
-24.04
-21.32
-16.6
-10.66
-4.49
1.11
5.68
9.09
11.5
13.09
14.01
14.25
13.81
12.74
11.27
9.76
8.61
8.13
8.42
9.31
10.4
11.26
11.58
11.24
10.36
9.14
7.84
6.54
5.27
3.91
2.39
0.7
-1.13
-3.04
-5.07
-7.36
-10.06
-13.21
-16.54
-19.52
-21.43
-21.67
-19.95
-16.47
-11.79
-6.65
-1.68
2.71
6.34
9.17
11.16
12.23
12.31
11.43
9.83
7.92
6.21
5.14
4.91
5.44
6.45
7.52
8.25
8.39
7.9
6.95
5.79
4.62
3.49
2.3
0.88
-0.85
-2.84
-4.96
-7.17
-9.52
-12.19
-15.27
-18.58
-21.57
-23.51
-23.72
-21.91
-18.3
-13.46
-8.1
-2.84
1.97
6.14
9.56
12.12
13.72
14.33
14.05
13.08
11.73
10.27
8.96
7.93
7.32
7.09
7.17
7.39
7.56
7.54
7.26
6.77
6.11
5.33
4.36
3.12
1.53
-0.38
-2.43
-4.51
-6.56
-8.75
-11.37
-14.68
-18.62
-22.74
-26.27
-28.34
-28.33
-26.12
-22.09
-16.95
-11.47
-6.23
-1.54
2.49
5.86
8.55
10.53
11.77
12.32
12.32
11.95
11.45
11.01
10.74
10.69
10.89
11.3
11.88
12.56
13.22
13.69
13.78
13.39
12.44
10.99
9.13
6.98
4.66
2.31
0.07
-1.93
-3.62
-5.11
-6.74
-8.93
-12
-15.87
-20.03
-23.55
-25.51
-25.32
-22.96
-18.89
-13.87
-8.61
-3.57
1
5
8.27
10.61
11.85
12.02
11.4
10.47
9.73
9.49
9.81
10.47
11.15
11.61
11.76
11.7
11.65
11.8
12.16
12.62
12.9
12.73
11.93
10.47
8.5
6.26
4.04
2
0.18
-1.5
-3.24
-5.27
-7.78
-10.88
-14.5
-18.3
-21.75
-24.24
-25.26
-24.6
-22.36
-18.94
-14.78
-10.31
-5.78
-1.34
2.88
6.69
9.79
11.96
13.07
13.21
12.68
11.88
11.18
10.82
10.81
11.02
11.24
11.29
11.19
11.12
11.23
11.58
12.05
12.34
12.09
11.11
9.4
7.22
4.9
2.7
0.75
-0.99
-2.62
-4.29
-6.16
-8.44
-11.25
-14.58
-18.18
-21.51
-23.91
-24.8
-23.9
-21.34
-17.54
-13.08
-8.51
-4.17
-0.26
3.08
5.76
7.68
8.79
9.16
8.96
8.49
8.02
7.82
7.97
8.44
9.11
9.83
10.47
10.99
11.37
11.61
11.68
11.47
10.92
9.94
8.48
6.56
4.2
1.57
-1.13
-3.66
-5.84
-7.67
-9.36
-11.24
-13.59
-16.41
-19.36
-21.81
-23.04
-22.56
-20.24
-16.35
-11.4
-5.98
-0.62
4.27
8.34
11.3
12.95
13.22
12.25
10.33
7.92
5.45
3.31
1.77
0.99
0.99
1.64
2.71
3.87
4.83
5.39
5.45
5.08
4.34
3.31
2.05
0.67
-0.7
-1.88
-2.87
-3.86
-5.25
-7.44
-10.64
-14.62
-18.78
-22.29
-24.38
-24.6
-22.89
-19.59
-15.22
-10.37
-5.51
-1.02
2.85
5.94
8.13
9.39
9.77
9.37
8.4
7.12
5.78
4.61
3.77
3.32
3.24
3.42
3.75
4.14
4.5
4.78
4.89
4.7
4.1
2.99
1.41
-0.42
-2.21
-3.69
-4.8
-5.78
-7.06
-9.03
-11.82
-15.19
-18.56
-21.2
-22.51
-22.2
-20.28
-17.09
-13.06
-8.69
-4.42
-0.57
2.6
4.97
6.55
7.42
7.7
7.51
6.97
6.25
5.54
5.03
4.88
5.13
5.73
6.51
7.31
7.94
8.29
8.33
7.98
7.23
6.02
4.35
2.29
0.03
-2.13
-3.91
-5.22
-6.25
-7.46
-9.36
-12.21
-15.8
-19.48
-22.32
-23.54
-22.74
-20.08
-16.07
-11.41
-6.72
-2.41
1.3
4.33
6.66
8.26
9.11
9.25
8.8
7.97
7.05
6.32
5.97
6.03
6.45
7.1
7.82
8.49
9.04
9.37
9.35
8.89
7.94
6.55
4.85
3.05
1.32
-0.29
-1.84
-3.6
-5.86
-8.8
-12.3
-15.93
-18.97
-20.71
-20.72
-18.98
-15.87
-11.98
-7.86
-3.84
-0.09
3.33
6.31
8.67
10.24
10.95
10.91
10.35
9.55
8.73
8.05
7.55
7.24
7.11
7.17
7.4
7.75
8.11
8.3
8.11
7.41
6.14
4.39
2.39
0.41
-1.29
-2.58
-3.55
-4.5
-5.81
-7.77
-10.45
-13.54
-16.47
-18.53
-19.18
-18.13
-15.48
-11.62
-7.1
-2.48
1.82
5.5
8.41
10.47
11.63
11.9
11.32
10.07
8.44
6.8
5.54
4.95
5.11
5.89
6.98
8.05
8.83
9.19
9.14
8.73
7.98
6.88
5.4
3.59
1.53
-0.63
-2.84
-5.19
-7.9
-11.1
-14.71
-18.33
-21.3
-23
-23.02
-21.33
-18.22
-14.14
-9.58
-4.94
-0.5
3.46
6.7
8.96
10.13
10.23
9.47
8.2
6.78
5.51
4.52
3.8
3.29
2.92
2.69
2.65
2.72
2.78
2.57
1.91
0.77
-0.68
-2.15
-3.4
-4.4
-5.39
-6.67
-8.61
-11.29
-14.57
-18.01
-21.01
-22.99
-23.49
-22.3
-19.48
-15.38
-10.48
-5.34
-0.43
3.93
7.5
10.16
11.81
12.4
11.97
10.74
8.98
7.08
5.38
4.12
3.43
3.27
3.51
3.94
4.33
4.47
4.27
3.74
2.95
2.01
0.95
-0.2
-1.45
-2.81
-4.35
-6.2
-8.53
-11.47
-14.93
-18.53
-21.61
-23.45
-23.47
-21.52
-17.88
-13.18
-8.12
-3.25
1.1
4.81
7.86
10.22
11.85
12.73
12.9
12.54
11.86
11.08
10.33
9.7
9.21
8.89
8.79
8.91
9.19
9.46
9.51
9.14
8.26
6.89
5.13
3.16
1.17
-0.74
-2.62
-4.64
-7.09
-10.14
-13.76
-17.55
-20.89
-23.03
-23.38
-21.75
-18.33
-13.63
-8.32
-3.05
1.73
5.74
8.89
11.25
12.9
13.92
14.34
14.17
13.48
12.42
11.24
10.21
9.54
9.35
9.62
10.21
10.9
11.44
11.6
11.24
10.35
9.02
7.4
5.65
3.9
2.21
0.57
-1.09
-2.92
-5.11
-7.81
-11.01
-14.47
-17.68
-19.99
-20.75
-19.59
-16.51
-11.94
-6.56
-1.08
3.92
8.09
11.31
13.57
14.94
15.44
15.16
14.26
12.94
11.46
10.1
9.05
8.46
8.33
8.56
8.94
9.25
9.32
9.09
8.64
7.99
7.15
6.05
4.62
2.9
1.03
-0.85
-2.74
-4.81
-7.34
-10.47
-14.01
-17.39
-19.9
-20.86
-19.97
-17.34
-13.42
-8.79
-4.03
0.46
4.4
7.66
10.15
11.78
12.53
12.39
11.49
10.07
8.51
7.19
6.41
6.29
6.7
7.38
8
8.3
8.22
7.83
7.26
6.62
5.89
4.97
3.74
2.14
0.23
-1.91
-4.22
-6.71
-9.49
-12.53
-15.64
-18.38
-20.2
-20.61
-19.35
-16.53
-12.52
-7.87
-3.15
1.19
4.87
7.71
9.7
10.86
11.26
10.99
10.19
9.04
7.74
6.57
5.74
5.4
5.55
6.07
6.7
7.2
7.39
7.22
6.7
5.91
4.89
3.64
2.2
0.57
-1.19
-3.1
-5.21
-7.67
-10.6
-13.98
-17.55
-20.79
-23.07
-23.83
-22.81
-20.08
-15.98
-11.01
-5.7
-0.5
4.18
8.05
10.88
12.58
13.21
12.94
12.03
10.79
9.49
8.36
7.59
7.27
7.41
7.89
8.53
9.14
9.57
9.73
9.59
9.15
8.4
7.35
6.07
4.61
3.06
1.49
-0.09
-1.77
-3.7
-6.09
-9.02
-12.35
-15.67
-18.38
-19.84
-19.61
-17.65
-14.25
-9.97
-5.42
-1.04
2.94
6.4
9.27
11.45
12.79
13.22
12.77
11.63
10.07
8.41
6.96
5.91
5.37
5.32
5.68
6.29
6.95
7.49
7.74
7.61
7.03
5.99
4.55
2.84
1.07
-0.6
-2.07
-3.46
-4.99
-6.98
-9.6
-12.72
-15.89
-18.48
-19.88
-19.75
-18.07
-15.08
-11.19
-6.78
-2.18
2.27
6.2
9.3
11.38
12.44
12.72
12.54
12.18
11.77
11.32
10.83
10.36
10.05
10.01
10.27
10.69
11.03
11.07
10.72
10.07
9.26
8.46
7.65
6.72
5.5
3.91
2.07
0.18
-1.57
-3.24
-5.08
-7.45
-10.53
-14.14
-17.68
-20.37
-21.5
-20.71
-18.09
-14.09
-9.34
-4.44
0.14
4.1
7.29
9.64
11.12
11.73
11.51
10.54
9.06
7.36
5.79
4.66
4.13
4.15
4.58
5.23
5.94
6.61
7.18
7.57
7.68
7.41
6.67
5.48
3.97
2.37
0.9
-0.33
-1.42
-2.63
-4.32
-6.69
-9.69
-12.92
-15.79
-17.67
-18.15
-17.12
-14.75
-11.36
-7.35
-3.1
1.02
4.64
7.42
9.14
9.7
9.27
8.11
6.6
5.03
3.64
2.53
1.76
1.35
1.31
1.62
2.17
2.77
3.22
3.34
3.09
2.48
1.59
0.49
-0.71
-1.93
-3.07
-4.07
-5.01
-6.13
-7.72
-10.04
-13.02
-16.29
-19.13
-20.75
-20.56
-18.4
-14.59
-9.74
-4.59
0.25
4.4
7.72
10.18
11.82
12.56
12.36
11.26
9.48
7.42
5.55
4.26
3.71
3.8
4.24
4.67
4.84
4.64
4.07
3.22
2.15
0.94
-0.37
-1.7
-3
-4.28
-5.62
-7.22
-9.31
-12.01
-15.26
-18.79
-22.1
-24.65
-25.9
-25.55
-23.51
-20
-15.43
-10.35
-5.32
-0.79
2.98
5.85
7.85
9.01
9.4
9.08
8.23
7.09
5.99
5.21
4.89
4.97
5.29
5.68
6.01
6.22
6.31
6.23
5.93
5.33
4.4
3.18
1.8
0.36
-1.1
-2.67
-4.59
-7.07
-10.25
-13.93
-17.65
-20.73
-22.49
-22.41
-20.38
-16.68
-11.92
-6.82
-2.05
2.01
5.22
7.64
9.36
10.44
10.85
10.57
9.69
8.45
7.17
6.18
5.67
5.64
5.96
6.42
6.86
7.13
7.17
6.94
6.44
5.69
4.66
3.32
1.65
-0.31
-2.4
-4.44
-6.27
-7.94
-9.68
-11.77
-14.35
-17.18
-19.67
-21.05
-20.69
-18.37
-14.4
-9.41
-4.14
0.89
5.39
9.32
12.68
15.38
17.23
18.02
17.74
16.57
14.94
13.32
12.1
11.41
11.2
11.28
11.48
11.7
11.87
11.91
11.71
11.17
10.18
8.78
7.07
5.21
3.39
1.71
0.17
-1.36
-3.1
-5.29
-8.07
-11.32
-14.59
-17.21
-18.48
-17.91
-15.48
-11.56
-6.86
-2.1
2.18
5.7
8.43
10.42
11.7
12.27
12.11
11.29
9.95
8.38
6.91
5.81
5.24
5.28
5.81
6.62
7.44
7.99
8.09
7.68
6.84
5.72
4.44
3.09
1.69
0.26
-1.19
-2.6
-4.01
-5.56
-7.45
-9.84
-12.68
-15.63
-18.09
-19.41
-19.1
-17.09
-13.69
-9.47
-5.05
-0.85
2.88
6.04
8.51
10.1
10.66
10.08
8.52
6.31
3.92
1.83
0.38
-0.28
-0.24
0.26
0.92
1.43
1.61
1.44
0.97
0.32
-0.47
-1.38
-2.37
-3.32
-4.06
-4.58
-5.02
-5.77
-7.21
-9.49
-12.3
-14.97
-16.7
-16.91
-15.47
-12.66
-9
-5.03
-1.09
2.61
6.01
8.98
11.32
12.81
13.25
12.64
11.23
9.47
7.84
6.72
6.24
6.25
6.49
6.74
6.9
6.98
7.07
7.15
7.14
6.91
6.36
5.45
4.25
2.83
1.28
-0.35
-2.14
-4.22
-6.75
-9.88
-13.57
-17.57
-21.35
-24.28
-25.76
-25.41
-23.19
-19.41
-14.62
-9.45
-4.48
-0.1
3.5
6.25
8.17
9.29
9.64
9.35
8.59
7.61
6.7
6.05
5.77
5.83
6.19
6.79
7.58
8.45
9.23
9.66
9.56
8.84
7.61
6.1
4.55
3.09
1.68
0.17
-1.58
-3.69
-6.23
-9.22
-12.67
-16.44
-20.2
-23.37
-25.28
-25.37
-23.51
-20.04
-15.66
-11.12
-6.93
-3.23
0.11
3.23
6.06
8.32
9.67
9.93
9.2
7.91
6.54
5.48
4.87
4.63
4.62
4.72
4.94
5.31
5.9
6.66
7.49
8.19
8.55
8.36
7.51
6
3.93
1.52
-0.94
-3.12
-4.6
-5.06
-4.32
-2.58
-0.4
1.33
1.85
0.78
-1.58
-4.29
-6.24
-6.5
-4.74
-1.21
3.51
8.88
14.59
20.56
26.71
32.73
38.04
41.97
44.02
44.22
43.13
41.72
41.05
41.91
44.58
48.76
53.75
58.65
62.58
64.86
65.05
62.95
58.55
52.05
43.86
34.64
25.15
16.1
7.9
0.56
-6.31
-13.22
-20.55
-28.43
-36.93
-46.15
-56.35
-67.68
-79.73
-91.01
-98.82
-99.94
-91.89
-74.27
-49.32
-21.38
4.72
25.48
39.83
49.23
56.53
64.67
75.58
89.7
106.01
122.37
135.94
143.8
143.86
135.64
120.81
102.77
85.43
71.53
61.74
54.63
47.73
38.69
26.14
9.9
-9.33
-30.3
-51.27
-70.12
-84.47
-92.43
-93.22
-87.74
-78.36
-68.02
-59.18
-53
-49.28
-47.04
-45.35
-43.84
-42.6
-41.7
-40.68
-38.38
-33.38
-24.83
-13.16
-0.11
11.82
20.49
24.98
25.76
24.21
21.84
19.61
17.8
16.4
15.51
15.65
17.46
21.32
26.84
32.76
37.4
39.25
37.66
33.19
27.33
22.05
18.95
18.77
21.2
25.22
29.6
33.46
36.52
39.03
41.49
44.36
47.87
52.08
56.89
62.04
67.09
71.48
74.79
77.12
79.31
82.83
89.06
98.36
109.43
119.54
125.64
125.89
120.64
112.21
103.56
96.81
92.29
88.78
84.4
77.65
67.75
54.52
38.04
18.94
-1.2
-19.53
-32.76
-38.78
-38.39
-35.8
-37.34
-48.86
-73.14
-108.93
-151.74
-196.28
-238.71
-277.89
-315.08
-352.85
-393.89
-439.9
-490.77
-543.8
-593.49
-632.22
-652.19
-647.95
-618.46
-567.49
-502.13
-430.07
-357.15
-286.2
-217.17
-148.28
-77.63
-4.81
68.14
136.25
192.42
229.31
241.58
227.49
189.06
130.88
58.89
-20.12
-98.29
-166.66
-216.32
-240.99
-239.72
-217.94
-185.9
-154.67
-132.22
-121.23
-119.75
-123.51
-128.68
-133.31
-137.23
-140.99
-144.79
-148.16
-150.27
-150.49
-148.64
-145.35
-141.52
-137.98
-135.25
-133.3
-131.87
-130.66
-129.73
-129.55
-130.85
-134.3
-140.13
-147.95
-156.72
-165.04
-171.39
-174.49
-173.4
-167.58
-156.8
-141.09
-120.7
-96.15
-68.27
-38.28
-7.67
21.93
49
72.49
91.94
107.57
120.09
130.47
139.68
148.41
157.1
165.94
175.07
184.72
195.21
206.89
219.89
233.98
248.44
262.22
274.24
283.71
290.47
295.02
298.33
301.35
304.53
307.52
309.37
309.12
306.55
302.59
299.06
297.8
299.79
304.68
311.01
316.6
318.68
313.76
298.12
269.31
228.09
179.96
134.62
102.99
93.18
107.58
142.61
191.25
246.23
301.79
353.62
397.37
428.09
441.49
436.26
415.36
385.02
351.95
320.45
291.91
266.17
243.51
225.39
213.13
205.73
198.91
186.54
163.98
131.18
93.26
58.09
32.24
17.39
9.5
1.05
-15.08
-42.24
-78.85
-119.75
-158.94
-192.07
-217.5
-235.59
-247.12
-252.01
-249.29
-238.08
-218.97
-194.76
-169.55
-147.55
-131.27
-120.88
-114.76
-110.65
-107.01
-103.53
-100.95
-100.12
-101.36
-103.92
-106.29
-106.81
-104.31
-98.49
-89.98
-79.95
-69.72
-60.41
-52.7
-46.85
-42.79
-40.29
-39.12
-39.09
-40.05
-41.7
-43.59
-45.11
-45.59
-44.5
-41.62
-37.08
-31.37
-25.16
-19.07
-13.49
-8.59
-4.36
-0.74
2.24
4.4
5.57
5.69
4.95
3.73
2.55
1.85
1.83
2.42
3.31
4.1
4.47
4.25
3.51
2.39
1.04
-0.5
-2.31
-4.52
-7.2
-10.25
-13.49
-16.73
-19.93
-23.17
-26.53
-29.93
-32.98
-35.03
-35.4
-33.68
-29.88
-24.46
-18.1
-11.5
-5.18
0.57
5.6
9.8
13.09
15.39
16.66
16.98
16.61
15.85
15.1
14.63
14.57
14.88
15.38
15.87
16.17
16.18
15.9
15.35
14.53
13.34
11.72
9.6
7.02
4.09
0.9
-2.49
-6.15
-10.16
-14.54
-19.07
-23.28
-26.49
-28.03
-27.49
-24.84
-20.45
-14.99
-9.16
-3.52
1.57
6
9.7
12.63
14.74
15.95
16.29
15.9
15.03
13.92
12.82
11.92
11.3
11.01
11.01
11.23
11.48
11.59
11.29
10.42
8.87
6.7
4.08
1.31
-1.37
-3.8
-6.01
-8.23
-10.72
-13.7
-17.1
-20.53
-23.37
-24.96
-24.78
-22.7
-18.95
-14.05
-8.55
-2.94
2.45
7.37
11.57
14.75
16.64
17.13
16.38
14.79
12.88
11.19
10.06
9.61
9.79
10.44
11.37
12.41
13.41
14.25
14.85
15.09
14.9
14.14
12.76
10.75
8.23
5.37
2.27
-1.02
-4.55
-8.31
-12.17
-15.79
-18.69
-20.39
-20.51
-18.95
-15.78
-11.3
-5.9
-0.06
5.67
10.77
14.77
17.39
18.58
18.52
17.51
15.91
14.03
12.14
10.48
9.22
8.45
8.17
8.21
8.34
8.32
8.01
7.35
6.42
5.26
3.86
2.18
0.11
-2.35
-5.2
-8.37
-11.84
-15.61
-19.66
-23.84
-27.81
-31.06
-33.01
-33.15
-31.25
-27.38
-21.98
-15.71
-9.31
-3.46
1.37
4.99
7.42
8.8
9.29
8.99
8.04
6.61
5.01
3.64
2.85
2.83
3.52
4.67
5.94
6.99
7.64
7.8
7.43
6.55
5.15
3.29
1.08
-1.36
-3.9
-6.55
-9.44
-12.75
-16.58
-20.8
-24.99
-28.51
-30.66
-30.93
-29.11
-25.37
-20.13
-13.95
-7.42
-1.07
4.63
9.28
12.66
14.72
15.6
15.58
14.98
14.01
12.83
11.5
10.08
8.73
7.62
6.93
6.66
6.74
6.93
7.02
6.82
6.2
5.09
3.48
1.39
-1.1
-3.87
-6.8
-9.8
-12.89
-16.22
-19.9
-23.97
-28.27
-32.4
-35.8
-37.85
-38.07
-36.17
-32.16
-26.31
-19.14
-11.34
-3.58
3.5
9.47
14.04
17.18
18.98
19.68
19.58
18.97
18.12
17.21
16.36
15.62
15.02
14.56
14.25
14.12
14.12
14.19
14.16
13.82
12.93
11.33
8.98
5.98
2.59
-0.9
-4.23
-7.3
-10.24
-13.31
-16.84
-21.03
-25.81
-30.77
-35.21
-38.32
-39.42
-38.14
-34.55
-29.05
-22.33
-15.14
-8.14
-1.86
3.38
7.42
10.26
12.01
12.84
12.95
12.56
11.82
10.87
9.85
8.91
8.22
7.91
8.06
8.6
9.42
10.29
10.93
11.07
10.51
9.21
7.28
4.97
2.6
0.4
-1.51
-3.24
-5.03
-7.15
-9.81
-13.07
-16.81
-20.69
-24.15
-26.52
-27.12
-25.47
-21.5
-15.63
-8.66
-1.53
5.01
10.48
14.76
17.88
19.91
20.85
20.72
19.58
17.72
15.53
13.47
11.88
10.95
10.7
11.04
11.77
12.62
13.27
13.41
12.79
11.38
9.3
6.78
4.08
1.38
-1.26
-3.86
-6.51
-9.33
-12.51
-16.16
-20.28
-24.6
-28.53
-31.29
-32.1
-30.49
-26.5
-20.62
-13.66
-6.39
0.55
6.71
11.76
15.42
17.47
17.9
16.94
15.08
12.94
11.01
9.59
8.69
8.17
7.91
7.86
8.03
8.36
8.73
8.88
8.64
7.87
6.58
4.83
2.72
0.24
-2.58
-5.68
-8.93
-12.15
-15.27
-18.37
-21.68
-25.37
-29.37
-33.21
-36.08
-37.1
-35.65
-31.64
-25.54
-18.19
-10.51
-3.25
3.1
8.3
12.18
14.63
15.6
15.23
13.86
12.06
10.39
9.25
8.76
8.76
8.99
9.19
9.24
9.21
9.24
9.43
9.74
9.98
9.89
9.19
7.76
5.63
2.98
0.05
-2.97
-5.97
-8.95
-12.01
-15.32
-19.04
-23.25
-27.8
-32.27
-35.96
-38.11
-38.09
-35.68
-31.09
-24.9
-17.88
-10.72
-3.96
2.07
7.15
11.17
14.05
15.8
16.54
16.5
15.96
15.19
14.39
13.72
13.29
13.2
13.45
13.98
14.62
15.14
15.37
15.19
14.61
13.67
12.41
10.76
8.65
6.05
3.02
-0.27
-3.63
-6.86
-9.91
-12.79
-15.63
-18.65
-22.1
-26.14
-30.75
-35.59
-40.08
-43.47
-45.04
-44.3
-41.12
-35.71
-28.61
-20.48
-12.11
-4.22
2.62
8.05
11.99
14.56
15.96
16.46
16.29
15.67
14.85
14.04
13.41
13.06
12.98
13.09
13.33
13.69
14.13
14.63
15.03
15.14
14.7
13.55
11.6
8.94
5.79
2.47
-0.72
-3.59
-6.17
-8.67
-11.44
-14.78
-18.8
-23.26
-27.57
-30.98
-32.71
-32.27
-29.53
-24.75
-18.46
-11.31
-3.87
3.33
9.9
15.49
19.78
22.51
23.61
23.23
21.78
19.85
17.99
16.59
15.76
15.4
15.3
15.27
15.25
15.23
15.23
15.17
14.86
14.09
12.68
10.59
7.94
4.96
1.93
-0.9
-3.43
-5.76
-8.15
-10.95
-14.4
-18.49
-22.85
-26.91
-29.93
-31.31
-30.68
-27.99
-23.45
-17.49
-10.68
-3.59
3.13
8.94
13.41
16.34
17.77
17.91
17.13
15.79
14.19
12.55
11.03
9.76
8.88
8.49
8.58
9.03
9.63
10.13
10.33
10.06
9.27
7.92
6.05
3.7
0.95
-2.07
-5.28
-8.58
-12.01
-15.64
-19.62
-23.98
-28.65
-33.29
-37.33
-40.06
-40.83
-39.22
-35.16
-29
-21.37
-13.04
-4.75
2.92
9.52
14.78
18.54
20.74
21.48
21.03
19.83
18.4
17.2
16.49
16.26
16.32
16.34
16.14
15.64
14.97
14.26
13.52
12.66
11.47
9.76
7.43
4.52
1.17
-2.45
-6.19
-9.88
-13.46
-16.95
-20.5
-24.35
-28.65
-33.37
-38.14
-42.33
-45.22
-46.19
-44.89
-41.32
-35.71
-28.49
-20.18
-11.39
-2.7
5.3
12.17
17.61
21.49
23.86
24.86
24.74
23.83
22.58
21.42
20.78
20.89
21.71
23.02
24.44
25.56
26.1
25.97
25.24
24.07
22.55
20.72
18.42
15.55
12.07
8.07
3.78
-0.51
-4.56
-8.28
-11.75
-15.15
-18.77
-22.88
-27.53
-32.56
-37.45
-41.44
-43.71
-43.62
-40.88
-35.63
-28.38
-19.84
-10.77
-1.92
6.09
12.74
17.74
20.94
22.5
22.72
22.06
20.99
19.88
19
18.5
18.39
18.62
19.09
19.65
20.16
20.52
20.63
20.43
19.89
18.95
17.51
15.51
12.9
9.74
6.23
2.61
-0.84
-3.99
-6.79
-9.43
-12.17
-15.29
-18.97
-23.16
-27.58
-31.73
-34.99
-36.78
-36.63
-34.36
-30.04
-24.01
-16.82
-9.09
-1.44
5.58
11.55
16.19
19.32
20.99
21.36
20.78
19.66
18.4
17.32
16.59
16.21
16.08
16.04
15.95
15.75
15.45
15.07
14.6
13.92
12.87
11.28
9.12
6.5
3.66
0.86
-1.78
-4.26
-6.76
-9.46
-12.5
-15.92
-19.62
-23.35
-26.69
-29.09
-29.95
-28.78
-25.4
-20.06
-13.34
-6.03
1.15
7.69
13.26
17.64
20.68
22.3
22.51
21.52
19.72
17.56
15.44
13.57
12
10.74
9.81
9.33
9.33
9.76
10.32
10.58
10.12
8.7
6.41
3.52
0.45
-2.5
-5.19
-7.7
-10.26
-13.16
-16.65
-20.84
-25.64
-30.67
-35.29
-38.68
-40.11
-39.05
-35.43
-29.6
-22.25
-14.2
-6.19
1.17
7.47
12.45
15.95
17.94
18.5
17.92
16.66
15.22
14.03
13.33
13.14
13.3
13.64
13.98
14.23
14.35
14.31
13.99
13.27
12
10.12
7.72
4.99
2.21
-0.38
-2.72
-4.95
-7.38
-10.34
-14.06
-18.52
-23.5
-28.64
-33.53
-37.74
-40.82
-42.28
-41.65
-38.63
-33.21
-25.86
-17.34
-8.57
-0.32
6.94
12.98
17.75
21.21
23.29
23.97
23.37
21.85
19.95
18.2
16.95
16.3
16.08
16.08
16.09
16.03
15.9
15.69
15.28
14.46
13.02
10.8
7.81
4.28
0.55
-2.97
-6.06
-8.67
-11.04
-13.58
-16.74
-20.78
-25.64
-30.87
-35.7
-39.28
-40.86
-40.03
-36.71
-31.19
-24
-15.75
-7.14
1.19
8.63
14.72
19.19
21.95
23.17
23.15
22.29
21.03
19.75
18.77
18.27
18.28
18.62
19.09
19.45
19.63
19.65
19.62
19.56
19.36
18.81
17.61
15.57
12.68
9.1
5.15
1.17
-2.58
-5.96
-9.07
-12.14
-15.5
-19.41
-23.94
-28.88
-33.69
-37.68
-40.13
-40.53
-38.65
-34.64
-28.9
-21.98
-14.49
-7.01
-0.07
5.9
10.59
13.86
15.77
16.56
16.53
16.06
15.42
14.78
14.22
13.76
13.42
13.21
13.15
13.26
13.51
13.82
14.07
14.1
13.75
12.87
11.37
9.24
6.59
3.61
0.57
-2.34
-5.08
-7.81
-10.82
-14.36
-18.4
-22.58
-26.19
-28.48
-28.85
-27.1
-23.41
-18.28
-12.33
-6.07
0.08
5.8
10.8
14.84
17.66
19.12
19.21
18.13
16.25
14.07
12.11
10.76
10.23
10.43
11.13
11.99
12.73
13.16
13.17
12.71
11.71
10.17
8.15
5.83
3.42
1.12
-1.03
-3.18
-5.58
-8.51
-12.11
-16.29
-20.69
-24.72
-27.76
-29.23
-28.77
-26.32
-22.11
-16.53
-10.11
-3.4
3.08
8.83
13.46
16.68
18.4
18.77
18.05
16.61
14.78
12.84
11
9.44
8.27
7.58
7.37
7.52
7.83
8.08
8.04
7.56
6.58
5.11
3.22
0.95
-1.62
-4.45
-7.49
-10.75
-14.31
-18.3
-22.8
-27.7
-32.6
-36.82
-39.53
-40.03
-37.99
-33.52
-27.11
-19.46
-11.32
-3.35
3.89
9.93
14.44
17.27
18.55
18.59
17.79
16.57
15.23
13.96
12.88
12.06
11.57
11.44
11.66
12.14
12.74
13.22
13.35
12.91
11.73
9.76
7.09
3.98
0.75
-2.35
-5.18
-7.81
-10.52
-13.65
-17.48
-22.09
-27.24
-32.31
-36.47
-38.86
-38.89
-36.39
-31.67
-25.35
-18.2
-10.9
-3.92
2.44
8.01
12.67
16.26
18.67
19.88
20.02
19.38
18.32
17.21
16.29
15.65
15.3
15.17
15.24
15.5
15.91
16.38
16.7
16.61
15.9
14.47
12.36
9.71
6.75
3.67
0.64
-2.24
-4.96
-7.62
-10.45
-13.71
-17.62
-22.19
-27.09
-31.66
-35.08
-36.6
-35.76
-32.58
-27.46
-21.09
-14.14
-7.17
-0.56
5.46
10.73
15.07
18.27
20.18
20.76
20.17
18.75
16.97
15.32
14.15
13.6
13.61
13.99
14.56
15.18
15.78
16.29
16.56
16.38
15.54
13.91
11.53
8.55
5.24
1.88
-1.35
-4.34
-7.15
-9.97
-13.05
-16.6
-20.66
-24.98
-29.05
-32.19
-33.7
-33.11
-30.29
-25.44
-19.1
-11.95
-4.73
1.93
7.55
11.88
14.81
16.39
16.74
16.11
14.77
13.08
11.41
10.06
9.21
8.88
8.99
9.43
10.14
11.07
12.16
13.25
14.09
14.35
13.82
12.41
10.32
7.84
5.25
2.76
0.34
-2.17
-4.95
-8.16
-11.82
-15.77
-19.72
-23.18
-25.59
-26.41
-25.24
-21.97
-16.87
-10.52
-3.68
2.94
8.79
13.54
17.01
19.17
20.07
19.85
18.73
17.01
15
12.98
11.16
9.67
8.63
8.07
7.95
8.15
8.44
8.59
8.36
7.61
6.3
4.43
2.07
-0.7
-3.75
-6.92
-10.09
-13.22
-16.44
-19.92
-23.8
-27.91
-31.79
-34.68
-35.83
-34.72
-31.23
-25.68
-18.68
-10.96
-3.24
3.88
9.93
14.56
17.61
19.06
19.07
17.96
16.11
13.95
11.86
10.17
9.1
8.71
8.9
9.49
10.24
10.94
11.43
11.55
11.18
10.21
8.56
6.26
3.44
0.33
-2.84
-5.91
-8.89
-11.95
-15.34
-19.29
-23.8
-28.65
-33.28
-37.02
-39.14
-39.1
-36.67
-31.95
-25.42
-17.76
-9.77
-2.22
4.26
9.34
12.94
15.22
16.47
16.97
16.94
16.51
15.81
14.95
14.12
13.45
13.08
13.02
13.24
13.68
14.28
14.9
15.37
15.42
14.79
13.27
10.86
7.72
4.23
0.79
-2.3
-4.97
-7.4
-9.97
-13.09
-16.96
-21.5
-26.21
-30.35
-33.06
-33.7
-31.93
-27.84
-21.84
-14.56
-6.7
1.07
8.2
14.23
18.91
22.14
23.97
24.57
24.19
23.11
21.63
20.01
18.47
17.18
16.22
15.65
15.44
15.57
15.93
16.34
16.6
16.45
15.65
14.09
11.78
8.84
5.51
1.98
-1.54
-4.94
-8.17
-11.31
-14.52
-18.01
-21.92
-26.21
-30.51
-34.14
-36.31
-36.37
-34.06
-29.62
-23.66
-16.96
-10.19
-3.79
2.01
7.06
11.17
14.11
15.68
15.9
15.06
13.66
12.25
11.23
10.81
10.96
11.56
12.4
13.31
14.14
14.73
14.94
14.65
13.84
12.52
10.77
8.66
6.28
3.7
0.95
-1.95
-5.11
-8.61
-12.61
-17.08
-21.83
-26.4
-30.12
-32.29
-32.33
-30.04
-25.57
-19.47
-12.48
-5.34
1.32
7.11
11.79
15.21
17.27
17.97
17.44
15.99
14.1
12.22
10.72
9.74
9.25
9.13
9.27
9.59
10.03
10.48
10.71
10.47
9.56
7.91
5.65
3.05
0.35
-2.29
-4.9
-7.65
-10.76
-14.34
-18.29
-22.24
-25.6
-27.66
-27.83
-25.75
-21.49
-15.44
-8.27
-0.71
6.56
12.97
18.12
21.78
23.81
24.22
23.17
20.91
17.86
14.48
11.28
8.72
7.05
6.29
6.19
6.31
6.24
5.7
4.63
3.15
1.38
-0.61
-2.89
-5.57
-8.74
-12.38
-16.42
-20.75
-25.24
-29.62
-33.5
-36.31
-37.4
-36.34
-33.03
-27.79
-21.21
-14.03
-6.88
-0.22
5.63
10.43
14
16.2
17.02
16.61
15.27
13.42
11.48
9.81
8.66
8.14
8.17
8.54
8.98
9.18
8.93
8.18
6.97
5.44
3.66
1.7
-0.49
-2.94
-5.69
-8.76
-12.22
-16.17
-20.66
-25.63
-30.74
-35.33
-38.57
-39.64
-38.04
-33.71
-27.12
-19.1
-10.59
-2.44
4.81
10.9
15.76
19.4
21.85
23.09
23.22
22.45
21.14
19.73
18.61
17.99
17.88
18.18
18.69
19.25
19.72
19.96
19.84
19.21
17.98
16.13
13.75
10.98
7.97
4.82
1.59
-1.76
-5.35
-9.32
-13.8
-18.75
-23.89
-28.6
-32.15
-33.8
-33.12
-30.07
-24.94
-18.29
-10.74
-2.89
4.66
11.38
16.81
20.65
22.88
23.74
23.62
22.92
21.95
20.88
19.84
18.89
18.11
17.56
17.32
17.38
17.7
18.17
18.58
18.66
18.17
16.9
14.8
11.98
8.64
5.07
1.52
-1.83
-4.9
-7.79
-10.77
-14.16
-18.25
-23.02
-28.08
-32.67
-35.87
-36.89
-35.31
-31.24
-25.19
-17.97
-10.43
-3.27
3.03
8.2
12.16
14.93
16.56
17.22
17.11
16.46
15.56
14.62
13.79
13.17
12.78
12.64
12.75
13.08
13.57
14.08
14.43
14.41
13.81
12.52
10.5
7.84
4.74
1.45
-1.79
-4.85
-7.77
-10.76
-14.06
-17.82
-21.92
-25.88
-28.99
-30.47
-29.77
-26.7
-21.58
-15.01
-7.76
-0.56
6.05
11.68
16.05
19.04
20.63
20.94
20.23
18.84
17.15
15.5
14.15
13.26
12.91
13.02
13.46
14.02
14.45
14.55
14.19
13.34
12.04
10.33
8.26
5.85
3.16
0.27
-2.74
-5.82
-9.04
-12.55
-16.46
-20.71
-24.95
-28.54
-30.75
-30.92
-28.75
-24.38
-18.34
-11.4
-4.31
2.29
7.98
12.48
15.69
17.57
18.21
17.76
16.5
14.81
13.06
11.55
10.48
9.89
9.74
9.93
10.32
10.77
11.12
11.23
10.95
10.15
8.74
6.7
4.06
0.97
-2.33
-5.55
-8.48
-11.15
-13.78
-16.8
-20.51
-24.98
-29.81
-34.25
-37.32
-38.22
-36.51
-32.24
-25.96
-18.45
-10.58
-3.07
3.59
9.09
13.32
16.25
17.95
18.53
18.2
17.23
15.9
14.45
13.06
11.9
11.08
10.71
10.81
11.29
11.95
12.51
12.65
12.16
10.95
9.05
6.63
3.87
0.98
-1.85
-4.51
-7.03
-9.54
-12.28
-15.51
-19.32
-23.53
-27.62
-30.88
-32.55
-32.05
-29.19
-24.19
-17.66
-10.38
-3.16
3.36
8.78
12.89
15.71
17.33
17.87
17.5
16.44
15
13.54
12.42
11.85
11.91
12.42
13.15
13.86
14.41
14.76
14.9
14.79
14.27
13.18
11.41
9.05
6.31
3.48
0.82
-1.61
-3.95
-6.46
-9.46
-13.18
-17.6
-22.42
-27.01
-30.66
-32.63
-32.48
-30.11
-25.83
-20.21
-13.9
-7.51
-1.52
3.76
8.13
11.49
13.85
15.25
15.75
15.48
14.58
13.28
11.84
10.55
9.68
9.34
9.53
10.09
10.83
11.5
11.91
11.9
11.35
10.17
8.38
6.04
3.35
0.55
-2.11
-4.5
-6.67
-8.84
-11.35
-14.44
-18.15
-22.2
-25.97
-28.73
-29.8
-28.77
-25.64
-20.79
-14.84
-8.48
-2.3
3.28
8
11.73
14.42
16.02
16.57
16.18
15.03
13.43
11.69
10.11
8.9
8.19
7.99
8.22
8.75
9.42
10.02
10.36
10.23
9.47
8.04
6.02
3.6
1
-1.58
-4.12
-6.75
-9.66
-12.95
-16.53
-20.04
-22.94
-24.59
-24.53
-22.56
-18.83
-13.81
-8.09
-2.26
3.21
7.96
11.78
14.51
16
16.24
15.32
13.48
11.11
8.63
6.45
4.8
3.83
3.53
3.79
4.41
5.1
5.56
5.48
4.72
3.31
1.42
-0.72
-2.92
-5.17
-7.64
-10.54
-14.05
-18.17
-22.65
-27
-30.59
-32.78
-33.08
-31.26
-27.45
-22.09
-15.81
-9.3
-3.13
2.33
6.86
10.4
12.89
14.31
14.67
14.09
12.81
11.17
9.56
8.3
7.59
7.43
7.69
8.13
8.55
8.76
8.64
8.11
7.14
5.75
3.97
1.89
-0.4
-2.89
-5.62
-8.73
-12.38
-16.66
-21.41
-26.22
-30.45
-33.39
-34.45
-33.27
-29.9
-24.69
-18.25
-11.31
-4.55
1.46
6.36
10
12.44
13.81
14.33
14.16
13.47
12.4
11.12
9.87
8.88
8.33
8.31
8.73
9.45
10.23
10.86
11.15
10.95
10.18
8.77
6.76
4.28
1.51
-1.33
-4.1
-6.73
-9.3
-11.99
-15.01
-18.45
-22.23
-26.03
-29.31
-31.4
-31.71
-29.86
-25.86
-20.1
-13.21
-5.96
0.96
7.07
12.09
15.9
18.5
20
20.55
20.36
19.72
18.86
18.01
17.25
16.63
16.15
15.87
15.84
16.1
16.53
16.91
16.95
16.38
15.06
13.02
10.38
7.34
4.13
0.92
-2.13
-4.98
-7.77
-10.75
-14.26
-18.49
-23.25
-27.96
-31.72
-33.68
-33.25
-30.38
-25.49
-19.32
-12.64
-6.13
-0.25
4.78
8.86
11.96
14.11
15.35
15.76
15.46
14.63
13.52
12.39
11.49
10.98
10.87
11.08
11.48
11.92
12.32
12.53
12.48
12.04
11.1
9.65
7.72
5.48
3.08
0.64
-1.86
-4.55
-7.65
-11.27
-15.31
-19.38
-22.86
-25.06
-25.43
-23.76
-20.23
-15.32
-9.61
-3.69
2.01
7.14
11.43
14.7
16.84
17.86
17.89
17.18
15.97
14.5
12.98
11.6
10.57
10.04
10.06
10.53
11.18
11.68
11.75
11.21
10.06
8.4
6.36
4.07
1.61
-1.01
-3.82
-6.85
-10.17
-13.8
-17.64
-21.41
-24.65
-26.81
-27.34
-25.92
-22.53
-17.52
-11.49
-5.14
0.85
5.98
9.96
12.75
14.41
15.13
15.1
14.48
13.38
11.9
10.21
8.58
7.38
6.88
7.25
8.33
9.75
11
11.64
11.44
10.38
8.62
6.37
3.77
0.94
-2.06
-5.17
-8.35
-11.61
-15.02
-18.67
-22.58
-26.53
-29.99
-32.32
-32.84
-31.19
-27.38
-21.87
-15.37
-8.63
-2.26
3.36
8.03
11.66
14.22
15.71
16.21
15.88
14.96
13.75
12.52
11.44
10.66
10.19
10.02
10.08
10.3
10.58
10.81
10.84
10.53
9.72
8.34
6.38
3.99
1.37
-1.29
-3.91
-6.55
-9.44
-12.83
-16.83
-21.37
-26.04
-30.22
-33.15
-34.14
-32.76
-28.99
-23.21
-16.15
-8.67
-1.53
4.75
9.95
14.08
17.21
19.41
20.69
21.12
20.86
20.2
19.51
19.05
18.92
18.99
19.03
18.86
18.42
17.83
17.24
16.74
16.21
15.43
14.16
12.26
9.79
6.91
3.86
0.8
-2.2
-5.13
-8.03
-11
-14.17
-17.68
-21.62
-25.85
-29.98
-33.41
-35.4
-35.39
-33.13
-28.8
-22.93
-16.22
-9.35
-2.86
2.95
7.86
11.73
14.45
15.92
16.21
15.54
14.34
13.12
12.33
12.17
12.58
13.3
14.05
14.63
14.99
15.17
15.18
14.98
14.4
13.3
11.59
9.34
6.72
3.96
1.23
-1.37
-3.87
-6.44
-9.26
-12.46
-16.02
-19.72
-23.12
-25.68
-26.87
-26.33
-23.96
-19.93
-14.66
-8.66
-2.47
3.39
8.51
12.58
15.4
16.93
17.24
16.6
15.36
13.89
12.58
11.68
11.27
11.3
11.59
11.94
12.2
12.31
12.24
11.98
11.49
10.65
9.34
7.53
5.28
2.82
0.37
-1.98
-4.37
-7.13
-10.54
-14.66
-19.19
-23.49
-26.77
-28.38
-27.92
-25.4
-21.14
-15.61
-9.37
-2.99
3.01
8.16
12.11
14.69
15.9
15.92
15.03
13.58
11.92
10.36
9.11
8.24
7.71
7.44
7.33
7.39
7.58
7.86
8.06
7.95
7.29
5.94
3.97
1.61
-0.84
-3.19
-5.4
-7.61
-10.08
-13.07
-16.68
-20.82
-25.13
-29.06
-32.01
-33.41
-32.91
-30.41
-26.15
-20.6
-14.35
-8.04
-2.19
2.82
6.79
9.64
11.45
12.33
12.47
12.13
11.59
11.12
10.93
11.09
11.56
12.21
12.9
13.51
13.94
14.14
14.03
13.54
12.62
11.31
9.63
7.69
5.5
3.12
0.56
-2.12
-4.91
-7.82
-10.95
-14.43
-18.28
-22.32
-26.07
-28.85
-30.01
-29.15
-26.28
-21.82
-16.37
-10.55
-4.82
0.52
5.27
9.26
12.3
14.26
15.14
15.1
14.44
13.53
12.65
11.99
11.61
11.51
11.65
12
12.5
13.05
13.52
13.75
13.61
13
11.88
10.29
8.29
5.98
3.49
0.99
-1.4
-3.63
-5.8
-8.15
-10.99
-14.54
-18.71
-23.06
-26.8
-29.11
-29.3
-27.2
-23.09
-17.63
-11.63
-5.75
-0.44
4.13
7.92
10.89
13.01
14.23
14.58
14.24
13.49
12.61
11.82
11.21
10.75
10.42
10.21
10.2
10.45
10.92
11.44
11.73
11.52
10.62
9.08
7.04
4.74
2.35
-0.02
-2.37
-4.75
-7.26
-9.99
-13
-16.24
-19.43
-22.15
-23.86
-24.09
-22.57
-19.37
-14.86
-9.54
-3.97
1.37
6.13
10.04
12.91
14.67
15.33
15.05
14.1
12.79
11.47
10.34
9.51
8.99
8.67
8.45
8.22
7.9
7.45
6.85
6.12
5.27
4.27
3.05
1.51
-0.39
-2.62
-5.11
-7.75
-10.5
-13.43
-16.63
-20.09
-23.56
-26.54
-28.41
-28.68
-27.17
-24.04
-19.7
-14.63
-9.23
-3.85
1.19
5.54
8.86
10.93
11.72
11.44
10.5
9.37
8.39
7.75
7.45
7.42
7.6
7.99
8.61
9.44
10.33
11.03
11.23
10.69
9.35
7.35
4.96
2.44
0.01
-2.27
-4.44
-6.63
-9.03
-11.84
-15.16
-18.98
-22.99
-26.68
-29.44
-30.69
-30.1
-27.65
-23.61
-18.46
-12.71
-6.84
-1.27
3.64
7.67
10.68
12.65
13.71
14.04
13.9
13.51
13.05
12.63
12.31
12.14
12.14
12.33
12.74
13.36
14.11
14.79
15.19
15.08
14.3
12.86
10.89
8.62
6.32
4.16
2.19
0.33
-1.63
-3.97
-6.97
-10.76
-15.15
-19.65
-23.44
-25.71
-25.92
-23.97
-20.28
-15.54
-10.47
-5.57
-1.09
2.87
6.27
9.05
11.09
12.33
12.86
12.85
12.54
12.09
11.62
11.15
10.68
10.23
9.88
9.77
9.98
10.49
11.12
11.59
11.59
10.88
9.41
7.3
4.78
2.13
-0.41
-2.71
-4.72
-6.55
-8.43
-10.66
-13.48
-16.9
-20.61
-23.94
-26.1
-26.47
-24.82
-21.39
-16.76
-11.58
-6.42
-1.61
2.7
6.39
9.32
11.33
12.35
12.45
11.86
10.94
10.06
9.45
9.17
9.17
9.33
9.58
9.9
10.31
10.76
11.16
11.31
11.03
10.22
8.87
7.09
5.06
2.92
0.78
-1.38
-3.66
-6.21
-9.17
-12.59
-16.32
-19.99
-23.01
-24.78
-24.83
-23.01
-19.47
-14.69
-9.25
-3.78
1.26
5.5
8.73
10.87
11.93
12.02
11.34
10.15
8.75
7.43
6.44
5.94
5.99
6.5
7.36
8.33
9.21
9.74
9.69
8.93
7.43
5.33
2.95
0.62
-1.42
-3.18
-4.9
-6.96
-9.7
-13.21
-17.27
-21.42
-25.01
-27.46
-28.31
-27.33
-24.59
-20.4
-15.29
-9.88
-4.7
-0.13
3.72
6.82
9.21
10.88
11.8
11.97
11.55
10.83
10.1
9.57
9.29
9.22
9.26
9.38
9.55
9.75
9.88
9.81
9.41
8.58
7.31
5.62
3.61
1.34
-1.14
-3.79
-6.6
-9.59
-12.87
-16.5
-20.5
-24.59
-28.3
-30.94
-31.87
-30.69
-27.43
-22.51
-16.62
-10.47
-4.63
0.55
4.9
8.39
11.02
12.85
13.99
14.65
15.01
15.21
15.3
15.32
15.27
15.18
15.12
15.14
15.28
15.54
15.84
16.05
15.99
15.5
14.43
12.79
10.65
8.16
5.55
3
0.61
-1.64
-3.93
-6.5
-9.6
-13.29
-17.39
-21.4
-24.63
-26.41
-26.31
-24.25
-20.54
-15.68
-10.22
-4.64
0.7
5.49
9.47
12.43
14.28
15.04
14.88
14.1
13.01
11.93
11.07
10.56
10.4
10.52
10.83
11.23
11.66
12.05
12.33
12.37
12.08
11.39
10.32
8.95
7.33
5.51
3.46
1.14
-1.49
-4.43
-7.67
-11.2
-14.99
-18.89
-22.56
-25.52
-27.17
-27.05
-24.99
-21.23
-16.31
-10.86
-5.43
-0.37
4.14
7.96
10.93
12.89
13.74
13.55
12.57
11.18
9.78
8.67
8.03
7.91
8.26
8.99
9.94
10.94
11.77
12.25
12.22
11.63
10.48
8.86
6.93
4.89
2.94
1.16
-0.56
-2.42
-4.69
-7.56
-10.98
-14.66
-18.08
-20.69
-21.98
-21.69
-19.76
-16.39
-11.93
-6.81
-1.49
3.58
7.97
11.37
13.56
14.53
14.4
13.47
12.1
10.65
9.41
8.55
8.16
8.2
8.61
9.19
9.75
10.12
10.18
9.89
9.25
8.29
7.01
5.39
3.41
1.11
-1.44
-4.13
-6.89
-9.72
-12.71
-15.9
-19.19
-22.23
-24.46
-25.27
-24.25
-21.35
-16.9
-11.48
-5.82
-0.48
4.14
7.86
10.58
12.32
13.1
13.02
12.27
11.12
9.84
8.64
7.65
6.94
6.5
6.35
6.47
6.78
7.12
7.26
7.04
6.38
5.36
4.1
2.71
1.22
-0.45
-2.39
-4.69
-7.37
-10.44
-13.87
-17.58
-21.34
-24.7
-27.1
-27.99
-27.01
-24.14
-19.7
-14.24
-8.38
-2.61
2.69
7.27
10.95
13.62
15.21
15.76
15.44
14.51
13.29
12.06
11.01
10.23
9.71
9.43
9.4
9.6
10.05
10.69
11.36
11.85
11.89
11.3
9.95
7.89
5.31
2.48
-0.32
-2.9
-5.22
-7.44
-9.8
-12.59
-15.9
-19.54
-23.02
-25.7
-26.98
-26.52
-24.26
-20.49
-15.65
-10.19
-4.51
1.02
6.1
10.39
13.61
15.62
16.49
16.51
16.06
15.52
15.09
14.81
14.61
14.36
14.06
13.78
13.62
13.66
13.85
14.02
14
13.62
12.81
11.55
9.88
7.82
5.41
2.73
-0.08
-2.81
-5.31
-7.53
-9.63
-11.93
-14.76
-18.23
-22.07
-25.64
-28.12
-28.85
-27.58
-24.52
-20.24
-15.36
-10.36
-5.49
-0.88
3.31
6.85
9.51
11.11
11.71
11.55
10.9
10.04
9.13
8.26
7.51
6.99
6.81
7.06
7.69
8.55
9.41
10
10.14
9.74
8.85
7.56
6
4.25
2.4
0.51
-1.43
-3.43
-5.57
-7.96
-10.69
-13.73
-16.87
-19.62
-21.35
-21.48
-19.67
-15.99
-10.93
-5.17
0.55
5.68
9.89
13.08
15.23
16.37
16.57
15.92
14.64
13.02
11.35
9.86
8.71
7.95
7.57
7.51
7.66
7.86
7.92
7.67
7.02
5.95
4.52
2.79
0.83
-1.33
-3.66
-6.13
-8.68
-11.32
-14.03
-16.87
-19.77
-22.54
-24.77
-25.92
-25.52
-23.36
-19.58
-14.65
-9.2
-3.8
1.15
5.4
8.81
11.28
12.71
13.1
12.6
11.49
10.15
8.93
8.06
7.63
7.54
7.64
7.8
7.92
7.97
7.99
7.93
7.67
7.05
5.92
4.24
2.12
-0.2
-2.52
-4.72
-6.86
-9.15
-11.83
-15.09
-18.89
-22.93
-26.67
-29.44
-30.61
-29.81
-27
-22.54
-17
-11.09
-5.34
-0.16
4.26
7.8
10.39
11.96
12.53
12.22
11.28
10.07
8.98
8.28
8.09
8.34
8.84
9.37
9.81
10.13
10.27
10.17
9.66
8.65
7.11
5.22
3.23
1.36
-0.31
-1.92
-3.66
-5.71
-8.16
-11.04
-14.3
-17.8
-21.28
-24.29
-26.26
-26.7
-25.34
-22.27
-17.9
-12.76
-7.38
-2.18
2.54
6.57
9.77
12.07
13.55
14.38
14.76
14.84
14.73
14.48
14.2
13.98
13.93
14.07
14.33
14.59
14.72
14.66
14.41
13.98
13.37
12.51
11.33
9.73
7.74
5.45
3.06
0.77
-1.35
-3.36
-5.48
-7.99
-11.09
-14.8
-18.85
-22.78
-26.01
-27.98
-28.28
-26.77
-23.55
-19.03
-13.76
-8.36
-3.34
0.98
4.47
7.18
9.16
10.46
11.1
11.08
10.56
9.74
8.9
8.26
7.92
7.81
7.85
7.95
8.12
8.42
8.83
9.26
9.45
9.14
8.16
6.52
4.46
2.32
0.42
-1.1
-2.3
-3.45
-4.93
-7.05
-9.97
-13.54
-17.3
-20.59
-22.71
-23.18
-21.83
-18.88
-14.8
-10.13
-5.31
-0.67
3.56
7.2
10.09
12.09
13.15
13.35
12.88
12.02
11.03
10.15
9.56
9.38
9.63
10.23
11.03
11.77
12.24
12.26
11.73
10.67
9.16
7.36
5.4
3.39
1.43
-0.45
-2.31
-4.26
-6.51
-9.24
-12.5
-16.12
-19.61
-22.39
-23.87
-23.73
-21.95
-18.78
-14.64
-9.94
-5.05
-0.32
3.9
7.32
9.75
11.15
11.66
11.49
10.84
9.83
8.56
7.14
5.76
4.65
4.03
4.01
4.5
5.28
6.06
6.59
6.67
6.23
5.32
4.01
2.41
0.61
-1.3
-3.26
-5.28
-7.43
-9.84
-12.69
-16.02
-19.72
-23.38
-26.44
-28.25
-28.38
-26.66
-23.31
-18.78
-13.63
-8.38
-3.4
1.04
4.77
7.67
9.64
10.66
10.82
10.32
9.44
8.52
7.82
7.51
7.63
8.08
8.76
9.51
10.18
10.66
10.85
10.67
10.1
9.12
7.77
6.04
3.98
1.66
-0.8
-3.25
-5.58
-7.84
-10.22
-12.97
-16.32
-20.22
-24.27
-27.8
-30.08
-30.57
-29.06
-25.77
-21.17
-15.85
-10.36
-5.14
-0.45
3.55
6.81
9.31
11.03
12.02
12.34
12.17
11.77
11.43
11.36
11.61
12.08
12.63
13.13
13.57
14.01
14.5
14.99
15.27
15.13
14.36
12.91
10.85
8.38
5.72
3.08
0.6
-1.63
-3.66
-5.61
-7.68
-10.07
-12.86
-16.04
-19.33
-22.33
-24.51
-25.37
-24.59
-22.09
-18.08
-12.99
-7.35
-1.7
3.54
8.12
11.87
14.73
16.64
17.61
17.73
17.19
16.3
15.38
14.69
14.36
14.35
14.52
14.7
14.8
14.8
14.73
14.62
14.42
14.04
13.34
12.22
10.67
8.75
6.59
4.32
2.04
-0.24
-2.5
-4.79
-7.19
-9.78
-12.66
-15.88
-19.38
-22.93
-26.1
-28.3
-29
-27.89
-25
-20.73
-15.67
-10.41
-5.43
-1.01
2.71
5.64
7.71
8.92
9.35
9.23
8.86
8.55
8.49
8.75
9.26
9.92
10.64
11.36
12.07
12.74
13.27
13.54
13.39
12.72
11.55
9.94
8
5.84
3.52
1.08
-1.41
-3.9
-6.36
-8.82
-11.32
-13.9
-16.46
-18.73
-20.31
-20.81
-19.99
-17.79
-14.43
-10.22
-5.54
-0.72
3.92
8.11
11.56
14.06
15.49
15.89
15.46
14.51
13.37
12.26
11.34
10.69
10.34
10.29
10.53
10.99
11.53
11.94
12.05
11.71
10.92
9.69
8.08
6.13
3.86
1.31
-1.47
-4.42
-7.49
-10.7
-14.06
-17.52
-20.9
-23.87
-26.01
-26.86
-26.1
-23.65
-19.72
-14.69
-9.13
-3.55
1.61
6.04
9.54
12
13.37
13.68
13.08
11.86
10.38
8.98
7.9
7.2
6.84
6.72
6.8
7.09
7.6
8.23
8.78
8.98
8.55
7.41
5.61
3.36
0.91
-1.51
-3.79
-5.88
-7.86
-9.94
-12.34
-15.26
-18.78
-22.64
-26.34
-29.2
-30.57
-30.12
-27.85
-24.13
-19.48
-14.4
-9.27
-4.31
0.3
4.42
7.83
10.38
12
12.79
13.01
12.91
12.66
12.34
11.93
11.48
11.11
11.05
11.47
12.36
13.52
14.58
15.22
15.24
14.62
13.42
11.69
9.46
6.79
3.88
0.99
-1.63
-3.9
-5.98
-8.21
-10.98
-14.46
-18.55
-22.76
-26.45
-28.95
-29.76
-28.68
-25.78
-21.44
-16.13
-10.39
-4.7
0.56
5.17
9
12.01
14.19
15.55
16.12
15.97
15.29
14.39
13.6
13.19
13.26
13.73
14.39
15.09
15.73
16.36
17
17.58
17.91
17.75
16.9
15.34
13.21
10.73
8.12
5.52
2.94
0.41
-2.12
-4.68
-7.4
-10.42
-13.85
-17.6
-21.36
-24.6
-26.7
-27.23
-26.01
-23.19
-19.19
-14.46
-9.45
-4.45
0.35
4.74
8.49
11.34
13.04
13.52
13.01
11.91
10.76
9.96
9.72
9.98
10.51
11.08
11.55
11.9
12.22
12.58
12.96
13.24
13.24
12.79
11.81
10.31
8.43
6.32
4.11
1.86
-0.43
-2.82
-5.35
-8.08
-11.06
-14.35
-17.92
-21.55
-24.82
-27.16
-28
-26.98
-24.08
-19.68
-14.38
-8.8
-3.42
1.48
5.75
9.3
12.01
13.76
14.5
14.31
13.44
12.25
11.09
10.2
9.64
9.37
9.32
9.44
9.76
10.27
10.89
11.44
11.65
11.27
10.21
8.5
6.39
4.19
2.13
0.34
-1.21
-2.75
-4.58
-7.02
-10.25
-14.21
-18.5
-22.5
-25.48
-26.83
-26.26
-23.81
-19.83
-14.83
-9.37
-3.89
1.18
5.56
9.05
11.57
13.12
13.84
13.88
13.42
12.65
11.77
11.03
10.59
10.52
10.75
11.12
11.45
11.61
11.58
11.35
10.87
10.03
8.69
6.76
4.34
1.68
-0.91
-3.19
-5.14
-6.96
-9
-11.57
-14.74
-18.3
-21.8
-24.6
-26.15
-26.07
-24.26
-20.9
-16.36
-11.13
-5.71
-0.55
4.03
7.82
10.75
12.79
13.95
14.22
13.65
12.38
10.7
9
7.69
7.02
7.07
7.68
8.52
9.23
9.52
9.24
8.36
7.01
5.35
3.56
1.77
0.06
-1.54
-3.02
-4.41
-5.81
-7.36
-9.24
-11.5
-14.02
-16.43
-18.21
-18.85
-18.02
-15.7
-12.19
-7.96
-3.54
0.66
4.34
7.35
9.57
10.92
11.34
10.82
9.55
7.79
5.95
4.32
3.13
2.41
2.08
2.03
2.15
2.39
2.71
3.02
3.2
3.1
2.59
1.62
0.2
-1.55
-3.51
-5.58
-7.73
-10
-12.53
-15.42
-18.61
-21.83
-24.57
-26.28
-26.47
-24.94
-21.86
-17.61
-12.75
-7.81
-3.13
1.09
4.79
7.95
10.52
12.41
13.52
13.85
13.51
12.73
11.81
11.03
10.57
10.53
10.88
11.52
12.24
12.82
13
12.63
11.69
10.28
8.62
6.89
5.14
3.27
1.08
-1.62
-4.91
-8.68
-12.62
-16.24
-19.02
-20.43
-20.18
-18.23
-14.87
-10.6
-6.01
-1.57
2.46
6
9.04
11.53
13.34
14.29
14.28
13.45
12.09
10.61
9.42
8.78
8.74
9.15
9.75
10.21
10.3
9.89
9
7.76
6.27
4.6
2.75
0.68
-1.7
-4.39
-7.41
-10.7
-14.17
-17.6
-20.66
-22.88
-23.78
-23.01
-20.45
-16.35
-11.21
-5.65
-0.25
4.59
8.65
11.84
14.11
15.43
15.82
15.33
14.2
12.71
11.22
9.98
9.17
8.82
8.87
9.25
9.85
10.55
11.18
11.58
11.56
11.01
9.84
8.03
5.69
2.95
0.02
-2.92
-5.76
-8.57
-11.52
-14.78
-18.36
-21.97
-25.07
-27.01
-27.33
-25.81
-22.62
-18.16
-12.95
-7.46
-2.12
2.75
6.86
9.96
11.91
12.73
12.57
11.74
10.57
9.36
8.31
7.56
7.16
7.12
7.42
7.99
8.71
9.38
9.77
9.66
8.98
7.74
6.1
4.25
2.32
0.32
-1.84
-4.3
-7.18
-10.42
-13.8
-16.98
-19.5
-20.96
-21.08
-19.75
-17.07
-13.3
-8.82
-4.07
0.57
4.77
8.3
10.99
12.75
13.53
13.39
12.51
11.16
9.7
8.44
7.6
7.22
7.21
7.43
7.77
8.15
8.56
8.94
9.12
8.92
8.15
6.74
4.8
2.54
0.16
-2.24
-4.71
-7.37
-10.28
-13.3
-16.05
-18.1
-19.01
-18.55
-16.68
-13.55
-9.46
-4.79
0
4.47
8.2
10.9
12.49
13.03
12.77
11.97
10.89
9.77
8.79
8.06
7.6
7.36
7.2
7.01
6.72
6.34
5.9
5.4
4.76
3.87
2.62
0.97
-1.03
-3.37
-6.06
-9.2
-12.83
-16.81
-20.77
-24.11
-26.18
-26.52
-24.97
-21.72
-17.22
-12.05
-6.74
-1.73
2.69
6.36
9.23
11.3
12.6
13.12
12.87
11.93
10.53
9
7.72
7
6.95
7.44
8.21
8.95
9.44
9.59
9.42
8.94
8.16
7.01
5.42
3.35
0.82
-2.02
-5.06
-8.23
-11.54
-15.02
-18.64
-22.16
-25.15
-27.05
-27.34
-25.78
-22.45
-17.79
-12.39
-6.85
-1.67
2.86
6.6
9.5
11.6
12.93
13.53
13.5
12.99
12.17
11.27
10.48
9.96
9.77
9.85
10.08
10.33
10.44
10.34
9.95
9.24
8.18
6.77
5.04
3.03
0.81
-1.56
-4.09
-6.82
-9.85
-13.22
-16.86
-20.52
-23.79
-26.14
-27.1
-26.33
-23.82
-19.85
-14.93
-9.66
-4.61
-0.13
3.56
6.44
8.52
9.87
10.55
10.63
10.26
9.61
8.89
8.3
7.95
7.9
8.1
8.46
8.87
9.2
9.34
9.18
8.7
7.92
6.9
5.72
4.41
3
1.46
-0.3
-2.41
-4.98
-8.07
-11.55
-15.14
-18.37
-20.69
-21.65
-21.03
-18.86
-15.48
-11.33
-6.84
-2.35
1.93
5.83
9.23
11.96
13.89
14.93
15.1
14.52
13.39
12
10.63
9.51
8.83
8.65
8.92
9.48
10.12
10.65
10.92
10.82
10.26
9.19
7.63
5.68
3.55
1.45
-0.54
-2.49
-4.63
-7.23
-10.33
-13.72
-16.86
-19.15
-20.01
-19.21
-16.83
-13.22
-8.88
-4.3
0.09
3.96
7.02
9.12
10.17
10.24
9.51
8.29
6.91
5.67
4.84
4.54
4.78
5.46
6.41
7.4
8.26
8.87
9.23
9.33
9.15
8.55
7.43
5.72
3.53
1.08
-1.36
-3.69
-5.94
-8.25
-10.67
-12.98
-14.75
-15.42
-14.63
-12.37
-8.95
-4.92
-0.79
3.03
6.3
8.88
10.63
11.41
11.15
9.9
7.87
5.46
3.09
1.15
-0.12
-0.68
-0.67
-0.35
0.03
0.3
0.39
0.32
0.1
-0.28
-0.87
-1.77
-2.98
-4.54
-6.46
-8.79
-11.59
-14.85
-18.41
-21.96
-25.02
-27.14
-28.02
-27.53
-25.78
-22.98
-19.36
-15.15
-10.53
-5.73
-1.02
3.27
6.8
9.31
10.71
11.06
10.68
9.95
9.28
8.96
9.08
9.56
10.21
10.8
11.19
11.31
11.12
10.61
9.77
8.63
7.22
5.62
3.85
1.87
-0.44
-3.2
-6.43
-9.92
-13.25
-15.83
-17.1
-16.73
-14.68
-11.25
-6.93
-2.28
2.2
6.18
9.47
12
13.76
14.73
14.93
14.42
13.37
12.05
10.77
9.81
9.3
9.19
9.26
9.21
8.85
8.1
7.07
5.95
4.84
3.76
2.58
1.07
-0.94
-3.54
-6.72
-10.34
-14.18
-17.9
-21.09
-23.29
-24.12
-23.34
-21
-17.41
-13.04
-8.41
-3.94
0.09
3.55
6.37
8.5
9.87
10.45
10.27
9.43
8.15
6.75
5.55
4.8
4.6
4.84
5.29
5.72
5.94
5.9
5.63
5.2
4.62
3.87
2.84
1.39
-0.58
-3.19
-6.46
-10.22
-14.09
-17.5
-19.82
-20.54
-19.46
-16.72
-12.78
-8.22
-3.55
0.88
4.9
8.42
11.3
13.35
14.41
14.4
13.5
12.08
10.62
9.5
8.93
8.9
9.18
9.54
9.77
9.77
9.53
9.01
8.21
7.12
5.72
4.06
2.22
0.29
-1.68
-3.71
-5.91
-8.39
-11.15
-13.99
-16.49
-18.13
-18.49
-17.41
-15.04
-11.79
-8.13
-4.43
-0.92
2.31
5.14
7.47
9.1
9.92
9.93
9.31
8.38
7.46
6.77
6.38
6.25
6.22
6.18
6.03
5.8
5.53
5.28
5.09
4.9
4.61
4.12
3.31
2.11
0.47
-1.65
-4.21
-7.13
-10.2
-13.07
-15.33
-16.55
-16.43
-14.91
-12.15
-8.49
-4.32
-0.01
4.16
7.95
11.14
13.49
14.77
14.84
13.82
12.05
10.06
8.34
7.23
6.73
6.61
6.53
6.24
5.66
4.93
4.25
3.78
3.53
3.36
3.03
2.33
1.12
-0.7
-3.12
-6.1
-9.45
-12.87
-15.9
-18.08
-19.01
-18.5
-16.56
-13.39
-9.33
-4.77
-0.15
4.08
7.53
9.96
11.28
11.6
11.14
10.16
8.9
7.58
6.39
5.45
4.85
4.56
4.45
4.37
4.16
3.76
3.16
2.41
1.54
0.54
-0.64
-2.07
-3.82
-5.96
-8.54
-11.5
-14.7
-17.86
-20.61
-22.54
-23.3
-22.69
-20.72
-17.55
-13.51
-8.98
-4.38
-0.07
3.66
6.59
8.59
9.6
9.69
9.01
7.82
6.45
5.25
4.44
4.13
4.26
4.64
5.02
5.22
5.13
4.75
4.16
3.4
2.51
1.45
0.15
-1.44
-3.35
-5.58
-8.14
-11
-14.08
-17.22
-20.12
-22.38
-23.57
-23.33
-21.54
-18.35
-14.18
-9.56
-4.98
-0.79
2.8
5.73
7.91
9.3
9.85
9.67
8.97
8.1
7.39
7.06
7.19
7.65
8.27
8.86
9.28
9.41
9.21
8.65
7.77
6.64
5.35
3.97
2.52
0.95
-0.82
-2.88
-5.3
-8.12
-11.33
-14.79
-18.26
-21.33
-23.54
-24.47
-23.86
-21.71
-18.27
-13.98
-9.3
-4.68
-0.41
3.29
6.29
8.51
9.95
10.66
10.8
10.59
10.21
9.83
9.56
9.46
9.55
9.86
10.35
10.97
11.64
12.24
12.65
12.76
12.5
11.81
10.68
9.1
7.13
4.91
2.6
0.38
-1.67
-3.62
-5.7
-8.12
-10.99
-14.1
-16.98
-19.04
-19.76
-18.92
-16.61
-13.17
-9.04
-4.63
-0.32
3.63
6.98
9.6
11.44
12.56
13.08
13.11
12.75
12.12
11.37
10.64
10.11
9.81
9.7
9.69
9.69
9.68
9.67
9.66
9.55
9.2
8.47
7.34
5.87
4.23
2.55
0.87
-0.84
-2.7
-4.82
-7.29
-10.11
-13.17
-16.19
-18.75
-20.36
-20.6
-19.26
-16.47
-12.61
-8.24
-3.87
0.1
3.5
6.25
8.36
9.81
10.59
10.7
10.22
9.34
8.33
7.48
7.01
7.03
7.48
8.17
8.87
9.36
9.48
9.17
8.47
7.44
6.15
4.65
3.02
1.39
-0.14
-1.54
-2.94
-4.52
-6.5
-8.96
-11.74
-14.43
-16.5
-17.47
-17.05
-15.2
-12.11
-8.08
-3.48
1.31
5.88
9.82
12.75
14.41
14.79
14.09
12.68
10.99
9.35
7.95
6.93
6.34
6.19
6.41
6.8
7.1
7.02
6.41
5.29
3.85
2.3
0.83
-0.56
-1.98
-3.6
-5.59
-8.05
-11
-14.34
-17.84
-21.18
-23.96
-25.8
-26.38
-25.47
-23.04
-19.25
-14.5
-9.31
-4.33
-0.06
3.19
5.35
6.59
7.17
7.33
7.24
6.99
6.61
6.19
5.83
5.69
5.83
6.26
6.87
7.43
7.73
7.6
7.01
5.98
4.63
3.05
1.34
-0.44
-2.21
-3.94
-5.69
-7.62
-9.93
-12.74
-15.98
-19.3
-22.15
-23.98
-24.35
-23.14
-20.49
-16.79
-12.47
-7.95
-3.55
0.49
3.98
6.77
8.75
9.92
10.33
10.16
9.62
8.89
8.13
7.45
6.94
6.66
6.66
6.97
7.48
8
8.3
8.13
7.41
6.2
4.68
3.09
1.57
0.15
-1.31
-3.01
-5.12
-7.67
-10.58
-13.62
-16.49
-18.88
-20.44
-20.88
-19.97
-17.63
-14.04
-9.59
-4.81
-0.23
3.83
7.23
10.03
12.3
14.01
15.06
15.38
15.02
14.22
13.36
12.77
12.65
12.95
13.5
14.07
14.5
14.69
14.6
14.21
13.49
12.4
10.94
9.16
7.18
5.14
3.13
1.15
-0.9
-3.22
-5.97
-9.21
-12.79
-16.3
-19.21
-20.99
-21.29
-20
-17.36
-13.74
-9.59
-5.34
-1.28
2.33
5.34
7.62
9.14
9.92
10.05
9.68
8.97
8.07
7.17
6.46
6.13
6.29
6.9
7.8
8.67
9.17
9.1
8.44
7.35
6.06
4.75
3.49
2.24
0.9
-0.64
-2.44
-4.54
-6.99
-9.81
-12.92
-16.05
-18.81
-20.68
-21.22
-20.23
-17.77
-14.13
-9.72
-5
-0.38
3.78
7.18
9.62
10.99
11.38
10.98
10.08
8.98
7.96
7.23
6.92
7.08
7.63
8.38
9.13
9.64
9.79
9.52
8.83
7.78
6.45
4.92
3.28
1.58
-0.23
-2.23
-4.52
-7.16
-10.06
-13.01
-15.7
-17.77
-18.93
-18.96
-17.74
-15.35
-11.99
-8.03
-3.91
-0.08
3.19
5.76
7.62
8.83
9.45
9.53
9.09
8.27
7.21
6.15
5.25
4.62
4.23
3.99
3.81
3.61
3.38
3.1
2.75
2.28
1.57
0.58
-0.73
-2.38
-4.36
-6.72
-9.45
-12.49
-15.65
-18.61
-20.98
-22.37
-22.53
-21.36
-18.98
-15.66
-11.74
-7.6
-3.55
0.17
3.4
6.03
7.99
9.21
9.7
9.5
8.75
7.6
6.28
5.05
4.13
3.75
3.99
4.77
5.8
6.72
7.15
6.9
5.97
4.56
2.98
1.42
-0.02
-1.45
-3.1
-5.21
-7.95
-11.27
-14.93
-18.46
-21.38
-23.22
-23.68
-22.62
-20.14
-16.49
-12.08
-7.43
-3.03
0.75
3.73
5.91
7.41
8.36
8.84
8.88
8.54
7.95
7.29
6.75
6.45
6.41
6.64
7.1
7.77
8.58
9.38
9.92
9.89
9.09
7.47
5.26
2.82
0.53
-1.38
-2.94
-4.39
-6.07
-8.26
-10.97
-13.96
-16.73
-18.73
-19.54
-18.92
-16.93
-13.77
-9.77
-5.29
-0.65
3.87
8.01
11.51
14.19
15.92
16.7
16.65
16.02
15.09
14.12
13.28
12.66
12.24
12.02
11.95
11.99
12.09
12.16
12.08
11.74
11.06
10.01
8.56
6.76
4.71
2.57
0.48
-1.47
-3.35
-5.39
-7.81
-10.74
-14.03
-17.26
-19.9
-21.42
-21.53
-20.17
-17.51
-13.85
-9.55
-4.95
-0.43
3.67
7.07
9.62
11.31
12.26
12.64
12.59
12.21
11.56
10.74
9.87
9.12
8.64
8.54
8.83
9.38
9.99
10.38
10.36
9.85
8.88
7.6
6.17
4.69
3.21
1.74
0.27
-1.24
-2.9
-4.89
-7.33
-10.22
-13.32
-16.13
-18.05
-18.59
-17.53
-15.04
-11.5
-7.4
-3.18
0.85
4.44
7.49
9.88
11.58
12.59
12.94
12.72
12.08
11.24
10.44
9.89
9.74
9.96
10.4
10.84
11.05
10.9
10.33
9.36
8.04
6.41
4.53
2.51
0.47
-1.42
-3.11
-4.67
-6.31
-8.31
-10.86
-13.97
-17.33
-20.43
-22.63
-23.4
-22.48
-19.97
-16.24
-11.78
-7.1
-2.61
1.39
4.68
7.08
8.46
8.83
8.36
7.39
6.31
5.48
5.08
5.09
5.37
5.75
6.13
6.49
6.87
7.29
7.69
7.94
7.91
7.52
6.78
5.75
4.5
3.03
1.37
-0.47
-2.43
-4.45
-6.55
-8.87
-11.59
-14.8
-18.37
-21.91
-24.85
-26.64
-26.92
-25.56
-22.69
-18.6
-13.69
-8.39
-3.14
1.63
5.59
8.56
10.56
11.71
12.23
12.34
12.23
12.02
11.78
11.56
11.38
11.28
11.31
11.5
11.83
12.22
12.51
12.48
11.98
10.94
9.41
7.54
5.52
3.49
1.58
-0.13
-1.59
-2.82
-3.98
-5.33
-7.18
-9.69
-12.79
-16.11
-19.05
-21.05
-21.69
-20.9
-18.81
-15.67
-11.8
-7.5
-3.08
1.11
4.76
7.62
9.62
10.82
11.36
11.4
11.06
10.46
9.76
9.14
8.79
8.78
9.06
9.5
9.95
10.31
10.56
10.69
10.67
10.4
9.76
8.68
7.18
5.41
3.55
1.77
0.16
-1.35
-2.91
-4.69
-6.82
-9.24
-11.75
-14.02
-15.69
-16.46
-16.2
-14.87
-12.57
-9.44
-5.66
-1.48
2.73
6.51
9.44
11.22
11.84
11.54
10.68
9.64
8.65
7.77
7.02
6.41
6
5.83
5.89
6.07
6.21
6.15
5.8
5.11
4.12
2.85
1.32
-0.37
-2.14
-3.85
-5.4
-6.8
-8.15
-9.63
-11.44
-13.66
-16.21
-18.78
-20.94
-22.25
-22.38
-21.17
-18.74
-15.32
-11.3
-7.06
-2.98
0.65
3.63
5.82
7.23
7.9
7.98
7.64
7.05
6.35
5.69
5.14
4.81
4.76
5
5.49
6.11
6.73
7.17
7.31
7.07
6.44
5.43
4.08
2.45
0.67
-1.16
-2.93
-4.62
-6.36
-8.36
-10.8
-13.74
-17
-20.18
-22.82
-24.47
-24.85
-23.84
-21.55
-18.21
-14.19
-9.87
-5.63
-1.78
1.52
4.2
6.27
7.82
8.89
9.54
9.81
9.8
9.64
9.54
9.63
10
10.66
11.54
12.51
13.42
14.15
14.6
14.68
14.36
13.61
12.45
10.96
9.22
7.34
5.4
3.46
1.58
-0.2
-1.84
-3.38
-4.95
-6.77
-9.05
-11.85
-14.98
-18
-20.29
-21.39
-21.04
-19.34
-16.6
-13.24
-9.59
-5.83
-2.09
1.49
4.71
7.32
9.15
10.18
10.54
10.49
10.25
9.97
9.71
9.47
9.28
9.17
9.21
9.39
9.65
9.89
9.95
9.74
9.23
8.43
7.39
6.2
4.97
3.81
2.78
1.88
0.98
-0.12
-1.63
-3.67
-6.21
-9.01
-11.75
-14.06
-15.63
-16.27
-15.9
-14.57
-12.38
-9.5
-6.17
-2.64
0.82
3.97
6.61
8.61
9.89
10.41
10.17
9.26
7.86
6.25
4.78
3.73
3.26
3.35
3.83
4.48
5.11
5.59
5.88
5.97
5.87
5.59
5.14
4.56
3.89
3.13
2.23
1.06
-0.55
-2.75
-5.54
-8.74
-12
-14.9
-17.1
-18.42
-18.76
-18.12
-16.49
-13.9
-10.46
-6.44
-2.28
1.52
4.54
6.56
7.57
7.75
7.34
6.56
5.59
4.56
3.59
2.84
2.46
2.52
3.03
3.82
4.62
5.17
5.24
4.78
3.92
2.81
1.6
0.37
-0.91
-2.28
-3.78
-5.48
-7.45
-9.81
-12.61
-15.79
-19.04
-21.88
-23.76
-24.22
-23.09
-20.49
-16.8
-12.51
-8.11
-3.99
-0.38
2.56
4.8
6.35
7.26
7.57
7.36
6.72
5.79
4.75
3.83
3.21
3.01
3.26
3.88
4.73
5.68
6.61
7.44
8.09
8.42
8.28
7.54
6.21
4.42
2.41
0.44
-1.37
-3.09
-4.97
-7.3
-10.28
-13.85
-17.68
-21.23
-23.92
-25.3
-25.12
-23.39
-20.32
-16.24
-11.59
-6.79
-2.25
1.71
4.92
7.31
8.95
9.96
10.46
10.52
10.2
9.56
8.77
8.04
7.62
7.66
8.19
9.08
10.07
10.92
11.48
11.66
11.46
10.88
9.89
8.49
6.69
4.59
2.35
0.06
-2.25
-4.64
-7.19
-9.89
-12.6
-15.09
-17.06
-18.19
-18.24
-17.07
-14.71
-11.4
-7.53
-3.54
0.19
3.45
6.17
8.36
9.98
10.93
11.13
10.61
9.6
8.46
7.5
6.92
6.69
6.71
6.88
7.17
7.61
8.16
8.66
8.8
8.29
6.99
5.04
2.8
0.67
-1.06
-2.4
-3.58
-4.99
-6.91
-9.44
-12.45
-15.63
-18.61
-21
-22.53
-22.93
-22.07
-19.94
-16.66
-12.53
-7.95
-3.35
0.88
4.45
7.18
9.01
9.93
10.06
9.59
8.76
7.81
6.95
6.29
5.85
5.57
5.4
5.34
5.41
5.67
6.09
6.55
6.86
6.85
6.41
5.57
4.44
3.11
1.65
0.04
-1.81
-4.04
-6.74
-9.9
-13.33
-16.69
-19.56
-21.5
-22.2
-21.55
-19.6
-16.57
-12.73
-8.42
-3.98
0.26
4.02
7.09
9.35
10.83
11.63
11.88
11.74
11.3
10.65
9.83
8.89
7.92
7.09
6.54
6.4
6.66
7.18
7.69
7.95
7.76
7.06
5.93
4.51
2.97
1.47
0.05
-1.31
-2.76
-4.51
-6.75
-9.52
-12.68
-15.85
-18.47
-20
-20.06
-18.49
-15.45
-11.33
-6.62
-1.84
2.6
6.4
9.36
11.44
12.64
13.03
12.76
12
10.96
9.85
8.85
8.12
7.74
7.77
8.18
8.88
9.7
10.47
10.97
11.07
10.65
9.72
8.35
6.67
4.79
2.83
0.82
-1.26
-3.45
-5.88
-8.64
-11.74
-15.05
-18.25
-20.85
-22.36
-22.41
-20.9
-18.04
-14.21
-9.84
-5.33
-0.96
3.02
6.37
8.82
10.21
10.53
10
8.95
7.78
6.76
6.04
5.65
5.57
5.76
6.21
6.89
7.72
8.52
9.1
9.23
8.73
7.53
5.73
3.54
1.25
-0.85
-2.64
-4.2
-5.81
-7.84
-10.52
-13.84
-17.47
-20.83
-23.28
-24.33
-23.74
-21.57
-18.13
-13.84
-9.16
-4.49
-0.2
3.47
6.34
8.4
9.72
10.43
10.69
10.62
10.35
10
9.69
9.52
9.56
9.81
10.22
10.74
11.33
11.9
12.36
12.53
12.18
11.12
9.3
6.87
4.13
1.39
-1.1
-3.28
-5.23
-7.13
-9.19
-11.6
-14.41
-17.51
-20.6
-23.22
-24.82
-24.96
-23.39
-20.18
-15.63
-10.24
-4.54
1
6.02
10.3
13.72
16.27
18
19
19.41
19.39
19.15
18.86
18.71
18.74
18.93
19.21
19.46
19.62
19.65
19.5
19.12
18.43
17.35
15.83
13.88
11.53
8.91
6.13
3.37
0.76
-1.64
-3.92
-6.26
-8.92
-12.04
-15.55
-19.11
-22.18
-24.19
-24.71
-23.59
-20.93
-17.07
-12.44
-7.5
-2.65
1.77
5.5
8.39
10.4
11.59
12.09
12.08
11.76
11.37
11.09
11.07
11.36
11.88
12.49
13.01
13.3
13.34
13.15
12.81
12.33
11.66
10.7
9.39
7.74
5.86
3.93
2.12
0.46
-1.19
-3.03
-5.33
-8.15
-11.38
-14.67
-17.5
-19.4
-19.97
-19.06
-16.76
-13.34
-9.19
-4.74
-0.35
3.72
7.29
10.27
12.59
14.16
14.98
15.06
14.55
13.65
12.6
11.59
10.75
10.13
9.74
9.54
9.48
9.43
9.29
8.91
8.18
7.06
5.55
3.72
1.71
-0.31
-2.21
-4.01
-5.84
-7.97
-10.61
-13.8
-17.31
-20.68
-23.36
-24.86
-24.88
-23.4
-20.57
-16.7
-12.17
-7.37
-2.69
1.56
5.13
7.86
9.71
10.7
10.93
10.54
9.71
8.65
7.57
6.65
6.06
5.87
6.15
6.82
7.73
8.64
9.27
9.37
8.82
7.62
5.94
4
2.04
0.26
-1.29
-2.66
-4.03
-5.7
-7.88
-10.67
-13.91
-17.19
-19.97
-21.75
-22.19
-21.24
-19.07
-15.94
-12.14
-7.92
-3.5
0.88
4.93
8.37
10.98
12.64
13.42
13.49
13.11
12.49
11.81
11.14
10.56
10.11
9.87
9.89
10.21
10.79
11.47
12.04
12.31
12.11
11.39
10.14
8.45
6.46
4.33
2.18
0.13
-1.84
-3.82
-5.99
-8.46
-11.27
-14.25
-17.06
-19.26
-20.39
-20.15
-18.45
-15.42
-11.43
-6.94
-2.46
1.61
5.03
7.73
9.71
11.05
11.79
11.95
11.58
10.79
9.8
8.84
8.16
7.92
8.14
8.73
9.51
10.26
10.81
11.01
10.79
10.14
9.14
7.9
6.55
5.19
3.88
2.56
1.08
-0.77
-3.17
-6.19
-9.69
-13.32
-16.57
-18.89
-19.88
-19.31
-17.23
-13.9
-9.74
-5.18
-0.62
3.58
7.19
10.05
12.11
13.39
13.99
14.02
13.55
12.67
11.46
10.1
8.92
8.3
8.59
9.9
11.98
14.28
16.13
17.01
16.87
16.16
15.67
16.13
17.81
20.32
22.73
24.02
23.54
21.42
18.57
16.35
15.91
17.77
21.49
26.01
30.11
33.02
34.86
36.53
39.4
44.82
53.52
65.32
78.81
91.47
100.14
101.9
95.03
79.71
58.18
33.96
10.55
-9.8
-27.05
-43.36
-62.28
-87.13
-119.08
-155.71
-190.77
-215.74
-222.72
-207.64
-172.28
-123.9
-72.6
-27.63
5.64
26.63
38.31
44.79
49.23
52.99
56.24
59.09
62.33
67.27
74.82
84.58
94.5
101.41
102.29
95.57
81.78
63.41
43.98
26.93
14.91
9.77
12.81
25.22
47.83
80.47
121.07
165.09
205.93
236.37
250.7
246.4
225.07
191.73
152.99
114.85
80.98
52.1
26.43
0.95
-27.04
-58.59
-92.43
-125.17
-152.28
-169.56
-174.51
-167.17
-149.98
-126.87
-102.04
-79
-60.15
-46.69
-38.88
-36.11
-37.07
-39.91
-42.66
-43.75
-42.36
-38.61
-33.34
-27.72
-22.91
-19.68
-18.24
-18.25
-18.98
-19.65
-19.7
-19.01
-17.88
-16.85
-16.36
-16.59
-17.4
-18.42
-19.32
-19.9
-20.22
-20.49
-20.95
-21.84
-23.34
-25.64
-28.89
-33.1
-37.97
-42.89
-47.02
-49.63
-50.36
-49.44
-47.58
-45.67
-44.34
-43.71
-43.38
-42.72
-41.36
-39.44
-37.81
-37.64
-39.95
-44.94
-51.72
-58.44
-63
-63.98
-61.35
-56.63
-52.35
-50.96
-54.04
-61.95
-73.69
-87.16
-99.36
-106.81
-106.13
-95.25
-74.47
-46.92
-17.72
8.1
27.89
42.59
56.14
73.21
96.53
125.2
154.8
178.99
191.92
190.11
173.3
144.15
107.09
66.96
27.77
-7.7
-37.82
-61.79
-79.42
-91.25
-98.89
-105.08
-112.97
-124.44
-138.47
-150.44
-153
-138.53
-102
-43.28
32.05
113.61
188.5
244.18
271.24
265.46
228.84
169.23
98.55
29.87
-25.88
-62.49
-79.47
-81.21
-74.66
-66.55
-61.3
-60.21
-61.97
-64.04
-64.09
-60.76
-53.75
-43.37
-30.19
-15.03
0.82
15.52
27.03
33.64
34.72
31.15
25.05
19.07
15.37
14.91
17.23
20.88
24.22
26.04
26.02
24.53
22.3
19.96
17.75
15.49
12.79
9.27
4.82
-0.22
-5.2
-9.29
-11.71
-12.04
-10.3
-6.95
-2.87
0.78
2.89
2.46
-0.92
-7.02
-14.86
-23
-30.01
-34.91
-37.56
-38.57
-38.93
-39.43
-40.27
-41
-40.9
-39.38
-36.42
-32.63
-29.12
-27.52
-29.89
-38.67
-55.94
-82.32
-115.64
-150.36
-178.44
-191.49
-183.62
-153.35
-103.92
-41.88
25.32
91.29
151.66
203.72
245.43
274.67
289.03
286.33
265.32
226.47
172.37
107.75
39.08
-26.45
-82.23
-123.76
-149.68
-161.95
-165.02
-164.4
-165.23
-171.4
-185.3
-207.77
-237.93
-272.8
-307.08
-333.6
-345.01
-336.03
-305.37
-256.25
-195.17
-129.38
-64.36
-2.74
54.87
107.75
153.43
187.51
205.47
205.31
189.32
163.85
136.89
114.76
99.81
90.24
82.12
72.34
60.55
49.34
42.5
42.74
50.2
62.45
75.85
87.19
94.74
98.39
98.94
97.1
92.99
86.21
76.41
63.89
49.79
35.87
23.87
14.93
9.3
6.41
5.3
5.05
5.12
5.35
5.8
6.49
7.26
7.71
7.43
6.13
3.85
0.8
-2.71
-6.54
-10.75
-15.43
-20.53
-25.68
-30.16
-33.25
-34.54
-34.39
-34.02
-35.43
-40.8
-51.63
-67.83
-87.2
-105.3
-116.28
-114.28
-95.1
-57.75
-5.03
56.82
119.52
174.67
215.59
238.48
242.71
230.25
204.64
170.07
130.76
90.68
53.26
21.01
-4.87
-24.67
-39.79
-51.83
-61.7
-69.1
-72.75
-71.21
-63.83
-51.2
-34.99
-17.43
-0.64
13.63
24.01
29.46
29.38
23.86
13.94
1.51
-11.04
-21.44
-28.1
-30.45
-28.9
-24.62
-19.1
-13.77
-9.74
-7.63
-7.63
-9.65
-13.43
-18.76
-25.49
-33.44
-42.29
-51.62
-60.92
-69.76
-77.98
-85.67
-93.08
-100.43
-107.79
-114.97
-121.7
-127.61
-132.21
-134.63
-133.4
-126.29
-110.71
-84.45
-46.8
0.47
52.84
103.83
146.67
176.2
190.22
189.54
176.98
155.93
129.33
99.46
68.41
38.45
12.04
-8.87
-23.56
-32.8
-38.27
-41.59
-43.46
-43.6
-41.25
-35.95
-28.02
-18.48
-8.6
0.64
8.81
15.91
22.14
27.54
31.9
34.86
36.13
35.79
34.44
33.13
32.98
34.78
38.55
43.52
48.4
51.86
53.06
51.85
48.63
44.06
38.66
32.73
26.42
19.92
13.6
7.92
3.3
-0.12
-2.56
-4.46
-6.35
-8.55
-11.07
-13.61
-15.76
-17.29
-18.27
-19.14
-20.46
-22.57
-25.28
-27.84
-29.24
-28.51
-25.25
-19.72
-12.77
-5.55
0.95
6
9.28
10.71
10.35
8.29
4.69
-0.11
-5.62
-11.22
-16.23
-20.12
-22.68
-23.96
-24.22
-23.81
-23.03
-22.1
-21.18
-20.47
-20.23
-20.82
-22.57
-25.69
-30.08
-35.17
-40.05
-43.62
-44.88
-43.26
-38.8
-32.11
-24.14
-15.98
-8.48
-2.33
2.11
4.69
5.36
4.31
2
-0.94
-3.82
-6.1
-7.47
-7.93
-7.6
-6.85
-5.99
-5.31
-4.88
-4.7
-4.74
-4.99
-5.52
-6.44
-8.11
-10.72
-14.05
-17.32
-19.34
-18.86
-15
-7.6
2.75
13.97
23.88
30.93
34.8
36.3
36.77
37.41
38.92
41.39
42.85
41.46
36.29
28.01
18.46
9.68
3.18
-0.13
0.22
1.83
2.13
-1.12
-9.33
-23.36
-44.14
-72.45
-108.14
-149.62
-197.35
-250.97
-309.11
-368.83
-426.17
-477.61
-520.83
-554.8
-557.5
-513.83
-420.18
-289.13
-143.44
-4.47
115.09
211.08
284.66
338.8
373.78
390.57
391.11
379.67
361.83
342.52
324.24
307.96
291.71
271.14
243.49
207.51
164.64
117.99
70.66
24.18
-18.23
-55.65
-89.62
-121.54
-153.21
-183.81
-209.71
-224.87
-223.78
-203.72
-166.85
-122.89
-78.16
-39.79
-11.74
5.61
15.37
21.29
26.58
33.49
44.09
61.08
85.21
116.77
150.04
179.97
201.66
212.07
211.07
202.05
195.74
195.13
200.75
210.74
222.22
230.34
229.46
215.6
188.67
153.75
119.38
96.87
91.27
105.42
134.3
164.91
181.84
173.57
137.59
80.61
16.77
-38.59
-73.82
-84.8
-75.15
-51.71
-21.17
12.62
48.95
89.56
135.46
182.49
227.57
261.66
277.26
271.72
248.46
215.45
181.76
153.52
132.16
114.74
95.86
72.21
43.92
13.98
-14.1
-38.54
-60.5
-83.18
-109.97
-143.49
-183.98
-230.03
-280.16
-333.58
-389.77
-447.15
-501.78
-547.22
-576.87
-586.08
-574.5
-546.45
-509.23
-470.29
-434.85
-405.07
-380.63
-360.49
-343.59
-329.15
-316.31
-303.71
-289.64
-272.79
-252.89
-230.99
-209.17
-189.71
-174.22
-163.1
-155.48
-149.66
-143.83
-136.65
-127.72
-117.52
-107.04
-97.21
-88.47
-80.66
-73.16
-65.39
-57.28
-49.64
-44.06
-42.5
-46.55
-56.77
-72.31
-90.91
-109.66
-125.7
-137.28
-144.13
-147.33
-148.59
-149.11
-148.84
-146.2
-138.62
-123.62
-100.05
-68.83
-32.6
5.08
41.18
74.32
104.94
134.91
166.92
203.68
247.06
296.92
349.94
398.89
433.23
441.92
417.78
361.48
283.02
199.02
127
78.85
57.12
55.42
62.78
69.22
69.56
64.08
56.24
49.5
45.15
42.24
38.96
34.44
30.08
28.82
33.92
47.5
69.59
97.84
129.09
160.58
190.92
219.78
246.74
270.32
288.1
297.9
299.33
294.49
286.72
277.98
266.43
246.71
212.41
160.49
94.68
25.76
-32.24
-67.8
-76.73
-63.18
-36.21
-5.16
24.36
51.54
78.9
109.23
143.32
179.52
214.69
246.39
273.04
293.83
308.08
315.28
314.98
306.57
289.03
260.87
223.33
178.06
126.92
72.01
16.33
-35.3
-76.4
-100.47
-103.21
-78.45
-25.63
48.3
129.34
200.84
249.91
272.15
272
259.7
256.22
278.6
334.06
417.61
515.92
614.71
704.63
782.35
848.32
916.88
1001.2
1108.6
1237.7
1379.7
1523.2
1657.9
1774.6
1787.8
1638.1
1309.8
848.25
339.1
-134.87
-524.58
-817.45
-1024.9
-1167.5
-1253.3
-1286.5
-1272.9
-1224
-1156.8
-1087.8
-1027.8
-981.23
-948.1
-916.83
-876.99
-823.6
-759.57
-693.49
-634.1
-586.15
-550.09
-523.78
-498.81
-468.35
-429.68
-385.31
-340.87
-301.13
-267.35
-238.05
-210.67
-181.45
-149.55
-117.62
-90.66
-73.47
-68
-72.2
-80.94
-88.06
-87.5
-75.77
-53.16
-23.76
6.12
30.06
44
47.32
42.87
35.26
28.7
25.36
25.05
26.29
27.72
29.34
32.34
38.43
48.41
61.38
74.64
84.86
89.42
87.22
80.4
71.07
61.28
52.21
43.7
33.99
20.65
1.71
-23.37
-52.97
-83.7
-110.3
-126.37
-125.83
-104.77
-62.99
-4.67
62.27
128.22
183.6
222.36
243.28
249.37
245.74
237.49
228.56
221.6
218.57
218.71
220.87
223.66
225.17
222.35
211.79
191.22
160.71
122.93
77.99
27.09
-26.88
-79.84
-128.46
-171.27
-208.24
-239.8
-266.26
-294.11
-328.01
-368.11
-410.25
-449.65
-483.71
-512.18
-535.85
-555.39
-579.06
-612.56
-655.6
-702.57
-747.61
-788.54
-826.85
-865.7
-854.75
-767.1
-611.19
-425.66
-250.38
-106.83
1
77.89
130.8
165.85
180
170.58
141.24
102.97
69.52
51.85
55.1
77.84
110.25
139.89
155.77
154.23
140.02
121.66
106.14
96.62
92.75
92.56
91.67
87.17
80.01
74.08
72.94
77.87
88.51
104.92
122.52
139.36
155.1
171.18
189.69
211.5
235.56
259.44
280.69
297.86
311.3
322.07
332.2
344.19
359.98
379.86
401.7
420.98
431.82
429.65
411.91
379.45
336.22
287.59
238.3
191.04
146.58
104.81
66.66
33.98
9.06
-6.44
-12.43
-10.56
-3.5
6.05
15.94
24.95
32.43
37.92
41.28
42.86
43.56
44.75
47.62
52.54
58.81
64.93
69.4
71.46
71.43
70.29
68.8
66.98
64
58.66
50.13
38.39
24.16
8.52
-7.64
-23.69
-39.29
-54.15
-67.81
-79.73
-89.49
-96.94
-102.39
-106.62
-110.7
-115.7
-122.32
-130.49
-139.32
-147.34
-152.94
-155.03
-153.24
-148.03
-140.37
-131.42
-122.13
-113.02
-104.17
-95.3
-85.93
-75.53
-63.74
-50.47
-35.95
-20.66
-5.27
9.58
23.28
35.38
45.63
53.97
60.52
65.52
69.4
72.66
75.99
79.89
84.51
89.2
92.61
93.1
89.47
81.77
71.47
61.1
53.29
49.78
50.85
55.45
61.9
68.6
74.49
79.06
82.09
83.36
82.66
79.88
75.26
69.4
63.21
57.64
53.43
50.9
49.88
49.75
49.61
48.52
45.85
41.47
35.84
29.76
23.97
18.85
14.25
9.78
5.07
0.17
-4.63
-8.98
-12.86
-16.71
-21.16
-26.63
-33.01
-39.71
-46.01
-51.63
-56.73
-61.72
-66.75
-71.36
-74.68
-75.81
-74.58
-71.66
-68.34
-65.92
-65.13
-66.11
-68.52
-72.14
-77.02
-83.53
-92.05
-102.63
-114.89
-128.05
-141.24
-153.66
-164.79
-174.27
-181.91
-187.52
-191.06
-192.69
-192.78
-191.83
-190.08
-187.48
-183.57
-177.84
-170.02
-160.3
-149.25
-137.42
-124.97
-111.57
-96.68
-80.04
-62.12
-44.18
-28
-15.31
-7.24
-4.12
-5.38
-9.91
-16.4
-23.75
-31.27
-38.79
-46.53
-54.8
-63.87
-73.84
-84.61
-95.86
-106.8
-116.15
-122.4
-124.4
-122.06
-116.8
-111.24
-108.28
-109.98
-116.8
-127.63
-140.32
-152.5
-161.91
-166.57
-164.62
-154.6
-135.97
-109.6
-77.91
-44.06
-10.83
20.52
50.44
80.53
112.28
145.96
180.33
213.09
241.98
265.87
285.24
301.93
318.33
336.35
356.45
377.26
395.67
407.67
409.73
400.26
380.64
355.28
330.27
311
299.71
294.15
288.23
274.46
247.14
204.48
148.95
85.5
18.99
-47.8
-114.84
-184.04
-257.83
-337.61
-422.4
-508.28
-588.59
-655.16
-700.36
-719.5
-712.45
-683.41
-639.17
-586.28
-529.12
-469.36
-407.22
-343.12
-278.67
-216.21
-157.58
-102.82
-50.11
3.19
59.08
117.98
178.72
239.14
297.03
350.59
398.24
438.28
468.63
487.13
492.26
483.87
463.55
434.15
398.98
360.95
322.19
284.23
248.19
214.75
183.8
154.03
123.02
87.94
46.82
-0.41
-51.38
-101.9
-147.31
-184.02
-210.69
-228.66
-241.65
-254.66
-272.47
-297.93
-330.77
-367.36
-401.76
-427.61
-440.02
-436.77
-418.46
-387.56
-347.25
-300.61
-250.21
-198.17
-146.29
-95.68
-46.44
2.49
52.74
105.31
159.35
211.67
257.32
291.15
309.75
312.77
302.97
285.11
264.07
243.47
225.06
209.11
195.29
183.44
173.8
166.76
162.36
160.08
158.91
157.71
155.56
151.97
146.89
140.43
132.7
123.7
113.4
101.94
89.77
77.67
66.59
57.33
50.35
45.51
42.14
39.29
36.08
32.04
27.26
22.29
17.66
13.56
9.67
5.36
0.14
-5.88
-11.86
-16.41
-18.21
-16.57
-11.65
-4.42
3.86
12
19.2
25.09
29.62
32.83
34.85
35.8
35.85
35.23
34.23
33.09
31.99
31.07
30.47
30.36
30.81
31.78
33.06
34.38
35.53
36.38
36.88
36.92
36.29
34.7
31.89
27.86
22.76
16.79
9.98
2.32
-6.12
-14.78
-22.53
-27.88
-29.57
-27.17
-21.49
-14.26
-7.55
-3.08
-1.64
-3.15
-6.83
-11.71
-16.94
-21.91
-26.22
-29.59
-31.79
-32.59
-31.87
-29.71
-26.41
-22.61
-19.21
-17.18
-17.28
-19.84
-24.56
-30.63
-36.89
-42.09
-45.18
-45.44
-42.63
-36.93
-28.97
-19.66
-10.16
-1.62
5.01
9.16
10.77
10.24
8.3
5.78
3.37
1.52
0.32
-0.26
-0.29
0.27
1.51
3.51
6.13
9.01
11.59
13.27
13.57
12.18
9.07
4.46
-1.13
-6.87
-11.64
-14.17
-13.34
-8.52
0.14
11.63
24.31
36.44
46.66
54.26
59.2
61.84
62.59
61.68
59.22
55.29
50.16
44.24
37.98
31.71
25.56
19.48
13.42
7.37
1.4
-4.43
-10.19
-16.09
-22.43
-29.42
-37.01
-44.75
-51.75
-56.82
-58.77
-56.8
-50.79
-41.47
-30.23
-18.72
-8.3
0.17
6.49
10.78
13.27
14.1
13.31
11.1
7.93
4.56
1.81
0.21
-0.14
0.43
1.41
2.38
3.21
3.95
4.65
5.14
5.03
3.77
0.94
-3.52
-9.25
-15.41
-20.88
-24.48
-25.29
-22.93
-17.73
-10.64
-2.87
4.45
10.58
15.2
18.17
19.38
18.69
16.01
11.52
5.78
-0.41
-6.22
-11.09
-14.73
-17.03
-17.98
-17.6
-16.05
-13.68
-11.02
-8.65
-7.03
-6.4
-6.86
-8.39
-10.83
-13.84
-16.71
-18.4
-17.83
-14.22
-7.53
1.5
11.54
21.09
28.89
34.21
36.83
36.88
34.76
30.99
26.16
20.87
15.7
11.08
7.24
4.25
2.09
0.67
-0.08
-0.2
0.22
1
1.79
2.11
1.41
-0.75
-4.51
-9.55
-15.07
-19.82
-22.51
-22.03
-17.9
-10.41
-0.52
10.31
20.61
29.18
35.39
39.07
40.44
39.77
37.35
33.5
28.63
23.37
18.41
14.43
11.76
10.41
10.06
10.26
10.65
11.02
11.27
11.31
10.97
9.96
7.94
4.65
0.12
-5.19
-10.42
-14.32
-15.73
-13.95
-9.1
-2.11
5.59
12.51
17.64
20.57
21.37
20.33
17.69
13.6
8.3
2.3
-3.66
-8.81
-12.55
-14.72
-15.6
-15.76
-15.72
-15.84
-16.2
-16.68
-17.18
-17.72
-18.54
-20.08
-22.75
-26.73
-31.72
-36.85
-40.89
-42.56
-40.99
-36.05
-28.37
-19.18
-9.8
-1.39
5.34
10.01
12.54
12.94
11.39
8.24
4.11
-0.21
-3.95
-6.6
-8.08
-8.61
-8.65
-8.56
-8.55
-8.55
-8.46
-8.21
-7.98
-8.12
-9.12
-11.36
-14.95
-19.52
-24.27
-28.04
-29.68
-28.28
-23.53
-15.8
-6.02
4.55
14.62
23.1
29.15
32.3
32.4
29.7
24.8
18.64
12.24
6.53
2.03
-1.12
-3.15
-4.4
-5.21
-5.81
-6.3
-6.75
-7.25
-7.93
-8.97
-10.63
-13.19
-16.83
-21.55
-26.99
-32.35
-36.53
-38.34
-36.9
-32.02
-24.24
-14.65
-4.58
4.83
12.78
18.84
22.79
24.53
24.03
21.43
17.16
11.92
6.56
1.86
-1.72
-4.09
-5.45
-6.15
-6.56
-6.9
-7.23
-7.5
-7.63
-7.6
-7.6
-8.01
-9.33
-11.88
-15.63
-20.11
-24.39
-27.36
-27.96
-25.47
-19.74
-11.23
-0.93
9.9
20.02
28.46
34.69
38.53
40.06
39.42
36.78
32.45
27.01
21.31
16.28
12.64
10.64
10
10.09
10.32
10.28
9.9
9.26
8.49
7.54
6.28
4.5
2.06
-1.11
-4.99
-9.49
-14.49
-19.64
-24.33
-27.69
-28.74
-26.76
-21.61
-13.84
-4.56
4.91
13.45
20.38
25.4
28.45
29.51
28.58
25.8
21.59
16.71
12.06
8.44
6.27
5.55
5.9
6.84
7.91
8.82
9.39
9.5
9.04
7.95
6.2
3.92
1.26
-1.65
-4.78
-8.22
-12.05
-16.26
-20.54
-24.28
-26.62
-26.72
-24.04
-18.58
-10.92
-2.09
6.76
14.68
21.12
25.88
28.92
30.2
29.61
27.1
22.88
17.57
12.1
7.39
4.08
2.37
1.98
2.36
2.95
3.29
3.17
2.57
1.61
0.44
-0.82
-2.11
-3.57
-5.38
-7.79
-10.96
-14.83
-19.09
-23.18
-26.38
-27.92
-27.22
-23.97
-18.31
-10.81
-2.3
6.24
13.93
20.11
24.38
26.6
26.78
24.98
21.36
16.23
10.16
3.93
-1.57
-5.58
-7.76
-8.26
-7.72
-6.89
-6.43
-6.63
-7.43
-8.58
-9.86
-11.22
-12.82
-14.88
-17.67
-21.3
-25.77
-30.86
-36.09
-40.7
-43.75
-44.38
-42.07
-36.83
-29.27
-20.36
-11.26
-2.94
3.8
8.46
10.71
10.43
7.72
3.02
-2.83
-8.82
-13.97
-17.61
-19.57
-20.12
-19.78
-19.14
-18.6
-18.36
-18.43
-18.7
-19.06
-19.41
-19.79
-20.34
-21.39
-23.38
-26.64
-31.26
-36.84
-42.46
-46.84
-48.7
-47.19
-42.16
-34.23
-24.53
-14.43
-5.09
2.68
8.42
12.02
13.45
12.85
10.42
6.57
1.84
-3.09
-7.6
-11.23
-13.71
-15.03
-15.33
-14.86
-13.89
-12.68
-11.47
-10.43
-9.7
-9.36
-9.42
-9.82
-10.53
-11.54
-12.96
-14.97
-17.75
-21.3
-25.28
-28.95
-31.19
-30.85
-27.05
-19.59
-9.08
3.21
15.79
27.27
36.73
43.69
47.97
49.55
48.51
45.12
39.99
34.12
28.64
24.55
22.41
22.15
23.23
24.88
26.35
27.21
27.32
26.77
25.74
24.34
22.55
20.34
17.68
14.62
11.23
7.58
3.6
-0.8
-5.61
-10.58
-15.01
-17.92
-18.27
-15.43
-9.41
-1.03
8.41
17.48
25.13
30.85
34.67
36.9
37.84
37.64
36.33
33.91
30.58
26.71
22.81
19.39
16.82
15.3
14.83
15.22
16.15
17.2
17.93
17.95
17.04
15.19
12.61
9.65
6.68
3.99
1.67
-0.35
-2.37
-4.76
-7.87
-11.79
-16.21
-20.34
-23
-23.08
-19.92
-13.69
-5.37
3.57
11.7
18.06
22.3
24.58
25.26
24.63
22.92
20.29
17
13.43
10.05
7.24
5.25
4.16
3.94
4.46
5.5
6.72
7.7
8.1
7.66
6.41
4.54
2.34
0.07
-2.15
-4.33
-6.61
-9.14
-12.11
-15.6
-19.54
-23.56
-26.96
-28.83
-28.27
-24.82
-18.68
-10.73
-2.24
5.53
11.71
15.96
18.36
19.15
18.6
16.94
14.42
11.4
8.36
5.78
4.04
3.24
3.3
3.91
4.74
5.45
5.82
5.79
5.4
4.76
3.91
2.83
1.39
-0.48
-2.77
-5.32
-7.93
-10.55
-13.28
-16.2
-19.25
-21.94
-23.44
-22.89
-19.75
-14.1
-6.67
1.46
9.22
15.78
20.69
23.72
24.81
23.95
21.28
17.18
12.31
7.49
3.51
0.89
-0.3
-0.32
0.3
0.96
1.29
1.17
0.74
0.26
-0.06
-0.21
-0.41
-1.01
-2.42
-4.86
-8.34
-12.59
-17.15
-21.39
-24.67
-26.34
-25.9
-23.13
-18.17
-11.57
-4.15
3.25
9.91
15.37
19.37
21.73
22.31
21.05
18.09
13.93
9.32
5.1
1.9
0.01
-0.7
-0.64
-0.26
0.04
0.1
-0.08
-0.35
-0.57
-0.64
-0.62
-0.68
-1.12
-2.2
-4.06
-6.73
-10.02
-13.58
-16.93
-19.42
-20.44
-19.45
-16.24
-11.03
-4.4
2.75
9.55
15.22
19.26
21.44
21.76
20.38
17.65
14.02
10.1
6.48
3.63
1.81
0.96
0.84
1.07
1.32
1.39
1.27
1.1
0.95
0.86
0.66
0.17
-0.8
-2.38
-4.57
-7.26
-10.25
-13.19
-15.56
-16.69
-15.98
-13.13
-8.27
-2.04
4.68
11.02
16.32
20.19
22.44
22.94
21.66
18.72
14.51
9.75
5.25
1.72
-0.52
-1.56
-1.81
-1.77
-1.86
-2.32
-3.21
-4.47
-5.96
-7.54
-9.08
-10.49
-11.82
-13.24
-15.03
-17.41
-20.35
-23.43
-25.83
-26.65
-25.18
-21.24
-15.26
-8.18
-1.12
4.91
9.23
11.52
11.79
10.23
7.19
3.21
-1.08
-5.01
-8.03
-9.86
-10.51
-10.26
-9.52
-8.65
-7.89
-7.32
-6.88
-6.52
-6.23
-6.14
-6.5
-7.62
-9.77
-12.95
-16.85
-20.71
-23.57
-24.48
-22.89
-18.81
-12.83
-5.9
1
7.05
11.75
14.82
16.12
15.62
13.45
10.02
5.93
1.96
-1.29
-3.52
-4.75
-5.3
-5.51
-5.64
-5.82
-6.08
-6.41
-6.82
-7.32
-7.91
-8.69
-9.82
-11.54
-14
-17.13
-20.46
-23.16
-24.28
-23.05
-19.23
-13.17
-5.76
1.94
8.88
14.39
18.07
19.81
19.7
17.9
14.76
10.8
6.69
3.06
0.38
-1.25
-2.03
-2.34
-2.53
-2.79
-3.09
-3.36
-3.54
-3.64
-3.8
-4.2
-5.02
-6.52
-8.93
-12.32
-16.46
-20.63
-23.8
-24.88
-23.17
-18.63
-11.91
-4.09
3.73
10.72
16.39
20.45
22.73
23.09
21.51
18.21
13.78
9.01
4.72
1.5
-0.43
-1.24
-1.28
-1
-0.68
-0.47
-0.35
-0.25
-0.18
-0.22
-0.59
-1.55
-3.31
-6.01
-9.58
-13.71
-17.78
-20.92
-22.23
-21.03
-17.18
-11.15
-3.89
3.5
10.08
15.3
18.9
20.82
21.06
19.66
16.84
13.02
8.86
5.05
2.15
0.39
-0.28
-0.17
0.37
1.01
1.5
1.71
1.56
1.08
0.34
-0.62
-1.81
-3.28
-5.19
-7.67
-10.73
-14.14
-17.38
-19.65
-20.18
-18.44
-14.4
-8.52
-1.61
5.4
11.75
16.9
20.51
22.37
22.4
20.68
17.5
13.4
9.09
5.26
2.39
0.65
-0.04
0.02
0.44
0.9
1.13
1.04
0.66
0.08
-0.52
-1.09
-1.64
-2.33
-3.43
-5.22
-7.87
-11.28
-14.99
-18.2
-19.95
-19.45
-16.41
-11.12
-4.39
2.69
9.17
14.42
18.14
20.3
20.94
20.19
18.18
15.2
11.65
8.04
4.89
2.59
1.31
1.04
1.56
2.53
3.52
4.12
4.02
3.1
1.47
-0.54
-2.52
-4.17
-5.39
-6.44
-7.75
-9.77
-12.71
-16.31
-19.85
-22.29
-22.68
-20.45
-15.66
-8.95
-1.33
6.14
12.65
17.65
20.93
22.39
22.06
20.06
16.68
12.38
7.86
3.79
0.72
-1.06
-1.58
-1.08
0.01
1.2
2.06
2.32
1.93
1.01
-0.18
-1.4
-2.52
-3.58
-4.71
-6.11
-7.97
-10.4
-13.33
-16.52
-19.38
-21.19
-21.12
-18.68
-13.88
-7.33
-0.04
6.97
12.87
17.25
19.98
21.12
20.73
18.9
15.82
11.89
7.7
3.9
1.02
-0.66
-1.11
-0.57
0.57
1.86
2.89
3.43
