18.48
17.91
17.08
15.99
14.62
12.99
11.23
9.6
8.35
7.66
7.56
7.85
8.29
8.58
8.55
8.25
7.79
7.36
7.04
6.76
6.33
5.56
4.29
2.59
0.69
-1.05
-2.27
-2.66
-2.09
-0.53
1.86
4.72
7.57
9.9
11.32
11.71
11.23
10.19
8.9
7.57
6.2
4.71
3.07
1.34
-0.27
-1.54
-2.36
-2.74
-2.82
-2.74
-2.63
-2.5
-2.36
-2.21
-2.15
-2.32
-2.84
-3.74
-4.94
-6.23
-7.41
-8.3
-8.78
-8.85
-8.48
-7.66
-6.38
-4.61
-2.39
0.17
2.84
5.38
7.5
8.99
9.77
9.87
9.42
8.6
7.55
6.37
5.14
3.93
2.79
1.78
0.98
0.45
0.25
0.37
0.76
1.27
1.77
2.13
2.29
2.25
2.07
1.74
1.18
0.33
-0.84
-2.16
-3.35
-4.16
-4.44
-4.24
-3.71
-2.96
-1.88
-0.33
1.88
4.69
7.81
10.78
13.17
14.81
15.81
16.41
16.74
16.69
15.99
14.37
11.92
9.04
6.43
4.75
4.3
4.95
6.22
7.64
8.89
10.02
11.21
12.55
13.97
15.19
15.9
15.97
15.54
14.92
14.54
14.66
15.34
16.44
17.75
19.03
20.16
21.08
21.89
22.8
24.09
26.06
28.89
32.45
36.31
39.72
41.82
41.95
39.95
36.19
31.46
26.51
21.58
16.12
8.67
-2.78
-20.09
-44.43
-76.12
-114.57
-158.41
-205.39
-252.21
-294.68
-328.35
-349.5
-356.15
-348.43
-328.12
-297.55
-259.05
-214.62
-166.4
-117.31
-70.77
-29.62
5.39
35.93
64.87
93.62
120.03
138.16
140.42
121.15
79.52
20.54
-46.11
-108.5
-155.08
-176.33
-166.05
-122.27
-48.06
48.15
153.56
253.5
334.77
388.7
412.67
409.39
384.96
347.02
302.85
258.49
218.26
184.49
157.66
137.01
121.18
108.85
99.58
93.7
91.73
93.55
97.97
103.06
107.25
109.33
108.94
106.66
103.65
101.27
100.7
102.76
107.84
116.29
127.18
138.67
148.85
156.63
162.15
166.24
169.6
171.87
171.84
166.22
150.62
121.39
77.28
20.09
-45.86
-114.86
-185.34
-250.88
-303.43
-336.88
-350.05
-346.22
-330.55
-307.64
-280.76
-251.98
-222.43
-193.7
-167.61
-145.52
-127.23
-111.14
-95.04
-77.33
-57.11
-35.07
-13.95
2.51
10.8
8.65
-4.81
-29.04
-62.2
-98.21
-128.61
-145.28
-143.29
-123.11
-90.77
-55.64
-26.79
-9.34
-3.27
-4.85
-9.55
-14.54
-19.47
-25.29
-32.54
-40.27
-45.58
-45.41
-38.11
-24.11
-5.8
13.32
30.25
43.44
53.08
60.77
68.35
76.76
85.95
95.06
103.38
110.97
118.15
124.58
128.45
126.44
115.32
94.08
64.86
32.47
2.31
-22.21
-41.1
-56.96
-74.03
-95.5
-121.54
-149.48
-175.66
-197.73
-215.67
-230.42
-241.52
-245.58
-236.84
-209.58
-161.72
-96.67
-22.2
52.87
122.34
183.88
237.58
283.34
318.94
340.17
343.1
326.69
293.89
250.84
204.56
160.91
123.71
94.9
75.41
65.69
65.45
73.15
86.02
100.32
112.31
119.11
118.86
110.67
94.33
70.24
38.83
0.96
-41.43
-84.98
-125.13
-157.25
-178.2
-187.55
-187.6
-182.42
-176
-170.91
-168.4
-169.58
-176.79
-193.37
-221.77
-260.66
-302.97
-337.09
-350.66
-335.35
-290.1
-221.25
-139.95
-58.51
12.6
66.55
100.38
114.37
111.24
95.53
72.77
48.42
27.04
11.6
3.37
2.27
7.21
16.2
26.75
36.19
42.21
43.68
40.86
35.09
27.98
20.79
13.8
6.52
-1.53
-10.18
-18.28
-24.19
-26.65
-25.49
-21.58
-16.41
-11.25
-6.68
-2.72
0.76
3.61
5.42
5.93
5.32
4.37
4.17
5.58
9.03
14.54
21.8
30.37
39.62
48.58
56.05
60.91
62.55
61.1
57.3
52.12
46.31
40.29
34.31
28.79
24.47
22.1
21.99
23.64
25.87
27.28
26.85
24.39
20.55
16.34
12.7
10.09
8.38
7.14
5.9
4.37
2.57
0.76
-0.69
-1.48
-1.51
-0.86
0.25
1.62
3.13
4.82
6.8
9.21
11.97
14.8
17.19
18.6
18.63
17.22
14.69
11.55
8.36
5.45
2.89
0.5
-1.89
-4.32
-6.59
-8.31
-9.08
-8.7
-7.28
-5.25
-3.19
-1.56
-0.59
-0.15
-0.03
-0.01
-0.02
-0.15
-0.39
-0.56
-0.25
0.98
3.38
6.86
10.98
15.25
19.25
22.85
26.13
29.21
32.13
34.74
36.77
38.01
38.49
38.53
38.74
39.79
42.17
45.88
50.44
54.97
58.55
60.56
60.91
59.98
58.29
56.17
53.59
50.38
46.52
42.24
37.84
33.21
27.72
20.36
10.5
-1.42
-13.75
-24.27
-31.38
-34.96
-36.43
-37.86
-40.72
-45.07
-49.88
-54.16
-57.96
-62.69
-70.15
-81.18
-94.55
-107.2
-115.49
-116.78
-110.65
-98.79
-84.08
-69.13
-55.42
-42.99
-31
-18.63
-5.7
7.01
18.15
26.42
31.18
32.77
32.38
31.53
31.47
32.68
34.94
37.59
40.12
42.39
44.59
46.82
48.74
49.52
48.1
43.79
36.68
27.87
19.13
12.19
7.94
6.03
4.9
2.5
-2.72
-11.17
-21.84
-32.9
-42.36
-48.9
-52.11
-52.41
-50.57
-47.25
-42.83
-37.45
-31.25
-24.51
-17.63
-11.04
-4.97
0.58
5.77
10.73
15.5
19.89
23.61
26.46
28.37
29.48
30.06
30.35
30.51
30.62
30.7
30.76
30.8
30.72
30.43
29.82
28.81
27.44
25.81
24.05
22.25
20.39
18.36
16.01
13.22
9.95
6.24
2.23
-1.88
-5.92
-9.81
-13.54
-17.22
-20.96
-24.74
-28.41
-31.76
-34.57
-36.8
-38.46
-39.56
-40.05
-39.83
-38.77
-36.86
-34.28
-31.27
-28.11
-24.93
-21.76
-18.55
-15.34
-12.28
-9.58
-7.42
-5.77
-4.52
-3.43
-2.3
-1.09
0.1
1.07
1.58
1.49
0.86
-0.13
-1.21
-2.07
-2.54
-2.55
-2.17
-1.62
-1.18
-1.09
-1.53
-2.54
-4.02
-5.75
-7.35
-8.46
-8.81
-8.31
-7.11
-5.52
-3.82
-2.15
-0.39
1.75
4.5
7.8
11.35
14.72
17.62
20.02
22.14
24.15
26.05
27.54
28.13
27.49
25.61
22.85
19.77
16.87
14.41
12.3
10.29
8.07
5.41
2.11
-1.97
-6.91
-12.6
-18.71
-24.64
-29.69
-33.27
-35.12
-35.43
-34.58
-33.03
-30.95
-28.31
-24.97
-20.89
-16.37
-11.93
-8.15
-5.42
-3.76
-2.92
-2.55
-2.38
-2.25
-2.19
-2.26
-2.46
-2.71
-2.88
-2.86
-2.63
-2.27
-1.9
-1.66
-1.65
-1.85
-2.14
-2.39
-2.53
-2.58
-2.66
-2.85
-3.27
-3.92
-4.72
-5.58
-6.37
-6.93
-7.05
-6.54
-5.27
-3.3
-0.83
1.75
4.07
5.83
6.92
7.41
7.44
7.24
6.93
6.66
6.5
6.43
6.46
6.54
6.67
6.89
7.24
7.77
8.49
9.31
10.07
10.66
10.92
10.76
10.11
8.94
7.29
5.32
3.26
1.35
-0.19
-1.3
-1.94
-2.2
-2.12
-1.73
-1.01
0.01
1.23
2.5
3.59
4.41
4.87
5
4.8
4.24
3.2
1.57
-0.65
-3.35
-6.19
-8.74
-10.59
-11.5
-11.45
-10.59
-9.2
-7.55
-5.87
-4.27
-2.84
-1.65
-0.77
-0.38
-0.57
-1.34
-2.45
-3.52
-4.12
-4.04
-3.39
-2.53
-1.83
-1.44
-1.19
-0.77
0.06
1.29
2.62
3.68
4.24
4.38
4.39
4.57
5.12
5.97
6.86
7.51
7.74
7.57
7.16
6.78
6.65
6.83
7.27
7.73
7.99
7.9
7.48
6.84
6.26
5.92
5.89
6.05
6.19
6.1
5.68
5.07
4.48
4.2
4.42
5.15
6.3
7.74
9.35
10.97
12.42
13.43
13.74
13.2
11.86
9.97
7.87
5.94
4.37
3.09
1.8
0.06
-2.56
-6.21
-10.64
-15.31
-19.52
-22.71
-24.64
-25.43
-25.42
-24.94
-24.12
-22.86
-21.04
-18.66
-15.98
-13.39
-11.24
-9.7
-8.58
-7.52
-6.17
-4.46
-2.61
-0.99
0.1
0.62
0.84
1.25
2.26
4.02
6.34
8.79
10.86
12.22
12.76
12.56
11.72
10.35
8.58
6.64
4.87
3.66
3.25
3.58
4.27
4.75
4.58
3.65
2.24
0.86
-0.02
-0.19
0.28
1.04
1.72
1.93
1.48
0.31
-1.45
-3.46
-5.37
-6.89
-7.87
-8.32
-8.33
-8
-7.35
-6.37
-5.11
-3.75
-2.58
-1.86
-1.77
-2.23
-2.98
-3.7
-4.14
-4.16
-3.82
-3.29
-2.7
-2.12
-1.45
-0.53
0.72
2.26
3.85
5.2
6.1
6.62
7
7.56
8.45
9.56
10.57
11.24
11.54
11.73
12.17
12.96
13.85
14.25
13.64
11.83
9.16
6.32
4
2.51
1.68
0.98
-0.11
-1.87
-4.18
-6.74
-9.17
-11.25
-12.91
-14.2
-15.12
-15.59
-15.47
-14.66
-13.17
-11.16
-8.93
-6.78
-4.86
-3.13
-1.5
0.1
1.61
2.84
3.61
3.81
3.55
3.01
2.43
1.96
1.63
1.47
1.59
2.11
3.13
4.64
6.36
7.92
9.02
9.45
9.3
8.81
8.26
7.91
7.87
8.12
8.5
8.88
9.1
9.07
8.76
8.27
7.69
7.17
6.76
6.39
5.92
5.18
4.06
2.45
0.12
-3.2
-7.73
-13.56
-20.47
-27.93
-35.25
-41.84
-47.33
-51.59
-54.52
-55.96
-55.69
-53.62
-50.01
-45.43
-40.58
-35.93
-31.46
-26.67
-20.84
-13.45
-4.44
5.72
16.23
26.32
35.43
43.23
49.54
54.14
56.78
57.31
55.84
52.75
48.67
44.15
39.42
34.28
28.31
21.15
12.85
3.96
-4.65
-12.11
-17.83
-21.59
-23.51
-23.79
-22.68
-20.42
-17.31
-13.77
-10.31
-7.41
-5.37
-4.22
-3.72
-3.47
-3.1
-2.41
-1.51
-0.75
-0.6
-1.4
-3.18
-5.55
-7.96
-9.81
-10.83
-11.12
-10.98
-10.8
-10.82
-11.08
-11.48
-11.93
-12.34
-12.61
-12.58
-11.96
-10.56
-8.35
-5.53
-2.46
0.48
3.07
5.27
7.17
8.91
10.52
12.04
13.41
14.62
15.61
16.28
16.44
15.88
14.6
12.77
10.96
9.83
9.97
11.6
14.47
17.99
21.44
24.31
26.44
27.99
29.24
30.33
31.1
31.2
30.3
28.31
25.53
22.44
19.57
17.1
14.77
12.04
8.25
3.13
-3.16
-9.94
-16.39
-21.82
-25.87
-28.47
-29.7
-29.67
-28.39
-26.08
-23.11
-20.15
-18.03
-17.42
-18.64
-21.44
-25.2
-29.05
-32.31
-34.49
-35.45
-35.2
-33.81
-31.37
-28
-23.98
-19.75
-15.84
-12.6
-10.06
-7.95
-5.82
-3.47
-0.97
1.27
2.89
3.81
4.38
5.18
6.66
9.01
12.03
15.35
18.65
21.72
24.41
26.59
28.05
28.6
28.29
27.26
25.86
24.38
22.95
21.5
19.9
18.04
15.95
13.81
11.77
9.89
8.09
6.14
3.76
0.73
-3.02
-7.33
-11.82
-15.97
-19.27
-21.29
-21.89
-21.11
-19.27
-16.74
-13.87
-10.93
-8.04
-5.3
-2.74
-0.47
1.44
2.91
3.97
4.75
5.37
5.91
6.37
6.73
6.92
7
7.04
7.13
7.29
7.48
7.58
7.52
7.28
6.9
6.46
5.93
5.34
4.67
4.04
3.67
3.76
4.37
5.22
5.76
5.33
3.48
0.21
-4
-8.34
-12.01
-14.47
-15.6
-15.57
-14.72
-13.43
-12.05
-10.83
-9.94
-9.41
-9.09
-8.79
-8.28
-7.43
-6.26
-4.9
-3.53
-2.24
-1.09
-0.04
0.93
1.77
2.39
2.68
2.61
2.22
1.64
0.96
0.3
-0.29
-0.73
-0.98
-0.96
-0.59
0.12
1.06
2.11
3.14
4.05
4.86
5.51
5.99
6.18
5.97
5.32
4.29
3.08
1.94
1.09
0.59
0.42
0.47
0.64
0.91
1.27
1.68
2.02
2.16
2.05
1.7
1.35
1.18
1.26
1.46
1.53
1.31
0.82
0.26
-0.19
-0.49
-0.78
-1.17
-1.63
-1.91
-1.64
-0.63
1
2.84
4.36
5.19
5.22
4.61
3.5
1.96
-0.03
-2.47
-5.23
-7.99
-10.43
-12.37
-13.9
-15.36
-17.05
-19.06
-21.05
-22.34
-22.24
-20.35
-16.82
-12.31
-7.77
-3.96
-1.32
0.18
0.93
1.36
1.88
2.68
3.94
5.78
8.43
11.96
16.26
20.96
25.44
29.08
31.37
32.17
31.59
30.01
27.79
25.19
22.33
19.16
15.57
11.45
6.83
1.92
-2.85
-6.96
-9.91
-11.42
-11.58
-10.75
-9.44
-8.14
-7.11
-6.41
-5.93
-5.52
-5.13
-4.85
-4.84
-5.28
-6.29
-7.82
-9.67
-11.53
-13.02
-13.81
-13.65
-12.43
-10.25
-7.33
-3.97
-0.49
2.83
5.77
8.15
9.83
10.75
11
10.78
10.46
10.35
10.68
11.46
12.5
13.53
14.33
14.81
14.96
14.82
14.3
13.31
11.77
9.67
7.21
4.67
2.35
0.37
-1.32
-2.92
-4.67
-6.68
-8.94
-11.26
-13.42
-15.14
-16.18
-16.38
-15.61
-13.92
-11.46
-8.57
-5.6
-2.89
-0.63
1.07
2.22
2.83
2.93
2.63
2.06
1.48
1.09
1.03
1.29
1.73
2.16
2.41
2.43
2.27
2.07
1.97
2.02
2.09
1.93
1.27
-0.08
-2.01
-4.17
-6.1
-7.47
-8.22
-8.56
-8.79
-9.1
-9.49
-9.81
-9.92
-9.8
-9.6
-9.53
-9.7
-10.1
-10.52
-10.73
-10.56
-9.98
-9.13
-8.25
-7.52
-6.99
-6.56
-5.99
-5.08
-3.76
-2.05
-0.09
2.11
4.62
7.62
11.2
15.29
19.58
23.6
26.87
29.01
29.86
29.39
27.69
24.88
21.15
16.81
12.33
8.25
5
2.83
1.6
0.9
0.21
-0.88
-2.52
-4.6
-6.81
-8.85
-10.45
-11.47
-11.84
-11.58
-10.81
-9.8
-8.86
-8.27
-8.12
-8.34
-8.68
-8.89
-8.8
-8.38
-7.72
-6.88
-5.97
-5.02
-4.09
-3.32
-2.77
-2.45
-2.28
-2.09
-1.69
-1
-0
1.24
2.59
3.92
5.08
5.91
6.29
6.2
5.73
5.04
4.27
3.47
2.6
1.57
0.32
-1.1
-2.54
-3.78
-4.63
-5.02
-5.01
-4.8
-4.65
-4.76
-5.1
-5.5
-5.69
-5.47
-4.85
-4.06
-3.32
-2.77
-2.35
-1.88
-1.25
-0.56
0.02
0.35
0.44
0.52
0.89
1.66
2.75
3.92
4.89
5.57
6
6.26
6.43
6.45
6.23
5.79
5.25
4.78
4.55
4.63
4.99
5.55
6.18
6.71
7
6.89
6.31
5.35
4.18
2.94
1.66
0.2
-1.65
-3.94
-6.48
-8.92
-10.85
-12.1
-12.77
-13.12
-13.33
-13.38
-13.07
-12.18
-10.66
-8.7
-6.67
-4.9
-3.54
-2.64
-2.21
-2.3
-2.9
-3.96
-5.21
-6.36
-7.17
-7.55
-7.61
-7.54
-7.44
-7.23
-6.76
-5.87
-4.56
-2.98
-1.3
0.32
1.75
2.86
3.51
3.66
3.53
3.65
4.76
7.41
11.71
17.14
22.75
27.48
30.61
31.87
31.38
29.46
26.37
22.32
17.53
12.32
7.1
2.34
-1.6
-4.54
-6.55
-7.83
-8.69
-9.38
-10
-10.5
-10.72
-10.49
-9.79
-8.73
-7.52
-6.42
-5.58
-5.08
-4.9
-4.84
-4.66
-4.07
-2.87
-1.1
1.03
3.16
5.03
6.57
7.98
9.48
11.21
13.05
14.63
15.65
15.91
15.53
14.7
13.64
12.44
11.04
9.47
7.89
6.63
6.1
6.48
7.63
9.1
10.33
10.94
10.96
10.7
10.56
10.64
10.67
10.08
8.41
5.53
1.77
-2.13
-5.5
-7.99
-9.73
-11.12
-12.56
-14.13
-15.51
-16.2
-15.74
-14.06
-11.58
-8.96
-6.85
-5.6
-5.17
-5.31
-5.75
-6.36
-7.15
-8.05
-8.83
-9.09
-8.41
-6.58
-3.78
-0.57
2.35
4.41
5.38
5.44
5.04
4.63
4.54
4.86
5.48
6.2
6.79
7.13
7.17
7
6.79
6.73
6.95
7.46
8.22
9.04
9.72
9.97
9.4
7.7
4.65
0.44
-4.41
-8.99
-12.47
-14.28
-14.39
-13.1
-10.87
-8.06
-4.8
-1.17
2.67
6.26
8.91
9.86
8.61
5.1
-0.15
-6.25
-12.14
-17.09
-20.81
-23.45
-25.31
-26.57
-27.08
-26.52
-24.63
-21.5
-17.67
-13.8
-10.45
-7.75
-5.49
-3.24
-0.69
2.14
4.94
7.28
8.83
9.58
9.82
9.99
10.46
11.29
12.18
12.67
12.4
11.27
9.53
7.54
5.52
3.42
1.04
-1.77
-4.78
-7.49
-9.37
-10.12
-9.84
-8.89
-7.6
-6.07
-4.16
-1.66
1.44
4.82
7.96
10.38
11.83
12.3
11.99
11.11
9.88
8.44
6.95
5.54
4.34
3.4
2.73
2.32
2.08
1.93
1.73
1.31
0.62
-0.32
-1.41
-2.49
-3.5
-4.46
-5.45
-6.54
-7.72
-8.88
-9.83
-10.41
-10.44
-9.9
-8.8
-7.2
-5.27
-3.21
-1.22
0.52
1.96
3.11
4.06
4.78
5.2
5.21
4.72
3.86
2.9
2.29
2.4
3.45
5.38
7.9
10.62
13.17
15.2
16.45
16.76
16.09
14.48
12.06
8.98
5.38
1.4
-2.86
-7.29
-11.6
-15.5
-18.62
-20.7
-21.64
-21.45
-20.31
-18.38
-15.89
-13.04
-10.04
-7.11
-4.45
-2.2
-0.44
0.8
1.64
2.26
2.85
3.52
4.25
4.95
5.48
5.79
5.94
6.12
6.59
7.58
9.09
10.88
12.56
13.66
13.91
13.27
11.95
10.22
8.31
6.31
4.24
2.13
0.08
-1.72
-3.13
-4.08
-4.61
-4.78
-4.64
-4.15
-3.34
-2.3
-1.22
-0.27
0.41
0.8
0.9
0.74
0.32
-0.35
-1.2
-2.05
-2.76
-3.22
-3.49
-3.7
-3.99
-4.43
-4.89
-5.25
-5.33
-5.1
-4.59
-3.9
-3.13
-2.42
-1.92
-1.7
-1.77
-1.94
-1.99
-1.72
-1.06
-0.08
1.04
2.18
3.37
4.74
6.4
8.24
9.96
11.14
11.48
10.92
9.65
8
6.26
4.63
3.18
1.94
0.98
0.37
0.19
0.41
0.9
1.42
1.77
1.85
1.67
1.25
0.69
0.05
-0.59
-1.23
-1.92
-2.67
-3.51
-4.34
-5.03
-5.46
-5.55
-5.4
-5.16
-4.96
-4.81
-4.59
-4.13
-3.33
-2.24
-0.98
0.23
1.23
1.91
2.28
2.35
2.2
1.94
1.7
1.64
1.84
2.33
2.97
3.68
4.37
5.09
5.99
7.21
8.76
10.42
11.86
12.78
13.1
13.03
12.9
12.91
12.88
12.31
10.72
8.01
4.63
1.41
-0.93
-2.17
-2.65
-3
-3.57
-4.25
-4.51
-3.9
-2.39
-0.51
0.94
1.34
0.54
-1.13
-3.12
-5.01
-6.63
-8.03
-9.25
-10.28
-10.97
-11.24
-11.1
-10.69
-10.2
-9.76
-9.4
-9.04
-8.55
-7.81
-6.82
-5.66
-4.52
-3.55
-2.83
-2.29
-1.82
-1.35
-0.85
-0.42
-0.1
0.19
0.65
1.52
2.85
4.47
5.97
6.96
7.2
6.73
5.74
4.49
3.13
1.71
0.3
-0.98
-1.94
-2.4
-2.37
-2.01
-1.55
-1.16
-0.87
-0.65
-0.45
-0.31
-0.32
-0.58
-1.04
-1.57
-1.94
-2.09
-2.09
-2.14
-2.41
-2.92
-3.54
-4.07
-4.36
-4.39
-4.15
-3.71
-3.04
-2.1
-0.86
0.61
2.17
3.61
4.75
5.47
5.7
5.39
4.6
3.43
2.06
0.76
-0.32
-1.06
-1.55
-1.87
-2.11
-2.29
-2.35
-2.27
-2.12
-2.04
-2.18
-2.58
-3.13
-3.64
-3.95
-4.01
-3.93
-3.9
-4.11
-4.56
-5.14
-5.66
-5.96
-6.02
-5.83
-5.39
-4.66
-3.6
-2.19
-0.55
1.14
2.69
3.91
4.75
5.24
5.41
5.25
4.77
4
3
1.93
0.94
0.18
-0.26
-0.36
-0.18
0.19
0.61
0.91
0.96
0.67
0.03
-0.91
-2.01
-3.1
-4.02
-4.64
-5.02
-5.21
-5.34
-5.44
-5.47
-5.29
-4.82
-4.11
-3.29
-2.55
-1.99
-1.56
-1.07
-0.32
0.77
2.07
3.33
4.29
4.78
4.86
4.63
4.29
3.92
3.56
3.23
2.91
2.67
2.54
2.55
2.68
2.9
3.19
3.49
3.75
3.87
3.71
3.18
2.26
1.04
-0.38
-1.86
-3.32
-4.75
-6.08
-7.17
-7.9
-8.21
-8.14
-7.81
-7.33
-6.65
-5.65
-4.18
-2.19
0.17
2.59
4.72
6.29
7.2
7.5
7.3
6.69
5.73
4.48
3.03
1.51
0.1
-1.08
-1.95
-2.51
-2.77
-2.77
-2.61
-2.38
-2.23
-2.27
-2.54
-3.01
-3.59
-4.13
-4.6
-5.02
-5.46
-5.98
-6.56
-7.06
-7.32
-7.24
-6.82
-6.18
-5.43
-4.65
-3.85
-2.96
-1.96
-0.85
0.32
1.46
2.53
3.49
4.3
4.85
5.07
4.86
4.26
3.39
2.4
1.4
0.4
-0.67
-1.86
-3.06
-4.1
-4.7
-4.78
-4.41
-3.89
-3.56
-3.65
-4.2
-4.96
-5.71
-6.29
-6.74
-7.26
-8.11
-9.42
-11.19
-13.32
-15.64
-18.01
-20.25
-22.17
-23.63
-24.52
-24.97
-25.24
-25.73
-26.78
-28.48
-30.57
-32.51
-33.74
-33.88
-32.93
-31.17
-29.09
-27.05
-25.01
-22.39
-18.22
-11.53
-1.73
10.99
25.63
40.62
54.33
65.5
73.46
78.16
79.87
79.05
76.02
71.05
64.44
56.69
48.54
40.74
33.85
28
22.92
18.11
13.16
8.11
3.36
-0.53
-3.27
-5.02
-6.42
-8.22
-10.98
-14.91
-19.86
-25.48
-31.26
-36.51
-40.42
-42.15
-41.17
-37.49
-31.86
-25.5
-19.64
-15.01
-11.68
-9.12
-6.76
-4.43
-2.47
-1.64
-2.53
-5.24
-9.1
-12.92
-15.49
-16.07
-14.71
-12.09
-9.2
-6.73
-4.82
-3
-0.61
2.83
7.26
12.16
16.92
21.21
25.15
29.1
33.27
37.4
40.73
42.36
41.71
38.91
34.64
29.84
25.24
21.09
17.3
13.64
10.09
6.85
4.23
2.45
1.45
0.93
0.38
-0.61
-2.29
-4.61
-7.36
-10.2
-12.79
-14.71
-15.57
-15.01
-12.86
-9.39
-5.28
-1.46
1.25
2.49
2.48
1.72
0.7
-0.36
-1.63
-3.37
-5.71
-8.42
-11.01
-12.97
-13.93
-13.9
-13.13
-12.13
-11.4
-11.37
-12.24
-13.89
-15.95
-17.81
-18.87
-18.72
-17.24
-14.64
-11.36
-7.87
-4.47
-1.35
1.52
4.11
6.36
8.12
9.27
9.85
10.06
10.33
11
12.17
13.54
14.51
14.44
12.89
9.86
5.62
0.58
-5.01
-11.01
-17.3
-23.51
-28.87
-32.44
-33.34
-31.15
-26.05
-18.74
-10.21
-1.45
6.69
13.66
19.11
23.01
25.48
26.74
27.05
26.53
25.25
23.19
20.39
16.86
12.76
8.29
3.73
-0.58
-4.3
-7.03
-8.53
-8.7
-7.67
-5.71
-3.24
-0.65
1.71
3.6
4.96
5.77
6.09
5.94
5.34
4.26
2.77
1.07
-0.57
-1.84
-2.6
-2.88
-2.85
-2.7
-2.52
-2.3
-1.98
-1.61
-1.32
-1.32
-1.74
-2.5
-3.28
-3.7
-3.5
-2.63
-1.36
-0.05
1.01
1.77
2.38
3.06
3.95
4.96
5.89
6.47
6.57
6.19
5.46
4.55
3.58
2.65
1.8
1.1
0.58
0.28
0.2
0.26
0.45
0.68
0.94
1.2
1.42
1.52
1.45
1.21
0.76
0.11
-0.81
-2.03
-3.58
-5.3
-7
-8.36
-9.08
-9.04
-8.18
-6.62
-4.46
-1.85
1.09
4.2
7.21
9.86
11.87
13.03
13.22
12.45
10.86
8.68
6.29
4.07
2.47
1.77
2.07
3.15
4.59
5.87
6.53
6.4
5.52
4.19
2.64
1.03
-0.61
-2.34
-4.11
-5.77
-7.09
-7.99
-8.48
-8.72
-8.85
-8.86
-8.58
-7.72
-6.1
-3.79
-1.09
1.56
3.73
5.15
5.74
5.55
4.73
3.42
1.74
-0.22
-2.3
-4.25
-5.7
-6.35
-6.05
-5
-3.74
-2.97
-3.24
-4.61
-6.55
-8.11
-8.36
-6.86
-3.85
-0.02
3.79
7.01
9.45
11.17
12.15
12.26
11.31
9.42
7.2
5.55
5.32
6.68
9.03
11.23
12.26
11.73
9.96
7.63
5.34
3.22
1.02
-1.42
-3.91
-5.84
-6.46
-5.41
-3
-0.08
2.38
3.78
4.12
3.95
3.97
4.59
5.8
7.16
8.16
8.45
8.05
7.27
6.53
6.14
6.2
6.59
7.11
7.58
7.92
8.19
8.48
8.86
9.28
9.63
9.71
9.35
8.51
7.19
5.53
3.72
1.97
0.47
-0.58
-1.05
-0.84
-0.02
1.24
2.66
3.94
4.84
5.27
5.25
4.93
4.51
4.13
3.83
3.53
3.09
2.37
1.31
0.05
-1.18
-2.04
-2.21
-1.48
0.21
2.66
5.37
7.64
8.67
7.99
5.6
1.98
-2.08
-5.77
-8.65
-10.65
-12.04
-13.15
-14.19
-15.15
-15.93
-16.39
-16.46
-16.2
-15.61
-14.72
-13.53
-12.03
-10.19
-8.06
-5.74
-3.45
-1.57
-0.51
-0.56
-1.73
-3.74
-6.04
-8.04
-9.27
-9.63
-9.37
-8.87
-8.48
-8.27
-8.01
-7.38
-6.15
-4.33
-2.15
0.04
2
3.68
5.12
6.48
7.8
9.02
10.02
10.72
11.14
11.39
11.53
11.53
11.3
10.71
9.62
7.93
5.56
2.54
-0.96
-4.67
-8.21
-11.19
-13.32
-14.49
-14.76
-14.33
-13.37
-11.96
-10.07
-7.63
-4.69
-1.5
1.51
3.9
5.32
5.67
5.14
4.05
2.65
1.06
-0.74
-2.81
-5.1
-7.43
-9.53
-11.15
-12.17
-12.61
-12.57
-12.2
-11.61
-10.81
-9.79
-8.5
-6.92
-5.06
-3
-0.91
1.06
2.75
4.17
5.36
6.38
7.24
7.89
8.29
8.54
8.85
9.53
10.78
12.54
14.55
16.34
17.45
17.58
16.63
14.66
11.9
8.63
5.2
1.99
-0.74
-2.89
-4.49
-5.71
-6.72
-7.6
-8.38
-9.06
-9.63
-10.14
-10.67
-11.25
-11.94
-12.66
-13.3
-13.68
-13.58
-12.78
-11.18
-8.82
-5.83
-2.54
0.8
3.94
6.69
8.99
10.83
12.27
13.39
14.29
14.94
15.27
15.08
14.21
12.6
10.38
7.88
5.53
3.72
2.65
2.32
2.59
3.28
4.31
5.64
7.24
9.02
10.76
12.15
12.93
13.02
12.55
11.88
11.3
10.89
10.47
9.63
7.95
5.32
2.02
-1.31
-3.93
-5.41
-5.66
-4.83
-3.22
-0.94
1.89
5.13
8.36
11.02
12.56
12.69
11.61
9.82
7.89
6.21
4.81
3.48
1.97
0.23
-1.64
-3.3
-4.52
-5.2
-5.46
-5.65
-6.11
-7.07
-8.48
-10.15
-11.77
-13.2
-14.44
-15.65
-17.05
-18.72
-20.49
-22.03
-23.01
-23.21
-22.68
-21.72
-20.73
-20.12
-20.06
-20.41
-20.79
-20.74
-19.93
-18.29
-16.02
-13.42
-10.78
-8.27
-5.97
-3.93
-2.25
-1.03
-0.24
0.3
0.92
1.88
3.23
4.79
6.25
7.4
8.23
8.85
9.37
9.81
10.1
10.16
10.02
9.81
9.68
9.61
9.51
9.26
8.9
8.65
8.8
9.48
10.55
11.66
12.42
12.63
12.29
11.54
10.53
9.31
7.86
6.28
4.84
3.9
3.78
4.54
5.94
7.54
8.9
9.76
10.13
10.19
10.08
9.84
9.39
8.58
7.32
5.59
3.47
1.07
-1.44
-3.83
-5.83
-7.22
-7.94
-8.11
-8.05
-8.05
-8.24
-8.48
-8.42
-7.65
-5.97
-3.48
-0.57
2.14
3.96
4.2
2.37
-1.62
-7.32
-13.75
-19.56
-23.48
-24.74
-23.37
-20.05
-15.82
-11.54
-7.76
-4.65
-2.23
-0.51
0.47
0.69
0.39
-0.05
-0.24
0.01
0.51
0.84
0.57
-0.51
-2.24
-4.22
-5.94
-7.05
-7.43
-7.11
-6.25
-5.04
-3.64
-2.14
-0.56
1.11
2.93
5.04
7.52
10.41
13.52
16.56
19.12
20.86
21.56
21.27
20.3
18.98
17.58
16.21
14.84
13.38
11.83
10.24
8.73
7.34
6.07
4.87
3.71
2.64
1.66
0.78
-0.08
-1.01
-2.08
-3.29
-4.56
-5.8
-7.01
-8.21
-9.39
-10.55
-11.62
-12.61
-13.59
-14.65
-15.88
-17.35
-18.91
-20.33
-21.31
-21.5
-20.68
-18.76
-15.89
-12.44
-8.97
-6.1
-4.35
-3.97
-4.85
-6.57
-8.61
-10.43
-11.71
-12.32
-12.3
-11.79
-10.94
-9.88
-8.7
-7.51
-6.37
-5.35
-4.47
-3.74
-3.21
-2.95
-2.97
-3.3
-3.85
-4.43
-4.8
-4.7
-3.98
-2.64
-0.88
1
2.69
3.96
4.8
5.25
5.48
5.61
5.73
5.89
6.23
6.9
8
9.56
11.39
13.25
14.82
15.88
16.28
16.02
15.15
13.72
11.82
9.6
7.26
5.01
3.01
1.4
0.26
-0.37
-0.47
-0.1
0.53
1.14
1.51
1.51
1.29
1.11
1.21
1.74
2.63
3.54
4.13
4.13
3.39
1.97
-0.03
-2.51
-5.44
-8.79
-12.49
-16.41
-20.33
-24.1
-27.69
-31.16
-34.46
-37.26
-38.84
-38.25
-34.64
-27.77
-18.21
-7.23
3.46
12.29
18.23
20.97
20.87
18.88
16.07
13.49
11.94
11.8
13.04
15.4
18.43
21.69
24.78
27.32
28.95
29.37
28.43
26.19
22.96
19.21
15.39
11.8
8.61
5.79
3.26
0.83
-1.65
-4.34
-7.34
-10.65
-14.14
-17.59
-20.72
-23.23
-24.85
-25.36
-24.8
-23.56
-22.38
-22.19
-23.66
-26.85
-31.03
-34.92
-37.23
-37.05
-34.27
-29.34
-22.98
-15.84
-8.31
-0.63
6.98
14.14
20.53
25.85
30.03
33.1
35.07
35.91
35.48
33.75
30.8
26.94
22.63
18.23
13.92
9.64
5.24
0.64
-3.98
-8.27
-11.77
-14.18
-15.42
-15.63
-15.03
-13.85
-12.26
-10.48
-8.88
-7.91
-7.94
-9.06
-10.93
-12.9
-14.28
-14.61
-13.86
-12.33
-10.47
-8.56
-6.72
-4.87
-2.95
-1
0.87
2.53
3.95
5.21
6.37
7.47
8.48
9.29
9.77
9.83
9.44
8.64
7.71
6.98
6.82
7.5
9.04
11.2
13.63
15.94
17.76
18.77
18.72
17.4
14.77
11.04
6.71
2.4
-1.26
-3.99
-5.72
-6.7
-7.21
-7.51
-7.75
-7.99
-8.21
-8.33
-8.27
-7.92
-7.23
-6.22
-4.98
-3.63
-2.29
-0.99
0.25
1.39
2.33
2.94
3.12
2.87
2.28
1.44
0.38
-0.93
-2.45
-4.01
-5.24
-5.68
-5.06
-3.4
-1.04
1.47
3.64
5.11
5.78
5.68
5.01
4.05
3.1
2.43
2.2
2.46
3.16
4.21
5.53
7.08
8.77
10.38
11.56
11.93
11.29
9.69
7.43
4.92
2.54
0.54
-0.98
-2.08
-2.86
-3.49
-4.11
-4.83
-5.62
-6.4
-7.03
-7.4
-7.43
-7.02
-6.16
-4.87
-3.21
-1.32
0.57
2.26
3.57
4.44
4.85
4.83
4.37
3.48
2.23
0.81
-0.37
-0.94
-0.61
0.52
2.05
3.35
3.84
3.05
0.88
-2.49
-6.54
-10.47
-13.19
-13.66
-11.47
-7.22
-2.67
-0.14
-1.39
-6.72
-14.66
-22.54
-27.74
-28.79
-25.83
-20.14
-13.25
-6.14
0.91
7.93
14.76
20.8
25.24
27.58
27.87
26.59
24.41
21.68
18.38
14.24
9.11
3.14
-3.18
-9.21
-14.45
-18.56
-21.46
-23.24
-24.04
-23.96
-23.14
-21.69
-19.68
-17.16
-14.19
-10.84
-7.3
-3.85
-0.79
1.7
3.61
5.13
6.53
8.13
10.1
12.52
15.24
17.95
20.29
21.86
22.4
21.75
20.04
17.48
14.4
11.09
7.75
4.48
1.39
-1.39
-3.76
-5.57
-6.75
-7.34
-7.46
-7.23
-6.66
-5.71
-4.35
-2.71
-1.1
0.05
0.35
-0.35
-1.87
-3.74
-5.45
-6.63
-7.26
-7.54
-7.73
-7.92
-7.96
-7.54
-6.35
-4.38
-1.9
0.53
2.29
2.97
2.49
1.22
-0.34
-1.69
-2.65
-3.24
-3.68
-4.1
-4.45
-4.6
-4.39
-3.92
-3.33
-2.69
-1.72
0.08
3.15
7.41
12.16
16.23
18.49
18.41
16.21
12.68
8.72
4.93
1.47
-1.82
-5.05
-8.09
-10.48
-11.72
-11.53
-10.03
-7.73
-5.29
-3.27
-1.8
-0.68
0.57
2.26
4.33
6.36
7.71
7.95
6.99
5.18
3.08
1.28
0.12
-0.4
-0.46
-0.39
-0.4
-0.53
-0.61
-0.35
0.49
2
3.96
6.02
7.63
8.29
7.66
5.62
2.39
-1.58
-5.52
-8.67
-10.36
-10.34
-8.76
-6.15
-3.12
-0.19
2.3
4.24
5.52
6.03
5.66
4.38
2.39
0.09
-2.02
-3.52
-4.21
-4.25
-4.01
-3.81
-3.8
-3.8
-3.49
-2.6
-1.14
0.52
1.8
2.12
1.15
-1.07
-4.17
-7.63
-10.95
-13.72
-15.67
-16.75
-17.11
-16.99
-16.65
-16.11
-15.1
-13.07
-9.37
-3.55
4.39
13.89
23.86
32.97
40.01
44.19
45.36
43.97
40.81
36.72
32.27
27.75
23.19
18.64
14.25
10.38
7.41
5.55
4.76
4.74
5.05
5.34
5.46
5.48
5.56
5.8
6.21
6.69
7.08
7.37
7.6
7.93
8.5
9.38
10.51
11.83
13.26
14.73
16.17
17.42
18.31
18.74
18.65
18.11
17.15
15.73
13.7
10.8
6.83
1.76
-4.13
-10.41
-16.55
-22.21
-27.17
-31.39
-34.76
-37.18
-38.51
-38.69
-37.86
-36.16
-33.84
-31
-27.64
-23.78
-19.55
-15.22
-11.11
-7.41
-4.03
-0.73
2.77
6.56
10.41
13.97
16.93
19.15
20.64
21.47
21.64
21.11
19.8
17.71
15.03
12.01
8.99
6.24
4
2.41
1.55
1.3
1.45
1.66
1.62
1.2
0.49
-0.26
-0.78
-1.01
-1.11
-1.34
-1.95
-3
-4.31
-5.55
-6.42
-6.76
-6.61
-6.11
-5.46
-4.83
-4.36
-4.21
-4.56
-5.52
-7.14
-9.31
-11.8
-14.36
-16.74
-18.7
-20.02
-20.48
-19.85
-18
-14.92
-10.9
-6.48
-2.39
0.62
1.97
1.41
-0.93
-4.67
-9.24
-14.13
-18.92
-23.32
-27.17
-30.38
-32.86
-34.49
-35.1
-34.46
-32.26
-28.14
-21.81
-13.22
-2.76
8.68
19.85
29.47
36.56
40.71
42.12
41.46
39.51
36.92
34.09
31.17
28.17
25.12
22.09
19.13
16.29
13.58
10.97
8.5
6.27
4.43
3.21
2.73
2.97
3.65
4.41
4.79
4.51
3.5
1.85
-0.21
-2.51
-4.84
-7.05
-8.97
-10.48
-11.51
-12.07
-12.2
-11.91
-11.2
-10.02
-8.41
-6.56
-4.76
-3.38
-2.64
-2.59
-3.02
-3.63
-4.1
-4.24
-3.94
-3.19
-2
-0.4
1.48
3.52
5.49
7.2
8.54
9.42
9.83
9.78
9.19
8.03
6.29
4.08
1.56
-1.06
-3.64
-6.08
-8.33
-10.34
-12.08
-13.49
-14.53
-15.19
-15.38
-14.99
-13.87
-11.95
-9.23
-5.85
-2.07
1.8
5.39
8.34
10.37
11.29
11.13
10.1
8.58
6.97
5.6
4.63
4.1
3.96
4.1
4.39
4.65
4.73
4.52
4.02
3.28
2.37
1.36
0.27
-0.82
-1.78
-2.35
-2.37
-1.74
-0.64
0.69
1.99
3.12
4.1
4.99
5.87
6.76
7.65
8.58
9.65
10.94
12.4
13.86
15.02
15.61
15.49
14.61
13.07
10.97
8.43
5.53
2.45
-0.59
-3.27
-5.29
-6.49
-6.84
-6.53
-5.86
-5.32
-5.36
-6.44
-8.85
-12.6
-17.44
-22.84
-28.14
-32.72
-36.16
-38.24
-39.03
-38.54
-36.81
-33.79
-29.47
-24.07
-18.06
-12.07
-6.64
-2.02
1.97
5.73
9.6
13.61
17.32
20.07
21.35
21.09
19.69
17.81
15.96
14.39
13.05
11.78
10.57
9.64
9.28
9.62
10.54
11.65
12.48
12.71
12.23
11.17
9.76
8.27
6.86
5.62
4.49
3.37
2.13
0.66
-1
-2.75
-4.45
-5.91
-6.94
-7.35
-6.91
-5.43
-2.92
0.41
4.06
7.34
9.68
10.73
10.54
9.47
7.94
6.33
4.82
3.52
2.5
1.82
1.51
1.48
1.57
1.47
0.98
0.05
-1.14
-2.34
-3.27
-3.86
-4.15
-4.3
-4.45
-4.76
-5.3
-6.08
-7.08
-8.12
-8.91
-9.18
-8.71
-7.47
-5.63
-3.48
-1.27
0.89
3.01
5.18
7.42
9.63
11.65
13.31
14.55
15.31
15.54
15.13
13.94
11.87
9.06
5.83
2.66
-0.05
-2.05
-3.36
-4.12
-4.5
-4.65
-4.63
-4.47
-4.18
-3.79
-3.31
-2.77
-2.2
-1.68
-1.33
-1.27
-1.55
-2.2
-3.12
-4.21
-5.29
-6.17
-6.62
-6.49
-5.69
-4.32
-2.65
-1.06
0.11
0.66
0.52
-0.15
-1.13
-2.12
-2.96
-3.56
-3.92
-4.06
-4
-3.72
-3.24
-2.6
-1.94
-1.45
-1.29
-1.55
-2.18
-3.07
-4.07
-5.09
-6.18
-7.36
-8.68
-10.1
-11.39
-12.31
-12.61
-12.16
-10.99
-9.25
-7.14
-4.85
-2.51
-0.24
1.89
3.83
5.5
6.82
7.74
8.21
8.2
7.74
6.94
5.93
4.85
3.82
2.87
2.07
1.49
1.24
1.3
1.59
1.87
1.89
1.53
0.79
-0.19
-1.29
-2.47
-3.76
-5.22
-6.79
-8.36
-9.76
-10.89
-11.74
-12.35
-12.66
-12.54
-11.8
-10.31
-8.12
-5.41
-2.46
0.46
3.12
5.34
6.94
7.76
7.73
6.88
5.46
3.82
2.3
1.22
0.76
0.97
1.81
3.11
4.63
6.12
7.34
8.15
8.58
8.64
8.33
7.57
6.31
4.5
2.27
-0.18
-2.52
-4.47
-5.85
-6.58
-6.65
-6.17
-5.28
-4.14
-2.98
-1.99
-1.31
-1
-1.04
-1.37
-1.97
-2.83
-3.91
-5.14
-6.4
-7.53
-8.44
-9.08
-9.51
-9.81
-10.06
-10.29
-10.52
-10.81
-11.19
-11.66
-12.09
-12.17
-11.56
-9.98
-7.38
-3.98
-0.15
3.75
7.52
11.09
14.43
17.42
19.84
21.41
22.03
21.76
20.83
19.48
17.77
15.66
13.06
10
6.71
3.6
1.12
-0.43
-0.98
-0.72
-0.01
0.75
1.26
1.33
0.99
0.36
-0.32
-0.92
-1.34
-1.58
-1.71
-1.76
-1.79
-1.8
-1.86
-2
-2.23
-2.4
-2.24
-1.47
0.09
2.35
5
7.58
9.62
10.84
11.14
10.56
9.27
7.37
5.02
2.39
-0.38
-3.14
-5.77
-8.16
-10.14
-11.55
-12.22
-12.14
-11.42
-10.37
-9.36
-8.71
-8.61
-9.1
-10.09
-11.26
-12.12
-11.99
-10.33
-6.97
-2.35
2.61
6.87
9.7
10.97
11.06
10.55
9.86
9.02
7.8
6
3.67
1.08
-1.37
-3.46
-5.16
-6.56
-7.81
-8.92
-9.84
-10.42
-10.58
-10.24
-9.37
-8.01
-6.17
-4.01
-1.71
0.45
2.26
3.6
4.51
5.19
5.78
6.38
6.91
7.26
7.37
7.33
7.36
7.74
8.55
9.7
10.96
12.07
12.88
13.39
13.63
13.62
13.3
12.64
11.64
10.5
9.49
8.88
8.8
9.18
9.77
10.24
10.32
9.86
8.91
7.61
6.1
4.43
2.46
0.09
-2.71
-5.72
-8.57
-10.81
-12.19
-12.72
-12.61
-12.1
-11.32
-10.23
-8.68
-6.59
-4.03
-1.23
1.46
3.74
5.35
6.17
6.15
5.37
4.01
2.32
0.65
-0.75
-1.73
-2.27
-2.43
-2.25
-1.79
-1.04
-0.1
0.87
1.63
1.96
1.71
0.89
-0.39
-1.95
-3.58
-5.13
-6.43
-7.42
-8.04
-8.3
-8.19
-7.65
-6.64
-5.1
-3.15
-0.91
1.36
3.43
5.12
6.31
6.93
6.94
6.36
5.15
3.4
1.23
-1.12
-3.37
-5.19
-6.42
-7.03
-7.12
-6.96
-6.73
-6.47
-6.15
-5.72
-5.24
-4.94
-5.13
-5.95
-7.33
-8.96
-10.47
-11.6
-12.31
-12.67
-12.76
-12.5
-11.73
-10.28
-8.06
-5.18
-1.9
1.44
4.48
6.87
8.34
8.72
8.04
6.57
4.69
2.77
1.06
-0.41
-1.76
-3.09
-4.47
-5.84
-7.12
-8.25
-9.21
-9.99
-10.49
-10.57
-10.03
-8.79
-6.98
-4.99
-3.35
-2.41
-2.19
-2.33
-2.26
-1.55
-0.02
2.16
4.75
7.61
10.81
14.46
18.44
22.3
25.24
26.6
26.12
24.16
21.43
18.7
16.34
14.29
12.25
9.97
7.47
5.05
3.07
1.72
0.95
0.47
-0.02
-0.64
-1.32
-1.84
-2.02
-1.9
-1.65
-1.62
-2.08
-3.13
-4.65
-6.36
-7.93
-9.08
-9.64
-9.56
-8.91
-7.76
-6.17
-4.21
-1.99
0.31
2.4
4.03
5.03
5.38
5.23
4.86
4.48
4.18
3.92
3.6
3.13
2.59
2.12
1.8
1.67
1.58
1.33
0.73
-0.26
-1.56
-2.96
-4.3
-5.54
-6.79
-8.25
-10.02
-12.09
-14.22
-16.13
-17.49
-18.12
-17.95
-16.99
-15.27
-12.81
-9.71
-6.15
-2.46
1.01
3.92
6.09
7.47
8.12
8.19
7.88
7.32
6.7
6.16
5.71
5.39
5.14
4.89
4.64
4.41
4.19
3.98
3.78
3.53
3.25
3.02
2.86
2.87
3.05
3.3
3.55
3.75
3.89
3.94
3.74
2.98
1.39
-1.05
-3.9
-6.42
-7.78
-7.55
-5.81
-3.15
-0.32
2.18
4.21
5.96
7.61
9.15
10.31
10.77
10.44
9.53
8.52
7.81
7.54
7.59
7.67
7.51
7.05
6.4
5.68
4.97
4.22
3.32
2.24
0.99
-0.37
-1.81
-3.31
-4.89
-6.51
-8
-9.19
-9.95
-10.28
-10.26
-10.04
-9.68
-9.15
-8.37
-7.23
-5.82
-4.36
-3.16
-2.53
-2.64
-3.49
-4.81
-6.2
-7.21
-7.48
-6.86
-5.4
-3.36
-1.04
1.23
3.3
5.01
6.26
6.94
6.95
6.32
5.24
4.05
3.11
2.59
2.4
2.19
1.62
0.49
-1.03
-2.58
-3.73
-4.3
-4.3
-3.89
-3.23
-2.24
-0.88
0.93
2.98
4.89
6.26
6.88
6.84
6.42
5.88
5.3
4.5
3.24
1.44
-0.72
-2.85
-4.47
-5.27
-5.19
-4.38
-3.17
-1.88
-0.78
-0.05
0.23
0.07
-0.41
-1.04
-1.61
-1.97
-1.97
-1.53
-0.63
0.62
1.99
3.15
3.79
3.76
3.19
2.42
1.86
1.78
2.23
3.11
4.2
5.39
6.68
8.11
9.6
10.96
11.94
12.32
12.09
11.37
10.39
9.34
8.26
7.15
6
4.9
4.01
3.48
3.31
3.28
3.1
2.49
1.35
-0.26
-2.17
-4.19
-6.21
-8.13
-9.92
-11.43
-12.52
-13.08
-12.99
-12.27
-10.97
-9.19
-7.06
-4.77
-2.53
-0.56
0.91
1.78
2.07
1.95
1.62
1.27
0.96
0.63
0.16
-0.59
-1.63
-2.88
-4.23
-5.59
-6.97
-8.38
-9.86
-11.31
-12.57
-13.47
-13.91
-13.97
-13.8
-13.61
-13.48
-13.37
-13.12
-12.56
-11.66
-10.5
-9.23
-7.9
-6.29
-4.06
-0.89
3.25
7.98
12.58
16.36
18.91
20.32
21.06
21.58
22.11
22.43
22.15
20.92
18.76
16.03
13.32
11.11
9.58
8.55
7.7
6.73
5.55
4.24
2.98
1.84
0.77
-0.45
-1.95
-3.74
-5.67
-7.45
-8.93
-10.06
-10.96
-11.77
-12.53
-13.08
-13.22
-12.76
-11.61
-9.9
-7.89
-5.91
-4.28
-3.18
-2.63
-2.54
-2.71
-2.94
-3.12
-3.26
-3.38
-3.54
-3.68
-3.74
-3.74
-3.72
-3.74
-3.76
-3.58
-2.84
-1.33
0.96
3.7
6.27
8.04
8.56
7.73
5.84
3.43
1.12
-0.49
-0.99
-0.28
1.47
3.76
5.95
7.48
7.97
7.39
6
4.24
2.49
1.03
-0.13
-1.13
-2.13
-3.24
-4.49
-5.8
-7.09
-8.29
-9.25
-9.91
-10.18
-9.98
-9.34
-8.35
-7.2
-6.19
-5.62
-5.63
-6.28
-7.42
-8.82
-10.23
-11.46
-12.42
-13.13
-13.64
-13.99
-14.17
-14.1
-13.62
-12.63
-11.01
-8.76
-6.01
-2.92
0.24
3.28
6.01
8.32
10.08
11.25
11.83
11.87
11.55
11.04
10.57
10.31
10.36
10.69
11.17
11.62
11.85
11.82
11.51
11.03
10.48
9.92
9.35
8.73
7.98
7.06
5.98
4.81
3.64
2.64
1.98
1.78
1.97
2.33
2.56
2.43
1.89
1.09
0.36
0.01
0.24
1.03
2.15
3.25
4.07
4.43
4.35
3.94
3.29
2.51
1.67
0.82
0.08
-0.38
-0.38
0.21
1.41
3.07
5.04
7.14
9.17
10.92
12.15
12.66
12.3
11.15
9.37
7.29
5.2
3.28
1.61
0.1
-1.32
-2.71
-3.98
-5.02
-5.71
-6.04
-6.09
-6.01
-5.91
-5.8
-5.58
-5.03
-4.07
-2.75
-1.27
0.06
1.03
1.6
1.9
2.16
2.62
3.32
4.05
4.49
4.34
3.46
2
0.28
-1.32
-2.53
-3.2
-3.34
-3.04
-2.43
-1.71
-1.12
-0.92
-1.34
-2.41
-3.91
-5.41
-6.42
-6.55
-5.69
-4
-1.87
0.17
1.7
2.44
2.26
1.19
-0.74
-3.45
-6.8
-10.53
-14.28
-17.52
-19.73
-20.52
-19.76
-17.63
-14.55
-11.03
-7.53
-4.39
-1.78
0.18
1.44
1.94
1.69
0.88
-0.13
-0.87
-0.91
-0.08
1.46
3.3
4.95
6
6.3
5.96
5.22
4.34
3.49
2.76
2.14
1.64
1.27
1.03
0.9
0.83
0.75
0.55
0.16
-0.44
-1.22
-2.15
-3.2
-4.33
-5.47
-6.44
-7.01
-6.99
-6.23
-4.8
-2.93
-0.94
0.93
2.57
4.02
5.34
6.57
7.64
8.38
8.66
8.43
7.78
6.88
5.96
5.18
4.66
4.39
4.32
4.33
4.3
4.14
3.79
3.25
2.52
1.7
0.85
0.08
-0.54
-1.01
-1.37
-1.68
-1.97
-2.25
-2.5
-2.74
-3.03
-3.45
-4.04
-4.71
-5.2
-5.13
-4.19
-2.31
0.3
3.14
5.64
7.33
8.02
7.77
6.76
5.18
3.11
0.57
-2.35
-5.36
-8.02
-9.79
-10.3
-9.52
-7.7
-5.32
-2.81
-0.5
1.54
3.3
4.79
5.93
6.57
6.65
6.21
5.34
4.18
2.77
1.14
-0.67
-2.52
-4.21
-5.53
-6.49
-7.3
-8.31
-9.86
-11.99
-14.46
-16.76
-18.32
-18.75
-17.96
-16.18
-13.89
-11.59
-9.68
-8.27
-7.2
-6.11
-4.63
-2.57
0.07
3.1
6.22
9.18
11.79
13.98
15.71
16.95
17.72
17.99
17.77
17.01
15.68
13.72
11.17
8.13
4.78
1.36
-1.91
-4.79
-7.13
-8.73
-9.53
-9.58
-9.12
-8.5
-8.02
-7.82
-7.73
-7.43
-6.54
-4.81
-2.32
0.62
3.53
5.96
7.57
8.2
7.83
6.55
4.54
2.03
-0.66
-3.16
-5.13
-6.35
-6.81
-6.73
-6.39
-6.02
-5.75
-5.47
-4.98
-4.1
-2.75
-1.04
0.74
2.18
2.96
2.85
1.91
0.39
-1.31
-2.84
-3.96
-4.61
-4.83
-4.65
-4
-2.76
-0.91
1.39
3.81
5.91
7.31
7.86
7.61
6.75
5.51
4.03
2.39
0.63
-1.12
-2.67
-3.77
-4.19
-3.86
-2.86
-1.42
0.11
1.51
2.68
3.65
4.46
5.12
5.51
5.47
4.84
3.52
1.65
-0.54
-2.75
-4.71
-6.25
-7.37
-8.09
-8.46
-8.43
-7.87
-6.67
-4.84
-2.58
-0.24
1.74
3.07
3.68
3.75
3.58
3.48
3.61
3.92
4.23
4.31
4.02
3.39
2.55
1.7
1
0.56
0.45
0.68
1.2
1.89
2.55
2.95
2.87
2.25
1.15
-0.27
-1.83
-3.44
-5.03
-6.52
-7.8
-8.66
-8.87
-8.34
-7.06
-5.18
-2.9
-0.43
2.09
4.55
6.81
8.65
9.81
10.04
9.2
7.31
4.63
1.53
-1.59
-4.38
-6.67
-8.42
-9.59
-10.15
-10.01
-9.07
-7.33
-4.99
-2.44
-0.13
1.54
2.34
2.3
1.54
0.27
-1.34
-3.16
-5.03
-6.69
-7.9
-8.47
-8.41
-7.9
-7.21
-6.56
-5.97
-5.24
-4.09
-2.33
0.03
2.69
5.22
7.24
8.5
8.99
8.84
8.2
7.25
6.14
5.03
4.13
3.63
3.65
4.15
4.96
5.75
6.22
6.11
5.27
3.73
1.72
-0.4
-2.27
-3.69
-4.69
-5.53
-6.52
-7.8
-9.27
-10.65
-11.63
-12.01
-11.83
-11.17
-10.04
-8.42
-6.22
-3.52
-0.58
2.2
4.44
5.93
6.74
7.07
7.17
7.21
7.26
7.27
7.19
7.05
6.96
7.04
7.35
7.86
8.43
8.88
9.03
8.75
7.99
6.83
5.39
3.84
2.37
1.15
0.24
-0.38
-0.81
-1.18
-1.58
-2.05
-2.61
-3.24
-3.87
-4.35
-4.45
-3.91
-2.6
-0.6
1.79
4.15
6.11
7.5
8.34
8.8
9.03
9.1
8.91
8.35
7.32
5.89
4.21
2.5
0.97
-0.23
-1.07
-1.61
-1.95
-2.27
-2.63
-3.16
-3.86
-4.76
-5.81
-6.92
-7.99
-8.92
-9.67
-10.24
-10.72
-11.2
-11.73
-12.31
-12.86
-13.14
-12.91
-11.93
-10.03
-7.24
-3.79
-0.08
3.44
6.35
8.44
9.71
10.29
10.38
10.14
9.7
9.15
8.55
7.98
7.54
7.27
7.24
7.41
7.75
8.18
8.6
8.85
8.69
7.94
6.5
4.49
2.11
-0.35
-2.67
-4.78
-6.72
-8.54
-10.2
-11.56
-12.44
-12.75
-12.57
-12.03
-11.22
-10.06
-8.36
-5.9
-2.69
0.99
4.6
7.61
9.65
10.62
10.65
10.06
9.11
7.99
6.82
5.72
4.75
4
3.49
3.21
3.15
3.28
3.54
3.9
4.29
4.58
4.6
4.22
3.35
2.13
0.77
-0.51
-1.56
-2.39
-3.13
-3.89
-4.71
-5.55
-6.34
-7.02
-7.57
-7.91
-7.85
-7.15
-5.59
-3.12
0.04
3.48
6.67
9.17
10.79
11.48
11.44
10.87
10
8.98
7.92
6.88
5.93
5.21
4.82
4.82
5.21
5.8
6.33
6.55
6.32
5.63
4.61
3.44
2.27
1.2
0.2
-0.75
-1.69
-2.63
-3.57
-4.57
-5.66
-6.9
-8.29
-9.68
-10.83
-11.35
-10.88
-9.28
-6.65
-3.4
-0.03
2.97
5.3
6.87
7.74
8
7.7
6.91
5.7
4.23
2.69
1.35
0.33
-0.28
-0.57
-0.63
-0.53
-0.34
-0.05
0.29
0.63
0.84
0.79
0.36
-0.51
-1.79
-3.39
-5.14
-6.83
-8.25
-9.27
-9.85
-10.11
-10.22
-10.22
-10.02
-9.31
-7.75
-5.21
-1.89
1.71
4.93
7.21
8.26
8.11
7.08
5.55
3.9
2.4
1.2
0.34
-0.21
-0.51
-0.65
-0.6
-0.35
0.17
0.93
1.83
2.69
3.32
3.6
3.48
3.01
2.24
1.19
-0.16
-1.79
-3.64
-5.53
-7.21
-8.47
-9.25
-9.6
-9.61
-9.28
-8.44
-6.86
-4.38
-1.04
2.83
6.7
10.04
12.5
14
14.64
14.58
13.94
12.77
11.18
9.34
7.53
6.05
5.14
4.85
5.05
5.53
5.99
6.26
6.25
6
5.57
4.99
4.29
3.41
2.34
1.02
-0.57
-2.43
-4.53
-6.77
-9.01
-11.05
-12.72
-13.85
-14.3
-13.92
-12.6
-10.26
-6.96
-2.94
1.35
5.38
8.61
10.7
11.58
11.46
10.68
9.64
8.59
7.6
6.62
5.58
4.52
3.58
2.99
2.91
3.3
3.95
4.59
4.94
4.91
4.51
3.78
2.7
1.22
-0.69
-2.92
-5.16
-7.1
-8.5
-9.34
-9.78
-10.07
-10.38
-10.7
-10.85
-10.52
-9.5
-7.7
-5.27
-2.5
0.28
2.78
4.82
6.37
7.46
8.13
8.42
8.31
7.83
7.03
6.12
5.31
4.83
4.81
5.23
5.9
6.54
6.91
6.88
6.49
5.83
5.01
4.08
3.02
1.83
0.54
-0.83
-2.26
-3.74
-5.28
-6.87
-8.37
-9.61
-10.4
-10.58
-10.01
-8.63
-6.42
-3.49
-0.13
3.27
6.21
8.32
9.39
9.52
8.92
7.88
6.62
5.23
3.79
2.39
1.19
0.4
0.17
0.5
1.22
2.05
2.73
3.13
3.22
3.07
2.74
2.26
1.56
0.58
-0.69
-2.19
-3.82
-5.49
-7.17
-8.89
-10.6
-12.25
-13.62
-14.41
-14.34
-13.22
-11.04
-8.05
-4.64
-1.33
1.45
3.4
4.46
4.75
4.5
4
3.39
2.76
2.07
1.34
0.62
0.07
-0.12
0.11
0.74
1.58
2.44
3.16
3.7
4.07
4.32
4.41
4.21
3.58
2.48
0.96
-0.76
-2.44
-3.83
-4.81
-5.34
-5.53
-5.47
-5.19
-4.64
-3.57
-1.81
0.7
3.78
7
9.87
12.01
13.34
13.98
14.19
14.13
13.85
13.27
12.37
11.23
10.07
9.14
8.57
8.43
8.67
9.18
9.87
10.57
11.07
11.22
10.91
10.18
9.17
8.05
6.96
5.92
4.91
3.92
3.02
2.35
2.07
2.28
3.01
4.2
5.72
7.39
9.02
10.43
11.52
12.25
12.56
12.34
11.44
9.67
6.94
3.31
-0.99
-5.61
-10.2
-14.47
-18.23
-21.4
-24.02
-26.25
-28.36
-30.61
-33.11
-35.72
-38.02
-39.63
-40.3
-40.19
-39.74
-39.44
-39.58
-40.03
-40.35
-39.99
-38.66
-36.4
-33.6
-30.72
-28.08
-25.7
-23.25
-20.21
-16.07
-10.53
-3.71
3.84
11.25
17.59
22.15
24.7
25.47
25.02
23.98
22.76
21.49
20.09
18.52
16.83
15.3
14.18
13.57
13.3
12.99
12.21
10.71
8.54
6.02
3.58
1.6
0.23
-0.63
-1.28
-2
-2.98
-4.24
-5.57
-6.67
-7.22
-6.89
-5.49
-3.07
0.08
3.44
6.3
8.06
8.31
7
4.47
1.3
-1.91
-4.66
-6.65
-7.79
-8.1
-7.66
-6.56
-4.98
-3.14
-1.35
0.06
0.87
1.04
0.67
0
-0.76
-1.53
-2.35
-3.34
-4.57
-6.01
-7.5
-8.83
-9.8
-10.28
-10.21
-9.58
-8.44
-6.79
-4.68
-2.23
0.37
2.84
4.83
6.03
6.24
5.46
3.9
1.95
0.07
-1.32
-1.89
-1.53
-0.26
1.78
4.35
7.11
9.73
11.87
13.31
13.97
13.88
13.17
12.04
10.62
9.02
7.3
5.44
3.43
1.27
-1.01
-3.26
-5.2
-6.6
-7.28
-7.21
-6.62
-5.74
-4.79
-3.87
-2.87
-1.66
-0.19
1.41
2.87
3.87
4.21
3.89
3.09
2.1
1.2
0.55
0.25
0.32
0.72
1.38
2.22
3.07
3.78
4.16
4.12
3.69
3.01
2.26
1.62
1.21
1.04
1.02
1.02
0.94
0.76
0.57
0.51
0.73
1.4
2.64
4.52
7.06
10.12
13.41
16.49
18.79
19.81
19.34
17.49
14.75
11.75
9.05
6.97
5.52
4.46
3.49
2.34
0.89
-0.89
-2.98
-5.35
-7.89
-10.43
-12.78
-14.69
-16.02
-16.74
-16.93
-16.75
-16.43
-16.17
-16.16
-16.46
-16.97
-17.49
-17.73
-17.33
-16.06
-13.82
-10.71
-7.09
-3.41
-0.13
2.42
4.12
5.09
5.58
5.85
6.02
6.13
6.14
6.11
6.18
6.53
7.3
8.46
9.86
11.23
12.34
13.04
13.27
13
12.25
11.07
9.58
7.93
6.28
4.68
3.11
1.45
-0.34
-2.23
-4.07
-5.64
-6.74
-7.24
-7.06
-6.17
-4.55
-2.25
0.61
3.8
7.03
10.02
12.59
14.61
15.88
16.2
15.27
12.93
9.23
4.59
-0.32
-4.69
-7.92
-9.82
-10.53
-10.46
-10.02
-9.46
-8.9
-8.38
-7.97
-7.88
-8.33
-9.43
-11.13
-13.15
-15.14
-16.81
-17.99
-18.63
-18.74
-18.31
-17.29
-15.72
-13.69
-11.3
-8.78
-6.24
-3.75
-1.35
0.89
2.78
4.11
4.71
4.63
4.09
3.47
3.05
2.94
3.06
3.15
3.04
2.66
2.08
1.39
0.61
-0.35
-1.61
-3.14
-4.86
-6.55
-8.06
-9.37
-10.59
-11.83
-13.16
-14.46
-15.46
-15.89
-15.48
-14.09
-11.67
-8.27
-4.05
0.7
5.63
10.36
14.53
17.91
20.34
21.73
22.06
21.34
19.66
17.28
14.59
12
9.87
8.34
7.29
6.47
5.58
4.41
2.92
1.21
-0.61
-2.47
-4.38
-6.38
-8.47
-10.56
-12.43
-13.9
-14.85
-15.23
-15.05
-14.3
-12.94
-10.93
-8.38
-5.5
-2.6
-0.03
1.99
3.39
4.2
4.55
4.63
4.55
4.45
4.37
4.36
4.39
4.43
4.53
4.78
5.34
6.28
7.5
8.63
9.27
9.03
7.79
5.72
3.22
0.7
-1.57
-3.48
-5.09
-6.45
-7.61
-8.49
-8.97
-8.95
-8.3
-6.98
-4.92
-2.24
0.87
4.08
7.02
9.43
11.09
11.94
11.99
11.35
10.1
8.38
6.4
4.47
2.9
1.9
1.47
1.38
1.32
0.96
0.1
-1.18
-2.68
-4.15
-5.44
-6.47
-7.34
-8.16
-8.98
-9.78
-10.38
-10.6
-10.25
-9.24
-7.58
-5.34
-2.66
0.31
3.38
6.42
9.13
11.28
12.63
13.09
12.66
11.5
9.79
7.6
5.04
2.19
-0.72
-3.35
-5.32
-6.39
-6.53
-5.9
-4.81
-3.54
-2.25
-1.06
-0
0.84
1.44
1.72
1.72
1.47
1.01
0.32
-0.58
-1.64
-2.74
-3.63
-4.08
-3.91
-3.09
-1.71
0.07
2.06
4.08
5.94
7.48
8.58
9.16
9.25
8.98
8.49
7.91
7.33
6.76
6.14
5.47
4.78
4.1
3.5
3.06
2.8
2.79
2.99
3.31
3.58
3.63
3.36
2.72
1.78
0.65
-0.58
-1.82
-3.06
-4.27
-5.36
-6.21
-6.71
-6.75
-6.35
-5.56
-4.59
-3.63
-2.89
-2.49
-2.45
-2.73
-3.27
-4.01
-4.78
-5.43
-5.75
-5.54
-4.77
-3.51
-1.95
-0.23
1.52
3.36
5.38
7.65
10.12
12.55
14.62
16
16.52
16.15
15.1
13.68
12.11
10.48
8.73
6.77
4.68
2.77
1.51
1.32
2.43
4.7
7.66
10.55
12.45
12.46
9.93
4.65
-2.98
-11.91
-20.76
-28.13
-33.13
-35.54
-35.81
-34.73
-33.13
-31.56
-30.22
-29.08
-27.92
-26.57
-24.92
-22.9
-20.49
-17.69
-14.42
-10.69
-6.56
-2.13
2.36
6.72
10.77
14.43
17.71
20.69
23.46
26.02
28.24
29.87
30.62
30.24
28.61
25.79
21.98
17.49
12.65
7.76
3.05
-1.26
-4.96
-7.82
-9.68
-10.46
-10.21
-9.13
-7.51
-5.63
-3.75
-2.06
-0.71
0.17
0.5
0.21
-0.61
-1.83
-3.16
-4.34
-5.13
-5.34
-4.86
-3.63
-1.73
0.65
3.13
5.31
6.82
7.45
7.24
6.43
5.3
4.06
2.8
1.54
0.3
-0.75
-1.4
-1.39
-0.59
0.86
2.62
4.19
5.16
5.34
4.87
4.05
3.21
2.51
1.9
1.25
0.47
-0.36
-1.03
-1.26
-0.92
0.03
1.54
3.6
6.24
9.48
13.13
16.78
19.88
21.97
22.82
22.63
21.8
20.74
19.59
18.15
16.1
13.22
9.63
5.77
2.22
-0.61
-2.65
-4.15
-5.5
-7.01
-8.72
-10.47
-12.05
-13.28
-14.21
-15.08
-16.13
-17.51
-19.2
-20.99
-22.6
-23.8
-24.4
-24.32
-23.55
-22.02
-19.75
-16.77
-13.3
-9.73
-6.46
-3.87
-2.15
-1.34
-1.38
-2.18
-3.59
-5.4
-7.25
-8.67
-9.23
-8.69
-7.08
-4.68
-1.92
0.81
3.24
5.25
6.81
7.9
8.51
8.66
8.33
7.48
6.07
4.07
1.45
-1.67
-5.05
-8.32
-11.01
-12.74
-13.25
-12.55
-10.8
-8.27
-5.23
-1.86
1.71
5.32
8.73
11.57
13.45
14.1
13.46
11.82
9.67
7.55
5.88
4.85
4.37
4.26
4.38
4.67
5.16
5.88
6.74
7.53
8.01
8.05
7.64
6.94
6.14
5.32
4.46
3.48
2.38
1.26
0.33
-0.19
-0.17
0.45
1.62
3.24
5.12
6.97
8.45
9.26
9.3
8.69
7.73
6.71
5.77
4.9
4.02
3.2
2.65
2.72
3.72
5.73
8.59
11.91
15.3
18.36
20.82
22.47
23.13
22.68
21.14
18.71
15.66
12.39
9.12
6.03
3.15
0.48
-1.9
-3.9
-5.37
-6.3
-6.74
-6.9
-7.01
-7.31
-7.93
-8.98
-10.5
-12.4
-14.59
-16.83
-18.82
-20.22
-20.74
-20.2
-18.58
-16.08
-13.05
-10.04
-7.62
-6.24
-6.1
-7.03
-8.61
-10.3
-11.68
-12.57
-13.01
-13.14
-13.1
-12.94
-12.66
-12.21
-11.59
-10.84
-9.95
-8.87
-7.48
-5.69
-3.49
-1.01
1.49
3.7
5.31
6.16
6.23
5.65
4.63
3.4
2.17
1.08
0.24
-0.26
-0.38
-0.15
0.31
0.79
1.05
0.93
0.38
-0.43
-1.24
-1.79
-1.97
-1.95
-2.06
-2.66
-3.92
-5.73
-7.68
-9.25
-10.03
-9.88
-8.91
-7.35
-5.44
-3.33
-1.19
0.79
2.29
3
2.8
1.84
0.47
-0.85
-1.78
-2.17
-2.03
-1.45
-0.49
0.84
2.58
4.64
6.89
9.08
10.99
12.47
13.5
14.17
14.63
14.98
15.19
15.13
14.55
13.22
11.13
8.53
5.88
3.73
2.44
2.09
2.53
3.42
4.45
5.47
6.45
7.41
8.37
9.24
9.96
10.58
11.21
11.99
12.97
14.03
14.95
15.49
15.62
15.54
15.61
16.15
17.25
18.64
19.83
20.28
19.59
17.65
14.65
10.98
7.06
3.3
-0.03
-2.84
-5.12
-6.93
-8.39
-9.61
-10.71
-11.76
-12.71
-13.42
-13.7
-13.33
-12.15
-10.21
-7.67
-4.79
-1.92
0.57
2.19
2.37
0.72
-2.71
-7.33
-12.01
-15.49
-16.91
-16.15
-13.91
-11.25
-9.11
-7.9
-7.44
-7.26
-6.98
-6.54
-6.08
-5.83
-5.82
-5.89
-5.85
-5.56
-5.09
-4.67
-4.64
-5.21
-6.32
-7.71
-8.92
-9.49
-9.08
-7.65
-5.46
-3.01
-0.79
0.82
1.71
1.91
1.58
0.79
-0.4
-1.95
-3.71
-5.45
-6.89
-7.83
-8.17
-7.97
-7.39
-6.61
-5.76
-4.94
-4.25
-3.82
-3.76
-4.13
-4.88
-5.91
-7.1
-8.32
-9.47
-10.47
-11.26
-11.82
-12.13
-12.16
-11.89
-11.23
-10.03
-8.24
-5.89
-3.14
-0.3
2.31
4.41
5.88
6.71
7
6.83
6.29
5.43
4.34
3.08
1.79
0.56
-0.49
-1.27
-1.74
-1.84
-1.58
-0.94
0.06
1.43
3.05
4.73
6.15
6.97
6.95
6
4.31
2.22
0.14
-1.67
-3.11
-4.23
-5.03
-5.44
-5.27
-4.36
-2.62
-0.19
2.67
5.59
8.32
10.75
12.9
14.83
16.59
18.1
19.17
19.59
19.17
17.91
15.96
13.59
11.07
8.62
6.29
4.11
2.06
0.11
-1.7
-3.32
-4.7
-5.82
-6.69
-7.42
-8.09
-8.77
-9.47
-10.07
-10.5
-10.71
-10.73
-10.66
-10.52
-10.2
-9.4
-7.85
-5.39
-2.21
1.27
4.55
7.24
9.22
10.65
11.77
12.78
13.72
14.53
15.17
15.69
16.16
16.62
17.07
17.45
17.69
17.8
17.8
17.74
17.59
17.21
16.49
15.42
14.14
12.87
11.79
10.98
10.37
9.86
9.43
9.15
9.19
9.62
10.41
11.4
12.49
13.75
15.38
17.58
20.31
23.17
25.36
26.04
24.51
20.56
14.47
6.95
-1.08
-8.75
-15.39
-20.65
-24.43
-26.97
-28.66
-29.95
-31.16
-32.4
-33.56
-34.43
-34.84
-34.64
-33.72
-31.98
-29.36
-26.06
-22.59
-19.77
-18.47
-19.16
-21.64
-24.99
-28.08
-29.94
-30.23
-29.21
-27.37
-25.1
-22.4
-19.05
-14.86
-10.01
-5.02
-0.54
2.91
5.22
6.53
7.12
7.17
6.72
5.71
4.21
2.42
0.73
-0.48
-0.98
-0.79
-0.09
0.8
1.54
1.87
1.6
0.72
-0.71
-2.57
-4.78
-7.29
-10.11
-13.19
-16.35
-19.31
-21.75
-23.42
-24.22
-24.11
-23.01
-20.76
-17.18
-12.34
-6.63
-0.78
4.43
8.43
11.16
12.99
14.51
16.17
18.12
20.18
21.97
23.21
23.82
23.93
23.8
23.67
23.63
23.56
23.15
22.01
19.89
16.8
13.03
9.03
5.28
2.02
-0.7
-3.04
-5.14
-7.07
-8.74
-10.01
-10.8
-11.08
-10.92
-10.32
-9.25
-7.63
-5.48
-2.88
-0.15
2.45
4.67
6.4
7.7
8.59
9.1
9.19
8.82
8.05
7.05
6.09
5.31
4.8
4.46
4.15
3.8
3.33
2.82
2.28
1.72
1.03
0.13
-0.98
-2.24
-3.48
-4.64
-5.68
-6.6
-7.38
-7.97
-8.24
-8.05
-7.36
-6.1
-4.32
-2.07
0.49
3.14
5.61
7.55
8.78
9.24
9.11
8.58
7.84
6.93
5.79
4.34
2.55
0.54
-1.51
-3.37
-4.9
-6.08
-7
-7.82
-8.7
-9.72
-10.83
-11.84
-12.43
-12.32
-11.33
-9.47
-6.97
-4.17
-1.45
0.86
2.59
3.76
4.55
5.26
6.19
7.51
9.27
11.29
13.27
14.87
15.85
16.01
15.29
13.73
11.44
8.68
5.79
3.15
1.11
-0.16
-0.7
-0.74
-0.54
-0.37
-0.37
-0.54
-0.82
-1.14
-1.49
-1.92
-2.46
-3.08
-3.78
-4.5
-5.26
-6.09
-7.03
-8.09
-9.22
-10.32
-11.3
-12.13
-12.84
-13.53
-14.28
-15.1
-16
-17.04
-18.32
-19.99
-22.12
-24.52
-26.77
-28.27
-28.46
-27.02
-23.94
-19.5
-14.12
-8.22
-2.11
3.94
9.72
14.98
19.51
23.19
25.98
27.94
29.06
29.32
28.64
27.02
24.56
21.47
18.09
14.73
11.66
9.02
7
5.74
5.42
6.14
7.8
10.07
12.45
14.37
15.37
15.21
13.86
11.47
8.3
4.57
0.52
-3.64
-7.67
-11.28
-14.19
-16.1
-16.81
-16.2
-14.34
-11.43
-7.8
-3.81
0.18
3.92
7.16
9.74
11.6
12.68
13.03
12.77
12.03
10.96
9.72
8.42
7.19
6.17
5.49
5.23
5.33
5.6
5.81
5.79
5.43
4.81
4.09
3.36
2.64
1.89
1.08
0.23
-0.47
-0.88
-0.92
-0.65
-0.32
-0.16
-0.35
-0.89
-1.67
-2.48
-3.1
-3.39
-3.32
-2.99
-2.61
-2.42
-2.58
-3.09
-3.65
-3.88
-3.34
-1.69
1.16
5.1
9.81
14.75
19.26
22.67
24.44
24.39
22.79
20.2
17.28
14.46
11.84
9.29
6.69
4.07
1.69
-0.09
-1.15
-1.57
-1.73
-2.02
-2.71
-3.85
-5.3
-6.89
-8.47
-10.06
-11.77
-13.73
-16.03
-18.59
-21.2
-23.55
-25.37
-26.48
-26.86
-26.52
-25.47
-23.69
-21.16
-17.94
-14.22
-10.41
-6.94
-4.18
-2.27
-1.16
-0.7
-0.73
-1.18
-2.03
-3.25
-4.66
-6.01
-6.95
-7.19
-6.7
-5.71
-4.61
-3.8
-3.46
-3.44
-3.43
-3.12
-2.35
-1.29
-0.3
0.21
-0
-0.91
-2.19
-3.41
-4.12
-3.99
-2.87
-0.82
1.96
5.15
8.4
11.43
14.02
16.01
17.27
17.67
17.13
15.71
13.58
11.14
8.8
6.96
5.85
5.49
5.72
6.29
6.94
7.5
7.87
7.97
7.73
7.05
5.83
4.04
1.73
-0.89
-3.59
-6.07
-8.05
-9.32
-9.7
-9.15
-7.78
-5.87
-3.79
-1.86
-0.19
1.29
2.85
4.68
6.71
8.66
10.09
10.67
10.31
9.26
7.91
6.7
5.95
5.8
6.22
7.06
8.06
8.91
9.41
9.45
9.11
8.6
8.06
7.53
6.86
5.88
4.43
2.43
-0.08
-3
-6.16
-9.28
-11.98
-13.8
-14.38
-13.61
-11.81
-9.6
-7.7
-6.58
-6.4
-6.93
-7.83
-8.74
-9.5
-10.12
-10.64
-11.07
-11.25
-10.89
-9.7
-7.46
-4.21
-0.15
4.32
8.89
13.31
17.53
21.62
25.64
29.6
33.44
37
40.05
42.25
43.12
42.17
39.01
33.56
26.11
17.38
8.53
0.74
-4.91
-7.8
-7.95
-6.07
-3.43
-1.46
-1.37
-3.65
-7.95
-13.21
-18.15
-21.7
-23.52
-23.89
-23.47
-22.83
-22.19
-21.42
-20.23
-18.56
-16.55
-14.59
-13
-11.88
-11.11
-10.53
-10.08
-9.8
-9.87
-10.39
-11.33
-12.52
-13.74
-14.84
-15.76
-16.53
-17.24
-18.02
-18.99
-20.06
-20.93
-21.14
-20.17
-17.66
-13.61
-8.4
-2.76
2.5
6.69
9.35
10.34
9.74
7.82
4.98
1.69
-1.61
-4.55
-6.89
-8.54
-9.45
-9.62
-9.07
-7.87
-6.16
-4.19
-2.23
-0.52
0.8
1.79
2.63
3.51
4.52
5.61
6.58
7.22
7.47
7.38
7.17
7.07
7.21
7.58
8.14
8.83
9.7
10.78
12.09
13.55
15
16.27
17.19
17.65
17.55
16.84
15.45
13.35
10.59
7.33
3.82
0.36
-2.7
-5.05
-6.47
-6.92
-6.62
-5.93
-5.33
-5.14
-5.49
-6.21
-7
-7.58
-7.81
-7.8
-7.79
-8.04
-8.63
-9.45
-10.24
-10.76
-10.92
-10.82
-10.6
-10.33
-9.87
-8.93
-7.17
-4.55
-1.29
2.06
4.93
6.92
7.98
8.39
8.53
8.71
9.01
9.35
9.6
9.7
9.71
9.83
10.13
10.61
11.07
11.27
11.04
10.35
9.32
8.16
7.05
6.05
5.11
4.07
2.8
1.2
-0.68
-2.7
-4.67
-6.45
-8
-9.31
-10.36
-10.99
-10.95
-9.99
-8.03
-5.27
-2.17
0.72
3
4.53
5.38
5.75
5.76
5.43
4.67
3.44
1.84
0.13
-1.38
-2.47
-3.03
-3.16
-3.04
-2.89
-2.89
-3.16
-3.72
-4.52
-5.49
-6.51
-7.46
-8.18
-8.64
-8.77
-8.68
-8.49
-8.31
-8.2
-8.03
-7.57
-6.54
-4.76
-2.19
0.96
4.33
7.55
10.28
12.28
13.42
13.66
13.03
11.67
9.77
7.59
5.47
3.74
2.66
2.31
2.55
3.06
3.44
3.34
2.64
1.47
0.1
-1.23
-2.46
-3.74
-5.35
-7.45
-9.99
-12.69
-15.14
-17.01
-18.13
-18.49
-18.15
-17.11
-15.29
-12.55
-8.87
-4.41
0.47
5.29
9.6
13.06
15.54
17.01
17.48
17.04
15.79
13.98
11.93
10.05
8.63
7.83
7.63
7.84
8.23
8.62
8.89
9.01
9
8.86
8.55
8.01
7.15
5.93
4.34
2.48
0.54
-1.3
-2.84
-4.02
-4.87
-5.45
-5.73
-5.67
-5.18
-4.25
-3.02
-1.75
-0.75
-0.23
-0.33
-1.01
-2.18
-3.75
-5.56
-7.41
-9.06
-10.24
-10.75
-10.57
-9.77
-8.56
-7.16
-5.74
-4.42
-3.28
-2.39
-1.76
-1.39
-1.22
-1.2
-1.3
-1.56
-2.06
-2.81
-3.71
-4.55
-5.11
-5.17
-4.65
-3.52
-1.87
0.18
2.49
4.86
7.08
8.91
10.2
10.94
11.19
11.06
10.58
9.7
8.37
6.65
4.78
3.15
2.1
1.81
2.23
3.05
3.91
4.48
4.61
4.29
3.66
2.87
1.98
1.07
0.08
-1
-2.19
-3.46
-4.72
-5.87
-6.72
-7.1
-6.83
-5.81
-4.08
-1.8
0.81
3.46
5.92
8.03
9.66
10.65
10.9
10.33
8.94
6.9
4.48
1.98
-0.27
-2.03
-3.12
-3.51
-3.3
-2.74
-2.15
-1.8
-1.86
-2.35
-3.23
-4.36
-5.67
-7.07
-8.52
-9.94
-11.23
-12.31
-13.19
-13.91
-14.51
-14.89
-14.85
-14.08
-12.39
-9.77
-6.46
-2.93
0.29
2.82
4.47
5.29
5.49
5.25
4.74
4.02
3.18
2.37
1.75
1.45
1.5
1.86
2.37
2.83
3.15
3.31
3.34
3.28
3.13
2.83
2.34
1.65
0.8
-0.14
-1.08
-1.97
-2.82
-3.63
-4.33
-4.84
-4.95
-4.46
-3.25
-1.37
0.99
3.48
5.79
7.71
9.14
10.11
10.71
10.96
10.77
10.03
8.67
6.8
4.76
2.96
1.82
1.46
1.74
2.35
2.88
3.05
2.73
1.93
0.72
-0.78
-2.47
-4.2
-5.75
-6.99
-7.92
-8.64
-9.35
-10.16
-11.03
-11.73
-11.99
-11.51
-10.14
-7.86
-4.8
-1.22
2.5
5.94
8.7
10.5
11.26
11.11
10.26
8.99
7.45
5.75
3.98
2.33
1.07
0.47
0.63
1.45
2.57
3.6
4.19
4.15
3.53
2.46
1.18
-0.17
-1.45
-2.57
-3.45
-4.07
-4.45
-4.67
-4.86
-5.11
-5.48
-5.87
-6.1
-5.87
-4.92
-3.17
-0.79
1.84
4.27
6.18
7.42
8.05
8.24
8.08
7.63
6.89
5.9
4.8
3.85
3.26
3.12
3.35
3.76
4.09
4.21
4.04
3.62
3.04
2.37
1.6
0.69
-0.38
-1.58
-2.79
-3.86
-4.69
-5.27
-5.72
-6.19
-6.77
-7.44
-8.03
-8.27
-7.9
-6.76
-4.8
-2.18
0.79
3.7
6.14
7.76
8.43
8.23
7.39
6.26
5.05
3.9
2.81
1.73
0.62
-0.44
-1.31
-1.86
-2.01
-1.85
-1.52
-1.2
-0.97
-0.87
-0.88
-1.03
-1.39
-1.98
-2.82
-3.76
-4.63
-5.28
-5.64
-5.78
-5.83
-5.91
-6
-6.02
-5.69
-4.79
-3.19
-0.91
1.83
4.65
7.09
8.82
9.71
9.87
9.51
8.84
8.04
7.16
6.2
5.17
4.16
3.28
2.7
2.53
2.79
3.44
4.3
5.15
5.78
6
5.7
4.88
3.69
2.33
0.99
-0.19
-1.11
-1.73
-2.04
-2.06
-1.89
-1.68
-1.65
-1.93
-2.53
-3.26
-3.77
-3.66
-2.66
-0.78
1.77
4.52
6.98
8.77
9.7
9.81
9.33
8.6
7.85
7.18
6.42
5.33
3.77
1.77
-0.27
-1.81
-2.39
-1.78
-0.2
1.86
3.84
5.39
6.39
6.94
7.17
7.1
6.62
5.65
4.27
2.75
1.53
0.9
0.89
1.23
1.45
1.21
0.41
-0.67
-1.55
-1.69
-0.86
0.89
3.17
5.39
7.07
7.89
7.81
6.95
5.61
4.03
2.44
0.95
-0.45
-1.76
-3.07
-4.42
-5.78
-6.99
-7.88
-8.29
-8.24
-7.92
-7.6
-7.58
-7.97
-8.74
-9.74
-10.88
-12.18
-13.74
-15.66
-17.91
-20.29
-22.48
-24.27
-25.57
-26.49
-27.21
-27.86
-28.46
-28.78
-28.56
-27.5
-25.48
-22.57
-19
-15.06
-11.05
-7.25
-3.84
-0.88
1.64
3.74
5.44
6.75
7.72
8.47
9.07
9.66
10.24
10.75
11.05
11
10.54
9.66
8.52
7.19
5.82
4.47
3.21
2.12
1.19
0.4
-0.39
-1.27
-2.25
-3.14
-3.66
-3.47
-2.41
-0.62
1.56
3.69
5.44
6.69
7.5
7.99
8.24
8.2
7.79
6.97
5.86
4.7
3.77
3.26
3.19
3.41
3.72
3.89
3.86
3.62
3.24
2.75
2.11
1.19
-0.14
-1.94
-4.11
-6.44
-8.67
-10.59
-12.08
-13.16
-13.88
-14.18
-13.91
-12.89
-10.93
-8.12
-4.75
-1.3
1.75
4.03
5.43
5.98
5.84
5.15
4.02
2.6
1.02
-0.57
-1.96
-2.91
-3.25
-2.84
-1.6
0.31
2.63
4.96
6.89
8.12
8.62
8.52
8.06
7.51
6.96
6.44
5.88
5.27
4.64
4.14
3.88
3.92
4.21
4.68
5.35
6.33
7.84
9.96
12.6
15.42
17.97
19.8
20.63
20.45
19.39
17.59
15.2
12.32
9.07
5.63
2.34
-0.52
-2.65
-3.88
-4.3
-4.16
-3.88
-3.89
-4.57
-6.08
-8.38
-11.23
-14.23
-17.02
-19.28
-20.87
-21.84
-22.34
-22.6
-22.82
-23.14
-23.56
-24.04
-24.45
-24.68
-24.6
-24.06
-22.88
-20.96
-18.28
-15.02
-11.55
-8.26
-5.58
-3.7
-2.6
-2.07
-1.84
-1.69
-1.53
-1.35
-1.15
-0.9
-0.5
0.22
1.38
2.99
4.94
7.02
8.98
10.59
11.69
12.18
12.01
11.22
9.91
8.24
6.42
4.64
3
1.53
0.14
-1.28
-2.84
-4.49
-6.03
-7.17
-7.56
-7.03
-5.62
-3.66
-1.64
0.01
1.09
1.65
1.91
2.07
2.26
2.37
2.25
1.72
0.81
-0.34
-1.46
-2.34
-2.77
-2.69
-2.11
-1.19
-0.12
0.82
1.32
1.19
0.37
-0.96
-2.44
-3.64
-4.21
-4.05
-3.38
-2.7
-2.56
-3.35
-5.14
-7.59
-10.1
-12
-12.81
-12.35
-10.81
-8.58
-6.18
-3.98
-2.24
-0.93
0.08
0.89
1.39
1.23
-0.15
-3.21
-8.02
-14.07
-20.38
-25.84
-29.7
-31.98
-33.54
-35.8
-40.1
-46.97
-55.83
-65.06
-72.67
-77.29
-78.82
-78.66
-79.11
-82.4
-89.63
-100.28
-112.46
-123.33
-129.83
-129.22
-119.77
-101.46
-76.32
-47.91
-20
5.43
29.74
57.36
94.13
143.9
205.57
272.05
332.03
373.33
386.66
368.24
320.3
250.14
168.15
85.76
13.59
-40.56
-73.21
-85.71
-82.7
-69.56
-49.65
-23.37
10.6
53.04
102.22
153.58
201.1
239.47
265.29
277.15
274.54
257.15
225.28
180.71
128.01
74.4
28.19
-3.78
-17.88
-14.42
2.88
28.51
56.83
83.46
105.9
122.93
133.51
135.77
127.12
105.48
71.14
27.97
-16.65
-53.66
-75.6
-79.39
-67.66
-47.59
-28.02
-15.65
-12.71
-16.63
-22.14
-24.47
-21.75
-15.62
-9.74
-7.5
-10.37
-17.79
-28.38
-41.16
-56.05
-72.86
-89.84
-103.14
-107.59
-99.05
-76.84
-44.84
-10.76
16.54
29.98
26.52
7.53
-22.1
-55.85
-87.38
-111.8
-126.41
-130.86
-126.83
-117.47
-106.33
-96.33
-88.96
-84.09
-80.58
-77.16
-73.27
-69.5
-67.03
-66.85
-68.97
-72.33
-75.32
-76.71
-76.31
-74.92
-74
-75.27
-80.41
-90.79
-106.78
-126.73
-146.39
-159.38
-158.85
-140.05
-102.18
-48.76
13.93
78.99
140.56
194.34
237.07
266.23
280.65
280.94
269.66
250.24
225.45
196.14
161.49
120.32
72.69
20.85
-31.61
-81.2
-126.06
-166.05
-202.03
-235.03
-266.3
-297.85
-332.61
-373.52
-421.35
-472.77
-519.75
-551.67
-559.1
-537.92
-491.05
-427.17
-357.27
-290.38
-231.16
-179.9
-134.42
-92.54
-53.26
-16.62
17.46
49.47
79.62
106.15
124.29
127.59
111.05
75.28
28.4
-15.65
-42.44
-43.25
-19.55
17.49
52.31
72.34
73.6
60.85
43.6
30
23.05
20.71
19.66
18.91
20.64
27.92
40.62
54.01
60.96
56.82
43.53
29.72
26.38
40.79
72.69
114.52
155.9
188.59
209.35
219.54
222.6
221.45
217.23
210.04
199.97
187.91
175.38
163.82
154.01
145.72
137.92
129.49
119.8
108.92
97.68
87.34
78.78
72.32
67.37
62.8
57.53
50.95
43.24
35.21
27.89
21.98
17.63
14.41
11.65
8.82
5.74
2.57
-0.33
-2.67
-4.42
-5.66
-6.59
-7.34
-7.97
-8.43
-8.79
-9.11
-9.49
-9.97
-10.48
-10.86
-10.98
-10.73
-10.06
-8.99
-7.52
-5.69
-3.5
-1
1.77
4.68
7.53
10.09
12.05
13.18
13.32
12.45
10.74
8.5
6.11
3.94
2.22
1.07
0.42
0.09
-0.11
-0.32
-0.63
-1.02
-1.49
-2.03
-2.7
-3.49
-4.4
-5.36
-6.25
-6.95
-7.28
-7.15
-6.45
-5.22
-3.55
-1.59
0.43
2.26
3.66
4.44
4.51
3.83
2.45
0.53
-1.68
-3.91
-5.89
-7.4
-8.3
-8.55
-8.16
-7.25
-6
-4.61
-3.3
-2.2
-1.42
-1.04
-1.09
-1.58
-2.5
-3.86
-5.59
-7.58
-9.62
-11.44
-12.77
-13.31
-12.88
-11.44
-9.15
-6.32
-3.37
-0.61
1.77
3.7
5.13
6.02
6.25
5.71
4.38
2.39
0.03
-2.29
-4.26
-5.67
-6.49
-6.84
-6.85
-6.68
-6.38
-5.97
-5.45
-4.87
-4.31
-3.92
-3.82
-4.06
-4.6
-5.37
-6.29
-7.33
-8.43
-9.51
-10.33
-10.68
-10.33
-9.25
-7.58
-5.63
-3.71
-2.02
-0.62
0.62
1.82
3
4.01
4.66
4.78
4.39
3.69
3.02
2.66
2.71
3.05
3.43
3.66
3.65
3.54
3.51
3.67
3.97
4.29
4.49
4.49
4.28
3.85
3.11
1.95
0.28
-1.82
-4.01
-5.84
-6.87
-6.82
-5.69
-3.73
-1.23
1.48
4.16
6.62
8.71
10.26
11.12
11.18
10.45
9.09
7.39
5.71
4.33
3.4
2.9
2.72
2.69
2.71
2.74
2.82
2.96
3.13
3.21
3.08
2.62
1.8
0.66
-0.72
-2.2
-3.69
-5.14
-6.54
-7.87
-9.08
-10.03
-10.45
-10.09
-8.77
-6.54
-3.6
-0.36
2.82
5.64
7.96
9.8
11.18
12.1
12.53
12.43
11.81
10.86
9.8
8.89
8.29
7.99
7.93
7.97
8.06
8.14
8.22
8.26
8.18
7.92
7.43
6.72
5.85
4.89
3.87
2.79
1.62
0.33
-1.07
-2.55
-4.02
-5.3
-6.18
-6.39
-5.8
-4.44
-2.52
-0.34
1.77
3.58
5
6.05
6.72
6.99
6.77
6.08
5.02
3.79
2.58
1.54
0.67
-0.13
-1.01
-2.07
-3.33
-4.69
-6.03
-7.21
-8.12
-8.73
-9.05
-9.13
-9.05
-8.87
-8.63
-8.36
-8.03
-7.62
-7.12
-6.44
-5.47
-4.1
-2.26
0.02
2.58
5.1
7.24
8.7
9.3
9.06
8.08
6.58
4.8
2.93
1.16
-0.41
-1.73
-2.8
-3.59
-4.1
-4.3
-4.2
-3.88
-3.5
-3.23
-3.17
-3.31
-3.51
-3.64
-3.7
-3.86
-4.39
-5.48
-7.13
-9.06
-10.8
-11.83
-11.84
-10.74
-8.69
-6
-3.01
0.01
2.89
5.5
7.73
9.44
10.5
10.88
10.7
10.28
9.98
10.1
10.67
11.44
12.03
12.07
11.4
10.09
8.4
6.52
4.58
2.61
0.57
-1.47
-3.38
-5.06
-6.5
-7.81
-9.15
-10.64
-12.18
-13.45
-14.09
-13.78
-12.41
-10.14
-7.27
-4.13
-1.02
1.89
4.51
6.79
8.68
10.05
10.79
10.84
10.28
9.29
8.16
7.14
6.41
6
5.79
5.64
5.46
5.18
4.84
4.4
3.82
3.04
2.05
0.91
-0.29
-1.44
-2.51
-3.53
-4.55
-5.57
-6.53
-7.29
-7.63
-7.37
-6.39
-4.72
-2.47
0.16
2.92
5.5
7.64
9.11
9.79
9.66
8.81
7.41
5.65
3.82
2.16
0.88
0.13
-0.04
0.33
1.12
2.12
3.09
3.84
4.3
4.45
4.37
4.08
3.51
2.57
1.12
-0.87
-3.31
-5.96
-8.57
-10.94
-12.96
-14.56
-15.65
-16.03
-15.41
-13.59
-10.56
-6.64
-2.35
1.71
5.08
7.53
9.02
9.68
9.67
9.13
8.17
6.98
5.75
4.71
4.09
3.99
4.37
5.04
5.7
6.05
5.88
5.21
4.18
3.06
2.05
1.23
0.51
-0.23
-1.08
-2.05
-3.1
-4.2
-5.33
-6.43
-7.34
-7.83
-7.65
-6.67
-4.94
-2.72
-0.36
1.82
3.62
4.98
5.88
6.3
6.18
5.46
4.1
2.2
-0.07
-2.44
-4.65
-6.47
-7.77
-8.5
-8.69
-8.43
-7.83
-7.02
-6.12
-5.21
-4.35
-3.6
-3
-2.67
-2.6
-2.77
-3.07
-3.36
-3.57
-3.65
-3.61
-3.4
-2.89
-1.9
-0.27
1.94
4.49
6.97
9.02
10.42
11.21
11.53
11.47
11.04
10.17
8.81
7.11
5.36
3.94
3.1
2.91
3.17
3.58
3.81
3.67
3.12
2.24
1.16
0.04
-1
-1.98
-2.95
-3.99
-5.16
-6.41
-7.64
-8.75
-9.65
-10.33
-10.79
-10.93
-10.57
-9.51
-7.64
-5.08
-2.14
0.71
3.08
4.72
5.65
6.01
6.01
5.79
5.41
4.85
4.1
3.2
2.27
1.5
1.02
0.87
1
1.23
1.39
1.41
1.31
1.17
1.06
0.97
0.8
0.47
-0.06
-0.76
-1.58
-2.47
-3.48
-4.68
-6.05
-7.44
-8.54
-8.98
-8.53
-7.17
-5.09
-2.62
-0.06
2.35
4.48
6.23
7.5
8.22
8.35
7.92
7.12
6.18
5.33
4.65
4.17
3.81
3.49
3.11
2.57
1.84
0.89
-0.22
-1.4
-2.51
-3.41
-4.09
-4.61
-5.13
-5.78
-6.62
-7.61
-8.69
-9.78
-10.75
-11.44
-11.6
-10.96
-9.38
-6.96
-4.03
-1.06
1.51
3.44
4.72
5.47
5.83
5.84
5.5
4.84
4
3.21
2.74
2.76
3.24
4.03
4.85
5.41
5.5
5.01
3.93
2.4
0.6
-1.24
-2.93
-4.34
-5.41
-6.15
-6.61
-6.85
-6.9
-6.79
-6.51
-6.02
-5.25
-4.08
-2.38
-0.13
2.57
5.49
8.29
10.64
12.32
13.22
13.36
12.85
11.84
10.45
8.82
7.13
5.57
4.3
3.42
2.95
2.81
2.96
3.28
3.68
4.03
4.2
3.98
3.26
1.97
0.18
-1.94
-4.17
-6.34
-8.32
-10.04
-11.42
-12.31
-12.48
-11.75
-9.97
-7.18
-3.65
0.19
3.83
6.89
9.17
10.65
11.43
11.62
11.33
10.56
9.38
7.87
6.19
4.57
3.15
2.02
1.16
0.48
-0.11
-0.66
-1.21
-1.82
-2.55
-3.49
-4.65
-5.92
-7.14
-8.13
-8.76
-9.14
-9.51
-10.12
-11.11
-12.36
-13.52
-14.13
-13.75
-12.16
-9.41
-5.89
-2.09
1.49
4.46
6.67
8.14
8.95
9.17
8.77
7.68
5.93
3.71
1.39
-0.59
-1.92
-2.5
-2.45
-2.04
-1.52
-1.07
-0.74
-0.52
-0.38
-0.3
-0.27
-0.32
-0.51
-0.95
-1.74
-2.96
-4.6
-6.58
-8.73
-10.8
-12.49
-13.49
-13.51
-12.39
-10.11
-6.87
-3.08
0.77
4.21
6.97
8.91
10.1
10.57
10.4
9.64
8.37
6.8
5.16
3.69
2.58
1.99
1.95
2.47
3.46
4.78
6.19
7.38
8.03
7.94
7.09
5.62
3.75
1.66
-0.48
-2.66
-4.84
-6.97
-8.97
-10.72
-12.1
-13.03
-13.37
-12.99
-11.73
-9.51
-6.43
-2.8
0.91
4.21
6.72
8.29
9.01
9.09
8.77
8.2
7.41
6.42
5.27
4.09
3.02
2.21
1.77
1.74
2.08
2.69
3.47
4.25
4.89
5.29
5.31
4.89
4
2.66
0.96
-0.93
-2.79
-4.37
-5.51
-6.28
-6.9
-7.68
-8.79
-10.17
-11.47
-12.2
-11.91
-10.42
-7.9
-4.75
-1.45
1.58
4.12
6.09
7.48
8.33
8.66
8.48
7.91
7.12
6.29
5.64
5.28
5.22
5.41
5.76
6.17
6.57
6.89
7.01
6.81
6.17
5.04
3.48
1.67
-0.16
-1.82
-3.19
-4.28
-5.14
-5.92
-6.72
-7.66
-8.8
-10.15
-11.61
-12.93
-13.74
-13.64
-12.4
-10.01
-6.73
-3.05
0.52
3.58
5.93
7.5
8.33
8.47
8
7.06
5.86
4.67
3.77
3.35
3.46
4.03
4.85
5.74
6.53
7.19
7.7
8.09
8.29
8.2
7.67
6.58
4.92
2.85
0.58
-1.62
-3.59
-5.25
-6.58
-7.61
-8.38
-9.01
-9.65
-10.44
-11.42
-12.47
-13.32
-13.55
-12.86
-11.1
-8.41
-5.12
-1.64
1.67
4.49
6.64
8.06
8.77
8.89
8.6
8.03
7.32
6.56
5.83
5.18
4.72
4.5
4.55
4.86
5.28
5.67
5.9
5.91
5.68
5.2
4.46
3.41
2.09
0.51
-1.13
-2.69
-4.04
-5.15
-6.09
-6.97
-7.94
-9.05
-10.32
-11.61
-12.77
-13.56
-13.68
-12.93
-11.17
-8.49
-5.18
-1.65
1.71
4.57
6.77
8.28
9.15
9.43
9.15
8.4
7.33
6.16
5.19
4.65
4.65
5.12
5.85
6.62
7.26
7.67
7.82
7.74
7.41
6.86
6.07
5.11
4.06
2.96
1.87
0.73
-0.46
-1.7
-2.94
-4.13
-5.24
-6.3
-7.37
-8.55
-9.92
-11.47
-13.09
-14.57
-15.59
-15.82
-15
-13.06
-10.18
-6.69
-3.05
0.34
3.16
5.26
6.61
7.25
7.3
6.9
6.26
5.59
5.06
4.81
4.88
5.22
5.73
6.33
6.92
7.43
7.85
8.17
8.4
8.54
8.51
8.2
7.53
6.45
5.05
3.48
1.96
0.63
-0.51
-1.53
-2.58
-3.77
-5.19
-6.88
-8.77
-10.77
-12.61
-13.99
-14.54
-13.99
-12.28
-9.66
-6.54
-3.41
-0.61
1.63
3.29
4.34
4.81
4.75
4.25
3.56
2.91
2.56
2.58
2.9
3.28
3.45
3.23
2.62
1.79
1.04
0.7
0.93
1.69
2.76
3.75
4.31
4.18
3.28
1.67
-0.44
-2.79
-5.15
-7.27
-9.05
-10.45
-11.53
-12.37
-13.03
-13.53
-13.73
-13.5
-12.6
-10.89
-8.29
-4.91
-1.06
2.78
6.15
8.69
10.22
10.79
10.46
9.43
7.89
6.07
4.26
2.82
2.05
2.07
2.79
3.86
4.89
5.58
5.79
5.59
5.14
4.61
4.05
3.45
2.73
1.83
0.73
-0.54
-1.92
-3.39
-4.91
-6.45
-7.98
-9.5
-11.03
-12.57
-14.02
-15.11
-15.48
-14.77
-12.77
-9.54
-5.45
-1.02
3.23
6.95
9.97
12.25
13.74
14.43
14.33
13.49
12.08
10.3
8.39
6.57
5
3.75
2.81
2.12
1.57
1.13
0.79
0.61
0.66
0.94
1.3
1.57
1.55
1.11
0.26
-0.86
-2.13
-3.43
-4.72
-6.03
-7.36
-8.75
-10.15
-11.48
-12.54
-13.1
-12.93
-11.84
-9.86
-7.1
-3.87
-0.49
2.77
5.65
7.97
9.58
10.42
10.47
9.85
8.74
7.34
5.9
4.53
3.36
2.41
1.73
1.33
1.26
1.51
2.02
2.68
3.31
3.71
3.68
3.16
2.18
0.92
-0.43
-1.67
-2.67
-3.43
-4.02
-4.59
-5.3
-6.23
-7.37
-8.59
-9.67
-10.33
-10.34
-9.59
-8.05
-5.86
-3.21
-0.33
2.51
5.04
6.97
8.08
8.27
7.58
6.17
4.32
2.29
0.41
-1.08
-1.95
-2.13
-1.62
-0.54
0.85
2.36
3.76
4.92
5.72
6.15
6.19
5.91
5.43
4.83
4.19
3.49
2.67
1.64
0.37
-1.14
-2.85
-4.64
-6.45
-8.13
-9.56
-10.51
-10.81
-10.32
-8.98
-6.87
-4.18
-1.19
1.83
4.58
6.87
8.56
9.57
9.91
9.59
8.72
7.42
5.92
4.44
3.23
2.41
2.01
1.99
2.26
2.77
3.46
4.31
5.23
6.09
6.73
7.02
6.91
6.39
5.52
4.35
2.95
1.35
-0.37
-2.17
-3.99
-5.81
-7.67
-9.51
-11.26
-12.7
-13.51
-13.4
-12.17
-9.87
-6.77
-3.28
0.16
3.14
5.41
6.82
7.34
7.03
6
4.5
2.77
1.04
-0.47
-1.69
-2.61
-3.28
-3.74
-4.08
-4.29
-4.36
-4.29
-4.14
-3.98
-3.91
-3.99
-4.22
-4.56
-4.98
-5.51
-6.27
-7.41
-9.05
-11.09
-13.3
-15.2
-16.32
-16.28
-14.94
-12.42
-9.05
-5.3
-1.57
1.81
4.68
6.92
8.46
9.27
9.33
8.69
7.49
5.96
4.36
2.91
1.8
1.03
0.64
0.56
0.76
1.19
1.76
2.35
2.8
2.98
2.77
2.21
1.36
0.33
-0.84
-2.16
-3.69
-5.5
-7.55
-9.65
-11.5
-12.74
-13.09
-12.38
-10.63
-7.98
-4.66
-0.94
2.83
6.3
9.08
10.88
11.56
11.14
9.9
8.16
6.3
4.61
3.27
2.36
1.89
1.81
2.04
2.44
2.83
3.1
3.18
3.06
2.81
2.4
1.8
0.86
-0.51
-2.39
-4.7
-7.26
-9.8
-11.95
-13.4
-13.83
-13.08
-11.13
-8.17
-4.53
-0.65
3.06
6.25
8.66
10.08
10.44
9.75
8.21
6.13
3.89
1.86
0.33
-0.55
-0.75
-0.31
0.58
1.69
2.76
3.52
3.82
3.67
3.15
2.38
1.4
0.16
-1.41
-3.28
-5.32
-7.28
-8.94
-10.12
-10.68
-10.56
-9.67
-7.93
-5.37
-2.23
1.13
4.21
6.59
8.07
8.66
8.57
8.02
7.21
6.23
5.15
4.04
3.01
2.24
1.86
1.96
2.47
3.22
3.97
4.49
4.68
4.51
4.07
3.43
2.65
1.61
0.21
-1.64
-3.87
-6.3
-8.63
-10.54
-11.83
-12.36
-12.1
-11.02
-9.15
-6.58
-3.46
-0.08
3.19
5.99
8.05
9.22
9.55
9.16
8.23
7
5.68
4.47
3.56
3.1
3.11
3.54
4.14
4.64
4.82
4.52
3.75
2.65
1.41
0.15
-1.06
-2.23
-3.4
-4.55
-5.7
-6.84
-7.97
-9.02
-9.88
-10.27
-9.89
-8.56
-6.22
-3.14
0.3
3.57
6.29
8.23
9.35
9.76
9.55
8.84
7.69
6.24
4.64
3.17
2.05
1.48
1.52
2.02
2.78
3.5
3.98
4.14
3.97
3.55
2.91
2.1
1.12
-0.03
-1.33
-2.79
-4.42
-6.22
-8.16
-10.09
-11.69
-12.63
-12.57
-11.39
-9.16
-6.16
-2.79
0.59
3.72
6.47
8.72
10.42
11.45
11.74
11.31
10.27
8.9
7.48
6.26
5.42
5
4.94
5.12
5.38
5.6
5.65
5.45
4.93
4.11
3.01
1.67
0.16
-1.43
-3.01
-4.47
-5.76
-6.93
-8.01
-9.06
-10
-10.63
-10.67
-9.84
-8.02
-5.32
-2.07
1.28
4.27
6.61
8.18
9.05
9.36
9.23
8.79
8.12
7.3
6.49
5.86
5.56
5.64
5.99
6.4
6.66
6.62
6.26
5.65
4.88
3.99
2.95
1.66
0.11
-1.62
-3.36
-4.89
-6.12
-7.1
-7.99
-8.98
-10.11
-11.25
-12.11
-12.3
-11.57
-9.89
-7.44
-4.6
-1.75
0.79
2.82
4.29
5.19
5.59
5.49
4.9
3.88
2.53
1.09
-0.16
-0.96
-1.1
-0.55
0.58
2.07
3.66
5.05
6.06
6.58
6.59
6.16
5.35
4.24
2.86
1.22
-0.68
-2.78
-4.95
-7
-8.77
-10.11
-10.93
-11.15
-10.67
-9.39
-7.26
-4.42
-1.18
1.96
4.52
6.17
6.8
6.55
5.66
4.41
2.98
1.52
0.12
-1.1
-1.97
-2.37
-2.23
-1.65
-0.79
0.09
0.77
1.11
1.12
0.89
0.54
0.12
-0.39
-1.1
-2.1
-3.45
-5.12
-7.06
-9.15
-11.18
-12.85
-13.82
-13.81
-12.64
-10.38
-7.3
-3.85
-0.46
2.51
4.83
6.41
7.22
7.31
6.8
5.91
4.84
3.77
2.79
1.94
1.24
0.8
0.75
1.17
2.03
3.05
3.86
4.09
3.49
2.08
0.1
-2.14
-4.35
-6.32
-7.94
-9.23
-10.25
-11.1
-11.83
-12.36
-12.54
-12.12
-10.86
-8.65
-5.6
-2.03
1.65
5
7.76
9.76
10.99
11.49
11.32
10.53
9.23
7.62
5.93
4.46
3.43
2.93
2.95
3.35
3.94
4.5
4.86
4.91
4.6
3.97
3.13
2.24
1.41
0.68
-0.04
-0.87
-2.02
-3.53
-5.35
-7.29
-9.06
-10.39
-11.03
-10.82
-9.67
-7.63
-4.84
-1.58
1.81
4.95
7.51
9.35
10.47
11.01
11.13
11
10.71
10.29
9.74
9.1
8.52
8.14
8.09
8.38
8.97
9.66
10.25
10.58
10.5
10.02
9.13
7.91
6.41
4.68
2.76
0.64
-1.64
-4.05
-6.46
-8.74
-10.66
-12.06
-12.74
-12.59
-11.53
-9.62
-7.04
-4.12
-1.23
1.28
3.17
4.33
4.79
4.65
4.01
3
1.8
0.62
-0.31
-0.82
-0.88
-0.55
-0.01
0.56
1.02
1.27
1.27
0.98
0.4
-0.5
-1.67
-3.06
-4.54
-6.02
-7.4
-8.61
-9.67
-10.58
-11.37
-11.97
-12.31
-12.24
-11.58
-10.21
-8.1
-5.36
-2.23
0.89
3.67
5.81
7.16
7.78
7.76
7.25
6.38
5.25
3.95
2.64
1.51
0.72
0.36
0.37
0.61
0.86
0.98
0.91
0.69
0.4
0.08
-0.27
-0.74
-1.43
-2.43
-3.74
-5.3
-6.99
-8.56
-9.8
-10.45
-10.32
-9.29
-7.37
-4.68
-1.47
1.88
4.98
7.43
8.96
9.48
9.06
7.93
6.42
4.79
3.28
2.04
1.1
0.52
0.25
0.21
0.3
0.42
0.42
0.24
-0.15
-0.72
-1.34
-1.88
-2.23
-2.35
-2.28
-2.19
-2.32
-2.82
-3.85
-5.36
-7.16
-8.93
-10.25
-10.7
-10.04
-8.24
-5.47
-2.1
1.39
4.64
7.35
9.35
10.55
10.9
10.42
9.21
7.49
5.6
3.88
2.61
1.89
1.69
1.82
2.07
2.26
2.24
1.98
1.51
0.86
0.09
-0.79
-1.71
-2.64
-3.52
-4.34
-5.14
-6
-7.04
-8.3
-9.68
-10.94
-11.71
-11.65
-10.56
-8.47
-5.59
-2.3
1.04
4.14
6.8
8.88
10.26
10.88
10.7
9.83
8.49
6.97
5.55
4.41
3.65
3.22
3.02
2.91
2.79
2.59
2.27
1.84
1.37
0.91
0.41
-0.23
-1.16
-2.49
-4.18
-6.03
-7.81
-9.28
-10.3
-10.84
-10.87
-10.3
-9.06
-7.09
-4.48
-1.49
1.54
4.2
6.2
7.44
7.93
7.77
7.07
5.95
4.5
2.92
1.38
0.13
-0.68
-0.95
-0.75
-0.23
0.43
1.03
1.49
1.69
1.6
1.21
0.51
-0.43
-1.48
-2.49
-3.36
-4.06
-4.68
-5.35
-6.12
-6.9
-7.41
-7.33
-6.41
-4.62
-2.19
0.6
3.39
5.95
8.14
9.85
11.01
11.55
11.41
10.6
9.27
7.61
5.82
4.07
2.57
1.4
0.67
0.41
0.63
1.27
2.22
3.34
4.41
5.2
5.46
5.02
3.85
2.08
-0.02
-2.18
-4.16
-5.9
-7.44
-8.84
-10.05
-10.87
-10.98
-10.11
-8.24
-5.58
-2.55
0.39
2.89
4.81
6.19
7.04
7.37
7.15
6.36
5.11
3.63
2.17
0.97
0.15
-0.31
-0.5
-0.53
-0.48
-0.38
-0.23
-0.03
0.16
0.35
0.48
0.53
0.49
0.29
-0.1
-0.69
-1.43
-2.24
-3.01
-3.61
-3.95
-3.93
-3.54
-2.75
-1.65
-0.38
0.86
1.89
2.53
2.72
2.52
2.01
1.3
0.49
-0.37
-1.16
-1.77
-2.1
-2.14
-1.93
-1.6
-1.27
-1.02
-0.87
-0.77
-0.67
-0.53
-0.36
-0.17
-0.03
-0.03
-0.26
-0.81
-1.61
-2.51
-3.23
-3.47
-3.1
-2.13
-0.79
0.63
1.88
2.85
3.49
3.83
3.81
3.34
2.3
0.67
-1.39
-3.57
-5.5
-6.9
-7.68
-7.97
-8
-8.01
-8.06
-8.15
-8.16
-8.07
-7.94
-7.9
-8.1
-8.6
-9.37
-10.34
-11.47
-12.69
-13.91
-14.96
-15.53
-15.28
-14
-11.7
-8.67
-5.37
-2.23
0.45
2.57
4.17
5.3
5.97
6.1
5.62
4.58
3.19
1.79
0.73
0.31
0.58
1.45
2.62
3.79
4.65
5.03
4.87
4.25
3.34
2.28
1.19
0.15
-0.82
-1.74
-2.65
-3.62
-4.66
-5.73
-6.66
-7.25
-7.24
-6.49
-5.03
-3.07
-0.93
1.1
2.82
4.18
5.19
5.89
6.27
6.27
5.9
5.22
4.39
3.55
2.85
2.32
1.96
1.74
1.67
1.79
2.09
2.51
2.89
3.02
2.71
1.87
0.55
-1.09
-2.77
-4.22
-5.26
-5.82
-5.94
-5.74
-5.34
-4.87
-4.45
-4.2
-4.15
-4.21
-4.13
-3.53
-2.06
0.45
3.83
7.62
11.21
14.1
16.01
17
17.29
17.13
16.7
16.03
15.1
13.94
12.63
11.31
10.12
9.11
8.27
7.57
6.94
6.38
5.91
5.54
5.21
4.84
4.31
3.53
2.52
1.32
0.04
-1.23
-2.47
-3.65
-4.78
-5.86
-6.93
-8
-9.14
-10.3
-11.39
-12.21
-12.54
-12.19
-11.12
-9.41
-7.3
-5.05
-2.86
-0.86
0.88
2.35
3.49
4.2
4.38
4.01
3.25
2.37
1.68
1.4
1.54
1.94
2.37
2.62
2.64
2.51
2.36
2.25
2.15
1.97
1.63
1.12
0.52
-0.04
-0.51
-0.89
-1.22
-1.6
-2.1
-2.74
-3.46
-4.17
-4.72
-4.99
-4.84
-4.15
-2.87
-1.02
1.24
3.71
6.12
8.22
9.81
10.79
11.15
10.98
10.41
9.58
8.6
7.58
6.59
5.7
4.99
4.46
4.1
3.79
3.39
2.8
1.98
1
-0.01
-0.9
-1.61
-2.13
-2.52
-2.83
-3.09
-3.29
-3.49
-3.81
-4.35
-5.22
-6.38
-7.69
-8.95
-9.96
-10.59
-10.83
-10.68
-10.15
-9.26
-8.02
-6.5
-4.9
-3.41
-2.17
-1.22
-0.51
0.04
0.5
0.97
1.55
2.35
3.48
5.06
6.99
9.12
11.16
12.84
14.02
14.61
