-38.15
-42.13
-45.71
-48.53
-49.93
-49.36
-46.44
-41.16
-34
-25.63
-16.81
-8.16
-0.23
6.63
12.08
15.78
17.6
17.6
16.24
14.12
12.03
10.52
9.92
10.27
11.4
13.08
15.05
16.98
18.59
19.65
19.82
18.97
17
13.93
9.82
4.9
-0.46
-5.84
-10.65
-14.64
-17.68
-19.9
-21.55
-22.94
-24.24
-25.43
-26.37
-26.65
-25.89
-23.68
-19.92
-14.68
-8.46
-1.99
3.97
8.69
11.9
13.56
13.97
13.33
11.98
10.21
8.4
6.91
5.98
5.98
6.96
8.74
10.99
13.19
14.99
16.02
16.09
15.06
13.06
10.18
6.6
2.54
-1.75
-5.94
-9.92
-13.41
-16.26
-18.37
-19.77
-20.51
-20.84
-21.07
-21.56
-22.59
-24.06
-25.48
-26.11
-25.21
-22.28
-17.19
-10.33
-2.4
5.91
13.97
21.39
27.73
32.7
35.85
36.9
35.73
32.57
27.95
22.69
17.64
13.5
10.74
9.37
9.06
9.25
9.34
8.87
7.65
5.7
3.23
0.48
-2.39
-5.3
-8.2
-11.1
-13.93
-16.59
-19.09
-21.31
-23.25
-24.98
-26.55
-27.96
-29.37
-30.7
-31.87
-32.73
-32.89
-32
-29.73
-25.9
-20.63
-14.21
-7.12
0.18
7.13
13.29
18.14
21.29
22.64
22.26
20.67
18.56
16.66
15.55
15.61
17
19.57
23.15
27.21
31.17
34.48
36.6
37.09
35.83
32.99
28.86
23.99
18.83
13.83
9.21
5.1
1.46
-1.85
-4.82
-7.47
-9.74
-11.56
-13
-14.3
-15.92
-18.08
-21.03
-24.37
-27.44
-29.47
-29.75
-27.99
-24.28
-19.19
-13.27
-7.28
-1.62
3.38
7.54
10.82
13.25
14.97
16.11
16.85
17.31
17.69
18
18.25
18.49
18.7
18.83
18.84
18.58
17.96
17.03
15.88
14.67
13.6
12.64
11.65
10.41
8.74
6.43
3.47
-0.07
-4.05
-8.15
-12.23
-16.07
-19.49
-22.33
-24.49
-25.93
-26.69
-27
-27.02
-27
-26.84
-26.14
-24.36
-21.04
-16.15
-10.09
-3.68
2.38
7.52
11.5
14.4
16.4
17.67
18.31
18.42
18.04
17.45
16.93
16.75
16.97
17.6
18.49
19.45
20.31
20.95
21.34
21.4
21.04
20.03
18.22
15.46
11.86
7.59
2.93
-1.86
-6.6
-11.09
-15.11
-18.54
-21.3
-23.39
-25
-26.34
-27.55
-28.65
-29.57
-29.93
-29.4
-27.61
-24.31
-19.6
-13.77
-7.39
-1.03
4.7
9.41
12.8
14.79
15.56
15.37
14.6
13.67
12.87
12.26
11.91
11.68
11.48
11.32
11.15
10.92
10.61
10.2
9.71
9.3
9.04
8.9
8.81
8.38
7.36
5.48
2.78
-0.48
-3.95
-7.38
-10.7
-14.02
-17.6
-21.36
-25.14
-28.59
-31.31
-32.85
-32.81
-30.88
-26.94
-21.22
-14.08
-6.26
1.38
8.08
13.3
16.81
18.65
19.01
18.04
16.11
13.6
10.94
8.57
6.82
5.91
5.84
6.47
7.43
8.41
9.12
9.33
9.05
8.32
7.35
6.38
5.67
5.15
4.71
4.01
2.86
1.14
-1.17
-3.9
-6.84
-9.82
-12.76
-15.59
-18.33
-20.82
-22.85
-24.1
-24.22
-22.95
-20.13
-15.86
-10.5
-4.67
1.03
6.15
10.51
14.14
17.19
19.71
21.59
22.63
22.52
21.22
19.09
16.6
14.35
12.74
11.93
11.82
12.06
12.33
12.35
12.03
11.38
10.41
9.01
7.1
4.66
1.6
-1.98
-5.74
-9.32
-12.28
-14.31
-15.39
-15.72
-15.72
-15.85
-16.5
-17.84
-19.75
-21.94
-23.93
-25.11
-25.03
-23.26
-19.69
-14.61
-8.59
-2.28
3.7
8.89
13.07
16.12
18.02
18.78
18.43
17.17
15.29
13.31
11.6
10.43
9.83
9.56
9.31
8.76
7.83
6.63
5.45
4.52
3.98
3.77
3.62
3.32
2.62
1.55
0.21
-1.27
-2.75
-4.18
-5.61
-7.16
-8.96
-11.2
-14.02
-17.37
-20.96
-24.31
-26.68
-27.49
-26.38
-23.34
-18.62
-12.7
-6.08
0.76
7.35
13.12
17.64
20.63
22.08
22.27
21.54
20.17
18.27
15.88
13.08
10.08
7.23
4.94
3.38
2.55
2.27
2.36
2.75
3.42
4.39
5.57
6.85
7.89
8.5
8.42
7.56
5.9
3.51
0.57
-2.72
-6.11
-9.53
-12.92
-16.31
-19.71
-23
-25.99
-28.34
-29.45
-28.83
-26.07
-21.24
-14.76
-7.47
-0.3
5.92
10.69
13.96
15.91
16.78
16.76
16.09
15.05
14.05
13.42
13.25
13.4
13.47
13.15
12.39
11.23
10
8.93
8.1
7.24
6.07
4.17
1.48
-1.84
-5.54
-9.13
-12.25
-14.59
-16
-16.38
-15.89
-14.78
-13.45
-12.39
-11.92
-12.1
-12.82
-13.69
-14.27
-14.12
-13
-10.78
-7.58
-3.7
0.46
4.3
7.48
9.73
11.07
11.59
11.49
10.83
9.75
8.23
6.42
4.67
3.31
2.65
2.82
3.67
4.9
6.21
7.3
8.13
8.73
9.1
9.06
8.45
7.02
4.76
1.83
-1.45
-4.7
-7.68
-10.31
-12.62
-14.62
-16.25
-17.38
-17.96
-18.03
-17.72
-17.1
-16.24
-14.84
-12.71
-9.63
-5.69
-1.22
3.2
7.03
9.86
11.39
11.67
10.72
8.77
6.09
3.01
-0.01
-2.53
-4.14
-4.62
-3.72
-1.56
1.49
4.91
8.03
10.35
11.53
11.59
10.77
9.37
7.53
5.2
2.28
-1.1
-4.45
-7.14
-8.4
-7.85
-5.55
-2.22
1.25
4.05
5.7
6.32
6.25
6.05
6.18
6.84
8.14
10.16
12.99
16.66
21.23
26.49
32.12
37.64
42.49
46.29
48.93
50.41
50.73
49.97
48.04
44.95
40.75
35.62
29.92
24.06
18.34
12.88
7.6
2.15
-3.88
-10.97
-19.61
-29.99
-42.19
-55.92
-70.57
-85.18
-98.63
-109.83
-117.95
-122.9
-124.96
-125.06
-124.21
-123.24
-122.57
-122.06
-121.12
-118.75
-113.96
-105.76
-93.74
-78.1
-59.77
-40.25
-21.26
-4.21
10.27
22.14
32.2
41.36
50.52
60.21
70.45
80.8
90.36
98.18
103.16
104.73
102.8
98.03
91.73
85.2
79.71
75.94
74.07
73.79
74.49
75.55
76.33
76.37
75
71.81
66.4
58.63
48.76
37.36
25.28
13.44
2.73
-6.25
-13.21
-18.22
-21.57
-23.69
-25
-25.82
-26.34
-26.74
-27.13
-27.58
-28.08
-28.44
-28.28
-27.32
-25.32
-22.37
-18.8
-15.1
-11.83
-9.33
-7.92
-7.66
-8.6
-10.48
-13.06
-16
-18.87
-21.38
-23.25
-24.59
-25.6
-26.77
-28.49
-31.16
-34.94
-39.74
-45.26
-50.99
-56.42
-61.05
-64.47
-66.45
-66.95
-66.01
-63.71
-60.23
-55.7
-50.33
-44.43
-38.28
-32.25
-26.63
-21.69
-17.36
-13.61
-10.14
-6.66
-2.91
1.39
6.29
11.74
17.26
22.39
26.53
29.33
30.63
30.56
29.36
27.14
24.05
19.93
14.87
8.94
2.47
-4.19
-10.72
-16.78
-22.25
-26.86
-30.41
-32.64
-33.56
-33.23
-31.93
-30.13
-28.16
-26.24
-24.12
-21.4
-17.61
-12.46
-5.88
1.83
10.01
17.93
24.77
29.99
33.22
34.45
33.86
31.91
29.05
25.7
22.33
19.22
16.77
15.1
14.4
14.54
15.24
16.12
16.69
16.77
16.23
15.36
14.46
13.84
13.56
13.5
13.41
13.03
12.24
10.91
9.02
6.55
3.49
-0.02
-3.75
-7.34
-10.47
-12.89
-14.62
-15.67
-16.09
-15.98
-15.38
-14.39
-13.19
-11.96
-10.67
-9.24
-7.36
-4.65
-0.92
3.68
8.74
13.68
17.96
21.18
23.02
23.41
22.32
19.83
16.2
11.9
7.5
3.69
0.94
-0.43
-0.38
0.89
3.01
5.65
8.46
11.22
13.7
15.69
17.04
17.71
17.71
17.13
16.06
14.63
12.89
10.94
8.97
7.08
5.49
4.25
3.44
2.89
2.43
1.74
0.47
-1.53
-4.45
-8.08
-12.05
-15.63
-18.23
-19.18
-18.06
-14.83
-9.8
-3.69
2.65
8.29
12.63
15.31
16.44
16.45
15.75
14.66
13.34
11.93
10.62
9.61
9.23
9.7
11.07
13
15.16
17.09
18.56
19.4
19.39
18.53
16.79
14.26
11.17
8.06
5.31
3.24
1.88
1.04
0.52
0.17
-0.11
-0.35
-0.63
-1.2
-2.33
-4.16
-6.57
-9.27
-11.89
-14.23
-16.12
-17.53
-18.49
-19.1
-19.26
-19.05
-18.57
-17.96
-17.31
-16.48
-15.23
-13.22
-10.29
-6.46
-1.84
3.43
9.34
16.12
23.93
32.74
42.21
51.61
59.95
66.55
71.06
73.41
73.84
72.56
69.85
66.03
61.46
56.48
51.36
46.49
42.03
38.05
34.76
32.29
30.85
30.38
30.59
30.82
30.26
28.21
24.14
17.93
9.73
0.2
-9.85
-19.37
-27.46
-33.58
-37.42
-39.15
-39.3
-38.63
-37.79
-37.3
-37.33
-37.83
-38.46
-38.85
-38.6
-37.6
-35.94
-33.71
-31.04
-27.92
-24.23
-19.75
-14.38
-8.26
-1.77
4.65
10.64
16
20.59
24.41
27.26
28.85
28.99
27.47
24.34
19.84
14.38
8.29
1.84
-4.87
-11.82
-18.78
-25.5
-31.72
-37.23
-41.82
-45.41
-47.99
-49.54
-49.89
-48.69
-45.59
-40.51
-33.67
-25.63
-17.26
-9.47
-3.04
1.69
4.7
6.18
6.43
5.74
4.36
2.57
0.69
-0.88
-1.89
-2.11
-1.59
-0.39
1.31
3.35
5.5
7.61
9.54
11.18
12.5
13.36
13.7
13.37
12.26
10.37
7.82
4.83
1.58
-1.76
-5.22
-8.74
-12.22
-15.45
-18.08
-19.94
-21.05
-21.68
-22.12
-22.57
-22.89
-22.6
-21.13
-17.91
-12.82
-6.17
1.21
8.47
14.77
19.67
23.09
25.03
25.72
25.24
23.69
21.14
17.94
14.52
11.37
8.8
6.89
5.7
5.07
4.97
5.31
6.11
7.36
8.85
10.32
11.41
12.05
12.17
11.85
11.23
10.36
9.18
7.56
5.36
2.47
-0.95
-4.65
-8.41
-11.92
-15.09
-17.91
-20.41
-22.6
-24.42
-25.52
-25.39
-23.58
-19.78
-14.25
-7.57
-0.69
5.5
10.36
13.61
15.39
15.98
15.69
14.64
12.98
10.87
8.65
6.67
5.23
4.61
4.83
5.79
7.17
8.64
9.92
10.89
11.54
11.85
11.71
10.99
9.48
7.12
4.1
0.79
-2.46
-5.25
-7.43
-8.95
-9.88
-10.33
-10.4
-10.28
-10.22
-10.45
-10.97
-11.58
-11.85
-11.34
-9.76
-7.05
-3.53
0.42
4.35
7.8
10.42
12
12.59
12.29
11.35
9.95
8.43
7
5.83
4.98
4.58
4.73
5.29
6.18
7.12
7.9
8.38
8.52
8.34
7.8
6.91
5.53
3.67
1.43
-1.02
-3.41
-5.47
-7
-7.98
-8.57
-9.04
-9.79
-11.03
-12.81
-14.97
-16.94
-18.03
-17.62
-15.36
-11.33
-6.02
-0.24
5.21
9.75
13.05
14.95
15.61
15.16
13.84
11.9
9.63
7.39
5.58
4.49
4.14
4.45
5.15
5.97
6.67
7.17
7.41
7.42
7.24
6.78
5.88
4.45
2.47
0.09
-2.55
-5.39
-8.41
-11.62
-14.99
-18.37
-21.43
-23.87
-25.48
-26.27
-26.41
-25.93
-24.84
-22.81
-19.54
-14.85
-8.95
-2.34
4.19
9.78
13.9
16.28
16.98
16.37
14.79
12.6
10.12
7.61
5.34
3.69
3.01
3.52
5.33
8.1
11.26
14.24
16.59
18
18.48
18.03
16.77
14.79
12.16
8.98
5.34
1.34
-2.98
-7.41
-11.68
-15.42
-18.28
-20.17
-21.13
-21.4
-21.26
-20.86
-20.36
-19.89
-19.55
-19.35
-19.19
-18.64
-17.19
-14.48
-10.34
-5.17
0.38
5.6
9.97
13.08
14.95
15.59
15.12
13.66
11.39
8.57
5.71
3.44
2.22
2.37
3.85
6.38
9.44
12.46
14.96
16.69
17.52
17.47
16.65
15.17
13.21
10.9
8.38
5.68
2.88
-0.1
-3.18
-6.2
-9.09
-11.75
-14.15
-16.35
-18.52
-20.72
-22.93
-24.89
-26.3
-26.94
-26.59
-25.14
-22.57
-18.82
-13.94
-8.17
-1.92
4.28
9.82
14.18
17.06
18.46
18.57
17.74
16.3
14.43
12.41
10.44
8.8
7.76
7.45
7.85
8.63
9.4
9.72
9.47
8.71
7.79
6.98
6.39
5.95
5.37
4.51
3.22
1.59
-0.31
-2.32
-4.33
-6.33
-8.27
-10.18
-12
-13.79
-15.56
-17.42
-19.32
-21.14
-22.58
-23.22
-22.58
-20.3
-16.34
-11.02
-5.02
0.84
5.92
9.78
12.36
13.78
14.23
13.91
13.01
11.68
10.16
8.94
8.35
8.64
9.7
11.22
12.72
13.82
14.31
14.21
13.74
13.06
12.27
11.3
10.05
8.36
6.27
3.8
1.05
-1.88
-4.89
-7.81
-10.44
-12.66
-14.4
-15.69
-16.73
-17.72
-18.84
-20.19
-21.64
-22.86
-23.46
-23.01
-21.19
-17.97
-13.62
-8.62
-3.59
0.88
4.37
6.74
8.14
8.78
8.92
8.79
8.54
8.32
8.23
8.22
8.24
8.22
8
7.41
6.43
5.02
3.29
1.37
-0.67
-2.79
-5.04
-7.56
-10.4
-13.61
-17.16
-20.75
-23.98
-26.41
-27.69
-27.71
-26.5
-24.15
-20.76
-16.25
-10.16
-1.72
9.78
24.75
42.83
62.92
83.32
102.18
117.84
129.35
136.36
138.98
137.51
132.2
123.19
110.57
94.54
75.28
53.01
27.96
0.52
-28.63
-58.25
-86.6
-111.62
-131.28
-143.92
-148.65
-145.21
-133.78
-114.76
-88.66
-56.26
-18.57
22.97
66.45
109.7
150.4
186.41
215.87
237.38
250.02
253.55
248.3
235.21
215.7
191.39
163.85
134.38
103.95
73.27
43.11
14.35
-11.91
-34.63
-53.08
-67.08
-77
-83.54
-87.48
-89.53
-90.03
-89.26
-87.36
-84.56
-81.1
-77.19
-73.06
-68.76
-64.42
-60.26
-56.6
-53.71
-52
-51.47
-51.74
-52.26
-52.34
-51.53
-49.81
-47.52
-45.15
-43.25
-42.05
-41.48
-41.24
-41.05
-40.77
-40.44
-40.21
-40.2
-40.43
-40.8
-41.18
-41.44
-41.5
-41.29
-40.58
-39.04
-36.29
-32.16
-26.65
-20.09
-13.1
-6.24
-0.06
5.11
9.17
12.11
14
15.06
15.63
16.12
16.94
18.33
20.25
22.4
24.19
24.91
23.86
20.54
14.69
6.25
-4.67
-17.81
-32.61
-48.21
-63.46
-77.06
-87.87
-95.09
-98.32
-97.64
-93.46
-86.41
-77.25
-66.89
-56.4
-46.87
-39.14
-33.49
-29.7
-27.2
-25.39
-23.89
-22.56
-21.57
-21.12
-21.33
-21.98
-22.83
-23.67
-24.55
-25.77
-27.75
-30.86
-35.18
-40.33
-45.49
-49.83
-52.6
-53.4
-52.12
-48.9
-43.88
-37.07
-28.35
-17.73
-5.51
7.58
20.49
32.13
41.54
48.26
52.32
54.28
54.71
54.23
53.24
51.93
50.41
48.77
47.12
45.67
44.66
44.2
44.42
45.29
46.77
48.78
51.06
53.23
54.81
55.4
54.82
53.16
50.54
47.03
42.54
36.82
29.77
21.64
12.89
4.28
-3.62
-10.73
-17.26
-23.59
-29.91
-36.02
-41.25
-44.95
-46.51
-45.67
-42.74
-38.29
-33.02
-27.48
-22.09
-16.99
-12.32
-8.2
-4.77
-2.17
-0.38
0.86
1.98
3.41
5.45
8
10.83
13.47
15.6
17.1
18.05
18.5
18.48
17.72
15.99
13.07
8.98
3.92
-1.72
-7.61
-13.42
-18.93
-24.04
-28.69
-32.86
-36.51
-39.67
-42.26
-44.14
-45.04
-44.68
-42.75
-39.1
-33.77
-27.07
-19.57
-11.92
-4.9
1.01
5.57
8.88
11.2
12.74
13.61
13.82
13.5
12.74
11.94
11.39
11.42
12.15
13.54
15.72
18.75
22.75
27.69
33.3
39.04
44.1
47.52
48.3
45.88
40.04
31.2
20.3
8.66
-2.45
-12.06
-19.67
-25.18
-28.57
-29.87
-28.97
-25.67
-19.75
-11.4
-1.26
9.69
20.12
28.97
35.37
39.03
40.1
39.02
36.45
33.04
29.35
25.86
22.93
20.81
19.65
19.4
19.65
19.97
19.82
18.6
15.87
11.25
4.6
-4
-14.23
-25.64
-37.47
-48.83
-58.79
-66.7
-72.14
-75.1
-75.81
-74.65
-72.02
-68.27
-63.73
-58.73
-53.66
-48.96
-44.98
-41.8
-39.09
-36.2
-32.41
-27.14
-20.21
-11.85
-2.59
6.81
15.73
23.79
30.76
36.6
41.23
44.58
46.61
47.51
47.63
47.47
47.62
48.32
49.52
50.74
51.3
50.63
48.37
44.61
39.68
34.08
28.23
22.49
17.14
12.3
8.15
4.86
2.61
1.48
1.34
1.9
2.69
3.31
3.43
2.78
1.43
-0.44
-2.55
-4.73
-6.87
-9.12
-11.65
-14.59
-17.96
-21.33
-24.05
-25.37
-24.77
-22.12
-17.75
-12.27
-6.34
-0.53
4.69
9.03
12.22
14.04
14.55
13.96
12.65
11.09
9.51
8.05
6.85
6
5.73
6.25
7.61
9.49
11.56
13.31
14.48
15.09
15.22
15.08
14.66
13.93
12.71
11.03
8.93
6.6
4.25
2.04
0.02
-1.94
-4.02
-6.46
-9.16
-12.03
-14.79
-17.19
-19.2
-20.82
-22.26
-23.64
-25.03
-26.17
-26.79
-26.49
-24.89
-21.89
-17.46
-11.92
-5.78
0.24
5.54
9.62
12.37
13.9
14.48
14.42
13.85
12.9
11.49
9.72
7.68
5.52
3.45
1.56
0.01
-1.16
-1.85
-2.04
-1.61
-0.67
0.77
2.62
4.72
6.91
8.98
10.79
12.17
12.96
13.06
12.4
10.98
8.85
6.22
3.14
-0.14
-3.48
-6.8
-10.1
-13.35
-16.54
-19.51
-21.86
-23.25
-23.16
-21.26
-17.43
-11.87
-5.01
2.43
9.67
16.18
21.47
25.46
28.17
29.83
30.45
29.9
27.99
24.53
19.63
13.45
6.45
-1.05
-8.63
-16.02
-23.03
-29.42
-34.86
-38.99
-41.45
-41.89
-40.11
-36.16
-30.22
-22.63
-13.9
-4.66
4.44
12.66
19.43
24.34
27.26
28.39
28.08
26.73
24.58
21.79
18.28
13.91
8.57
2.33
-4.43
-11.18
-17.11
-21.48
-23.49
-22.76
-19.35
-13.82
-7.13
-0.33
5.61
9.98
12.5
13.35
12.91
11.7
10.16
8.61
7.32
6.51
6.21
6.5
7.31
8.55
10
11.44
12.66
13.54
14.12
14.5
14.73
14.76
14.52
13.8
12.45
10.45
7.92
5.02
2
-1.09
-4.32
-7.69
-11.15
-14.46
-17.29
-19.42
-20.79
-21.61
-22.24
-22.95
-23.93
-25.14
-26.36
-27.4
-27.98
-27.81
-26.59
-24.1
-20.2
-15.04
-9.13
-3
2.76
7.72
11.81
15.04
17.48
19.19
20.23
20.48
19.98
18.85
17.22
15.35
13.55
12.07
11.15
10.9
11.19
11.82
12.44
12.78
12.74
12.24
11.31
9.94
8.09
5.74
2.96
-0.13
-3.3
-6.23
-8.71
-10.71
-12.16
-13.2
-13.94
-14.5
-14.97
-15.56
-16.31
-17.34
-18.65
-20.05
-21.24
-21.81
-21.37
-19.62
-16.61
-12.49
-7.67
-2.56
2.42
6.89
10.56
13.32
15.1
15.96
16.04
15.57
14.67
13.58
12.37
11.14
10.12
9.35
9.02
9.29
10.09
11.15
12.14
12.6
12.26
11.07
9.2
6.97
4.72
2.56
0.44
-1.73
-3.98
-6.17
-8.04
-9.36
-10.17
-10.57
-10.89
-11.43
-12.38
-13.76
-15.46
-17.24
-18.74
-19.57
-19.2
-17.39
-13.96
-9.16
-3.55
2.2
7.34
11.31
13.75
14.72
14.32
12.85
10.62
7.83
4.76
1.71
-1.03
-3.1
-4.21
-4.29
-3.57
-2.32
-0.91
0.5
1.97
3.57
5.39
7.36
9.13
10.31
10.64
9.94
8.34
6.02
3.25
0.34
-2.51
-5.14
-7.49
-9.53
-11.47
-13.43
-15.54
-17.7
-19.45
-20.18
-19.37
-16.8
-12.67
-7.7
-2.66
1.74
5.13
7.47
8.96
9.74
9.92
9.49
8.23
6.27
3.8
1.3
-0.71
-1.8
-1.73
-0.65
0.97
2.62
4.09
5.38
6.67
8.13
9.69
11.09
11.97
12.02
11.2
9.7
7.76
5.51
3.06
0.24
-2.86
-6.27
-9.76
-13.18
-16.43
-19.55
-22.68
-25.78
-28.72
-31.03
-32.07
-31.17
-27.93
-22.39
-15.12
-7.07
0.78
7.53
12.64
16
17.74
18.12
17.39
15.81
13.73
11.53
9.53
8.1
7.38
7.36
7.95
8.96
10.31
11.91
13.7
15.34
16.46
16.68
15.68
13.49
10.37
6.6
2.58
-1.4
-5.12
-8.4
-10.98
-12.76
-13.66
-13.7
-13.21
-12.49
-11.85
-11.55
-11.79
-12.6
-13.96
-15.59
-17.02
-17.82
-17.48
-15.74
-12.57
-8.16
-2.9
2.55
7.67
12.06
15.51
18.07
19.88
20.96
21.2
20.47
18.63
15.98
13.24
11.24
10.64
11.67
13.89
16.65
19.15
20.74
21.09
20.17
17.93
14.35
9.39
2.96
-4.69
-13.23
-22.01
-30.28
-37.28
-42.5
-45.51
-46.05
-44.13
-39.9
-33.76
-26.35
-18.53
-11.14
-4.99
-0.47
2.45
4.02
4.74
5.2
5.79
6.7
7.9
9.15
10.2
10.91
11.24
11.39
11.56
11.88
12.26
12.62
12.78
12.76
12.8
13.12
13.97
15.36
17.05
18.66
19.84
20.26
19.82
18.54
16.46
13.75
10.61
7.16
3.58
-0
-3.44
-6.62
-9.44
-11.85
-13.77
-15.19
-16.32
-17.34
-18.43
-19.64
-20.98
-22.42
-23.91
-25.29
-26.32
-26.73
-26.05
-23.93
-20.24
-15.33
-9.9
-4.7
-0.3
3.05
5.54
7.53
9.32
11.07
12.69
14.04
15.03
15.72
16.23
16.78
17.41
17.99
18.28
18.14
17.54
16.58
15.52
14.58
14.05
13.86
13.74
13.38
12.49
11.01
9.04
6.88
4.72
2.72
0.8
-1.19
-3.29
-5.58
-7.91
-10.32
-12.67
-14.85
-16.63
-17.62
-17.37
-15.53
-12.2
-7.7
-2.69
2.13
6.29
9.47
11.61
12.77
13.02
12.31
10.67
8.23
5.18
2.05
-0.69
-2.56
-3.22
-2.55
-0.83
1.43
3.76
5.59
6.88
7.73
8.5
9.56
11.13
13.28
15.89
19.06
22.57
26.31
29.89
32.68
34.09
33.43
30.41
25.02
17.64
8.8
-0.6
-9.65
-17.49
-23.32
-26.98
-28.5
-28.23
-26.76
-24.75
-22.59
-20.67
-19.44
-19.07
-19.74
-21.27
-23.15
-24.83
-25.89
-26.14
-25.61
-24.58
-23.04
-21.03
-18.38
-15.03
-11.1
-6.89
-2.81
0.79
3.6
5.62
6.75
7.13
6.71
5.51
3.64
1.3
-1.19
-3.53
-5.41
-7.05
-8.58
-10.25
-12
-13.37
-13.68
-12.42
-9.49
-5.24
-0.52
3.87
7.35
9.78
11.34
12.25
12.57
12.26
11.3
9.66
7.66
5.75
4.41
3.98
4.49
5.66
7.07
8.4
9.2
9.32
8.77
7.52
5.68
3.34
0.61
-2.33
-5.23
-8.05
-10.61
-12.8
-14.71
-16.53
-18.54
-21.14
-24.47
-28.39
-32.4
-35.71
-37.53
-37.29
-34.81
-30.25
-24.23
-17.46
-10.65
-4.35
0.96
5.09
7.88
9.62
10.62
11.16
11.75
12.8
14.87
18.49
24.03
31.5
40.86
51.58
62.95
74.23
84.57
93.2
99.47
102.74
102.47
98.23
89.76
77.02
60.34
40.56
18.84
-3.25
-24.17
-42.48
-57.21
-67.78
-73.96
-75.84
-73.89
-68.83
-61.45
-52.6
-42.77
-32.3
-21.42
-10.44
0.16
9.57
16.95
21.76
23.82
23.46
21.32
18.04
14.22
10.32
6.61
3.32
0.61
-1.4
-2.93
-4.16
-5.46
-6.9
-8.44
-9.91
-11.12
-11.97
-12.46
-12.74
-12.93
-13.12
-13.27
-13.36
-13.43
-13.46
-13.48
-13.53
-13.69
-13.81
-13.79
-13.61
-13.16
-12.6
-12.12
-11.91
-12.11
-12.8
-13.69
-14.52
-14.96
-14.55
-13.05
-10.25
-6.16
-0.99
4.69
10.25
14.89
18.06
19.61
19.75
19.01
17.94
16.97
16.27
15.83
15.46
15.06
14.64
14.28
14.15
14.3
14.65
15.08
15.57
15.92
16.03
15.85
15.25
14.2
12.76
10.84
8.44
5.78
3.01
0.4
-1.68
-3.09
-3.74
-3.71
-3.27
-2.77
-2.31
-2.06
-2.14
-2.61
-3.74
-5.71
-8.61
-12.34
-16.57
-20.65
-23.79
-25.22
-24.43
-21.48
-16.72
-10.88
-4.75
1.03
5.94
9.58
11.83
12.66
12.02
10.22
7.64
4.91
2.62
1.19
0.85
1.55
3.05
4.87
6.63
8.05
8.95
9.39
9.42
9.16
8.61
7.83
6.92
6.17
5.93
6.51
8.08
10.57
13.77
17.39
21.17
24.93
28.37
30.82
31.52
29.75
25.08
17.56
7.87
-2.97
-13.67
-23
-30
-34.05
-34.98
-33.14
-29.3
-24.28
-18.78
-13.18
-7.53
-1.68
4.63
11.42
18.64
26.17
33.72
40.97
47.43
52.43
55.21
55.31
52.48
47.12
40.02
32.11
24.19
16.77
9.92
3.48
-2.8
-9.08
-15.47
-21.79
-28
-33.89
-39.39
-44.38
-48.71
-52.2
-54.7
-56.17
-56.6
-56.29
-55.43
-54.38
-53.38
-52.47
-51.51
-50.23
-48.13
-44.84
-40.24
-34.36
-27.67
-20.8
-14.37
-8.9
-4.73
-1.73
0.26
1.48
2.29
2.87
3.44
4.27
5.54
7.36
9.72
12.39
14.91
16.98
18.25
18.68
18.41
17.68
16.67
15.52
14.31
13.09
12.01
11.11
10.57
10.51
11.1
12.39
14.34
16.85
19.6
22.33
24.71
26.59
27.96
28.79
29.14
28.93
28.13
26.61
24.32
21.28
17.59
13.56
9.43
5.66
2.53
0.21
-1.37
-2.49
-3.46
-4.62
-5.98
-7.5
-9.02
-10.52
-11.99
-13.61
-15.41
-17.26
-18.96
-20.12
-20.46
-19.89
-18.44
-16.37
-13.88
-11.11
-8.12
-4.98
-1.79
1.34
4.2
6.71
8.76
10.41
11.71
12.66
13.22
13.22
12.56
11.19
9.15
6.44
2.97
-1.36
-6.5
-12.38
-18.7
-25.02
-30.97
-36.08
-40.12
-42.94
-44.25
-43.76
-41.11
-36.13
-28.92
-20.01
-10.08
-0.05
9.19
17.04
23.05
27.01
28.92
28.99
27.42
24.62
21.05
17.28
13.9
11.41
10.22
10.57
12.55
15.81
20.09
24.93
29.98
34.85
39.01
42
43.54
43.39
41.5
38.17
33.7
28.51
22.98
17.26
11.48
5.7
-0.01
-5.65
-11.15
-16.49
-21.66
-26.54
-31.17
-35.55
-39.86
-44.17
-48.5
-52.58
-55.94
-57.88
-57.58
-54.5
-48.43
-39.7
-29.16
-17.86
-6.74
3.56
12.8
21.11
28.6
35.17
40.51
44.1
45.6
44.96
42.69
39.38
35.82
32.51
29.64
27.21
25.09
23.13
21.2
19.32
17.4
15.5
13.58
11.64
9.66
7.52
4.98
1.73
-2.43
-7.55
-13.39
-19.54
-25.61
-31.13
-35.84
-39.56
-42.04
-43.21
-43
-41.48
-38.68
-34.88
-30.22
-24.98
-19.3
-13.27
-7.1
-1.19
4.02
8.18
11
12.61
13.09
12.74
11.79
10.35
8.44
6.13
3.62
1.17
-0.82
-2.12
-2.64
-2.42
-1.76
-0.87
-0.09
0.37
0.47
0.39
0.31
0.27
0.12
-0.51
-1.91
-4.31
-7.69
-11.81
-16.15
-20.3
-23.95
-26.94
-29.31
-31.07
-32.28
-33.16
-33.83
-34.36
-34.72
-34.75
-34.19
-32.75
-30.19
-26.42
-21.61
-15.95
-9.81
-3.46
3.01
9.63
16.56
24.1
32.42
41.64
51.88
62.94
74.61
86.52
98.04
108.26
115.86
119.33
117.08
107.92
91.37
67.81
38.57
5.52
-29.16
-63.34
-94.95
-122.29
-143.94
-158.99
-167.06
-168.34
-163.57
-153.74
-139.91
-122.95
-103.68
-82.9
-61.52
-40.45
-20.68
-3.01
12.01
24.21
33.78
41.15
46.89
51.56
55.67
59.35
62.56
64.99
66.41
66.78
66.36
65.71
65.25
65.31
65.63
65.74
65.01
62.91
59.26
54.17
48.02
41.26
34.44
27.9
21.91
16.55
11.66
6.97
2.1
-3.17
-8.92
-14.9
-20.77
-25.99
-29.92
-32.11
-32.16
-30.22
-26.69
-22.41
-18.2
-14.91
-12.98
-12.46
-13.23
-14.75
-16.54
-18
-18.64
-17.94
-15.94
-12.72
-8.76
-4.8
-1.49
0.55
0.92
-0.49
-3.42
-7.56
-12.32
-17.02
-21.18
-24.28
-26.01
-26.31
-25.17
-22.8
-19.46
-15.59
-11.57
-7.93
-4.81
-2.31
-0.32
1.42
2.98
4.21
4.77
4.39
2.74
0.02
-3.43
-7.1
-10.38
-12.85
-14.39
-14.98
-14.8
-14.19
-13.13
-11.75
-9.89
-7.37
-4.02
0.17
5.07
10.33
15.37
19.92
23.6
26.23
27.73
28.16
27.59
26.17
24.12
21.57
18.91
16.26
13.76
11.51
9.52
7.7
5.99
4.28
2.58
1.12
0.01
-0.7
-1.1
-1.59
-2.41
-3.78
-5.67
-7.89
-10.1
-12.17
-14.01
-15.65
-17.34
-19.06
-20.79
-22.33
-23.45
-23.77
-23.09
-21.36
-18.61
-15.22
-11.51
-7.9
-4.62
-1.92
0.18
1.72
2.85
3.79
4.6
5.43
6.39
7.69
9.52
11.93
14.91
18.37
22.09
25.73
28.91
31.11
32
31.38
29.13
25.45
20.84
15.95
11.34
7.48
4.43
2.07
0.14
-1.65
-3.62
-5.82
-8.03
-9.94
-11.05
-11.03
-9.77
-7.35
-4.05
-0.34
3.28
6.33
8.49
9.62
9.64
8.67
6.98
4.99
3.06
1.41
0.16
-0.68
-1.04
-0.92
-0.31
0.82
2.4
4.25
6.1
7.63
8.47
8.51
7.55
5.65
2.99
-0.21
-3.61
-6.98
-10.11
-13.01
-15.59
-18.01
-20.34
-22.63
-24.83
-26.71
-27.81
-27.61
-25.71
-21.88
-16.35
-9.61
-2.43
4.43
10.36
15.06
18.46
20.61
21.68
21.77
21.04
19.74
18.11
16.38
14.8
13.34
11.94
10.54
9.07
7.6
6.33
5.27
4.45
3.75
2.91
1.76
0.18
-1.81
-4.27
-7.12
-10.26
-13.44
-16.27
-18.49
-19.96
-20.71
-20.97
-21.1
-21.35
-21.71
-21.86
-21.25
-19.46
-16.22
-11.68
-6.3
-0.64
4.77
9.61
13.81
17.42
20.39
22.72
24.19
24.78
24.6
23.87
22.88
21.81
20.83
20.05
19.59
19.45
19.71
20.29
20.94
21.42
21.44
21.01
20.38
19.88
19.67
19.82
20.19
20.47
20.54
20.34
19.88
18.98
17.34
14.35
9.53
2.77
-5.74
-15.29
-25.11
-34.56
-43.22
-50.65
-56.39
-59.79
-60.1
-56.89
-50.17
-40.77
-29.95
-19.14
-9.48
-1.69
3.96
7.59
9.47
10.14
10.1
9.85
9.97
10.79
12.32
14.43
16.87
19.34
21.6
23.43
24.55
24.9
24.37
22.98
20.85
18.2
15.22
12.12
9.12
6.39
4.03
2.01
0.33
-1.08
-2.25
-3.28
-4.2
-5.12
-6.25
-7.69
-9.55
-11.66
-13.72
-15.56
-17.14
-18.65
-20.4
-22.78
-25.78
-29.08
-31.95
-33.4
-32.78
-29.66
-24.23
-17.1
-9.21
-1.47
5.37
10.84
14.84
17.39
18.66
18.81
18.08
16.85
15.52
14.45
13.92
14.09
14.93
16.3
17.98
19.65
21.11
22.09
22.34
21.71
20.18
17.82
14.91
11.74
8.58
5.73
3.38
1.61
0.38
-0.39
-0.86
-1.21
-1.68
-2.55
-4.03
-6.15
-8.86
-11.93
-15
-17.77
-19.99
-21.72
-23.14
-24.41
-25.6
-26.67
-27.34
-27.29
-26.26
-24
-20.5
-15.86
-10.24
-3.98
2.59
8.89
14.52
18.98
21.98
23.59
23.84
23.03
21.46
19.49
17.54
16.06
15.25
15.21
15.84
16.72
17.41
17.63
17.25
16.37
15.11
13.57
11.79
9.76
7.4
4.86
2.37
0.22
-1.37
-2.49
-3.36
-4.29
-5.5
-7.1
-8.82
-10.37
-11.56
-12.37
-13
-13.69
-14.72
-16.21
-18.3
-20.95
-24.01
-27.15
-29.75
-31.03
-30.27
-27.05
-21.42
-13.92
-5.45
2.99
10.45
16.34
20.48
22.92
24.03
24.09
23.3
21.79
19.56
16.69
13.49
10.43
7.95
6.41
5.85
6.01
6.57
7.33
8.22
9.28
10.55
11.92
13.2
14.07
14.23
13.51
11.95
9.75
7.18
4.46
1.7
-1.04
-3.77
-6.59
-9.47
-12.32
-14.94
-17.08
-18.67
-19.74
-20.39
-20.77
-21.15
-21.66
-22.53
-23.79
-25.05
-25.85
-25.53
-23.61
-19.95
-14.81
-8.68
-2.29
3.73
9.16
13.79
17.52
20.21
21.69
21.85
20.85
18.83
16.13
13.26
10.58
8.35
6.77
5.88
5.64
6.01
6.8
7.81
8.91
9.87
10.6
11.11
11.32
11.1
10.52
9.56
8.33
6.99
5.58
4.13
2.64
0.84
-1.46
-4.16
-7.1
-9.9
-12.36
-14.47
-16.37
-18.25
-20.43
-22.96
-25.73
-28.54
-31.01
-32.65
-32.88
-31.2
-27.4
-21.65
-14.61
-7.18
-0.18
5.74
10.43
13.88
16.26
17.68
18.2
17.89
16.86
15.43
13.87
12.54
11.52
10.87
10.53
10.42
10.56
11.03
11.85
12.86
13.81
14.3
13.95
12.67
10.48
7.67
4.48
1.2
-2.13
-5.18
-7.78
-9.77
-10.96
-11.41
-11.27
-10.85
-10.38
-10.12
-9.94
-9.92
-10.07
-10.51
-11.48
-13.1
-15.44
-18.26
-21.21
-23.52
-24.58
-23.75
-20.76
-15.82
-9.55
-2.86
3.39
8.52
12.22
14.52
15.62
15.73
14.81
12.94
10.3
7.15
3.99
1.32
-0.38
-0.88
-0.15
1.45
3.54
5.88
8.16
10.39
12.4
14.1
15.23
15.64
15.08
13.66
11.59
9.12
6.57
4.05
1.61
-0.81
-3.13
-5.25
-6.98
-8.23
-9.09
-9.62
-10.1
-10.71
-11.59
-12.89
-14.65
-16.98
-19.71
-22.62
-25.04
-26.3
-25.86
-23.35
-18.92
-13.14
-6.79
-0.63
4.66
8.75
11.6
13.33
14.24
14.6
14.55
14.26
13.91
13.66
13.59
13.72
13.95
14.15
14.18
13.95
13.46
12.76
11.94
11.03
10.11
9.12
8.13
7.07
5.86
4.43
2.76
0.8
-1.49
-4.01
-6.74
-9.53
-12.24
-14.87
-17.49
-20.13
-22.8
-25.45
-27.85
-29.8
-30.98
-31.05
-29.75
-26.93
-22.63
-17.09
-10.84
-4.37
1.75
7.11
11.52
14.89
17.19
18.44
18.56
17.56
15.62
13.02
10.22
7.82
6.34
6.02
6.9
8.66
10.92
13.32
15.41
16.82
17.38
16.99
15.63
13.41
10.57
7.33
3.94
0.54
-2.76
-5.95
-9.16
-12.57
-16.34
-20.58
-25.15
-29.8
-33.96
-36.89
-37.85
-36.44
-32.6
-26.72
-19.52
-11.81
-4.34
2.36
7.94
12.25
15.13
16.52
16.52
15.34
13.32
10.92
8.62
6.77
5.66
5.34
5.73
6.61
7.64
8.58
9.17
9.28
8.87
7.86
6.32
4.22
1.6
-1.5
-4.81
-8.01
-10.79
-13
-14.6
-15.7
-16.5
-17.16
-17.85
-18.43
-18.69
-18.33
-17
-14.51
-10.83
-6.18
-0.95
4.5
9.87
14.93
19.53
23.62
26.88
29.08
29.96
29.34
27.31
24.05
19.77
14.87
9.75
4.72
0.21
-3.43
-5.9
-7.11
-7.22
-6.68
-6.01
-5.63
-5.85
-6.58
-7.72
-9.02
-10.43
-11.96
-13.81
-16.06
-18.66
-21.52
-24.2
-26.49
-28.04
-28.51
-27.47
-24.6
-19.83
-13.55
-6.46
0.67
7.03
12.13
15.81
18.26
19.75
20.41
20.21
19.11
17.27
15.01
12.76
11
10
9.81
10.27
11.15
12.15
13.03
13.6
13.55
12.57
10.3
6.73
2.13
-2.9
-7.68
-11.69
-14.65
-16.57
-17.74
-18.54
-19.39
-20.55
-22.02
-23.69
-25.04
-25.51
-24.5
-21.72
-17.22
-11.55
-5.3
0.87
6.51
11.49
15.69
19.1
21.59
23.14
23.76
23.71
23.4
23.22
23.5
24.25
25.28
26.24
26.85
26.89
26.28
25.15
23.55
21.7
19.64
17.43
15.17
12.96
10.92
8.99
7.14
5.16
2.99
0.53
-2.08
-4.56
-6.66
-8.23
-9.46
-10.52
-11.66
-12.87
-14.2
-15.6
-17.06
-18.76
-20.76
-23.24
-26.11
-29.17
-31.87
-33.62
-33.91
-32.32
-28.81
-23.59
-17.08
-9.89
-2.71
4.03
10.02
14.96
18.78
21.39
22.88
23.46
23.35
22.67
21.61
20.48
19.47
18.81
18.53
18.58
18.8
19.07
19.34
19.62
19.98
20.32
20.56
20.31
19.36
17.66
15.32
12.64
10.05
7.77
6.05
5.06
4.62
4.56
4.67
4.71
4.43
3.8
2.72
1.3
-0.29
-2.01
-3.84
-5.82
-8.04
-10.56
-13.22
-15.9
-18.27
-20.24
-21.74
-22.98
-24.19
-25.62
-27.32
-29.24
-31.18
-32.69
-33.28
-32.46
-29.85
-25.53
-19.9
-13.51
-7.11
-1.27
3.72
7.74
10.84
13.12
14.51
15.09
15.07
14.75
14.45
14.46
14.81
15.39
16.12
16.75
17.34
17.97
18.75
19.63
20.47
20.97
21.01
20.67
20.04
19.41
18.99
18.81
18.7
18.47
17.62
15.96
13.41
10.06
6.3
2.51
-0.93
-3.83
-5.98
-7.51
-8.48
-9.1
-9.72
-10.5
-11.72
-13.45
-15.58
-17.75
-19.68
-21.17
-22.26
-23.31
-24.62
-26.45
-28.68
-30.93
-32.55
-32.96
-31.7
-28.64
-24.06
-18.31
-11.93
-5.35
0.99
6.77
11.54
15.14
17.52
18.7
19.06
18.85
18.4
17.83
17.13
16.26
15.37
14.59
14.05
13.91
14.09
14.52
15.06
15.59
16.06
16.48
16.91
17.26
17.5
17.52
17.23
16.63
15.8
14.76
13.46
11.93
10.05
7.81
5.22
2.39
-0.4
-2.97
-5.24
-7.28
-9.29
-11.48
-13.92
-16.54
-19
-21
-22.31
-23
-23.26
-23.41
-23.61
-23.91
-24.24
-24.46
-24.47
-24.08
-23.1
-21.32
-18.51
-14.74
-10.34
-5.8
-1.79
1.24
3.27
4.61
5.65
6.72
7.72
8.44
8.68
8.42
7.92
7.62
7.97
9.01
10.72
12.73
14.83
16.93
18.89
20.66
21.98
22.57
22.03
20.3
17.55
14.29
11.14
8.41
6.26
4.47
2.71
0.84
-1.06
-2.81
-4.27
-5.49
-6.75
-8.27
-10.09
-12.11
-13.96
-15.37
-16.19
-16.66
-17.07
-17.73
-18.65
-19.78
-21.02
-22.25
-23.35
-24.1
-24.19
-23.25
-20.93
-17.24
-12.47
-7.25
-2.25
2.08
5.59
8.37
10.5
12.13
13.22
13.77
13.79
13.39
12.69
11.87
11.11
10.51
10.18
10.15
10.43
10.96
11.7
12.53
13.3
13.9
14.23
14.24
13.91
13.21
12.18
10.82
9.19
7.32
5.15
2.66
-0.2
-3.42
-6.92
-10.45
-13.85
-16.86
-19.25
-20.96
-21.9
-22.14
-21.75
-20.87
-19.73
-18.56
-17.6
-16.98
-16.67
-16.51
-16.06
-14.88
-12.66
-9.41
-5.51
-1.52
1.97
4.57
6.12
6.66
6.31
5.29
3.93
2.62
1.9
2.1
3.32
5.37
7.89
10.54
13.06
15.41
17.49
19.18
20.15
20.12
18.94
16.81
14.01
10.84
7.66
4.62
1.94
-0.12
-1.42
-1.79
-1.35
-0.41
0.51
0.99
0.63
-0.61
-2.61
-5.26
-8.24
-11.37
-14.36
-17.01
-19.16
-20.84
-22.2
-23.42
-24.79
-26.23
-27.52
-28.13
-27.5
-25.29
-21.57
-16.71
-11.3
-5.96
-0.95
3.42
7.13
10.15
12.36
13.67
14.08
13.71
12.84
11.92
11.21
10.85
10.9
11.3
11.91
12.69
13.58
14.53
15.41
15.98
15.86
14.77
12.51
9.15
5.06
0.85
-2.83
-5.6
-7.38
-8.29
-8.69
-8.93
-9.31
-9.99
-11.12
-12.64
-14.52
-16.75
-19.14
-21.51
-23.68
-25.45
-26.56
-26.82
-25.93
-23.67
-20.02
-15.03
-8.95
-2.19
4.75
11.32
16.97
21.2
23.81
24.77
24.22
22.37
19.62
16.21
12.28
8.05
3.71
-0.31
-3.47
-5.29
-5.61
-4.53
-2.45
0.05
2.46
4.47
5.99
7.14
8.09
8.71
8.84
8.28
6.84
4.54
1.59
-1.75
-5.02
-7.88
-10.21
-12.03
-13.55
-14.99
-16.49
-18.2
-20.07
-21.76
-22.86
-22.93
-21.58
-18.88
-14.93
-10.07
-4.81
0.43
5.29
9.45
12.71
14.93
15.93
15.76
14.59
12.69
10.45
8.26
6.4
5.05
4.44
4.48
5.12
6.24
7.68
9.26
10.81
12.13
12.93
13.07
12.33
10.62
8.07
4.93
1.61
-1.55
-4.28
-6.33
-7.74
-8.62
-9.27
-10.05
-11.3
-13.13
-15.44
-17.9
-19.98
-21.11
-20.88
-19.01
-15.54
-10.82
-5.32
0.39
5.84
10.75
15.09
18.74
21.69
23.79
24.93
25.12
24.72
24.22
24.15
25.01
26.8
29.32
32.08
34.7
36.87
38.64
40.05
41.17
42.04
42.57
42.66
42.3
41.62
40.75
39.92
39.02
37.96
36.42
34
30.19
24.46
16.26
5.12
-9.13
-26.42
-46.1
-67.15
-88.04
-107.1
-122.72
-133.76
-139.58
-140.02
-135.41
-126.27
-113.37
-97.56
-79.69
-60.63
-41.13
-21.74
-2.74
15.69
33.47
50.36
65.99
79.97
91.74
100.54
105.55
106.08
101.6
92.22
78.61
61.88
43.39
24.32
5.56
-12.33
-28.79
-43.26
-55.07
-63.59
-68.56
-70.06
-68.67
-65.03
-59.83
-53.67
-46.94
-40.06
-33.46
-27.53
-22.52
-18.54
-15.45
-13.02
-11.23
-10.05
-9.56
-9.81
-10.67
-11.72
-12.29
-11.56
-8.74
-3.33
4.83
15.46
28.03
41.77
55.97
69.85
82.77
94.05
102.95
108.7
110.62
108.29
101.57
90.7
76.2
59.05
40.41
21.65
4.07
-11.18
-23.33
-32
-37.4
-40.14
-41.17
-41.58
-42.25
-43.64
-45.56
-47.47
-48.52
-47.99
-45.53
-41.3
-35.9
-30.11
-24.64
-20.03
-16.73
-14.96
-14.88
-16.43
-19.33
-23.06
-26.72
-29.4
-30.28
-28.89
-25.16
-19.4
-12.16
-4.02
4.41
12.83
20.95
28.44
34.98
40.17
43.71
45.36
45.24
43.5
40.51
36.64
32.12
27.2
22.09
17.02
12.12
7.65
3.65
0.14
-2.9
-5.54
-7.73
-9.22
-9.72
-8.94
-6.73
-3.29
0.86
5.09
8.7
11.23
12.49
12.57
11.75
10.34
8.57
6.42
4.05
1.5
-1
-3.27
-5.11
-6.37
-7
-7.09
-6.85
-6.33
-5.72
-5.02
-4.4
-3.95
-3.71
-3.66
-3.88
-4.44
-5.48
-7.18
-9.65
-12.88
-16.73
-20.85
-24.88
-28.32
-30.65
-31.46
-30.55
-28.08
-24.49
-20.45
-16.71
-13.98
-12.6
-12.7
-13.97
-15.9
-17.69
-18.55
-17.82
-15.22
-10.99
-5.64
-0.01
5.19
9.32
12.09
13.34
13.26
12.13
10.43
8.79
7.64
7.21
7.67
8.86
10.59
12.65
14.84
17.06
19.2
21.22
22.93
24.36
25.3
25.67
25.25
23.95
21.74
18.73
15.21
11.45
7.82
4.5
1.64
-0.91
-3.39
-5.96
-8.67
-11.41
-13.88
-15.93
-17.57
-18.99
-20.51
-22.51
-25.04
-27.85
-30.37
-31.93
-31.88
-29.88
-25.91
-20.37
-13.92
-7.23
-0.83
4.99
10.11
14.49
18.07
20.7
22.37
23.24
23.68
24.22
25.24
26.87
28.92
31.04
32.78
33.76
33.77
32.72
30.58
27.6
23.98
20
15.93
12
8.4
5.32
2.95
1.32
0.4
-0.06
-0.47
-1.25
-2.65
-4.69
-7.23
-10.03
-12.96
-15.87
-18.81
-21.77
-24.79
-27.75
-30.31
-32.01
-32.37
-30.97
-27.61
-22.48
-16.06
-9.11
-2.53
3.02
7.09
9.67
11.03
11.65
11.95
12.19
12.49
12.73
12.8
12.72
12.65
12.74
13.22
14.03
15.03
15.97
16.57
16.73
16.38
15.5
14.18
12.55
10.66
8.62
6.48
4.28
2.17
0.16
-1.78
-3.59
-5.27
-6.81
-8.18
-9.47
-10.71
-11.95
-13.27
-14.88
-16.82
-19.14
-21.74
-24.13
-25.77
-26.16
-24.81
-21.69
-17.14
-11.71
-6.08
-0.99
3.24
6.44
8.67
10.21
11.33
12.19
12.84
13.25
13.39
13.42
13.52
13.93
14.76
16.06
17.72
19.62
21.49
23.12
24.21
24.55
23.94
22.45
20.16
17.42
14.57
11.88
9.51
7.52
5.8
4.11
2.38
0.39
-1.91
-4.56
-7.46
-10.54
-13.68
-16.95
-20.52
-24.47
-28.92
-33.66
-38.33
-42.21
-44.55
-44.68
-42.3
-37.39
-30.21
-21.4
-11.79
-2.27
6.3
13.32
18.47
21.77
23.51
24.11
23.92
23.1
21.83
20.26
18.62
17.23
16.36
16.13
16.44
17.06
17.74
18.27
18.5
18.44
18.01
17.19
15.86
14.08
12.01
9.81
7.75
5.8
4.05
2.48
1.06
-0.37
-1.9
-3.77
-6.32
-9.64
-13.75
-18.19
-22.38
-25.79
-28.21
-29.61
-30.28
-30.57
-30.62
-30.43
-29.84
-28.57
-26.41
-23.19
-18.93
-13.78
-8.11
-2.3
3.14
7.78
11.37
13.84
15.37
16.11
16.31
16.1
15.68
15.16
14.69
14.44
14.56
15.14
16.18
17.59
19.15
20.65
21.93
22.92
23.68
24.27
24.63
24.58
23.83
22.04
19.18
15.45
11.28
7.2
3.71
0.97
-0.95
-2.14
-2.74
-2.85
-2.6
-2.22
-2.05
-2.27
-3.09
-4.54
-6.41
-8.56
-10.82
-13.11
-15.58
-18.26
-21.11
-23.93
-26.36
-27.89
-28.17
-26.93
-24.2
-20.25
-15.47
-10.45
-5.64
-1.36
2.24
4.97
6.75
7.43
6.92
5.25
2.59
-0.75
-4.28
-7.4
-9.55
-10.31
-9.47
-7.15
-3.68
0.46
4.89
9.26
13.45
17.21
20.3
22.4
23.14
22.35
20.04
16.61
12.55
8.45
4.82
1.97
0.02
-1.14
-1.6
-1.51
-0.94
0.05
1.29
2.47
3.29
3.47
2.91
1.76
0.12
-1.97
-4.61
-8.08
-12.51
-17.74
-23.13
-27.7
-30.33
-30.34
-27.62
-22.61
-16.2
-9.32
-2.8
2.74
7.02
9.92
11.42
11.55
10.45
8.45
6.01
3.74
2.08
1.34
1.67
2.79
4.36
6.08
7.7
9.21
10.61
11.83
12.79
13.34
13.33
12.77
11.85
10.7
9.61
8.69
7.93
7.25
6.3
4.76
2.5
-0.5
-4.06
-7.88
-11.61
-15.03
-17.96
-20.5
-22.68
-24.47
-25.88
-26.87
-27.39
-27.32
-26.46
-24.37
-20.86
-15.75
-9.35
-2.21
4.89
11.2
16.16
19.41
20.89
20.61
18.82
15.88
12.26
8.49
5.03
2.24
0.21
-0.99
-1.41
-1.1
0.03
1.94
4.59
7.61
10.53
12.73
13.75
13.34
11.59
8.84
5.49
2.05
-1.18
-4.01
-6.38
-8.22
-9.63
-10.6
-11.24
-11.78
-12.39
-13.28
-14.63
-16.68
-19.44
-22.98
-27.13
-31.6
-36
-39.71
-42.18
-43.08
-42.29
-39.86
-36.06
-31.05
-24.98
-18.07
-10.45
-2.48
5.49
13.16
20.29
26.6
32.05
36.45
39.53
41.18
41.14
39.51
36.63
32.92
28.86
24.95
21.45
18.42
15.95
13.9
12.34
11.39
11.01
11.13
11.54
11.97
12.1
11.81
11.04
9.74
8.03
5.9
3.42
0.66
-2.25
-5.18
-7.89
-10.25
-12.31
-14.04
-15.54
-16.76
-17.59
-17.89
-17.52
-16.39
-14.52
-12.13
-9.41
-6.72
-4.34
-2.48
-1.23
-0.49
-0.12
-0.05
-0.27
-0.67
-1.17
-1.53
-1.58
-1.17
-0.27
0.96
2.27
3.41
4.33
4.97
5.33
5.37
5.09
4.56
3.94
3.47
3.33
3.58
4.02
4.31
4.12
3.19
1.56
-0.55
-2.77
-4.81
-6.56
-8.05
-9.42
-10.83
-12.45
-14.32
-16.44
-18.44
-19.94
-20.39
-19.45
-16.89
-12.85
-7.8
-2.41
2.58
6.65
9.47
11
11.38
10.94
9.95
8.63
7.13
5.58
4.13
3.02
2.39
2.43
3.17
4.46
6.12
7.87
9.39
10.5
11.06
11
10.36
9.17
7.56
5.59
3.31
0.81
-1.84
-4.44
-6.9
-9.04
-10.82
-12.28
-13.59
-14.92
-16.41
-18.12
-20.01
-22.03
-24.02
-25.65
-26.6
-26.44
-24.93
-22.04
-18.05
-13.47
-8.71
-4.27
-0.51
2.41
4.5
5.84
6.66
7.15
7.49
7.91
8.46
9.1
9.82
10.71
11.77
12.97
14.05
14.88
15.2
15.06
14.53
13.79
13.05
12.33
11.48
10.16
8.16
5.31
1.67
-2.41
-6.49
-10.09
-12.87
-14.65
-15.55
-15.74
-15.4
-14.85
-14.15
-13.27
-11.99
-10.18
-7.59
-4.23
-0.3
3.94
7.98
11.45
13.94
15.32
15.42
14.15
11.68
8.16
4.12
0.11
-3.14
-5.16
-5.58
-4.48
-2.21
0.68
3.56
6.06
7.88
9.05
9.45
8.96
7.5
5.05
1.89
-1.73
-5.33
-8.47
-10.94
-12.68
-13.75
-14.27
-14.36
-14.07
-13.77
-13.68
-13.99
-14.67
-15.54
-16.06
-15.75
-14.22
-11.25
-7.03
-1.92
3.52
8.66
12.86
15.63
16.81
16.42
14.87
12.57
9.96
7.32
4.78
2.47
0.55
-0.66
-0.95
-0.2
1.43
3.59
5.88
7.91
9.45
10.35
10.54
9.95
8.54
6.24
3.1
-0.75
-4.95
-9.16
-13.01
-16.23
-18.74
-20.6
-22.09
-23.38
-24.65
-25.63
-25.9
-24.88
-22.16
-17.67
-11.71
-5
1.69
7.66
12.51
16
18.15
19.07
18.88
17.8
16.1
14.03
11.82
9.68
7.71
5.97
4.65
3.82
3.47
3.62
4.11
4.73
5.3
5.72
5.79
5.43
4.45
2.73
0.3
-2.68
-5.88
-8.9
-11.47
-13.57
-15.31
-17.02
-18.93
-21.02
-23.07
-24.43
-24.4
-22.46
-18.49
-12.79
-6.13
0.65
6.97
12.44
16.96
20.5
22.97
24.17
24.07
22.72
20.36
17.52
14.66
12.12
10.06
8.49
7.37
6.69
6.34
6.17
6.06
5.84
5.47
4.89
3.98
2.64
0.74
-1.75
-4.66
-7.6
-10.21
-12.13
-13.33
-14.03
-14.58
-15.34
-16.51
-18.02
-19.67
-21.1
-21.87
-21.53
-19.72
-16.31
-11.33
-5.07
1.93
9
15.41
20.51
23.95
25.54
25.31
23.46
20.38
16.54
12.55
8.98
6.37
5.11
5.27
6.68
8.95
11.65
14.3
16.49
17.91
18.43
18.07
16.89
14.98
12.53
9.67
6.46
2.88
-1.11
-5.39
-9.68
-13.77
-17.26
-19.93
-21.77
-22.96
-23.73
-24.42
-25.02
-25.28
-24.89
-23.45
-20.78
-16.87
-11.87
-6.07
0.06
6.13
11.64
16.2
19.43
21.24
21.66
20.92
19.36
17.19
14.64
11.87
9.15
6.9
5.52
5.19
6.02
7.7
9.85
11.99
13.61
14.36
14.15
12.84
10.45
7.19
3.32
-0.76
-4.66
-8.13
-11.08
-13.5
-15.57
-17.47
-19.38
-21.22
-23.01
-24.54
-25.68
-26.3
-26.31
-25.72
-24.37
-22.04
-18.29
-12.76
-5.09
4.65
15.9
27.51
37.94
45.78
50.08
50.66
48
43
36.6
29.58
22.32
15.1
8.1
1.57
-4.29
-9.37
-13.71
-17.35
-20.22
-22.03
-22.43
-21.08
-17.99
-13.51
-8.36
-3.3
1.14
4.61
7.04
8.47
9.05
8.97
8.41
7.58
6.71
6
5.56
5.37
5.3
5.13
4.72
3.97
2.97
2.07
1.76
2.4
4.31
7.42
11.48
15.98
20.3
23.92
26.5
27.89
28.23
27.85
27.11
26.25
25.51
24.92
24.57
24.51
24.66
24.97
25.19
24.99
23.97
22
19.21
16
12.82
10.02
7.68
5.63
3.6
1.31
-1.23
-3.92
-6.61
-9.26
-11.91
-14.74
-17.8
-21.2
-24.87
-28.63
-32.19
-35.28
-37.53
-38.68
-38.52
-36.87
-33.83
-29.55
-24.3
-18.43
-12.43
-6.73
-1.85
1.83
4.1
4.85
4.15
2.29
-0.32
-3.29
-6.22
-8.8
-10.86
-12.31
-13.23
-13.74
-14.09
-14.53
-15.25
-16.43
-18.12
-20.32
-22.65
-24.91
-26.61
-27.62
-27.87
-27.39
-26.28
-24.67
-22.71
-20.34
-17.67
-14.6
-11.16
-7.28
-2.76
2.61
8.93
15.88
23.06
29.73
35.18
38.86
40.65
40.8
39.8
38.38
36.97
36
35.63
35.85
36.66
38
40
42.5
45.5
48.71
51.88
54.67
56.82
58.18
58.49
57.69
55.45
51.67
46.25
39.27
31.05
22.04
12.92
4.25
-3.6
-10.58
-16.81
-22.74
-28.64
-34.61
-40.64
-46.4
-51.6
-56.03
-59.66
-62.5
-64.73
-66.45
-67.59
-67.92
-67.04
-64.7
-60.74
-55.33
-48.79
-41.49
-33.97
-26.49
-19.43
-13
-7.46
-2.92
0.69
3.57
5.97
7.97
9.69
10.94
11.56
11.46
10.57
8.97
6.67
3.6
-0.33
-5.04
-10.46
-16.24
-21.91
-27.07
-31.47
-35.01
-37.74
-39.8
-41.2
-41.95
-42.1
-41.56
-40.17
-37.4
-32.45
-24.25
-12.11
3.98
22.98
42.78
60.92
75.04
83.8
86.97
85.31
80.11
72.65
63.96
54.67
45.31
36.34
28.37
21.9
17.16
14
11.89
10.25
8.58
6.78
5.01
3.58
2.67
2.19
1.91
1.65
1.4
1.28
1.43
1.84
2.21
2.24
1.56
0.1
-2.07
-4.75
-7.83
-11.46
-15.82
-21.13
-27.17
-33.44
-39.09
-43.29
-45.51
-45.54
-43.68
-40.28
-35.85
-30.81
-25.58
-20.47
-15.76
-11.57
-7.82
-4.53
-1.64
0.73
2.38
3.28
3.58
3.73
4.05
4.81
5.83
6.81
7.34
7.12
6.32
5.19
4.18
3.52
3.29
3.3
3.38
3.32
2.96
2.39
1.55
0.4
-1.16
-3.01
-5.01
-6.8
-8.11
-8.83
-8.98
-8.83
-8.52
-8.13
-7.43
-6.27
-4.53
-2.37
-0.15
1.74
2.73
2.56
1.2
-1.04
-3.63
-5.78
-6.8
-6.21
-3.81
0.03
5
10.63
16.69
22.92
28.85
33.99
37.59
39.14
38.33
35.43
30.84
25.33
19.46
13.51
7.67
1.84
-3.92
-9.71
-15.33
-20.64
-25.41
-29.46
-32.85
-35.58
-37.85
-39.66
-41.11
-42.17
-42.78
-42.86
-42.12
-40.17
-36.57
-31.24
-24.32
-16.33
-8.13
-0.38
6.26
11.47
15.05
16.85
16.66
14.45
10.49
5.2
-0.56
-6.08
-10.61
-13.6
-14.87
-14.39
-12.26
-8.87
-4.63
-0.05
4.25
7.78
10.29
11.64
12.14
12.05
11.69
11.33
11.23
11.43
11.89
12.49
12.81
12.61
11.65
9.8
7.05
3.62
-0.4
-4.93
-9.86
-15.17
-20.51
-25.22
-28.51
-29.62
-28.11
-23.97
-17.69
-10.11
-2.38
4.63
10.33
14.41
16.76
17.42
16.58
14.51
11.6
8.2
4.9
2.24
0.73
0.72
2.39
5.48
9.66
14.45
19.27
23.65
27.2
29.75
31.3
32.01
31.81
30.72
28.77
25.95
22.3
17.96
13.29
8.74
4.63
1.02
-2.16
-5.05
-7.78
-10.5
-13.33
-16.34
-19.57
-23.06
-26.92
-31.07
-35.23
-38.81
-41.13
-41.51
-39.64
-35.48
-29.51
-22.47
-15.06
-7.83
-0.99
5.37
11.27
16.5
21
24.69
27.63
30.07
32.33
34.72
37.43
40.54
44.03
47.82
51.76
55.7
59.3
62.17
63.79
63.77
61.87
57.99
52.19
44.72
36.01
26.53
16.77
7.15
-2
-10.52
-18.35
-25.43
-31.57
-36.65
-40.57
-43.45
-45.54
-47.2
-48.84
-50.75
-52.97
-55.3
-57.42
-58.93
-59.29
-58.06
-54.84
-49.51
-42.23
-33.5
-24.08
-14.89
-6.73
-0.08
4.75
7.84
9.43
9.81
9.36
8.44
7.27
6.17
5.49
5.47
6.31
8.06
10.5
13.32
16.08
18.43
20.2
21.45
22.23
22.64
22.73
22.45
21.71
20.38
18.51
16.27
14.02
12.07
10.72
9.93
9.44
8.86
7.74
5.86
3.21
-0.05
-3.57
-6.86
-9.52
-11.1
-11.13
-9.33
-5.87
-1.25
3.57
7.6
10.13
10.79
9.54
6.72
2.68
-2.12
-7.18
-11.92
-15.65
-17.71
-17.75
-15.78
-12.01
-6.91
-0.93
5.43
11.54
16.74
20.43
22.09
21.55
18.95
14.71
9.42
3.64
-2.18
-7.68
-12.51
-16.37
-19.02
-20.32
-20.41
-19.66
-18.52
-17.6
-17.42
-18.37
-20.62
-23.89
-27.54
-30.83
-32.93
-33.13
-31.03
-26.62
-20.31
-12.69
-4.45
3.78
11.27
17.62
22.49
25.81
27.73
28.48
28.62
28.56
28.77
29.58
31.19
33.49
36.14
38.8
41.11
42.99
44.32
45.1
45.31
44.93
43.75
41.71
38.82
35.07
30.44
24.79
17.95
9.99
1.19
-8.02
-17.21
-26
-34.41
-42.45
-50.21
-57.59
-64.29
-69.98
-74.24
-76.71
-76.99
-74.82
-69.9
-62.24
-52.1
-40.16
-27.54
-15.33
-4.52
4.29
10.93
15.63
18.7
20.51
21.39
21.44
20.78
19.56
18.03
16.58
15.46
14.9
14.86
15.35
16.07
16.87
17.67
18.39
19.06
19.51
19.6
19.02
17.77
15.88
13.72
11.64
9.83
8.37
7.04
5.67
4.08
2.29
0.45
-1.22
-2.55
-3.47
-3.82
-3.47
-2.24
-0.08
2.78
5.97
8.84
10.88
11.57
10.85
8.88
5.98
2.48
-1.4
-5.43
-9.45
-13.08
-16.07
-18.1
-19.02
-18.82
-17.64
-15.77
-13.4
-10.85
-8.25
-5.89
-3.95
-2.56
-1.74
-1.23
-0.77
-0.03
0.89
1.83
2.49
2.67
2.41
1.86
1.34
0.96
0.7
0.23
-0.72
-2.36
-4.72
-7.68
-11.07
-14.54
-17.71
-20.08
-21.19
-20.61
-18.27
-14.32
-9.23
-3.68
1.78
6.68
10.83
14.19
16.78
18.59
19.63
19.87
19.47
18.54
17.3
15.97
14.76
13.76
13.02
12.55
12.25
12.04
11.76
11.31
10.61
9.72
8.74
7.81
6.92
5.83
4.25
1.93
-1.14
-4.75
-8.54
-12.11
-15.21
-17.81
-20
-21.87
-23.45
-24.85
-25.98
-26.77
-26.94
-26.05
-23.61
-19.33
-13.24
-5.79
2.14
9.73
16.05
20.59
23.06
23.66
22.65
20.45
17.43
13.84
10.01
6.27
3.04
0.78
0.09
1.14
3.86
7.75
12.08
16.16
19.4
21.31
21.68
20.5
17.83
13.97
9.26
4.07
-1.18
-6.08
-10.48
-14.14
-17.01
-19.12
-20.44
-21.11
-21.41
-21.51
-21.65
-22.08
-22.78
-23.72
-24.71
-25.31
-25.09
-23.77
-21.07
-17
-11.83
-5.99
-0.04
5.42
9.98
13.36
15.43
16.24
15.9
14.59
12.64
10.35
8.1
6.34
5.34
5.32
6.23
7.77
9.53
11.13
12.22
12.68
12.61
12.07
11.21
10.02
8.45
6.44
4.04
1.23
-1.81
-4.97
-8.13
-11.15
-13.94
-16.39
-18.4
-19.89
-20.85
-21.2
-20.93
-19.95
-18.14
-15.47
-11.84
-7.28
-1.99
3.7
9.33
14.28
18.01
20.18
20.7
19.81
17.87
15.23
12.06
8.54
4.69
0.7
-3.03
-6.04
-7.96
-8.64
-8.19
-6.99
-5.31
-3.41
-1.44
0.66
2.83
4.99
6.98
8.63
9.64
9.88
9.29
7.81
5.54
2.63
-0.73
-4.37
-8.12
-11.91
-15.61
-19.1
-22.26
-25.06
-27.45
-29.2
-30.03
-29.65
-27.74
-24.21
-19.18
-13.14
-6.71
-0.61
4.65
8.9
11.91
13.83
14.72
14.71
13.79
12.11
9.87
7.47
5.46
4.31
4.37
5.56
7.65
10.06
12.3
13.99
14.98
15.17
14.67
13.58
11.92
9.84
7.38
4.59
1.65
-1.29
-4.07
-6.39
-8.05
-8.94
-9
-8.33
-7.17
-5.81
-4.71
-4.36
-5.05
-6.92
-9.7
-12.71
-15.11
-16.05
-14.96
-11.79
-6.87
-0.79
5.55
11.36
16.04
19.09
20.47
20.31
18.91
16.71
14.14
11.43
8.92
6.83
5.3
4.33
3.88
3.72
3.7
3.85
4.08
4.48
5.03
5.6
6
6.04
5.58
4.55
3.05
1.18
-0.8
-2.65
-4.2
-5.34
-6.16
-6.79
-7.47
-8.47
-10.03
-12.28
-15.22
-18.7
-22.2
-25.16
-26.92
-26.99
-25.09
-21.34
-15.95
-9.44
-2.53
4.24
10.23
15.08
18.58
20.72
21.62
21.54
20.65
19.06
16.96
14.45
11.78
9.27
7.2
5.85
5.29
5.46
6.08
6.83
7.45
7.71
7.54
6.92
5.83
4.34
2.56
0.55
-1.52
-3.53
-5.42
-7.06
-8.43
-9.57
-10.5
-11.32
-12.16
-13.06
-14.06
-15.15
-16.31
-17.64
-19.22
-20.96
-22.54
-23.39
-22.9
-20.64
-16.6
-11.22
-5.21
0.69
5.99
10.55
14.38
17.61
20.35
22.48
23.96
24.71
24.84
24.54
24.15
23.81
23.6
23.39
22.96
22.22
21.22
20.16
19.22
18.51
17.91
17.16
16.07
14.44
12.41
10.16
7.8
5.43
3.04
0.65
-1.61
-3.57
-5.21
-6.33
-6.98
-7.28
-7.5
-8.08
-9.47
-12.07
-16.09
-21.61
-28.19
-35.35
-42.38
-48.64
-53.7
-57.11
-58.51
-57.39
-53.47
-46.5
-36.67
-24.65
-11.34
2.02
14.39
25.04
33.65
40.16
44.68
47.41
48.55
48.57
47.7
46.32
44.57
42.52
40.23
37.7
34.84
31.58
28.03
24.21
20.34
16.58
13.17
10.23
7.75
5.67
3.73
1.9
0.21
-1.19
-2.26
-3.18
-4.32
-6
-8.5
-11.94
-16.04
-20.31
-24.08
-26.69
-27.74
-27.07
-24.83
-21.53
-18
-14.96
-13.08
-12.72
-13.88
-16.32
-19.62
-23.27
-26.72
-29.45
-30.82
-30.29
-27.57
-22.5
-15.31
-6.52
3.09
12.68
21.3
28.22
32.79
34.57
33.59
30.08
24.61
17.92
10.8
3.75
-2.63
-7.92
-11.75
-13.75
-13.96
-12.63
-10.34
-7.78
-5.61
-4.22
-3.78
-4.28
-5.59
-7.53
-9.74
-11.62
-12.57
-12.1
-9.95
-6.38
-1.93
2.7
6.77
9.87
11.84
12.84
13.1
13
12.69
12.25
11.84
11.43
11.23
11.37
12.04
13.19
14.67
16.05
16.91
17.07
16.37
15.02
13.2
11.14
8.9
6.43
3.65
0.62
-2.46
-5.39
-7.88
-9.91
-11.55
-13.04
-14.71
-16.71
-19.03
-21.53
-24.13
-26.79
-29.49
-32.03
-34.03
-34.95
-34.08
-31
-25.68
-18.59
-10.64
-2.82
4.02
9.45
13.43
16.28
18.34
19.89
21.05
21.78
22.01
21.7
20.96
19.94
18.8
17.62
16.5
15.55
14.83
14.39
14.24
14.33
14.51
14.48
13.81
12.23
9.72
6.43
2.8
-0.65
-3.63
-6.03
-7.98
-9.76
-11.59
-13.38
-15.05
-16.39
-17.28
-17.86
-18.29
-18.8
-19.6
-20.83
-22.45
-24.26
-25.9
-26.79
-26.42
-24.37
-20.52
-15.16
-8.85
-2.34
3.75
8.99
13.09
15.93
17.55
18.02
17.6
16.59
15.3
14.03
12.96
12.16
11.56
11.16
10.99
11.14
11.75
12.74
13.97
15.15
16.07
16.59
16.72
16.61
16.25
15.61
14.51
12.84
10.67
8.17
5.68
3.36
1.23
-0.91
-3.25
-5.78
-8.33
-10.65
-12.58
-14.03
-15.25
-16.43
-17.96
-20
-22.53
-25.36
-28.07
-30.09
-30.85
-29.88
-26.95
-22.25
-16.21
-9.54
-3.02
2.89
7.82
11.46
13.8
14.84
14.8
13.91
12.49
10.77
9.05
7.57
6.45
5.93
6.12
7.07
8.6
10.47
12.25
13.73
14.78
15.29
15.28
14.58
13.04
10.6
7.5
4.19
1.27
-0.79
-2.06
-2.74
-3.41
-4.38
-5.69
-7.09
-8.27
-8.97
-9.14
-9.14
-9.25
-9.86
-11.11
-12.9
-15.01
-17.06
-18.52
-18.88
-17.93
-15.53
-11.9
-7.53
-2.89
1.46
5.18
7.98
9.74
10.43
10.1
8.97
7.17
5.15
3.29
2
1.41
1.62
2.41
3.59
4.92
6.1
7.17
8.11
8.89
9.46
9.81
9.89
9.79
9.59
9.25
8.86
8.29
7.45
6.28
4.71
2.83
0.74
-1.42
-3.65
-5.95
-8.41
-11.25
-14.42
-17.77
-20.88
-23.2
-24.01
-22.93
-19.8
-14.85
-8.85
-2.55
3.14
7.5
10.2
11.29
11.01
9.78
8.13
6.38
4.94
4
3.71
4.06
4.98
6.36
7.98
9.69
11.31
12.75
13.8
14.37
14.32
13.59
12.19
10.22
7.89
5.34
2.8
0.39
-1.9
-4.1
-6.34
-8.59
-10.87
-13.02
-15
-16.76
-18.26
-19.66
-20.96
-22.31
-23.61
-25
-26.25
-27.14
-27.35
-26.44
-24.21
-20.71
-16.35
-11.54
-7.02
-3.03
0.23
2.81
4.95
6.8
8.47
9.94
11.31
12.53
13.7
14.86
15.9
16.9
17.77
18.43
18.81
18.86
18.48
17.59
16.29
14.49
12.4
10.06
7.51
4.82
2.12
-0.4
-2.61
-4.25
-5.55
-6.65
-7.92
-9.56
-11.43
-13.36
-15.06
-16.48
-17.63
-18.9
-20.55
-22.77
-25.58
-28.52
-31.12
-32.73
-32.75
-30.74
-26.56
-20.28
-12.26
-3.33
5.72
13.87
20.26
24.49
26.48
26.48
25.03
22.78
20.12
17.49
15.19
13.4
12.37
12.1
12.42
12.95
13.32
13.19
12.48
11.42
10.32
9.61
9.36
9.51
9.78
10.01
10.12
10.09
9.93
9.38
8.3
6.38
3.66
0.31
-3.33
-6.9
-10.24
-13.35
-16.38
-19.32
-22.21
-24.92
-27.36
-29.51
-31.29
-32.58
-33
-32.15
-29.64
-25.28
-19.25
-11.98
-4.17
3.54
10.48
16.22
20.51
23.21
24.4
24.17
22.86
20.71
18.13
15.37
12.78
10.58
9.06
8.33
8.39
9.13
10.25
11.5
12.59
13.5
14.15
14.59
14.77
14.52
13.78
12.55
10.93
9.05
7.09
5.12
3.2
1.25
-0.8
-3.02
-5.37
-7.74
-9.99
-12.07
-13.94
-15.62
-17.24
-18.76
-20.07
-21.1
-21.55
-21.17
-19.86
-17.55
-14.28
-10.3
-5.92
-1.49
2.49
5.77
8.21
9.81
10.67
10.96
10.84
10.55
10.28
10.08
10.05
10.15
10.39
10.8
11.37
11.98
12.57
13.08
13.29
13.19
12.64
11.6
10.08
8.04
5.56
2.8
-0.05
-2.77
-5.17
-7.21
-8.84
-10.01
-10.86
-11.53
-12.29
-13.52
-15.46
-18.07
-21.12
-24.13
-26.53
-27.78
-27.46
-25.28
-21.25
-15.6
-8.8
-1.59
5.13
10.72
14.72
16.99
17.75
17.37
16.13
14.27
12.04
9.65
7.48
5.98
5.42
5.98
7.53
9.63
11.77
13.43
14.35
14.47
13.9
12.62
10.72
8.2
4.99
1.17
-3.21
-7.88
-12.49
-16.62
-20.01
-22.37
-23.8
-24.58
-25.06
-25.61
-26.23
-26.62
-26.32
-24.85
-21.9
-17.62
-12.29
-6.2
0.08
6.14
11.52
15.71
18.33
19.35
18.87
17.32
15.35
13.35
11.63
10.33
9.45
9.05
9.27
10.1
11.4
12.89
14.12
14.73
14.51
13.33
11.2
8.23
4.47
0.21
-4.23
-8.55
-12.34
-15.42
-17.69
-19.13
-19.64
-19.47
-18.73
-17.88
-17.52
-18.06
-19.81
-22.57
-25.78
-28.42
-29.69
-28.89
-25.88
-20.98
-14.71
-7.77
-0.68
6.04
12.11
17.11
20.92
23.37
24.44
24.28
23.1
21.18
18.7
16.02
13.45
11.58
10.81
11.16
12.48
14.21
15.67
16.25
15.66
13.93
11.37
8.31
4.84
1.12
-2.87
-6.94
-10.92
-14.48
-17.33
-19.25
-20.17
-20.22
-19.52
-18.43
-17.16
-16.11
-15.58
-15.83
-16.73
-17.76
-18.33
-17.66
-15.47
-11.64
-6.47
-0.54
5.43
10.83
15.27
18.45
20.3
20.79
20.09
18.43
16.11
13.53
11.01
9.03
7.9
7.85
8.84
10.79
13.48
16.63
20.07
23.52
26.78
29.63
31.98
33.65
34.67
35.02
34.51
33.05
30.62
27.25
23.2
18.9
14.66
10.76
7.31
4.11
0.99
-2.28
-5.94
-10.16
-14.93
-20.14
-25.34
-29.82
-32.85
-33.74
-32.26
-28.71
-23.87
-18.77
-14.37
-11.35
-9.83
-9.55
-10
-10.78
-11.66
-12.53
-13.32
-13.95
-14.17
-13.64
-12.07
-9.31
-5.42
-0.68
4.57
9.9
14.91
19.26
22.59
24.55
24.92
23.6
20.67
16.47
11.45
6.14
1.02
-3.56
-7.45
-10.71
-13.41
-15.64
-17.56
-19.08
-20.07
-20.38
-20
-19.19
-18.41
-18.08
-18.32
-18.94
-19.24
-18.47
-16.1
-12.19
-7.25
-2.12
2.49
6.21
9.01
11.19
13.05
14.8
16.37
17.6
18.46
19.14
20.04
21.67
24.54
28.95
34.83
42.01
50.02
58.32
66.38
73.61
79.41
83.33
85.05
84.37
81.52
76.72
70.35
62.74
54.24
45.21
36
27.07
18.77
11.47
5.37
0.51
-3.27
-6.29
-8.9
-11.5
-14.44
-17.87
-21.75
-26.06
-30.88
-36.4
-43
-50.85
-60.11
-70.83
-82.86
-95.72
-108.86
-121.31
-131.75
-138.84
-141.31
-138.65
-130.99
-119.12
-104.06
-86.97
-68.92
-50.85
-33.72
-18.39
-5.55
4.52
11.85
16.88
20.14
22.19
23.42
23.98
23.93
23.08
21.19
17.93
12.86
5.63
-3.99
-15.94
-29.96
-45.28
-61.06
-76.19
-89.43
-99.39
-104.43
-102.74
-92.84
-74.12
-47.04
-13.46
23.82
61.59
96.83
127.21
151.12
167.63
176.4
177.67
172.18
161.29
146.54
129.57
111.83
94.29
77.46
61.61
46.8
33.06
20.61
9.69
0.5
-6.94
-12.86
-17.73
-22
-25.96
-29.67
-32.77
-34.87
-35.61
-34.8
-32.76
-29.83
-26.64
-23.66
-21.25
-19.51
-18.39
-17.89
-17.95
-18.69
-20.06
-22
-24.38
-27
-29.71
-32.36
-34.74
-36.35
-36.65
-34.96
-30.86
-24.28
-15.54
-5.41
5.22
15.54
24.88
32.83
39.2
43.76
46.37
46.91
45.35
42.03
37.65
33.01
29.05
26.42
25.28
25.42
26.29
27.32
28.04
28.36
28.15
27.37
25.91
23.54
20.08
15.42
9.66
3.05
-3.78
-10.23
-15.69
-19.72
-22.21
-23.3
-23.44
-23.17
-23.03
-23.38
-24.37
-25.94
-27.79
-29.55
-30.63
-30.55
-28.91
-25.56
-20.61
-14.55
-8.19
-2.27
2.24
4.87
5.51
4.32
1.69
-1.94
-6.27
-11.01
-15.73
-20.15
-23.73
-26.11
-27.07
-26.74
-25.43
-23.61
-21.63
-19.63
-17.72
-15.78
-13.8
-11.84
-10.05
-8.53
-7.32
-6.39
-5.67
-5.07
-4.49
-3.79
-2.89
-1.56
0.28
2.64
5.46
8.63
12.01
15.63
19.59
23.9
28.76
34.03
39.59
45.02
50.07
54.28
57.17
58.3
57.16
53.7
47.91
40.21
31.13
21.39
11.61
2.38
-5.9
-12.89
-18.29
-21.94
-23.79
-24.02
-22.95
-21.03
-18.76
-16.63
-15.06
-14.2
-14.15
-14.85
-16.2
-18.2
-20.74
-23.79
-27.07
-30.38
-33.27
-35.52
-36.95
-37.56
-37.7
-37.63
-37.74
-38.12
-38.8
-39.5
-39.96
-39.77
-38.56
-36.04
-32
-26.52
-19.78
-12.34
-4.79
2.26
8.43
13.62
17.93
21.55
24.54
26.94
28.8
30.26
31.72
33.69
36.57
40.37
44.79
49.2
52.96
55.53
56.67
56.48
55.22
53.23
50.69
47.72
44.42
40.88
37.17
33.35
29.57
25.72
21.69
17.16
11.75
5.08
-3.13
-13.08
-24.72
-37.65
-51.22
-64.47
-76.4
-86
-92.33
-94.68
-92.42
-85.33
-73.6
-58.16
-40.53
-22.53
-6.04
7.71
18.12
25.33
29.88
32.45
33.6
33.79
33.51
33.11
32.99
33.37
34.28
35.61
37.33
39.51
42.24
45.69
49.76
54.12
58.14
60.99
61.83
59.8
54.46
45.59
33.65
19.52
4.62
-9.62
-21.9
-31.25
-37.38
-40.41
-40.96
-39.73
-37.51
-34.9
-32.37
-30.25
-28.73
-27.79
-27.1
-26.04
-23.81
-19.71
-13.6
-5.88
2.4
10.13
16.38
20.83
23.62
25.19
25.83
25.57
24.4
22.24
19.25
15.76
12.2
8.94
6.12
3.69
1.66
-0.05
-1.38
-2.31
-2.98
-3.48
-3.98
-4.71
-5.76
-7.21
-9.09
-11.42
-14.15
-17.26
-20.49
-23.57
-26.16
-28
-29.03
-29.3
-29.05
-28.51
-27.84
-27.07
-26.19
-25.08
-23.57
-21.52
-18.86
-15.6
-11.73
-7.54
-3.24
0.82
4.28
6.95
8.63
9.3
9.11
8.4
7.42
6.5
5.94
5.91
6.68
8.19
10.28
12.65
15
16.94
18.28
18.9
18.64
17.45
15.22
12.03
8.09
3.7
-0.83
-5.16
-9.1
-12.61
-15.68
-18.39
-20.76
-22.91
-24.97
-27.04
-29.1
-30.98
-32.46
-33.16
-32.72
-30.82
-27.21
-21.92
-15.13
-7.28
0.99
8.9
15.71
20.9
24.28
25.99
26.31
25.51
23.89
21.74
19.34
16.93
14.7
12.91
11.65
11.04
10.94
11.14
11.37
11.4
11.02
10.17
8.87
7.14
4.97
2.27
-1.14
-5.4
-10.63
-16.83
-23.8
-31.33
-39.07
-46.66
-53.64
-59.66
-64.53
-68.25
-70.89
-72.41
-72.73
-71.47
-68.15
-62.15
-53.17
-41.18
-26.64
-10.29
7.07
24.49
41.28
56.82
70.67
82.48
91.99
99.05
103.37
104.72
102.61
96.48
85.97
70.97
52.21
30.97
9.02
-12.2
-31.55
-48.55
-63.19
-75.51
-85.69
-93.68
-99.5
-103.01
-104.3
-103.14
-99.17
-91.97
-80.94
-65.88
-46.84
-24.55
0.03
25.58
50.85
74.67
95.84
113.56
127.03
135.93
140.24
140.41
137.22
131.62
124.55
116.62
108.22
99.15
89.25
78.33
66.49
54.13
41.74
29.74
18.15
6.77
-4.94
-17.14
-29.65
-41.95
-53.2
-62.59
-69.47
-73.65
-75.06
-74.06
-71.04
-66.49
-60.88
-54.69
-48.39
-42.32
-36.99
-32.63
-29.45
-27.45
-26.41
-25.97
-25.77
-25.57
-25.26
-24.69
-23.8
-22.54
-20.91
-19.07
-17.34
-16.09
-15.77
-16.54
-18.24
-20.47
-22.66
-24.16
-24.27
-22.66
-19.12
-13.91
-7.43
-0.43
6.29
12.09
16.55
19.65
21.52
22.42
22.58
22.25
21.55
20.59
19.45
18.26
16.99
15.8
14.77
14.05
13.73
13.92
14.49
15.32
16.23
17.01
17.63
17.95
17.81
17.02
15.57
13.41
10.82
7.91
4.93
2.06
-0.66
-3.25
-5.66
-7.82
-9.78
-11.45
-13.12
-14.97
-17.14
-19.54
-21.92
-23.6
-23.9
-22.32
-18.6
-13.24
-7.06
-1.07
3.9
7.35
9.25
9.79
9.24
7.93
6.07
3.95
1.91
0.27
-0.74
-0.85
0.02
1.81
4.42
7.55
10.84
13.96
16.43
17.9
18.19
17.22
15.03
11.81
7.73
3.14
-1.43
-5.57
-8.82
-10.95
-11.96
-12.12
-11.88
-11.86
-12.54
-14.13
-16.56
-19.3
-21.65
-22.91
-22.53
-20.21
-16.16
-10.76
-4.67
1.44
6.85
10.99
13.52
14.5
14.33
13.43
12.28
11.04
9.8
8.64
7.71
7.31
7.75
9.15
11.28
13.65
15.68
16.94
17.26
16.67
15.33
13.38
10.94
8.06
4.76
1.1
-2.83
-6.89
-10.84
-14.39
-17.33
-19.47
-20.79
-21.55
-22.14
-22.91
-24.13
-25.85
-27.96
-30.06
-31.63
-31.93
-30.37
-26.59
-20.63
-13.01
-4.55
3.78
11.26
17.38
21.98
25.07
26.71
27.07
26.19
24.23
21.34
17.96
14.41
11.23
8.89
7.8
8.13
9.64
11.86
14.07
15.77
16.51
16.16
14.86
12.73
9.92
6.49
2.62
-1.48
-5.41
-8.87
-11.6
-13.54
-14.75
-15.35
-15.49
-15.34
-15.18
-15.27
-15.89
-17.08
-18.71
-20.42
-21.64
-21.75
-20.29
-17.09
-12.36
-6.63
-0.59
5.05
9.69
13.1
15.24
16.18
16.11
15.16
13.54
11.71
10.17
9.4
9.67
11.01
13.19
15.88
18.71
21.33
23.45
24.79
24.96
23.69
20.96
17.02
12.36
7.58
3.2
-0.37
-2.9
-4.4
-5.06
-5.18
-5.11
-5.15
-5.56
-6.49
-7.91
-9.79
-12.03
-14.51
-17.11
-19.74
-22.24
-24.46
-26.17
-26.99
-26.55
-24.49
-20.62
-15.07
-8.35
-1.16
5.81
11.91
16.79
20.32
22.53
23.52
23.31
22.04
19.85
17.08
14.2
11.66
9.84
8.93
8.79
9.12
9.66
10.24
10.81
11.39
11.97
12.45
12.72
12.61
12
10.78
8.94
6.57
3.8
0.91
-1.92
-4.54
-6.98
-9.36
-11.74
-14.09
-16.19
-17.88
-19.12
-20.01
-20.77
-21.62
-22.71
-23.8
-24.66
-24.73
-23.72
-21.42
-17.9
-13.44
-8.5
-3.68
0.6
3.89
6.06
7.16
7.48
7.42
7.35
7.41
7.66
8.15
8.86
9.78
11.01
12.39
13.91
15.39
16.75
18.02
19.19
20.18
20.72
20.62
19.55
17.52
14.69
11.44
8.07
4.79
1.57
-1.78
-5.29
-9.06
-12.87
-16.49
-19.65
-22.3
-24.48
-26.38
-28.16
-29.77
-31.16
-32.12
-32.4
-31.81
-30.1
-27.08
-22.56
-16.61
-9.51
-1.88
5.5
12.02
17.14
20.77
22.93
23.97
23.97
23.23
21.77
19.71
17.25
14.54
11.88
9.59
8.05
7.39
7.72
8.86
10.53
12.48
14.38
15.92
16.83
16.81
15.71
13.74
11.32
8.96
7.16
6.07
5.6
5.49
5.35
4.89
4
2.53
0.35
-2.56
-6.3
-10.69
-15.48
-20.52
-25.65
-30.68
-35.37
-39.29
-41.69
-41.89
-39.42
-34.23
-26.99
-18.73
-10.53
-3.33
2.38
6.56
9.33
10.98
11.73
11.76
11.24
10.37
9.37
8.55
8.24
8.45
9.19
10.22
11.29
12.21
12.83
13.03
12.8
12.18
11.04
9.38
7.2
4.54
1.54
-1.58
-4.64
-7.39
-9.55
-11.05
-11.76
-11.61
-10.72
-9.02
-6.63
-3.69
-0.38
3.24
6.93
10.51
13.85
16.73
19.25
21.63
24.22
27.37
31.35
35.99
40.8
45.16
48.31
49.78
49.3
46.92
42.82
37.39
30.99
24.05
17.06
10.39
4.43
-0.79
-5.22
-8.9
-11.83
-13.92
-15.07
-15.13
-14.29
-12.7
-10.63
-8.49
-6.35
-4.39
-2.55
-0.76
1.29
3.85
7.23
11.48
16.3
21.18
25.49
28.83
30.91
31.61
30.83
28.41
24.17
17.9
9.68
-0.3
-11.67
-24.09
-37.07
-50.15
-62.56
-73.39
-81.86
-87.31
-89.67
-89.25
-86.7
-82.62
-77.5
-71.59
-64.97
-57.76
-50.17
-42.58
-35.49
-29.37
-24.48
-20.82
-18.05
-15.57
-12.82
-9.49
-5.69
-1.85
1.47
3.81
4.9
4.86
3.93
2.34
0.46
-1.45
-3.06
-4.02
-4.1
-3.31
-1.96
-0.49
0.58
1.03
0.7
-0.29
-1.69
-3.17
-4.34
-5.02
-5.23
-5.18
-5.08
-5.14
-5.12
-4.47
-2.54
1.28
7.22
14.99
24.09
33.69
42.97
51.35
58.55
64.43
69.1
72.64
75.07
76.38
76.42
75.22
72.97
70.12
67.04
64.15
61.49
58.97
56.35
53.35
49.93
46.12
41.97
37.56
32.9
27.86
22.33
16.21
9.55
2.44
-5.05
-12.88
-21.07
-29.68
-38.85
-48.66
-58.98
-69.49
-79.71
-89.14
-97.24
-103.63
-108.02
-110.22
-110.21
-107.93
-103.48
-96.87
-88.3
-77.8
-65.64
-52.15
-37.8
-23.26
-9.23
3.55
14.5
23.18
29.57
33.79
36.18
37.18
37.01
35.92
34.16
32.05
30.01
28.45
27.7
27.85
28.96
30.64
32.7
34.92
37.09
39.09
40.64
41.42
41.2
39.96
37.62
34.38
30.47
26.12
21.5
16.71
11.81
6.88
2.06
-2.6
-6.85
-10.4
-12.9
-14.07
-13.83
-12.46
-10.31
-7.79
-5.07
-2.02
1.69
6.16
11.53
17.69
24.38
31.27
38.02
44.16
49.26
52.83
54.28
53.36
50.03
44.41
36.8
27.48
16.7
4.82
-7.73
-20.42
-32.64
-43.76
-53.3
-60.96
-66.58
-70.27
-72.22
-72.69
-71.87
-69.99
-67.14
-63.44
-59.06
-54.27
-49.4
-44.83
-40.67
-37.02
-33.84
-31.19
-29.21
-28.18
-28.31
-29.64
-31.97
-34.86
-37.81
-40.35
-42.13
-42.87
-42.31
-39.86
-35.06
-27.45
-17.03
-4.37
9.6
23.7
36.6
47.16
54.8
59.32
61.15
61.06
59.84
58.17
56.45
54.75
53.09
51.66
50.76
50.74
51.75
53.55
55.64
57.46
58.58
58.89
58.38
57.06
54.67
50.77
44.89
36.82
26.65
14.93
2.27
-10.76
-23.84
-36.76
-49.32
-61.21
-71.94
-81.02
-88.03
-92.7
-94.87
-94.57
-91.76
-86.45
-78.88
-69.39
-58.6
-47.31
-36.3
-26.44
-18.2
-11.94
-7.63
-5.12
-4.12
-4.27
-5.19
-6.49
-7.82
-8.69
-8.85
-8.05
-6.47
-4.35
-2.1
-0.07
1.62
2.95
4.05
4.92
5.56
5.7
5.29
4.39
3.17
1.96
0.97
0.29
-0.18
-0.6
-1.2
-2.04
-2.97
-3.82
-4.23
-4
-2.9
-0.87
2.1
5.87
10.26
14.98
19.65
23.95
27.49
30.13
31.86
32.86
33.41
33.75
34.09
34.32
34.52
34.66
34.92
35.53
36.54
37.92
39.23
40.1
40.06
38.93
36.66
33.34
29.09
24.04
18.39
12.33
6.16
0.13
-5.54
-10.79
-15.66
-20.33
-24.92
-29.64
-34.74
-40.32
-46.25
-52.1
-57.2
-60.76
-62.08
-60.72
-56.74
-50.57
-42.92
-34.6
-26.29
-18.42
-11.21
-4.62
1.41
6.87
11.81
16.22
20.13
23.66
26.94
30.19
33.45
36.64
39.61
42.18
44.09
45.28
45.6
44.99
43.39
40.71
36.93
32.18
26.74
20.97
15.24
9.9
5.16
1.08
-2.37
-5.32
-8.05
-10.83
-13.88
-17.32
-20.93
-24.37
-27.06
-28.43
-27.97
-25.51
-21.19
-15.45
-9.04
-2.73
2.68
6.77
9.36
10.68
11.1
11.08
10.95
10.79
10.69
10.56
10.41
10.17
9.77
9.1
8.17
7.01
5.68
4.3
2.98
1.72
0.57
-0.39
-1.21
-1.83
-2.29
-2.7
-3.16
-3.78
-4.64
-5.69
-7
-8.77
-11.19
-14.55
-18.87
-23.91
-29.04
-33.36
-35.79
-35.7
-33
-28.2
-22.2
-15.84
-9.73
-4.2
0.55
4.56
7.73
9.84
10.88
10.88
10.22
9.49
9.16
9.52
10.69
12.48
14.57
16.72
18.72
20.4
21.81
22.85
23.33
23.03
21.74
19.37
16.04
11.93
7.38
2.89
-1.15
-4.42
-6.79
-8.4
-9.61
-10.76
-12.3
-14.3
-16.61
-18.8
-20.29
-20.7
-19.77
-17.55
-14.28
-10.42
-6.34
-2.32
1.5
5.09
8.32
11.08
13.25
14.81
15.93
16.92
17.98
19.19
20.33
21.17
21.6
21.79
21.97
22.41
23.03
23.39
22.8
20.74
16.89
11.57
5.31
-1.25
-7.41
-12.79
-17.15
-20.47
-22.86
-24.58
-25.89
-26.95
-27.87
-28.48
-28.49
-27.56
-25.26
-21.49
-16.35
-10.16
-3.36
3.44
9.69
14.87
18.44
20.29
20.4
19.06
16.65
13.68
10.51
7.63
5.41
4.02
3.69
4.33
5.71
7.35
8.84
9.85
10.37
10.36
9.69
8.33
6.12
3.16
-0.4
-4.19
-7.85
-11.18
-14
-16.32
-18.12
-19.39
-20.12
-20.21
-19.61
-18.25
-16.01
-12.77
-8.59
-3.64
1.49
6.17
9.88
12.38
13.75
14.23
14.27
14.13
13.93
13.71
13.4
13.01
12.51
11.97
11.31
10.54
9.58
8.49
7.37
6.34
5.42
4.53
3.53
2.15
0.28
-2.11
-4.72
-7.22
-9.35
-11.06
-12.52
-14.03
-15.91
-18.26
-20.99
-23.67
-25.67
-26.36
-25.29
-22.21
-17.32
-11.06
-4.08
3
9.55
15.17
19.47
22.28
23.45
23.07
21.38
18.75
15.72
12.79
10.48
8.99
8.5
8.82
9.63
10.67
11.67
12.52
13.22
13.87
14.38
14.55
14.04
12.46
9.72
5.94
1.48
-3.24
-7.78
-11.95
-15.6
-18.66
-21.2
-23.26
-24.97
-26.39
-27.54
-28.21
-28.01
-26.45
-23.16
-18.23
-11.99
-5.29
1
6.23
9.93
12.13
13.05
13.06
12.47
11.72
11.05
10.8
11.19
12.19
13.61
15.15
16.54
17.57
18.29
18.69
18.9
18.97
18.78
18.21
17.1
15.46
13.35
10.94
8.32
5.62
2.95
0.27
-2.28
-4.67
-6.81
-8.69
-10.33
-11.93
-13.65
-15.53
-17.66
-19.87
-22.16
-24.47
-26.74
-28.73
-30.02
-30.14
-28.55
-25.04
-19.69
-13.08
-5.95
0.94
7.04
12.09
16.05
18.97
20.86
21.73
21.48
20.3
18.52
16.59
14.89
13.76
13.19
13.06
13.12
13.26
13.38
13.55
13.89
14.3
14.64
14.77
14.62
14.14
13.42
12.42
11.05
9.33
7.12
4.33
0.98
-2.78
-6.78
-10.71
-14.31
-17.32
-19.43
-20.52
-20.76
-20.51
-20.29
-20.5
-21.27
-22.58
-24.16
-25.68
-26.82
-27.25
-26.64
-24.65
-20.96
-15.54
-8.83
-1.56
5.34
11.12
15.47
18.5
20.44
21.7
22.44
22.58
22.1
20.98
19.33
17.55
16.08
15.16
14.88
15.05
15.2
15.09
14.62
13.97
13.55
13.59
14.2
15.05
15.7
15.64
14.59
12.57
9.86
6.9
3.87
0.91
-2.04
-5.1
-8.34
-11.69
-14.9
-17.66
-19.61
-20.75
-21.15
-21.04
-20.81
-20.79
-21.27
-22.24
-23.66
-25.08
-26.03
-26.01
-24.53
-21.41
-16.73
-11
-4.65
1.61
7.28
12
15.54
17.87
19.11
19.51
19.21
18.54
17.65
16.74
16
15.54
15.47
15.73
16.17
16.53
16.55
16.08
15.24
14.23
13.2
12.15
10.98
9.49
7.65
5.51
3.26
1.15
-0.68
-2.45
-4.39
-6.69
-9.41
-12.34
-15.24
-17.81
-19.89
-21.27
-22.15
-22.62
-22.8
-22.75
-22.27
-21.13
-19.05
-15.87
-11.61
-6.68
-1.54
3.21
7.13
10.08
12.21
13.66
14.81
15.75
16.43
16.73
16.4
15.35
13.78
12.01
10.34
9.12
8.31
7.87
7.59
7.32
6.9
6.4
5.73
4.88
3.83
2.36
0.39
-2.22
-5.34
-8.65
-11.69
-14.07
-15.53
-15.98
-15.79
-15.38
-15.21
-15.65
-16.82
-18.58
-20.74
-22.97
-24.79
-25.83
-25.64
-23.93
-20.6
-15.82
-9.95
-3.6
2.58
8.05
12.43
15.77
18.2
19.87
20.91
21.22
20.75
19.66
18.21
16.73
15.6
14.82
14.14
13.35
12.14
10.48
8.52
6.47
4.39
2.41
0.49
-1.33
-2.9
-4.26
-5.5
-6.72
-8
-9.41
-10.66
-11.63
-12.19
-12.45
-12.81
-13.69
-15.11
-17.01
-19.13
-21.08
-22.82
-24.21
-25.05
-25.04
-23.8
-20.92
-16.44
-10.71
-4.44
1.54
6.7
10.81
13.84
15.85
17
17.27
16.73
15.55
13.98
12.45
11.36
10.79
10.81
11.27
11.93
12.46
12.68
12.36
11.47
10.12
8.38
6.5
4.65
2.96
1.49
0.31
-0.68
-1.5
-2.24
-3.06
-4.04
-5.35
-7.1
-9.4
-12.2
-15.54
-19.28
-23.12
-26.62
-29.24
-30.43
-29.7
-26.84
-21.97
-15.48
-8.13
-0.72
5.89
10.92
14.03
15.29
15.13
14.23
13.2
12.55
12.52
13.09
14.05
15.14
16.01
16.45
16.31
15.61
14.45
12.99
11.29
9.33
7.16
4.75
2.35
0.26
-1.26
-2.1
-2.36
-2.25
-2.17
-2.33
-2.91
-4
-5.59
-7.63
-10.05
-12.65
-15.22
-17.59
-19.68
-21.4
-22.61
-23.17
-22.84
-21.53
-18.98
-15.12
-10.1
-4.31
1.68
7.33
12.09
15.56
17.49
18.02
17.39
15.89
13.85
11.58
9.34
7.27
5.38
3.68
2.24
1.11
0.39
0.24
0.66
1.47
2.38
3
2.97
2.25
0.87
-0.97
-2.89
-4.73
-6.46
-7.97
-9.31
-10.42
-11.5
-12.64
-14.09
-15.88
-18.09
-20.46
-22.48
-23.58
-23.28
-21.53
-18.41
-14.34
-9.76
-5.11
-0.55
3.7
7.56
10.89
13.44
15.03
15.59
15.23
14.14
12.7
11.1
9.5
8.02
6.67
5.43
4.39
3.63
3.28
3.29
3.47
3.51
3.05
1.83
-0.17
-2.72
-5.48
-8.01
-10.07
-11.57
-12.57
-13.31
-14.11
-15.14
-16.6
-18.44
-20.36
-21.81
-22.14
-20.87
-17.77
-13.16
-7.68
-2.04
3.08
7.37
10.7
13.05
14.34
14.59
13.76
12.06
10.06
8.33
7.44
7.62
8.71
10.28
11.86
13.08
13.76
13.9
13.43
12.32
10.44
7.76
4.23
0.04
-4.47
-8.93
-13.01
-16.61
-19.59
-21.89
-23.58
-24.75
-25.64
-26.35
-26.92
-27.15
-26.66
-24.86
-21.28
-15.88
-8.97
-1.3
6.27
12.97
18.31
21.97
23.96
24.36
23.37
21.33
18.61
15.63
12.8
10.43
8.65
7.34
6.34
5.36
4.32
3.27
2.34
1.61
1.08
0.7
0.16
-0.66
-1.85
-3.23
-4.62
-5.74
-6.6
-7.29
-8.04
-9.11
-10.74
-12.96
-15.57
-18.21
-20.24
-21.11
-20.31
-17.64
-13.27
-7.72
-1.73
3.96
8.81
12.52
15.01
16.33
16.61
16
14.69
12.96
11.03
9.24
7.73
6.64
5.96
5.72
5.97
6.8
8.16
9.85
11.51
12.73
13.04
12.19
9.97
6.46
1.98
-3.02
-7.96
-12.32
-15.85
-18.56
-20.83
-23.03
-25.35
-27.61
-29.3
-29.87
-28.92
-26.3
-22.2
-16.99
-11.09
-4.85
1.33
7.1
12.13
16.09
18.83
20.36
20.83
20.53
19.77
18.78
17.78
16.87
16.16
15.56
15.11
14.61
13.92
12.95
11.63
10.01
8.11
5.96
3.53
0.79
-2.21
-5.34
-8.28
-10.73
-12.43
-13.42
-13.84
-13.98
-14.17
-14.74
-15.83
-17.38
-19.19
-20.81
-21.79
-21.61
-19.88
-16.54
-11.83
-6.26
-0.47
4.8
9.08
12.1
13.71
14
13.21
11.78
10.12
8.72
7.85
7.72
8.45
9.94
11.9
14.06
16.06
17.52
18.15
17.8
16.62
14.8
12.68
10.49
8.39
6.45
4.56
2.62
0.59
-1.33
-3
-4.13
-4.67
-4.76
-4.81
-5.34
-6.79
-9.3
-12.57
-16.01
-18.87
-20.47
-20.35
-18.42
-14.9
-10.2
-4.93
0.34
5.15
9.08
11.97
13.78
14.58
14.51
13.78
12.6
11.22
9.96
9.07
8.81
9.25
10.31
11.74
13.24
14.4
15.02
15.11
14.75
14.14
13.3
12.18
10.67
8.68
6.16
3.33
0.34
-2.62
-5.34
-7.8
-9.98
-11.87
-13.43
-14.82
-16.08
-17.48
-19.05
-20.5
-21.5
-21.51
-20.05
-16.84
-12.09
-6.05
0.65
7.39
13.62
18.7
22.24
23.99
23.99
22.41
19.62
15.99
11.99
8.25
5.22
3.48
3.27
4.51
6.83
9.66
12.33
14.58
16.29
17.27
17.58
17.08
15.61
13.22
10.07
6.31
2.39
-1.29
-4.53
-7.03
-8.78
-9.89
-10.59
-11.26
-12.19
-13.53
-15.34
-17.72
-20.44
-23.34
-26.03
-27.99
-28.73
-27.71
-24.71
-19.78
-13.38
-5.94
1.65
8.6
14.26
18.13
20
20.14
19.01
17.17
15.43
14.03
13.17
12.9
13.07
13.62
14.46
15.49
16.44
17.06
16.93
15.89
14.05
11.59
8.96
6.49
4.44
2.87
1.77
0.99
0.29
-0.48
-1.57
-3.06
-4.96
-7.18
-9.6
-12.02
-14.43
-16.8
-19.11
-21.37
-23.35
-24.84
-25.58
-25.25
-23.65
-20.75
-16.58
-11.38
-5.52
0.6
6.42
11.38
15.19
17.6
18.64
18.64
18.06
17.23
16.42
15.68
14.86
13.91
12.8
11.72
10.85
10.46
10.49
10.83
11.31
11.69
11.8
11.63
11.21
10.61
9.84
8.89
7.75
6.34
4.58
2.43
-0.14
-3.09
-6.19
-9.3
-12.1
-14.28
-15.75
-16.58
-17.04
-17.56
-18.44
-19.76
-21.29
-22.58
-23.02
-22.07
-19.59
-15.63
-10.53
-4.72
1.3
7.05
12.02
15.8
18.19
19.13
18.85
17.66
15.91
13.86
11.77
9.9
8.43
7.6
7.45
7.93
8.68
9.36
9.69
9.53
9
8.23
7.35
6.34
5.13
3.51
1.43
-1.05
-3.69
-6.2
-8.42
-10.27
-11.85
-13.19
-14.35
-15.34
-16.16
-16.87
-17.49
-18.03
-18.17
-17.58
-15.81
-12.75
-8.61
-3.94
0.57
4.4
7.09
8.56
8.82
7.99
6.3
4.13
1.88
-0.08
-1.35
-1.85
-1.42
-0.01
2.39
5.59
9.18
12.67
15.52
17.32
17.89
17.27
15.66
13.34
10.49
7.2
3.63
-0.09
-3.78
-7.34
-10.66
-13.62
-16.09
-17.97
-19.31
-20.2
-20.88
-21.55
-22.36
-23.19
-23.84
-23.97
-23.25
-21.5
-18.63
-14.77
-10.13
-5.12
-0.07
4.56
8.44
11.38
13.38
14.42
14.56
13.91
12.58
10.89
9.16
7.8
7.06
7.09
7.66
8.5
9.43
10.37
11.24
11.96
12.31
12.01
10.9
8.9
6.2
3.1
-0.06
-3.27
-6.47
-9.7
-12.82
-15.63
-17.81
-19.17
-19.66
-19.56
-19.25
-19.1
-19.33
-19.89
-20.58
-20.96
-20.64
-19.23
-16.58
-12.64
-7.58
-1.85
3.91
9.08
13.09
15.58
16.54
16.15
14.81
12.94
10.94
9.13
7.86
7.35
7.7
8.89
10.6
12.52
14.24
15.46
15.98
15.83
14.92
13.4
11.41
9.12
6.84
4.91
3.59
2.92
2.79
2.84
2.63
1.87
0.37
-1.7
-4.21
-6.86
-9.54
-12.07
-14.39
-16.43
-18.16
-19.75
-21.16
-22.51
-23.56
-23.94
-23.15
-20.82
-16.89
-11.72
-5.99
-0.3
4.76
9.03
12.48
15.16
17.12
18.4
19
18.96
18.36
17.34
15.93
14.29
12.49
10.74
9.28
8.35
8.06
8.34
8.99
9.64
10.06
10.03
9.52
8.67
7.61
6.46
5.23
3.73
1.71
-0.91
-4.17
-7.85
-11.56
-14.9
-17.56
-19.5
-20.83
-21.83
-22.73
-23.64
-24.62
-25.48
-25.98
-25.88
-24.85
-22.66
-19.26
-14.81
-9.67
-4.31
0.89
5.75
10.1
13.98
17.28
19.89
21.71
22.7
22.96
22.67
22.04
21.23
20.41
19.48
18.45
17.2
15.78
14.22
12.71
11.39
10.31
9.55
8.89
8.27
7.48
6.45
4.98
3.06
0.71
-2
-4.79
-7.43
-9.67
-11.45
-12.82
-13.99
-15.21
-16.64
-18.44
-20.45
-22.48
-24.22
-25.29
-25.31
-23.91
-20.9
-16.42
-10.82
-4.71
1.26
6.55
10.82
13.9
15.9
16.97
17.25
16.96
16.24
15.08
13.73
12.22
10.69
9.37
8.3
7.53
7.02
6.68
6.3
5.78
5.03
4.02
2.8
1.41
-0.09
-1.68
-3.38
-5.22
-7.1
-8.84
-10.23
-11.13
-11.56
-11.76
-12.06
-12.64
-13.69
-15.01
-16.29
-17.18
-17.23
-16.28
-14.2
-11.11
-7.26
-3.06
1.03
4.6
7.35
9.22
10.15
10.28
9.68
8.54
7.13
5.73
4.81
4.67
5.53
7.23
9.47
11.69
13.36
14.13
13.85
12.68
10.74
8.26
5.36
2.23
-0.93
-3.85
-6.32
-8.21
-9.59
-10.75
-11.96
-13.32
-14.82
-16.33
-17.81
-19.24
-20.75
-22.36
-23.95
-25.08
-25.18
-23.81
-20.74
-16.13
-10.28
-3.74
2.89
9.01
14.04
17.53
19.28
19.35
18.11
16.07
13.74
11.5
9.63
8.29
7.59
7.68
8.52
9.97
11.69
13.2
14.18
14.45
14.05
13.14
11.99
10.68
9.2
7.53
5.57
3.39
1.03
-1.42
-3.95
-6.64
-9.61
-12.88
-16.29
-19.54
-22.45
-24.86
-26.85
-28.57
-30.09
-31.45
-32.41
-32.6
-31.57
-29.01
-24.78
-19.02
-12.17
-4.89
2.15
8.32
13.16
16.48
18.4
19.22
19.26
18.85
18.21
17.58
17.13
16.93
16.89
16.9
16.87
16.65
16.15
15.45
14.66
13.94
13.24
12.42
11.2
9.47
7.09
4.13
0.76
-2.75
-6.15
-9.16
-11.62
-13.45
-14.7
-15.53
-16.08
-16.52
-16.85
-17.09
-17.16
-17.09
-17.01
-17.16
-17.67
-18.49
-19.23
-19.36
-18.26
-15.47
-11.01
-5.27
1.01
6.98
11.99
15.7
18.04
19.16
19.22
18.37
16.73
14.53
12.09
9.84
8.15
7.28
7.42
8.42
10.13
12.26
14.39
16.21
17.48
17.92
17.35
15.68
12.93
9.32
5.22
1.12
-2.55
-5.51
-7.71
-9.29
-10.44
-11.18
-11.54
-11.47
-10.94
-10.07
-9.15
-8.51
-8.41
-9.1
-10.59
-12.77
-15.26
-17.6
-19.23
-19.74
-18.81
-16.27
-12.18
-6.79
-0.7
5.53
11.15
15.61
18.49
19.82
19.73
18.59
16.71
14.27
11.65
9.16
7.29
6.47
7.06
9
11.97
15.32
18.35
20.6
21.82
22.02
21.37
20.08
18.3
16.14
13.72
11.12
8.47
5.88
3.33
0.92
-1.43
-3.65
-5.81
-7.85
-9.87
-11.82
-13.76
-15.77
-17.8
-20.02
-22.38
-24.9
-27.4
-29.63
-31.04
-31.12
-29.45
-25.82
-20.43
-13.72
-6.4
0.88
7.41
12.84
16.98
19.9
21.78
22.75
22.87
22.13
20.64
18.51
16.17
14.09
12.72
12.18
12.23
12.5
12.59
12.39
11.95
11.59
11.52
11.74
11.86
11.32
9.63
6.55
2.36
-2.48
-7.3
-11.55
-14.86
-17.15
-18.58
-19.3
-19.64
-19.8
-20.1
-20.68
-21.6
-22.74
-23.68
-24.06
-23.27
-21.05
-17.28
-12.22
-6.36
-0.26
5.52
10.62
14.64
17.39
18.67
18.56
17.17
14.84
12.1
9.47
7.46
6.27
5.87
5.97
6.36
6.72
6.91
6.97
6.91
6.84
6.57
5.91
4.66
2.71
0.23
-2.61
-5.5
-8.12
-10.28
-11.99
-13.38
-14.75
-16.32
-18.08
-19.97
-21.7
-23.01
-23.49
-22.92
-21.05
-17.87
-13.47
-8.08
-2.14
3.74
8.85
12.75
15.07
15.89
15.42
14
12.14
10.22
8.53
7.37
6.96
7.4
8.79
10.89
13.35
15.66
17.29
17.86
17.42
15.99
13.84
11.18
8.15
4.79
1.18
-2.59
-6.3
-9.62
-12.44
-14.57
-15.97
-16.7
-16.99
-17.02
-17.09
-17.37
-17.96
-18.85
-19.72
-20.19
-19.8
-18.22
-15.21
-10.91
-5.64
-0.07
5.15
9.59
13.04
15.46
17.03
17.99
18.41
18.34
17.78
16.69
15.31
13.94
12.8
12.14
11.91
11.87
11.88
11.77
11.56
11.37
11.18
10.9
10.24
8.83
6.46
3.25
-0.52
-4.39
-7.9
-10.9
-13.3
-15.1
-16.41
-17.36
-17.96
-18.34
-18.57
-18.7
-18.95
-19.41
-19.9
-20.19
-19.79
-18.29
-15.39
-11.19
-6.08
-0.85
3.87
7.78
10.75
13.06
14.94
16.49
17.72
18.49
18.53
17.88
16.66
14.99
13.21
11.53
10.07
9
8.32
8.02
8.15
8.67
9.48
10.51
11.56
12.28
12.51
12.04
10.82
8.8
5.92
2.1
-2.48
-7.54
-12.65
-17.2
-20.79
-23.18
-24.4
-24.75
-24.57
-24.04
-23.3
-22.28
-20.68
-18.35
-15.04
-10.81
-5.93
-0.82
4.07
8.21
11.39
13.5
14.47
14.44
13.57
12.05
10.2
8.44
7.1
6.58
7.08
8.47
10.51
12.75
14.7
15.92
16.17
15.38
13.82
11.81
9.72
7.68
5.61
3.35
0.77
-2.14
-5.16
-7.9
-9.98
-11.18
-11.51
-11.23
-10.64
-9.96
-9.48
-9.5
-10.24
-11.81
-14.08
-16.64
-18.97
-20.46
-20.41
-18.63
-15.19
-10.53
-5.3
-0.15
4.43
8.02
10.56
12.21
13.02
13.05
12.31
10.93
9.17
7.57
6.44
6.04
6.4
7.23
8.2
8.99
9.48
9.72
9.81
9.75
9.41
8.74
7.6
6
3.99
1.66
-0.81
-3.33
-5.82
-8.24
-10.41
-12.31
-13.8
-14.88
-15.77
-16.63
-17.55
-18.49
-19.2
-19.24
-18.34
-16.31
-13.26
-9.57
-5.72
-2.09
1.05
3.52
5.22
6.11
6.28
5.98
5.37
4.9
4.77
5.19
6.15
7.55
9.29
11.35
13.66
15.81
17.48
18.19
17.67
15.94
13.31
10.29
7.36
4.8
2.55
0.45
-1.65
-3.77
-5.79
-7.56
-8.94
-9.9
-10.56
-11.11
-11.76
-12.83
-14.43
-16.62
-19.15
-21.57
-23.35
-23.89
-22.9
-20.44
-16.76
-12.33
-7.45
-2.49
2.44
7.09
11.3
14.8
17.24
18.41
