-35.39
-15.97
4.85
25.06
42.83
56.99
67.03
73.07
75.61
75.26
72.54
68.05
62.51
56.84
52.03
48.83
47.51
47.8
48.96
50.06
50.52
50.11
48.95
47.31
45.11
42.11
37.99
32.39
25.46
17.69
9.68
2.09
-4.6
-10.4
-15.49
-20.01
-24.26
-28.13
-31.37
-33.72
-35.08
-35.47
-35.32
-35.26
-35.71
-37.06
-39.32
-42.29
-45.59
-48.72
-51.05
-51.92
-50.72
-47.11
-41.15
-33.36
-24.77
-16.39
-8.97
-3
1.45
4.49
6.2
6.68
6.01
4.25
1.73
-1.08
-3.69
-5.68
-6.85
-7.11
-6.55
-5.4
-3.79
-1.91
0.01
1.81
3.31
4.29
4.81
4.85
4.65
4.47
4.68
5.5
7.16
9.78
13.25
17.43
22
26.62
30.81
34.22
36.27
36.52
34.65
30.47
24.11
16.1
7.2
-1.58
-8.96
-13.72
-14.95
-12.4
-6.57
1.49
10.32
18.56
25.28
30.05
33
34.53
34.97
34.5
33.28
31.28
28.71
25.86
22.99
20.46
18.22
16.23
14.08
11.5
8.23
4.28
-0.3
-5.46
-11.25
-18.02
-25.92
-35.36
-46.48
-59.2
-73.16
-87.98
-103.2
-118.45
-133.34
-147.4
-160.27
-171.57
-180.79
-187.2
-189.84
-187.88
-180.68
-168.21
-151.06
-130.03
-106
-79.26
-49.8
-17.46
17.36
53.58
89.41
122.82
151.91
175.14
191.6
200.84
203.12
199.28
190.71
179.07
165.99
152.44
138.71
124.54
109.45
93.2
76.04
58.79
42.6
28.78
18.18
10.79
5.55
0.8
-4.86
-11.65
-18.19
-22.21
-21.59
-15.82
-6.25
4.15
12.34
16.46
16.42
13.55
9.4
4.98
0.29
-5.05
-11.46
-18.62
-25.47
-30.72
-33.27
-32.94
-30.41
-26.98
-23.94
-22.19
-21.8
-22.29
-23.03
-23.61
-24.2
-25.22
-26.93
-29.19
-31.42
-32.81
-32.68
-31
-28.21
-25.12
-22.32
-19.88
-17.51
-14.6
-10.75
-5.81
-0.09
6
12.07
17.91
23.53
28.8
33.68
38.03
41.77
44.98
47.89
50.6
52.91
54.27
53.91
51.22
45.96
38.55
29.81
20.92
12.99
6.74
2.53
0.17
-0.67
-0.69
-0.47
-0.5
-0.95
-1.66
-2.39
-2.76
-2.6
-1.92
-1.04
-0.2
0.33
0.51
0.52
0.48
0.61
0.97
1.49
1.99
2.4
2.56
2.36
1.9
1.07
0.08
-0.85
-1.65
-2.21
-2.56
-2.85
-3.31
-3.99
-5.07
-6.36
-7.62
-8.53
-8.85
-8.32
-6.92
-4.84
-2.34
0.18
2.43
4.3
5.86
7.55
9.91
13.37
18.21
24.23
30.79
37.09
42.42
46.26
48.75
50.09
50.57
50.53
50
48.76
46.73
43.95
40.63
37.29
34.14
31.29
28.56
25.54
21.89
17.56
12.66
7.38
1.8
-4.2
-10.76
-17.82
-25.1
-32.04
-37.86
-42.1
-44.5
-45.22
-44.67
-43.3
-41.4
-39.21
-36.63
-33.64
-30.32
-26.92
-23.78
-21.42
-20.19
-20.18
-21.32
-23.08
-24.98
-26.35
-26.66
-25.51
-22.95
-19.32
-15.17
-11.26
-8.08
-5.95
-4.73
-3.98
-3.13
-1.85
0
2.21
4.67
7.35
10.33
13.74
17.64
21.87
26.2
30.19
33.53
35.94
37.28
37.51
36.51
34.32
30.97
26.75
21.92
16.97
12.21
7.91
4.06
0.36
-3.6
-8.23
-13.47
-19.11
-24.46
-29.04
-32.58
-35.16
-37.15
-38.93
-40.6
-41.8
-42.07
-40.8
-37.79
-33.22
-27.62
-21.84
-16.69
-12.63
-9.85
-8.15
-7.16
-6.51
-5.94
-5.19
-4.37
-3.52
-2.87
-2.64
-2.93
-3.8
-5.14
-6.77
-8.33
-9.67
-10.39
-10.37
-9.37
-7.16
-3.71
0.72
5.5
9.91
13.07
14.59
14.39
12.68
9.88
6.35
2.26
-2.26
-6.98
-11.71
-16.17
-20.12
-23.42
-25.89
-27.26
-27.26
-25.62
-22.38
-17.84
-12.69
-7.6
-3.2
0.12
2.2
3.05
2.83
1.61
-0.32
-2.69
-5.08
-7.02
-8.1
-8.04
-6.87
-4.7
-1.99
0.97
3.8
6.36
8.58
10.34
11.79
12.76
13.27
13.08
11.93
9.58
5.96
1.25
-4.32
-10.24
-16.28
-22.37
-28.62
-35.14
-41.67
-47.53
-51.75
-53.4
-51.8
-46.86
-39.02
-29.1
-18.13
-7.2
2.72
10.76
16.24
19.02
19.18
17.27
14.15
10.58
7.3
4.92
3.75
3.87
5.29
7.68
10.68
13.91
16.88
19.23
20.82
21.68
21.88
21.56
20.55
18.63
15.46
10.81
4.71
-2.46
-10.02
-17.29
-23.73
-29.18
-33.61
-37.11
-39.68
-41.17
-41.26
-39.66
-36.2
-30.95
-24.37
-16.92
-9.22
-1.87
4.58
9.67
13.22
15.4
16.63
17.43
18.31
19.51
21.18
23.33
25.62
27.76
29.31
29.97
29.42
27.66
24.84
21.32
17.52
13.73
10.09
6.74
3.74
1.07
-1.26
-3.44
-5.72
-8.29
-11.31
-14.77
-18.47
-22.28
-26.09
-29.84
-33.44
-36.72
-39.34
-40.96
-41.04
-39.09
-34.8
-27.93
-18.73
-7.77
3.95
15.3
25.23
33.14
38.97
42.96
45.67
47.56
48.95
49.95
50.51
50.65
50.41
49.94
49.17
47.87
45.61
41.85
36.38
29.22
20.83
11.93
3.31
-4.71
-11.85
-18.16
-23.72
-28.55
-32.54
-35.54
-37.37
-37.88
-37.11
-35.15
-32.21
-28.62
-24.87
-21.53
-19.11
-18.15
-18.6
-20.01
-21.43
-21.83
-20.55
-17.42
-12.96
-7.96
-3.44
0.03
2.29
3.6
4.4
4.95
5.5
5.96
6.22
6.17
5.96
5.88
6.35
7.54
9.24
11.1
12.63
13.37
13.23
12.38
11.15
9.8
8.42
6.76
4.76
2.37
-0.29
-2.94
-5.39
-7.62
-9.86
-12.37
-15.53
-19.43
-24.09
-29.34
-34.77
-39.77
-43.63
-45.48
-44.57
-40.53
-33.49
-24.24
-13.94
-3.79
5.18
12.26
17.32
20.45
21.86
21.78
20.45
18.17
15.35
12.44
9.89
8.17
7.51
7.84
8.83
9.95
10.7
10.77
10.04
8.72
7
5
2.64
-0.11
-3.38
-7.07
-10.96
-14.77
-18.29
-21.36
-24.04
-26.44
-28.54
-30.34
-31.74
-32.55
-32.46
-31.22
-28.42
-23.87
-17.38
-9.11
0.41
10.33
19.75
27.86
34.3
39.17
42.82
45.8
48.47
50.85
52.65
53.33
52.35
49.52
45.1
39.61
33.76
28.14
22.96
18.27
13.94
9.85
6.07
2.77
0.02
-2.31
-4.55
-7.21
-10.52
-14.47
-18.68
-22.5
-25.32
-26.91
-27.43
-27.57
-28.13
-29.68
-32.5
-36.49
-41.06
-45.43
-48.58
-49.59
-47.75
-42.82
-34.88
-24.58
-12.95
-1.05
9.92
19.08
25.85
30.07
31.9
31.84
30.31
27.86
24.95
21.97
19.35
17.51
16.83
17.44
19.13
21.32
23.39
24.71
25.06
24.58
23.72
22.83
22
20.84
18.87
15.71
11.3
5.95
0.23
-5.45
-10.82
-15.72
-20.21
-24.24
-27.82
-30.87
-33.32
-34.98
-35.76
-35.52
-33.75
-30.15
-24.49
-17.05
-8.42
0.42
8.49
15.12
19.87
22.97
24.8
25.72
25.84
25.2
23.8
21.69
19.17
16.48
14.02
12
10.5
9.51
8.87
8.55
8.39
8.28
7.92
7.15
5.78
3.71
1.12
-1.92
-5.21
-8.53
-11.56
-14.14
-16.06
-17.33
-18.15
-18.62
-19.02
-19.73
-21
-22.82
-25.16
-27.56
-29.33
-29.69
-27.84
-23.46
-16.83
-8.6
0.34
9.07
16.97
23.64
28.92
32.72
34.89
35.26
33.94
31.11
27.21
22.89
18.63
14.97
12.12
10.2
9.17
9.03
9.62
10.59
11.69
12.45
12.58
11.88
10.24
7.73
4.46
0.61
-3.72
-8.25
-12.7
-16.76
-20.18
-22.96
-25.28
-27.53
-29.89
-32.46
-34.91
-36.66
-36.92
-34.97
-30.51
-23.59
-14.93
-5.35
4.1
12.58
19.5
24.56
27.87
29.6
30.11
29.65
28.58
27.22
25.83
24.63
23.71
23.07
22.61
22.29
22.02
21.78
21.6
21.52
21.43
21.14
20.46
19.27
17.8
16.32
15.04
13.92
12.75
11.2
9.07
6.4
3.27
-0.06
-3.54
-7.21
-11.22
-15.59
-20.32
-25.27
-30.2
-34.73
-38.36
-40.54
-40.66
-38.23
-33.11
-25.58
-16.35
-6.41
3.27
11.99
19.39
25.39
30.26
34
36.6
38.09
38.5
38.1
37.28
36.54
36.07
36.04
36.11
35.93
35.14
33.51
31.03
27.84
24.14
19.99
15.43
10.52
5.36
0.28
-4.33
-8.08
-10.79
-12.64
-14.06
-15.63
-17.64
-20.26
-23.19
-26.08
-28.47
-30.08
-30.84
-30.91
-30.52
-29.93
-29.59
-29.72
-30.56
-31.99
-33.55
-34.41
-33.66
-30.53
-24.85
-17.15
-8.48
-0.08
6.94
12.11
15.48
17.45
18.5
18.84
18.46
17.38
15.81
14.13
12.97
12.79
13.77
15.81
18.43
21.2
23.8
25.85
27.21
27.7
27.14
25.49
22.82
19.35
15.41
11.38
7.49
4.01
1.14
-0.96
-2.3
-2.94
-3.17
-3.46
-4.1
-5.35
-7.17
-9.42
-11.99
-14.85
-18.1
-21.78
-25.86
-30.15
-34.43
-38.43
-41.95
-44.85
-46.82
-47.54
-46.5
-43.24
-37.58
-29.68
-20.15
-9.96
-0.16
8.47
15.48
20.81
24.66
27.34
29.1
30.2
30.73
30.73
30.26
29.46
28.41
27.35
26.42
25.65
24.93
24.05
22.94
21.56
20.12
18.74
17.53
16.36
15.04
13.35
11.29
9.04
6.86
4.94
3.26
1.71
0.13
-1.57
-3.26
-4.69
-5.63
-5.96
-5.92
-5.81
-5.94
-6.62
-7.92
-9.73
-11.95
-14.55
-17.54
-21.07
-25.17
-29.77
-34.84
-40.12
-45.15
-49.13
-51.08
-50.02
-45.42
-37.36
-26.76
-15.09
-3.84
5.83
13.49
19.22
23.48
26.53
28.64
29.83
30.13
29.73
28.91
27.99
27.25
26.86
26.71
26.67
26.6
26.35
25.76
24.68
22.92
20.45
17.32
13.65
9.65
5.57
1.6
-1.97
-5.03
-7.37
-8.76
-9.05
-8.24
-6.38
-3.76
-0.82
1.95
3.84
4.31
3.15
0.41
-3.71
-8.64
-13.91
-18.96
-23.34
-26.87
-29.57
-31.49
-32.85
-33.83
-34.51
-34.61
-33.6
-30.85
-25.98
-19.02
-10.6
-1.91
5.77
11.43
14.61
15.58
15.05
13.86
12.67
11.83
11.29
11.01
10.99
11.21
11.8
12.81
14.32
16.18
18.1
19.75
20.89
21.35
20.96
19.72
17.79
15.43
12.85
10.17
7.41
4.51
1.49
-1.56
-4.39
-6.63
-8.04
-8.59
-8.52
-8.21
-8.13
-8.61
-9.69
-11.23
-12.98
-14.67
-16.09
-17.32
-18.46
-19.86
-21.78
-24.25
-26.94
-29.36
-30.81
-30.51
-27.98
-23.14
-16.4
-8.54
-0.65
6.3
11.51
14.49
15.33
14.44
12.53
10.27
8.29
6.93
6.35
6.61
7.65
9.38
11.64
14.26
16.89
19.2
20.88
21.78
21.9
21.23
19.76
17.37
14.03
9.81
4.98
-0.01
-4.64
-8.36
-10.83
-11.87
-11.64
-10.58
-9.21
-8.17
-7.92
-8.73
-10.45
-12.76
-15.23
-17.6
-20.03
-22.57
-25.55
-29.08
-33.04
-36.95
-40.3
-42.35
-42.53
-40.5
-35.98
-29.31
-21.17
-12.47
-4.14
3
8.65
12.82
15.86
18.25
20.15
21.57
22.43
22.54
21.79
20.35
18.36
16.11
13.7
11.16
8.53
6.12
4.14
2.94
2.84
3.81
5.67
7.93
10.06
11.57
12.17
11.55
9.74
6.93
3.31
-0.75
-5
-9.21
-13.23
-17
-20.51
-23.61
-26.29
-28.65
-30.93
-33.41
-36.32
-39.66
-42.95
-45.39
-45.99
-43.88
-38.72
-30.82
-21.16
-11.15
-2.05
5.28
10.47
13.63
15.18
15.61
15.28
14.35
12.96
11.21
9.16
6.78
4.23
1.7
-0.47
-1.96
-2.57
-2.22
-0.94
1.12
3.81
7.1
10.98
15.35
20.08
25.08
30.29
35.74
41.49
47.58
53.74
59.51
64.32
67.78
69.69
69.96
68.53
65.16
59.62
51.63
41.04
28.09
13.45
-2.02
-17.24
-30.93
-41.92
-48.99
-51.26
-48.44
-40.82
-29.45
-15.87
-1.81
11.46
23.19
33.13
41.25
47.32
50.7
50.44
45.84
36.78
24.04
9.19
-6.04
-19.99
-31.5
-39.94
-45.24
-47.46
-46.84
-43.8
-38.91
-32.88
-26.46
-20.42
-15.22
-11.24
-8.48
-6.81
-6.09
-6.21
-7.15
-8.93
-11.56
-14.79
-18.37
-21.81
-24.82
-27.28
-29.38
-31.31
-33.31
-35.38
-37.39
-39.14
-40.14
-40.05
-38.39
-34.95
-29.71
-23.18
-15.91
-8.58
-1.77
4.3
9.47
13.85
17.53
20.63
23.02
24.74
25.86
26.34
26.29
25.67
24.51
22.96
21.23
19.46
17.86
16.67
15.92
15.65
15.73
15.95
16.12
16.01
15.48
14.54
13.33
11.89
10.33
8.53
6.38
3.77
0.61
-2.97
-6.75
-10.46
-13.99
-17.16
-19.94
-22.42
-24.63
-26.67
-28.6
-30.42
-32.07
-33.38
-33.87
-33.08
-30.73
-26.63
-21
-14.25
-6.94
0.32
7.01
12.8
17.36
20.54
22.36
22.84
22.23
20.76
18.8
16.68
14.76
13.15
11.97
11.22
10.77
10.47
10.22
9.88
9.42
8.8
7.83
6.46
4.62
2.19
-0.87
-4.43
-8.29
-12.16
-15.65
-18.7
-21.28
-23.53
-25.75
-28.01
-30.29
-32.44
-34.36
-35.92
-37.13
-37.87
-37.77
-36.35
-33.04
-27.65
-20.48
-12.36
-4.23
3.01
8.88
13.26
16.23
18.18
19.26
19.66
19.48
18.85
18.02
17.25
16.81
16.77
17.22
17.99
18.83
19.37
19.32
18.5
16.92
14.91
12.7
10.4
7.93
5.05
1.44
-2.92
-7.79
-12.63
-16.87
-20.1
-22.33
-23.66
-24.44
-25.08
-25.94
-27.26
-29.02
-30.97
-32.47
-32.86
-31.29
-27.36
-21.18
-13.48
-5.37
1.98
7.75
11.59
13.57
14.25
14.24
14.08
14.24
15.01
16.46
18.73
21.7
25.05
28.49
31.69
34.28
36.18
37.35
37.71
37.43
36.42
34.52
31.61
27.63
22.69
17.2
11.66
6.54
2.25
-1.02
-3.4
-5.21
-6.85
-8.65
-10.65
-12.79
-14.93
-16.81
-18.35
-19.6
-20.83
-22.33
-24.21
-26.38
-28.68
-30.72
-31.9
-31.54
-29.13
-24.26
-17.28
-8.84
0.02
8.12
14.61
19.12
21.75
22.87
22.94
22.15
20.57
18.43
15.98
13.65
11.91
11.15
11.49
12.81
14.85
17.29
19.99
22.92
26.03
29.11
31.84
33.78
34.58
33.98
31.96
28.74
24.71
20.42
16.31
12.57
9.16
5.91
2.52
-1.22
-5.41
-10.08
-14.93
-19.58
-23.68
-26.93
-29.16
-30.54
-31.36
-32.16
-33.42
-35.33
-37.69
-40.01
-41.53
-41.41
-39.12
-34.32
-27.33
-18.98
-10.29
-2.26
4.45
9.68
13.65
16.54
18.75
20.31
21.31
21.96
22.56
23.44
24.92
26.9
29.03
30.93
32.21
32.65
32.22
30.91
28.73
25.84
22.32
18.31
14.15
10.15
6.55
3.47
0.85
-1.33
-3.06
-4.16
-4.65
-4.38
-3.57
-2.55
-1.73
-1.59
-2.26
-3.61
-5.27
-7.09
-9
-11.31
-14.42
-18.65
-24.14
-30.62
-37.4
-43.43
-47.65
-49.08
-47.21
-42.03
-34.05
-24.37
-14.28
-4.92
2.92
8.77
12.62
14.68
15.36
15.35
15.03
14.73
14.65
14.84
15.25
15.96
16.88
17.93
19.16
20.41
21.66
22.9
24.12
25.29
26.25
26.65
26.21
24.86
22.78
20.43
18.33
16.83
15.99
15.61
15.14
14.16
12.48
10.16
7.41
4.53
1.65
-1.11
-3.71
-6.32
-9.1
-12.17
-15.71
-19.72
-23.99
-28.12
-31.34
-32.91
-32.23
-29.12
-23.88
-17.26
-10.21
-3.75
1.27
4.32
5.23
4.06
1.2
-2.86
-7.51
-12.18
-16.31
-19.52
-21.43
-21.76
-20.35
-17.14
-12.29
-6.11
0.88
8.08
14.69
20.06
23.77
25.76
26.32
25.91
24.96
23.74
22.39
20.86
19.13
17.17
15.03
12.8
10.56
8.33
6.14
3.96
1.86
-0.12
-1.99
-3.84
-5.91
-8.39
-11.67
-15.84
-20.94
-26.53
-32.05
-36.71
-39.7
-40.32
-38.12
-33.12
-25.63
-16.37
-6.21
3.96
13.36
21.5
28.06
32.94
36.08
37.57
37.62
36.53
34.73
32.58
30.42
28.3
26.2
24.09
21.92
19.72
17.49
15.35
13.12
10.79
8.26
5.61
3.04
0.46
-2.24
-5.39
-9.09
-13.35
-17.73
-21.74
-24.99
-27.18
-28.47
-28.96
-28.87
-28.32
-27.51
-26.69
-26.12
-26.17
-26.97
-28.39
-29.99
-31.04
-30.85
-28.88
-24.96
-19.33
-12.67
-5.76
0.71
6.3
10.93
14.62
17.51
19.6
20.83
21.04
20.24
18.57
16.48
14.54
13.15
12.47
12.18
11.94
11.25
9.87
7.83
5.39
3
0.98
-0.49
-1.51
-2.26
-3.06
-4.11
-5.49
-7.2
-9.02
-10.77
-12.4
-13.9
-15.44
-17.15
-19.12
-21.31
-23.75
-26.14
-28.31
-29.9
-30.47
-29.65
-27.13
-22.9
-17.23
-10.85
-4.36
1.55
6.52
10.39
13.17
15.1
16.48
17.66
18.85
20.25
21.63
22.77
23.33
23
21.8
19.89
17.58
15.06
12.52
10.05
7.73
5.79
4.25
3.27
2.71
2.41
1.99
1.21
-0.05
-1.88
-4.11
-6.72
-9.44
-12.16
-14.7
-17.1
-19.37
-21.65
-24.15
-26.84
-29.49
-31.49
-32.04
-30.43
-26.24
-19.65
-11.4
-2.66
5.54
12.32
17.27
20.49
22.18
22.68
22.26
21.24
19.99
18.98
18.53
18.68
19.27
19.92
20.17
19.76
18.64
16.88
14.73
12.29
9.68
7.15
4.98
3.37
2.57
2.54
2.96
3.33
2.98
1.46
-1.38
-5.34
-10.01
-14.84
-19.45
-23.6
-27.3
-30.81
-34.21
-37.54
-40.63
-43.15
-44.62
-44.58
-42.59
-38.31
-31.82
-23.55
-14.26
-5.03
3.22
9.99
15.17
18.99
21.89
24.24
26.18
27.8
29.03
29.85
30.31
30.41
30.15
29.5
28.6
27.61
26.69
25.89
25.11
24.08
22.5
20.19
17.09
13.4
9.4
5.32
1.27
-2.72
-6.6
-10.35
-13.81
-16.86
-19.52
-21.79
-23.7
-25.28
-26.59
-27.72
-28.92
-30.46
-32.52
-35.11
-37.8
-39.77
-40.04
-37.81
-32.67
-24.89
-15.28
-5
4.7
12.77
18.63
22.18
23.69
23.78
23.09
22.19
21.46
21.08
20.97
21.06
21.23
21.35
21.32
21.04
20.56
19.88
19.03
17.92
16.44
14.52
12.22
9.69
7.09
4.78
3
2
1.81
2.39
3.35
4.23
4.37
3.24
0.69
-3.06
-7.43
-11.86
-15.85
-19.3
-22.36
-25.31
-28.5
-32.07
-35.97
-39.75
-42.75
-44.18
-43.33
-39.84
-33.62
-25.27
-15.65
-5.98
2.63
9.51
14.23
16.95
18.02
18.14
17.8
17.48
17.29
17.36
17.85
18.83
20.38
22.34
24.44
26.28
27.39
27.39
26.17
23.83
20.61
16.85
12.85
8.88
5.31
2.3
0.03
-1.53
-2.55
-3.4
-4.34
-5.71
-7.78
-10.44
-13.51
-16.42
-18.6
-19.7
-19.76
-19.2
-18.86
-19.61
-21.9
-25.72
-30.36
-34.74
-37.8
-38.53
-36.4
-31.4
-23.92
-14.8
-5.23
3.77
11.29
16.84
20.48
22.53
23.45
23.75
23.74
23.44
22.87
22.01
20.98
20.09
19.56
19.58
20.09
20.91
21.72
22.26
22.37
22.2
21.97
21.77
21.66
21.36
20.48
18.78
16.07
12.41
8.2
3.86
-0.28
-4.01
-7.35
-10.51
-13.56
-16.59
-19.53
-22.3
-24.78
-26.99
-28.99
-30.86
-32.81
-34.92
-37.29
-39.92
-42.65
-45.04
-46.42
-45.93
-42.96
-37.32
-29.23
-19.58
-9.45
0.02
7.97
14.01
18.24
20.98
22.79
23.98
24.75
25.14
25.17
24.92
24.63
24.46
24.55
24.96
25.47
25.88
26.03
25.88
25.57
25.18
24.8
24.39
23.7
22.48
20.54
17.92
14.85
11.65
8.59
5.88
3.61
1.68
-0.13
-2.17
-4.79
-8.4
-13.1
-18.9
-25.37
-31.94
-38.06
-43.29
-47.49
-50.8
-53.6
-56.14
-58.57
-60.63
-61.76
-61.34
-58.82
-54.07
-47.48
-39.73
-31.66
-24.05
-17.37
-11.8
-7.27
-3.33
0.31
4.05
8.27
13.47
19.92
27.91
37.41
48.09
59.41
70.46
80.27
87.85
92.46
93.6
91.19
85.49
76.98
66.23
53.68
39.82
25.03
9.97
-4.55
-17.65
-28.48
-36.59
-41.84
-44.57
-45.21
-44.13
-41.56
-37.58
-32.49
-26.6
-20.71
-15.56
-12.01
-10.59
-11.49
-14.52
-19.09
-24.51
-29.8
-34.11
-36.49
-36.33
-33.36
-27.79
-20.26
-11.75
-3.36
3.96
9.49
12.99
14.62
14.82
14.19
13.24
12.29
11.55
11.01
10.61
10.29
10.02
9.75
9.53
9.41
9.44
9.79
10.47
11.38
12.32
13.18
13.82
14.16
14.14
13.49
12.01
9.59
6.38
2.76
-0.78
-3.8
-6.09
-7.67
-8.71
-9.39
-9.94
-10.5
-11.34
-12.81
-15.21
-18.58
-22.55
-26.37
-29
-29.56
-27.45
-22.48
-15.13
-6.27
2.85
11.12
17.54
21.63
23.46
23.51
22.59
21.53
20.81
20.53
20.58
20.71
20.89
21.26
22.06
23.52
25.7
28.42
31.29
33.9
35.96
37.42
38.36
38.76
38.64
37.89
36.44
34.35
31.82
29.19
26.78
24.76
22.91
21.02
18.69
15.75
12.07
7.77
2.93
-2.28
-7.74
-13.41
-19.1
-24.69
-29.9
-34.53
-38.41
-41.54
-43.96
-45.69
-46.48
-45.93
-43.54
-39
-32.45
-24.53
-16.19
-8.41
-1.9
3.18
6.96
9.79
11.99
13.64
14.69
15.07
14.81
14.1
13.24
12.58
12.36
12.79
13.71
14.85
15.81
16.12
15.62
14.38
12.66
10.87
9.36
8.27
7.56
7.1
6.74
6.45
6.27
6.18
6.14
6.02
5.59
4.56
2.77
0.03
-3.6
-7.96
-12.65
-17.34
-21.74
-25.73
-29.49
-33.05
-36.6
-39.88
-42.51
-43.73
-42.89
-39.69
-34.28
-27.27
-19.37
-11.48
-4.21
1.94
6.76
10.21
12.42
13.69
14.49
15.19
16.05
17.17
18.36
19.41
20.1
20.3
20.03
19.43
18.67
18.01
17.81
18.29
19.44
21.05
22.7
23.96
24.34
23.59
21.6
18.66
15.08
11.12
7.12
3.21
-0.52
-4.07
-7.49
-10.85
-14.11
-17.17
-19.94
-22.24
-24.11
-25.54
-26.68
-27.72
-28.78
-29.96
-31.15
-31.94
-31.65
-29.77
-25.75
-19.45
-11.19
-1.63
8.14
17.2
24.83
30.73
34.78
37.05
37.89
37.61
36.66
35.38
34.16
33.31
33.1
33.68
34.99
37.02
39.51
42.27
45.08
47.87
50.8
54.06
57.89
62.28
67.01
71.61
75.57
78.35
79.48
78.74
76.05
71.7
65.88
58.77
50.11
39.42
26.31
10.62
-7.09
-25.63
-43.4
-59.02
-71.54
-80.67
-86.67
-89.93
-90.87
-89.74
-86.55
-81.18
-73.61
-63.92
-52.42
-39.84
-27.03
-14.96
-4.48
3.86
9.88
13.53
14.98
14.57
12.59
9.62
6.13
2.8
0.08
-1.78
-2.84
-3.39
-3.79
-4.36
-5.16
-6.17
-7.12
-7.77
-7.98
-7.87
-7.63
-7.47
-7.47
-7.46
-7.31
-6.9
-6.34
-5.99
-6.3
-7.45
-9.48
-12.12
-14.94
-17.63
-20.02
-22.01
-23.72
-25.33
-27.03
-29.08
-31.56
-34.23
-36.48
-37.41
-36.15
-32.26
-25.71
-17.26
-7.99
0.73
7.82
12.61
14.89
14.86
13.02
10.12
6.8
3.68
1.1
-0.71
-1.69
-1.87
-1.33
-0.25
1.25
2.91
4.53
5.97
7.22
8.26
9.1
9.69
9.82
9.31
8.05
6.06
3.5
0.73
-1.89
-4.14
-5.97
-7.39
-8.56
-9.46
-10.11
-10.48
-10.56
-10.43
-10.3
-10.5
-11.26
-12.71
-14.61
-16.59
-17.95
-18.12
-16.56
-13.11
-8.07
-2.08
3.97
9.36
13.58
16.46
18.18
18.95
18.96
18.31
16.84
14.46
11.34
7.84
4.36
1.45
-0.65
-1.85
-2.22
-2
-1.46
-0.74
0.07
0.83
1.39
1.53
1.07
-0.1
-2.03
-4.78
-8.28
-12.35
-16.71
-20.97
-24.68
-27.55
-29.22
-29.72
-29.26
-28.26
-27.33
-26.91
-27.29
-28.39
-29.63
-30.06
-28.88
-25.49
-19.9
-12.75
-4.95
2.52
8.92
13.87
17.28
19.2
19.88
19.69
19.02
18.36
18.07
18.32
19.01
19.98
20.97
21.93
22.86
23.57
24
23.83
22.92
21.45
19.78
18.36
17.51
17.32
17.44
17.67
17.5
16.59
14.7
11.6
7.27
1.75
-4.77
-12.23
-20.25
-28.71
-37.43
-46.18
-54.64
-62.24
-68.23
-71.69
-72.02
-68.88
-62.62
-54.16
-44.63
-35.27
-26.95
-20.2
-14.99
-11.13
-8.14
-5.6
-3.25
-0.71
2.04
5.12
8.51
12.16
15.82
19.23
22.01
23.72
24.32
23.73
22.22
20.15
17.81
15.14
12.04
8.23
3.57
-1.78
-7.45
-13.07
-18.16
-22.56
-26.4
-29.83
-33.08
-36.26
-39.33
-42.11
-44.33
-45.57
-45.38
-43.38
-39.23
-32.95
-24.92
-15.8
-6.53
2.03
9.24
14.73
18.43
20.61
21.49
21.42
20.8
20.07
19.76
20.19
21.48
23.43
25.82
28.21
30.37
32.2
33.76
35.12
36.11
36.6
36.27
35.1
32.96
29.97
26.21
21.79
16.84
11.53
6.22
1.25
-2.98
-6.32
-8.69
-10.21
-11.17
-12
-13.01
-14.62
-17.06
-20.49
-24.77
-29.49
-33.88
-37.09
-38.18
-36.41
-31.62
-24.12
-14.94
-5.35
3.36
10.35
15.21
18.15
19.84
20.9
21.85
22.95
24.33
25.98
27.82
29.74
31.47
32.87
33.75
34.13
34.16
34.01
34
34.13
34.29
34.21
33.69
32.49
30.59
27.98
24.65
20.81
16.52
11.94
7.3
2.91
-1.08
-4.59
-7.63
-10.39
-13
-15.58
-18.1
-20.51
-22.75
-24.93
-27.35
-30.21
-33.59
-37.19
-40.45
-42.51
-42.66
-40.36
-35.59
-28.71
-20.5
-11.88
-3.75
3.25
8.89
13.2
16.5
18.96
20.89
22.35
23.39
23.97
24.26
24.38
24.4
24.29
23.73
22.51
20.51
17.93
15.14
12.57
10.58
9.07
7.99
6.93
5.68
4.14
2.35
0.38
-1.78
-3.96
-6.27
-8.55
-10.78
-12.99
-15.15
-17.37
-19.56
-21.77
-23.95
-26.23
-28.6
-31.13
-33.59
-35.6
-36.68
-36.14
-33.55
-28.68
-21.69
-13.05
-3.58
5.82
14.33
21.22
26.32
29.64
31.39
31.84
31.13
29.44
26.89
23.87
20.79
18.25
16.69
16.17
16.59
17.55
18.69
19.76
20.62
21.14
21.13
20.33
18.53
15.68
11.92
7.58
3.18
-0.91
-4.39
-7.15
-9.19
-10.59
-11.43
-11.82
-11.93
-11.89
-12.01
-12.59
-13.93
-16.26
-19.67
-23.94
-28.59
-32.9
-35.99
-37.15
-35.88
-32.08
-26.16
-18.9
-11.18
-3.91
2.29
7.1
10.55
12.98
14.73
16.15
17.41
18.61
19.78
20.86
21.81
22.65
23.45
24.17
24.76
25.13
25.25
25.15
24.88
24.58
24.25
23.93
23.45
22.6
21.29
19.47
17.3
14.99
12.73
10.49
8.15
5.46
2.25
-1.51
-5.7
-10.02
-14.2
-17.91
-21
-23.46
-25.36
-26.88
-28.27
-29.71
-31.15
-32.26
-32.51
-31.26
-28.01
-22.73
-15.87
-8.17
-0.7
5.54
9.99
12.38
12.98
12.34
10.96
9.34
7.89
6.86
6.39
6.54
7.21
8.18
9.29
10.32
11.2
11.9
12.53
13.1
13.6
13.98
14.04
13.76
13.04
12.04
10.81
9.57
8.51
7.8
7.37
6.92
6.19
4.7
2.28
-1.09
-5.12
-9.29
-13.14
-16.49
-19.49
-22.33
-25.42
-28.81
-32.3
-35.24
-36.64
-35.51
-31.27
-24
-14.39
-3.83
6.25
14.52
20.15
23.06
23.73
22.98
21.53
19.98
18.51
17.08
15.58
13.9
12.21
10.9
10.31
10.44
11.2
12.32
13.65
15.1
16.65
18.16
19.38
20.01
19.59
18.03
15.45
12.24
8.79
5.26
1.74
-1.84
-5.49
-9.16
-12.75
-16.22
-19.64
-23.12
-26.85
-30.86
-34.81
-38.08
-39.9
-39.46
-36.45
-31.06
-23.94
-16.08
-8.56
-1.99
3.34
7.41
10.53
12.83
14.44
15.43
15.91
15.94
15.76
15.6
15.62
15.92
16.47
17.12
17.7
18.01
18
17.69
17.25
16.8
16.39
15.92
15.17
13.87
11.82
8.95
5.36
1.27
-2.99
-7.09
-10.87
-14.2
-17.02
-19.35
-21.21
-22.63
-23.73
-24.64
-25.45
-26.17
-26.61
-26.34
-24.98
-22.28
-18.37
-13.67
-8.76
-4.26
-0.37
2.8
5.47
7.75
9.66
11.16
12.21
12.91
13.33
13.68
14
14.19
14.14
13.72
12.87
11.82
10.94
10.5
10.62
11.18
11.83
12.15
11.75
10.3
7.58
3.67
-1.32
-6.92
-12.53
-17.54
-21.53
-24.56
-26.94
-29.26
-31.8
-34.7
-37.58
-39.87
-41.02
-40.47
-37.99
-33.44
-26.99
-19.21
-10.97
-3.16
3.4
8.19
11.29
13.1
14.29
15.29
16.27
17.11
17.62
17.7
17.41
17
16.68
16.74
17.18
17.94
18.87
19.71
20.4
20.77
20.9
20.73
20.39
19.88
19.12
17.99
16.16
13.42
9.68
5.18
0.24
-4.61
-9.07
-13.03
-16.45
-19.65
-22.73
-25.86
-28.91
-31.81
-34.22
-35.8
-36.06
-34.37
-30.54
-24.55
-16.94
-8.36
0.29
8.44
15.63
21.72
26.95
31.34
34.92
37.59
39.1
39.15
37.62
34.52
30.02
24.61
18.68
12.7
7.08
2.19
-1.68
-4.37
-5.8
-6.3
-6.07
-5.51
-4.85
-4.3
-4.02
-4.15
-4.8
-5.99
-7.77
-9.96
-12.48
-15.16
-17.75
-20.07
-21.88
-23.01
-23.57
-23.85
-24.17
-24.75
-25.43
-25.59
-24.45
-21.22
-15.54
-7.57
1.94
12.01
21.61
29.96
36.72
41.85
45.55
48.02
49.48
49.92
49.43
48.07
45.97
43.31
40.33
37.07
33.51
29.64
25.33
20.65
15.73
10.78
5.99
1.47
-2.71
-6.49
-9.72
-12.24
-13.91
-14.63
-14.42
-13.51
-12.14
-10.73
-9.66
-9.16
-9.36
-10.26
-11.71
-13.53
-15.72
-18.22
-21.18
-24.63
-28.34
-31.77
-34.23
-34.86
-33.07
-28.67
-21.84
-13.16
-3.58
5.9
14.55
21.89
27.95
32.95
37.07
40.52
43.32
45.19
46
45.73
44.57
42.96
41.35
40.06
39.3
39.01
38.85
38.55
37.69
36.13
33.78
30.79
27.19
23.04
18.4
13.25
7.72
1.72
-4.94
-12.6
-21.47
-31.64
-42.53
-53.13
-62.13
-68.33
-71.12
-70.63
-67.48
-62.49
-56.42
-49.75
-42.66
-35.32
-27.73
-19.88
-11.77
-3.4
5.03
13.11
20.09
25.42
28.66
29.97
29.94
29.32
28.77
28.57
28.82
29.34
29.99
30.65
31.28
31.91
32.39
32.67
32.65
32.49
32.36
32.43
32.66
32.74
32.2
30.44
27.15
22.14
15.73
8.38
0.51
-7.43
-15.11
-22.21
-28.46
-33.71
-37.99
-41.46
-44.29
-46.75
-48.88
-50.61
-51.88
-52.56
-52.63
-52.08
-51
-49.29
-46.92
-43.65
-39.34
-33.97
-27.66
-20.77
-13.79
-7.33
-1.86
2.29
5.18
7.07
8.3
9.16
9.88
10.42
10.85
11.1
11.08
10.78
10.13
9.14
7.91
6.67
5.59
4.91
4.64
4.63
4.58
4.15
3.04
1.19
-1.23
-3.99
-6.65
-8.73
-9.82
-9.84
-8.99
-7.7
-6.49
-5.87
-6.37
-8.22
-11.38
-15.67
-20.7
-26.02
-31.25
-36
-40
-43.03
-44.92
-45.31
-43.94
-40.59
-35.26
-28.26
-20.21
-11.9
-4.1
2.57
7.91
12.04
15.39
18.31
20.86
22.91
24.24
24.75
24.49
23.69
22.44
20.89
18.93
16.4
13.39
10.05
6.68
3.45
0.45
-2.49
-5.46
-8.39
-11.11
-13.44
-15.24
-16.5
-17.46
-18.3
-19.16
-20
-20.54
-20.69
-20.57
-20.48
-20.83
-21.93
-23.78
-26.12
-28.35
-29.77
-29.95
-28.58
-25.61
-21.28
-15.92
-9.9
-3.72
2.12
7.27
11.45
14.61
16.94
18.6
19.72
20.5
20.88
20.78
20.27
19.43
18.51
17.72
17.09
16.48
15.82
14.8
13.31
11.46
9.43
7.5
5.82
4.23
2.47
0.32
-2.29
-5.13
-7.76
-9.95
-11.45
-12.31
-12.92
-13.56
-14.49
-15.91
-17.68
-19.61
-21.65
-23.49
-24.93
-25.81
-25.74
-24.51
-22.08
-18.45
-13.96
-9.18
-4.54
-0.35
3.29
6.57
9.62
12.32
14.46
15.74
15.85
14.91
13.18
10.96
8.72
6.64
4.87
3.62
3.09
3.49
4.97
7.25
9.82
12.12
13.59
14
13.44
12.04
10.05
7.6
4.44
0.4
-4.54
-10.36
-16.63
-22.84
-28.5
-33.22
-36.66
-38.88
-40.07
-40.54
-40.86
-41.37
-42.07
-42.6
-42.24
-40.14
-35.69
-28.82
-20.03
-10.4
-1.01
7.29
14.04
19.27
23.3
26.52
29.29
31.65
33.41
34.45
34.78
34.33
33.4
32.12
30.56
28.74
26.63
24.26
21.91
19.95
18.58
17.98
18.14
18.85
19.74
20.46
20.61
19.99
18.54
16.26
13.44
10.3
7.06
3.77
0.3
-3.57
-7.84
-12.41
-17.06
-21.3
-24.94
-27.88
-30.16
-32.03
-33.76
-35.5
-37.36
-39.31
-41.15
-42.6
-43.25
-42.58
-40.11
-35.5
-28.72
-20.24
-10.9
-1.76
6.17
12.2
16.19
18.42
19.49
19.87
20.03
20.16
20.35
20.59
20.83
21.2
21.75
22.6
23.67
24.88
26.05
27.06
27.92
28.67
29.46
30.17
30.56
30.17
28.68
26.08
22.56
18.84
15.68
13.63
12.79
12.84
13.09
12.87
11.81
9.65
6.7
3.22
-0.41
-4.1
-7.86
-11.79
-16.02
-20.44
-24.81
-28.81
-32.21
-34.82
-36.62
-37.75
-38.36
-38.89
-39.73
-41.25
-43.54
-46.32
-48.86
-50.12
-49.18
-45.53
-39.24
-31.02
-21.83
-12.74
-4.52
2.38
8.02
12.54
16.27
19.41
21.97
23.94
25.2
25.88
26.1
26.1
26.06
26.13
26.44
27.05
28.06
29.53
31.52
33.84
36.04
37.52
37.76
36.56
34.2
31.24
28.47
26.41
25.25
24.68
24.28
23.44
21.75
19.1
15.64
11.84
8.01
4.5
1.11
-2.33
-6.12
-10.39
-14.94
-19.3
-23.05
-25.96
-27.94
-29.31
-30.36
-31.33
-32.46
-33.99
-35.92
-38.1
-40.16
-41.27
-40.64
-37.55
-31.8
-23.84
-14.74
-5.79
2.05
8.23
12.88
16.39
19.21
21.84
24.34
26.9
29.49
32.26
35.26
38.45
41.71
44.91
47.96
50.75
53.4
55.79
57.67
58.58
58.2
56.31
53.1
49.03
44.53
40.26
36.35
32.81
29.45
26.24
23.2
20.47
18.18
16.15
14.22
11.92
8.85
4.79
-0.38
-6.57
-13.58
-21.1
-28.94
-36.77
-44.3
-51.16
-56.92
-61.35
-64.53
-66.61
-67.91
-68.66
-68.73
-67.81
-65.35
-60.75
-53.73
-44.48
-33.55
-21.69
-9.67
1.86
12.41
21.71
29.56
35.87
40.6
43.59
44.82
44.47
42.88
40.53
37.85
35.21
32.78
30.63
28.81
27.22
26.03
25.32
25.15
25.42
25.92
26.42
26.68
26.68
26.29
25.63
24.81
23.94
23.03
21.88
20.31
17.96
14.56
9.88
3.81
-3.59
-11.88
-20.46
-28.61
-35.61
-41.09
-44.92
-47.42
-49.08
-50.46
-51.78
-52.94
-53.65
-53.31
-51.63
-48.51
-44.2
-39.19
-33.96
-28.87
-24.21
-20.21
-16.95
-14.45
-12.67
-11.39
-10.43
-9.67
-9.02
-8.48
-8.01
-7.44
-6.54
-4.97
-2.47
1.2
6.01
11.81
18.24
24.65
30.37
34.49
36.43
35.75
32.34
26.54
19.05
10.77
2.52
-4.85
-10.93
-15.43
-18.36
-20.07
-20.87
-21.1
-20.89
-20.37
-19.42
-18.19
-16.86
-15.83
-15.68
-16.77
-19.19
-22.51
-25.96
-28.47
-29.33
-28.1
-24.82
-20.09
-14.59
-9.27
-4.9
-2.14
-1.17
-1.98
-4.07
-6.68
-9.12
-10.74
-11.23
-10.4
-8.32
-5.11
-0.88
4.25
10.19
16.76
23.79
31.01
38.15
44.81
50.57
55.14
58.26
59.87
59.88
58.35
55.31
50.85
45.15
38.6
31.63
24.76
18.48
13.09
8.89
6.03
4.5
4.1
4.5
5.04
4.93
3.54
0.48
-4.15
-9.87
-15.84
-21.06
-24.53
-25.58
-24.14
-20.7
-16.15
-11.58
-7.8
-5.2
-3.67
-2.76
-2.14
-1.47
-0.71
0.17
1.32
2.9
5.09
7.79
10.79
13.57
15.77
17.16
17.53
17.02
15.77
13.88
11.38
8.31
4.66
0.7
-3.31
-7.29
-11.15
-14.98
-18.64
-21.98
-24.7
-26.58
-27.5
-27.6
-27.32
-27.14
-27.72
-29.2
-31.66
-34.83
-38.05
-40.44
-40.99
-39.01
-34.23
-27.11
-18.44
-9.3
-0.72
6.49
11.92
15.52
17.45
17.94
17.42
16.32
15.09
14.23
14.08
14.76
16.14
17.91
19.6
20.75
21.01
20.21
18.32
15.62
12.4
8.93
5.51
2.23
-0.97
-4.16
-7.41
-10.7
-13.92
-16.97
-19.89
-22.73
-25.69
-29.02
-32.83
-37.1
-41.58
-45.97
-49.72
-52.24
-52.99
-51.53
-47.7
-41.55
-33.64
-24.7
-15.63
-7.32
-0.32
5.16
9.25
12.28
14.79
16.98
18.99
20.8
22.3
23.36
24.12
24.79
25.52
26.51
27.59
28.47
28.83
28.42
27.08
24.98
22.37
19.35
16.16
12.89
9.56
6.35
3.31
0.51
-1.93
-4.07
-6.03
-7.81
-9.38
-10.89
-12.39
-14.3
-16.88
-20.4
-24.8
-29.63
-33.93
-36.62
-36.81
-34.02
-28.48
-20.8
-11.89
-2.78
5.73
13.18
19.38
24.36
28.36
31.41
33.64
35.16
36
36.23
35.97
35.3
34.35
33.28
32.19
31.12
30.15
29.27
28.39
27.42
26.31
24.92
23.18
20.96
18.06
14.66
11.09
7.84
5.37
3.83
2.99
2.4
1.57
-0.03
-2.4
-5.38
-8.63
-11.78
-14.63
-17.22
-19.54
-21.67
-23.87
-26.23
-28.81
-31.41
-33.53
-34.5
-33.67
-30.42
-24.6
-16.71
-7.65
1.34
9.13
15.26
19.72
23.01
25.78
28.47
31.06
33.31
34.87
35.4
35.01
33.92
32.39
30.7
29.03
27.48
26.22
25.47
25.35
26.05
27.63
29.89
32.58
35.22
37.36
38.59
38.66
37.21
34.08
29.24
22.89
15.56
7.77
-0.1
-7.86
-15.42
-22.94
-30.32
-37.26
-43.4
-48.26
-51.61
-53.63
-54.65
-54.98
-54.88
-54.34
-53.13
-51.04
-47.73
-42.85
-36.29
-28.09
-18.65
-8.73
0.55
8.17
13.24
15.62
15.83
14.86
13.76
13.37
14.11
15.94
18.73
22.06
25.76
29.62
33.43
36.85
39.57
41.25
41.85
41.65
40.81
39.72
38.57
37.46
36.43
35.42
34.37
33.14
31.74
29.98
27.92
25.7
23.4
21.09
18.65
15.79
12.18
7.76
2.58
-2.94
-8.29
-13.18
-17.34
-20.94
-24.27
-27.84
-31.9
-36.74
-42.24
-47.97
-53.41
-57.66
-59.83
-59.02
-54.96
-47.69
-38
-26.98
-15.76
-5.32
3.76
11.22
17.13
21.41
23.96
24.6
23.4
20.71
17.14
13.4
9.97
7.05
4.67
2.72
1.14
0.09
-0.23
0.29
1.49
2.95
4.11
4.54
4.18
3.23
2.05
1.14
0.89
1.6
3.26
5.59
7.92
9.64
10.13
8.97
6.26
2.43
-1.75
-5.6
-8.82
-11.44
-13.68
-15.78
-17.82
-19.53
-20.38
-19.51
-16.22
-10.06
-1.09
10.09
22.16
33.46
42.35
47.6
48.85
46.42
41.33
34.71
27.5
20.06
12.47
4.71
-3.09
-10.52
-17.06
-22.18
-25.6
-27.18
-27.15
-25.58
-22.55
-18.18
-12.66
-6.42
0.15
6.62
12.65
17.98
22.58
26.49
29.67
32.11
33.49
33.53
32.02
28.73
23.61
16.8
8.61
-0.79
-10.96
-21.82
-33.11
-44.55
-55.83
-66.57
-76.26
-84.23
-89.83
-92.15
-90.7
-85.26
-76.19
-64.44
-51.41
-38.62
-27.42
-18.65
-12.31
-8.06
-5.19
-3.04
-1.1
1.05
3.61
6.81
10.75
15.63
21.35
27.59
33.96
40
45.4
49.95
53.48
55.94
57.38
57.76
57.12
55.57
53.22
50.27
46.91
43.2
39.18
34.95
30.55
26.03
21.52
17.07
12.92
9.03
5.27
1.2
-3.7
-9.78
-17.11
-25.45
-34.28
-42.8
-50.17
-55.51
-58.04
-57.33
-53.34
-46.39
-37.31
-27.12
-16.71
-6.75
2.41
10.76
18.27
24.99
30.9
35.92
39.83
42.5
43.89
44.13
43.5
42.28
40.67
38.74
36.31
33.03
28.48
22.34
14.68
5.86
-3.46
-12.59
-20.94
-28.15
-34.08
-38.75
-42.25
-44.6
-45.84
-46.03
-45.39
-44.3
-43.2
-42.48
-42.28
-42.63
-43.34
-44.16
-44.78
-44.82
-43.7
-40.59
-34.89
-26.29
-15.53
-4.09
5.98
13.02
16.14
15.56
12.62
8.83
5.77
4.25
4.48
6.03
8.29
10.57
12.2
12.83
12.24
10.59
8.25
5.83
4.05
3.61
4.96
8.04
12.4
17.13
21.38
24.37
25.82
25.81
24.64
22.54
19.55
15.58
10.5
4.51
-2.1
-8.88
-15.43
-21.65
-27.62
-33.58
-39.67
-46.01
-52.52
-58.75
-64.09
-67.77
-69.07
-67.32
-62.31
-54.2
-43.81
-32.36
-21.01
-10.71
-1.96
5.18
11.09
16.22
20.94
25.28
29.23
32.65
35.56
38.07
40.31
42.43
44.54
46.59
48.25
49.1
48.53
45.89
40.8
33.24
23.49
12.28
0.48
-10.97
-21.35
-30.02
-36.74
-41.42
-44.31
-45.85
-46.63
-47.1
-47.49
-47.84
-48.02
-47.92
-47.38
-46.51
-45.38
-44.09
-42.56
-40.37
-36.9
-31.42
-23.45
-12.79
-0.01
13.75
26.97
38.05
45.86
49.84
50.07
47.08
41.69
34.78
27.17
19.46
12.19
5.82
0.69
-3.01
-5.41
-6.8
-7.74
-8.79
-10.34
-12.49
-14.92
-17.17
-18.61
-18.89
-17.83
-15.49
-11.95
-7.37
-1.88
4.29
10.62
16.53
21.37
24.71
26.49
27.1
27.1
26.97
27.01
26.95
26.43
24.92
22.02
17.61
11.73
4.95
-1.98
-8.05
-12.36
-14.35
-14.08
-12.14
-9.52
-7.25
-5.92
-5.63
-6.01
-6.61
-7.17
-7.82
-8.89
-10.65
-13.09
-15.81
-18.15
-19.49
-19.4
-17.78
-14.74
-10.52
-5.31
0.74
7.58
15.08
23
31.05
38.85
45.95
52.01
56.8
60.29
62.5
63.4
62.76
60.32
55.71
48.69
39.29
27.76
14.71
0.79
-13.32
-27.13
-40.33
-52.69
-64.01
-73.85
-81.79
-87.11
-89.25
-87.92
-83.32
-76
-66.82
-56.74
-46.31
-35.93
-25.59
-15.24
-4.97
4.87
13.98
22.13
29.25
35.62
41.45
46.91
52.07
56.89
61.28
65.11
68.25
70.44
71.41
70.71
67.96
62.89
55.45
45.96
34.85
22.79
10.42
-1.65
-13.15
-23.83
-33.54
-42.21
-49.64
-55.89
-61.06
-65.34
-68.86
-71.72
-73.67
-74.43
-73.64
-70.99
-66.25
-59.29
-49.91
-37.93
-23.55
-7.29
9.74
26.14
40.67
52.47
61.18
67.06
70.6
72.29
72.48
71.31
68.84
65.08
60.06
53.94
47
39.75
32.73
26.4
20.93
16.42
12.84
10.07
8.14
6.91
6.19
5.68
5.16
4.43
3.63
3.25
3.86
5.97
9.64
14.46
19.66
24.43
27.93
29.63
29.27
26.99
23.12
17.95
11.64
4.24
-4.31
-13.98
-24.76
-36.42
-48.35
-59.65
-69.21
-75.94
-78.95
-77.81
-72.68
-64.3
-53.99
-43.24
-33.3
-25.01
-18.54
-13.47
-9.04
-4.42
1.09
7.56
14.79
22.38
30.09
37.93
46.04
54.45
62.91
70.96
77.92
83.21
86.31
87.12
85.64
82.08
76.61
69.47
60.9
51.1
40.38
28.99
17.36
5.98
-4.59
-14.06
-22.32
-29.51
-35.86
-41.47
-46.32
-50.46
-53.9
-56.83
-59.49
-62.16
-64.86
-67.5
-69.8
-71.52
-72.47
-72.39
-70.95
-67.54
-61.53
-52.2
-39.43
-23.54
-5.66
12.62
29.62
43.92
54.71
61.61
64.96
65.07
62.6
58.07
51.89
44.47
36.27
27.75
19.54
12.31
6.62
2.89
1.25
1.41
2.95
5.32
7.91
10.32
12.02
12.69
12.04
10.01
6.71
2.64
-1.46
-4.86
-6.82
-6.98
-5.43
-2.5
1.32
5.39
9.2
12.26
14.12
14.59
13.55
10.94
6.75
1.07
-5.92
-14.06
-23.05
-32.55
-42.07
-51.25
-59.65
-66.88
-72.36
-75.34
-75.13
-71.35
-64.06
-53.93
-42.25
-30.45
-19.83
-11.2
-4.82
-0.33
2.85
5.34
7.58
9.7
11.74
13.62
15.4
17.16
19.09
21.34
23.87
26.48
28.96
31.2
33.13
34.69
35.73
36.01
35.32
33.64
31.21
28.49
26.02
23.97
22.19
20.24
17.56
13.91
9.43
4.58
-0.29
-4.97
-9.61
-14.53
-19.85
-25.54
-31.16
-36.26
-40.4
-43.54
-45.73
-47.14
-47.96
-48.14
-47.76
-46.87
-45.62
-44.03
-41.85
-38.59
-33.72
-27.03
-18.75
-9.64
-0.7
7.16
13.5
18.25
21.69
24.15
25.87
27.07
27.82
28.17
28.24
28.11
27.85
27.6
27.28
26.89
26.37
25.55
24.38
22.92
21.29
19.56
17.88
16.29
14.88
13.63
12.59
11.79
11.14
10.57
9.8
8.69
7.07
4.87
2
-1.51
-5.62
-10.28
-15.21
-20.08
-24.47
-28.16
-31.13
-33.5
-35.54
-37.33
-38.89
-39.94
-39.96
-38.39
-34.85
-29.24
-21.68
-12.8
-3.22
6.18
14.72
21.83
27.12
30.39
31.65
31.24
29.62
27.54
25.6
24.42
24.35
25.52
28.02
31.71
36.35
41.47
46.6
51.09
54.4
56.25
56.48
55.24
52.75
49.24
44.93
40.25
35.61
31.44
28.19
25.88
24.42
23.57
22.97
22.3
21.38
20.03
18.26
16.3
14.33
12.73
11.76
11.5
11.83
12.45
12.85
12.78
12.21
11.37
10.76
10.84
11.94
14.07
16.9
19.71
21.96
23.11
22.91
21.36
18.5
14.5
9.7
4.51
-0.74
-5.55
-9.6
-12.63
-14.51
-15.37
-15.46
-15.07
-14.58
-14.28
-14.19
-14.33
-14.49
-14.39
-13.92
-13.09
-12.01
-10.88
-9.8
-8.79
-7.88
-7.15
-6.59
-6.51
-7.03
-8.28
-10.23
-12.55
-14.92
-17.27
-19.64
-22.27
-25.47
-29.3
-33.67
-38.36
-43.02
-47.26
-50.88
-53.35
-54.2
-53
-49.52
-43.93
-36.85
-29.03
-21.27
-14.32
-8.47
-3.88
-0.49
1.82
3.21
3.79
3.85
3.66
3.41
3.33
3.46
3.73
4.04
4.27
4.44
4.64
4.84
4.95
4.75
3.98
2.49
0.29
-2.55
-5.77
-9
-11.92
-14.32
-16.08
-17.34
-18.31
-19.32
-20.66
-22.49
-24.87
-27.7
-30.82
-34.02
-37.08
-39.72
-41.7
-42.9
-43.36
-43.38
-43.1
-42.66
-41.94
-40.69
-38.53
-35.36
-31.24
-26.48
-21.61
-16.86
-12.47
-8.48
-4.93
-1.8
0.75
2.71
4.19
5.41
6.87
8.93
11.78
15.32
19.14
22.75
25.83
28.32
30.33
32.2
34.1
36.05
37.91
39.35
40.09
39.92
38.6
35.83
31.39
25.01
16.69
6.77
-4.23
-15.35
-25.59
-34.19
-40.73
-45.19
-47.96
-49.51
-50.29
-50.95
-51.68
-52.71
-54.03
-55.42
-56.33
-56.16
-54.06
-49.55
-42.68
-33.83
-24.01
-14.31
-5.67
1.33
6.59
10.51
13.49
15.92
18.08
19.96
21.57
23.1
24.68
26.51
28.85
31.68
34.88
38.26
41.48
44.15
46.13
47.11
46.79
45.06
41.78
36.88
30.72
23.72
16.63
10.22
4.98
1.05
-1.75
-4.02
-6.35
-9.09
-12.48
-16.35
-20.46
-24.61
-28.83
-33.21
-38.07
-43.57
-49.68
-56.25
-62.77
-68.67
-73.3
-76.18
-76.86
-75.27
-71.55
-66.03
-59.25
-51.7
-43.9
-36.2
-28.79
-21.64
-14.74
-8.07
-1.68
4.28
9.78
14.76
19.23
23.41
27.45
31.6
36.06
41.04
46.71
53.11
59.97
66.85
73.17
78.29
81.85
83.54
83.39
81.45
77.98
73.2
67.34
60.61
53.14
45.02
36.2
26.76
16.67
6.25
-4.29
-14.59
-24.4
-33.52
-41.73
-48.94
-55.06
-60.15
-64.22
-67.4
-69.61
-70.66
-70.29
-68.02
-63.59
-57.07
-48.97
-40.22
-31.95
-25.17
-20.44
-18.17
-18.11
-19.79
-22.59
-25.84
-28.87
-31.04
-31.77
-30.36
-26.47
-19.98
-11.3
-1.25
9.08
18.56
26.42
32.26
36.17
38.41
39.18
38.55
36.55
33.33
29.12
24.29
19.29
14.59
10.63
7.68
5.76
4.59
3.86
3.12
2.1
0.73
-0.91
-2.75
-4.91
-7.77
-11.79
-17.19
-23.82
-31.03
-37.91
-43.56
-47.19
-48.18
-46.24
-41.24
-33.41
-23.21
-11.51
0.64
11.91
21.31
28.42
33.43
37.09
40.32
43.88
48.18
53.2
58.66
64.31
70.11
76.14
82.48
89.08
95.66
101.94
107.57
112.31
116.05
118.73
120.22
120.24
118.42
114.31
107.66
98.55
87.26
74.33
60.36
45.84
31.22
16.88
3.16
-9.55
-20.85
-30.52
-38.47
-44.86
-50.04
-54.41
-58.21
-61.51
-64.07
-65.46
-65.18
-62.85
-58.49
-52.46
-45.55
-38.67
-32.52
-27.6
-23.91
-21.21
-19.19
-17.53
-16.1
-14.85
-13.76
-12.69
-11.42
-9.6
-6.94
-3.47
0.59
4.72
8.47
11.51
13.74
15.28
16.23
16.69
16.73
16.39
15.76
15
14.19
13.33
12.35
11.11
9.71
8.34
7.22
6.57
6.48
6.73
6.94
6.68
5.58
3.67
1.16
-1.5
-3.68
-4.82
-4.49
-2.59
0.66
4.66
8.95
12.94
16.2
18.68
20.55
22.12
23.84
25.89
28.28
30.83
33.12
34.6
35.03
34.35
32.59
30.14
27.19
23.92
20.35
16.29
11.63
6.51
1.2
-3.9
-8.25
-11.7
-14.29
-16.37
-18.46
-20.94
-24.05
-27.88
-32.34
-37.06
-41.76
-45.88
-49.06
-51
-51.58
-50.77
-48.68
-45.37
-40.98
-35.71
-29.75
-23.24
-16.38
-9.32
-2.4
4.1
9.79
14.19
16.96
17.92
17.33
15.5
13.02
10.18
7.33
4.54
1.84
-0.69
-2.98
-4.78
-6
-6.57
-6.65
-6.51
-6.43
-6.65
-7.25
-8.32
-9.95
-12.2
-15.08
-18.42
-21.91
-25.1
-27.64
-29.27
-30.04
-30.19
-30.05
-30.06
-30.51
-31.57
-33.2
-35.26
-37.39
-39.44
-41.14
-42.3
-42.83
-42.54
-41.06
-37.97
-32.91
-25.77
-16.92
-6.92
3.46
13.37
22.14
29.26
34.56
38.11
39.98
40.48
39.92
38.69
37.02
35.19
33.19
31.16
29.28
27.62
26.19
24.87
23.3
21.02
17.8
13.32
7.58
0.93
-6.24
-13.55
-20.57
-27.05
-32.6
-36.91
-39.88
-41.56
-41.98
-41.4
-39.99
-38.06
-35.98
-33.93
-32.25
-31.13
-30.77
-31.23
-32.73
-35.16
-38.4
-41.9
-44.64
-45.37
-42.89
-36.65
-27.01
-15.16
-2.66
8.95
18.68
26.17
31.6
35.39
37.93
39.39
39.88
39.52
38.59
37.29
35.98
34.78
33.79
32.95
32.03
30.88
29.43
27.72
25.75
23.69
21.52
19.32
17.05
14.73
12.39
10.02
7.54
4.88
2.03
-0.99
-4.08
-7.16
-10.11
-12.8
-15.2
-17.21
-18.75
-19.75
-20.37
-21.04
-22.32
-24.61
-28
-32.05
-35.91
-38.51
-38.85
-36.47
-31.37
-24.14
-15.78
-7.34
0.36
6.83
11.91
15.75
18.63
20.89
22.76
24.21
25.21
25.69
25.6
24.98
23.92
22.73
21.64
20.86
20.47
20.55
21.13
22.27
23.86
25.58
27.09
27.86
27.62
26.24
23.92
20.86
17.39
13.61
9.43
4.91
0.12
-4.67
-9.18
-13.32
-17.31
-21.5
-26.17
-31.44
-36.95
-42.09
-46.1
-48.27
-48.06
-45.16
-39.55
-31.48
-21.54
-10.73
-0.18
8.83
15.52
19.51
21.23
21.52
21.41
21.64
22.74
24.83
27.83
31.92
37.04
43.29
50.56
58.45
66.32
73.48
79.35
83.54
86.02
86.71
85.56
82.58
77.79
71.3
63.29
54.12
44.11
33.69
23.25
13.18
3.98
-4.06
-10.7
-16.01
-20.11
-23.36
-26.11
-28.76
-31.58
-34.75
-38.31
-41.9
-44.96
-46.61
-46.07
-42.79
-36.91
-29.07
-20.45
-12.49
-6.17
-2.01
0.13
0.62
0.01
-1.35
-3.28
-5.48
-7.78
-9.84
-11.5
-12.66
-13.47
-13.97
-14.25
-14.26
-13.98
-13.45
-12.8
-12.33
-12.29
-12.74
-13.6
-14.72
-15.91
-17.11
-18.43
-19.92
-21.7
-23.77
-25.97
-28.19
-30.21
-31.85
-32.8
-33.08
-32.77
-32.26
-32
-32.41
-33.64
-35.49
-37.38
-38.4
-37.82
-35.07
-30.2
-23.53
-15.67
-7.43
0.44
7.46
13.42
18.26
22.09
24.81
26.39
26.78
26.01
24.31
22.13
19.99
18.49
17.85
18.02
18.66
19.38
19.89
19.96
19.48
18.32
16.46
13.76
9.88
4.5
-2.5
-11.14
-21.01
-31.54
-41.97
-51.41
-59.07
-64.43
-67.34
-67.84
-66.43
-63.7
-60.24
-56.37
-52.15
-47.13
-40.8
-32.76
-22.95
-11.69
0.31
12.21
23.18
32.56
40.01
45.29
48.39
49.3
48.17
45.34
41.35
36.81
32.52
29.06
26.7
25.29
24.21
22.53
19.17
13.42
4.99
-5.67
-17.52
-29.28
-39.59
-47.38
-52.09
-53.67
-52.46
-49.03
-44.04
-38.14
-32.03
-26.45
-22.08
-19.46
-18.79
-20.01
-22.71
-26.43
-30.8
-35.51
-40.22
-44.43
-47.24
-47.55
-44.59
-38.06
-28.43
-16.71
-4.17
7.89
18.65
27.63
34.78
40.05
43.61
45.5
45.84
44.84
42.55
39.23
35.31
31.4
28.05
25.78
24.69
24.67
25.41
26.34
26.92
26.77
25.67
23.58
20.67
17.05
12.94
8.61
4.31
0.3
-3.3
-6.41
-8.99
-11.17
-13.14
-15.2
-17.5
-20.37
-23.92
-28.32
-33.59
-39.36
-45.02
-49.62
-52.09
-51.4
-47.23
-39.83
-30.14
-19.45
-8.96
0.41
8.3
14.74
20.13
24.62
28.49
31.75
34.48
36.75
38.7
40.56
42.48
44.53
46.49
48.23
49.46
49.9
49.44
47.95
45.33
41.52
36.42
30.18
23.08
15.71
8.54
2.15
-3.06
-6.96
-9.75
-11.73
-13.25
-14.56
-15.73
-16.81
-17.75
-18.63
-19.53
-20.86
-23.02
-26.28
-30.71
-35.89
-40.94
-44.69
-46.06
-44.13
-38.63
-29.97
-19.17
-7.6
3.38
12.71
19.72
24.29
26.7
27.62
27.87
28.03
28.53
29.58
31.23
33.35
35.91
38.75
41.48
43.84
45.41
45.93
45.41
44.09
42.27
40.27
38.3
36.18
33.93
31.52
29.07
26.78
24.68
22.56
20.04
16.73
12.18
6.47
-0.23
-7.46
-14.72
-21.62
-27.74
-32.86
-36.67
-39.32
-40.93
-41.9
-42.61
-42.98
-42.61
-40.78
-36.82
-30.23
-21.37
-11.08
-0.65
8.55
15.77
20.73
23.74
25.44
26.39
26.96
27.33
27.52
27.46
27.3
27.06
26.92
27.1
27.64
28.54
29.65
30.91
31.94
32.57
32.61
32.01
30.81
28.95
26.41
23.07
19.14
14.73
10.25
6.02
2.15
-1.34
-4.66
-7.91
-11.05
-13.93
-16.37
-18.16
-19.28
-20.08
-20.88
-22.16
-24.18
-27.07
-30.73
-34.77
-38.44
-40.79
-40.92
-38.04
-31.97
-23.08
-12.34
-1
9.68
18.74
25.75
30.57
33.5
34.88
35.17
34.83
34.31
33.92
33.85
34.14
34.65
35.24
35.65
35.75
35.56
35.27
35.06
34.99
35.01
34.83
34.12
32.47
29.67
25.7
20.77
15.22
9.4
3.68
-1.82
-7.05
-12.16
-17.21
-22.23
-27.09
-31.6
-35.56
-38.81
-41.36
-43.34
-45.05
-46.74
-48.64
-50.64
-52.23
-52.62
-50.73
-45.91
-37.87
-27.12
-14.75
-2.32
8.86
17.86
24.37
28.59
30.88
31.77
31.59
30.69
29.18
27.41
25.65
24.17
23.23
22.94
23.41
24.34
25.45
26.22
26.42
25.85
24.53
22.69
20.35
17.61
14.35
10.56
6.31
1.82
-2.58
-6.7
-10.25
-13.23
-15.63
-17.6
-19.34
-20.95
-22.76
-24.79
-27.25
-30.09
-33.3
-36.64
-39.8
-42.15
-42.85
-41.17
-36.46
-28.81
-18.85
-7.65
3.67
14.11
22.96
29.96
34.91
37.77
38.65
37.78
35.66
32.87
30.05
27.49
25.39
23.81
22.75
22.28
22.42
23
23.71
24.32
24.55
24.29
23.46
22.05
19.92
16.96
13.1
8.44
3.35
-1.55
-5.8
-9.02
-11.14
-12.51
-13.68
-15.11
-17.19
-19.86
-22.76
-25.52
-27.79
-29.57
-31.03
-32.46
-34.26
-36.65
-39.7
-43.28
-46.88
-49.76
-51.19
-50.41
-47.08
-41.29
-33.67
-24.98
-16.13
-7.75
-0.26
6.12
11.4
15.65
19.08
21.86
24.21
26.2
27.86
29.21
30.24
31.02
31.78
32.49
33.15
33.66
33.74
33.28
32.25
30.61
28.35
25.57
22.2
18.36
14.36
10.47
7.03
4.16
1.73
-0.43
-2.57
-4.86
-7.27
-9.64
-11.85
-13.89
-16.01
-18.48
-21.6
-25.43
-29.97
-35
-40.21
-45.18
-49.17
-51.34
-50.84
-47.14
-40.22
-30.8
-20.1
-9.57
-0.37
6.88
12.16
15.78
18.35
20.35
22.29
24.43
26.87
29.73
33.06
36.8
40.67
44.4
47.46
49.59
50.63
50.95
51.24
52.37
54.91
58.81
63.38
67.53
70.16
70.72
69.35
66.52
62.94
58.98
54.64
49.63
43.6
36.29
27.79
18.41
8.49
-1.53
-11.2
-20.19
-28.25
-35.23
-41.24
-46.39
-50.75
-54.29
-56.67
-57.33
-55.79
-51.91
-45.96
-38.67
-30.92
-23.58
-17.2
-11.84
-7.35
-3.51
-0.23
2.29
3.91
4.54
4.25
3.31
2.24
1.46
1.16
1.44
2.15
3.29
4.96
7.32
10.45
14.29
18.44
22.27
25.1
26.4
25.9
23.77
20.45
16.51
12.48
8.75
5.5
2.67
0.08
-2.57
-5.6
-9.13
-13.17
-17.61
-22.14
-26.49
-30.63
-34.8
-39.36
-44.72
-50.93
-57.65
-64.26
-69.75
-73.04
-73.3
-70.09
-63.44
-53.95
-42.67
-30.85
-19.8
-10.52
-3.62
0.79
3.17
4.22
4.8
5.68
7.34
10
13.63
18.02
22.87
27.92
32.83
37.33
41.23
44.24
46.16
46.71
45.83
43.53
40.05
35.65
30.79
25.9
21.48
17.79
14.95
13.07
11.99
11.58
11.48
11.32
10.73
9.26
6.59
2.43
-3.08
-9.56
-16.36
-22.87
-28.72
-33.82
-38.36
-42.51
-46.46
-50.12
-53.23
-55.72
-57.51
-58.59
-58.85
-57.91
-55.16
-50.19
-42.9
-33.62
-23.28
-12.86
-3.28
4.96
11.63
16.77
20.49
22.89
24.15
24.42
24.03
23.16
22.19
21.21
20.36
19.66
19.2
18.97
19.02
19.35
19.77
20.08
20.08
19.63
18.65
17.25
15.52
13.62
11.71
9.86
8
6
3.75
1.16
-1.83
-5.05
-8.29
-11.43
-14.52
-17.76
-21.39
-25.56
-30.06
-34.67
-38.95
-42.44
-44.99
-46.71
-47.85
-48.81
-49.96
-51.44
-53.18
-54.91
-56.14
-56.24
-54.69
-51.1
-45.37
-37.82
-29.12
-20.15
-11.69
-4.36
1.63
6.35
10.02
12.76
14.71
15.92
16.58
16.95
17.47
18.49
20.1
22.3
24.74
27.11
29.16
30.81
31.92
32.38
32.21
31.13
29.18
26.49
23.37
20.15
17.14
14.3
11.45
8.45
5.07
1.37
-2.45
-6.13
-9.4
-12.1
-14.42
-16.53
-18.67
-21.02
-23.53
-26.11
-28.68
-31.17
-33.62
-36.25
-39.18
-42.37
-45.73
-48.87
-51.31
-52.62
-52.25
-49.74
-44.85
-37.66
-28.65
-18.79
-9.28
-1.14
4.85
8.56
10.42
11.04
11.16
11.27
11.51
11.86
12.28
12.59
12.69
12.6
12.42
12.23
12.18
12.21
12.35
12.63
13.06
13.65
14.55
15.69
16.9
17.96
18.56
18.59
18.08
17.1
15.97
15.11
14.52
14.3
14.23
13.8
12.65
10.43
7.03
2.74
-1.96
-6.83
-11.48
-15.76
-19.72
-23.45
-27.03
-30.58
-34.09
-37.5
-40.86
-43.83
-46.01
-46.75
-45.33
-41.39
-35.06
-26.9
-17.87
-9.02
-1.01
5.6
10.59
13.96
15.68
15.96
15.19
13.98
12.94
12.61
13.29
15
17.54
20.5
23.5
26.2
28.33
29.75
30.44
30.35
29.57
28.25
26.45
24.33
21.92
19.07
15.79
12.23
8.61
5.18
2.22
-0.33
-2.74
-5.45
-8.88
-13.27
-18.47
-24.04
-29.5
-34.36
-38.37
-41.55
-44.15
-46.38
-48.61
-51
-53.56
-55.99
-57.89
-58.62
-57.56
-54.33
-48.79
-41.4
-32.79
-23.91
-15.44
-7.97
-1.84
2.83
6.04
7.94
8.61
8.39
7.44
6.16
4.82
3.61
2.76
2.45
3.02
4.74
7.72
11.67
16.11
20.54
24.47
27.74
30.31
32.26
33.7
34.81
35.72
36.65
37.93
39.6
41.65
43.65
44.96
44.94
43.21
39.7
34.69
28.67
22
15.12
8.06
0.77
-6.88
-14.98
-23.59
-32.38
-40.93
-48.45
-53.92
-56.56
-55.85
-51.67
-44.44
-34.99
-24.27
-13.3
-3.01
5.96
13.25
18.75
22.74
25.39
26.85
27.18
26.46
24.89
22.92
20.96
19.49
18.73
18.57
18.89
19.54
20.48
21.81
23.53
25.33
26.76
27.11
25.75
22.35
17.01
9.8
1.03
-8.93
-19.6
-30.43
-40.76
-50.03
-57.82
-63.71
-67.8
-70.21
-71.15
-70.86
-69.6
-67.5
-64.56
-60.53
-55
-47.66
-38.38
-27.42
-15.49
-3.51
7.36
16.32
22.89
27.1
29.32
30.07
29.77
28.6
26.9
24.9
23.01
21.58
20.92
21.07
21.99
23.39
24.75
25.76
26.17
25.88
25.05
24.12
23.43
23.41
24.2
25.77
27.89
30.24
32.44
34.14
35.05
34.99
33.94
31.91
29.15
25.91
22.54
19.31
16.22
13.09
9.73
6.15
2.72
0.17
-0.53
1.5
6.57
14.26
23.57
33.24
42.11
49.44
54.9
58.51
60.41
60.8
59.72
57.37
54.04
50.15
46.28
42.86
40.23
38.49
37.67
37.46
37.49
37.17
35.92
33.35
29.36
24.25
18.47
12.62
7.11
2.18
-2.3
-6.48
-10.56
-14.45
-17.98
-20.99
-23.48
-25.62
-27.64
-29.9
-32.54
-35.5
-38.56
-41.39
-43.6
-44.74
-44.28
-41.77
-37.13
-30.7
-23.17
-15.64
-9.01
-3.87
-0.2
2.33
4.23
5.83
7.25
8.35
8.9
8.82
8.16
7.2
6.07
4.83
3.41
1.75
-0.17
-2.25
-4.16
-5.52
-6.01
-5.55
-4.41
-2.99
-1.75
-1.12
-1.23
-2.01
-3.21
-4.61
-5.99
-7.43
-9.01
-10.81
-12.85
-14.84
-16.52
-17.51
-17.57
-16.61
-14.73
-12.15
-9.27
-6.65
-4.76
-4.14
-5
-7.22
-10.27
-13.53
-16.33
-18.49
-20.3
-22.27
-25.08
-29.04
-34.01
-39.39
-44.35
-48
-49.84
-49.71
-47.68
-44.14
-39.48
-34.04
-28.29
-22.69
-17.67
-13.65
-10.87
-9.19
-8.46
-8.29
-8.3
-8.27
-8.01
-7.49
-6.75
-5.87
-4.87
-3.97
-3.27
-2.99
-3.32
-4.31
-5.91
-8.01
-10.28
-12.46
-14.4
-16.04
-17.53
-19.13
-20.96
-23.07
-25.47
-28.01
-30.75
-33.72
-37.12
-41
-45.42
-50.13
-54.66
-58.25
-59.87
-58.61
-53.87
-45.62
-34.48
-21.78
-8.81
3.19
13.59
22.45
29.95
36.42
42.09
46.95
50.91
53.92
56.08
57.57
58.7
59.61
60.34
60.8
60.86
60.45
59.58
58.49
57.37
56.35
55.44
54.56
53.62
52.68
51.97
51.7
52.15
53.34
55.05
56.9
58.33
58.74
57.56
54.51
49.56
42.97
35.17
26.66
17.81
8.84
-0.23
-9.45
-18.79
-28.14
-37.42
-46.52
-55.17
-62.95
-69.28
-73.49
-75.17
-74.32
-71.37
-66.86
-61.45
-55.6
-49.63
-43.9
-38.78
-34.76
-32.35
-31.71
-32.54
-34.01
-35.01
-34.35
-31.15
-24.99
-16
-4.77
7.77
20.76
33.24
44.41
53.57
60.27
64.39
66.16
66.16
65.07
63.53
61.86
60.31
58.98
57.87
57.03
56.4
55.65
54.35
51.8
47.48
41.29
33.51
24.69
15.38
5.98
-3.44
-12.85
-22.1
-30.85
-38.49
-44.1
-46.99
-46.74
-43.46
-37.84
-30.83
-23.34
-16.13
-9.48
-3.37
2.32
7.72
12.69
16.85
19.83
21.51
21.88
21.27
19.97
18.22
16.24
14.15
11.96
9.75
7.66
5.73
4.13
2.81
1.74
0.99
0.49
0.11
-0.2
-0.57
-0.99
-1.4
-1.65
-1.85
-2.01
-2.28
-2.85
-3.75
-5.05
-6.68
-8.68
-10.96
-13.63
-16.9
-20.9
-25.71
-31.24
-37.32
-43.68
-50.13
-56.51
-62.73
-68.58
-73.64
-77.14
-78.22
-76.22
-71
-62.95
-53.05
-42.41
-31.96
-22.24
-13.44
-5.52
1.51
7.53
12.44
16.15
18.82
20.56
21.73
22.55
23.12
23.58
23.95
24.3
24.74
25.37
26.13
27.04
27.88
28.34
28.21
27.42
26.16
24.82
23.77
23.28
23.31
23.47
23.29
22.24
20.09
16.81
12.69
8.05
3.25
-1.58
-6.34
-11.04
-15.55
-19.68
-23.14
-25.65
-27.06
-27.45
-27.22
-26.8
-26.68
-27.14
-28.46
-30.6
-33.39
-36.33
-38.67
-39.57
-38.22
-34.08
-27.13
-17.82
-6.94
4.53
15.81
26.34
35.87
44.29
51.62
57.78
62.86
66.92
70.1
72.55
74.22
75.06
74.96
73.88
71.93
69.42
66.71
64.05
61.69
59.69
58.04
56.64
55.35
53.89
51.96
49.21
45.25
40.03
33.6
26.32
18.42
10.27
1.97
-6.38
-14.69
-22.84
-30.4
-36.96
-42.01
-45.39
-46.98
-46.93
-45.5
-43.02
-39.85
-36.27
-32.52
-28.91
-25.88
-23.74
-22.77
-22.92
-23.8
-24.72
-24.95
-23.94
-21.5
-17.79
-13.23
-8.36
-3.64
0.75
4.75
8.34
11.43
14
15.93
17.21
17.66
17.23
16.01
14.21
12.16
10.24
8.81
8
8.03
8.71
9.97
11.67
13.3
14.42
14.48
13.22
10.53
6.91
2.85
-1.05
-4.37
-7.1
-9.32
-11.1
-12.44
-13.32
-13.52
-12.94
-11.62
-9.69
-7.56
-5.42
-3.41
-1.52
0.29
2.05
3.76
5.3
6.68
7.78
8.76
9.73
10.91
12.52
14.8
18.07
22.63
28.8
36.55
45.54
54.85
63.15
69.07
71.43
69.55
63.21
52.75
38.78
22.34
4.65
-12.98
-29.18
-43.03
-53.93
-61.82
-66.9
-69.54
-70
-68.59
-65.52
-61.32
-56.76
-52.7
-49.97
-48.89
-49.44
-51.14
-53.32
-55.15
-56.04
-55.53
-53.4
-49.73
-44.95
-39.76
-35.03
-31.54
-29.61
-29.23
-29.84
-30.77
-31.04
-29.97
-26.99
-22.03
-15.54
-8.3
-1.47
3.94
7.15
7.8
6.02
2.29
-2.72
-8.25
-13.53
-17.88
-20.76
-21.82
-21.22
-19.4
-16.96
-14.43
-12.13
-9.99
-7.91
-5.78
-3.6
-1.59
0.04
1.15
1.99
2.9
4.23
6.04
8.04
9.86
11.14
11.9
12.27
12.55
12.99
13.69
14.54
15.46
16.48
17.57
18.9
20.4
21.91
23.15
23.96
24.12
23.34
21.48
18.3
13.78
7.98
1.27
-6.18
-14
-21.9
-29.64
-36.82
-43.1
-48.03
-51.33
-52.68
-51.89
-48.86
-43.41
-35.58
-25.54
-13.9
-1.37
11.03
22.45
32.23
39.92
45.4
48.61
49.85
49.28
47.34
44.41
40.9
37.24
33.86
31.12
28.96
27.38
26.12
24.85
23.33
21.3
18.63
15.29
11.34
6.7
1.47
-4.06
-9.54
-14.41
-18.24
-20.67
-21.63
-21.31
-20.13
-18.65
-17.41
-16.85
-17.1
-18.16
-19.87
-22.06
-24.55
-27.02
-29.2
-30.92
-32.14
-33.02
-33.89
-34.99
-36.32
-37.43
-37.46
-35.62
-31.44
-25.08
-17.18
-8.7
-0.57
6.63
12.65
17.57
21.39
24.17
25.87
26.49
26.06
24.83
23.17
21.54
20.42
19.9
19.94
20.31
20.72
20.86
20.73
20.35
19.77
18.94
17.63
15.7
13.03
9.72
5.96
2.03
-1.8
-5.35
-8.55
-11.34
-13.91
-16.51
-19.4
-22.64
-26.1
-29.39
-32.21
-34.26
-35.36
-35.57
-35.09
-34.28
-33.48
-32.97
-32.74
-32.61
-31.98
-30.24
-26.96
-22.09
-15.99
-9.29
-2.67
3.42
8.69
13.17
16.92
19.91
22.08
23.4
23.74
23.17
21.9
20.22
18.44
16.75
15.13
13.62
12.14
10.8
9.81
9.39
9.5
10.09
10.86
11.58
12.16
12.51
12.63
12.54
12.32
12.01
11.74
11.47
11.15
10.6
9.46
7.43
4.52
0.86
-3.29
-7.62
-11.89
-16.04
-20
-23.8
-27.53
-31.18
-34.86
-38.71
-42.72
-46.68
-50.15
-52.34
-52.27
-49.1
-42.39
-32.49
-20.24
-6.94
6.08
17.77
27.58
35.44
41.59
46.34
49.76
52.01
53.13
53.21
52.38
50.95
49.26
47.52
45.87
44.3
42.89
41.69
40.77
39.99
39.24
38.12
36.3
33.49
29.67
24.95
19.49
13.57
7.44
1.41
-4.15
-8.92
-12.56
-15.05
-16.6
-17.69
-18.78
-20.06
-21.59
-23.13
-24.47
-25.34
-25.76
-25.87
-26.05
-26.53
-27.53
-29.18
-31.24
-33.34
-34.74
-34.67
-32.49
-28.05
-21.52
-13.58
-5.11
3.13
10.45
16.46
20.96
23.8
25.13
25.15
24.24
22.69
20.97
19.32
18.04
17.38
17.42
18.25
19.8
21.99
24.56
27.34
29.87
31.87
33.03
33.09
31.9
29.6
26.36
22.49
18.39
14.2
10.14
6.24
2.39
-1.5
-5.32
-9.04
-12.51
-15.63
-18.49
-21.42
-24.62
-28.45
-32.91
-37.79
-42.83
-47.66
-51.87
-54.93
-56.32
-55.31
-51.43
-44.54
-35.1
-24.16
-12.97
-2.59
6.3
13.64
19.65
24.6
28.66
31.78
33.85
34.94
35.36
35.5
35.79
36.49
37.55
38.74
39.8
40.4
40.37
39.57
37.89
35.13
31.27
26.34
20.47
14.06
7.46
1.04
-4.94
-10.26
-14.99
-19.12
-22.74
-25.98
-29.04
-32.1
-35.51
-39.5
-44.17
-49.55
-55.3
-60.96
-66.14
-70.56
-74.16
-77
-79.11
-80.39
-80.44
-78.76
-74.8
-68.42
-59.78
-49.48
-38.41
-27.42
-17.22
-8.12
-0.03
7.35
14.29
20.96
27.24
32.9
37.82
41.92
45.27
48.36
51.68
55.93
61.87
69.98
80.43
92.85
106.33
119.44
130.72
139.09
144.15
146.43
146.99
146.99
147.01
146.61
144.16
137.45
124.31
103.66
75.95
42.91
7.42
-27.54
-59.33
-86.14
-106.91
-121.39
-129.84
-132.97
-132.13
-128.52
-123.32
-117.31
-110.69
-103.25
-94.46
-83.96
-71.68
-58.15
-44.07
-30.4
-18.03
-7.52
0.81
7
11.31
14.08
15.69
16.65
17.23
17.65
18.18
18.71
19.16
19.58
19.96
20.4
21.08
21.93
22.8
23.7
24.35
24.69
24.74
24.58
24.37
24.26
24.08
23.47
22.02
19.23
14.92
9.13
2.25
-5.27
-12.97
-20.67
-28.27
-35.63
-42.55
-48.41
-52.58
-54.45
-53.62
-50.14
-44.45
-37.29
-29.48
-21.83
-14.73
-8.34
-2.66
2.33
6.7
10.36
13.28
15.45
16.8
17.54
17.85
17.91
17.78
17.52
17.05
16.41
15.56
14.53
13.4
12.37
11.56
11.03
10.65
10.21
9.43
8.05
5.97
3.21
0.03
-3.29
-6.41
-9.16
-11.45
-13.35
-15.01
-16.74
-18.76
-21.33
-24.56
-28.32
-32.4
-36.37
-39.68
-41.63
-41.66
-39.26
-34.47
-27.74
-19.84
-11.68
-4.09
2.52
8.05
12.7
16.77
20.36
23.37
25.75
27.35
28.16
28.37
28.13
27.6
26.87
25.93
24.65
23.14
21.38
19.46
17.44
15.27
12.77
9.81
6.28
2.2
-2.2
-6.62
-10.79
-14.48
-17.64
-20.39
-22.88
-25.31
-27.79
-30.22
-32.5
-34.36
-35.25
-34.79
-32.65
-28.74
-23.33
-16.91
-10.03
-3.39
2.44
7.36
11.33
14.6
17.55
20.39
23.16
25.69
27.59
28.52
28.29
27.03
25.11
23.04
21.29
20.08
19.62
19.7
20.16
20.72
21.27
21.82
22.36
22.82
23.01
22.72
21.6
19.55
16.47
12.51
7.94
3.1
-1.82
-6.62
-11.24
-15.69
-19.8
-23.51
-26.6
-28.85
-30.12
-30.24
-29.17
-26.86
-23.28
-18.34
-12.25
-5.48
1.41
7.61
12.67
16.3
18.58
19.8
20.46
20.81
21.08
21.44
21.87
22.54
23.34
24.19
25.03
25.83
26.65
27.52
28.56
29.53
30.35
30.76
30.57
29.82
28.44
26.52
24.07
21.24
18.08
14.95
12.13
9.9
8.36
7.38
6.82
6.44
6.11
5.58
4.88
4.04
3.06
1.93
0.39
-1.89
-5.25
-9.97
-15.87
-22.3
-28.22
-32.45
-34.04
-32.61
-28.4
-22.13
-14.79
-7.14
0.23
7.07
13.43
19.38
24.97
30.26
35.2
39.84
44.21
48.14
51.38
53.65
54.59
53.96
51.7
48.12
43.61
38.65
33.51
28.18
22.62
16.68
10.31
3.46
-3.82
-11.36
-18.94
-26.21
-32.74
-38.1
-42.03
-44.4
-45.42
-45.63
-45.49
-45.43
-45.6
-45.96
-46.37
-46.79
-47.19
-47.81
-48.97
-50.78
-53.18
-55.8
-58.08
-59.27
-58.55
-55.17
-48.7
-39.3
-27.49
-14.38
-1.14
11.2
21.82
30.43
37.04
41.86
45.07
46.93
47.54
47.09
45.88
44.14
42.06
39.8
37.4
34.89
32.47
30.12
28.03
26.32
25.01
23.92
22.86
21.55
19.8
17.59
14.86
11.68
8.14
4.22
-0.02
-4.58
-9.31
-14.1
-18.81
-23.41
-27.79
-31.87
-35.54
-38.68
-41.19
-43.16
-44.84
-46.5
-48.55
-51.01
-53.64
-55.95
-57.18
-56.52
-53.57
-48.42
-41.59
-34.09
-26.77
-20.22
-14.64
-9.81
-5.31
-0.97
3.2
6.88
9.81
11.92
13.47
14.99
17
19.66
22.71
25.84
28.61
30.87
32.65
34
35
35.66
35.63
34.53
32.17
28.65
24.21
19.43
14.61
9.98
5.62
1.3
-3.14
-7.76
-12.51
-17.29
-21.94
-26.47
-30.86
-34.92
-38.55
-41.56
-43.98
-46.02
-47.91
-49.64
-50.93
-51.32
-50.18
-47.16
-42.16
-35.52
-27.98
-20.2
-12.7
-5.8
0.47
6.21
11.37
15.93
19.64
22.28
23.83
24.61
25.06
25.86
27.35
29.53
32.12
34.6
36.49
37.59
38.01
37.79
37.04
35.69
33.51
30.48
26.77
22.74
18.99
15.91
13.51
11.45
9.25
6.46
2.95
-1.21
-5.62
-9.87
-13.5
-16.34
-18.35
-19.62
-20.42
-20.93
-21.47
-22.09
-22.75
-23.15
-22.91
-21.51
-18.66
-14.32
-8.81
-2.79
2.97
7.86
11.39
13.38
14.06
13.67
12.54
10.91
8.95
6.64
4.06
1.46
-1.02
-3.05
-4.37
-4.94
-4.79
-3.99
-2.79
-1.33
0.41
2.29
4.25
6.08
7.47
8.22
8.15
7.11
5.05
2.13
-1.53
-5.54
-9.7
-13.78
-17.48
-20.62
-23.13
-25.01
-26.28
-27.19
-27.83
-28.52
-29.54
-31.03
-33.09
-35.64
-38.26
-40.4
-41.38
-40.39
-37.03
-31.26
-23.49
-14.67
-5.78
2.43
9.38
14.76
18.59
20.9
21.81
21.53
20.16
18.17
16.05
14.37
13.47
13.56
14.61
16.33
18.42
20.45
22.18
23.32
23.66
23.07
21.42
18.69
15.14
11.28
7.6
4.72
2.82
1.85
1.64
1.69
1.6
1.06
-0.06
-1.84
-4.2
-7.09
-10.32
-13.67
-17.1
-20.5
-23.82
-27.06
-30.08
-32.63
-34.27
-34.45
-32.68
-28.82
-23.06
-16.02
-8.63
-1.77
3.96
8.44
11.95
14.96
17.82
20.65
23.21
25.1
25.92
25.49
23.76
20.91
17.18
12.81
8.18
3.58
-0.53
-3.78
-5.95
-7.2
-7.64
-7.66
-7.63
-7.78
-8.23
-8.88
-9.65
-10.54
-11.74
-13.32
-15.46
-18.1
-21.01
-23.77
-26
-27.33
-27.82
-27.68
-27.16
-26.61
-26.34
-26.62
-27.63
-29.54
-32.11
-34.72
-36.56
-36.57
-34.11
-29.03
-21.82
-13.5
-5.26
1.87
7.52
11.73
15.01
17.83
20.64
23.48
26.06
28.08
29.28
29.81
29.9
30
30.27
30.86
31.71
32.64
33.53
34.26
34.71
34.65
33.94
32.41
30.04
26.97
23.34
19.45
15.57
12.06
9.1
6.82
5.21
4.02
2.96
1.59
-0.28
-2.8
-5.82
-9.24
-12.88
-16.56
-20.21
-23.6
-26.59
-29.16
-31.28
-32.96
-34.17
-34.69
-34.1
-31.96
-28
-22.27
-15.32
-7.82
-0.47
6.23
12.05
17.02
21.43
25.47
29.52
33.53
37.45
40.91
43.65
45.37
45.97
45.51
44.17
42.21
39.82
37.25
34.69
32.53
30.95
29.9
29.23
28.7
28.08
27.2
25.96
24.35
22.39
20.28
18.23
16.42
14.99
14
13.18
12.16
10.56
8.02
4.61
0.68
-3.38
-7.13
-10.24
-12.66
-14.66
-16.59
-18.9
-21.89
-25.65
-30.03
-34.59
-38.63
-41.3
-42.07
-40.84
-38.04
-34.67
-31.83
-30.38
-30.58
-32.09
-34.22
-36.04
-36.88
-36.27
-33.93
-29.75
-23.7
-15.91
-6.71
3.3
13.55
23.47
32.71
41.01
48.33
54.47
59.12
61.97
62.85
61.7
58.73
54.4
49.17
43.66
38.28
33.23
28.6
24.55
21.12
18.39
16.31
14.81
13.52
12.09
10.03
7.01
2.94
-2.15
-7.95
-14.06
-20.12
-25.96
-31.45
-36.65
-41.52
-45.93
-49.67
-52.37
-53.61
-53.08
-50.48
-45.7
-38.97
-30.75
-21.81
-13.02
-5.04
1.71
7.11
11.21
14.27
16.49
18.13
19.44
20.63
21.8
23
24.16
25.12
25.75
25.87
25.38
24.33
22.71
20.66
18.43
16.09
13.73
11.3
8.57
5.46
2.01
-1.54
-4.85
-7.5
-9.24
-10.14
-10.51
-10.76
-11.42
-12.82
-15.12
-18.3
-22.1
-25.98
-29.56
-32.35
-34.09
-34.88
-35.02
-34.98
-35.19
-35.96
-37.2
-38.7
-39.95
-40.43
-39.63
-37.13
-32.8
-26.73
-19.48
-11.66
-4.13
2.57
8.09
12.41
15.79
18.38
20.22
21.3
21.69
21.55
21.23
21.07
21.28
21.99
23.08
24.28
25.33
26.05
26.34
26.17
25.66
24.79
23.72
22.51
21.04
19.27
17.05
14.35
11.18
7.63
3.81
-0.1
-3.92
-7.59
-11.06
-14.31
-17.3
-19.97
-22.11
-23.53
-24.12
-23.79
-22.82
-21.6
-20.56
-20.13
-20.49
-21.58
-22.92
-23.83
-23.47
-21.34
-17.2
-11.34
-4.58
2.26
8.28
13.05
16.42
18.56
19.69
20.09
19.84
19.07
17.92
16.52
15.03
13.58
12.3
11.21
10.42
9.82
9.42
9.24
9.22
9.2
9.2
9.1
8.84
8.36
7.55
6.42
5.05
3.47
1.65
-0.39
-2.79
-5.49
-8.43
-11.44
-14.22
-16.6
-18.59
-20.21
-21.54
-22.72
-23.73
-24.69
-25.77
-27.12
-28.83
-30.8
-32.52
-33.27
-32.35
-29.21
-23.86
-16.87
-9
-1.06
6.25
12.68
18.16
22.73
26.54
29.51
31.54
32.56
32.58
31.92
31.15
30.81
31.25
32.64
34.6
36.63
38.23
38.87
38.34
36.46
33.04
27.7
20.19
10.34
-1.71
-15.48
-30.28
-45.07
-58.62
-69.6
-76.9
-79.77
-78.14
-72.84
-65.11
-56.61
-48.64
-42.17
-37.72
-35.6
-35.96
-39.04
-44.84
-52.88
-62.35
-71.94
-80.31
-86.28
-89.03
-88.03
-83.22
-74.82
-63.28
-49.48
-34.46
-19.32
-5.04
7.72
18.71
27.96
35.65
41.98
47.11
51.06
53.95
55.84
56.84
57.17
57.1
56.78
56.36
55.89
55.33
54.65
53.61
52.13
50.11
47.52
44.27
40.41
36.06
31.48
26.92
22.62
18.7
15.25
12.11
9.08
5.98
2.74
-0.65
-4.06
-7.27
-10.22
-12.8
-15.17
-17.55
-20.22
-23.45
-27.45
-31.96
-36.41
-39.88
-41.3
-39.85
-35.21
-27.77
-18.47
-8.63
0.66
8.49
14.43
18.45
20.74
21.67
21.58
20.86
19.8
18.79
18.1
17.93
18.39
19.47
21
22.7
24.25
25.28
25.66
25.36
24.51
23.2
21.57
19.69
17.59
15.3
12.79
10.05
7.15
4
0.65
-2.89
-6.47
-9.93
-13.15
-16.1
-18.85
-21.35
-23.78
-25.91
-27.78
-29.38
-30.77
-32.21
-33.87
-35.86
-37.79
-39.22
-39.19
-37.03
-32.35
-25.13
-15.9
-5.55
4.78
14.15
21.66
26.97
29.94
30.79
30.11
28.47
26.42
24.43
22.84
21.83
21.56
22.06
23.18
24.99
27.11
29.3
31.26
32.64
33.19
32.71
31.18
28.59
25.28
21.49
17.67
14.31
11.66
9.87
8.75
8.09
7.48
6.62
5.18
3.06
0.36
-2.77
-5.87
-8.73
-11.17
-13.3
-15.45
-17.98
-21.06
-24.53
-27.98
-30.62
-31.84
-31.02
-27.94
-22.84
-16.32
-9.11
-2.05
4.29
9.52
13.65
16.87
19.48
21.74
23.87
25.99
28.14
30.21
32.04
33.52
34.42
34.64
34.05
32.79
31.04
29.05
27.14
25.51
24.23
23.2
22.1
20.7
18.9
16.57
13.8
10.91
7.99
5.23
2.72
0.34
-1.98
-4.37
-6.88
-9.49
-11.97
-14.31
-16.48
-18.58
-20.9
-23.72
-27.25
-31.33
-35.58
-39.24
-41.61
-41.92
-39.84
-35.47
-29.25
-22.11
-14.87
-8.24
-2.59
2.07
6.11
9.88
13.58
17.31
20.77
23.59
25.44
26.12
25.64
24.23
22.3
20.13
18.13
16.53
15.38
14.78
14.62
14.74
14.78
14.54
13.77
12.6
11.29
10.19
9.5
9.05
8.52
7.38
5.4
2.56
-0.77
-4.07
-6.9
-9.28
-11.48
-14
-17.33
-21.46
-25.98
-29.88
-31.91
-30.88
-26.12
-17.74
-6.51
6.41
19.77
32.52
44.04
53.96
62.22
69.02
74.68
79.48
83.04
84.08
80.59
70.82
54.23
32.35
8.69
-12.49
-27.62
-35.19
-35.91
-32.06
-26.25
-20.47
-15.87
-12.64
-10.96
-10.99
-12.94
-16.59
-21.24
-25.93
-29.51
-31.21
-30.76
-28.66
-25.78
-23.33
-22.02
-22.02
-22.97
-24.11
-24.76
-24.71
-24.27
-24.05
-24.59
-25.77
-26.81
-26.36
-23.02
-15.84
-4.8
9.34
25.05
40.54
54.34
65.42
73.52
78.81
81.75
82.81
82.46
81.11
79.04
76.6
73.96
71.27
68.59
65.93
63.25
60.41
57.27
53.59
49.19
43.75
37.16
29.44
20.84
11.93
3.35
-4.19
-10.32
-14.89
-18.35
-21.17
-23.87
-26.81
-29.96
-33.18
-36.12
-38.49
-40.05
-40.75
-40.7
-40.12
-39.28
-38.43
-37.78
-37.51
-37.74
-38.52
-39.81
-41.3
-42.72
-43.7
-43.69
-42.45
-39.78
-35.8
-30.8
-25.25
-19.44
-13.73
-8.52
-3.97
-0.37
2.22
3.75
4.42
4.39
3.97
3.32
2.43
1.23
-0.4
-2.32
-4.42
-6.4
-8.09
-9.35
-10.23
-10.93
-11.5
-12.18
-12.77
-13.18
-13.42
-13.46
-13.33
-13.12
-12.97
-12.72
-12.61
-12.49
-12.4
-12.33
-12.4
-12.73
-13.53
-15.06
-17.21
-20.04
-23.25
-26.71
-30.22
-33.72
-36.97
-39.72
-41.74
-42.63
-42.41
-41.11
-39.01
-36.33
-33.2
-29.59
-25.41
-20.67
-15.42
-10.08
-4.87
-0.16
3.8
6.94
9.17
10.45
10.73
10.18
8.91
7.43
6.23
5.68
6.02
7.15
8.81
10.63
12.36
13.64
14.47
14.88
14.87
14.49
13.64
12.27
10.36
7.99
5.27
2.58
0.13
-2
-3.88
-5.86
-8.2
-11.02
-14.2
-17.47
-20.29
-22.19
-22.79
-21.83
-19.51
-16.21
-12.74
-9.89
-8.45
-8.52
-9.93
-11.86
-13.38
-13.74
-12.55
-9.89
-6.11
-1.8
2.58
6.51
9.59
11.62
12.54
12.56
11.99
11.37
11.05
11.34
12.36
14.02
16.36
19.27
22.67
26.21
29.55
32.14
33.48
33.36
31.7
28.88
25.18
20.92
16.25
11.29
6.06
0.79
-4.07
-8.18
-11.02
-12.62
-13.31
-13.62
-14.12
-15.3
-17.23
-19.59
-21.99
-23.9
-25.22
-26.07
-26.59
-26.82
-26.79
-26.46
-25.76
-24.9
-24.1
-23.58
-23.27
-22.71
-21.21
-18.27
-13.76
-8.06
-1.93
3.89
8.74
12.43
15.1
16.91
18.19
19.1
19.82
20.4
21.05
21.86
22.87
23.94
24.69
24.73
23.59
20.83
16
8.92
-0.32
-11.2
-23.01
-34.83
-45.84
-55.41
-63.22
-69.22
-73.3
-75.32
-75.01
-72.16
-66.65
-58.79
-49.34
-39.4
-30.1
-22.31
-16.49
-12.66
-10.43
-9.35
-8.98
-9.18
-9.93
-11.24
-13.09
-15.38
-18.14
-21.38
-25.07
-28.83
-32.06
-33.84
-33.3
-29.91
-23.9
-16.02
-7.48
0.52
7.22
12.35
16.05
18.71
20.78
22.36
23.58
24.39
24.72
24.59
24.14
23.48
22.66
21.6
20.19
18.48
16.57
14.65
12.84
11.22
9.77
8.46
7.27
6.14
5.17
4.23
3.19
1.89
0.32
-1.41
-3.16
-4.89
-6.7
-8.79
-11.28
-14.11
-17.04
-19.68
-21.75
-23.3
-24.72
-26.51
-29.02
-32.27
-35.85
-39.1
-41.42
-42.31
-41.28
-37.95
-32.11
-23.83
-13.74
-2.88
7.46
16.24
22.93
27.55
30.71
32.92
34.48
35.39
35.56
34.97
33.96
33.04
32.62
32.94
33.84
34.89
35.77
36.36
36.69
36.98
37.41
37.85
37.97
37.4
35.66
32.54
28.12
22.66
16.73
10.98
5.85
1.6
-1.73
-4.35
-6.37
-7.92
-9.02
-9.7
-9.95
-9.94
-9.82
-9.89
-10.38
-11.45
-13.2
-15.63
-18.42
-21.2
-23.39
-24.31
-23.4
-20.35
-15.2
-8.38
-0.69
7.05
14.09
19.92
24.47
27.92
30.47
32.28
33.49
34.05
34.03
33.58
32.89
32.27
31.88
31.65
31.45
31.15
30.52
29.58
28.37
26.97
25.41
23.41
20.72
17.24
13.14
8.73
4.66
1.57
-0.1
-0.13
1.3
3.64
6.24
8.43
9.56
9.44
8.18
5.94
3.06
-0.26
-4.01
-8.1
-12.58
-17.44
-22.59
-27.85
-32.97
-37.28
-40.12
-40.77
-38.79
-34.19
-27.45
-19.41
-11.09
-3.4
3.21
8.37
12.09
14.44
15.56
15.71
15.17
14.14
12.84
11.5
10.19
8.96
7.96
7.32
7.26
8.1
9.9
12.45
15.42
18.45
21.16
23.46
25.31
26.79
27.95
28.59
28.46
27.29
25.07
21.98
18.28
14.3
10.25
6.33
2.59
-0.95
-4.36
-7.62
-10.82
-14
-17.12
-20.2
-22.87
-24.77
-25.39
-24.38
-21.58
-17.24
-11.89
-6.29
-1.21
2.93
5.91
7.9
9.01
9.41
9.25
8.75
8.24
8.26
9.3
11.61
15.14
19.47
23.88
27.83
30.93
33
34.21
34.7
34.59
33.87
32.56
30.58
28.02
25.11
22.14
19.35
16.86
14.55
12.22
9.58
6.47
2.9
-0.97
-4.81
-8.42
-11.75
-14.94
-18.25
-22.04
-26.6
-32.14
-38.71
-46.04
-53.5
-60.23
-65.19
-67.45
-66.49
-62.12
-54.77
-45.18
-34.39
-23.48
-13.43
-4.89
1.82
6.6
9.73
11.51
12.41
12.77
12.94
13.28
14.1
15.67
18.03
21.07
24.44
27.79
30.61
32.66
33.8
34.12
33.78
32.85
31.33
29.19
26.63
23.91
21.43
19.61
18.47
17.84
17.2
15.83
13.16
9.14
4.14
-1.23
-6.23
-10.59
-14.27
-17.65
-21.33
-25.76
-31.16
-37.28
-43.58
-49.05
-52.7
-53.51
-51.08
-45.52
-37.59
-28.43
-19.29
-11.1
-4.26
1.17
5.47
8.98
11.9
14.4
16.43
17.98
19.11
19.96
20.62
21.24
21.95
22.62
23.3
23.8
24.06
24.08
23.93
23.65
23.23
22.59
21.42
19.6
17.03
14.05
11.12
8.82
7.47
7.04
7.29
7.73
8.08
8.02
7.52
6.45
4.85
2.64
-0.16
-3.42
-7.02
-10.9
-15.28
-20.36
-26.3
-32.79
-39.07
-44.02
-46.46
-45.62
-41.41
-34.31
-25.35
-15.81
-6.76
1.03
7.15
11.59
14.5
16.07
16.78
17.06
17.25
17.54
18.09
18.86
19.87
21.16
22.73
24.62
26.72
28.9
30.91
32.51
33.53
33.92
33.6
32.47
30.41
27.3
23.18
18.38
13.35
8.59
4.52
1.23
-1.55
-4.35
-7.67
-11.92
-17.12
-23.05
-29.32
-35.28
-40.36
-44.08
-46.37
-47.34
-47.43
-47.02
-46.52
-46.17
-45.99
-45.76
-44.88
-42.86
-39.1
-33.45
-26.18
-17.95
-9.69
-2.24
3.98
9.07
13.28
17.06
20.64
23.99
27
29.4
31.07
31.97
32.28
32.03
31.47
30.78
30.07
29.54
29.28
29.3
29.39
29.39
29.02
28.14
26.7
24.62
22.12
19.34
16.42
13.44
10.39
7.27
4
0.44
-3.65
-8.36
-13.76
-19.66
-25.71
-31.46
-36.5
-40.58
-43.54
-45.65
-46.97
-47.78
-48.34
-48.8
-49.29
-49.88
-50.37
-50.2
-48.84
-45.67
-40.47
-33.59
-25.87
-18.43
-12.3
-8.11
-5.82
-5.02
-5.09
-5.42
-5.71
-5.82
-5.76
-5.29
-4.22
-2.38
0.2
3.38
6.88
10.44
13.95
17.38
20.84
24.25
27.42
29.92
31.48
32.02
31.59
30.47
28.88
26.93
24.66
22.19
19.64
17.3
15.5
14.27
13.45
12.67
11.54
9.91
8.01
6.24
4.88
4.09
3.76
3.62
3.5
3.33
3.09
2.94
3.09
3.66
4.95
7.31
11.08
16.55
23.58
31.63
39.85
47.42
53.59
58.18
61.2
63.03
64.09
64.71
65.05
65.06
64.59
63.37
61.09
57.51
52.58
46.56
39.95
33.25
26.83
20.75
14.95
9.31
3.83
-1.37
-6.11
-10.23
-13.79
-16.81
-19.45
-21.63
-23.19
-24.02
-24.34
-24.62
-25.42
-27.19
-29.98
-33.73
-38
-42.35
-46.27
-49.47
-51.74
-52.94
-53.11
-52.34
-50.94
-49.33
-47.88
-46.78
-45.94
-44.97
-43.32
-40.48
-36.16
-30.37
-23.39
-15.69
-7.84
-0.16
7.1
14.01
20.68
27.31
33.97
40.46
46.48
51.62
55.63
58.35
59.94
60.54
60.37
59.61
58.3
56.55
54.52
52.25
49.62
46.37
42.14
36.58
29.7
21.72
13.13
4.64
-3.1
-9.6
-14.56
-17.78
-19.46
-19.9
-19.58
-19.12
-18.97
-19.45
-20.67
-22.69
-25.32
-28.36
-31.42
-34.22
-36.43
-37.88
-38.55
-38.36
-37.38
-35.52
-32.82
-29.38
-25.67
-22.14
-19.35
-17.61
-16.85
-16.83
-16.93
-16.73
-16.01
-14.79
-13.28
-11.74
-10.43
-9.48
-8.96
-8.83
-8.9
-9.06
-9.13
-9.17
-9.19
-9.37
-9.78
-10.41
-11.15
-11.76
-12.13
-12.14
-11.91
-11.49
-11
-10.48
-10.08
-9.97
-10.26
-11.01
-12.11
-13.43
-14.77
-16.01
-17.05
-17.85
-18.31
-18.3
-17.68
-16.42
-14.49
-12.04
-9.21
-6.2
-3.12
-0.17
2.36
4.28
5.29
5.47
4.96
3.98
2.8
1.69
0.73
0.09
-0.02
0.37
1.33
2.7
4.21
5.66
6.91
7.8
8.32
8.47
8.02
6.87
5.02
2.64
-0.02
-2.62
-5
-6.99
-8.25
-8.73
-8.24
-6.83
-4.74
-2.36
-0.15
1.47
2.34
2.56
2.11
1.04
-0.61
-2.87
-5.47
-8.13
-10.58
-12.58
-14
-14.94
-15.33
-15.09
-14.18
-12.51
-10.14
-7.25
-4.26
-1.45
0.7
2.17
3.08
3.61
4.13
4.81
5.69
6.54
7.19
7.43
7.33
7.09
6.88
6.94
7.34
7.97
8.61
9.06
9.28
9.32
9.29
9.26
9.21
9.07
8.62
7.64
6.01
3.66
0.77
-2.39
-5.55
-8.43
-10.89
-12.81
-14.17
-14.88
-14.94
-14.44
-13.53
-12.52
-11.77
-11.55
-11.99
-12.96
-14.31
-15.82
-17.33
-18.65
-19.52
-19.55
-18.43
-15.94
-12.14
-7.29
-1.89
3.5
8.47
12.61
15.62
17.33
17.64
16.64
14.82
12.64
10.72
9.39
8.79
8.76
9.17
9.78
10.5
11.25
11.91
12.29
12.09
11.22
9.64
7.53
5.13
2.73
0.53
-1.38
-2.91
-4.13
-5
-5.56
-5.73
-5.54
-5.04
-4.27
-3.5
-2.88
-2.63
-2.74
-3.07
-3.34
-3.41
-3.4
-3.56
-4.38
-6.08
-8.65
-11.56
-14.07
-15.38
-15.07
-13.18
-10.06
-6.22
-2.22
1.58
4.94
7.62
9.54
10.7
11.2
11.19
10.8
10.16
9.43
8.71
8.17
7.88
8
8.61
9.75
11.31
13.23
15.39
17.63
19.76
21.61
23.06
23.88
23.88
22.82
20.77
17.95
14.81
11.96
9.94
8.99
8.83
8.92
8.44
6.82
3.72
-0.77
-6.36
-12.71
-19.56
-26.82
-34.47
-42.57
-51.14
-60.35
-70.28
-80.96
-92.04
-102.53
-110.9
-115.65
-115.81
-111.57
-104.08
-94.92
-85.49
-76.29
-66.85
-56.37
-44.43
-31.36
-18.32
-6.61
2.87
9.95
15.05
18.91
22.03
24.56
26.55
27.96
28.99
30
31.23
32.67
34.03
34.77
34.45
32.9
30.19
26.64
22.67
18.67
14.9
11.54
8.57
6.1
4.12
2.63
1.67
1.15
1.06
1.33
1.76
2
1.75
0.66
-1.41
-4.38
-7.99
-11.79
-15.49
-18.95
-22.22
-25.16
-27.44
-28.48
-27.7
-24.7
-19.53
-12.63
-4.94
2.53
8.98
14.12
18
20.99
23.46
25.61
27.43
28.65
29.13
28.85
28.08
27.18
26.59
26.47
26.85
27.5
28.11
28.45
28.31
27.59
26.2
24.24
21.54
17.98
13.36
7.64
1.06
-5.85
-12.53
-18.28
-22.59
-25.35
-26.66
-26.79
-26.01
-24.62
-22.87
-21.15
-19.9
-19.68
-20.9
-23.66
-27.69
-32.47
-37.28
-41.53
-44.66
-46.18
-45.78
-43.18
-38.17
-30.76
-21.23
-10.04
1.96
13.78
24.67
34.04
41.71
47.82
52.44
55.64
57.49
57.89
56.93
55.06
52.9
51.2
50.37
50.58
51.62
53.24
55.08
56.84
58.29
59.03
58.69
56.87
53.24
47.77
40.79
32.84
24.7
17.09
10.41
4.86
0.29
-3.63
-7.15
-10.42
-13.35
-15.79
-17.64
-19.09
-20.35
-21.81
-23.74
-26.25
-29.24
-32.3
-34.96
-36.55
-36.58
-34.47
-29.99
-23.15
-14.46
-4.68
5.23
14.34
22.14
28.2
32.59
35.57
37.36
38.12
37.95
36.92
35.14
33.04
30.98
29.24
28.09
27.45
26.98
26.26
25.01
22.95
20.15
16.68
12.63
8.11
3.15
-2.14
-7.56
-12.76
-17.49
-21.31
-24.13
-25.98
-26.97
-27.27
-27.03
-26.45
-25.74
-25.19
-24.95
-25.24
-26.21
-27.88
-30.29
-33.26
-36.44
-39.26
-40.96
-40.69
-37.86
-32.37
-24.56
-15.31
-5.62
3.58
11.62
18.11
23.11
26.74
29.11
30.39
30.64
30.05
28.81
27.14
25.26
23.41
21.78
20.46
19.59
19.14
19.16
19.58
20.19
20.82
21.07
20.62
19.19
16.72
13.32
9.37
5.29
1.53
-1.45
-3.57
-4.85
-5.6
-6.06
-6.54
-7.28
-8.51
-10.46
-13.46
-17.92
-24.03
-31.69
-40.37
-49.07
-56.58
-61.63
-63.22
-60.99
-55.36
-47.1
-37.42
-27.57
-18.53
-11.05
-5.44
-1.67
0.73
2.25
3.61
5.19
7.07
9.26
11.44
13.4
15.07
16.53
17.88
19.14
20.07
20.38
19.82
18.22
15.6
12.16
8.15
3.83
-0.48
-4.49
-7.62
-9.4
-9.46
-7.75
-4.55
-0.48
3.8
7.58
10.36
11.87
12.02
10.88
8.48
4.79
-0.26
-6.7
-14.32
-22.58
-30.55
-37.02
-40.73
-40.74
-36.86
-29.51
-19.9
-9.38
0.6
8.98
15.1
18.84
20.5
20.53
19.65
18.38
17.31
16.65
16.55
17
17.83
18.87
19.88
20.62
20.71
20.14
18.94
17.19
15.09
12.62
9.69
6.24
2.29
-1.98
-6.24
-10.15
-13.66
-16.79
-19.81
-22.97
-26.33
-29.82
-33.19
-36.1
-38.39
-40.08
-41.33
-42.61
-44.33
-46.88
-50.41
-54.67
-58.98
-62.38
-63.82
-62.44
-58
-50.73
-41.43
-31.12
-20.8
-11.2
-2.8
4.42
10.68
16.25
21.35
25.99
30.09
33.55
36.42
38.81
41.13
43.84
47.02
50.55
53.99
56.82
58.69
59.54
59.46
58.69
57.39
55.41
52.61
48.87
44.36
39.44
34.72
30.64
27.53
25.29
23.52
21.87
19.82
17.09
13.55
9.48
5.11
0.83
-3.19
-6.97
-10.47
-13.99
-17.67
-21.58
-25.67
-29.88
-33.92
-37.46
-39.8
-40.06
-37.49
-31.62
-22.61
-11.33
0.92
12.8
23.47
32.53
40.27
47.14
53.58
59.79
65.61
70.84
75.31
79.21
82.71
86.2
89.75
93.33
96.55
98.95
100.25
100.13
98.4
94.8
89.22
81.5
71.99
61.06
49.35
37.54
25.97
14.9
4.3
-5.77
-15.32
-24.35
-32.9
-41.12
-49.21
-57.46
-66.04
-75.06
-84.15
-92.73
-100.11
-105.52
-108.56
-109.14
-107.72
-104.85
-101.36
-97.86
-94.89
-92.75
-91.31
-90.14
-88.43
-85.47
-80.43
-73.14
-63.73
-52.81
-41.17
-29.48
-18.18
-7.47
2.48
11.64
19.77
26.64
32.09
36.17
39.14
41.53
43.83
46.21
48.6
50.64
51.85
52.02
51.13
49.38
46.94
43.95
40.46
36.48
32.15
27.7
23.52
19.9
17.01
14.59
12.43
10.3
8.02
5.51
2.81
0.14
-2.46
-4.94
-7.47
-10.23
-13.33
-16.76
-20.58
-24.66
-28.76
-32.73
-36.51
-40.1
-43.75
-47.52
-51.35
-54.84
-57.29
-57.89
-55.98
-51.47
-44.61
-36.14
-27.06
-18.3
-10.58
-4.22
0.74
4.76
8.21
11.53
14.92
18.44
21.88
24.97
27.5
29.31
30.42
30.91
31
30.86
30.7
30.5
30.28
29.98
29.61
29.19
28.81
28.51
28.16
27.66
26.77
25.5
23.78
21.77
19.62
17.48
15.41
13.42
11.48
9.53
7.51
5.03
1.86
-2.13
-6.94
-12.4
-18.38
-24.78
-31.6
-38.83
-46.24
-53.44
-59.89
-65.39
-69.76
-73.03
-74.84
-74.53
-71.33
-64.54
-54.32
-41.52
-27.69
-14.11
-1.8
9.02
18.7
27.71
36.22
43.94
50.3
54.45
56.08
55.14
52.11
47.92
43.62
40.11
37.99
37.5
38.47
40.66
43.83
47.64
51.74
55.45
57.97
58.59
56.95
53.31
48.44
43.23
38.5
34.56
31.2
27.99
24.6
20.88
16.91
13
9.16
5.43
1.71
-2.19
-6.39
-10.85
-15.42
-20
-24.24
-28
-31.11
-33.59
-35.56
-37.33
-39.09
-40.89
-42.52
-43.47
-43.31
-41.52
-37.97
-32.82
-26.41
-19.37
-12.5
-6.53
-1.96
0.92
2.37
2.88
2.93
3.17
4.07
5.82
8.4
11.7
15.48
19.42
23.36
26.83
29.36
30.62
30.46
28.93
26.41
23.55
20.78
18.54
17
16.09
15.58
15.32
15.13
14.71
13.94
12.52
10.23
7.12
3.42
-0.51
-4.2
-7.24
-9.44
-10.84
-11.75
-12.51
-13.4
-14.59
-16.11
-17.84
-19.6
-21.19
-22.59
-23.96
-25.59
-27.67
-30.32
-33.31
-36.09
-38.11
-38.79
-37.61
-34.43
-29.28
-22.52
-14.88
-7.12
-0
5.74
9.75
12.16
13.25
13.51
13.33
12.93
12.56
12.27
12.01
11.82
11.83
12.27
13.41
