-25.23
-27.65
-29.75
-31.67
-33.35
-34.56
-35.15
-35.22
-35.11
-35.25
-36.02
-37.6
-39.73
-41.98
-43.76
-44.51
-43.68
-40.85
-35.76
-28.4
-19.26
-9.04
1.12
10.09
17.06
21.63
24.07
25.05
25.27
25.12
24.68
23.65
21.84
19.39
16.68
14.31
12.69
11.96
11.89
11.96
11.67
10.69
8.98
6.62
3.87
0.83
-2.22
-5.05
-7.36
-8.75
-8.88
-7.56
-5.03
-1.64
1.81
4.67
6.36
6.5
5.07
2.23
-1.75
-6.5
-11.56
-16.59
-21.2
-24.97
-27.8
-29.66
-30.69
-31.31
-31.76
-32.08
-32.2
-31.82
-30.45
-27.91
-24.11
-19.37
-14.14
-9.09
-4.71
-1.41
0.65
1.58
1.49
0.74
-0.56
-2.23
-4.21
-6.42
-8.76
-10.91
-12.54
-13.48
-13.48
-12.61
-11.09
-9.11
-6.83
-4.43
-2.08
-0.08
1.18
1.61
1.24
0.25
-0.89
-1.76
-2.06
-1.81
-1.19
-0.61
-0.38
-0.65
-1.57
-3
-4.95
-7.33
-10.03
-12.9
-15.78
-18.29
-20.11
-21.12
-21.43
-21.59
-22.25
-23.75
-26.09
-28.81
-31.08
-32
-31.05
-28.18
-23.87
-18.8
-13.7
-9.28
-5.98
-4.08
-3.67
-4.65
-6.94
-10.43
-14.91
-20.15
-26.01
-32.06
-37.72
-42.64
-46.64
-50.07
-53.56
-57.7
-62.82
-68.92
-75.53
-82.17
-88.69
-95.44
-103.21
-112.83
-124.53
-138.08
-152.72
-167.54
-181.87
-195.32
-207.97
-219.99
-231.6
-242.25
-251.28
-257.7
-260.19
-256.98
-245.78
-224.25
-190.76
-145.21
-88.05
-21.92
49.36
121.8
192.3
259.35
322.76
382.85
439.69
494.36
546.41
594.22
635.71
668.9
692.4
704.94
705.02
690.92
663.02
621.16
565.06
495.27
414.13
326.13
237.14
153.29
67.67
-18.33
-98.77
-166.68
-218.53
-255.42
-280.61
-297.04
-306.28
-308.97
-303.81
-291.45
-274.49
-256.23
-239.34
-224.92
-212.94
-202.97
-194.49
-185.87
-176.64
-167.38
-159.1
-152.26
-146.29
-139.77
-131.02
-117.99
-98.56
-71.79
-38.7
-1.93
34.86
67.96
95.83
115.72
126.41
127.76
120.46
105.37
83.87
58.04
30.57
4.38
-18.4
-36.08
-47.3
-50.36
-43.22
-24.26
6.12
43.85
81.61
110.7
124.74
121.88
105.32
81.3
55.82
32.77
12.53
-6.18
-24.87
-43.64
-61.58
-77.6
-90.88
-101.59
-110.19
-117.28
-122.69
-126.3
-126
-120.04
-107.59
-89.01
-65.86
-40.58
-15.63
6.97
26.25
42.38
55.92
67.63
77.87
86.78
94.35
100.76
106.04
109.91
111.4
108.71
99.96
84.25
62.78
38.68
16.28
-0.76
-10.36
-12.53
-8.87
-1.48
7.58
16.94
25.51
32.23
35.89
35.41
30.24
20.31
7.31
-7.01
-21.03
-33.48
-43.92
-52.44
-59.33
-64.8
-68.76
-71.06
-71.56
-70.59
-68.81
-67.22
-66.91
-68.64
-72.78
-79.15
-87.34
-96.57
-105.94
-114.57
-121.7
-126.87
-129.96
-130.8
-128.9
-123.51
-113.61
-98.42
-77.89
-52.74
-24.43
5.05
33.62
59.52
81.22
97.85
108.95
114.65
115.95
114.28
111.43
108.79
107.34
107.35
108.82
111.2
113.6
115.01
113.93
108.9
98.41
81.57
58.17
28.96
-4.81
-41.78
-80.54
-119.98
-158.83
-195.64
-228.51
-255.42
-274.39
-284.11
-284.33
-275.56
-259.15
-236.41
-208.56
-176.81
-142.54
-107.45
-73.38
-41.9
-13.97
10.04
30.41
47.37
60.67
69.82
74.24
74.02
70.2
64.55
59.03
55.32
54.36
56.25
60.74
67.59
76.82
88.55
102.74
118.68
135.2
150.88
164.56
175.88
185.1
192.71
198.95
203.48
205.38
203.58
197.28
186.36
171.42
153.62
134.15
114.01
93.76
73.28
52.19
29.99
6.45
-18.28
-43.6
-68.55
-91.77
-111.71
-126.78
-135.5
-136.91
-130.94
-118.48
-101.29
-81.51
-61.13
-41.84
-24.97
-11.26
-1.12
5.37
8.57
9.11
7.75
5.18
1.83
-2.57
-8.49
-16.58
-27.38
-41.05
-57.3
-75.56
-94.92
-114.31
-132.84
-149.45
-162.97
-172.07
-175.25
-171.05
-158.53
-137.47
-108.66
-73.86
-35.49
3.86
41.6
75.62
104.22
126.31
141.7
150.93
155.48
157.06
157.4
157.34
156.93
155.22
150.71
142.01
128.16
109.06
85.47
59.07
32.17
7.65
-11.89
-24.55
-29.69
-28.09
-21.71
-13.24
-5.21
0.66
3.65
3.89
1.81
-2
-6.97
-12.59
-18.35
-23.81
-28.41
-31.81
-33.8
-34.55
-34.4
-33.75
-32.88
-32
-31.21
-30.49
-30.06
-30.12
-30.91
-32.71
-35.47
-38.82
-42.29
-45.34
-47.53
-48.79
-49.05
-48.35
-46.65
-43.76
-39.42
-33.55
-26.28
-18.14
-9.8
-1.85
5.2
10.94
15.09
17.68
18.82
18.96
18.42
17.43
16.2
14.78
13.13
11.42
10.14
9.98
11.55
15.04
20.02
25.77
31.46
36.16
39.33
40.63
40.07
38.08
35.14
31.77
28.38
25.26
22.43
19.89
17.61
15.74
14.56
14.21
14.6
15.44
16.44
17.47
18.57
19.75
20.87
21.86
22.49
22.73
22.59
22.12
21.44
20.66
19.79
18.63
17.23
15.61
13.89
12.09
10.06
7.74
5
1.91
-1.47
-4.93
-8.38
-11.74
-15.09
-18.5
-21.71
-24.42
-26.21
-26.89
-26.57
-25.85
-25.44
-25.92
-27.72
-30.72
-34.61
-38.98
-43.2
-46.61
-48.54
-48.42
-45.8
-40.83
-33.98
-26.09
-18.16
-10.98
-5.03
-0.41
3.16
6.08
8.9
12.1
16.03
20.63
25.72
30.82
35.47
39.36
42.25
44.11
45.06
45.25
44.72
43.66
42.09
40.04
37.55
34.55
30.87
26.32
20.76
13.99
6.07
-2.9
-12.77
-23.31
-34.25
-45.17
-55.44
-64.17
-70.62
-74.07
-74.25
-71.26
-65.42
-57.31
-47.35
-35.96
-23.4
-10.05
3.73
17.39
30.31
41.93
51.55
58.66
63.03
64.71
64.08
61.85
58.67
55.1
51.66
48.57
45.93
43.73
41.89
40.15
38.29
36.02
32.92
28.98
24.18
18.75
12.82
6.6
0.17
-6.28
-12.48
-18.1
-22.7
-26.02
-27.78
-28.19
-27.48
-26.25
-24.98
-24.21
-24.36
-25.7
-28.4
-32.31
-37.18
-42.58
-48.03
-52.95
-56.75
-58.74
-58.26
-55.12
-49.43
-41.78
-33.16
-24.5
-16.67
-10.08
-4.79
-0.57
2.79
5.48
7.66
9.43
10.95
12.31
13.63
14.89
16.19
17.49
18.65
19.51
19.73
19.18
17.7
15.28
11.89
7.73
2.95
-2.15
-7.23
-12.04
-16.16
-19.42
-21.66
-22.93
-23.36
-23.12
-22.4
-21.44
-20.45
-19.56
-18.9
-18.42
-17.97
-17.43
-16.6
-15.23
-12.96
-9.44
-4.28
2.85
11.99
23.01
35.41
48.51
61.66
74.28
85.8
95.74
103.69
109.19
111.91
111.65
108.47
102.69
94.88
85.75
76.07
66.55
57.78
50.12
43.58
37.87
32.44
26.73
20.55
13.97
7.38
1.26
-3.9
-7.86
-10.71
-12.7
-14.34
-16.31
-19.59
-25.33
-34.65
-48.42
-66.93
-89.92
-116.5
-145.48
-175.37
-204.42
-230.37
-250.47
-261.75
-261.4
-247.84
-221.12
-183.47
-138.6
-90.96
-44.6
-2.56
33.19
61.78
82.81
96.28
102.56
102.61
97.83
89.91
80.52
70.9
61.87
53.83
46.95
41.5
37.94
36.77
38.51
43.53
51.73
62.76
75.63
88.97
101.17
110.66
116.29
117.56
114.67
108.28
99.42
88.93
77.44
65.47
53.48
41.88
31.22
21.82
13.63
6.35
-0.79
-8.69
-17.94
-28.77
-41.16
-54.59
-68.5
-82.36
-95.43
-107.34
-117.87
-126.81
-134.22
-140.23
-144.59
-146.69
-145.61
-139.93
-128.71
-111.76
-89.8
-64.54
-38.17
-12.76
10.01
28.99
44
55.04
62.45
66.57
67.81
66.82
64.53
61.89
59.87
59.56
61.44
65.44
70.91
76.7
81.57
84.6
85.22
83.28
79.03
72.89
65.29
56.8
47.83
38.72
29.75
21.14
12.99
5.36
-1.61
-7.78
-12.73
-16.23
-18.01
-17.95
-16.13
-12.87
-8.62
-3.88
0.82
5.28
9.23
12.59
15.25
17
17.56
16.78
14.64
11.29
7.17
2.74
-1.63
-5.74
-9.55
-13.12
-16.53
-19.77
-22.94
-25.99
-28.92
-31.75
-34.49
-37.17
-39.72
-42.21
-44.74
-47.55
-50.81
-54.45
-58.2
-61.46
-63.67
-64.27
-63.22
-60.65
-56.99
-52.76
-48.39
-44.32
-40.87
-38.42
-37.14
-37.07
-37.9
-39.18
-40.51
-41.69
-42.58
-43.12
-43.27
-42.75
-41.29
-38.63
-34.63
-29.38
-22.95
-15.31
-6.5
3.47
14.38
25.91
37.76
49.6
61.18
72.35
82.81
92.02
99.25
103.55
104.21
100.9
93.87
83.93
72.2
59.87
47.78
36.41
26.04
16.74
8.63
1.88
-3.4
-7.46
-10.61
-13.31
-15.91
-18.43
-20.61
-22.11
-22.42
-21.28
-18.73
-15.09
-10.77
-6.22
-1.89
1.93
5.1
7.66
9.76
11.41
12.61
13.14
12.77
11.4
8.94
5.81
2.43
-0.67
-3.23
-5.08
-6.29
-7.03
-7.26
-7.04
-6.39
-5.48
-4.63
-4.33
-4.89
-6.56
-9.27
-12.66
-16.38
-20.07
-23.56
-26.74
-29.5
-31.63
-33
-33.55
-33.36
-32.67
-31.69
-30.4
-28.61
-25.88
-21.79
-16.09
-8.8
-0.31
8.66
17.31
24.86
30.8
35.12
37.94
39.65
40.6
40.91
40.65
39.88
38.8
37.68
37.02
37.08
37.91
39.29
40.59
40.88
39.24
34.85
26.97
15.39
0.07
-18.78
-40.53
-64.31
-88.95
-113.05
-135.02
-153.32
-166.33
-172.62
-170.78
-159.54
-138.19
-107.06
-68.27
-25.73
15.31
49.84
74.21
87.23
90.11
85.54
76.46
65.3
53.67
42.71
33.63
27.67
25.8
28.19
34.12
42.13
50.75
58.89
66.13
72.68
79.02
85.44
91.7
97.17
100.91
102.09
100.34
95.72
88.88
80.79
72.24
63.79
55.58
47.38
38.88
29.9
20.36
10.67
1.24
-7.49
-15.24
-21.83
-27.37
-32.27
-36.97
-41.99
-47.61
-53.76
-60.08
-66.11
-71.39
-75.86
-79.86
-83.59
-87.4
-91.37
-95.28
-98.77
-101.29
-102.15
-100.7
-96.47
-89.09
-78.76
-66.13
-52.07
-37.59
-23.5
-10.46
1.11
10.83
18.42
23.66
26.59
27.5
26.95
25.48
23.63
21.69
19.82
18.13
16.69
15.55
14.81
14.24
13.58
12.62
11.16
9.14
6.7
4.08
1.44
-0.87
-2.77
-4.19
-5.14
-5.85
-6.6
-7.63
-9.02
-10.63
-12.03
-12.86
-12.94
-12.51
-12.06
-12.11
-12.98
-14.69
-16.79
-18.61
-19.55
-19.27
-17.64
-14.89
-11.25
-7.06
-2.75
1.31
4.87
7.8
9.97
11.53
12.51
13.19
13.75
14.38
15.34
16.69
18.57
20.95
23.69
26.4
28.89
30.76
31.74
31.64
30.22
27.57
23.9
19.45
14.4
9.12
3.91
-0.93
-5.04
-8.35
-10.88
-12.72
-14.16
-15.35
-16.3
-16.89
-16.94
-16.13
-14.44
-11.96
-8.89
-5.63
-2.59
-0.15
1.22
1.3
0.21
-1.69
-3.77
-5.2
-5.35
-3.83
-0.64
3.67
8.44
12.95
16.58
18.93
19.86
19.43
17.91
15.71
13.25
10.97
9.16
7.95
7.4
7.46
7.98
8.92
10.27
11.93
13.84
15.83
17.63
19.01
19.83
19.98
19.46
18.27
16.33
13.66
10.4
6.73
2.96
-0.58
-3.81
-6.77
-9.59
-12.4
-15.17
-17.71
-19.77
-21.2
-21.92
-22.07
-21.89
-21.64
-21.68
-22.26
-23.55
-25.42
-27.43
-28.93
-29.26
-27.9
-24.54
-19.44
-12.91
-5.63
1.75
8.8
15.15
20.56
24.94
28.35
30.69
32.02
32.24
31.21
28.96
25.67
21.76
17.69
14.02
11.09
9.18
8.28
8.15
8.57
9.24
9.95
10.44
10.58
10.38
9.86
9.02
7.78
6.3
4.7
3.37
2.74
2.96
4.08
5.89
8.15
10.58
13.05
15.29
17.13
18.33
18.67
17.84
15.7
12.14
7.14
0.79
-6.72
-14.85
-22.76
-29.37
-33.88
-35.66
-34.49
-30.56
-24.42
-16.81
-8.61
-0.58
6.67
12.67
17.14
20.05
21.41
21.38
20.13
17.83
14.65
10.93
7.11
3.55
0.59
-1.58
-2.78
-2.92
-2.09
-0.43
1.77
4.17
6.42
8.21
9.21
9.3
8.5
6.98
5.03
2.94
0.83
-1.23
-3.16
-5.13
-7.15
-9.1
-10.84
-12.2
-13.22
-14.12
-15.07
-16.17
-17.68
-19.66
-21.96
-24.3
-26.14
-26.94
-26.21
-23.55
-18.99
-13
-6.32
0.32
6.27
11.29
15.37
18.5
20.77
22.08
22.37
21.77
20.53
19.05
17.84
17.23
17.16
17.4
17.55
17.39
16.96
16.32
15.51
14.59
13.42
11.77
9.62
7.02
4.28
1.69
-0.61
-2.8
-5.03
-7.49
-10.3
-13.29
-16.21
-18.87
-21
-22.68
-24.15
-25.56
-27.05
-28.5
-29.75
-30.54
-30.88
-30.6
-29.59
-27.53
-24.04
-18.95
-12.34
-4.76
2.89
9.52
14.49
17.62
19.26
20.05
20.43
20.65
20.8
20.68
19.99
18.72
17
15.06
13.32
11.93
10.87
10.11
9.29
8.27
7.04
5.71
4.42
3.39
2.65
2.17
1.96
2.01
2.32
2.83
3.31
3.38
2.91
1.71
-0.16
-2.53
-5.29
-8.23
-11.21
-14.14
-17.02
-19.64
-22.01
-23.94
-25.17
-25.57
-24.88
-22.94
-19.84
-15.88
-11.49
-7.22
-3.35
0.02
2.96
5.61
8.12
10.4
12.3
13.68
14.28
14.17
13.37
12.05
10.46
8.82
7.34
6.29
5.9
6.15
7
8.14
9.28
10.2
10.7
10.7
10.34
9.74
8.93
7.76
6.05
3.68
0.65
-2.98
-6.95
-10.87
-14.46
-17.54
-20.03
-21.86
-23.15
-23.98
-24.48
-24.63
-24.21
-22.96
-20.56
-16.92
-12.21
-6.94
-1.8
2.57
5.84
8.01
9.34
10.17
10.73
11.14
11.49
11.91
12.64
13.79
15.42
17.32
19.15
20.55
21.19
20.99
20.1
18.64
16.71
14.38
11.7
8.73
5.66
2.69
-0
-2.19
-3.87
-5.16
-6.25
-7.26
-8.22
-8.91
-9.17
-8.91
-8.28
-7.69
-7.65
-8.51
-10.35
-13.01
-15.94
-18.5
-20.08
-20.15
-18.48
-15.11
-10.34
-4.72
1.09
6.45
10.97
14.47
16.96
18.61
19.58
19.97
19.83
19.32
18.46
17.35
16.12
14.78
13.33
11.77
10.15
8.53
7
5.65
4.46
3.37
2.4
1.43
0.36
-0.97
-2.69
-4.92
-7.62
-10.59
-13.57
-16.26
-18.48
-20.27
-21.72
-22.83
-23.58
-23.93
-23.87
-23.55
-23.35
-23.5
-24.22
-25.6
-27.42
-29.33
-30.87
-31.51
-30.84
-28.57
-24.79
-19.82
-14.36
-9.31
-5.25
-2.41
-0.54
0.87
2.52
4.77
7.75
11.4
15.49
19.98
24.82
30.06
35.53
40.97
46.08
50.59
54.35
57.28
59.31
60.4
60.51
59.72
58.23
56.33
54.5
53.06
52.31
52.38
53.21
54.55
56.05
57.36
58
57.51
55.32
51.02
44.38
35.35
24.01
10.65
-4.27
-20.07
-36.01
-51.18
-64.62
-75.48
-83.02
-86.91
-87.12
-84.04
-78.29
-70.62
-61.91
-52.78
-43.81
-35.36
-27.51
-20.21
-13.38
-6.95
-0.92
4.61
9.53
13.6
16.82
19.33
21.35
23.05
24.47
25.4
25.68
25.28
24.15
22.72
21.27
19.87
18.47
16.79
14.61
11.87
8.85
5.85
3.31
1.36
-0.14
-1.38
-2.54
-3.65
-4.58
-5.13
-5.18
-4.76
-4.14
-3.81
-4.12
-5.28
-7.1
-9.15
-10.83
-11.65
-11.1
-9.09
-5.66
-1
4.41
10.18
15.83
20.88
24.9
27.65
29.07
29.28
28.62
27.17
25.13
22.57
19.54
16.23
12.92
9.95
7.54
5.73
4.26
2.85
1.36
-0.22
-1.63
-2.78
-3.67
-4.48
-5.37
-6.35
-7.21
-7.75
-7.83
-7.48
-7.1
-7.17
-8.15
-10.1
-12.77
-15.67
-18.35
-20.44
-21.7
-22.25
-22.19
-21.7
-20.89
-19.84
-18.65
-17.48
-16.36
-15.09
-13.39
-10.93
-7.53
-3.56
0.34
3.41
5.17
5.59
4.99
3.91
2.73
1.65
0.67
-0.25
-1.03
-1.46
-1.4
-0.84
0.07
1.13
1.96
2.33
2.11
1.27
-0.07
-1.72
-3.47
-5.16
-6.6
-7.71
-8.5
-8.95
-9.17
-9.35
-9.6
-9.98
-10.47
-10.93
-11.19
-11.34
-11.5
-11.94
-12.7
-13.79
-14.9
-15.79
-16.32
-16.66
-17.23
-18.31
-20.13
-22.29
-24.34
-25.65
-25.81
-24.52
-21.84
-18.11
-13.75
-9.32
-5.17
-1.68
0.91
2.42
2.95
2.8
2.42
2.28
2.68
3.81
5.51
7.49
9.57
11.45
13.02
14.1
14.71
14.74
14.21
13.14
11.43
9.21
6.42
3.33
0.37
-1.81
-2.85
-2.68
-1.59
-0.19
1.06
1.73
1.8
1.44
0.81
-0.15
-1.53
-3.39
-5.78
-8.52
-11.61
-14.85
-18.12
-21.38
-24.53
-27.38
-29.73
-31.43
-32.24
-31.87
-30.03
-26.56
-21.61
-15.66
-9.43
-3.74
0.81
4.04
6.16
7.57
8.53
9.17
9.38
9.01
8.02
6.49
4.82
3.4
2.49
2.2
2.46
3.28
4.67
6.64
9.12
11.84
14.36
16.14
16.72
15.89
13.69
10.32
6.16
1.54
-3.27
-7.87
-12.04
-15.47
-18
-19.68
-20.68
-21.18
-21.54
-22.07
-22.93
-24.23
-25.81
-27.56
-29.3
-30.84
-31.86
-31.99
-30.71
-27.61
-22.59
-15.91
-8.24
-0.44
6.8
13.13
18.56
23.33
27.67
31.5
34.66
36.9
37.96
38.02
37.32
36.25
35.02
33.8
32.39
30.54
28.15
25.21
21.96
18.62
15.34
12.08
8.7
5.17
1.47
-2.19
-5.55
-8.29
-10.36
-11.79
-12.78
-13.6
-14.34
-15.11
-15.98
-17.12
-18.59
-20.62
-23.15
-25.99
-28.82
-31.26
-32.99
-33.84
-33.89
-33.19
-31.75
-29.41
-25.93
-21.28
-15.62
-9.4
-3.32
1.92
5.88
8.57
10.31
11.63
12.86
14.19
15.44
16.28
16.44
15.77
14.43
12.69
10.95
9.42
8.24
7.53
7.37
7.79
8.84
10.39
12.15
13.71
14.66
14.71
13.83
12.24
10.27
8.15
5.91
3.61
1.11
-1.57
-4.34
-7.04
-9.49
-11.72
-13.86
-16.12
-18.6
-21.41
-24.49
-27.69
-30.75
-33.11
-34.26
-33.55
-30.7
-25.7
-19.05
-11.5
-3.8
3.42
9.88
15.53
20.43
24.5
27.59
29.35
29.5
28.06
25.18
21.5
17.66
14.28
11.61
9.67
8.3
7.25
6.46
5.87
5.66
5.74
5.99
6.1
5.7
4.72
3.17
1.31
-0.56
-2.1
-3.24
-4.08
-4.89
-5.95
-7.48
-9.57
-12.13
-14.89
-17.44
-19.44
-20.61
-20.93
-20.49
-19.57
-18.4
-17.05
-15.45
-13.34
-10.4
-6.47
-1.61
3.79
9.04
13.42
16.34
17.54
17.17
15.74
13.82
11.87
10.2
8.86
7.88
7.24
6.98
7.04
7.54
8.5
9.87
11.54
13.29
14.92
16.32
17.43
18.27
18.91
19.25
19.15
18.38
16.84
14.6
11.94
9.13
6.41
3.97
1.81
-0.13
-1.79
-3.15
-4.12
-4.7
-4.9
-4.8
-4.41
-3.8
-3.16
-2.53
-2.11
-1.99
-2.24
-2.93
-4.08
-5.83
-8.24
-11.24
-14.42
-17.34
-19.4
-20.03
-18.93
-15.97
-11.49
-5.99
-0.08
5.62
10.44
14.13
16.74
18.4
19.39
19.85
19.8
19.21
18.02
16.25
14.02
11.67
9.38
7.31
5.61
4.17
3.02
2.05
1.28
0.64
0.28
0.12
0.27
0.76
1.27
1.53
1.16
-0.05
-2.16
-4.84
-7.81
-10.53
-12.57
-13.87
-14.46
-14.58
-14.52
-14.34
-14.02
-13.52
-12.76
-11.83
-11.03
-10.63
-10.91
-12.04
-13.89
-16.19
-18.58
-20.42
-21.07
-20.11
-17.04
-12.05
-5.77
1.1
7.61
13.07
17.25
20.36
22.69
24.79
26.79
28.52
29.65
29.66
28.09
24.8
19.95
13.88
7.15
0.1
-6.79
-13.05
-18.15
-21.74
-23.67
-24.05
-23.4
-22.28
-21.25
-20.42
-19.61
-18.49
-16.78
-14.52
-11.95
-9.37
-6.95
-4.8
-2.62
-0.3
2.24
4.82
7.05
8.34
8.23
6.47
3.04
-1.76
-7.27
-12.7
-17.03
-19.56
-19.92
-18.2
-14.96
-10.88
-6.87
-3.5
-1.12
0.44
1.5
2.5
3.66
4.95
6.33
7.46
8.32
8.87
9.3
9.61
9.95
10.26
10.49
10.77
11.08
11.44
11.88
12.27
12.55
12.69
12.65
12.35
11.68
10.56
8.96
7.08
4.92
2.77
0.53
-1.81
-4.29
-7
-9.99
-13.31
-16.99
-21.18
-25.62
-30.09
-34.06
-36.73
-37.42
-35.71
-31.61
-25.54
-18.32
-10.76
-3.61
2.5
7.49
11.24
13.82
15.21
15.45
14.63
13.05
11.13
9.27
8.04
7.61
8.06
9.3
11.01
12.99
15.04
16.95
18.54
19.6
19.81
19.14
17.7
15.72
13.59
11.6
10.06
9.12
8.88
9.2
9.92
10.86
11.68
12.03
11.6
10.24
7.9
4.72
0.79
-3.66
-8.42
-13.3
-18.17
-22.88
-27.37
-31.57
-35.36
-38.57
-40.85
-41.8
-40.97
-38.22
-33.75
-28.14
-22.27
-16.81
-12.24
-8.67
-5.77
-3.1
-0.36
2.58
5.67
8.62
11.36
13.83
16.12
18.41
20.77
23.18
25.58
27.84
29.71
31
31.63
31.55
30.77
29.23
26.91
23.61
19.46
14.57
9.27
4.11
-0.42
-3.79
-5.91
-6.73
-6.75
-6.44
-6.37
-6.93
-8.18
-9.98
-11.9
-13.72
-15.35
-16.95
-18.85
-21.2
-23.99
-27.02
-29.95
-32.27
-33.31
-32.56
-29.64
-24.5
-17.43
-9.23
-0.82
6.78
12.86
17.23
20
21.52
22.24
22.54
22.56
22.49
22.31
21.96
21.59
21.29
21.22
21.48
22.25
23.45
24.98
26.55
27.89
28.88
29.31
29.05
27.83
25.44
21.65
16.53
10.2
3.2
-3.66
-9.68
-14.29
-17.26
-18.74
-19.13
-18.78
-18.13
-17.38
-16.49
-15.54
-14.65
-13.95
-13.69
-14.02
-14.98
-16.47
-18.35
-20.2
-21.72
-22.28
-21.31
-18.48
-13.72
-7.6
-1.02
5.06
10.05
13.62
16.11
17.83
19.15
20.36
21.55
22.64
23.51
24.04
23.98
23.46
22.52
21.33
20.11
18.99
17.93
16.71
15.33
13.79
12.35
11.3
10.7
10.43
10.07
9.13
7.12
3.97
-0.17
-4.93
-9.82
-14.5
-18.68
-22.28
-25.17
-27.43
-29.04
-30.12
-30.67
-30.76
-30.49
-29.99
-29.66
-29.85
-31.1
-33.69
-37.64
-42.63
-48.03
-53.08
-56.87
-58.65
-57.98
-54.92
-49.85
-43.4
-36.37
-29.43
-23.15
-17.73
-13.03
-8.73
-4.52
0.06
5.38
11.58
18.82
26.96
35.71
44.76
53.69
61.89
68.77
73.82
76.39
76.26
73.26
67.42
59.14
49.11
37.98
26.35
14.75
3.32
-7.67
-18.03
-27.65
-36.23
-43.63
-49.87
-55.15
-59.65
-63.68
-67.14
-69.86
-71.81
-72.84
-73.21
-73.04
-72.37
-71.09
-69.06
-65.84
-60.98
-54.07
-44.55
-32.04
-16.06
3.66
27.06
53.39
81.59
110.21
137.63
162.43
183.44
199.97
211.76
218.84
221.32
219.47
213.68
204.15
191.27
175.22
156.13
134.44
110.6
85.46
59.91
34.87
11
-11.06
-30.85
-47.74
-61.05
-70.13
-74.68
-75.03
-72.05
-66.99
-60.98
-54.9
-49.16
-44.07
-39.79
-36.62
-34.79
-34.36
-35.11
-36.47
-37.83
-38.89
-39.51
-39.85
-40.05
-40.04
-39.46
-37.81
-34.58
-29.48
-22.71
-14.82
-6.68
0.86
6.97
11.22
13.61
14.4
14.2
13.53
12.86
12.33
11.92
11.52
11.02
10.32
9.34
8.08
6.46
4.6
2.63
0.75
-0.72
-1.6
-1.79
-1.3
-0.17
1.32
2.96
4.51
5.65
6.18
5.87
4.74
2.81
0.31
-2.53
-5.66
-8.89
-12.16
-15.33
-18.46
-21.46
-24.36
-27.12
-29.53
-31.37
-32.24
-31.85
-29.91
-26.53
-22.06
-17.03
-11.98
-7.39
-3.44
-0.19
2.41
4.63
6.59
8.4
10.09
11.55
12.67
13.27
13.16
12.07
9.99
6.96
3.2
-0.89
-4.96
-8.57
-11.36
-13.11
-13.79
-13.49
-12.49
-11.17
-9.94
-9.3
-9.46
-10.35
-11.73
-13.24
-14.52
-15.49
-16.19
-16.81
-17.64
-18.64
-19.74
-20.88
-22
-23.1
-24.4
-25.92
-27.64
-29.47
-31.05
-31.9
-31.48
-29.37
-25.24
-19.3
-12.03
-4.21
3.25
9.69
14.63
18.06
20.16
21.21
21.38
20.74
19.41
17.44
15.24
13.07
11.44
10.58
10.52
11.01
11.77
12.62
13.32
13.92
14.33
14.6
14.6
14.3
13.5
12.07
9.99
7.19
3.96
0.49
-2.86
-5.79
-8.09
-9.71
-10.77
-11.46
-12.04
-12.66
-13.51
-14.64
-16.08
-17.89
-19.96
-22.24
-24.67
-27.2
-29.76
-32.19
-34.29
-35.54
-35.56
-33.88
-30.29
-25.02
-18.66
-11.83
-5.13
1.07
6.67
11.55
15.57
18.53
20.1
20.17
18.91
16.78
14.34
12.06
10.25
8.94
8.14
7.73
7.7
8
8.5
9
9.38
9.5
9.19
8.46
7.16
5.25
2.67
-0.52
-4.12
-7.77
-11.21
-14.28
-16.7
-18.43
-19.35
-19.46
-18.84
-17.58
-15.9
-14.08
-12.5
-11.29
-10.61
-10.48
-10.82
-11.48
-12.25
-12.78
-12.65
-11.59
-9.35
-6.08
-2.16
1.94
5.69
8.85
11.53
14.03
16.64
19.46
22.3
24.83
26.78
27.79
27.88
27.04
25.49
23.42
21.12
18.86
16.85
15.3
14.05
13.01
11.94
10.67
9.06
7.06
4.58
1.63
-1.72
-5.38
-8.99
-12.3
-15.04
-17.02
-18.1
-18.28
-17.62
-16.3
-14.58
-12.71
-11
-9.75
-9.09
-9.19
-10.16
-11.97
-14.37
-16.75
-18.39
-18.57
-16.88
-13.32
-8.41
-3.02
1.98
6.03
8.94
10.83
11.9
12.42
12.65
12.63
12.37
11.87
10.99
9.7
7.98
5.88
3.64
1.68
0.36
-0.1
0.36
1.35
2.42
3.1
3.16
2.63
1.8
0.91
0.21
-0.21
-0.46
-0.75
-1.32
-2.41
-4.12
-6.43
-9.16
-11.88
-14.17
-15.71
-16.43
-16.44
-16.05
-15.45
-14.79
-13.98
-12.77
-10.9
-8.28
-4.98
-1.13
2.95
7.09
11.12
14.92
18.31
21.11
23.06
24.02
24.05
23.35
22.25
21.05
19.94
18.98
18.21
17.73
17.68
18.19
19.26
20.59
21.88
22.73
22.99
22.72
22.07
21.26
20.42
19.49
18.26
16.47
13.81
10.09
5.28
-0.56
-7.21
-14.29
-21.4
-28.1
-34.05
-39.01
-42.9
-45.76
-47.69
-48.79
-49.06
-48.29
-46.28
-42.81
-37.9
-31.98
-25.71
-19.84
-14.95
-11.38
-9.1
-7.86
-7.34
-7.23
-7.53
-8.12
-8.87
-9.61
-10.11
-10.29
-10.14
-9.69
-9.07
-8.49
-8
-7.52
-6.96
-6.26
-5.36
-4.51
-3.87
-3.66
-3.9
-4.45
-5.14
-5.78
-6.36
-6.96
-7.87
-9.22
-11.02
-13.03
-15
-16.89
-18.65
-20.27
-21.68
-22.71
-22.82
-21.66
-18.74
-14.07
-8.13
-1.63
4.59
9.87
13.76
16.32
17.77
18.57
19.11
19.56
19.99
20.3
20.48
20.55
20.61
20.72
20.88
21.08
21.27
21.49
21.62
21.71
21.73
21.59
21.09
19.97
18.02
15.06
11.14
6.25
0.64
-5.38
-11.45
-17.32
-22.81
-27.76
-32.29
-36.39
-40.08
-43.18
-45.18
-45.43
-43.49
-39.12
-32.54
-24.54
-16.04
-7.96
-0.98
4.65
8.97
12.16
14.39
15.94
16.92
17.56
18.03
18.52
19.14
19.95
20.92
21.88
22.68
23.05
22.87
22.03
20.67
18.99
17.22
15.45
13.63
11.55
8.99
6.14
3.19
0.47
-1.76
-3.5
-5.06
-6.88
-9.48
-13.11
-17.58
-22.39
-26.76
-29.81
-30.82
-29.32
-25.34
-19.3
-11.97
-4.22
3.12
9.49
14.56
18.25
20.76
22.19
22.83
22.64
21.68
19.92
17.49
14.72
11.98
9.73
8.17
7.4
7.3
7.69
8.34
9
9.56
9.79
9.55
8.57
6.76
4.07
0.57
-3.38
-7.4
-11.02
-13.91
-16.03
-17.62
-18.95
-20.26
-21.45
-22.08
-21.68
-19.78
-16.4
-11.78
-6.44
-0.92
4.38
9.28
13.65
17.43
20.67
23.32
25.52
27.29
28.6
29.44
29.79
29.65
29.08
28.16
27
25.7
24.32
22.74
20.84
18.48
15.58
12.17
8.47
4.72
1.12
-2.21
-5.4
-8.41
-11.29
-13.94
-16.24
-18.06
-19.42
-20.35
-21.01
-21.66
-22.42
-23.46
-24.67
-25.71
-25.99
-24.88
-21.84
-16.78
-10.01
-2.13
6.02
13.72
20.28
25.26
28.42
29.77
29.49
27.93
25.58
22.84
20.12
17.74
15.83
14.54
13.87
13.79
14.06
14.5
14.83
14.83
14.5
13.73
12.58
11.02
9.1
6.79
4.29
1.87
-0.32
-2.17
-3.79
-5.35
-7.07
-9.05
-11.21
-13.21
-14.7
-15.41
-15.3
-14.68
-13.9
-13.47
-13.85
-15.2
-17.33
-19.84
-22.06
-23.25
-22.94
-20.75
-16.8
-11.62
-5.89
-0.25
4.9
9.46
13.58
17.34
20.76
23.67
25.71
26.69
26.49
25.33
23.59
21.62
19.78
18.26
17.08
16.16
15.56
15.1
14.79
14.6
14.42
14.11
13.53
12.43
10.7
8.52
6.12
3.86
2.04
0.8
-0.03
-0.66
-1.43
-2.43
-3.72
-5.34
-7.34
-9.67
-12.31
-15.15
-17.97
-20.74
-23.23
-25.49
-27.58
-29.43
-30.76
-31.18
-30.29
-27.82
-23.83
-18.54
-12.49
-6.39
-0.83
3.69
6.89
8.69
9.36
9.35
9.3
9.74
10.92
12.76
14.87
16.76
17.98
18.44
18.22
17.69
17.24
17.14
17.49
18.19
19
19.76
20.29
20.42
20
18.93
17.2
14.87
12.15
9.22
6.38
3.76
1.46
-0.59
-2.5
-4.39
-6.32
-8.35
-10.46
-12.58
-14.67
-16.75
-18.79
-20.77
-22.66
-24.26
-25.47
-26.17
-26.25
-25.63
-24.17
-21.68
-18.02
-13.13
-7.14
-0.48
6.28
12.39
17.3
20.61
22.17
22.12
20.73
18.36
15.36
12.12
8.87
5.84
3.17
0.9
-0.82
-1.84
-1.98
-1.2
0.42
2.59
4.88
7.11
9
10.37
11.07
10.92
9.82
7.76
4.91
1.59
-1.66
-4.56
-6.89
-8.76
-10.34
-11.66
-12.78
-13.58
-14.05
-14.13
-14.11
-14.09
-14.34
-14.99
-16.03
-17.56
-19.53
-22
-24.77
-27.55
-29.66
-30.35
-28.95
-25.06
-18.85
-10.86
-2.08
6.42
13.7
19.31
23.11
25.13
25.67
24.85
22.91
20.06
16.45
12.44
8.49
5.1
2.67
1.55
1.77
3.32
6.01
9.48
13.24
16.75
19.35
20.57
20.21
18.24
14.94
10.73
6.06
1.35
-3.07
-7.13
-10.69
-13.59
-15.78
-17.09
-17.41
-16.92
-15.75
-14.34
-13.11
-12.5
-12.7
-13.8
-15.44
-17.09
-18.16
-18.03
-16.48
-13.58
-9.77
-5.5
-1.33
2.58
6.12
9.33
12.35
15.17
17.68
19.54
20.52
20.38
19.25
17.43
15.37
13.5
11.95
10.73
9.58
8.4
7.12
5.91
4.99
4.45
4.19
3.86
3.13
1.84
-0.03
-2.25
-4.6
-6.83
-8.86
-10.77
-12.69
-14.64
-16.67
-18.83
-21.02
-23.15
-24.84
-25.68
-25.35
-23.62
-20.46
-16.25
-11.53
-6.83
-2.63
0.89
3.65
5.68
7.01
7.79
8.09
8.08
8.07
8.22
8.64
9.2
9.63
9.73
9.46
8.92
8.27
7.58
6.75
5.71
4.38
2.79
1.13
-0.34
-1.57
-2.45
-3.13
-3.91
-4.92
-6.27
-8.05
-10.27
-12.9
-15.87
-19
-21.95
-24.5
-26.33
-27.01
-26.34
-24.13
-20.44
-15.52
-9.86
-4
1.41
5.95
9.5
11.95
13.38
13.78
13.28
11.95
10.12
7.93
5.84
4.09
2.85
2.27
2.38
3.23
4.69
6.67
8.66
10.29
11.04
10.46
8.46
5.12
0.76
-4.02
-8.61
-12.56
-15.57
-17.61
-18.93
-19.8
-20.68
-21.9
-23.48
-25.22
-26.77
-27.55
-26.83
-24.09
-18.96
-11.88
-3.71
4.41
11.31
16.2
18.92
19.84
19.51
18.56
17.23
15.82
14.43
13.19
12.3
12
12.43
13.54
15.18
16.88
18.22
18.75
18.16
16.53
14.21
11.51
8.67
5.93
3.17
0.47
-2.14
-4.53
-6.53
-8.24
-9.95
-12.04
-14.65
-17.85
-21.21
-24.39
-26.86
-28.29
-28.44
-27.07
-23.98
-19.01
-12.41
-4.6
3.58
11.34
17.91
22.91
26.29
28.21
29.06
29.09
28.57
27.55
26.06
24.21
22.08
19.88
17.85
16.2
15.1
14.57
14.33
14.14
13.95
13.7
13.51
13.49
13.61
13.6
13.12
11.78
9.48
6.44
2.97
-0.65
-4.34
-8.11
-12.08
-16
-19.43
-21.82
-22.84
-22.58
-21.5
-20.37
-19.83
-20.11
-20.93
-21.81
-22.08
-21.45
-19.67
-16.71
-12.74
-8.09
-3.12
1.85
6.43
10.52
14.03
16.99
19.43
21.26
22.22
22.19
21.17
19.32
17.24
15.53
14.69
15.06
16.59
18.93
21.54
23.97
25.65
26.35
25.69
23.55
20.01
15.33
10.09
4.88
0.3
-3.23
-5.41
-6.37
-6.38
-5.85
-5.28
-5.11
-5.58
-6.8
-8.63
-10.84
-13.29
-15.88
-18.6
-21.46
-24.46
-27.51
-30.43
-32.88
-34.5
-34.66
-32.97
-29.09
-23.1
-15.56
-7.35
0.48
7.08
11.9
14.9
16.34
16.75
16.59
16.27
15.97
15.68
15.32
14.82
14.35
13.95
13.8
13.83
13.94
13.93
13.79
13.53
13.37
13.59
14.27
15.22
16.17
16.69
16.49
15.47
13.55
10.93
7.98
5.06
2.41
0.2
-1.75
-3.62
-5.71
-8.28
-11.39
-14.86
-18.57
-22.24
-25.61
-28.55
-30.89
-32.58
-33.67
-34.32
-34.55
-34.4
-33.63
-31.95
-29.19
-25.3
-20.44
-15.13
-9.93
-5.33
-1.69
0.98
2.96
4.6
6.34
8.46
11.04
14.07
17.43
20.99
24.64
28.21
31.41
33.95
35.4
35.48
34.21
31.81
28.7
25.37
22.09
18.99
16.15
13.63
11.58
10.2
9.59
9.61
9.93
10.01
9.32
7.57
4.67
0.77
-3.83
-8.89
-14.07
-18.99
-23.31
-26.77
-29.23
-30.79
-31.81
-32.75
-34
-35.57
-37.09
-37.99
-37.57
-35.36
-31.24
-25.47
-18.58
-11.26
-4.16
2.17
7.31
11.05
13.28
14.23
14.16
13.42
12.37
11.3
10.45
9.89
9.74
9.93
10.54
11.56
12.9
14.54
16.31
18.04
19.44
20.31
20.42
19.72
18.3
16.29
13.89
11.24
8.44
5.56
2.64
-0.48
-3.73
-7.15
-10.65
-14.07
-17.45
-20.65
-23.49
-25.79
-27.35
-28.12
-28.17
-27.84
-27.32
-26.74
-25.76
-23.66
-19.91
-14.42
-7.82
-1.14
4.51
8.49
10.71
11.47
11.45
11.18
10.9
10.66
10.4
10.04
9.74
9.32
8.79
8.07
7.12
6.05
5.06
4.36
4
4.09
4.35
4.69
4.96
5
4.78
4.29
3.43
2.16
0.47
-1.64
-4.03
-6.66
-9.54
-12.68
-15.93
-19.18
-22.2
-24.58
-26.18
-27.05
-27.53
-28.23
-29.51
-31.57
-34.18
-36.8
-38.43
-38.45
-36.42
-32.4
-26.97
-20.82
-14.7
-9.12
-4.13
0.59
5.3
10.19
15.19
20.03
24.51
28.52
32.06
35.11
37.71
39.68
40.93
41.44
41.22
40.48
39.26
37.65
35.53
32.95
29.92
26.54
23
19.33
15.73
12.22
8.94
5.87
3.01
0.16
-2.78
-5.87
-9.11
-12.28
-15.28
-17.88
-19.98
-21.54
-22.72
-23.75
-24.95
-26.68
-29.1
-31.94
-34.47
-35.8
-35.25
-32.48
-27.82
-21.95
-15.79
-10.14
-5.28
-1.12
2.56
5.86
8.85
11.27
13
13.8
13.68
12.97
12
11.09
10.52
10.49
11.2
12.75
15.12
18.19
21.59
24.78
27.22
28.57
28.73
27.84
26.15
23.89
21.19
18.08
14.48
10.36
5.81
0.91
-4.03
-8.65
-12.47
-15.2
-16.76
-17.52
-18.09
-19.13
-21.18
-24.24
-27.86
-31.17
-33.23
-33.33
-31.2
-26.96
-21.14
-14.51
-7.94
-2.17
2.34
5.53
7.58
8.82
9.59
10.2
10.73
11.26
11.96
12.99
14.58
16.65
19.01
21.23
23.01
24.06
24.43
24.39
24.2
23.96
23.52
22.66
21.11
18.83
15.91
12.62
9.23
5.87
2.53
-0.97
-4.68
-8.54
-12.38
-15.95
-19.09
-21.71
-23.95
-25.85
-27.59
-29.43
-31.37
-33.41
-35.26
-36.56
-36.75
-35.4
-32.11
-26.79
-19.88
-12.03
-4.13
3.06
8.98
13.45
16.58
18.72
20.15
20.98
21.2
20.59
19.24
17.42
15.56
14.3
14.03
14.85
16.44
18.36
20
21.05
21.42
21.02
20
18.17
15.49
11.97
7.86
3.52
-0.77
-4.78
-8.59
-12.26
-15.83
-19.23
-22.23
-24.64
-26.46
-27.83
-28.84
-29.6
-29.63
-28.54
-25.92
-21.62
-15.9
-9.29
-2.41
4.18
9.8
14.25
17.3
19.08
19.83
19.76
19.1
18
16.59
14.98
13.36
11.9
10.75
9.97
9.49
9.18
8.98
8.99
9.21
9.64
10.15
10.46
10.41
9.77
8.52
6.74
4.67
2.49
0.28
-1.98
-4.56
-7.67
-11.38
-15.6
-20.02
-24.19
-27.65
-30.03
-30.96
-30.25
-27.81
-23.55
-17.66
-10.64
-3.2
3.73
9.38
13.34
15.58
16.36
16.23
15.66
14.98
14.39
13.79
13.1
12.33
11.65
11.29
11.49
12.32
13.68
15.33
16.98
18.28
19.04
19.16
18.68
17.76
16.57
15.21
13.63
11.67
9.08
5.85
1.99
-2.23
-6.43
-10.33
-13.71
-16.53
-18.81
-20.7
-22.38
-24.18
-26.32
-28.8
-31.41
-33.54
-34.4
-33.21
-29.63
-23.8
-16.42
-8.59
-1.3
4.66
9
11.77
13.38
14.06
14.15
14.06
14.01
14.24
14.78
15.55
16.51
17.6
18.82
20.1
21.51
22.86
23.94
24.56
24.63
24.25
23.48
22.4
20.93
19.03
16.63
13.92
11.14
8.7
6.87
5.79
5.28
4.99
4.51
3.36
1.4
-1.37
-4.73
-8.35
-11.88
-15.12
-17.95
-20.37
-22.54
-24.42
-26.04
-27.42
-28.46
-28.97
-28.66
-27.2
-24.26
-19.89
-14.39
-8.44
-2.79
2
5.66
8.39
10.35
11.91
13.19
14.21
14.96
15.49
15.87
16.17
16.51
16.81
17.17
17.59
18.13
18.95
20.09
21.4
22.52
23.12
22.8
21.47
19.22
16.33
13.23
10.29
7.79
5.79
4.37
3.38
2.76
2.28
1.68
0.81
-0.57
-2.58
-5.16
-8.15
-11.48
-14.89
-18.29
-21.69
-24.97
-28.12
-30.89
-33.03
-34.19
-34.19
-32.7
-29.61
-25.1
-19.57
-13.65
-7.92
-2.8
1.57
5.21
8.33
10.94
12.92
14.09
14.28
13.59
12.32
10.87
9.66
8.98
8.88
9.24
10.02
10.99
12.19
13.6
14.99
16.13
16.52
15.77
13.62
10.23
6.01
1.56
-2.54
-5.84
-8.2
-9.67
-10.39
-10.56
-10.34
-9.83
-9.17
-8.61
-8.24
-8.31
-8.98
-10.32
-12.34
-15.06
-18.32
-21.81
-24.83
-26.65
-26.49
-24.01
-19.37
-13.12
-6.24
0.3
5.79
9.85
12.43
13.59
13.59
12.58
10.76
8.52
6.23
4.32
3.11
2.77
3.18
4.2
5.61
7.06
8.5
9.86
11.02
11.96
12.64
12.99
13.02
12.78
12.22
11.47
10.49
9.33
7.93
6.33
4.45
2.23
-0.36
-3.38
-6.71
-10.29
-13.98
-17.65
-21.19
-24.51
-27.48
-29.92
-31.74
-32.8
-33.07
-32.54
-31.09
-28.64
-25.08
-20.42
-14.85
-8.84
-2.79
2.78
7.52
11.26
13.79
15.22
15.66
15.41
14.73
14.01
13.39
12.87
12.41
11.75
10.84
9.68
8.54
7.55
6.88
6.56
6.53
6.8
7.26
7.96
8.82
9.77
10.55
10.8
10.29
8.88
6.65
3.77
0.54
-2.86
-6.41
-10.08
-13.79
-17.25
-20.01
-21.66
-22.05
-21.33
-20.01
-18.79
-18.11
-18.17
-18.8
-19.57
-20.05
-19.87
-18.89
-17.09
-14.59
-11.51
-8.04
-4.43
-0.86
2.37
5.06
7.01
8.21
8.66
8.53
8.04
7.47
7.13
7.26
8
9.17
10.51
11.71
12.47
12.76
12.54
11.93
11.08
10.16
9.36
8.85
8.82
9.26
10.11
11.1
11.95
12.45
12.46
12.03
11.24
10.21
9.01
7.73
6.38
4.94
3.41
1.66
-0.31
-2.42
-4.48
-6.17
-7.01
-6.77
-5.43
-3.15
-0.34
2.65
5.44
7.67
9.05
9.58
9.26
8.31
7.03
5.74
4.68
3.86
3.15
2.33
1.33
0.07
-1.36
-2.9
-4.5
-6.2
-7.96
-9.77
-11.36
-12.45
-12.7
-11.88
-9.96
-7.19
-3.87
-0.33
3.02
5.98
8.21
9.6
9.98
9.43
7.89
5.48
2.31
-1.58
-6.06
-11.09
-16.44
-21.89
-27.01
-31.53
-35.12
-37.52
-38.47
-37.68
-35.05
-30.61
-24.72
-17.99
-11.25
-5.25
-0.54
2.69
4.65
5.67
6.18
6.47
6.63
6.74
6.8
6.85
6.99
7.3
7.81
8.54
9.42
10.27
10.99
11.41
11.58
11.58
11.48
11.32
11.02
10.55
9.82
8.85
7.53
5.87
3.9
1.56
-1.03
-3.79
-6.53
-9.18
-11.7
-14.27
-16.91
-19.59
-22.08
-24.03
-25.01
-24.67
-22.81
-19.52
-15.12
-10.1
-5.02
-0.35
3.52
6.43
8.35
9.36
9.65
9.51
9.15
8.86
8.74
8.79
8.82
8.59
7.87
6.62
5.02
3.37
2
1.2
1.06
1.42
2.1
2.81
3.41
3.92
4.37
4.78
5.23
5.63
5.88
6
5.92
5.64
5.14
4.19
2.61
0.33
-2.65
-6.14
-9.78
-13.26
-16.26
-18.49
-19.81
-20.06
-19.04
-16.69
-12.99
-8.11
-2.63
2.85
7.82
11.75
14.62
16.61
18
19.16
20.25
21.15
21.52
21.21
20.02
18.29
16.43
14.85
13.75
13.01
12.25
11.07
9.43
7.34
5.16
3.14
1.34
-0.34
-1.89
-3.26
-4.23
-4.39
-3.69
-2.2
-0.3
1.46
2.67
2.95
2.28
0.68
-1.6
-4.31
-7.2
-9.99
-12.48
-14.51
-16.15
-17.45
-18.54
-19.38
-19.72
-19.34
-17.9
-15.4
-12.06
-8.22
-4.3
-0.58
2.72
5.5
7.61
9.05
9.66
9.5
8.75
7.8
6.97
6.52
6.51
6.94
7.87
9.21
11
13.1
15.41
17.62
19.4
20.52
20.85
20.48
19.57
18.32
16.82
15.14
13.31
11.28
9.16
7.06
5.03
3.14
1.31
-0.58
-2.71
-5.02
-7.38
-9.45
-10.94
-11.69
-11.69
-11.22
-10.72
-10.62
-11.19
-12.3
-13.48
-14.27
-14.33
-13.47
-11.86
-9.68
-7.29
-4.82
-2.25
0.51
3.32
5.83
7.74
8.61
8.35
7.09
5.08
2.78
0.66
-1.02
-2.11
-2.62
-2.67
-2.47
-2.07
-1.73
-1.53
-1.58
-1.85
-2.3
-2.98
-4.04
-5.51
-7.33
-9.39
-11.45
-13.25
-14.6
-15.58
-16.47
-17.59
-18.94
-20.27
-21.25
-21.63
-21.28
-20.34
-18.88
-16.85
-14.16
-10.65
-6.52
-2.15
1.93
5.31
7.63
8.99
9.64
9.86
9.82
9.54
8.98
8.21
7.38
6.59
6.05
5.89
6.1
6.58
7.27
8.18
9.3
10.63
12.03
13.13
13.64
13.21
11.72
9.27
6.04
2.27
-1.85
-6.09
-10.43
-14.7
-18.76
-22.49
-25.78
-28.58
-30.79
-32.29
-32.63
-31.45
-28.4
-23.51
-17.1
-9.93
-2.78
3.61
8.82
12.79
15.72
17.94
19.63
20.94
21.9
22.6
23.1
23.51
23.92
24.32
24.54
24.27
23.34
21.69
19.49
16.87
13.99
10.91
7.61
4
0.21
-3.64
-7.35
-10.7
-13.56
-15.9
-17.63
-18.83
-19.64
-20.33
-21.21
-22.69
-24.93
-27.68
-30.54
-32.67
-33.39
-32.07
-28.54
-22.99
-16.13
-8.83
-1.88
3.9
8.21
11.01
12.68
13.61
14.31
15.06
16.08
17.47
19.15
21.04
22.95
24.75
26.13
26.92
26.99
26.25
24.84
22.86
20.64
18.39
16.24
14.26
12.35
10.45
8.41
6.31
4.04
1.64
-0.84
-3.42
-6.16
-8.94
-11.59
-14.1
-16.33
-18.51
-20.77
-23.27
-25.91
-28.44
-30.32
-31.1
-30.49
-28.36
-25
-20.82
-16.25
-11.64
-7.24
-3.02
1.02
4.97
8.88
12.62
15.97
18.7
20.65
21.84
22.39
22.4
21.87
20.84
19.21
16.93
14.21
11.47
9.09
7.51
6.91
7.2
8.28
9.89
11.82
13.93
16.04
17.66
18.44
18
16.03
12.64
7.98
2.46
-3.45
-9.3
-14.81
-19.66
-23.85
-27.44
-30.48
-33.15
-35.36
-36.8
-36.96
-35.37
-31.77
-26.4
-19.84
-12.83
-6.21
-0.53
4.06
7.62
10.35
12.49
14.12
15.26
16.04
16.47
16.65
16.75
16.73
16.65
16.51
16.32
16.04
15.79
15.51
15.22
14.89
14.46
13.87
13.27
12.72
12.3
12.09
12.03
12.01
11.88
11.53
10.77
9.46
7.42
4.58
0.98
-3.24
-7.91
-12.84
-17.91
-23.06
-28.22
-33.11
-37.42
-40.66
-42.33
-42.04
-39.57
-34.97
-28.52
-20.84
-12.78
-5.26
1
5.67
8.78
10.67
11.72
12.32
12.74
13.01
13.07
13.04
13.07
13.29
13.85
14.75
15.82
16.94
18.01
18.82
19.44
20
20.44
20.7
20.54
19.64
17.82
15.21
12.1
8.89
6.02
3.61
1.63
-0.09
-1.79
-3.53
-5.32
-7.08
-8.84
-10.6
-12.45
-14.3
-16.06
-17.75
-19.47
-21.44
-23.94
-27.06
-30.63
-34.32
-37.33
-38.9
-38.47
-35.82
-31.27
-25.52
-19.44
-13.74
-8.88
-4.88
-1.51
1.41
3.92
5.87
7.02
7.26
6.69
5.72
4.86
4.63
5.3
7.05
9.78
13.16
16.85
20.53
23.97
27.04
29.67
31.6
32.76
32.9
31.7
29.11
25.19
20.2
14.58
8.59
2.46
-3.6
-9.55
-15.31
-20.69
-25.53
-29.8
-33.51
-36.8
-39.68
-41.94
-43.22
-43.06
-40.89
-36.5
-30.07
-22.12
-13.41
-4.86
2.84
9.23
14.01
17.5
19.93
21.77
23.46
25.18
26.74
28.06
28.9
29.21
29.09
28.62
27.87
27.16
26.72
26.71
27.45
28.95
30.93
32.84
34
33.89
32.51
29.99
26.57
22.48
17.75
12.3
6.24
-0.05
-6.05
-11.06
-14.72
-16.97
-18.01
-18.32
-18.54
-19.05
-20.28
-22.58
-25.98
-30.2
-34.66
-38.25
-40.11
-39.55
-36.28
-30.59
-23.17
-14.83
-6.32
1.72
9.04
15.35
20.5
24.45
27.28
29.07
29.99
30.23
29.8
28.96
27.93
26.87
26.01
25.41
24.87
24.17
23.22
21.89
20.45
19.07
17.78
16.62
15.42
14.16
12.76
11.34
9.93
8.42
6.69
4.49
1.6
-2.09
-6.36
-10.92
-15.4
-19.51
-23.12
-26.14
-28.63
-30.76
-32.73
-34.51
-36.03
-37.11
-37.52
-36.73
-34.28
-29.98
-23.98
-17.05
-10.06
-3.93
0.76
3.92
5.9
7.35
8.72
10.34
12.26
14.3
16.2
17.85
19.08
19.78
20.04
19.84
19.11
17.93
16.36
14.56
12.95
11.81
11.25
11.18
11.25
11.09
10.48
9.54
8.54
7.83
7.62
7.63
7.37
6.2
3.76
0.03
-4.62
-9.6
-14.4
-18.72
-22.44
-25.65
-28.45
-30.82
-32.9
-34.89
-36.84
-38.58
-39.76
-39.73
-37.77
-33.41
-26.77
-18.57
-10.01
-2.2
4.3
9.3
13.04
15.96
18.26
19.96
20.87
20.93
20.22
18.98
17.66
16.53
15.88
15.68
15.89
16.29
16.82
17.4
17.91
18.34
18.55
18.4
17.76
16.66
15.2
13.66
12.15
10.8
9.55
8.26
6.84
5.01
2.67
-0.17
-3.46
-6.97
-10.46
-13.74
-16.76
-19.62
-22.59
-25.99
-29.83
-33.89
-37.6
-40.13
-40.71
-38.85
-34.47
-28.09
-20.53
-12.71
-5.37
0.99
6.12
10.12
13.01
15.08
16.52
17.64
18.63
19.54
20.29
20.71
20.7
20.21
19.32
18.2
17.07
16.07
15.32
14.97
15.14
15.83
16.79
17.72
18.17
17.81
16.47
14.26
11.54
8.55
5.38
1.89
-2.05
-6.52
-11.4
-16.36
-20.95
-24.72
-27.54
-29.45
-30.69
-31.55
-32.44
-33.65
-35.31
-37.29
-39.02
-39.76
-38.59
-34.88
-28.63
-20.35
-11.09
-2.1
5.69
11.82
16.26
19.24
21.1
21.85
21.63
20.6
18.96
17.07
15.45
14.4
13.99
14.25
14.87
15.77
16.87
18.13
19.38
20.41
20.83
20.28
18.73
16.22
13.05
9.47
5.68
1.79
-2.2
-6.18
-10.05
-13.62
-16.83
-19.64
-22.07
-24.11
-25.7
-26.85
-27.63
-28.33
-29.23
-30.61
-32.37
-34
-34.69
-33.64
-30.28
-24.63
-17.43
-9.66
-2.49
3.34
7.68
10.75
13
14.85
16.67
18.41
19.99
21.18
21.82
21.89
21.42
20.6
19.65
18.96
18.57
18.55
18.79
19.1
19.42
19.75
20.16
20.63
21.08
21.15
20.63
19.27
16.87
13.54
9.32
4.46
-0.73
-5.89
-10.76
-15.07
-18.8
-22.17
-25.38
-28.7
-32.18
-35.69
-38.82
-41
-41.54
-39.72
-35.23
-28.03
-18.64
-8.06
2.49
11.91
19.37
24.51
27.4
28.25
27.51
25.49
22.61
19.17
15.52
11.97
8.76
6.13
4.18
3.02
2.49
2.56
3
3.65
4.31
4.81
5.09
5.02
4.63
3.85
2.67
1.19
-0.59
-2.64
-4.96
-7.46
-10.04
-12.44
-14.39
-15.84
-16.75
-17.34
-17.86
-18.62
-19.62
-20.58
-21.04
-20.36
-18.05
-13.88
-8.08
-1.02
6.53
13.85
20.29
25.37
28.87
30.64
30.78
29.39
26.84
23.51
19.72
15.91
12.32
9.36
7.14
5.83
5.45
5.92
7.1
8.67
10.42
12.16
13.94
15.75
17.45
18.69
18.92
17.59
14.44
9.73
3.95
-2.12
-7.86
-13.01
-17.53
-21.67
-25.49
-29.13
-32.4
-35.28
-37.66
-39.35
-40.11
-39.43
-37.02
-32.43
-25.73
-17.3
-8.03
1.06
9.05
15.27
19.63
22.29
23.8
24.57
24.91
24.78
24.12
22.71
20.46
17.59
14.45
11.56
9.26
7.75
6.95
6.66
6.58
6.44
6.14
5.57
4.76
3.59
1.93
-0.19
-2.77
-5.64
-8.54
-11.32
-13.84
-16.07
-17.9
-19.22
-19.87
-19.74
-19.02
-18.17
-17.75
-18.4
-20.29
-23.16
-26.23
-28.67
-29.63
-28.56
-25.34
-20.16
-13.53
-6.09
1.43
8.48
14.56
19.42
23.03
25.46
26.8
27.22
26.89
25.81
24.34
22.64
21.12
20.1
19.8
20.25
21.33
22.82
24.35
25.8
26.91
27.63
27.75
27.02
25.18
22.02
17.6
12.22
6.35
0.42
-5.19
-10.33
-15.01
-19.31
-23.4
-27.29
-31.05
-34.52
-37.73
-40.62
-43.21
-45.65
-47.96
-50.23
-52.37
-54.25
-55.58
-56.18
-55.76
-53.91
-50.32
-44.59
-36.66
-26.8
-15.93
-5.13
4.34
11.56
16.07
18.01
18.01
16.91
15.51
14.32
13.61
13.46
13.85
14.82
16.44
18.76
21.72
25.08
28.52
31.74
34.57
36.89
38.79
40.21
41.05
41.31
40.95
40
38.53
36.58
34.14
31.44
28.64
25.87
23.36
21.17
19.22
17.37
15.35
12.91
9.83
5.9
0.97
-4.92
-11.73
-19.32
-27.4
-35.61
-43.42
-50.13
-55.02
-57.66
-57.79
-55.63
-51.73
-46.54
-40.5
-33.91
-27.01
-20.11
-13.89
-8.96
-5.97
-5.11
-6.02
-8.13
-10.71
-13.01
-14.58
-15.13
-14.45
-12.54
-9.41
-5.25
-0.58
4
8.07
11.07
12.81
13.33
12.84
11.66
10.3
8.98
7.78
6.68
5.12
2.59
-1.26
-6.52
-12.93
-19.86
-26.7
-32.98
-38.34
-42.72
-46.29
-49.11
-51.44
-53.43
-55.09
-56.35
-57.05
-56.96
-55.72
-53.04
-48.6
-42.43
-34.66
-25.66
-15.92
-6.04
3.47
12.27
20.13
26.97
32.56
36.88
39.88
41.59
42.08
41.51
40.09
38.04
35.82
33.78
32.26
31.47
31.31
31.55
32.02
32.66
33.48
34.59
35.84
36.67
36.48
34.78
31.34
26.47
20.66
14.5
8.39
2.57
-2.99
-8.2
-12.85
-16.71
-19.62
-21.47
-22.22
-21.71
-19.76
-16.22
-10.99
-4.35
3.22
10.95
18.14
24.14
28.64
31.6
33.14
33.39
32.39
30.27
27.15
23.37
19.29
15.36
12.07
9.66
8.13
7.27
6.93
7.06
7.79
9.23
11.3
13.8
16.12
17.61
17.75
16.28
13.41
9.56
5.18
0.55
-4.21
-9.16
-14.23
-19.14
-23.55
-26.86
-28.6
-28.42
-26.22
-22.04
-16.24
-9.34
-1.93
5.21
11.49
16.39
19.77
21.7
22.52
22.6
22.32
22.03
21.81
21.69
21.43
20.76
19.53
17.66
15.18
12.19
8.83
5.12
1.27
-2.61
-6.26
-9.32
-11.58
-12.95
-13.58
-13.71
-13.63
-13.47
-13.26
-13.01
-12.84
-12.99
-13.78
-15.42
-17.81
-20.49
-22.76
-23.77
-22.96
-20.17
-15.66
-9.95
-3.77
2.23
7.48
11.63
14.56
16.3
17.09
17.17
16.93
16.58
16.36
16.34
16.63
17.3
18.4
19.93
21.79
23.72
25.41
26.63
27.19
27.02
26.23
24.9
23.11
21.14
18.99
16.8
14.63
12.4
10.01
7.34
4.15
0.31
-4.1
-9.14
-14.68
-20.52
-26.39
-31.82
-36.29
-39.38
-40.86
-40.7
-39.22
-36.93
-34.36
-32.01
-30.19
-29.06
-28.75
-29.19
-30.11
-31.09
-31.59
-31.06
-29.39
-26.47
-22.39
-17.34
-11.37
-4.57
2.87
10.79
18.86
26.52
33.39
39.04
43.13
45.5
46.18
45.39
43.54
41.09
38.28
35.22
31.77
27.66
22.65
16.66
9.84
2.48
-5.04
-12.42
-19.48
-26.23
-32.84
-39.58
-46.64
-54.15
-61.86
-69.11
-75.02
-78.46
-78.49
-74.49
-66.47
-54.93
-40.91
-25.68
-10.28
4.53
18.8
33.18
48.69
66.11
85.34
105.21
123.52
137.94
146.46
148.13
143.2
132.72
118.08
100.67
81.72
62.19
43.24
25.8
10.68
-1.59
-11.08
-18.19
-23.45
-27.42
-30.67
-33.32
-35.56
-37.41
-38.79
-39.76
-40.3
-40.49
-40.44
-40.42
-40.57
-40.98
-41.71
-42.62
-43.67
-44.68
-45.34
-45.21
-43.72
-40.26
-34.58
-26.96
-17.94
-8.5
0.42
8.08
14.07
18.36
21.18
22.82
23.5
23.57
23.2
22.55
21.97
21.64
21.85
22.74
24.22
26.04
27.89
29.31
29.93
29.65
28.41
26.41
23.94
21.05
17.83
14.2
10.04
5.25
-0.18
-6.15
-12.39
-18.52
-24.21
-29.09
-33.08
-36.27
-38.94
-41.41
-43.86
-46.24
-48.21
-49.5
-49.57
-48.23
-45.23
-40.58
-34.45
-27.28
-19.74
-12.29
-5.51
0.5
5.75
10.43
14.74
18.81
22.57
25.75
28.22
29.89
30.82
31.27
31.48
31.62
31.68
31.42
30.56
28.86
26.35
23.16
19.48
15.41
10.99
6.06
0.65
-5.19
-11.16
-16.84
-21.83
-25.81
-28.81
-30.86
-32.08
-32.45
-31.99
-30.65
-28.55
-25.88
-22.76
-19.18
-14.93
-9.71
-3.41
3.8
11.53
19.12
25.95
31.58
35.85
38.72
40.42
41.11
41.01
40.35
39.41
38.33
37.32
36.45
35.55
34.54
33.1
31.12
28.68
26.03
23.42
21.11
19.17
17.48
15.9
14.13
12.02
9.54
6.74
3.61
0.31
-3.02
-6.25
-9.12
-11.6
-13.66
-15.37
-17.01
-18.84
-21.02
-23.57
-26.28
-28.57
-30
-29.92
-27.86
-23.79
-17.85
-10.65
-3.02
4.16
10.33
14.98
18.05
19.69
19.98
19.18
17.53
15.2
12.43
9.63
6.96
4.51
2.33
0.26
-1.75
-3.77
-5.92
-8.19
-10.45
-12.67
-14.86
-16.95
-18.95
-20.7
-22.13
-23.27
-24.07
-24.64
-25.18
-25.87
-26.77
-27.86
-29.01
-30.06
-30.99
-31.6
-31.72
-31.28
-30.35
-29.02
-27.49
-25.76
-23.53
-20.41
-15.85
-9.55
-1.91
6.25
13.78
19.58
23.05
24.21
23.39
21.15
17.98
14.12
9.8
5.15
0.43
-3.88
-7.28
-9.65
-11.06
-11.9
-12.59
-13.45
-14.67
-16.16
-17.61
-18.62
-19.03
-18.8
-18.04
-16.9
-15.5
-13.97
-12.25
-10.33
-8.12
-5.71
-3.16
-0.73
1.44
3.2
4.42
5.03
4.72
3.07
-0.33
-5.65
-12.85
-21.23
-29.62
-36.75
-41.33
-42.62
-40.49
-35.32
-27.95
-19.46
-10.8
-2.66
4.45
10.4
15.19
18.99
21.99
24.35
26.22
27.87
29.54
31.27
33.18
35.09
36.83
38.3
39.36
40.12
40.72
41.2
41.28
40.68
38.95
35.85
31.39
25.82
19.63
13.44
7.85
3.23
-0.23
-2.74
-4.6
-6.19
-7.72
-9.28
-10.81
-12.24
-13.63
-15.12
-17.08
-19.65
-22.94
-26.78
-30.8
-34.54
-37.41
-38.8
-38.16
-35.26
-30.2
-23.55
-16.15
-8.93
-2.62
2.43
6.12
8.7
10.47
11.7
12.54
13.12
13.51
13.73
14.06
14.62
15.55
16.92
18.57
20.14
21.22
21.55
21.01
19.89
18.39
16.73
15.01
13.26
11.51
9.85
8.42
7.29
6.48
5.78
5.02
3.95
2.56
0.84
-1.12
-3.26
-5.49
-7.78
-10.16
-12.62
-15.15
-17.61
-19.56
-20.37
-19.41
-16.15
-10.68
-3.52
4.4
11.99
18.51
23.64
27.41
30.08
31.91
32.85
32.9
31.85
29.72
26.58
22.74
18.51
14.26
10.21
6.36
2.82
-0.45
-3.41
-6.06
-8.35
-10.23
-11.66
-12.58
-13.07
-13.16
-12.96
-12.73
-12.7
-13.05
-13.92
-15.42
-17.55
-20.21
-23.1
-25.96
-28.56
-30.73
-32.59
-34.33
-36.13
-38.02
-39.66
-40.49
-39.89
-37.46
-33.07
-27.09
-20.1
-12.75
-5.56
1.07
6.88
11.71
15.51
18.36
20.45
22.01
23.27
24.36
25.25
25.81
25.94
25.68
25.08
24.23
23.18
21.89
20.27
18.44
16.51
14.58
12.9
11.56
10.62
10.07
9.71
9.36
8.83
7.94
6.5
4.4
1.64
-1.62
-5.07
-8.52
-11.54
-13.95
-15.53
-16.43
-16.96
-17.65
-18.96
-21.07
-24
-27.25
-30.09
-31.63
-31.11
-28.07
-22.72
-15.83
-8.37
-1.49
4.07
7.93
10.15
11.12
11.35
11.19
10.78
10.2
9.49
8.75
8.1
7.69
7.58
7.81
8.3
8.89
9.51
10.26
11.26
12.58
13.97
14.98
15.22
14.45
12.73
10.38
7.87
5.49
3.47
1.75
0.25
-1.08
-2.37
-3.79
-5.73
-8.52
-12.38
-17.23
-22.66
-28.19
-33.19
-37.24
-40.09
-41.68
-41.99
-41.17
-39.21
-36.13
-31.88
-26.22
-19
-10.23
-0.2
10.49
20.97
30.52
38.53
44.62
48.75
50.89
51.06
49.38
45.98
41.18
35.35
29.11
22.93
17.4
12.97
9.94
8.33
7.99
8.45
9.29
10.22
10.93
11.39
11.46
11.25
10.68
9.78
8.4
6.49
4.19
1.7
-0.58
-2.43
-3.67
-4.54
-5.39
-6.66
-8.52
-10.71
-12.89
-14.71
-16.03
-17.08
-18.17
-19.59
-21.47
-23.7
-26.01
-28.15
-29.81
-30.67
-30.27
-28.25
-24.36
-18.58
-11.39
-3.57
3.94
10.27
14.94
17.91
19.42
19.91
19.84
19.43
18.7
17.6
16.1
14.23
12.1
9.81
7.58
5.58
3.83
2.3
0.93
-0.3
-1.45
-2.47
-3.43
-4.28
-5.02
-5.85
-6.83
-8.11
-9.71
-11.62
-13.62
-15.55
-17.05
-17.7
-17.17
-15.12
-11.51
-6.36
-0.01
7.17
14.48
21.21
26.7
30.27
31.52
30.01
25.63
18.53
9.42
-0.76
-10.75
-19.28
-25.43
-28.68
-29.12
-27.21
-23.55
-18.85
-13.67
-8.56
-3.96
-0.27
2.27
3.59
3.86
3.56
3.02
2.71
2.76
3.27
4.11
5.18
6.46
7.83
9.34
10.85
12.31
13.59
14.75
15.8
16.84
17.92
18.91
19.77
20.5
21.28
22.32
23.86
26.01
28.68
31.85
35.39
39.33
43.78
48.92
54.59
60.4
65.83
70.04
72.41
72.52
70.2
65.67
59.42
52.07
44
35.49
26.49
16.99
7.07
-2.79
-12.02
-20.25
-27.49
-34.38
-41.93
-51.25
-63.09
-77.8
-95.11
-114.34
-134.45
-153.96
-170.97
-183.39
-189.32
-187.48
-177.7
-160.88
-138.68
-113.27
-86.86
-61.47
-38.53
-19.05
-3.33
8.72
17.55
23.78
28.05
30.82
32.36
32.93
32.68
31.92
30.81
29.45
27.81
25.75
23.19
20.17
16.97
13.97
11.78
10.96
11.77
14.15
17.64
21.45
24.77
26.94
27.51
26.49
24.19
21.08
17.77
14.69
12.06
10.04
8.63
7.77
7.52
7.93
8.97
10.61
12.61
14.57
16.27
17.65
18.8
19.94
21.08
22.07
22.68
22.66
21.83
20.2
17.85
14.82
11.1
6.63
1.43
-4.27
-10.08
-15.47
-20.03
-23.72
-26.78
-29.56
-32.32
-34.92
-36.66
-36.83
-34.71
-30.02
-23.15
-14.91
-6.21
2.02
9.1
14.79
19
21.87
23.64
24.56
24.82
24.5
23.55
22.02
20.05
17.88
15.73
13.82
12.32
11.35
10.74
10.18
9.38
8.17
6.46
4.41
2.22
-0.08
-2.36
-4.72
-7.36
-10.32
-13.6
-17.06
-20.35
-23.18
-25.39
-26.9
-27.79
-28.31
-28.65
-29
-29.3
-29.26
-28.5
-26.66
-23.41
-18.64
-12.41
-5.02
3.1
11.64
20.28
28.97
37.49
45.76
53.5
60.41
66.14
70.18
72.15
71.67
68.58
63
55.41
46.5
37.11
28.06
19.94
13.17
7.87
3.88
0.95
-1.26
-3.18
-5.15
-7.45
-10.21
-13.31
-16.51
-19.57
-22.3
-24.7
-26.98
-29.44
-32.34
-35.9
-39.85
-43.79
-47
-48.79
-48.68
-46.37
-41.97
-35.9
-28.81
-21.26
-13.8
-6.83
-0.53
4.94
9.54
13.28
16.13
17.97
18.8
18.5
17.14
15.04
12.56
10.17
8.25
7.07
6.58
6.76
7.26
7.95
8.67
9.23
9.37
8.8
7.5
5.46
2.85
-0.04
-2.9
-5.47
-7.62
-9.39
-10.85
-12.23
-13.66
-15.31
-17.02
-18.49
-19.21
-18.74
-16.77
-13.27
-8.69
-3.5
1.7
6.61
11.16
15.5
19.85
24.44
29.2
33.8
37.8
40.72
42.22
42.04
40.11
36.43
31.11
24.35
16.63
8.49
0.49
-6.82
-13.2
-18.66
-23.29
-27.31
-30.85
-33.85
-36.33
-38.23
-39.51
-40.18
-40.34
-40.09
-39.64
-39.05
-38.27
-37.05
-35
-31.69
-26.87
-20.69
-13.57
-6.33
0.34
5.77
9.73
12.36
14.06
15.15
15.96
16.74
17.48
18.25
18.96
19.49
19.74
19.75
19.38
18.72
18
17.26
16.69
16.36
16.15
15.88
15.3
14.15
12.28
9.75
6.65
3.27
0.07
-2.63
-4.45
-5.34
-5.38
-4.89
-4.33
-4.25
-4.98
-6.46
-8.43
-10.22
-11.15
-10.76
-8.89
-5.64
-1.6
2.68
6.65
9.8
11.91
13
13.16
12.77
12.26
11.97
12.16
12.97
14.33
16.24
18.69
21.59
24.97
28.66
32.3
35.49
37.75
38.62
38.06
36.19
33.26
29.59
25.42
20.97
16.41
11.92
7.58
3.55
-0.3
-4.05
-7.82
-11.62
-15.14
-18.07
-20.25
-21.73
-22.63
-23.41
-24.29
-25.4
-26.76
-28.18
-29.37
-30.12
-30.13
-29.02
-26.76
-23.44
-19.41
-15.24
-11.39
-7.99
-5.03
-2.27
0.58
3.69
7.01
10.29
13.2
15.5
17.1
18.1
18.87
19.65
20.57
21.54
22.29
22.41
21.72
20.1
17.58
14.31
10.29
5.5
0.13
-5.43
-10.6
-14.58
-16.62
-16.33
-13.7
-9.26
-3.93
1.36
5.63
8.27
9
7.98
5.6
2.42
-1.17
-4.81
-8.39
-11.94
-15.5
-19.14
-22.61
-25.66
-27.71
-28.29
-26.96
-23.8
-19.31
-14.2
-9.33
-5.34
-2.57
-0.96
-0.21
0.15
0.47
1
2.01
3.54
5.56
8
10.65
13.44
16.23
18.88
21.18
23.12
24.44
25.23
25.61
25.72
25.77
25.79
25.63
25
23.89
22.11
19.95
17.69
15.51
13.6
12.02
10.76
9.65
8.69
7.58
6.23
4.56
2.56
0.43
-1.56
-3.08
-4.04
-4.32
-4.09
-3.23
-1.66
0.81
4.57
9.83
16.66
24.54
32.77
40.33
46.46
50.65
52.68
52.64
50.78
47.41
42.73
37.1
30.91
24.66
18.94
14.15
10.49
7.83
5.94
4.46
3.15
1.77
-0.03
-2.43
-5.77
-10.21
-15.84
-22.47
-29.6
-36.59
-42.85
-47.91
-51.48
-53.59
-54.53
-54.74
-54.65
-54.42
-53.93
-52.92
-51.04
-47.97
-43.56
-37.97
-31.53
-24.74
-18.16
-12.12
-6.75
-1.84
3.14
8.77
15.37
23.03
31.32
39.35
46.2
50.88
52.87
52.03
48.67
43.33
36.59
28.95
20.45
11.29
1.37
-9.19
-20.21
-31.35
-42.23
-52.54
-61.86
-69.94
-76.27
-80.6
-82.69
-82.57
-80.44
-76.51
-70.92
-63.62
-54.61
-43.79
-31.24
-17.15
-1.84
14.09
29.87
44.52
57.08
66.58
72.46
74.47
72.79
67.89
60.27
50.53
39.23
27.04
14.76
3.28
-6.41
-13.58
-17.78
-19.09
-18.09
-15.52
-12.23
-8.77
-5.4
-2.16
0.8
3.46
5.73
7.53
8.88
9.77
10.29
10.57
10.78
10.86
10.84
10.75
10.62
10.47
10.28
9.97
9.37
8.24
6.3
3.34
-0.54
-5.07
-9.64
-13.69
-16.75
-18.52
-19.13
-18.88
-18.16
-17.35
-16.71
-16.24
-15.93
-15.79
-15.69
-15.57
-15.29
-14.7
-13.83
-12.77
-11.67
-10.57
-9.47
-7.97
-5.7
-2.29
2.26
7.43
12.46
16.42
18.65
18.77
17.08
13.97
10.17
6.28
2.67
-0.42
-2.93
-4.9
-6.34
-7.19
-7.48
-7.27
-6.72
-5.99
-5.23
-4.45
-3.65
-2.79
-2.07
-1.7
-1.93
-2.84
-4.5
-6.53
-8.67
-10.57
-12.04
-13.12
-13.93
-14.53
-15.01
-15.71
-16.61
-17.81
-19.12
-20.32
-21.23
-21.73
-21.85
-21.74
-21.77
-22.18
-23.05
-24.19
-25.13
-25.37
-24.3
-21.59
-17.22
-11.67
-5.58
0.21
4.93
8.33
10.34
11.24
11.34
10.96
10.23
9.44
8.72
8.16
8.04
8.46
9.51
11.13
13.26
15.72
18.4
20.97
22.94
23.96
23.65
21.91
18.94
15.08
10.71
6.24
1.91
-2.13
-5.55
-8.27
-10.1
-10.91
-10.84
-10.32
-9.71
-9.57
-10.23
-11.7
-14
-16.99
-20.38
-24.02
-27.94
-32.02
-36.15
-39.99
-42.93
-44.52
-44.42
-42.59
-39.36
-35.25
-30.82
-26.62
-22.98
-19.98
-17.76
-16.14
-14.88
-13.65
-12.15
-10.2
-7.82
-5.14
-2.16
0.99
4.41
8.08
11.96
16.05
20.35
24.83
29.41
33.99
38.17
41.47
43.55
44.27
43.91
43.06
42.31
42.05
42.41
43.2
44.11
44.97
45.66
46.23
46.64
46.79
46.33
44.99
42.56
38.92
34.12
28.23
21.3
13.25
4.22
-5.56
-15.75
-25.96
-35.99
-45.72
-55.12
-64.05
-72.23
-79.24
-84.6
-88.16
-89.85
-89.82
-88.23
-85.14
-80.59
-74.38
-66.66
-57.69
-48.01
-38.1
-28.41
-19.07
-10.16
-1.82
5.93
12.75
18.38
22.72
26.03
28.47
30.3
31.63
32.38
32.44
31.71
30.15
27.86
25.13
22.12
19.07
16.25
13.85
11.98
10.64
9.92
10.08
11.39
14.23
18.78
24.96
32.32
40.23
47.89
54.74
60.47
64.87
67.89
69.45
69.37
67.44
63.68
58.13
51.11
42.99
34.2
25.16
16.25
7.74
-0.21
-7.43
-13.9
-19.41
-23.93
-27.18
-28.89
-28.77
-26.87
-23.42
-18.91
-14.12
-9.72
-6.48
-4.96
-5.54
-8.29
-13.16
-19.6
-26.89
-34.18
-40.82
-46.53
-51.32
-55.18
-58.09
-59.65
-59.3
-56.64
-51.57
-44.47
-36.23
-27.85
-19.99
-13.12
-7.31
-2.48
1.44
4.49
6.82
8.45
9.47
10.13
10.7
11.43
12.5
13.89
15.47
16.97
18.09
18.59
18.44
17.76
16.83
15.86
14.83
13.73
12.34
10.6
8.61
6.57
4.61
2.88
1.29
-0.34
-2.05
-3.92
-5.92
-8.02
-10.22
-12.58
-14.98
-17.17
-18.77
-19.22
-18.05
-14.96
-10.03
-3.73
3.22
9.97
15.9
20.73
24.67
28.11
31.59
35.44
39.75
44.33
48.81
52.69
55.51
56.83
56.42
54.15
49.99
44.2
37.17
29.33
21.19
13.05
5.09
-2.6
-9.96
-17.03
-23.78
-30.02
-35.56
-40.03
-43.24
-45.07
-45.6
-45.06
-43.8
-42.12
-40.08
-37.76
-35.05
-32.19
-29.48
-27.21
-25.41
-23.77
-21.63
-18.31
-13.51
-7.32
-0.42
6.41
12.45
17.21
20.49
22.3
22.63
21.44
18.9
15.32
11.26
7.39
4.21
2.03
1.02
1.11
2.15
3.98
6.34
8.87
11.25
13.07
14.13
14.36
13.94
13.01
11.74
10.22
8.27
5.87
3.07
-0.08
-3.4
-6.65
-9.66
-12.16
-13.96
-15.01
-15.35
-15.01
-14.21
-13.06
-11.65
-9.94
-7.67
-4.65
-0.72
4.09
9.55
15.31
20.9
25.88
29.84
32.61
34.29
35.15
35.64
36.07
36.52
36.81
36.66
35.6
33.54
30.61
27.17
23.78
20.63
17.63
14.45
10.72
6.15
0.78
-5.15
-11.32
-17.3
-22.93
-28
-32.32
-35.6
-37.42
-37.39
-35.17
-30.61
-23.82
-15.17
-5.24
5.44
16.34
26.92
36.49
44.17
49.03
50.22
47.36
40.64
30.83
19.11
6.64
-5.58
-16.9
-26.84
-35.29
-42.1
-47.33
-51.06
-53.36
-54.31
-53.81
-51.76
-47.94
-42.35
-35.03
-26.22
-16.32
-5.79
4.75
14.64
23.25
30.09
34.93
37.77
38.81
38.14
35.92
32.26
27.35
21.45
14.86
7.84
0.58
-6.8
-14.2
-21.32
-27.75
-32.99
-36.56
-38.31
-38.41
-37.43
-36.07
-35.15
-35.29
-36.77
-39.65
-43.66
-48.25
-52.65
-56.01
-57.31
-55.75
-51.15
-43.72
-34.39
-24.33
-14.61
-5.87
1.62
7.95
13.33
17.74
21.35
24.22
26.5
28.61
30.88
33.62
37.02
40.97
45.24
49.73
54.28
58.67
62.84
66.44
69.11
70.51
70.35
68.52
65.23
60.75
55.3
49.33
43.05
36.77
30.84
25.42
20.53
16.12
11.95
7.68
3.13
-1.9
-7.47
-13.46
-19.71
-25.84
-31.28
-35.4
-37.65
-37.74
-35.83
-32.59
-28.88
-25.65
-23.58
-22.82
-23.12
-23.95
-24.56
-24.35
-22.97
-20.25
-16.29
-11.3
-5.33
1.45
8.89
16.68
24.31
30.98
36.05
38.8
38.86
36.3
31.5
25.16
18.15
11.15
4.53
-1.48
-7.07
-12.64
-18.41
-24.52
-30.87
-36.98
-42.41
-46.9
-50.29
-52.82
-54.98
-57.1
-59.31
-61.35
-62.49
-61.97
-59.24
-53.91
-46.12
-36.42
-25.71
-15.13
-5.73
1.82
7.22
10.68
12.93
14.61
16.24
17.97
19.31
19.78
19
16.99
14.01
10.64
7.24
3.99
1.07
-1.74
-4.49
-7.23
-10.02
-12.97
-16.22
-19.86
-23.77
-27.41
-30.23
-31.56
-31.02
-28.65
-24.92
-20.67
-16.64
-13.46
-11.2
-9.57
-7.96
-5.61
-1.91
3.58
10.77
19.31
28.41
37.32
45.25
51.59
56.07
58.55
59.41
58.97
57.72
56.06
54.35
52.8
51.43
50.24
49.12
47.98
46.63
44.92
42.7
39.96
36.71
32.88
28.51
23.56
18.02
11.93
5.46
-1.21
-7.85
-14.22
-20.12
-25.36
-29.74
-33.21
-35.81
-37.69
-39
-39.77
-39.68
-38.29
-35.29
-30.57
-24.53
-17.75
-10.99
-4.8
0.5
4.93
8.45
11.11
12.9
13.83
14.04
13.57
12.51
10.83
8.58
5.76
2.6
-0.58
-3.48
-5.74
-7.17
-7.73
-7.46
-6.54
-5.34
-4.29
-3.88
-4.61
-6.74
-10.13
-14.49
-19.27
-23.98
-28.25
-31.93
-34.91
-37.11
-38.46
-38.65
-37.31
-34.14
-28.98
-22.01
-13.75
-5.04
3.15
9.88
14.6
17.24
18.2
18.12
17.71
17.54
17.87
18.74
19.98
21.36
22.6
23.46
23.83
23.55
22.53
20.79
18.41
15.58
12.56
9.57
6.8
4.52
2.9
1.97
1.71
1.9
2.18
2.22
1.75
0.74
-0.73
-2.45
-4.4
-6.55
-9.04
-11.91
-15.12
-18.46
-21.56
-23.87
-24.85
-24.14
-21.51
-17.17
-11.43
-4.8
2.2
9.03
15.36
20.78
24.94
27.65
28.81
28.52
27.1
24.94
22.36
19.64
16.95
14.42
12.19
10.51
9.46
9.09
9.32
9.92
10.52
10.74
10.31
9.17
7.52
5.62
3.75
2.01
0.51
-0.81
-1.94
-2.82
-3.39
-3.76
-4.17
-5.1
-6.97
-9.95
-13.91
-18.46
-23.03
-26.97
-29.67
-30.68
-29.73
-26.89
-22.53
-17.21
-11.52
-5.89
-0.6
4.21
8.4
11.93
14.6
16.34
17.23
17.57
17.79
18.28
19.32
20.93
23.03
25.29
27.4
29.05
30.19
30.82
31.03
31.07
31.12
31.18
31.02
30.23
28.18
24.48
19.01
12.08
4.44
-3.08
-9.84
-15.45
-19.8
-23.11
-25.74
-27.87
-29.63
-31.09
-32.13
-32.64
-32.39
-31.11
-28.58
-24.8
-19.98
-14.6
-9.38
-4.88
-1.5
0.74
2.03
2.68
2.94
2.88
2.42
1.5
0.19
-1.32
-2.61
-3.37
-3.35
-2.32
-0.4
2.16
5.01
7.8
10.11
11.61
12.11
11.5
9.81
7.09
3.46
-0.84
-5.5
-10.21
-14.67
-18.61
-22.03
-24.95
-27.5
-29.78
-31.68
-33.06
-33.69
-33.37
-31.89
-29.23
-25.36
-20.4
-14.64
-8.36
-2.03
3.91
8.98
12.92
15.58
17.05
17.54
17.13
15.92
13.94
11.13
7.6
3.65
-0.27
-3.57
-5.71
-6.56
-6.22
-5.08
-3.75
-2.64
-2.02
-2.04
-2.65
-3.63
-4.96
-6.34
-7.57
-8.38
-8.35
-7.29
-5.06
-1.79
2.36
6.93
11.47
15.39
18.12
19.33
18.98
17.33
15.02
12.79
11.21
10.56
10.87
11.87
13.35
15.02
16.54
17.74
18.28
17.96
16.61
14.24
10.76
6.42
1.34
-4.21
-9.85
-15.25
-20.06
-24.24
-27.74
-30.81
-33.6
-36.27
-38.97
-41.68
-44.33
-46.75
-48.9
-50.6
-51.88
-52.7
-52.95
-52.6
-51.54
-49.75
-47.37
-44.67
-41.94
-39.35
-36.98
-34.67
-32.22
-29.47
-26.31
-22.91
-19.49
-16.31
-13.5
-11.12
-9.12
-7.38
-5.62
-3.53
-0.84
2.64
6.88
11.55
16.24
20.53
24.14
27.04
29.41
31.43
33.25
34.84
36.01
36.68
36.94
37.09
37.44
38.25
39.47
40.98
42.48
43.58
44.08
43.87
43.01
41.45
39.12
36.02
32.21
27.94
23.46
19.14
15.29
12.16
9.92
8.56
8.2
8.68
9.97
11.69
13.51
14.94
15.57
15.37
14.51
13.5
12.73
12.53
12.9
13.72
14.87
16.24
17.88
19.71
21.52
22.87
23.37
22.78
21.02
18.31
14.87
10.78
6.02
0.45
-5.91
-12.79
-19.65
-25.98
-31.12
-34.79
-36.94
-37.86
-38.04
-37.91
-37.81
-37.9
-38.15
-38.16
-37.53
-35.72
-32.45
-27.65
-21.59
-14.88
-8.28
-2.61
1.63
4.33
5.84
6.68
7.37
8.25
9.42
10.78
12.21
13.83
15.74
18.1
20.76
23.34
25.42
26.71
27.19
27.06
26.6
25.76
24.47
22.41
19.42
15.51
10.87
5.97
1.2
-3.13
-6.86
-9.88
-12.18
-13.98
-15.49
-17.1
-19.03
-21.41
-24.28
-27.37
-30.32
-32.6
-33.85
-33.7
-32.19
-29.44
-25.89
-22.17
-18.75
-15.94
-13.68
-11.76
-9.92
-8.22
-6.67
-5.56
-4.98
-4.86
-5
-5.1
-4.94
-4.48
-3.92
-3.49
-3.45
-3.94
-4.89
-6
-6.99
-7.51
-7.39
-6.59
-5.13
-3.17
-0.87
1.63
4.04
6.06
7.44
7.97
7.68
6.57
4.74
2.41
-0.11
-2.63
-4.82
-6.5
-7.45
-7.49
-6.43
-4.2
-0.74
3.81
9.07
14.54
19.56
23.56
26.14
27.2
26.88
25.54
23.65
21.59
19.98
19.16
19.39
20.73
23.01
25.81
28.73
31.34
33.33
34.7
35.38
35.37
34.76
33.63
32.19
30.79
29.65
28.93
28.58
28.24
27.37
25.59
22.64
18.62
13.9
8.89
3.99
-0.65
-5.05
-9.27
-13.12
-16.43
-18.85
-19.95
-19.53
-17.39
-13.43
-7.69
-0.27
8.64
18.51
28.7
38.71
48.08
56.71
64.73
72.33
79.73
86.91
93.64
99.51
104.19
107.41
109
109.1
107.84
105.47
102.13
97.9
92.89
87.29
81.3
75.05
68.72
62.09
54.93
46.88
37.78
27.73
17.09
6.3
-4.35
-14.73
-25.1
-35.65
-46.49
-57.56
-68.77
-80.12
-91.69
-103.81
-116.63
-130.16
-144.02
-157.51
-169.66
-179.45
-185.8
-187.64
-184.13
-174.6
-158.96
-137.74
-112.2
-84.13
-55.65
-28.78
-5.02
14.71
30.21
41.65
49.26
53.4
54.34
52.61
48.96
44.43
40
36.44
34.01
32.28
30.73
28.72
25.88
22.06
17.37
11.81
5.54
-1.16
-7.95
-14.13
-18.96
-21.76
-22.14
-20.13
-16.25
-11.18
-5.78
-0.9
2.89
5.2
5.97
5.45
3.93
1.8
-0.57
-2.95
-5.23
-7.36
-9.51
-11.91
-14.71
-18.1
-22.08
-26.57
-31.41
-36.36
-41.04
-45.22
-48.55
-50.74
-51.52
-50.62
-48
-43.78
-38.24
-31.67
-24.54
-17.21
-10.12
-3.7
1.64
5.51
7.52
7.46
5.25
1.05
-4.89
-12.16
-20.26
-28.57
-36.43
-43.15
-48.03
-50.47
-49.99
-46.52
-40.28
-31.99
-22.49
-12.72
-3.41
4.95
12.1
18.19
23.43
28.29
33.09
38.05
43.15
48.24
52.77
56.16
57.95
57.79
55.71
52.13
47.76
43.57
40.39
38.55
38.06
38.52
39.51
40.74
42.06
43.28
44.24
44.32
43.05
40.19
35.93
30.87
25.6
20.29
14.24
6.51
-3.93
-17.34
-32.92
-49.23
-64.67
-78.01
-88.69
-96.76
-102.39
-105.58
-106.3
-104.52
-100.59
-95.22
-89.23
-83.16
-77.06
-70.41
-62.43
-52.56
-40.68
-27.49
-13.88
-1
10.42
20.22
28.97
37.66
47.42
59.65
75.26
95.05
119.37
147.62
178.2
208.43
234.82
253.71
262.64
260.8
249.38
231.49
210.7
190.4
172.64
157.83
144.97
132.45
118.44
101.67
81.91
59.74
36.62
13.86
-8.04
-29.93
-53.7
-81.49
-114.25
-150.7
-187.41
-219.08
-240.48
-247.77
-239.7
-217.78
-185.7
-148.17
-109.68
-74.17
-44.18
-20.95
-4.73
5.26
10.3
12.34
13.51
15.83
20.38
26.97
34.18
39.42
39.97
33.62
19.7
-0.79
-25.33
-50.89
-74.73
-94.98
-110.87
-122.28
-129.51
-132.81
-132.26
-127.82
-119.66
-108.23
-94.27
-78.82
-62.96
-47.69
-33.92
-22.29
-13.18
-6.55
-2.12
0.71
2.43
3.43
4
4.19
4.05
3.52
2.7
1.56
0.1
-1.77
-4.09
-6.8
-9.79
-12.83
-15.67
-17.93
-19.36
-19.8
-19.21
-17.7
-15.55
-13.04
-10.36
-7.55
-4.41
-0.85
2.99
6.82
10.17
12.59
13.9
14.18
13.79
13.16
12.62
12.3
12.17
12.03
11.48
10.19
7.88
4.56
0.44
-3.98
-7.93
-10.69
-11.67
-10.54
-7.22
-2.09
4.28
11.17
17.8
23.56
28.04
30.99
32.46
32.61
31.68
29.96
27.87
25.67
23.6
21.73
20.03
18.54
17.19
15.94
14.71
13.58
12.44
11.34
10.16
8.9
7.56
6.07
4.4
2.54
0.73
-0.94
-2.31
-3.58
-5.01
-6.89
-9.37
-12.35
-15.58
-18.61
-21.19
-23.19
-24.79
-26.23
-27.77
-29.52
-31.39
-33.11
-34.35
-34.57
-33.36
-30.42
-25.97
-20.35
-14.19
-8.24
-3.02
0.95
3.54
4.86
5.2
4.75
3.88
2.74
1.43
0.11
-1.2
-2.37
-3.24
-3.53
-3.14
-1.86
0.24
3.01
6.24
9.59
12.82
15.7
17.93
19.34
19.7
18.98
17.36
15.35
13.41
12
11.38
11.37
11.68
11.81
11.41
10.49
9.23
7.89
6.76
6.03
5.63
5.38
5.01
4.27
3.05
1.48
-0.18
-1.36
-1.52
-0.34
2.32
6.22
10.84
15.61
19.94
23.45
26.09
27.8
28.7
29.04
29.06
28.87
28.56
28.05
27.17
25.88
23.99
21.53
18.62
15.42
11.99
8.41
4.74
0.85
-3.11
-7.09
-10.9
-14.32
-17.2
-19.59
-21.46
-22.92
-24.05
-24.75
-24.93
-24.49
-23.6
-22.64
-22.04
-22.11
-22.92
-24.31
-25.85
-27.16
-28.03
-28.4
-28.64
-29.16
-30.45
-32.71
-35.85
-39.24
-41.98
-43.29
-42.33
-38.9
-33.1
-25.35
-16.11
-5.78
5.47
17.41
29.72
41.91
53.25
63.04
70.72
76.03
79.01
80.07
79.71
78.46
76.66
74.47
71.87
68.73
64.64
59.28
52.48
44.4
35.34
25.81
16.33
7.27
-1.07
-8.8
-15.9
-22.51
-28.55
-34
-38.78
-42.76
-45.96
-48.4
-50.21
-51.61
-52.82
-54.07
-55.39
-56.65
-57.52
-57.42
-55.68
-51.7
-45.2
-36.36
-25.87
-14.49
-3.05
7.71
17.38
25.73
32.61
37.98
41.85
44.3
45.67
46.27
46.51
46.71
47.09
47.75
48.61
49.52
50.29
50.69
50.47
49.58
48.03
45.78
42.77
38.71
33.47
27.06
19.88
12.6
6.03
1.05
-1.93
-2.78
-1.87
0.27
2.8
4.98
6.03
5.49
3.31
-0.18
-4.3
-8.16
-10.85
-11.87
-10.88
-8
-3.6
1.59
6.72
10.96
13.78
14.97
14.73
13.54
12
10.52
9.27
8.18
7.1
6.04
4.93
3.84
2.93
2.31
2.04
2.24
2.95
4.28
6.36
9.02
12.1
15.33
18.39
20.93
22.76
23.67
23.61
22.59
20.58
17.7
14.12
9.9
5.23
0.24
-5
-10.53
-16.38
-22.69
-29.32
-35.96
-42.24
-47.56
-51.32
-53.22
-53.2
-51.46
-48.47
-44.69
-40.48
-36.12
-31.63
-26.98
-22.26
-17.76
-13.71
-10.37
-7.74
-5.59
-3.68
-1.65
0.45
2.61
4.7
6.8
8.87
10.88
12.76
14.28
15.41
16.15
16.74
17.5
18.67
20.07
21.25
21.64
20.61
17.8
13.22
7.09
-0.13
-7.93
-15.84
-23.34
-29.91
-35.34
-39.57
-42.67
-44.91
-46.37
-46.97
-46.26
-43.91
-39.66
-33.86
-27.06
-20.09
-13.62
-8.07
-3.53
0.15
3.02
5.26
6.75
7.46
7.27
6.17
4.32
2.11
-0.01
-1.58
-2.15
-1.61
0.02
2.32
4.79
6.9
8.21
8.4
7.38
5.34
2.62
-0.31
-3.17
-5.69
-7.63
-8.94
-9.5
-9.41
-8.92
-8.45
-8.45
-9.46
-11.86
-15.89
-21.57
-28.63
-36.74
-45.39
-54.08
-61.98
-68.33
-72.47
-74.01
-73.08
-70.07
-65.74
-60.9
-56.21
-52.01
-48.41
-45.34
-42.77
-40.8
-39.42
-38.66
-38.48
-38.61
-38.77
-38.69
-38.15
-37.36
-36.61
-36.08
-35.62
-34.74
-32.82
-29.3
-23.97
-16.79
-8.11
1.73
12.5
24.12
36.28
48.4
59.66
69.12
76.21
80.66
82.74
82.88
81.65
79.44
76.63
73.48
70.25
67.07
63.91
60.5
56.51
51.74
46.63
41.88
38.35
36.39
35.72
35.59
34.86
32.85
29.26
24.54
19.34
14.3
9.58
5.07
0.48
-4.44
-9.6
-14.69
-19.1
-22.26
-23.63
-23.15
-20.93
-17.4
-12.95
-8.02
-2.95
1.9
6.12
9.33
11.17
11.4
10
7.29
3.62
-0.62
-5.17
-9.85
-14.54
-19.15
-23.47
-27.33
-30.55
-33.08
-34.95
-36.25
-37.26
-38.11
-38.91
-39.52
-39.67
-39.04
-37.3
-34.2
-29.64
-23.88
-17.24
-10.26
-3.5
2.7
8.1
12.71
16.67
20.22
23.3
25.86
27.65
28.44
28.26
27.38
26.16
25.03
24.33
24.11
24.36
24.74
24.99
24.87
24.26
23.17
21.85
20.55
19.5
18.83
18.4
17.94
17.27
16.14
14.4
12.03
9.08
5.52
1.49
-2.75
-6.99
-10.96
-14.52
-17.49
-19.61
-20.5
-19.87
-17.43
-13.15
-7.32
-0.51
6.42
12.72
17.75
21.25
23.18
23.89
23.77
23.26
22.78
22.54
22.64
23.02
23.51
23.92
24.23
24.42
24.5
24.66
25.02
25.56
26.07
26.3
25.89
24.69
22.74
20.05
16.92
13.55
9.92
5.94
1.53
-3.23
-8.05
-12.48
-16.21
-19.06
-21
-22.21
-22.86
-23.03
-22.81
-22.19
-21.21
-19.82
-17.92
-15.27
-11.64
-6.81
-0.86
5.78
12.42
18.35
22.92
25.96
27.58
28.17
28.18
27.85
27.29
26.45
25.41
24.31
23.58
23.59
24.6
26.58
29.18
31.92
34.35
36.26
37.62
38.73
39.82
41.04
42.19
42.9
42.54
40.65
36.95
31.52
24.77
17.33
9.93
3.24
-2.21
-6.14
-8.44
-9.3
-8.93
-7.57
-5.26
-2.04
2.36
8.08
15.02
22.88
31.18
39.38
46.99
53.76
59.44
64.04
67.46
69.7
70.69
70.51
69.16
66.55
62.65
57.45
51.13
43.94
36.31
28.56
21.12
14.34
8.5
3.8
0.23
-2.33
-4.19
-5.77
-7.39
-9.27
-11.42
-13.6
-15.58
-17.29
-18.71
-19.86
-21.02
-22.34
-24.16
-26.63
-29.75
-33.28
-36.85
-39.84
-41.68
-42.07
-41.01
-38.97
-36.39
-33.7
-30.96
-28.03
-24.73
-21.09
-17.46
-14.28
-12.1
-11.12
-11.25
-12.13
-13.31
-14.57
-15.84
-17.25
-18.64
-19.92
-20.94
-21.7
-22.4
-23.3
-24.82
-27.19
-30.57
-34.81
-39.78
-45.24
-50.96
-56.66
-61.95
-66.54
-70.28
-73.16
-75.18
-76.44
-76.8
-76.09
-74.08
-70.44
-64.97
-57.6
-48.49
-38.24
-27.64
-17.6
-8.92
-2.17
2.49
5.03
5.78
4.97
2.85
-0.43
-4.71
-9.82
-15.37
-20.82
-25.44
-28.31
-28.89
-26.96
-22.88
-17.24
-10.93
-4.64
1.08
5.87
9.59
12.11
13.32
13.02
11.24
8.05
3.6
-2.01
-8.81
-16.68
-25.52
-35.11
-44.78
-53.86
-61.53
-67.11
-70.2
-70.67
-68.64
-64.51
-58.62
-51.1
-42.19
-31.84
-20.17
-7.4
5.96
19.22
31.5
42.19
51
57.9
63.26
67.43
70.71
73
74.17
74.14
73.11
71.36
69.17
66.78
64.29
61.51
58.37
54.89
51.22
47.67
44.36
41.33
38.47
35.49
31.97
27.67
22.61
16.91
11.05
5.3
-0.02
-4.9
-9.56
-14.15
-18.68
-22.94
-26.63
-29.35
-31.06
-31.8
-31.87
-31.64
-31.24
-30.73
-30.09
-29.3
-28.24
-26.86
-24.95
-22.2
-18.51
-13.91
-8.86
-3.93
0.18
3.07
4.71
5.51
6.12
7
8.4
10.18
12.02
13.56
14.61
15.14
15.32
15.39
15.42
15.47
15.43
15.1
14.42
13.41
12.15
10.77
9.27
7.7
6.05
4.32
2.57
0.89
-0.67
-2.2
-3.9
-5.96
-8.51
-11.48
-14.92
-18.63
-22.5
-26.32
-29.85
-32.83
-35.04
-36.42
-36.86
-36.29
-34.45
-31.09
-26.02
-19.33
-11.36
-2.84
5.35
12.32
17.44
20.31
20.8
19.12
15.77
11.37
6.65
2.29
-1.13
-3.25
-4.03
-3.61
-2.43
-0.73
1.19
3.31
5.65
8.21
10.76
12.89
14.18
14.27
13.19
11.21
9
7.12
5.82
5.05
4.34
3.28
1.52
-1.05
-4.31
-7.96
-11.76
-15.59
-19.16
-22.21
-24.4
-25.53
-25.58
-24.84
-23.72
-22.56
-21.45
-20.14
-18.1
-14.76
-9.97
-3.95
2.59
8.65
13.44
16.59
18.07
18.09
17.14
15.46
13.22
10.6
7.72
4.67
1.72
-1.03
-3.61
-5.92
-7.88
-9.4
-10.38
-10.68
-10.49
-10.02
-9.58
-9.42
-9.69
-10.42
-11.49
-12.8
-14.18
-15.41
-16.23
-16.42
-15.71
-14.17
-12.19
-10.19
-8.67
-8.02
-8.24
-8.94
-9.75
-10.31
-10.53
-10.72
-11.29
-12.45
-14.23
-16.22
-17.56
-17.45
-15.44
-11.31
-5.49
1.32
8.41
15.15
20.97
25.61
28.91
30.84
31.63
31.53
30.9
29.95
28.87
27.63
26.23
24.62
22.93
21.33
19.8
18.36
16.72
14.66
11.98
8.86
5.51
2.33
-0.3
-2.23
-3.32
-3.64
-3.28
-2.58
-1.74
-1.16
-1.17
-1.97
-3.64
-6.09
-9.17
-12.72
-16.66
-20.72
-24.73
-28.41
-31.32
-32.94
-32.75
-30.35
-25.63
-19.02
-11.14
-2.85
4.98
11.93
17.69
22.18
25.52
27.9
29.35
29.92
29.68
28.58
26.9
24.76
22.41
20.05
17.89
15.86
13.98
12.11
10.3
8.74
7.35
6.07
4.63
2.65
-0.3
-4.26
-9.18
-14.76
-20.38
-25.69
-30.29
-33.99
-36.87
-39.21
-41.22
-43.27
-45.58
-48.16
-50.91
-53.52
-55.53
-56.38
-55.55
-52.59
-47.49
-40.61
-32.48
-24
-15.79
-8.22
-1.29
5.15
11.38
17.31
22.79
27.69
31.72
35
37.65
39.84
41.59
42.98
43.77
43.84
43.26
42.11
40.7
39.2
37.68
35.96
33.94
31.49
28.62
25.5
22.28
19.14
16.01
12.64
8.9
4.85
0.72
-3.21
-6.62
-9.61
-12.28
-14.81
-17.28
-19.41
-20.65
-20.47
-18.38
-14.25
-8.54
-1.83
5.08
11.36
16.43
20.08
22.32
23.45
23.92
24.04
24.14
24.28
24.4
24.27
23.81
22.96
21.92
20.96
20.29
20.14
20.54
21.35
22.37
23.33
23.96
24.17
23.9
23.14
22.06
20.66
19
17.08
14.86
12.28
9.48
6.56
3.58
0.6
-2.49
-5.76
-9.33
-13.31
-17.65
-22.32
-27.16
-32.05
-36.76
-40.94
-44.04
-45.48
-44.85
-42.13
-37.75
-32.57
-27.58
-23.48
-20.7
-19.08
-18.11
-17.2
-15.97
-14.2
-11.91
-9.26
-6.18
-2.85
0.65
4.09
7.24
9.81
11.68
12.81
13.3
13.28
12.92
12.35
11.46
10.21
8.37
5.95
3.11
0.23
-2.27
-4.04
-4.95
-5.24
-5.32
-5.67
-6.57
-8.2
-10.46
-13.17
-16.17
-19.27
-22.22
-25.05
-27.7
-30.31
-33.07
-35.96
-38.73
-40.9
-41.63
-40.11
-35.91
-29.06
-20.33
-10.73
-1.31
7.28
14.63
20.77
25.76
29.7
32.66
34.77
36.29
37.49
38.73
40.19
42.02
44.17
46.59
49.2
52.06
55.21
58.64
62.12
65.38
68.15
70.23
71.63
72.39
72.42
71.36
68.7
63.79
56.51
47.18
36.72
26.18
16.4
7.63
-0.24
-7.55
-14.56
-21.17
-27.2
-32.38
-36.62
-39.98
-42.64
-44.58
-45.75
-46.11
-45.82
-45.22
-44.57
-43.85
-42.63
-40.36
-36.58
-31.26
-24.88
-18.41
-12.88
-9.12
-7.44
-7.83
-9.93
-13.31
-17.58
-22.26
-27.1
-31.76
-35.88
-39.1
-41.18
-41.94
-41.32
-39.46
-36.6
-33.02
-29.14
-25.29
-21.81
-18.96
-16.89
-15.69
-15.34
-15.71
-16.49
-17.25
-17.51
-16.97
-15.4
-12.98
-10.18
-7.56
-5.71
-4.83
-4.94
-5.76
-7.12
-8.71
-10.38
-12.2
-14.03
-15.95
-17.92
-19.83
-21.42
-22.32
-21.94
-19.88
-15.96
-10.27
-3.43
3.77
10.43
15.83
19.68
22.01
23.09
23.32
23.1
22.56
21.87
21.12
20.48
20.32
20.97
22.62
25.14
28.25
31.39
34.18
36.41
37.88
38.62
38.55
37.68
35.87
33.21
29.8
26.02
22.23
18.7
15.64
12.93
10.45
7.9
5.03
1.68
-2
-5.79
-9.31
-12.1
-14.1
-15.38
-16.38
-17.6
-19.47
-22.05
-24.99
-27.66
-29.2
-29.02
-26.77
-22.55
-16.82
-10.29
-3.8
2.02
6.85
10.62
13.47
15.69
17.49
18.99
20.2
21.07
21.51
21.6
21.5
21.35
21.36
21.58
21.98
22.56
23.31
24.18
25.02
25.69
26.01
25.73
24.73
23.02
20.7
18.04
15.13
12.14
9.04
5.8
2.36
-1.39
-5.31
-9.16
-12.57
-15.28
-17.1
-18.09
-18.51
-18.58
-18.71
-19.14
-20.16
-21.92
-24.38
-27.26
-29.98
-31.92
-32.34
-30.76
-27.03
-21.57
-14.96
-8.04
-1.54
4.11
8.59
12.03
14.56
16.53
18.22
19.94
21.74
23.58
25.27
26.58
27.38
27.5
26.82
25.28
22.91
19.89
16.57
13.41
10.88
9.14
8.16
7.57
7
6.23
5.3
4.44
3.9
3.89
4.38
5.11
5.65
5.61
4.82
3.38
1.63
0.22
-0.2
1.04
4.38
9.93
17.37
26.09
35.19
43.78
51.16
57.01
61.37
64.74
67.64
70.37
72.93
74.94
75.85
75.12
72.55
68.2
62.37
55.49
48.03
40.4
33.06
26.54
21.35
18.03
16.98
18.28
21.64
26.46
31.87
36.92
40.89
43.15
43.25
40.93
36.08
28.84
19.6
8.99
-2.12
-12.69
-21.76
-28.7
-33.2
-35.34
-35.41
-33.95
-31.52
-28.55
-25.23
-21.59
-17.65
-13.43
-9.08
-4.82
-0.93
2.35
4.76
6.13
6.23
4.97
2.35
-1.58
-6.59
-12.32
-18.36
-24.33
-29.89
-34.85
-39.06
-42.54
-45.35
-47.57
-49.2
-50.19
-50.48
-50.03
-48.9
-47.15
-44.95
-42.38
-39.56
-36.45
-33.11
-29.58
-25.99
-22.5
-19.33
-16.62
-14.53
-13.24
-12.76
-13.06
-13.87
-14.86
-15.52
-15.47
-14.53
-12.69
-10.21
-7.36
-4.5
-1.8
0.46
2.19
3.18
3.16
2.02
-0.21
-3.38
-7.12
-11.03
-14.76
-18.08
-20.99
-23.52
-25.59
-27.07
-27.78
-27.58
-26.45
-24.63
-22.34
-19.96
-17.66
-15.38
-13.25
-11.36
-10.01
-9.57
-10.47
-12.76
-16.44
-21.28
-26.8
-32.81
-38.98
-45.06
-50.78
-55.94
-60.11
-63.11
-64.82
-65.27
-64.78
-63.53
-61.76
-59.57
-57.2
-54.68
-52.32
-50.33
-48.82
-47.82
-46.98
-45.93
-44.47
-42.64
-40.67
-39.09
-38.27
-38.28
-39.08
-40.29
-41.65
-43.02
-44.31
-45.42
-46.3
-46.67
-46.24
-44.84
-42.25
-38.34
-32.88
-25.76
-17
-6.97
3.85
14.87
25.38
34.95
43.37
50.67
57.04
62.73
67.76
72.16
75.73
77.92
78.13
75.67
70.02
60.86
47.99
31.06
9.79
-16.09
-46.68
-81.5
-119.44
-158.69
-196.79
-230.96
-258.53
-277.13
-284.9
-280.65
-263.93
-235.33
-196.21
-148.64
-95.13
-38.74
17.27
69.41
114.19
148.57
170.17
178.07
172.9
156.88
133.19
105.61
77.79
52.9
33.53
21.28
16.79
19.54
28.18
40.75
55.41
70.63
85.22
98.31
108.77
115.54
117.66
114.82
107.62
97.53
86.27
75.28
65.58
57.54
51.22
46.6
43.78
42.83
43.73
46.21
49.76
53.97
58.44
63
67.58
72.02
75.93
78.72
79.66
78.06
73.39
65.33
54.01
40.06
24.68
9.31
-4.52
-15.55
-22.91
-26.22
-25.32
-19.77
-8.58
9.59
36.02
71.14
114.05
162.55
213.53
263.39
308.53
345.4
370.39
379.92
370.89
341.85
293.9
231.41
161
89.95
24.34
-31.98
-77.41
-111.49
-134.02
-144.56
-142.75
-129.51
-107.61
-81.51
-56.15
-35.59
-21.88
-15.08
-13.8
-16.21
-20.62
-25.8
-30.97
-35.71
-39.71
-42.64
-44.21
-44.14
-42.48
-39.55
-35.72
-31.23
-26.2
-20.66
-14.62
-8.54
-3.33
-0.37
-1.15
-6.66
-17.12
-31.86
-49.55
-68.69
-88.04
-106.73
-124.34
-140.65
-155.3
-167.78
-177.38
-183.36
-185.26
-183.13
-177.39
-168.89
-158.72
-148.09
-138.17
-129.95
-124
-120.37
-118.45
-117.01
-114.35
-108.78
-98.97
-84.17
-64.57
-41.2
-15.7
9.97
34.11
55.44
73.35
87.85
99.13
107.43
112.81
115.29
115.01
112.5
108.48
103.76
98.96
94.29
89.65
84.84
79.82
74.83
70.4
67.02
64.94
64.14
64.27
64.85
65.34
65.26
64.04
61.26
56.52
49.6
40.71
30.24
18.92
7.49
-3.37
-13.23
-21.79
-28.9
-34.6
-38.9
-41.98
-43.85
-44.61
-44.31
-43.07
-41.07
-38.51
-35.58
-32.4
-29.13
-25.91
-23.09
-21.02
-20.09
-20.49
-22.27
-25.19
-28.86
-32.75
-36.34
-39.25
-41.3
-42.52
-43.1
-43.4
-43.7
-44.1
-44.52
-44.89
-45.18
-45.56
-46.24
-47.38
-49.01
-51.07
-53.38
-55.69
-57.74
-59.25
-60.03
-59.95
-58.85
-56.54
-52.78
-47.38
-40.46
-32.36
-23.76
-15.55
-8.65
-3.66
-0.71
0.49
0.52
-0.24
-1.39
-2.6
-3.55
-3.86
-3.13
-0.99
2.71
7.92
14.13
20.65
26.69
31.59
35.02
36.88
37.43
36.96
35.82
34.05
31.56
28.11
23.56
18.11
12.21
6.38
1.16
-3.13
-6.54
-9.25
-11.82
-14.78
-18.54
-23.06
-28.02
-32.69
-36.14
-37.48
-36.06
-31.8
-25.19
-17.14
-8.62
-0.64
6.16
11.37
14.92
16.93
17.69
17.34
16.23
14.63
12.91
11.54
10.9
11.28
12.78
15.36
18.71
22.51
26.39
30.19
33.75
36.94
39.45
40.91
40.91
39.26
36
31.46
26.25
20.87
15.72
11.06
6.97
3.41
0.38
-2.3
-4.89
-7.78
-11.3
-15.74
-20.84
-26.1
-30.63
-33.44
-33.85
-31.47
-26.64
-20.11
-12.9
-5.93
0.1
4.85
8.33
10.6
11.95
12.54
12.57
12.31
12.04
12.11
12.89
14.69
17.54
21.3
25.49
29.45
32.67
34.6
35.12
34.44
32.88
30.72
28.17
25.21
21.67
17.51
12.62
7.15
1.3
-4.6
-10.42
-16.03
-21.49
-26.96
-32.54
-38.31
-44.08
-49.54
-54.13
-57.05
-57.43
-54.46
-47.66
-37.2
-23.99
-9.38
5.1
18.22
29.32
38.18
44.81
49.43
51.97
52.57
51.44
48.98
45.84
42.63
39.8
37.5
35.67
34.03
32.29
30.26
27.85
25.23
22.62
20.16
17.85
15.28
11.87
7.04
0.59
-7.29
-15.88
-24.23
-31.6
-37.41
-41.6
-44.29
-45.69
-45.89
-45.21
-43.95
-42.41
-40.73
-38.68
-35.73
-31.23
-24.66
-15.97
-5.84
4.64
14.23
21.99
27.47
30.74
32.34
32.9
32.88
32.49
31.71
30.54
28.99
27.3
25.71
24.46
23.53
22.75
21.73
20.08
17.66
14.25
9.97
5.02
-0.24
-5.43
-9.95
-13.46
-15.7
-16.66
-16.65
-15.85
-14.48
-12.68
-10.57
-8.29
-6.07
-4.08
-2.49
-1.39
-0.73
-0.35
0.05
1.01
3.18
7.16
13.14
21
29.88
38.76
46.65
52.85
57.26
60.15
61.95
62.86
63.04
62.14
60
56.5
51.85
46.56
41.23
36.39
32.45
29.67
27.99
27.39
27.56
28.22
29.05
29.7
29.75
28.86
26.58
22.48
16.53
8.81
-0.16
-9.71
-18.98
-27.45
-34.77
-40.94
-46.19
-50.48
-53.75
-55.5
-55.12
-51.9
-45.4
-35.63
-23.14
-9.02
5.54
19.04
30.44
39.04
44.69
47.91
49.46
50.31
51.21
52.9
55.55
59.23
63.65
68.38
73.01
77.12
80.42
82.48
83.01
81.5
77.36
69.9
58.52
42.9
23.18
0.16
-24.93
-50.34
-74.31
-95.21
-111.94
-124
-131.44
-134.84
-135
-132.85
-129.26
-124.97
-120.37
-115.47
