-13.24
-14.62
-15.67
-16.37
-16.81
-17.01
-16.8
-15.96
-14.25
-11.68
-8.51
-5.2
-2.2
0.23
2.07
3.43
4.45
5.16
5.49
5.43
4.99
4.33
3.71
3.33
3.24
3.41
3.67
3.93
4.21
4.51
4.83
5.07
5.04
4.55
3.48
1.94
0.19
-1.42
-2.71
-3.61
-4.08
-4.09
-3.54
-2.45
-0.93
0.79
2.48
3.72
4.25
4.04
3.25
2.02
0.42
-1.53
-3.56
-5.12
-6.1
-6.53
-6.62
-6.7
-7.12
-8.23
-10.08
-12.16
-13.51
-14.03
-14.1
-14.45
-15.94
-19.4
-25.42
-34.01
-44.29
-54.62
-64.34
-73.46
-82.22
-91.04
-100.73
-112.69
-128.62
-149.98
-169.72
-181.03
-179.14
-162.95
-134.24
-96.17
-53.15
-11.09
23.45
45.21
51.46
44.58
30.67
18.34
15.86
28.2
55.62
94.5
139.51
185.34
224.73
252.71
266.93
267.16
254.86
233
206.22
180.19
159.52
146.59
141.39
141.8
144.97
148.57
151.54
153.86
155.56
155.72
152.48
144.19
130.11
110.72
87.48
62.33
37
12.68
-10.17
-31.62
-51.43
-69.1
-83.99
-95.73
-104.41
-110.49
-114.54
-116.8
-117.13
-114.92
-109.51
-100.58
-88.58
-74.67
-60.45
-47.53
-37.09
-29.65
-24.88
-21.86
-19.38
-16.57
-13.38
-10.59
-9.43
-10.8
-14.87
-20.75
-26.98
-32.16
-35.41
-36.88
-36.98
-36.01
-34.12
-31.91
-30.48
-31.35
-34.93
-39.57
-41.6
-36.56
-21.4
3.66
34.76
66.21
92.93
112.86
127.43
139.33
150.92
162.74
173.55
181.44
185.48
185.76
183.38
179.26
171.24
156.17
131.89
98.88
60.57
22.55
-10.95
-37.36
-56.48
-73.61
-93.97
-119.42
-147.64
-174.22
-194.36
-207.92
-216.64
-222.94
-234.52
-257.05
-291
-331.48
-371.59
-404.02
-428.05
-445.03
-456.87
-472.49
-498.67
-535.95
-578.56
-618.76
-648.67
-668.89
-681.68
-644.59
-533.92
-356.68
-149.4
46.77
189.94
290.23
359.93
407.92
440.32
456.56
454.84
438.16
414.87
394.27
384.71
384.76
389.9
395.41
392.38
375.09
344.11
305.52
266.91
235.49
211.49
193.52
180.3
166.89
147.92
119.52
80.38
32.13
-19.2
-67.08
-103.58
-121.95
-121.38
-106.12
-83.12
-59.34
-40.6
-30.96
-34.54
-53.74
-87.63
-131.47
-176.49
-212
-229.19
-224.67
-201.29
-166.69
-129.15
-94.59
-65.61
-42.36
-24.08
-10.08
0.24
7.88
14.66
23.05
35.15
51.57
71.01
90.94
108.71
122.61
132.21
138.03
140.87
140.94
137.06
127.06
109.12
83.4
52.73
21.9
-3.73
-20.39
-27.35
-27.44
-25.52
-26.88
-34.22
-46.16
-59.29
-71.03
-81.2
-89.97
-96.34
-97.48
-89.72
-70.16
-38.72
-0.45
36.36
64.1
79.83
86.31
89.67
94.94
102.74
108.91
107.62
95.91
76.25
55.47
40.5
34.64
36.29
40.92
44.3
44.93
44.29
44.84
47.76
51.69
53.7
51.25
43.92
33.84
24.61
19.69
20.65
26.19
32.19
33.24
24.84
5.21
-23.96
-58.15
-91.71
-119.48
-137.79
-144.53
-138.62
-119.94
-89.93
-52.24
-12.74
21.75
45.68
56.89
56.9
49.75
39.77
29.57
19.79
9.99
0.07
-9.1
-16.22
-20.66
-23.11
-25.37
-29.14
-34.9
-41.63
-47.52
-51.07
-51.92
-50.94
-49.49
-48.6
-48.63
-49.26
-50.02
-50.61
-51.1
-51.63
-52.33
-53.01
-53.14
-52.09
-49.28
-44.53
-38.02
-30.23
-21.73
-13.1
-4.82
2.68
9.04
13.97
17.3
19.07
19.48
18.95
17.97
16.97
16.25
15.87
15.65
15.31
14.52
13.11
11.09
8.63
6.02
3.49
1.12
-1.18
-3.64
-6.43
-9.61
-13
-16.14
-18.44
-19.29
-18.27
-15.36
-10.94
-5.68
-0.33
4.51
8.5
11.59
13.86
15.4
16.23
16.37
15.85
14.84
13.62
12.52
11.75
11.42
11.47
11.74
12.07
12.34
12.52
12.59
12.44
11.78
10.21
7.35
3.15
-2.07
-7.47
-11.93
-14.34
-14.02
-10.87
-5.4
1.47
8.8
15.81
21.99
27.12
31.06
33.73
35.11
35.27
34.45
33
31.32
29.69
28.26
27.04
26
25.11
24.4
23.84
23.33
22.67
21.59
19.88
17.37
14.01
9.84
4.95
-0.41
-5.76
-10.33
-13.21
-13.57
-11.07
-6
0.78
8.08
14.87
20.62
25.24
28.92
31.79
33.75
34.53
33.96
32.13
29.57
26.99
25.02
23.91
23.48
23.25
22.73
21.72
20.29
18.76
17.43
16.3
15.12
13.46
10.92
7.36
2.93
-1.94
-6.75
-10.91
-13.9
-15.13
-14.17
-10.82
-5.38
1.39
8.45
14.82
19.92
23.62
26.27
28.23
29.72
30.68
30.93
30.3
28.84
26.92
24.93
23.25
21.95
20.89
19.79
18.44
16.79
14.96
13.19
11.6
10.15
8.6
6.73
4.36
1.42
-2.03
-5.83
-9.69
-13.16
-15.62
-16.44
-15.12
-11.58
-6.3
-0.14
5.93
11.24
15.43
18.58
20.94
22.71
24.01
24.85
25.21
25.02
24.34
23.23
21.86
20.43
19.13
18.06
17.19
16.4
15.44
14.15
12.5
10.58
8.55
6.58
4.76
3.1
1.59
0.14
-1.44
-3.31
-5.6
-8.37
-11.53
-14.76
-17.68
-19.82
-20.71
-20.02
-17.65
-13.82
-9.04
-4.05
0.47
4.07
6.66
8.43
9.72
10.73
11.52
12
12.11
11.95
11.73
11.6
11.62
11.64
11.5
11.1
10.49
9.92
9.57
9.46
9.33
8.77
7.39
5.1
2.15
-0.94
-3.6
-5.5
-6.67
-7.4
-8.21
-9.5
-11.52
-14.18
-17.16
-19.83
-21.5
-21.57
-19.7
-15.99
-10.97
-5.47
-0.24
4.15
7.56
10.1
11.92
13.11
13.6
13.4
12.58
11.44
10.27
9.29
8.51
7.81
7.09
6.36
5.75
5.42
5.4
5.55
5.6
5.24
4.32
2.83
0.91
-1.18
-3.2
-4.91
-6.21
-7.11
-7.78
-8.53
-9.69
-11.53
-14.06
-17.01
-19.78
-21.68
-22.05
-20.58
-17.43
-13.15
-8.49
-4.08
-0.27
2.93
5.65
7.95
9.73
10.8
11
10.4
9.25
7.94
6.85
6.18
5.99
6.18
6.54
6.88
6.97
6.69
6
4.98
3.78
2.49
1.14
-0.29
-1.83
-3.41
-4.94
-6.3
-7.53
-8.82
-10.45
-12.63
-15.38
-18.43
-21.36
-23.62
-24.73
-24.36
-22.4
-18.99
-14.53
-9.6
-4.79
-0.64
2.53
4.7
6
6.7
7.04
7.17
7.06
6.62
5.75
4.49
3.05
1.79
0.99
0.79
1.04
1.41
1.53
1.17
0.33
-0.85
-2.15
-3.4
-4.48
-5.35
-5.99
-6.45
-6.84
-7.34
-8.18
-9.54
-11.5
-13.91
-16.4
-18.4
-19.32
-18.73
-16.53
-13.02
-8.82
-4.61
-0.91
2.05
4.32
6.1
7.52
8.61
9.24
9.33
8.92
8.17
7.3
6.48
5.79
5.19
4.59
3.96
3.36
2.92
2.75
2.86
3.1
3.23
2.95
2.13
0.79
-0.89
-2.62
-4.2
-5.52
-6.61
-7.55
-8.45
-9.38
-10.45
-11.78
-13.49
-15.55
-17.7
-19.43
-20.16
-19.44
-17.22
-13.92
-10.22
-6.77
-3.95
-1.71
0.24
2.21
4.35
6.52
8.4
9.65
10.08
9.69
8.67
7.3
5.86
4.56
3.49
2.65
2
1.51
1.15
0.96
0.92
0.9
0.73
0.2
-0.82
-2.28
-3.98
-5.66
-7.08
-8.16
-9.04
-9.97
-11.25
-13
-15.04
-16.9
-17.97
-17.71
-15.87
-12.61
-8.46
-4.13
-0.26
2.79
4.96
6.39
7.33
7.96
8.39
8.65
8.72
8.64
8.47
8.25
8.03
7.8
7.61
7.49
7.5
7.64
7.78
7.75
7.4
6.75
5.97
5.22
4.55
3.83
2.78
1.22
-0.78
-2.88
-4.68
-5.99
-6.88
-7.65
-8.55
-9.72
-11.09
-12.53
-13.97
-15.44
-16.91
-18.12
-18.68
-18.1
-16.14
-12.96
-9.08
-5.16
-1.77
0.78
2.54
3.63
4.24
4.49
4.44
4.21
3.91
3.73
3.76
3.99
4.23
4.25
3.95
3.37
2.76
2.39
2.46
2.98
3.67
4.13
3.95
2.98
1.27
-0.8
-2.84
-4.51
-5.67
-6.44
-7.09
-7.91
-9.1
-10.76
-12.77
-14.87
-16.65
-17.64
-17.45
-15.91
-13.22
-9.86
-6.45
-3.56
-1.47
-0.18
0.53
1.01
1.54
2.24
3.11
4.01
4.77
5.26
5.45
5.44
5.39
5.46
5.68
5.96
6.09
5.91
5.29
4.31
3.14
1.94
0.86
-0.1
-1.02
-1.99
-3.05
-4.2
-5.35
-6.44
-7.4
-8.24
-9.02
-9.85
-10.79
-11.89
-13.18
-14.65
-16.21
-17.68
-18.73
-18.95
-18.03
-15.9
-12.8
-9.21
-5.72
-2.82
-0.74
0.6
1.41
1.95
2.37
2.69
2.92
3.08
3.26
3.58
4.04
4.57
4.99
5.1
4.82
4.21
3.47
2.8
2.23
1.72
1.11
0.32
-0.67
-1.75
-2.81
-3.77
-4.69
-5.71
-6.99
-8.61
-10.52
-12.53
-14.3
-15.47
-15.73
-14.95
-13.22
-10.81
-8.13
-5.5
-3.11
-0.95
1.05
2.96
4.75
6.26
7.33
7.85
7.85
7.48
6.9
6.26
5.66
5.14
4.74
4.44
4.19
3.89
3.4
2.62
1.52
0.13
-1.48
-3.21
-4.93
-6.5
-7.75
-8.62
-9.24
-9.89
-10.96
-12.69
-14.9
-17.02
-18.27
-17.98
-15.94
-12.44
-8.09
-3.63
0.45
3.9
6.7
8.88
10.48
11.5
12.05
12.31
12.5
12.79
13.24
13.72
14.05
14.09
13.79
13.27
12.67
12.14
11.69
11.26
10.69
9.9
8.86
7.62
6.31
5.01
3.77
2.51
1.09
-0.72
-3
-5.62
-8.22
-10.19
-10.99
-10.3
-8.14
-4.91
-1.23
2.36
5.52
8.12
10.23
11.94
13.27
14.16
14.54
14.34
13.66
12.71
11.72
10.97
10.61
10.66
10.93
11.16
11.06
10.51
9.55
8.33
7.09
5.93
4.81
3.58
2.09
0.22
-2.03
-4.63
-7.52
-10.58
-13.57
-16.15
-17.83
-18.17
-16.89
-14.03
-9.96
-5.32
-0.78
3.13
6.09
8.13
9.4
10.06
10.2
9.86
9.05
7.9
6.7
5.69
5.11
4.92
4.88
4.65
4.01
2.96
1.82
0.95
0.58
0.63
0.7
0.22
-1.25
-3.8
-7.1
-10.52
-13.36
-15.1
-15.42
-14.31
-11.91
-8.43
-4.17
0.46
5.02
9.08
12.28
14.4
15.33
15.02
13.56
11.1
7.99
4.7
1.77
-0.41
-1.68
-2.2
-2.29
-2.3
-2.43
-2.7
-3
-3.25
-3.49
-3.94
-4.89
-6.55
-8.97
-11.9
-14.89
-17.34
-18.74
-18.77
-17.36
-14.71
-11.17
-7.18
-3.14
0.59
3.78
6.28
8.06
9.18
9.71
9.75
9.38
8.74
8.02
7.41
7.02
6.81
6.56
5.93
4.71
2.92
0.84
-1.09
-2.5
-3.36
-3.96
-4.78
-6.28
-8.62
-11.61
-14.79
-17.52
-19.15
-19.2
-17.47
-14.04
-9.27
-3.64
2.37
8.4
14.25
19.81
24.97
29.5
33.14
35.65
37
37.46
37.45
37.5
37.83
38.31
38.54
38.09
36.83
35.11
33.73
33.59
35.26
38.52
42.43
45.64
46.98
46.13
43.7
40.98
39.32
39.4
40.97
43.09
44.66
44.99
43.92
41.44
37.63
32.9
28.61
27.28
32
44.81
64.95
88.12
107.67
117.47
115.04
102.93
87.29
74.61
68.29
67.33
67.68
64.99
57.27
45.46
32.21
19.88
9.17
-0.89
-11.6
-23.17
-34.22
-42.41
-45.84
-44.14
-38.71
-32.01
-26.55
-23.84
-24.02
-26.13
-28.89
-31.46
-33.85
-36.74
-40.85
-46.34
-52.68
-58.73
-63.39
-65.99
-66.46
-65.14
-62.39
-58.44
-53.23
-46.74
-39.16
-30.99
-22.98
-15.85
-9.96
-5.22
-1.25
2.4
5.92
9.27
12.29
14.86
17.12
19.45
22.2
25.62
29.69
34.26
39.22
44.75
51.25
59.13
68.54
78.98
89.4
98.47
105.04
108.6
109.37
107.99
105.03
100.65
94.34
85.17
72.15
54.68
32.68
6.62
-22.58
-53.37
-83.4
-109.49
-128.18
-137.02
-135.87
-127.49
-117.1
-110.66
-112.75
-125.02
-146.15
-172.89
-201.83
-230.61
-257.98
-283.05
-304.43
-320
-327.81
-327.32
-320.12
-309.6
-299.69
-292.89
-288.93
-285
-277.02
-261.57
-237.55
-206.61
-172.33
-138.9
-109.4
-84.85
-64.28
-45.47
-25.93
-3.84
21.33
48.71
75.9
99.59
116.05
122.18
116.67
100.81
78.64
56
38.88
31.46
35.08
48.06
66.99
88.46
110.3
131.91
153.56
175.2
195.54
212.12
222.06
223.36
215.88
201.32
182.38
161.58
140.46
119.34
98.16
77.48
59.03
45.47
39.22
41.55
51.86
67.81
85.98
102.88
115.76
123.23
125.45
123.89
120.88
118.73
118.75
120.41
121.37
118.02
106.86
85.93
55.91
20.24
-15.68
-45.92
-65.66
-72.44
-66.62
-51.2
-30.83
-10.63
4.97
13.06
12.67
4.49
-9.83
-28.38
-49.43
-71.34
-92.42
-110.92
-125.37
-135.15
-140.8
-143.81
-145.82
-147.74
-149.16
-148.61
-144.26
-134.76
-119.9
-100.74
-79.28
-57.78
-38.28
-22.15
-10.08
-2.06
2.29
3.49
2.05
-1.59
-6.87
-13.01
-19.03
-23.89
-26.78
-27.36
-25.72
-22.24
-17.36
-11.29
-4.01
4.69
14.88
26.19
37.69
47.99
55.67
59.78
59.96
56.53
50.08
41.28
30.65
18.76
6.27
-5.96
-17.06
-26.32
-33.43
-38.44
-41.6
-43.1
-42.98
-41.11
-37.4
-32.02
-25.37
-18.15
-11.13
-5.03
-0.32
2.78
4.39
4.78
4.46
4.03
4.12
5.28
7.72
11.33
15.6
19.87
23.49
26.06
27.47
27.93
27.78
27.34
26.79
26.11
25.15
23.76
21.94
19.82
17.71
15.92
14.6
13.67
12.84
11.81
10.4
8.67
6.8
4.92
3.19
1.54
-0.06
-1.71
-3.41
-5.16
-6.99
-8.93
-10.97
-12.98
-14.65
-15.53
-15.23
-13.57
-10.67
-6.94
-2.9
1
4.47
7.41
9.83
11.67
12.82
13.14
12.58
11.32
9.71
8.22
7.24
7
7.47
8.38
9.4
10.17
10.5
10.36
9.86
9.15
8.33
7.4
6.27
4.84
3.05
0.93
-1.43
-3.87
-6.11
-7.8
-8.55
-8.09
-6.34
-3.56
-0.27
2.93
5.62
7.65
9.12
10.22
11.04
11.54
11.59
11.14
10.25
9.13
8.06
7.19
6.64
6.39
6.36
6.43
6.42
6.2
5.66
4.86
3.95
3.11
2.4
1.71
0.75
-0.75
-2.91
-5.62
-8.51
-11.08
-12.82
-13.33
-12.39
-10
-6.39
-2
2.6
6.87
10.37
12.91
14.49
15.28
15.47
15.22
14.64
13.8
12.81
11.82
10.99
10.42
10.11
9.92
9.62
9.02
8.03
6.72
5.31
4.02
2.97
2.07
1.04
-0.39
-2.44
-5.06
-8.02
-10.88
-13.19
-14.51
-14.54
-13.14
-10.46
-6.86
-2.87
0.94
4.22
6.79
8.73
10.16
11.19
11.83
12.06
11.86
11.28
10.47
9.6
8.82
8.2
7.75
7.44
7.18
6.91
6.6
6.27
5.92
5.52
4.94
4.01
2.55
0.49
-2.1
-5
-7.95
-10.64
-12.82
-14.2
-14.51
-13.49
-11.1
-7.56
-3.36
0.9
4.66
7.63
9.78
11.26
12.3
12.98
13.29
13.16
12.6
11.7
10.65
9.66
8.87
8.37
8.15
8.1
8.11
8.04
7.8
7.35
6.69
5.87
4.94
3.91
2.78
1.54
0.18
-1.29
-2.92
-4.7
-6.62
-8.5
-10.03
-10.83
-10.53
-9
-6.38
-3.01
0.62
4.08
7.08
9.49
11.3
12.56
13.35
13.74
13.81
13.63
13.31
12.98
12.78
12.82
13.12
13.6
14.11
14.49
14.61
14.46
14.05
13.39
12.49
11.36
10.02
8.52
6.93
5.33
3.72
2.1
0.47
-1.13
-2.65
-4.1
-5.55
-7.03
-8.46
-9.56
-9.91
-9.09
-6.9
-3.5
0.68
5.06
9.15
12.68
15.61
18
19.91
21.3
22.04
22.04
21.32
20.1
18.72
17.53
16.8
16.59
16.71
16.8
16.56
15.79
14.51
12.87
11.06
9.22
7.4
5.53
3.57
1.47
-0.8
-3.23
-5.78
-8.34
-10.66
-12.31
-12.92
-12.16
-10
-6.71
-2.83
1.02
4.35
6.86
8.52
9.4
9.64
9.34
8.54
7.33
5.84
4.3
2.87
1.7
0.87
0.34
0.04
-0.17
-0.46
-0.97
-1.77
-2.85
-4.09
-5.35
-6.54
-7.65
-8.84
-10.23
-11.95
-13.93
-15.96
-17.67
-18.66
-18.59
-17.26
-14.69
-11.18
-7.25
-3.44
-0.17
2.33
4.12
5.38
6.31
7
7.39
7.43
7.15
6.69
6.24
5.93
5.73
5.54
5.21
4.7
4.08
3.42
2.75
1.96
0.93
-0.41
-2.02
-3.73
-5.35
-6.79
-8.11
-9.41
-10.79
-12.15
-13.28
-13.85
-13.63
-12.53
-10.66
-8.3
-5.73
-3.19
-0.77
1.45
3.45
5.1
6.33
7.06
7.29
7.14
6.68
5.97
5.05
3.99
2.94
2.17
1.88
2.12
2.74
3.39
3.8
3.76
3.33
2.6
1.67
0.59
-0.71
-2.19
-3.75
-5.18
-6.34
-7.23
-8.02
-9.04
-10.52
-12.51
-14.79
-16.93
-18.38
-18.72
-17.73
-15.44
-12.1
-8.14
-4
-0.12
3.17
5.67
7.31
8.14
8.3
7.91
7.14
6.14
5.05
4.03
3.2
2.63
2.38
2.44
2.76
3.24
3.73
4.01
3.89
3.28
2.26
0.99
-0.29
-1.49
-2.62
-3.83
-5.24
-6.93
-8.84
-10.91
-13.01
-14.94
-16.46
-17.22
-16.87
-15.23
-12.32
-8.5
-4.32
-0.39
2.82
5.1
6.46
7.14
7.36
7.33
7.12
6.71
6.09
5.35
4.7
4.37
4.48
4.93
5.43
5.68
5.57
5.2
4.87
4.77
4.88
4.89
4.38
3.1
1.16
-1.07
-3.01
-4.32
-4.95
-5.17
-5.4
-5.96
-6.95
-8.28
-9.81
-11.36
-12.8
-13.94
-14.49
-14.09
-12.48
-9.69
-6.14
-2.5
0.61
2.81
4.08
4.69
4.97
5.14
5.22
5.11
4.71
4.03
3.22
2.47
2.01
1.88
2.03
2.31
2.5
2.45
2.1
1.47
0.65
-0.27
-1.2
-2.1
-2.94
-3.72
-4.47
-5.27
-6.14
-7.12
-8.11
-9.02
-9.71
-10.04
-9.93
-9.24
-7.95
-6.07
-3.83
-1.59
0.26
1.43
1.84
1.63
1.03
0.26
-0.57
-1.43
-2.24
-2.89
-3.27
-3.32
-3.05
-2.59
-2.05
-1.49
-0.93
-0.4
0.03
0.22
0.05
-0.51
-1.39
-2.42
-3.37
-4.11
-4.6
-4.86
-5.02
-5.22
-5.64
-6.47
-7.88
-9.95
-12.52
-15.16
-17.16
-17.87
-16.86
-14.2
-10.53
-6.73
-3.67
-1.72
-0.79
-0.42
-0.14
0.33
0.92
1.4
1.55
1.29
0.72
0.01
-0.62
-1.03
-1.09
-0.77
-0.06
0.95
2.07
3.08
3.79
4.11
4.11
3.97
3.86
3.91
4.18
4.6
5.03
5.28
5.17
4.61
3.7
2.73
2.13
2.4
3.79
6.32
9.63
13.16
16.32
18.68
20.06
20.46
20.03
18.95
17.43
15.68
13.97
12.54
11.53
10.9
10.43
9.88
9.01
7.76
6.22
4.63
3.25
2.24
1.62
1.25
0.87
0.22
-0.86
-2.41
-4.24
-6.1
-7.79
-9.13
-10.11
-10.76
-11.25
-11.76
-12.53
-13.77
-15.49
-17.46
-19.15
-19.92
-19.29
-17.04
-13.46
-9.07
-4.58
-0.59
2.49
4.52
5.57
5.88
5.84
5.74
5.8
5.97
6.06
5.79
5.04
3.88
2.64
1.68
1.24
1.33
1.75
2.2
2.42
2.26
1.73
0.96
0.16
-0.47
-0.76
-0.72
-0.51
-0.51
-1.1
-2.59
-4.95
-7.62
-9.81
-10.75
-9.92
-7.34
-3.47
0.88
4.8
7.59
9.17
9.95
10.69
12.34
15.59
20.55
26.56
32.17
35.78
36.59
34.65
30.89
26.87
23.96
22.71
22.62
22.02
19.19
14.05
7.46
0.9
-3.7
-4.97
-2.77
1.54
4.81
4.04
-0.93
-9.32
-19.78
-30.01
-37.41
-39.85
-36.33
-28.87
-20.94
-14.15
-10.92
-13.89
-23.29
-37.01
-51.98
-65.86
-80.08
-97.44
-117.24
-138.8
-161.7
-183.8
-202.26
-214.7
-208.46
-176.69
-138.62
-104.11
-71.47
-41.6
-15.25
7.3
25.96
40.84
50.47
54.48
57.31
62.77
72.18
85.41
100.52
114.41
124.33
127.71
124.1
116.98
108.29
97.02
81.69
62.15
41.21
24.54
17.83
24.84
47.32
81.99
121.65
158.59
186.7
202.42
204.58
193.28
169.71
136.95
98.77
59.17
22.35
-8.17
-30.41
-44.51
-52.65
-58.01
-63.01
-68.56
-73.69
-76.17
-74.09
-67.23
-57.69
-48.9
-43.73
-42.8
-44.09
-44.15
-40.27
-32.13
-21.98
-13.28
-8.74
-8.9
-12.13
-15.84
-18.05
-18.29
-17.48
-17.09
-18.14
-20.64
-23.68
-26.03
-26.88
-26.29
-25.05
-24.32
-24.97
-27.12
-30.03
-32.5
-33.4
-32.28
-29.6
-26.49
-24.17
-23.41
-24.13
-25.54
-26.54
-26.33
-24.76
-22.34
-19.95
-18.4
-18.1
-19.02
-20.79
-22.96
-25.14
-26.97
-28.12
-28.24
-27.02
-24.4
-20.56
-15.93
-11.04
-6.33
-2.13
1.39
4.18
6.25
7.69
8.63
9.22
9.64
9.97
10.3
10.62
11
11.42
11.83
12.1
12.05
11.56
10.63
9.47
8.29
7.28
6.47
5.76
4.98
4.03
2.88
1.52
0.02
-1.55
-3.01
-4.06
-4.33
-3.55
-1.64
1.19
4.48
7.69
10.43
12.49
13.86
14.55
14.57
13.89
12.61
10.98
9.39
8.29
7.97
8.39
9.18
9.78
9.72
8.76
7.06
5.03
3.13
1.74
0.93
0.54
0.22
-0.41
-1.65
-3.63
-6.24
-9.18
-11.99
-14.1
-14.97
-14.17
-11.61
-7.57
-2.65
2.35
6.75
10.1
12.35
13.71
14.47
14.85
14.91
14.65
14.09
13.37
12.68
12.23
12.04
11.98
11.82
11.4
10.67
9.66
8.4
6.93
5.23
3.24
1
-1.47
-4.14
-7.04
-10.26
-13.78
-17.34
-20.39
-22.19
-22.13
-19.99
-16.11
-11.26
-6.39
-2.18
1.14
3.79
6.19
8.62
11.06
13.16
14.56
14.98
14.51
13.47
12.27
11.26
10.58
10.17
9.81
9.3
8.54
7.63
6.73
5.95
5.23
4.36
3.09
1.22
-1.19
-3.9
-6.66
-9.3
-11.88
-14.39
-16.64
-18.11
-18.14
-16.26
-12.51
-7.5
-2.13
2.78
6.79
9.86
12.18
13.97
15.33
16.27
16.74
16.79
16.47
15.89
15.08
14.08
12.94
11.76
10.67
9.72
8.99
8.49
8.22
8.12
8.05
7.79
7.09
5.79
3.94
1.77
-0.39
-2.25
-3.71
-4.89
-6.13
-7.76
-10.06
-13.08
-16.53
-19.91
-22.47
-23.53
-22.62
-19.73
-15.23
-9.84
-4.32
0.65
4.73
7.85
10.21
12.06
13.59
14.88
15.86
16.43
16.49
16.08
15.31
14.4
13.55
12.89
12.48
12.28
12.22
12.24
12.25
12.22
12.05
11.61
10.76
9.36
7.3
4.67
1.73
-1.13
-3.49
-5.08
-5.89
-6.26
-6.65
-7.57
-9.28
-11.66
-14.24
-16.36
-17.31
-16.68
-14.42
-10.91
-6.73
-2.51
1.32
4.55
7.2
9.37
11.11
12.36
13.04
13.11
12.68
12.01
11.4
11.03
10.93
10.96
10.92
10.66
10.18
9.56
9.02
8.68
8.63
8.78
8.91
8.72
7.95
6.46
4.34
1.89
-0.5
-2.47
-3.92
-4.95
-5.86
-6.96
-8.51
-10.56
-12.95
-15.3
-17.08
-17.77
-16.98
-14.61
-10.92
-6.44
-1.83
2.31
5.63
8.04
9.63
10.63
11.21
11.46
11.41
11.02
10.3
9.38
8.44
7.72
7.36
7.37
7.58
7.77
7.72
7.37
6.72
5.89
4.95
3.93
2.81
1.57
0.18
-1.33
-2.89
-4.42
-5.89
-7.34
-8.87
-10.59
-12.53
-14.49
-16.07
-16.75
-16.13
-14.14
-11.04
-7.43
-3.91
-0.94
1.31
2.96
4.21
5.22
6.04
6.61
6.88
6.85
6.57
6.11
5.56
4.98
4.41
3.93
3.59
3.41
3.33
3.27
3.12
2.84
2.44
1.95
1.36
0.57
-0.6
-2.27
-4.45
-7.02
-9.72
-12.21
-14.17
-15.25
-15.21
-13.94
-11.53
-8.3
-4.77
-1.47
1.22
3.17
4.5
5.42
6.09
6.58
6.79
6.6
5.93
4.84
3.49
2.14
1.01
0.29
-0.04
-0.04
0.03
0
-0.25
-0.77
-1.47
-2.24
-2.94
-3.55
-4.11
-4.78
-5.75
-7.13
-8.9
-10.8
-12.42
-13.29
-13.06
-11.6
-9.12
-6.06
-2.92
-0.08
2.35
4.43
6.31
8.02
9.4
10.1
9.83
8.48
6.29
3.8
1.57
0.08
-0.5
-0.29
0.38
1.13
1.69
1.92
1.81
1.38
0.63
-0.44
-1.84
-3.53
-5.42
-7.39
-9.33
-11.13
-12.68
-13.8
-14.28
-13.86
-12.38
-9.87
-6.59
-2.99
0.41
3.15
5.02
5.99
6.26
6.12
5.77
5.34
4.81
4.13
3.28
2.36
1.53
0.94
0.65
0.63
0.78
0.97
1.13
1.2
1.12
0.83
0.3
-0.47
-1.38
-2.42
-3.57
-4.96
-6.7
-8.77
-10.91
-12.62
-13.35
-12.76
-10.8
-7.83
-4.4
-1.1
1.69
3.81
5.33
6.4
7.15
7.61
7.77
7.61
7.13
6.41
5.58
4.76
4.08
3.55
3.19
2.94
2.75
2.57
2.35
2.08
1.72
1.23
0.6
-0.2
-1.16
-2.3
-3.58
-5.03
-6.65
-8.41
-10.18
-11.64
-12.34
-11.87
-10.04
-6.96
-3.06
1.07
4.95
8.24
10.87
12.83
14.13
14.78
14.83
14.36
13.53
12.49
11.34
10.14
8.96
7.93
7.19
6.8
6.67
6.55
6.2
5.49
4.51
3.45
2.55
1.87
1.33
0.69
-0.33
-1.87
-3.96
-6.38
-8.75
-10.55
-11.33
-10.8
-9.03
-6.36
-3.3
-0.33
2.29
4.48
6.25
7.54
8.2
8.07
7.12
5.61
3.95
2.57
1.72
1.4
1.36
1.27
0.85
-0.05
-1.39
-3.03
-4.71
-6.19
-7.32
-8.07
-8.64
-9.27
-10.29
-11.82
-13.91
-16.36
-18.8
-20.76
-21.72
-21.24
-19.1
-15.49
-10.93
-6.25
-2.23
0.64
2.28
3
3.23
3.27
3.16
2.77
1.99
0.88
-0.24
-1
-1.14
-0.68
0.11
0.82
1.15
1.02
0.57
-0.03
-0.69
-1.42
-2.38
-3.72
-5.5
-7.7
-10.16
-12.65
-14.92
-16.71
-17.77
-17.86
-16.89
-14.9
-12.04
-8.59
-4.91
-1.37
1.79
4.38
6.39
7.83
8.75
9.13
8.91
8.12
6.89
5.55
4.46
3.88
3.86
4.22
4.6
4.7
4.42
3.85
3.2
2.63
2.21
1.8
1.17
0.12
-1.56
-3.86
-6.68
-9.77
-12.73
-15.02
-16.11
-15.59
-13.27
-9.44
-4.65
0.3
4.7
8.09
10.37
11.68
12.3
12.45
12.31
11.93
11.33
10.58
9.74
8.97
8.41
8.19
8.33
8.79
9.41
9.94
10.17
10
9.4
8.44
7.23
5.91
4.51
3.09
1.65
0.18
-1.31
-2.87
-4.53
-6.39
-8.46
-10.65
-12.67
-14.09
-14.39
-13.16
-10.31
-6.1
-1.17
3.68
7.76
10.68
12.42
13.3
13.72
14.01
14.29
14.47
14.4
13.99
13.28
12.48
11.85
11.53
11.52
11.67
11.74
11.53
10.98
10.18
9.27
8.38
7.52
6.64
5.66
4.48
3.05
1.32
-0.71
-3.09
-5.69
-8.29
-10.38
-11.38
-10.73
-8.23
-4.13
0.91
5.98
10.24
13.2
14.79
15.25
14.99
14.33
13.49
12.55
11.53
10.45
9.36
8.31
7.38
6.63
6.08
5.75
5.57
5.4
5.07
4.44
3.49
2.33
1.14
0.1
-0.73
-1.41
-2.17
-3.25
-4.81
-6.8
-8.93
-10.73
-11.77
-11.69
-10.44
-8.22
-5.36
-2.24
0.8
3.56
5.85
7.46
8.19
7.88
6.54
4.41
1.97
-0.25
-1.78
-2.46
-2.35
-1.76
-1.07
-0.58
-0.43
-0.61
-1.02
-1.51
-1.97
-2.41
-2.93
-3.7
-4.88
-6.46
-8.35
-10.28
-11.98
-13.2
-13.69
-13.25
-11.76
-9.19
-5.69
-1.68
2.29
5.63
7.94
9.09
9.28
8.8
7.89
6.75
5.46
4.09
2.72
1.45
0.33
-0.59
-1.32
-1.88
-2.24
-2.41
-2.41
-2.39
-2.55
-3.07
-4.05
-5.48
-7.26
-9.27
-11.31
-13.15
-14.38
-14.62
-13.52
-11.04
-7.46
-3.39
0.52
3.69
5.87
7.1
7.6
7.64
7.39
6.93
6.29
5.48
4.6
3.78
3.16
2.79
2.64
2.52
2.21
1.52
0.41
-0.94
-2.24
-3.21
-3.76
-4.08
-4.55
-5.6
-7.46
-10
-12.7
-14.77
-15.45
-14.31
-11.39
-7.24
-2.67
1.55
4.93
7.37
9.06
10.27
11.14
11.6
11.47
10.61
9.06
7.08
5.08
3.45
2.44
2.02
1.95
1.9
1.53
0.76
-0.3
-1.4
-2.29
-2.91
-3.34
-3.8
-4.48
-5.47
-6.74
-8.25
-9.95
-11.72
-13.32
-14.29
-14.14
-12.53
-9.5
-5.49
-1.22
2.63
5.67
7.79
9.12
9.81
9.95
9.62
8.97
8.2
7.51
7.01
6.6
6.18
5.65
5.06
4.55
4.24
4.13
4.08
3.91
3.43
2.63
1.56
0.37
-0.89
-2.21
-3.66
-5.27
-6.99
-8.74
-10.32
-11.65
-12.7
-13.57
-14.4
-15.19
-15.69
-15.46
-14.06
-11.29
-7.4
-3.05
0.95
3.92
5.59
6.11
5.9
5.43
4.99
4.65
4.36
4.02
3.63
3.32
3.3
3.72
4.59
5.73
6.76
7.31
7.15
6.3
5.01
3.61
2.36
1.33
0.45
-0.44
-1.44
-2.56
-3.75
-4.95
-6.23
-7.68
-9.42
-11.37
-13.21
-14.45
-14.58
-13.32
-10.75
-7.38
-3.87
-0.82
1.46
3.02
4.1
4.93
5.52
5.77
5.52
4.79
3.82
2.92
2.41
2.32
2.5
2.66
2.59
2.24
1.73
1.24
0.83
0.42
-0.18
-1.08
-2.3
-3.64
-4.88
-5.84
-6.51
-7.06
-7.71
-8.61
-9.73
-10.74
-11.23
-10.78
-9.17
-6.48
-3.07
0.53
3.8
6.35
8.04
8.93
9.24
9.13
8.71
7.97
6.93
5.7
4.49
3.58
3.11
3.11
3.36
3.59
3.55
3.2
2.69
2.17
1.72
1.22
0.48
-0.68
-2.33
-4.25
-6.16
-7.87
-9.3
-10.61
-11.93
-13.28
-14.4
-14.9
-14.31
-12.43
-9.4
-5.69
-1.96
1.24
3.58
5.08
5.9
6.26
6.28
5.93
5.19
4.07
2.74
1.47
0.57
0.19
0.37
0.91
1.57
2.14
2.46
2.48
2.21
1.74
1.09
0.28
-0.67
-1.74
-2.87
-4
-5.11
-6.23
-7.45
-8.85
-10.39
-11.81
-12.75
-12.75
-11.54
-9.16
-5.97
-2.56
0.48
2.77
4.21
4.96
5.28
5.41
5.41
5.22
4.81
4.19
3.52
3.01
2.82
3.02
3.52
4.08
4.51
4.64
4.46
4.03
3.4
2.62
1.73
0.75
-0.3
-1.41
-2.59
-3.9
-5.38
-7.02
-8.68
-10.05
-10.79
-10.61
-9.39
-7.32
-4.77
-2.2
0.05
1.83
3.22
4.39
5.52
6.58
7.38
7.66
7.25
6.23
4.87
3.52
2.47
1.82
1.49
1.29
1.08
0.84
0.65
0.59
0.65
0.73
0.64
0.23
-0.63
-1.92
-3.58
-5.5
-7.54
-9.46
-10.97
-11.71
-11.37
-9.89
-7.46
-4.49
-1.49
1.16
3.24
4.72
5.69
6.25
6.48
6.36
5.9
5.08
3.96
2.67
1.4
0.39
-0.14
-0.11
0.37
0.96
1.31
1.14
0.44
-0.57
-1.56
-2.23
-2.51
-2.58
-2.77
-3.41
-4.66
-6.43
-8.47
-10.37
-11.76
-12.4
-12.18
-11.14
-9.44
-7.29
-4.91
-2.55
-0.42
1.36
2.69
3.53
3.91
3.9
3.59
3.11
2.54
2.01
1.62
1.4
1.43
1.69
2.08
2.49
2.8
2.86
2.57
1.88
0.85
-0.32
-1.39
-2.17
-2.63
-2.94
-3.41
-4.26
-5.56
-7.17
-8.8
-10.27
-11.47
-12.4
-12.99
-13.04
-12.24
-10.33
-7.34
-3.65
0.12
3.3
5.47
6.49
6.58
6.17
5.7
5.48
5.62
5.95
6.22
6.18
5.7
4.85
3.81
2.83
2.12
1.79
1.8
1.98
2.12
2
1.52
0.64
-0.56
-1.98
-3.5
-4.99
-6.38
-7.57
-8.52
-9.2
-9.74
-10.33
-11.19
-12.41
-13.84
-15.14
-15.74
-15.2
-13.32
-10.3
-6.69
-3.18
-0.35
1.55
2.61
3.18
3.59
4.12
4.79
5.53
6.19
6.65
6.86
6.81
6.51
6.03
5.49
4.98
4.55
4.15
3.67
3.03
2.19
1.25
0.29
-0.6
-1.39
-2.15
-2.92
-3.74
-4.59
-5.52
-6.57
-7.88
-9.46
-11.18
-12.67
-13.45
-13.08
-11.41
-8.53
-4.89
-1.08
2.35
4.98
6.68
7.48
7.59
7.26
6.68
5.96
5.1
4.12
3.05
2.06
1.4
1.32
1.93
3.08
4.41
5.54
6.12
6.07
5.48
4.6
3.64
2.72
1.79
0.74
-0.56
-2.12
-3.83
-5.5
-7
-8.32
-9.56
-10.81
-11.99
-12.74
-12.58
-11.1
-8.26
-4.51
-0.59
2.77
5.12
6.5
7.26
7.81
8.33
8.74
8.8
8.37
7.5
6.49
5.66
5.18
4.98
4.8
4.39
3.7
2.91
2.26
1.88
1.74
1.59
1.19
0.45
-0.57
-1.71
-2.85
-3.99
-5.18
-6.48
-7.9
-9.41
-10.94
-12.41
-13.7
-14.61
-14.79
-13.93
-11.91
-8.92
-5.44
-2.06
0.78
2.89
4.32
5.3
5.98
6.43
6.66
6.67
6.48
6.2
5.93
5.73
5.63
5.65
5.74
5.85
5.92
5.9
5.66
5.13
4.23
2.9
1.13
-0.94
-3.11
-5.12
-6.75
-7.98
-8.88
-9.67
-10.53
-11.57
-12.73
-13.87
-14.71
-14.94
-14.27
-12.5
-9.64
-6
-2.17
1.2
3.65
5.07
5.74
6.18
6.81
7.79
8.91
9.81
10.16
9.88
9.09
8.08
7.15
6.44
5.96
5.57
5.16
4.63
3.93
3.1
2.24
1.47
0.88
0.44
0.08
-0.34
-0.98
-1.95
-3.3
-5.02
-7.08
-9.38
-11.68
-13.6
-14.68
-14.49
-12.87
-9.99
-6.3
-2.4
1.22
4.29
6.72
8.56
9.82
10.49
10.58
10.2
9.58
8.97
8.53
8.26
8.01
7.62
7
6.19
5.36
4.72
4.38
4.35
4.47
4.48
4.2
3.54
2.57
1.46
0.34
-0.69
-1.73
-2.97
-4.6
-6.65
-8.96
-11.09
-12.5
-12.64
-11.17
-8.14
-3.96
0.65
4.92
8.33
10.7
12.2
13.11
13.71
14.03
14.01
13.56
12.69
11.61
10.66
10.16
10.26
10.88
11.67
12.22
12.19
11.45
10.18
8.67
7.26
6.13
5.31
4.68
4.09
3.43
2.58
1.44
-0.12
-2.14
-4.53
-6.91
-8.71
-9.33
-8.37
-5.87
-2.23
1.9
5.87
9.22
11.75
13.49
14.56
15.06
14.96
14.24
12.91
11.16
9.29
7.66
6.55
6.08
6.16
6.51
6.79
6.67
6
4.85
3.44
2.07
0.97
0.17
-0.44
-1.11
-2.12
-3.64
-5.71
-8.18
-10.69
-12.76
-13.86
-13.51
-11.53
-8.07
-3.6
1.15
5.47
8.85
11.07
12.18
12.43
12.04
11.2
10.02
8.65
7.35
6.38
5.95
6.03
6.34
6.47
6.04
4.9
3.16
1.2
-0.67
-2.28
-3.66
-4.99
-6.46
-8.13
-10.03
-12.15
-14.38
-16.55
-18.33
-19.22
-18.77
-16.78
-13.42
-9.18
-4.76
-0.69
2.69
5.35
7.42
9
10.12
10.78
10.99
10.76
10.22
9.47
8.63
7.77
6.93
6.13
5.32
4.51
3.7
2.91
2.15
1.38
0.56
-0.41
-1.67
-3.3
-5.38
-7.98
-10.98
-14.1
-16.78
-18.36
-18.29
-16.35
-12.8
-8.27
-3.56
0.69
4.12
6.77
8.83
10.47
11.74
12.56
12.81
12.44
11.61
10.62
9.75
9.17
8.86
8.61
8.25
7.71
7.01
6.31
5.72
5.22
4.7
3.95
2.78
1.09
-1.09
-3.73
-6.71
-9.94
-13.19
-16.11
-18.21
-18.94
-17.88
-14.96
-10.53
-5.3
-0.16
4.22
7.47
9.58
10.8
11.38
11.49
11.21
10.6
9.73
8.75
7.87
7.25
6.95
6.95
7.17
7.48
7.78
8.01
8.1
8.01
7.71
7.12
6.18
4.82
3.1
1.09
-1.02
-3.1
-5.03
-6.82
-8.6
-10.52
-12.71
-15.12
-17.42
-19.1
-19.58
-18.44
-15.65
-11.61
-7.03
-2.71
0.84
3.46
5.38
6.92
8.34
9.64
10.61
11.01
10.77
10.06
9.22
8.57
8.26
8.22
8.25
8.16
7.85
7.35
6.67
5.82
4.67
3.2
1.42
-0.47
-2.29
-3.91
-5.4
-6.97
-8.82
-11.02
-13.37
-15.49
-16.85
-17.02
-15.75
-13.12
-9.48
-5.32
-1.17
2.56
5.64
8.03
9.78
10.97
11.6
11.65
11.11
10.1
8.88
7.75
6.97
6.66
6.74
6.97
7.12
6.98
6.5
5.65
4.52
3.19
1.77
0.41
-0.86
-2.01
-3.16
-4.4
-5.86
-7.55
-9.35
-11.12
-12.58
-13.49
-13.52
-12.42
-10.1
-6.73
-2.7
1.43
5.1
7.99
9.98
11.16
11.64
11.55
10.97
10.02
8.84
7.63
6.62
5.95
5.68
5.72
5.91
6.09
6.11
5.94
5.62
5.29
4.98
4.67
4.24
3.46
2.14
0.13
-2.54
-5.71
-9.06
-12.24
-14.8
-16.26
-16.26
-14.63
-11.56
-7.51
-3.13
0.95
4.31
6.79
8.45
9.43
9.85
9.76
9.23
8.37
7.41
6.59
6.14
6.08
6.26
6.39
6.11
5.19
3.62
1.63
-0.34
-1.86
-2.69
-2.88
-2.77
-2.86
-3.61
-5.32
-8.01
-11.44
-15.18
-18.65
-21.21
-22.34
-21.73
-19.43
-15.81
-11.5
-7.07
-2.95
0.73
3.92
6.66
8.81
10.2
10.68
10.21
8.97
7.32
5.67
4.29
3.3
2.61
2.06
1.52
0.96
0.42
-0.04
-0.38
-0.64
-0.96
-1.46
-2.25
-3.39
-4.91
-6.78
-9
-11.41
-13.75
-15.57
-16.44
-16.04
-14.3
-11.54
-8.26
-5.11
-2.48
-0.46
1.17
2.68
4.21
5.71
6.9
7.55
7.53
6.94
6
5.01
4.17
3.63
3.42
3.49
3.72
3.92
3.86
3.32
2.26
0.8
-0.79
-2.26
-3.55
-4.72
-5.97
-7.53
-9.46
-11.69
-14.01
-16.08
-17.52
-17.98
-17.15
-14.92
-11.37
-6.91
-2.23
1.93
4.99
6.76
7.45
7.57
7.58
7.7
7.86
7.76
7.23
6.28
5.22
4.41
4.04
3.98
3.89
3.44
2.47
1.16
-0.15
-1.11
-1.57
-1.66
-1.71
-2.07
-2.95
-4.43
-6.41
-8.72
-11.19
-13.56
-15.49
-16.59
-16.45
-14.79
-11.69
-7.56
-3.12
0.89
3.92
5.83
6.82
7.32
7.74
8.26
8.89
9.49
9.91
10.11
10.16
10.16
10.17
10.18
10.06
9.74
9.16
8.37
7.43
6.4
5.23
3.84
2.15
0.1
-2.22
-4.63
-6.98
-9.15
-11.12
-12.91
-14.45
-15.52
-15.79
-14.9
-12.73
-9.42
-5.38
-1.16
2.77
6.1
8.73
10.75
12.24
13.25
13.72
13.61
12.94
11.84
10.57
9.39
8.5
7.96
7.65
7.42
7.14
6.72
6.13
5.4
4.54
3.52
2.32
0.86
-0.85
-2.74
-4.75
-6.79
-8.77
-10.65
-12.43
-14.14
-15.73
-16.99
-17.58
-17.09
-15.22
-11.99
-7.8
-3.34
0.67
3.71
5.6
6.55
6.95
7.21
7.48
7.75
7.84
7.66
7.25
6.79
6.46
6.29
6.2
5.96
5.47
4.78
4.1
3.61
3.34
3.1
2.57
1.5
-0.15
-2.17
-4.28
-6.28
-8.18
-10.12
-12.23
-14.42
-16.33
-17.42
-17.16
-15.35
-12.15
-8.11
-3.9
-0.16
2.73
4.71
5.91
6.6
7.01
7.27
7.39
7.4
7.33
7.27
7.35
7.61
7.91
8.04
7.78
7.12
6.29
5.61
5.35
5.49
5.71
5.54
4.65
3.03
0.95
-1.16
-3
-4.55
-5.97
-7.56
-9.49
-11.77
-14.24
-16.62
-18.54
-19.64
-19.64
-18.33
-15.74
-12.07
-7.68
-3.06
1.29
4.94
7.64
9.31
10.11
10.24
9.98
9.53
8.99
8.37
7.74
7.21
6.89
6.86
7
7.09
6.89
6.27
5.32
4.33
3.6
3.25
3.2
3.12
2.63
1.45
-0.47
-2.93
-5.67
-8.35
-10.77
-12.68
-13.87
-14.06
-12.99
-10.56
-6.92
-2.53
1.95
5.84
8.75
10.57
11.51
11.87
11.91
11.75
11.37
10.76
9.98
9.28
8.88
8.89
9.29
9.79
10.06
9.87
9.15
8.05
6.78
5.46
4.09
2.62
0.98
-0.77
-2.4
-3.71
-4.58
-5.14
-5.68
-6.55
-7.92
-9.81
-12.04
-14.35
-16.47
-18.12
-18.99
-18.81
-17.41
-14.86
-11.53
-7.95
-4.64
-1.9
0.25
1.98
3.47
4.75
5.78
6.41
6.63
6.54
6.31
6.08
5.96
5.97
6.1
6.29
6.42
6.37
5.98
5.13
3.85
2.33
0.85
-0.37
-1.26
-1.94
-2.57
-3.27
-4.1
-5.04
-6.15
-7.57
-9.43
-11.69
-14.01
-15.72
-16.13
-14.81
-11.85
-7.9
-3.86
-0.53
1.72
3
3.77
4.53
5.55
6.8
8.01
8.85
9.18
9.04
8.66
8.25
7.89
7.52
7.01
6.31
5.43
4.51
3.64
2.84
1.97
0.93
-0.36
-1.83
-3.31
-4.64
-5.74
-6.66
-7.53
-8.51
-9.74
-11.3
-13.17
-15.11
-16.74
-17.52
-16.98
-14.89
-11.46
-7.23
-2.98
0.62
3.23
4.83
5.74
6.31
6.77
7.2
7.52
7.64
7.52
7.26
6.95
6.67
6.44
6.19
5.82
5.27
4.51
3.53
2.38
1.11
-0.22
-1.52
-2.76
-3.87
-4.81
-5.57
-6.17
-6.66
-7.17
-7.87
-8.9
-10.34
-12
-13.51
-14.38
-14.18
-12.7
-10.14
-6.92
-3.58
-0.54
1.98
3.99
5.52
6.62
7.25
7.32
6.83
5.95
4.93
4.03
3.41
3.06
2.89
2.77
2.65
2.54
2.47
2.43
2.4
2.33
2.17
1.87
1.35
0.52
-0.68
-2.23
-4.03
-5.89
-7.59
-9.03
-10.06
-10.57
-10.38
-9.34
-7.44
-4.82
-1.81
1.18
3.8
5.93
7.55
8.76
9.59
10.01
9.94
9.39
8.44
7.31
6.26
5.48
5.13
5.19
5.51
5.87
6
5.76
5.15
4.31
3.46
2.75
2.22
1.76
1.17
0.22
-1.21
-3.12
-5.36
-7.71
-9.81
-11.23
-11.59
-10.66
-8.48
-5.38
-1.83
1.69
4.8
7.32
9.23
10.57
11.42
11.82
11.76
11.24
10.3
9.08
7.8
6.66
5.83
5.34
5.1
4.92
4.62
4.11
3.34
2.32
1.07
-0.44
-2.2
-4.16
-6.24
-8.34
-10.36
-12.28
-14
-15.39
-16.26
-16.35
-15.48
-13.55
-10.65
-7.07
-3.26
0.32
3.3
5.43
6.74
7.38
7.52
7.31
6.82
6.07
5.14
4.18
3.36
2.78
2.45
2.25
2.02
1.62
1.03
0.34
-0.29
-0.71
-0.89
-0.98
-1.26
-2.02
-3.44
-5.51
-8.04
-10.68
-13.09
-14.98
-16.12
-16.29
-15.29
-13.08
-9.83
-5.95
-2.06
1.3
3.79
5.41
6.36
6.9
7.15
7.05
6.44
5.24
3.57
1.79
0.38
-0.31
-0.16
0.63
1.64
2.42
2.69
2.47
1.99
1.51
1.1
0.64
-0.19
-1.64
-3.8
-6.55
-9.56
-12.46
-14.89
-16.49
-16.97
-16.11
-13.9
-10.65
-6.86
-3.14
0.13
2.87
5.26
7.5
9.63
11.37
12.36
12.31
11.23
9.41
7.38
5.6
4.4
3.89
3.92
4.2
4.42
4.33
3.85
3.08
2.22
1.47
0.85
0.17
-0.78
-2.17
-3.93
-5.81
-7.52
-8.93
-10.16
-11.33
-12.44
-13.15
-12.97
-11.48
-8.64
-4.88
-0.96
2.38
4.7
5.98
6.54
6.79
6.99
7.26
7.52
7.68
7.77
7.83
7.94
8.15
8.46
8.81
9.19
9.55
9.86
10.03
9.95
9.46
8.5
7.12
5.52
3.89
2.39
1.07
-0.13
-1.25
-2.33
-3.38
-4.44
-5.64
-7.11
-8.88
-10.75
-12.28
-12.92
-12.27
-10.27
-7.32
-4.07
-1.17
0.99
2.48
3.63
4.86
6.38
8.07
9.57
10.46
10.54
10
9.3
8.91
9.17
9.94
10.75
11
10.3
8.7
6.63
4.76
3.57
3.2
3.3
3.36
2.88
1.65
-0.22
-2.41
-4.61
-6.59
-8.18
-9.21
-9.45
-8.65
-6.72
-3.86
-0.57
2.57
5.04
6.65
7.49
7.86
7.99
7.91
7.51
6.65
5.37
3.91
2.61
1.78
1.5
1.59
1.77
1.78
1.5
1.04
0.54
0.1
-0.32
-0.86
-1.6
-2.56
-3.61
-4.74
-6
-7.56
-9.53
-11.77
-13.81
-15
-14.79
-13.03
-10.12
-6.71
-3.5
-0.85
1.25
3.02
4.66
6.16
7.34
8
8.06
7.64
6.99
6.39
5.96
5.73
5.61
5.5
5.32
4.98
4.43
3.68
2.8
1.93
1.14
0.39
-0.47
-1.63
-3.22
-5.21
-7.43
-9.62
-11.52
-12.87
-13.45
-13.04
-11.51
-8.87
-5.4
-1.6
1.97
4.82
6.81
8.07
8.88
9.44
9.8
9.75
9.15
7.97
6.51
5.19
4.42
4.29
4.6
4.99
5.13
4.96
4.62
4.34
4.23
4.16
3.9
3.19
2
0.45
-1.22
-2.89
-4.59
-6.48
-8.73
-11.36
-14.15
-16.71
-18.56
-19.29
-18.7
-16.78
-13.75
-9.99
-5.91
-1.94
1.62
4.55
6.75
8.25
9.12
9.49
9.47
9.13
8.48
7.59
6.56
5.56
4.82
4.52
4.67
5.11
5.58
5.81
5.64
5.03
4.1
3.02
1.88
0.72
-0.55
-2
-3.74
-5.79
-8.08
-10.43
-12.58
-14.21
-15.01
-14.72
-13.23
-10.59
-7.06
-3.08
0.84
4.26
6.84
8.45
9.17
9.23
8.89
8.39
7.85
7.24
6.54
5.7
4.79
3.97
3.35
2.99
2.76
2.53
2.11
1.49
0.76
0.08
-0.41
-0.72
-0.9
-1.12
-1.45
-1.97
-2.67
-3.54
-4.63
-5.94
-7.49
-9.13
-10.64
-11.65
-11.77
-10.82
-8.86
-6.25
-3.5
-1.08
0.79
2.14
3.21
4.22
5.18
5.95
6.21
5.77
4.7
3.35
2.21
1.64
1.71
2.16
2.57
2.62
2.27
1.74
1.33
1.22
1.26
1.13
0.46
-0.84
-2.52
-4.14
-5.38
-6.18
-6.84
-7.72
-8.94
-10.22
-10.96
-10.52
-8.65
-5.62
-2.09
1.16
3.62
5.13
5.84
6.02
5.84
5.36
4.59
3.67
2.79
2.18
1.97
2.17
2.63
3.17
3.65
3.96
4.13
4.09
3.83
3.31
2.53
1.55
0.44
-0.7
-1.83
-2.94
-4.06
-5.24
-6.55
-8.1
-9.96
-12.07
-14.2
-15.83
-16.42
-15.58
-13.26
-9.84
-5.97
-2.32
0.63
2.73
4.08
4.87
5.31
5.52
5.59
5.54
5.44
5.33
5.25
5.27
5.45
5.81
6.3
6.79
7.04
6.89
6.26
5.21
3.87
2.45
1.07
-0.13
-1.09
-1.81
-2.3
-2.67
-3.06
-3.66
-4.67
-6.25
-8.43
-10.96
-13.34
-14.88
-14.99
-13.33
-10.09
-5.91
-1.68
1.78
4.07
5.24
5.71
5.99
6.46
7.2
8.09
8.87
9.35
9.51
9.39
9.06
8.52
7.77
6.79
5.69
4.63
3.82
3.4
3.34
3.47
3.56
3.39
2.87
2.06
1.12
0.2
-0.59
-1.3
-2.11
-3.23
-4.82
-6.88
-9.3
-11.86
-14.36
-16.51
-18
-18.4
-17.39
-14.94
-11.4
-7.43
-3.73
-0.79
1.37
3.04
4.58
6.19
7.71
8.85
9.36
9.22
8.65
8.01
7.56
7.38
7.36
7.24
6.88
6.21
5.35
4.48
3.75
3.16
2.6
1.86
0.78
-0.59
-2.02
-3.19
-3.85
-3.95
-3.68
-3.34
-3.29
-3.76
-4.88
-6.69
-9.06
-11.71
-14.19
-15.85
-16.06
-14.47
-11.18
-6.84
-2.38
1.35
3.87
5.21
5.79
6.13
6.51
6.95
7.24
7.2
6.82
6.23
5.61
5.09
4.66
4.3
4.02
3.86
3.87
3.98
4.06
3.94
3.52
2.79
1.86
0.81
-0.35
-1.62
-3
-4.41
-5.83
-7.29
-8.95
-10.98
-13.4
-15.93
-17.99
-18.89
-18.11
-15.5
-11.46
-6.74
-2.24
1.32
3.59
4.69
4.98
4.96
4.97
5.19
5.57
5.95
6.22
6.36
6.48
6.66
6.98
7.42
7.8
7.97
7.78
7.2
6.26
5.06
3.71
2.27
0.73
-0.95
-2.75
-4.54
-6.19
-7.59
-8.76
-9.84
-10.99
-12.17
-13.11
-13.32
-12.37
-10.1
-6.8
-3.08
0.34
2.99
4.78
5.86
6.49
6.83
6.83
6.38
5.53
4.51
3.71
3.47
3.92
4.84
5.82
6.41
6.35
5.66
4.52
3.25
2.07
1.08
0.28
-0.39
-1.03
-1.76
-2.66
-3.88
-5.47
-7.5
-9.91
-12.46
-14.77
-16.35
-16.73
-15.67
-13.27
-9.92
-6.25
-2.88
-0.23
1.57
2.69
3.48
4.25
5.14
6.11
6.89
7.21
6.93
6.2
5.36
4.83
4.81
5.23
5.71
5.88
5.49
4.62
3.52
2.45
1.55
0.72
-0.17
-1.26
-2.49
-3.81
-5.14
-6.56
-8.15
-9.95
-11.86
-13.5
-14.48
-14.42
-13.18
-10.82
-7.66
-4.13
-0.64
2.46
4.96
6.81
8.07
8.88
9.42
9.83
10.18
10.5
10.77
11.04
11.25
11.37
11.33
11.04
10.46
9.66
8.75
7.85
7.04
6.28
5.43
4.32
2.83
0.98
-1.06
-3.05
-4.81
-6.25
-7.48
-8.71
-10.13
-11.87
-13.9
-16.04
-17.96
-19.23
-19.39
-18.12
-15.35
-11.37
-6.85
-2.57
0.84
3.13
4.53
5.4
6.12
6.74
7.11
6.95
6.22
5.13
4.09
3.52
3.59
4.21
5.01
5.63
5.81
5.56
5.04
4.39
3.7
2.88
1.84
0.53
-0.97
-2.47
-3.85
-5.1
-6.48
-8.25
-10.6
-13.38
-16.1
-18.08
-18.63
-17.4
-14.38
-10.03
-4.99
-0.03
4.25
7.49
9.66
10.97
11.72
12.15
12.32
12.25
11.87
11.22
10.43
9.65
9.05
8.63
8.35
8.1
7.82
7.48
7.06
6.5
5.66
4.4
2.63
0.46
-1.9
-4.17
-6.16
-7.83
-9.29
-10.81
-12.56
-14.53
-16.49
-17.98
-18.53
-17.82
-15.81
-12.73
-9.07
-5.35
-2.02
0.64
2.56
3.87
4.75
5.4
5.93
6.33
6.6
6.72
6.78
7
7.58
8.56
9.77
10.85
11.45
11.3
10.43
9.03
7.39
5.7
4.04
2.36
0.66
-1.07
-2.78
-4.51
-6.37
-8.51
-11.01
-13.73
-16.33
-18.34
-19.32
-18.98
-17.28
-14.38
-10.63
-6.41
-2.08
2.05
5.78
9
11.62
13.57
14.76
15.16
14.77
13.78
12.5
11.26
10.35
9.87
9.73
9.72
9.68
9.51
9.28
9.02
8.73
8.27
7.5
6.29
4.65
2.76
0.84
-0.96
-2.59
-4.17
-5.83
-7.7
-9.87
-12.42
-15.45
-18.92
-22.53
-25.65
-27.43
-27.08
-24.23
-19.17
-12.75
-6.16
-0.36
4.15
7.38
9.68
11.41
12.72
13.52
13.69
13.16
12.1
10.82
9.67
8.92
8.65
8.77
9.11
9.46
9.66
9.59
9.23
8.58
7.68
6.58
5.33
3.92
2.34
0.56
-1.48
-3.86
-6.62
-9.73
-13.08
-16.35
-19.08
-20.67
-20.61
-18.65
-14.91
-9.97
-4.59
0.43
4.57
7.68
9.94
11.66
13.09
14.28
15.1
15.47
15.39
15.09
14.84
14.85
15.11
15.39
15.44
15.09
14.4
13.63
13.02
12.69
12.47
12.06
11.05
9.27
6.75
3.78
0.76
-1.93
-4.09
-5.7
-6.92
-8.03
-9.38
-11.31
-13.98
-17.32
-20.93
-24.07
-25.92
-25.76
-23.28
-18.73
-12.81
-6.52
-0.77
3.79
6.99
9.08
10.53
11.73
12.87
13.86
14.43
14.37
13.67
12.6
11.56
10.93
10.79
11.01
11.25
11.24
10.86
10.16
9.29
8.32
7.25
5.94
4.29
2.23
-0.1
-2.49
-4.77
-6.9
-8.99
-11.2
-13.51
-15.59
-16.82
-16.6
-14.58
-10.95
-6.36
-1.64
2.54
5.88
8.48
10.57
12.28
13.56
14.23
14.13
13.34
12.19
11.12
10.51
10.49
10.93
11.57
12.1
12.32
12.11
11.46
10.37
8.85
6.94
4.76
2.46
0.15
-2.16
-4.52
-7.07
-9.89
-12.94
-16.06
-18.93
-21.18
-22.36
-22.08
-20.1
-16.44
-11.46
-5.76
-0.07
4.92
8.8
11.4
12.84
13.46
13.57
13.47
13.25
12.93
12.42
11.66
10.74
9.89
9.39
9.4
9.84
10.43
10.75
10.46
9.41
7.75
5.72
3.6
1.52
-0.52
-2.6
-4.77
-6.96
-9.04
-10.97
-12.89
-15.04
-17.56
-20.28
-22.6
-23.74
-23
-20.16
-15.64
-10.32
-5.12
-0.69
2.76
5.45
7.7
9.73
11.54
12.96
13.82
14.1
14
13.81
13.8
13.98
14.16
14.1
13.61
12.79
11.91
11.28
11.02
10.96
10.67
9.7
7.85
5.21
2.26
-0.5
-2.63
-4.05
-4.97
-5.81
-7.01
-8.8
-11.25
-14.16
-17.22
-20.01
-22.1
-23.07
-22.58
-20.46
-16.79
-12.03
-6.83
-1.91
2.21
5.39
7.74
9.52
10.97
12.13
12.9
13.13
12.79
12.01
11.07
10.32
9.99
10.13
10.55
10.97
11.13
10.9
10.32
9.52
8.66
7.81
6.91
5.85
4.54
2.9
0.97
-1.1
-3.14
-4.94
-6.4
-7.51
-8.51
-9.65
-11.21
-13.31
-15.8
-18.3
-20.22
-21.02
-20.28
-17.92
-14.19
-9.62
-4.87
-0.48
3.17
6
8.06
9.52
10.51
11.14
11.55
11.82
12.01
12.11
12.05
11.78
11.32
10.74
10.2
9.79
9.5
9.31
9.15
9.03
8.99
9.03
9.02
8.72
7.89
6.36
4.2
1.63
-0.97
-3.31
-5.15
-6.5
-7.55
-8.55
-9.83
-11.59
-13.93
-16.67
-19.46
-21.74
-22.91
-22.48
-20.27
-16.46
-11.58
-6.43
-1.66
2.2
4.99
6.79
7.89
8.54
8.94
9.15
9.12
8.84
8.31
7.56
6.71
5.88
5.23
4.87
4.86
5.1
5.45
5.73
5.81
5.68
5.34
4.81
4.04
2.92
1.38
-0.5
-2.48
-4.22
-5.45
-6.15
-6.57
-7.13
-8.22
-10.04
-12.5
-15.28
-17.94
-19.98
-20.97
-20.56
-18.55
-15.04
-10.48
-5.56
-1.08
2.45
4.87
6.37
7.34
8.03
8.5
8.59
8.15
7.14
5.78
4.39
3.22
2.42
2.02
1.95
2.17
2.62
3.17
3.64
3.87
3.68
3.02
1.92
0.48
-1.13
-2.67
-3.95
-4.83
-5.35
-5.79
-6.52
-7.88
-10.01
-12.7
-15.42
-17.52
-18.37
-17.58
-15.17
-11.48
-7.06
-2.54
1.57
4.91
7.31
8.78
9.39
9.3
8.67
7.71
6.63
5.61
4.79
4.19
3.82
3.65
3.7
4
4.52
5.17
5.69
5.78
5.16
3.75
1.67
-0.74
-3.1
-5.05
-6.4
-7.19
-7.55
-7.83
-8.35
-9.42
-11.09
-13.09
-14.85
-15.68
-15.04
-12.8
-9.35
-5.39
-1.68
1.26
3.27
4.47
5.13
5.41
5.45
5.25
4.82
4.25
3.69
3.27
3.08
3.07
3.1
2.98
2.53
1.7
0.63
-0.44
-1.31
-1.84
-2.08
-2.22
-2.47
-2.99
-3.83
-4.96
-6.33
-7.94
-9.84
-11.96
-14.13
-15.9
-16.78
-16.31
-14.39
-11.34
-7.77
-4.36
-1.6
0.38
1.73
2.71
3.5
4.11
4.48
4.52
4.3
3.91
3.51
3.2
3.04
3.01
3.04
3.02
2.83
2.38
1.61
0.58
-0.57
-1.65
-2.5
-3.12
-3.61
-4.24
-5.25
-6.88
-9.12
-11.84
-14.6
-16.9
-18.18
-18.08
-16.48
-13.6
-9.9
-5.96
-2.31
0.68
2.87
4.3
5.17
5.76
6.28
6.82
7.31
7.56
7.42
6.81
5.91
4.96
4.25
3.9
3.76
3.56
2.98
1.9
0.41
-1.24
-2.74
-3.92
-4.74
-5.34
-5.93
-6.72
-7.84
-9.4
-11.43
-13.83
-16.43
-18.88
-20.66
-21.24
-20.25
-17.63
-13.71
-9.16
-4.65
-0.75
2.35
4.71
6.56
8.1
9.4
10.4
11
11.13
10.82
10.18
9.4
8.68
8.18
7.95
7.93
7.95
7.8
7.3
6.4
5.17
3.76
2.33
0.94
-0.42
-1.85
-3.4
-5.06
-6.77
-8.46
-10.16
-11.93
-13.8
-15.59
-16.86
-17.02
-15.61
-12.52
-8.16
-3.37
0.96
4.23
6.33
7.59
8.5
9.43
10.4
11.17
11.42
11.03
10.17
9.21
8.57
8.46
8.74
9.15
9.41
9.4
9.28
9.25
9.37
9.44
9.04
7.77
5.47
2.36
-1.09
-4.34
-7.02
-9.03
-10.53
-11.8
-13.05
-14.44
-15.97
-17.54
-18.92
-19.81
-19.86
-18.75
-16.36
-12.83
-8.62
-4.34
-0.55
2.43
4.57
6.11
7.36
8.5
9.52
10.23
10.49
10.24
9.66
9.03
8.65
8.68
9
9.31
9.21
8.36
6.72
4.52
2.26
0.5
-0.44
-0.62
-0.4
-0.3
-0.74
-1.88
-3.68
-5.96
-8.51
-11.15
-13.65
-15.59
-16.48
-15.81
-13.35
-9.31
-4.3
0.82
5.28
8.58
10.71
11.94
12.68
13.23
13.67
13.9
13.76
13.26
12.57
12.03
11.87
12.16
12.7
13.2
13.35
13.04
12.39
11.55
10.69
9.73
8.51
6.8
4.53
1.9
-0.73
-2.91
-4.41
-5.26
-5.81
-6.51
-7.73
-9.59
-11.94
-14.39
-16.46
-17.76
-17.94
-16.81
-14.32
-10.68
-6.31
-1.86
2.04
4.97
6.86
7.98
8.74
9.43
10.11
10.63
10.78
10.48
9.91
9.35
9.1
9.24
9.62
9.95
10.02
9.71
9.12
8.43
7.76
7.17
6.59
5.86
4.86
3.49
1.71
-0.5
-3.09
-6.01
-9.14
-12.26
-14.98
-16.8
-17.17
-15.71
-12.36
-7.52
-1.97
3.36
7.7
10.69
12.46
13.42
14
14.41
14.58
14.31
13.45
12.08
10.56
9.35
8.77
8.86
9.32
9.72
9.7
9.13
8.15
7.04
6
5.08
4.15
3.01
1.5
-0.38
-2.57
-4.95
-7.43
-9.91
-12.22
-14.02
-14.93
-14.63
-12.95
-10.01
-6.21
-2.04
1.96
5.41
8.13
10.1
11.32
11.83
11.62
10.68
9.09
7.14
5.19
3.68
2.85
2.71
3.01
3.37
3.44
3.09
2.38
1.51
0.67
-0.05
-0.67
-1.33
-2.21
-3.48
-5.27
-7.61
-10.38
-13.23
-15.61
-16.83
-16.39
-14.13
-10.36
-5.79
-1.22
2.72
5.75
7.92
9.48
10.6
11.37
11.75
11.65
11.06
10.03
8.68
7.11
5.45
3.85
2.49
1.49
0.9
0.61
0.46
0.31
0.08
-0.21
-0.57
-1.06
-1.84
-3.05
-4.75
-6.9
-9.39
-12.05
-14.68
-17.03
-18.7
-19.25
-18.29
-15.71
-11.72
-6.86
-1.79
2.88
6.72
9.56
11.42
12.47
12.92
13.03
12.95
12.77
12.51
12.08
11.46
10.58
9.5
8.32
7.2
6.32
5.79
5.65
5.77
5.94
5.86
5.26
4.05
2.26
0.14
-2.01
-3.91
-5.48
-6.79
-8.06
-9.5
-11.26
-13.35
-15.63
-17.88
-19.78
-21.01
-21.22
-20.14
-17.69
-14.02
-9.56
-4.91
-0.7
2.6
4.8
6.03
6.66
7.05
7.48
8.01
8.56
9
9.22
9.24
9.13
8.95
8.65
8.17
7.5
6.78
6.23
6.04
6.22
6.51
6.51
5.85
4.41
2.4
0.23
-1.66
-3.15
-4.33
-5.54
-7.1
-9.1
-11.46
-13.94
-16.27
-18.18
-19.36
-19.46
-18.18
-15.41
-11.46
-6.93
-2.62
0.88
3.34
4.96
6.12
7.17
8.23
9.16
9.77
9.93
9.69
9.22
8.73
8.34
8.09
7.92
7.77
7.57
7.27
6.75
5.95
4.8
3.31
1.55
-0.3
-2.1
-3.71
-5.09
-6.34
-7.54
-8.83
-10.34
-12.08
-13.95
-15.73
-17.02
-17.36
-16.45
-14.29
-11.22
-7.8
-4.55
-1.73
0.62
2.64
4.46
6.05
7.28
8.01
8.21
7.9
7.23
6.29
5.25
4.26
3.48
3.08
3.13
3.55
4.13
4.6
4.74
4.47
3.83
2.95
1.94
0.83
-0.41
-1.85
-3.53
-5.44
-7.46
-9.5
-11.5
-13.44
-15.24
-16.68
-17.42
-17.03
-15.3
-12.28
-8.34
-4.06
-0.06
3.22
5.57
6.99
7.69
7.9
7.84
7.68
7.48
7.24
6.89
6.44
5.98
5.69
5.7
5.98
6.3
6.32
5.77
4.58
2.94
1.17
-0.4
-1.58
-2.39
-3.02
-3.7
-4.62
-5.91
-7.63
-9.77
-12.24
-14.84
-17.22
-18.88
-19.37
-18.38
-15.9
-12.25
-8
-3.72
0.13
3.27
5.7
7.53
8.88
9.85
10.48
10.77
10.72
10.35
9.73
8.97
8.25
7.74
7.52
7.56
7.71
7.77
7.56
7.02
6.21
5.2
4.05
2.78
1.3
-0.43
-2.36
-4.36
-6.24
-7.86
-9.24
-10.52
-11.94
-13.73
-15.9
-18.22
-20.17
-21.12
-20.5
-18.13
-14.25
-9.56
-4.89
-0.93
2.05
4.2
5.92
7.62
9.46
11.33
12.93
13.96
14.26
13.83
12.88
11.74
10.74
10.1
9.88
9.98
10.17
10.22
9.99
9.49
8.84
8.19
7.58
6.94
6.11
4.89
3.23
1.17
-1.08
-3.26
-5.14
-6.59
-7.67
-8.59
-9.62
-10.93
-12.6
-14.58
-16.66
-18.6
-20.07
-20.68
-20.11
-18.16
-14.9
-10.67
-6.04
-1.61
2.19
5.17
7.41
9.11
10.45
11.47
12.14
12.37
12.21
11.79
11.39
11.22
11.38
11.78
12.2
12.34
12
11.17
10.01
8.78
7.7
6.83
6.07
5.27
4.27
3.01
1.57
0.08
-1.37
-2.74
-4.06
-5.41
-6.83
-8.38
-10.1
-12.06
-14.22
-16.33
-17.94
-18.48
-17.5
-14.85
-10.85
-6.12
-1.43
2.58
5.64
7.7
8.96
9.6
9.73
9.4
8.66
7.67
6.66
5.95
5.78
6.23
7.17
8.29
9.22
9.68
9.6
9.06
8.32
7.5
6.62
5.56
4.16
2.39
0.38
-1.55
-3.11
-4.12
-4.66
-5.04
-5.65
-6.78
-8.55
-10.87
-13.44
-15.88
-17.69
-18.4
-17.69
-15.49
-12.08
-8.02
-3.96
-0.47
2.19
4.06
5.36
6.33
7.11
7.68
7.92
7.7
6.98
5.82
4.44
3.15
2.27
2.08
2.6
3.6
4.62
5.2
5.03
4.12
2.78
1.41
0.38
-0.27
-0.66
-1.04
-1.66
-2.64
-4.03
-5.78
-7.88
-10.14
-12.28
-13.79
-14.15
-13.03
-10.46
-6.95
-3.25
-0.05
2.23
3.61
4.46
5.15
5.86
6.52
6.85
6.6
5.78
4.66
3.71
3.36
3.76
4.78
6.03
7.03
7.41
7.06
6.07
4.7
3.21
1.78
0.43
-0.9
-2.38
-4.13
-6.21
-8.58
-11.03
-13.3
-15.08
-16.02
-15.84
-14.39
-11.73
-8.12
-4.05
-0.11
3.22
5.62
7.08
7.76
7.92
7.78
7.45
6.96
6.35
5.71
5.25
5.08
5.24
5.54
5.68
5.32
4.3
2.77
1.1
-0.32
-1.25
-1.73
-2.08
-2.67
-3.77
-5.44
-7.48
-9.59
-11.44
-12.74
-13.26
-12.82
-11.31
-8.8
-5.57
-2.05
1.27
4
5.98
7.23
7.86
7.97
7.67
6.95
5.87
4.61
3.41
2.55
2.2
2.3
2.64
2.92
2.86
2.4
1.63
0.74
-0.13
-0.91
-1.77
-2.88
-4.44
-6.52
-8.99
-11.61
-13.98
-15.66
-16.2
-15.27
-12.83
-9.14
-4.81
-0.53
3.1
5.78
7.51
8.5
8.9
8.74
7.9
6.34
4.29
2.24
0.81
0.41
1.01
2.11
3.05
3.27
2.57
1.24
-0.3
-1.66
-2.75
-3.73
-4.93
-6.53
-8.56
-10.88
-13.28
-15.54
-17.4
-18.49
-18.41
-16.81
-13.63
-9.19
-4.19
0.58
4.52
7.4
9.34
10.58
11.26
11.33
10.71
9.43
7.73
6.05
4.76
4.05
3.8
3.8
3.82
3.76
3.62
3.43
3.14
2.61
1.65
0.2
-1.69
-3.86
-6.14
-8.42
-10.65
-12.72
-14.46
-15.47
-15.3
-13.64
-10.5
-6.28
-1.7
2.49
5.78
8.03
9.45
10.34
10.91
11.11
10.75
9.69
8.05
6.22
4.73
3.99
4.13
4.9
5.8
6.34
6.2
5.39
4.16
2.87
1.79
0.96
0.2
-0.74
-2.1
-3.97
-6.27
-8.83
-11.4
-13.75
-15.61
-16.68
-16.69
-15.43
-12.92
-9.42
-5.42
-1.46
1.97
4.64
6.51
7.73
8.44
8.75
8.75
8.54
8.27
8.14
8.28
8.71
9.34
9.98
10.47
10.71
10.71
10.48
10.06
9.38
8.34
6.87
4.95
2.7
0.36
-1.82
-3.71
-5.22
-6.41
-7.41
-8.34
-9.39
-10.73
-12.48
-14.57
-16.67
-18.18
-18.38
-16.86
-13.64
-9.28
-4.66
-0.53
2.7
5.14
7.14
8.96
10.6
11.85
12.4
12.22
11.5
10.62
9.94
9.62
9.57
9.56
9.41
9.07
8.66
8.44
8.53
8.93
9.44
9.77
9.61
8.79
7.3
5.29
3.01
0.67
-1.55
-3.63
-5.57
-7.39
-9.15
-10.91
-12.7
-14.54
-16.28
-17.53
-17.82
-16.73
-14.11
-10.27
-5.86
-1.65
1.8
4.28
5.94
7.09
7.98
8.71
9.26
9.61
9.78
9.89
9.98
10.08
10.09
9.97
9.69
9.29
8.78
8.2
7.57
6.91
6.34
5.94
5.77
5.76
5.7
5.33
4.48
3.13
1.42
-0.4
-2.1
-3.6
-4.97
-6.41
-8.08
-9.96
-11.79
-13.06
-13.21
-11.87
-9.07
-5.19
-0.95
2.96
6.03
8.11
9.31
9.89
10.11
10.09
9.94
9.7
9.47
9.33
9.35
9.54
9.84
10.17
10.41
10.55
10.52
10.31
9.88
9.2
8.31
7.25
6.13
5
3.84
2.59
1.18
-0.46
-2.26
-4.19
-6.21
-8.33
-10.55
-12.68
-14.29
-14.83
-13.87
-11.32
-7.58
-3.37
0.51
3.47
5.4
6.49
7.1
7.5
7.7
7.62
7.17
6.37
5.4
4.54
4.04
3.97
4.3
4.77
5.07
4.92
4.22
3.06
1.68
0.41
-0.55
-1.18
-1.63
-2.19
-3.12
-4.5
-6.22
-8
-9.47
-10.33
-10.32
-9.31
-7.39
-4.75
-1.75
1.25
3.92
6.09
7.72
8.87
9.58
9.85
9.61
8.79
7.47
5.8
4.11
2.7
1.79
1.41
1.38
1.41
1.26
0.81
0.1
-0.68
-1.36
-1.88
-2.3
-2.82
-3.65
-4.97
-6.77
-8.93
-11.18
-13.23
-14.71
-15.29
-14.76
-13.04
-10.32
-6.97
-3.49
-0.36
2.04
3.61
4.46
4.85
5.04
5.19
5.29
5.24
4.96
4.46
3.88
3.46
3.39
3.67
4.13
4.42
4.28
3.66
2.7
1.7
0.92
0.41
0.01
-0.55
-1.55
-3.14
-5.32
-7.91
-10.56
-12.8
-14.1
-14.04
-12.5
-9.72
-6.28
-2.87
-0.05
1.93
3.13
3.78
4.13
4.35
4.52
4.67
4.88
5.15
5.45
5.68
5.68
5.39
4.87
4.3
3.83
3.51
3.3
3.02
2.56
1.83
0.92
-0.07
-1.05
-2.01
-3.03
-4.21
-5.63
-7.28
-9.06
-10.69
-11.87
-12.27
-11.62
-9.86
-7.11
-3.75
-0.29
2.77
5.1
6.58
7.35
7.67
7.81
7.9
7.97
7.95
7.79
7.5
7.16
6.85
6.66
6.57
6.5
6.38
6.07
5.47
4.56
3.39
2.1
0.9
-0.07
-0.81
-1.41
-2.03
-2.81
-3.74
-4.73
-5.6
-6.25
-6.75
-7.22
-7.88
-8.88
-10.18
-11.6
-12.88
-13.73
-13.94
-13.43
-12.2
-10.36
-8.05
-5.45
-2.76
-0.21
1.99
3.67
4.77
5.37
5.65
5.79
5.92
6.11
6.29
6.46
6.62
6.79
6.96
7.04
6.85
6.26
5.2
3.84
2.49
1.45
0.86
0.63
0.47
0.05
-0.75
-1.85
-2.99
-3.91
-4.46
-4.72
-4.96
-5.52
-6.69
-8.54
-10.93
-13.44
-15.56
-16.72
-16.55
-14.93
-12.11
-8.6
-5
-1.78
0.78
2.59
3.75
4.39
4.64
4.64
4.51
4.31
4.06
3.75
3.38
2.98
2.62
2.39
2.29
2.25
2.13
1.86
1.38
0.76
0.08
-0.64
-1.4
-2.17
-2.91
-3.54
-3.99
-4.34
-4.77
-5.51
-6.69
-8.3
-10.11
-11.74
-12.78
-12.81
-11.6
-9.15
-5.7
-1.77
1.97
4.89
6.61
7.12
6.78
6.11
5.52
5.24
5.2
5.19
5
4.52
3.73
2.76
1.76
0.86
0.18
-0.23
-0.33
-0.1
0.34
0.82
1.15
1.13
0.69
-0.17
-1.39
-2.84
-4.39
-5.98
-7.54
-9.07
-10.54
-11.87
-12.9
-13.43
-13.28
-12.28
-10.39
-7.7
-4.45
-0.98
2.33
5.13
7.16
8.32
8.66
8.38
7.67
6.7
5.56
4.31
2.98
1.72
0.7
0.12
0.08
0.47
1.08
1.56
1.66
1.23
0.35
-0.82
-2.06
-3.13
-3.94
-4.45
-4.77
-5.09
-5.61
-6.51
-7.81
-9.38
-10.88
-11.87
-11.84
-10.5
-7.9
-4.4
-0.63
2.71
5.13
6.47
6.86
6.68
6.33
6.06
5.95
5.95
5.95
5.86
5.67
5.35
4.92
4.36
3.67
2.91
2.05
1.14
0.18
-0.77
-1.72
-2.61
-3.41
-4.12
-4.74
-5.3
-5.84
-6.41
-7.14
-8.12
-9.34
-10.57
-11.39
-11.31
-10.04
-7.65
-4.56
-1.38
1.36
3.32
4.53
5.17
5.44
5.5
5.36
5.02
4.5
3.89
3.34
3
2.97
3.26
3.83
4.49
5.01
5.2
4.95
4.3
3.39
2.4
1.41
0.43
-0.64
-1.91
-3.49
-5.38
-7.55
-9.84
-12.04
-13.86
-14.93
-14.92
-13.65
-11.21
-8.02
-4.69
-1.81
0.24
1.37
1.83
1.97
2.05
2.2
2.34
2.32
2
1.4
0.7
0.16
0.03
0.4
1.22
2.26
3.29
4.06
4.41
4.27
3.63
2.54
1.16
-0.31
-1.69
-2.85
-3.82
-4.69
-5.6
-6.59
-7.59
-8.39
-8.76
-8.59
-7.88
-6.7
-5.17
-3.44
-1.61
0.13
1.64
2.82
3.61
4.03
4.15
4.01
3.59
2.94
2.1
1.28
0.78
0.82
1.46
2.44
3.31
3.63
3.18
2.06
0.59
-0.86
-2.12
-3.18
-4.18
-5.25
-6.35
-7.4
-8.4
-9.46
-10.67
-12
-13.07
-13.23
-11.94
-9.05
-5
-0.71
2.87
5.19
6.2
6.38
6.32
6.32
6.41
6.38
6.01
5.33
4.64
4.27
4.47
5.14
5.94
6.42
6.3
5.56
4.41
3.18
2.09
1.18
0.25
-0.95
-2.6
-4.7
-7.1
-9.56
-11.85
-13.84
-15.37
-16.25
-16.29
-15.27
-13.2
-10.3
-6.96
-3.66
-0.75
1.6
3.45
4.91
6.09
7
7.53
7.57
7.17
6.43
5.64
5.03
4.73
4.76
5.01
5.35
5.62
5.78
5.79
5.67
5.38
4.82
3.93
2.68
1.15
-0.51
-2.23
-4.01
-5.93
-8.13
-10.63
-13.24
-15.57
-17.06
-17.25
-15.9
-13.17
-9.54
-5.6
-1.94
1.17
3.66
5.64
7.3
8.77
10.06
11.17
12.01
12.57
12.86
12.96
12.96
12.97
13.03
13.11
13.08
12.8
12.22
11.39
10.56
9.96
9.66
9.48
9.04
7.97
6.13
3.74
1.21
-1.01
-2.72
-4.01
-5.21
-6.68
-8.66
-11.18
-14.09
-17.12
-19.83
-21.69
-22.11
-20.7
-17.47
-12.94
-7.97
-3.49
-0.07
2.22
3.81
5.29
7.07
9.17
11.29
13.05
14.23
14.92
15.41
15.97
16.71
17.45
17.85
17.62
16.69
15.26
13.74
12.53
11.78
11.36
10.88
9.91
8.24
5.96
3.49
1.31
-0.26
-1.24
-1.94
-2.82
-4.18
-6.15
-8.59
-11.29
-13.99
-16.38
-18.09
-18.73
-18
-15.8
-12.4
-8.29
-4.08
-0.18
3.18
6.03
8.49
10.59
12.31
13.61
14.5
15.1
15.64
16.28
17.08
17.97
18.74
19.17
19.02
18.26
16.99
15.45
13.88
12.49
11.33
10.35
9.39
8.26
6.86
5.2
3.41
1.72
0.31
-0.71
-1.41
-1.98
-2.68
-3.68
-5.04
-6.68
-8.53
-10.55
-12.73
-15.04
-17.18
-18.67
-18.92
-17.52
-14.5
-10.29
-5.62
-1.2
2.49
5.33
7.52
9.29
10.83
12.15
13.15
13.71
13.79
13.49
13.01
12.59
12.42
12.56
12.88
13.2
13.27
12.96
12.28
11.34
10.3
9.35
8.62
8.12
7.78
7.39
6.74
5.67
4.11
2.14
-0.09
-2.38
-4.57
-6.52
-8.18
-9.57
-10.8
-12.03
-13.42
-15.03
-16.66
-17.85
-18.03
-16.74
-13.91
-9.87
-5.3
-0.92
2.73
5.42
7.26
8.49
9.3
9.83
10.13
10.17
9.91
9.39
8.65
7.9
7.36
7.18
7.38
7.81
8.15
8.2
7.94
7.56
7.34
7.43
7.74
7.99
7.86
7.11
5.74
3.91
1.81
-0.34
-2.32
-3.94
-5.11
-5.8
-6.2
-6.6
-7.32
-8.56
-10.28
-12.19
-13.88
-14.9
-14.93
-13.82
-11.6
-8.53
-5.03
-1.59
1.36
3.56
5.03
5.98
6.65
7.25
7.79
8.14
8.14
7.71
6.94
6.05
5.33
4.92
4.82
4.88
4.82
4.41
3.56
2.39
1.14
0.11
-0.5
-0.7
-0.65
-0.62
-0.82
-1.31
-2.02
-2.88
-3.78
-4.68
-5.57
-6.48
-7.46
-8.57
-9.9
-11.53
-13.41
-15.27
-16.63
-16.98
-15.95
-13.57
-10.19
-6.46
-3
-0.25
1.65
2.81
3.44
3.74
3.84
3.79
3.61
3.33
2.98
2.53
1.96
1.27
0.58
0.07
-0.08
0.25
1.01
1.94
2.68
2.96
2.67
1.96
1.09
0.26
-0.51
-1.35
-2.5
-4.05
-5.95
-7.98
-9.91
-11.54
-12.73
-13.42
-13.46
-12.71
-11.1
-8.69
-5.72
-2.62
0.19
2.37
3.74
4.32
4.3
3.92
3.46
3.07
2.74
2.35
1.77
0.94
-0.02
-0.84
-1.31
-1.36
-1.15
-0.97
-1.07
-1.53
-2.24
-2.98
-3.62
-4.16
-4.73
-5.53
-6.6
-7.88
-9.25
-10.67
-12.06
-13.36
-14.37
-14.74
-14.12
-12.35
-9.53
-6.05
-2.45
0.82
3.52
5.56
7.03
8
8.47
8.48
8.09
7.4
6.56
5.73
5.07
4.72
4.72
4.94
5.17
5.13
4.62
3.61
2.3
0.96
-0.12
-0.89
-1.46
-2.05
-2.88
-4.09
-5.68
-7.55
-9.49
-11.25
-12.5
-12.92
-12.27
-10.53
-7.88
-4.69
-1.43
1.48
3.79
5.45
6.53
7.21
7.54
7.55
7.21
6.51
5.51
4.42
3.49
2.95
2.88
3.15
3.51
3.69
3.54
3.11
2.54
1.97
1.42
0.75
-0.19
-1.51
-3.19
-5.2
-7.42
-9.74
-11.97
-13.77
-14.73
-14.44
-12.74
-9.81
-6.15
-2.44
0.76
3.17
4.78
5.77
6.36
6.59
6.45
5.89
4.92
3.72
2.5
1.49
0.76
0.32
0.02
-0.26
-0.6
-1
-1.43
-1.85
-2.23
-2.6
-3.04
-3.71
-4.79
-6.47
-8.74
-11.35
-13.87
-15.67
-16.19
-15.21
-12.84
-9.51
-5.85
-2.4
0.47
2.64
4.2
5.26
5.85
5.91
5.34
4.1
2.37
0.56
-0.84
-1.49
-1.35
-0.69
0.03
0.43
0.4
0.08
-0.25
-0.44
-0.55
-0.84
-1.57
-2.85
-4.55
-6.45
-8.23
-9.65
-10.49
-10.52
-9.57
-7.59
-4.74
-1.42
1.84
4.58
6.55
7.76
8.4
8.62
8.46
7.81
6.58
4.9
3.12
1.7
1.01
1.16
1.86
2.6
2.91
2.51
1.47
0.07
-1.36
-2.63
-3.69
-4.64
-5.65
-6.79
-8.16
-9.73
-11.41
-12.96
-14.03
-14.21
-13.26
-11.16
-8.21
-4.85
-1.52
1.47
3.95
5.89
7.28
8.08
8.33
8.07
7.42
6.58
5.72
5
4.57
4.51
4.82
5.38
5.99
6.36
6.3
5.75
4.74
3.39
1.8
0.09
-1.69
-3.43
-5.12
-6.72
-8.36
-10.17
-12.23
-14.5
-16.67
-18.29
-18.8
-17.79
-15.15
-11.19
-6.55
-1.98
1.92
4.87
6.94
8.48
9.86
11.26
12.68
13.91
14.76
15.1
15
14.69
14.4
14.32
14.47
14.72
14.84
14.64
14.03
13.12
12.11
11.14
10.29
9.46
8.53
7.41
6.11
4.72
3.36
2.05
0.78
-0.58
-2.07
-3.71
-5.45
-7.21
-9.01
-10.89
-12.96
-15.35
-18.05
-20.89
-23.45
-25.2
-25.57
-24.23
-21.21
-16.91
-11.97
-7.06
-2.71
0.88
3.71
5.96
7.8
9.42
10.92
12.32
13.64
14.83
15.82
16.56
17.06
17.37
17.65
17.98
18.39
18.83
19.13
19.19
18.9
18.29
17.39
16.22
14.82
13.12
11.18
9.05
6.82
4.58
2.35
0.13
-2.1
-4.28
-6.29
-8
-9.38
-10.53
-11.66
-13.01
-14.78
-16.96
-19.27
-21.23
-22.18
-21.58
-19.14
-15.06
-9.95
-4.64
0.1
3.89
6.76
9.03
11.06
13.04
14.93
16.49
17.53
17.94
17.8
17.27
16.6
15.96
15.51
15.31
15.34
15.51
15.64
15.57
15.15
14.4
13.44
12.46
11.59
10.81
10.04
9.15
8.09
6.86
5.44
3.87
2.11
0.18
-1.84
-3.76
-5.43
-6.79
-8.02
-9.42
-11.24
-13.56
-16.16
-18.59
-20.22
-20.55
-19.31
-16.56
-12.68
-8.29
-3.98
-0.22
2.77
5.04
6.77
8.18
9.4
10.48
11.36
12
12.38
12.54
12.52
12.43
12.37
12.44
12.68
13.08
13.55
13.9
14.03
13.91
13.56
13.07
12.52
11.88
11.13
10.23
9.07
7.63
5.84
3.66
1.12
-1.6
-4.27
-6.58
-8.38
-9.66
-10.62
-11.59
-12.88
-14.56
-16.46
-18.18
-19.16
-18.94
-17.31
-14.39
-10.61
-6.5
-2.54
0.94
3.81
6.06
7.73
8.88
9.58
9.84
9.7
9.22
8.48
7.66
6.95
6.49
6.35
6.44
6.63
6.8
6.89
6.95
7.05
7.24
7.43
7.47
7.15
6.32
4.87
2.88
0.53
-1.9
-4.06
-5.65
-6.56
-6.89
-6.94
-7.06
-7.57
-8.68
-10.42
-12.63
-14.95
-16.88
-17.82
-17.33
-15.29
-11.95
-7.9
-3.83
-0.27
2.48
4.35
5.4
5.77
5.6
5.15
4.68
4.47
4.63
5.06
5.45
5.49
5.03
4.18
3.26
2.59
2.37
2.59
3.04
3.46
3.62
3.44
2.95
2.22
1.32
0.29
-0.87
-2.13
-3.42
-4.62
-5.68
-6.66
-7.75
-9.21
-11.12
-13.29
-15.23
-16.29
-15.96
-14.11
-11.06
-7.48
-4.05
-1.28
0.66
1.85
2.54
2.97
3.26
3.5
3.72
3.95
4.21
4.48
4.67
4.66
4.37
3.83
3.17
2.57
2.17
1.93
1.75
1.48
1.03
0.41
-0.33
-1.15
-2.07
-3.14
-4.4
-5.8
-7.31
-8.91
-10.6
-12.4
-14.19
-15.71
-16.59
-16.46
-15.2
-12.88
-9.83
-6.5
-3.31
-0.48
1.88
3.76
5.2
6.19
6.75
6.86
6.57
5.91
4.99
4.01
3.15
2.61
2.49
2.76
3.21
3.56
3.58
3.15
2.29
1.15
-0.08
-1.27
-2.31
-3.15
-3.82
-4.33
-4.8
-5.45
-6.47
-8.05
-10.18
-12.63
-14.88
-16.31
-16.34
-14.69
-11.54
-7.45
-3.22
0.39
2.86
4.08
4.2
3.55
2.49
1.33
0.33
-0.36
-0.67
-0.64
-0.41
-0.09
0.2
0.46
0.78
1.21
1.74
2.27
2.65
2.73
2.41
1.63
0.43
-1.1
-2.84
-4.61
-6.28
-7.81
-9.24
-10.66
-12.1
-13.48
-14.59
-15.12
-14.83
-13.53
-11.29
-8.32
-4.96
-1.63
1.31
3.58
5.05
5.78
5.97
5.89
5.79
5.74
5.66
5.36
4.72
3.79
2.78
1.97
1.54
1.51
1.74
2.02
2.18
2.07
1.65
0.91
-0.11
-1.34
-2.66
-3.93
-5.08
-6.11
-7.14
-8.35
-9.8
-11.52
-13.4
-15.19
-16.58
-17.18
-16.67
-14.89
-11.94
-8.2
-4.26
-0.71
2.02
3.8
4.76
5.21
5.46
5.66
5.77
5.62
5.05
4.08
2.89
1.8
1.15
1.15
1.71
2.55
3.3
3.6
3.33
2.5
1.26
-0.18
-1.61
-2.92
-4.01
-4.88
-5.63
-6.42
-7.47
-8.92
-10.77
-12.85
-14.76
-15.97
-16.02
-14.63
-11.91
-8.26
-4.3
-0.67
2.15
3.98
5
5.54
6.01
6.66
7.49
8.31
8.82
8.81
8.26
7.38
6.56
6.15
6.37
7.16
8.17
8.97
9.2
8.77
7.84
6.71
5.66
4.83
4.14
3.41
2.51
1.42
0.2
-1.05
-2.35
-3.81
-5.55
-7.69
-10.17
-12.85
-15.53
-18.06
-20.38
-22.49
-24.39
-25.91
-26.76
-26.55
-24.93
-21.77
-17.31
-12.07
-6.76
-2.03
1.73
4.49
6.47
7.93
9.15
10.23
11.17
11.95
12.55
12.97
13.24
13.39
13.43
13.35
13.2
13.02
12.88
12.82
12.78
12.64
12.23
11.46
10.28
8.8
7.12
5.33
3.47
1.49
-0.65
-2.95
-5.35
-7.83
-10.37
-12.95
-15.46
-17.67
-19.18
-19.58
-18.64
-16.4
-13.16
-9.4
-5.61
-2.12
0.91
3.46
5.58
7.3
8.59
9.42
9.8
9.76
9.4
8.92
8.51
8.33
8.4
8.63
8.82
8.8
8.52
8
7.34
6.61
5.78
4.73
3.37
1.66
-0.31
-2.39
-4.44
-6.46
-8.53
-10.77
-13.26
-15.88
-18.29
-19.98
-20.43
-19.29
-16.5
-12.4
-7.57
-2.68
1.73
5.35
8.18
10.4
12.27
13.95
15.48
16.76
17.61
17.96
17.82
17.38
16.85
16.43
16.2
16.03
15.79
15.34
14.67
13.87
13.1
12.4
11.66
10.66
9.13
6.98
4.36
1.61
-0.89
-2.91
-4.45
-5.74
-7.04
-8.6
-10.47
-12.67
-15.19
-18.02
-21.08
-24
-26.14
-26.73
-25.22
-21.56
-16.29
-10.39
-4.79
-0.12
3.53
6.39
8.8
10.97
12.87
14.37
15.34
15.85
16.06
16.21
16.46
16.87
17.39
17.9
18.29
18.42
18.24
17.67
16.73
15.48
14.01
12.4
10.68
8.89
7.04
5.18
3.34
1.64
0.12
-1.27
-2.65
-4.21
-6.11
-8.45
-11.23
-14.36
-17.68
-20.94
-23.72
-25.49
-25.72
-24.02
-20.43
-15.4
-9.73
-4.31
0.25
3.74
6.36
8.49
10.44
12.33
14
15.21
15.86
16.02
15.98
16.02
16.27
16.73
17.24
17.64
17.84
17.84
17.69
17.38
16.85
16.02
14.88
13.47
11.89
10.22
8.42
6.41
4.14
1.66
-0.84
-3.08
-4.88
-6.25
-7.38
-8.57
-10.13
-12.21
-14.78
-17.67
-20.55
-23.02
-24.58
-24.78
-23.29
-20.04
-15.33
-9.76
-4.15
0.81
4.7
7.5
9.52
11.12
12.58
13.89
14.83
15.14
14.76
13.89
12.99
12.47
12.55
13.14
13.92
14.53
14.81
14.79
14.62
14.43
14.2
13.75
12.87
11.37
9.25
6.71
4.04
1.58
-0.45
-2.04
-3.43
-4.88
-6.62
-8.68
-10.91
-13.15
-15.38
-17.69
-20.15
-22.69
-24.85
-25.96
-25.41
-22.86
-18.52
-13.01
-7.17
-1.74
2.8
6.31
8.9
10.76
12.05
12.84
13.16
13.06
12.67
12.22
12.01
12.25
13
14.09
15.19
15.9
15.97
15.37
14.31
13.14
12.19
11.63
11.39
11.14
10.48
9.15
7.14
4.69
2.18
-0.06
-1.91
-3.53
-5.17
-7.08
-9.4
-12.14
-15.29
-18.74
-22.24
-25.35
-27.4
-27.68
-25.76
-21.67
-16.02
-9.76
-3.86
0.98
4.52
6.9
8.5
9.65
10.55
11.19
11.44
11.15
10.29
9.01
7.67
6.68
6.37
6.74
7.58
8.44
8.92
8.81
8.12
7.06
5.76
4.32
2.68
0.78
-1.39
-3.69
-5.88
-7.77
-9.33
-10.75
-12.34
-14.3
-16.54
-18.61
-19.83
-19.61
-17.66
-14.16
-9.71
-5.02
-0.65
3.07
6.12
8.55
10.43
11.69
12.22
11.99
11.08
9.75
8.37
7.31
6.82
6.94
7.51
8.23
8.76
8.88
8.51
7.72
6.71
5.61
4.4
2.97
1.11
-1.25
-4.02
-6.97
-9.85
-12.48
-14.83
-16.91
-18.53
-19.33
-18.82
-16.64
-12.9
-8.13
-3.15
1.23
4.57
6.88
8.43
9.54
10.34
10.79
10.7
10
8.76
7.23
5.79
4.7
4.1
3.91
3.96
4.02
3.94
3.66
3.24
2.79
2.34
1.85
1.16
-0
-1.87
-4.51
-7.74
-11.13
-14.08
-16.01
-16.54
-15.59
-13.39
-10.35
-6.86
-3.22
0.37
3.78
6.8
9.18
10.6
10.82
9.84
7.94
5.63
3.48
1.96
1.19
1.05
1.17
1.13
0.75
0.03
-0.78
-1.44
-1.85
-2.12
-2.52
-3.33
-4.69
-6.6
-8.93
-11.48
-14
-16.17
-17.57
-17.72
-16.23
-13.03
-8.47
-3.27
1.73
5.82
8.7
10.37
11.03
10.91
10.18
8.97
7.46
5.91
4.57
3.65
3.14
2.92
2.78
2.52
2.04
1.33
0.42
-0.64
-1.79
-3.01
-4.3
-5.78
-7.67
-10.19
-13.35
-16.91
-20.22
-22.48
-22.96
-21.31
-17.69
-12.75
-7.39
-2.41
1.63
4.64
6.78
8.3
9.42
10.17
10.46
10.2
9.38
8.15
6.88
5.97
5.7
6.15
7.06
8.03
8.63
8.53
7.67
6.21
4.4
2.45
0.53
-1.33
-3.17
-5.03
-7
-9.25
-11.9
-14.99
-18.32
-21.4
-23.59
-24.26
-23.03
-19.93
-15.38
-10
-4.53
0.46
4.63
7.83
10.16
11.76
12.84
13.52
13.88
13.93
13.77
13.54
13.43
13.58
14.04
14.63
15.05
15.04
14.42
13.27
11.79
10.27
8.8
7.38
5.82
3.93
1.64
-0.94
-3.54
-5.87
-7.75
-9.2
-10.43
-11.75
-13.45
-15.66
-18.39
-21.38
-24.19
-26.2
-26.82
-25.67
-22.71
-18.39
-13.41
-8.61
-4.52
-1.26
1.34
3.66
5.89
7.97
9.67
10.71
11.03
10.84
10.45
10.16
10.1
10.23
10.45
10.67
10.91
11.25
11.72
12.26
12.69
12.88
12.64
11.82
10.28
7.93
4.85
1.3
-2.27
-5.36
-7.62
-9.03
-9.81
-10.42
-11.26
-12.63
-14.62
-17.13
-19.92
-22.58
-24.61
-25.44
-24.69
-22.25
-18.35
-13.55
-8.45
-3.59
0.67
4.15
6.84
8.76
10.03
10.83
11.31
11.59
11.72
11.65
11.37
10.95
10.52
10.24
10.18
10.3
10.5
10.65
10.67
10.56
10.3
9.86
9.21
8.35
7.27
6.03
4.63
3.13
1.58
0.07
-1.34
-2.64
-3.88
-5.23
-6.81
-8.75
-11.06
-13.73
-16.63
-19.55
-22.12
-23.79
-24.05
-22.51
-19.2
-14.52
-9.15
-3.77
1.1
5.26
8.72
11.6
14
15.93
17.34
18.12
18.28
17.86
17.03
15.99
14.96
14.06
13.36
12.83
12.41
12.01
11.55
10.99
10.32
9.56
8.64
7.53
6.12
4.29
2.03
-0.54
-3.19
-5.65
-7.67
-9.15
-10.15
-10.94
-11.81
-13.05
-14.85
-17.21
-19.95
-22.64
-24.72
-25.58
-24.75
-22.09
-17.83
-12.55
-6.99
-1.82
2.5
5.84
8.29
10
11.15
11.78
11.93
11.61
11.01
10.35
9.93
9.96
10.46
11.24
11.96
12.3
12.08
11.38
10.45
9.55
8.88
8.37
7.82
6.98
5.68
3.94
1.96
-0.01
-1.81
-3.38
-4.82
-6.25
-7.8
-9.56
-11.6
-14
-16.75
-19.67
-22.33
-24.08
-24.21
-22.32
-18.48
-13.28
-7.67
-2.49
1.67
4.68
6.69
7.98
8.84
9.43
9.85
10.1
10.16
9.96
9.46
8.68
7.78
6.99
6.51
6.45
6.78
7.32
7.82
8.03
7.75
6.9
5.46
3.63
1.64
-0.24
-1.89
-3.34
-4.78
-6.45
-8.51
-11.03
-13.88
-16.67
-18.88
-19.89
-19.25
-16.81
-12.88
-8.07
-3.19
1.13
4.54
7.02
8.75
9.91
10.57
10.76
10.53
10.02
9.44
9.04
8.91
9.02
9.23
9.39
9.41
9.29
9.05
8.69
8.15
7.32
6.12
4.52
2.61
0.52
-1.61
-3.67
-5.63
-7.56
-9.67
-12.15
-15.18
-18.65
-22.18
-25.05
-26.48
-25.85
-23.02
-18.35
-12.55
-6.45
-0.76
4.11
7.97
10.79
12.64
13.69
14.12
14.18
14.01
13.67
13.14
12.41
11.58
10.87
10.48
10.46
10.63
10.67
10.27
9.3
7.85
6.15
4.4
2.72
1.13
-0.42
-1.97
-3.55
-5.2
-7.07
-9.39
-12.36
-15.95
-19.78
-23.12
-25.11
-25.02
-22.57
-18
-12.05
-5.69
0.15
4.84
8.17
10.25
11.46
12.17
12.71
13.23
13.73
14.12
14.26
14.15
13.85
13.53
13.34
13.32
13.4
13.38
13.03
12.22
10.94
9.27
7.39
5.4
3.32
1.14
-1.11
-3.29
-5.22
-6.77
-7.97
-9.09
-10.47
-12.39
-14.83
-17.38
-19.29
-19.81
-18.47
-15.29
-10.79
-5.75
-0.93
3.22
6.55
9.19
11.29
12.91
14.03
14.55
14.46
13.86
12.98
12.11
11.49
11.27
11.43
11.81
12.16
12.24
11.94
11.25
10.28
9.11
7.74
6.06
3.98
1.54
-1.04
-3.41
-5.21
-6.33
-6.9
-7.31
-8.05
-9.42
-11.6
-14.44
-17.62
-20.63
-22.84
-23.61
-22.46
-19.28
-14.43
-8.77
-3.3
1.15
4.25
6.17
7.39
8.33
9.17
9.81
9.99
9.59
8.76
7.86
7.23
7.1
7.44
8.01
8.59
8.95
8.99
8.69
8.04
7.03
5.67
4.02
2.24
0.54
-0.93
-2.13
-3.18
-4.34
-5.88
-8.01
-10.77
-13.92
-17.05
-19.57
-20.86
-20.42
-18.07
-13.99
-8.75
-3.14
2.06
6.28
9.3
11.18
12.15
12.44
12.25
11.71
10.97
10.29
9.9
9.97
10.45
11.09
11.53
11.51
10.98
10.09
9.15
8.38
7.85
7.46
6.98
6.22
5.02
3.36
1.31
-0.98
-3.29
-5.43
-7.21
-8.6
-9.69
-10.71
-11.91
-13.53
-15.6
-17.96
-20.21
-21.8
-22.16
-20.82
-17.72
-13.17
-7.82
-2.51
2.08
5.57
7.95
9.39
10.12
10.23
9.74
8.76
7.51
6.37
5.73
5.77
6.32
7.01
7.34
7.01
6.04
4.71
3.46
2.63
2.29
2.18
1.91
1.16
-0.17
-1.9
-3.64
-5.04
-5.94
-6.51
-7.09
-8.11
-9.86
-12.44
-15.66
-19.09
-22.05
-23.82
-23.83
-21.79
-17.86
-12.58
-6.78
-1.25
3.42
6.92
9.24
10.59
11.23
11.41
11.32
11.04
10.59
9.99
9.24
8.39
7.49
6.57
5.66
4.81
4.1
3.63
3.44
3.49
3.61
3.57
3.14
2.27
0.99
-0.56
-2.22
-3.92
-5.58
-7.16
-8.69
-10.21
-11.83
-13.65
-15.76
-18.14
-20.6
-22.78
-24.13
-24.16
-22.51
-19.25
-14.82
-9.91
-5.25
-1.34
1.69
3.94
5.56
6.66
7.15
6.96
6.19
5.16
4.33
4.1
4.61
5.65
6.83
7.76
8.28
8.48
8.59
8.8
9.07
9.19
8.81
7.74
6.03
4.01
2.13
0.75
-0.05
-0.47
-0.89
-1.71
-3.13
-5.19
-7.73
-10.4
-12.75
-14.23
-14.37
-12.94
-10.03
-6.07
-1.76
2.24
5.44
7.72
9.16
9.98
10.34
10.3
9.88
9.09
8.01
6.82
5.7
4.8
4.21
3.94
3.96
4.16
4.39
4.43
4.1
3.29
1.99
0.37
-1.38
-3.04
-4.54
-5.91
-7.21
-8.45
-9.62
-10.7
-11.72
-12.82
-14.17
-15.75
-17.33
-18.34
-18.21
-16.56
-13.41
-9.22
-4.69
-0.53
2.76
5.02
6.3
6.8
6.69
6.1
5.12
3.91
2.68
1.67
1.06
0.91
1.14
1.55
1.97
2.24
2.35
2.27
2.05
1.64
0.97
-0.05
-1.47
-3.14
-4.83
-6.22
-7.15
-7.69
-8.22
-9.19
-10.96
-13.5
-16.38
-18.74
-19.74
-18.75
-15.65
-10.78
-4.82
1.41
7.19
12.06
15.8
18.44
20.12
21.02
21.28
21.01
20.3
19.33
18.29
17.44
16.94
16.87
17.19
17.75
18.28
18.5
18.11
16.93
14.95
12.34
9.41
6.51
3.9
1.68
-0.19
-1.87
-3.56
-5.37
-7.37
-9.56
-11.84
-13.99
-15.59
-16.15
-15.25
-12.76
-8.95
-4.53
-0.31
2.98
4.99
5.8
5.78
5.32
4.68
3.86
2.73
1.22
-0.58
-2.39
-3.83
-4.67
-4.93
-4.83
-4.73
-4.89
-5.32
-5.83
-6.18
-6.24
-6.11
-6.09
-6.52
-7.57
-9.15
-10.98
-12.77
-14.25
-15.2
-15.44
-14.8
-13.12
-10.45
-7
-3.15
0.66
4.07
6.89
9.06
10.52
11.22
11.09
10.18
8.7
7
5.39
4.1
3.14
2.38
1.63
0.79
-0.1
-0.93
-1.54
-1.91
-2.14
-2.47
-3.21
-4.66
-6.95
-9.99
-13.42
-16.65
-19.04
-20
-19.22
-16.73
-12.92
-8.46
-4.09
-0.38
2.38
4.17
5.2
5.71
5.88
5.79
5.46
4.92
4.24
3.59
3.11
2.81
2.68
2.56
2.33
1.96
1.51
1.03
0.56
0
-0.83
-2.06
-3.7
-5.55
-7.27
-8.54
-9.2
-9.29
-8.98
-8.32
-7.21
-5.31
-2.26
2.09
7.45
12.98
17.55
20.17
20.34
18.44
15.63
13.37
12.78
14.24
17.18
20.38
22.74
23.66
23.25
22.08
21.01
21.37
24.94
33.57
48.36
68.42
90.09
107.38
113.82
105.27
82.04
49.09
13.97
-16.37
-38.16
-51.46
-58.56
-61.48
-60.21
-52.83
-37.55
-14.77
11.94
36.93
54.8
62.82
61.9
55.56
47.8
41.28
36.55
32.65
28.28
22.91
17.11
11.97
8.22
5.54
2.46
-3.07
-12.87
-27.7
-46.92
-68.55
-89.96
-108.71
-123.25
-133.07
-138.46
-139.99
-138
-132.51
-123.47
-111.06
-95.99
-79.54
-63.21
-48.39
-36.02
-26.48
-19.68
-15.19
-12.49
-11.06
-10.44
-10.24
-10.07
-9.55
-8.3
-6.13
-3.03
0.79
4.88
8.76
11.95
14.1
15.06
14.88
13.75
11.98
9.85
7.62
5.4
3.12
0.7
-1.98
-4.97
-8.26
-11.69
-14.98
-17.63
-19.02
-18.57
-15.92
-11.16
-4.86
2.04
8.54
13.82
17.49
19.58
20.45
20.56
20.32
19.95
19.52
18.98
18.26
17.38
16.46
15.69
15.22
15.06
15.04
14.95
14.57
13.77
12.6
11.13
9.5
7.81
6.12
4.56
3.25
2.31
1.76
1.49
1.27
0.81
-0.12
-1.56
-3.31
-4.95
-5.88
-5.52
-3.5
0.14
4.92
10.07
14.75
18.38
20.75
22.01
22.45
22.28
21.52
20.12
18.08
15.6
13.05
10.85
9.22
8.15
7.41
6.73
5.96
5.14
4.39
3.86
3.59
3.44
3.25
2.94
2.51
2.07
1.75
1.56
1.46
1.42
1.39
1.45
1.68
2.01
2.31
2.41
2.26
2.08
2.25
3.1
4.66
6.61
8.44
9.72
10.35
10.54
10.65
10.87
11.1
11.07
10.48
9.22
7.48
5.58
3.83
2.42
1.37
0.62
0.11
-0.24
-0.47
-0.57
-0.54
-0.35
0.04
0.6
1.22
1.77
2.05
1.96
1.53
0.94
0.36
-0.06
-0.27
-0.41
-0.61
-1.01
-1.62
-2.37
-3.11
-3.64
-3.79
-3.28
-1.89
0.5
3.79
7.58
11.32
14.45
16.63
17.81
18.18
17.96
17.29
16.22
14.75
13.02
11.25
9.68
8.41
7.34
6.25
4.95
3.54
2.34
1.79
2.15
3.24
4.41
4.76
3.49
0.29
-4.52
-10.05
-15.23
-19.37
-22.47
-25.25
-28.95
-34.67
-42.97
-53.45
-64.65
-74.52
-80.93
-82.3
-77.96
-68.4
-55.09
-40.31
-26.52
-15.66
-8.59
-4.76
-2.42
0.64
6.16
14.75
25.59
36.79
46.4
53.24
57.38
59.89
62.02
64.31
66.15
65.88
61.88
53.8
43.18
33.14
27.02
26.96
32.9
42.65
52.94
60.84
64.86
65.2
63.31
61.12
60.32
61.91
66.05
71.97
78.29
83.27
85.2
82.86
75.96
64.91
50.65
34.65
18.38
3.27
-9.65
-19.82
-27.15
-31.89
-34.48
-35.33
-34.49
-31.77
-26.92
-20.01
-11.72
-3.47
2.94
5.82
4.26
-1.49
-10.15
-19.89
-28.96
-36.25
-41.34
-44.47
-46.17
-46.9
-46.95
-46.58
-46.05
-45.69
-45.88
-46.7
-47.92
-48.96
-49.15
-47.9
-45.02
-40.71
-35.45
-29.85
-24.35
-19.23
-14.62
-10.66
-7.5
-5.31
-4.08
-3.65
-3.69
-3.92
-4.19
-4.53
-4.99
-5.58
-6.12
-6.43
-6.43
-6.22
-6.04
-6.09
-6.43
-6.91
-7.34
-7.62
-7.78
-7.93
-8.14
-8.36
-8.43
-8.22
-7.68
-6.88
-6
-5.26
-4.84
-4.9
-5.5
-6.46
-7.41
-7.82
-7.25
-5.57
-3.11
-0.53
1.5
2.58
2.76
2.51
2.31
2.47
2.93
3.4
3.57
3.35
2.93
2.63
2.78
3.5
4.63
5.83
6.71
7
6.65
5.82
4.77
3.71
2.72
1.75
0.67
-0.68
-2.29
-4.11
-5.99
-7.88
-9.77
-11.59
-13.19
-14.25
-14.42
-13.43
-11.32
-8.45
-5.42
-2.78
-0.86
0.36
1.09
1.54
1.75
1.54
0.69
-0.82
-2.78
-4.72
-6.15
-6.82
-6.82
-6.52
-6.36
-6.6
-7.25
-8.08
-8.82
-9.29
-9.47
-9.46
-9.37
-9.26
-9.04
-8.57
-7.74
-6.52
-4.97
-3.27
-1.7
-0.51
0.04
-0.25
-1.44
-3.48
-6.13
-8.98
-11.49
-12.96
-12.68
-10.04
-4.76
3.02
12.59
22.88
32.73
41.27
48.15
53.45
57.48
60.47
62.37
62.96
62.02
59.61
55.94
51.25
45.48
38.16
28.61
16.38
1.6
-14.67
-30.67
-44.39
-54.13
-58.93
-58.83
-54.66
-47.73
-39.42
-30.88
-22.93
-16.08
-10.62
-6.66
-4.24
-3.22
-3.33
-4.17
-5.21
-6.02
-6.32
-6.09
-5.54
-5.04
-4.89
-5.18
-5.78
-6.45
-6.93
-7.1
-7.04
-6.91
-6.96
-7.4
-8.42
-10.16
-12.53
-15.19
-17.51
-18.77
-18.42
-16.32
-12.86
-8.81
-5
-1.95
0.2
1.63
2.66
3.48
4.17
4.68
4.96
5.03
4.94
4.72
4.4
3.96
3.35
2.59
1.7
0.76
-0.18
-1.03
-1.76
-2.38
-2.94
-3.54
-4.32
-5.4
-6.87
-8.75
-10.97
-13.43
-15.9
-18.05
-19.5
-19.88
-18.9
-16.55
-13.07
-8.88
-4.49
-0.36
3.23
6.15
8.42
10.12
11.36
12.22
12.75
12.97
12.9
12.62
12.27
12.01
11.92
12
12.15
12.21
12.09
11.74
11.18
10.45
9.5
8.3
6.83
5.16
3.45
1.88
0.55
-0.61
-1.79
-3.24
