-31.72
-29.84
-25.87
-20.39
-14.17
-7.97
-2.31
2.52
6.44
9.47
11.71
13.29
14.32
14.91
15.11
14.91
14.39
13.73
13.22
13.17
13.76
14.91
16.31
17.57
18.29
18.36
17.84
16.92
15.8
14.55
13.05
11.15
8.69
5.75
2.57
-0.5
-3.21
-5.42
-7.22
-8.87
-10.66
-12.85
-15.63
-19.07
-23.06
-27.28
-31.17
-33.98
-35.03
-33.78
-30.16
-24.48
-17.43
-9.85
-2.58
3.74
8.7
12.24
14.55
15.97
16.87
17.52
17.96
18.14
17.94
17.45
16.85
16.46
16.51
17.05
17.94
18.93
19.72
20.15
20.12
19.63
18.71
17.38
15.68
13.7
11.59
9.5
7.54
5.72
3.93
2.01
-0.15
-2.57
-5.17
-7.76
-10.15
-12.18
-13.87
-15.33
-16.89
-18.85
-21.41
-24.46
-27.6
-30.08
-31.17
-30.24
-27.06
-21.84
-15.15
-7.81
-0.61
5.78
10.9
14.61
17
18.35
18.98
19.15
19
18.54
17.8
16.88
15.96
15.25
14.9
14.94
15.28
15.76
16.22
16.53
16.57
16.21
15.31
13.84
11.89
9.71
7.65
5.98
4.81
4
3.24
2.22
0.78
-1.01
-2.89
-4.59
-6.01
-7.26
-8.64
-10.57
-13.33
-16.85
-20.76
-24.32
-26.61
-26.83
-24.53
-19.84
-13.41
-6.27
0.52
6.14
10.24
12.93
14.54
15.52
16.12
16.42
16.37
15.92
15.15
14.25
13.45
12.9
12.63
12.55
12.54
12.52
12.52
12.64
12.93
13.35
13.65
13.51
12.62
10.86
8.35
5.41
2.45
-0.2
-2.43
-4.32
-6.06
-7.87
-9.9
-12.23
-14.88
-17.83
-20.89
-23.62
-25.43
-25.65
-23.82
-19.9
-14.31
-7.88
-1.51
3.99
8.21
11.08
12.83
13.74
14.06
13.92
13.37
12.42
11.18
9.88
8.77
8.08
7.88
8.07
8.44
8.78
8.95
8.91
8.67
8.12
7.14
5.58
3.39
0.71
-2.17
-4.88
-7.15
-8.97
-10.61
-12.46
-14.81
-17.76
-21.02
-24.08
-26.2
-26.7
-25.05
-21.15
-15.31
-8.32
-1.23
4.91
9.39
11.96
12.93
12.84
12.24
11.4
10.37
9.05
7.46
5.85
4.57
3.94
4.01
4.62
5.48
6.35
7.14
7.83
8.36
8.52
8.06
6.75
4.59
1.83
-1.16
-4.06
-6.7
-9.1
-11.47
-14.04
-17.05
-20.57
-24.37
-27.86
-30.12
-30.22
-27.59
-22.35
-15.29
-7.63
-0.51
5.29
9.55
12.43
14.22
15.16
15.4
15.07
14.36
13.5
12.72
12.18
11.9
11.87
12.03
12.31
12.63
12.88
12.91
12.62
11.89
10.74
9.3
7.72
6.16
4.64
3.03
1.16
-1.08
-3.7
-6.52
-9.33
-11.91
-14.22
-16.36
-18.57
-21.08
-23.99
-27.15
-30.08
-32.09
-32.46
-30.68
-26.71
-21.06
-14.61
-8.26
-2.68
1.86
5.45
8.28
10.52
12.23
13.39
14.06
14.39
14.61
14.89
15.33
15.9
16.49
17.02
17.41
17.65
17.7
17.5
16.97
16.07
14.81
13.29
11.65
9.99
8.31
6.54
4.49
2.07
-0.75
-3.8
-6.79
-9.4
-11.41
-12.84
-13.91
-15.01
-16.59
-18.97
-22.21
-26.1
-30.11
-33.47
-35.33
-34.89
-31.77
-26.13
-18.72
-10.68
-3.11
3.25
8.16
11.81
14.52
16.54
17.89
18.54
18.56
18.17
17.62
17.13
16.71
16.3
15.89
15.61
15.67
16.19
17.07
17.95
18.35
17.95
16.71
14.91
12.9
10.99
9.22
7.48
5.56
3.32
0.77
-1.97
-4.78
-7.51
-10.08
-12.46
-14.6
-16.52
-18.23
-19.89
-21.7
-23.88
-26.49
-29.29
-31.72
-32.95
-32.21
-29.05
-23.63
-16.69
-9.31
-2.53
2.98
6.98
9.65
11.3
12.24
12.72
12.92
13.02
13.15
13.39
13.74
14.12
14.44
14.64
14.74
14.77
14.85
15.03
15.39
15.89
16.38
16.63
16.4
15.46
13.8
11.57
9
6.38
3.87
1.48
-0.81
-3.02
-5.16
-7.17
-8.98
-10.6
-12.05
-13.43
-14.86
-16.5
-18.48
-20.87
-23.62
-26.47
-28.91
-30.26
-29.87
-27.36
-22.78
-16.68
-9.95
-3.5
1.94
6.05
8.86
10.67
11.79
12.48
12.88
13.04
13.02
12.91
12.83
12.83
12.93
13.06
13.12
13.02
12.83
12.63
12.55
12.61
12.71
12.65
12.23
11.34
9.99
8.36
6.58
4.7
2.65
0.29
-2.41
-5.31
-8.12
-10.59
-12.61
-14.22
-15.57
-16.87
-18.27
-19.92
-21.93
-24.34
-26.97
-29.33
-30.57
-29.79
-26.42
-20.56
-13.04
-5.14
1.87
7.14
10.49
12.27
13.04
13.24
13.07
12.45
11.33
9.83
8.31
7.22
6.87
7.26
8.07
8.88
9.37
9.5
9.46
9.46
9.61
9.74
9.6
8.96
7.7
5.92
3.73
1.29
-1.27
-3.8
-6.15
-8.21
-9.97
-11.64
-13.56
-16.06
-19.22
-22.71
-25.76
-27.41
-26.87
-23.85
-18.71
-12.33
-5.79
-0
4.61
8.05
10.61
12.61
14.14
15.13
15.39
14.83
13.58
12.03
10.6
9.67
9.37
9.6
10.11
10.63
10.94
11
10.92
10.81
10.68
10.43
9.83
8.65
6.8
4.34
1.51
-1.39
-4.1
-6.51
-8.55
-10.27
-11.77
-13.22
-14.85
-16.93
-19.63
-22.9
-26.39
-29.52
-31.58
-31.93
-30.22
-26.5
-21.2
-15.03
-8.74
-2.93
2
5.91
8.81
10.78
11.92
12.37
12.25
11.73
10.98
10.15
9.32
8.56
7.88
7.36
7.11
7.24
7.79
8.64
9.51
10.06
9.95
9.03
7.3
4.9
2.01
-1.2
-4.6
-7.98
-11.08
-13.68
-15.69
-17.35
-19.01
-20.96
-23.06
-24.72
-25.03
-23.23
-19.16
-13.3
-6.67
-0.37
4.81
8.63
11.27
13.1
14.34
14.98
14.92
14.08
12.58
10.74
8.92
7.42
6.39
5.82
5.65
5.85
6.37
7.11
7.88
8.36
8.25
7.33
5.62
3.28
0.63
-2.03
-4.47
-6.57
-8.37
-10.07
-11.99
-14.44
-17.64
-21.39
-25.1
-27.82
-28.56
-26.72
-22.27
-15.89
-8.59
-1.42
4.84
9.87
13.61
16.16
17.59
17.92
17.17
15.48
13.13
10.51
8.06
6.16
5.02
4.63
4.82
5.34
5.91
6.37
6.66
6.79
6.71
6.39
5.67
4.46
2.8
0.74
-1.6
-4.1
-6.72
-9.55
-12.67
-16.2
-20.14
-24.26
-28.04
-30.78
-31.7
-30.25
-26.27
-20.15
-12.7
-4.99
2.04
7.76
11.96
14.75
16.4
17.21
17.37
16.98
16.05
14.69
13.16
11.83
11.08
11.09
11.79
12.85
13.79
14.26
14.11
13.44
12.48
11.43
10.28
8.91
7.13
4.85
2.13
-0.79
-3.64
-6.29
-8.69
-11
-13.46
-16.28
-19.56
-23.24
-27.06
-30.63
-33.37
-34.65
-33.94
-30.9
-25.61
-18.54
-10.56
-2.65
4.33
9.87
13.86
16.48
17.98
18.57
18.39
17.51
16.14
14.53
12.95
11.64
10.71
10.15
9.97
10.09
10.44
10.85
11.02
10.59
9.36
7.33
4.73
1.9
-0.88
-3.49
-5.97
-8.39
-10.86
-13.38
-16.02
-18.85
-21.87
-24.92
-27.5
-28.83
-28.08
-24.77
-18.97
-11.41
-3.24
4.45
10.85
15.66
18.98
21.05
22.1
22.2
21.39
19.76
17.55
15.11
12.82
10.98
9.73
9.07
8.87
9
9.31
9.65
9.81
9.55
8.69
7.14
4.99
2.48
-0.06
-2.36
-4.34
-6.17
-8.23
-10.95
-14.6
-19.1
-23.94
-28.24
-31.05
-31.56
-29.38
-24.6
-17.75
-9.67
-1.34
6.3
12.52
16.89
19.42
20.37
20.23
19.45
18.36
17.05
15.57
13.97
12.47
11.31
10.68
10.61
10.92
11.34
11.61
11.56
11.11
10.23
8.85
6.92
4.42
1.45
-1.75
-4.88
-7.64
-9.92
-11.88
-13.89
-16.43
-19.8
-23.88
-28.02
-31.16
-32.12
-30.16
-25.19
-17.87
-9.32
-0.73
6.97
13.22
17.87
20.99
22.74
23.31
22.93
21.87
20.41
18.79
17.27
16.01
15.18
14.88
15.09
15.72
16.56
17.37
17.97
18.27
18.23
17.81
16.96
15.66
13.89
11.66
8.99
5.91
2.53
-0.99
-4.43
-7.58
-10.27
-12.54
-14.54
-16.51
-18.68
-21.2
-24.18
-27.67
-31.65
-35.89
-39.8
-42.51
-43.02
-40.61
-35.13
-27.15
-17.79
-8.34
0.17
7.2
12.68
16.85
19.93
22.02
23.1
23.14
22.3
20.94
19.52
18.51
18.26
18.81
20.03
21.65
23.36
24.91
26.09
26.7
26.55
25.56
23.73
21.29
18.57
15.86
13.35
10.94
8.39
5.43
1.97
-1.83
-5.67
-9.21
-12.34
-15.13
-17.81
-20.61
-23.69
-27.2
-31.07
-35.1
-38.71
-41.07
-41.21
-38.4
-32.56
-24.25
-14.65
-5.06
3.47
10.4
15.64
19.35
21.76
23.07
23.43
23
21.98
20.59
19.11
17.81
16.99
16.89
17.58
18.9
20.5
21.97
22.96
23.31
23.04
22.22
20.92
19.05
16.52
13.33
9.63
5.77
2.13
-1.01
-3.54
-5.62
-7.57
-9.73
-12.38
-15.66
-19.58
-23.99
-28.58
-32.87
-36.18
-37.78
-37.05
-33.65
-27.74
-19.91
-11.09
-2.29
5.61
12.1
17
20.43
22.6
23.72
23.91
23.27
21.98
20.31
18.67
17.45
16.93
17.12
17.83
18.7
19.4
19.74
19.68
19.36
18.9
18.43
17.88
17.08
15.74
13.64
10.7
7.07
3.05
-0.96
-4.67
-7.91
-10.64
-12.91
-14.81
-16.56
-18.42
-20.75
-23.86
-27.83
-32.39
-36.83
-40.14
-41.3
-39.63
-34.96
-27.76
-18.97
-9.75
-1.15
6.1
11.66
15.53
17.99
19.31
19.77
19.55
18.76
17.55
16.1
14.65
13.45
12.8
12.81
13.44
14.43
15.35
15.82
15.67
14.94
13.91
12.8
11.69
10.44
8.72
6.26
2.99
-0.84
-4.76
-8.29
-11.1
-13.18
-14.71
-16.03
-17.46
-19.19
-21.36
-23.92
-26.68
-29.12
-30.52
-30.03
-27.03
-21.42
-13.73
-5.06
3.35
10.44
15.72
19.17
21.15
22.05
22.15
21.58
20.38
18.69
16.78
14.99
13.61
12.83
12.61
12.8
13.22
13.71
14.22
14.68
15.01
15.06
14.63
13.58
11.84
9.46
6.61
3.54
0.48
-2.37
-4.88
-7.05
-8.97
-10.81
-12.81
-15.13
-17.91
-21.15
-24.77
-28.45
-31.74
-34.07
-34.82
-33.54
-30.05
-24.55
-17.57
-9.88
-2.27
4.56
10.09
14.01
16.25
16.98
16.56
15.46
14.15
13.02
12.25
11.86
11.78
11.92
12.3
12.89
13.62
14.35
14.9
15.18
15.16
14.88
14.31
13.32
11.7
9.26
5.98
2.1
-1.92
-5.57
-8.43
-10.37
-11.55
-12.36
-13.25
-14.63
-16.8
-19.79
-23.37
-27.05
-30.1
-31.73
-31.24
-28.28
-22.94
-15.86
-8.01
-0.45
5.96
10.75
13.87
15.63
16.4
16.47
16.04
15.2
14.11
12.97
12.02
11.4
11.14
11.12
11.15
11.11
11.02
11
11.11
11.25
11.12
10.35
8.73
6.26
3.27
0.2
-2.58
-4.91
-6.83
-8.53
-10.29
-12.3
-14.79
-17.8
-21.24
-24.77
-27.73
-29.29
-28.71
-25.61
-20.18
-13.16
-5.6
1.45
7.23
11.37
13.89
15.05
15.22
14.76
13.97
13.03
12.06
11.15
10.41
9.98
10.04
10.67
11.81
13.19
14.44
15.19
15.25
14.67
13.65
12.4
10.97
9.23
6.96
4.06
0.63
-3.01
-6.48
-9.44
-11.79
-13.61
-15.12
-16.6
-18.31
-20.47
-23.15
-26.27
-29.39
-31.82
-32.73
-31.46
-27.79
-22.04
-15.03
-7.71
-0.99
4.59
8.85
11.77
13.52
14.23
14.07
13.22
11.92
10.47
9.17
8.31
8.07
8.49
9.4
10.45
11.21
11.37
10.85
9.82
8.6
7.47
6.56
5.71
4.62
3.05
0.88
-1.73
-4.51
-7.11
-9.3
-10.98
-12.29
-13.44
-14.78
-16.62
-19.15
-22.28
-25.57
-28.29
-29.54
-28.59
-25.15
-19.53
-12.55
-5.25
1.46
7
11.16
13.99
15.66
16.27
15.96
14.87
13.27
11.46
9.78
8.45
7.6
7.16
6.98
6.96
6.99
7.1
7.28
7.45
7.42
6.94
5.79
3.94
1.55
-1.06
-3.55
-5.77
-7.74
-9.67
-11.85
-14.5
-17.62
-20.95
-23.95
-25.91
-26.15
-24.19
-20.06
-14.23
-7.64
-1.27
4.07
7.91
10.2
11.19
11.27
10.8
10.01
9.04
7.91
6.67
5.37
4.16
3.23
2.77
2.87
3.49
4.37
5.16
5.49
5.18
4.23
2.77
1
-0.96
-3.04
-5.24
-7.49
-9.78
-12.09
-14.49
-17.03
-19.66
-22.04
-23.52
-23.39
-21.18
-16.92
-11.2
-5
0.75
5.43
8.82
11.03
12.23
12.51
11.9
10.41
8.19
5.64
3.26
1.51
0.73
0.92
1.78
2.83
3.56
3.66
3.12
2.17
1.1
0.1
-0.88
-2.03
-3.62
-5.81
-8.63
-11.98
-15.66
-19.42
-22.91
-25.65
-27
-26.38
-23.45
-18.39
-11.87
-4.93
1.42
6.49
10.01
12.1
13.04
12.99
12.02
10.14
7.53
4.62
2
0.2
-0.47
-0.14
0.83
1.91
2.67
2.89
2.59
1.86
0.84
-0.42
-1.93
-3.76
-5.93
-8.51
-11.49
-14.84
-18.36
-21.67
-24.13
-25.02
-23.76
-20.18
-14.64
-8.04
-1.42
4.27
8.5
11.2
12.61
13.11
13.01
12.47
11.52
10.18
8.55
6.88
5.53
4.75
4.62
4.9
5.18
5.08
4.48
3.49
2.36
1.32
0.31
-0.88
-2.55
-4.95
-8.12
-11.97
-16.31
-20.84
-25.09
-28.46
-30.19
-29.62
-26.47
-20.97
-13.8
-5.91
1.75
8.46
13.76
17.51
19.73
20.6
20.41
19.48
18.2
16.87
15.7
14.74
13.93
13.2
12.44
11.68
10.98
10.46
10.25
10.34
10.53
10.49
9.81
8.2
5.59
2.23
-1.47
-5.06
-8.26
-11.1
-13.87
-16.92
-20.45
-24.31
-27.97
-30.68
-31.67
-30.41
-26.78
-21.14
-14.19
-6.76
0.35
6.6
11.69
15.57
18.31
20.05
20.89
21.05
20.73
20.24
19.87
19.87
20.31
21.07
21.88
22.42
22.47
21.99
21.13
20.16
19.31
18.67
18.06
17.14
15.53
13.01
9.59
5.51
1.24
-2.74
-6.03
-8.44
-10.05
-11.2
-12.41
-14.15
-16.76
-20.21
-24.14
-27.83
-30.42
-31.09
-29.29
-24.95
-18.47
-10.7
-2.68
4.61
10.47
14.71
17.5
19.29
20.48
21.36
21.95
22.13
21.79
20.96
19.86
18.87
18.29
18.28
18.76
19.51
20.28
20.89
21.25
21.33
21.06
20.27
18.79
16.58
13.79
10.79
7.99
5.63
3.71
2.01
0.22
-1.89
-4.28
-6.8
-9.17
-11.19
-12.84
-14.32
-15.92
-17.98
-20.67
-23.85
-27.04
-29.42
-30.1
-28.44
-24.34
-18.3
-11.23
-4.16
2.1
7.12
10.89
13.56
15.42
16.7
17.61
18.27
18.73
19.01
19.06
18.92
18.67
18.52
18.64
19.09
19.76
20.4
20.7
20.48
19.79
18.78
17.59
16.31
14.84
13.06
10.95
8.7
6.64
4.97
3.73
2.68
1.45
-0.21
-2.34
-4.77
-7.17
-9.24
-10.93
-12.32
-13.63
-15.07
-16.81
-18.94
-21.44
-24.12
-26.55
-28.17
-28.35
-26.61
-22.82
-17.31
-10.79
-4.22
1.54
5.93
8.81
10.51
11.45
12
12.32
12.31
11.87
10.94
9.75
8.62
8
8.08
8.82
9.96
11.16
12.13
12.75
13.08
13.17
13.08
12.71
11.89
10.47
8.44
6.03
3.58
1.46
-0.21
-1.51
-2.76
-4.21
-5.87
-7.56
-8.98
-9.94
-10.49
-10.93
-11.61
-12.83
-14.68
-17.03
-19.61
-21.96
-23.51
-23.65
-22
-18.59
-13.88
-8.69
-3.86
0.05
2.94
5.01
6.59
7.88
8.86
9.44
9.56
9.3
8.8
8.2
7.57
6.9
6.21
5.62
5.35
5.59
6.32
7.3
8.16
8.53
8.22
7.28
5.89
4.34
2.83
1.43
0.13
-1.13
-2.39
-3.72
-5.16
-6.73
-8.4
-10.1
-11.7
-13.09
-14.28
-15.35
-16.54
-18.02
-19.85
-21.83
-23.5
-24.23
-23.44
-20.86
-16.6
-11.25
-5.64
-0.62
3.16
5.51
6.61
6.98
7.15
7.54
8.22
9
9.58
9.65
9.18
8.35
7.47
6.84
6.55
6.51
6.5
6.31
5.82
5.06
4.08
2.94
1.68
0.27
-1.24
-2.8
-4.3
-5.66
-6.83
-7.87
-8.88
-9.92
-11.06
-12.28
-13.49
-14.62
-15.69
-16.76
-17.88
-19.02
-19.88
-20
-18.86
-16.18
-12.1
-7.17
-2.13
2.34
5.9
8.49
10.25
11.25
11.45
10.75
9.15
6.89
4.46
2.37
1.08
0.69
1.03
1.68
2.23
2.41
2.21
1.83
1.56
1.63
2.01
2.46
2.6
2.1
0.84
-0.98
-3.04
-5.07
-6.9
-8.6
-10.29
-12.03
-13.79
-15.43
-16.77
-17.67
-18.04
-17.77
-16.72
-14.69
-11.56
-7.45
-2.74
1.89
5.77
8.34
9.41
9.19
8.18
6.92
5.78
4.87
3.98
2.88
1.42
-0.22
-1.68
-2.48
-2.35
-1.33
0.18
1.63
2.53
2.62
1.98
0.83
-0.49
-1.77
-2.93
-4.05
-5.26
-6.69
-8.37
-10.32
-12.51
-14.85
-17.12
-18.98
-19.95
-19.54
-17.48
-13.81
-9.02
-3.83
0.94
4.7
7.16
8.39
8.67
8.33
7.61
6.61
5.35
3.84
2.2
0.62
-0.62
-1.35
-1.47
-1.03
-0.29
0.48
1.01
1.12
0.78
0.07
-0.92
-2.13
-3.5
-5.04
-6.71
-8.44
-10.22
-12.11
-14.2
-16.6
-19.24
-21.71
-23.34
-23.4
-21.4
-17.35
-11.84
-5.78
-0.11
4.49
7.75
9.7
10.65
10.87
10.61
10
9.07
7.87
6.48
5.05
3.79
2.95
2.62
2.76
3.21
3.64
3.77
3.4
2.46
1
-0.79
-2.67
-4.46
-6.04
-7.39
-8.62
-9.94
-11.51
-13.46
-15.75
-18.28
-20.77
-22.83
-23.95
-23.63
-21.5
-17.57
-12.27
-6.36
-0.76
3.82
7.07
9.08
10.22
10.84
11.1
11
10.44
9.45
8.25
7.25
6.74
6.86
7.41
8.01
8.28
7.99
7.14
5.94
4.65
3.41
2.23
0.97
-0.54
-2.4
-4.55
-6.88
-9.24
-11.52
-13.8
-16.17
-18.66
-21.11
-23.07
-23.94
-23.16
-20.45
-15.93
-10.15
-3.86
2.15
7.27
11.19
13.86
15.39
16.01
15.96
15.43
14.61
13.64
12.67
11.82
11.19
10.8
10.61
10.55
10.59
10.74
11.09
11.64
12.26
12.69
12.55
11.57
9.65
6.91
3.62
0.12
-3.27
-6.31
-8.89
-11.07
-13.08
-15.35
-18.3
-22.12
-26.57
-30.86
-33.89
-34.62
-32.4
-27.36
-20.19
-12.04
-4.06
2.88
8.29
12.09
14.45
15.7
16.17
16.14
15.77
15.16
14.32
13.31
12.22
11.25
10.59
10.34
10.46
10.78
11.09
11.19
10.9
10.05
8.51
6.2
3.16
-0.36
-3.99
-7.29
-9.96
-11.99
-13.67
-15.52
-17.97
-21.1
-24.38
-26.84
-27.4
-25.28
-20.44
-13.53
-5.63
2.11
8.92
14.44
18.58
21.36
22.76
22.81
21.7
19.78
17.51
15.34
13.56
12.29
11.58
11.41
11.71
12.34
13.05
13.6
13.75
13.41
12.5
11.01
8.92
6.25
3.15
-0.17
-3.4
-6.3
-8.84
-11.22
-13.77
-16.86
-20.66
-24.98
-29.25
-32.55
-33.87
-32.44
-28.01
-20.97
-12.29
-3.12
5.5
12.9
18.82
23.28
26.29
27.89
28.13
27.2
25.41
23.26
21.26
19.81
19.1
19.06
19.45
19.93
20.17
19.99
19.35
18.41
17.37
16.41
15.58
14.73
13.61
11.99
9.75
6.91
3.63
0.07
-3.55
-7.07
-10.4
-13.53
-16.59
-19.81
-23.45
-27.64
-32.16
-36.35
-39.19
-39.63
-37.02
-31.38
-23.4
-14.22
-5.05
3.23
10.15
15.55
19.5
22.15
23.65
24.2
24.08
23.57
22.95
22.43
22.08
21.91
21.87
21.85
21.78
21.61
21.31
20.89
20.32
19.53
18.42
16.9
14.9
12.45
9.67
6.65
3.51
0.3
-2.88
-5.9
-8.66
-11.14
-13.46
-15.89
-18.73
-22.16
-26.04
-29.86
-32.82
-34
-32.72
-28.7
-22.25
-14.1
-5.25
3.39
11.14
17.6
22.61
26.1
28.07
28.55
27.72
25.94
23.69
21.47
19.68
18.48
17.9
17.87
18.33
19.17
20.19
21.14
21.73
21.77
21.23
20.21
18.84
17.14
14.99
12.2
8.66
4.49
0.04
-4.24
-8
-11.09
-13.66
-15.98
-18.47
-21.48
-25.22
-29.52
-33.76
-36.95
-37.98
-36.02
-30.82
-22.87
-13.26
-3.31
5.77
13.24
18.77
22.42
24.45
25.14
24.8
23.75
22.33
20.87
19.66
18.93
18.78
19.17
19.94
20.81
21.53
21.88
21.76
21.18
20.27
19.13
17.81
16.19
14.08
11.36
8.06
4.39
0.68
-2.75
-5.72
-8.23
-10.38
-12.28
-14.08
-15.96
-18.17
-20.96
-24.51
-28.63
-32.7
-35.74
-36.67
-34.7
-29.66
-22.09
-13
-3.66
4.78
11.57
16.37
19.26
20.53
20.59
19.79
18.46
16.88
15.27
13.86
12.84
12.38
12.5
13.16
14.24
15.53
16.84
17.94
18.6
18.57
17.69
15.9
13.26
10
6.4
2.78
-0.63
-3.68
-6.39
-8.91
-11.43
-14.21
-17.47
-21.32
-25.59
-29.74
-32.89
-34.06
-32.5
-28
-21.05
-12.68
-4.17
3.42
9.5
14
17.1
19.01
19.83
19.52
18.11
15.81
13.06
10.45
8.49
7.51
7.53
8.33
9.54
10.8
11.85
12.55
12.85
12.7
11.97
10.53
8.29
5.31
1.83
-1.76
-5.09
-7.96
-10.38
-12.61
-15
-17.85
-21.26
-25.05
-28.69
-31.45
-32.52
-31.25
-27.42
-21.32
-13.72
-5.64
1.93
8.29
13.05
16.2
17.91
18.43
18.03
16.95
15.4
13.62
11.91
10.52
9.71
9.59
10.07
10.89
11.64
11.96
11.69
10.87
9.7
8.41
7.11
5.7
4
1.83
-0.83
-3.78
-6.68
-9.18
-11.15
-12.69
-14.14
-15.95
-18.46
-21.8
-25.76
-29.79
-33.1
-34.82
-34.27
-31.13
-25.59
-18.36
-10.4
-2.68
4.07
9.47
13.45
16.09
17.49
17.78
17.11
15.7
13.84
11.89
10.12
8.74
7.85
7.41
7.33
7.49
7.74
7.98
8.21
8.47
8.75
8.9
8.56
7.31
4.92
1.47
-2.57
-6.49
-9.7
-11.98
-13.57
-14.97
-16.72
-19.14
-22.2
-25.6
-28.84
-31.36
-32.63
-32.11
-29.49
-24.71
-18.2
-10.76
-3.4
2.98
7.78
10.92
12.63
13.32
13.36
12.99
12.36
11.6
10.85
10.23
9.87
9.78
9.87
10.03
10.21
10.38
10.61
10.97
11.43
11.84
11.96
11.45
10.06
7.72
4.55
0.94
-2.6
-5.66
-8
-9.72
-11.12
-12.6
-14.45
-16.84
-19.75
-23.01
-26.38
-29.45
-31.71
-32.53
-31.29
-27.7
-21.89
-14.54
-6.66
0.69
6.79
11.24
14.08
15.55
15.94
15.48
14.35
12.75
10.92
9.13
7.64
6.63
6.12
6.04
6.23
6.55
6.92
7.3
7.64
7.79
7.48
6.47
4.64
2.09
-0.75
-3.42
-5.52
-6.98
-8.05
-9.3
-11.28
-14.3
-18.28
-22.62
-26.36
-28.45
-28.03
-24.77
-19.07
-11.82
-4.21
2.72
8.31
12.42
15.23
17.04
18.11
18.46
18.07
16.97
15.33
13.46
11.72
10.42
9.7
9.56
9.89
10.5
11.27
12.02
12.61
12.92
12.76
12.06
10.81
9.1
7.06
4.83
2.47
0.02
-2.59
-5.35
-8.2
-11.02
-13.65
-16.02
-18.15
-20.23
-22.43
-24.96
-27.84
-30.91
-33.68
-35.49
-35.6
-33.44
-28.89
-22.27
-14.42
-6.37
0.93
6.86
11.15
13.92
15.4
15.86
15.51
14.53
13.12
11.52
10
8.87
8.35
8.52
9.3
10.41
11.52
12.3
12.59
12.34
11.69
10.73
9.49
7.87
5.77
3.12
0.02
-3.25
-6.39
-9.09
-11.16
-12.59
-13.5
-14.15
-14.92
-16.17
-18.18
-20.98
-24.2
-27.08
-28.68
-28.14
-25.07
-19.63
-12.6
-5.09
1.83
7.39
11.3
13.75
15.13
15.84
16.15
16.15
15.8
15.15
14.36
13.73
13.55
13.99
14.88
15.84
16.38
16.17
15.22
13.8
12.25
10.81
9.47
8.07
6.49
4.65
2.64
0.55
-1.61
-3.87
-6.26
-8.71
-11.09
-13.3
-15.4
-17.66
-20.33
-23.49
-26.81
-29.64
-31.12
-30.58
-27.72
-22.72
-16.17
-8.92
-1.82
4.42
9.33
12.74
14.71
15.49
15.4
14.73
13.68
12.42
11.13
10.08
9.55
9.77
10.73
12.14
13.49
14.32
14.37
13.68
12.54
11.26
10
8.72
7.19
5.22
2.78
0.02
-2.82
-5.48
-7.85
-9.93
-11.88
-13.93
-16.32
-19.21
-22.61
-26.29
-29.74
-32.28
-33.19
-31.9
-28.23
-22.44
-15.19
-7.4
0.03
6.38
11.24
14.51
16.31
16.95
16.73
15.96
14.88
13.7
12.67
12.02
11.92
12.44
13.5
14.8
16.03
16.87
17.18
17.01
16.5
15.78
14.85
13.54
11.68
9.14
5.94
2.31
-1.38
-4.75
-7.55
-9.7
-11.38
-12.92
-14.7
-17.01
-20
-23.54
-27.3
-30.74
-33.15
-33.88
-32.45
-28.74
-23.09
-16.18
-8.82
-1.81
4.3
9.27
13.03
15.64
17.21
17.83
17.59
16.64
15.24
13.74
12.54
11.99
12.23
13.16
14.46
15.72
16.59
16.91
16.7
16.09
15.17
13.95
12.4
10.47
8.22
5.75
3.22
0.72
-1.69
-4.03
-6.33
-8.57
-10.71
-12.73
-14.73
-16.89
-19.43
-22.48
-25.89
-29.22
-31.7
-32.52
-31.05
-27.12
-21.11
-13.89
-6.55
0
5.22
9.01
11.59
13.22
14.13
14.42
14.18
13.52
12.67
11.82
11.11
10.55
10.13
9.85
9.81
10.14
10.86
11.89
12.93
13.65
13.67
12.79
10.98
8.43
5.44
2.38
-0.48
-3
-5.18
-7.21
-9.36
-11.89
-14.94
-18.44
-22.03
-25.03
-26.63
-26.03
-22.82
-17.19
-9.85
-1.95
5.42
11.44
15.72
18.32
19.5
19.62
18.99
17.85
16.36
14.72
13.06
11.55
10.41
9.81
9.85
10.51
11.58
12.7
13.55
13.91
13.74
13.17
12.3
11.11
9.51
7.44
4.95
2.27
-0.33
-2.64
-4.61
-6.37
-8
-9.53
-10.98
-12.46
-14.27
-16.83
-20.4
-24.78
-29.24
-32.64
-33.85
-32.2
-27.74
-21.2
-13.63
-6.05
0.82
6.59
11.12
14.34
16.23
16.84
16.36
15.17
13.7
12.33
11.34
10.82
10.78
11.14
11.84
12.74
13.71
14.65
15.41
15.92
16.05
15.7
14.77
13.17
10.91
8.06
4.84
1.5
-1.68
-4.5
-6.83
-8.68
-10.22
-11.68
-13.33
-15.4
-17.97
-20.97
-24.06
-26.78
-28.54
-28.75
-27.04
-23.37
-18.02
-11.59
-4.84
1.51
6.9
11
13.76
15.35
16.07
16.16
15.87
15.31
14.55
13.62
12.62
11.73
11.14
10.94
11.03
11.25
11.33
11.09
10.5
9.64
8.63
7.48
6.1
4.32
2
-0.83
-3.95
-7.07
-9.87
-12.25
-14.32
-16.35
-18.58
-21.02
-23.42
-25.21
-25.71
-24.37
-20.97
-15.74
-9.32
-2.55
3.79
9.11
13.14
15.81
17.2
17.46
16.74
15.23
13.21
11.01
9
7.48
6.62
6.42
6.71
7.22
7.71
8.02
8.1
7.99
7.7
7.2
6.35
5.04
3.23
1.05
-1.23
-3.34
-5.12
-6.57
-7.96
-9.67
-12
-15.07
-18.58
-21.88
-24.18
-24.66
-22.83
-18.73
-12.88
-6.17
0.39
5.99
10.18
12.96
14.56
15.29
15.37
14.86
13.73
12.04
9.99
7.89
6.11
4.91
4.36
4.36
4.8
5.51
6.35
7.14
7.58
7.39
6.35
4.43
1.88
-0.94
-3.63
-5.96
-7.87
-9.58
-11.47
-13.92
-17.19
-21.19
-25.39
-28.87
-30.6
-29.74
-26.1
-20.13
-12.81
-5.27
1.63
7.38
11.87
15.15
17.29
18.31
18.24
17.2
15.46
13.4
11.45
9.94
9.11
8.98
9.45
10.27
11.15
11.76
11.85
11.33
10.26
8.82
7.24
5.67
4.16
2.62
0.93
-0.98
-3.05
-5.13
-7.08
-8.79
-10.33
-11.86
-13.61
-15.84
-18.67
-22.12
-25.97
-29.68
-32.44
-33.39
-31.89
-27.81
-21.59
-14.14
-6.57
0.19
5.59
9.53
12.22
13.99
15.08
15.57
15.46
14.75
13.52
11.99
10.5
9.4
8.93
9.19
10.08
11.32
12.53
13.38
13.7
13.48
12.88
12.03
10.96
9.57
7.67
5.16
2.13
-1.05
-4
-6.42
-8.29
-9.85
-11.48
-13.55
-16.21
-19.43
-22.91
-26.24
-28.86
-30.19
-29.79
-27.37
-23
-17.04
-10.15
-3.17
3.13
8.16
11.7
13.83
14.86
15.16
15.05
14.69
14.16
13.48
12.79
12.28
12.16
12.55
13.37
14.33
15.1
15.39
15.1
14.31
13.21
11.93
10.55
9.04
7.34
5.47
3.46
1.43
-0.56
-2.48
-4.4
-6.38
-8.41
-10.41
-12.28
-13.96
-15.59
-17.42
-19.76
-22.73
-26.09
-29.15
-30.95
-30.6
-27.71
-22.49
-15.72
-8.43
-1.57
4.29
8.91
12.33
14.69
16.1
16.62
16.34
15.35
13.85
12.1
10.42
9.13
8.49
8.57
9.22
10.16
11.08
11.82
12.34
12.69
12.85
12.73
12.1
10.78
8.73
6.12
3.31
0.66
-1.57
-3.37
-4.93
-6.54
-8.48
-10.89
-13.82
-17.17
-20.74
-24.18
-27
-28.6
-28.42
-26.13
-21.76
-15.86
-9.22
-2.73
2.97
7.53
10.96
13.39
14.93
15.65
15.57
14.77
13.45
11.89
10.41
9.26
8.6
8.43
8.64
9
9.24
9.19
8.78
8.1
7.27
6.39
5.44
4.34
2.95
1.2
-0.88
-3.16
-5.47
-7.74
-10.02
-12.53
-15.41
-18.69
-22.06
-24.88
-26.4
-25.94
-23.2
-18.38
-12.11
-5.25
1.38
7.18
11.79
15.06
16.97
17.55
16.96
15.46
13.5
11.51
9.93
8.98
8.71
8.96
9.49
10.07
10.52
10.79
10.87
10.79
10.55
10.1
9.29
8
6.19
3.93
1.49
-0.85
-2.86
-4.47
-5.83
-7.2
-8.86
-11.02
-13.79
-17.19
-21.11
-25.32
-29.32
-32.41
-33.76
-32.65
-28.83
-22.56
-14.7
-6.39
1.25
7.41
11.74
14.35
15.6
15.88
15.5
14.67
13.44
11.93
10.29
8.76
7.51
6.68
6.31
6.36
6.77
7.4
8.07
8.51
8.53
7.98
6.84
5.18
3.14
0.89
-1.47
-3.75
-5.88
-7.78
-9.47
-11.16
-13.16
-15.77
-19.03
-22.66
-25.89
-27.81
-27.6
-24.82
-19.69
-12.98
-5.74
0.94
6.37
10.31
12.9
14.42
15.17
15.29
14.89
14.11
13.15
12.23
11.52
11.04
10.73
10.49
10.21
9.89
9.52
9.11
8.65
8.08
7.34
6.39
5.19
3.69
1.9
-0.15
-2.37
-4.66
-6.89
-9.06
-11.22
-13.52
-16.14
-19.08
-22.17
-24.94
-26.72
-26.84
-24.86
-20.8
-15.14
-8.68
-2.26
3.5
8.31
12.2
15.29
17.6
19.02
19.35
18.53
16.77
14.53
12.42
10.96
10.37
10.5
10.98
11.35
11.38
11.02
10.43
9.84
9.35
8.86
8.19
7.1
5.47
3.33
0.85
-1.72
-4.16
-6.35
-8.32
-10.16
-12.04
-14.12
-16.46
-19.07
-21.76
-24.2
-25.88
-26.23
-24.75
-21.2
-15.79
-9.1
-2.07
4.37
9.47
12.87
14.62
15.08
14.69
13.79
12.63
11.35
10.04
8.79
7.77
7.11
6.93
7.29
8.1
9.16
10.19
10.88
10.96
10.3
8.96
7.15
5.13
3.09
1.03
-1.16
-3.64
-6.44
-9.52
-12.72
-15.89
-18.84
-21.36
-23.14
-23.72
-22.66
-19.64
-14.71
-8.35
-1.36
5.34
10.95
15.07
17.68
19.04
19.48
19.21
18.3
16.72
14.54
12.02
9.64
7.93
7.21
7.45
8.33
9.33
10.06
10.36
10.28
9.98
9.59
9.11
8.39
7.24
5.48
3.09
0.2
-2.92
-5.91
-8.47
-10.44
-11.85
-12.96
-14.19
-15.96
-18.52
-21.76
-25.24
-28.15
-29.61
-28.92
-25.86
-20.73
-14.29
-7.47
-1.11
4.26
8.44
11.41
13.23
14.05
14.03
13.42
12.55
11.7
11.06
10.68
10.49
10.43
10.51
10.8
11.34
12.09
12.83
13.27
13.17
12.4
11.08
9.41
7.58
5.69
3.71
1.6
-0.58
-2.7
-4.58
-6.16
-7.55
-9.02
-10.84
-13.21
-16.11
-19.36
-22.66
-25.57
-27.62
-28.31
-27.26
-24.29
-19.52
-13.43
-6.72
-0.19
5.54
10.11
13.49
15.79
17.19
17.78
17.55
16.55
14.97
13.2
11.74
11.05
11.33
12.45
14.03
15.5
16.4
16.46
15.65
14.17
12.33
10.4
8.63
7.06
5.61
4.14
2.49
0.58
-1.54
-3.79
-6.05
-8.27
-10.47
-12.68
-14.9
-17.15
-19.47
-21.94
-24.6
-27.23
-29.38
-30.34
-29.43
-26.26
-20.99
-14.28
-7.11
-0.42
5.2
9.55
12.71
14.87
16.14
16.56
16.21
15.19
13.76
12.19
10.77
9.71
9.14
9.1
9.56
10.39
11.39
12.35
13.09
13.52
13.62
13.41
12.86
11.91
10.45
8.45
5.97
3.15
0.21
-2.65
-5.3
-7.64
-9.67
-11.44
-13.03
-14.58
-16.26
-18.22
-20.55
-23.18
-25.79
-27.8
-28.51
-27.32
-23.95
-18.57
-11.79
-4.51
2.3
7.92
12.02
14.58
15.86
16.12
15.63
14.56
13.07
11.32
9.57
8.09
7.11
6.73
6.92
7.51
8.31
9.16
9.97
10.71
11.33
11.77
11.85
11.33
10.03
7.9
5.14
2.09
-0.92
-3.67
-6.12
-8.35
-10.49
-12.67
-14.96
-17.44
-20.16
-23.08
-26.01
-28.44
-29.69
-29.07
-26.24
-21.35
-15.04
-8.2
-1.73
3.74
7.92
10.79
12.51
13.22
13.12
12.38
11.25
9.96
8.75
7.84
7.33
7.27
7.53
7.95
8.27
8.31
7.98
7.36
6.59
5.75
4.8
3.55
1.83
-0.38
-2.87
-5.28
-7.3
-8.85
-10.17
-11.69
-13.82
-16.69
-20.09
-23.45
-26.08
-27.29
-26.62
-23.95
-19.4
-13.49
-6.95
-0.57
4.94
9.21
12.2
14.14
15.27
15.75
15.58
14.74
13.43
12.04
11.07
10.84
11.35
12.21
12.89
12.99
12.43
11.4
10.2
9.06
8.01
6.96
5.73
4.22
2.35
0.13
-2.34
-4.89
-7.29
-9.37
-11.08
-12.62
-14.31
-16.5
-19.39
-22.9
-26.66
-30.08
-32.47
-33.2
-31.88
-28.42
-23.15
-16.66
-9.74
-3.08
2.8
7.62
11.29
13.81
15.19
15.55
15.02
13.93
12.62
11.38
10.4
9.71
9.29
9.13
9.24
9.6
10.19
10.88
11.5
11.83
11.68
10.91
9.49
7.49
5.03
2.38
-0.25
-2.7
-4.95
-7.08
-9.25
-11.64
-14.39
-17.61
-21.3
-25.2
-28.82
-31.33
-31.89
-29.88
-25.29
-18.74
-11.27
-3.95
2.45
7.62
11.63
14.62
16.67
17.75
17.83
16.99
15.5
13.72
12.03
10.74
10.01
9.88
10.24
10.93
11.67
12.12
12.01
11.16
9.59
7.43
4.96
2.46
0.13
-1.92
-3.79
-5.69
-7.91
-10.68
-14.17
-18.31
-22.78
-26.92
-29.87
-30.77
-29.01
-24.48
-17.72
-9.73
-1.67
5.45
11.03
14.9
17.2
18.22
18.25
17.57
16.43
15.07
13.74
12.59
11.66
10.93
10.38
10.02
9.93
10.13
10.56
11.04
11.23
10.81
9.61
7.63
5.09
2.32
-0.39
-2.82
-4.95
-6.94
-9.03
-11.5
-14.58
-18.25
-22.22
-25.89
-28.43
-29.03
-27.2
-22.92
-16.72
-9.52
-2.28
4.29
9.87
14.46
18.16
20.91
22.52
22.78
21.7
19.65
17.28
15.3
14.13
13.81
14.07
14.53
14.89
15.03
14.98
14.8
14.55
14.19
13.68
12.94
11.88
10.32
8.08
5.06
1.35
-2.78
-6.87
-10.53
-13.54
-15.97
-18.1
-20.27
-22.78
-25.73
-29.01
-32.2
-34.69
-35.82
-35.01
-31.92
-26.61
-19.49
-11.28
-2.8
5.2
12.17
17.7
21.59
23.76
24.29
23.43
21.55
19.14
16.78
14.96
14.03
14.09
14.98
16.3
17.64
18.61
19.03
18.93
18.49
17.88
17.12
16.11
14.59
12.4
9.51
6.14
2.66
-0.55
-3.25
-5.5
-7.49
-9.55
-11.93
-14.78
-18.09
-21.8
-25.66
-29.26
-31.97
-33.03
-31.78
-27.95
-21.81
-14.1
-5.83
2.04
8.78
14.03
17.69
19.88
20.78
20.67
19.82
18.53
17.17
16.02
15.35
15.29
15.8
16.71
17.75
18.73
19.47
19.91
20
19.71
18.99
17.77
16.1
14.01
11.58
8.89
6.04
3.11
0.25
-2.43
-4.83
-6.93
-8.85
-10.75
-12.86
-15.39
-18.48
-22.13
-26.14
-30.02
-33.05
-34.46
-33.61
-30.29
-24.74
-17.63
-9.8
-2.08
4.92
10.82
15.39
18.63
20.52
21.15
20.65
19.32
17.48
15.54
13.84
12.66
12.18
12.43
13.28
14.47
15.61
16.33
16.38
15.68
14.39
12.83
11.21
9.63
7.99
6.07
3.75
1.19
-1.28
-3.3
-4.7
-5.68
-6.74
-8.39
-10.97
-14.44
-18.42
-22.34
-25.63
-27.81
-28.5
-27.44
-24.52
-19.82
-13.72
-6.8
0.16
6.42
11.47
15.04
17.2
18.14
18.12
17.37
16.03
14.25
12.31
10.57
9.39
9.06
9.56
10.65
11.86
12.71
12.9
12.42
11.47
10.37
9.37
8.49
7.46
5.92
3.56
0.36
-3.32
-6.88
-9.76
-11.66
-12.75
-13.59
-14.78
-16.81
-19.73
-23.26
-26.81
-29.7
-31.26
-31
-28.72
-24.47
-18.63
-11.8
-4.7
1.97
7.66
12.06
15.06
16.76
17.38
17.18
16.45
15.45
14.41
13.53
12.98
12.87
13.13
13.59
13.93
13.86
13.27
12.26
11.09
10.05
9.25
8.61
7.95
6.99
5.58
3.66
1.32
-1.25
-3.82
-6.21
-8.35
-10.28
-12.2
-14.39
-17.13
-20.47
-24.22
-27.87
-30.72
-32.05
-31.33
-28.41
-23.56
-17.33
-10.45
-3.63
2.53
7.63
11.44
13.92
15.17
15.46
15.16
14.56
13.92
13.27
12.59
11.84
11.06
10.37
9.9
9.7
9.66
9.62
9.37
8.74
7.58
5.86
3.66
1.12
-1.47
-3.88
-5.88
-7.42
-8.69
-10.04
-11.91
-14.58
-18.04
-21.89
-25.36
-27.5
-27.54
-25.07
-20.29
-13.88
-6.79
0.02
5.81
10.24
13.21
14.79
15.09
14.28
12.59
10.47
8.41
6.89
6.19
6.25
6.76
7.28
7.5
7.34
6.97
6.66
6.56
6.62
6.5
5.88
4.49
2.36
-0.3
-3.07
-5.6
-7.68
-9.32
-10.74
-12.2
-13.95
-16.13
-18.75
-21.57
-24.14
-25.82
-25.92
-23.95
-19.77
-13.8
-6.87
-0.06
5.64
9.65
11.87
12.68
12.6
12.13
11.5
10.68
9.55
8.08
6.52
5.24
4.67
4.98
5.98
7.27
8.37
8.95
8.94
8.44
7.54
6.26
4.58
2.52
0.18
-2.23
-4.51
-6.68
-8.83
-11.29
-14.28
-17.88
-21.94
-25.96
-29.26
-30.98
-30.46
-27.33
-21.82
-14.62
-6.79
0.63
6.88
11.64
14.9
16.79
17.46
16.99
15.53
13.34
10.8
8.39
6.48
5.25
4.7
4.69
5.07
5.69
6.47
7.27
7.95
8.24
7.85
6.5
4.06
0.67
-3.24
-7.08
-10.31
-12.62
-14.16
-15.38
-16.91
-19.23
-22.49
-26.38
-30.16
-32.88
-33.64
-31.85
-27.4
-20.78
-12.89
-4.89
2.18
7.63
11.29
13.44
14.53
15.03
15.16
14.92
14.26
13.2
11.9
10.74
10.03
9.96
10.52
11.5
12.57
13.47
14.04
14.23
14.02
13.43
12.42
10.95
9.01
6.58
3.79
0.78
-2.21
-5.03
-7.56
-9.83
-11.87
-13.78
-15.76
-18.01
-20.79
-24.23
-28.13
-31.93
-34.65
-35.29
-33.17
-28.26
-21.22
-13.2
-5.39
1.34
6.63
10.52
13.29
15.21
16.41
16.95
16.83
16.17
15.21
14.25
13.62
13.51
13.95
14.72
15.57
16.2
16.49
16.53
16.43
16.31
16.12
15.67
14.63
12.76
9.99
6.48
2.59
-1.3
-4.87
-8
-10.69
-13.09
-15.28
-17.37
-19.42
-21.56
-23.9
-26.49
-29.08
-31.06
-31.69
-30.27
-26.51
-20.7
-13.59
-6.17
0.69
6.38
10.73
13.82
15.88
17.12
17.67
17.62
17.06
16.14
15.09
14.18
13.65
13.61
14.02
14.69
15.38
15.87
16.12
16.2
16.23
16.25
16.23
15.95
15.14
13.59
11.22
8.22
4.86
1.47
-1.72
-4.54
-6.93
-8.92
-10.6
-12.18
-14.03
-16.52
-19.82
-23.74
-27.6
-30.37
-31.07
-29.12
-24.57
-18.09
-10.7
-3.35
3.25
8.72
12.95
15.9
17.58
18.03
17.34
15.79
13.79
11.8
10.29
9.52
9.57
10.24
11.14
11.85
12.16
12.08
11.83
11.65
11.55
11.33
10.58
8.97
6.49
3.42
0.23
-2.62
-4.87
-6.56
-7.94
-9.38
-11.26
-13.82
-17.09
-20.82
-24.45
-27.22
-28.33
-27.2
-23.6
-17.8
-10.46
-2.52
5.03
11.43
16.25
19.41
21.09
21.61
21.26
20.23
18.68
16.76
14.7
12.74
11.18
10.2
9.9
10.24
11.04
12.12
13.23
14.16
14.67
14.66
14.12
13.16
11.95
10.59
9.12
7.45
5.47
3.07
0.26
-2.86
-6.15
-9.41
-12.46
-15.14
-17.38
-19.21
-20.74
-22.27
-24.14
-26.52
-29.24
-31.71
-33.03
-32.37
-29.27
-23.92
-17.1
-9.88
-3.23
2.31
6.58
9.78
12.15
13.86
14.98
15.52
15.47
14.91
13.98
12.86
11.83
11.18
11.12
11.72
12.85
14.22
15.46
16.23
16.32
15.73
14.63
13.22
11.7
10.09
8.37
6.42
4.17
1.7
-0.85
-3.28
-5.47
-7.41
-9.23
-11.12
-13.26
-15.74
-18.56
-21.61
-24.63
-27.18
-28.67
-28.49
-26.26
-21.96
-16.07
-9.42
-2.9
2.8
7.33
10.69
13.04
14.5
15.14
14.99
14.13
12.85
11.53
10.54
10.11
10.14
10.4
10.59
10.56
10.36
10.21
10.3
10.63
10.98
10.97
10.23
8.64
6.31
3.53
0.6
-2.29
-5.07
-7.73
-10.26
-12.7
-15.07
-17.54
-20.21
-23.05
-25.72
-27.54
-27.67
-25.46
-20.81
-14.25
-6.86
0.13
5.77
9.67
12.03
13.34
14.12
14.64
14.87
14.61
13.76
12.39
10.79
9.39
8.51
8.34
8.86
9.93
11.3
12.72
13.92
14.61
14.58
13.76
12.23
10.21
7.93
5.5
2.95
0.25
-2.61
-5.48
-8.17
-10.53
-12.49
-14.13
-15.64
-17.24
-19.18
-21.6
-24.48
-27.54
-30.2
-31.66
-31.13
-28.16
-22.86
-15.95
-8.52
-1.61
4.09
8.37
11.36
13.29
14.35
14.62
14.18
13.22
12.04
10.95
10.19
9.82
9.77
9.92
10.15
10.41
10.67
10.91
11.09
11.2
11.16
10.89
10.17
8.8
6.63
3.7
0.3
-3.12
-6.12
-8.43
-10.08
-11.31
-12.55
-14.23
-16.69
-19.98
-23.83
-27.65
-30.59
-31.81
-30.75
-27.27
-21.8
-15.08
-8.01
-1.33
4.44
9.09
12.55
14.88
16.12
16.36
15.7
14.33
12.56
10.72
9.16
8.16
7.79
7.97
8.5
9.12
9.65
10.02
10.24
10.43
10.59
10.67
10.46
9.7
8.13
5.73
2.67
-0.66
-3.83
-6.56
-8.79
-10.68
-12.48
-14.46
-16.84
-19.72
-23.09
-26.69
-30.03
-32.38
-32.92
-31.13
-26.92
-20.78
-13.54
-6.21
0.44
5.93
10.07
12.92
14.64
15.39
15.35
14.69
13.63
12.4
11.28
10.5
10.22
10.39
10.83
11.2
11.29
10.99
10.46
9.9
9.48
9.15
8.61
7.5
5.56
2.83
-0.34
-3.41
-5.98
-7.93
-9.45
-10.98
-12.92
-15.46
-18.56
-21.95
-25.26
-28.01
-29.69
-29.73
-27.66
-23.36
-17.12
-9.75
-2.26
4.39
9.61
13.19
15.27
16.13
15.94
14.88
13.14
11.09
9.13
7.64
6.81
6.61
6.81
7.22
7.65
8.01
8.26
8.28
7.88
6.92
5.36
3.3
1.03
-1.18
-3.13
-4.76
-6.18
-7.54
-9.06
-11
-13.57
-16.86
-20.69
-24.52
-27.47
-28.6
-27.19
-23.07
-16.74
-9.15
-1.39
5.59
11.31
15.63
18.61
20.32
20.79
19.99
18.05
15.35
12.42
9.88
8.23
7.6
7.82
8.52
9.27
9.8
10.03
10
9.83
9.56
9.18
8.63
7.8
6.56
4.84
2.64
0.05
-2.7
-5.37
-7.73
-9.7
-11.36
-12.99
-14.92
-17.56
-21.14
-25.62
-30.61
-35.28
-38.57
-39.45
-37.28
-31.99
-24.2
-14.99
-5.59
2.91
9.8
14.81
17.94
19.42
19.48
18.4
16.5
14.14
11.78
9.89
8.89
8.95
10
11.68
13.48
14.94
15.81
16.11
16.06
15.88
15.61
15.09
14.03
12.13
9.3
5.69
1.62
-2.5
-6.32
-9.63
-12.39
-14.7
-16.81
-19.02
-21.63
-24.74
-28.21
-31.51
-33.85
-34.37
-32.44
-27.86
-20.94
-12.54
-3.71
4.47
11.19
16
18.87
20.05
19.92
18.87
17.16
15.07
12.91
11.05
9.83
9.5
10.01
11.05
12.23
13.21
13.91
14.37
14.72
14.92
14.75
13.87
12.05
9.3
5.88
2.11
-1.68
-5.36
-8.87
-12.25
-15.58
-18.98
-22.49
-26.04
-29.26
-31.51
-32.03
-30.2
-25.84
-19.38
-11.75
-3.99
3
8.78
13.26
16.55
18.85
20.15
20.41
19.57
17.77
15.36
12.91
11.05
10.27
10.76
12.37
14.63
16.97
18.87
20.04
20.41
20.09
19.2
17.76
15.65
12.74
9
4.61
-0.03
-4.39
-8.02
-10.76
-12.78
-14.54
-16.58
-19.3
-22.84
-27
-31.28
-34.93
-37.11
-37.04
-34.18
-28.48
-20.47
-11.21
-1.99
6.04
12.2
16.36
18.84
20.11
20.56
20.39
19.67
18.52
17.13
15.89
15.14
15.07
15.67
16.67
17.72
18.47
18.75
18.54
17.97
17.16
16.15
14.91
13.3
11.2
8.53
5.35
1.83
-1.71
-4.99
-7.84
-10.27
-12.46
-14.73
-17.39
-20.66
-24.61
-29.07
-33.66
-37.71
-40.41
-40.85
-38.37
-32.79
-24.57
-14.76
-4.72
4.29
11.42
16.41
19.44
21
21.57
21.45
20.8
19.75
18.43
17.17
16.32
16.18
16.84
18.06
19.45
20.53
21.03
20.97
20.54
19.95
19.29
18.46
17.2
15.32
12.77
9.67
6.27
2.85
-0.41
-3.39
-6.05
-8.46
-10.75
-13.11
-15.77
-18.94
-22.71
-27.03
-31.53
-35.53
-38.15
-38.53
-36.04
-30.64
-22.88
-13.78
-4.55
3.81
10.75
16.09
19.99
22.68
24.32
24.96
24.66
23.53
21.85
20.05
18.53
17.57
17.28
17.55
18.2
19.05
19.91
20.64
20.99
20.74
19.74
18.05
15.96
13.86
12.03
10.46
8.85
6.77
3.92
0.34
-3.65
-7.53
-10.88
-13.51
-15.55
-17.3
-19.2
-21.64
-24.81
-28.63
-32.64
-36.04
-37.92
-37.47
-34.29
-28.54
-20.88
-12.22
-3.54
4.45
11.27
16.65
20.5
22.78
23.62
23.29
22.2
20.81
19.49
18.42
17.64
17.12
16.93
17.14
17.89
19.19
20.84
22.48
23.69
24.1
23.53
22.01
19.74
17
14.03
11.03
8.09
5.24
2.45
-0.31
-3.06
-5.75
-8.28
-10.56
-12.53
-14.15
-15.44
-16.48
-17.47
-18.78
-20.86
-24.01
-28.08
-32.41
-35.78
-36.88
-34.78
-29.38
-21.37
-12.11
-2.97
5.02
11.32
15.83
18.71
20.16
20.39
19.62
18.07
16.03
13.8
11.7
10.11
9.38
9.72
11.09
13.12
15.23
16.82
17.57
17.49
16.82
15.82
14.57
13.03
11.1
8.72
6.02
3.22
0.54
-1.86
-3.92
-5.71
-7.33
-8.86
-10.44
-12.15
-14.05
-16.19
-18.66
-21.52
-24.76
-28.11
-30.95
-32.37
-31.5
-27.83
-21.61
-13.72
-5.38
2.25
8.5
13.2
16.49
18.56
19.52
19.36
18.14
16.14
13.8
11.69
10.25
9.71
10.07
11.09
12.38
13.61
14.53
15.12
15.41
15.57
15.59
15.36
14.61
13.11
10.77
7.74
4.3
0.7
-2.89
-6.4
-9.83
-13.03
-15.8
-17.89
-19.15
-19.72
-19.93
-20.29
-21.31
-23.32
-26.32
-29.93
-33.41
-35.78
-36.16
-33.94
-29.1
-22.17
-14.1
-5.98
1.21
6.85
10.72
13.02
14.18
14.7
14.94
15.01
14.78
14.08
12.91
11.54
10.49
10.3
11.16
12.88
14.91
16.62
17.53
17.5
16.65
15.25
13.57
11.76
9.85
7.78
5.43
2.73
-0.29
-3.43
-6.43
-9.1
-11.32
-13.22
-14.97
-16.76
-18.63
-20.6
-22.71
-25.06
-27.73
-30.53
-32.91
-33.96
-32.74
-28.77
-22.23
-14.04
-5.53
2.11
8.13
12.35
15
16.47
17.05
16.9
16.07
14.68
13.02
11.41
10.19
9.56
9.55
9.95
10.52
11.01
11.25
11.25
11.09
10.87
10.59
10.17
9.37
8.01
5.94
3.18
0.01
-3.26
-6.25
-8.73
-10.67
-12.21
-13.64
-15.22
-17.23
-19.77
-22.86
-26.28
-29.63
-32.26
-33.4
-32.39
-28.86
-22.98
-15.42
-7.27
0.3
6.41
10.59
12.99
14.1
14.48
14.47
14.19
13.59
12.61
11.44
10.38
9.78
9.79
10.32
11.09
11.73
12
11.84
11.35
10.62
9.73
8.7
7.5
6.05
4.25
2.05
-0.57
-3.43
-6.29
-8.84
-10.86
-12.35
-13.56
-14.93
-16.94
-19.86
-23.58
-27.57
-30.99
-32.91
-32.61
-29.76
-24.54
-17.57
-9.73
-1.98
4.87
10.21
13.76
15.52
15.75
14.9
13.43
11.74
10.09
8.59
7.27
6.09
5.06
4.18
3.55
3.29
3.46
4.05
4.84
5.46
5.55
4.85
3.35
1.31
-0.92
-3.07
-5.01
-6.84
-8.79
-11.07
-13.8
-17.02
-20.52
-23.92
-26.65
-28.01
-27.35
-24.35
-19.07
-12.06
-4.19
3.57
10.36
15.58
18.92
20.37
20.14
18.62
16.26
13.48
10.62
7.88
5.41
3.35
1.89
1.17
1.28
2.13
3.41
4.77
5.75
6.08
5.64
4.48
2.75
0.63
-1.69
-4.08
-6.43
-8.77
-11.21
-13.96
-17.26
-21.19
-25.6
-29.98
-33.54
-35.38
-34.72
-31.24
-25.19
-17.36
-8.83
-0.69
6.27
11.71
15.66
18.34
19.97
20.63
20.26
18.86
16.62
14.01
11.69
10.27
10.08
10.95
12.35
13.65
14.36
14.4
14.04
13.61
13.24
12.75
11.7
9.73
6.74
3.03
-0.88
-4.45
-7.41
-9.83
-11.98
-14.19
-16.71
-19.64
-22.98
-26.72
-30.68
-34.55
-37.72
-39.41
-38.81
-35.46
-29.38
-21.21
-12
-2.99
4.82
10.84
14.99
17.56
18.96
19.58
19.62
19.18
18.35
17.32
16.38
15.87
15.96
16.63
17.61
18.58
19.27
19.6
19.64
19.47
19.06
18.3
16.97
14.91
12.1
8.63
4.74
0.67
-3.33
-7.08
-10.37
-13.12
-15.42
-17.56
-19.94
-22.98
-26.8
-31.17
-35.41
-38.59
-39.74
-38.17
-33.74
-26.85
-18.39
-9.43
-0.95
6.37
12.21
16.57
19.6
21.52
22.56
22.98
23
22.8
22.49
22.11
21.69
21.36
21.31
21.67
22.47
23.53
24.53
25.14
25.13
24.41
23.06
21.18
18.91
16.35
13.6
10.77
7.93
5.12
2.32
-0.55
-3.47
-6.38
-9.12
-11.51
-13.48
-15.07
-16.58
-18.39
-20.97
-24.57
-29
-33.56
-37.16
-38.62
-37.09
-32.42
-25.14
-16.36
-7.31
0.95
7.77
12.91
16.41
18.53
19.58
19.89
19.73
19.3
18.76
18.24
17.89
17.88
18.31
19.16
20.24
21.25
21.95
22.16
21.91
21.33
20.55
19.63
18.45
16.86
14.67
11.83
8.43
4.75
1.14
-2.1
-4.86
-7.18
-9.29
-11.45
-13.85
-16.64
-19.89
-23.51
-27.31
-30.83
-33.42
-34.3
-32.89
-28.9
-22.59
-14.64
-5.95
2.5
9.99
16.04
20.48
23.33
24.76
24.99
24.31
23.02
21.38
19.66
18.12
16.92
16.21
16.09
16.57
17.6
18.98
20.34
21.3
21.56
21.01
19.78
18.14
16.35
14.5
12.53
10.27
7.59
4.55
1.3
-1.94
-5.03
-7.92
-10.67
-13.37
-16.07
-18.84
-21.75
-24.87
-28.24
-31.84
-35.46
-38.67
-40.88
-41.45
-39.86
-35.91
-29.76
-21.93
-13.21
-4.54
3.23
9.51
14.06
16.95
18.48
19.01
18.88
18.3
17.42
16.41
15.48
14.95
15.01
15.71
16.89
18.2
19.32
20.01
20.25
20.12
19.7
18.98
17.85
16.23
14.1
11.55
8.74
5.79
2.72
-0.51
-3.85
-7.13
-10.1
-12.53
-14.37
-15.81
-17.18
-18.83
-21.05
-23.91
-27.31
-30.92
-34.15
-36.23
-36.41
-34.18
-29.49
-22.81
-14.98
-6.91
0.63
7.13
12.26
15.83
17.81
18.36
17.88
16.97
16.14
15.66
15.54
15.57
15.58
15.64
15.92
16.59
17.63
18.81
19.73
20.11
19.79
18.9
17.67
16.29
14.84
13.25
11.4
9.19
6.62
3.75
0.72
-2.37
-5.44
-8.42
-11.32
-14.11
-16.78
-19.26
-21.54
-23.69
-25.88
-28.22
-30.7
-32.97
-34.37
-34.12
-31.57
-26.56
-19.54
-11.44
-3.4
3.63
9.1
12.96
15.43
16.82
17.38
17.24
16.52
15.41
14.15
13.05
12.33
12.13
12.34
12.79
13.26
13.54
13.57
13.35
13.01
12.63
12.2
11.62
10.7
9.27
7.29
4.86
2.22
-0.37
-2.75
-4.89
-6.89
-8.89
-11.01
-13.35
-15.98
-18.94
-22.24
-25.74
-29.07
-31.62
-32.64
-31.5
-27.91
-22.08
-14.7
-6.8
0.64
6.87
11.58
14.8
16.76
17.76
17.96
17.46
16.3
14.62
12.7
10.92
9.67
9.19
9.43
10.17
11.05
11.77
12.22
12.44
12.54
12.54
12.32
11.7
10.45
8.55
6.11
3.37
0.63
-1.92
-4.25
-6.42
-8.59
-10.87
-13.28
-15.76
-18.2
-20.55
-22.94
-25.55
-28.51
-31.58
-34.17
-35.39
-34.38
-30.71
-24.59
-16.78
-8.4
-0.52
6.14
11.22
14.73
16.83
17.71
17.55
16.54
14.93
13.06
11.33
10.09
9.57
9.72
10.24
10.75
10.93
10.65
10.01
9.28
8.67
8.27
7.98
7.52
6.63
5.18
3.16
0.76
-1.76
-4.14
-6.26
-8.08
-9.71
-11.26
-12.87
-14.64
-16.72
-19.22
-22.23
-25.55
-28.62
-30.66
-30.81
-28.51
-23.76
-17.15
-9.69
-2.43
3.81
8.64
11.97
13.93
14.74
14.59
13.71
12.39
10.91
9.5
8.36
7.62
7.36
7.66
8.5
9.69
10.96
11.97
12.52
12.57
12.25
11.67
10.82
9.55
7.67
5.11
2.04
-1.19
-4.19
-6.67
-8.64
-10.27
-11.84
-13.65
-15.86
-18.51
-21.52
-24.64
-27.42
-29.28
-29.56
-27.77
-23.79
-17.98
-11.09
-4.12
2.04
6.76
9.88
11.58
12.25
12.26
11.85
11.1
9.96
8.44
6.69
5.02
3.82
3.39
3.76
4.77
6.04
7.18
7.96
8.27
8.1
7.46
6.3
4.54
2.21
-0.52
-3.38
-6.06
-8.47
-10.72
-13.09
-15.86
-19.07
-22.44
-25.38
-27.21
-27.29
-25.31
-21.32
-15.73
-9.18
-2.44
3.78
8.98
12.86
15.38
16.59
16.62
15.65
13.85
11.51
9
6.74
5.17
4.58
5.01
6.19
7.66
8.87
9.45
9.32
8.66
7.83
7.05
6.33
5.4
3.93
1.75
-1.04
-4.14
-7.2
-10.03
-12.61
-15.06
-17.57
-20.28
-23.28
-26.54
-29.91
-33.03
-35.3
-36.01
-34.59
-30.79
-24.88
-17.59
-9.85
-2.62
3.45
8.05
11.21
13.13
14.04
14.12
13.52
12.35
10.79
9.06
7.48
6.32
5.83
6.04
6.87
8.06
9.28
10.18
10.5
10.05
8.74
6.65
3.91
0.72
-2.67
-6.05
-9.26
-12.24
-15.04
-17.85
-20.8
-23.95
-27.07
-29.67
-31.05
-30.49
-27.62
-22.5
-15.7
-8.09
-0.59
6.08
11.46
15.39
17.9
19.12
19.24
18.54
17.32
15.86
14.35
12.97
11.87
11.24
11.16
11.61
12.35
13.02
13.3
13.08
12.5
11.82
11.2
10.52
9.46
7.63
4.79
1.07
-3.06
-6.98
-10.13
-12.25
-13.54
-14.53
-15.89
-18.23
-21.75
-26.24
-31.02
-35.17
-37.72
-37.93
-35.42
-30.31
-23.17
-14.86
-6.36
1.36
7.67
12.31
15.4
17.31
18.41
18.89
18.83
18.2
17.1
15.78
14.62
13.98
14.03
14.64
15.49
16.25
16.68
16.79
16.71
16.5
16.14
15.35
13.85
11.49
8.43
5.07
1.96
-0.51
-2.29
-3.7
-5.27
-7.52
-10.73
-14.83
-19.51
-24.32
-28.77
-32.35
-34.52
-34.78
-32.69
-28.12
-21.41
-13.28
-4.7
3.34
10.11
15.23
18.65
20.56
21.26
20.99
19.99
18.48
16.65
14.72
12.93
11.55
10.76
10.62
11.06
11.88
12.86
13.8
14.44
14.59
14
12.5
10.11
7.07
3.86
0.94
-1.4
-3.24
-4.96
-7.06
-9.95
-13.8
-18.4
-23.24
-27.52
-30.36
-30.85
-28.43
-23.07
-15.32
-6.27
2.83
10.9
17.29
21.84
24.66
25.93
25.81
24.4
21.94
18.83
15.61
12.88
11.05
10.29
10.48
11.32
12.52
13.83
15.09
16.17
16.85
16.87
15.95
13.91
10.85
7.12
3.22
-0.35
-3.27
-5.49
-7.22
-8.82
-10.71
-13.25
-16.62
-20.75
-25.21
-29.17
-31.64
-31.67
-28.68
-22.78
-14.7
-5.6
3.26
10.93
16.87
20.99
23.43
24.49
24.42
23.48
21.98
20.25
18.68
17.59
17.19
17.48
18.28
19.28
20.12
20.58
20.49
19.87
18.84
17.57
16.23
14.95
13.72
12.44
10.95
9
6.45
3.34
-0.15
-3.73
-7.16
-10.27
-13.06
-15.64
-18.17
-20.85
-23.83
-27.19
-30.87
-34.53
-37.53
-39.02
-38.2
-34.57
-28.24
-19.89
-10.69
-1.87
5.59
11.18
14.88
17.05
18.16
18.6
18.66
18.49
18.21
17.96
17.82
17.87
18.09
18.49
19.08
19.93
21.05
22.33
23.53
24.25
24.2
23.27
21.59
19.4
16.93
14.25
11.29
8.04
4.61
1.24
-1.84
-4.53
-6.85
-8.96
-10.94
-12.83
-14.64
-16.46
-18.54
-21.17
-24.54
-28.5
-32.5
-35.67
-37.13
-36.12
-32.41
-26.23
-18.28
-9.54
-1.05
6.29
11.96
15.84
18.13
19.25
19.59
19.48
19.12
18.66
18.21
17.91
17.86
18.08
18.5
18.98
19.36
19.56
19.57
19.47
19.32
19.07
18.6
17.74
16.35
14.47
12.2
9.83
7.61
5.82
4.5
3.51
2.53
1.19
-0.79
-3.45
-6.51
-9.55
-12.1
-13.91
-15.11
-16.05
-17.23
-19.04
-21.68
-25.11
-29.02
-32.8
-35.74
-37.09
-36.26
-33.07
-27.76
-20.94
-13.45
-6.07
0.61
6.18
10.4
13.17
14.56
14.84
14.47
13.92
13.58
13.63
14.01
14.51
15
15.4
15.75
16.14
16.59
17.04
17.42
17.64
17.64
17.38
16.77
15.7
14.04
11.75
8.93
5.9
3
0.5
-1.51
-3.22
-4.93
-6.88
-9.15
-11.54
-13.71
-15.35
-16.36
-16.87
-17.25
-17.89
-19.12
-21.06
-23.59
-26.33
-28.67
-29.88
-29.3
-26.65
-22.1
-16.3
-10.12
-4.41
0.28
3.83
6.39
8.24
9.57
10.42
10.82
10.81
10.53
10.2
9.99
10
10.27
10.76
11.46
12.35
13.37
14.39
15.17
15.48
15.16
14.23
12.82
11.18
9.53
7.93
6.33
4.56
2.5
0.15
-2.34
-4.85
-7.21
-9.34
-11.2
-12.81
-14.21
-15.44
-16.64
-17.99
-19.63
-21.59
-23.72
-25.55
-26.46
-25.81
-23.22
-18.73
-12.88
-6.51
-0.61
4.11
7.36
9.27
10.24
10.69
10.88
10.83
10.4
9.5
8.17
6.73
5.62
5.18
5.6
6.67
8.03
9.2
9.82
9.79
9.21
8.31
7.25
6.06
4.62
2.9
0.93
-1.08
-2.91
-4.44
-5.71
-6.88
-8.11
-9.44
-10.81
-12.1
-13.35
-14.73
-16.5
-18.78
-21.46
-24.06
-25.96
-26.54
-25.42
-22.58
-18.31
-13.1
-7.52
-2.08
2.83
6.89
9.94
11.95
13
13.25
12.86
12
10.8
9.5
8.32
7.53
7.28
7.6
8.26
8.92
9.29
9.24
8.84
8.28
7.66
6.92
5.84
4.23
1.98
-0.75
-3.63
-6.27
-8.4
-9.97
-11.09
-12.07
-13.15
-14.57
-16.46
-18.92
-21.86
-25.07
-28.1
-30.31
-31.03
-29.71
-26.26
-21.01
-14.69
-8.19
-2.27
2.61
6.32
8.96
10.69
11.64
11.87
11.49
10.65
9.65
8.79
8.33
8.37
8.86
9.63
10.46
11.19
11.69
11.94
11.87
11.5
10.79
9.77
8.52
7.12
5.64
4.02
2.18
-0.02
-2.55
-5.28
-7.94
-10.27
-12.14
-13.55
-14.73
-15.98
-17.62
-19.89
-22.82
-26.2
-29.47
-31.89
-32.59
-31
-27.01
-21.05
-13.99
-6.82
-0.42
4.73
8.38
10.64
11.69
11.83
11.42
10.86
10.54
10.66
11.21
11.99
12.73
13.22
13.44
13.53
13.63
13.8
13.95
13.92
13.58
12.91
12.09
11.24
10.37
9.27
7.63
5.24
2.16
-1.29
-4.66
-7.55
-9.86
-11.77
-13.71
-16.11
-19.22
-22.99
-27.11
-31.03
-34.07
-35.57
-35.05
-32.27
-27.35
-20.77
-13.27
-5.74
1.04
6.49
10.37
12.8
14.14
14.83
15.21
15.46
15.57
15.46
15.11
14.58
14.08
13.79
13.78
13.99
14.28
14.49
14.59
14.65
14.68
14.65
14.37
13.53
11.89
9.4
6.22
2.71
-0.69
-3.66
-6.09
-8.1
-10.01
-12.14
-14.73
-17.85
-21.42
-25.25
-28.97
-32.17
-34.22
-34.55
-32.61
-28.27
-21.81
-14.03
-5.95
1.48
7.59
12.05
14.82
16.09
16.09
15.17
13.78
12.37
11.32
10.79
10.69
10.79
10.85
10.78
10.62
10.59
10.79
11.28
11.9
12.36
12.33
11.51
9.81
7.32
4.36
1.27
-1.63
-4.24
-6.65
-9.03
-11.63
-14.62
-18.07
-21.89
-25.83
-29.31
-31.5
-31.53
-28.81
-23.36
-15.84
-7.44
0.65
7.58
13.06
17.21
20.28
22.4
23.48
23.36
22.08
20.04
17.82
16.09
15.23
15.31
16.09
17.17
18.21
18.99
19.5
19.76
19.83
19.62
19
17.82
15.91
13.26
9.96
6.26
2.44
-1.27
-4.73
-7.9
-10.8
-13.45
-15.88
-18.17
-20.49
-23.06
-26.14
-29.82
-33.91
-37.9
-41.07
-42.54
-41.62
-37.94
-31.63
-23.26
-13.79
-4.3
4.24
11.13
16.12
19.24
20.8
21.16
20.64
19.49
17.94
16.24
14.75
13.84
13.78
14.61
16.08
17.75
19.11
19.88
20.04
19.82
19.47
18.98
18.14
16.57
14.02
10.48
6.34
2.15
-1.57
-4.54
-6.86
-8.8
-10.82
-13.31
-16.58
-20.72
-25.55
-30.53
-34.81
-37.35
-37.24
-34.09
-28.14
-20.21
-11.49
-3.04
4.42
10.62
15.64
19.61
22.54
24.32
24.86
24.17
22.55
20.5
18.6
17.27
16.7
16.76
17.2
17.73
18.08
18.17
17.99
17.6
17.11
16.54
15.87
15
13.73
11.86
9.27
5.98
2.2
-1.75
-5.58
-9.08
-12.21
-15.08
-17.88
-20.86
-24.22
-28.01
-31.99
-35.64
-38.17
-38.72
-36.67
-31.86
-24.68
-16
-6.87
1.74
9.16
15.07
19.43
22.37
24.08
24.74
24.5
23.55
22.09
20.39
18.76
17.52
16.97
17.24
18.26
19.71
21.12
22.07
22.34
21.95
21.06
19.9
18.52
16.81
14.56
11.67
8.25
4.58
1.05
-2.16
-4.99
-7.53
-9.99
-12.48
-15.15
-18.09
-21.47
-25.36
-29.59
-33.68
-36.78
-37.97
-36.51
-32.19
-25.38
-16.95
-8.02
0.36
7.44
12.92
16.84
19.48
21.13
21.98
22.09
21.48
20.29
18.76
17.33
16.45
16.43
17.21
18.37
19.37
19.7
19.19
18.02
16.57
15.23
14.15
13.16
11.88
10.02
7.45
4.31
0.93
-2.36
-5.3
-7.83
-10
-11.9
-13.69
-15.53
-17.56
-19.92
-22.64
-25.54
-28.18
-29.87
-29.84
-27.5
-22.69
-15.82
-7.8
0.25
7.32
12.76
16.42
18.49
19.41
19.57
19.25
18.58
17.68
16.69
15.82
15.34
15.44
16.22
17.53
19.11
20.58
21.65
22.19
22.22
21.88
21.21
20.12
18.42
16.01
12.96
9.53
6.12
3.02
0.37
-1.97
-4.26
-6.71
-9.34
-11.92
-14.17
-15.88
-17.06
-17.93
-18.85
-20.23
-22.37
-25.43
-29.25
-33.38
-37.01
-39.17
-38.94
-35.82
-29.92
-21.98
-13.19
-4.77
2.42
8.03
12.18
15.17
17.26
18.58
19.13
18.97
18.29
17.42
16.7
16.37
16.46
16.8
17.23
17.6
17.84
18.04
18.27
18.59
18.91
19.06
18.79
17.82
16.07
13.63
10.82
8.06
5.7
3.93
2.69
1.73
0.68
-0.79
-2.86
-5.55
-8.67
-11.9
-14.91
-17.39
-19.33
-20.96
-22.74
-25.15
-28.44
-32.44
-36.44
-39.42
-40.29
-38.33
-33.44
-26.16
-17.51
-8.63
-0.54
6.12
11.11
14.48
16.45
17.25
17.06
16.08
14.55
12.82
11.26
10.25
10.04
10.64
11.88
13.48
15.11
16.61
17.88
18.91
19.66
19.99
19.69
18.59
16.66
14.04
11.06
8.14
5.59
3.58
2.03
0.73
-0.58
-2.12
-4.01
-6.26
-8.77
-11.39
-13.89
-16.06
-17.78
-19.1
-20.31
-21.86
-24.09
-27.09
-30.42
-33.27
-34.61
-33.61
-30.01
-24.21
-17.1
-9.73
-2.99
2.68
7.14
10.53
12.99
14.58
15.29
15.08
14.05
12.34
10.21
7.95
5.94
4.55
4.07
4.64
6.17
8.32
10.64
12.68
14.11
14.7
14.4
13.25
11.38
8.98
6.26
3.46
0.67
-2.08
-4.82
-7.63
-10.48
-13.24
-15.75
-17.86
-19.53
-20.85
-22.04
-23.34
-24.94
-26.82
-28.69
-30.01
-30.08
-28.32
-24.47
-18.75
-11.79
-4.51
2.25
7.91
12.21
15.16
16.86
17.42
16.99
15.75
13.95
11.94
10.05
8.5
7.45
6.95
6.94
7.3
7.83
8.32
8.62
8.69
8.54
8.22
7.72
6.87
5.5
3.48
0.88
-1.98
-4.72
-7.03
-8.82
-10.22
-11.51
-12.98
-14.82
-17.15
-20.03
-23.4
-27.07
-30.59
-33.26
-34.32
-33.18
-29.65
-24.09
-17.31
-10.28
-3.86
1.43
5.42
8.22
10.06
11.15
11.59
11.47
10.83
9.8
8.6
7.46
6.61
6.23
6.34
6.89
7.81
8.95
10.12
11.04
11.43
10.98
9.54
7.14
4.1
0.83
-2.22
-4.74
-6.69
-8.28
-9.97
-12.3
-15.67
-20.12
-25.23
-30.13
-33.72
-35.02
-33.41
-28.9
-22.11
-14.05
-5.88
1.46
7.35
11.63
14.43
16.06
16.8
16.84
16.31
15.31
14.02
12.71
11.67
11.12
11.1
11.45
11.93
12.3
12.46
12.48
12.48
12.5
12.4
11.93
10.73
8.62
5.63
2.03
-1.75
-5.3
-8.3
-10.67
-12.52
-14.22
-16.16
-18.77
-22.31
-26.62
-31.09
-34.73
-36.46
-35.39
-31.29
-24.58
-16.3
-7.73
0.03
6.3
10.93
14.01
15.82
16.51
16.18
14.95
13.04
10.8
8.61
6.78
5.47
4.71
4.41
4.47
4.84
5.42
6.1
6.71
7.04
6.82
5.88
4.09
1.49
-1.66
-5.04
-8.25
-11.01
-13.27
-15.3
-17.44
-19.99
-22.97
-25.9
-28
-28.32
-26.12
-21.19
-14.01
-5.52
3.07
10.71
16.77
21.02
23.56
24.6
24.3
22.88
20.7
18.27
16.19
14.98
14.77
15.4
16.43
17.42
18.11
18.43
18.46
18.3
17.98
17.36
16.26
14.51
11.98
8.74
4.97
0.96
-2.95
-6.45
-9.37
-11.68
-13.52
-15.2
-17.12
-19.61
-22.86
-26.69
-30.5
-33.33
-34.14
-32.2
-27.31
-19.95
-11.12
-2.06
6.17
12.86
17.72
20.8
22.27
22.32
21.14
18.98
16.24
13.51
11.35
10.2
10.22
11.21
12.75
14.34
15.63
16.42
16.76
16.74
16.46
15.93
15.05
13.66
11.58
8.75
5.31
1.62
-1.84
-4.63
-6.54
-7.74
-8.73
-10.2
-12.68
-16.36
-20.88
-25.43
-28.96
-30.48
-29.41
-25.66
-19.64
-12.16
-4.11
3.59
10.22
15.3
18.62
20.22
20.39
19.52
18.05
16.37
14.74
13.35
12.3
11.67
11.46
11.61
12
12.53
13.13
13.67
14.01
13.91
13.07
11.34
8.78
5.69
2.53
-0.27
-2.56
-4.46
-6.33
-8.58
-11.44
-15
-19.06
-23.14
-26.57
-28.59
-28.43
-25.67
-20.34
-13.02
-4.69
3.47
10.52
15.86
19.41
21.41
22.28
22.36
21.85
20.81
19.25
17.36
15.46
13.99
13.3
13.48
14.28
15.25
15.91
15.97
15.46
14.55
13.55
12.63
11.74
10.77
9.47
7.69
5.41
2.75
-0.13
-2.96
-5.57
-7.94
-10.15
-12.4
-14.89
-17.69
-20.76
-24
-27.19
-30.09
-32.39
-33.63
-33.27
-30.83
-26.06
-19.2
-10.99
-2.47
5.19
11.17
15.11
17.17
17.84
17.7
17.16
16.39
15.42
14.3
13.15
12.29
12
12.4
13.42
14.75
16
16.88
17.24
17.11
16.58
15.68
14.38
12.73
10.84
8.9
7.11
5.49
3.94
2.23
0.18
-2.24
-4.92
-7.58
-10.05
-12.22
-14.15
-15.97
-17.85
-19.95
-22.32
-24.94
-27.55
-29.61
-30.44
-29.45
-26.29
-21.13
-14.6
-7.57
-0.92
4.71
9.03
12.03
13.86
14.71
14.78
14.29
13.53
12.76
12.22
12.06
12.33
13
13.89
14.81
15.55
15.97
16.07
15.95
15.76
15.48
15.03
14.12
12.52
10.18
7.39
4.53
2.05
0.21
-1.03
-1.89
-2.73
-3.86
-5.47
-7.5
-9.75
-11.91
-13.68
-14.96
-15.85
-16.66
-17.77
-19.51
-22
-25.05
-28.26
-30.97
-32.45
-32
-29.21
-24.12
-17.26
-9.63
-2.26
3.95
8.58
11.62
13.35
14.12
14.15
13.56
12.39
10.79
9.05
7.63
6.91
7.11
8.16
9.78
11.49
12.89
13.74
14.07
14.11
14.13
14.22
14.28
14.05
13.25
11.76
9.7
7.29
4.8
2.34
-0.14
-2.76
-5.54
-8.33
-10.84
-12.73
-13.8
-14.17
-14.19
-14.39
-15.26
-17.08
-19.86
-23.3
-26.82
-29.7
-31.2
-30.78
-28.25
-23.8
-18
-11.58
-5.22
0.6
5.6
9.61
12.52
14.26
14.82
14.41
13.3
11.85
10.32
8.85
7.53
6.48
5.92
6.02
6.85
8.2
9.64
10.73
11.16
10.87
9.98
8.74
7.35
5.95
4.59
3.31
2.12
0.98
-0.18
-1.5
-3.11
-5.08
-7.39
-9.86
-12.29
-14.51
-16.44
-18.19
-19.95
-21.92
-24.16
-26.48
-28.41
-29.33
-28.67
-26.11
-21.72
-15.94
-9.42
-2.89
2.99
7.75
11.06
12.81
13.1
12.28
10.83
9.32
8.17
7.64
7.7
8.22
9.02
9.94
10.89
11.82
12.6
13.14
13.33
13.09
12.43
11.39
10.03
8.43
6.6
4.59
2.44
0.3
-1.69
-3.38
-4.77
-5.94
-7.09
-8.37
-9.82
-11.38
-12.85
-14.09
-15.07
-15.98
-17.19
-19.05
-21.8
-25.27
-28.9
-31.87
-33.22
-32.24
-28.74
-23.04
-15.92
-8.42
-1.46
4.3
8.57
11.4
13.07
13.91
14.25
14.25
13.9
13.12
11.91
10.37
8.83
7.62
7.02
7.16
7.94
9.14
10.49
11.79
12.94
13.9
14.61
14.95
14.86
14.21
12.98
11.13
8.67
5.63
2.1
-1.78
-5.82
-9.74
-13.29
-16.25
-18.48
-20.02
-21.11
-22.12
-23.45
-25.37
-27.84
-30.44
-32.44
-32.97
-31.36
-27.41
-21.45
-14.26
-6.77
0.1
5.71
9.71
12.09
13.05
12.94
12.18
11.16
10.2
9.53
9.31
9.6
10.42
11.69
13.28
14.98
16.49
17.55
18.02
17.82
17.04
15.8
14.27
12.63
10.99
9.36
7.67
5.78
3.55
0.95
-1.94
-4.87
-7.53
-9.71
-11.34
-12.57
-13.69
-15.1
-17.08
-19.81
-23.26
-27.14
-30.88
-33.73
-34.86
-33.65
-29.92
-23.99
-16.68
-9.05
-2.04
3.73
8.11
11.3
13.57
15.11
16.02
16.26
15.87
15.01
13.9
12.9
12.23
12.03
12.3
12.97
13.91
15.01
16.11
17
17.44
17.23
16.29
14.73
12.73
10.5
8.17
5.77
3.18
0.32
-2.77
-5.89
-8.76
-11.12
-12.86
-14.13
-15.22
-16.57
-18.55
-21.35
-24.93
-28.92
-32.62
-35.16
-35.65
-33.51
-28.68
-21.69
-13.57
-5.48
1.57
7.02
10.85
13.37
14.95
15.85
16.1
15.6
14.36
12.56
10.62
9.06
8.23
8.3
9.14
10.43
11.84
13.06
13.92
14.29
14.04
13.05
11.25
8.67
5.5
2.02
-1.42
-4.54
-7.16
-9.33
-11.25
-13.29
-15.8
-19.03
-22.93
-27.09
-30.74
-32.95
-32.93
-30.2
-24.81
-17.33
-8.71
-0.06
7.61
13.6
17.64
19.85
20.65
20.57
20
19.15
18.06
16.74
15.27
13.82
12.61
11.83
11.54
11.61
11.85
11.98
11.81
11.19
10.04
8.37
6.26
3.85
1.25
-1.35
-3.87
-6.22
-8.44
-10.69
-13.24
-16.43
-20.42
-25.08
-29.74
-33.36
-34.79
-33.21
-28.41
-20.9
-11.81
-2.45
5.96
12.69
17.42
20.27
21.56
21.67
20.91
19.5
17.64
15.57
13.67
12.29
11.77
12.21
13.43
15.01
16.45
17.42
17.72
17.35
16.37
14.73
12.45
9.48
5.98
2.16
-1.65
-5.18
-8.25
-10.82
-12.98
-14.95
-17.09
-19.75
-23.24
-27.59
-32.52
-37.35
-41.11
-42.72
-41.37
-36.76
-29.22
-19.65
-9.29
0.62
9.18
15.88
20.64
23.58
24.88
24.76
23.49
21.42
19.04
16.85
15.21
14.35
14.26
14.82
15.79
16.92
17.95
18.68
18.95
18.61
17.61
15.88
13.46
10.46
7.04
3.38
-0.32
-3.95
-7.46
-10.86
-14.22
-17.7
-21.43
-25.5
-29.68
-33.34
-35.57
-35.42
-32.21
-25.97
-17.42
-7.77
1.65
9.85
16.32
20.98
24
25.58
25.86
25.06
23.51
21.64
20.01
19.05
18.98
19.69
20.84
21.96
22.69
22.84
22.45
21.73
20.93
20.2
19.52
18.67
17.28
15.01
11.72
7.47
2.72
-1.97
-6.05
-9.25
-11.7
-13.84
-16.28
-19.47
-23.6
-28.43
-33.39
-37.6
-40.06
-39.88
-36.49
-29.94
-20.94
-10.71
-0.61
8.25
15.35
20.69
24.59
27.41
29.26
30.09
29.81
28.5
26.54
24.51
22.94
22.12
22.05
22.47
23
23.34
23.34
23
22.41
21.66
20.72
19.49
17.79
15.44
12.31
8.47
4.18
-0.15
-4.11
-7.51
-10.33
-12.82
-15.33
-18.16
-21.49
-25.24
-29.07
-32.33
-34.22
-33.97
-31.11
-25.62
-17.98
-9.07
0.09
8.6
15.83
21.43
25.32
27.52
28.18
27.49
25.68
23.06
20.05
17.18
14.94
13.73
13.73
14.78
16.48
18.33
19.92
21.08
21.78
22.02
21.78
20.91
19.27
16.74
13.42
9.49
5.24
0.96
-3.12
-6.78
-9.88
-12.39
-14.41
-16.24
-18.3
-21.03
-24.68
-29.14
-33.86
-38
-40.52
-40.56
-37.62
-31.77
-23.67
-14.32
-4.83
3.86
11.12
16.69
20.59
22.99
24.11
24.19
23.43
22.13
20.56
19.02
17.84
17.25
17.41
18.28
19.68
21.26
22.7
23.69
24.1
23.88
23.04
21.61
19.62
17.15
14.3
11.24
8.1
4.97
1.85
-1.3
-4.5
-7.67
-10.67
-13.36
-15.62
-17.51
-19.19
-20.95
-23.16
-26.06
-29.64
-33.5
-36.92
-38.98
-38.82
-35.95
-30.42
-22.83
-14.2
-5.61
2.03
8.22
12.8
15.92
17.85
18.86
19.09
18.72
17.88
16.85
15.92
15.37
15.3
15.69
16.39
17.23
18.1
18.91
19.55
19.81
19.44
18.28
16.3
13.72
10.89
8.15
5.72
3.59
1.71
-0.01
-1.66
-3.28
-4.98
-6.9
-9.12
-11.66
-14.38
-17.08
-19.61
-22.03
-24.56
-27.41
-30.53
-33.36
-35
-34.43
-31.04
-24.87
-16.8
-8.14
-0.19
6.16
10.59
13.31
14.71
15.12
14.72
13.57
11.78
9.63
7.55
6.02
5.44
5.97
7.44
9.47
11.53
13.16
14.09
14.29
13.91
13.15
12.19
11.03
9.62
7.83
5.65
3.17
0.56
-1.91
-4.09
-5.97
-7.65
-9.31
-11.08
-13.06
-15.28
-17.8
-20.71
-24.01
-27.5
-30.63
-32.58
-32.5
-29.83
-24.59
-17.43
-9.39
-1.55
5.26
10.55
14.19
16.23
16.81
16.23
14.82
13.01
11.21
9.72
8.63
7.93
7.58
7.59
8.02
8.86
9.95
10.99
11.64
11.63
10.95
9.75
8.34
6.98
5.75
4.61
3.4
1.99
0.26
-1.75
-3.94
-6.18
-8.35
-10.4
-12.29
-14.06
-15.76
-17.53
-19.58
-22.09
-25.17
-28.64
-31.97
-34.33
-34.83
-32.81
-28.12
-21.28
-13.28
-5.31
1.63
6.97
10.61
12.72
13.63
13.61
12.9
11.68
10.19
8.7
7.49
6.82
6.79
7.33
8.25
9.33
10.33
11.08
11.49
11.52
11.18
10.54
9.66
8.54
7.15
5.39
3.17
0.47
-2.56
-5.72
-8.75
-11.46
-13.75
-15.68
-17.34
-18.85
-20.33
-21.9
-23.74
-25.96
-28.48
-30.94
-32.69
-32.92
-30.95
-26.51
-19.97
-12.18
-4.29
2.62
7.96
11.53
13.62
14.65
15
14.85
14.23
13.17
11.78
10.34
9.17
8.57
8.6
9.13
9.86
10.45
10.69
10.47
9.86
9.04
8.2
7.43
6.67
5.73
4.35
2.35
-0.24
-3.13
-5.9
-8.12
-9.62
-10.54
-11.2
-12.07
-13.5
-15.72
-18.75
-22.46
-26.5
-30.28
-33.03
-33.91
-32.36
-28.24
-21.97
-14.41
-6.64
0.41
6.12
10.25
12.77
13.87
13.75
12.65
10.9
8.91
7.12
5.84
5.23
5.19
5.53
6.06
6.67
7.33
8.03
8.71
9.19
9.21
8.54
7.06
4.82
1.99
-1.13
-4.25
-7.08
-9.47
-11.4
-13.01
-14.58
-16.4
-18.71
-21.49
-24.47
-27.05
-28.42
-27.85
-24.89
-19.66
-12.79
-5.35
1.61
7.29
11.42
14.18
15.96
17.04
17.44
17.06
15.85
13.99
11.9
10.12
8.99
8.66
8.99
9.7
10.55
11.32
11.85
12.02
11.72
10.89
9.57
7.89
6.02
4.07
2.04
-0.15
-2.58
-5.26
-8.08
-10.85
-13.38
-15.62
-17.67
-19.81
-22.34
-25.46
-29.07
-32.71
-35.61
-36.91
-35.96
-32.48
-26.74
-19.38
-11.29
-3.32
3.9
9.93
14.52
17.57
19.08
19.2
18.26
16.65
14.84
13.21
11.98
11.24
10.98
11.13
11.53
12
12.35
12.43
12.19
11.76
11.34
11.1
11.02
10.81
10.07
8.41
5.69
2.17
-1.66
-5.23
-8.13
-10.3
-12
-13.66
-15.66
-18.28
-21.55
-25.31
-29.14
-32.43
-34.38
-34.22
-31.44
-26.02
-18.54
-10.02
-1.67
5.53
11.05
14.86
17.34
18.88
19.73
19.91
19.31
17.91
15.92
13.88
12.38
11.87
12.43
13.72
15.15
16.19
16.56
16.34
15.8
15.2
14.61
13.83
12.52
10.41
7.47
3.95
0.29
-3.08
-5.89
-8.15
-10.06
-11.91
-13.94
-16.24
-18.84
-21.72
-24.78
-27.78
-30.29
-31.68
-31.28
-28.61
-23.6
-16.72
-8.85
-1.04
5.74
10.96
14.51
16.59
17.55
17.66
17.08
15.93
14.37
12.68
11.23
10.37
10.19
10.64
11.48
12.5
13.58
14.61
15.43
15.79
15.4
14.09
11.86
9
5.82
2.64
-0.4
-3.28
-6.06
-8.77
-11.47
-14.26
-17.25
-20.49
-23.87
-26.94
-29.05
-29.38
-27.3
-22.61
-15.64
-7.24
1.46
9.39
15.85
20.56
23.67
25.5
26.4
26.58
26.18
25.33
24.21
23.04
22.04
21.28
20.72
20.2
19.58
18.79
17.91
17.03
16.09
14.68
12.07
7.38
0.06
-9.76
-21.02
-31.95
-40.55
-45.24
-45.34
-41.25
-34.17
-25.66
-17.14
-9.73
-4.11
-0.79
-0.04
-1.88
-5.85
-10.93
-15.62
-18.36
-18
-14.19
-7.55
0.63
8.94
16.27
22.1
26.49
29.74
32.15
33.88
34.94
35.37
35.35
35.17
35.21
35.71
36.73
38.08
39.51
40.76
41.76
42.63
43.6
44.81
46.14
47.11
47.02
45.21
41.32
35.6
28.91
22.52
17.75
15.5
16.03
18.88
23.01
27.02
29.39
28.78
24.31
15.92
4.42
-8.61
-21.19
-31.54
-38.56
-42.01
-42.52
-41.19
-39.26
-37.82
-37.64
-39.14
-42.34
-46.88
-52.04
-56.85
-60.25
-61.3
-59.39
-54.36
-46.65
-37.24
-27.5
-18.87
-12.54
-9.09
-8.45
-9.95
-12.68
-15.89
-19.25
-22.84
-26.95
-31.8
-37.27
-42.99
-48.49
-53.37
-57.56
-61.22
-64.72
-68.4
-72.47
-76.88
-81.21
-84.64
-86.09
-84.51
-79.38
-71.12
-61.28
-51.95
-44.9
-40.56
-37.43
-32.61
-22.82
-5.71
19.34
51.1
87.08
124.13
158.89
188.06
208.64
218.52
217.21
206.38
189.45
170.49
152.8
137.99
126.02
116.04
107.39
100.08
94.52
90.89
88.59
86.28
82.54
76.52
68.52
59.95
52.67
48.09
46.52
46.87
47.06
44.83
38.66
28.47
15.47
1.52
-11.88
-24.2
-35.79
-47.35
-59.24
-71.1
-81.92
-90.54
-96.28
-99.02
-99.05
-96.81
-92.5
-86.12
-77.61
-67.24
-55.89
-45.37
-38.17
-36.99
-43.84
-59.03
-80.57
-104.19
-124.37
-135.85
-135.4
-122.88
-101.33
-75.86
-51.82
-33.11
-21.25
-15.47
-13.77
-14.04
-14.75
-15.21
-15.13
-14.05
-11.44
-6.91
-0.52
6.76
13.46
18.02
19.46
17.93
14.79
12.12
12.11
16.28
24.97
37.12
50.61
62.75
71.2
74.55
72.66
66.57
57.87
48.11
38.28
28.56
18.48
7.46
-4.75
-17.85
-31.06
-43.54
-54.91
-65.15
-74.55
-83.47
-91.98
-99.74
-106.14
-110.47
-112.31
-111.54
-108.17
-102.41
-94.59
-85.14
-74.57
-63.42
-52.3
-42.13
-33.65
-27.13
-22.44
-19.28
-17.21
-15.78
-14.58
-13.29
-12.21
-11.58
-11.2
-10.8
-10.43
-10.31
-10.76
-11.89
-13.59
-16.44
-20.78
-26.12
-31.78
-37.36
-42.65
-47.43
-51.31
-53.85
-55.73
-57.46
-58.35
-57.49
-54.56
-49.91
-44.33
-38.59
-26.72
-7.57
14.95
36.04
53.13
66.24
76.18
83.38
87.87
89.57
89.19
86.21
81.89
77.95
75.74
75.92
78.66
83.92
91.81
102.18
111.25
118.19
123
125.89
127
126.46
124.49
121.36
116.69
110.03
102
93.15
83.84
74.17
64.29
54.5
45.14
36.23
27.47
19.15
11.29
3.81
-3.43
-10.37
-16.78
-22.37
-27.06
-31.13
-34.63
-37.86
-41.14
-44.72
-48.61
-52.5
-55.85
-57.87
-57.78
-54.82
-48.73
-39.88
-29.27
-18.27
-8.2
-0.02
5.99
10.01
12.62
14.29
15.32
15.75
15.58
14.91
14.03
13.33
13.11
13.46
14.24
15.13
15.86
16.28
16.43
16.43
16.37
16.19
15.7
14.68
12.94
10.48
7.5
4.37
1.5
-0.87
-2.68
-4.17
-5.65
-7.46
-9.7
-12.27
-14.91
-17.29
-19.24
-20.79
-22.16
-23.7
-25.77
-28.55
-31.98
-35.68
-38.86
-40.5
-39.58
-35.41
-27.94
-17.85
-6.3
5.32
15.8
24.4
30.89
35.38
38.16
39.51
39.71
39.07
37.99
36.91
36.23
36.13
36.6
37.51
38.65
39.92
41.32
42.9
44.62
46.29
47.52
47.79
46.73
44.19
40.26
35.31
29.82
24.17
18.6
13.06
7.32
1.15
-5.49
-12.38
-19.07
-25.01
-29.89
-33.71
-36.94
-40.24
-44.33
-49.61
-55.96
-62.63
-68.39
-71.77
-71.57
-67.18
-58.93
-47.96
-35.96
-24.56
-14.99
-7.83
-2.98
-0.05
1.46
1.93
1.63
0.74
-0.44
-1.57
-2.25
-2.2
-1.35
0.11
1.81
3.37
4.57
5.42
6.14
6.94
7.87
8.72
9.09
8.61
7.22
5.15
2.78
0.47
-1.73
-3.99
-6.56
-9.53
-12.71
-15.7
-18.12
-19.79
-20.83
-21.58
-22.45
-23.77
-25.75
-28.5
-32.06
-36.3
-40.79
-44.67
-46.7
-45.7
-40.85
-32.22
-20.83
-8.32
3.52
13.37
20.67
25.51
28.37
29.75
29.93
29.05
27.3
24.99
22.6
20.53
19.02
18.04
17.41
16.9
16.36
15.82
15.37
15.12
15.08
15.09
14.84
14.03
12.4
9.93
6.84
3.53
0.48
-2.02
-3.92
-5.48
-7.13
-9.23
-11.88
-14.83
-17.67
-19.92
-21.37
-22.15
-22.68
-23.58
-25.39
-28.43
-32.7
-37.78
-42.87
-46.87
-48.62
-47.17
-42.19
-34.04
-23.75
-12.75
-2.5
5.93
11.96
15.57
17.13
17.17
16.18
14.52
12.43
10.11
7.78
5.7
4.07
2.96
2.27
1.69
0.94
-0.14
-1.52
-2.99
-4.31
-5.42
-6.4
-7.53
-9.11
-11.32
-14.16
-17.35
-20.48
-23.1
-24.99
-26.15
-26.94
-27.85
-29.18
-31.03
-33.09
-34.98
-36.4
-37.38
-38.14
-38.77
-39.05
-38.24
-35.4
-29.84
-21.48
-10.98
0.57
12.1
22.97
32.86
41.59
48.78
53.78
56.04
55.46
52.62
48.64
44.65
41.25
38.42
35.8
33.22
31.14
30.47
32.1
36.33
42.55
49.57
56.21
61.84
66.47
70.52
74.14
76.85
77.59
75.2
68.97
59.02
46.29
32.07
17.71
4.29
-7.33
-16.52
-22.88
-26.55
-28.42
-30.01
-33.04
-38.68
-47
-56.88
-66.6
-74.72
-80.76
-85.33
-89.53
-93.92
-97.84
-99.37
-96.08
-86.01
-68.37
-43.87
-14.32
17.86
50.21
80.47
106.54
126.34
138.02
140.39
133.32
117.99
96.72
72.46
48.06
25.6
5.91
-11.37
-27.21
-42.69
-58.51
-74.82
-90.97
-105.6
-117.09
-124.29
-126.85
-125.22
-120.44
-113.72
-106.52
-99.51
-92.39
-84.37
-75
-64.64
-54.21
-44.94
-37.88
-34.16
-33.56
-34.35
-34.29
-31.92
-27.25
-21.18
-14.99
-9.55
-5.94
-3.95
-2.19
0.91
6.19
13.64
23.33
35.48
55.36
81.38
105.43
118.64
117.64
105.24
87.12
68.8
53.14
40.9
30.29
19.55
8.17
-3.33
-12.19
-17.23
-18.05
-15.06
-9.32
-3.15
1.64
4.52
6.03
6.99
7.79
8.62
9.32
9.55
8.4
5.5
1.45
-2.57
-5.37
-6.51
-6.05
-4.42
-2.26
-0.44
0.44
0.18
-1.23
-3.76
-7.59
-12.58
-18.15
-23.3
-26.96
-28.23
-26.64
-22.27
-15.66
-7.6
1.15
10
18.37
25.58
30.89
33.76
34.1
32.38
29.5
26.37
23.59
21.23
19.03
16.73
14.3
11.97
10.11
8.91
8.2
7.5
6.15
3.65
-0.11
-4.83
-9.81
-14.25
-17.37
-18.81
-18.59
-17.15
-15.15
-13.29
-12.06
-11.67
-12.03
-12.75
-13.27
-12.95
-11.28
-7.91
-2.85
3.58
10.8
18.11
24.83
30.46
34.75
37.65
39.27
39.72
39.04
37.33
34.71
31.53
28.29
25.56
23.69
22.71
22.28
21.89
21.14
19.95
18.6
17.47
16.79
16.42
15.93
14.81
12.76
9.83
6.36
2.85
-0.34
-3.02
-5.26
-7.21
-9.1
-11.11
-13.41
-16.09
-19.13
-22.25
-24.94
-26.47
-26.15
-23.58
-18.86
-12.5
-5.41
1.55
7.74
12.85
16.9
20.06
22.49
24.2
25.14
25.24
24.59
23.46
22.24
21.34
20.98
21.15
21.65
22.21
22.68
23.03
23.35
23.66
23.83
23.61
22.71
20.98
18.49
15.45
12.15
8.82
5.56
2.43
-0.49
-3.11
-5.4
-7.42
-9.38
-11.5
-13.98
-16.81
-19.81
-22.65
-24.96
-26.26
-26.09
-24.07
-20.03
-14.17
-7.1
0.22
6.77
11.77
14.97
16.61
17.22
17.34
17.31
17.21
17
16.61
16.06
15.47
14.98
14.66
14.53
14.53
14.58
14.57
14.42
14.09
13.6
13.03
12.47
11.89
11.06
9.67
7.52
4.7
1.57
-1.35
-3.65
-5.3
-6.52
-7.7
-9.1
-10.76
-12.53
-14.32
-16.2
-18.31
-20.66
-22.88
-24.22
-23.81
-21.1
-16.15
-9.69
-2.85
3.28
8.08
11.45
13.66
15.08
15.89
16.07
15.49
14.2
12.48
10.77
9.44
8.65
8.32
8.15
7.86
7.29
6.46
5.54
4.75
4.25
4.07
4.08
3.99
3.53
2.51
0.93
-1.01
-2.97
-4.66
-5.92
-6.71
-7.19
-7.54
-7.92
-8.44
-9.16
-10.14
-11.42
-13.01
-14.77
-16.42
-17.47
-17.39
-15.84
-12.79
-8.69
-4.27
-0.37
2.42
3.89
4.25
3.97
3.48
3.08
2.82
2.6
2.31
1.93
1.55
1.28
1.19
1.27
1.42
1.63
1.92
2.44
3.23
4.2
5.06
5.38
4.83
3.3
1.07
-1.36
-3.46
-4.98
-5.99
-6.9
-8.11
-9.9
-12.24
-14.89
-17.51
-19.83
-21.6
-22.61
-22.61
-21.43
-19.09
-15.85
-12.19
-8.61
-5.45
-2.86
-0.81
0.75
1.74
2.07
1.69
0.73
-0.48
-1.54
-2.11
-2.07
-1.52
-0.61
0.51
1.75
3.02
4.2
5.1
5.59
5.63
5.41
5.2
5.26
5.61
6.01
6.05
5.38
3.85
1.63
-0.89
-3.31
-5.33
-6.88
-8.05
-9.03
-10.01
-11.23
-12.88
-15.02
-17.52
-19.97
-21.74
-22.16
-20.86
-17.86
-13.68
-9.04
-4.64
-0.89
2.05
4.27
5.89
6.97
7.51
7.45
6.84
5.79
4.47
3.18
2.17
1.66
1.71
2.25
3.1
4.01
4.79
5.28
5.45
5.23
4.54
3.28
1.52
-0.6
-2.8
-4.81
-6.49
-7.86
-9.07
-10.29
-11.57
-12.84
-14.04
-15.11
-16.17
-17.4
-18.99
-21.03
-23.32
-25.43
-26.77
-26.72
-24.91
-21.3
-16.31
-10.63
-5.09
-0.44
3
5.12
6.17
6.47
6.36
6.07
5.78
5.59
5.52
5.63
5.94
6.43
7.07
7.81
8.49
8.99
9.17
8.96
8.38
7.54
6.56
5.48
4.32
3.02
1.59
0.03
-1.62
-3.28
-4.96
-6.64
-8.31
-10.06
-11.94
-14.13
-16.76
-19.86
-23.14
-26.02
-27.72
-27.53
-25.18
-20.89
-15.34
-9.39
-3.8
0.92
4.5
6.92
8.29
8.8
8.67
8.15
7.46
6.73
6.08
5.6
5.37
5.45
5.8
6.27
6.64
6.73
6.51
6.17
5.91
5.89
6.03
6.07
5.66
4.53
2.6
0.03
-2.88
-5.82
-8.55
-11.03
-13.39
-15.89
-18.69
-21.81
-24.88
-27.32
-28.46
-27.78
-25.11
-20.69
-15.08
-8.94
-2.84
2.8
7.66
11.48
14.03
15.19
15.07
14
12.5
11.1
10.1
9.6
9.42
9.36
9.21
8.96
8.7
8.51
8.42
8.39
8.3
8
7.31
6.14
4.45
2.33
-0.05
-2.49
-4.77
-6.79
-8.56
-10.25
-12.07
-14.25
-16.93
-20.03
-23.27
-26.09
-27.85
-27.92
-25.97
-22.01
-16.53
-10.3
-4.13
1.29
5.53
8.51
10.32
11.15
11.21
10.7
9.77
8.63
7.51
6.61
6.12
6.08
6.43
6.98
7.54
7.94
8.12
8.04
7.69
7.04
6.05
4.72
3.06
1.17
-0.9
-3.12
-5.61
-8.48
-11.91
-15.92
-20.27
-24.47
-27.8
-29.51
-28.99
-26.01
-20.74
-13.78
-5.96
1.78
8.63
13.93
17.35
18.93
19.02
18.19
17.02
15.99
15.28
14.84
14.52
14.19
13.84
13.57
13.46
13.57
13.8
13.97
13.81
13.19
12.04
10.39
8.31
5.92
3.29
0.52
-2.33
-5.22
-8.18
-11.33
-14.83
-18.8
-23.15
-27.46
-30.92
-32.62
-31.76
-27.98
-21.61
-13.49
-4.8
3.39
10.27
15.48
18.98
20.91
21.49
20.95
19.59
17.72
15.74
13.94
12.55
11.65
11.19
11.06
11.07
11.09
11.04
10.91
10.68
10.37
9.93
9.22
8.07
6.32
3.94
1.12
-1.84
-4.52
-6.66
-8.31
-9.85
-11.84
-14.81
-18.9
-23.6
-27.96
-30.71
-30.82
-27.77
-21.84
-13.89
-5.12
3.32
10.62
16.38
20.6
23.41
24.98
25.41
24.8
23.33
21.39
19.51
18.2
17.83
18.43
19.75
21.42
23.09
24.55
25.81
26.93
27.91
28.55
28.51
27.4
24.96
21.21
16.47
11.27
6.15
1.61
-2.15
-5.17
-7.68
-10.04
-12.65
-15.86
-19.89
-24.81
-30.32
-35.75
-40.06
-42.12
-41.02
-36.47
-28.94
-19.53
-9.63
-0.42
7.4
13.69
18.68
22.59
25.5
27.25
27.73
26.97
25.34
23.41
21.78
20.88
20.84
21.54
22.72
24.14
25.61
26.97
28.01
28.46
28.08
26.74
24.58
21.91
19.1
16.43
13.93
11.43
8.71
5.59
2.04
-1.76
-5.62
-9.32
-12.73
-15.75
-18.4
-20.78
-23.13
-25.76
-28.88
-32.4
-35.81
-38.25
-38.73
-36.5
-31.35
-23.61
-14.22
-4.31
5
12.87
18.82
22.75
24.84
25.45
25.06
24.1
22.93
21.78
20.77
19.99
19.48
19.34
19.58
20.21
21.1
22.1
22.96
23.47
23.53
23.08
22.12
20.67
18.77
16.48
13.92
11.27
8.67
6.25
3.98
1.82
-0.29
-2.34
-4.25
-5.98
-7.54
-9.14
-11.09
-13.68
-17.1
-21.23
-25.67
-29.64
-32.27
-32.69
-30.37
-25.3
-18.06
-9.67
-1.36
5.78
11.12
14.55
16.37
17.06
17.02
16.49
15.62
14.56
13.53
12.8
12.62
13.04
13.99
15.24
16.58
17.86
19
19.97
20.65
20.89
20.46
19.28
17.35
14.83
11.96
9
6.15
3.51
1.01
-1.49
-4.07
-6.73
-9.35
-11.72
-13.73
-15.33
-16.71
-18.18
-20.06
-22.51
-25.42
-28.3
-30.43
-31.06
-29.65
-26.05
-20.54
-13.77
-6.59
0.17
5.87
10.11
12.76
13.92
13.89
13.03
11.77
10.44
9.37
8.74
8.63
9.03
9.77
10.62
11.31
11.66
11.54
11
10.17
9.22
8.29
7.44
6.61
5.66
4.43
2.76
0.64
-1.83
-4.45
-6.96
-9.22
-11.21
-13.07
-15.01
-17.25
-19.88
-22.84
-25.86
-28.43
-29.91
-29.67
-27.25
-22.57
-16.04
-8.44
-0.73
6.17
11.64
15.43
17.56
18.26
17.85
16.69
15.18
13.66
12.42
11.57
11.15
11.06
11.23
11.58
12.02
12.45
12.76
12.8
12.5
11.85
10.87
9.57
7.93
5.84
3.28
0.35
-2.76
-5.74
-8.37
-10.55
-12.31
-13.82
-15.32
-16.99
-18.95
-21.26
-23.84
-26.56
-29.19
-31.32
-32.44
-32.01
-29.63
-25.25
-19.28
-12.45
-5.69
0.18
4.75
7.91
9.89
11
11.44
11.29
10.62
9.53
8.24
7.12
6.5
6.58
7.39
8.67
10.04
11.15
11.79
11.92
11.68
11.17
10.48
9.57
8.36
6.72
4.59
1.99
-1
-4.17
-7.22
-9.85
-11.83
-13.13
-14
-14.89
-16.27
-18.45
-21.43
-24.82
-28.02
-30.33
-31.09
-29.88
-26.5
-21.21
-14.62
-7.59
-1.1
4.12
7.77
10
11.24
12
12.55
12.94
13.05
12.76
12.09
11.22
10.47
10.09
10.19
10.7
11.39
11.97
12.19
11.91
11.13
9.99
8.66
7.31
5.95
4.49
2.8
0.76
-1.59
-4.12
-6.62
-8.92
-10.98
-12.85
-14.62
-16.4
-18.3
-20.44
-22.94
-25.74
-28.61
-30.98
-32.14
-31.43
-28.45
-23.37
-16.84
-9.78
-3.13
2.41
6.56
9.37
11.11
12.07
12.49
12.48
12.13
11.51
10.74
10.06
9.7
9.81
10.41
11.36
12.42
13.32
13.9
14.15
14.15
14.03
13.84
13.57
13.08
12.2
10.77
8.7
6.06
3.01
-0.23
-3.38
-6.21
-8.67
-10.85
-12.92
-15.14
-17.66
-20.57
-23.79
-27.05
-29.95
-32.03
-32.83
-31.94
-29.19
-24.63
-18.67
-11.96
-5.22
0.83
5.76
9.37
11.8
13.25
13.94
13.98
13.44
12.45
11.21
10
9.08
8.57
8.43
8.56
8.82
9.09
9.35
9.55
9.59
9.4
8.9
8.07
6.98
5.72
4.38
2.98
1.49
-0.12
-1.91
-3.89
-6.04
-8.26
-10.44
-12.52
-14.54
-16.63
-18.97
-21.67
-24.7
-27.76
-30.33
-31.79
-31.57
-29.36
-25.19
-19.45
-12.88
-6.34
-0.64
3.65
6.33
7.52
7.61
7
6
4.84
3.61
2.42
1.39
0.74
0.73
1.56
3.24
5.6
8.29
10.88
13
14.43
15.19
15.42
15.31
14.96
14.32
13.26
11.64
9.47
6.92
4.21
1.58
-0.93
-3.39
-5.93
-8.63
-11.4
-14.19
-16.95
-19.71
-22.47
-24.96
-26.67
-26.9
-25.13
-21.24
-15.68
-9.19
-2.67
3.2
8.09
11.88
14.56
16.13
16.6
16.05
14.68
12.83
10.92
9.34
8.45
8.44
9.28
10.76
12.51
14.11
15.26
15.85
16.01
15.93
15.82
15.64
15.18
14.15
12.34
9.77
6.7
3.52
0.52
-2.18
-4.7
-7.22
-9.9
-12.8
-15.93
-19.24
-22.64
-25.95
-28.8
-30.66
-30.97
-29.3
-25.62
-20.29
-14.05
-7.73
-2.09
2.39
5.54
7.4
8.11
7.78
6.57
4.7
2.48
0.33
-1.39
-2.49
-3.03
-3.21
-3.25
-3.24
-3.11
-2.79
-2.29
-1.71
-1.31
-1.32
-1.92
-3.16
-4.94
-6.95
-8.81
-10.12
-10.64
-10.52
-10.25
-10.47
-11.67
-13.84
-16.42
-18.38
-18.61
-16.28
-11.04
-3.1
6.81
17.58
27.79
35.98
40.92
41.92
39.03
32.94
24.69
15.33
5.65
-3.85
-12.71
-20.43
-26.31
-29.71
-30.31
-28.31
-24.39
-19.49
-14.42
-9.72
-5.61
-2.11
0.72
2.76
3.9
4.1
3.45
2.11
0.27
-1.99
-4.63
-7.56
-10.59
-13.33
-15.23
-15.79
-14.64
-11.68
-7.13
-1.46
4.71
10.69
15.94
20.08
22.93
24.51
24.93
24.36
22.95
20.9
18.46
15.93
13.62
11.74
10.41
9.49
8.74
7.93
6.85
5.47
3.84
2.03
0.12
-1.85
-3.85
-5.8
-7.67
-9.5
-11.36
-13.34
-15.44
-17.56
-19.39
-20.56
-20.69
-19.54
-17.12
-13.62
-9.47
-5.09
-0.92
2.74
5.68
7.79
9
9.28
8.69
7.36
5.62
3.89
2.59
2.01
2.22
3.03
4.13
5.2
5.98
6.4
6.45
6.18
5.58
4.63
3.3
1.67
-0.19
-2.2
-4.38
-6.82
-9.57
-12.5
-15.22
-17.15
-17.7
-16.49
-13.53
-9.24
-4.32
0.51
4.65
7.78
9.79
10.72
10.64
9.65
7.89
5.67
3.45
1.74
0.95
1.2
2.2
3.38
4.13
4.06
3.18
1.87
