-7.42
-8.42
-10.41
-13.01
-15.69
-17.86
-19.16
-19.51
-19.09
-18.28
-17.47
-17.01
-17.15
-17.96
-19.24
-20.42
-20.64
-18.97
-14.79
-8.2
-0.09
8.2
15.34
20.64
24.04
25.96
26.77
26.49
24.82
21.51
16.75
11.3
6.26
2.57
0.64
0.29
0.92
1.97
3.12
4.33
5.63
6.84
7.45
6.81
4.52
0.8
-3.35
-6.33
-6.48
-2.78
4.78
14.97
25.82
35.18
41.47
44.1
43.6
41.24
38.52
36.73
36.54
38
40.62
43.57
45.96
47.17
47.04
45.97
44.94
44.95
46.51
49.22
51.68
52.12
49.06
41.97
31.31
18.4
4.92
-7.18
-15.75
-18.61
-14.1
-2
15.83
35.56
53.02
65.38
72.3
75.62
77.84
80.29
82.4
82.52
79.5
74.94
72.83
77.27
89.88
108.59
128.63
144.72
153.46
153.6
146.8
135.32
119.51
97.12
64.95
21.65
-30.98
-88.05
-144.66
-195.46
-236.99
-269.22
-294.89
-317.35
-338.08
-356.16
-368.64
-373.49
-367.25
-346.51
-310.02
-259.85
-200.79
-138.54
-78.67
-15.26
45.81
94.83
126.69
143.45
150.66
150.64
144.44
131.89
114.19
91.35
65.29
39.08
15.26
-4.79
-20.68
-31.92
-38.6
-41.05
-41.28
-39.76
-35.71
-28.42
-18.42
-7.9
0.44
3.95
1.58
-5.95
-14.31
-17.21
-9.13
12.57
47
90.49
137.41
181.39
215.79
235.26
236.78
220.19
188.52
147.72
105.61
69.63
44.8
32.35
29.95
33.21
37.08
37.55
32.65
22.88
10.59
-1.2
-10.12
-15.67
-19
-22.22
-27.39
-35.46
-45.75
-56.33
-64.73
-68.91
-67.92
-62.06
-52.53
-40.94
-28.73
-17.14
-7.33
-0.38
2.72
1.49
-3.65
-11.2
-18.95
-24.59
-26.7
-25.28
-21.68
-17.95
-15.86
-16.32
-19.23
-24.01
-30.04
-36.94
-44.38
-51.63
-57.4
-60.05
-58.2
-51.55
-41.09
-28.8
-17.01
-7.44
-0.76
3.28
5.52
6.69
7.09
6.6
5.01
2.38
-0.76
-3.5
-4.89
-4.24
-1.38
3.24
8.83
14.48
19.39
23.1
25.39
26.23
25.7
23.95
21.16
17.67
13.92
10.38
7.45
5.38
4.16
3.61
3.38
3.07
2.19
0.27
-3
-7.53
-12.64
-17.17
-19.78
-19.49
-16.08
-10.24
-3.35
3.02
7.74
10.38
11.26
11.09
10.54
9.95
9.28
8.25
6.56
4.18
1.36
-1.42
-3.71
-5.27
-6.16
-6.63
-7
-7.45
-8.03
-8.7
-9.53
-10.64
-12.16
-14.01
-15.89
-17.23
-17.47
-16.25
-13.48
-9.38
-4.27
1.46
7.43
13.2
18.24
21.95
23.88
23.92
22.41
20.12
18
16.78
16.75
17.7
18.95
19.69
19.26
17.31
13.85
9.17
3.63
-2.42
-8.63
-14.6
-19.69
-23.1
-24.09
-22.27
-17.81
-11.58
-4.77
1.5
6.49
10.07
12.5
14.06
14.89
14.86
13.74
11.5
8.5
5.4
2.98
1.79
1.97
3.33
5.4
7.75
10.02
12.02
13.55
14.35
14.07
12.4
9.31
5.09
0.37
-3.96
-7.09
-8.51
-8.09
-6.13
-3.15
0.34
4.08
7.96
11.84
15.46
18.54
20.75
21.91
22.02
21.28
20.22
19.34
18.89
18.77
18.68
18.17
16.78
14.24
10.52
6.25
2.11
-1.65
-5.17
-8.77
-12.73
-17.16
-21.84
-26.35
-29.16
-29.25
-26.69
-22.55
-17.85
-13.22
-9.01
-5.22
-1.99
2.67
9.77
18.46
26.49
32.18
35.28
36.5
37.25
38.24
42.64
51.65
63.62
75.62
86.74
99.14
116.01
140.64
174.1
219.75
277.4
341.81
403.85
454.81
489.14
504.43
502.6
459.21
368.16
246.59
125.23
26.64
-42.73
-83.44
-106.34
-118
-123.12
-121.5
-114.76
-106.01
-99.86
-98.68
-101.75
-107.11
-112.22
-116.56
-117.66
-114.95
-110.74
-109.54
-115.11
-128.76
-149.36
-172.31
-191.35
-197.96
-186.92
-159.49
-123.9
-91.88
-74.13
-77.07
-100.27
-138.05
-180.69
-218.7
-245.2
-255.98
-248.23
-220.01
-171.53
-106.59
-34.24
32.58
79.9
97.62
83.82
46.53
1.08
-35.91
-53.04
-48.61
-30.07
-9.82
1.01
-2.87
-19.53
-42.13
-63.15
-77.93
-85.77
-88.65
-88.81
-87.12
-82.94
-75.39
-64.78
-53.04
-43.13
-37.45
-36.49
-38.51
-40.47
-39.39
-33.79
-24.22
-12.8
-2.22
5.43
9.31
9.9
8.48
6.56
5.2
4.74
4.87
4.89
4.25
2.9
1.27
0.06
-0.18
0.74
2.48
4.47
6.04
6.74
6.33
4.78
2.23
-0.91
-3.96
-6.06
-6.43
-4.81
-1.51
2.61
6.5
9.37
10.94
11.49
11.53
11.56
11.79
12.07
12.08
11.56
10.46
8.97
7.47
6.28
5.62
5.47
5.71
6.11
6.46
6.58
6.32
5.59
4.32
2.6
0.54
-1.7
-3.96
-6.12
-7.94
-9.07
-9.12
-7.77
-4.97
-1.1
3.19
7.16
10.19
12.03
12.79
12.76
12.32
11.74
11.07
10.25
9.17
7.7
5.79
3.62
1.62
0.33
0.13
1.1
2.91
4.95
6.41
6.66
5.53
3.49
1.39
-0.01
-0.39
0.05
0.87
1.5
1.55
1.21
1.16
2.2
4.71
8.6
13.59
19.31
24.99
29.18
31.12
30.88
29.45
28.06
27.81
29.74
34.37
40.76
45.64
46.64
42.7
34.48
23.58
12.45
4.59
3.21
8.86
16.82
21.77
19.02
6.41
-15.7
-43.8
-70.84
-88.05
-88.5
-71.34
-37.36
10.6
68.33
129.72
181.4
208.45
205.4
191.45
172.88
149.47
114.59
67.94
13.54
-41.03
-86.04
-113.46
-120.98
-115.05
-103.54
-93.02
-86.29
-83.43
-82.59
-80.73
-75.37
-66.29
-57.18
-50.62
-47.46
-46.5
-46.26
-45.51
-43.1
-38.36
-31.5
-24.64
-18.87
-14.28
-10.13
-6.03
-2.04
1.66
4.9
7.42
8.47
7.94
6.34
4.53
3.18
2.65
3.17
4.8
7.39
10.38
13.16
15.23
16.17
15.74
13.94
11.1
7.76
4.41
1.39
-1.38
-4.13
-7.09
-10.21
-12.96
-14.56
-14.3
-11.99
-7.99
-3.18
1.55
5.63
8.97
11.73
14.12
16.11
17.45
17.84
17.11
15.37
12.92
10.15
7.39
4.95
3.01
1.71
1.1
1.03
1.28
1.61
1.85
1.95
1.95
1.84
1.46
0.5
-1.3
-3.99
-7.19
-10.23
-12.27
-12.67
-11.18
-8.08
-3.99
0.39
4.48
7.99
10.82
13
14.54
15.4
15.53
14.99
13.95
12.72
11.53
10.54
9.69
8.82
7.76
6.42
4.89
3.36
2.02
0.95
0.15
-0.5
-1.14
-1.85
-2.7
-3.73
-4.97
-6.41
-7.88
-9.04
-9.47
-8.75
-6.71
-3.46
0.54
4.65
8.14
10.42
11.19
10.42
8.38
5.64
2.9
0.89
0.15
0.89
2.92
5.71
8.58
10.9
12.27
12.55
11.87
10.59
9.19
8.08
7.52
7.46
7.46
6.88
5.2
2.29
-1.37
-4.75
-6.67
-6.31
-3.56
0.91
5.88
10.09
12.73
13.57
13
11.58
9.85
8.06
6.28
4.47
2.68
1.14
0.02
-0.6
-0.87
-1.09
-1.45
-1.98
-2.44
-2.52
-2.02
-0.97
0.25
1.06
0.93
-0.33
-2.57
-5.16
-7.29
-8.26
-7.69
-5.65
-2.62
0.79
4.05
6.85
9.06
10.68
11.59
11.67
10.85
9.26
7.22
5.27
3.88
3.31
3.5
4.06
4.55
4.6
4.06
3.01
1.72
0.43
-0.7
-1.67
-2.7
-4.01
-5.78
-7.89
-9.91
-11.17
-11.08
-9.4
-6.32
-2.49
1.3
4.37
6.29
6.97
6.59
5.43
3.83
2.13
0.6
-0.56
-1.27
-1.55
-1.51
-1.28
-0.99
-0.73
-0.61
-0.78
-1.32
-2.19
-3.32
-4.58
-5.89
-7.29
-8.88
-10.63
-12.34
-13.55
-13.76
-12.62
-10.12
-6.59
-2.57
1.34
4.69
7.19
8.72
9.28
8.96
7.92
6.43
4.82
3.34
2.15
1.28
0.67
0.22
-0.06
-0.23
-0.3
-0.43
-0.79
-1.61
-3.07
-5.24
-8.06
-11.23
-14.3
-16.62
-17.58
-16.82
-14.36
-10.71
-6.63
-2.94
-0.1
1.78
2.9
3.57
4.02
4.37
4.68
4.96
5.26
5.58
5.89
6.02
5.86
5.32
4.45
3.35
2.17
1
-0.18
-1.42
-2.76
-4.11
-5.29
-6.03
-6.12
-5.51
-4.28
-2.65
-0.83
1
2.71
4.14
5.02
5.14
4.41
3.01
1.27
-0.55
-2.49
-4.81
-7.87
-11.78
-16.25
-20.61
-24.1
-26.16
-26.54
-25.34
-22.78
-19.05
-14.31
-8.75
-2.73
3.21
8.44
12.38
14.7
15.36
14.65
13.02
11
8.88
6.69
4.21
1.06
-3.01
-8.02
-13.72
-19.75
-25.8
-31.71
-37.38
-42.67
-47.24
-50.64
-52.35
-51.96
-49.31
-44.4
-37.3
-28.11
-17.05
-4.62
8.27
20.4
30.51
37.69
41.63
42.64
41.4
38.65
34.97
30.76
26.31
21.91
17.93
14.62
12.06
10.01
8.11
6.04
3.7
1.34
-0.65
-1.96
-2.65
-3.21
-4.51
-7.37
-12.14
-18.42
-25.06
-30.48
-33.12
-32.08
-27.24
-19.38
-9.87
-0.18
8.38
14.94
19.17
21.14
21.22
19.88
17.56
14.63
11.4
8.16
5.31
3.18
1.97
1.61
1.69
1.59
0.75
-1.1
-3.83
-6.87
-9.46
-10.83
-10.43
-8.1
-4.09
0.96
6.24
10.88
14.25
16.1
16.55
16.04
15.08
14.08
13.24
12.59
11.95
11.19
10.22
9.12
8.01
6.96
5.91
4.62
2.78
0.17
-3.14
-6.73
-9.96
-12.19
-13.04
-12.4
-10.43
-7.38
-3.49
1.02
5.86
10.64
14.82
17.84
19.33
19.29
18.03
16.17
14.33
13
12.4
12.56
13.31
14.38
15.45
16.2
16.32
15.59
13.86
11.19
7.72
3.79
-0.12
-3.48
-5.71
-6.43
-5.57
-3.46
-0.68
2.14
4.7
7.04
9.49
12.25
15.17
17.64
18.89
18.46
16.46
13.66
10.97
9.08
8.01
7.3
6.3
4.65
2.54
0.5
-0.92
-1.62
-2.02
-2.93
-4.98
-8.2
-11.87
-14.76
-15.67
-14
-10
-4.59
1.05
5.98
9.8
12.55
14.49
15.84
16.72
17.32
17.94
18.96
20.51
22.31
23.62
23.57
21.56
17.71
12.76
7.78
3.63
0.68
-1.25
-2.66
-3.92
-5.16
-6.12
-6.41
-5.7
-4.03
-1.68
0.94
3.48
5.91
8.47
11.45
14.95
18.54
21.38
22.52
21.45
18.35
14.16
10.21
7.66
7.17
8.62
11.4
14.52
16.95
17.69
16.02
11.6
4.76
-3.37
-11.08
-16.56
-18.68
-17.51
-14.36
-11.12
-9.44
-9.82
-11.5
-12.88
-12.52
-9.86
-5.43
-0.4
4.14
7.66
10.24
12.18
13.6
14.29
13.95
12.59
10.74
9.28
8.96
9.95
11.73
13.34
13.81
12.66
9.98
6.37
2.66
-0.36
-2.19
-2.63
-1.9
-0.52
0.79
1.37
0.81
-0.87
-3.24
-5.68
-7.58
-8.63
-8.79
-8.2
-7.03
-5.39
-3.29
-0.7
2.35
5.76
9.22
12.29
14.5
15.44
14.98
13.38
11.21
9.13
7.66
6.91
6.64
6.44
5.93
5.05
3.95
2.85
1.77
0.57
-0.95
-2.83
-4.8
-6.47
-7.52
-7.96
-8.15
-8.55
-9.37
-10.47
-11.32
-11.37
-10.34
-8.34
-5.85
-3.48
-1.64
-0.47
0.11
0.35
0.41
0.35
0.16
-0.17
-0.63
-1.11
-1.55
-1.96
-2.44
-3.08
-3.89
-4.67
-5.12
-4.98
-4.28
-3.55
-3.59
-5.24
-8.88
-14.14
-19.87
-24.64
-27.33
-27.87
-27.43
-28.12
-32.07
-40.29
-52
-64.65
-74.77
-79.41
-77.7
-71.45
-64.77
-62.53
-67.94
-80.61
-95.79
-105.56
-101.84
-79.81
-40.39
9.68
60
99.97
121.93
122.95
105.28
75.65
44.07
21.98
19.29
40.84
83.63
136.73
184.82
214.43
219.64
204.46
180.26
159.69
150.61
153.31
161.81
168.31
167.49
158.31
143.03
124.56
104.18
81.07
53.78
22.25
-11.13
-42.07
-66.38
-82.04
-90.3
-94.95
-100.13
-108.09
-117.87
-125.69
-126.53
-116.3
-93.55
-60.2
-21.5
15.24
42.64
55.48
52.52
37.04
15.54
-4.98
-19.74
-27.71
-31.14
-33.45
-37.02
-41.98
-46.62
-48.9
-47.98
-44.7
-40.91
-38.43
-37.95
-38.78
-39.43
-38.39
-35.08
-30.11
-24.93
-21.17
-19.78
-20.63
-22.7
-24.51
-24.99
-23.87
-21.79
-19.79
-18.81
-19.1
-20.2
-21.22
-21.37
-20.3
-18.22
-15.77
-13.63
-12.22
-11.7
-11.9
-12.57
-13.45
-14.29
-14.84
-14.91
-14.4
-13.37
-12.08
-10.88
-10.02
-9.59
-9.48
-9.46
-9.41
-9.39
-9.67
-10.57
-12.23
-14.43
-16.63
-18.22
-18.77
-18.23
-16.89
-15.23
-13.66
-12.34
-11.27
-10.4
-9.72
-9.12
-8.23
-6.44
-3.16
1.72
7.58
13.13
16.88
17.8
15.84
11.85
7.23
3.24
0.63
-0.43
-0.21
0.84
2.28
3.75
4.94
5.57
5.54
4.89
3.88
2.83
2.03
1.68
1.84
2.37
3.03
3.54
3.68
3.36
2.64
1.66
0.63
-0.24
-0.83
-1.07
-1.01
-0.8
-0.63
-0.76
-1.32
-2.3
-3.54
-4.68
-5.35
-5.2
-4.11
-2.11
0.58
3.76
7.26
10.91
14.53
17.89
20.65
22.5
23.34
23.42
23.36
23.88
25.48
28
30.71
32.62
32.97
31.75
29.72
28.1
27.81
28.92
30.39
30.33
26.62
17.61
2.76
-17.16
-40.37
-64.54
-87.55
-108.06
-125.82
-141.68
-156.97
-172.66
-188.41
-202.05
-209.81
-207.26
-190.76
-158.67
-112.08
-54.81
7.41
68.2
122.08
165.85
199.12
223.83
242.83
257.94
268.68
272.48
266.14
248.09
220.07
186.97
154.94
128.87
110.48
98.14
88.3
77.49
64.08
48.77
33.72
21.04
11.39
3.31
-6.19
-20.03
-39.31
-62.16
-84.12
-99.99
-105.94
-101
-87.25
-68.53
-48.75
-30.77
-16
-4.96
1.86
3.89
0.61
-7.98
-20.9
-36.1
-50.87
-62.5
-69.06
-70.07
-66.69
-61.44
-57.2
-55.97
-58
-61.71
-64.52
-64.24
-59.97
-52.51
-43.79
-35.93
-30.31
-27.31
-26.52
-27.2
-28.75
-30.76
-33.01
-35.33
-37.58
-39.61
-41.4
-43.01
-44.48
-45.81
-46.91
-47.76
-48.38
-48.86
-49.17
-49.2
-48.77
-47.75
-46.19
-44.24
-42.09
-39.71
-36.87
-33.17
-28.41
-22.69
-16.5
-10.56
-5.52
-1.81
0.46
1.44
1.43
0.8
-0.1
-0.96
-1.65
-2.1
-2.47
-2.91
-3.6
-4.64
-6.02
-7.58
-9.12
-10.44
-11.53
-12.55
-13.85
-15.71
-18.1
-20.57
-22.21
-22.04
-19.39
-14.26
-7.45
-0.21
6.14
10.73
13.28
14.1
13.85
13.15
12.39
11.67
10.88
9.91
8.81
7.75
6.98
6.63
6.56
6.38
5.63
4.06
1.76
-0.91
-3.51
-5.73
-7.57
-9.21
-10.68
-11.86
-12.34
-11.77
-10.06
-7.45
-4.37
-1.26
1.62
4.22
6.49
8.34
9.55
9.91
9.38
8.14
6.5
4.78
3.21
1.85
0.68
-0.32
-1.21
-2.01
-2.82
-3.74
-4.91
-6.42
-8.25
-10.21
-11.98
-13.16
-13.33
-12.34
-10.22
-7.25
-3.81
-0.27
3.1
6.14
8.75
10.87
12.35
13.1
13.14
12.6
11.68
10.6
9.51
8.45
7.4
6.27
4.92
3.15
0.71
-2.61
-6.88
-11.97
-17.55
-23.32
-29.09
-34.83
-40.54
-45.92
-50.25
-52.56
-51.97
-48.15
-41.56
-33.3
-24.65
-16.51
-9.26
-2.67
3.68
10.09
16.52
22.74
28.41
33.42
37.87
41.95
45.77
49.03
50.95
50.41
46.34
38.29
26.75
13.2
-0.37
-12.06
-20.6
-25.55
-27.2
-26.2
-23.26
-18.99
-13.86
-8.23
-2.34
3.75
10.07
16.72
23.63
30.5
36.88
42.25
46.2
48.49
49.06
47.88
45.09
40.88
35.54
29.46
23
16.34
9.47
2.19
-5.66
-14.01
-22.36
-29.76
-34.95
-36.79
-34.66
-28.73
-19.94
-9.75
0.39
9.35
16.57
21.93
25.5
27.35
27.48
25.95
23
19.11
14.9
10.95
7.69
5.3
3.79
3.05
2.89
3.08
3.4
3.57
3.35
2.55
1.19
-0.48
-1.93
-2.47
-1.47
1.47
6.25
12.29
18.66
24.41
28.91
31.97
33.8
34.86
35.52
35.95
36.01
35.46
34.13
32.12
29.77
27.49
25.51
23.7
21.55
18.39
13.74
7.59
0.47
-6.76
-13.22
-18.32
-21.8
-23.68
-24.03
-22.91
-20.43
-16.92
-12.99
-9.38
-6.81
-5.75
-6.3
-8.29
-11.5
-15.9
-21.68
-29.06
-37.99
-48
-58.11
-66.94
-73
-75.04
-72.46
-65.41
-54.74
-41.69
-27.57
-13.42
0.12
12.68
24.1
34.31
43.41
51.64
59.32
66.7
73.79
80.33
85.81
89.92
92.73
94.6
95.92
96.71
96.56
94.86
91.08
85.03
76.94
67.39
57.01
46.4
36.14
26.84
19.04
13
8.49
4.75
0.81
-4.27
-10.88
-18.79
-27.14
-34.77
-40.55
-43.65
-43.81
-41.29
-36.86
-31.52
-26.23
-21.7
-18.28
-15.97
-14.57
-13.76
-13.25
-12.75
-12
-10.82
-9.17
-7.17
-5.12
-3.4
-2.31
-1.96
-2.25
-2.96
-3.84
-4.82
-5.89
-7.07
-8.26
-9.28
-9.89
-9.95
-9.55
-8.81
-7.93
-6.95
-5.87
-4.73
-3.76
-3.22
-3.35
-4.12
-5.27
-6.43
-7.35
-7.99
-8.52
-9.16
-10.02
-10.99
-11.88
-12.48
-12.72
-12.65
-12.44
-12.33
-12.5
-12.95
-13.44
-13.44
-12.38
-9.78
-5.52
0.21
6.97
14.32
21.92
29.51
36.77
43.3
48.57
52.1
53.74
53.64
52.19
49.82
46.81
43.17
38.84
33.78
28.08
21.95
15.64
9.31
3.1
-2.81
-8.13
-12.47
-15.46
-16.89
-16.87
-15.71
-13.94
-12.06
-10.48
-9.44
-8.99
-9.08
-9.58
-10.37
-11.38
-12.65
-14.2
-16.02
-18
-19.93
-21.61
-22.89
-23.76
-24.22
-24.38
-24.26
-23.89
-23.3
-22.6
-21.87
-21.16
-20.41
-19.44
-18.04
-16.11
-13.67
-10.85
-7.84
-4.79
-1.89
0.63
2.5
3.45
3.36
2.33
0.75
-0.81
-1.92
-2.37
-2.28
-1.98
-1.84
-2.1
-2.81
-3.88
-5.15
-6.45
-7.65
-8.57
-9.1
-9.24
-9.12
-9.05
-9.34
-10.14
-11.29
-12.47
-13.27
-13.49
-13.27
-13.12
-13.59
-15.11
-17.74
-21.32
-25.61
-30.41
-35.58
-40.89
-45.87
-49.77
-51.79
-51.39
-48.5
-43.54
-37.21
-30.2
-22.97
-15.57
-7.67
1.24
11.63
23.64
36.85
50.39
63.13
74.13
82.94
89.58
94.29
97.23
98.38
97.58
94.89
90.69
85.7
80.55
75.47
70.23
64.34
57.5
49.63
41.01
31.97
22.78
13.56
4.42
-4.51
-12.95
-20.53
-26.97
-32.06
-35.78
-38.19
-39.48
-39.89
-39.68
-39.17
-38.55
-37.9
-37.13
-36.04
-34.49
-32.53
-30.38
-28.38
-26.87
-25.98
-25.63
-25.49
-25.24
-24.64
-23.65
-22.42
-21.12
-19.88
-18.8
-17.98
-17.45
-17.23
-17.18
-16.94
-16.08
-14.14
-11.01
-6.86
-2.31
1.95
5.32
7.58
8.78
9.17
8.95
8.24
7.09
5.57
3.85
2.21
0.93
0.19
0.02
0.31
0.87
1.5
1.97
2.09
1.67
0.59
-1.13
-3.34
-5.8
-8.18
-10.12
-11.25
-11.29
-10.09
-7.76
-4.6
-1.1
2.23
5
6.98
8.13
8.5
8.23
7.54
6.68
5.98
5.64
5.72
6.04
6.37
6.4
5.98
5.09
3.89
2.58
1.37
0.4
-0.37
-1.03
-1.64
-2.19
-2.5
-2.3
-1.29
0.66
3.37
6.4
9.21
11.34
12.55
12.83
12.28
11.03
9.2
6.91
4.34
1.76
-0.51
-2.21
-3.2
-3.58
-3.57
-3.44
-3.38
-3.4
-3.37
-3.09
-2.47
-1.61
-0.85
-0.59
-1.12
-2.4
-4.15
-5.9
-7.23
-7.89
-7.84
-7.29
-6.57
-6.06
-6.06
-6.77
-8.2
-10.19
-12.44
-14.54
-16.1
-16.84
-16.7
-15.82
-14.54
-13.17
-11.96
-10.94
-9.95
-8.85
-7.6
-6.43
-5.73
-5.86
-6.94
-8.71
-10.67
-12.19
-12.8
-12.3
-10.85
-9.04
-7.57
-7.06
-7.77
-9.44
-11.41
-13.06
-14.14
-15.05
-16.69
-19.96
-25.24
-32.15
-39.61
-46.39
-51.69
-55.31
-57.58
-59
-59.84
-60.11
-59.72
-58.73
-57.3
-55.45
-52.49
-46.86
-36.81
-21.27
-0.72
22.89
47.1
70.18
91.94
113.37
135.29
157.07
176.41
190.32
196.56
194.79
186.26
172.77
155.56
134.77
109.93
80.88
48.26
13.72
-20.2
-50.37
-73.38
-86.31
-87.74
-78.57
-62.01
-42.5
-24.07
-8.74
3.63
14.35
24.5
34.22
43.11
51.13
58.93
67.36
76.3
83.98
87.32
83.24
70.12
48.53
20.79
-10.06
-41.3
-70.96
-97.94
-121.63
-141.52
-156.7
-165.48
-165.5
-154.36
-131.08
-97.46
-58.52
-21.51
6.59
21.52
22.92
13.84
-1.24
-18.45
-35.44
-51.1
-64.74
-75.34
-81.75
-83.46
-81.02
-75.93
-69.75
-63.33
-56.41
-48.11
-37.77
-25.53
-12.38
0.41
11.89
21.67
29.64
35.63
39.28
40.31
38.93
36.01
32.86
30.67
29.94
30.38
31.22
31.65
31.33
30.47
29.59
29.15
29.25
29.57
29.54
28.66
26.74
23.96
20.83
18.05
16.2
15.61
16.19
17.64
19.53
21.57
23.65
25.82
28.14
30.57
32.93
34.92
36.42
37.5
38.54
40.07
42.53
46.05
50.28
54.44
57.54
58.75
57.66
54.45
49.78
44.63
39.9
36.19
33.78
32.48
31.7
30.55
27.98
23.16
15.83
6.56
-3.3
-12.11
-18.75
-23.05
-26
-29.07
-33.38
-38.96
-44.86
-49.81
-53.13
-55.29
-57.53
-61.04
-66.1
-71.79
-76.55
-79.1
-79.05
-76.82
-73.22
-68.8
-63.76
-58.23
-52.52
-47.27
-43.08
-39.96
-37.1
-33.08
-26.48
-16.5
-3.22
12.39
28.76
44.1
56.92
66.28
72.14
75.46
77.83
80.89
85.45
91
95.98
98.33
96.37
89.16
76.61
58.97
36.74
10.73
-17.45
-44.97
-68.03
-82.68
-86.32
-78.84
-62.99
-43.48
-25.24
-11.74
-4.07
-1.52
-2.35
-5.08
-9.02
-14.34
-21.32
-29.71
-38.7
-47.12
-54.21
-59.53
-62.83
-63.87
-62.18
-57.1
-47.8
-33.89
-15.83
4.43
24.34
41.14
52.29
56.04
51.83
40.59
24.1
4.23
-18.23
-42.48
-67.42
-91.39
-112.14
-126.97
-133.3
-130.12
-119.02
-104.41
-90.24
-77.86
-65.56
-49.78
-27.37
2.45
36.93
74.48
107.62
128.4
134.18
128.67
118.31
106.47
93.65
79.17
62.49
44.28
26.36
10.83
-1.16
-9.79
-16.13
-21.17
-25.52
-29.32
-32.67
-34.73
-34.2
-30.3
-23.4
-14.97
-6.69
0.24
5.41
8.94
11.7
14.5
17.74
21.23
24.42
26.89
28.43
29.18
29.42
29.89
31
32.84
35.12
37.29
38.69
38.75
37.13
33.81
29.32
23.88
17.73
10.98
3.77
-3.94
-12.49
-22.45
-34.42
-44.7
-49.78
-47.29
-36.79
-18.81
5.92
35.95
68.59
100.2
127.48
148.29
163.31
174.83
185.12
195.22
204.33
210.33
211.12
205.84
194.74
179.15
160.44
140.37
120.88
103.22
87.91
75.01
64.47
55.82
48.46
41.64
34.59
26.62
17.13
5.94
-6.5
-19.13
-30.8
-40.44
-47.42
-51.64
-53.71
-55.03
-57.3
-61.76
-68.59
-76.62
-83.49
-86.4
-82.81
-71.18
-51.48
-25.18
4.89
34.83
60.2
76.56
80.48
70.29
46.64
12.41
-27.67
-67.99
-103.17
-129.18
-144.23
-149.12
-146.85
-141.47
-136.79
-135.19
-137.3
-142.33
-148.72
-154.73
-158.82
-159.67
-156.39
-148.81
-137.79
-125.26
-113.76
-105.52
-101.54
-101.18
-102.4
-102.5
-99
-90.4
-76.6
-58.72
-38.56
-17.71
3.12
24.43
47.5
73.25
100.92
127.57
148.73
159.95
158.78
145.9
124.87
100.42
76.4
54.54
34.85
17.1
2.29
-7.09
-8.41
-0.94
12.5
25.61
30.7
21.72
-3.01
-39.98
-81.9
-120.61
-149.94
-167.27
-173.35
-170.84
-162.85
-152.13
-140.99
-131.31
-124.73
-122.18
-123.43
-127.13
-131.31
-134.32
-135.57
-135.6
-135.75
-137.55
-142.19
-149.97
-159.89
-169.29
-174.31
-170.87
-156.2
-129.99
-94.71
-54.78
-15.31
19.21
45.4
60.98
64.88
57.61
41.66
21.64
3.54
-7.12
-7.3
2.18
16.57
28.91
32.41
22.94
0.71
-29.75
-61.27
-86.47
-100.31
-101.11
-90.04
-69.53
-41.96
-8.95
27.89
65.94
101.1
128.56
144.43
147.58
140.24
127.04
113.11
101.92
94.41
89.72
86.47
83.68
81.07
78.64
75.92
72.1
66.4
58.81
50.39
42.6
36.34
31.33
26.39
20.5
13.88
8.07
5.08
6.05
10.22
15.13
17.68
15.56
8.29
-2.6
-14.08
-22.62
-25.31
-21.12
-11.54
-0.72
5.29
0.03
-21.3
-59.96
-112.49
-170.82
-224.09
-261.38
-274.67
-260.86
-222.04
-164.08
-94.95
-23.17
42.98
95.98
129.89
141.47
131.21
103.66
66.46
28.1
-4.49
-27.31
-39.5
-42.55
-39.47
-34.13
-30.61
-32.27
-40.6
-54.23
-68.9
-78.94
-79.54
-68.72
-47.94
-21.02
7.66
34.76
58.62
78.82
95.12
107.06
114.19
116.83
116.59
115.99
117.55
122.45
129.87
137.14
141.13
140.01
134.31
126.95
122.03
122.81
130.19
142.3
155.44
165.7
170.46
168.97
162.13
152.27
142.97
139.2
146.7
170.11
210.38
263.09
319.25
368.85
405.57
429.67
447.17
465.51
488.35
512.75
530.52
532.91
515.55
480.63
435.39
388.14
344.44
305.51
269.55
234.18
198.62
164.07
132.72
106.03
83.65
63.42
42.31
17.87
-10.78
-42.73
-75.85
-107.88
-137.51
-164.85
-191.03
-217.23
-243.56
-268.45
-289.03
-302.11
-305.7
-299.95
-287.25
-271.2
-255.23
-241.36
-230
-220.56
-212.73
-207.21
-205.63
-209.31
-218.18
-230.26
-242.43
-252.03
-258.25
-262.42
-266.9
-273.25
-280.79
-286.6
-286.77
-278.36
-260.74
-235.73
-206.37
-175.57
-145.24
-116.3
-89.42
-65.72
-46.77
-34.33
-29.5
-32.22
-41.09
-53.72
-67.43
-80.04
-90.34
-98.17
-103.99
-108.38
-111.65
-113.84
-115.17
-116.5
-119.33
-125
-133.18
-141.41
-145.68
-142.53
-130.89
-112.77
-91.83
-71.19
-51.54
-30.79
-5.73
25.63
61.8
97.75
126.28
140.35
135.09
109
64.33
6.76
-55.21
-112.03
-155.4
-180.81
-188.79
-184.15
-173.35
-161.19
-148.89
-134.48
-114.99
-89.15
-58.63
-27.31
1.09
24.9
44.96
63.37
81.76
100.19
117.32
131.41
141.59
148.55
153.95
159.6
166.35
173.89
181.13
187.52
194.09
203.54
218.81
240.92
267.05
290.7
304.01
301.27
281.24
247.39
205.98
163.44
124.73
93.18
71.22
60.73
62.37
74.47
92.24
108.57
116.21
110.43
90.64
60.61
26.89
-3.59
-25.81
-38.13
-42.53
-43.78
-47.69
-59.43
-82.06
-115.95
-159.25
-208.5
-259.26
-306.3
-344.01
-367.03
-371.58
-356.74
-325.11
-282.26
-235.31
-191.24
-155.36
-130.5
-116.76
-111.52
-109.93
-105.98
-94.1
-70.79
-36.01
6.61
50.78
89.54
117.23
130.88
130.48
118.34
98.08
73.56
48.27
25.05
6.13
-6.77
-12.57
-11.06
-3.32
8.42
21.32
32.86
41.6
47.48
51.31
54.07
56.29
57.99
58.83
58.55
57.01
54.22
50.12
44.68
37.98
30.3
22.18
14.1
6.28
-1.43
-9.25
-17.02
-23.76
-27.77
-27.21
-20.95
-9.09
7.13
26
46.01
65.68
83
94.93
97.7
88.13
65.04
30.1
-12.76
-59.02
-104.94
-147.99
-186.18
-217.34
-239.24
-250.75
-252.7
-247.76
-239
-228.18
-214.87
-197.29
-174.08
-145.68
-114.45
-83.2
-53.64
-25.76
1.4
28.38
54.3
77.18
95.34
108.79
119.57
131.12
146.91
169.07
197.27
228.49
257.63
278.91
287.86
282.74
265
238.56
208.5
179.57
155.5
138.73
130.57
131.01
138.12
147.81
154.59
153.3
140.91
117.44
85.61
49.33
12.11
-23.68
-56.54
-85.1
-107.9
-124.1
-134.35
-140.85
-146.37
-152.56
-158.89
-162.54
-159.67
-146.82
-122.85
-89.41
-50.16
-9.27
29.97
65.59
96.99
124.37
148.98
171.3
190.42
204.5
211.96
212.24
205.57
192.6
173.8
151.58
127.8
103.22
78.02
52.92
29.6
9.24
-7.82
-22.74
-33.83
-39.97
-41.06
-37.16
-27.01
-7.84
22.07
62.03
107.64
156.74
205.75
249.41
282.37
301.33
306.13
297.9
278.63
224.24
129.21
11.12
-100.26
-184.44
-238.3
-265.62
-275.62
-271.42
-252.96
-215.66
-158.16
-86.89
-13.59
43.24
69.26
61.88
31.54
-6.93
-39.88
-63.05
-81.05
-101.53
-127.64
-158.58
-188.63
-211.49
-224.79
-228.5
-225.93
-222.08
-221.25
-221.97
-221.27
-215.33
-202.14
-183.01
-160.57
-137.88
-117.35
-100.19
-86.47
-75.47
-65.72
-56.03
-45.79
-34.1
-20.07
-3.46
14.88
33.21
49.6
63.42
75.37
86.83
98.92
111.51
122.93
130.66
132.58
127.92
117.88
104.78
90.81
77.39
64.82
52.76
40.93
29.65
19.54
11.42
5.72
2.33
0.66
-0.43
-2.15
-5.32
-9.89
-15.02
-19.43
-21.96
-21.89
-18.54
-12.06
-3.31
6.41
16.12
25.46
34.67
44.25
54.62
66.54
79.59
92.01
101.31
105.76
105.35
101.53
96.4
91.67
89.16
88.94
89.54
88.3
82.83
71.65
53.87
29.11
-8.66
-57.97
-109.24
-149.48
-171.5
-176.65
-171.34
-162.21
-152.64
-141.71
-124.78
-96.92
-56.73
-8.36
40.35
80.86
106.76
115.83
110.59
97.97
80.08
61.19
44.04
29.87
19.1
11.9
8.41
8.53
12.08
17.93
24.69
30.31
33.48
34.15
33.15
31.32
28.85
25.18
18.97
9.36
-3.97
-19.86
-35.61
-47.89
-54.15
-53.73
-47.87
-39.16
-29.8
-20.99
-12.4
-2.86
8.54
21.21
32.61
38.98
36.32
21.81
-5.74
-45.43
-93.88
-145.03
-190.45
-220.91
-228.82
-211.01
-170.14
-114.02
-52.91
3.96
50.76
85.42
108.28
120.44
122.94
117.15
105.67
92.3
81.03
74.49
72.77
73.81
74.86
74.06
71.29
67.99
66.05
66.86
70.71
76.99
84.55
92.26
99.35
105.66
111.68
118.29
126.53
137.06
149.72
163.37
176.05
185.47
189.68
187.67
179.36
165.47
146.98
124.77
99.43
71.44
41.36
10.17
-20.77
-49.98
-76.06
-98.02
-115.37
-128.16
-136.72
-141.37
-142.28
-139.51
-133.58
-125.87
-118.95
-116.13
-120.29
-132.5
-151.05
-171.97
-190.36
-202.29
-205.66
-200.04
-185.72
-162.91
-132.02
-94.68
-54.63
-17.38
11.62
29.42
36.97
38.63
39.98
45.08
54.97
68.05
82.05
95.77
109.64
124.68
140.85
156.04
166.54
168.58
160.25
142.36
117.95
90.6
62.92
35.69
8.44
-19.45
-47.64
-74.45
-97.36
-114.03
-123.21
-125.24
-121.93
-115.95
-110.15
-106.82
-107.24
-111.62
-119.14
-128.25
-137.22
-144.58
-149.71
-152.94
-155.63
-159.7
-167.02
-178.56
-193.31
-208.2
-218.68
-220.21
-210.02
-188.29
-158.4
-126.01
-97.34
-77.4
-68.84
-71.43
-82.41
-96.95
-109.09
-112.98
-104.61
-83.17
-51.6
-15.69
17.83
43.06
57.06
60.41
56.53
49.92
44.51
42.49
44.05
47.49
48.99
44.87
33.43
15.97
-4.04
-22.64
-37.19
-47.31
-55.4
-66.75
-85.76
-113.1
-144.64
-173.25
-191.69
-194.76
-180.05
-148.78
-106.73
-61.11
-18.77
15.04
36.35
42.35
32.11
7.97
-11.94
-12.03
13.54
56.7
103.71
144.88
177.17
199.19
216.77
233.4
248.46
260.57
269.7
278.29
288.62
301.4
315.56
329.42
340.59
345.78
342.82
331.47
313.7
292.76
271.99
253.75
238.94
225.42
207.79
179.9
137.55
80.98
14.87
-53.37
-116.37
-169.04
-210.06
-241.16
-264.98
-283.52
-297.69
-307.93
-314.69
-318.43
-318.9
-315.24
-306.48
-292.32
-273.66
-252.38
-230.48
-208.91
-187.3
-163.98
-137.17
-105.66
-69.42
-29.76
10.64
48.04
78.4
98.04
104.84
98.39
80.2
53.02
20.69
-11.59
-37.03
-48.59
-41.67
-16.38
21.19
61.65
96.07
119.79
134.27
145.75
161.29
182.5
204.83
218.92
217.91
202.05
177.56
151.95
129.71
110.71
90.94
65.97
33.3
-4.94
-43.4
-75.77
-97.47
-107.23
-107.13
-101.47
-90.3
-77.48
-65.72
-55.49
-45.56
-34.35
-21.31
-7.59
4.17
11.39
12.3
8.28
2.98
0.46
3.35
11.65
22.85
33.26
40
41.28
37.21
29.63
20.86
13.72
11.33
16.37
29.87
50.33
72.09
86.67
85.6
64.42
25.06
-24.62
-74.19
-114.95
-141.57
-154.2
-156.62
-153.28
-146.37
-135.71
-120.8
-103
-86.23
-73.45
-67.09
-67.56
-74.55
-85.38
-95.45
-100.04
-95.67
-80.55
-51.34
-6.15
53.62
123.22
196.74
268.65
334.29
390.03
415.1
397.68
342.5
267.59
190.83
122.2
64.66
17.74
-20.09
-50.4
-71.38
-81.67
-82.74
-78.73
-74.33
-72.75
-75.63
-83.56
-96.24
-109.82
-119.78
-122.93
-118.46
-107.15
-90.72
-71.32
-50.86
-31.63
-13.62
3.96
21.08
36.18
47.11
52.1
50.42
42.33
28.87
12.37
-4.98
-21.65
-36.68
-48.69
-56.04
-57.59
-53.78
-46.52
-37.9
-29.58
-22.32
-15.87
-8.45
2.06
16.69
34.3
51.93
66.23
74.73
76.57
72.32
64.34
55.65
49.21
47.24
51.3
62.63
81.58
106.7
128.56
136.21
122.99
92.29
55.31
23.55
3.13
-6.58
-10.91
-16.06
-24.8
-35.71
-44.72
-48.58
-47.07
-42.83
-39.64
-40.36
-45.33
-51.81
-55.88
-54.81
-48.88
-40.93
-34.82
-33.62
-38.66
-49.2
-62.41
-73.95
-78.86
-73.15
-55.39
-27.67
4.61
34.41
55.87
66.66
68.55
65.99
63.26
62.38
62.68
62.17
58.68
53.07
48.38
48.26
55.23
69.44
88.53
108.29
123.56
129.14
120.82
96.27
56.3
5.72
-46.87
-90.95
-116.9
-119
-97.47
-58.29
-11.26
33.18
66.96
86.05
90.29
82.16
65.04
42.02
15.58
-12.3
-39.56
-64.03
-83.58
-96.67
-102.71
-102.32
-97.04
-88.71
-78.91
-68.49
-57.69
-46.58
-35.6
-25.94
-19.25
-17.12
-20.25
-27.98
-38.48
-49.33
-58.38
-64.46
-67.64
-68.99
-69.94
-71.65
-74.51
-78.14
-81.66
-84.24
-85.51
-85.71
-85.55
-85.78
-86.9
-88.77
-90.68
-91.62
-90.59
-87.02
-80.82
-72.55
-63.08
-53.25
-43.53
-33.66
-22.61
-8.68
9.85
34.02
63.25
94.9
124.36
146.05
154.87
147.74
124.74
89.43
47.94
7.24
-26.8
-50.85
-64.62
-70.22
-71.19
-71.08
-72.39
-76.44
-83.16
-91.32
-98.6
-101.77
-97.12
-81.7
-54.11
-14.95
32.97
85.67
138.53
187.12
227.69
257.66
274.94
278.18
266.88
241.51
204.92
162.66
122.52
92.9
80.66
88.13
107.83
127.65
134.5
122.33
94.1
57.27
18.48
-16.19
-48.03
-77.64
-103.49
-123.09
-134.33
-137.3
-132.14
-122.03
-110.91
-102.22
-97.24
-95.05
-93.46
-89.95
-82.95
-72.57
-60.68
-49.51
-41.16
-36.35
-34.47
-34.13
-33.63
-31.82
-28.46
-24.38
-20.5
-17.72
-16.25
-15.72
-15.57
-15.19
-14.22
-12.62
-10.62
-8.17
-5.05
-0.76
5.16
12.85
21.86
31.11
39.24
45.08
48.39
49.86
50.66
52.07
55.02
59.44
64.36
68.29
70.12
69.68
67.71
65.04
62.7
61.62
62.06
63.45
64.63
64.41
61.78
55.66
44.19
26.26
2.74
-23.48
-47.84
-65.86
-74.73
-74.55
-66.37
-55.49
-48.23
-46.54
-46.79
-43.13
-32.43
-15.75
2.94
21.45
38.28
52.91
65.38
74.33
77.4
71.69
54.35
26.61
-6.88
-40.62
-69.64
-91.26
-106.93
-115.77
-118.36
-116.32
-110.51
-99.56
-81.22
-57.07
-27.74
1.91
24.6
32.94
22.41
-7.55
-53.08
-105.49
-150.58
-174.51
-171.7
-146.96
-112.18
-79.21
-54.87
-39.65
-30.15
-19.29
-2.34
22.09
53.59
90.4
129.8
168.4
203.16
225.74
231.56
220.38
196.21
165.58
134.34
105.42
78.78
53.13
28.06
5.88
-10.64
-20.32
-24.55
-26.68
-30.18
-36.59
-44.94
-52.89
-57.86
-59.11
-57.89
-56.46
-56.67
-59.17
-63.19
-67.15
-69.67
-69.77
-67.7
-64.56
-61.54
-59.17
-57.14
-54.46
-50.09
-43.65
-35.3
-26
-16.99
-9.35
-3.68
-0.01
2.08
3.18
3.79
4.31
4.98
5.82
6.83
7.95
9.15
10.41
11.65
12.7
13.34
13.37
12.67
11.36
9.62
7.72
5.87
4.19
2.6
1.06
-0.61
-2.56
-4.89
-7.68
-10.79
-13.82
-16.07
-16.75
-15.33
-11.72
-6.43
-0.35
5.55
10.53
14.33
17.02
18.9
20.16
20.86
20.87
20.07
18.49
16.37
14.16
12.35
11.31
11.14
11.64
12.39
12.97
13.04
12.51
11.5
10.15
8.63
7
5.26
3.37
1.31
-1.01
-3.7
-6.89
-10.61
-14.61
-18.37
-21.1
-22.05
-20.71
-17.09
-11.67
-5.22
1.39
7.49
12.64
16.63
19.45
21.2
22
22.02
21.48
20.59
19.57
18.59
17.81
17.33
17.16
17.24
17.42
17.47
17.16
16.41
15.33
14.18
13.39
13.28
13.91
15.04
16.12
16.49
15.66
13.42
9.93
5.74
1.63
-1.47
-2.7
-1.55
2.08
7.77
14.67
21.82
28.37
33.78
37.96
41.18
43.8
46
47.43
47.03
43.35
35.35
23.19
8.76
-4.88
-14.88
-19.99
-21.32
-21.56
-23.4
-28
-34.63
-41.44
-46.92
-50.85
-53.93
-56.85
-59.14
-59.21
-55.55
-48.04
-38.42
-29.55
-23.64
-20.81
-19.24
-15.92
-8.37
4.19
20.95
40.21
60.21
79.34
96.13
108.07
112.81
108.71
95.94
77.03
56.19
37.96
25.42
19.77
19
20.69
22.71
24.03
24.91
26.31
29.13
33.52
39.42
44.38
46.88
45.81
41.01
33.5
25.33
19.24
17.59
22.16
30.15
37.36
37.82
25.86
-1.32
-41.79
-88.22
-135.59
-163.89
-167.34
-144.83
-101.76
-48.05
5.2
49.12
79.28
95.15
99.97
95.63
84.87
69.75
52.04
33.58
15.77
-0.62
-16.33
-31.72
-47.81
-62.81
-73.08
-74.54
-64.58
-45.07
-17.39
14.33
47.38
79.47
109.8
136.97
158.32
170.23
169.68
156.35
132.72
104.17
75.76
50.74
29.24
9.31
-10.83
-30.87
-47.99
-59.02
-62.1
-58.76
-53.14
-50.1
-52.68
-60.71
-71.24
-80.36
-85.9
-88.17
-89.55
-92.82
-99.36
-108.3
-117.02
-122.54
-122.87
-118.04
-109.76
-100.33
-91.46
-83.6
-76.25
-68.78
-61.16
-54.06
-48.47
-44.98
-43.51
-43.19
-42.87
-41.54
-38.86
-35.22
-31.39
-28.06
-25.41
-23.15
-20.68
-17.64
-14.05
-10.61
-8.41
-8.43
-10.87
-14.97
-19.17
-21.99
-22.55
-20.57
-16.8
-12.68
-9.47
-7.47
-5.77
-3.03
1.38
6.78
11.84
14.2
11.42
2.31
-12.11
-28.96
-44.58
-56.11
-61.49
-58.33
-45.91
-26.02
-2.89
18.87
36.56
50.91
64.97
83.54
112.18
152.01
197.68
238.18
262.52
264.77
246.71
213.75
165.24
108.66
56.78
19.38
-4.18
-20.25
-29.24
-24.62
-2.46
33.91
75.12
107.28
116.71
93.41
37
-42.44
-127.13
-204.77
-270.08
-322.09
-361.38
-374.41
-352.16
-298.52
-244.26
-196.28
-153.06
-106.22
-51.23
14.28
88.92
164.96
228.61
264.51
268.49
246.8
212.9
178.55
149.05
122.85
93.59
56.17
11.67
-31.46
-65.94
-88.1
-98.94
-102.08
-102.03
-103.54
-110.78
-121.83
-131.22
-135.52
-134.23
-129.44
-123.46
-118
-114.35
-113.35
-114.91
-117.76
-121.22
-124.82
-128.07
-129.31
-125.75
-114.08
-90.33
-52.46
-1.28
59
121.78
179.29
225.67
258.14
277.26
285.57
285.82
279.56
266.97
247.95
221.66
188.75
150.87
110.58
70.23
31.54
-4.36
-36.45
-62.65
-81.97
-92.54
-93.3
-83.86
-65.98
-43.62
-21.85
-4.88
6.11
10.9
12.17
12.83
16.34
24.55
37.22
52.48
61.1
69.07
74.02
75.34
72.9
69.51
69.1
75.27
89.94
113.03
142.98
175.88
208.03
224.98
216.86
183.32
133.29
77.41
26.97
-19.98
-66.33
-111.59
-153.94
-187.61
-207.83
-213.54
-207.67
-195.08
-180.46
-166.49
-153.71
-141.86
-129.22
-114.94
-99.87
-86.22
-76.18
-70.95
-69.56
-69.75
-69.16
-65.27
-56.98
-45.01
-31.55
-19
-9.26
-2.56
1.79
4.73
7.45
10.55
13.9
16.95
19.23
20.46
21.08
21.65
22.63
24.33
26.63
29.1
31.18
32.52
32.87
32.29
31.04
29.53
28.32
27.65
27.44
27.28
26.47
24.16
19.64
12.76
4.2
-4.75
-12.91
-19.48
-24.41
-28.47
-33
-39.51
-48.89
-61.04
-72.45
-79.06
-77.82
-67.96
-50.67
-28.59
-5.37
14.72
27.81
31.88
27.54
18.27
9.14
5.17
9.09
20.61
37.43
56.48
74.79
89.73
99.53
103.76
103.61
100.83
96.96
92.64
87.27
79.49
68.21
53.69
36.89
21.82
12.89
12.61
20.16
31.37
40.72
43.89
39.59
29.8
18.33
8.25
0.55
-5.55
-11.16
-16.28
-19.63
-19.8
-16.82
-12.62
-10.29
-12.11
-18.01
-25.47
-31.22
-33.51
-33.68
-35.89
-45.08
-64.43
-93.38
-127.18
-158.39
-179.31
-184.44
-171.88
-143.31
-102.9
-55.91
-7.44
38.16
77.44
107.85
128.07
138.43
141.25
140.41
140.04
142.97
149.4
156.91
161.52
159.56
149.12
130.52
105.73
77.22
47.08
16.88
-11.99
-37.94
-59.29
-74.73
-83.94
-87.74
-87.89
-86.43
-85.11
-84.88
-85.89
-87.74
-89.72
-90.99
-90.78
-88.53
-84.05
-77.64
-70.1
-62.49
-55.85
-50.87
-47.63
-45.69
-44.27
-42.62
-40.35
-37.49
-34.4
-31.47
-28.96
-26.91
-25.26
-24.1
-23.69
-24.4
-26.54
-30.08
-34.62
-39.49
-44.06
-47.9
-50.84
-52.77
-53.52
-52.84
-50.49
-46.32
-40.29
-32.34
-22.43
-10.64
2.54
16.02
28.32
37.99
44.1
46.63
46.3
44.18
41.2
37.91
34.52
31.19
28.18
25.73
23.97
22.69
21.46
19.8
17.5
14.69
11.8
9.38
7.79
7.06
6.83
6.51
5.63
4.21
2.9
2.86
5.25
10.68
18.84
28.49
37.92
45.73
51.41
55.49
59.26
64.04
70.44
78.03
85.5
91.25
94.13
93.98
91.73
89.06
87.76
89.17
93.72
100.73
108.14
112.73
110.59
98.38
74.78
41.73
4.51
-29.6
-53.87
-64.57
-62.41
-52.03
-39.8
-31.21
-28.92
-32.28
-38.39
-43.67
-45.41
-42.38
-34.96
-24.77
-14.14
-5.65
-1.57
-3.2
-10.32
-21.11
-32.65
-42.04
-47.5
-48.97
-47.95
-46.78
-47.67
-51.97
-59.92
-70.8
-83.29
-95.75
-106.57
-114.5
-118.93
-120.01
-118.59
-115.91
-113.07
-110.52
-107.53
-102.27
-92.43
-76.38
-54.28
-28.55
-3.37
16.78
28.79
31.99
28.13
20.26
11.38
3.36
-3.2
-8.52
-12.87
-16.24
-18.5
-19.59
-19.87
-19.87
-20.19
-21.07
-22.36
-23.58
-24.15
-23.77
-22.6
-21.23
-20.43
-20.92
-22.92
-26.05
-29.35
-31.65
-31.89
-29.49
-24.48
-17.42
-9.24
-0.98
6.45
12.4
16.52
18.82
19.57
19.25
18.42
17.56
16.92
16.52
16.24
15.92
15.54
15.21
15.13
15.46
16.21
17.18
18
18.15
17.25
15.21
12.33
9.31
7.09
6.54
8.19
12.07
17.67
24.16
30.89
37.59
44.46
51.93
60.25
69.31
78.53
86.88
93.29
96.99
97.81
96.3
93.75
92.14
93.6
99.31
108.26
116.73
119.06
109.73
85.87
49
5.4
-35.48
-64.38
-75.79
-69.67
-50.86
-26.75
-4.53
10.53
16.08
12.79
3.19
-9.86
-24.16
-37.96
-49.78
-58.31
-63.22
-65.01
-64.07
-60.29
-53.11
-41.39
-23.28
3.06
38.53
80.92
121.63
149.97
160.53
155.17
138.7
114.82
85.36
51.48
15.14
-19.51
-46.26
-59.52
-57.12
-41.62
-18.94
2.96
18.56
23.43
14.93
-6.38
-36.23
-67.25
-90.6
-98.76
-88.49
-62.98
-31.5
-5.14
8.4
7.36
-4.65
-21.25
-37.31
-50.11
-59.97
-69.85
-83.61
-104.09
-131.69
-163.09
-191.19
-206.69
-201.44
-173.17
-128.4
-81.33
-48.47
-41.66
-62.71
-102.62
-145.91
-177.2
-186.94
-173.58
-142
-99.84
-54.71
-12.74
21.46
44.61
55.26
54.47
46.35
37.05
33.01
38.48
53.95
76.03
98.71
115.6
121.86
115.75
98.95
75.79
51.78
31.91
19.13
13.63
13.27
14.77
15.3
13.74
10.91
8.7
8.84
11.86
16.86
22.08
25.86
27.49
27.64
28.37
32.59
42.98
60.67
83.93
107.56
123.85
125.05
106.85
70.86
24.67
-20.86
-55.86
-74.95
-78.27
-69.85
-54.69
-36.54
-17.59
0.34
14.71
22.28
20.73
10.47
-4.88
-19.65
-28.67
-29.39
-22.67
-11.7
-0.23
9.11
15.44
19.3
21.83
23.92
25.81
27.18
27.51
26.49
24.14
20.88
17.32
14.11
11.67
10.16
9.48
9.35
9.43
9.41
9.15
8.6
7.79
6.82
5.7
4.36
2.77
1.11
-0.08
0.04
2.23
6.65
12.62
18.79
23.86
27.24
29.48
31.83
35.52
40.88
47.03
52.23
54.81
53.95
50.06
44.45
38.7
33.93
30.58
28.44
27.05
25.94
24.88
23.74
22.36
20.5
17.86
14.32
10.02
5.38
0.95
-2.73
-5.29
-6.52
-6.38
-4.97
-2.55
0.54
3.87
6.99
9.54
11.22
11.85
11.29
9.54
6.77
3.41
0.06
-2.69
-4.41
-5
-4.64
-3.77
-2.85
-2.24
-2.13
-2.53
-3.39
-4.64
-6.27
-8.31
-10.8
-13.68
-16.73
-19.5
-21.41
-21.89
-20.55
-17.4
-12.87
-7.75
-2.88
1.01
3.63
5.05
5.55
5.42
4.81
3.74
2.24
0.47
-1.31
-2.81
-3.88
-4.54
-4.87
-4.88
-4.48
-3.5
-1.96
-0.12
1.42
2.08
1.33
-0.84
-4.06
-7.62
-10.67
-12.48
-12.55
-10.76
-7.28
-2.57
2.81
8.18
12.94
16.61
18.85
19.51
18.63
16.5
13.52
10.25
7.14
4.5
2.37
0.61
-1
-2.64
-4.35
-6.07
-7.62
-8.94
-10.1
-11.43
-13.28
-15.85
-19.05
-22.4
-25.15
-26.61
-26.38
-24.51
-21.47
-17.94
-14.5
-11.56
-9.32
-7.86
-7.14
-6.72
-5.75
-2.96
2.79
11.75
22.95
34.4
44
50.84
55.94
61.65
70.22
82.08
95.11
105.43
109.4
105.55
95.27
81.66
67.38
53.22
38.3
21.6
3.74
-12.63
-24.24
-29.22
-28.56
-25.62
-24.13
-26.05
-30.7
-35.63
-38.47
-38.56
-36.9
-35.22
-34.41
-33.96
-32.58
-29.47
-24.93
-20.28
-17.08
-16.09
-16.97
-18.48
-19.42
-19.19
-18.08
-16.92
-16.43
-16.76
-17.4
-17.6
-16.82
-15.14
-13.16
-11.66
-11.07
-11.26
-11.53
-10.91
-8.68
-4.74
0.36
5.62
10.05
13.12
14.86
15.74
16.34
17.01
17.68
17.99
17.53
16.18
14.18
12.09
10.48
9.58
9.33
9.3
9.08
8.39
7.25
5.91
4.65
3.6
2.66
1.57
0.02
-2.14
-4.9
-8.02
-11.12
-13.79
-15.68
-16.56
-16.31
-14.96
-12.65
-9.66
-6.37
-3.14
-0.35
1.8
3.2
3.92
4.04
3.66
2.85
1.65
0.14
-1.53
-3.16
-4.51
-5.38
-5.71
-5.61
-5.24
-4.84
-4.56
-4.51
-4.73
-5.21
-5.96
-7.03
-8.4
-10.03
-11.79
-13.5
-14.97
-15.97
-16.21
-15.54
-13.88
-11.3
-8.05
-4.54
-1.19
1.58
3.42
4.16
3.76
2.4
0.44
-1.64
-3.38
-4.41
-4.66
-4.34
-3.81
-3.53
-3.77
-4.58
-5.77
-7.02
-8.01
-8.64
-9.1
-9.89
-11.61
-14.68
-19.03
-24.05
-28.59
-31.48
-31.94
-30.03
-26.69
-23.43
-21.63
-21.95
-23.93
-26.23
-27.25
-25.92
-22.31
-17.54
-13.56
-12.25
-14.86
-21.35
-29.96
-37.21
-38.64
-30.2
-9.9
20.77
56.74
90.67
115.51
127.02
125.08
113.51
98.38
85.91
80.5
83.45
92.71
103.68
110.87
109.69
98.16
77.37
50.97
23.57
-0.9
-20.13
-33.51
-41.4
-44.62
-44.1
-41.09
-37.31
-34.62
-34.35
-36.74
-40.86
-45.02
-47.52
-47.28
-44.22
-39.29
-34.03
-30.07
-28.43
-29.33
-32.13
-35.58
-38.3
-39.18
-37.73
-34.08
-28.85
-22.91
-17.05
-11.82
-7.41
-3.7
-0.42
2.64
5.5
7.98
9.74
10.47
10.07
8.76
7.01
5.3
4
3.17
2.6
2.03
1.26
0.29
-0.73
-1.67
-2.44
-3.04
-3.57
-4.13
-4.81
-5.69
-6.8
-8.06
-9.27
-10.15
-10.37
-9.73
-8.22
-6.03
-3.5
-0.95
1.34
3.17
4.43
5.04
4.97
4.31
3.24
1.98
0.81
-0.04
-0.41
-0.36
-0.06
0.21
0.23
-0.01
-0.33
-0.4
0.06
1.08
2.4
3.58
4.16
3.91
2.88
1.34
-0.26
-1.56
-2.22
-2.09
-1.1
0.66
2.95
5.44
7.76
9.57
10.65
10.89
10.3
8.96
7.05
4.84
2.75
1.22
0.58
0.94
2.11
3.66
5.06
5.85
5.84
5.04
3.7
2.14
0.62
-0.65
-1.64
-2.41
-3.15
-4.07
-5.3
-6.83
-8.4
-9.57
-9.81
-8.76
-6.36
-2.95
0.8
4.2
6.75
8.34
9.23
9.86
10.58
11.46
12.28
12.71
12.53
11.9
11.3
11.36
12.57
14.92
17.75
20.08
20.86
19.65
16.78
13.37
10.63
9.41
9.79
11.15
12.79
14.26
15.63
17.12
18.65
19.91
20.77
21.81
24.38
29.62
37.25
44.99
49.11
46.05
34.36
15.63
-6.2
-26.61
-42.41
-52.72
-58.35
-60.65
-60.45
-57.84
-52.79
-45.84
-38.38
-31.97
-27.96
-26.58
-27.19
-28.63
-29.85
-30.36
-30.25
-29.87
-29.47
-28.96
-27.89
-25.85
-22.6
-18.34
-13.69
-9.47
-6.43
-4.92
-4.8
-5.48
-6.32
-6.88
-7.16
-7.62
-8.8
-10.95
-13.8
-16.51
-18.08
-17.87
-15.97
-13.33
-11.59
-12.17
-15.73
-21.71
-28.46
-33.89
-36.4
-35.42
-31.63
-26.67
-22.58
-21.19
-23.58
-29.47
-36.67
-41.1
-37.47
-21.15
9.54
51.68
97.68
137.53
162.33
167.55
154.57
129.49
100.3
73.59
52.67
37.54
26.43
17.57
10.23
4.56
0.76
-1.73
-4.33
-8.66
-15.54
-24.28
-32.83
-38.65
-39.91
-36.38
-29.64
-22.24
-16.66
-14.26
-14.86
-17.11
-19.3
-20.19
-19.51
-17.86
-16.25
-15.55
-16.02
-17.3
-18.63
-19.19
-18.35
-15.93
-12.2
-7.79
-3.52
-0.15
1.84
2.39
1.88
0.96
0.25
0.11
0.58
1.38
2.17
2.71
2.91
2.82
2.51
1.98
1.23
0.31
-0.63
-1.33
-1.53
-1
0.33
2.35
4.86
7.7
10.74
13.89
17.05
20.06
22.64
24.53
25.45
25.26
23.9
21.42
17.9
13.47
8.38
2.95
-2.3
-6.8
-10.04
-11.72
-11.85
-10.7
-8.76
-6.57
-4.62
-3.22
-2.49
-2.36
-2.66
-3.22
-3.9
-4.63
-5.33
-5.97
-6.55
-7.08
-7.62
-8.23
-8.95
-9.75
-10.6
-11.38
-12.04
-12.62
-13.16
-13.76
-14.39
-15.01
-15.41
-15.38
-14.64
-13.04
-10.48
-6.99
-2.77
1.86
6.43
10.42
13.41
15.17
15.72
15.34
14.42
13.26
12.05
10.78
9.42
7.97
6.43
4.82
3.26
2
1.43
2.03
4.12
7.64
12.16
16.76
20.31
22.1
22.09
21.05
20.26
20.92
23.8
29.06
36.05
43.54
50.81
57.7
64.7
72.04
78.73
82.45
80.49
70.73
52.72
28.69
2.7
-20.49
-36.77
-43.26
-37.77
-18.09
17.41
63.4
109.81
143.08
152.51
135.16
95.96
44.29
-9.13
-55.53
-90.13
-111.56
-121.47
-122.79
-119.15
-113.7
-108.19
-101.81
-92.08
-77.71
-58.35
-35.92
-13.34
5.95
19.38
26.13
27.88
28.17
29.68
34.52
43.98
59.36
80.56
105.41
125.42
133.05
124.88
100.92
65.44
24.94
-12.57
-44.21
-69.67
-90.6
-109.27
-126.57
-144.65
-165.35
-190.55
-215.93
-231.53
-229.92
-208.77
-181.59
-151.54
-119.12
-81.05
-40.16
-1.81
27.52
43.41
45.53
37.72
27.15
18.41
13.5
12.65
17.24
29.02
48.49
73.43
98.59
118.68
128.52
126.23
113.63
95.66
77.15
60.52
45.74
31.67
18.39
6.35
-3.34
-9.79
-12.44
-12
-10.33
-9.45
-10.72
-13.72
-17.36
-20.09
-20.63
-18.24
-13.05
-6.11
1.12
7.27
11.68
14.34
16.01
17.82
20.8
25.42
31.3
37.47
42.92
46.9
49.08
49.38
47.67
43.97
38.75
33.01
28.19
25.47
25.1
25.96
26.1
23.93
19.69
16
17.01
26.7
46.65
74.82
106.1
134.29
154.43
164.52
165.82
161.53
155.05
148.75
143.73
140.41
139.08
140.11
143.81
150.13
158.65
168.65
179.12
188.66
195.65
198.62
196.91
191.36
184.16
177.98
174.54
173.53
172.6
168.47
158.51
142.08
120.62
96.71
72.67
49.52
26.55
1.69
-27.41
-62.13
-102.08
-144.99
-187.46
-226.19
-259.23
-286.62
-310.2
-332.95
-358
-387.55
-421.89
-458.39
-491.22
-512.14
-512.57
-486.3
-432.13
-354.98
-265.1
-175.6
-98.96
-43.97
-13.88
-6.26
-14.13
-28.46
-40.85
-45.75
-41.27
-28.2
-8.22
17.92
50.84
90.95
136.2
180.88
216.92
237.18
238.91
224.9
201.95
177.35
155.39
136.31
117.54
96.55
73.03
49.49
29.89
17.7
14.54
19.58
30.07
42.31
52.75
58.68
58.9
53.78
44.7
33.16
19.77
4.26
-14.05
-35.26
-58.41
-81.65
-103.05
-121.69
-138.08
-153.91
-171.07
-190.72
-212.7
-235.8
-258.44
-279.57
-299.35
-318.99
-340.22
-364.41
-391.85
-421.36
-450.39
-475.22
-491.64
-495.78
-484.93
-458.18
-416.69
-363.49
-302.91
-239.76
-178.41
-122.25
-73.29
-32.1
2
30.7
56.28
81.1
106.93
134.34
162.44
188.96
211.16
226.48
233.19
230.84
220.24
203.2
182.08
159.28
136.89
116.6
99.23
84.79
72.76
62.7
54.37
47.75
42.16
36.65
30.63
24.52
19.77
18.17
21.14
28.61
39.09
49.22
55.73
57.34
55.08
51.32
48.34
47.67
49.35
52.82
55.74
55.72
51.81
44.61
35.58
25.91
17.41
11.98
12.12
17.47
25.24
31.23
30.98
21.22
0.6
-28.26
-60.41
-77.2
-66.04
-28.34
21.6
68.41
105.36
128.76
143.76
152.59
155.35
150.25
137.67
123.24
115.47
123.23
147.07
177.83
200.53
204.19
185.31
148.03
102.99
57.88
18.35
-13.73
-38.9
-59.32
-76.65
-88.83
-94.73
-93.52
-84.12
-65.91
-40.61
-11.69
16.07
38.55
52.28
54.65
43.86
20.87
-11.16
-45.21
-71.35
-82.28
-77.27
-62.07
-44.38
-30.34
-20.83
-9.3
11.09
44.07
88.63
140.13
192.25
240.85
271.77
275.53
252.14
211.17
165.64
124.58
94.1
68.32
42.05
12.19
-20.25
-52.51
-81.97
-107.02
-128
-146.32
-163.58
-179.28
-192.06
-199.26
-199.27
-193.27
-184.86
-177.97
-173.9
-170.39
-161.82
-143.31
-112.93
-73.38
-30.97
7.39
37.35
58.59
73.73
86.2
97.25
105.79
109.61
107.29
99.66
89.53
80.07
73.11
68.68
65.46
62.29
58.8
54.5
47.52
33.98
9.07
-30.24
-82.42
-140.32
-192.75
-228
-237.81
-219.93
-178.17
-120.48
-56.08
7.07
63.78
111.76
150.76
181.26
203.29
215.88
217.31
206.03
181.73
145.97
102.15
54.91
9.2
-30.56
-60.96
-79.86
-86.5
-81.57
-67.19
-46.68
-23.9
-2.42
15.37
28.86
39.19
48.76
60.4
76.4
97.96
125.04
156.56
190.37
223.23
251.06
269.62
275.5
267.14
244.94
210.43
165.09
110.11
47.55
-17.68
-76.95
-119.61
-137.3
-128.68
-101
-67.72
-42.74
-34.89
-45.21
-68.84
-99.12
-131.26
-163.24
-193.74
-219.73
-235.73
-235.65
-216.16
-179.02
-131.01
-81.23
-37.93
-5.61
15.17
26.37
30.48
29.42
25.01
20.3
19.97
28.44
48
76.68
108.34
134.63
147.84
143.66
121.92
86.05
40.5
-9.11
-56.28
-94.21
-117.5
-124.28
-116.81
-100.7
-82.68
-69.52
-65.44
-71.14
-84.44
-101.83
-119.8
-135.33
-146.74
-147.18
-134.53
-112.53
-89
-70.67
-59.76
-54.12
-48.64
-37.08
-13.66
22.53
66.68
109.01
139.18
149.56
138
109.65
75.66
49.97
42.34
55.56
84.92
120.46
150.22
164.23
157.75
127.15
77.56
20.16
-30.92
-63.64
-72.28
-59.14
-32.85
-3.9
19.82
35.74
44.83
49.22
49.97
46.51
37.82
24.21
8.41
-5.42
-13.47
-15.21
-13.71
-13.7
-18.53
-27.69
-36.37
-37.29
-23.96
6.54
51.31
102.09
148.06
179.64
191.76
185
164.78
138.7
113.86
94.75
82.45
75.2
69.73
62.71
52.03
37.61
21.09
4.67
-10.26
-24.05
-38.08
-53.18
-68.07
-79.35
-83.31
-78.49
-67.08
-53.86
-43.23
-36.54
-31.46
-23.86
-10.87
6.72
24.7
37.91
43.2
40.94
34.55
28.34
25.45
26.92
32.02
39.17
46.72
53.14
56.59
54.8
45.59
27.76
2
-29.06
-61.71
-92.49
-119.3
-141.63
-159.73
-173.5
-182.1
-184.31
-179.31
-167.48
-150.47
-130.87
-111.41
-94.72
-83.27
-79.19
-83.58
-95.61
-112.25
-128.99
-141.49
-147.4
-147.17
-143.48
-139.58
-137.36
-136.34
-134.1
-127.67
-115.08
-96.41
-73.72
-50.17
-28.98
-12.42
-1.4
4.39
6.11
5.17
2.59
-1.18
-5.97
-11.34
-16.29
-19.17
-18.27
-12.55
-2.33
10.63
23.78
34.92
42.89
47.81
50.64
52.34
53.38
53.54
52.39
49.71
45.78
41.21
36.73
32.96
30.25
28.69
28.07
28.02
28.2
28.43
28.6
28.64
28.39
27.55
25.72
22.61
18.35
13.71
10.11
8.69
10.05
13.86
19.08
24.52
29.33
33.26
36.84
41.02
45.93
50.95
54.8
56.28
54.99
51.45
46.81
42.5
39.68
38.19
37.25
35.91
33.46
29.32
22.46
11.19
-5.97
-26.28
-44.72
-54.6
-51.84
-37.68
-17.36
3.33
20.89
34.44
48.85
67.97
92.95
121.73
150.15
173.91
190.11
195.2
188.19
170.88
146.42
119.26
94.06
74.81
64.03
62.28
68.18
79.41
93.11
105.43
112.08
108.72
92.08
61.06
17.69
-32.94
-83.46
-126.28
-156.05
-170.62
-170.9
-159.69
-140.23
-115.15
-86.5
-55.89
-25.11
3.57
27.83
45.71
55.97
58.27
53.23
42.35
28.11
13.58
1.6
-6.08
-9.43
-10.14
-10.64
-12.9
-17.68
-24.23
-30.88
-35.63
-37.01
-34.53
-29.2
-23.5
-20.92
-25.26
-39.29
-63.32
-94.37
-126.28
-150.89
-160.48
-150.15
-119.85
-74.52
-22.59
26.82
66.69
93.62
107.75
111.35
107.11
97.13
82.86
65.85
48.13
32.19
20.05
12.5
8.65
6.43
3.71
-0.52
-5.6
-9.6
-10.57
-7.65
-1.7
4.9
9.41
9.84
5.81
-1.41
-9.51
-16
-19.04
-18.18
-14.89
-12.35
-14.64
-25.09
-44.58
-70.57
-97.63
-119.39
-130.91
-130.29
-118.75
-99.43
-75.77
-50.57
-26.14
-4.75
11.23
20.07
21.59
17.73
11.86
7.39
6.33
8.73
13.14
17.57
20.52
21.26
19.68
15.97
10.56
4.13
-2.37
-7.82
-11.28
-12.26
-10.83
-7.57
-3.42
0.52
3.22
4.06
3.14
1.31
-0.21
-0.54
0.33
1.38
1.06
-1.84
-7.42
-14.52
-21.27
-25.85
-27.46
-26.44
-24
-21.6
-20.51
-21.66
-25.6
-32.61
-42.47
-54.13
-65.62
-74.27
-77.64
-74.72
-66.69
-56.67
-48.57
-45.26
-47.27
-52.78
-58.78
-62.64
-63.14
-60.61
-56.22
-51.51
-48.12
-48.05
-53.53
-66.39
-86.71
-111.77
-136.16
-153.55
-159.29
-152.47
-136.33
-116.59
-98.68
-85.37
-75.87
-67.03
-55.49
-39.67
-20.27
0.22
19.06
34.5
46.12
54.27
59.16
60.25
56.57
47.78
34.82
20.1
6.94
-1.49
-2.94
2.79
13.91
27.32
40.02
50.18
57.43
62.62
67.08
72.35
78.82
85.49
90.75
93.46
93.96
93.48
93.59
95.39
100.1
107.49
115.93
123.2
127.65
129.21
128.46
126.18
123
120.59
119.97
120.76
121.49
120.24
115.57
106.02
90.46
62.27
21.49
-24.42
-65.2
-94.04
-112.97
-123.98
-127.73
-122.92
-109.21
-86.87
-58.83
-30.61
-8.32
3.86
5.79
0.12
-9.13
-18.32
-24.39
-26.64
-26.71
-27.29
-30.44
-36.34
-44.2
-52.66
-60
-63.29
-59.64
-47.37
-26.81
-0.52
27.58
53.08
72.63
85.06
91.88
95.92
99.78
104.73
110.51
115.73
118.36
116.43
108.6
94.77
75.96
53.99
31.01
9.02
-10.37
-25.97
-36.83
-42.31
-42.2
-37.11
-28.61
-18.95
-10.39
-4.6
-2.15
-2.75
-5.61
-10.05
-15.91
-23.46
-33.17
-45.16
-58.97
-73.32
-86.38
-96.14
-101
-100.34
-94.67
-85.3
-73.82
-61.58
-49.45
-37.97
-27.75
-19.49
-13.86
-11.06
-10.71
-12.3
-15.66
-21.17
-29.31
-39.73
-50.58
-58.93
-62.13
-59.35
-52.15
-43.73
-37.18
-34.1
-34.15
-35.68
-36.49
-34.44
-27.58
-14.46
5.37
30.56
57.94
83.6
104.55
120.2
132.41
144.14
157.48
172.67
188.1
201.54
211.37
216.95
218.32
215.83
210.28
203.25
196.83
192.62
190.27
186.98
178.36
160.36
131.32
92.82
49.25
6.27
-30.45
-56.15
-67.27
-61.94
-40.81
-7.76
30.37
65.53
91.03
103.92
105.57
100.14
92.04
83.96
76.25
67.91
58.1
46.69
34.33
21.55
8.33
-5.71
-20.72
-35.99
-50.02
-61.08
-68.15
-71.2
-71.03
-68.79
-65.19
-60.48
-54.87
-49.04
-44.31
-42.23
-43.75
-48.63
-55.36
-61.5
-64.63
-63.23
-57.15
-47.5
-36.17
-25.03
-15.55
-8.8
-5.17
-4.57
-6.64
-11.07
-17.63
-26.13
-36.14
-46.85
-57.79
-68.15
-77.03
-83.97
-89.18
-93.35
-97.14
-100.73
-103.95
-107.67
-112.48
-118.55
-125.89
-134.62
-144.59
-155.06
-164.66
-172.06
-178.37
-184.61
-190.99
-197.08
-202.58
-207.3
-211.08
-213.79
-215.26
-217.44
-220.37
-221.42
-217.15
-205.7
-187.84
-166.31
-144.26
-109.01
-58.36
-0.13
53.46
93.6
117.31
125.79
122.74
113.13
101.86
90.3
78.34
66.63
56.32
48.44
43.81
43.28
47.86
58.63
74.62
92.95
111.69
128.78
141.44
146.83
143.38
131.72
114.64
94.79
75.18
58.7
46.89
39.68
35.91
34.33
34.01
34.3
33.75
31.06
25.75
18.29
9.77
1.59
-5.11
-9.77
-12.35
-13.25
-12.48
-9.41
-3.25
6.24
18.36
31.69
44.6
55.74
64.27
69.74
72.05
71.25
67.7
62.1
55.63
49.57
44.95
42.18
41.03
40.86
41.15
41.52
41.96
42.88
44.92
48.46
53.18
57.97
61.39
62.96
62.95
62.65
63.92
68.37
76.69
88.22
101.25
113.86
125.46
135.64
144.01
149.89
152.6
152.4
150.36
148.02
146.25
144.93
141.08
130
108.08
75.5
37.21
0.4
-28.98
-56.08
-83.63
-112.36
-139.76
-160.6
-169.12
-161.63
-139.85
-110.32
-81.24
-58.39
-44.69
-39.83
-41.45
-49
-60.73
-75.15
-90.73
-105.49
-116.41
-121.78
-122.23
-120.59
-119.74
-120.26
-120.12
-115.71
-103.65
-81.95
-51.83
-17.23
16.61
42.52
56.54
59.97
56.95
50.37
41.06
28.75
14.57
-1.21
-17.05
-30.49
-39.96
-45.73
-49.46
-53.12
-56.86
-60.17
-62.13
-61.4
-56.81
-48.39
-37.63
-26.8
-17.83
-11.63
-8.07
-6.54
-6.03
-5.56
-4.69
-3.58
-2.58
-1.84
-1.13
-0.22
0.88
2.01
2.94
3.46
3.45
3.12
2.92
3.27
4.2
5.29
5.97
5.84
4.8
3.11
1.15
-0.74
-2.35
-3.53
-4.03
-3.43
-1.37
2.1
6.36
10.34
13.01
13.88
13.24
11.89
10.54
9.41
8.03
5.73
2.2
-2.27
-6.78
-10.34
-12.38
-13.02
-12.82
-12.4
-12.01
-11.49
-10.5
-8.89
-6.82
-4.74
-3.22
-2.67
-3.22
-4.65
-6.54
-8.36
-9.63
-9.87
-8.61
-5.57
-0.8
5.31
12.13
18.99
25.33
30.76
35.24
39.15
42.75
45.89
48.11
49.06
48.73
47.55
46.18
45.39
46.28
49.07
52.9
56.29
58.17
58.34
57.43
56.44
56.32
58.47
63.06
68.74
73.42
75.54
74.76
71.8
67.92
64.64
64.56
69.12
77.68
87.64
95.4
97.17
89.41
69.81
31.42
-23.07
-81.1
-127.06
-152.11
-157.13
-148.77
-134.79
-120.83
-109.29
-99.02
-88.97
-79.81
-73.54
-71.36
-72.47
-74.52
-74.92
-72.33
-66.58
-59.21
-52.07
-45.31
-36.38
-21.34
2.45
33.64
66.41
93.35
108.53
110.23
101.56
88.37
75.83
65.7
56.24
44.48
29.26
12.18
-3.41
-14.59
-20.45
-22.29
-22.4
-22.23
-21.51
-18.94
-14.07
-8.92
-7.47
-13.23
-26.38
-42.54
-54.07
-53.69
-38.41
-11.58
17.91
38.97
42.57
24.76
-12.47
-62.38
-115.7
-162.95
-196.23
-210.2
-202.87
-175.56
-132.39
-79.29
-22.83
31.32
79.6
121.15
157.08
188.62
215.18
233.34
238
225.01
194.16
150.35
102.21
58.55
24.9
1.76
-14.42
-28.72
-45.07
-65.2
-89.3
-117.38
-149.95
-187.35
-228.12
-267.64
-298.38
-311.63
-300.58
-263.16
-203.13
-128.91
-50.84
22.31
85.6
138.23
181.82
218.22
248.02
270.31
283.48
286.14
277.47
257.37
226.73
188.1
146.16
106.95
75.91
55.24
42.51
31.58
15.63
-8.97
-40.33
-71.54
-93.81
-100.23
-88.22
-59.87
-20.41
23.49
64.99
98.32
119.64
128.1
126.22
118.82
110.33
102.13
91.53
73.17
42.47
-0.69
-50.5
-96.85
-129.76
-144.41
-143.39
-135.39
-130.61
-135.47
-149.22
-164.5
-170.97
-160.33
-130.01
-83.94
-30.64
19.84
58.29
78
75.18
49.48
4.69
-51.3
-108.4
-157.2
-191.9
-212.05
-220.25
-219.86
-213.03
-200.61
-183.56
-164.52
-146.57
-130.97
-116.39
-97.43
-67.8
-24.36
29.81
85.88
132.16
159.97
168.46
160.34
145.39
135.29
136.91
150.25
170.4
187.68
192.12
176.91
138.3
79.02
7.43
-65.51
-129.86
-178.88
-211.36
-228.95
-222.31
-189.84
-139.6
-85.33
-38.15
-6.68
12.9
23.92
29.05
30.72
30.14
27.98
25.34
23.63
23.86
27.12
33.04
41.36
51.51
60.62
65.84
66.06
62.26
56.67
52.03
49.2
47.83
46.41
42.07
32.73
18.72
2.77
-11.23
-19.47
-20.3
-14.23
-3.74
7.25
15.12
18.14
16.87
13.32
9.94
8.23
8.69
10.94
14.07
17.2
19.8
21.78
23.14
23.96
24.07
23.42
22.14
20.56
19.08
17.99
17.5
17.67
18.41
19.36
20.02
20
19.26
17.69
15.41
13.13
11.63
11.18
11.29
11.53
12.26
15.13
21.39
31.07
42.98
54.49
61.89
61.61
51.76
32.27
5.19
-27.51
-63.08
-96.15
-119.41
-126.04
-111.99
-76.91
-24.76
37.36
98.87
148.43
177.66
182.36
162.56
122.33
69.81
10.93
-40.54
-72.41
-87.08
-94.18
-99.93
-103.23
-101.73
-92.99
-76.71
-54.92
-32.93
-16.23
-6.4
-1.04
3.94
11.3
21.59
32.63
41.29
43.81
38.12
25.66
10.12
-4.94
-17.08
-23.76
-22.18
-9.54
13.78
42.86
69.37
84.36
82.38
64.52
38.64
15.13
1.47
-1.77
0.02
0.29
-4.09
-11.05
-15.47
-13.08
-3.83
7.89
15.83
15.64
7.19
-6.24
-20.46
-33.42
-45.92
-60.51
-79.05
-100.79
-122.2
-138.3
-144.91
-140.15
-124.79
-101.37
-72.85
-41.95
-11.14
16.96
39.65
54.97
62.58
64.33
63.7
64.64
69.89
79.72
91.55
100.33
100.04
85.7
55.32
11.26
-39.65
-87.73
-123.13
-138.92
-133.12
-108.93
-73.16
-33.69
2.94
32.56
53.29
64.59
66.78
60.91
49.17
34.96
22.23
14.01
11.15
12.12
13.99
14.06
11.1
5.65
-0.55
-5.47
-7.3
-4.65
3.29
16.43
33.33
51.2
66.56
76.47
79.69
76.89
70.11
61.49
52.15
41.67
28.41
10.43
-13.3
-41.82
-71.5
-96.31
-109.51
-106.21
-85.88
-53.33
-17.55
11.38
25.94
23.43
6.36
-19.21
-45.97
-67.36
-78.67
-77.36
-63.12
-37.91
-5.61
28.53
59.12
81.73
93.65
93.87
82.77
61.88
33.87
2.5
-27.84
-53.2
-71.32
-82.53
-89.47
-95.52
-102.71
-110.54
-116.44
-117.62
-113.32
-105.66
-98.52
-95.39
-97.33
-102.68
-108.13
-110.64
-108.46
-100.94
-87.47
-66.59
-36.45
3.36
49.87
96.27
133.72
154.77
156.68
142.76
120.75
99.18
83.45
73.92
66.81
57.49
43.86
27.86
13.9
5.39
1.34
-3.98
-18.62
-48.28
-92.88
-145.68
-195.57
-231.52
-246.38
-238.58
-210.99
-168.68
-117.13
-61.86
-8.82
35.47
65.28
77.87
75.07
62.97
49.15
39.12
34.1
31.7
28.88
25.11
23.43
28.71
44.41
70.05
101.22
131.99
158.13
179.07
197.74
218.66
245.22
277.96
314.07
348.24
374.08
385.72
379.22
353.67
311.46
257.82
199.74
144.57
98.61
65.9
47.48
41.19
42.28
44.83
43.45
34.78
18.25
-4.38
-30.15
-56.19
-80.64
-102.78
-122.52
-139.74
-153.86
-163.81
-168.35
-166.62
-158.65
-145.55
-129.58
-113.83
-101.74
-96.39
-99.6
-111.27
-129.09
-148.91
-165.82
-175.54
-175.61
-165.94
-148.56
-126.75
-103.96
-83.16
-66.36
-54.64
-48.42
-47.6
-51.64
-59.61
-70.08
-81.11
-90.59
-96.79
-98.8
-96.74
-91.38
-83.52
-73.59
-61.55
-47.26
-30.99
-13.65
3.55
19.61
33.95
46.43
56.78
64.42
68.54
68.51
64.42
57.37
49.03
41.06
34.43
29.18
24.68
20.07
14.68
8.32
1.46
-4.89
-9.71
-12.04
-11.52
-8.18
-2.59
4.04
10.23
15.01
18.31
20.78
23.61
27.47
32.48
37.93
42.33
44.08
42.72
39.24
35.21
32.17
30.31
29.28
28.5
27.16
24.33
19.23
10.91
-2.26
-21.61
-48.1
-78.25
-103.68
-115.78
-112.48
-98.68
-80.85
-65.15
-48.31
-25.6
6.39
47.79
95.28
142.2
181.79
209.99
226.03
231.74
228.8
218.44
201.21
177.27
147.29
113.36
78.61
45.84
16.99
-7.56
-27.73
-43.33
-54.4
-61.7
-66.48
-70.12
-73.51
-76.42
-78
-77.23
-73.91
-69.13
-64.93
-62.95
-63.24
-64.22
-63.48
-59.48
-52.26
-43.43
-35.28
-29.78
-27.75
-29.1
-33.25
-39.5
-47.21
-55.45
-62.82
-67.79
-69.43
-68.1
-65.59
-64.53
-67.15
-74.37
-85.49
-98.66
-111.69
-122.68
-130
-132.16
-127.54
-114.56
-92.46
-62.09
-26.03
11.88
47.76
78.74
103.37
121.66
134.52
142.76
146.82
146.94
143.51
137.53
130.23
122.54
115.2
108.79
103.31
98.4
93.78
89.3
85.13
80.69
74.08
63.02
46.1
22.93
-5.55
-37.42
-70.99
-104.28
-135.75
-163.49
-183.35
-189.04
-175.12
-139.95
-87.01
-24.49
38.94
96.08
139.08
160.51
159.32
141.29
113.95
86.54
58.97
31.74
6.81
-13.7
-28.32
-36.18
-39.04
-40.7
-44.86
-53.74
-65.88
-78.13
-87.39
-91.43
-89.38
-82.4
-72.92
-63.29
-55.19
-48.36
-42.18
-36.41
-31.16
-26.53
-22.74
-19.93
-17.83
-16.12
-13.94
-10.92
-7.28
-3.49
0.08
3.22
5.83
7.99
9.61
10.82
11.59
11.81
11.48
10.91
10.46
10.48
11.14
12.28
13.68
14.94
15.74
15.87
15.41
14.56
13.58
12.61
11.61
10.4
8.77
6.59
3.94
1
-1.84
-4.12
-5.39
-5.29
-3.67
-0.69
3.18
7.31
11.1
14.16
16.35
17.69
18.22
17.9
16.76
15
13.01
11.28
10.2
9.82
9.88
9.93
9.62
8.83
7.75
6.69
5.87
5.34
4.93
4.39
3.47
1.99
-0.16
-2.94
-6.09
-9.07
-11.21
-11.85
-10.62
-7.6
-3.31
1.56
6.25
10.2
13.12
14.87
15.49
15.2
14.27
12.99
11.66
10.39
9.14
7.79
6.26
4.57
2.92
1.53
0.61
0.22
0.26
0.51
0.72
0.67
0.17
-0.88
-2.54
-4.73
-7.15
-9.26
-10.32
-9.71
-7.14
-2.88
2.35
7.55
11.92
15.01
16.74
17.33
17.07
16.22
15.02
13.67
12.34
11.15
10.12
9.18
8.25
7.26
6.24
5.21
4.2
3.22
2.29
1.43
0.66
-0.14
-1.16
-2.69
-4.88
-7.57
-10.21
-12
-12.23
-10.54
-7.12
-2.64
2.06
6.24
9.44
11.56
12.65
12.83
12.2
10.9
9.15
7.26
5.57
4.35
3.71
3.58
3.85
4.36
4.96
5.51
5.86
5.89
5.5
4.63
3.29
1.56
-0.48
-2.71
-4.98
-7.09
-8.72
-9.52
-9.12
-7.34
-4.25
-0.23
4.13
8.23
11.6
14.02
15.5
16.12
15.89
14.87
13.2
11.19
9.33
8.06
7.57
7.72
8.07
8.22
7.99
7.53
7.21
7.34
7.98
8.87
9.55
9.61
8.85
7.5
6.15
5.61
6.68
9.85
15.15
22.12
29.98
37.82
44.96
50.96
55.8
59.58
62.3
63.79
63.75
61.81
57.56
50.76
41.35
29.62
16.11
1.45
-13.79
-29.29
-45.07
-61.44
-78.78
-97.14
-115.85
-133.56
-148.56
-159.1
-163.78
-161.81
-153.21
-138.7
-119.49
-96.8
-72.03
-46.84
-22.89
-1.48
16.79
31.98
44.64
55.5
65.97
76.82
87.74
97.71
105.73
111.41
115.11
117.75
120.46
125.25
132.96
142.72
152.41
159.84
163.76
163.93
160.77
155.24
149.82
146.43
145.58
146.27
146.58
144.03
135.87
119.82
86.55
35.94
-21.62
-70.41
-99.47
-107.45
-100.25
-86.11
-72
-61.93
-55.33
-51.06
-49.04
-50.03
-54.38
-61.39
-70
-79.8
-88.99
-96.02
-100.42
-102.28
-101.77
-98.87
-93.92
-88.73
-86.55
-90.78
-102.67
-120.43
-139.27
-152.73
-154.49
-140.3
-109.46
-65.3
-14.52
34.35
72.63
93.36
92.87
71.66
34.02
-13.62
-64.83
-114.77
-160.58
-200.66
-233.37
-255.82
-264.01
-254.56
-227.36
-187.06
-142.32
-102.66
-74.54
-58.58
-49.78
-40.54
-24.8
-0.88
28.48
58.18
83.52
101.95
113.39
119.05
120.29
117.82
111.95
102.96
91.57
79.2
68.02
60.64
58.99
63.14
70.68
77.42
79.03
73.11
60.31
43.78
27.42
13.74
3.12
-5.77
-14.53
-23.86
-33.13
-40.74
-45
-44.82
-40.1
-31.65
-20.94
-9.81
0.03
7.27
11.31
12.13
10.32
6.71
2.3
-1.96
-5.32
-7.23
-7.51
-6.25
-3.88
-0.91
2.06
4.58
6.38
7.41
7.81
7.82
7.68
7.5
7.26
6.75
5.68
3.77
0.95
-2.47
-5.74
-7.91
-8.17
-6.2
-2.34
2.55
7.44
11.55
14.53
16.4
17.41
17.7
17.26
16.02
14.07
11.77
9.69
8.46
8.4
9.43
11.05
12.6
13.54
13.68
13.25
12.65
12.31
12.39
12.77
13.09
12.97
12.19
10.78
9.13
7.88
7.74
9.26
12.65
17.62
23.47
29.26
33.98
36.94
37.82
36.72
34.02
30.19
25.71
21
16.45
12.4
9.21
7.07
5.96
5.58
5.42
5.03
4.17
2.95
1.66
0.54
-0.4
-1.41
-2.88
-5.08
-7.97
-11.24
-14.36
-16.78
-18.05
-17.83
-15.93
-12.34
-7.39
-1.84
3.3
7.03
8.78
8.54
6.86
4.45
1.9
-0.61
-3.19
-6.09
-9.31
-12.56
-15.35
-17.19
-17.84
-17.3
-15.82
-13.73
-11.33
-8.9
-6.69
-5.03
-4.26
-4.77
-6.73
-10.02
-14.15
-18.42
-22.17
-24.99
-26.81
-27.73
-27.88
-27.27
-25.78
-23.31
-19.83
-15.52
-10.76
-6.01
-1.77
1.54
3.56
4.17
3.57
2.29
1.08
0.7
1.49
3.23
5.24
6.68
7.02
6.3
5.16
4.3
4.15
4.65
5.47
6.33
7.26
8.61
10.66
13.44
16.49
19.03
20.41
20.53
19.92
19.47
19.99
21.78
24.75
28.28
31.4
33.24
33.49
32.49
31.06
30.18
30.6
33.13
37.8
43.73
49.5
54.01
56.79
57.91
57.68
56.34
55.25
55.17
55.82
56.34
56.29
56.07
56.66
59.05
63.84
73.07
87.35
105.07
122.97
138.12
148.78
154.48
155.76
153.76
152.8
156.2
164.41
174.77
183.53
186.65
180.79
164.16
121.33
49.89
-37.83
-120.89
-183.14
-219.03
-231.47
-226.38
-209.46
-185.59
-156.45
-123.62
-90.35
-60.66
-35.89
-14.72
5.58
26.85
48.69
70.41
89.55
102.55
101.58
84.41
53.11
12.43
-32.13
-75.69
-112.85
-139.47
-153.9
-157.53
-153.68
-147.72
-145.48
-151.11
-165.46
-184.65
-201.97
-210.59
-206.1
-187.41
-157.79
-123.64
-91.95
-67.64
-51.71
-41.72
-33.93
-25.78
-17.07
-10.08
-7.45
-9.83
-14.72
-17.24
-12.35
2.71
27.39
58.39
90.8
119.76
141.44
153.45
154.7
145.3
126.37
100.14
69.68
38.26
8.97
-15.85
-34.62
-46.57
-51.82
-51.52
-47.69
-42.85
-39.27
-38.1
-38.97
-40.12
-39.36
-35.31
-28.13
-19.51
-11.84
-7.11
-6.03
-7.94
-11.22
-14.18
-15.71
-15.56
-14.11
-12.01
-9.82
-7.8
-5.98
-4.26
-2.55
-0.87
0.65
1.81
2.39
2.31
1.62
0.56
-0.6
-1.53
-2.06
-2.13
-1.86
-1.48
-1.25
-1.38
-1.95
-2.89
-3.99
-5.02
-5.82
-6.4
-6.85
-7.29
-7.8
-8.42
-9.1
-9.76
-10.21
-10.19
-9.43
-7.74
-5.07
-1.7
1.93
5.31
8
9.8
10.73
10.99
10.77
10.25
9.55
8.81
8.12
7.54
7.06
6.64
6.29
6.04
6.09
6.62
7.79
9.42
11.08
12.21
12.47
11.9
10.78
9.73
9.16
9.43
10.39
11.6
12.71
13.71
15.08
17.32
21.04
26.18
32.45
38.82
44
46.92
47.28
45.65
42.81
39.84
36.86
34.15
31.5
28.71
25.56
21.56
15.7
6.01
-9.18
-31.35
-54.01
-67.59
-64.06
-42.63
-9.76
26.5
56.28
79.91
98.66
113.37
123.17
126.2
122.23
112.14
99.15
87.57
81.76
83.11
90.71
101.51
111.98
119.45
122.44
121.44
117.83
113.25
107.59
99.6
87.21
68.71
43.68
12.23
-23.04
-57.76
-86.99
-108.01
-120.56
-126.18
-126.8
-124.13
-122.11
-123.07
-126.97
-131.57
-134.63
-134.72
-131.02
-122.76
-110.5
-100.35
-97.63
-104.24
-118.39
-137.29
-159.11
-182.67
-206.18
-228.91
-256.1
-291.11
-332.72
-375.54
-414.16
-445.9
-470.21
-486.83
-458.79
-368.71
-229.28
-76.06
59.46
164.25
239.42
286.99
319.88
345.18
359.92
360.76
347.97
325.72
299.45
271.56
242.28
212.23
181.42
146.95
108.92
71.45
41.01
22.34
16.12
20.22
32.57
50.82
70.77
89.42
105.26
117.65
125.21
125.44
115.71
95.64
66.41
29.78
-11.02
-51.56
-86.9
-112.93
-127.35
-130.45
-123.53
-109.34
-92.17
-76.95
-68.17
-68.74
-79.52
-99.25
-125.68
-154.02
-178.18
-192.93
-196.49
-191.47
-183.62
-178.83
-179.89
-186.57
-193.76
-194.52
-183.96
-161.97
-132.59
-101.07
-71.07
-33.84
11.07
56.99
94.66
118.46
128.03
127
120.71
113.72
109.32
107.5
107.85
109.1
110.29
110.28
107.91
102.13
92.41
78.99
61.68
41.78
21.69
3.79
-10.6
-21.54
-29.62
-35.03
-37.15
-35.83
-31.07
-23.47
-14.49
-5.66
1.33
5.26
5.68
3.23
-1.06
-5.35
-7.42
-5.34
2.62
15.97
32.15
47.9
61.28
72.36
82.98
95.48
111.44
132.36
157.18
182.68
205.07
221.83
232.24
236.59
235.77
231.03
226
222.91
221.36
218.6
210.91
194.85
168.28
131.67
76.34
6.93
-61.75
-114.2
-144.56
-157.01
-159.45
-159.36
-160.79
-166
-174.74
-187.77
-206.29
-229.36
-252.49
-269.36
-275.2
-268.82
-252.69
-229.41
-201.75
-171.69
-140.2
-107.19
-73.54
-41.96
-15.84
2.9
16
26.96
38.95
53.14
69.61
86.21
99.24
105.46
104.11
97.78
90.47
85.67
84.81
89.18
97.96
108.81
119.41
129.15
139.25
150.95
164.59
179.19
195.84
214.74
234.29
251.14
261.6
262.33
250.92
227.03
178.38
106.59
27.12
-40.34
-85.43
-109.94
-121.49
-128.82
-136.1
-144.21
-150.27
-152.78
-152.27
-150.98
-150.59
-151.43
-153.29
-156.15
-161.08
-168
-177.31
-189.66
-204.73
-220.12
-232.25
-238.32
-237.6
-231.79
-222.82
-213.21
-205.75
-202.92
-205.59
-212.65
-220.95
-225.75
-222.23
-206.44
-177.76
-139.46
-97.64
-58.62
-26.68
-3.11
13.57
26.01
36.94
48.01
59.5
70.62
80.14
86.97
90.46
90.82
89.04
86.7
85.43
86.37
89.74
94.93
100.85
106.2
109.93
111.24
109.71
105.27
98.22
89.31
79.67
70.54
62.91
57.25
53.42
50.81
48.61
46.02
42.62
38.4
33.7
28.95
24.52
20.42
16.39
11.94
6.77
0.97
-4.74
-9.25
-11.34
-10.17
-5.59
1.77
10.7
19.76
27.71
33.8
37.82
39.93
40.46
39.74
38
35.48
32.5
29.53
27.04
25.38
24.61
24.45
24.49
24.34
23.88
23.23
22.68
22.41
22.37
22.19
21.37
19.63
16.47
12.1
7.19
2.85
0.24
0.35
3.59
9.66
17.84
26.51
34.38
40.5
44.47
46.34
46.41
45.01
42.48
39.71
36.49
33.35
30.76
29.06
28.31
28.29
28.69
29.2
31.28
33.3
35.41
37.6
39.74
41.57
42.91
43.7
44.04
47.3
50.24
53.09
56.01
59.09
62.39
66.08
70.55
76.38
89.31
104.24
120.98
138.3
154.15
166.17
172.62
173.23
169.58
171.26
174.49
181.55
192.39
204.44
213.44
215
206.3
145.87
88.96
33.34
-13.14
-41.99
-46.44
-24.23
20.52
77.54
133.16
181.27
207.05
209.79
194.49
168.5
137.99
106.2
74
41.56
15.17
-8.22
-26.07
-37.28
-43.17
-47.23
-53.67
-65.67
-84.17
-104.21
-125.52
-143.93
-156.47
-162.44
-163.89
-164.85
-170.23
-184.43
-208.56
-244.35
-288.7
-335.58
-376.79
-403.58
-408.88
-389.66
-348.49
-292.95
-235.42
-187.63
-157.41
-146.05
-148.33
-155.13
-157.4
-149.71
-131.55
-106.34
-78.75
-52.31
-28.38
-6.88
12.21
27.8
37.99
41.56
39.2
33.88
29.6
29.47
34.21
41.97
49.61
54.34
55
52.27
48.1
44.74
44.16
47.51
54.81
64.53
73.42
77.04
71.02
52.98
24.02
-10.97
-44.62
-69.45
-80.5
-76.93
-61.83
-40.55
-18.47
0.88
16.2
27.65
35.74
40.74
42.73
42.23
40.27
37.74
34.38
28.19
15.89
-5.28
-35.48
-71.29
-106.24
-133.01
-145.96
-142.91
-125.19
-96.49
-61.2
-23.05
15.34
52.22
85.82
113.76
133.23
141.87
139.25
127.87
112.58
98.85
90.41
87.83
88.71
89.52
87.74
83.33
78.41
75.72
76.77
80.88
85.64
88.17
86.75
81.34
73.17
63.9
54.94
47.37
42.05
39.51
39.3
39.44
36.37
26.25
6.66
-21.84
-55.39
-88.26
-115.07
-132.9
-141.89
-144.25
-142.69
-138.98
-133.54
-125.9
-115.49
-102.12
-86.23
-68.66
-50.4
-32.5
-15.91
-1.43
10.27
18.85
24.26
26.74
26.83
25.35
23.22
21.47
20.93
22.03
24.64
28.18
31.77
34.54
35.9
35.78
34.62
33.28
32.62
33.15
34.77
36.88
38.72
39.73
39.79
39.28
38.73
38.57
39.04
40.27
42.34
45.32
48.96
52.42
54.23
52.61
45.95
33.32
14.7
-9.12
-36.68
-65.91
-94.17
-118.41
-135.62
-143.63
-141.83
-131.51
-115.55
-97.56
-80.7
-66.86
-56.46
-48.71
-42.31
-36.05
-29.22
-21.74
-14.02
-6.53
0.39
6.72
12.57
18.02
22.84
26.57
28.92
30.04
30.86
32.73
36.93
44
53.43
63.97
74.22
83.25
90.82
97.25
102.87
107.66
111.24
113.17
113.18
111.24
107.06
99.86
88.34
71.21
47.82
18.63
-14.93
-50.83
-86.83
-120.5
-149.03
-169.15
-177.75
-173.02
-155.57
-128.87
-98.34
-69.63
-46.61
-30.29
-19.04
-9.9
-0.2
11.39
24.47
37.7
49.73
59.93
68.5
76
82.59
87.43
89.01
85.83
77.24
63.76
46.86
28.27
9.2
-9.7
-27.84
-43.71
-54.52
-56.71
-47.24
-25.16
7.61
46.55
86.01
120.45
145.9
160.34
163.35
155.56
138.25
113.61
84.58
54.91
27.48
4.5
-12.77
-24.1
-30.42
-33.43
-34.42
-34.15
-32.04
-28.79
-24.92
-20.58
-15.6
-10.16
-5.02
-0.42
2.88
4.42
0.65
-11.61
-33.42
-63.02
-96.96
-131.72
-163.53
-191.09
-214.33
-238.05
-266.77
-301.91
-341.08
-379.92
-414.68
-442.41
-464.04
-457.72
-411.72
-331.2
-236.42
-147.84
-75.74
-28.23
3.63
26.33
44.69
59
69.57
79.87
93.45
112.56
136.96
166.03
197.24
229.05
257.59
279.1
290.95
291.85
281.55
260.58
231.64
197.51
162.02
127.04
93.56
62.43
34.72
11.75
-5.35
-15.23
-17.9
-14.06
-6.26
2.34
9.21
13.04
13.92
12.89
11.51
10.54
10.09
9.27
6.97
2.7
-3.09
-9.08
-13.73
-15.93
-15.55
-13.35
-10.52
-8.12
-6.7
-6.2
-6.15
-6.02
-5.57
-4.91
-4.39
-4.41
-5.17
-6.57
-8.21
-9.42
-9.42
-7.52
-3.33
3.02
10.96
19.74
28.72
37.51
45.97
53.89
60.87
66.28
69.68
71.15
71.53
72.2
74.54
79.33
86.35
94.59
102.71
109.58
114.67
118.09
120.41
122.38
124.86
128.6
134.08
141.06
148.14
152.79
151.98
143.56
127.33
105.55
82
60.39
42.81
29.3
18.58
9.5
2.33
-1.45
-0.18
6.45
16.75
27.57
35.67
39.11
37.69
32.69
25.95
19.05
13.07
8.61
5.89
4.68
4.26
3.49
1.31
-2.83
-8.7
-15.39
-21.63
-26.2
-28.27
-27.45
-23.95
-18.6
-12.65
-7.3
-3.26
-0.61
0.94
1.25
-0.65
-6.71
-19.13
-39.18
-66.16
-97.16
-127.88
-153.86
-171.97
-181.25
-182.91
-179.35
-173.04
-165.5
-157.4
-149.2
-142.02
-138.17
-140.64
-151.71
-171.33
-196.7
-223.21
-246.54
-264.77
-278.82
-291.08
-303
-313.1
-317.12
-310.09
-289.38
-256.55
-217
-177.5
-143.3
-116.12
-94.58
-76.06
-58.49
-40.87
-22.68
-3.28
17.9
40.49
62.62
81.41
94.34
100.54
101.01
97.72
92.06
84.35
74.34
62.44
50.45
40.87
35.37
33.62
33.53
32.67
30.04
26.81
25.4
27.81
34.24
42.91
51.1
56.7
58.92
58.32
56.04
52.97
49.39
45.41
40.88
36.1
31.86
28.72
26.95
26.29
26.05
25.54
24.78
23.7
22.71
22.72
23.99
26.37
28.89
30.11
28.74
24.8
18.5
11.1
4.86
1.31
1.36
4.44
8.5
10.51
7.9
-2.7
-23.47
-48.79
-70.27
-77.72
-64.11
-28.68
18.52
72.97
129.21
182.01
228.49
264.33
286.81
295
289.49
271.97
245.39
211.6
172.5
130.63
88.53
49.51
16.93
-6.6
-20.04
-24.25
-23.5
-23.52
-29.12
-42.98
-64.21
-89.19
-113.18
-132.18
-143.88
-148.85
-149.35
-147.98
-146.89
-147.01
-148.16
-149.33
-148.99
-145.39
-137.6
-126.03
-112.68
-100.7
-92.87
-90.32
-91.69
-94.02
-94.47
-92.01
-87.79
-83.65
-80.33
-76.36
-68.55
-53.84
-31.13
-1.98
30.32
62.47
92.33
118.83
140.98
156.96
164.21
160.47
145.26
120.66
90.96
61.3
36.07
17.88
7.46
3.96
5.7
10.59
16.69
22.31
26.2
27.69
26.67
23.44
18.45
12.2
5.21
-2
-8.93
-15.08
-19.91
-22.86
-23.57
-21.83
-17.8
-11.93
-4.93
2.38
9.22
14.95
19.2
21.75
22.68
22.25
20.89
19.07
17.27
15.82
14.94
14.59
14.55
14.52
14.24
13.61
12.74
11.85
11.14
10.6
10.01
8.97
7.12
4.3
0.66
-3.38
-7.21
-10.15
-11.55
-10.94
-8.22
-3.67
2.17
8.57
14.87
20.61
25.48
29.29
31.88
33.16
33.09
31.96
30.32
28.92
28.53
29.63
32.22
35.72
39.28
42.02
43.59
44.25
44.85
46.46
49.74
54.61
60.16
65
67.76
67.72
65.13
61.2
57.71
56.43
58.51
64.15
72.38
81.2
87.81
89.4
83.61
69.32
47.09
19.16
-10.9
-39.19
-62.53
-79.19
-88.95
-92.44
-90.31
-82.75
-69.88
-52.73
-34.06
-18.09
-8.98
-8.84
-16.44
-27.5
-36.81
-40.9
-39.62
-35.75
-32.71
-31.86
-31.17
-26.09
-11.9
13.69
49.01
88.85
125.79
151.99
160.66
147.4
111.54
57.28
-5.95
-65.32
-108.16
-126.37
-119.41
-94.02
-60.7
-28.89
-3.46
15.63
30.96
44.46
55.97
64.02
68.13
70.38
74.94
85.69
103.51
125.27
145.28
158.19
161.65
157.07
148.18
138.67
130.22
122.06
112.13
98.73
81.75
62.66
43.5
25.63
9.18
-6.66
-22.83
-39.5
-55.85
-70.52
-82.32
-90.86
-96.83
-101.75
-107.27
-114.55
-123.67
-133.73
-143.44
-152.02
-160.05
-169.35
-182.11
-199.15
-218.87
-237.38
-250.06
-253.86
-248.74
-237.54
-224.24
-211.68
-200.18
-187.72
-171.51
-149.52
-121.33
-87.92
-51.03
-12.64
25.05
59.44
87.67
107.26
116.93
116.99
109.33
96.71
82.15
68.43
57.85
52
51.53
55.99
63.65
72
78.63
82.05
82.31
80.82
79.68
80.59
84.11
89.41
94.82
98.44
98.91
95.67
88.7
78.42
65.46
50.95
36.51
24.22
15.86
12.44
14.14
20.68
31.96
48.29
70.02
96.79
126.99
157.64
185.17
206.38
219.31
223.48
219.56
208.71
192.28
171.62
148.43
124.92
103.82
87.76
78.52
76.07
78.21
81.26
81.44
76.62
67.09
55.03
42.87
31.77
20.95
8.56
-6.87
-25.06
-43.89
-60.51
-72.85
-80.78
-86.17
-91.71
-99.32
-109.17
-119.59
-128.05
-132.7
-133.28
-131.24
-128.97
-128.62
-131.3
-136.76
-143.84
-151.14
-157.29
-160.96
-160.61
-154.46
-141.48
-122.69
-102.07
-86.14
-81.9
-94.01
-122.56
-162.78
-206.97
-247.66
-280.39
-304.45
-321.4
-332.5
-336.86
-331.61
-313.94
-283.3
-242.4
-196.18
-149.35
-104.23
-60.24
-15.46
30.86
76.35
115.65
142.43
152.52
146.02
127.36
103.43
80.81
63.52
52.47
46.32
43.12
41.63
41.61
43.4
46.88
51.08
54.33
55.03
52.53
47.33
40.89
34.77
29.97
26.59
24.07
21.7
19.09
16.35
13.95
12.32
11.56
11.36
11.19
10.51
9.06
6.75
3.67
-0.11
-4.37
-8.71
-12.34
-14.32
-13.88
-10.72
-5.35
1.17
7.52
12.63
15.95
17.49
17.67
16.97
15.8
14.38
12.88
11.4
10.11
9.1
8.37
7.82
7.37
7.04
6.91
7.06
7.44
7.8
7.82
7.15
5.68
3.41
0.56
-2.6
-5.74
-8.33
-9.73
-9.27
-6.6
-1.89
4.06
10.13
15.27
18.88
20.89
21.63
21.49
20.79
19.68
18.27
16.71
15.19
13.85
12.77
11.92
11.29
10.92
10.84
11
11.25
11.33
10.98
10.08
8.61
6.65
4.29
1.65
-1.04
-3.35
-4.7
-4.5
-2.43
1.34
6.14
11.1
15.4
18.53
20.34
20.93
20.54
19.36
17.55
15.31
12.86
10.47
8.38
6.75
5.62
4.96
4.64
4.47
4.22
3.72
2.95
2.02
1.05
0.13
-0.84
-2.04
-3.53
-5.13
-6.24
-6.22
-4.58
-1.34
2.96
7.45
11.27
13.91
15.23
15.45
14.81
13.54
11.81
9.77
7.68
5.82
4.42
3.6
3.43
3.81
4.53
5.33
5.9
5.99
5.4
4.01
1.86
-0.75
-3.4
-5.68
-7.23
-7.83
-7.25
-5.38
-2.27
1.78
6.4
11.03
15.01
17.91
19.57
20.35
20.71
20.98
21.23
21.71
22.42
23.14
23.57
23.5
23.32
23.39
23.9
24.74
26.47
29.11
31.86
33.51
33.04
30.98
28.52
27.04
27.61
32.04
40.65
51.84
62.87
71.1
76.07
78.1
77.59
74.92
72.28
71.31
72.21
73.72
73.67
70.94
63.98
51.1
20.82
-29.3
-90.55
-147.64
-185.9
-205.23
-206.81
-191.28
-159.45
-113.88
-57.29
5.7
68.86
125.76
171.2
203.57
223
230.67
228.43
219.71
206.89
190.15
168.17
139.98
107.82
75.96
49.5
32.75
28.39
35.29
48.29
60.01
63.84
57.2
41.76
22.45
5.3
-4.68
-6.04
-1.11
5.54
9.79
10.3
8.36
6.42
6.21
7.75
9.26
8.59
4.73
-1.13
-6.03
-7.06
-3.23
3.51
8.91
8.59
0.33
-14.73
-32.64
-48.71
-59.65
-64.88
-66.03
-65.39
-64.31
-62.53
-58.78
-52.08
-42.76
-32.48
-23.43
-17.18
-14.16
-13.92
-15.78
-19.61
-25.84
-35.12
-47.67
-63.14
-80.88
-100.6
-122.72
-148.24
-178.18
-212.82
-251.02
-289.95
-325.41
-352.39
-366.26
-363.66
-343.45
-307.07
-258.31
-202.39
-144.66
-89.38
-39.05
5.26
43.11
73.79
96.12
108.99
112.42
108.06
98.75
87.44
75.96
64.56
52.65
39.79
26.65
14.96
6.64
2.81
3.31
6.89
11.97
17.3
22.07
25.95
28.78
30.61
31.68
32.36
32.86
33.13
32.81
31.45
28.91
25.39
21.41
17.62
14.57
12.56
11.62
11.6
12.2
13.14
14.16
15.06
15.67
15.89
15.66
15.07
14.27
13.46
12.74
12.05
11.15
9.71
7.46
4.29
0.45
-3.48
-6.73
-8.52
-8.44
-6.5
-3.15
0.99
5.27
9.24
12.63
15.28
17.02
17.66
17.06
15.26
12.58
9.47
6.42
3.82
1.81
0.4
-0.43
-0.73
-0.51
0.11
0.94
1.71
2.24
2.45
2.4
2.2
1.89
1.35
0.45
-0.85
-2.39
-3.76
-4.44
-4.03
-2.4
0.32
3.74
7.36
10.73
13.46
15.31
16.24
16.33
15.77
14.75
13.48
12.11
10.7
9.35
8.13
7.13
6.43
6.08
6
6.13
6.33
6.45
6.4
6.09
5.4
4.23
2.49
0.15
-2.64
-5.44
-7.63
-8.49
-7.51
-4.61
-0.23
4.81
9.57
13.29
15.59
16.49
16.35
15.61
14.69
13.84
13.1
12.34
11.37
10.05
8.44
6.82
5.55
4.9
4.92
5.27
5.42
4.87
3.36
0.96
-1.99
-5.14
-8.19
-10.82
-12.72
-13.4
-12.4
-9.59
-5.31
-0.3
4.47
8.28
10.79
12.11
12.54
12.37
11.76
10.8
9.59
8.35
7.32
6.68
6.42
6.42
6.42
6.25
5.87
5.26
4.47
3.48
2.23
0.63
-1.36
-3.78
-6.6
-9.78
-13.2
-16.63
-19.67
-21.79
-22.42
-21.12
-17.83
-13.01
-7.49
-2.19
2.17
5.25
7.15
8.16
8.57
8.59
8.26
7.65
6.87
6.14
5.56
5.1
4.57
3.71
2.39
0.66
-1.17
-2.76
-3.86
-4.46
-4.79
-5.18
-5.93
-7.25
-9.16
-11.62
-14.49
-17.51
-20.29
-22.29
-22.96
-21.91
-19.04
-14.62
-9.19
-3.36
2.36
7.68
12.49
16.76
20.42
23.26
24.95
25.22
23.99
21.53
18.46
15.59
13.67
13.09
13.68
14.87
15.81
15.85
14.7
12.54
9.83
7.07
4.59
2.43
0.5
-1.38
-3.3
-5.29
-7.38
-9.66
-12.22
-15.05
-17.89
-20.15
-21.12
-20.18
-17.16
-12.36
-6.55
-0.66
4.54
8.57
11.36
13.04
13.85
13.98
13.54
12.63
11.34
9.84
8.35
7.13
6.37
6.18
6.49
7.07
7.53
7.52
6.86
5.58
3.94
2.21
0.6
-0.87
-2.31
-3.92
-5.8
-7.96
-10.29
-12.56
-14.46
-15.61
-15.61
-14.18
-11.33
-7.4
-2.98
1.27
4.83
7.48
9.22
10.18
10.38
9.82
8.51
6.62
4.55
2.78
1.71
1.43
1.73
2.11
2.12
1.52
0.4
-0.87
-1.88
-2.39
-2.5
-2.65
-3.38
-5.09
-7.81
-11.16
-14.37
-16.6
-17.12
-15.6
-12.2
-7.53
-2.38
2.5
6.66
10
12.65
14.77
16.39
17.41
17.71
17.32
16.51
15.66
15.07
14.79
14.59
14.15
13.12
11.44
9.21
6.68
4.06
1.42
-1.33
-4.37
-7.84
-11.75
-15.88
-19.81
-22.89
-24.48
-24.1
-21.67
-17.5
-12.34
-7.04
-2.38
1.15
3.44
4.62
4.99
4.79
4.24
3.51
2.76
2.18
1.85
1.73
1.66
1.41
0.83
-0.06
-1.03
-1.79
-2.18
-2.3
-2.55
-3.45
-5.4
-8.36
-11.79
-14.76
-16.26
-15.54
-12.47
-7.57
-1.82
3.62
7.89
10.55
11.64
11.5
10.57
9.22
7.67
6.09
4.55
3.14
2.01
1.24
0.94
1.12
1.7
2.46
3.18
3.59
3.49
2.73
1.23
-1.03
-3.86
-6.86
-9.38
-10.65
-10.05
-7.42
-3.1
2.09
7.23
11.57
14.71
16.59
17.4
17.31
16.42
14.81
12.56
9.95
7.34
5.17
3.7
3
2.89
3.13
3.56
4.02
4.37
4.38
3.87
2.68
0.87
-1.37
-3.72
-5.56
-6.32
-5.63
-3.34
0.42
5.32
10.93
16.69
22.03
26.8
30.88
34.06
36.06
36.79
36.35
35.2
33.92
32.99
33.57
36.08
39.93
43.95
47.21
49.31
50.88
52.66
55.03
59.49
66.16
73.53
79.43
82.78
83.87
84.98
88.36
95.21
108.04
126.97
148.99
169.37
184.36
191.88
193.18
190.56
186.47
186.45
193.57
206.05
218.25
223.86
217.71
199.56
172.38
119.94
41.87
-46.18
-122.48
-175.17
-200.9
-214.94
-228.75
-247.68
-271.81
-295.84
-312.06
-314.84
-301.75
-272.79
-231.05
-180.56
-127.9
-80.67
-42.33
-14.03
4.34
14.13
17.76
17.33
15.24
12.32
8.42
5.08
3.71
4.21
4.95
3.68
-1.84
-11.9
-25.38
-40.12
-52.65
-60.37
-62.94
-61.86
-59.33
-57.23
-55.93
-54.76
-52.65
-48.31
-41.26
-32.12
-22.18
-12.98
-5.96
-1.73
-0.17
-0.46
-1.42
-1.95
-1.33
0.9
4.57
8.77
12.48
14.92
15.83
15.38
13.9
11.7
9.41
7.15
4.4
0.41
-5.57
-13.99
-25.01
-38.63
-54.75
-72.77
-88.51
-97.35
-96.34
-86.29
-70.29
-51.38
-31.13
-12.38
7.09
29.23
54.49
82.07
110.07
136.3
156.99
168.74
169.65
160.54
143.77
122.24
98.58
74.19
49.32
23.18
-5.14
-36.15
-69.2
-103.27
-136.72
-167.16
-191.6
-206.96
-211.11
-203.97
-188
-167.68
-148.35
-134.02
-125.65
-120.9
-115.51
-105.68
-90.16
-70.95
-52.13
-37.75
-29.75
-26.85
-25.29
-20.75
-10.38
6
26.09
46.37
63.62
76.04
83.4
86.45
