-80.96
-77.8
-73.9
-69.05
-63.35
-57.1
-50.68
-44.44
-38.6
-33.23
-28.28
-23.61
-19.02
-14.4
-9.8
-5.46
-1.79
0.78
1.98
1.76
0.39
-1.74
-4.34
-7.35
-11.03
-15.83
-22.15
-30.15
-39.54
-49.51
-58.74
-65.64
-68.73
-66.96
-60.14
-49.03
-35.12
-20.23
-6.04
6.25
16.12
23.52
28.75
32.22
34.37
35.53
36.01
36
35.62
34.99
34.22
33.39
32.56
31.72
30.81
29.71
28.28
26.4
23.93
20.76
16.81
12.06
6.61
0.69
-5.46
-11.62
-17.76
-24.08
-30.95
-38.71
-47.3
-56.08
-63.73
-68.5
-68.79
-63.67
-53.33
-39.05
-22.8
-6.63
7.88
19.86
29.05
35.62
39.8
41.86
42.12
41.01
39.11
36.98
35.12
33.73
32.84
32.29
31.89
31.49
30.97
30.2
29
27.14
24.45
20.82
16.37
11.39
6.28
1.47
-2.77
-6.41
-9.79
-13.58
-18.56
-25.33
-33.83
-43.16
-51.56
-56.88
-57.28
-51.9
-41.27
-27.06
-11.56
3.12
15.62
25.53
33.07
38.73
42.79
45.26
45.9
44.57
41.43
37.03
32.16
27.67
24.34
22.69
23.03
25.32
28.99
32.88
35.34
34.67
29.93
21.43
10.89
0.78
-6.66
-10.58
-11.95
-13.31
-17.92
-28.76
-47.65
-74.67
-107.75
-142.64
-173.38
-193.5
-197.7
-183.65
-152.98
-111.19
-66.43
-27.55
-1.95
6.24
-2.76
-24.33
-50.79
-73.76
-86.84
-87.62
-77.97
-62.65
-46.9
-34.24
-25.54
-19.43
-13.64
-6.3
3.33
14.8
26.84
37.81
46.11
50.51
50.33
45.6
36.97
25.61
13.1
1.22
-8.4
-14.71
-17.64
-18.05
-17.23
-16.15
-14.78
-12.07
-6.58
2.6
15.36
30.45
46.08
60.62
72.97
82.65
89.47
93.32
94.1
91.91
87.22
80.94
74.18
67.98
63
59.33
56.59
54.14
51.43
48.18
44.42
40.4
36.36
32.4
28.43
24.32
20.1
15.93
12.09
8.72
5.59
2.17
-2.15
-7.57
-13.56
-18.83
-21.69
-20.71
-15.27
-5.79
6.37
19.37
31.3
40.65
46.4
48.06
45.7
39.88
31.56
21.98
12.42
4.06
-2.22
-5.93
-7.14
-6.5
-5.12
-4.29
-5
-7.57
-11.49
-15.6
-18.63
-19.8
-19.14
-17.57
-16.41
-16.87
-19.52
-24.08
-29.42
-34.01
-36.25
-35.04
-30.03
-21.65
-10.96
0.76
12.29
22.7
31.44
38.15
42.57
44.43
43.56
40.04
34.38
27.56
20.73
14.93
10.66
7.72
5.33
2.51
-1.5
-6.97
-13.66
-21.01
-28.37
-35.19
-41.11
-46.18
-50.94
-56.55
-64.47
-75.77
-90.18
-105.52
-117.88
-122.9
-117.38
-100.77
-75.47
-45.87
-16.64
8.84
29.15
44.53
55.88
63.93
68.99
71.3
71.57
71.24
72.01
75.08
80.46
86.95
92.73
96.3
97.06
95.36
91.92
87.16
80.8
72.08
60.31
45.31
27.66
8.4
-11.37
-30.66
-48.45
-63.44
-74.04
-78.7
-76.5
-67.64
-53.62
-36.93
-20.36
-6.36
3.57
9.05
10.78
10.21
9.08
8.86
10.35
13.58
17.94
22.63
27.08
31.09
34.81
38.35
41.56
44.01
45.24
45.01
43.52
41.32
38.87
36.2
32.73
27.68
20.52
11.39
1.23
-8.45
-16.12
-20.52
-20.95
-17.18
-9.5
1.26
13.73
26.16
36.83
44.56
49.09
51.05
51.61
51.94
52.86
54.76
57.88
62.47
69.02
78.01
89.66
103.53
118.36
132.23
143.05
149.1
149.5
144.25
133.98
119.47
101.28
79.64
54.81
27.57
-0.48
-27.03
-49.69
-66.92
-78.69
-86.4
-92.13
-97.53
-102.86
-106.94
-107.85
-104.06
-95.41
-83.26
-69.9
-57.7
-48.12
-41.54
-37.39
-34.67
-32.45
-30.22
-27.98
-26.19
-25.49
-26.33
-28.74
-32.14
-35.56
-38
-38.82
-37.85
-35.3
-31.47
-26.56
-20.66
-13.92
-6.71
0.33
6.49
11.32
14.85
17.67
20.65
24.56
29.68
35.57
41.18
45.27
46.9
45.91
43.13
40.1
38.51
39.47
42.98
47.81
51.95
53.38
50.84
44.24
34.64
23.73
13.17
4.15
-2.79
-7.57
-10.31
-11.13
-10.19
-7.72
-4.24
-0.44
2.96
5.62
7.62
9.52
11.94
15.14
18.72
21.59
22.38
19.99
14.21
5.87
-3.26
-10.97
-15.21
-14.65
-9.05
0.69
12.65
24.4
33.51
38.29
38.26
34.35
28.57
23.4
20.99
22.52
27.86
35.81
44.5
52.04
56.97
58.63
57.18
53.5
48.93
44.9
42.55
42.46
44.43
47.5
50.15
50.61
47.41
39.73
27.78
12.86
-2.89
-17.05
-27.6
-33.46
-34.75
-32.44
-27.91
-22.34
-16.57
-11.09
-6.41
-3.17
-2.13
-3.89
-8.67
-16.26
-26.05
-37.16
-48.33
-57.99
-64.52
-66.75
-64.63
-59.48
-53.7
-49.86
-49.74
-53.84
-61.56
-71.84
-83.74
-96.6
-109.77
-122.24
-132.61
-139.51
-142.29
-141.31
-137.89
-133.7
-130.17
-128.03
-127.32
-127.72
-128.8
-130.24
-131.71
-132.73
-132.6
-130.6
-126.28
-119.72
-111.65
-103.23
-95.74
-90.22
-87.28
-87.01
-89.02
-92.34
-95.46
-96.34
-92.83
-83.22
-66.85
-44.53
-18.34
8.92
34.53
56.57
74.23
87.75
98.03
106.17
113.06
119.24
124.83
129.66
133.35
135.5
135.73
133.69
129.21
122.3
113.35
103.07
92.32
81.75
71.59
61.45
50.67
38.65
25.11
10.15
-5.92
-22.84
-40.3
-57.69
-73.84
-86.95
-95.13
-97.07
-92.59
-82.66
-68.92
-52.92
-35.62
-17.35
1.85
21.86
42.28
62.57
82.2
100.62
116.97
129.95
138
140.04
136.29
128.66
120.47
115.31
115.72
122.35
133.9
147.78
161.19
171.95
178.89
181.72
180.61
175.87
167.68
156.17
141.47
123.8
103.47
80.66
55.38
27.32
-3.81
-37.88
-73.79
-109.36
-141.57
-167.41
-184.9
-193.71
-195.31
-192.25
-187.27
-182.36
-178.46
-175.6
-173.43
-171.77
-170.78
-170.82
-172.07
-174.2
-176.27
-177.01
-175.27
-170.47
-162.79
-153.02
-142.32
-131.79
-122.27
-114.22
-107.86
-103.32
-100.66
-99.77
-100.22
-101.28
-102.04
-101.81
-100.35
-98.01
-95.43
-93.04
-90.66
-87.39
-81.94
-73.2
-60.93
-45.94
-29.96
-14.97
-2.46
7.04
14.05
19.66
24.92
30.37
35.84
40.73
44.45
46.83
48.19
49.2
50.49
52.28
54.4
56.48
58.26
59.81
61.56
63.92
67.02
70.38
73.01
73.78
71.9
67.35
60.9
53.94
48.02
44.35
43.63
45.88
50.6
56.8
63.14
68.09
70.1
68
61.49
51.39
39.51
28.1
18.89
12.51
8.38
5.27
2.1
-1.42
-4.73
-7.02
-7.86
-7.61
-7.22
-7.66
-9.33
-11.86
-14.43
-16.28
-17.14
-17.2
-16.92
-16.64
-16.43
-15.99
-14.76
-12.02
-7
0.97
12.2
26.38
42.34
58.2
71.75
81.07
85.21
84.5
80.31
74.6
69.17
65.17
62.94
62.08
61.75
60.86
58.21
52.71
43.52
30.36
13.66
-5.58
-26.07
-46.6
-66.11
-83.79
-98.73
-109.83
-115.92
-116.06
-109.96
-98.16
-81.89
-62.63
-41.74
-20.04
2.14
24.8
47.92
71.27
94.33
116.43
136.86
154.99
170.15
181.59
188.5
190.23
186.7
178.66
167.81
156.38
146.63
140.15
137.42
137.74
139.59
141.18
140.95
138.09
132.7
125.79
119.01
114.19
112.84
115.73
122.62
132.38
143.34
153.95
163.19
170.84
177.11
182.06
184.86
183.73
176.43
161.24
137.89
107.76
73.52
38.06
3.87
-27.31
-54.29
-76.04
-91.63
-100.47
-102.81
-100.09
-94.85
-90.2
-88.97
-92.95
-102.36
-115.79
-130.63
-143.87
-153.09
-157.23
-156.94
-154.33
-152.28
-153.42
-159.48
-170.84
-186.68
-205.27
-224.37
-241.7
-255.15
-263.13
-264.63
-259.57
-248.82
-234.11
-217.71
-201.76
-187.72
-176.04
-166.4
-158.41
-152.2
-148.68
-148.81
-152.69
-158.67
-163.49
-163.34
-155.55
-139.79
-118.38
-95.27
-74.33
-57.98
-46.6
-39.14
-34.21
-31.03
-29.72
-30.82
-34.57
-40.42
-47.08
-53.12
-57.59
-60.3
-61.47
-61.19
-58.85
-53.19
-42.85
-27.33
-7.52
14.31
35.28
52.91
65.89
74.3
79.21
82.03
83.92
85.53
87.12
88.7
90.29
91.94
93.65
95.26
96.51
97.1
96.8
95.5
93.25
90.11
86.09
81.19
75.42
69.02
62.43
56.26
51.1
47.13
44
40.83
36.46
29.94
21.02
10.48
0.06
-7.99
-11.63
-9.75
-2.56
8.58
21.66
34.79
46.67
56.79
65.14
71.85
76.88
80.08
81.39
81.11
80.01
79
78.82
79.59
80.81
81.52
80.76
77.98
73.22
67.06
60.25
53.42
46.85
40.45
33.91
27.01
19.76
12.45
5.6
-0.35
-5.25
-9.37
-13.37
-18.04
-24.08
-31.78
-40.87
-50.47
-59.19
-65.36
-67.5
-64.78
-57.31
-46.23
-33.31
-20.42
-8.95
0.43
7.71
13.18
17.1
19.59
20.7
20.72
20.19
19.86
20.42
22.13
24.74
27.53
29.61
30.29
29.3
26.88
23.66
20.34
17.44
15.06
12.94
10.59
7.57
3.72
-0.75
-5.35
-9.53
-12.9
-15.43
-17.43
-19.49
-22.24
-26.19
-31.54
-38.03
-44.89
-50.87
-54.39
-54
-48.83
-39
-25.71
-10.94
3.12
14.74
23.1
28.33
31.28
33
34.41
36.14
38.49
41.65
45.68
50.51
55.78
60.87
64.89
67.01
66.73
64.01
59.34
53.43
46.98
40.36
33.51
26.1
17.53
7.19
-5.53
-20.75
-38.23
-57.5
-78.06
-99.47
-121.29
-143.15
-164.82
-186.2
-206.89
-226.07
-242.33
-253.74
-258.26
-254.05
-240.74
-219.85
-194.82
-169.22
-145.76
-125.55
-108.29
-92.87
-77.54
-61.38
-44.5
-28.37
-13.4
0.69
14.3
27.25
38.82
49.88
61.17
73.01
83.56
92.47
99.96
106.48
112
116.62
123.4
135.28
153.87
176.76
203.64
234.79
270.39
308.93
347.97
387.97
428.69
468.13
499.77
521.08
532.17
535.24
532.19
504.73
444.52
356.88
277.87
216.62
173.01
139.08
111.38
86.69
61.74
36.56
10.67
-18.18
-56.36
-104.99
-160.33
-214.26
-258.02
-285
-291.21
-279.65
-259.67
-245.08
-243.15
-253.58
-269.88
-284.55
-292.45
-290.96
-281.12
-265.97
-249.95
-234.26
-218.48
-202.17
-186.49
-173.44
-164
-157.86
-153.43
-148.94
-141.61
-129.15
-110.74
-87.79
-63.27
-40.37
-21.53
-7.69
1.59
8.31
14.75
22.42
31.37
40.4
47.93
52.88
55.12
55.36
54.72
54.07
53.76
53.59
52.94
51.12
47.51
41.79
33.95
24.34
13.61
2.54
-8.08
-17.75
-26.41
-34.44
-42.6
-51.85
-63.18
-77.55
-95.6
-117.46
-142.42
-168.54
-192.8
-211.39
-220.63
-217.82
-202.07
-174.46
-137.77
-95.84
-52.67
-11.88
23.78
52.59
74
88.65
98.24
105.27
112.48
122.18
135.79
153.48
174.22
196.14
217.07
235.03
248.53
256.63
258.96
255.49
246.57
232.89
215.5
195.78
175.2
154.94
135.52
116.53
96.8
74.85
49.61
20.98
-9.92
-41.09
-70.28
-95.75
-116.82
-133.98
-148.55
-162.07
-175.69
-189.68
-203.47
-215.89
-225.63
-231.61
-233.12
-229.95
-222.25
-210.68
-196.42
-181.14
-166.78
-155.08
-147.08
-142.84
-141.55
-141.95
-142.85
-143.49
-143.52
-142.75
-140.88
-137.25
-130.87
-120.71
-106.16
-87.49
-66.05
-44.19
-24.42
-8.55
3.02
11.42
18.71
26.93
37.18
49.41
62.81
76.45
89.85
103.01
116.15
129.25
141.79
152.86
161.38
166.44
167.54
164.83
159.07
151.58
143.94
137.47
132.76
129.39
126.12
121.41
114.25
104.58
93.36
82.14
72.3
64.43
58.15
52.24
45.06
35.04
20.9
1.89
-22.07
-50.3
-81.13
-112.05
-139.98
-161.8
-175.08
-178.54
-172.4
-158.32
-139.06
-117.79
-97.24
-79
-63.17
-48.56
-33.43
-16.36
3.16
24.66
47.17
69.76
91.9
113.46
134.48
154.88
174.43
192.83
209.67
224.33
235.83
242.97
244.86
241.32
233.11
221.5
207.45
191.1
171.83
149.07
123.14
95.73
69.47
46.82
29.05
15.75
5.26
-4.3
-14.3
-25.25
-37.15
-49.92
-63.64
-78.31
-93.56
-108.39
-121.49
-131.59
-138.01
-140.84
-140.86
-139.1
-136.41
-133.25
-129.6
-125.26
-119.99
-113.85
-107.19
-100.7
-95.22
-91.45
-89.64
-89.4
-89.88
-89.99
-88.94
-86.4
-82.61
-78.07
-73.24
-68.35
-63.43
-58.61
-54.35
-51.42
-50.55
-51.82
-54.37
-56.46
-56.17
-52.2
-44.57
-34.66
-24.63
-16.51
-11.5
-9.72
-10.49
-12.95
-16.39
-20.34
-24.18
-26.83
-26.79
-22.56
-13.36
0.4
16.96
33.71
47.89
57.38
61.22
59.67
53.93
45.66
36.51
27.68
19.77
12.75
5.99
-1.53
-11.18
-24.37
-42.22
-65.02
-91.61
-119.18
-143.57
-160.37
-166.21
-159.99
-143.22
-119.54
-93.53
-69.3
-49.4
-34.57
-24.1
-16.65
-11
-6.53
-3.13
-0.87
0.41
1.29
2.81
6.15
12.42
22.32
35.95
52.63
70.83
88.36
102.84
112.24
115.37
112.17
103.69
91.81
79.01
68.01
61.36
60.79
66.53
76.91
88.78
98.71
104.43
105.74
104.33
102.64
102.64
105.1
109.67
115.61
122.39
129.49
135.81
139.05
135.84
123.16
100.16
69.41
36.49
7.9
-11.52
-20.28
-20.34
-15.49
-9.16
-3.08
2.85
9.27
16.02
21.63
24.04
22.05
16.33
9.44
4.62
4.44
9.63
18.88
29.53
38.64
44.01
44.76
41.46
35.66
29.23
23.72
19.85
17.38
15.39
12.89
9.46
5.58
2.28
0.68
1.32
3.86
7.17
9.84
10.83
9.92
7.79
5.59
4.34
4.46
5.48
6.3
5.73
3.06
-1.66
-7.73
-14.27
-20.76
-27.19
-33.91
-41.24
-49.12
-57.12
-64.81
-71.96
-78.62
-84.88
-90.54
-94.89
-96.85
-95.54
-90.77
-83.19
-73.99
-64.34
-54.98
-46.18
-38.04
-30.75
-24.57
-19.52
-15.06
-10.07
-3.39
5.49
16.02
26.84
36.53
44.32
50.38
55.38
59.74
63.12
64.52
62.85
57.57
48.81
37.13
23.09
7.11
-10.21
-27.74
-43.63
-55.68
-62.08
-62.13
-56.44
-46.5
-33.93
-19.91
-5
10.53
26.29
41.6
55.7
68.11
78.93
88.7
98.14
107.76
117.63
127.43
136.64
144.65
150.9
154.82
155.93
154.01
149.21
142.14
133.71
124.83
116.17
107.89
99.7
90.92
80.63
67.99
52.47
34.16
13.93
-6.65
-25.58
-41.02
-51.77
-57.55
-58.92
-57.01
-53.04
-47.96
-42.32
-36.32
-30.05
-23.61
-17.31
-11.6
-6.91
-3.56
-1.53
-0.58
-0.31
-0.41
-0.71
-1.22
-1.96
-2.78
-3.28
-2.92
-1.32
1.33
4.1
5.64
4.73
0.84
-5.63
-13.74
-22.58
-31.76
-41.37
-51.5
-61.77
-71.15
-78.37
-82.42
-83.06
-80.72
-76.13
-69.83
-62.02
-52.73
-42.19
-31.06
-20.4
-11.31
-4.5
-0.14
2.09
2.67
1.95
-0.12
-3.93
-10.05
-18.94
-30.44
-43.56
-56.3
-66.05
-70.38
-68.07
-59.85
-48.38
-37.37
-30.13
-28.31
-31.35
-37.07
-42.84
-46.66
-47.46
-44.86
-38.57
-28.31
-14.2
2.74
20.44
36.34
48.41
55.72
58.62
58.11
55.12
50.13
43.25
34.78
25.45
16.41
8.73
2.97
-1.03
-3.95
-6.56
-9.36
-12.43
-15.6
-18.66
-21.5
-24.1
-26.39
-28.27
-29.69
-30.75
-31.82
-33.38
-35.72
-38.67
-41.45
-42.89
-41.86
-37.8
-30.97
-22.35
-13.27
-4.89
2.16
7.85
12.55
16.58
20.01
22.6
23.94
23.81
22.4
20.33
18.42
17.34
17.32
18.02
18.69
18.52
17.01
14.1
10.16
5.75
1.38
-2.68
-6.37
-9.76
-12.94
-16
-19.01
-22.01
-24.97
-27.66
-29.55
-30
-28.42
-24.57
-18.68
-11.45
-3.77
3.53
9.89
15.1
19.21
22.41
24.95
27.01
28.69
30.02
30.94
31.42
31.56
31.57
31.73
32.27
33.25
34.61
36.17
37.73
39.17
40.36
41.14
41.21
40.21
37.81
33.86
28.55
22.32
15.82
9.73
4.6
0.89
-1.18
-1.53
-0.29
2.23
5.5
8.93
11.9
13.96
14.93
14.91
14.19
13.11
11.96
10.87
9.91
9.12
8.56
8.28
8.22
8.17
7.68
6.18
3.13
-1.69
-8.06
-15.31
-22.53
-28.95
-34.2
-38.45
-42.16
-45.88
-49.93
-54.39
-59.23
-64.55
-70.69
-78.02
-86.71
-96.25
-105.39
-112.27
-115.07
-112.59
-104.81
-92.97
-79.18
-65.73
-54.31
-45.67
-39.54
-35.16
-31.79
-29.04
-26.92
-25.56
-24.91
-24.57
-24.01
-22.74
-20.63
-17.95
-15.22
-12.95
-11.45
-10.75
-10.66
-10.97
-11.54
-12.27
-13.11
-13.92
-14.53
-14.84
-14.93
-15.22
-16.31
-18.81
-22.88
-28.03
-33.01
-36.14
-35.76
-30.78
-21.06
-7.46
8.47
24.92
40.26
53.36
63.67
71.1
75.91
78.58
79.65
79.62
78.78
77.16
74.53
70.66
65.48
59.3
52.7
46.33
40.59
35.46
30.65
25.8
20.83
15.94
11.53
7.98
5.45
3.81
2.69
1.61
0.03
-2.51
-6.32
-11.42
-17.36
-23.25
-27.88
-30.08
-29.08
-24.82
-17.93
-9.56
-1.01
6.55
12.31
15.76
16.73
15.31
11.94
7.36
2.54
-1.6
-4.42
-5.81
-6.14
-5.98
-5.79
-5.75
-5.65
-5.27
-4.55
-3.75
-3.31
-3.63
-4.71
-6.11
-7.09
-6.95
-5.29
-2.23
1.74
5.91
9.64
12.44
13.95
14.02
12.76
10.63
8.51
7.48
8.43
11.59
16.36
21.44
25.39
27.15
26.45
23.75
20.03
16.34
13.41
11.5
10.35
9.39
8.01
5.92
3.3
0.8
-0.82
-1.07
-0.08
1.37
1.96
-0.04
-6.57
-19.4
-39.45
-65.95
-95.82
-123.97
-144.59
-153.07
-147.68
-130.21
-105.07
-77.68
-52.61
-32.44
-17.61
-6.76
2.55
13.34
28.51
50.23
79.21
114.35
152.82
190.78
224.43
250.96
269.18
279.64
284.22
285.25
284.58
282.76
278.74
270.28
254.93
231.09
198.65
159.02
114.51
67.77
21.45
-21.62
-58.38
-85.87
-102.17
-107.3
-103.62
-95.07
-85.57
-77.56
-71.35
-65.78
-59.64
-52.84
-46.79
-43.54
-44.51
-49.59
-57.14
-64.81
-70.77
-74.45
-76.61
-78.81
-82.58
-88.81
-97.43
-107.68
-118.49
-129.01
-138.87
-148.17
-157.23
-166.28
-175.21
-183.54
-190.52
-195.39
-197.63
-197.07
-193.87
-188.51
-181.56
-173.56
-164.93
-155.85
-146.32
-136.16
-125.13
-112.85
-98.97
-83.28
-65.99
-47.95
-30.66
-16.13
-6.33
-2.61
-5.11
-12.54
-22.36
-31.43
-36.93
-37.1
-31.74
-21.99
-9.79
2.89
14.71
25.07
33.93
41.23
46.73
50.05
51.1
50.48
49.48
49.57
51.72
55.95
61.26
66.16
69.4
70.43
69.47
67.13
63.93
59.94
54.91
48.64
41.38
33.88
27.19
22.08
18.69
16.44
14.31
11.4
7.32
2.34
-2.79
-7.02
-9.31
-8.7
-4.48
3.62
15.05
28.4
41.54
52.42
59.83
63.9
65.87
67.26
68.97
70.72
71.39
69.84
65.77
60.08
54.52
50.79
49.8
51.31
54.35
57.94
61.72
66.22
72.41
81.16
92.68
106.52
121.81
137.57
152.72
165.88
175.24
178.81
175.18
164.32
148.02
129.53
112.52
99.94
93.05
91.33
92.82
94.95
95.31
92.28
85.3
74.85
62.14
48.47
34.63
20.64
5.85
-10.5
-28.7
-48.11
-67.06
-83.19
-94.26
-99.07
-98.1
-93.51
-88.35
-85.28
-85.41
-87.96
-90.76
-91.54
-89.03
-83.64
-77.08
-71.55
-68.66
-68.75
-70.8
-72.88
-72.93
-69.46
-61.96
-50.74
-36.3
-18.89
1.5
24.7
49.87
75.54
100.18
122.84
143.28
161.28
175.86
185.26
187.75
183.06
173.09
161.27
150.89
143.34
137.53
130.7
120.21
105.06
86.4
67
50.17
38.85
34.82
38.31
47.89
60.7
73.14
81.93
84.96
81.53
71.93
56.68
36.04
10.16
-20.37
-54.12
-88.74
-121.55
-150.36
-174.09
-192.96
-208.12
-221.06
-233.15
-245.34
-258.09
-271.32
-284.16
-294.81
-300.74
-299.55
-290.03
-272.91
-250.88
-227.71
-207
-191.19
-180.98
-175.58
-173.27
-172.02
-170.06
-166.46
-161.42
-156.13
-152.09
-149.95
-148.58
-145.11
-136.05
-118.9
-93.16
-60.43
-23.44
14.78
51.35
83.57
109.09
126.55
136.32
140.73
142.86
144.8
146.14
144.15
135.67
119.64
98.48
77.38
61.88
55.1
56.51
62.71
69.74
74.85
77.19
77.11
74.75
69.32
59.33
43.82
23.62
1.82
-17
-28.49
-30.51
-24.3
-14.04
-5.18
-2.1
-6.34
-16.21
-27.86
-37.2
-41.68
-40.93
-36.31
-29.79
-22.77
-15.73
-8.49
-0.8
7.11
14.44
20.13
23.47
24.56
24.43
24.85
27.57
33.6
42.73
53.53
64.04
72.53
78.17
81.1
81.99
81.37
79.23
75.13
68.58
59.67
49.09
38
27.46
17.91
9.06
0.15
-9.56
-20.35
-31.9
-43.36
-53.57
-61.35
-65.76
-66.29
-62.92
-56.1
-46.59
-35.29
-22.95
-10.07
3.17
16.69
30.44
44.19
57.69
70.62
82.54
92.62
99.49
101.29
96.22
83.35
63.31
38.61
13.17
-8.61
-23.1
-28.56
-25.45
-15.94
-2.87
11.39
25.51
39.01
51.59
62.52
70.49
74.04
72.24
65.16
53.72
39.29
23.01
5.62
-12.47
-30.82
-48.62
-64.8
-78.2
-88.02
-93.84
-95.55
-93.19
-86.83
-76.61
-62.97
-46.78
-29.4
-12.45
2.54
14.49
23.05
28.44
31.16
31.6
30.05
26.84
22.67
18.58
15.7
14.72
15.62
17.68
19.87
21.32
21.66
20.96
19.54
17.63
15.27
12.43
9.14
5.68
2.37
-0.43
-2.71
-4.83
-7.48
-11.5
-17.46
-25.42
-34.65
-43.84
-51.48
-56.37
-58.03
-56.81
-53.55
-49.24
-44.55
-39.87
-35.42
-31.45
-28.26
-26.13
-25.15
-25.04
-25.27
-25.26
-24.7
-23.58
-22.2
-20.91
-19.91
-19
-17.67
-15.34
-11.63
-6.67
-1.19
3.69
6.68
6.65
2.89
-4.77
-15.99
-29.89
-45.21
-60.41
-74.01
-84.96
-92.76
-97.46
-99.37
-98.71
-95.36
-88.89
-78.86
-65.21
-48.54
-30.22
-12.14
3.72
15.82
23.5
27.08
27.69
26.78
25.6
24.96
25.24
26.75
30.08
36.15
45.8
59.23
75.53
92.9
109.27
123.3
134.97
145.43
156.3
168.52
181.69
194.08
203.48
208.28
208.22
204.36
198.34
191.29
183.23
173.02
159.05
139.91
114.97
84.39
49.14
11.17
-26.47
-59.58
-83.49
-94.49
-91.44
-76.57
-54.89
-32.45
-14.33
-3.38
-0.06
-3.19
-10.95
-21.41
-32.67
-42.8
-49.99
-53.12
-52.29
-49.06
-45.91
-45.39
-49.05
-56.94
-67.55
-78.3
-86.48
-90.17
-88.88
-83.78
-77.1
-71.14
-67.43
-66.24
-66.76
-67.54
-67.15
-64.67
-59.93
-53.47
-46.43
-40.24
-36.18
-35.02
-36.58
-39.76
-42.77
-43.74
-41.27
-34.82
-24.79
-12.22
1.5
15.03
27.32
37.75
46.19
52.88
58.41
63.42
68.3
73.07
77.25
80.04
80.59
78.27
72.91
64.87
54.99
44.57
35.15
28.21
24.65
24.49
26.62
29.14
30.03
27.96
22.76
15.35
7.13
-0.84
-8.39
-16.17
-25.18
-36
-48.4
-61.35
-73.56
-84.02
-92.36
-98.84
-103.95
-108.01
-110.88
-112.08
-111.08
-107.58
-101.8
-94.33
-85.9
-77.11
-68.26
-59.44
-50.69
-42.08
-33.68
-25.35
-16.55
-6.39
6.12
21.76
40.78
62.76
86.61
110.61
132.57
150.08
160.93
163.7
158.18
145.48
127.66
106.94
84.94
62.29
38.8
14.04
-12.07
-38.97
-65.52
-90.34
-112.05
-129.51
-142.03
-149.47
-152.39
-151.92
-149.47
-146.38
-143.46
-140.88
-138.36
-135.49
-132.01
-127.9
-123.2
-117.76
-111.09
-102.49
-91.33
-77.5
-61.54
-44.65
-28.17
-13.05
0.76
14.43
29.85
48.79
72.24
99.87
130.25
161.31
190.98
217.45
239.52
256.44
268.03
274.53
276.56
274.81
269.79
261.69
250.51
236.41
220.11
202.94
186.54
172.28
160.64
150.95
141.49
130.06
114.7
94.36
69.33
41.27
12.72
-13.56
-35.45
-51.81
-62.59
-68.5
-70.64
-70.2
-68.3
-65.92
-63.89
-62.7
-62.55
-63.38
-65.01
-67.29
-70.01
-72.87
-75.32
-76.69
-76.46
-74.5
-71.13
-66.91
-62.25
-57.2
-51.56
-45.21
-38.49
-32.16
-27.2
-24.3
-23.57
-24.6
-26.72
-29.3
-31.91
-34.13
-35.45
-35.16
-32.56
-27.25
-19.51
-10.24
-0.7
7.92
14.97
20.55
25.4
30.49
36.56
43.7
51.18
57.65
61.4
60.89
55.12
43.78
27.38
7.1
-15.44
-38.46
-60.46
-80.63
-99
-116.39
-133.93
-152.39
-171.5
-189.71
-204.5
-213.14
-213.63
-205.24
-188.64
-165.47
-137.74
-107.4
-76.12
-45.5
-16.97
8.19
29.17
45.89
58.91
69.22
77.76
85.17
91.63
97.06
101.23
103.96
105.27
105.42
104.86
104.14
103.64
103.32
102.61
100.56
96.25
89.25
79.84
69.05
58.21
48.56
40.79
34.91
30.24
25.67
20.07
12.6
2.99
-8.42
-20.86
-33.49
-45.7
-57.2
-68.05
-78.48
-88.82
-99.52
-111.21
-124.55
-139.9
-156.97
-174.61
-191.06
-204.39
-213.1
-216.42
-214.32
-207.12
-195.26
-179.04
-158.64
-134.37
-106.72
-76.47
-44.66
-12.55
18.46
47.01
71.96
92.68
109.06
121.42
130.21
135.79
138.46
138.56
136.68
133.62
130.12
126.52
122.48
117.03
108.95
97.35
82.09
63.93
44.08
23.66
3.01
-18.43
-41.83
-68.27
-97.86
-129.28
-159.71
-185.42
-202.58
-208.3
-201.19
-181.65
-151.59
-114.04
-72.52
-30.55
8.68
42.67
69.83
89.66
102.8
110.82
115.66
119.06
121.99
124.42
125.54
124.15
119.18
109.93
96.3
78.77
58.44
37.1
17.1
0.96
-9.24
-12.42
-8.95
-0.48
10.67
22.32
33.12
42.84
52.06
61.62
71.88
82.51
92.56
101.02
107.31
111.53
114.29
116.23
117.54
117.88
116.56
113.09
107.5
100.41
92.66
84.86
77.01
68.62
59.03
47.89
35.41
22.14
8.59
-5.21
-19.93
-36.57
-55.91
-77.88
-101.39
-124.64
-145.79
-163.57
-177.65
-188.47
-196.84
-203.61
-209.46
-214.95
-220.71
-227.57
-236.35
-247.57
-260.99
-275.27
-288.09
-296.65
-298.42
-291.93
-277.16
-255.49
-229.15
-200.47
-171.27
-142.64
-115.09
-88.86
-64.19
-41.39
-20.65
-1.99
14.88
30.37
44.78
58.12
69.94
79.45
85.83
88.59
87.83
84.25
78.94
72.94
67.02
61.45
56.07
50.46
44.18
36.95
28.79
20.13
11.81
4.97
0.75
-0.01
2.79
8.55
16.1
24.15
31.77
38.54
44.54
49.97
54.81
58.69
61
61.26
59.51
56.41
53.07
50.58
49.61
50.17
51.63
52.94
53.07
51.27
47.29
41.38
34.14
26.36
18.73
11.79
5.76
0.54
-4.28
-9.39
-15.55
-23.21
-32.23
-41.67
-49.91
-55.17
-56.14
-52.48
-44.9
-34.75
-23.49
-12.18
-1.31
9.12
19.34
29.7
40.54
52.2
64.94
78.82
93.64
108.97
124.27
139.09
153.21
166.65
179.65
192.55
205.55
218.64
231.41
242.97
252.1
257.5
258.21
253.87
244.85
231.94
216.05
197.72
176.82
152.65
124.17
90.46
51.22
7.16
-39.99
-87.59
-132.66
-172.45
-204.92
-229.1
-244.99
-253.36
-255.37
-252.3
-245.28
-235.28
-223.08
-209.41
-194.94
-180.29
-165.97
-152.15
-138.72
-125.31
-111.54
-97.3
-82.91
-68.99
-56.22
-45.03
-35.37
-26.88
-19.15
-11.99
-5.55
-0.22
3.69
6.03
6.98
6.86
6.01
4.58
2.58
-0.05
-3.38
-7.5
-12.52
-18.63
-26.05
-34.67
-43.79
-51.92
-56.96
-56.76
-49.84
-36.15
-17.22
4.06
24.25
40.44
51.08
56.24
57.47
56.95
56.75
58.27
62.06
68.03
75.74
84.7
94.41
104.31
113.71
121.83
128.04
131.89
133.22
131.96
128.09
121.52
112.23
100.43
86.76
72.29
58.23
45.59
34.68
24.97
15.31
4.45
-8.34
-22.84
-37.85
-51.69
-62.77
-70.2
-74.06
-75.21
-74.97
-74.61
-75.04
-76.62
-79.04
-81.28
-81.85
-79.13
-71.9
-59.86
-43.72
-25.05
-5.65
13.02
30.16
45.6
59.44
71.68
82.06
90.24
96.03
99.67
101.68
102.64
102.81
102.04
99.86
95.82
89.8
82.15
73.52
64.64
55.99
47.7
39.6
31.4
22.9
14.05
4.98
-4.02
-12.62
-20.54
-27.52
-33.53
-38.67
-43.24
-47.66
-52.36
-57.72
-63.82
-70.39
-76.63
-81.41
-83.39
-81.49
-75.19
-64.8
-51.28
-36.05
-20.47
-5.6
7.96
20
30.47
39.39
46.8
52.76
57.39
60.87
63.38
64.96
65.5
64.77
62.52
58.58
53.05
46.25
38.62
30.55
22.16
13.28
3.49
-7.67
-20.45
-34.78
-50.16
-65.62
-79.84
-91.22
-98.25
-99.92
-96.15
-87.92
-77.04
-65.53
-54.93
-45.91
-38.28
-31.56
-25.58
-20.84
-18.29
-18.7
-22.1
-27.42
-32.86
-36.42
-36.55
-32.46
-24.21
-12.41
1.99
17.97
34.4
50.17
64.14
75.42
83.49
88.45
91
92.3
93.7
96.34
100.84
107.19
114.7
122.39
129.21
134.39
137.52
138.45
137.22
133.81
128.17
120.27
110.18
98.21
84.86
70.77
56.45
42.26
28.32
14.65
1.3
-11.59
-23.75
-34.93
-44.91
-53.7
-61.49
-68.66
-75.76
-83.33
-91.6
-100.28
-108.42
-114.59
-117.35
-115.84
-110.2
-101.63
-91.95
-83.02
-76.1
-71.65
-69.43
-68.75
-68.82
-68.91
-68.38
-66.66
-63.3
-58.09
-51.13
-42.81
-33.66
-24.18
-14.65
-5.2
4.17
13.35
22.06
29.87
36.38
41.31
44.68
46.7
47.76
48.13
47.92
46.95
44.89
41.49
36.75
31.02
24.88
18.91
13.48
8.62
4.11
-0.37
-5.14
-10.42
-16.28
-22.62
-29.06
-34.86
-38.96
-40.23
-37.85
-31.71
-22.49
-11.5
-0.16
10.44
19.76
27.74
34.53
40.23
44.84
48.28
50.63
52.1
52.96
53.39
53.26
52.21
49.77
45.66
39.94
33.07
25.67
18.29
11.04
3.58
-4.77
-14.6
-26.01
-38.4
-50.59
-61.23
-69.23
-74.07
-75.87
-75.26
-73.15
-70.59
-68.56
-67.74
-68.29
-69.56
-70.32
-69.15
-65.09
-58.2
-49.55
-40.69
-32.93
-26.68
-21.43
-16.22
-10.32
-3.64
3.22
9.4
14.29
17.84
20.49
22.87
25.46
28.36
31.27
33.65
35.04
35.35
35.13
35.57
38.22
44.52
55.27
70.19
87.97
106.56
123.79
137.96
148.08
153.74
154.63
150.13
139.16
120.49
93.21
57.12
12.99
-37.59
-92.42
-148.59
-202.38
-249.14
-283.59
-300.77
-297.35
-272.74
-229.56
-173.06
-109.9
-46.71
10.97
59.05
94.84
116.71
124.2
118.11
100.66
75.4
46.57
18.11
-7.38
-29.17
-48.29
-66.68
-86.03
-106.81
-127.99
-147.16
-161.36
-168.14
-166.5
-157.35
-143.15
-126.8
-110.43
-94.52
-78.28
-60.7
-41.9
-23.64
-8.7
0.78
4.67
5.18
5.78
9.2
16.09
24.97
33.42
39.74
43.98
47.68
52.63
59.7
68.17
76.17
81.73
83.67
82.07
77.88
72.31
66.34
60.47
54.86
49.53
44.36
38.95
32.42
23.47
10.74
-6.53
-27.85
-51.2
-73.22
-89.99
-98.2
-96.22
-84.83
-67.01
-47
-29.04
-16.2
-9.79
-9.48
-13.88
-21.08
-29.11
-36.18
-40.71
-41.48
-37.8
-29.61
-17.52
-2.73
13.01
27.5
38.27
43.23
41.44
33.67
22.33
10.62
1.36
-4
-5.8
-5.81
-6.34
-9.23
-15.15
-23.35
-32.02
-38.87
-41.91
-40
-33.15
-22.18
-8.36
7.05
23.05
38.93
54.08
67.79
79.28
87.74
92.68
94.16
92.8
89.74
86.28
83.46
81.77
81.1
80.88
80.54
79.65
78.09
75.91
73.19
70.02
66.36
61.87
55.76
46.89
34.23
17.63
-1.71
-21.43
-38.8
-51.82
-59.93
-64.2
-66.55
-68.74
-71.49
-74.26
-75.78
-74.78
-70.81
-64.46
-57.04
-49.92
-43.94
-39.05
-34.51
-29.43
-23.35
-16.42
-9.23
-2.33
4.14
10.4
16.8
23.38
29.78
35.29
39.2
41.11
41.07
39.56
37.23
34.63
32.03
29.4
26.59
23.54
20.37
17.48
15.26
13.99
13.54
13.4
12.73
10.65
6.53
0.4
-6.86
-13.58
-17.68
-17.31
-11.66
-1.37
11.57
24.56
35.37
42.95
47.69
51
54.47
59.17
65.41
72.85
80.83
88.64
95.68
101.4
105.37
107.43
107.79
107.06
105.98
105.05
104.29
103.15
100.67
95.88
88.14
77.38
64.18
49.58
34.92
21.49
10.31
1.91
-3.65
-6.7
-7.83
-7.85
-7.68
-8.13
-9.68
-12.09
-14.38
-14.97
-12.33
-5.7
4.48
16.51
27.96
36.28
39.43
36.23
26.43
10.58
-10.06
-33.7
-58.16
-81.15
-100.45
-114.25
-121.29
-121.06
-113.91
-101.14
-84.88
-67.78
-52.39
-40.44
-32.47
-27.75
-24.85
-22.3
-19.24
-15.63
-11.93
-8.77
-6.46
-4.88
-3.68
-2.59
-1.67
-1.34
-2.08
-3.87
-5.93
-6.78
-4.72
1.35
11.4
24.3
38.34
51.97
64.48
75.92
86.82
97.48
107.76
117.08
124.77
130.43
133.96
135.31
134.15
129.79
121.36
108.37
91.16
71.04
50.02
30.07
12.45
-2.91
-17.16
-31.92
-48.33
-66.36
-84.8
-101.85
-116.05
-126.96
-135.16
-141.68
-147.12
-151.15
-152.62
-150.32
-143.72
-133.38
-120.52
-106.31
-91.18
-74.88
-57.15
-38.46
-20.37
-4.94
6.34
13.56
18.42
23.32
29.93
38.16
46.38
52.49
55.38
55.63
55.14
55.99
59.21
64.36
69.93
74.26
76.25
75.6
72.41
66.75
58.47
47.5
34.19
19.59
5.15
-7.71
-18.14
-25.89
-31.24
-34.43
-35.35
-33.56
-28.63
-20.58
-10.25
0.86
11.08
19.23
25.03
29.12
32.49
35.88
39.23
41.76
42.31
40.07
34.91
27.54
19.19
11.15
4.44
-0.33
-2.77
-2.64
0.14
5.2
11.26
15.94
16.01
8.31
-9.06
-35.71
-68.75
-103.53
-135.07
-159.52
-174.94
-181.26
-179.63
-171.8
-159.87
-146.33
-134.01
-125.54
-122.36
-123.89
-127.36
-128.79
-124.64
-113.23
-95.28
-73.3
-50.38
-29.05
-10.81
3.77
14.61
21.8
25.63
26.7
25.98
24.55
23.31
22.74
22.86
23.43
24.14
24.74
24.96
24.62
23.51
21.65
19.36
17.18
15.84
15.9
17.56
20.65
24.61
28.66
31.95
33.72
33.61
31.94
29.91
29.55
33.13
42.24
56.75
74.37
91.16
102.94
106.95
102.9
92.91
80.36
68.39
58.93
52.48
48.71
47.12
47.33
49.02
51.63
54.39
56.46
57.45
57.49
57.16
57.14
57.93
59.74
62.64
66.56
71.28
76.24
80.51
82.92
82.51
78.85
72.26
63.56
53.71
43.45
33.16
23.06
13.4
4.71
-2.3
-7.09
-9.59
-10.35
-10.38
-10.7
-11.97
-14.25
-17.13
-20.03
-22.6
-24.84
-27.21
-30.36
-34.89
-41.03
-48.5
-56.42
-63.57
-68.61
-70.56
-69.13
-64.88
-59.06
-53.13
-48.2
-44.66
-42.17
-39.98
-37.4
-34.2
-30.65
-27.3
-24.63
-22.7
-21.2
-19.62
-17.6
-15.12
-12.48
-10.02
-7.92
-6.05
-4.05
-1.57
1.5
4.87
8
10.33
11.46
11.29
9.92
7.58
4.44
0.73
-3.23
-6.92
-9.76
-11.2
-11.04
-9.5
-7.17
-4.83
-3.13
-2.38
-2.43
-2.66
-2.16
0.09
4.8
12.14
21.54
31.81
41.51
49.39
54.78
57.69
58.61
58.15
56.69
54.28
50.72
45.86
39.75
32.8
25.68
19.11
13.69
9.72
7.16
5.68
4.74
3.73
2.14
-0.41
-4.08
-8.82
-14.37
-20.29
-26.05
-31.24
-35.73
-39.66
-43.43
-47.47
-52.12
-57.55
-63.85
-71.05
-78.99
-87.19
-94.77
-100.54
-103.33
-102.48
-98.14
-91.17
-82.79
-73.98
-65.2
-56.4
-47.31
-37.85
-28.32
-19.33
-11.61
-5.76
-2.1
-0.65
-1.15
-3
-5.39
-7.31
-7.87
-6.54
-3.36
1.09
5.96
10.43
14.04
16.67
18.45
19.51
19.92
19.67
18.82
17.56
16.27
15.33
15.06
15.56
16.71
18.18
19.48
20.06
19.44
17.36
13.96
9.77
5.65
2.47
0.89
1.13
2.98
5.88
9.24
12.58
15.66
18.49
21.21
23.92
26.56
28.9
30.57
31.18
30.46
28.36
24.99
20.55
15.34
9.69
4.06
-0.98
-4.86
-7.34
-8.61
-9.42
-10.77
-13.58
-18.22
-24.44
-31.53
-38.65
-45.27
-51.23
-56.72
-62.01
-67.27
-72.52
-77.82
-83.36
-89.11
-94.54
-98.26
-98.51
-94.02
-85.02
-73.46
-62.3
-54.14
-49.79
-48.06
-46.49
-42.75
-35.87
-26.44
-15.98
-5.99
2.73
10.03
15.97
20.49
23.44
24.81
24.96
24.42
23.78
23.4
23.33
23.49
23.72
23.85
23.65
22.8
20.97
18.05
14.22
10.04
6.24
3.36
1.55
0.37
-1.03
-3.59
-7.9
-13.88
-20.78
-27.25
-31.73
-32.87
-29.84
-22.53
-11.51
2.19
17.2
32.04
45.24
55.48
61.91
64.34
63.34
59.92
55.05
49.1
41.72
32.18
19.99
5.53
-9.86
-24.41
-36.57
-45.59
-51.67
-55.52
-57.91
-59.37
-60.15
-60.37
-60.24
-59.98
-59.75
-59.53
-59.13
-58.31
-57.01
-55.31
-53.44
-51.53
-49.55
-47.27
-44.35
-40.62
-36.24
-31.81
-28.2
-26.19
-26.18
-27.9
-30.4
-32.32
-32.3
-29.31
-22.96
-13.45
-1.49
11.85
25.33
37.68
47.66
54.15
56.36
54.11
48.09
39.84
31.36
24.53
20.48
19.44
20.93
24.32
29.3
35.9
44.18
53.55
62.44
68.77
70.85
68.44
62.94
56.7
51.7
48.58
46.68
45.11
43.84
44.16
47.89
55.82
66.73
77.83
86.45
91.75
95.27
99.84
107.53
118.12
129.09
137.13
140
137.59
131.53
123.86
115.6
106.26
94.53
79.46
61.32
41.79
23.32
8.16
-2.3
-7.91
-9.42
-7.86
-3.98
2.1
10.66
21.9
35.5
50.35
64.76
76.92
85.54
90.32
91.93
91.72
91.12
90.82
90.51
88.84
83.97
74.31
59.18
39.14
15.86
-8.51
-31.94
-52.95
-70.68
-84.71
-94.79
-100.85
-103.05
-101.98
-98.63
-94.18
-89.62
-85.43
-81.47
-77.15
-71.81
-65.07
-56.94
-47.82
-38.22
-28.56
-19.1
-9.93
-1.14
7.01
14.05
19.38
22.41
22.74
20.26
15.21
8.08
-0.5
-9.91
-19.66
-29.47
-39.31
-49.31
-59.66
-70.46
-81.57
-92.5
-102.48
-110.59
-116
-118.22
-117.31
-113.84
-108.76
-103.04
-97.4
-92.14
-87.16
-82.22
-77.02
-71.36
-65.07
-57.99
-50.07
-41.46
-32.67
-24.4
-17.31
-11.71
-7.34
-3.62
0.08
4.01
7.99
11.57
14.38
16.37
17.84
19.21
20.83
22.79
25.01
27.38
29.71
31.74
33.08
33.39
32.68
31.58
31.26
33.02
37.72
45.35
55.01
65.34
75.25
84.3
92.67
100.76
108.68
116.29
123.4
130.16
137.08
144.54
152.26
159.09
163.43
164.14
161.27
156.13
150.45
145.21
139.88
132.55
121.2
105.09
85.65
66.09
50.03
39.94
36.23
37.42
41.19
45.61
49.91
54.36
59.67
66.23
73.72
81.13
87.18
90.65
90.84
87.76
82.09
74.95
67.3
59.43
50.68
39.66
25.1
6.69
-14.36
-35.63
-54.39
-68.65
-77.8
-82.63
-84.81
-86.26
-88.57
-92.66
-98.58
-105.55
-112.34
-117.86
-121.74
-124.59
-127.67
-132.16
-138.35
-145.29
-151.22
-154.42
-154.16
-151.1
-146.99
-143.97
-143.69
-146.93
-153.52
-162.54
-172.72
-182.62
-190.77
-195.72
-196.28
-191.7
-181.98
-167.83
-150.44
-130.95
-110.14
-88.27
-65.55
-42.49
-20.14
0.09
17.08
30.47
40.86
49.37
57.03
64.23
70.63
75.56
78.55
79.62
79.26
78.12
76.53
74.46
71.51
67.36
61.93
55.52
48.71
42.03
35.73
29.58
22.95
15
5.05
-7.07
-20.86
-35.09
-48.2
-58.66
-65.5
-68.6
-68.64
-66.82
-64.37
-62.13
-60.37
-58.99
-57.77
-56.69
-56.04
-56.22
-57.44
-59.47
-61.54
-62.47
-61.19
-57.01
-49.91
-40.39
-29.2
-16.95
-4.04
9.25
22.55
35.16
46.09
54.32
59.15
60.44
58.65
54.67
49.51
44.05
38.9
34.43
30.73
27.66
24.92
22.25
19.53
17
15.28
15.22
17.64
23.01
31.21
41.63
53.27
65.06
76.12
85.84
93.98
100.6
105.95
110.39
114.12
117.1
118.96
119.14
117.11
112.53
105.33
95.66
83.84
70.36
55.92
41.37
27.56
15.03
3.83
-6.36
-16
-25.34
-34.21
-42.21
-49.05
-54.88
-60.35
-66.35
-73.7
-82.86
-93.72
-105.64
-117.5
-127.84
-135.1
-137.99
-135.86
-128.9
-118.1
-104.93
-90.91
-77.27
-64.85
-54.16
-45.6
-39.42
-35.77
-34.47
-34.85
-35.84
-36.23
-35.02
-31.78
-26.83
-21.1
-15.74
-11.67
-9.27
-8.39
-8.55
-9.24
-10.22
-11.43
-12.84
-14.26
-15.29
-15.42
-14.28
-11.85
-8.56
-5.18
-2.77
-2.4
-4.9
-10.52
-18.63
-27.68
-35.53
-40.13
-40.31
-36.23
-29.26
-21.24
-13.66
-7.08
-1.08
5.12
12.04
19.63
27.36
34.72
41.59
48.48
56.16
65.26
75.87
87.54
99.43
110.71
120.84
129.6
136.96
142.79
146.67
147.78
145.22
138.27
126.84
111.66
94.13
76.02
58.93
43.87
31.05
19.92
9.52
-1.18
-12.83
-25.53
-38.72
-51.24
-61.54
-68.09
-69.74
-66.09
-57.68
-45.95
-32.79
-20.1
-9.24
-0.8
5.39
9.93
13.53
16.7
19.6
22.09
23.89
24.69
24.38
23.04
20.95
18.46
15.92
13.51
11.27
9.11
6.9
4.52
1.83
-1.31
-5.06
-9.51
-14.55
-19.83
-24.83
-29.03
-32.02
-33.69
-34.07
-33.19
-31.01
-27.4
-22.41
-16.47
-10.41
-5.26
-1.89
-0.79
-1.93
-4.93
-9.31
-14.59
-20.37
-26.34
-32.2
-37.78
-42.98
-47.85
-52.45
-56.77
-60.69
-64.07
-66.9
-69.43
-72.08
-75.23
-79.03
-83.3
-87.6
-91.53
-94.85
-97.53
-99.65
-101.12
-101.57
-100.4
-97.05
-91.23
-83.2
-73.72
-63.83
-54.5
-46.35
-39.57
-33.99
-29.37
-25.62
-22.97
-21.8
-22.48
-25.03
-29.05
-33.75
-38.04
-40.79
-40.87
-37.29
-29.28
-16.55
0.55
20.94
43
64.94
85.13
102.44
116.2
126.18
132.39
135.03
134.47
131.35
126.5
120.86
115.26
110.25
106
102.3
98.71
94.79
90.21
84.88
78.86
72.2
64.74
56.04
45.47
32.5
16.97
-0.69
-19.48
-38.03
-55.03
-69.58
-81.42
-90.87
-98.56
-105.01
-110.42
-114.72
-117.77
-119.72
-121.06
-122.39
-123.94
-125.21
-124.87
-121.21
-112.75
-98.92
-80.22
-58.06
-34.15
-9.98
13.54
36.08
57.68
78.41
98.28
117.12
134.72
150.93
165.7
179.08
191.05
201.54
210.31
217.14
221.84
224.44
225.14
224.2
221.87
218.21
213.15
206.53
198.31
188.63
177.91
166.68
155.34
144.04
132.58
120.58
107.83
94.48
80.99
67.75
54.68
40.96
25.35
6.79
-14.95
-38.98
-63.64
-87.25
-108.71
-127.83
-144.98
-160.61
-174.78
-187.17
-197.43
-205.67
-212.5
-218.87
-225.43
-232.05
-237.7
-240.71
-239.53
-233.29
-222.19
-207.42
-190.69
-173.69
-157.68
-143.26
-130.4
-118.72
-107.79
-97.36
-87.46
-78.44
-70.7
-64.62
-60.42
-58.13
-57.65
-58.84
-61.54
-65.66
-71.15
-77.96
-86.01
-95.14
-104.85
-114.22
-121.79
-125.81
-124.68
-117.46
-104.19
-86.01
-64.99
-43.74
-24.98
-11.03
-3.33
-2.18
-6.68
-15.04
-25.1
-35.13
-44.13
-51.9
-58.36
-62.84
-63.76
-58.97
-46.88
-27.65
-3.85
20.05
39.05
49.5
50.4
43.68
33.56
25.32
24.07
33.84
56.69
91.78
134.48
176.6
207.95
219.7
208.06
176.56
135.21
96.62
70.87
61.63
65.86
76.83
88.43
98.13
106.88
116.5
126.79
134.52
135.1
125.73
107.46
84.93
63.7
47.22
35.24
24.74
12.36
-3.16
-20.13
-35.07
-44.64
-47.6
-45.18
-40.31
-36.01
-34.2
-35.15
-37.85
-40.82
-42.8
-43.09
-41.45
-37.93
-32.69
-26.11
-18.99
-12.62
-8.51
-7.82
-10.85
-16.77
-23.92
-30.46
-35
-36.95
-36.46
-34.02
-30.14
-25.22
-19.61
-13.76
-8.23
-3.55
0.05
2.72
5.01
7.6
11
15.36
20.44
25.85
31.23
36.46
41.61
46.76
51.83
56.51
60.36
62.97
64.19
64.22
63.55
62.84
62.66
63.31
64.67
66.43
68.15
69.56
70.43
70.51
69.37
66.47
61.42
54.46
46.73
40.02
35.96
35.02
35.98
36.18
32.89
24.8
12.87
-0.1
-11.04
-18.17
-21.76
-23.51
-25.14
-27.21
-28.91
-28.95
-26.82
-23.37
-20.42
-19.59
-21.33
-24.73
-28.24
-30.53
-31.33
-31.16
-30.85
-30.92
-31.37
-31.79
-31.89
-31.67
-31.45
-31.65
-32.52
-34.22
-36.96
-40.99
-46.49
-53.2
-60.18
-65.85
-68.46
-66.86
-60.94
-51.56
-40.1
-27.74
-15.1
-2.42
9.97
21.29
30.53
37.02
41
43.73
46.66
50.57
54.86
57.63
56.66
50.58
39.64
25.76
11.72
0.2
-7.01
-9.27
-7.13
-2.04
3.92
8.35
8.94
4.22
-5.72
-18.79
-30.9
-36.93
-32.24
-14.41
15.59
53.36
92.33
125.82
149.11
160.55
161.48
155.1
144.91
133.79
123.57
115.29
109.48
106.24
105.16
105.16
104.68
102.02
95.81
85.41
71
53.64
35.07
17.26
1.91
-10.09
-18.94
-25.76
-31.89
-38.22
-44.62
-50.03
-53.14
-53.07
-49.97
-44.88
-39.31
-34.6
-31.45
-29.88
-29.42
-29.5
-29.82
-30.41
-31.59
-33.55
-36.04
-38.15
-38.49
-35.71
-28.97
-18.38
-4.99
9.62
23.8
36.27
46.28
53.57
58.14
60.23
60.24
58.71
56.3
53.61
51.12
49.07
47.37
45.61
43.2
39.46
33.81
25.95
15.85
3.72
-10.06
-24.94
-40.24
-55.14
-68.76
-80.39
-89.7
-96.82
-102.33
-106.96
-111.29
-115.54
-119.45
-122.43
-123.7
-122.54
-118.42
-111.25
-101.38
-89.6
-76.95
-64.44
-52.74
-42.15
-32.6
-23.93
-16.08
-9.22
-3.62
0.49
3.17
4.75
5.74
6.69
7.92
9.52
11.29
12.96
14.29
15.14
15.58
15.71
15.67
15.44
14.92
13.99
12.51
10.45
7.81
4.6
0.84
-3.44
-8.02
-12.4
-15.84
-17.55
-17
-14.1
-9.31
-3.44
2.67
8.47
13.76
18.68
23.39
27.91
32.04
35.44
37.88
39.41
40.36
41.25
42.51
44.39
46.95
50.07
53.55
57.17
60.56
63.32
65.01
65.34
64.29
62.18
59.57
57.08
55.08
53.66
52.55
51.34
49.66
47.41
44.78
42.33
40.78
40.9
43.21
47.81
54.3
61.79
69.14
75.13
78.79
79.56
77.33
72.41
65.38
56.92
47.62
37.95
28.19
18.53
9.15
0.23
-8.02
-15.48
-22.24
-28.65
-35.29
-42.82
-51.71
-61.97
-73.09
-84.12
-93.97
-101.71
-106.88
-109.57
-110.23
-109.48
-107.78
-105.24
-101.54
-96.12
-88.41
-78.13
-65.5
-51.23
-36.4
-22.16
-9.42
1.3
9.96
16.97
22.92
28.49
34.1
39.8
45.21
49.68
52.77
54.58
55.87
57.8
61.43
67.18
74.66
82.81
90.37
96.3
99.94
101.03
99.69
96.34
91.68
86.5
81.38
76.36
70.76
63.46
53.28
39.6
22.78
4.08
-14.59
-31.19
-44.1
-52.52
-56.54
-57.02
-55.14
-51.93
-47.91
-43.04
-37.1
-30.08
-22.54
-15.55
-10.28
-7.48
-7.26
-9.09
-12.25
-16.26
-21.06
-26.73
-33.14
-39.75
-45.81
-50.85
-55.15
-59.7
-65.74
-73.96
-84.01
-94.52
-103.73
-110.22
-113.58
-114.44
-114.18
-114.24
-115.61
-118.48
-122.12
-125.11
-125.73
-122.43
-114.36
-101.55
-84.9
-65.82
-45.71
-25.71
-6.42
11.88
29.05
44.8
58.67
70.13
78.83
84.86
88.85
91.82
94.83
98.64
103.52
109.29
115.57
121.95
128
133.21
136.84
138.02
136.01
130.46
121.67
110.29
97.13
82.71
67.2
50.5
32.58
13.69
-5.54
-24.33
-41.92
-57.76
-71.39
-82.17
-89.19
-91.32
-87.7
-78.22
-63.82
-46.47
-28.5
-11.97
2.08
13.73
23.89
33.63
43.54
53.38
62.15
68.54
71.5
70.77
67.01
61.59
56.01
51.35
47.93
45.3
42.56
38.55
31.95
21.48
6.22
-13.64
-36.25
-58.02
-74.61
-82.36
-79.88
-68.54
-51.84
-33.92
-17.92
-5.29
4.01
10.59
14.85
16.65
15.59
11.39
4.19
-5.35
-16.14
-26.8
-35.99
-42.88
-47.47
-50.59
-53.5
-57.06
-61.2
-64.81
-66.35
-64.65
-59.46
-51.45
-41.7
-31.08
-20.08
-8.9
2.14
12.43
21.25
28.09
32.98
36.45
39.25
42.02
45.04
48.34
51.74
55.04
58.03
60.62
62.85
65.08
67.9
71.92
77.52
84.4
91.53
97.32
100.1
98.82
93.38
84.69
74.26
63.54
53.32
43.62
33.98
23.95
13.62
3.61
-5.16
-12.09
-17.17
-20.92
-23.91
-26.43
-28.37
-29.46
-29.69
-29.57
-29.87
-31.27
-33.85
-37.04
-39.74
-40.97
-40.28
-38.13
-35.83
-35.14
-37.65
-44.04
-53.64
-64.41
-73.54
-78.41
-77.51
-70.74
-59.31
-45.21
-30.75
-18.22
-9.61
-6.28
-8.56
-15.63
-25.61
-36.19
-45.43
-52.31
-56.83
-59.71
-61.86
-64.03
-66.73
-70.29
-74.86
-80.41
-86.6
-92.93
-98.87
-104.14
-108.55
-111.94
-114.02
-114.38
-112.67
-108.85
-103.3
-96.69
-89.79
-83.24
-77.5
-72.92
-69.81
-68.31
-68.23
-68.81
-68.77
-66.6
-61.2
-52.3
-40.64
-27.68
-15
-3.75
5.65
13.35
19.76
25.17
29.64
33.05
35.36
36.76
37.68
38.58
39.79
41.31
42.85
43.97
44.27
43.59
42.1
40.21
38.38
36.89
35.73
34.53
32.8
30.08
26.24
21.53
16.55
12.05
8.65
6.61
5.69
5.08
3.45
-0.7
-8.58
-20.55
-35.76
-52.16
-67.02
-77.77
-82.82
-82.02
-76.67
-68.98
-61.34
-55.63
-52.79
-52.63
-54.01
-55.09
-53.96
-49.13
-39.98
-26.97
-11.44
4.82
20.02
32.79
42.35
48.43
51.07
50.43
46.75
40.51
32.58
24.23
16.87
11.47
8.09
5.79
2.97
-1.84
-9.38
-19.32
-30.57
-41.93
-52.69
-62.79
-72.47
-81.72
-89.86
-95.48
-96.96
-93.19
-84.09
-70.92
-55.87
-41.37
-29.29
-20.46
-14.72
-11.32
-9.59
-9.26
-10.48
-13.39
-17.73
-22.61
-26.84
-29.39
-29.84
-28.58
-26.5
-24.52
-23.18
-22.45
-21.86
-20.9
-19.31
-17.3
-15.45
-14.45
-14.8
-16.61
-19.54
-22.97
-26.28
-29.15
-31.63
-34.16
-37.29
-41.34
-46.16
-51.03
-54.94
-56.89
-56.21
-52.78
-46.92
-39.18
-30.09
-19.97
-9.02
2.6
14.63
26.71
38.5
49.75
60.35
70.28
79.45
87.6
94.43
99.72
103.47
105.92
107.41
108.2
108.39
107.95
106.8
105.01
102.81
100.48
98.08
95.38
91.81
86.78
79.95
71.42
61.74
51.57
41.29
30.76
19.35
6.24
-9.06
-26.29
-44.27
-61.06
-74.54
-82.78
-84.6
-79.66
-68.55
-52.56
-33.32
-12.44
8.82
29.66
49.7
68.78
86.76
103.35
118.17
130.85
141.26
149.63
156.46
162.35
167.83
173.02
177.63
180.9
181.79
179.16
172.2
160.69
145.22
127.07
107.77
88.6
70
51.46
31.64
8.93
-17.94
-49.22
-83.89
-119.57
-152.84
-179.9
-197.38
-203.13
-196.77
-179.87
-155.6
-127.88
-100.47
-76.12
-56.29
-41.1
-29.9
-21.67
-15.52
-10.77
-6.97
-3.82
-1.11
1.18
2.88
3.57
2.79
0.22
-4.09
-9.76
-16.17
-22.76
-29.3
-35.96
-43.14
-51.24
-60.28
-69.76
-78.74
-86.21
-91.49
-94.68
-96.65
-98.66
-101.74
-106.1
-110.82
-114.05
-113.75
-108.43
-97.79
-82.79
-65.26
-47.13
-29.84
-13.98
0.6
14.32
27.48
39.98
51.35
61.07
68.85
74.83
79.48
83.53
87.59
92
96.68
101.13
104.62
106.33
105.78
102.88
98.14
92.52
87.16
83.04
80.76
80.45
81.78
84.16
86.87
89.18
90.38
89.84
87.14
82.33
76.14
69.96
65.65
64.94
68.74
76.68
87.16
97.86
106.56
111.91
113.7
112.65
109.82
106.15
102.23
98.28
94.36
90.32
85.83
80.29
73.08
63.86
52.93
41.27
30.37
21.63
15.95
13.45
13.43
14.68
15.86
15.87
14.04
10.21
4.6
-2.5
-11.01
-21.19
-33.59
-48.7
-66.67
-87.07
-108.79
-130.28
-149.83
-165.93
-177.58
-184.47
-187.01
-186.09
-182.73
-177.8
-171.76
-164.74
-156.69
-147.63
-137.75
-127.32
-116.55
-105.47
-93.93
-81.78
-68.95
-55.62
-42.16
-29.12
-16.98
-6.2
2.96
10.39
16.15
20.51
23.97
27.26
31.22
36.72
44.29
54
65.3
77.18
88.48
98.21
105.81
111.31
115.28
118.72
122.91
129.03
137.85
149.36
162.74
176.46
188.77
198.1
203.48
204.54
201.37
194.21
183.41
169.34
152.5
133.49
112.84
90.93
67.95
44.2
20.4
-2.16
-21.75
-36.68
-45.76
-48.63
-45.79
-38.39
-28.1
-16.92
-7.06
-0.69
0.54
-4.2
-14.66
-29.76
-47.89
-67.29
-86.23
-103.05
-116.14
-124.15
-126.29
-122.64
-114.12
-102.3
-88.87
-75.19
-62.12
-50.09
-39.31
-30.02
-22.54
-17.19
-14.07
-12.89
-12.97
-13.35
-13.17
-12.02
-10.06
-7.98
-6.57
-6.36
-7.41
-9.3
-11.51
-13.63
-15.59
-17.59
-19.84
-22.39
-25.01
-27.32
-28.87
-29.31
-28.25
-25.3
-20
-12
-1.23
11.86
26.36
40.98
54.36
65.36
73.14
77.31
77.93
75.37
70.3
63.39
55.15
45.82
35.44
24.15
12.34
0.74
-9.85
-18.91
-26.44
-32.8
-38.33
-42.97
-46.08
-46.9
-45.02
-40.87
-35.61
-30.63
-26.83
-24.21
-22.09
-19.66
-16.74
-14.09
-13.09
-15.08
-20.75
-29.78
-41.12
-53.55
-66.11
-78.44
-90.58
-102.72
-114.86
-126.71
-137.66
-146.84
-153.16
-155.48
-152.76
-144.42
-130.63
-112.42
-91.45
-69.56
-48.26
-28.49
-10.63
5.22
19.01
30.71
40.29
47.99
54.34
60
65.5
71
76.1
80.09
82.27
82.37
80.79
78.51
76.85
77.01
79.68
84.81
91.57
98.54
104.02
106.41
104.64
98.4
88.28
75.58
62.02
49.23
38.44
30.19
24.37
20.31
17.09
13.75
9.5
3.84
-3.37
-11.9
-21.14
-30.2
-38.1
-44.07
-47.85
-49.9
-51.25
-52.98
-55.66
-58.97
-61.88
-63.27
-62.56
-60
-56.43
-52.73
-49.26
-45.86
-42.21
-38.35
-34.86
-32.54
-31.85
-32.42
-33.1
-32.36
-29.04
-22.7
-13.61
-2.41
10.35
24.36
39.54
55.75
72.66
89.76
106.46
122.22
136.54
148.83
158.3
163.99
165.01
160.88
151.81
138.72
123.13
106.69
90.88
76.65
64.27
53.35
43.03
32.44
21.24
10
0.22
-6.05
-7.06
-2.13
8.01
21.43
35.67
48.46
58.17
63.8
64.75
60.71
51.68
38.19
21.42
3.04
-15.29
-32.39
-47.89
-62.12
-75.73
-89.19
-102.5
-115.27
-127.02
-137.68
-147.8
-158.3
-169.91
-182.59
-195.09
-205.25
-210.79
-210.18
-203.34
-191.6
-177.08
-161.92
-147.75
-135.43
-125.15
-116.62
-109.18
-101.98
-94.2
-85.4
-75.76
-66.05
-57.23
-49.92
-43.95
-38.48
-32.45
-25.21
-16.93
-8.42
-0.78
5.22
9.3
11.56
12.11
10.84
7.43
1.66
-6.2
-15.19
-24.02
-31.44
-36.86
-40.48
-43.18
-45.96
-49.46
-53.63
-57.76
-60.76
-61.52
-59.18
-53.18
-43.22
-29.26
-11.6
9.15
32.01
55.75
79.1
100.92
120.38
137.06
151.02
162.73
172.87
182.15
191.08
199.89
208.49
216.53
223.51
228.86
232.15
233.18
232.13
229.63
226.73
224.62
224.31
226.28
230.2
234.83
238.24
238.25
232.97
221.44
203.77
181.14
155.17
127.31
98.3
68.06
36.09
2.12
-33.24
-68.2
-100.12
-126.08
-143.88
-152.57
-152.66
-145.7
-133.6
-118.15
-100.79
-82.94
-66.25
-52.67
-44
-41.33
-44.51
-52.24
-62.63
-74.04
-85.61
-97.27
-109.24
-121.45
-133.21
-143.49
-151.46
-156.95
-160.68
-163.82
-167.41
-171.96
-177.35
-183.06
-188.56
-193.5
-197.7
-200.97
-203.07
-203.89
-203.49
-202.18
-200.23
-197.58
-193.64
-187.56
-178.71
-167.14
-153.61
-139.2
-124.65
-109.95
-94.47
-77.56
-59.26
-40.57
-23.08
-8.17
3.65
13.03
21.37
30.11
40.19
51.78
64.65
78.36
92.49
106.45
119.26
129.59
136.04
137.69
134.53
127.54
118.24
108.14
98.39
89.58
81.98
75.65
70.57
66.51
62.89
58.91
53.9
47.84
41.55
36.58
34.66
36.96
43.7
54.1
66.72
79.97
92.48
103.33
112.14
119.03
124.59
129.74
135.44
142.39
150.77
160.12
169.42
177.35
182.55
183.87
180.46
171.92
158.31
140.14
118.24
93.61
67.19
39.89
12.54
-13.96
-38.67
-60.72
-79.51
-94.79
-106.8
-116.11
-123.41
-129.24
-133.82
-137.11
-138.94
-139.29
-138.38
-136.57
-134.13
-131
-126.83
-121.16
-113.77
-104.86
-95.02
-84.84
-74.69
-64.64
-54.7
-45.16
-36.78
-30.51
-27.06
-26.41
-27.73
-29.68
-30.98
-30.87
-29.3
-26.75
-23.88
-21.33
-19.55
-18.91
-19.62
-21.73
-25.02
-28.94
-32.75
-35.74
-37.53
-38.21
-38.23
-38.31
-39.13
-41.07
-44.07
-47.61
-50.75
-52.36
-51.43
-47.38
-40.26
-30.73
-19.84
-8.7
1.86
11.41
19.79
26.93
32.7
36.91
39.44
40.41
40.14
39.1
37.61
35.88
33.98
32
30.2
28.88
28.25
28.21
28.49
28.79
29.09
29.71
31.17
33.81
37.58
42.03
46.52
50.59
54.02
56.85
59.19
61.21
63.17
65.72
69.9
76.92
87.57
101.79
118.4
135.41
150.71
162.79
171.18
176.5
179.99
182.91
186.1
189.8
193.78
197.55
200.63
202.63
203.28
202.37
199.64
194.72
187.06
175.91
160.39
139.81
114.02
83.86
51.3
19.26
-9.12
-31.22
-45.75
-52.82
-53.67
-50
-43.33
-34.76
-25.05
-14.93
-5.31
2.77
8.35
10.86
10.19
6.64
0.75
-6.8
-15.26
-23.76
-31.35
-37.29
-41.25
-43.56
-45.09
-46.96
-50.02
-54.45
-59.71
-64.71
-68.43
-70.4
-70.97
-71.18
-72.3
-75.19
-79.87
-85.4
-90.41
-93.67
-94.75
-94.14
-92.99
-92.41
-92.95
-94.36
-95.87
-96.74
-96.76
-96.34
-96.36
-97.8
-101.48
-108.01
-117.77
-131.02
-147.78
-167.6
-189.36
-211.2
-230.82
-246.01
-255.1
-257.29
-252.64
-241.75
-225.5
-204.9
-181.13
-155.74
-130.59
-107.56
-87.95
-71.97
-58.69
-46.49
-33.83
-19.9
-4.84
10.67
25.89
40.48
54.37
67.32
78.52
86.54
89.83
87.51
80
68.97
56.74
45.38
35.98
28.56
22.28
16.08
8.94
0.01
-11.41
-25.69
-42.54
-60.68
-77.82
-91.2
-98.54
-98.82
-92.58
-81.63
-68.27
-54.56
-41.84
-30.65
-20.85
-11.8
-2.58
7.68
19.37
32.05
44.45
54.84
61.79
64.82
64.56
62.37
59.72
57.56
56.2
55.6
55.7
56.69
58.86
62.14
65.85
68.76
69.53
67.44
62.72
56.53
50.34
45.18
41.05
36.93
31.33
23.12
12.23
-0.3
-12.66
-23.08
-30.38
-34.2
-34.78
-32.65
-28.33
-22.23
-14.74
-6.32
2.54
11.38
19.89
27.98
35.67
43.01
49.91
56.19
61.51
65.69
68.66
70.58
71.73
72.44
72.93
73.33
73.63
73.68
73.22
71.87
69.29
65.34
60.23
54.57
49.21
44.93
42.07
40.37
39.08
37.14
33.63
27.99
20.17
10.55
-0.28
-11.79
-23.7
-35.89
-48.29
-60.54
-71.78
-80.64
-85.48
-84.78
-77.75
-64.64
-46.83
-26.59
-6.48
11.32
25.53
36
43.49
49.16
53.88
57.94
61.04
62.64
62.48
60.87
58.68
57.02
56.79
58.44
61.86
66.56
71.98
77.69
83.53
89.41
94.99
99.5
101.71
100.26
94.18
83.36
68.64
51.57
33.83
16.7
0.79
-13.83
-27.4
-40.32
-52.98
-65.62
-78.11
-89.68
-98.91
-104.01
-103.51
-96.75
-84.12
-66.76
-46.02
-22.99
1.59
27.15
53.14
79.02
104.49
129.49
153.89
176.94
196.81
210.81
216.14
211.06
195.77
172.6
145.25
117.65
92.82
72.28
56.22
43.92
34.49
27.16
21.31
16.42
11.84
6.87
0.86
-6.58
-15.45
-25.46
-36.14
-47.15
-58.44
-70.24
-82.93
-96.55
-110.48
-123.36
-133.48
-139.56
-141.54
-140.85
-139.88
-140.88
-144.74
-150.63
-156.39
-159.78
-159.72
-156.75
-152.72
-149.64
-148.73
-149.85
-151.81
-153
-152.22
-148.92
-143.1
-134.98
-124.71
-112.36
-98.14
-82.69
-67.25
-53.46
-42.99
-36.8
-34.77
-35.45
-36.52
-35.64
-31.3
-23.43
-13.26
-2.78
6.22
12.69
16.66
18.96
20.74
23.09
26.72
31.99
38.93
47.38
57.06
67.69
79.04
90.92
103.1
115.18
126.66
137.04
146.1
154.04
161.43
169.06
177.63
187.46
198.29
209.3
219.26
226.76
230.56
229.83
224.39
214.65
201.32
185.18
166.64
145.69
121.97
95.12
65.14
32.78
-0.43
-32.3
-60.38
-82.56
-97.54
-105.27
-106.9
-104.48
-100.33
-96.39
-93.76
-92.56
-92.18
-91.68
-90.21
-87.2
-82.52
-76.48
-69.85
-63.73
-59.29
-57.43
-58.28
-61.01
-63.97
-65.25
-63.43
-58.19
-50.48
-42.26
-35.79
-32.91
-34.47
-40.27
-49.12
-59.33
-69.11
-76.83
-81.21
-81.33
-76.63
-66.99
-52.93
-35.68
-17.18
0.3
14.72
24.86
30.7
33.46
35.16
38.01
43.63
52.46
63.53
74.81
83.92
89
89.45
86.02
80.28
73.74
67.04
59.67
50.54
38.9
25.15
11.05
-1
-9.12
-12.85
-13.39
-12.84
-13.03
-14.42
-15.98
-15.93
-13.07
-7.81
-2.28
0.59
-1.42
-8.72
-19.79
-32.32
-44.52
-56.03
-67.78
-80.86
-95.4
-110.15
-123.17
-132.89
-139
-142.45
-144.68
-146.58
-148.08
-148.44
-147.03
-143.98
-140.12
-136.32
-132.8
-128.78
-122.96
-114.39
-103.15
-90.5
-78.31
-68.05
-59.92
-52.71
-44.4
-33.33
-19.23
-3.58
11.19
23.05
31.63
38.68
47.3
60.24
78.71
101.7
126.46
149.63
168.53
182.12
191.07
197.44
203.89
213.16
227.2
246.23
268.01
288.18
301.49
303.81
293.72
272.5
243.75
211.79
180.01
150.06
122.24
96.59
73.33
52.93
34.36
16.36
-1.99
-20.48
-37.69
-51.37
-58.99
-59.84
-55.37
-51.94
-55.71
-69.67
-92.36
-119.16
-144.85
-165.39
-180.79
-193.72
-212.51
-243.17
-286.71
-339.26
-395.07
-449.44
-498.45
-540.99
-575.81
-606.67
-634.83
-657.85
-671.06
-671.07
-658.31
-635.48
-609.18
-548.96
-442.84
-300.57
-148.87
-12.98
95.51
168.32
218.11
253.42
279.01
292.04
291.61
281.61
268.79
260.22
260.45
272.43
294.57
323.82
351.33
368.59
369.78
353.32
321.7
280.28
237.07
198.1
167.43
143.35
122.63
103.07
85.03
70.71
62.37
61.4
66.15
73.68
79.64
81.26
78.39
73.06
68.14
65.87
67.43
72.1
78.17
83.1
84.84
82.41
76.05
66.84
56.31
46.16
37.8
32.24
29.75
29.66
30.29
29.48
25.26
16.53
3.39
-13.06
-31.23
-49.58
-66.92
-82.3
-94.78
-103.25
-106.59
-104.1
-96.02
-83.75
-69.62
-56.17
-45.28
-37.51
-32.05
-27.24
-21.57
-14.52
-6.79
0.05
4.47
5.82
4.62
2.3
0.36
-0.26
0.45
1.86
3.2
3.99
3.99
2.89
0.07
-5.29
-13.68
-24.7
-36.8
-47.79
-55.65
-59.46
-59.65
-57.68
-55.21
-53.39
-52.63
-52.81
-53.7
-55.11
-56.8
-58.16
-58.15
-55.59
-49.75
-40.79
-29.84
-18.47
-7.92
1.48
10.4
20.05
31.48
45.02
60.12
75.63
90.13
102.38
111.44
116.81
118.48
117.02
113.47
109.17
105.35
102.73
101.2
99.99
97.92
93.97
87.6
78.89
68.48
57.24
46.03
35.46
25.74
16.73
7.94
-1.16
-10.94
-21.29
-31.48
-40.24
-46.12
-48.03
-45.7
-39.77
-31.52
-22.28
-12.8
-3.1
7.29
18.6
30.3
40.92
48.61
52.14
51.84
49.64
48.32
49.91
54.5
59.99
63.13
61.24
53.6
41.53
27.2
12.4
-1.79
-14.22
-22.77
-24.65
-18.39
-6.26
5.29
7.97
-3.72
-28.7
-59.03
-83.8
-94.87
-90.96
-77.53
-62.68
-51.95
-45.51
-39.14
-27.98
-10.14
12.07
33.84
50.76
61.14
66.3
69.17
72.21
76.03
79.27
79.62
75.32
66.29
54.47
43
34.86
31.57
32.46
35.17
36.85
35.63
31.41
25.76
20.8
17.96
17.21
17.16
15.8
11.59
4.06
-6.16
-17.81
-29.74
-41.25
-52.08
-62.02
-70.5
-76.5
-78.83
-76.64
-69.86
-59.22
-46.08
-31.96
-18.19
-5.62
5.37
14.81
22.89
29.8
35.63
40.3
43.76
46.01
47.25
47.83
48.07
48.11
47.84
47.03
45.48
43.29
40.79
38.42
36.44
34.82
33.27
31.39
28.86
25.5
21.29
16.25
10.53
4.27
-2.29
-8.89
-15.33
-21.59
-27.91
-34.72
-42.45
-51.13
-60.18
-68.36
-74.1
-76.09
-73.8
-67.74
-59.27
-50.03
-41.28
-33.52
-26.53
-19.81
-13.07
-6.52
-0.81
3.32
5.5
5.95
5.37
4.59
4.23
4.41
4.87
5.21
5.12
4.6
3.88
3.23
2.89
3
3.61
4.69
6.05
7.37
8.17
8.05
6.81
4.63
2.05
-0.26
-1.73
-2.09
-1.37
0.15
2.07
3.89
5.15
5.55
5.11
4.36
4.27
5.99
10.4
17.76
27.66
39.16
51.18
62.84
73.68
83.59
92.64
100.9
108.36
114.91
120.53
125.33
129.58
133.44
136.75
138.82
138.74
135.72
129.63
121.2
111.73
102.5
94.17
86.73
79.75
72.93
66.3
60.04
53.94
47.13
38.24
26.17
10.74
-7.07
-25.55
-43.14
-59.02
-73.22
-86.09
-97.68
-107.49
-114.76
-119.02
-120.57
-120.3
-119.22
-117.93
-116.52
-114.79
-112.73
-110.65
-108.78
-106.7
-103.28
-97.13
-87.53
-75.17
-61.99
-50.27
-41.39
-35.16
-30.12
-24.61
-17.88
-10.42
-3.45
2
5.88
9.07
12.81
17.82
23.8
29.49
33.21
33.57
30.06
23.24
14.57
5.78
-1.62
-6.88
-10.02
-11.68
-12.64
-13.51
-14.55
-15.81
-17.27
-18.95
-20.8
-22.56
-23.57
-22.97
-19.96
-14.26
-6.29
2.8
11.44
18.05
21.54
21.5
18.34
13.09
7.12
1.73
-2.17
-4.21
-4.53
-3.6
-1.96
-0.07
1.71
3.01
3.36
2.21
-0.85
-5.92
-12.55
-19.86
-26.8
-32.49
-36.58
-39.36
-41.58
-44.17
-47.91
-53.16
-59.91
-67.74
-76.04
-84.05
-90.94
-95.95
-98.51
-98.46
-96.05
-91.78
-86.18
-79.49
-71.73
-62.92
-53.4
-43.94
-35.58
-29.24
-25.41
-24
-24.49
-26.06
-27.8
-28.72
-27.96
-24.95
-19.75
-13.19
-6.54
-1
2.93
5.54
7.59
9.68
11.99
14.41
16.99
20.28
25.08
31.74
39.58
46.75
50.87
50.23
44.67
35.72
26
18.12
13.79
13.43
16.42
21.44
27.09
32.2
36.04
38.34
39.34
39.62
39.83
40.56
41.99
43.92
45.73
46.7
46.21
44.11
40.72
36.83
33.43
31.37
31.17
32.79
35.63
38.48
39.72
37.72
31.45
21.05
7.96
-5.46
-16.87
-24.8
-29.21
-31.27
-32.55
-34.08
-35.72
-36.12
-33.39
-25.85
-12.7
5.81
28.56
53.89
79.96
104.88
126.91
144.55
156.79
163.32
164.62
161.78
156.06
148.55
139.94
130.54
120.43
109.57
97.76
84.48
69.01
50.68
29.22
5.12
-20.45
-45.95
-69.88
-91.2
-109.44
-124.62
-137.07
-147.24
-155.62
-162.66
-168.79
-174.32
-179.44
-184.16
-188.23
-190.97
-191.39
-188.39
-181.17
-169.64
-154.42
-136.59
-117.26
-97.18
-76.78
-56.52
-37.12
-19.72
-5.45
4.98
11.62
15.14
16.49
16.42
15.32
13.44
11.23
9.42
8.85
10.14
13.37
18.07
23.34
28.19
31.67
33.13
32.29
29.35
25.05
20.41
16.41
13.61
11.93
10.71
9.11
6.57
3.16
-0.23
-2.19
-1.2
3.74
12.54
23.86
35.4
44.64
49.79
50.47
47.9
44.38
42.3
43.21
47.23
53.21
59.37
64.21
67.11
68.43
69.19
70.47
72.89
76.45
80.76
85.44
90.47
96.18
103.16
112.08
123.36
137.16
153.07
169.68
184.48
193.97
194.45
183.22
159.83
126.82
89.26
52.99
22.4
-1.22
-19.99
-37.94
-58.75
-83.69
-111.03
-137.03
-157.84
-171.22
-177.06
-176.73
-171.99
-164.11
-153.85
-141.88
-129.13
-116.79
-105.81
-96.57
-88.89
-82.35
-76.7
-72.02
-68.61
-66.72
-66.18
-66.43
-66.67
-66.1
-64.15
-60.58
-55.61
-49.74
-43.74
-38.35
-34.16
-31.52
-30.54
-31.12
-32.95
-35.54
-38.2
-40.28
-41.35
-41.55
-41.51
-42.24
-44.48
-48.26
-52.56
-55.55
-55.13
-49.73
-38.95
-23.71
-5.92
12.17
28.72
42.66
53.7
62
67.8
71.19
72.22
71.03
68.1
64.22
60.32
57.2
55.28
54.41
53.95
52.97
50.6
46.38
40.55
33.98
27.81
22.94
19.6
17.2
14.71
11.16
6.25
0.48
-5.13
-9.6
-12.49
-14.12
-15.45
-17.62
-21.51
-27.38
-34.75
-42.52
-49.25
-53.69
-55.09
-53.4
-49.2
-43.42
-36.86
-30.07
-23.34
-16.88
-11.04
-6.26
-2.87
-0.83
0.27
0.96
1.58
1.99
1.77
0.58
-1.46
-3.74
-5.42
-5.93
-5.2
-3.69
-2.03
-0.57
0.75
2.24
4.22
6.73
9.51
12.18
14.43
16.09
17.09
17.35
16.79
15.27
12.68
9.03
4.51
-0.46
-5.15
-8.57
-9.73
-7.89
-2.98
4.34
12.83
21.07
27.98
33.12
36.67
39.08
40.7
41.63
41.77
41.02
39.57
37.82
36.24
35.02
34
32.77
30.98
28.57
25.87
23.3
21.03
18.88
16.31
12.77
8.05
2.42
-3.47
-8.89
-13.27
-16.47
-18.71
-20.46
-22.28
-24.6
-27.57
-30.9
-33.85
-35.41
-34.55
-30.62
-23.66
-14.42
-4.23
5.4
13.26
18.78
22.18
24.22
25.75
27.2
28.35
28.49
26.83
23.15
18.07
12.84
8.84
6.87
6.78
7.6
8.09
7.42
5.48
2.87
0.41
-1.24
-1.91
-1.73
-0.93
0.34
2.05
3.95
5.4
5.35
2.68
-3.26
-12.29
-23.22
-34.13
-42.85
-47.55
-47.25
-42.15
-33.56
-23.62
-14.45
-7.47
-2.86
0.35
3.6
7.87
13.12
18.41
22.65
25.46
27.52
30.22
34.72
41.23
48.78
55.6
59.94
60.63
57.42
50.87
42.08
32.31
22.83
14.57
8.05
3.24
-0.26
-3
-5.41
-7.67
-9.71
-11.28
-12.02
-11.48
-9.31
-5.41
-0.09
5.9
11.54
15.91
18.49
19.25
18.48
16.57
13.85
10.57
7.04
3.62
0.77
-1.1
-1.86
-1.67
-1.02
-0.5
-0.6
-1.53
-3.19
-5.28
-7.55
-10.03
-13.04
-17.14
-22.8
-30.19
-39.12
-49.01
-59.11
-68.58
-76.58
-82.33
-85.11
-84.41
-80.06
-72.34
-62.03
-50.19
-37.88
-25.71
-13.76
-1.73
10.46
22.22
32.15
38.46
39.76
35.84
27.8
17.68
7.65
-0.84
-7.25
-11.69
-14.39
-15.32
-14.27
-11.18
-6.53
-1.25
3.53
7.07
9.14
9.98
9.95
9.16
7.44
4.67
1.24
-1.74
-2.63
0.06
6.94
17.19
28.67
38.49
43.96
43.44
36.78
25.31
11.38
-2.36
-13.46
-20.04
-20.93
-15.75
-4.87
10.49
28.32
46.13
61.48
72.53
78.49
79.72
77.34
72.81
67.35
61.81
56.6
51.81
47.32
42.88
38.2
32.98
27.21
21.12
15.23
10.06
5.96
2.94
0.74
-0.85
-1.89
-2.08
-1.01
1.62
5.73
10.82
16.19
21.22
25.56
29.18
32.18
34.55
36.11
36.56
35.71
33.64
30.75
27.59
24.65
22.16
20.1
18.22
16.24
13.91
11.05
7.54
3.35
-1.5
-6.83
-12.43
-18.01
-23.34
-28.35
-33.05
-37.52
-41.8
-45.77
-49.22
-51.88
-53.66
-54.66
-55.31
-56.19
-57.85
-60.57
-64.23
-68.24
-71.71
-73.73
-73.57
-70.89
-65.76
-58.57
-49.88
-40.22
-30.12
-20.01
-10.34
-1.5
6.21
12.64
17.85
22.1
25.71
28.92
31.88
34.6
37.01
39.12
40.92
42.4
43.44
43.91
43.72
43.03
42.26
41.92
42.35
43.38
44.29
44.07
41.85
37.36
31.05
23.95
17.25
11.91
8.48
7.04
7.4
9.15
11.79
14.69
17.27
19.15
20.45
21.97
25.16
31.78
43.16
59.64
80.09
102.18
123.15
140.67
153.5
161.4
164.63
163.36
157.46
146.86
132.15
114.8
96.84
79.99
64.85
50.77
36.44
20.94
4.55
-11.27
-24.58
-34.02
-39.54
-42.4
-44.46
-47.36
-51.81
-57.59
-63.91
-69.98
-75.43
-80.31
-84.72
-88.6
-91.57
-93.14
-93.05
-91.56
-89.47
-87.75
-87.25
-88.27
-90.56
-93.43
-96.03
-97.58
-97.52
-95.36
-90.69
-83.15
-72.62
-59.4
-44.34
-28.64
-13.62
-0.35
10.55
18.89
24.76
28.41
30.17
30.42
29.57
27.9
25.47
22.1
17.51
11.74
5.39
-0.3
-3.89
-4.36
-1.66
3.2
8.56
12.67
14.37
13.26
9.54
3.69
-3.75
-12.11
-20.53
-27.96
-33.43
-36.43
-37.31
-37.21
-37.72
-40.27
-45.62
-53.61
-63.22
-72.88
-80.82
-85.38
-85.38
-80.28
-70.29
-56.36
-39.98
-22.96
-6.99
6.58
17.06
24.56
29.99
34.73
40.03
46.38
53.05
58.27
60.13
57.6
51.25
43.06
35.43
29.97
26.75
24.71
22.74
20.67
19.53
20.65
24.52
30.07
35.04
37.29
36.1
32.58
29
27.38
28.36
30.86
32.85
32.36
28.47
21.46
12.47
2.83
-6.39
-14.61
-21.59
-27.32
-31.81
-35.08
-37.08
-37.78
-37.17
-35.29
-32.33
-28.6
-24.47
-20.23
-16.08
-12.14
-8.45
-5.09
-2.08
0.72
3.65
7.16
11.66
17.21
23.42
29.61
35.09
39.45
42.87
45.96
49.6
54.59
61.31
69.56
78.48
86.79
93.04
96.12
95.58
91.83
85.86
78.79
71.27
63.15
53.55
41.46
26.36
8.66
-10.28
-28.7
-45.11
-58.62
-69.06
-76.64
-81.6
-84.08
-84.24
-82.38
-79.15
-75.29
-71.41
-67.64
-63.71
-59.04
-53.21
-46.12
-38.07
-29.54
-21.04
-12.92
-5.4
1.5
7.87
13.9
19.86
25.87
31.75
36.81
40.04
40.28
36.77
29.37
18.56
5.15
-9.99
-25.98
-41.88
-56.48
-68.4
-76.38
-79.66
-78.21
-72.71
-64.4
-54.79
-45.38
-37.5
-32.15
-29.75
-30.06
-32.17
-34.75
-36.52
-36.65
-35.06
-32.41
-29.84
-28.6
-29.65
-33.36
-39.44
-47.08
-55.34
-63.35
-70.43
-76.01
-79.53
-80.59
-79.22
-76.26
-73.22
-71.84
-73.33
-77.73
-83.8
-89.62
-93.45
-94.53
-93.4
-91.55
-90.75
-92.24
-96.21
-101.72
-106.92
-109.78
-108.69
-103.11
-93.69
-81.99
-69.85
-58.75
-49.51
-42.26
-36.71
-32.24
-27.94
-22.54
-14.7
-3.46
11.17
28.05
45.2
60.64
73.25
83.19
91.6
99.93
109.12
119.23
129.49
138.63
145.29
148.41
147.37
142.09
133.15
121.84
109.82
98.7
89.25
80.92
71.79
59.27
41.18
17.07
-11.26
-40.12
-65.22
-83.37
-93.67
-97.74
-98.65
-99.52
-102.11
-106.26
-110.29
-111.83
-108.78
-99.8
-84.39
-62.73
-35.47
-3.64
31.4
68.3
106.13
144.69
184.28
224.83
264.74
300.4
326.69
338.61
333.19
311
276.26
235.82
197.08
166.09
146.17
137.52
137.65
142.42
147.27
148.16
142.26
128.17
105.49
74.5
36.16
-7.59
-53.33
-96.31
-131.35
-154.45
-164.31
-162.89
-154.7
-145.01
-137.76
-134.41
-133.98
-134.21
-133.14
-130.23
-126.53
-124.03
-124.66
-129.52
-138.44
-150.23
-163.02
-174.83
-183.98
-189.32
-190.34
-187.11
-180.05
-169.74
-156.83
-142.08
-126.5
-111.38
-98.07
-87.58
-80.09
-74.91
-70.8
-66.56
-61.51
-55.58
-48.87
-41.21
-31.94
-20.1
-4.95
13.65
35.01
57.93
81.03
103.14
123.57
142.1
159.03
175.01
190.8
206.87
223.02
238.27
251.18
260.44
265.35
266
262.8
255.91
244.85
228.61
206.28
177.69
143.74
106.1
66.65
26.85
-12.48
-50.94
-88.26
-123.99
-157.54
-188.24
-215.49
-238.54
-256.32
-267.43
-270.53
-264.97
-251.35
-231.58
-208.41
-184.52
-161.66
-140.27
-119.81
-99.36
-78.46
-57.43
-37.26
-19.07
-3.66
8.84
18.82
26.95
33.96
40.63
47.79
56.35
67.12
80.4
95.66
111.54
126.2
137.92
145.57
148.76
147.63
142.51
133.64
121.15
105.19
86.06
64.11
39.7
13.19
-14.95
-43.84
-72.1
-98.02
-120.06
-137.29
-149.57
-157.46
-161.8
-163.38
-162.95
-161.34
-159.56
-158.63
-159.27
-161.45
-164.37
-166.69
-166.99
-164.23
-157.87
-147.84
-134.44
-118.29
-100.31
-81.66
-63.56
-46.9
-32.15
-19.29
-8.15
1.39
9.33
15.65
20.66
25
29.45
34.61
40.57
46.87
52.76
57.51
60.69
62.18
62.11
60.79
58.73
56.7
55.7
56.84
60.98
68.48
79.01
91.66
105.19
118.38
130.29
140.38
148.54
154.95
159.95
163.88
166.95
169.05
169.69
167.77
161.81
150.4
132.89
109.94
83.71
57.15
33.08
13.07
-2.92
-16.26
-28.71
-41.55
-55.12
-69.02
-82.63
-95.41
-106.99
-116.74
-123.62
-126.41
-124.3
-117.66
-108.13
-98.19
-90.18
-85.3
-83.3
-82.59
-81.07
-76.74
-68.2
-54.65
-35.79
-11.72
16.91
48.86
82.4
115.67
147.13
176
202.25
226.35
248.76
269.62
288.56
305.05
318.72
329.56
337.76
343.2
345.02
341.56
330.94
312.04
285.17
252.31
216.44
180.36
145.7
112.48
79.39
44.53
6.35
-35.6
-80.29
-125.13
-166.53
-200.78
-225.19
-238.9
-243.12
-240.59
-234.4
-226.98
-219.49
-211.98
-204
-195.16
-185.41
-174.92
-163.89
-152.31
-139.99
-126.65
-112.03
-95.88
-78.11
-58.76
-38.11
-16.7
4.68
25.14
43.79
59.97
73.3
83.73
91.52
97.19
101.46
105.1
108.81
112.97
117.59
122.09
125.42
126.36
123.91
117.71
108.3
96.99
85.43
74.93
66.15
58.82
52.06
44.7
35.78
24.72
11.5
-3.45
-19.37
-35.21
-49.81
-62.13
-71.47
-77.71
-81.49
-83.89
-86.17
-89.17
-93.15
-97.75
-102.26
-105.94
-108.19
-108.72
-107.55
-105.03
-101.8
-98.67
-96.36
-95.14
-94.64
-93.93
-91.93
-87.83
-81.48
-73.3
-64.05
-54.48
-45.14
-36.42
-28.53
-21.56
-15.45
-10.09
-5.38
-1.39
1.47
2.62
1.46
-2.32
-8.64
-17.01
-26.72
-37.06
-47.42
-57.43
-66.87
-75.57
-83.29
-89.65
-94.25
-96.76
-97.14
-95.63
-92.73
-88.86
-84.21
-78.72
-72.24
-64.87
-57.08
-49.67
-43.32
-38.37
-34.56
-31.27
-27.85
-23.99
-19.79
-15.6
-11.69
-8.12
-4.75
-1.39
1.84
4.48
5.91
5.68
3.9
1.36
-0.78
-1.45
-0.28
2.27
5.21
7.69
9.46
11.1
13.46
17.17
21.99
26.95
30.63
31.65
28.84
21.21
7.87
-11.69
-37.04
-66.27
-96.01
-122.28
-141.73
-152.89
-156.53
-155.08
-151.41
-147.64
-144.53
-141.6
-137.79
-132.16
-124.31
-114.43
-103.07
-90.83
-78.15
-65.17
-51.76
-37.65
-22.55
-6.39
10.55
27.59
43.74
57.72
68.08
73.27
71.77
62.52
45.47
22.37
-3.08
-25.8
-40.69
-44.27
-35.75
-16.82
9.49
40.37
74.07
109.41
144.75
176.98
201.92
215.71
216.48
205.37
185.86
162.25
138.07
115.4
95.12
77.63
63.25
52.05
43.39
35.8
27.68
18.42
9.28
2.93
2.02
7.55
18.02
30.12
40.33
46.62
49
48.86
47.67
45.85
42.76
37.48
29.8
20.54
11.14
2.68
-4.78
-12.05
-20.18
-29.82
-41.08
-53.81
-67.95
-83.46
-100.1
-116.9
-131.98
-142.78
-146.53
-140.85
-124.48
-97.83
-63.47
-26.17
7.84
32.34
43.19
40.02
26.71
10.15
-2.18
-4.94
3.35
20.3
41.2
61.17
76.82
86.88
91.68
92.12
88.89
82.29
72.68
61.02
48.98
38.47
30.85
26.24
23.56
21.21
17.94
13.62
9.28
6.47
6.45
9.57
15.05
21.35
26.7
29.67
29.44
26.01
20.13
13.13
6.6
1.99
0.17
1.13
4
7.3
9.38
8.88
5
-2.34
-12.48
-24.13
-35.64
-45.29
-51.53
-53.35
-50.41
-43.13
-32.56
-20.06
-6.92
5.93
17.96
28.93
38.47
45.84
50.01
49.96
45.33
36.68
25.45
13.31
1.59
-9.16
-18.93
-27.56
-34.4
-38.37
-38.79
-36.16
-32.43
-30.25
-31.58
-36.68
-44.12
-51.77
-58.02
-62.49
-65.73
-68.26
-70
-70.41
-69.11
-66.49
-63.56
-61.04
-58.67
-55
-48.25
-37.41
-22.85
-6.02
11.47
28.53
44.77
59.93
73.27
83.59
89.75
91.47
89.71
86.5
84
83.75
86.2
91.01
97.49
104.97
112.72
119.62
124.01
124.03
118.34
107.02
91.95
76.4
63.92
56.98
55.98
58.94
62.23
61.76
54.6
40
19.72
-2.69
-23.2
-38.78
-48.3
-52.45
-53
-51.78
-49.87
-47.48
-44.24
-39.71
-33.75
-26.72
-19.48
-13.23
-9.09
-7.69
-8.87
-11.68
-14.89
-17.71
-20.32
-23.91
-30.11
-40.08
-53.89
-70.43
-87.92
-104.56
-118.89
-129.69
-135.7
-135.89
-130.38
-121.33
-113.1
-110.71
-117.47
-132.73
-151.3
-165.15
-166.72
-152.13
-122.75
-84.24
-44.08
-8.65
18.46
36.73
47.69
53.69
56.84
58.58
59.56
59.94
59.76
59.26
58.99
59.44
60.63
61.99
62.56
61.65
59.41
56.95
55.74
56.78
59.83
63.41
65.44
64.18
58.95
50.16
38.84
26.06
12.56
-0.97
-13.65
-24.2
-31.19
-33.76
-32.05
-27.29
-21.22
-15.35
-10.37
-5.98
-1.46
3.87
10.09
16.78
23.27
29.02
33.78
37.48
40.04
41.4
41.62
41.12
40.59
40.77
41.94
43.66
44.86
44.44
41.81
37.28
31.82
26.47
21.66
16.99
11.54
4.43
-4.61
-15.12
-26.18
-36.88
-46.63
-55.07
-61.86
-66.26
-67.09
-62.93
-52.59
-35.64
-12.83
13.88
41.65
67.4
88.61
103.96
113.6
118.88
121.6
123.17
123.91
123.03
119.24
111.7
100.84
88.58
77.79
71.18
70.26
74.6
81.88
88.47
90.5
85.06
71.22
50.46
26.33
3.36
-14.48
-25.2
-29.41
-29.94
-30.68
-35.02
-44.75
-59.63
-77.66
-95.78
-110.74
-119.84
-121.49
-115.58
-103.44
-87.45
-70.29
-54.21
-40.55
-29.63
-20.99
-13.81
-7.26
-0.7
6.24
13.71
21.7
30.07
38.55
46.9
54.84
62.11
68.48
73.7
77.45
79.33
78.9
75.75
69.61
60.48
48.69
34.88
19.96
4.87
-9.49
-22.29
-32.73
-40.09
-43.95
-44.56
-43.11
-41.61
-42.35
-47.02
-55.86
-67.41
-78.82
-86.81
-88.74
-83.37
-71.07
-53.47
-32.86
-11.49
8.77
26.75
41.97
54.59
65.27
74.8
83.8
92.31
99.71
104.95
107.01
105.39
100.45
93.21
84.88
76.4
68.12
60.01
51.97
44.24
37.44
32.29
29.17
27.73
27.04
25.85
23.2
18.71
12.66
5.7
-1.43
-8.14
-14.02
-18.69
-21.92
-23.73
-24.63
-25.61
-27.76
-31.72
-37.23
-43.13
-47.8
-49.99
-49.31
-46.37
-42.28
-38.06
-34.24
-30.83
-27.68
-24.82
-22.64
-21.69
-22.25
-24.06
-26.17
-27.25
-26.02
-21.79
-14.68
-5.59
4.25
13.7
22.03
29.05
34.85
39.53
43.13
45.56
46.78
46.87
46.1
44.8
43.24
41.61
40.01
38.59
37.54
37.16
37.82
39.9
43.76
49.59
57.22
65.95
74.58
81.7
86.23
87.92
87.51
86.66
87.24
90.75
97.68
107.32
117.79
126.59
131.16
129.58
121.05
106.18
86.79
65.49
45.06
27.92
15.77
9.46
8.95
13.37
21.22
30.67
40
47.89
53.54
56.49
56.27
52.2
43.45
29.26
9.47
-15.1
-42.5
-69.86
-94.14
-113.15
-126.23
-134.47
-140.09
-145.33
-151.36
-157.84
-163.38
-166.5
-166.56
-163.94
-159.59
-154.17
-147.58
-139.14
-128.29
-115.2
-100.95
-87.15
-75.27
-65.99
-59.03
-53.22
-46.96
-38.67
-27.17
-12.01
6.27
26.09
44.95
59.95
68.59
69.57
63.31
51.74
37.66
23.62
11.13
0.47
-8.88
-17.49
-25.29
-31.52
-35.24
-35.78
-33.04
-27.32
-18.95
-8.25
4.21
17.24
28.87
36.71
38.84
34.63
25.09
12.49
-0.56
-12.11
-21.36
-28.42
-33.74
-37.6
-40.01
-41.03
-41.03
-40.59
-40.1
-39.19
-36.62
-30.81
-20.81
-7.25
7.5
20.14
27.89
29.77
27.04
22.44
18.75
17.36
17.64
17.49
14.57
7.52
-3.34
-16.29
-29.19
-40.42
-49.54
-57.12
-64.24
-71.67
-79.52
-87.28
-94.11
-99.44
-103.24
-106.02
-108.61
-111.71
-115.68
-120.43
-125.54
-130.53
-134.88
-137.96
-138.7
-135.65
-127.26
-112.68
-92.41
-68.54
-44.21
-22.45
-5.12
7.69
17.4
25.98
34.97
44.97
55.71
66.58
77.22
87.56
97.28
105.27
109.48
107.61
98.32
82.45
63.24
45.47
33.79
31.08
37.61
51.38
69.08
87.09
102.31
112.42
116.22
113.92
107.19
98.77
91.47
86.93
84.98
83.82
81.13
75.37
66.61
56.54
47.55
41.66
39.62
40.65
42.82
43.76
41.46
34.98
24.61
11.68
-2.05
-15.1
-26.62
-36.36
-44.32
-50.49
-54.83
-57.59
-59.49
-61.62
-64.83
-69.13
-73.37
-75.69
-74.41
-68.96
-60.28
-50.39
-41.59
-35.51
-32.68
-32.54
-33.85
-35.19
-35.28
-33.26
-28.78
-22.06
-13.79
-5.01
3.18
9.72
13.78
14.87
12.89
8.21
1.71
-5.24
-11.12
-14.52
-14.68
-11.69
-6.44
-0.36
5.11
8.98
10.94
11.21
10.21
8.17
4.94
0.1
-6.62
-14.98
-24.05
-32.26
-37.79
-39
-35.03
-26.12
-13.79
-0.45
11.31
19.7
24.39
26.58
28.27
31.32
36.61
43.81
51.82
59.35
65.46
69.6
71.36
70.33
66.12
58.64
48.43
36.58
24.48
13.46
4.45
-2.02
-5.77
-7.03
-6.56
-5.82
-6.87
-11.91
-22.55
-39.01
-59.88
-82.44
-103.4
-119.94
-130.36
-134.38
-132.88
-127.36
-119.42
-110.39
-101.29
-92.92
-86
-81.05
-78.24
-77.22
-77.01
-76.37
-74.13
-69.64
-63.03
-55.1
-46.89
-39.31
-32.72
-26.84
-20.75
-13.24
-3.05
10.78
28.66
50.52
76.14
105.48
138.7
175.96
216.82
259.86
302.67
342.2
375.39
399.69
413.34
415.46
406.05
386.04
357.27
322.44
284.63
246.69
210.68
177.58
147.42
119.54
93.03
66.99
40.84
14.64
-10.83
-34.28
-54.5
-70.89
-83.86
-94.63
-104.78
-115.6
-127.97
-142.44
-159.48
-179.56
-202.72
-228.03
-253.3
-275.42
-291.38
-299.48
-299.94
-294.8
-286.9
-278.7
-271.44
-265.03
-258.57
-250.97
-241.41
-229.37
-214.5
-196.47
-175.22
-151.26
-125.91
-101.11
-78.8
-60.27
-45.58
-33.65
-22.79
-11.44
1.23
15.27
30.22
45.57
61.07
76.9
93.48
111.27
130.49
150.88
171.67
191.46
208.55
221.16
227.9
228.09
221.84
209.88
193.15
172.5
148.56
121.84
92.95
62.77
32.4
2.96
-24.54
-49.37
-71.02
-89.03
-102.97
-112.36
-116.92
-116.8
-112.76
-106.23
-99.12
-93.46
-90.81
-91.87
-96.3
-102.92
-110.17
-116.75
-121.86
-125.24
-126.8
-126.37
-123.53
-117.81
-109.07
-97.69
-84.55
-70.67
-56.83
-43.29
-30.01
-17.01
-4.59
6.61
15.93
23.02
27.96
31.13
32.86
33.25
32.23
29.81
26.34
22.49
18.93
16.08
14.01
12.68
12.34
13.7
17.71
24.99
35.27
47.36
59.53
70.26
78.77
85.18
90.04
93.79
96.28
96.86
94.82
89.83
82.26
73.05
63.37
54.2
46.18
39.71
35.03
32.34
31.66
32.71
34.83
37.2
38.99
39.75
39.48
38.54
37.47
36.66
36.27
36.22
36.22
35.95
35.26
34.21
33.16
32.58
32.83
33.93
35.63
37.57
39.7
42.51
46.89
53.79
63.74
76.48
91.12
106.27
120.55
132.65
141.52
146.31
146.59
142.48
134.61
123.98
111.55
97.86
82.94
66.54
48.5
29.04
8.8
-11.39
-30.91
-49.51
-67.31
-84.53
-101.28
-117.46
-132.87
-147.46
-161.42
-175.08
-188.46
-200.78
-210.29
-214.56
-211.39
-199.79
-180.61
-156.54
-131.25
-108.19
-89.56
-75.74
-65.49
-56.59
-46.65
-33.99
-18.07
0.28
19.19
36.28
49.58
58.11
62.2
63.06
62.12
60.32
57.77
53.96
48.27
40.5
31.06
20.8
10.72
1.72
-5.62
-11.03
-14.61
-16.8
-18.38
-20.37
-23.74
-29.01
-36.07
-44.09
-51.74
-57.66
-60.98
-61.67
-60.48
-58.61
-57.12
-56.47
-56.29
-55.57
-53.11
-48
-39.87
-29.02
-16.3
-2.87
9.89
20.7
28.55
33.03
34.48
33.84
32.43
31.51
31.88
33.77
36.72
39.89
42.26
42.96
41.49
37.88
32.59
26.4
20.07
14.14
8.76
3.8
-1.02
-5.87
-10.63
-14.87
-17.92
-18.98
-17.44
-13.03
-6.02
2.88
12.78
22.93
32.97
42.89
52.88
62.96
72.81
81.78
89.2
94.73
98.45
100.85
102.47
103.71
104.72
105.54
106.19
106.78
107.39
108
108.36
108.16
107.18
105.45
103.26
100.88
98.37
95.44
91.56
86.27
79.37
70.99
61.42
50.88
39.35
26.63
12.57
-2.64
-18.47
-34.15
-48.99
-62.67
-75.2
-86.84
-97.76
-107.92
-116.98
-124.47
-129.9
-132.99
-133.64
-132.05
-128.54
-123.54
-117.5
-110.87
-104.07
-97.51
-91.55
-86.56
-82.84
-80.54
-79.55
-79.52
-79.87
-79.96
-79.32
-77.74
-75.38
-72.73
-70.35
-68.68
-67.83
-67.51
-67.16
-66.14
-63.88
-60
-54.21
-46.3
-36.19
-24.16
-11.01
2
13.4
22.07
27.68
30.82
32.73
34.65
37.34
40.84
44.59
47.98
50.61
52.48
53.79
54.67
55.07
54.78
53.59
51.39
48.24
44.18
39.2
33.32
26.69
19.78
13.31
8.01
4.29
1.96
0.23
-1.99
-5.73
-11.58
-19.52
-28.99
-39.17
-49.15
-58.15
-65.59
-71.09
-74.59
-76.3
-76.65
-76.1
-74.92
-73.08
-70.16
-65.63
-59
-50.08
-39.01
-26.2
-12.18
2.49
17.24
31.5
44.59
55.84
64.59
70.25
72.48
71.27
67.05
60.57
52.77
44.41
35.91
27.3
18.45
9.46
0.85
-6.44
-11.46
-13.58
-12.88
-10.09
-6.24
-2.21
1.53
4.9
7.93
10.45
11.99
12.12
10.75
8.43
6.13
4.86
4.97
5.87
6.23
4.59
0.04
-7.35
-16.63
-26.44
-35.54
-43.14
-48.95
-52.86
-54.88
-55.03
-53.54
-50.88
-47.79
-44.98
-43.02
-42.16
-42.41
-43.68
-45.85
-48.86
-52.6
-56.93
-61.57
-66.18
-70.37
-73.6
-75.23
-74.64
-71.39
-65.47
-57.38
-47.97
-38.17
-28.68
-19.82
-11.69
-4.29
2.2
7.52
11.43
13.93
15.41
16.52
17.94
20.03
22.75
25.66
28.16
29.84
30.59
30.61
30.26
29.8
29.28
28.52
27.18
24.92
21.48
16.73
10.75
3.89
-3.19
-9.56
-14.17
-16.1
-14.91
-10.73
-4.21
3.61
11.73
19.34
25.98
31.47
35.78
38.91
40.8
41.43
40.82
39.17
36.89
34.57
32.8
32
32.2
32.96
33.55
33.19
31.4
28.24
24.24
20.2
16.83
14.48
13.09
12.29
11.53
10.28
8.06
4.49
-0.65
-7.28
-14.89
-22.5
-28.8
-32.51
-32.7
-29.16
-22.4
-13.43
-3.41
6.72
16.4
25.43
33.79
41.38
48.02
53.42
57.39
60
61.67
63.04
64.84
67.61
71.65
76.95
83.24
90.15
97.23
104
109.91
114.39
116.92
117.2
115.25
111.43
106.28
100.31
93.87
87.06
79.85
72.23
64.38
56.71
49.78
44.25
40.68
39.37
40.23
42.71
45.75
48
48.06
44.81
37.73
26.98
13.41
-1.54
-16.25
-29.23
-39.5
-46.84
-51.74
-55.14
-57.94
-60.58
-62.79
-63.6
-61.64
-55.63
-44.84
-29.43
-10.54
9.77
28.96
44.66
55.3
60.52
61.31
59.61
57.61
57.08
58.81
62.58
67.44
72.14
75.7
77.58
77.68
76.19
73.55
70.35
67.39
65.54
65.46
67.31
70.54
73.97
76.11
75.77
72.41
66.39
58.72
50.73
43.55
37.87
33.85
31.18
29.3
27.45
24.9
20.93
14.99
6.76
-3.88
-16.73
-31.39
-47.27
-63.65
-79.78
-95.12
-109.5
-123.14
-136.51
-149.99
-163.49
-176.4
-187.68
-196.45
-202.26
-205.34
-206.3
-205.79
-204.21
-201.67
-198.13
-193.61
-188.1
-181.47
-173.31
-163.12
-150.55
-135.89
-120.08
-104.54
-90.64
-79.27
-70.65
-64.44
-59.97
-56.53
-53.47
-50.19
-46.24
-41.41
-35.73
-29.5
-23.08
-16.67
-10.15
-3.16
4.68
13.42
22.75
32.06
40.68
48.19
54.47
59.74
64.37
68.73
73.1
77.62
82.25
86.81
91.02
94.45
96.61
96.93
94.98
90.55
83.92
75.8
67.25
59.29
52.62
47.39
43.24
39.69
36.48
33.86
32.63
33.74
37.9
45.23
55.1
66.38
77.8
88.33
97.33
104.52
109.76
112.85
113.55
111.73
107.61
101.9
95.66
89.88
85.1
81.09
77.06
72.09
65.63
57.79
49.22
40.64
32.41
24.29
15.58
5.5
-6.37
-20.01
-34.87
-50.12
-64.78
-77.89
-88.58
-96.28
-100.85
-102.66
-102.49
-101.29
-99.81
-98.44
-97.03
-95.07
-92.02
-87.54
-81.74
-75.1
-68.43
-62.53
-58.05
-55.29
-54.15
-54.22
-54.9
-55.51
-55.54
-54.66
-52.86
-50.4
-47.69
-45.27
-43.61
-43.06
-43.83
-45.96
-49.39
-53.96
-59.35
-65.1
-70.58
-75.09
-77.95
-78.76
-77.39
-73.93
-68.57
-61.37
-52.22
-40.96
-27.61
-12.49
3.7
20.21
36.4
51.95
66.69
80.43
92.68
102.79
110.08
114.22
115.48
114.65
112.81
110.95
109.71
109.31
109.53
110.02
110.35
110.21
109.4
107.89
105.7
102.89
99.45
95.35
90.59
85.3
79.78
74.37
69.45
65.28
62.12
60.4
60.67
63.48
69.05
76.91
86
94.94
102.55
108.33
112.45
115.4
117.63
119.19
119.82
119.21
117.3
114.38
110.9
107.28
103.57
99.49
94.51
88.09
79.84
69.64
57.52
43.68
28.28
11.44
-6.72
-26.11
-46.54
-67.73
-89.31
-110.91
-132.29
-153.33
-173.99
-194.18
-213.82
-232.77
-250.88
-268
-283.75
-297.42
-307.94
-314.12
-315.1
-310.69
-301.61
-289.08
-274.46
-258.69
-242.17
-225
-207.36
-189.84
-173.41
-159.18
-147.86
-139.56
-133.71
-129.35
-125.44
-121.15
-115.94
-109.44
-101.41
-91.63
-80
-66.72
-52.28
-37.43
-22.88
-9.18
3.44
14.91
25.09
33.66
40.08
43.89
44.9
43.41
40.13
35.93
31.58
27.5
23.63
19.48
14.49
8.33
1.33
-5.57
-11
-13.7
-13.01
-9.02
-2.5
5.64
14.6
23.96
33.55
43.21
52.51
60.74
67
70.43
70.44
66.86
59.93
50.41
39.37
27.99
17.35
8.17
0.78
-4.81
-8.71
-11.03
-11.91
-11.58
-10.53
-9.4
-8.71
-8.51
-8.11
-6.25
-1.49
7.08
19.45
34.57
50.6
65.61
78.04
87.11
92.76
95.53
96.19
95.52
94.21
92.7
91.2
89.68
87.81
85.12
81.14
75.61
68.61
60.65
52.55
45.16
39.03
34.23
30.4
26.95
23.47
19.9
16.59
14.02
12.53
12.12
12.45
13.05
13.51
13.72
13.89
14.5
16.19
19.61
25.3
33.47
43.69
54.6
63.9
68.76
66.48
55.47
35.88
9.71
-19.8
-49.14
-75.69
-98.23
-116.82
-132.21
-145
-155.26
-162.74
-167.33
-169.49
-170.3
-170.9
-171.92
-173.09
-173.45
-171.93
-168.1
-162.46
-156.18
-150.37
-145.41
-140.66
-134.76
-126.43
-115.14
-101.59
-87.4
-74.41
-63.86
-55.78
-49.05
-41.97
-33.11
-21.92
-8.91
4.72
17.68
29.13
38.86
47.12
54.27
60.44
65.44
68.82
70.12
69.15
66.08
61.56
56.5
51.94
48.71
47.21
47.34
48.67
50.65
52.83
54.98
56.92
58.45
59.34
59.39
58.65
57.52
56.59
56.34
56.82
57.32
56.66
53.7
48.03
40.57
33.55
29.79
31.65
40.09
54.18
71.64
89.75
106.48
121.01
133.66
145.19
156.16
166.59
176.12
184.36
191.14
196.42
200.05
201.5
200.02
194.9
185.84
173.01
156.8
137.58
115.4
90.08
61.42
29.56
-4.9
-40.73
-76.19
-109.03
-136.89
-157.62
-169.97
-173.96
-170.91
-162.97
-152.3
-140.28
-127.38
-113.44
-98.44
-82.95
-68.19
-55.4
-45.19
-37.27
-30.9
-25.79
-22.9
-24.41
-32.71
-48.75
-70.84
-94.54
-114.04
-124.18
-122.3
-108.77
-86.43
-59.04
-30.04
-1.83
24.17
47.16
66.7
82.7
95.5
105.82
114.45
121.91
128.2
132.91
135.5
135.67
133.54
129.7
125.15
121.1
118.81
119.1
122.14
127.19
132.94
137.95
141.16
142.16
141.05
138.04
133.11
125.97
116.44
104.92
92.51
80.78
71
63.49
57.33
50.75
41.87
29.41
13.04
-6.92
-29.99
-55.97
-84.94
-116.92
-151.41
-187.13
-222.22
-254.79
-283.46
-307.62
-327.18
-342.14
-352.18
-356.64
-354.92
-346.95
-333.57
-316.46
-297.53
-278.15
-258.62
-238.1
-215.17
-188.71
-158.67
-126.29
-93.62
-62.79
-35.25
-11.43
9.08
27.05
43.06
57.24
69.43
79.33
86.8
91.88
94.62
94.98
92.8
88.02
80.9
72.16
62.66
53.07
43.54
33.62
22.72
10.71
-1.68
-12.83
-20.93
-24.69
-24.03
-20.05
-14.43
-8.7
-3.61
0.93
5.45
10.35
15.6
20.75
25.3
29.03
32.11
35
37.96
40.92
43.41
44.83
44.85
43.66
41.95
40.61
40.28
41.05
42.49
43.87
44.55
44.27
43.16
41.62
40.02
38.53
37.02
35.29
33.17
30.74
28.33
26.35
25.15
24.78
25.07
25.71
26.39
26.93
27.39
27.91
28.76
30.16
32.23
34.95
38.06
41.16
43.78
45.57
46.43
46.51
46.2
45.85
45.69
45.74
45.92
46.13
46.38
46.71
47.19
47.87
48.78
50.07
51.94
54.6
58.07
62.11
66.14
69.31
70.64
69.14
64.03
55.05
42.68
28.25
13.79
1.55
-6.75
-10.38
-9.84
-6.53
-2.1
2.19
