-21
-12.61
-5.34
0.79
5.94
10.25
13.71
16.17
17.52
17.74
17.06
15.79
14.38
13.17
12.31
11.8
11.47
11.17
10.83
10.5
10.32
10.36
10.57
10.72
10.52
9.67
8.03
5.6
2.55
-0.89
-4.48
-8.05
-11.52
-14.9
-18.35
-22.1
-26.46
-31.68
-37.81
-44.55
-51.15
-56.51
-59.39
-58.85
-54.56
-47.03
-37.39
-27.11
-17.39
-8.79
-1.2
5.94
13.2
20.76
28.32
35.22
40.88
44.99
47.68
49.38
50.58
51.56
52.33
52.7
52.44
51.5
49.99
48.12
46.05
43.7
40.78
36.95
32.05
26.29
20.23
14.65
10.21
7.26
5.67
4.99
4.51
3.55
1.64
-1.33
-5.05
-8.78
-11.58
-12.53
-11.03
-6.99
-0.84
6.66
14.61
22.28
29.2
35.2
40.26
44.51
48.05
51.02
53.56
55.82
57.91
59.9
61.8
63.48
64.82
65.68
66.05
66.1
66.11
66.35
67.07
68.24
69.59
70.58
70.55
68.87
65.12
59.14
51
40.84
28.79
14.94
-0.44
-16.77
-32.95
-47.57
-59.17
-66.7
-69.73
-68.59
-64.23
-58.08
-51.96
-47.91
-47.77
-52.65
-62.34
-75.17
-88.53
-99.77
-107.35
-111.31
-113
-114.17
-115.93
-118.23
-120.14
-120.58
-119.1
-116.19
-112.84
-109.86
-107.37
-104.72
-100.98
-95.62
-88.89
-81.76
-75.46
-70.9
-68.39
-67.59
-67.88
-68.56
-68.99
-68.55
-66.58
-62.39
-55.53
-45.96
-34.12
-20.87
-7.19
6.07
18.27
29.04
38.17
45.52
51.08
54.8
56.78
57.18
56.28
54.49
52.31
50.21
48.59
47.61
47.16
46.96
46.62
45.82
44.36
42.21
39.45
36.14
32.32
27.94
22.94
17.3
11.07
4.32
-2.79
-9.98
-16.65
-21.88
-24.49
-23.42
-18.04
-8.53
4.21
18.77
33.74
48.02
61.04
72.63
82.91
92.08
100.32
107.77
114.5
120.49
125.65
129.87
133.13
135.44
136.88
137.44
137.11
135.9
133.98
131.72
129.51
127.57
125.79
123.67
120.54
115.77
108.94
99.79
88
73.11
54.64
32.41
7.06
-19.81
-45.92
-68.94
-87.24
-100.32
-108.75
-113.68
-116.26
-117.21
-116.77
-114.93
-111.74
-107.49
-102.66
-97.72
-92.94
-88.33
-83.68
-78.79
-73.62
-68.33
-63.23
-58.61
-54.51
-50.75
-46.96
-42.75
-37.81
-32
-25.35
-18.09
-10.66
-3.68
2.14
6.35
8.99
10.8
13.04
16.88
22.72
29.78
36.25
40.02
39.72
35.39
28.6
21.8
17.25
16.13
18.04
21.2
23.1
21.39
14.56
2.47
-13.61
-31.15
-47.1
-58.81
-64.86
-65.66
-63.22
-60.31
-59.13
-60.27
-62.43
-63.15
-60.19
-52.76
-42.22
-31.59
-24.3
-22.79
-27.43
-36.46
-46.95
-56.04
-62.2
-65.84
-69.12
-74.99
-86.15
-104
-127.85
-154.88
-180.55
-199.51
-207.19
-201.82
-186
-166.88
-154.01
-155.4
-173.71
-204.42
-237.4
-261.11
-267.42
-254.53
-226.63
-190.86
-153.78
-119.16
-88.1
-60.55
-36.81
-17.9
-4.76
2.76
6.31
8.49
11.87
18.23
28.18
41.19
56.14
71.66
86.56
100.13
112.19
122.81
132
139.29
143.7
144.13
139.95
131.46
119.87
106.66
92.87
78.52
62.83
44.94
24.94
4.31
-14.26
-27.56
-32.91
-29.07
-16.77
1.25
20.9
37.88
49.15
53.92
53.73
51.6
50.51
52.06
56.05
61.07
65.5
68.52
70.25
71.36
72.41
73.63
75.07
76.95
79.69
83.62
88.51
93.36
96.59
96.66
92.83
85.47
76.07
66.69
59.43
55.66
55.54
58
60.96
61.95
59.02
51.49
40.37
28.35
19.04
15.97
21.51
36.03
57.69
82.78
106.67
124.93
134.54
134.68
126.9
114.48
101.36
90.72
84.17
81.46
81.13
81.5
81.49
80.98
80.48
80.43
80.79
80.93
80.08
77.79
74.25
70.08
65.98
62.17
58.24
53.32
46.6
37.79
27.37
16.41
6.09
-2.84
-10.32
-16.99
-23.81
-31.65
-41.02
-51.94
-63.96
-76.23
-87.56
-96.54
-101.85
-102.51
-98.25
-89.63
-77.85
-64.4
-50.62
-37.41
-25.15
-13.85
-3.33
6.53
15.75
24.16
31.54
37.68
42.46
45.97
48.38
49.97
50.94
51.47
51.69
51.75
51.81
52
52.3
52.51
52.33
51.44
49.69
47.11
43.93
40.37
36.58
32.54
28.12
23.2
17.75
11.87
5.78
-0.28
-6.12
-11.72
-17.25
-23.14
-29.95
-38.18
-47.95
-58.88
-69.99
-79.93
-87.41
-91.58
-92.27
-89.92
-85.4
-79.61
-73.31
-66.99
-60.92
-55.19
-49.77
-44.6
-39.58
-34.7
-30
-25.61
-21.59
-17.87
-14.22
-10.34
-5.98
-1.06
4.26
9.73
14.99
19.76
23.79
26.86
28.77
29.39
28.75
27.06
24.66
21.89
18.89
15.58
11.61
6.65
0.48
-6.78
-14.77
-22.94
-30.85
-38.3
-45.42
-52.63
-60.49
-69.46
-79.62
-90.43
-100.64
-108.5
-112.23
-110.58
-103.31
-91.33
-76.38
-60.46
-45.19
-31.46
-19.4
-8.75
0.84
9.48
17.11
23.63
29.03
33.53
37.42
40.97
44.33
47.44
50.21
52.54
54.44
55.91
56.97
57.47
57.26
56.16
54.16
51.42
48.16
44.66
41.03
37.22
33.09
28.44
23.24
17.61
11.84
6.25
1.05
-3.8
-8.56
-13.71
-19.74
-27.03
-35.54
-44.7
-53.37
-60.05
-63.23
-61.87
-55.74
-45.62
-33
-19.68
-7.19
3.6
12.53
19.94
26.3
31.91
36.76
40.68
43.44
45.05
45.67
45.64
45.24
44.6
43.69
42.45
40.87
39.04
37.15
35.35
33.68
31.97
29.91
27.16
23.43
18.64
12.92
6.59
0.14
-5.99
-11.54
-16.55
-21.35
-26.49
-32.46
-39.53
-47.52
-55.76
-63.15
-68.36
-70.19
-67.86
-61.33
-51.32
-39.1
-26.18
-13.85
-2.92
6.33
14
20.34
25.52
29.57
32.52
34.37
35.36
35.82
36.11
36.49
37
37.41
37.39
36.57
34.81
32.24
29.23
26.15
23.23
20.38
17.26
13.48
8.78
3.25
-2.73
-8.58
-13.8
-18.11
-21.66
-24.94
-28.68
-33.6
-40.14
-48.24
-57.2
-65.71
-72.18
-75.1
-73.55
-67.39
-57.37
-44.86
-31.44
-18.46
-6.81
3.19
11.66
18.82
24.87
29.85
33.71
36.45
38.22
39.34
40.24
41.25
42.41
43.41
43.72
42.84
40.58
37.23
33.42
29.86
26.96
24.66
22.45
19.67
15.84
10.88
5.14
-0.81
-6.41
-11.37
-15.74
-19.81
-24.03
-28.82
-34.55
-41.33
-49.04
-57.05
-64.29
-69.34
-70.82
-67.85
-60.43
-49.55
-36.89
-24.23
-12.94
-3.54
4.2
10.92
17.19
23.23
28.82
33.55
37.05
39.22
40.25
40.5
40.31
39.88
39.26
38.44
37.41
36.25
35
33.63
32
29.87
27.04
23.41
19.07
14.24
9.16
4.01
-1.11
-6.17
-11.18
-16.11
-20.92
-25.57
-30.09
-34.66
-39.57
-45.15
-51.63
-58.89
-66.33
-72.8
-76.84
-77.07
-72.69
-63.84
-51.57
-37.58
-23.64
-11.07
-0.43
8.36
15.8
22.37
28.29
33.51
37.84
41.14
43.39
44.76
45.43
45.58
45.3
44.62
43.54
42.11
40.42
38.52
36.47
34.25
31.79
28.98
25.7
21.88
17.49
12.54
7.13
1.43
-4.33
-9.87
-14.99
-19.59
-23.82
-27.98
-32.52
-37.87
-44.32
-51.87
-60.07
-67.98
-74.27
-77.51
-76.58
-71.05
-61.34
-48.7
-34.72
-20.97
-8.52
2.13
11.02
18.48
24.89
30.56
35.65
40.17
44.05
47.14
49.36
50.67
51.16
51.01
50.49
49.87
49.38
49.05
48.72
48.05
46.6
44.01
40.18
35.31
29.84
24.32
19.16
14.54
10.45
6.74
3.28
0.04
-2.89
-5.36
-7.27
-8.56
-9.35
-9.93
-10.7
-12.06
-14.19
-16.84
-19.21
-20.1
-18.22
-12.72
-3.53
8.49
21.7
34.19
44.15
50.36
52.33
50.33
45.26
38.37
30.99
24.26
18.88
15.02
12.28
9.99
7.48
4.31
0.5
-3.59
-7.46
-10.72
-13.28
-15.37
-17.43
-19.86
-22.89
-26.52
-30.56
-34.81
-39.08
-43.23
-47.14
-50.69
-53.73
-56.15
-57.89
-58.94
-59.32
-59.11
-58.4
-57.39
-56.39
-55.8
-56.07
-57.5
-60.1
-63.43
-66.52
-67.99
-66.43
-60.85
-50.99
-37.57
-22.04
-6.2
8.41
20.8
30.72
38.42
44.39
49.04
52.57
55
56.31
56.49
55.64
53.9
51.45
48.37
44.69
40.5
35.99
31.54
27.72
25.09
24.03
24.61
26.49
29.09
31.66
33.5
33.98
32.57
28.73
22.02
12.3
-0.08
-14.02
-27.86
-39.69
-47.99
-52.18
-52.88
-51.66
-50.57
-51.29
-54.58
-60.01
-66.05
-70.68
-71.96
-68.63
-60.46
-48.23
-33.51
-18.1
-3.58
9.07
19.59
28.25
35.62
42.22
48.36
54.14
59.53
64.5
69.06
73.23
77.05
80.47
83.39
85.74
87.52
88.91
90.14
91.44
92.91
94.43
95.74
96.55
96.73
96.37
95.71
94.93
93.94
92.32
89.47
84.87
78.35
70.06
60.35
49.67
38.49
27.45
17.43
9.51
4.62
3.09
4.4
7.21
9.89
11.14
10.39
7.87
4.25
0.11
-4.41
-9.62
-16.04
-24
-33.44
-43.77
-54.18
-63.84
-72.23
-79.18
-84.83
-89.48
-93.47
-97.22
-101.18
-105.9
-111.97
-119.81
-129.44
-140.24
-150.97
-159.89
-165.34
-166.13
-161.89
-152.92
-139.79
-122.98
-102.63
-78.83
-52.13
-24.02
3.09
26.53
44.28
55.79
62.15
65.55
68.27
71.71
76.04
80.43
83.76
85.28
84.94
83.33
81.23
79.16
77.14
74.77
71.45
66.74
60.55
53.18
45.19
37.15
29.37
21.84
14.23
6.18
-2.62
-12.18
-22.27
-32.46
-42.15
-50.7
-57.41
-61.59
-62.72
-60.63
-55.61
-48.45
-40.32
-32.42
-25.68
-20.49
-16.72
-13.85
-11.31
-8.76
-6.27
-4.27
-3.29
-3.69
-5.46
-8.17
-11.16
-13.83
-15.86
-17.35
-18.7
-20.42
-22.98
-26.68
-31.63
-37.82
-44.94
-52.41
-59.39
-65.03
-68.93
-71.47
-73.82
-77.46
-83.41
-91.57
-100.64
-108.52
-113.14
-113.2
-108.49
-99.73
-88.11
-74.77
-60.67
-46.47
-32.71
-19.87
-8.37
1.51
9.66
16.19
21.38
25.62
29.16
32.12
34.33
35.49
35.37
33.95
31.57
28.84
26.42
24.75
23.88
23.43
22.81
21.49
19.18
15.96
12.2
8.34
4.81
1.83
-0.64
-2.89
-5.46
-8.99
-13.98
-20.48
-27.86
-34.77
-39.42
-40.18
-36.15
-27.46
-15.27
-1.3
12.77
25.69
36.87
46.18
53.66
59.28
62.88
64.25
63.27
60.1
55.13
49.01
42.48
36.28
31.07
27.27
25.12
24.63
25.65
27.98
31.4
35.65
40.37
45.07
49.2
52.26
54.02
54.61
54.46
54.15
54.08
54.21
54.07
52.81
49.62
43.95
35.87
25.95
15.1
4.22
-6.13
-15.84
-25.23
-34.93
-45.68
-58.1
-72.38
-88.03
-103.7
-117.29
-126.4
-129.06
-124.45
-113.23
-97.43
-79.77
-62.89
-48.66
-38
-30.96
-27.08
-25.7
-26.16
-27.86
-30.21
-32.64
-34.6
-35.61
-35.31
-33.55
-30.37
-26.05
-20.98
-15.51
-9.88
-4.15
1.7
7.59
13.27
18.28
22.07
24.3
24.97
24.43
23.24
21.86
20.44
18.75
16.35
12.82
8.07
2.36
-3.76
-9.67
-15.01
-19.78
-24.39
-29.45
-35.6
-43.1
-51.68
-60.48
-68.19
-73.36
-74.84
-72.06
-65.23
-55.21
-43.28
-30.71
-18.47
-7.08
3.38
13.08
22.21
30.79
38.61
45.32
50.55
54.11
56.09
56.82
56.79
56.48
56.26
56.28
56.52
56.81
56.94
56.71
56.04
54.92
53.4
51.51
49.21
46.38
42.89
38.64
33.69
28.22
22.55
17
11.81
7.02
2.47
-2.14
-7.18
-12.98
-19.77
-27.57
-36.04
-44.38
-51.36
-55.56
-55.79
-51.51
-43.08
-31.68
-18.88
-6.1
5.74
16.32
25.66
33.85
40.81
46.38
50.46
53.12
54.68
55.6
56.24
56.79
57.22
57.4
57.2
56.58
55.69
54.69
53.76
52.92
52.02
50.76
48.76
45.76
41.76
37.03
32.07
27.41
23.29
19.62
15.97
11.82
6.85
1.12
-4.91
-10.66
-15.68
-19.92
-23.74
-27.76
-32.65
-38.83
-46.4
-55.02
-63.9
-71.83
-77.4
-79.3
-76.67
-69.49
-58.53
-45.25
-31.33
-18.2
-6.72
2.89
10.87
17.7
23.81
29.44
34.62
39.28
43.32
46.67
49.33
51.3
52.55
53.04
52.77
51.83
50.5
49.16
48.12
47.47
46.96
46.11
44.41
41.55
37.64
33.08
28.44
24.13
20.27
16.63
12.82
8.49
3.5
-1.99
-7.62
-13.02
-17.95
-22.4
-26.59
-30.93
-35.9
-41.94
-49.25
-57.56
-66.07
-73.4
-77.96
-78.4
-74.06
-65.31
-53.38
-39.94
-26.6
-14.46
-3.98
4.9
12.51
19.2
25.25
30.76
35.77
40.24
44.11
47.3
49.73
51.29
51.92
51.66
50.72
49.45
48.24
47.4
47.02
46.9
46.6
45.65
43.66
40.49
36.28
31.36
26.2
21.18
16.56
12.36
8.41
4.37
-0.07
-5.05
-10.5
-16.09
-21.45
-26.36
-30.88
-35.38
-40.45
-46.59
-53.99
-62.27
-70.4
-76.94
-80.36
-79.49
-73.93
-64.19
-51.55
-37.7
-24.23
-12.25
-2.24
5.91
12.61
18.36
23.52
28.27
32.57
36.27
39.17
41.14
42.17
42.41
42.17
41.74
41.34
40.99
40.53
39.73
38.41
36.59
34.41
32.08
29.71
27.24
24.44
21.02
16.84
11.93
6.58
1.19
-3.82
-8.22
-11.96
-15.22
-18.33
-21.69
-25.63
-30.43
-36.2
-42.7
-49.32
-54.97
-58.33
-58.18
-53.78
-45.24
-33.5
-20.06
-6.53
5.84
16.39
25.02
31.99
37.54
41.8
44.75
46.22
46.12
44.49
41.57
37.77
33.53
29.27
25.22
21.51
18.17
15.25
12.77
10.74
9.04
7.45
5.72
3.69
1.41
-0.95
-3.17
-5.18
-7.07
-9.04
-11.25
-13.66
-16.14
-18.46
-20.52
-22.39
-24.29
-26.55
-29.5
-33.31
-37.9
-42.69
-46.6
-48.1
-45.69
-38.49
-26.69
-11.66
4.55
19.9
33.01
43.43
51.42
57.52
62.14
65.42
67.4
68.24
68.24
67.72
66.79
65.25
62.7
58.82
53.57
47.38
40.97
35.08
30.3
26.81
24.41
22.57
20.7
18.28
15.08
11.14
6.74
2.16
-2.4
-6.9
-11.42
-16.02
-20.62
-25.04
-29.08
-32.66
-35.91
-39.14
-42.79
-47.27
-52.88
-59.77
-67.76
-76.2
-83.9
-89.26
-90.68
-87.1
-78.41
-65.64
-50.53
-35.03
-20.67
-8.21
2.28
11.19
18.91
25.69
31.6
36.61
40.7
43.9
46.26
47.79
48.47
48.32
47.44
46.06
44.51
43.07
41.85
40.82
39.7
38.2
36.02
32.99
29.05
24.29
18.88
13.04
6.99
0.85
-5.34
-11.69
-18.39
-25.59
-33.35
-41.55
-49.93
-58.16
-66.08
-73.77
-81.53
-89.82
-98.96
-108.94
-119.17
-128.52
-135.51
-138.73
-137.21
-130.78
-120.12
-106.49
-91.46
-76.32
-61.97
-48.75
-36.71
-25.71
-15.68
-6.63
1.4
8.33
14.14
18.81
22.34
24.77
26.22
26.91
27.15
27.27
27.47
27.76
27.92
27.55
26.25
23.71
19.94
15.23
10.13
5.17
0.71
-3.27
-7.19
-11.68
-17.3
-24.27
-32.19
-40.08
-46.51
-50.01
-49.49
-44.64
-35.94
-24.64
-12.27
-0.25
10.45
19.43
26.77
32.8
37.82
42.01
45.39
47.94
49.65
50.55
50.68
50.11
48.87
47.07
44.88
42.57
40.41
38.56
36.95
35.29
33.13
29.99
25.58
19.86
13.11
5.81
-1.48
-8.27
-14.37
-19.93
-25.47
-31.7
-39.21
-48.18
-57.99
-67.3
-74.28
-77.17
-74.89
-67.43
-55.83
-41.86
-27.36
-13.77
-1.77
8.63
17.85
26.35
34.39
41.94
48.74
54.47
58.84
61.77
63.37
63.91
63.71
63.07
62.17
61.06
59.69
58.01
55.94
53.46
50.54
47.17
43.34
39.01
34.14
28.72
22.8
16.51
10.07
3.68
-2.45
-8.24
-13.68
-18.92
-24.21
-29.9
-36.41
-44.02
-52.74
-62.01
-70.72
-77.21
-79.79
-77.21
-69.14
-56.35
-40.45
-23.44
-7.05
7.62
20.23
31.01
40.47
49.08
57.12
64.62
71.43
77.28
81.89
85.08
86.8
87.19
86.52
85.08
83.14
80.83
78.23
75.39
72.43
69.44
66.48
63.49
60.28
56.61
52.32
47.46
42.21
36.89
31.71
26.76
21.96
17.18
12.28
7.21
1.94
-3.51
-9.17
-15.02
-20.99
-26.9
-32.56
-37.89
-43.05
-48.53
-54.96
-62.86
-72.28
-82.53
-92.13
-99.13
-101.61
-98.33
-89.15
-75.06
-57.85
-39.58
-21.86
-5.62
8.96
22.19
34.47
45.99
56.75
66.48
74.83
81.5
86.4
89.62
91.46
92.32
92.53
92.35
91.88
91.17
90.25
89.2
88.06
86.79
85.25
83.15
80.27
76.47
71.78
66.3
60.11
53.24
45.64
37.26
28.06
18.1
7.49
-3.62
-15.03
-26.5
-37.76
-48.63
-59.02
-69.04
-78.92
-89
-99.55
-110.79
-122.83
-135.68
-149.12
-162.64
-175.37
-186.05
-193.37
-196.23
-194.13
-187.33
-176.75
-163.64
-149.12
-133.92
-118.33
-102.42
-86.31
-70.32
-55.07
-41.23
-29.29
-19.33
-11.04
-3.85
2.8
9.2
15.34
20.96
25.83
29.89
33.34
36.57
39.87
43.29
46.52
49.13
50.64
50.84
49.75
47.62
44.8
41.59
38.23
34.83
31.36
27.68
23.59
18.87
13.4
7.3
0.82
-5.63
-11.71
-17.23
-22.23
-26.98
-31.9
-37.32
-43.32
-49.48
-54.84
-58.03
-57.65
-52.71
-43.04
-29.42
-13.35
3.38
19.28
33.44
45.67
56.2
65.4
73.5
80.44
86.04
90.14
92.8
94.37
95.41
96.54
98.2
100.58
103.47
106.38
108.64
109.53
108.53
105.3
99.85
92.36
83.12
72.49
60.79
48.36
35.62
23
10.86
-0.56
-11.23
-21.27
-30.78
-39.85
-48.54
-57.05
-65.79
-75.27
-85.82
-97.24
-108.54
-118.08
-124.07
-125.2
-121.19
-112.9
-102.07
-90.67
-80.37
-71.97
-65.44
-60.01
-54.59
-48.14
-40.06
-30.25
-19.23
-7.83
2.94
12.25
19.61
24.93
28.49
30.72
32.05
32.78
33
32.69
31.74
30.07
27.72
24.72
21.2
17.23
12.83
7.94
2.49
-3.56
-10.14
-17.08
-24.19
-31.27
-38.29
-45.37
-52.8
-60.94
-70.08
-80.21
-90.87
-100.97
-108.94
-113.02
-111.77
-104.57
-91.84
-75.01
-56.05
-36.84
-18.75
-2.39
12.21
25.37
37.37
48.35
58.16
66.41
72.62
76.38
77.63
76.72
74.41
71.6
69.02
66.94
65.13
63.03
60.07
55.89
50.45
43.96
36.72
28.98
20.84
12.22
2.8
-8.02
-20.87
-36.24
-54
-73.22
-92.22
-108.93
-121.57
-129.22
-132.13
-131.67
-129.85
-128.68
-129.45
-132.39
-136.43
-139.67
-139.87
-135.35
-125.5
-110.97
-93.44
-74.89
-57
-40.69
-26.12
-12.94
-0.66
11.06
22.37
33.24
43.5
52.81
60.76
66.87
70.8
72.5
72.34
71.02
69.36
68.05
67.4
67.31
67.35
66.93
65.54
62.89
58.98
54.04
48.41
42.43
36.31
30.12
23.8
17.19
10.17
2.66
-5.28
-13.48
-21.71
-29.76
-37.59
-45.43
-53.69
-62.8
-72.88
-83.42
-93.16
-100.33
-103.14
-100.46
-92.24
-79.6
-64.46
-48.84
-34.25
-21.36
-10.04
0.3
10.21
19.91
29.2
37.64
44.81
50.52
54.89
58.29
61.02
63.29
65.09
66.28
66.8
66.72
66.24
65.6
64.9
64.06
62.86
61.13
58.82
55.98
52.67
48.81
44.16
38.49
31.75
24.19
16.3
8.68
1.78
-4.28
-9.59
-14.52
-19.5
-25.09
-31.79
-39.9
-49.24
-58.89
-67.25
-72.34
-72.49
-66.89
-55.97
-41.3
-25.07
-9.35
4.47
15.91
25.31
33.38
40.8
47.92
54.63
60.57
65.35
68.74
70.82
71.92
72.46
72.72
72.86
72.79
72.39
71.58
70.35
68.74
66.73
64.22
61.06
57.19
52.68
47.72
42.48
37.02
31.27
25.12
18.56
11.8
5.2
-0.89
-6.28
-11.08
-15.74
-20.83
-26.96
-34.52
-43.5
-53.29
-62.62
-69.76
-72.9
-70.72
-62.92
-50.35
-34.89
-18.84
-4.21
7.76
16.86
23.69
29.23
34.37
39.58
44.78
49.59
53.56
56.39
58.07
58.82
58.92
58.66
58.16
57.42
56.4
55.05
53.34
51.22
48.69
45.72
42.32
38.52
34.4
30.02
25.39
20.49
15.29
9.76
4.01
-1.79
-7.43
-12.74
-17.7
-22.49
-27.46
-33.06
-39.73
-47.63
-56.48
-65.35
-72.74
-76.89
-76.27
-70.2
-59.14
-44.59
-28.62
-13.24
0.18
11.09
19.68
26.5
32.14
37.01
41.26
44.88
47.78
49.94
51.39
52.2
52.48
52.35
51.87
51.07
50.02
48.68
47.07
45.15
42.92
40.37
37.51
34.32
30.73
26.6
21.83
16.43
10.58
4.63
-1.04
-6.18
-10.73
-14.91
-19.07
-23.66
-29.07
-35.56
-43.11
-51.33
-59.31
-65.8
-69.34
-68.76
-63.56
-54.11
-41.6
-27.66
-13.88
-1.49
8.92
17.25
23.76
28.79
32.67
35.65
37.91
39.57
40.69
41.3
41.35
40.79
39.6
37.84
35.64
33.23
30.83
28.54
26.27
23.74
20.56
16.44
11.32
5.47
-0.62
-6.42
-11.54
-15.96
-19.97
-24.17
-29.21
-35.55
-43.16
-51.38
-58.89
-64.02
-65.22
-61.61
-53.35
-41.63
-28.31
-15.24
-3.76
5.63
13.11
19.21
24.41
28.89
32.57
35.27
36.89
37.53
37.44
36.87
35.95
34.65
32.9
30.7
28.22
25.75
23.57
21.72
20
17.93
15.03
10.99
5.82
-0.17
-6.43
-12.41
-17.77
-22.44
-26.67
-30.98
-35.95
-42.04
-49.34
-57.42
-65.26
-71.42
-74.4
-73.03
-66.92
-56.62
-43.53
-29.44
-15.98
-4.23
5.5
13.48
20.23
26.13
31.33
35.75
39.23
41.73
43.33
44.24
44.65
44.72
44.5
43.98
43.06
41.65
39.7
37.26
34.47
31.46
28.33
25.05
21.53
17.65
13.37
8.79
4.05
-0.69
-5.36
-9.95
-14.49
-18.99
-23.42
-27.77
-32.09
-36.59
-41.6
-47.47
-54.31
-61.81
-69.04
-74.6
-76.94
-74.9
-68.15
-57.41
-44.16
-30.21
-17.08
-5.65
3.85
11.66
18.23
23.89
28.85
33.18
36.86
39.83
42.03
43.41
44.04
44.02
43.53
42.72
41.72
40.61
39.42
38.22
36.99
35.65
33.96
31.63
28.45
24.46
19.94
15.42
11.34
7.88
4.9
1.92
-1.54
-5.76
-10.63
-15.78
-20.7
-25.02
-28.69
-31.92
-35.22
-39.13
-44.07
-50.18
-57.09
-63.91
-69.33
-71.92
-70.55
-64.77
-55.04
-42.58
-29.04
-16
-4.63
4.55
11.57
16.8
20.76
23.87
26.44
28.63
30.46
31.88
32.83
33.2
32.97
32.14
30.79
29.03
27.04
24.98
22.99
21.12
19.28
17.23
14.66
11.27
6.98
1.98
-3.31
-8.36
-12.78
-16.46
-19.64
-22.75
-26.31
-30.67
-35.93
-41.79
-47.53
-52.09
-54.26
-53.06
-48.09
-39.73
-29.08
-17.61
-6.69
2.82
10.67
17.09
22.5
27.16
31.09
34.1
35.98
36.71
36.55
35.98
35.45
35.18
35.1
34.87
34.21
32.99
31.42
29.83
28.5
27.43
26.33
24.73
22.2
18.6
14.1
9.11
4.17
-0.29
-4.01
-7.01
-9.57
-12.13
-15.2
-19.2
-24.22
-29.92
-35.4
-39.35
-40.35
-37.34
-29.97
-18.84
-5.28
9.1
23.02
35.8
47.48
58.5
69.3
80.03
90.48
100.15
108.38
114.49
117.88
118.31
115.91
111.37
105.71
99.96
94.81
90.37
86.22
81.75
76.49
70.22
62.98
54.89
45.98
36.25
25.73
14.68
3.5
-7.35
-17.51
-26.82
-35.33
-43.22
-50.78
-58.31
-66.14
-74.62
-84
-94.39
-105.54
-116.83
-127.32
-135.87
-141.54
-143.82
-142.75
-138.94
-133.28
-126.65
-119.64
-112.41
-104.77
-96.4
-87.08
-76.87
-66.05
-55.13
-44.6
-34.94
-26.53
-19.68
-14.57
-11.21
-9.32
-8.41
-7.96
-7.59
-7.32
-7.48
-8.53
-10.75
-13.94
-17.5
-20.73
-23.09
-24.62
-25.82
-27.46
-30.12
-33.85
-38.15
-42.09
-44.73
-45.43
-43.99
-40.59
-35.69
-29.87
-23.86
-18.51
-14.74
-13.2
-13.98
-16.25
-18.35
-18.28
-14.38
-6.08
5.89
19.67
33.07
44.26
52.34
57.47
60.48
62.32
63.67
64.67
65.08
64.5
62.73
59.82
56.04
51.68
46.86
41.48
35.31
28.21
20.34
12.15
4.19
-3.12
-9.74
-16.06
-22.64
-29.83
-37.59
-45.31
-52.16
-57.42
-60.82
-62.68
-63.65
-64.48
-65.58
-66.95
-68.32
-69.39
-70.07
-70.67
-71.76
-73.96
-77.67
-82.88
-89.02
-95.04
-99.52
-100.99
-98.32
-91.04
-79.56
-65.08
-49.23
-33.64
-19.46
-7.19
3.22
12.13
19.91
26.71
32.57
37.44
41.35
44.44
46.91
48.89
50.43
51.5
52.03
52.06
51.72
51.22
50.73
50.26
49.63
48.55
46.73
44.03
40.51
36.37
31.89
27.27
22.64
18
13.3
8.53
3.68
-1.22
-6.07
-10.83
-15.47
-20.12
-25.08
-30.76
-37.48
-45.11
-52.94
-59.65
-63.64
-63.57
-58.86
-49.93
-38.07
-24.99
-12.31
-1.11
8.19
15.64
21.61
26.41
30.29
33.3
35.52
37.02
37.98
38.6
39.09
39.58
40.13
40.7
41.24
41.61
41.67
41.27
40.29
38.71
36.62
34.18
31.58
28.82
25.78
22.24
18.04
13.2
7.98
2.76
-2.13
-6.56
-10.63
-14.69
-19.14
-24.37
-30.62
-37.94
-46.08
-54.43
-62
-67.51
-69.66
-67.52
-60.9
-50.47
-37.66
-24.2
-11.65
-1.02
7.4
13.88
18.99
23.27
27.04
30.37
33.16
35.29
36.72
37.55
37.92
37.99
37.84
37.47
36.85
35.94
34.71
33.08
30.9
28.01
24.23
19.52
14.04
8.11
2.13
-3.56
-8.75
-13.52
-18.17
-23.2
-29.06
-35.93
-43.42
-50.42
-55.38
-56.72
-53.42
-45.46
-33.88
-20.38
-6.77
5.53
15.77
23.82
29.85
34.09
36.7
37.75
37.38
35.88
33.69
31.3
29.19
27.65
26.72
26.22
25.76
24.86
23.16
20.47
16.83
12.46
7.65
2.64
-2.53
-7.92
-13.72
-20.15
-27.4
-35.56
-44.5
-53.77
-62.47
-69.28
-72.8
-71.88
-66.08
-55.95
-42.9
-28.84
-15.49
-3.98
5.38
12.92
19.23
24.74
29.56
33.5
36.31
37.82
38.13
37.54
36.38
34.96
33.45
31.89
30.2
28.26
25.94
23.1
19.61
15.42
10.57
5.18
-0.55
-6.47
-12.49
-18.73
-25.46
-33.06
-41.73
-51.25
-60.79
-68.88
-73.81
-74.11
-69.11
-59.19
-45.71
-30.58
-15.57
-1.98
9.65
19.37
27.62
34.86
41.42
47.4
52.64
56.85
59.73
61.1
61.01
59.73
57.68
55.25
52.65
49.88
46.73
42.94
38.35
32.99
27.09
20.91
14.69
8.53
2.33
-4.08
-10.9
-18.41
-26.78
-36.11
-46.07
-55.79
-63.83
-68.43
-68.12
-62.29
-51.54
-37.49
-22.23
-7.62
5.22
16.04
25.15
33.09
40.19
46.49
51.76
55.71
58.12
59.01
58.66
57.47
55.85
53.94
51.61
48.52
44.38
39.16
33.19
27.04
21.22
15.95
11.06
6.08
0.55
-5.89
-13.35
-21.83
-31.23
-41.25
-51.19
-59.84
-65.58
-66.85
-62.71
-53.33
-39.99
-24.69
-9.51
4.06
15.41
24.7
32.47
39.22
45.15
50.14
53.87
56.1
56.75
55.98
54.12
51.6
48.82
46.05
43.4
40.81
38.15
35.14
31.54
27.13
21.79
15.56
8.67
1.49
-5.55
-12.18
-18.37
-24.38
-30.73
-38
-46.44
-55.77
-64.98
-72.45
-76.39
-75.4
-68.97
-57.71
-43.19
-27.38
-12.1
1.53
13.16
23.06
31.67
39.27
45.8
50.96
54.43
56.14
56.34
55.57
54.45
53.47
52.79
52.24
51.46
50.11
48.03
45.27
42.03
38.52
34.81
30.88
26.58
21.76
16.32
10.3
3.83
-2.81
-9.3
-15.33
-20.73
-25.51
-29.94
-34.46
-39.6
-45.86
-53.47
-62.3
-71.63
-80.12
-85.98
-87.48
-83.46
-73.86
-59.82
-43.35
-26.58
-11.18
2.09
13.29
22.89
31.36
38.9
45.4
50.7
54.71
57.56
59.54
60.9
61.75
62.03
61.58
60.28
58.23
55.78
53.41
51.56
50.33
49.46
48.3
46.16
42.61
37.64
31.75
25.66
20.06
15.33
11.42
7.95
4.39
0.37
-4.32
-9.58
-15.12
-20.61
-25.76
-30.43
-34.71
-38.92
-43.58
-49.29
-56.44
-64.93
-73.89
-81.71
-86.41
-86.26
-80.46
-69.44
-54.77
-38.6
-22.91
-9.03
2.61
12.25
20.41
27.56
33.9
39.39
43.93
47.47
50.1
52.04
53.47
54.46
54.94
54.73
53.71
51.96
49.77
47.52
45.54
43.89
42.36
40.52
37.92
34.35
29.85
24.8
19.74
15.19
11.42
8.33
5.5
2.33
-1.65
-6.56
-12.13
-17.81
-23.01
-27.38
-30.96
-34.13
-37.42
-41.44
-46.61
-53.13
-60.75
-68.7
-75.69
-80.11
-80.5
-76.03
-66.9
-54.26
-39.88
-25.58
-12.69
-1.88
6.83
13.77
19.32
23.78
27.29
29.93
31.77
32.98
33.75
34.33
34.86
35.38
35.76
35.75
35.14
33.83
31.95
29.75
27.52
25.36
23.19
20.71
17.53
13.41
8.42
2.9
-2.61
-7.58
-11.77
-15.22
-18.27
-21.38
-24.96
-29.32
-34.59
-40.74
-47.45
-54.01
-59.31
-62.01
-60.9
-55.4
-45.82
-33.39
-19.91
-7.19
3.52
11.78
17.88
22.48
26.24
29.47
32.19
34.17
35.29
35.6
35.38
35.02
34.84
34.92
35.13
35.2
34.82
33.8
32.06
29.64
26.64
23.23
19.53
15.56
11.28
6.54
1.25
-4.62
-10.89
-17.17
-23.01
-28.1
-32.34
-36
-39.52
-43.47
-48.31
-54.32
-61.48
-69.34
-77.04
-83.26
-86.55
-85.68
-80.1
-70.19
-57.23
-42.98
-29.19
-17.12
-7.27
0.46
6.51
11.4
15.49
18.94
21.8
24.06
25.72
26.84
27.47
27.73
27.8
27.84
28
28.29
28.57
28.58
28.06
26.8
24.81
22.2
19.23
16.11
12.93
9.67
6.18
2.35
-1.93
-6.61
-11.56
-16.54
-21.31
-25.7
-29.67
-33.43
-37.4
-42.14
-48.05
-55.13
-62.65
-69.25
-73.25
-73.16
-68.22
-58.71
-45.91
-31.61
-17.62
-5.32
4.62
12.14
17.63
21.69
24.85
27.55
29.99
32.19
34.06
35.47
36.32
36.61
36.46
36.04
35.57
35.14
34.77
34.28
33.46
32.02
29.82
26.88
23.37
19.56
15.68
11.87
8.08
4.19
0.04
-4.45
-9.22
-14.11
-18.9
-23.4
-27.53
-31.3
-34.88
-38.59
-42.8
-47.91
-53.95
-60.42
-66.15
-69.51
-68.91
-63.41
-53.19
-39.58
-24.61
-10.29
1.98
11.72
19.2
25.04
29.79
33.74
36.95
39.4
41.1
42.19
42.79
43
42.82
42.27
41.4
40.34
39.26
38.24
37.29
36.25
34.91
33.11
30.78
27.96
24.75
21.25
17.49
13.42
8.96
4.06
-1.21
-6.64
-11.93
-16.83
-21.21
-25.19
-29.09
-33.29
-38.2
-44.03
-50.7
-57.69
-64.05
-68.47
-69.67
-66.7
-59.39
-48.49
-35.49
-22.19
-10.15
-0.35
7.02
12.31
16.16
19.1
21.47
23.36
24.75
25.59
25.93
25.83
25.38
24.65
23.67
22.54
21.42
20.52
19.93
19.52
18.92
17.62
15.18
11.49
6.79
1.58
-3.57
-8.3
-12.6
-16.77
-21.34
-26.81
-33.41
-40.89
-48.41
-54.7
-58.27
-57.92
-53.12
-44.26
-32.57
-19.78
-7.6
2.73
10.72
16.49
20.53
23.35
25.26
26.35
26.63
26.11
24.96
23.46
21.87
20.35
18.96
17.65
16.37
15.06
13.65
11.98
9.86
7.06
3.44
-0.99
-6.1
-11.65
-17.33
-22.88
-28.07
-32.88
-37.51
-42.47
-48.36
-55.58
-63.9
-72.27
-78.89
-81.79
-79.57
-71.95
-59.97
-45.56
-30.87
-17.5
-6.22
3.03
10.74
17.39
23.22
28.2
32.16
34.95
36.62
37.3
37.22
36.6
35.57
34.2
32.58
30.82
29.12
27.68
26.6
25.71
24.58
22.61
19.27
14.37
8.2
1.43
-5.12
-10.8
-15.39
-19.15
-22.77
-27.08
-32.79
-40.27
-49.28
-58.91
-67.69
-73.82
-75.68
-72.34
-63.89
-51.44
-36.84
-22.04
-8.58
2.79
12.11
19.91
26.82
33.17
38.93
43.74
47.19
49.12
49.73
49.54
49.15
49.01
49.17
49.34
49.07
48.02
46.1
43.59
40.87
38.24
35.71
32.98
29.63
25.29
19.91
13.72
7.21
0.87
-4.94
-10.17
-15
-19.8
-24.96
-30.87
-37.76
-45.63
-54.16
-62.45
-69.18
-72.72
-71.73
-65.57
-54.67
-40.5
-25.06
-10.3
2.53
12.99
21.4
28.37
34.45
39.87
44.55
48.32
51.07
52.89
54.03
54.82
55.53
56.27
57.06
57.8
58.38
58.73
58.78
58.49
57.87
56.92
55.66
54.08
52.1
49.6
46.49
42.82
38.83
34.93
31.55
28.98
27.14
25.69
24.03
21.59
17.9
12.75
6.24
-1.16
-8.56
-14.67
-17.98
-17.21
-11.8
-2.26
9.78
21.85
31.46
36.78
37.23
33.52
27.26
20.28
13.97
8.97
5.19
2.21
-0.34
-2.54
-4.22
-5.26
-5.78
-6.17
-6.91
-8.28
-10.15
-12.09
-13.65
-14.61
-15.13
-15.61
-16.5
-18.07
-20.37
-23.27
-26.62
-30.33
-34.38
-38.73
-43.28
-47.88
-52.35
-56.7
-61.17
-66.29
-72.72
-81.01
-91.24
-102.66
-113.68
-122.02
-125.42
-122.25
-112.21
-96.39
-76.92
-56.28
-36.64
-19.32
-4.76
7.23
17.14
25.44
32.43
38.3
43.15
47.11
50.29
52.81
54.75
56.22
57.26
57.88
58.02
57.58
56.4
54.38
51.52
47.98
43.99
39.76
35.33
30.57
25.31
19.41
12.98
6.33
-0.12
-6.05
-11.36
-16.18
-20.78
-25.46
-30.5
-36.14
-42.56
-49.8
-57.53
-64.94
-70.68
-73.21
-71.25
-64.29
-52.86
-38.42
-22.85
-7.97
5.01
15.56
23.72
29.8
34.13
36.99
38.66
39.41
39.59
39.5
39.33
39.1
38.72
38.11
37.24
36.1
34.69
32.88
30.49
27.29
23.13
18.05
12.21
5.89
-0.56
-6.79
-12.54
-17.71
-22.49
-27.37
-33
-39.95
-48.24
-57.06
-64.78
-69.39
-69.13
-63.26
-52.29
-37.88
-22.21
-7.33
5.4
15.42
22.83
28.08
31.62
33.85
35.03
35.41
35.17
34.48
33.48
32.27
30.93
29.55
28.18
26.87
25.63
24.4
23.05
21.33
18.91
15.47
10.86
5.22
-1.07
-7.46
-13.49
-18.95
-24.02
-29.21
-35.2
-42.54
-51.34
-61.01
-70.25
-77.18
-79.92
-77.12
-68.47
-54.91
-38.28
-20.77
-4.3
10.02
21.81
31.28
38.8
44.68
49.1
52.18
54.09
55.08
55.36
55.11
54.32
52.93
50.91
48.32
45.36
42.26
39.24
36.32
33.31
29.83
25.4
19.67
12.52
4.23
-4.6
-13.18
-20.81
-27.2
-32.6
-37.83
-43.95
-51.87
-61.79
-72.83
-83.1
-90.16
-91.81
-86.97
-76.15
-61.4
-45.58
-31.47
-20.83
-13.96
-9.93
-7.03
-3.55
1.75
9.36
19.02
29.85
40.58
49.73
56.02
58.68
57.68
53.79
48.31
42.49
37.1
32.14
26.98
20.75
12.84
3.09
-8.15
-20.31
-32.83
-45.29
-57.26
-68.11
-76.87
-82.11
-82.21
-75.71
-61.81
-40.83
-14.11
16.38
48.83
82.18
116.22
150.95
185.75
218.87
247.68
269.5
282.61
286.69
282.75
272.39
257.23
238.66
217.81
195.7
173.13
150.36
127.04
102.52
76.4
49.12
21.93
-3.46
-25.8
-44.78
-61.2
-76.47
-91.97
-108.52
-126.27
-144.81
-163.5
-181.69
-198.79
-214.35
-228.13
-240.14
-250.59
-259.68
-267.17
-272.11
-272.86
-267.65
-255.35
-236.13
-211.52
-183.93
-155.7
-128.45
-102.88
-79.12
-57.29
-37.88
-21.69
-9.37
-0.97
4.27
7.7
10.74
14.42
19.14
24.7
30.68
36.72
42.73
48.84
55.3
62.31
69.96
78.34
87.52
97.68
108.95
121.39
134.88
149.11
163.66
178.09
192.1
205.77
219.75
235.26
253.73
276.27
302.88
331.98
360.47
384.45
400.25
405.46
399.44
383.25
359.01
329.22
296.16
261.56
226.65
192.23
158.82
126.69
95.91
66.36
37.86
10.27
-16.3
-41.38
-64.21
-83.93
-99.84
-111.75
-120.21
-126.4
-131.87
-138.03
-145.78
-155.22
-165.8
-176.56
-186.58
-195.29
-202.64
-208.98
-214.78
-220.31
-225.44
-229.52
-231.46
-230.09
-224.48
-214.34
-200.14
-183.05
-164.53
-145.94
-128.15
-111.5
-95.88
-80.98
-66.61
-52.74
-39.59
-27.48
-16.81
-7.82
-0.64
4.86
8.97
12.1
14.61
16.73
18.54
19.93
20.67
20.42
18.76
15.3
9.84
2.48
-6.25
-15.5
-24.35
-32.04
-38.22
-42.98
-46.78
-50.27
-54.1
-58.91
-65.03
-72.61
-81.42
-91
-100.69
-109.71
-117.18
-122.21
-123.97
-121.84
-115.66
-105.82
-93.26
-79.24
-65.04
-51.69
-39.79
-29.6
-21.02
-13.81
-7.56
-1.89
3.51
8.74
13.73
18.27
22.19
25.42
28.02
30.11
31.76
32.97
33.77
34.23
34.52
34.77
35.02
35.13
34.9
34.13
32.77
30.96
28.83
26.54
24.12
21.52
18.62
15.33
11.6
7.42
2.93
-1.73
-6.45
-11.27
-16.43
-22.31
-29.09
-36.41
-43.21
-47.9
-48.98
-45.61
-38.1
-27.77
-16.42
-5.59
3.9
12.05
19.33
26.17
32.71
38.71
43.75
47.52
50.01
51.43
52.17
52.59
52.97
53.46
54.13
54.97
55.96
56.98
57.84
58.23
57.86
56.52
54.27
51.48
48.74
46.7
45.77
45.87
46.4
46.27
44.22
39.22
30.8
19.26
5.67
-8.56
-22.09
-34.13
-44.61
-54.03
-63.12
-72.34
-81.54
-89.82
-95.76
-97.88
-95.16
-87.41
-75.46
-60.91
-45.71
-31.61
-19.67
-10.13
-2.62
3.54
8.89
13.67
17.81
21.12
23.49
24.96
25.71
25.98
25.96
25.71
25.25
24.49
23.3
21.55
19.12
15.92
11.95
7.23
1.81
-4.23
-10.72
-17.35
-23.69
-29.33
-33.96
-37.58
-40.55
-43.43
-46.76
-50.85
-55.72
-61.06
-66.42
-71.25
-74.99
-77.05
-76.88
-74.12
-68.75
-61.29
-52.63
-43.86
-35.9
-29.24
-23.96
-19.82
-16.56
-14.09
-12.49
-11.87
-12.23
-13.37
-14.96
-16.61
-17.97
-18.76
-18.77
-17.82
-15.86
-13.01
-9.63
-6.2
-3.28
-1.3
-0.55
-1.1
-2.88
-5.71
-9.21
-12.95
-16.5
-19.58
-22.24
-24.82
-27.77
-31.42
-35.64
-39.71
-42.49
-42.67
-39.35
-32.3
-22.17
-10.23
2.03
13.36
23.01
30.77
36.78
41.2
44.17
45.82
46.39
46.32
46.11
46.18
46.62
47.2
47.5
47.19
46.13
44.42
42.28
39.86
37.19
34.07
30.23
25.4
19.46
12.58
5.13
-2.35
-9.47
-16.08
-22.36
-28.69
-35.41
-42.63
-50.17
-57.76
-65.1
-71.9
-77.81
-82.4
-85.26
-86.21
-85.55
-83.9
-81.79
-79.08
-74.67
-66.81
-53.87
-35.29
-12.09
13.29
37.79
58.68
74.33
84.42
89.7
91.48
91.17
89.91
88.42
86.92
85.22
82.9
79.57
75.12
69.78
63.99
58.18
52.51
46.82
40.75
33.94
26.22
17.73
8.79
-0.21
-8.96
-17.27
-25.13
-32.6
-39.83
-47
-54.2
-61.34
-67.99
-73.31
-76.23
-75.68
-70.99
-62.2
-50.17
-36.29
-22.15
-9.04
2.38
12.07
20.35
27.58
33.9
39.17
43.07
45.39
46.04
45.13
42.76
38.97
33.73
27.02
19.02
10.26
1.46
-6.62
-13.57
-19.46
-24.84
-30.43
-36.77
-43.93
-51.42
-58.52
-64.52
-69.17
-72.73
-75.8
-79.01
-82.68
-86.61
-90.14
-92.41
-92.65
-90.52
-86.29
-80.86
-75.61
-71.91
-70.62
-71.51
-73.19
-73.43
-69.88
-60.93
-46.36
-27.34
-5.95
15.59
35.6
53.29
68.55
81.55
92.42
100.97
106.8
109.56
109.13
105.82
100.27
93.23
85.26
76.51
66.7
55.23
41.56
25.47
7.28
-12.29
-32.32
-51.95
-70.56
-87.72
-103.02
-115.99
-126.17
-133.27
-137.36
-138.98
-138.97
-138.31
-137.74
-137.67
-138.08
-138.56
-138.37
-136.58
-132.15
-124.08
-111.61
-94.43
-72.87
-47.99
-21.42
4.77
28.61
48.5
63.61
73.92
80.12
83.33
84.74
85.45
86.35
88.07
90.98
95.09
99.88
104.41
107.57
108.56
107.47
105.45
104.48
106.6
112.88
122.78
134.09
143.59
148.12
145.69
135.96
120.18
100.39
78.73
56.66
34.93
13.87
-6.02
-23.55
-36.79
-43.51
-42.09
-32.29
-15.72
4.52
24.72
41.8
54.19
62.11
67.15
71.34
76.24
82.39
89.19
95.32
99.32
100.11
97.31
91.29
83.02
73.65
64.25
55.51
47.68
40.63
33.99
27.42
20.66
13.63
6.4
-0.96
-8.29
-15.51
-22.49
-29.13
-35.4
-41.5
-47.84
-55.09
-63.75
-73.81
-84.31
-93.34
-98.56
-97.92
-90.57
-77.12
-59.46
-39.96
-20.62
-2.63
13.63
28.22
41.18
52.4
61.64
68.73
73.68
76.6
77.56
76.56
73.65
69.1
63.51
57.74
52.64
48.75
46.14
44.41
42.96
41.3
39.32
37.27
35.6
34.65
34.4
34.4
33.83
31.75
27.23
19.49
7.9
-7.88
-27.6
-50.18
-73.4
-94.16
-109.02
-114.97
-110.3
-94.9
-70.27
-38.98
-4.16
31.16
64.4
93.82
118.46
138.01
152.43
161.57
165
162.29
153.51
139.79
123.33
106.87
92.73
81.88
73.59
65.99
57.04
45.49
31.35
15.6
-0.51
-16.17
-31.35
-46.5
-61.99
-77.59
-92.33
-104.94
-114.46
-120.87
-125.19
-129.02
-134
-141.18
-150.85
-162.65
-175.82
-189.32
-201.9
-212.21
-219.06
-221.78
-220.45
-215.82
-208.75
-199.74
-188.64
-174.95
-158.34
-139.09
-118.01
-96.06
-73.87
-51.74
-29.98
-9.34
8.87
23.29
33.29
39.4
43.32
47.19
52.62
60.14
69.06
77.99
85.54
90.85
93.73
94.49
93.61
91.45
88.25
84.16
79.44
74.53
70.01
66.27
63.24
60.14
55.63
48.28
37.23
22.81
6.72
-8.25
-19.08
-23.57
-21.05
-12.67
-0.82
11.79
23.09
32.28
39.61
45.8
51.27
55.84
58.83
59.59
58.05
54.85
51.09
47.83
45.6
44.3
43.32
41.99
39.89
37.03
33.78
30.55
27.61
24.91
22.12
18.83
14.74
9.83
4.37
-1.13
-6.2
-10.54
-14.18
-17.47
-20.94
-25.11
-30.41
-37.02
-44.87
-53.54
-62.14
-69.26
-73.19
-72.33
-65.72
-53.53
-37.09
-18.54
-0.17
16.27
29.88
40.59
48.87
55.31
60.36
64.26
67.15
69.17
70.59
71.79
73.12
74.67
76.14
76.87
76.08
73.3
68.65
62.85
57
52.01
48.3
45.66
43.39
40.73
37.05
32.03
25.6
17.84
9
-0.58
-10.5
-20.49
-30.66
-41.58
-54.04
-68.68
-85.37
-102.96
-119.4
-132.44
-140.41
-142.62
-139.52
-132.24
-122.11
-110.27
-97.65
-85
-73
-62.07
-52.24
-43.08
-33.87
-24.02
-13.49
-2.88
6.81
14.56
19.8
22.68
23.91
24.43
25.09
26.25
27.75
28.94
28.99
27.18
23.24
17.4
10.49
3.6
-2.24
-6.53
-9.49
-12.06
-15.46
-20.55
-27.27
-34.47
-40.32
-43.01
-41.52
-35.95
-27.36
-17.23
-6.86
2.88
11.66
19.43
26.32
32.56
38.41
44.14
49.83
55.15
59.43
61.81
61.71
59.16
54.97
50.4
46.75
44.72
44.25
44.46
44.18
42.33
38.4
32.49
25.21
17.38
9.75
2.82
-3.19
-8.29
-12.72
-16.95
-21.62
-27.39
-34.58
-42.86
-50.95
-56.87
-58.45
-54.16
-43.76
-28.49
-10.69
7.05
22.67
35.23
44.83
52.17
58.03
62.83
66.61
69.19
70.44
70.42
69.37
67.57
65.18
62.29
58.91
55.17
51.36
47.89
45.14
43.21
41.87
40.56
38.59
35.4
30.8
25.05
18.73
12.54
7
2.22
-2.21
-7.15
-13.65
-22.58
-34.24
-48.01
-62.3
-74.86
-83.43
-86.47
-83.77
-76.46
-66.64
-56.58
-47.96
-41.41
-36.59
-32.55
-28.34
-23.44
-17.9
-12.23
-7.1
-3.04
-0.26
1.28
1.84
1.72
1.25
0.75
0.64
1.37
3.26
6.35
10.24
14.19
17.35
19.09
19.29
18.38
17.26
16.96
18.24
21.33
25.7
30.12
32.9
32.46
27.9
19.56
9.16
-0.6
-6.83
-7.41
-1.66
9.6
24.43
40.5
55.77
68.76
78.61
84.91
87.53
86.56
82.23
74.97
65.27
53.61
40.39
25.85
10.06
-7.02
-25.42
-45.12
-65.92
-87.41
-108.89
-129.37
-147.68
-162.49
-172.6
-177.12
-175.62
-168.23
-155.62
-138.91
-119.64
-99.71
-81.21
-66.02
-55.37
-49.37
-46.99
-46.36
-45.5
-42.77
-37.23
-28.43
-16.19
-0.46
18.59
40.42
63.85
87.25
108.84
127.18
141.58
152.32
160.47
167.52
174.62
182.03
188.85
193.29
193.51
188.5
178.66
165.62
151.46
137.7
124.78
112.09
98.73
84.21
68.83
53.32
38.31
23.79
9.13
-6.49
-23.48
-41.46
-59.39
-76
-90.4
-102.5
-113.13
-123.62
-135.16
-148.01
-161
-171.61
-176.62
-173.03
-158.99
-134.19
-99.62
-57.22
-9.61
39.93
87.41
128.34
158.48
175.06
177.92
169.98
156.66
144.27
138
140.17
149.67
162.75
174.82
182.5
184.86
183.37
180.7
179.23
179.96
182.51
185.77
188.62
190.16
189.56
185.64
176.96
162.33
141.49
115.5
86.55
57.13
29.19
3.72
-19.17
-39.83
-58.56
-75.21
-89.28
-100.12
-107.25
-110.54
-110.2
-106.76
-100.96
-93.61
-85.47
-77.2
-69.24
-61.89
-55.42
-50.15
-46.46
-44.51
-44.07
-44.4
-44.51
-43.62
-41.51
-38.79
-36.58
-36
-37.63
-41.28
-46.14
-51.29
-56.18
-60.8
-65.63
-71.28
-78.17
-86.34
-95.49
-105.05
-114.35
-122.74
-129.69
-134.94
-138.43
-140.25
-140.38
-138.47
-133.85
-125.9
-114.39
-99.94
-83.87
-67.71
-52.58
-38.67
-25.32
-11.56
3.23
18.9
34.44
48.48
59.68
67.26
71.07
71.56
69.55
66.01
61.98
58.47
56.45
56.79
60.15
66.83
76.74
89.42
104.12
119.85
135.32
149.06
159.6
165.86
167.56
165.26
160.07
152.98
144.26
133.14
118.18
98.07
72.3
41.66
8.04
-25.86
-56.97
-82.27
-99.19
-106.3
-103.93
-94.33
-81.2
-68.51
-59.05
-53.77
-51.77
-51.42
-51.57
-52.28
-54.64
-59.87
-68.37
-79.24
-90.74
-101.13
-109.43
-115.69
-120.63
-124.98
-128.93
-131.96
-133.16
-131.84
-127.98
-122.4
-116.41
-111.31
-107.78
-105.72
-104.46
-103.26
-101.74
-100.01
-98.43
-97.15
-95.81
-93.54
-89.33
-82.54
-73.36
-62.8
-52.44
-43.85
-37.97
-34.68
-32.65
-29.66
-23.36
-12.15
4.17
24.17
45.38
65.14
81.66
94.45
104.23
112.22
119.42
126.08
131.79
136
138.43
139.34
139.35
138.99
138.32
136.96
134.27
129.93
124.19
117.87
111.82
106.37
100.94
94.29
85.11
72.81
57.94
42
26.67
13.18
1.88
-7.55
-15.45
-21.77
-25.84
-26.85
-24.38
-18.89
-11.69
-4.52
1.13
4.53
5.8
5.7
5.15
4.74
4.51
3.96
2.35
-0.93
-6.09
-12.84
-20.52
-28.4
-35.9
-42.8
-49.11
-54.83
-59.74
-63.29
-64.73
-63.46
-59.37
-52.94
-45.11
-36.93
-29.18
-22.27
-16.47
-12.17
-10.07
-11
-15.27
-22.2
-29.96
-36.11
-38.59
-36.66
-31.22
-24.36
-18.36
-14.54
-12.81
-11.98
-10.56
-7.65
-3.33
1.62
6.31
10.27
13.61
16.66
19.53
21.82
22.75
21.58
18.15
13.08
7.53
2.72
-0.62
-2.37
-2.93
-2.88
-2.64
-2.44
-2.39
-2.61
-3.25
-4.45
-6.15
-8.09
-9.93
-11.45
-12.75
-14.23
-16.5
-20
-24.88
-30.9
-37.6
-44.47
-51.22
-57.74
-64.12
-70.43
-76.64
-82.59
-88.02
-92.64
-96.12
-98.04
-97.93
-95.42
-90.45
-83.42
-75.24
-67.08
-60.07
-55.02
-52.26
-51.6
-52.58
-54.53
-56.76
-58.55
-59.25
-58.29
-55.36
-50.49
-44.09
-36.84
-29.49
-22.61
-16.51
-11.31
-7.03
-3.8
-1.83
-1.34
-2.32
-4.5
-7.37
-10.39
-13.19
-15.63
-17.73
-19.45
-20.67
-21.19
-20.96
-20.14
-19.14
-18.44
-18.4
-19.12
-20.47
-22.23
-24.12
-25.91
-27.25
-27.63
-26.46
-23.17
-17.5
-9.6
-0.02
10.5
21.17
31.25
39.94
46.32
49.48
48.7
43.96
36.16
27.13
19.13
14.16
13.24
16.1
21.47
27.65
33.24
37.45
40.03
40.9
39.7
35.84
28.68
18.07
4.57
-10.68
-26.45
-41.93
-56.87
-71.34
-85.28
-98.11
-108.82
-116.35
-120.05
-119.96
-116.72
-110.99
-103.09
-92.76
-79.36
-62.45
-42.18
-19.59
3.71
25.9
45.5
61.71
74.45
84.16
91.46
96.85
100.61
102.84
103.57
103
101.42
99.14
96.36
92.99
88.72
83.21
76.33
68.38
60.02
52.05
45.04
39.08
33.74
28.39
22.55
16.23
9.96
4.53
0.62
-1.57
-2.47
-3
-4.27
-7.22
-12.3
-19.3
-27.31
-34.91
-40.41
-42.29
-39.7
-32.75
-22.63
-11.29
-0.94
6.57
10.19
9.8
5.99
-0.26
-8.01
-16.53
-25.32
-34.06
-42.39
-49.86
-55.94
-60.08
-61.9
-61.29
-58.45
-53.9
-48.38
-42.64
-37.34
-33.01
-29.96
-28.33
-28.02
-28.71
-29.82
-30.67
-30.78
-30.11
-29.32
-29.58
-32.09
-37.53
-45.52
-54.63
-62.76
-67.87
-68.67
-64.95
-57.47
-47.56
-36.57
-25.56
-15.2
-5.84
2.29
9.02
14.27
18.14
20.99
23.4
25.97
29.2
33.23
37.87
42.71
47.29
51.31
54.75
57.74
60.53
63.18
65.57
67.36
68.13
67.57
65.69
62.97
60.23
58.45
58.39
60.24
63.53
67.28
70.46
72.4
73.02
72.92
73.07
74.51
78.11
84.34
93.16
103.93
115.35
125.6
132.65
134.75
131.03
121.76
108.41
93.09
77.98
64.67
53.91
45.72
39.79
35.92
34.26
35.14
38.79
44.93
52.73
60.95
68.29
73.58
75.94
74.55
68.62
57.46
40.85
19.41
-5.32
-31.14
-55.81
-77.72
-96.25
-111.74
-125.14
-137.54
-149.79
-162.28
-174.81
-186.57
-196.21
-202.18
-203.1
-198.32
-188.19
-173.98
-157.49
-140.43
-123.99
-108.74
-94.77
-81.99
-70.39
-60.04
-51.03
-43.38
-36.96
-31.58
-27.09
-23.38
-20.37
-17.99
-16.1
-14.51
-13.01
-11.55
-10.15
-8.99
-8.28
-8.17
-8.66
-9.6
-10.84
-12.31
-14.14
-16.64
-20.13
-24.71
-29.99
-35
-38.27
-38.19
-33.49
-23.71
-9.38
7.97
26.23
43.19
56.99
66.45
71
70.62
65.53
56.08
42.69
25.99
6.93
-13.16
-32.69
-50.18
-64.72
-76.31
-85.85
-94.64
-103.62
-112.76
-120.93
-126.41
-127.85
-125.03
-119.19
-112.57
-107.61
-106.09
-108.64
-114.71
-122.72
-130.42
-135.16
-134.31
-125.86
-108.94
-84.3
-54.16
-21.62
10.32
39.58
65.43
88.43
109.82
130.85
152.01
172.64
190.95
204.59
211.52
210.92
203.59
191.66
177.67
163.46
149.53
135.18
119.19
100.85
80.43
59.02
37.89
17.73
-1.57
-20.75
-40.66
-61.81
-84.16
-107.04
-129.16
-148.68
-163.25
-170.53
-168.88
-158.14
-140.21
-118.87
-98.88
-84.52
-78.21
-79.62
-85.73
-91.78
-92.83
-85.21
-67.52
-40.81
-7.97
27.3
61.51
91.91
116.48
133.67
142.09
140.73
129.41
109.31
83.21
55
28.69
7.37
-7.48
-16
-19.45
-19.57
-18.06
-16.54
-16.61
-19.9
-27.81
-40.87
-58.29
-77.68
-95.48
-107.85
-111.7
-105.55
-89.74
-66.2
-37.71
-7.29
22.33
48.87
70.56
86.31
95.82
99.75
99.47
96.67
92.75
88.41
83.64
78.08
71.46
63.89
55.85
47.94
40.55
33.8
27.56
21.6
15.82
10.26
5.08
0.51
-3.14
-5.53
-6.18
-4.62
-0.57
5.85
13.89
22.22
29.22
33.46
34.13
31.29
25.83
19.09
12.52
7.29
4.15
3.29
4.37
6.52
8.49
8.93
6.78
1.71
-5.63
-13.55
-19.69
-21.66
-17.83
-7.83
7.25
25.15
43.27
59.44
72.56
82.71
90.79
97.85
104.64
111.41
117.96
123.95
129.06
133.13
136.1
137.96
138.71
138.44
137.29
135.49
133.37
131.29
129.57
128.42
127.89
127.73
127.42
126.21
123.35
118.36
111.31
102.74
93.6
84.79
76.84
69.74
63.04
56.13
48.69
40.91
33.5
27.39
23.39
21.77
22.17
23.63
24.81
24.36
21.29
15.22
6.51
-3.66
-13.59
-21.35
-25.3
-24.51
-19.1
-10.17
0.48
11
20.08
27.28
32.95
37.82
42.44
46.82
50.51
52.86
53.48
52.39
49.92
46.4
41.95
36.45
29.73
21.85
13.24
4.61
-3.33
-10.21
-16.09
-21.46
-27.01
-33.23
-40.29
-47.91
-55.49
-62.32
-67.83
-71.78
-74.27
-75.68
-76.49
-77.19
-78.25
-80.12
-83.19
-87.56
-92.73
-97.42
-99.72
-97.63
-89.86
-76.45
-58.8
-39.24
-20.1
-2.97
11.63
24.08
35
44.83
53.58
60.93
66.59
70.5
72.88
74.11
74.53
74.39
73.8
72.83
71.56
70.18
68.84
67.67
66.59
65.29
63.32
60.2
55.69
49.97
43.61
37.4
32.01
27.77
24.42
21.38
17.96
13.8
9.04
4.35
0.6
-1.5
-1.69
-0.37
1.59
3.06
2.99
0.69
-4.05
-10.87
-18.96
-27.12
-34.14
-39.24
-42.53
-45.24
-49.46
-57.33
-70.05
-87.17
-106.39
-124.31
-137.57
-143.99
-143.12
-136.12
-124.94
-111.56
-97.35
-83.08
-69.14
-55.89
-43.81
-33.35
-24.65
-17.36
-10.71
-3.85
3.71
11.83
19.81
26.69
31.65
34.36
34.95
33.95
31.97
29.55
26.99
24.28
21.13
16.96
11.14
3.28
-6.58
-17.9
-29.69
-40.9
-50.76
-59
-65.9
-72.06
-78.22
-84.97
-92.64
-101.12
-109.71
-117.24
-122.14
-122.99
-118.99
-110.39
-98.49
-85.23
-72.51
-61.54
-52.53
-44.83
-37.37
-29.2
-19.79
-9.16
2.3
14.1
25.79
37.04
47.66
57.4
65.95
73
78.31
81.88
84.01
85.22
86.02
86.75
87.39
87.61
87.01
85.29
82.52
79.1
75.65
72.77
70.82
69.81
69.4
69.04
68.15
66.32
63.33
59.26
54.36
49.02
43.62
38.42
33.39
28.05
21.62
13.15
1.97
-11.85
-27.3
-42.45
-54.95
-62.69
-64.44
-60.24
-51.36
-39.87
-27.97
-17.36
-8.8
-2.01
4.06
10.78
19.3
30.16
42.99
56.67
69.63
80.27
87.46
90.83
90.74
88.09
83.9
79.02
73.84
68.33
62.18
54.94
46.19
35.49
22.49
6.94
-11.04
-30.89
-51.49
-71.44
-89.44
-104.62
-116.71
-125.99
-132.82
-137.48
-140
-140.34
-138.64
-135.36
-131.38
-127.72
-125.3
-124.59
-125.41
-126.89
-127.66
-126.15
-121.12
-112.07
-99.45
-84.54
-69.07
-54.71
-42.66
-33.42
-26.81
-22.19
-18.67
-15.38
-11.61
-6.94
-1.27
5.26
12.39
19.93
27.77
35.92
44.43
53.3
62.43
71.51
80.16
87.92
94.38
99.28
102.64
104.69
105.87
106.67
107.49
108.53
109.74
110.73
110.89
109.6
106.38
101.19
94.52
87.28
80.5
74.95
70.79
67.57
64.37
60.24
54.55
47.18
38.5
29.15
19.76
10.67
1.9
-6.86
-15.95
-25.53
-35.45
-45.17
-53.95
-61
-65.82
-68.21
-68.29
-66.48
-63.38
-59.68
-56.14
-53.43
-52.03
-52.11
-53.48
-55.64
-57.93
-59.74
-60.73
-60.94
-60.83
-61.13
-62.64
-65.88
-70.83
-76.78
-82.34
-85.82
-85.74
-81.32
-72.8
-61.33
-48.61
-36.24
-25.33
-16.15
-8.39
-1.46
5.08
11.25
16.66
20.73
22.99
23.29
21.94
19.49
16.61
13.84
11.44
9.41
7.58
5.79
3.94
2.12
0.41
-1.14
-2.67
-4.56
-7.2
-10.93
-15.77
-21.37
-27.11
-32.33
-36.57
-39.74
-42.1
-44.13
-46.44
-49.59
-53.92
-59.38
-65.37
-70.68
-73.72
-72.96
-67.48
-57.35
-43.68
-28.19
-12.6
1.9
14.85
26.43
37.08
47.16
56.8
65.9
74.26
81.75
88.34
94.09
99.19
103.86
108.34
112.83
117.41
121.9
125.89
128.79
129.98
129.06
125.95
120.77
113.7
104.71
93.43
79.31
61.92
41.31
18.15
-6.4
-31.07
-54.86
-77.23
-98.08
-117.5
-135.52
-151.95
-166.28
-177.76
-185.44
-188.33
-185.63
-177.02
-162.92
-144.56
-123.77
-102.53
-82.46
-64.53
-48.97
-35.47
-23.49
-12.52
-2.27
7.34
16.13
23.85
30.21
34.98
38.06
39.47
39.36
38.03
35.85
33.25
30.65
28.44
26.84
25.88
25.38
24.98
24.34
23.25
21.68
19.84
17.91
16.01
14.07
11.9
9.32
6.22
2.72
-1.1
-5.19
-9.75
-15.07
-21.3
-28.08
-34.42
-38.85
-39.89
-36.62
-29.1
-18.43
-6.32
5.53
16.01
24.82
32.29
38.9
44.88
50.07
54.07
56.58
57.56
57.23
55.92
53.8
50.91
47.15
42.52
37.24
31.84
27.04
23.55
21.88
22.12
23.89
26.42
28.86
30.61
31.5
31.84
32.13
32.7
33.44
33.84
33.23
31.06
27.14
21.64
15.01
7.82
0.75
-5.55
-10.52
-13.82
-15.49
-15.89
-15.5
-14.71
-13.55
-11.81
-9.18
-5.62
-1.46
2.65
5.99
8.15
9.14
9.42
9.62
10.31
11.72
13.7
15.86
17.69
18.77
18.82
17.79
15.75
12.98
9.9
7.05
4.96
4.01
4.19
5.1
5.98
5.95
4.37
1.06
-3.44
-8.02
-11.19
-11.43
-7.67
0.4
12.21
26.38
41.03
54.25
64.59
71.24
74.22
74.13
72.03
69.03
66.08
63.86
62.65
62.45
63.11
64.52
66.78
70.19
75.25
82.46
92.02
103.66
116.57
129.38
140.46
148.18
151.21
148.8
140.9
128.18
111.84
93.34
73.99
54.64
35.49
16.17
-3.91
-25.2
-47.53
-70.01
-91.2
-109.68
-124.7
-136.41
-145.76
-153.78
-161.08
-167.56
-172.73
-176.16
-177.73
-177.49
-175.31
-170.79
-163.47
-153.48
-141.9
-130.74
-122.08
-117.18
-115.9
-116.87
-118.16
-118.13
-115.88
-111.25
-104.66
-96.97
-89.26
-82.63
-77.9
-75.26
-74.19
-73.75
-73.05
-71.69
-69.85
-67.96
-66.36
-64.88
-63
-60.11
-55.92
-50.68
-45.18
-40.43
-37.39
-36.56
-37.81
-40.18
-42.19
-42.09
-38.47
-30.75
-19.35
-5.5
9.22
23.41
36.25
47.48
57.25
65.83
73.43
80.2
86.26
91.74
96.81
101.58
106.06
110.15
113.65
116.33
118.05
118.8
118.82
118.53
118.44
118.98
120.3
122.21
124.17
125.48
125.41
123.48
119.43
113.28
105.16
95.27
83.84
71.12
57.48
43.36
29.19
15.33
1.96
-10.99
-23.7
-36.36
-49.04
-61.68
-74.09
-86.07
-97.47
-108.01
-117.29
-124.65
-129.18
-130.08
-126.95
-120.04
-110.35
-99.28
-88.25
-78.28
-69.78
-62.54
-56.11
-50.09
-44.38
-39.15
-34.67
-31.06
-28.13
-25.5
-22.72
-19.52
-15.84
-11.8
-7.54
-3.04
1.86
7.37
13.54
20.13
26.61
32.37
36.87
39.83
41.35
41.78
41.61
41.22
40.78
40.09
38.77
36.34
32.53
27.4
21.4
15.18
9.36
4.29
-0.1
-4.2
-8.56
-13.69
-19.8
-26.75
-33.96
-40.5
-45.22
-46.96
-44.92
-38.89
-29.44
-17.78
-5.49
6
15.75
23.49
29.5
34.31
38.34
41.72
44.3
45.75
45.89
44.75
42.66
40.08
37.4
34.82
32.34
29.82
27.13
24.24
21.16
17.96
14.67
11.28
7.83
4.38
1.07
-1.97
-4.6
-6.76
-8.48
-9.88
-11.1
-12.36
-13.82
-15.64
-17.97
-20.96
-24.77
-29.37
-34.46
-39.38
-43.11
-44.57
-43
-38.17
-30.61
-21.32
-11.55
-2.44
5.28
11.26
15.55
18.39
20.13
21.1
21.59
21.82
21.98
22.15
22.37
22.57
22.65
22.49
22.04
21.39
20.71
20.2
20
20.06
20.23
20.32
20.15
19.67
18.91
18.03
17.19
16.47
15.81
14.93
13.3
10.34
5.61
-0.86
-8.48
-16.02
-22.03
-25.23
-24.93
-21.23
-14.93
-7.22
0.69
7.84
13.6
17.63
19.76
19.99
18.48
15.58
11.79
7.68
3.73
0.2
-2.85
-5.55
-8.09
-10.63
-13.22
-15.74
-17.96
-19.6
-20.47
-20.49
-19.8
-18.66
-17.48
-16.65
-16.49
-17.16
-18.62
-20.64
-22.89
-25.09
-27.05
-28.87
-30.9
-33.66
-37.59
-42.79
-48.68
-54.06
-57.28
-56.8
-51.72
-42.17
-29.34
-15.06
-1.33
10.26
18.76
23.94
26.04
25.65
23.48
20.31
16.92
14.02
12.18
11.69
12.63
14.73
17.49
20.31
22.6
24.08
24.88
25.59
26.97
29.64
33.75
38.84
44.04
48.38
51.18
52.26
51.84
50.3
47.91
44.65
40.27
34.37
26.58
16.68
4.6
-9.46
-24.88
-40.61
-55.06
-66.45
-73.23
-74.61
-70.84
-63.2
-53.48
-43.39
-34
-25.65
-18.1
-10.97
-4.03
2.68
8.94
14.59
19.57
23.96
27.87
31.34
34.35
36.86
38.86
40.39
41.52
42.25
42.57
42.46
41.95
41.17
40.29
39.42
38.58
37.65
36.42
34.71
32.43
29.49
25.74
20.97
14.85
7.1
-2.28
-13.05
-24.67
-36.47
-47.69
-57.51
-65.01
-69.25
-69.44
-65.22
-56.93
-45.67
-33.07
-20.82
-10.27
-1.98
4.18
8.84
12.65
15.96
18.69
20.52
21.21
20.76
19.56
18.07
16.61
15.12
13.31
10.9
7.96
4.97
2.65
1.74
2.67
5.54
10.14
16.03
22.65
29.3
35.23
39.8
42.68
43.99
44.14
43.59
42.5
40.58
37.18
31.62
23.54
13.07
0.86
-12.13
-24.75
-35.87
-44.48
-49.87
-51.84
-50.74
-47.49
-43.3
-39.33
-36.37
-34.59
-33.63
-32.82
-31.51
-29.32
-26.34
-22.96
-19.71
-17.02
-14.97
-13.4
-11.94
-10.32
-8.44
-6.41
-4.39
-2.45
-0.57
1.34
3.24
4.92
6
6.05
4.82
2.31
-1.18
-5.19
-9.25
-13.03
-16.49
-19.8
-23.27
-27.21
-31.85
-37.35
-43.81
-51.24
-59.47
-67.9
-75.5
-80.91
-82.82
-80.51
-74.19
-64.93
-54.35
-44.01
-35
-27.7
-22.03
-17.77
-14.78
-13.04
-12.47
-12.69
-12.92
-12.18
-9.61
-4.83
1.98
10.13
18.81
27.46
35.87
44.13
52.32
60.17
67.03
71.94
73.99
72.67
68.09
60.9
52.1
42.8
33.87
25.7
18.15
10.66
2.51
-6.74
-16.97
-27.39
-36.66
-43.26
-45.86
-43.81
-37.24
-27.06
-14.7
-1.79
10.24
20.39
28.21
33.76
37.36
39.44
40.37
40.44
39.87
38.83
37.47
35.92
34.22
32.35
30.23
27.76
24.83
21.36
17.27
12.51
7.08
0.97
-5.79
-13.11
-20.86
-28.91
-37.16
-45.64
-54.51
-63.86
-73.54
-82.9
-90.73
-95.43
-95.43
-89.6
-77.64
-60.2
-38.76
-15.31
8.1
29.69
48.31
63.49
75.41
84.64
91.87
97.54
101.74
104.2
104.51
102.37
97.83
91.45
84.1
76.79
70.3
64.96
60.62
56.84
53.09
48.92
43.97
37.88
30.17
20.36
8.14
-6.4
-22.66
-39.75
-56.64
-72.41
-86.2
-97.14
-104.2
-106.43
-103.19
-94.61
-81.79
-66.55
-50.99
-36.76
-24.63
-14.39
-5.23
3.71
12.89
22.07
30.56
37.51
42.44
45.39
46.86
47.52
47.86
47.9
47.26
45.41
41.99
36.95
30.66
23.64
16.37
9.12
1.95
-5.25
-12.58
-20.08
-27.82
-35.88
-44.33
-53.06
-61.56
-68.82
-73.46
-74.13
-69.98
-61.03
-48.23
-33.26
-17.94
-3.73
8.61
19.06
28.03
36
43.17
49.43
54.47
58.06
60.25
61.4
61.97
62.33
62.51
62.29
61.38
59.73
57.66
55.76
54.63
54.54
55.26
56.14
56.45
55.67
53.7
50.75
47.16
43.13
38.63
33.44
27.34
20.22
12.12
3.16
-6.47
-16.44
-26.18
-34.76
-41.02
-43.92
-42.92
-38.34
-31.35
-23.59
-16.6
-11.36
-8.12
-6.56
-6.2
-6.66
-7.83
-9.64
-12.04
-14.79
-17.55
-20.01
-21.98
-23.43
-24.5
-25.43
-26.44
-27.72
-29.34
-31.28
-33.47
-35.78
-38.15
-40.52
-42.86
-45.07
-46.99
-48.42
-49.26
-49.51
-49.38
-49.23
-49.45
-50.44
-52.53
-55.92
-60.59
-66.19
-71.9
-76.51
-78.6
-77
-71.13
-61.3
-48.61
-34.6
-20.74
-8.04
3.11
12.8
21.39
29.16
36.14
42.19
47.02
50.42
52.36
53.03
52.83
52.15
51.33
50.48
49.55
48.45
47.11
45.62
44.11
42.64
41.05
38.93
35.76
31.12
24.95
17.61
9.89
2.62
-3.56
-8.52
-12.57
-16.39
-20.73
-26.17
-32.98
-41.06
-49.89
-58.59
-65.94
-70.69
-71.84
-69.04
-62.69
-53.9
-44.1
-34.56
-26.11
-19.02
-13.2
-8.4
-4.46
-1.4
0.69
1.73
1.79
1.1
0.02
-1.03
-1.67
-1.62
-0.73
1.02
3.5
6.53
9.87
13.24
16.35
18.89
20.61
21.31
21.04
20.03
18.74
17.64
17.06
16.96
16.97
16.51
15.12
12.69
9.52
6.12
2.94
0.11
-2.66
-5.96
-10.45
-16.52
-24.08
-32.46
-40.43
-46.47
-49.14
-47.45
-41.26
-31.37
-19.34
-6.99
4.1
13.06
19.94
25.45
30.61
36.24
42.65
49.65
56.75
63.5
69.73
75.51
80.99
86.18
90.86
94.67
97.34
98.89
99.58
99.82
99.96
100.15
100.28
100.11
99.39
97.82
95.05
90.6
83.81
74.09
61.15
45.37
27.81
10.08
-6.19
-19.84
-30.57
-38.94
-46.16
-53.57
-62.21
-72.55
-84.36
-96.72
-108.2
-117.16
-122.09
-122.11
-117.26
-108.49
-97.36
-85.51
-74.18
-63.91
-54.59
-45.72
-36.8
-27.54
-17.9
-8.13
1.52
10.75
19.45
27.65
35.54
43.35
51.15
58.84
66.07
72.45
77.77
82.2
86.19
90.31
94.95
100.03
105.05
109.14
111.42
111.17
107.95
101.59
92.14
79.86
65.15
48.61
30.85
12.45
-6.28
-25.12
-43.88
-62.1
-78.92
-93.28
-104.28
-111.6
-115.83
-118.22
-120.2
-122.62
-125.39
-127.53
-127.73
-124.99
-119.12
-110.75
-100.86
-90.31
-79.52
-68.56
-57.43
-46.41
-36.02
-26.86
-19.19
-12.81
-7.22
-1.97
3.04
7.49
10.82
12.6
12.79
11.75
10.12
8.48
7.18
6.25
5.44
4.3
2.28
-1.11
-6.08
-12.41
-19.25
-25.19
-28.65
-28.38
-23.92
-15.84
-5.47
5.52
15.77
24.53
31.75
37.74
42.89
47.38
51.09
53.81
55.34
55.7
55.1
53.84
52.19
50.3
48.22
45.9
43.25
40.16
36.49
31.99
26.31
19.1
10.16
-0.34
-11.84
-23.48
-34.34
-43.77
-51.5
-57.7
-62.77
-67.21
-71.41
-75.52
-79.34
-82.28
-83.38
-81.45
-75.51
-65.17
-50.89
-34.01
-16.32
0.42
15.03
26.98
36.38
43.59
48.97
52.65
54.62
54.73
52.88
49.08
43.52
36.55
28.68
20.54
12.8
6.06
0.75
-2.96
-5.11
-5.96
-5.9
-5.36
-4.77
-4.51
-4.81
-5.67
-6.89
-7.98
-8.37
-7.61
-5.62
-2.82
-0.04
1.74
1.83
0.07
-2.89
-5.74
-6.72
-4.11
3.35
16.1
33.55
54.26
76.19
97.22
115.67
130.51
141.47
148.74
152.69
153.51
151.18
145.59
136.82
125.33
111.92
97.49
82.67
67.63
52.16
36.01
19.19
2.17
-14.33
-29.75
-43.95
-57.37
-70.84
-85.16
-100.86
-118.12
-136.8
-156.54
-176.88
-197.16
-216.48
-233.75
-247.81
-257.7
-262.77
-262.72
-257.48
-247.17
-232.02
-212.48
-189.45
-164.21
-138.33
-113.24
-89.95
-68.78
-49.49
-31.51
-14.38
2.07
17.65
31.94
44.52
55.1
63.61
70.16
75.03
78.56
81.1
82.91
84.06
84.44
83.86
82.11
79.17
75.2
70.54
65.53
60.49
55.57
50.77
45.98
41.02
35.71
29.92
23.76
17.62
12.3
8.88
8.5
12
19.56
30.54
43.66
57.29
70
80.86
89.63
96.59
102.26
107.12
111.46
115.38
118.88
121.98
124.75
127.27
129.5
131.31
132.47
132.74
131.9
129.77
126.19
120.91
113.7
104.4
93.14
80.36
66.81
53.31
40.5
28.54
17.12
5.5
-7.1
-21.14
-36.43
-52.04
-66.45
-78.02
-85.52
-88.57
-87.7
-84.17
-79.54
-75.25
-72.31
-71.25
-72.15
-74.8
-78.86
-84.01
-89.94
-96.35
-102.7
-108.07
-111.11
-110.16
-103.76
-91.1
-72.48
-49.31
-23.88
1.17
23.38
40.85
52.46
57.95
57.88
53.44
46.09
37.27
28.12
19.34
11.33
4.24
-1.8
-6.71
-10.42
-12.84
-13.77
-12.85
-9.52
-3.23
6.25
18.5
32.38
46.3
58.69
68.39
74.87
78
77.67
73.48
64.78
51.05
32.51
10.37
-13.24
-35.9
-55.62
-71.31
-82.87
-90.98
-96.71
-101.26
-105.69
-110.8
-116.93
-123.91
-131.09
-137.63
-142.79
-146.29
-148.25
-149.16
-149.62
-150.03
-150.47
-150.5
-149.19
-145.29
-137.66
-125.69
-109.66
-90.66
-70.2
-49.65
-29.89
-11.2
6.39
22.86
37.96
51.29
62.62
71.96
79.68
86.21
91.94
96.92
101.02
103.96
105.55
105.73
104.58
102.23
98.7
93.94
87.8
80.2
71.21
61.16
50.49
39.68
29.06
18.67
8.3
-2.45
-13.95
-26.27
-38.93
-50.78
-60.23
-65.6
-65.73
-60.33
-50.15
-36.66
-21.64
-6.71
6.99
18.84
28.61
36.34
42.19
46.39
49.15
50.66
51.03
50.35
48.83
46.7
44.29
41.83
39.46
37.22
35.07
32.94
30.72
28.21
25.07
20.94
15.6
9.08
1.69
-6.08
-13.72
-20.84
-27.28
-33.04
-38.31
-43.49
-49.15
-55.84
-63.82
-72.76
-81.54
-88.49
-91.91
-90.58
-84.26
-73.72
-60.48
-46.22
-32.24
-19.25
-7.36
3.58
13.71
22.94
30.92
37.29
41.89
44.83
46.5
47.37
47.81
48.02
48.05
47.91
47.66
47.3
46.84
46.17
45.16
43.69
41.75
39.41
36.69
33.61
30.06
25.96
21.27
16.1
10.59
4.9
-0.94
-6.96
-13.24
-19.95
-27.24
-35.28
-44.1
-53.43
-62.48
-70.02
-74.6
-75.01
-70.71
-62.13
-50.53
-37.6
-24.89
-13.44
-3.6
4.78
12.12
18.73
24.64
29.71
33.68
36.49
38.29
39.53
40.67
42.06
43.75
45.54
47.1
48.12
48.46
48.09
47.08
45.46
43.28
40.54
37.28
33.58
29.46
24.93
19.91
14.3
8.08
1.33
-5.78
-13.04
-20.32
-27.7
-35.48
-44.14
-54.13
-65.51
-77.81
-89.88
-100.14
-106.92
-108.88
-105.39
-96.65
-83.59
-67.69
-50.57
-33.75
-18.37
-5.05
6.09
15.27
22.88
29.23
34.51
38.78
42.15
44.77
46.95
49.01
51.16
53.31
55.15
56.26
56.35
55.38
53.59
51.33
48.83
46.11
43.08
39.63
35.92
32.35
29.36
27.23
25.74
24.29
22.01
18.11
12.18
4.4
-4.37
-12.73
-18.91
-21.2
-18.38
-10.13
2.93
19.33
37.36
55.44
72.57
88.31
102.49
114.9
125.02
132.12
135.52
134.9
130.48
123.05
113.67
103.32
92.66
81.83
70.57
58.47
45.24
30.99
16.23
1.74
-11.72
-23.69
-34.13
-43.37
-51.82
-59.86
-67.72
-75.59
-83.65
-92.09
-100.83
-109.26
-116.16
-119.9
-119.03
-112.77
-101.47
-86.48
-69.71
-52.94
-37.27
-22.97
-9.66
3.13
15.53
27.09
36.95
44.27
48.63
50.32
50.18
49.29
48.5
48.18
48.22
48.31
48.23
47.99
47.78
47.84
48.18
48.55
48.64
48.27
47.65
47.44
48.52
51.8
57.85
66.93
78.94
93.49
109.74
126.22
140.54
149.51
149.8
138.95
116.42
84.16
46.36
8.26
-25.31
-51.14
-68.18
-77.31
-80.47
-79.91
-77.64
-75.2
-73.57
-72.87
-72.05
-68.71
-59.47
-40.95
-11.04
29.98
79.17
131.54
181.41
223.94
256.17
277.23
287.95
290
285.09
274.65
259.68
240.87
218.69
193.31
164.49
131.53
93.69
50.77
3.87
-44.43
-90.52
-130.89
-163.19
-187.04
-203.79
-215.78
-225.29
-233.76
-241.51
-248.01
-252.18
-252.72
-248.41
-238.3
-221.79
-198.74
-169.32
-133.91
-92.96
-47.21
1.96
52.28
100.75
144.18
179.86
206.27
223.08
230.87
230.61
223.2
209.42
190.05
166.09
138.74
109.24
78.57
47.31
15.79
-15.53
-45.86
-74.08
-99.19
-120.79
-139.48
-156.55
-173.25
-190.06
-206.19
-219.95
-229.54
-233.86
-232.88
-227.32
-218.1
-205.75
-190.43
-172.24
-151.75
-130.06
-108.53
-88.4
-70.21
-53.75
-38.17
-22.38
-5.49
12.96
32.62
52.18
69.44
81.81
87.03
83.99
73.15
56.48
36.77
16.67
-1.99
-18.39
-32.52
-44.59
-54.65
-62.5
-67.91
-70.97
-72.2
-72.4
-72.34
-72.27
-71.89
-70.57
-67.79
-63.56
-58.53
-53.71
-49.91
-47.37
-45.62
-43.76
-40.95
-36.79
-31.39
-25.25
-18.91
-12.75
-6.94
-1.44
3.83
8.85
13.43
17.32
20.15
21.7
21.88
20.81
18.79
16.16
13.24
10.2
7.05
3.65
-0.19
-4.56
-9.38
-14.31
-18.84
-22.49
-24.9
-26.04
-26.13
-25.55
-24.72
-24
-23.59
-23.6
-23.97
-24.45
-24.57
-23.6
-20.81
-15.64
-8.06
1.35
11.56
21.41
29.97
36.82
42.06
45.95
48.68
50.17
50.12
48.25
44.55
39.36
33.23
26.73
20.15
13.52
6.59
-0.91
-9.15
-18.07
-27.34
-36.37
-44.47
-51.01
-55.56
-57.93
-58.23
-56.75
-53.91
-50.22
-46.16
-42.21
-38.71
-35.84
-33.5
-31.43
-29.37
-27.22
-25.15
-23.53
-22.8
-23.12
-24.26
-25.47
-25.75
-24.15
-20.07
-13.54
-5.13
4.21
13.53
22.05
29.41
35.56
40.64
44.89
48.45
51.29
53.18
53.73
52.57
49.56
44.93
39.23
33.12
27.03
21.02
14.86
8.22
1.06
-6.29
-13.28
-19.45
-24.69
-29.35
-33.93
-38.82
-43.99
-48.94
-52.94
-55.42
-56.12
-55.25
-53.32
-50.89
-48.4
-46.11
-44.11
-42.41
-41.06
-40.11
-39.61
-39.57
-40
-40.96
-42.54
-44.72
-47.34
-49.95
-51.87
-52.31
-50.6
-46.36
-39.59
-30.65
-20.15
-8.86
2.46
13.12
22.58
30.54
36.92
41.92
45.84
49.01
51.65
53.77
55.2
55.65
54.79
52.32
48.03
41.85
33.94
24.77
15.14
6.11
-1.28
-6.25
-8.62
-8.82
-7.82
-6.79
-6.73
-8.19
-11.16
-15.18
-19.56
-23.64
-27.04
-29.75
-32.07
-34.43
-37.15
-40.32
-43.79
-47.32
-50.81
-54.46
-58.71
-64.04
-70.64
-78.17
-85.75
-92.13
-96.06
-96.6
-93.31
-86.28
-76.01
-63.29
-48.98
-33.92
-18.86
-4.36
9.16
21.44
32.33
41.66
49.34
55.31
59.64
62.51
64.17
64.82
64.6
63.53
61.68
59.13
56.12
52.9
49.72
46.65
43.59
40.32
36.64
32.46
27.9
23.21
18.66
14.33
10.14
5.81
1.06
-4.28
-10.12
-16.23
-22.28
-28.04
-33.36
-38.34
-43.22
-48.38
-54.32
-61.46
-69.84
-78.89
-87.37
-93.52
-95.71
-92.93
-85.25
-73.73
-60.09
-46.07
-32.89
-21.13
-10.73
-1.38
7.21
15.16
22.39
28.72
33.96
38
40.87
42.8
44.21
45.62
47.53
50.22
53.67
57.53
61.19
64.04
65.66
65.85
64.72
62.54
59.6
56.12
52.19
47.82
42.96
37.57
31.73
25.56
19.27
13.04
6.98
1.11
-4.64
-10.43
-16.53
-23.26
-30.9
-39.47
-48.44
-56.65
-62.46
-64.26
-61.09
-53.07
-41.38
-27.87
-14.4
-2.22
8.18
16.95
24.45
30.94
36.4
40.68
43.71
45.55
46.51
46.92
47.08
47.09
46.92
46.48
45.71
44.72
43.7
42.81
41.99
40.93
39.1
36.03
31.47
25.56
18.81
11.84
5.19
-0.96
-6.81
-12.88
-19.8
-28.02
-37.47
-47.37
-56.26
-62.31
-63.94
-60.33
-51.78
-39.62
-25.76
-12.03
0.26
10.55
18.84
25.44
30.67
34.7
37.57
39.3
39.92
39.56
38.46
36.92
35.26
33.75
32.47
31.33
30.05
28.29
25.77
22.42
18.33
13.71
8.81
3.78
-1.35
-6.62
-12.19
-18.34
-25.42
-33.82
-43.73
-54.78
-65.85
-75.11
-80.4
-80
-73.22
-60.78
-44.63
-27.3
-11.07
2.7
13.72
22.57
30.1
36.91
43.14
48.51
52.6
55.16
56.29
56.34
55.82
55.15
54.63
54.34
54.28
54.3
54.2
53.64
52.3
49.89
46.29
41.62
36.21
30.51
24.9
19.59
14.45
9.03
2.64
-5.35
-15.19
-26.48
-38.02
-48.09
-54.83
-56.88
-53.75
-45.93
-34.68
-21.58
-8.08
4.8
16.52
26.94
36.09
44.09
51.02
56.86
61.54
64.91
66.8
67.13
65.99
63.74
60.96
58.32
56.3
55.06
54.25
53.18
51.09
47.46
42.33
36.26
30.14
24.76
20.52
17.15
13.88
9.67
3.46
-5.39
-16.88
-30.03
-42.72
-51.9
-54.24
-47.13
-29.85
-4.06
26.5
57.09
83.53
103.35
116.15
123.12
126.07
126.58
125.62
123.7
121.24
118.93
117.62
118.1
120.58
124.37
127.92
129.15
126.27
118.41
105.99
90.56
74.18
58.69
45.15
33.75
24.08
15.6
8
1.2
-4.8
-10.23
-15.69
-22
-29.91
-39.71
-51.1
-63.25
-75.17
-86.11
-95.73
-104.06
-111.1
-116.59
-120.01
-120.84
-118.98
-114.92
-109.51
-103.52
-97.16
-90.02
-81.38
-70.75
-58.31
-44.96
-31.99
-20.62
-11.58
-4.93
-0.22
3.32
6.41
9.52
12.85
16.33
19.75
22.91
25.7
28.03
29.79
30.7
30.39
28.55
25.1
20.37
14.96
9.59
4.72
0.45
-3.49
-7.56
-12.1
-17.22
-22.79
-28.65
-34.75
-41.2
-48.12
-55.31
-62.12
-67.45
-70.18
-69.54
-65.53
-58.86
-50.73
-42.31
-34.41
-27.36
-21.1
-15.44
-10.27
-5.59
-1.46
2.07
5.05
7.67
10.16
12.84
15.96
19.59
23.53
27.31
30.29
31.95
31.99
30.59
28.27
25.72
23.52
21.96
20.87
19.77
18.01
15.02
10.63
5.03
-1.22
-7.45
-13.05
-17.67
-21.28
-24.1
-26.51
-28.98
-31.97
-35.71
-40.11
-44.63
-48.27
-49.87
-48.47
-43.67
-35.73
-25.55
-14.3
-3.07
7.34
16.54
24.42
31.04
36.51
40.93
44.42
47.09
49.07
50.46
51.28
51.51
51.08
49.99
48.33
46.29
44.09
41.8
39.35
36.48
32.91
28.52
23.43
18.03
12.81
8.16
4.28
1.11
-1.57
-4.08
-6.71
-9.7
-13.27
-17.58
-22.73
-28.7
-35.42
-42.63
-50.06
-57.37
-64.18
-70.05
-74.5
-77.07
-77.44
-75.54
-71.58
-66.04
-59.52
-52.59
-45.66
-39
-32.75
-26.96
-21.65
-16.78
-12.3
-8.17
-4.36
-0.94
2.07
4.68
7.01
9.23
11.42
13.53
15.3
16.41
16.6
15.84
14.35
12.52
10.7
9.05
7.4
5.37
2.61
-1.07
-5.55
-10.4
-15.12
-19.27
-22.71
-25.52
-28.02
-30.59
-33.57
-37.22
-41.67
-46.88
-52.5
-57.76
-61.5
-62.5
-59.87
-53.52
-44.26
-33.56
-23.02
-13.81
-6.33
-0.39
4.47
8.6
12.05
14.66
16.25
16.82
16.55
15.7
14.53
13.29
12.19
11.46
11.3
11.74
12.59
13.44
13.77
13.13
11.33
8.43
4.69
0.42
-4.18
-9.02
-14.12
-19.5
-25.19
-31.14
-37.33
-43.66
-49.83
-55.21
-58.8
-59.48
-56.37
-49.2
-38.54
-25.65
-12.07
0.78
11.96
21.15
28.39
33.9
37.88
40.4
41.48
41.18
39.69
37.38
34.68
32.01
29.69
27.84
26.43
25.29
24.19
22.82
20.91
18.18
14.51
9.95
4.73
-0.8
-6.3
-11.61
-16.75
-21.95
-27.5
-33.67
-40.6
-48.18
-55.93
-62.96
-67.99
-69.69
-67.02
-59.7
-48.38
-34.54
-19.98
-6.26
5.69
15.69
24.08
31.27
37.51
42.73
46.78
49.6
51.34
52.36
52.98
53.33
53.26
52.43
50.61
47.76
44.2
40.31
36.32
32.06
26.9
19.98
10.58
-1.5
-15.67
-30.66
-44.9
-56.92
-65.92
-71.99
-76.12
-79.93
-85.16
-93.1
-104.11
-117.4
-131.11
-142.82
-150.16
-151.49
-146.22
-134.88
-118.84
-99.85
-79.62
-59.56
-40.65
-23.44
-8.11
5.45
17.52
28.52
38.95
49.4
60.57
73.04
87.11
102.46
117.97
131.92
142.45
148.13
148.46
143.96
135.83
125.4
113.65
100.97
87.28
72.47
56.77
40.99
26.37
14.24
5.6
0.72
-1
-0.85
-0.52
-1.68
-5.65
-13.04
-23.57
-35.99
-48.23
-57.74
-62.12
-59.74
-50.24
-34.62
-14.84
6.72
27.84
46.86
62.84
75.56
85.29
92.65
98.35
102.98
106.79
109.71
111.46
111.82
110.79
108.58
105.52
101.87
97.86
93.63
89.43
85.5
81.9
78.34
74.26
69.05
62.51
55.07
47.66
41.24
36.23
32.27
28.35
23.36
16.61
8.13
-1.47
-11.37
-20.8
-29.33
-36.67
-42.68
-47.3
-50.68
-53.4
-56.42
-60.89
-67.61
-76.66
-87.06
-96.93
-103.92
-105.9
-101.59
-91
-75.4
-56.98
-38.26
-21.5
-8.29
0.53
4.86
5.17
2.38
-2.28
-7.45
-11.91
-14.85
-16.05
-15.87
-14.99
-14.07
-13.5
-13.3
-13.27
-13.19
-13.08
-13.17
-13.84
-15.41
-17.97
-21.32
-25.06
-28.8
-32.38
-35.93
-39.82
-44.48
-50.09
-56.44
-62.85
-68.41
-72.35
-74.31
-74.63
-74.31
-74.67
-76.91
-81.52
-87.97
-94.66
-99.26
-99.29
-92.83
-79.03
-58.4
-32.65
-4.34
23.69
49.01
70.18
87.03
100.55
112.36
123.91
135.79
147.46
157.46
164.08
166.13
163.38
156.63
147.27
136.74
126.2
116.42
107.82
100.61
94.71
89.64
84.43
77.85
68.76
56.61
41.86
25.87
10.5
-2.65
-12.9
-20.87
-28.27
-37.36
-50.15
-67.55
-89.1
-113.08
-137.17
-159.31
-178.26
-193.7
-205.74
-214.37
-219.1
-219.15
-213.99
-203.86
-189.88
-173.54
-156.04
-137.7
-118.05
-96.3
-72.13
-46.08
-19.51
5.88
28.64
47.91
63.48
75.58
84.64
91.11
95.39
97.92
99.06
99.23
98.82
98.27
98
98.41
99.66
101.52
103.41
104.5
104.12
102.04
98.64
94.71
91
87.84
84.86
81.15
75.62
67.44
56.34
42.66
27.25
11.27
-3.89
-16.8
-26.14
-31.03
-31.28
-27.5
-20.91
-12.95
-4.87
2.61
9.22
14.94
19.77
23.57
26.15
27.45
27.65
27.18
26.58
26.2
26.14
26.2
26.04
25.41
24.24
22.67
20.87
18.97
16.94
14.65
12.04
9.08
5.8
2.25
-1.62
-5.86
-10.44
-15.24
-20.1
-25.02
-30.15
-35.68
-41.53
-47.08
-51.19
-52.57
-50.34
-44.47
-35.94
-26.32
-17.27
-9.98
-4.98
-2.36
-2.03
-3.93
-8.02
-14.12
-21.87
-30.74
-40.27
-50.12
-60
-69.29
-76.82
-80.85
-79.59
-72.05
-58.75
-41.89
-24.75
-10.62
-1.65
1.74
0.77
-2.51
-6.21
-9.41
-12.35
-16.15
-22.3
-32.07
-46.04
-63.84
-83.7
-102.75
-117.42
-124.42
-122.18
-112.01
-98.72
-89.68
-92.27
-110.48
-142.37
-179.86
-211.63
-227.77
-224.01
-203.2
-173.38
-143.55
-119.57
-102.46
-89.5
-77.14
-63.6
-49.56
-36.88
-26.8
-18.95
-11.76
-3.73
5.45
14.73
22.02
25.35
23.71
17.5
8.69
0.45
-3.64
-0.65
10.7
29.58
53.43
79.08
103.96
127
148.54
169.5
190.36
210.52
228.48
242.54
251.62
255.65
255.37
251.65
244.85
234.42
219.27
198.47
172.01
141.33
109.12
78.55
52.36
32.09
17.71
7.92
0.76
-5.88
-13.73
-24
-37.42
-54.21
-74.06
-95.99
-118.17
-138.08
-152.97
-160.51
-159.64
-150.87
-136.15
-118.15
-99.33
-81.34
-64.78
-49.66
-35.88
-23.69
-13.67
-6.37
-1.93
0.16
0.75
0.71
0.55
0.53
0.98
2.74
7.19
15.87
29.61
47.77
67.97
86.73
100.53
106.98
105.45
97.1
84.3
70.14
57.86
50.43
50.06
57.54
71.83
90.18
108.9
124.78
136.18
143.45
148.28
152.35
156.19
158.74
157.9
151.67
139.21
121.31
100.23
78.89
60.07
45.62
36.22
31.38
29.76
29.75
30.01
29.89
29.54
29.68
31.08
34.01
37.92
41.53
43.33
42.13
37.78
31.22
24.25
18.82
16.27
16.92
19.92
23.72
26.55
27.07
24.6
19.13
10.96
0.46
-12.01
-26.02
-40.84
-55.39
-68.36
-78.56
-85.41
-89.12
-90.75
-91.7
-93.23
-95.95
-99.69
-103.8
-107.65
-111.06
-114.49
-118.85
-125.1
-133.81
-144.83
-157.38
-170.46
-183.36
-196.14
-209.79
-225.76
-245.08
-267.39
-290.5
-310.75
-324.33
-328.7
-323.43
-310.13
-291.39
-269.38
-245.03
-217.99
-187.15
-151.44
-110.4
-64.39
-14.73
36.52
86.55
132.12
169.9
197.1
212.31
216.17
211.57
202.99
195.22
191.56
192.77
196.82
200.12
199.28
192.75
181.25
167.05
152.46
138.64
125.27
111.36
96.41
81.2
67.87
59.3
57.89
64.59
78.19
95.51
112.37
124.89
130.71
129.52
122.85
113.34
103.75
96.37
92.65
93.04
97.09
103.44
110.22
115.63
118.5
118.58
116.46
112.83
108.08
102.02
94.28
84.81
74.17
63.28
52.86
43.01
33.19
22.64
10.86
-2.01
-15.41
-28.74
-41.71
-54.37
-66.8
-78.66
-88.96
-96.17
-98.53
-94.74
-84.27
-67.6
-46.06
-21.46
4.41
30.14
54.84
78.05
99.36
118.04
132.85
142.03
143.55
135.66
117.56
89.99
55.65
18.89
-14.99
-41.06
-55.96
-58.72
-50.7
-34.96
-15.33
4.46
21.21
32.43
36.53
33
22.72
7.95
-8.26
-23.04
-34.88
-44.02
-52.14
-61.09
-71.56
-82.4
-91.19
-95.68
-95.21
-91.39
-87.25
-85.62
-87.46
-91.42
-94.7
-94.81
-91.04
-84.78
-78.64
-75
-74.93
-77.95
-82.71
-87.91
-92.96
-98.01
-103.44
-109.38
-115.3
-120.28
-123.28
-123.58
-121
-115.9
-109.01
-101.23
-93.39
-86.01
-79.34
-73.43
-68.3
-64.19
-61.47
-60.58
-61.68
-64.49
-68.34
-72.34
-75.78
-78.22
-79.48
-79.5
-78.2
-75.36
-70.58
-63.19
-52.46
-37.91
-19.83
0.37
20.29
37.24
49.22
55.78
58.03
58.1
58.11
59.35
62.18
66.39
71.71
78.14
85.66
94
102.44
110.09
116.34
120.99
124.14
125.74
125.26
121.64
113.8
101.42
85.33
67.52
50.45
36.18
25.72
18.93
14.89
12.44
10.68
9.05
7.27
5.12
2.39
-1.04
-5.06
-9.2
-12.66
-14.62
-14.59
-12.64
-9.32
-5.18
-0.25
6.17
15.17
27.41
42.29
57.76
70.95
79.39
82.04
79.58
73.83
66.53
58.43
49.12
37.78
24.06
8.76
-6.31
-19.06
-28.01
-32.86
-34.42
-34.14
-33.41
-33.07
-33.25
-33.63
-33.79
-33.62
-33.33
-33.19
-33.17
-32.61
-30.39
-25.4
-17.26
-6.68
4.65
14.74
22.16
26.54
28.53
29.23
29.56
29.85
29.91
29.47
28.48
27.28
26.36
26.05
26.25
26.41
25.69
23.15
17.93
9.53
-1.93
-15.54
-29.57
-41.94
-50.85
-55.42
-56.1
-54.44
-52.48
-51.91
-53.49
-56.94
-61.31
-65.56
-68.99
-71.3
-72.38
-71.99
-69.65
-64.88
-57.58
-48.31
-38.34
-29.21
-22.17
-17.58
-14.85
-12.83
-10.31
-6.65
-1.98
3.09
7.76
11.49
14.14
15.94
17.24
18.35
19.41
20.29
20.67
20.19
18.58
15.78
11.95
7.43
2.56
-2.44
-7.52
-12.76
-18.24
-24.08
-30.27
-36.68
-43.07
-48.98
-53.78
-56.74
-57.23
-54.83
-49.49
-41.54
-31.64
-20.6
-9.26
1.65
11.6
20.24
27.42
33.12
37.43
40.51
42.51
43.64
44.04
43.88
43.23
42.12
40.53
38.42
35.82
32.84
29.7
26.62
23.81
21.4
19.36
17.57
15.85
13.95
11.55
8.33
4.09
-1.04
-6.45
-11.08
-13.68
-13.21
-9.28
-2.31
6.63
16.18
25.12
32.66
38.45
42.42
44.55
44.78
43.14
39.87
35.61
31.29
27.95
26.34
26.62
28.25
30.11
30.9
29.51
25.39
18.7
10.2
1.01
-7.7
-15.12
-20.9
-25.19
-28.53
-31.6
-35
-39.13
-44.12
-49.84
-55.9
-61.71
-66.47
-69.35
-69.62
-66.81
-60.86
-52.11
-41.29
-29.3
-17.14
-5.64
4.59
13.24
20.36
26.16
30.99
35.08
38.58
41.48
43.75
45.43
46.67
47.59
48.15
48.07
46.96
44.41
40.3
34.85
28.54
21.92
15.44
9.22
3.16
-2.95
-9.21
-15.66
-22.16
-28.49
-34.58
-40.32
-45.58
-50.3
-54.43
-57.83
-60.1
-60.51
-58.11
-51.93
-41.29
-26.08
-6.88
14.98
37.55
58.53
75.58
86.85
91.32
89.11
81.41
70.11
57.27
44.65
33.43
24.2
17.09
11.81
7.82
4.28
0.37
-4.34
-9.97
-16.29
-22.94
-29.73
-36.69
-43.98
-51.75
-60.04
-68.78
-77.95
-87.5
-97.28
-106.77
-114.97
-120.48
-121.8
-117.95
-108.8
-95.35
-79.36
-62.85
-47.48
-34.06
-22.67
-12.87
-4.26
3.22
9.24
13.39
15.46
15.64
14.51
12.66
10.48
8.05
5.28
2.21
-0.85
-3.38
-5.05
-5.89
-6.44
-7.44
-9.3
-11.81
-14.11
-15.03
-13.75
-10.13
-4.91
0.67
5.34
8.4
9.97
10.92
12.52
15.93
21.77
29.93
39.64
49.81
59.47
67.86
74.51
79.04
80.93
79.69
74.93
66.71
55.57
42.45
28.42
14.42
1.2
-10.68
-20.81
-28.87
-34.76
-38.67
-41.05
-42.6
-43.94
-45.52
-47.47
-49.66
-51.84
-53.73
-55.18
-56.2
-57.02
-57.95
-59.3
-61.15
-63.13
-64.37
-63.67
-59.81
-52.04
-40.33
-25.45
-8.71
8.57
25.39
41.22
55.9
69.31
81.19
91.01
98.12
101.99
102.38
99.48
93.88
86.42
77.98
69.29
60.86
52.92
45.56
38.83
32.79
27.58
23.3
20
17.68
16.33
15.98
16.64
18.21
20.29
22.13
22.69
20.9
16.19
8.79
-0.05
-8.35
-14.05
-15.73
-13.16
-7.27
0.27
7.75
14.01
18.64
21.64
23.01
22.49
19.66
14.39
7.18
-0.8
-8.04
-13.32
-16.01
-16.28
-14.71
-12.08
-9.17
-6.75
-5.75
-7.12
-11.63
-19.42
-29.73
-40.87
-50.74
-57.46
-60.12
-59.1
-55.99
-52.89
-51.57
-52.6
-55
-56.5
-54.34
-46.37
-31.83
-11.62
12.1
36.67
59.78
79.98
96.81
110.59
121.97
131.52
139.61
146.3
151.55
155.41
158.21
160.66
163.72
168.36
175.12
183.78
193.36
202.36
209.31
213.25
214.09
212.51
209.63
206.47
203.64
200.97
197.6
192.02
182.61
168.07
147.92
122.72
93.89
63.12
31.73
0.07
-32.6
-68.01
-108.18
-154.14
-204.73
-255.73
-300.27
-330.56
-340.62
-328.74
-298.46
-257.46
-214.72
-177.52
-149.5
-130.73
-119.05
-111.83
-106.97
-102.99
-98.66
-92.76
-84.59
-74.5
-64.22
-56.28
-53.09
-55.73
-63.45
-73.88
-84.02
-91.36
-94.81
-94.91
-93.63
-93.6
-97.13
-105.29
-117.28
-130.29
-140.16
-142.43
-133.8
-113.26
-82.55
-45.65
-7.62
26.78
54.26
73.42
84.6
89.23
89.04
85.67
80.46
74.56
69.04
64.71
61.98
60.49
59.26
56.99
52.8
46.71
39.84
33.96
30.54
30.04
31.45
32.68
31.27
25.38
14.29
-1.47
-20.42
-40.77
-60.88
-79.64
-96.48
-111.23
-123.88
-134.22
-141.67
-145.37
-144.41
-138.23
-126.95
-111.47
-93.29
-74.1
-55.36
-38.05
-22.59
-9.02
2.77
12.85
21.26
28.1
33.68
38.53
43.32
48.62
54.68
61.33
68.03
74.18
79.42
83.76
87.53
91.06
94.39
97.02
98.12
96.84
92.73
86.02
77.48
68.17
59.01
50.48
42.52
34.64
26.11
16.31
4.99
-7.41
-19.7
-30.04
-36.49
-37.69
-33.5
-25.13
-14.71
-4.41
4.29
11.06
16.4
21.05
25.37
29.01
31.09
30.74
27.5
21.68
14.31
6.78
0.35
-4.25
-7.03
-8.64
-9.94
-11.6
-13.78
-16.17
-18.22
-19.6
-20.42
-21.17
-22.54
-25.09
-29.04
-34.23
-40.23
-46.43
-52.33
-57.65
-62.45
-67.17
-72.38
-78.58
-85.81
-93.48
-100.38
-104.89
-105.45
-101.06
-91.66
-78.2
-62.39
-46.22
-31.3
-18.53
-7.85
1.43
10.28
19.38
28.87
38.29
46.84
53.73
58.45
61
61.75
61.28
60.21
59.01
57.99
57.25
56.83
56.63
56.45
56.01
55.04
53.47
51.41
49.21
47.34
46.19
46.02
46.86
48.47
50.34
51.84
52.3
51.26
48.59
44.43
39.02
32.5
24.81
15.81
5.7
-4.68
-13.82
-19.88
-21.33
-17.54
-9.05
2.63
15.57
28.05
38.97
48
55.33
61.46
66.79
71.52
75.56
78.75
80.93
82.1
82.46
82.3
81.91
81.46
81
80.43
79.58
78.13
75.75
72.15
67.28
61.36
54.85
48.19
41.53
34.61
26.86
17.82
7.54
-3.28
-13.61
-22.6
-30.03
-36.49
-43.09
-50.93
-60.56
-71.77
-83.6
-94.64
-103.36
-108.45
-109.13
-105.29
-97.68
-87.67
-76.95
-67.04
-58.83
-52.52
-47.78
-44.05
-40.9
-38.13
-35.74
-33.86
-32.64
-32.25
-32.74
-33.93
-35.2
-35.63
-34.27
-30.59
-24.84
-18.02
-11.57
-6.81
-4.49
-4.7
-6.97
-10.61
-14.92
-19.24
-23.04
-25.92
-27.7
-28.66
-29.47
-31.06
-34.2
-39.03
-44.76
-49.74
-51.86
-49.31
-41.31
-28.45
-12.47
4.29
19.74
32.61
42.58
50.11
55.95
60.77
64.97
68.68
71.84
74.33
76.05
76.92
77
76.41
75.32
73.82
71.93
69.54
66.54
62.98
59.08
55.15
51.33
47.46
43.02
37.46
30.46
22.26
13.59
5.36
-1.96
-8.62
-15.52
-23.8
-34.08
-46.12
-58.66
-69.87
-77.88
-81.37
-79.8
-73.49
-63.42
-51.01
-37.86
-25.41
-14.7
-6.14
0.46
5.72
10.36
14.87
19.38
23.62
27.17
29.62
30.75
30.57
29.3
27.28
24.96
22.81
21.26
20.58
20.77
21.49
22.13
21.96
20.37
17.09
12.31
6.55
0.5
-5.22
-10.28
-14.72
-18.9
-23.38
-28.66
-35.04
-42.41
-50.18
-57.38
-62.86
-65.6
-65.09
-61.58
-56.15
-50.48
-46.36
-45.04
-46.72
-50.4
-54.27
-56.41
-55.68
-52.12
-46.9
-41.61
-37.48
-34.85
-33.15
-31.41
-28.82
-25.19
-20.86
-16.35
-11.92
-7.4
-2.47
3.01
8.65
13.59
16.96
18.37
18.18
17.4
17.14
17.96
19.66
21.37
22.09
21.19
18.8
15.58
12.4
9.83
8.02
6.83
6.09
5.92
6.64
8.64
12.01
16.42
21.22
25.75
29.58
32.75
35.73
39.21
43.77
49.69
56.8
64.5
71.93
78.14
82.26
83.72
82.4
78.75
73.81
68.89
65.19
63.26
62.63
61.84
58.91
52.08
40.61
25.09
7.16
-11.12
-28.07
-42.81
-55.12
-64.95
-72.09
-76.08
-76.7
-74.53
-71.14
-68.65
-68.85
-72.32
-78.11
-84.27
-88.79
-90.55
-89.68
-87.13
-83.98
-80.82
-77.61
-74.02
-69.91
-65.58
-61.71
-59.1
-58.37
-59.86
-63.66
-69.68
-77.71
-87.38
-98.14
-109.17
-119.41
-127.58
-132.38
-132.75
-128.15
-118.79
-105.59
-89.96
-73.47
-57.41
-42.67
-29.66
-18.46
-9.01
-1.19
5.12
10.09
14.03
17.4
20.78
24.79
29.87
36.19
43.57
51.51
59.34
66.34
71.87
75.61
77.58
78.19
78.01
77.49
76.71
75.43
73.34
70.36
66.82
63.29
60.13
57.23
53.96
49.58
43.78
36.87
29.67
23.09
17.76
14.01
12
11.91
13.89
17.82
23.1
28.68
33.59
37.23
39.65
41.19
42.01
41.78
39.97
36.36
31.7
27.63
26.07
28.12
33.4
40.14
46.11
49.74
50.9
50.78
51.05
52.83
56.04
59.55
61.85
61.87
59.51
55.51
50.97
46.78
43.24
40.12
36.99
33.55
29.78
25.91
22.07
18.13
13.82
8.98
4.03
0.14
-1.12
1.68
9.15
20.66
34.56
48.76
61.4
71.45
78.82
84.1
88.12
91.46
94.32
96.41
97.28
96.52
94.06
90.23
85.7
81.24
77.45
74.57
72.5
70.95
69.63
68.4
67.24
66.17
65.17
64.09
62.77
61.09
59.01
56.52
53.54
49.92
45.44
39.93
33.32
25.64
16.9
6.76
-5.52
-20.98
-40.61
-64.81
-92.91
-123
-152.27
-177.56
-196.2
-206.53
-208.22
-202.07
-189.66
-172.85
-153.45
-132.89
-112.16
-91.77
-71.91
-52.56
-33.81
-16.01
0.23
14.16
25.22
33.31
38.91
42.85
45.85
48.07
48.95
47.34
41.97
31.93
17.07
-1.93
-23.55
-45.68
-65.93
-82.14
-92.93
-98.07
-98.54
-96.08
-92.51
-89.04
-86.06
-83.45
-81.04
-78.92
-77.43
-76.83
-76.95
-77.18
-76.83
-75.59
-73.78
-72.2
-71.66
-72.46
-74.03
-74.97
-73.4
-67.59
-56.47
-40.14
-19.95
1.75
22.23
39.21
51.38
58.71
62.17
63.12
62.67
61.41
59.36
56.29
52.17
47.3
42.34
38.02
34.94
33.29
32.83
32.96
32.93
32.16
30.34
27.5
23.84
19.47
14.24
7.81
-0.03
-9.15
-18.78
-27.69
-34.49
-38.09
-37.93
-34.09
-27.18
-18.12
-7.95
2.39
12.22
21.22
29.43
37.15
44.64
51.97
58.89
64.86
69.38
72.07
72.86
71.86
69.26
65.07
59.12
51.22
41.37
29.96
17.79
5.82
-5.04
-14.33
-22.06
-28.57
-34.34
-39.74
-44.95
-49.99
-54.81
-59.3
-63.51
-67.6
-71.95
-77.04
-83.28
-90.77
-99.14
-107.53
-114.93
-120.53
-124.05
-125.87
-126.75
-127.46
-128.5
-129.83
-131.07
-131.47
-130.14
-126.04
-118.16
-105.82
-89.02
-68.61
-46.27
-24.04
-3.74
13.53
27.46
38.42
47.05
54.01
59.79
64.84
69.54
74.15
78.73
82.99
86.48
88.75
89.58
89.05
87.43
84.97
81.8
77.93
73.43
68.47
63.28
58.01
52.54
46.53
39.63
31.78
23.34
15.05
7.63
1.42
-3.83
-8.81
-14.32
-20.91
-28.68
-37.27
-46
-53.94
-60
-62.99
-61.91
-56.21
-46.13
-32.79
-17.94
-3.46
9.22
19.52
27.7
34.62
41.14
47.81
54.63
61.22
66.92
71.16
73.57
74.04
72.64
69.62
65.34
60.14
54.44
48.57
42.74
37.04
31.41
25.64
19.46
12.71
5.38
-2.25
-9.84
-17.09
-23.88
-30.22
-36.15
-41.52
-46.06
-49.57
-52.15
-54.36
-57.07
-61.15
-67.09
-74.7
-83.21
-91.41
-98.03
-102
-102.68
-99.79
-93.33
-83.42
-70.11
-53.45
-33.69
-11.61
11.43
33.62
53.2
69.05
80.97
89.67
96.3
101.86
106.88
111.36
114.99
