49.84
46.16
42.42
38.55
34.43
29.93
25
19.73
14.25
8.74
3.28
-2.08
-7.36
-12.57
-17.79
-23.15
-28.87
-35.21
-42.28
-49.83
-57.12
-62.95
-66
-65.2
-60.15
-51.29
-39.84
-27.43
-15.7
-5.88
1.37
5.91
7.97
7.96
6.29
3.39
-0.31
-4.37
-8.28
-11.61
-14.04
-15.55
-16.34
-16.9
-17.77
-19.32
-21.59
-24.32
-27.01
-29.15
-30.54
-31.32
-31.89
-32.77
-34.26
-36.36
-38.75
-40.97
-42.59
-43.46
-43.71
-43.74
-44.12
-45.36
-47.8
-51.36
-55.5
-59.13
-60.96
-59.71
-54.61
-45.61
-33.45
-19.48
-5.24
7.86
18.87
27.33
33.2
36.71
38.24
38.25
37.28
35.93
34.77
34.28
34.68
35.98
37.95
40.27
42.65
44.87
46.78
48.21
48.96
48.72
47.32
44.7
41
36.55
31.7
26.79
22.05
17.6
13.45
9.49
5.42
0.85
-4.56
-10.77
-17.14
-22.47
-25.24
-24.26
-19.05
-10.16
1.03
12.81
23.62
32.48
39.01
43.26
45.48
45.85
44.55
41.82
38.02
33.67
29.28
25.31
21.96
19.26
17.06
15.17
13.46
11.88
10.48
9.25
8.09
6.7
4.69
1.64
-2.68
-8.2
-14.57
-21.27
-27.75
-33.67
-38.98
-43.87
-48.78
-54.23
-60.69
-68.38
-77.05
-85.81
-93.26
-97.71
-97.77
-92.7
-82.87
-69.54
-54.64
-40.12
-27.47
-17.38
-9.83
-4.25
0.03
3.55
6.6
9.23
11.46
13.38
15.17
17.04
19.05
21.07
22.75
23.76
23.94
23.46
22.72
22.25
22.38
23.1
24.04
24.6
24.24
22.67
19.95
16.48
12.73
9.07
5.63
2.31
-1.23
-5.39
-10.55
-16.97
-24.68
-33.37
-42.26
-50.17
-55.57
-57.01
-53.49
-44.8
-31.64
-15.52
1.66
18.1
32.5
44.24
53.32
60.07
64.87
67.96
69.51
69.68
68.78
67.22
65.4
63.6
61.87
60.15
58.35
56.51
54.76
53.19
51.74
50.17
48.15
45.41
41.92
37.84
33.46
28.97
24.41
19.59
14.3
8.34
1.68
-5.59
-13.26
-21.06
-28.69
-35.87
-42.41
-48.34
-53.94
-59.85
-66.72
-74.91
-84.1
-93.18
-100.34
-103.64
-101.64
-93.93
-81.32
-65.58
-48.93
-33.36
-20.2
-9.93
-2.36
3.11
7.16
10.31
12.91
15.17
17.25
19.31
21.43
23.62
25.77
27.66
29.12
30.13
30.86
31.62
32.68
34.09
35.58
36.61
36.62
35.3
32.69
29.2
25.34
21.44
17.5
13.23
8.21
2.24
-4.55
-11.66
-18.44
-24.35
-29.11
-32.81
-35.79
-38.58
-41.8
-46
-51.44
-57.89
-64.39
-69.35
-71
-67.95
-59.78
-47.26
-32.09
-16.31
-1.54
11.33
22.25
31.54
39.6
46.6
52.53
57.36
61.26
64.61
67.91
71.61
75.93
80.82
85.93
90.75
94.71
97.32
98.27
97.44
94.9
90.85
85.54
79.24
72.18
64.69
57.12
49.81
42.94
36.45
30.1
23.54
16.53
9.06
1.38
-6.09
-12.99
-19.08
-24.29
-28.77
-32.88
-37.15
-42.22
-48.63
-56.47
-65.09
-73.06
-78.48
-79.57
-75.24
-65.58
-51.78
-35.76
-19.52
-4.72
7.67
17.37
24.52
29.59
33.13
35.68
37.74
39.74
41.91
44.23
46.41
47.88
48.01
46.36
42.87
37.96
32.32
26.64
21.33
16.44
11.72
6.95
2.07
-2.72
-7.12
-10.91
-14.11
-16.96
-19.75
-22.64
-25.56
-28.26
-30.42
-31.88
-32.66
-33.04
-33.45
-34.38
-36.26
-39.29
-43.27
-47.51
-50.84
-51.93
-49.71
-43.74
-34.47
-23.1
-11.25
-0.51
7.92
13.41
15.86
15.61
13.18
9.22
4.39
-0.67
-5.4
-9.3
-12.01
-13.29
-13.16
-11.85
-9.74
-7.29
-4.86
-2.63
-0.67
1
2.29
2.99
2.86
1.71
-0.46
-3.41
-6.67
-9.66
-11.9
-13.13
-13.52
-13.65
-14.34
-16.4
-20.26
-25.7
-31.71
-36.74
-39.12
-37.56
-31.56
-21.51
-8.58
5.64
19.5
31.61
41.03
47.35
50.59
51.09
49.29
45.62
40.45
34.16
27.23
20.24
13.78
8.32
4.08
1.04
-0.98
-2.26
-3.11
-3.87
-4.9
-6.51
-8.87
-11.93
-15.46
-19.12
-22.61
-25.83
-28.9
-32.11
-35.91
-40.7
-46.74
-53.91
-61.47
-68.13
-72.27
-72.4
-67.73
-58.5
-45.93
-31.85
-18.11
-6.08
3.62
11.04
16.63
20.92
24.23
26.63
27.96
28.07
26.91
24.66
21.71
18.59
15.81
13.74
12.51
11.98
11.79
11.48
10.56
8.72
5.84
2.03
-2.41
-7.15
-11.9
-16.55
-21.13
-25.91
-31.28
-37.63
-45.14
-53.52
-61.85
-68.7
-72.41
-71.68
-65.99
-55.78
-42.35
-27.38
-12.53
1.01
12.67
22.37
30.32
36.76
41.75
45.26
47.17
47.58
46.84
45.58
44.52
44.19
44.79
46.1
47.66
49
49.83
50.15
50.08
49.74
49.03
47.61
44.97
40.65
34.5
26.73
17.9
8.77
0.03
-7.9
-14.92
-21.3
-27.53
-34.21
-41.89
-50.85
-60.84
-70.91
-79.42
-84.4
-84.07
-77.52
-65.11
-48.51
-30.23
-12.93
1.34
11.55
17.8
20.95
22.09
22.19
21.82
21.28
20.7
20.3
20.32
21.02
22.45
24.45
26.71
28.92
30.9
32.58
33.87
34.55
34.23
32.48
29.01
23.89
17.53
10.54
3.59
-2.77
-8.1
-12.09
-14.6
-15.7
-15.71
-15.2
-14.85
-15.18
-16.41
-18.42
-20.87
-23.38
-25.8
-28.23
-31.07
-34.83
-40.01
-46.83
-55.09
-63.94
-71.98
-77.45
-78.73
-74.83
-65.82
-52.84
-37.79
-22.69
-9.14
2.07
10.89
17.77
23.28
27.84
31.66
34.76
37.17
38.93
40.16
41.03
41.77
42.62
43.81
45.44
47.38
49.23
50.46
50.64
49.67
47.79
45.45
43.08
40.79
38.42
35.63
32.24
28.36
24.41
20.89
18.11
16.01
14.18
12.09
9.33
5.88
2.05
-1.64
-4.69
-6.87
-8.26
-9.19
-10.09
-11.31
-13.13
-15.71
-19.14
-23.35
-27.95
-32.08
-34.54
-34.02
-29.63
-21.29
-9.74
3.61
17.21
29.84
40.8
49.85
56.95
62.07
65.14
66.19
65.57
63.93
62.09
60.75
60.27
60.55
61.18
61.7
61.74
61.2
60.05
58.33
56.07
53.31
50.15
46.75
43.29
39.81
36.23
32.32
27.92
23.05
17.9
12.75
7.87
3.26
-1.29
-6.23
-11.94
-18.71
-26.49
-35.01
-43.75
-52.17
-59.83
-66.58
-72.56
-78.19
-84.04
-90.45
-97.34
-103.94
-108.92
-110.64
-107.71
-99.54
-86.62
-70.44
-53.01
-36.21
-21.35
-8.93
1.16
9.41
16.44
22.7
28.49
33.89
38.81
43.04
46.34
48.54
49.54
49.43
48.43
46.89
45.2
43.75
42.86
42.63
42.88
43.21
43.13
42.21
40.28
37.4
33.8
29.69
25.23
20.5
15.54
10.43
5.22
-0.06
-5.4
-10.82
-16.31
-21.79
-27.15
-32.32
-37.39
-42.65
-48.52
-55.42
-63.46
-72.24
-80.74
-87.54
-91.14
-90.53
-85.5
-76.74
-65.62
-53.73
-42.45
-32.69
-24.83
-18.9
-14.71
-11.88
-10.03
-8.65
-7.3
-5.64
-3.52
-0.99
1.8
4.66
7.46
10.16
12.75
15.23
17.63
19.94
22.11
24.02
25.44
26.09
25.72
24.24
21.79
18.68
15.34
12.09
9.04
6.06
2.91
-0.58
-4.39
-8.33
-12.11
-15.58
-18.78
-21.96
-25.49
-29.69
-34.76
-40.68
-47.17
-53.6
-59.01
-62.23
-62.09
-57.83
-49.34
-37.36
-23.33
-8.97
4.19
15.15
23.59
29.78
34.27
37.6
40.15
42.12
43.7
45.09
46.63
48.54
50.87
53.36
55.59
57.14
57.81
57.67
56.99
55.99
54.72
53.11
51.11
48.78
46.33
43.97
41.71
39.32
36.46
32.84
28.44
23.52
18.57
14.04
10.21
7.07
4.32
1.4
-2.27
-7.23
-13.72
-21.5
-29.72
-37.05
-41.97
-43.24
-40.35
-33.67
-24.43
-14.24
-4.59
3.53
9.84
14.59
18.25
21.17
23.52
25.35
26.64
27.47
27.97
28.25
28.38
28.37
28.16
27.75
27.15
26.32
25.19
23.65
21.62
19.17
16.44
13.59
10.74
7.85
4.77
1.35
-2.51
-6.82
-11.47
-16.28
-21.1
-25.8
-30.37
-34.88
-39.49
-44.39
-49.84
-55.93
-62.56
-69.2
-74.85
-78.26
-78.18
-73.82
-65.19
-53.11
-39.01
-24.48
-10.89
0.89
10.55
18.12
23.75
27.57
29.65
30.06
29.04
27.09
24.97
23.53
23.5
25.12
28.11
31.67
34.75
36.33
35.75
32.78
27.56
20.53
12.32
3.54
-5.25
-13.69
-21.61
-29.01
-36.02
-42.67
-48.96
-54.76
-59.98
-64.62
-68.8
-72.77
-76.78
-80.96
-85.19
-89.03
-91.72
-92.32
-89.98
-84.18
-74.96
-62.94
-49.14
-34.72
-20.75
-8.04
2.86
11.59
17.99
22.08
24.11
24.55
24.06
23.29
22.79
22.92
23.75
25.15
26.78
28.26
29.28
29.72
29.65
29.28
28.83
28.24
27.24
25.34
22.07
17.21
10.96
3.84
-3.5
-10.49
-16.9
-22.82
-28.64
-34.88
-42.09
-50.58
-60.26
-70.48
-79.99
-87.2
-90.53
-89.04
-82.68
-72.34
-59.5
-45.59
-31.59
-17.84
-4.27
9.26
22.68
35.59
47.47
57.77
66.08
72.14
75.88
77.45
77.26
75.95
74.13
72.2
70.24
68.01
65.27
62.08
58.8
55.9
53.56
51.42
48.65
44.48
38.69
31.91
25.37
20.13
16.5
13.74
10.34
4.61
-4.58
-17.38
-32.86
-49.08
-63.4
-72.84
-74.84
-68.2
-53.84
-34.92
-16.06
-1.64
5.79
6.27
2.04
-3.96
-9.59
-14.29
-18.65
-23.41
-28.43
-32.43
-33.53
-30.29
-22.47
-11.15
1.72
14.15
24.7
32.82
38.61
42.45
44.59
45.03
43.51
39.95
34.6
28.25
21.92
16.5
12.27
8.75
4.88
-0.47
-7.78
-16.44
-24.84
-30.83
-32.57
-29.27
-21.46
-10.75
0.79
11.39
19.96
26.24
30.38
32.63
33.01
31.36
27.48
21.48
13.81
5.34
-2.96
-10.22
-15.94
-19.99
-22.58
-24.05
-24.79
-25.07
-25.06
-24.92
-24.79
-24.75
-24.78
-24.57
-23.6
-21.35
-17.49
-12.29
-6.67
-1.98
0.51
0.31
-1.86
-4.15
-4.18
-0.04
8.86
21.52
35.85
49.54
61.01
69.74
75.95
79.96
81.74
80.95
77.48
71.88
65.38
59.28
54.24
49.97
45.6
40.52
35.04
30.41
28.07
28.7
31.7
35.36
37.83
37.93
35.59
31.46
26.26
20.22
12.99
4.1
-6.61
-18.71
-31.31
-43.29
-53.65
-61.51
-66.15
-66.97
-63.74
-56.76
-47.05
-36.24
-26.19
-18.46
-13.98
-12.88
-14.71
-18.66
-23.84
-29.41
-34.64
-38.87
-41.7
-42.99
-42.99
-42.19
-41.15
-40.21
-39.38
-38.37
-36.88
-34.88
-32.7
-30.93
-30.17
-30.75
-32.62
-35.53
-39.21
-43.4
-47.82
-52.09
-55.87
-58.97
-61.48
-63.58
-65.21
-65.67
-63.72
-58.04
-48.01
-34.28
-18.72
-3.74
8.62
17.44
23.09
26.75
29.71
32.81
36.23
39.71
42.79
45.25
47.23
49.2
51.72
55.11
59.19
63.24
66.16
66.92
64.93
60.2
53.27
44.87
35.61
25.84
15.72
5.4
-4.8
-14.5
-23.44
-31.7
-39.65
-47.71
-55.92
-63.64
-69.58
-72.24
-70.48
-64.02
-53.6
-40.73
-27.1
-14.05
-2.25
8.27
17.8
26.53
34.35
40.97
46.19
50.15
53.35
56.39
59.58
62.73
65.27
66.58
66.41
65
62.85
60.27
57.07
52.51
45.72
36.21
24.25
10.84
-2.68
-15.14
-25.83
-34.68
-42.03
-48.41
-54.41
-60.61
-67.55
-75.57
-84.52
-93.55
-101.12
-105.29
-104.41
-97.76
-85.88
-70.45
-53.7
-37.71
-23.75
-12.04
-2
7.3
16.6
26.16
35.67
44.51
52.06
57.94
62.04
64.48
65.4
64.75
62.33
57.86
51.19
42.55
32.63
22.49
13.26
5.77
0.29
-3.53
-6.48
-9.4
-12.78
-16.65
-20.57
-23.9
-26.15
-27.29
-27.87
-28.81
-31.16
-35.62
-42.19
-50.08
-57.79
-63.53
-65.66
-63.07
-55.43
-43.17
-27.37
-9.46
9.01
26.64
42.34
55.32
65.07
71.31
73.93
73.1
69.38
63.67
57.15
51
46.04
42.63
40.62
39.55
38.87
38.13
37.11
35.82
34.5
33.45
33.01
33.26
33.97
34.51
34.08
31.98
27.94
22.26
15.73
9.27
3.54
-1.34
-5.84
-10.8
-17.19
-25.66
-36.33
-48.6
-61.19
-72.4
-80.43
-83.88
-82.12
-75.41
-64.82
-51.89
-38.27
-25.28
-13.8
-4.13
3.89
10.73
16.95
22.99
29.04
35.05
40.88
46.45
51.87
57.35
63
68.72
74.16
79
83.19
87.03
91.05
95.65
100.75
105.68
109.36
110.74
109.13
104.44
97.04
87.45
76.04
62.97
48.3
32.24
15.34
-1.62
-17.88
-33.01
-47.09
-60.45
-73.25
-85.04
-94.63
-100.44
-101.06
-95.89
-85.5
-71.45
-55.83
-40.61
-27.19
-16.3
-8.11
-2.48
0.91
2.43
2.58
1.89
0.99
0.4
0.56
1.67
3.73
6.47
9.39
11.85
13.26
13.27
11.97
9.91
7.87
6.5
5.98
5.97
5.7
4.43
1.83
-1.84
-5.84
-9.3
-11.66
-12.87
-13.33
-13.59
-14.1
-15.11
-16.83
-19.51
-23.43
-28.66
-34.71
-40.3
-43.64
-43.02
-37.51
-27.41
-14.24
-0.13
12.85
23.38
31.12
36.59
40.72
44.37
47.95
51.3
53.84
54.95
54.29
52.11
49.12
46.25
44.15
42.96
42.29
41.45
39.93
37.66
34.97
32.32
29.89
27.39
24.07
19.16
12.31
3.83
-5.41
-14.31
-22.05
-28.35
-33.47
-37.99
-42.6
-47.82
-53.98
-61.09
-68.74
-76.01
-81.52
-83.71
-81.29
-73.75
-61.61
-46.24
-29.48
-13.05
1.69
13.75
22.37
26.93
27.13
23.35
16.8
9.27
2.43
-2.86
-6.83
-10.43
-14.47
-18.9
-22.63
-24.11
-22.21
-16.91
-9.34
-1.22
5.86
10.91
13.57
13.75
11.4
6.5
-0.72
-9.63
-19.14
-28.02
-35.35
-40.79
-44.73
-47.99
-51.37
-55.17
-58.82
-60.98
-59.88
-54.1
-43.11
-27.74
-9.97
7.63
22.83
34.36
42.22
47.44
51.4
55.16
59.1
62.93
66.17
68.55
70.25
71.82
73.83
76.57
79.95
83.59
87.17
90.51
93.64
96.57
99.06
100.6
100.45
97.82
92
82.41
68.75
51.09
29.98
6.54
-17.69
-41.14
-62.49
-80.82
-95.6
-106.38
-112.66
-113.96
-110.08
-101.43
-89.1
-74.66
-59.64
-45.08
-31.32
-18.21
-5.5
6.77
18.06
27.61
34.72
39.21
41.52
42.71
44.12
47.2
53.08
62.25
74.23
87.22
98.32
103.92
100.76
86.99
62.95
31.32
-3.55
-36.94
-65.03
-85.79
-99.22
-106.85
-111
-113.96
-117.34
-121.77
-126.82
-131.16
-133.13
-131.18
-124.51
-113.26
-98.54
-82.13
-66.02
-51.87
-40.77
-33.1
-28.51
-26.17
-25.04
-24.19
-23.08
-21.71
-20.48
-19.92
-20.33
-21.66
-23.62
-25.81
-28.02
-30.2
-32.38
-34.56
-36.64
-38.54
-40.3
-42.04
-43.76
-45.2
-45.63
-44.16
-40.21
-33.91
-26.37
-19.35
-14.72
-13.78
-16.81
-22.9
-30.3
-36.88
-40.64
-40.26
-35.29
-26.24
-14.3
-0.92
12.67
25.8
38.37
50.59
62.61
74.04
83.97
91.18
94.74
94.59
91.8
88.32
86.2
86.71
89.67
93.64
96.53
96.66
93.63
88.34
82.54
78.03
76.12
77.43
81.74
87.68
92.44
92.08
82.8
62.83
34.04
2.01
-25.95
-43.93
-50.18
-47.82
-43.08
-42.02
-47.53
-58.36
-70.42
-79.34
-82.66
-80.48
-74.53
-66.55
-57.21
-46.07
-32.54
-16.98
-1.15
12.42
21.6
25.79
26.22
25.19
24.87
26.29
29.07
31.97
33.81
34.18
33.64
33.33
34.36
37.27
41.85
47.23
52.19
55.55
56.52
54.87
51.04
45.97
40.77
36.27
32.75
29.82
26.78
23.01
18.28
12.85
7.16
1.47
-4.46
-11.43
-20.47
-32.27
-46.71
-62.6
-77.9
-90.28
-97.89
-99.86
-96.61
-89.53
-80.51
-71.41
-63.58
-57.85
-54.51
-53.61
-54.97
-58.24
-62.84
-67.91
-72.37
-75.14
-75.47
-73.16
-68.65
-62.73
-56.04
-48.74
-40.49
-30.86
-19.92
-8.59
1.67
9.36
13.79
15.27
14.76
13.23
10.99
7.69
2.74
-4.03
-11.99
-19.88
-26.37
-30.74
-33.11
-34.34
-35.51
-37.53
-40.82
-45.33
-50.62
-55.9
-60.18
-62.35
-61.39
-56.62
-48.08
-36.54
-23.41
-10.34
1.29
10.65
17.65
22.68
26.32
29.1
31.37
33.31
35.01
36.55
38
39.4
40.71
41.89
42.92
43.83
44.59
45.09
45.02
44.02
41.77
38.15
33.34
27.78
22.08
16.81
12.36
8.74
5.6
2.36
-1.45
-5.96
-10.81
-15.43
-19.39
-22.85
-26.59
-31.74
-39.15
-48.92
-60.12
-71.12
-80.08
-85.55
-86.81
-83.85
-77.16
-67.37
-55.19
-41.41
-26.95
-12.87
-0.15
10.7
19.86
28.2
36.86
46.68
57.68
69.01
79.39
87.69
93.5
97.15
99.4
100.9
101.93
102.43
102.25
101.47
100.33
99.13
97.91
96.52
94.73
92.52
90.1
87.65
84.86
80.8
74.27
64.45
51.46
36.42
20.98
6.56
-6.16
-17.2
-26.85
-35.1
-41.61
-45.92
-48.01
-48.55
-48.71
-49.56
-51.54
-54.23
-56.69
-57.97
-57.65
-56.06
-54.09
-52.78
-52.9
-54.58
-57.29
-59.98
-61.48
-60.85
-57.73
-52.38
-45.67
-38.73
-32.66
-28.18
-25.42
-23.84
-22.13
-18.29
-10
4.81
27.12
56.13
89.22
122.57
152.44
176.54
194.8
209.18
222.43
236.79
252.95
269.86
285.39
297.15
303.2
302.24
293.66
277.57
254.87
227.26
197.04
166.63
137.91
111.79
88.25
66.62
46.2
26.58
7.73
-10.21
-27.04
-42.67
-57.02
-70.04
-81.66
-91.98
-101.31
-110.13
-118.88
-127.71
-136.44
-144.66
-152.11
-158.93
-165.64
-172.91
-181.02
-189.61
-197.65
-203.76
-206.64
-205.33
-199.41
-188.91
-174.35
-156.67
-137.25
-117.76
-99.82
-84.57
-72.45
-63.1
-55.71
-49.45
-43.74
-38.46
-33.76
-29.86
-26.82
-24.48
-22.53
-20.68
-18.81
-16.95
-15.28
-13.93
-12.95
-12.24
-11.68
-11.2
-10.91
-11.04
-11.85
-13.45
-15.7
-18.24
-20.66
-22.69
-24.4
-26.14
-28.44
-31.8
-36.53
-42.61
-49.72
-57.12
-63.74
-68.24
-69.24
-65.73
-57.34
-44.63
-28.88
-11.79
5.01
20.32
33.49
44.37
53.12
60.11
65.83
70.81
75.54
80.34
85.26
90.12
94.68
98.73
102.22
105.26
107.91
110.1
111.53
111.79
110.32
106.62
100.14
90.39
77.02
60.08
40.31
19.25
-0.93
-17.97
-30.25
-37.32
-40.07
-40.46
-40.79
-42.99
-48.18
-56.56
-67.64
-80.49
-93.86
-106.1
-115.25
-119.32
-116.99
-108.28
-94.87
-79.73
-66.06
-55.99
-49.77
-45.76
-41.3
-33.95
-22.58
-7.77
8.6
24.12
36.73
45.24
49.54
50.43
49.27
47.6
46.65
47.16
49.19
52.28
55.75
58.88
61.22
62.52
62.7
61.72
59.46
55.74
50.35
43.22
34.6
25.11
15.75
7.58
1.43
-2.44
-4.4
-5.32
-6.15
-7.64
-10.2
-13.92
-18.72
-24.29
-30.02
-34.86
-37.47
-36.57
-31.56
-22.78
-11.69
-0.31
9.4
16.1
19.42
19.8
18.11
15.31
12.11
8.99
6.19
3.77
1.79
0.29
-0.58
-0.61
0.45
2.74
6.13
10.15
14.01
16.82
17.82
16.75
13.92
10.15
6.47
3.68
2.05
1.18
0.17
-2.04
-6.33
-13.01
-21.8
-31.86
-42.07
-51.36
-58.95
-64.56
-68.49
-71.41
-74.12
-77.16
-80.48
-83.36
-84.49
-82.42
-76.04
-65.05
-50.2
-33.19
-16.19
-1.32
10.12
17.84
22.56
25.57
28.07
30.69
33.38
35.69
37.18
37.83
38.06
38.42
39.19
40.16
40.75
40.34
38.61
35.73
32.2
28.6
25.33
22.52
19.99
17.41
14.39
10.56
5.73
0.03
-6.09
-11.92
-16.69
-19.87
-21.35
-21.48
-20.98
-20.77
-21.8
-24.8
-30.09
-37.29
-45.21
-51.98
-55.54
-54.26
-47.54
-36.13
-21.86
-7.04
6.22
16.6
23.7
27.84
29.64
29.65
28.21
25.53
21.87
17.7
13.65
10.4
8.43
7.9
8.58
10
11.6
12.84
13.38
13.04
11.8
9.79
7.23
4.37
1.46
-1.31
-3.87
-6.16
-8.2
-10.03
-11.79
-13.64
-15.77
-18.34
-21.38
-24.9
-28.83
-33.16
-37.95
-43.13
-48.33
-52.71
-55.06
-54.13
-49.12
-40.03
-27.78
-13.93
-0.22
11.89
21.53
28.36
32.44
34.07
33.67
31.87
29.47
27.43
26.55
27.21
29.17
31.67
33.74
34.62
34.13
32.68
30.98
29.7
29.14
29.05
28.82
27.74
25.33
21.49
16.57
11.2
6.05
1.64
-1.88
-4.74
-7.48
-10.77
-15.2
-21.14
-28.61
-37.27
-46.32
-54.53
-60.48
-62.84
-60.74
-54.09
-43.74
-31.23
-18.4
-6.82
2.52
9.42
14.25
17.68
20.32
22.6
24.74
26.87
29.16
31.82
35.04
38.87
43.1
47.29
50.91
53.56
55.05
55.45
54.96
53.76
51.93
49.37
46.01
41.76
36.71
31.05
24.98
18.62
12.05
5.31
-1.43
-7.84
-13.39
-17.39
-19.24
-18.47
-15.05
-9.46
-2.76
3.61
8.27
10.34
9.73
7.16
3.75
0.5
-2.1
-4.11
-5.93
-7.77
-9.43
-10.27
-9.53
-6.74
-1.95
4.16
10.48
15.79
19.12
19.92
18.27
14.72
10.13
5.32
0.83
-3.21
-7.03
-11.13
-16.06
-22.23
-29.69
-37.98
-46.02
-52.17
-54.6
-51.8
-43.06
-28.91
-10.98
8.4
26.76
42.09
53.12
59.37
61.06
58.93
54.06
47.79
41.44
36
31.99
29.3
27.46
25.86
24.15
22.34
20.71
19.57
18.94
18.48
17.55
15.6
12.36
8.02
3.13
-1.74
-6.26
-10.53
-14.96
-20.09
-26.31
-33.73
-42.16
-51.12
-59.85
-67.35
-72.43
-73.99
-71.31
-64.45
-54.3
-42.43
-30.59
-20.21
-11.99
-6.03
-2.07
0.06
0.23
-1.92
-6.58
-13.4
-21.43
-29.25
-35.49
-39.31
-40.64
-40.03
-38.41
-36.57
-34.98
-33.75
-32.71
-31.77
-30.94
-30.47
-30.63
-31.57
-33.21
-35.26
-37.27
-38.93
-40.17
-41.24
-42.62
-44.8
-48.13
-52.7
-58.21
-64.05
-69.26
-72.67
-73.16
-70.01
-63.17
-53.34
-41.88
-30.38
-20.25
-12.48
-7.53
-5.43
-5.97
-8.77
-13.36
-19.17
-25.51
-31.7
-37.08
-41.07
-43.25
-43.47
-41.86
-38.85
-34.91
-30.36
-25.13
-18.78
-10.83
-1.1
9.95
21.34
31.82
40.3
46.16
49.35
50.17
49.07
46.48
42.82
38.53
34.08
29.94
26.38
23.44
20.86
18.21
15.02
11
6.19
1.08
-3.43
-6.28
-6.6
-4.01
1.21
8.2
15.83
23.09
29.35
34.41
38.36
41.28
43.17
43.92
43.57
42.5
41.4
41.06
41.93
43.87
46.1
47.53
47.26
45.01
41.17
36.52
31.84
27.46
23.35
19.25
15.04
10.86
6.91
3.23
-0.51
-4.95
-10.66
-17.83
-26.03
-34.4
-41.98
-48.12
-52.69
-56.09
-59
-62.25
-66.57
-72.48
-80.05
-88.63
-96.77
-102.37
-103.3
-98.03
-86.29
-69.15
-48.68
-27.28
-7.04
10.68
25.25
36.63
45.1
51.12
55.21
57.93
59.75
60.97
61.74
62.06
61.99
61.64
61.37
61.6
62.76
65.1
68.55
72.7
76.89
80.38
82.57
83.14
82.14
79.94
77.13
74.28
71.77
69.63
67.55
65.05
61.72
57.49
52.65
47.63
42.78
38.03
32.94
26.87
19.24
9.84
-1.13
-12.98
-24.66
-34.87
-42.27
-45.73
-44.65
-39.18
-30.25
-19.36
-8.12
2.03
10.15
15.76
18.81
19.52
18.29
15.71
12.46
9.28
6.74
5.19
4.77
5.34
6.76
8.89
11.62
14.78
18.14
21.41
24.33
26.86
29.17
31.51
34.09
36.89
39.64
41.99
43.66
44.5
44.58
44.02
42.93
41.44
39.74
38.15
36.98
36.36
35.92
34.8
31.77
25.67
16.05
3.58
-9.82
-21.47
-28.6
-29.31
-23.05
-10.69
5.91
24.52
43.01
59.55
72.62
80.95
83.6
80.36
71.97
60.22
47.51
36.11
27.52
22.03
18.95
17.18
15.88
14.8
14.2
14.42
15.4
16.61
17.32
17.06
16.02
14.9
14.44
14.93
16.05
17.25
18.23
19.22
20.87
23.69
27.64
31.96
35.62
37.71
37.78
35.81
31.76
25.52
17
6.46
-5.06
-15.92
-24.35
-29.16
-30.2
-28.3
-24.82
-20.99
-17.46
-14.3
-11.27
-8.27
-5.66
-4.22
-4.81
-7.93
-13.45
-20.62
-28.24
-35.16
-40.46
-43.65
-44.72
-44.1
-42.59
-41.14
-40.65
-41.63
-44.15
-47.93
-52.66
-58.33
-65.37
-74.46
-86.15
-100.39
-116.44
-133
-148.76
-162.99
-175.92
-188.81
-203.53
-221.67
-243.75
-268.52
-293.04
-313.34
-325.71
-327.74
-319
-300.91
-276.11
-247.6
-217.95
-188.82
-160.64
-132.57
-102.56
-67.87
-26.23
22.79
76.69
130.15
176.47
209.8
227.19
229.26
219.36
201.79
180.11
156.64
132.89
110.42
91.15
76.99
68.79
65.62
64.92
63.37
58.22
48.22
33.89
17.11
0.36
-14.02
-24.24
-29.18
-28.26
-21.33
-8.62
9
30
52.17
73.16
91.09
105.07
115.18
121.97
125.92
127.11
125.62
122.02
117.72
114.79
115.13
119.75
128.31
139.46
151.35
162.23
170.76
176.09
177.72
175.19
167.82
154.46
133.38
102.92
62.5
13.73
-39.2
-90.24
-133.26
-163.99
-181.16
-186.28
-182.17
-171.38
-155.1
-133.29
-105.55
-72.2
-34.85
3.73
40.19
71.48
95.58
111.73
120.48
123.52
123.35
122.89
125.12
132.27
145.21
162.94
182.69
200.78
213.85
219.99
219.22
213.07
203.55
192.12
179.23
164.47
147.33
127.73
106.22
83.81
61.61
40.58
21.51
5.04
-8.35
-18.42
-25.4
-30.05
-33.68
-37.9
-44.21
-53.65
-66.33
-81.45
-97.3
-111.8
-123.15
-130.34
-133.47
-133.52
-131.92
-129.91
-128.22
-126.96
-125.83
-124.41
-122.42
-119.68
-116.2
-112.05
-107.34
-102.25
-97.02
-91.81
-86.71
-81.67
-76.63
-71.51
-66.37
-61.3
-56.37
-51.56
-46.72
-41.64
-36.12
-30.13
-23.82
-17.46
-11.4
-5.91
-1.21
2.59
5.4
7.17
7.85
7.46
6.06
3.82
0.98
-2.18
-5.35
-8.33
-11
-13.48
-16.04
-19.02
-22.73
-27.19
-32.22
-37.38
-42.23
-46.46
-50.05
-53.23
-56.34
-59.68
-63.46
-67.71
-72.34
-77.13
-81.57
-84.81
-85.76
-83.36
-76.98
-66.8
-53.88
-39.84
-26.38
-14.76
-5.46
1.68
7.2
11.57
15.03
17.55
19.04
19.56
19.37
18.92
18.63
18.73
19.19
19.82
20.36
20.59
20.41
19.76
18.59
16.91
14.7
12.05
9.06
5.79
2.21
-1.77
-6.22
-11.08
-16.11
-20.9
-25.11
-28.54
-31.28
-33.73
-36.41
-39.89
-44.65
-50.94
-58.6
-66.88
-74.41
-79.38
-80.01
-75.18
-64.88
-50.3
-33.5
-16.73
-1.77
10.46
19.9
27
32.36
36.35
39.16
40.78
41.31
40.96
40.09
38.96
37.75
36.38
34.67
32.43
29.62
26.36
22.97
19.77
16.99
14.63
12.36
9.65
5.95
0.9
-5.54
-13
-20.86
-28.47
-35.38
-41.49
-47.1
-52.84
-59.51
-67.88
-78.4
-90.99
-104.9
-118.79
-131.15
-140.8
-147.23
-150.73
-152.16
-152.45
-152.3
-151.8
-150.33
-146.6
-139.03
-126.16
-107.39
-83.33
-55.91
-27.85
-1.79
20.57
38.92
54.11
67.45
80.06
92.38
104.26
115.33
125.2
133.68
140.64
145.9
149.19
150.28
149.2
146.43
142.84
139.48
137.15
136.12
135.94
135.64
134.12
130.59
124.88
117.41
109
100.51
92.56
85.37
78.79
72.4
65.81
58.72
51.06
42.94
34.6
26.31
18.33
10.87
4.09
-1.92
-7.14
-11.68
-15.78
-19.85
-24.4
-29.91
-36.6
-44.16
-51.56
-57.12
-58.91
-55.4
-46.03
-31.54
-13.78
4.92
22.46
37.51
49.56
58.72
65.28
69.48
71.44
71.28
69.28
65.86
61.53
56.66
51.46
46.02
40.38
34.68
29.14
23.98
19.26
14.93
10.81
6.74
2.73
-1.09
-4.55
-7.6
-10.3
-12.8
-15.18
-17.37
-19.15
-20.32
-20.87
-21.13
-21.63
-22.92
-25.36
-28.96
-33.43
-38.32
-43.21
-47.84
-52.14
-56.25
-60.44
-65.02
-70.29
-76.33
-82.86
-89.08
-93.77
-95.54
-93.22
-86.3
-75.13
-60.94
-45.41
-30.26
-16.77
-5.61
3.17
9.87
14.93
18.71
21.48
23.43
24.76
25.63
26.23
26.64
26.91
26.97
26.76
26.22
25.41
24.43
23.5
22.75
22.23
21.8
21.17
20.02
18.08
15.27
11.76
7.9
4.1
0.7
-2.24
-4.85
-7.47
-10.41
-13.78
-17.4
-20.83
-23.62
-25.53
-26.68
-27.48
-28.53
-30.39
-33.38
-37.48
-42.28
-46.98
-50.46
-51.54
-49.26
-43.21
-33.73
-21.85
-8.99
3.4
14.21
22.8
29.04
33.16
35.57
36.76
37.12
36.95
36.38
35.42
34.07
32.32
30.25
28
25.8
23.82
22.26
21.19
20.57
20.19
19.77
19
17.72
15.94
13.8
11.52
9.31
7.25
5.33
3.46
1.43
-0.94
-3.83
-7.33
-11.34
-15.6
-19.8
-23.71
-27.35
-30.97
-34.91
-39.31
-43.99
-48.28
-51.21
-51.85
-49.51
-44.08
-35.97
-26.08
-15.46
-5.15
4.07
11.72
17.64
21.92
24.75
26.33
26.85
26.46
25.37
23.84
22.2
20.74
19.62
18.84
18.25
17.66
16.94
16.1
15.2
14.31
13.38
12.2
10.47
7.92
4.47
0.21
-4.55
-9.42
-13.98
-17.88
-20.89
-22.92
-24.11
-24.81
-25.61
-27.13
-29.82
-33.67
-38.09
-41.93
-43.83
-42.66
-37.89
-29.88
-19.69
-8.73
1.66
10.59
17.68
22.95
26.63
28.88
29.79
29.4
27.83
25.41
22.6
19.94
17.85
16.5
15.75
15.22
14.47
13.12
11.06
8.39
5.38
2.37
-0.35
-2.62
-4.5
-6.28
-8.46
-11.66
-16.36
-22.71
-30.39
-38.71
-46.9
-54.49
-61.59
-68.82
-76.97
-86.59
-97.57
-109.02
-119.58
-127.95
-133.43
-136.32
-137.71
-139.08
-141.66
-145.96
-151.71
-158.21
-164.7
-170.83
-176.73
-182.86
-189.83
-198.19
-208.39
-220.75
-235.12
-250.58
-265.17
-275.96
-279.73
-273.88
-257.27
-230.56
-195.87
-156.02
-113.56
-70.17
-26.63
16.67
58.77
97.59
130.01
152.98
165.09
167.6
164.21
159.54
156.93
156.94
157.38
154.98
147.55
135.45
121.49
109.48
102.4
101.23
105.09
112.22
121.08
130.91
141.6
153.32
166.01
179.21
192.07
203.38
211.73
215.77
214.68
208.76
199.77
190.61
184.48
183.65
188.5
197.35
207.2
214.95
218.54
217.24
211.06
199.83
182.64
158.04
125.23
85.19
41.15
-2.16
-40.12
-70
-91.88
-108.35
-123.03
-138.94
-157.22
-177.06
-196.38
-212.91
-225.09
-232.38
-235.01
-233.55
-228.52
-220.31
-209.14
-195.21
-178.67
-159.62
-138.09
-114.16
-88.19
-60.95
-33.41
-6.43
19.66
45.19
70.78
96.77
122.63
146.92
167.67
183.19
192.48
195.48
192.47
183.77
169.55
150.16
126.65
101.13
76.36
54.98
38.52
26.91
18.65
11.58
3.81
-5.65
-16.8
-29.02
-41.59
-53.97
-65.67
-76.03
-83.93
-88.14
-87.73
-82.64
-73.79
-62.78
-51.25
-40.39
-30.8
-22.78
-16.64
-12.78
-11.41
-12.09
-13.51
-13.85
-11.55
-5.98
2.24
11.6
20.49
27.88
33.57
37.86
41.12
43.38
44.32
43.57
41.11
37.31
32.89
28.57
24.72
21.3
17.93
14.27
10.35
6.83
4.82
5.44
9.22
15.81
23.97
32.12
38.86
43.38
45.42
44.93
41.82
35.93
27.3
16.6
5.21
-5.06
-12.54
-16.23
-16.08
-12.82
-7.63
-1.79
3.58
7.63
9.95
10.61
10.13
9.28
8.66
8.36
7.71
5.56
0.74
-7.14
-17.35
-28.05
-36.86
-41.71
-41.47
-36.24
-27.1
-15.64
-3.39
8.48
19.15
28.06
34.75
38.84
40.18
39.06
36.3
33.13
30.83
30.27
31.58
34.01
36.24
36.99
35.56
32.1
27.52
22.99
19.41
16.96
15.14
12.98
9.47
3.91
-4.01
-14.08
-25.62
-37.5
-48.22
-56.08
-59.63
-58.01
-51.25
-40.33
-26.85
-12.63
0.8
12.41
21.78
28.87
33.92
37.2
39.04
39.7
39.41
38.27
36.29
33.45
29.82
25.6
21.17
16.94
13.27
10.37
8.16
6.45
4.86
2.91
0.13
-3.97
-9.78
-17.53
-27.11
-37.97
-48.96
-58.35
-64.23
-64.91
-59.6
-48.76
-34.02
-17.65
-1.8
12.14
23.64
32.79
39.78
44.57
46.91
46.67
44.15
40.18
35.96
32.58
30.58
29.83
29.62
29.11
27.69
25.34
22.63
20.39
19.32
19.57
20.62
21.42
20.83
17.98
12.55
4.88
-4.12
-13.02
-20.13
-23.75
-22.62
-16.31
-5.44
8.41
23.25
37.18
48.84
57.5
62.88
64.92
63.67
59.34
52.44
43.83
34.55
25.65
17.91
11.75
7.23
4.11
2.03
0.62
-0.33
-0.81
-0.71
0.12
1.53
3.04
3.86
3.15
0.35
-4.61
-11.28
-18.79
-26.03
-31.95
-35.72
-36.85
-35.17
-30.85
-24.29
-16.05
-6.74
3
12.55
21.32
28.72
34.22
37.35
37.9
36.05
32.41
27.97
23.76
20.61
18.78
17.98
17.5
16.48
14.28
10.67
5.84
0.31
-5.24
-10.24
-14.32
-17.5
-20.15
-22.88
-26.4
-31.23
-37.51
-44.82
-52.17
-58.08
-60.93
-59.38
-52.79
-41.55
-27
-11.12
4.05
16.9
26.6
33.05
36.63
37.88
37.29
35.29
32.33
29.03
26.14
24.39
24.24
25.65
28.12
30.7
32.38
32.32
30.09
25.76
19.86
13.27
6.93
1.66
-2.12
-4.48
-6.04
-7.72
-10.54
-15.26
-22.09
-30.56
-39.46
-47.06
-51.47
-51.16
-45.39
-34.54
-19.99
-3.77
12.03
25.82
36.77
44.79
50.21
53.45
54.74
54.15
51.65
47.25
41.12
33.57
24.97
15.76
6.47
-2.32
-10.01
-16.18
-20.78
-24.22
-27.24
-30.66
-35.03
-40.46
-46.69
-53.24
-59.76
-65.98
-71.58
-76.07
-78.55
-77.98
-73.46
-64.63
-51.92
-36.42
-19.59
-2.84
12.8
26.82
39.08
49.67
58.66
66.07
71.87
76.13
79.07
81.06
82.56
84.02
85.77
87.9
90.12
91.79
92.01
89.85
84.53
75.54
62.74
46.4
27.24
6.47
-14.37
-33.69
-50.37
-64.17
-75.75
-86.29
-96.66
-106.83
-115.62
-121.19
-121.93
-117.26
-107.93
-95.67
-82.35
-69.28
-56.82
-44.59
-32.01
-18.87
-5.59
6.94
17.73
26.18
32.24
36.29
38.92
40.58
41.46
41.55
40.83
39.36
37.39
35.2
33.05
30.96
28.75
26.1
22.74
18.58
13.84
8.95
4.36
0.34
-3.16
-6.51
-10.27
-14.83
-20.17
-25.6
-29.91
-31.57
-29.3
-22.56
-11.86
1.29
14.83
26.82
36.08
42.5
46.78
50.03
53.17
56.67
60.6
64.85
69.35
74.09
78.98
83.71
87.78
90.56
91.52
90.28
86.57
80.21
71.1
59.52
46.31
32.9
20.85
11.35
4.64
-0.03
-4.03
-8.6
-14.3
-20.8
-27.2
-32.57
-36.42
-38.87
-40.53
-42.2
-44.59
-48.17
-53.09
-59.16
-65.88
-72.45
-77.86
-81.16
-81.61
-78.84
-73
-64.68
-54.86
-44.69
-35.21
-27.16
-20.8
-15.91
-12.01
-8.61
-5.44
-2.53
-0.09
1.65
2.6
2.81
2.49
1.81
0.95
0.08
-0.64
-1.03
-0.92
-0.22
1.04
2.71
4.53
6.24
7.71
8.91
9.89
10.59
10.76
9.89
7.5
3.33
-2.33
-8.66
-14.59
-19.29
-22.52
-24.67
-26.39
-28.08
-29.61
-30.37
-29.7
-27.38
-23.74
-19.4
-14.79
-9.84
-4.04
2.94
10.85
18.63
24.92
28.69
29.83
29.09
27.6
26.22
25.1
23.77
21.61
18.3
14.11
9.73
5.96
3.33
1.9
1.26
0.79
-0.15
-2.04
-5.02
-8.97
-13.59
-18.57
-23.62
-28.6
-33.38
-37.85
-41.93
-45.67
-49.19
-52.7
-56.28
-59.67
-62.35
-63.54
-62.6
-59.23
-53.65
-46.51
-38.66
-30.86
-23.54
-16.83
-10.65
-4.92
0.3
4.8
8.33
10.76
12.16
12.81
13.02
13.04
12.93
12.66
12.2
11.58
10.91
10.31
9.78
9.25
8.58
7.68
6.51
5.13
3.57
1.82
-0.11
-2.27
-4.7
-7.5
-10.74
-14.4
-18.16
-21.36
-23.16
-22.74
-19.73
-14.41
-7.63
-0.52
5.89
10.91
14.27
16
16.29
15.35
13.46
10.91
8.08
5.3
2.81
0.79
-0.68
-1.52
-1.62
-0.88
0.66
2.8
5.11
7.08
8.26
8.37
7.4
5.56
3.22
0.74
-1.58
-3.61
-5.36
-6.97
-8.67
-10.62
-12.89
-15.31
-17.47
-18.74
-18.44
-16.09
-11.57
-5.22
2.18
9.68
16.39
21.69
25.35
27.42
28.15
27.77
26.51
24.53
22.06
19.49
17.24
15.77
15.28
15.6
16.14
15.98
14.35
10.85
5.69
-0.35
-6.26
-11.21
-14.81
-17.2
-18.79
-20.04
-21.23
-22.46
-23.76
-25.26
-27.17
-29.69
-32.8
-36.1
-38.8
-39.92
-38.64
-34.58
-27.99
-19.71
-10.88
-2.6
4.35
9.64
13.35
15.77
17.2
17.79
17.59
16.56
14.76
12.32
9.51
6.62
3.89
1.46
-0.66
-2.53
-4.18
-5.57
-6.62
-7.25
-7.51
-7.57
-7.69
-8.13
-9.06
-10.42
-12
-13.58
-15.06
-16.56
-18.36
-20.76
-23.77
-26.94
-29.4
-30.1
-28.22
-23.5
-16.42
-8
0.56
8.24
14.43
18.95
21.86
23.28
23.29
21.92
19.26
15.52
11.09
6.48
2.2
-1.34
-3.86
-5.26
-5.6
-5.03
-3.78
-2.16
-0.52
0.74
1.28
0.84
-0.62
-2.99
-6.07
-9.63
-13.51
-17.65
-21.97
-26.39
-30.67
-34.41
-37.08
-38.03
-36.74
-33
-27.1
-19.81
-12.15
-5.11
0.67
5.1
8.37
10.83
12.64
13.77
14.06
13.4
11.93
9.99
7.98
6.16
4.6
3.16
1.66
-0.01
-1.89
-3.93
-6.05
-8.21
-10.42
-12.73
-15.21
-17.94
-21
-24.42
-28.14
-31.97
-35.46
-38.01
-38.89
-37.5
-33.63
-27.51
-19.83
-11.54
-3.54
3.58
9.58
14.49
18.42
21.4
23.35
24.16
23.83
22.59
20.85
19.12
17.86
17.31
17.41
17.85
18.18
18
17.12
15.55
13.43
10.91
8.07
4.86
1.21
-2.94
-7.52
-12.43
-17.64
-23.13
-28.87
-34.56
-39.59
-42.99
-43.76
-41.21
-35.27
-26.59
-16.35
-5.9
3.65
11.62
17.78
22.19
25.01
26.42
26.63
25.88
24.52
22.91
21.33
19.94
18.7
17.47
16.09
14.46
12.57
10.48
8.28
6
3.61
1.08
-1.62
-4.45
-7.36
-10.31
-13.28
-16.32
-19.59
-23.29
-27.64
-32.72
-38.29
-43.66
-47.74
-49.29
-47.33
-41.49
-32.26
-20.81
-8.66
2.81
12.71
20.7
26.86
31.46
34.67
36.62
37.4
37.21
36.41
35.45
34.72
34.36
34.29
34.22
33.86
33.08
31.92
30.58
29.29
28.15
27.1
25.88
24.22
21.86
18.74
14.96
10.74
6.32
1.83
-2.76
-7.61
-12.95
-19
-25.87
-33.42
-41.13
-48.11
-53.14
-55.03
-52.91
-46.67
-37
-25.22
-12.86
-1.22
8.89
17.11
23.37
27.72
30.2
30.95
30.29
28.72
26.85
25.27
24.41
24.5
25.49
27.13
29.02
30.7
31.77
31.97
31.34
30.04
28.36
26.49
24.49
22.27
19.69
16.6
12.94
8.77
4.21
-0.51
-5.16
-9.53
-13.53
-17.24
-20.87
-24.77
-29.26
-34.53
-40.41
-46.28
-51.07
-53.48
-52.38
-47.2
-38.21
-26.51
-13.65
-1.2
9.67
18.39
24.9
29.44
32.36
33.93
34.42
34.17
33.57
33.01
32.8
33.11
33.91
35
36.15
37.13
37.85
38.25
38.34
38.09
37.37
36.01
33.88
30.99
27.59
24.02
20.6
17.49
14.52
11.38
7.77
3.61
-0.89
-5.33
-9.36
-12.91
-16.12
-19.37
-23.06
-27.47
-32.73
-38.73
-45.02
-50.77
-54.82
-55.95
-53.25
-46.53
-36.43
-24.23
-11.47
0.5
10.79
19.03
25.16
29.3
31.6
32.27
31.63
30.19
28.53
27.18
26.47
26.46
26.93
27.61
28.24
28.7
28.99
29.17
29.17
28.83
27.91
26.26
23.89
20.99
17.87
14.79
11.84
8.93
5.83
2.34
-1.55
-5.72
-9.87
-13.71
-17.07
-20.03
-22.8
-25.69
-29
-32.95
-37.62
-42.85
-48.16
-52.68
-55.28
-54.86
-50.74
-42.97
-32.41
-20.52
-8.87
1.28
9.24
14.88
18.43
20.34
21.01
20.83
20.15
19.31
18.59
18.2
18.22
18.64
19.35
20.24
21.2
22.14
23
23.69
24.13
24.2
23.77
22.77
21.2
19.21
16.95
14.64
12.36
10.1
7.73
5.06
1.97
-1.52
-5.2
-8.76
-11.93
-14.65
-17.21
-20.13
-24.07
-29.51
-36.48
-44.41
-52.18
-58.35
-61.56
-60.95
-56.39
-48.55
-38.62
-28.03
-18.05
-9.59
-3.04
1.58
4.56
6.28
7.2
7.7
8.07
8.51
9.07
9.71
10.41
11.16
12.03
13.19
14.77
16.83
19.27
21.78
23.94
25.31
25.58
24.67
22.73
20.13
17.26
14.46
11.91
9.58
7.29
4.77
1.83
-1.62
-5.49
-9.56
-13.61
-17.53
-21.37
-25.35
-29.69
-34.45
-39.37
-43.8
-46.84
-47.57
-45.41
-40.27
-32.63
-23.44
-13.77
-4.6
3.4
9.93
14.95
18.59
21.01
22.4
22.94
22.88
22.48
22.02
21.76
21.85
22.32
23.06
23.9
24.63
25.07
25.14
24.84
24.19
23.21
21.86
20.12
17.98
15.46
12.66
9.64
6.43
3.05
-0.49
-4.13
-7.71
-11.07
-14.11
-16.85
-19.46
-22.18
-25.28
-28.92
-33.07
-37.39
-41.25
-43.78
-44.09
-41.57
-36.12
-28.28
-19.12
-9.93
-1.84
4.44
8.71
11.18
12.24
12.29
11.64
10.5
9.09
7.67
6.5
5.86
5.88
6.51
7.57
8.79
9.91
10.72
11.14
11.13
10.7
9.86
8.61
6.98
4.99
2.71
0.19
-2.52
-5.38
-8.34
-11.31
-14.22
-17
-19.59
-22.05
-24.57
-27.41
-30.84
-34.98
-39.59
-44.06
-47.45
-48.75
-47.2
-42.53
-35.1
-25.78
-15.73
-6.05
2.41
9.16
14.07
17.26
19.08
19.96
20.44
20.98
21.93
23.4
25.26
27.22
28.97
30.29
31.11
31.52
31.61
31.47
31.1
30.4
29.27
27.62
25.44
22.84
19.96
16.94
13.84
10.6
7.1
3.23
-0.99
-5.42
-9.8
-13.91
-17.66
-21.13
-24.53
-28.14
-32.27
-37.11
-42.63
-48.51
-54.01
-58.12
-59.72
-57.93
-52.39
-43.44
-32.04
-19.52
-7.3
3.46
12.04
18.17
22.01
23.92
24.37
23.82
22.7
21.4
20.35
19.92
20.29
21.39
22.89
24.28
25.13
25.2
24.53
23.33
21.85
20.23
18.51
16.66
14.7
12.77
11.08
9.83
9.12
8.95
9.2
9.74
10.51
11.5
12.73
14.08
15.25
15.7
14.81
12.15
7.78
2.31
-3.13
-7.28
-9.12
-8.26
-4.95
0.12
6.15
12.45
18.63
24.44
29.61
33.7
36.14
36.34
33.96
29.09
22.24
14.21
5.84
-2.18
-9.39
-15.57
-20.54
-24.11
-26.07
-26.32
-25.01
-22.56
-19.55
-16.54
-13.85
-11.58
-9.74
-8.36
-7.57
-7.49
-8.03
-8.86
-9.5
-9.57
-9.1
-8.55
-8.6
-9.91
-12.74
-16.99
-22.22
-27.94
-33.68
-39.06
-43.64
-46.9
-48.23
-47.11
-43.33
-37.06
-28.95
-19.86
-10.73
-2.34
4.87
10.69
15.13
18.29
20.3
21.35
21.66
21.54
21.32
21.26
21.51
22.07
22.8
23.5
23.94
23.91
23.23
21.81
19.66
16.9
13.73
10.36
6.96
3.63
0.37
-2.84
-6.04
-9.23
-12.33
-15.26
-17.99
-20.63
-23.38
-26.45
-30.01
-33.97
-37.93
-41.2
-42.97
-42.51
-39.35
-33.46
-25.3
-15.8
-6.25
2.02
7.88
10.79
10.9
9.08
6.55
4.53
3.81
4.61
6.69
9.55
12.79
16.21
19.85
23.79
27.97
32.19
36.08
39.29
41.57
42.82
43.05
42.31
40.62
37.93
34.21
29.49
23.87
17.47
10.4
2.73
-5.45
-13.89
-22.03
-28.99
-33.68
-35.16
-32.94
-27.24
-18.98
-9.6
-0.61
6.74
11.81
14.51
15.24
14.55
12.96
10.81
8.25
5.37
2.23
-1.06
-4.33
-7.47
-10.46
-13.39
-16.38
-19.56
-22.94
-26.43
-29.85
-33.03
-35.82
-38.14
-39.95
-41.31
-42.35
-43.29
-44.37
-45.84
-47.87
-50.47
-53.34
-55.89
-57.27
-56.53
-52.9
-46.01
-36.1
-24.03
-10.99
1.73
13.17
22.84
30.73
37.08
42.19
46.22
49.2
51.06
51.86
51.77
51.04
49.91
48.48
46.71
44.52
41.89
38.92
35.76
32.5
29.03
25.04
20.18
14.24
7.28
-0.33
-8.02
-15.31
-21.86
-27.61
-32.76
-37.69
-42.93
-48.98
-56.21
-64.57
-73.57
-82.19
-89.14
-93.16
-93.35
-89.47
-81.93
-71.68
-59.95
-47.94
-36.64
-26.67
-18.23
-11.17
-5.08
0.59
6.3
12.37
18.87
25.67
32.42
38.72
44.27
48.97
52.99
56.72
60.6
64.83
69.28
73.37
76.31
77.35
76.16
72.92
68.24
62.94
57.66
52.69
47.95
43.12
37.84
31.88
25.18
17.84
10.13
2.42
-4.93
-11.61
-17.58
-23.09
-28.6
-34.58
-41.18
-47.91
-53.6
-56.75
-56
-50.69
-41.18
-28.77
-15.27
-2.48
8.35
16.72
22.81
27.32
31.11
34.92
39.19
43.98
49
53.79
57.89
60.98
62.89
63.58
62.95
60.92
57.45
52.68
46.98
40.87
34.78
28.9
23.18
17.36
11.29
5.03
-1.1
-6.7
-11.38
-14.98
-17.54
-19.3
-20.63
-21.93
-23.59
-25.89
-28.9
-32.48
-36.32
-40.04
-43.36
-46.29
-49.06
-52.13
-55.98
-60.9
-66.86
-73.46
-79.94
-85.22
-88.11
-87.58
-83.09
-74.81
-63.64
-50.99
-38.3
-26.66
-16.49
-7.74
-0.04
6.83
12.83
17.67
21.09
23.08
24.03
24.56
25.35
26.83
29.06
31.77
34.51
36.86
38.55
39.52
39.87
39.77
39.33
38.61
37.59
36.21
34.43
32.35
30.15
28.06
26.23
24.6
22.94
20.9
18.19
14.76
10.82
6.78
3.09
0.09
-2.14
-3.73
-5.03
-6.48
-8.49
-11.41
-15.41
-20.36
-25.71
-30.49
-33.47
-33.51
-29.97
-23.04
-13.77
-3.72
5.57
13.05
18.44
22.1
24.67
26.66
28.28
29.46
30.13
30.36
30.43
30.69
31.32
32.24
33.16
33.73
33.76
33.26
32.47
31.6
30.75
29.76
28.32
26.06
22.79
18.49
13.41
7.83
2.04
-3.76
-9.48
-15.02
-20.25
-25.01
-29.18
-32.79
-35.91
-38.71
-41.29
-43.68
-45.9
-48.04
-50.31
-52.98
-56.21
-59.85
-63.32
-65.68
-65.92
-63.24
-57.4
-48.76
-38.23
-26.95
-16
-6.11
2.37
9.35
14.9
19.07
21.86
23.33
23.66
23.2
22.39
21.68
21.38
21.57
22.11
22.78
23.33
23.64
23.69
23.57
23.34
23.04
22.63
21.99
21.04
19.69
17.93
15.81
13.39
10.76
7.95
4.99
1.87
-1.36
-4.61
-7.76
-10.73
-13.51
-16.26
-19.26
-22.81
-27.07
-31.87
-36.65
-40.55
-42.66
-42.25
-39.1
-33.48
-26.16
-18.09
-10.16
-3.06
2.86
7.56
11.17
13.93
16.07
17.72
19
19.94
20.59
21.06
21.52
22.11
22.86
23.7
24.41
24.76
24.64
24.01
22.99
21.71
20.25
18.59
16.63
14.3
11.58
8.54
5.3
1.97
-1.36
-4.62
-7.77
-10.81
-13.76
-16.73
-19.87
-23.36
-27.29
-31.59
-35.94
-39.77
-42.38
-43.05
-41.28
-36.93
-30.35
-22.32
-13.87
-6
0.57
5.54
8.97
11.17
12.44
12.98
12.91
12.32
11.43
10.55
10.07
10.24
11.09
12.41
13.85
15.07
15.89
16.32
16.57
16.85
17.29
17.85
18.29
18.31
17.63
16.13
13.9
11.21
8.42
5.79
3.42
1.24
-0.98
-3.43
-6.33
-9.76
-13.67
-17.81
-21.64
-24.42
-25.41
-24.03
-20.21
-14.36
-7.25
0.28
7.52
14.04
19.6
24.08
27.36
29.39
30.18
29.94
28.98
27.75
26.7
26.18
26.36
27.17
28.39
29.74
31.03
32.24
33.44
34.75
36.13
37.39
38.24
38.47
38.06
37.19
36.16
35.19
34.36
33.56
32.55
31.04
28.68
25.04
19.73
12.57
3.71
-6.12
-15.69
-23.54
-28.41
-29.67
-27.59
-23.28
-18.33
-14.26
-12.05
-11.99
-13.68
-16.39
-19.36
-22.03
-24.09
-25.42
-26.04
-26.04
-25.6
-24.86
-23.65
-21.19
-16.1
-6.73
8.05
28.23
52.36
77.86
101.93
122.34
137.9
148.31
153.64
153.8
148.48
137.5
121.22
100.75
77.64
53.38
28.91
4.71
-18.84
-40.99
-60.49
-75.87
-86.09
-91.14
-92.08
-90.62
-88.27
-85.8
-83.16
-79.94
-76.14
-72.53
-70.39
-70.82
-73.78
-77.8
-80.42
-79.32
-73.59
-64.25
-53.9
-45.53
-41.21
-41.36
-44.94
-50.24
-55.75
-60.62
-64.48
-67.11
-68.21
-67.54
-65.35
-62.57
-60.52
-60.29
-62.07
-64.86
-66.8
-65.97
-61.17
-52.35
-40.54
-27.4
-14.59
-3.35
5.65
12.22
16.51
18.82
19.53
19.07
17.87
16.28
14.52
12.68
10.84
9.16
7.89
7.34
7.64
8.67
10
11.12
11.69
11.66
11.28
10.96
10.98
11.37
11.92
12.28
12.16
11.52
10.68
10.33
11.38
14.7
20.68
29.02
38.76
48.68
57.74
65.42
71.71
76.73
80.43
82.35
81.97
79.06
74.01
67.79
61.61
56.49
52.93
50.9
49.89
49.06
47.35
43.67
37.17
27.7
16.02
3.75
-7.22
-15.46
-20.44
-22.71
-23.37
-23.49
-23.58
-23.59
-23.05
-21.48
-18.6
-14.43
-9.34
-4.03
0.38
2.48
0.97
-4.89
-14.81
-27.32
-40.03
-50.29
-55.93
-55.88
-50.54
-41.62
-31.65
-23.14
-17.84
-16.25
-17.73
-21.04
-25.07
-29.3
-33.81
-38.84
-44.32
-49.66
-54.12
-57.33
-59.65
-62.01
-65.3
-69.67
-74.39
-78.32
-80.7
-81.78
-82.71
-84.59
-87.46
-89.74
-88.74
-81.94
-68.4
-49.49
-28.49
-9.37
4.72
12.29
13.63
10.15
3.6
-4.48
-12.99
-21.2
-28.66
-35.17
-40.76
-45.61
-49.78
-53.03
-54.75
-54.1
-50.26
-42.76
-31.57
-17.16
-0.44
17.35
34.71
50.14
62.33
70.52
74.67
75.37
73.58
70.2
65.82
60.73
55.15
49.47
44.29
40.31
38.03
37.58
38.69
40.87
43.57
46.3
48.7
50.37
50.98
50.15
47.67
43.53
37.99
31.49
24.58
17.71
11.19
5.09
-0.64
-6.15
-11.51
-16.54
-20.82
-23.66
-24.33
-22.42
-18.11
-12.38
-6.92
-3.74
-4.58
-10.23
-20.2
-32.62
-44.83
-54.01
-57.98
-55.77
-47.65
-34.9
-19.33
-2.74
13.42
28.17
40.92
51.27
58.92
63.69
65.6
65.09
62.95
60.19
57.71
56.03
55.21
54.85
54.45
53.63
52.27
50.5
48.52
46.35
43.7
39.99
34.6
27.11
17.62
6.81
-4.19
-14.17
-22.23
-28.07
-32.03
-34.87
-37.39
-40.16
-43.38
-47.05
-51.02
-55.25
-59.79
-64.69
-70.05
-75.92
-82.41
-89.69
-97.93
-107.01
-116.3
-124.48
-129.72
-130.12
-124.36
-112.2
-94.65
-73.75
-51.99
-31.54
-13.88
0.4
11.48
19.9
26.31
31.23
35
37.84
39.86
41.09
41.5
41.09
39.95
38.32
36.6
35.24
34.67
35.1
36.55
38.81
41.46
44
45.96
46.97
46.91
45.84
44
41.62
38.82
35.64
32
27.84
23.19
18.2
13.06
7.98
3.11
-1.49
-5.82
-9.99
-14.23
-18.82
-24.02
-29.93
-36.27
-42.3
-46.87
-48.68
-46.65
-40.36
-30.31
-17.81
-4.66
7.46
17.37
24.62
29.44
32.4
34.21
35.49
36.73
38.25
40.17
42.41
44.72
46.7
47.95
48.26
47.65
46.42
45.14
44.49
45.05
47.08
50.32
54.01
57.21
59.17
59.75
59.49
59.4
60.47
63.3
67.74
72.97
77.74
80.65
80.49
76.52
68.64
57.51
44.45
31.01
18.64
8.14
-0.42
-7.53
-13.76
-19.29
-23.77
-26.44
-26.64
-24.25
-19.85
-14.49
-9.22
-4.7
-1.05
1.91
4.34
6.07
6.61
5.43
2.35
-2.2
-7.32
-11.88
-14.97
-16.19
-15.7
-14.07
-11.95
-9.82
-7.86
-5.99
-4.03
-1.87
0.39
2.5
4.2
5.29
5.77
5.76
5.44
4.95
4.34
3.63
2.86
2.14
1.69
1.71
2.33
3.5
5.06
6.73
8.24
9.38
10.03
10.27
10.44
11.22
13.58
18.58
26.91
38.54
52.47
66.96
80.07
90.24
96.71
99.57
99.3
96.36
90.83
82.56
71.45
57.92
42.92
27.73
13.55
1.06
-9.67
-19.01
-27.42
-35.21
-42.41
-48.93
-54.71
-59.92
-64.89
-69.99
-75.44
-81.15
-86.73
-91.72
-95.75
-98.69
-100.72
-102.21
-103.61
-105.38
-107.87
-111.32
-115.79
-120.98
-126.18
-130.32
-132.25
-131.1
-126.66
-119.42
-110.39
-100.67
-91.15
-82.25
-74.12
-66.77
-60.29
-54.92
-50.83
-47.99
-45.89
-43.59
-40.06
-34.49
-26.69
-17.18
-7.01
2.71
11.09
17.7
22.47
25.51
26.96
26.96
25.71
23.53
20.87
18.12
15.61
13.48
11.81
10.58
9.73
9.01
8.03
6.32
3.54
-0.24
-4.49
-8.31
-10.65
-10.65
-7.84
-2.17
5.94
15.79
26.4
36.79
46.04
53.54
59.03
62.57
64.41
64.86
64.17
62.6
60.46
58.14
56.02
54.32
53.08
52.16
51.38
50.7
50.18
49.93
49.89
49.81
49.24
47.78
45.25
41.73
37.57
33.19
28.95
25.03
21.43
17.97
14.33
10.14
4.98
-1.42
-9.1
-17.76
-26.73
-35.05
-41.72
-45.91
-47.16
-45.47
-41.2
-34.87
-27.04
-18.33
-9.47
-1.31
5.28
9.72
11.93
12.43
12.13
11.86
12.11
12.91
14.05
15.34
16.81
18.68
21.11
24.15
27.59
31.26
35.05
38.99
43.08
47.15
50.89
53.96
56.24
57.84
58.99
59.78
59.79
58.19
53.97
46.39
35.28
21.15
4.9
-12.51
-30.31
-48
-65.11
-80.99
-94.72
-105.13
-111.09
-111.73
-106.72
-96.26
-81.2
-62.78
-42.53
-22.02
-2.64
14.49
28.61
39.27
46.37
50.08
50.89
49.5
46.78
43.62
40.73
38.54
37.09
36.06
34.81
32.54
28.48
22.2
13.86
4.34
-4.91
-12.34
-16.79
-18
-16.63
-14.08
-11.9
-11.2
-12.33
-14.87
-17.95
-20.77
-23
-24.86
-27.1
-30.51
-35.64
-42.47
-50.33
-58.01
-64.15
-67.59
-67.66
-64.39
-58.38
-50.54
-41.82
-32.9
-24.1
-15.4
-6.67
2.15
10.88
19.09
26.24
31.84
35.67
37.79
38.47
38.1
37.07
35.74
34.46
33.62
33.51
34.29
35.87
37.9
39.95
41.62
42.72
43.27
43.41
43.27
42.92
42.39
41.72
41.03
40.48
40.12
39.81
39.22
37.95
35.66
32.23
27.75
22.45
16.63
10.67
5.1
0.61
-1.97
-1.96
0.88
6.14
12.78
19.47
24.94
28.41
29.66
28.96
26.87
23.97
20.71
17.39
14.11
10.83
7.42
3.72
-0.34
-4.66
-8.98
-12.91
-16.07
-18.24
-19.45
-19.93
-19.99
-19.92
-19.84
-19.71
-19.42
-18.97
-18.56
-18.55
-19.35
-21.13
-23.66
-26.34
-28.4
-29.27
-28.92
-27.97
-27.52
-28.8
-32.76
-39.68
-48.94
-58.95
-67.36
-71.61
-69.68
-60.93
-46.57
-29.51
-13.56
-2.11
2.98
1.91
-3.46
-10.59
-17.35
-22.68
-26.62
-29.71
-32.39
-34.57
-35.82
-35.72
-34.26
-32.01
-29.82
-28.44
-28.06
-28.22
-28.14
-27.07
-24.78
-21.72
-18.84
-17.24
-17.68
-20.33
-24.7
-29.87
-34.81
-38.71
-41.22
-42.49
-43.07
-43.68
-45
-47.33
-50.59
-54.18
-57.22
-58.66
-57.62
-53.49
-46.06
-35.6
-22.81
-8.68
5.64
19.06
30.76
40.32
47.63
52.86
56.29
58.25
59.09
59.13
58.69
57.98
57.03
55.73
53.89
51.4
48.38
45.13
41.98
39.13
36.51
33.73
30.28
25.61
19.43
11.79
3.13
-5.79
-14.07
-20.94
-25.96
-29.18
-31.08
-32.47
-34.22
-36.99
-41.09
-46.31
-51.91
-56.76
-59.54
-59.15
-54.97
-47.16
-36.52
-24.26
-11.68
0.17
10.68
19.63
27.09
33.24
38.24
42.17
45.06
47.02
48.27
49.16
50.04
51.16
52.53
53.89
54.81
54.89
53.9
51.92
49.23
46.16
42.81
38.99
34.09
27.36
18.17
6.38
-7.32
-21.43
-34.01
-43.34
-48.58
-50.17
-49.69
-49.3
-50.85
-55.17
-61.82
-69.31
-75.7
-79.33
-79.22
-75.21
-67.73
-57.61
-45.8
-33.39
-21.46
-11.02
-2.9
2.44
5.02
5.27
3.92
1.83
-0.19
-1.47
-1.59
-0.44
1.81
4.67
7.58
9.94
11.39
11.71
10.88
8.91
5.76
1.38
-4.17
-10.57
-17.18
-23.13
-27.67
-30.37
-31.35
-31.2
-30.83
-31.11
-32.62
-35.49
-39.46
-43.88
-47.89
-50.55
-50.94
-48.34
-42.47
-33.46
-21.98
-9.13
3.83
15.57
25
31.43
34.78
35.56
34.76
33.54
32.83
33.05
34.03
35.3
36.37
36.98
37.1
36.72
35.69
33.67
30.42
25.99
20.95
16.13
12.32
9.83
8.41
7.42
6.04
3.6
-0.39
-6.19
-13.78
-22.69
-31.8
-39.35
-43.29
-41.87
-34.35
-21.41
-5.01
12.12
27.35
38.84
45.86
48.79
48.63
46.54
43.45
39.93
36.25
32.6
29.25
26.56
24.86
24.28
24.69
25.72
27
28.32
29.69
31.31
33.32
35.65
38.03
40.04
41.33
41.76
41.41
40.51
39.23
37.61
35.64
33.39
31.23
30.03
30.97
35.24
43.62
55.97
71.21
87.46
102.61
114.79
122.7
125.59
123.18
115.41
102.52
85.11
64.38
41.97
19.75
-0.66
-18.26
-32.88
-45.04
-55.72
-65.98
-76.65
-88.08
-100.12
-112.29
-123.93
-134.42
-143.28
-150.18
-154.79
-156.8
-155.97
-152.36
-146.51
-139.54
-132.85
-127.67
-124.58
-123.28
-122.64
-121.16
-117.43
-110.54
-100.31
-87.27
-72.5
-57.42
-43.44
-31.79
-23.29
-18.12
-15.79
-15.18
-14.73
-12.77
-7.91
0.49
12.04
25.29
38.05
48.01
53.49
53.94
50.03
43.34
35.79
29.09
24.32
21.91
21.74
23.29
25.9
28.94
31.92
34.62
37.05
39.33
41.53
43.53
44.99
45.34
43.99
40.5
34.83
27.47
19.56
12.74
8.81
9.14
14.2
23.23
34.46
45.64
54.82
60.96
64.11
65.12
65.14
65.11
65.52
66.38
67.51
68.6
69.44
69.73
69.2
67.65
65.08
61.85
58.58
56
54.56
54.32
54.83
55.4
55.3
54.04
51.56
48.1
44.09
39.97
35.98
32.11
28.09
23.51
18.05
11.56
4.28
-3.26
-10.42
-16.64
-21.68
-25.68
-29.18
-32.86
-37.41
-43.29
-50.55
-58.72
-66.81
-73.52
-77.44
-77.44
-72.97
-64.24
-52.24
-38.37
-24.09
-10.57
1.58
12.24
21.58
29.83
37.11
43.37
48.42
52.18
54.68
56.19
57.11
57.83
58.61
59.46
60.23
60.69
60.68
60.09
58.83
56.73
53.55
49.12
43.49
37.14
30.87
25.58
21.87
19.78
18.78
17.95
16.41
13.56
9.24
3.61
-3.04
-10.42
-18.22
-26.1
-33.6
-40.24
-45.69
-49.94
-53.28
-56.17
-58.8
-60.88
-61.66
-60.19
-55.83
-48.6
-39.25
-28.99
-19.08
-10.39
-3.27
2.37
6.82
10.37
13.14
15.2
16.64
17.67
18.65
19.93
21.75
24.12
26.77
29.25
31.06
31.88
31.61
30.36
28.43
26.01
23.19
19.82
15.63
10.32
3.75
-3.96
-12.47
-21.3
-29.96
-38.1
-45.57
-52.44
-58.92
-65.23
-71.51
-77.68
-83.4
-88.02
-90.72
-90.67
-87.27
-80.42
-70.53
-58.54
-45.66
-33.1
-21.82
-12.36
-4.86
0.84
4.99
7.72
9.11
9.21
8.17
6.37
4.44
3.05
2.79
3.91
6.22
9.13
11.84
13.6
13.91
12.7
10.23
6.97
3.28
-0.62
-4.74
-9.15
-13.9
-18.9
-24.02
-29.23
-34.61
-40.31
-46.34
-52.26
-57.19
-59.88
-59.1
-54.1
-44.98
-32.74
-19.01
-5.61
6.01
15.12
21.79
26.6
30.28
33.32
35.83
37.62
38.39
38.01
36.65
34.73
32.75
31.13
30.07
29.53
29.25
28.9
28.14
26.7
24.45
21.37
17.6
13.35
8.86
4.33
-0.16
-4.63
-9.27
-14.34
-20.18
-27.05
-34.98
-43.58
-51.96
-58.83
-62.75
-62.62
-58.03
-49.46
-38.18
-25.86
-14.11
-4.08
3.69
9.22
12.85
14.98
15.96
16
15.25
13.89
12.2
10.54
9.19
8.31
7.79
7.37
6.73
5.72
4.39
2.99
1.77
0.75
-0.31
-1.89
-4.41
-7.99
-12.34
-16.81
-20.67
-23.48
-25.23
-26.42
-27.93
-30.64
-35.2
-41.69
-49.51
-57.41
-63.69
-66.66
-65.07
-58.53
-47.66
-34
-19.44
-5.74
6.03
15.5
22.91
28.64
32.9
35.65
36.78
36.31
34.59
32.22
29.82
27.83
26.37
25.39
24.74
24.42
24.47
25.02
26.12
27.71
29.6
31.46
32.87
33.44
32.9
31.28
28.89
26.22
23.65
21.25
18.75
15.72
11.86
7.19
2.02
-3.22
-8.24
-13.03
-17.81
-23
-29.08
-36.45
-45.28
-55.25
-65.44
-74.34
-80.13
-81.25
-76.97
-67.64
-54.64
-39.86
-25.14
-11.77
-0.32
9.19
17.03
23.43
28.53
32.44
35.36
37.73
40.03
42.72
45.98
49.67
53.46
56.97
59.93
62.23
63.87
64.89
65.32
65.22
64.71
64
63.26
62.53
61.65
60.27
58.08
54.88
50.81
46.27
41.77
37.7
34.12
30.73
27.06
22.74
17.79
12.61
7.72
3.41
-0.44
-4.41
-9.2
-15.39
-23.15
-32.24
-42.08
-51.81
-60.47
-67.01
-70.51
-70.3
-66.23
-58.65
-48.46
-36.74
-24.59
-12.82
-1.86
8.23
17.67
26.65
35.17
42.78
48.69
52.07
52.48
50.26
46.48
42.6
39.84
38.7
38.9
39.61
40.01
39.64
38.71
37.71
37.14
37.11
37.27
37.03
35.84
33.39
29.74
25.21
20.16
14.99
10.04
5.58
1.8
-1.26
-3.72
-5.81
-7.83
-10.02
-12.54
-15.51
-19.06
-23.29
-28.31
-34.13
-40.64
-47.52
-54.31
-60.23
-64.34
-65.62
-63.26
-57.01
-47.34
-35.4
-22.68
-10.56
0.02
8.73
15.66
21.17
25.54
28.96
31.57
33.56
35.2
36.79
38.53
40.36
42.03
43.12
43.27
42.33
40.39
37.74
34.76
31.81
29.06
26.51
23.93
20.98
17.29
12.75
7.52
2.11
-2.84
-6.83
-9.74
-11.84
-13.7
-15.93
-18.85
-22.5
-26.6
-30.79
-34.74
-38.27
-41.4
-44.26
-47.14
-50.39
-54.34
-59.18
-64.74
-70.32
-74.73
-76.53
-74.4
-67.65
-56.51
-42.08
-26.01
-10.03
4.51
16.91
27.07
35.33
42.15
47.98
53.09
57.68
61.76
65.23
67.88
69.38
69.43
67.88
64.79
60.57
55.79
51.13
47.08
43.91
41.52
39.63
37.84
35.83
33.43
30.61
27.4
23.78
19.67
14.94
9.51
3.45
-3.01
-9.49
-15.63
-21.06
-25.54
-28.91
-31.19
-32.6
-33.7
-35.34
-38.44
-43.57
-50.52
-58.15
-64.55
-67.72
-66.21
-59.73
-49.17
-36.33
-23.26
-11.8
-3.19
1.94
3.53
2.04
-1.66
-6.35
-10.63
-13.22
-13.2
-10.33
-5.03
1.72
8.68
14.69
19.02
21.43
22.2
21.89
21.16
20.48
20.1
20.03
20.16
20.27
20.09
19.27
17.46
14.43
10.14
4.86
-0.91
-6.54
-11.45
-15.27
-17.99
-19.95
-21.83
-24.45
-28.53
-34.38
-41.66
-49.32
-55.81
-59.43
-58.96
-54
-45.17
-33.87
-21.9
-10.88
-1.84
4.82
9.25
11.86
13.01
12.96
11.88
9.99
7.66
5.32
3.35
1.98
1.22
0.89
0.8
0.74
0.59
0.25
-0.35
-1.29
-2.55
-4.03
-5.5
-6.65
-7.25
-7.13
-6.3
-4.87
-3.06
-1.14
0.63
2.06
3.02
3.47
3.45
3.02
2.23
1.05
-0.49
-2.26
-3.92
-4.88
-4.49
-2.22
2.08
8.05
14.94
21.84
27.92
32.62
35.66
36.89
36.3
33.93
30.02
25.12
20.04
15.8
13.29
13.09
15.1
18.63
22.43
25.21
25.94
24.29
20.66
15.92
11.05
6.57
2.47
-1.68
-6.32
-11.55
-16.99
-22.02
-26.16
-29.43
-32.43
-36.01
-40.85
-47.07
-54.12
-60.89
-66.05
-68.35
-66.91
-61.39
-52.14
-40.11
-26.71
-13.45
-1.5
8.48
16.48
22.8
27.74
31.34
33.37
33.57
31.92
28.88
25.39
22.64
21.63
22.87
26.06
30.18
33.83
35.67
34.96
31.79
26.94
21.45
16.18
11.49
7.22
2.87
-2.07
-7.95
-14.86
-22.73
-31.27
-39.94
-48.02
-54.59
-58.8
-60.02
-58.08
-53.24
-46.21
-37.99
-29.68
-22.41
-17.02
-13.96
-13.11
-13.9
-15.54
-17.34
-18.98
-20.53
-22.29
-24.53
-27.24
-30.11
-32.6
-34.2
-34.64
-33.96
-32.51
-30.81
-29.43
-28.8
-29.19
-30.65
-33
-36.01
-39.46
-43.24
-47.39
-52.03
-57.21
-62.72
-68.09
-72.54
-75.19
-75.37
-72.71
-67.23
-59.2
-49
-37.08
-24.04
-10.71
1.94
12.97
21.81
28.41
33.15
36.52
38.75
39.74
39.17
36.98
33.6
30.02
27.29
26
25.74
25.22
22.65
16.66
6.98
-5.22
-17.66
-27.69
-33.26
-33.61
-29.45
-22.67
-15.7
-10.84
-9.76
-13.11
-20.34
-29.71
-38.5
-43.58
-42.26
-33.09
-16.27
6.39
32.16
58.22
82.4
103.57
121.69
137.57
152.5
167.79
184.23
201.69
219.07
234.51
245.97
251.77
250.95
243.28
229.18
209.48
185.45
158.75
131.27
104.91
80.98
59.98
41.61
25.14
9.99
-3.96
-16.41
-27.04
-35.92
-43.68
-51.47
-60.45
-71.36
-84.15
-97.99
-111.5
-123.23
-132.09
-137.55
-139.74
-139.23
-136.82
-133.28
-129.22
-125
-120.86
-116.94
-113.51
-110.97
-109.93
-110.98
-114.53
-120.48
-128.2
-136.62
-144.75
-152.13
-159.23
-167.44
-178.6
-194.29
-215.12
-240.2
-267.19
-292.67
-312.96
-324.97
-327
-319.19
-303.54
-283.32
-262.09
-242.61
-226.14
-212.28
-199.59
-186.39
-171.63
-155.19
-137.6
-119.52
-101.25
-82.49
-62.53
-40.62
-16.29
10.47
39.23
69.24
99.5
128.79
155.66
178.71
196.95
210.16
219
224.67
228.47
231.27
233.32
234.39
234.07
232.24
229.18
225.59
222.21
219.6
217.89
216.82
215.89
214.42
211.67
206.91
199.38
188.38
173.35
154.17
131.35
106.19
80.49
56.11
34.34
15.62
-0.52
-15.04
-28.86
-42.39
-55.23
-66.23
-73.69
-75.79
-70.87
-57.85
-36.66
-8.5
23.94
56.81
85.78
107.24
119.43
123.01
120.82
116.74
114.12
114.64
117.94
122.2
125.25
125.66
123.26
118.94
114.09
109.84
106.67
104.28
101.92
98.74
94.18
88.2
81.16
73.65
66.18
59.05
52.31
45.89
39.68
33.49
26.96
19.53
10.47
-0.67
-13.8
-28.01
-41.68
-52.76
-59.37
-60.29
-55.27
-45.08
-31.31
-15.95
-0.89
12.54
23.85
33.26
41.26
48.05
53.15
55.55
54.18
48.72
39.93
29.51
19.42
11.04
4.79
0.34
-2.84
-4.96
-5.91
-5.64
-4.79
-4.72
-7.08
-12.94
-22.2
-33.67
-45.77
-57.35
-68.14
-78.54
-89.01
-99.67
-110.28
-120.56
-130.42
-139.75
-147.92
-153.49
-154.54
-149.49
-138.14
-121.98
-103.82
-86.52
-71.81
-59.65
-48.54
-36.52
-22.21
-5.44
12.64
30.1
44.82
55.02
59.56
58.2
51.49
40.84
28.23
15.85
5.62
-1.32
-4.87
-5.84
-5.58
-5.46
-6.45
-9.01
-13.11
-18.27
-23.63
-28.07
-30.45
-29.97
-26.61
-21.23
-15.38
-10.67
-8.18
-8.13
-9.97
-12.9
-16.28
-19.8
-23.14
-25.62
-26
-22.74
-14.64
-1.47
15.82
35.34
54.92
72.72
87.59
99.06
107.1
111.93
113.95
113.76
112.07
109.53
106.56
103.21
99.25
94.51
89
82.97
76.63
69.83
62.02
52.47
40.72
27.02
12.5
-1.25
-12.69
-20.98
-26.24
-29.34
-31.51
-33.74
-36.54
-39.85
-43.3
-46.47
-49.21
-51.59
-53.84
-56.29
-59.19
-62.76
-67.14
-72.39
-78.21
-83.82
-87.86
-88.67
-84.77
-75.46
-61.24
-43.78
-25.46
-8.64
5.06
15.11
21.99
26.68
30.05
32.57
34.2
34.75
34.24
33.08
31.94
31.43
31.69
32.41
32.98
32.93
32.16
30.94
29.68
28.64
27.83
27.04
25.98
24.43
22.18
19.02
14.78
9.36
2.88
-4.43
-12.36
-20.96
-30.67
-42.2
-56.12
-72.43
-90.12
-107.05
-120.31
-126.95
-124.93
-114.04
-96.13
-74.75
-54
-37.16
-25.58
-18.44
-13.19
-6.8
3.14
17.64
36.21
57.24
78.64
98.34
114.66
126.54
133.61
136.12
134.92
131.16
126.08
120.69
115.67
111.22
107.24
103.39
99.28
94.59
89.17
83.08
76.5
69.69
62.82
56.01
49.32
42.85
36.78
31.25
26.29
21.59
16.57
10.64
3.62
-4.1
-11.39
-16.81
-19.03
-17.2
-11.14
-1.26
11.41
25.18
37.52
45.36
45.79
37.18
20.08
-2.66
-26.72
-47.88
-63.44
-72.82
-77.15
-78.18
-77.3
-75.04
-71.5
-66.85
-61.78
-57.25
-54
-51.98
-50.35
-47.83
-43.3
-36.53
-28.17
-19.65
-12.57
-8.04
-6.32
-6.8
-8.3
-9.75
-10.78
-12.11
-15.36
-22.42
-34.45
-51.11
-70.24
-88.33
-101.66
-107.58
-105.33
-96.19
-82.71
-67.72
-53.41
-40.97
-30.72
-22.5
-16.01
-10.84
-6.55
-2.6
1.49
5.92
10.43
14.4
17.15
18.23
17.69
15.99
13.75
11.43
9.27
7.33
5.64
4.32
3.42
2.79
1.87
-0.16
-4.14
-10.46
-18.83
-28.32
-37.67
-45.77
-51.96
-56.21
-59.08
-61.5
-64.65
-69.73
-77.58
-88.29
-100.77
-112.77
-121.45
-124.42
-120.75
-111.51
-99.46
-87.84
-79.15
-74.28
-72.47
-72.21
-72.25
-72.34
-73.29
-76.44
-83.03
-93.5
-107.29
-122.6
-136.49
-145.04
-144.07
-130.35
-102.85
-63.5
-16.95
30.89
74.77
111.61
141
164.37
183.6
199.8
212.96
222.45
227.95
230.13
230.63
231.4
233.74
237.63
241.74
243.92
242.17
235.51
224.46
210.98
197.71
187.16
180.72
178.21
177.95
177.35
173.92
166.28
154.79
141.52
129.52
121.45
118.34
118.75
119
114.25
100.24
74.85
38.9
-4.08
-49.16
-91.52
-127.86
-156.77
-178.46
-193.99
-204.51
-211.02
-214.41
-215.76
-216.32
-217.13
-218.53
-219.67
-218.85
-214.19
-204.61
-190.4
-173.32
-155.84
-140.35
-128.23
-119.64
-113.82
-109.56
-105.61
-100.91
-94.51
-85.54
-73.39
-57.99
-40.03
-20.88
-2.18
14.7
29.13
41.24
51.53
60.42
67.86
73.46
76.75
77.66
76.73
74.91
73.25
72.41
72.45
72.84
72.85
71.91
69.91
67.3
64.81
63.21
62.89
63.72
65.03
65.89
65.35
62.77
58.03
51.52
44.03
36.39
29.15
22.3
15.3
7.29
-2.5
-14.31
-27.61
-41.05
-52.77
-60.89
-64.14
-62.29
-56.24
-47.81
-39.11
-31.94
-27.33
-25.49
-25.98
-28.16
-31.26
-34.33
-36.05
-34.74
-28.96
-18.26
-3.73
12.14
26.25
36.15
40.99
41.62
39.93
37.8
36.22
35.19
34.24
33.06
32.01
31.85
33.23
36.12
39.64
42.47
43.42
42
38.54
33.95
29.28
25.42
23
22.44
24.03
27.9
33.92
41.52
49.77
57.42
63.11
65.49
63.36
55.9
42.86
24.8
3.08
-20.26
-42.85
-62.46
-77.3
-86.34
-89.52
-87.8
-82.87
-76.78
-71.27
-67.25
-64.73
-63.02
-61.44
-59.75
-58.39
-58.02
-59.13
-61.57
-64.68
-67.79
-70.69
-73.88
-78.33
-84.9
-93.83
-104.5
-115.59
-125.51
-132.72
-136.03
-134.61
-128.06
-116.46
-100.4
-81.04
-59.94
-38.8
-19.16
-2.16
11.52
21.66
28.4
32.2
33.68
33.61
32.72
31.69
30.96
30.71
30.75
30.68
30.07
28.72
26.72
24.5
22.51
21
19.86
18.68
16.96
14.35
10.87
6.77
2.5
-1.46
-4.7
-6.82
-7.48
-6.56
-4.33
-1.52
0.76
1.4
-0.15
-3.63
-7.98
-11.81
-14.07
-14.42
-13.26
-11.37
-9.46
-7.81
-6.47
-5.42
-4.84
-5.13
-6.64
-9.39
-13
-16.85
-20.32
-23.04
-24.91
-26.01
-26.49
-26.5
-26.12
-25.16
-22.84
-17.9
-8.94
4.76
22.59
42.42
61.25
76.37
86.32
91.2
92.18
90.46
86.57
80.47
72.04
61.8
50.92
40.7
31.68
23.2
13.78
2.19
-11.48
-25.51
-36.94
-42.8
-41.28
-32.35
-17.62
0.47
19.49
37.61
53.82
67.78
79.61
89.65
98.31
105.77
111.78
115.64
116.49
113.85
108.17
100.82
93.53
87.46
82.65
78.05
72.46
65.45
57.87
51.39
47.57
46.84
48.26
50.02
50.43
48.67
44.86
39.67
33.66
26.94
19.17
9.86
-1.4
-14.67
-29.75
-46.1
-62.86
-78.9
-92.94
-103.85
-110.88
-113.95
-113.69
-111.24
-107.98
-105.07
-103.2
-102.53
-102.87
-103.95
-105.59
-107.66
-109.79
-111.17
-110.53
-106.55
-98.42
-86.33
-71.54
-55.98
-41.57
-29.53
-20.13
-12.92
-7.12
-2.17
2.16
5.72
8.29
9.69
9.91
9.09
7.41
5.12
2.45
-0.38
-3.28
-6.29
-9.65
-13.65
-18.59
-24.6
-31.51
-38.76
-45.38
-50.15
-51.84
-49.59
-43.19
-33.21
-20.88
-7.68
5
16.22
25.57
33.01
38.74
43
45.96
47.73
48.45
48.27
47.44
46.29
45.17
44.38
44.07
44.21
44.61
45.01
45.18
44.96
44.27
43.1
41.49
39.47
37.06
34.26
31.02
27.34
23.23
18.78
14.09
9.29
4.46
-0.38
-5.16
-9.82
-14.23
-18.34
-22.18
-26
-30.12
-34.75
-39.72
-44.41
-47.73
-48.51
-45.9
-39.68
-30.42
-19.28
-7.59
3.53
13.38
21.7
28.42
33.44
36.58
37.72
37.05
35.15
32.94
31.35
31.02
32.07
34.17
36.72
39.16
41.04
42.12
42.23
41.3
39.38
36.67
33.53
30.44
27.71
25.46
23.49
21.38
18.64
14.89
10.04
4.3
-1.8
-7.64
-12.66
-16.56
-19.34
-21.34
-23.1
-25.29
-28.48
-32.95
-38.43
-44.01
-48.27
-49.64
-46.92
-39.81
-29.01
-16.02
-2.61
9.66
19.7
26.91
31
32.03
30.37
26.86
22.73
19.3
17.57
17.85
19.76
22.52
25.39
28.03
30.56
33.28
36.27
39.16
41.18
41.38
39.14
34.38
27.66
19.96
12.27
5.34
-0.57
-5.66
-10.42
-15.51
-21.55
-28.92
-37.61
-47.07
-56.25
-63.81
-68.51
-69.7
-67.57
-63.12
-57.84
-53.25
-50.31
-49.25
-49.59
-50.47
-51.01
-50.67
-49.32
-47.21
-44.77
-42.42
-40.43
-38.84
-37.43
-35.81
-33.59
-30.54
-26.84
-23.03
-19.84
-17.77
-16.82
-16.49
-16.09
-15.11
-13.59
-12.02
-11.06
-11.12
-12.16
-13.86
-15.81
-17.86
-20.1
-22.78
-26.06
-29.8
-33.56
-36.59
-37.92
-36.51
-31.54
-22.66
-10.3
4.33
19.47
33.42
45.02
53.87
60.25
64.79
68.02
70.22
71.39
71.48
70.44
68.3
65.1
60.82
55.44
49.08
42.15
35.3
29.32
24.79
21.85
20.07
18.59
16.41
12.85
7.82
1.82
-4.3
-9.77
-14.3
-18.18
-22.13
-26.88
-32.88
-40.04
-47.85
-55.5
-62.07
-66.71
-68.67
-67.42
-62.7
-54.63
-43.79
-31.15
-17.85
-4.99
6.65
16.68
25.09
32.12
38
42.84
46.6
49.23
50.85
51.82
52.69
53.96
55.86
58.21
60.53
62.24
62.92
62.52
61.31
59.73
58.1
56.51
54.74
52.44
49.32
45.32
40.63
35.51
30.1
24.28
17.8
10.42
2.18
-6.59
-15.41
-23.84
-31.57
-38.42
-44.15
-48.29
-50.25
-49.5
-45.93
-39.98
-32.54
-24.73
-17.49
-11.43
-6.76
-3.36
-0.99
0.6
1.62
2.24
2.63
2.98
3.46
4.25
5.45
7.06
8.93
10.8
12.39
13.52
14.17
14.48
14.63
14.76
14.79
14.52
13.69
12.09
9.71
6.76
3.52
0.32
-2.61
-5.19
-7.41
-9.42
-11.41
-13.66
-16.43
-19.83
-23.72
-27.6
-30.75
-32.31
-31.57
-28.2
-22.38
-14.73
-6.14
2.52
10.63
17.95
24.5
30.4
35.66
40.11
43.47
45.54
46.39
46.39
46.36
47.48
51.17
58.89
71.64
89.48
111.19
134.39
156.23
174.1
186.36
192.33
191.94
185.28
172.58
154.54
132.78
109.79
88.27
70.05
55.22
42.18
28.58
12.76
-5.25
-23.6
-39.63
-51.28
-58.15
-61.66
-64.22
-68.16
-74.7
-83.73
-94.26
-104.96
-114.69
-122.57
-127.82
-129.71
-127.7
-121.88
-113.13
-102.98
-93.02
-84.24
-76.78
-70.14
-63.69
-57.22
-51.02
-45.6
-41.23
-37.71
-34.48
-31.03
-27.3
-23.74
-21.06
-19.72
-19.67
-20.2
-20.35
-19.36
-16.99
-13.59
-9.81
-6.27
-3.22
-0.5
2.18
5.09
8.22
11.41
14.56
17.91
22.03
27.61
35.14
44.64
55.64
67.43
79.39
91.09
102.2
112.26
120.58
126.45
129.5
130.05
128.89
126.84
124.15
120.34
114.47
105.78
94.2
80.36
65.19
49.34
32.9
15.48
-3.34
-23.78
-45.9
-69.57
-94.27
-118.55
-139.75
-154.41
-159.48
-153.82
-139.03
-119.08
-98.83
-82.19
-71.04
-65.27
-63.76
-65.39
-69.37
-74.93
-80.69
-84.48
-83.97
-77.71
-65.87
-50.32
-33.73
-18.58
-6.11
3.73
11.95
19.62
27.25
34.63
41.07
45.93
48.98
50.47
50.92
50.84
50.57
50.27
50.06
50.04
50.24
50.55
50.59
49.84
47.8
44.19
39.12
33.01
26.44
19.95
13.84
8.2
2.94
-2.1
-7.05
-11.92
-16.7
-21.24
-25.43
-29.21
-32.61
-35.78
-38.98
-42.46
-46.33
-50.45
-54.32
-57.14
-58.01
-56.18
-51.44
-44.19
-35.42
-26.36
-18.12
-11.36
-6.15
-2.19
0.85
3.08
4.35
4.44
3.4
1.62
-0.23
-1.56
-2.2
-2.49
-3.16
-4.94
-8.24
-12.96
-18.63
-24.72
-30.84
-36.79
-42.51
-47.8
-52.26
-55.36
-56.61
-55.79
-53.14
-49.32
-45.37
-42.4
-41.48
-43.47
-48.91
-57.86
-69.64
-82.77
-95
-103.68
-106.43
-101.89
-90.12
-72.71
-52.18
-31.22
-11.94
4.47
17.75
28.11
35.87
41.3
44.64
46.29
46.89
47.26
48.12
49.89
52.48
55.41
58.04
59.85
60.63
60.42
59.47
58
56.11
53.72
50.6
46.57
41.65
36.16
30.69
25.89
22.21
19.68
17.81
15.75
12.67
8
1.68
-5.78
-13.45
-20.22
-25.03
-27.13
-26.21
-22.49
-16.66
-9.74
-2.85
3.07
7.38
9.86
10.58
9.72
7.43
3.81
-1.09
-7.04
-13.63
-20.28
-26.42
-31.7
-36.09
-39.9
-43.57
-47.56
-52.16
-57.53
-63.71
-70.69
-78.35
-86.52
-94.86
-102.9
-110.05
-115.73
-119.39
-120.67
-119.41
-115.76
-110.22
-103.59
-96.86
-91
-86.73
-84.29
-83.33
-82.95
-81.87
-78.7
-72.28
-61.95
-47.73
-30.38
-11.29
7.78
25.11
39.44
50.23
57.74
62.82
66.56
69.89
73.36
77.04
80.71
84
86.55
88.11
88.51
87.62
85.46
82.17
78.15
73.92
70.02
66.8
64.21
61.81
58.9
54.73
48.8
41.09
32.16
22.99
14.65
7.96
3.13
-0.4
-3.68
-7.91
-13.96
-22.1
-31.95
-42.61
-52.9
-61.6
-67.53
-69.74
-67.68
-61.43
-51.79
-40.17
-28.25
-17.5
-8.84
-2.51
1.75
4.4
5.81
6.22
5.72
4.54
3.06
1.85
1.4
1.92
3.2
4.73
5.93
6.38
6.02
5.11
4.08
3.31
2.93
2.77
2.4
1.28
-1
-4.6
-9.3
-14.61
-19.9
-24.69
-28.74
-32.2
-35.45
-38.95
-43.09
-48.02
-53.67
-59.69
-65.4
-69.83
-71.77
-69.97
-63.57
-52.44
-37.43
-20.2
-2.78
13.01
25.96
35.73
42.6
47.17
50.02
51.63
52.41
52.83
53.43
54.63
56.52
58.71
60.41
60.83
59.49
56.56
52.74
49
46.1
44.35
43.51
42.97
42.14
40.62
38.32
35.39
32.1
28.59
24.86
20.77
16.02
10.23
3.02
-5.89
-16.44
-28.09
-39.69
-49.73
-56.68
-59.5
-57.97
-52.76
-45.07
-36.23
-27.26
-18.74
-10.92
-3.94
2.02
6.71
9.96
11.79
12.52
12.68
12.81
13.35
14.43
15.93
17.59
19.14
20.45
21.58
22.78
24.32
26.4
29
31.84
34.44
36.21
36.65
35.44
32.55
28.24
22.94
17.11
11.16
5.37
-0.16
-5.54
-11.04
-17.11
-24.23
-32.65
-42.08
-51.54
-59.43
-63.84
-63.15
-56.64
-44.77
-29.16
-12.12
4.07
17.76
28.25
35.72
40.87
44.44
46.96
48.7
49.8
50.36
50.57
50.59
50.53
50.3
49.73
48.69
47.17
45.35
43.43
41.59
40.04
38.89
38.34
38.55
39.49
40.84
41.98
42.16
40.81
37.77
33.27
27.7
21.3
13.99
5.45
-4.62
-16.21
-28.9
-42.05
-54.87
-66.56
-76.23
-82.76
-84.97
-81.9
-73.32
-60.07
-43.96
-27.31
-12.17
0.23
9.67
16.65
21.89
25.84
28.53
29.71
29.12
26.85
23.29
19.06
14.79
10.94
7.72
5.17
3.23
1.85
1.07
0.95
1.52
2.7
4.19
5.57
6.41
6.44
5.62
4.14
2.24
0.06
-2.42
-5.34
-8.87
-13.21
-18.63
-25.44
-33.84
-43.57
-53.64
-62.37
-67.93
-69.05
-65.72
-59.29
-51.97
-45.91
-42.44
-41.8
-43.44
-46.61
-50.66
-55.07
-59.01
-61.19
-60.04
-54.35
-43.98
-30.12
-15.01
-1.02
10.08
17.71
22.34
25.02
26.83
28.4
29.86
30.93
31.12
29.96
27.17
22.83
17.39
11.64
6.51
2.86
1.26
1.83
4.09
6.94
8.94
8.82
6.27
2.3
-0.73
0
6.72
19.97
38.39
59.28
79.68
97.39
111.4
121.71
128.62
132.37
133
130.63
125.7
119
111.4
103.5
95.45
86.98
77.67
67.28
55.88
43.98
32.34
21.67
12.43
4.52
-2.75
-10.41
-19.41
-30.08
-41.86
-53.49
-63.57
-71.28
-76.82
-81.31
-86.34
-93.19
-102.42
-113.56
-125.24
-135.45
-141.92
-142.56
-135.97
-121.96
-101.63
-77.27
-51.65
-27.39
-6.31
10.73
23.73
33.19
39.87
44.62
48.31
51.76
55.57
60.01
64.92
69.81
74.05
77.01
78.24
77.62
75.27
71.61
67.26
62.88
58.98
55.81
53.25
50.94
48.38
45.17
41.12
36.29
30.93
25.31
19.65
13.97
8.07
1.51
-6.23
-15.63
-26.82
-39.36
-52.13
-63.41
-71.28
-74.09
-71.07
-62.5
-49.72
-34.71
-19.49
-5.64
6.06
15.58
23.41
30.18
36.38
42.19
47.58
52.4
56.54
60.02
62.96
65.51
67.75
69.64
71.01
71.62
71.29
69.98
67.84
65.12
62.07
58.72
54.82
49.96
43.74
36.01
27.06
17.51
8.1
-0.59
-8.34
-15.35
-22.06
-29.04
-36.74
-45.41
-55.13
-65.64
-76.35
-86.21
-93.81
-97.58
-96.23
-89.24
-77.09
-61.3
-44.01
-27.35
-12.87
-1.25
7.65
14.41
19.7
23.94
27.23
29.54
30.88
31.5
31.87
32.55
33.96
36.25
39.19
42.36
45.26
47.55
49.11
49.97
50.19
49.72
48.38
45.89
42.09
37.01
30.94
24.32
17.6
11.11
5
-0.74
-6.25
-11.77
-17.65
-24.24
-31.74
-39.86
-47.74
-53.98
-57.09
-56.12
-51.04
-42.81
-32.96
-23.01
-14.01
-6.39
-0.17
4.7
8.17
10.14
10.64
9.97
8.6
7.05
5.67
4.55
3.69
3.03
2.5
2.01
1.43
0.56
-0.79
-2.72
-5.22
-8.17
-11.45
-14.9
-18.28
-21.24
-23.42
-24.55
-24.62
-23.96
-23.03
-22.37
-22.36
-23.19
-24.98
-27.88
-32.08
-37.7
-44.54
-51.81
-58.22
-62.17
-62.25
-57.71
-48.78
-36.62
-22.99
-9.76
1.6
10.29
16.16
19.5
20.77
20.39
18.67
15.88
12.26
8.09
3.64
-0.93
-5.51
-10.07
-14.5
-18.66
-22.33
-25.42
-28.05
-30.53
-33.28
-36.63
-40.7
-45.33
-50.25
-55.14
-59.74
-63.79
-66.93
-68.77
-68.94
-67.4
-64.47
-60.84
-57.38
-54.86
-53.82
-54.48
-56.76
-60.26
-64.22
-67.48
-68.64
-66.42
-60.08
-49.72
-36.34
-21.49
-6.8
6.45
17.57
26.39
33.08
37.92
41.15
43.01
43.79
43.95
44.29
45.98
50.3
58.27
70.07
84.82
100.78
115.92
128.77
138.88
146.82
153.58
159.9
165.83
170.78
173.88
174.51
172.54
168.38
162.72
156.2
149.12
141.24
131.79
119.74
104.25
85.16
63.13
39.52
15.82
-6.83
-27.86
-46.9
-63.44
-76.45
-84.67
-87.21
-84.12
-76.78
-67.44
-58.49
-51.57
-47.1
-44.33
-41.91
-38.59
-33.8
-27.82
-21.55
-16.08
-12.25
-10.44
-10.52
-12.04
-14.44
-17.23
-20.08
-22.88
-25.67
-28.68
-32.21
-36.56
-41.7
-47.05
-51.56
-53.91
-53.09
-48.77
-41.51
-32.53
-23.28
-14.99
-8.45
-4.07
-1.98
-2.25
-4.74
-9.03
-14.36
-19.82
-24.55
-28.03
-30.12
-30.86
-30.28
-28.39
-25.16
-20.73
-15.46
-9.89
-4.52
0.34
4.65
8.48
11.87
14.68
16.63
17.54
17.51
17
16.72
17.32
19.18
22.17
25.8
29.48
32.68
35.18
36.99
38.17
38.67
38.12
36.04
32.01
26.01
18.52
10.49
2.96
-3.27
-7.96
-11.37
-14.2
-17.15
-20.72
-25.02
-29.73
-34.13
-37.34
-38.47
-36.92
-32.62
-26.03
-18.04
-9.62
-1.54
5.82
12.26
17.59
21.36
22.93
21.69
17.41
10.43
1.59
-7.9
-16.77
-23.83
-28.21
-29.55
-28.1
-24.84
-21.18
-18.51
-17.7
-18.77
-20.98
-23.36
-25.19
-26.3
-26.99
-27.67
-28.48
-29.27
-29.74
-29.77
-29.59
-29.71
-30.58
-32.35
-34.62
-36.51
-36.88
-34.61
-29.01
-19.97
-8.03
5.79
20.28
34.51
48.07
61.18
74.33
87.8
101.1
112.8
120.93
123.7
120.34
111.46
98.84
84.71
70.95
58.65
48.19
39.65
33.05
28.4
25.35
23.04
20.22
15.8
9.42
1.65
-6.3
-13.19
-18.35
-21.79
-23.87
-24.87
-24.83
-23.86
-22.51
-21.78
-22.52
-24.56
-26.24
-24.95
-18.38
-5.9
10.84
28.56
43.68
53.63
57.32
54.83
46.72
33.71
16.8
-2.33
-21.23
-37.17
-48.13
-53.43
-54.01
-51.9
-49.51
-48.85
-51.11
-56.49
-64.32
-73.31
-81.96
-88.98
-93.6
-95.67
-95.47
-93.5
-90.26
-86.3
-82.26
-78.95
-77.31
-78.18
-82.03
-88.5
-96.23
-102.92
-105.84
-102.72
-92.63
-76.31
-55.85
-33.89
-12.67
6.36
22.66
36.23
47.55
57.57
67.77
79.7
94.1
110.07
124.85
134.97
137.95
133.79
125.05
115.61
108.78
105.8
105.66
106.04
104.61
100
92.09
81.63
69.69
57.24
44.88
32.79
20.72
8.27
-4.69
-17.66
-29.53
-39.02
-45.41
-48.91
-50.62
-51.8
-53.25
-54.88
-56.03
-56.01
-54.64
-52.42
-50.13
-48.45
-47.61
-47.39
-47.51
-47.88
-48.78
-50.58
-53.49
-57.32
-61.39
-64.85
-67
-67.47
-66.27
-63.64
-59.91
-55.69
-51.89
-49.85
-51.01
-56.5
-66.7
-81.06
-98.4
-117.24
-136.19
-153.85
-168.69
-178.91
-182.73
-178.92
-167.38
-149.16
-125.97
-99.32
-69.88
-37.41
-1.15
39.46
84.31
132.27
181.16
227.94
269.12
301.44
322.7
332.51
332.49
325.75
315.81
305.47
296.14
287.91
280.14
272.23
263.88
255.02
245.56
235.23
223.66
210.58
195.83
179.4
161.26
141.62
121.03
100.58
81.61
65.12
51.18
38.83
26.44
12.61
-3.15
-20.22
-37.38
-53.55
-68.36
-82.09
-95.19
-107.65
-118.86
-127.83
-133.72
-136.29
-136.05
-134.14
-131.93
-130.61
-130.83
-132.54
-135.04
-137.3
-138.34
-137.62
-135.11
-131.17
-126.33
-120.95
-115.2
-109.11
-102.79
-96.52
-90.72
-85.82
-82.02
-79.18
-76.95
-74.91
-72.73
-70.34
-67.86
-65.52
-63.47
-61.63
-59.72
-57.26
-53.73
-48.72
-42.07
-33.89
-24.63
-14.94
-5.58
2.82
9.89
15.63
20.23
23.96
27.05
29.54
31.48
32.98
34.32
35.84
37.76
40.05
42.36
44.23
45.26
45.28
44.44
42.99
41.22
39.22
36.96
34.28
31.1
27.38
23.23
18.83
14.34
9.91
5.53
1.15
-3.36
-8.07
-13.02
-18.13
-23.32
-28.47
-33.49
-38.23
-42.51
-46.09
-48.74
-50.31
-50.74
-50.05
-48.31
-45.57
-41.87
-37.35
-32.19
-26.7
-21.19
-15.89
-10.96
-6.44
-2.36
1.21
4.22
6.55
8.2
9.28
10.03
10.77
11.76
13.1
14.65
16.04
16.82
16.66
15.51
13.57
11.22
8.81
6.48
4.14
1.6
-1.34
-4.77
-8.65
-12.83
-17.12
-21.23
-24.82
-27.61
-29.57
-31.11
-33.02
-36.21
-41.38
-48.58
-57.08
-65.59
-72.66
-77.12
-78.48
-76.85
-72.81
-67
-60.01
-52.21
-43.88
-35.34
-26.95
-19.07
-12.02
-5.94
-0.83
3.44
7.03
10.06
12.58
14.59
16
16.77
16.95
16.68
16.23
15.88
15.82
16.05
16.32
16.3
15.59
13.95
11.33
7.9
3.98
-0.06
-3.86
-7.18
-9.98
-12.41
-14.83
-17.64
-21.15
-25.44
-30.25
-34.95
-38.62
-40.25
-39.07
-34.73
-27.58
-18.49
-8.67
0.73
8.88
15.44
20.44
24.15
26.82
28.6
29.61
29.97
29.88
29.62
29.43
29.45
29.58
29.65
29.37
28.6
27.36
25.81
24.12
22.36
20.43
18.15
15.38
12.16
8.65
5.09
1.64
-1.66
-4.86
-8.01
-11.14
-14.26
-17.47
-20.99
-25.08
-29.88
-35.16
-40.25
-44.07
-45.51
-43.8
-38.82
-31.2
-22.08
-12.75
-4.25
2.88
8.61
13.13
16.72
19.53
21.58
22.88
23.43
23.39
22.96
22.34
21.7
21.13
20.64
20.16
19.6
18.93
18.12
17.2
16.23
15.17
13.93
12.31
10.11
7.22
3.69
-0.24
-4.25
-8.03
-11.44
-14.49
-17.45
-20.65
-24.42
-29
-34.29
-39.94
-45.21
-49.18
-50.95
-49.94
-46
-39.58
-31.54
-22.93
-14.69
-7.4
-1.27
3.82
8.05
11.61
14.52
16.74
18.23
19.03
19.33
19.42
19.61
20.06
20.77
21.59
22.28
22.6
22.45
21.88
21.06
20.15
19.17
18.01
16.4
14.12
11.13
7.59
3.85
0.29
-2.84
-5.58
-8.11
-10.76
-13.84
-17.51
-21.78
-26.49
-31.27
-35.48
-38.34
-39.04
-37.01
-32.15
-24.89
-16.07
-6.72
2.23
10.17
16.73
21.82
25.5
27.87
29.1
29.4
28.99
28.08
26.94
25.77
24.8
24.13
23.74
23.5
23.24
22.85
22.34
21.82
21.32
20.74
19.74
17.91
14.97
10.94
6.2
1.31
-3.16
-6.91
-10
-12.75
-15.63
-18.97
-22.98
-27.65
-32.77
-37.9
-42.39
-45.4
-46.04
-43.66
-38.03
-29.6
-19.37
-8.66
1.25
9.47
15.57
19.6
21.87
22.78
22.67
21.83
20.55
19.07
17.65
16.49
15.66
15.2
15.02
15.04
15.16
15.28
15.3
15.03
14.23
12.69
10.25
6.98
3.15
-0.88
-4.82
-8.55
-12.16
-15.89
-20.07
-24.93
-30.52
-36.55
-42.31
-46.79
-48.82
-47.47
-42.41
-34.11
-23.74
-12.81
-2.67
5.81
12.37
17.11
20.26
21.97
22.29
21.31
19.35
16.92
14.63
12.91
11.92
11.45
11.08
10.39
9.15
7.36
5.24
3.05
0.97
-0.93
-2.69
-4.36
-6.01
-7.7
-9.58
-11.81
-14.59
-18.11
-22.36
-27.1
-31.78
-35.61
-37.65
-37.02
-33.19
-26.08
-16.2
-4.51
7.81
19.65
30.13
38.76
45.31
49.81
52.36
53.08
52.12
49.72
46.21
42
37.55
33.19
29.17
25.55
22.32
19.44
16.79
14.26
11.61
8.55
4.82
0.31
-4.88
-10.46
-16.05
-21.4
-26.44
-31.38
-36.61
-42.56
-49.49
-57.32
-65.4
-72.5
-77.07
-77.61
-73.28
-64.22
-51.61
-37.25
-22.98
-10.13
0.68
9.39
16.19
21.18
24.42
26
26.24
25.63
24.79
24.18
23.99
24.11
24.3
24.32
24.09
23.62
22.98
22.19
21.14
19.64
17.41
14.29
10.24
5.39
0.07
-5.35
-10.61
-15.65
-20.69
-26.18
-32.63
-40.32
-49.09
-58.14
-66.04
-71.1
-71.82
-67.41
-58.05
-44.89
-29.73
-14.44
-0.47
11.35
20.83
28.19
33.73
37.68
40.14
41.24
41.29
40.76
40.19
39.98
40.24
40.74
41.03
40.7
39.62
37.93
36
34.18
32.51
30.67
28.11
24.28
18.93
12.31
5.1
-1.85
-7.89
-12.83
-17.01
-21.2
-26.25
-32.8
-41.09
-50.75
-60.83
-69.8
-75.87
-77.38
-73.37
-63.92
-50.24
-34.31
-18.28
-3.83
8.21
17.77
25.22
30.94
35.11
37.77
39.02
39.19
38.9
38.78
39.31
40.56
42.19
43.65
44.41
44.23
43.22
41.77
40.28
38.96
37.62
35.78
32.89
28.58
22.91
16.32
9.53
3.15
-2.48
-7.38
-11.91
-16.59
-21.95
-28.38
-36.01
-44.6
-53.43
-61.21
-66.39
-67.46
-63.49
-54.49
-41.47
-26.19
-10.67
3.4
14.93
23.57
29.55
33.37
35.56
36.48
36.42
35.6
34.35
33.05
32.14
31.91
32.39
33.39
34.48
35.23
35.3
34.43
32.49
29.39
25.14
19.88
13.91
7.71
1.7
-3.86
-9.03
-14.22
-20.04
-27.02
-35.36
-44.69
-53.95
-61.55
-65.7
-64.92
-58.58
-47.17
-32.21
-15.76
0.14
14.06
25.33
33.96
40.24
44.42
46.66
47.1
46.1
44.33
42.6
41.61
41.59
42.25
42.93
42.99
42.15
40.59
38.8
37.26
36.06
34.84
32.92
29.59
24.45
17.65
9.76
1.6
-6.07
-12.79
-18.57
-23.78
-29.16
-35.48
-43.39
-53.08
-63.99
-74.74
-83.24
-87.19
-84.89
-75.85
-61.14
-43.05
-24.33
-7.24
7
18.31
27.34
34.86
41.35
46.87
51.24
54.35
56.26
57.29
57.79
58.08
58.35
58.61
58.83
58.91
58.77
58.3
57.38
55.87
53.62
50.56
46.75
42.28
37.32
31.97
26.25
20.1
13.45
6.36
-1.02
-8.37
-15.41
-21.92
-27.85
-33.46
-39.2
-45.7
-53.56
-63
-73.52
-83.72
-91.49
-94.59
-91.36
-81.47
-66.07
-47.44
-28.2
-10.49
4.59
16.92
26.99
35.37
42.4
48.13
52.53
55.76
58.14
60.09
61.95
63.76
65.33
66.35
66.61
66.12
65.16
64.08
63.14
62.34
61.36
59.65
56.71
52.3
46.62
40.22
33.87
28.24
23.56
19.62
15.75
11.25
5.6
-1.23
-8.77
-16.3
-23.1
-28.8
-33.49
-37.67
-42.09
-47.51
-54.53
-63.34
-73.59
-84.19
-93.42
-99.19
-99.62
-93.64
-81.52
-64.79
-45.83
-27.08
-10.38
3.48
14.56
23.41
30.58
36.38
40.85
44.01
46.06
47.35
48.36
49.4
50.55
51.67
52.5
52.91
52.93
52.78
52.62
52.5
52.2
51.29
49.3
45.93
41.23
35.6
29.75
24.34
19.71
15.77
12.01
7.78
2.6
-3.53
-10.18
-16.71
-22.54
-27.48
-31.76
-35.94
-40.75
-46.8
-54.51
-63.8
-73.94
-83.51
-90.52
-92.96
-89.43
-79.68
-64.86
-47.08
-28.84
-12.2
1.64
12.42
20.52
26.55
31.02
34.26
36.43
37.69
38.23
38.35
38.32
38.44
38.84
39.51
40.27
40.92
41.22
41
40.22
38.86
36.96
34.54
31.61
28.19
24.29
19.94
15.15
9.96
4.44
-1.28
-6.98
-12.46
-17.57
-22.27
-26.7
-31.13
-35.92
-41.53
-48.27
-56.13
-64.48
-71.91
-76.48
-76.22
-69.89
-57.56
-40.79
-22.1
-4.21
10.79
22.02
29.68
34.59
37.64
39.35
39.83
39.04
37.09
34.44
31.78
29.82
28.99
29.24
30.14
31.04
31.43
31.06
30.04
28.64
27.11
25.5
23.63
21.14
17.7
13.16
7.62
1.45
-4.87
-10.91
-16.43
-21.44
-26.15
-30.85
-35.87
-41.5
-47.98
-55.43
-63.7
-72.15
-79.58
-84.41
-85.07
-80.57
-70.88
-57.08
-41.01
-24.74
-9.94
2.45
12.25
19.79
25.6
30.03
33.29
35.4
36.42
36.56
36.18
35.77
35.73
36.26
37.25
38.33
39.01
38.92
37.9
36.07
33.77
31.3
28.8
26.16
23.01
18.98
13.87
7.78
1.13
-5.53
-11.75
-17.35
-22.45
-27.37
-32.52
-38.26
-44.89
-52.63
-61.43
-70.87
-79.89
-86.83
-89.82
-87.39
-79.03
-65.55
-48.85
-31.35
-15.19
-1.64
8.98
17.11
23.47
28.6
32.77
35.98
38.21
39.52
40.09
40.25
40.27
40.34
40.51
40.73
40.92
40.97
40.8
40.29
39.31
37.72
35.42
32.38
28.71
24.57
20.11
15.38
10.35
4.95
-0.82
-6.84
-12.95
-18.97
-24.8
-30.4
-35.83
-41.22
-46.83
-53.07
-60.31
-68.63
-77.43
-85.32
-90.32
-90.52
-84.79
-73.32
-57.64
-40.1
-23.04
-8.18
3.8
13.04
20.18
25.9
30.66
34.64
37.8
40.11
41.6
42.46
42.97
43.45
44.03
44.71
45.33
45.7
45.65
45.16
44.18
42.68
40.57
37.73
34.16
29.99
25.45
20.74
15.92
10.87
5.39
-0.63
-7.08
-13.66
-19.95
-25.65
-30.72
-35.39
-40.12
-45.47
-51.9
-59.57
-68.09
-76.41
-82.85
-85.49
-82.75
-74.03
-60.03
-42.62
-24.23
-7.16
7.12
18.18
26.47
32.78
37.8
41.86
45.01
47.19
48.46
48.98
48.99
48.62
47.86
46.68
45.13
43.43
41.89
40.71
39.89
39.12
37.98
36.1
33.34
29.79
25.7
21.25
16.56
11.66
6.54
1.23
-4.17
-9.52
-14.65
-19.43
-23.8
-27.83
-31.76
-36.01
-41.08
-47.47
-55.28
-64.04
-72.5
-78.82
-81.04
-77.79
-68.82
-55.18
-38.89
-22.29
-7.26
5.11
14.68
21.81
26.93
30.36
32.21
32.62
31.89
30.59
29.36
28.74
28.94
29.82
30.96
31.92
32.37
32.25
31.74
31.06
30.36
29.56
28.33
26.2
22.8
18.04
12.19
5.82
-0.39
-5.93
-10.62
-14.68
-18.58
-22.86
-28
-34.28
-41.7
-49.89
-58.05
-64.91
-68.93
-68.66
-63.26
-52.95
-38.96
-23.27
-7.93
5.54
16.41
24.64
30.54
