32.12
36.67
46.97
61.53
77.04
89.7
97.07
98.87
96.23
90.04
79.86
63.96
40.99
12.07
-18.67
-45.37
-62.98
-69.66
-67.5
-61.08
-55.07
-52.17
-52.39
-54.25
-56.25
-57.87
-59.44
-61.4
-63.62
-65.2
-65.02
-62.24
-56.99
-50.37
-44.01
-39.36
-37.09
-36.75
-37
-35.88
-31.46
-22.37
-8.07
10.93
33.21
56.64
78.96
98.36
114.05
126.31
136.12
144.25
150.57
153.75
151.73
142.62
125.61
101.42
72.04
40.08
8.03
-22.48
-50.71
-76.42
-99.12
-117.74
-130.72
-136.8
-135.82
-128.89
-117.99
-104.75
-89.87
-73.25
-55.19
-37.3
-22.36
-12.81
-8.89
-7.9
-5.25
2.89
17.22
34.75
50.51
60.42
63.58
62.57
61.89
65.48
74.98
89.35
105.91
121.78
134.84
143.95
148.74
149.15
145.14
136.72
124.14
108.03
89.47
69.87
50.68
33.15
17.99
5.38
-5.13
-14.27
-22.83
-31.38
-40
-48.35
-55.95
-62.66
-69.01
-75.93
-84.15
-93.37
-102.05
-107.87
-108.91
-104.69
-96.5
-86.62
-77.08
-68.63
-60.8
-52.68
-44.02
-35.65
-29
-25.13
-23.94
-24.32
-24.93
-25.03
-24.58
-23.58
-21.3
-16.12
-6.25
8.99
28.33
48.79
66.93
80.46
89.21
94.88
99.79
105.21
110.59
113.77
112.18
104.3
90.45
72.39
52.35
31.97
11.87
-8.1
-28.02
-47.39
-65.02
-79.42
-89.29
-93.79
-92.66
-86.12
-74.94
-60.35
-44.05
-27.77
-12.89
-0.08
10.74
20.01
28.25
35.86
43.29
51.06
59.66
68.91
77.75
84.33
86.83
84.46
77.97
69.32
60.58
52.92
46.2
39.41
31.63
22.88
14.07
6.26
-0.25
-6.2
-12.82
-20.8
-29.56
-37.24
-41.7
-41.66
-37.55
-31.38
-25.79
-22.84
-23.04
-25.34
-27.82
-28.72
-27.28
-24.14
-20.88
-19.25
-20.3
-23.87
-28.71
-33.19
-36.12
-37.33
-37.61
-38.01
-39.16
-40.81
-42.02
-41.78
-39.66
-35.95
-31.47
-26.93
-22.6
-18.28
-13.64
-8.57
-3.35
1.54
5.75
9.14
11.81
13.79
14.93
14.88
13.37
10.39
6.22
1.26
-4.24
-10.22
-16.75
-23.76
-30.95
-37.82
-43.93
-49.11
-53.58
-57.74
-61.74
-65.24
-67.54
-68
-66.44
-63.35
-59.6
-55.87
-52.2
-47.86
-41.89
-33.78
-23.9
-13.46
-3.9
3.73
9.29
13.27
16.38
19.02
21.1
22.23
22.16
21
19.25
17.57
16.39
15.81
15.61
15.5
15.43
15.55
16.13
17.31
18.95
20.58
21.69
22.04
21.78
21.46
21.62
22.52
23.92
25.24
25.9
25.79
25.43
25.78
27.76
31.8
37.55
43.97
49.65
53.33
54.31
52.6
48.9
44.22
39.4
34.85
30.63
26.68
23.26
20.89
19.94
19.9
19.21
15.67
7.71
-4.46
-18.44
-30.48
-37.22
-37.21
-31.44
-22.5
-13.14
-4.95
1.81
7.5
12.17
15.09
15.27
12.25
6.68
0.09
-5.75
-9.69
-11.53
-11.79
-11.24
-10.5
-9.93
-9.74
-10.12
-11.13
-12.57
-13.98
-14.89
-15.2
-15.38
-16.26
-18.51
-22.19
-26.57
-30.47
-32.94
-33.73
-33.43
-33.02
-33.28
-34.39
-35.9
-37.14
-37.7
-37.68
-37.5
-37.56
-37.87
-38.02
-37.41
-35.63
-32.67
-28.91
-24.88
-20.93
-17.16
-13.45
-9.67
-5.84
-2.15
1.18
4.01
6.35
8.34
10.21
12.1
14.02
15.91
17.66
19.11
20.17
20.71
20.6
19.71
17.97
15.45
12.34
8.97
5.65
2.61
-0.03
-2.26
-4.09
-5.46
-6.28
-6.52
-6.31
-5.95
-5.97
-6.79
-8.62
-11.25
-14.06
-16.27
-17.13
-16.23
-13.51
-9.26
-3.92
1.99
8.02
13.77
18.9
23.24
26.73
29.49
31.72
33.65
35.48
37.28
39.03
40.65
42.05
43.18
44
44.45
44.35
43.4
41.26
37.69
32.74
26.85
20.73
15.09
10.37
6.52
3.06
-0.65
-4.99
-9.99
-15.31
-20.47
-25.16
-29.36
-33.15
-36.61
-39.64
-41.97
-43.32
-43.58
-42.84
-41.24
-38.82
-35.4
-30.73
-24.77
-17.85
-10.66
-3.99
1.58
5.9
9.14
11.59
13.4
14.51
14.77
14.07
12.53
10.47
8.34
6.54
5.31
4.57
3.98
3.12
1.54
-0.9
-4.01
-7.29
-10.12
-12.08
-13.07
-13.3
-13.13
-12.82
-12.38
-11.52
-9.88
-7.16
-3.36
1.24
6.12
10.67
14.3
16.51
16.91
15.32
12.05
8
4.76
4.29
8.17
16.88
29.44
43.52
56.27
65.32
69.42
68.47
63.06
53.93
41.77
27.53
12.7
-0.52
-9.7
-13.06
-10.24
-2.57
7.44
17.14
24.78
29.93
33.29
35.78
37.61
37.9
35.06
27.78
16.08
1.74
-12.45
-23.91
-31.52
-36.06
-39.51
-43.72
-49.32
-55.54
-60.87
-64.2
-65.46
-65.5
-65.28
-65.1
-64.43
-62.31
-58.06
-51.77
-44.27
-36.76
-30.31
-25.5
-22.28
-20.12
-18.3
-16.13
-13.38
-10.3
-7.47
-5.46
-4.35
-3.59
-2.27
0.42
4.63
9.79
14.82
18.68
20.86
21.53
21.33
21.03
21.05
21.38
21.56
20.94
18.98
15.52
10.97
6.28
2.58
0.74
0.95
2.62
4.68
6.02
6
4.68
2.68
0.97
0.36
1.33
3.9
7.77
12.59
18.01
23.78
29.5
34.57
38.15
39.41
37.83
33.5
27.24
20.22
13.53
7.71
2.67
-2.11
-7.03
-12.02
-16.52
-19.79
-21.37
-21.43
-20.7
-20.13
-20.47
-21.86
-23.83
-25.54
-26.19
-25.36
-23.11
-19.86
-16.12
-12.24
-8.3
-4.17
0.25
4.86
9.33
13.42
17.23
21.44
27.21
35.71
47.51
62.2
78.47
94.55
108.87
120.46
128.9
134.19
136.36
135.45
131.77
126.21
120.12
115.05
112.06
111.31
112.04
112.82
111.99
108.05
99.83
86.65
68.56
46.58
22.63
-0.83
-21.61
-38.51
-51.65
-62.23
-71.75
-81.25
-90.98
-100.63
-109.87
-118.77
-127.87
-137.81
-148.82
-160.43
-171.43
-180.36
-185.92
-187.38
-184.59
-177.87
-167.8
-155.04
-140.35
-124.5
-108.27
-92.32
-77.14
-63.19
-50.91
-40.78
-33.06
-27.57
-23.67
-20.72
-18.65
-18.16
-20.24
-24.99
-30.76
-34.19
-31.56
-20.68
-2.29
20.12
41.81
59.01
70.32
76.64
80.1
82.6
85.04
87.47
89.65
91.53
93.31
95.16
97
98.5
99.23
98.71
96.43
91.87
84.71
75.21
64.35
53.73
44.95
39.02
35.82
34.42
33.51
32.18
30.26
28.26
26.93
26.74
27.53
28.41
28.1
25.29
19.11
9.64
-2.08
-14.11
-24.25
-30.7
-32.61
-30.26
-24.94
-18.49
-12.71
-8.99
-7.99
-9.72
-13.59
-18.68
-23.87
-28.04
-30.23
-29.8
-26.71
-21.53
-15.41
-9.65
-5.35
-3.14
-3.13
-5.15
-9.02
-14.58
-21.53
-29.2
-36.38
-41.68
-43.97
-42.84
-38.76
-32.79
-26.11
-19.59
-13.64
-8.32
-3.55
0.65
4.14
6.79
8.6
9.78
10.82
12.3
14.72
18.34
23.09
28.56
34.11
39.01
42.57
44.31
44.09
42.07
38.61
34.23
29.46
24.87
20.99
18.27
16.73
15.92
14.9
12.66
8.66
3.07
-3.3
-9.6
-15.45
-20.99
-26.61
-32.31
-37.46
-41.05
-42.31
-41.09
-37.83
-33.05
-26.91
-19.22
-9.81
0.94
12.07
22.31
30.73
37.13
41.96
45.93
49.58
53.09
56.45
59.65
62.76
65.85
68.74
71.02
72.26
72.08
70.36
67.13
62.36
56.02
48.04
38.54
28.03
17.46
7.89
0.27
-5.01
-8.26
-10.4
-12.59
-15.81
-20.6
-27
-34.72
-43.34
-52.52
-62.02
-71.52
-80.54
-88.36
-94.15
-97.28
-97.47
-94.98
-90.44
-84.68
-78.37
-71.93
-65.48
-59.01
-52.49
-46.1
-40.12
-34.89
-30.64
-27.32
-24.56
-21.83
-18.65
-14.84
-10.62
-6.5
-3.09
-0.82
0.2
0.24
-0.2
-0.57
-0.44
0.39
1.98
4.23
7.11
10.58
14.54
18.77
22.93
26.58
29.27
30.7
30.81
29.78
27.95
25.7
23.28
20.87
18.58
16.55
15.01
14.27
14.59
16.09
18.55
21.48
24.19
26.22
27.47
28.37
29.57
31.54
34.29
37.19
39.3
39.68
37.92
34.3
29.68
25.18
21.74
19.88
19.53
20.17
20.93
20.91
19.29
15.56
9.53
1.52
-7.85
-17.64
-26.84
-34.62
-40.48
-44.33
-46.45
-47.28
-47.27
-46.78
-46.01
-45.12
-44.12
-42.98
-41.58
-39.78
-37.53
-35.03
-32.73
-31.18
-30.79
-31.62
-33.28
-35.04
-36.28
-36.77
-36.84
-37.21
-38.65
-41.53
-45.85
-51.21
-56.98
-62.24
-65.57
-65.13
-59.02
-46.2
-27.22
-4.47
18.35
37.51
50.48
56.61
57
53.59
48.35
42.64
37.3
33.04
30.69
31.2
35.18
42.49
52.06
62.23
71.25
78
82.29
84.83
86.69
88.72
91
92.83
93.1
90.85
85.72
78.19
69.46
61.11
54.64
51.08
50.56
52.2
54.25
54.65
51.78
45.16
35.6
24.66
13.76
3.29
-7.55
-20.18
-35.54
-53.29
-71.67
-88.32
-101.4
-110.36
-115.9
-119.29
-121.48
-122.68
-122.34
-119.67
-114.02
-105.1
-92.86
-77.4
-59.01
-38.31
-16.39
5.36
25.68
43.98
60.49
76.18
92.01
108.13
123.4
135.4
141.03
137.58
123.79
100.6
71.37
41.26
16.01
0.34
-3.4
4.21
20.17
40.33
60.47
76.96
86.94
88.55
81.42
67.02
48.5
29.82
14.49
4.72
1.37
4.5
13.71
27.89
44.58
59.8
69.18
69.75
61.7
48.53
35.32
26.08
21.72
20.07
17.55
11.44
1.21
-11.62
-24.66
-35.99
-44.97
-52.19
-59.03
-67.31
-78.7
-94.39
-114.52
-137.94
-162.28
-184.65
-202.38
-213.75
-218.34
-216.77
-210.17
-199.76
-186.72
-172.26
-157.76
-144.49
-133.1
-123.33
-114.04
-103.82
-91.71
-77.46
-61.3
-43.57
-24.38
-3.87
17.24
37.27
53.87
64.84
69.17
67.6
62.21
55.64
49.91
45.94
43.58
42.24
41.4
40.96
41.08
41.83
42.77
43
41.34
36.95
29.76
20.49
10.49
1.11
-6.71
-12.74
-17.29
-20.88
-23.94
-26.6
-28.82
-30.39
-31.11
-30.82
-29.55
-27.48
-24.97
-22.49
-20.42
-18.99
-18.26
-18.12
-18.47
-19.15
-19.95
-20.49
-20.23
-18.63
-15.37
-10.58
-4.78
1.25
6.74
11.1
14.04
15.49
15.52
14.32
12.23
9.69
7.23
5.3
4.17
3.89
4.34
5.36
6.75
8.36
9.98
11.28
11.92
11.62
10.36
8.39
6.23
4.37
3.13
2.55
2.42
2.44
2.37
2.08
1.53
0.7
-0.43
-1.89
-3.64
-5.4
-6.73
-7.16
-6.37
-4.42
-1.66
1.38
4.36
7.21
10.08
13.16
16.38
19.35
21.52
22.42
21.94
20.39
18.32
16.32
14.78
13.79
13.29
13.09
13.03
13
12.86
12.48
11.79
10.82
9.68
8.6
7.7
6.93
6.14
5.1
3.66
1.89
0.02
-1.64
-2.81
-3.3
-3.08
-2.15
-0.46
1.98
5.11
8.69
12.31
15.49
17.81
19.06
19.39
19.14
18.79
18.6
18.67
18.84
18.96
18.97
18.98
19.17
19.6
20.04
20.05
19.11
16.81
13.15
8.51
3.55
-1
-4.54
-6.83
-7.92
-8.15
-7.95
-7.69
-7.64
-7.94
-8.61
-9.57
-10.63
-11.53
-11.95
-11.62
-10.45
-8.5
-6.03
-3.32
-0.59
2.09
4.7
7.29
9.78
12
13.74
14.88
15.45
15.61
15.63
15.72
16.02
16.56
17.32
18.16
18.93
19.43
19.45
18.88
17.74
16.2
14.5
12.84
11.32
9.98
8.83
7.96
7.51
7.53
7.94
8.44
8.77
8.86
9.01
9.73
11.58
14.87
19.42
24.72
30.11
35.11
39.56
43.69
47.82
52.22
56.96
61.91
66.82
71.46
75.57
78.87
81.05
81.92
81.41
79.63
76.81
73.25
69.31
65.37
61.79
58.87
56.72
55.22
53.87
51.82
48.06
41.76
32.68
21.5
9.93
0.04
-6.46
-9.09
-9.01
-8.47
-9.78
-14.17
-21.2
-29.13
-35.86
-39.91
-40.91
-39.49
-36.9
-34.68
-34.43
-37.63
-45.01
-56.15
-69.24
-81.55
-90.65
-95.49
-97.01
-97.63
-100
-105.73
-114.63
-125
-134.49
-141.08
-143.76
-142.5
-138.09
-131.73
-124.71
-118.14
-112.86
-109.21
-107.12
-106.19
-105.74
-104.85
-102.4
-97.13
-88
-74.59
-57.48
-38.23
-19
-1.73
12.53
24.06
34.04
43.8
53.99
64.21
73.24
79.78
83.16
83.59
81.89
78.99
75.47
71.44
66.86
61.99
57.64
55.05
55.3
58.65
64.24
70.27
74.72
76.18
74.41
70.31
65.43
61.1
57.79
55
51.68
46.93
40.56
33.25
26.23
20.65
17.1
15.3
14.28
12.68
9.29
3.49
-4.62
-14.29
-24.47
-34.17
-42.83
-50.29
-56.56
-61.63
-65.16
-66.62
-65.47
-61.51
-55.09
-47.06
-38.61
-30.89
-24.72
-20.31
-17.35
-15.06
-12.59
-9.37
-5.34
-1.13
2.34
4.18
4.11
2.55
0.56
-0.84
-1.07
-0.23
1.04
2.11
2.8
3.41
4.41
6.01
7.93
9.49
10.01
9.14
6.9
3.57
-0.61
-5.6
-11.46
-18.09
-25.07
-31.76
-37.56
-42.19
-45.75
-48.51
-50.62
-51.83
-51.58
-49.23
-44.46
-37.42
-28.72
-19.12
-9.31
0.35
9.72
18.67
26.84
33.76
38.93
42.1
43.46
43.46
42.66
41.49
40.19
38.89
37.67
36.62
35.71
34.84
33.9
32.84
31.73
30.72
29.79
28.68
26.98
24.4
21.09
17.65
14.85
13.15
12.45
12.02
10.9
8.36
4.25
-1.13
-7.12
-13.01
-18.18
-22.11
-24.49
-25.27
-24.72
-23.27
-21.3
-18.98
-16.21
-12.84
-8.93
-4.88
-1.24
1.5
3.2
4.04
4.27
4.07
3.4
2.24
0.8
-0.37
-0.59
0.49
2.68
5.24
7.21
7.85
6.92
4.69
1.64
-1.76
-5.26
-8.71
-11.9
-14.51
-16.2
-16.93
-17.1
-17.43
-18.63
-20.89
-23.71
-26.01
-26.63
-24.87
-20.79
-15.14
-8.99
-3.2
1.79
6.01
9.66
12.82
15.31
16.79
16.97
15.8
13.66
11.21
9.15
7.96
7.69
8.02
8.49
8.7
8.52
8.06
7.55
7.09
6.62
5.97
4.93
3.43
1.57
-0.52
-2.76
-5.19
-7.93
-10.99
-14.12
-16.78
-18.19
-17.67
-14.93
-10.2
-4.23
2.07
7.96
13.04
17.26
20.71
23.41
25.21
25.93
25.48
24.06
22.08
20
18.19
16.86
16.01
15.59
15.44
15.31
14.87
13.77
11.76
8.85
5.34
1.64
-1.9
-5.06
-7.93
-10.69
-13.5
-16.46
-19.44
-22.17
-24.28
-25.39
-25.16
-23.47
-20.36
-16.07
-10.98
-5.54
-0.24
4.42
7.95
10.04
10.66
10.13
9.05
8.08
7.63
7.83
8.39
8.88
8.94
8.42
7.48
6.5
5.76
5.44
5.45
5.56
5.45
4.88
3.67
1.74
-0.83
-3.84
-6.91
-9.47
-10.94
-11.02
-9.84
-8.08
-6.7
-6.52
-7.78
-10.01
-12.17
-13.12
-12.11
-9.01
-4.31
1.21
6.81
11.89
16.15
19.43
21.64
22.83
23.18
23.02
22.74
22.7
23.01
23.6
24.27
24.8
25.04
24.99
24.66
24.11
23.36
22.37
21.09
19.43
17.32
14.8
12.03
9.32
6.96
5.09
3.65
2.35
0.84
-1.14
-3.73
-6.94
-10.76
-15.21
-20.28
-25.94
-31.87
-37.57
-42.47
-46.04
-48.04
-48.45
-47.42
-45.13
-41.76
-37.46
-32.45
-27.01
-21.42
-15.9
-10.52
-5.34
-0.38
4.22
8.4
12.22
15.97
20.01
24.58
29.55
34.37
38.33
40.87
41.9
41.85
41.46
41.43
42.04
43.17
44.32
45.01
44.94
44.14
42.93
41.7
40.79
40.23
39.82
39.2
37.99
35.83
32.5
27.78
21.46
13.5
4.15
-5.88
-15.43
-23.1
-27.8
-29.13
-27.59
-24.46
-21.16
-18.64
-17.05
-15.78
-13.85
-10.67
-6.28
-1.31
3.32
6.93
9.32
10.68
11.33
11.41
10.8
9.25
6.7
3.36
-0.26
-3.55
-6.08
-7.74
-8.73
-9.45
-10.32
-11.7
-13.76
-16.43
-19.48
-22.63
-25.58
-28.18
-30.48
-32.62
-34.83
-37.39
-40.53
-44.38
-48.93
-53.92
-58.83
-63
-65.83
-66.91
-66.16
-63.76
-59.98
-55.08
-49.18
-42.31
-34.57
-26.18
-17.59
-9.38
-2.2
3.47
7.42
9.78
10.99
11.6
12.11
12.81
13.78
15.01
16.53
18.48
21.04
24.3
28.06
31.89
35.17
37.32
38.08
37.5
36
34.16
32.53
31.39
30.66
29.96
28.67
26.21
22.18
16.55
9.69
2.26
-4.94
-11.04
-15.37
-17.45
-17.18
-14.8
-10.87
-6.14
-1.34
3.01
6.6
9.36
11.34
12.6
13.18
13.2
12.84
12.36
12
11.82
11.63
11.13
10.04
8.24
5.85
3.13
0.31
-2.53
-5.41
-8.43
-11.57
-14.78
-18.03
-21.45
-25.36
-30.09
-35.77
-42.1
-48.43
-53.89
-57.67
-59.33
-58.88
-56.72
-53.45
-49.62
-45.57
-41.44
-37.15
-32.59
-27.72
-22.58
-17.26
-11.79
-6.13
-0.18
6
12.18
17.91
22.62
25.97
27.96
28.97
29.48
29.84
30.09
29.97
29.23
27.84
26.16
24.66
23.65
22.91
21.68
19.03
14.43
8.09
0.94
-5.76
-11
-14.32
-15.79
-15.71
-14.26
-11.43
-7.15
-1.63
4.58
10.6
15.58
18.89
20.42
20.38
19.14
17.04
14.22
10.69
6.47
1.76
-2.97
-7
-9.64
-10.54
-9.82
-8.16
-6.38
-5.16
-4.82
-5.44
-6.98
-9.42
-12.75
-16.66
-20.46
-23.18
-23.94
-22.39
-18.98
-14.75
-10.93
-8.42
-7.49
-7.82
-8.79
-9.71
-10
-9.27
-7.33
-4.17
0
4.78
9.63
13.98
17.36
19.51
20.41
20.2
19.13
17.54
15.78
14.22
13.12
12.66
12.82
13.4
14.11
14.67
14.87
14.62
13.87
12.57
10.76
8.56
6.15
3.73
1.35
-1.14
-3.99
-7.33
-11.14
-15.05
-18.65
-21.72
-24.38
-27.04
-30.06
-33.54
-37.09
-39.97
-41.41
-41.02
-38.92
-35.75
-32.43
-29.69
-27.8
-26.37
-24.63
-21.79
-17.47
-11.95
-5.98
-0.4
4.33
8.32
12.07
16.05
20.41
24.81
28.73
31.83
34.09
35.9
37.67
39.54
41.25
42.18
41.77
39.75
36.27
31.88
27.28
23.07
19.67
17.18
15.51
14.52
14.09
14.12
14.41
14.53
13.87
11.85
8.24
3.45
-1.51
-5.47
-7.51
-7.49
-6.07
-4.34
-3.33
-3.51
-4.65
-6.02
-6.84
-6.57
-5.16
-2.98
-0.59
1.5
3.05
4.13
5.1
6.24
7.66
9.18
10.38
10.86
10.42
9.23
7.68
6.17
4.89
3.7
2.31
0.42
-1.99
-4.64
-7
-8.63
-9.38
-9.48
-9.41
-9.62
-10.3
-11.19
-11.75
-11.34
-9.63
-6.67
-2.9
1.04
4.57
7.34
9.31
10.61
11.49
12.1
12.5
12.63
12.38
11.73
10.76
9.7
8.8
8.26
8.08
8.08
8
7.59
6.73
5.48
4
2.48
1.01
-0.4
-1.84
-3.49
-5.57
-8.27
-11.73
-15.96
-20.77
-25.82
-30.58
-34.45
-36.86
-37.45
-36.15
-33.25
-29.31
-24.93
-20.63
-16.64
-13.03
-9.72
-6.69
-3.98
-1.68
0.14
1.52
2.54
3.33
4
4.54
5.02
5.48
5.95
6.47
6.95
7.22
7.15
6.74
6.14
5.59
5.34
5.51
6.12
7.12
8.43
10.01
11.8
13.72
15.63
17.33
18.46
18.6
17.38
14.58
10.33
5.17
-0.08
-4.54
-7.59
-9.02
-9.06
-8.1
-6.56
-4.66
-2.45
0.11
3.07
6.46
10.18
13.94
17.33
19.86
21.17
21.21
20.34
19.2
18.51
18.73
19.91
21.64
23.24
24.02
23.48
21.5
18.32
14.36
10.07
5.73
1.34
-3.36
-8.78
-15.16
-22.52
-30.47
-38.27
-45.01
-49.84
-52.13
-51.66
-48.7
-43.82
-37.87
-31.61
-25.65
-20.34
-15.82
-12.11
-9.21
-7.12
-5.74
-4.94
-4.5
-4.26
-4.13
-4.17
-4.51
-5.2
-6.2
-7.4
-8.74
-10.34
-12.32
-14.77
-17.53
-20.21
-22.42
-24
-25.07
-26.05
-27.31
-29
-30.97
-32.87
-34.33
-34.97
-34.48
-32.44
-28.51
-22.53
-14.81
-6.13
2.35
9.52
14.72
17.97
19.96
21.62
23.66
26.32
29.26
31.89
33.67
34.42
34.36
33.94
33.62
33.75
34.56
36.2
38.72
41.87
45.05
47.3
47.61
45.4
40.91
35.16
29.55
25.3
22.85
21.74
20.92
19.25
16.05
11.34
5.69
-0.07
-5.09
-8.78
-10.78
-10.95
-9.39
-6.45
-2.78
0.73
3.21
4.09
3.26
1.14
-1.52
-3.98
-5.75
-6.85
-7.69
-8.89
-10.92
-13.86
-17.29
-20.45
-22.54
-22.99
-21.64
-18.75
-14.79
-10.43
-6.31
-3.08
-1.26
-1.19
-2.87
-5.9
-9.57
-13
-15.42
-16.41
-16.08
-15
-14.1
-14.27
-15.97
-19.03
-22.56
-25.35
-26.37
-25.11
-21.83
-17.28
-12.42
-8.03
-4.55
-1.97
0.03
2.03
4.62
8.24
12.92
18.23
23.39
27.51
30.03
30.81
30.13
28.52
26.51
24.53
22.87
21.66
20.87
20.32
19.75
18.86
17.46
15.38
12.56
8.92
4.49
-0.52
-5.65
-10.26
-13.73
-15.68
-16.18
-15.71
-14.98
-14.65
-15.24
-16.89
-19.41
-22.25
-24.62
-25.65
-24.71
-21.59
-16.61
-10.45
-3.9
2.4
8.15
13.37
18.31
23.27
28.5
34.02
39.59
44.75
48.83
51.28
51.76
50.24
47.04
42.57
37.26
31.51
25.72
20.39
16.05
13.18
11.89
11.8
12.03
11.48
9.3
5.17
-0.47
-6.65
-12.27
-16.45
-18.84
-19.67
-19.5
-19.07
-19.08
-20.06
-22.33
-25.9
-30.43
-35.19
-39.29
-41.95
-42.75
-41.81
-39.57
-36.45
-32.63
-27.99
-22.25
-15.41
-7.91
-0.65
5.34
9.38
11.39
11.94
11.94
12.24
13.2
14.61
15.84
16.22
15.42
13.52
10.99
8.42
6.17
4.33
2.66
0.84
-1.38
-4.02
-6.87
-9.55
-11.63
-12.83
-13.09
-12.57
-11.59
-10.57
-9.85
-9.76
-10.55
-12.43
-15.46
-19.42
-23.77
-27.68
-30.36
-31.31
-30.56
-28.49
-25.79
-23.08
-20.78
-19.13
-18.2
-17.9
-18.04
-18.38
-18.62
-18.58
-18.26
-17.7
-16.95
-15.9
-14.35
-12.16
-9.45
-6.57
-3.92
-1.68
0.4
2.78
5.86
9.59
13.4
16.45
18.08
18.08
16.8
14.93
13.1
11.61
10.36
9.07
7.52
5.69
3.65
1.43
-1
-3.78
-6.88
-9.99
-12.52
-13.66
-12.81
-9.75
-4.9
0.81
6.2
10.24
12.46
13.09
13
13.31
14.92
18.08
22.23
26.12
28.43
28.27
25.7
21.64
17.53
14.67
13.69
14.28
15.39
15.74
14.39
11.1
6.39
1.18
-3.7
-7.95
-11.93
-16.36
-21.93
-28.86
-36.99
-45.9
-55.1
-63.71
-69.83
-70.18
-61
-40.13
-9.16
25.64
55.08
71.02
70.48
57.31
40.38
28.98
28.3
37.47
51.15
63.29
70.54
73.33
74.3
75.67
77.42
77.51
73.9
66.48
57.39
49.51
44
38.99
30.23
13.64
-11.97
-43.85
-76.61
-105.1
-127.02
-143.88
-159.36
-176.69
-196.51
-216.48
-232.64
-241.5
-241.48
-233.16
-218.49
-199.76
-178.81
-156.74
-133.86
-110.02
-85.02
-59.01
-32.68
-7.33
15.75
35.76
52.64
67.05
79.92
91.91
103.23
113.79
123.38
132.05
140.06
147.65
154.89
161.47
166.65
169.59
169.55
166.1
159.4
150.09
139.15
127.73
116.69
106.52
97.3
88.88
81.14
74.24
68.58
64.71
62.94
63.17
64.79
66.91
68.57
69.06
68.05
65.51
61.59
56.41
49.96
42.12
32.77
21.93
9.82
-3.07
-16.14
-28.74
-40.31
-50.52
-59.23
-66.48
-72.4
-77.15
-80.79
-83.25
-84.39
-84
-82.04
-78.65
-74.26
-69.45
-64.85
-60.92
-57.8
-55.34
-53.15
-50.82
-48.09
-44.9
-41.44
-38.02
-35.01
-32.6
-30.82
-29.59
-28.73
-28.05
-27.29
-26.12
-24.11
-20.87
-16.22
-10.27
-3.53
3.33
9.68
15.17
19.77
23.73
27.38
30.93
34.39
37.57
40.21
42.02
42.73
42.19
40.33
37.31
33.42
29.09
24.73
20.64
16.92
13.58
10.59
7.98
5.86
4.29
3.25
2.57
2.02
1.44
0.75
0.02
-0.65
-1.14
-1.38
-1.33
-0.99
-0.49
0.01
0.24
0.04
-0.58
-1.44
-2.18
-2.5
-2.32
-1.79
-1.23
-0.98
-1.15
-1.61
-1.97
-1.66
-0.15
2.98
7.91
14.51
22.44
31.19
40.13
48.64
56.1
62.04
66.29
69.01
70.64
71.76
72.86
74.13
75.42
76.37
76.48
75.4
73.02
69.46
64.99
59.85
54.14
47.74
40.48
32.22
23.08
13.41
3.7
-5.64
-14.42
-22.66
-30.53
-38.06
-45.21
-51.84
-57.85
-63.38
-68.71
-74.12
-79.71
-85.32
-90.5
-94.71
-97.46
-98.4
-97.36
-94.31
-89.35
-82.7
-74.73
-65.78
-56.23
-46.33
-36.23
-26.07
-16.08
-6.72
1.3
7.24
10.59
11.3
9.84
7.14
4.18
1.73
0.1
-0.78
-1.21
-1.47
-1.74
-2.05
-2.45
-3.16
-4.42
-6.46
-9.27
-12.57
-15.94
-19.08
-21.86
-24.4
-26.9
-29.55
-32.38
-35.39
-38.61
-42.16
-46.17
-50.7
-55.56
-60.41
-64.67
-67.83
-69.42
-69.2
-67.23
-63.77
-59.29
-54.3
-49.25
-44.47
-40.23
-36.69
-33.98
-32.13
-31.09
-30.65
-30.5
-30.3
-29.76
-28.64
-26.72
-23.87
-19.98
-15.1
-9.38
-2.99
3.93
11.33
19.16
27.37
35.7
43.73
51.02
57.24
62.35
66.58
70.35
73.98
77.59
80.97
83.75
85.52
86.01
85.16
83.08
79.99
76.04
71.4
66.25
60.91
55.75
51.1
47.14
43.84
41.04
38.56
36.34
34.39
32.74
31.31
30.05
29.01
28.48
28.87
30.61
33.77
38.12
43.15
48.39
53.69
59.13
64.81
70.63
76.21
80.95
84.35
86.15
86.31
84.8
81.57
76.49
69.65
61.48
52.8
44.58
37.69
32.6
29.27
27.17
25.37
22.75
18.27
11.24
1.6
-9.99
-22.33
-34.05
-44.03
-51.81
-57.52
-61.76
-65.28
-68.76
-72.71
-77.38
-82.69
-88.2
-93.27
-97.3
-100.13
-102.2
-104.37
-107.49
-111.74
-116.35
-119.76
-120.27
-116.78
-109.25
-98.6
-86.25
-73.49
-61.07
-49.25
-38
-27.29
-17.22
-8.06
-0.07
6.62
12.08
16.59
20.49
24.06
27.4
30.33
32.43
33.16
32.13
29.28
25.01
20.25
16.06
13.49
13.11
14.92
18.3
22.29
25.85
28.18
28.97
28.44
27.18
25.84
24.91
24.57
24.7
25.15
25.89
27.23
29.66
33.55
38.82
44.86
50.64
55.18
57.88
58.7
58.01
56.23
53.62
50.13
45.65
40.19
34
27.43
20.57
13.21
4.86
-4.84
-15.72
-26.85
-36.77
-43.92
-47.14
-46.09
-41.17
-33.46
-24.26
-14.89
-6.46
0.2
4.65
6.85
7.13
5.97
3.77
0.77
-2.95
-7.3
-12.07
-16.81
-21
-24.23
-26.29
-27.15
-26.87
-25.49
-23.1
-19.89
-16.29
-12.86
-10.16
-8.46
-7.73
-7.74
-8.24
-9.19
-10.71
-12.9
-15.68
-18.8
-21.82
-24.4
-26.33
-27.42
-27.49
-26.25
-23.5
-19.27
-13.98
-8.25
-2.83
1.77
5.36
8.03
9.97
11.33
12.21
12.7
12.93
13.05
13.14
13.21
13.13
12.71
11.78
10.18
7.8
4.54
0.4
-4.49
-9.9
-15.49
-20.97
-26.1
-30.8
-35.12
-39.1
-42.61
-45.38
-46.97
-47.01
-45.34
-42.2
-38.11
-33.72
-29.52
-25.7
-22.18
-18.74
-15.17
-11.42
-7.54
-3.57
0.52
4.86
9.54
14.5
19.5
24.1
27.86
30.45
31.83
32.13
31.67
30.67
29.23
27.29
24.78
21.79
18.6
15.65
13.34
11.83
11.01
10.63
10.42
10.2
9.99
9.82
9.77
9.84
9.97
10.06
10.06
9.95
9.69
9.31
8.82
8.27
7.68
7.02
6.23
5.31
4.39
3.77
3.77
4.66
6.44
8.92
11.84
14.96
18.11
21.08
23.59
25.25
25.76
25.04
23.48
21.71
20.37
19.83
20.04
20.73
21.7
22.86
24.3
26.05
27.98
29.75
31.03
31.62
31.54
31
30.14
28.93
27.11
24.25
20.06
14.52
7.95
0.96
-5.81
-11.9
-16.98
-20.95
-23.79
-25.46
-25.93
-25.26
-23.73
-21.85
-20.2
-19.24
-19.1
-19.59
-20.25
-20.64
-20.54
-19.95
-19.03
-17.92
-16.56
-14.79
-12.43
-9.52
-6.39
-3.64
-1.9
-1.63
-2.97
-5.75
-9.66
-14.24
-19.02
-23.46
-27.06
-29.47
-30.65
-30.95
-30.88
-30.91
-31.13
-31.42
-31.58
-31.71
-32.24
-33.75
-36.48
-40.08
-43.68
-46.2
-46.9
-45.64
-42.83
-39.16
-35.24
-31.44
-27.9
-24.61
-21.51
-18.37
-14.94
-10.99
-6.55
-1.87
2.59
6.42
9.45
11.73
13.44
14.77
15.74
16.24
16.18
15.5
14.21
12.41
10.2
7.66
4.98
2.44
0.42
-0.75
-0.97
-0.45
0.32
0.73
0.25
-1.4
-4.14
-7.62
-11.31
-14.63
-17.05
-18.15
-17.63
-15.48
-12.04
-7.99
-4.15
-1.25
0.38
0.89
0.8
0.71
1.02
1.73
2.55
3.12
3.28
3.14
3.06
3.48
4.83
7.28
10.72
14.76
18.84
22.39
24.99
26.46
26.92
26.7
26.22
25.8
25.57
25.51
25.41
25.05
24.28
23.04
21.43
19.55
17.52
15.38
13.07
10.49
7.57
4.32
0.76
-3.09
-7.1
-11.05
-14.61
-17.39
-19.17
-19.91
-19.84
-19.28
-18.49
-17.6
-16.61
-15.53
-14.47
-13.62
-13.05
-12.63
-12.12
-11.24
-9.91
-8.28
-6.66
-5.33
-4.37
-3.65
-2.96
-2.15
-1.24
-0.35
0.34
0.77
0.94
0.88
0.7
0.52
0.42
0.56
1.01
1.74
2.64
3.53
4.33
5.14
6.27
8.04
10.69
14.19
18.21
22.21
25.58
27.88
28.95
28.88
27.96
26.36
24.07
20.85
16.43
10.67
3.79
-3.6
-10.72
-16.8
-21.44
-24.57
-26.38
-27.11
-26.9
-25.83
-24.06
-21.89
-19.82
-18.36
-17.72
-17.78
-18.01
-17.72
-16.32
-13.62
-9.85
-5.58
-1.59
1.48
3.22
3.61
2.98
1.98
1.36
1.66
3.15
5.63
8.66
11.69
14.38
16.63
18.58
20.4
22.22
24.03
25.79
27.48
29.21
31.08
33.09
35.04
36.58
37.35
37.24
36.54
35.96
36.32
38.17
41.32
44.86
47.34
47.49
44.84
40
34.52
30.1
27.87
27.95
29.56
31.6
33.15
33.67
32.88
30.52
26.24
19.85
11.76
3.13
-4.37
-9.11
-10.25
-8.15
-4.13
0.04
2.88
3.67
2.61
0.46
-1.82
-3.58
-4.7
-5.5
-6.58
-8.36
-10.87
-13.72
-16.24
-17.74
-17.81
-16.44
-14.02
-11.17
-8.62
-6.97
-6.61
-7.68
-10.04
-13.34
-17.16
-21.07
-24.76
-28.15
-31.43
-35.04
-39.61
-45.6
-53.04
-61.3
-69.04
-74.74
-77.12
-75.69
-70.96
-64.14
-56.57
-49.28
-42.79
-37.14
-31.82
-25.64
-16.91
-4.06
13.34
33.75
53.62
68.57
75.16
72.56
62.88
50.04
37.95
28.82
22.77
18.62
15.21
12.24
10.14
9.29
9.23
8.63
5.96
0.27
-8.08
-17.39
-25.45
-30.59
-32.39
-31.83
-30.51
-29.74
-29.87
-30.15
-29.23
-26.02
-20.32
-12.96
-5.42
0.88
5.19
7.63
8.98
10.09
11.43
12.97
14.31
15.1
15.27
15.13
15.05
15.19
15.39
15.31
14.72
13.76
12.95
12.92
14.14
16.63
20.04
23.65
26.71
28.51
28.62
26.97
23.9
20.1
16.4
13.57
12
11.74
12.49
13.95
15.8
17.59
18.59
17.67
13.51
5.25
-6.92
-21.54
-36.26
-48.81
-57.97
-63.87
-67.47
-69.55
-69.93
-67.57
-61.41
-51.57
-39.66
-28.36
-20.14
-16.17
-15.9
-17.67
-19.67
-20.77
-20.79
-20.2
-19.72
-19.99
-21.44
-24.13
-27.62
-30.98
-32.92
-32.21
-28.26
-21.44
-12.98
-4.55
2.49
7.49
10.59
12.45
13.76
15
16.27
17.46
18.38
18.88
19.01
18.9
18.67
18.28
17.6
16.47
14.79
12.56
9.8
6.5
2.67
-1.61
-6
-9.89
-12.5
-13.13
-11.48
-7.94
-3.57
0.29
2.46
2.44
0.52
-2.45
-5.51
-7.99
-9.76
-11.17
-12.75
-14.91
-17.72
-20.95
-24.31
-27.62
-30.9
-34.26
-37.69
-41.02
-44.01
-46.5
-48.53
-50.22
-51.54
-52.17
-51.43
-48.63
-43.45
-36.24
-28.01
-20.11
-13.94
-10.5
-10.21
-12.6
-16.33
-19.41
-19.84
-16.22
-8.24
3.29
16.85
30.86
44.09
55.77
65.54
73.41
79.69
85.09
90.57
97.07
105.11
114.54
124.66
134.51
143.36
150.88
157.09
162.15
166.23
169.34
171.35
171.84
169.99
164.63
154.34
138.04
115.57
88.09
57.97
28.15
1.16
-21.78
-41.16
-58.73
-76.44
-95.31
-114.96
-133.8
-149.97
-162.27
-170.65
-175.73
-177.99
-177.01
-171.5
-160.04
-142.16
-118.97
-93.05
-67.45
-44.45
-24.87
-7.97
7.66
23.22
39
54.31
67.79
78
83.74
84.19
78.98
68.25
52.55
32.98
11.16
-10.82
-30.48
-45.33
-53.4
-53.78
-46.95
-34.84
-20.2
-5.85
6.15
14.92
20.66
24.22
26.57
28.41
30.07
31.64
32.97
33.85
34
33.15
31.17
28.2
24.68
21.31
18.86
17.9
18.6
20.76
23.8
27.07
29.89
31.71
32.16
31.21
29.15
26.64
24.52
23.43
23.59
24.71
26.15
27.3
27.93
28.29
28.96
30.48
33.03
36.38
40.01
43.21
45.28
45.5
43.27
38.21
30.37
20.25
8.6
-3.88
-16.82
-30.25
-44.35
-59
-73.51
-86.59
-96.72
-102.75
-104.4
-102.53
-98.79
-95.17
-93.29
-93.91
-96.94
-101.78
-107.77
-114.47
-121.47
-127.91
-132.16
-132.02
-125.6
-112.43
-94.06
-73.62
-54.39
-38.4
-25.55
-14.23
-2.78
9.2
20.31
28.34
31.66
30.34
26.19
21.51
17.83
15.13
12.33
8.49
3.79
-0.4
-2.46
-1.64
1.36
4.81
7.06
7.63
7.45
8.27
11.44
17.09
23.95
29.98
33.36
33.31
30.31
25.74
21.23
17.95
16.42
16.38
17.1
17.64
17.1
14.87
10.8
5.31
-0.73
-6.24
-10.24
-12.29
-12.59
-11.74
-10.44
-9.11
-7.84
-6.57
-5.4
-4.7
-4.94
-6.39
-8.71
-11.04
-12.17
-11.1
-7.44
-1.62
5.27
11.9
17.27
21.12
23.97
26.75
30.3
34.79
39.83
44.91
49.86
54.96
60.52
66.23
70.89
72.83
70.95
65.66
59.12
54.31
53.61
57.43
63.88
69.64
71.54
67.91
59.24
47.67
36.05
26.78
21.09
18.99
19.64
21.93
24.93
28.04
30.86
33.16
34.92
36.42
38.2
40.76
44.02
46.91
47.55
44.06
35.56
22.92
8.53
-4.68
-14.55
-20.61
-24.08
-26.99
-31.06
-37.01
-44.5
-52.65
-60.66
-68.2
-75.28
-82.06
-88.77
-95.8
-103.81
-113.57
-125.42
-138.69
-151.49
-161.14
-165.21
-162.57
-153.89
-141.36
-127.7
-115.2
-105.24
-98.22
-93.94
-91.88
-91.1
-90.19
-87.38
-81.08
-70.53
-56.16
-39.39
-21.75
-4.24
13.12
30.88
49.51
68.82
87.82
105.12
119.55
130.49
137.83
141.7
142.09
138.91
132.19
122.29
110
96.27
81.91
67.46
53.22
39.34
26.09
13.89
3.21
-5.53
-12.02
-16.07
-17.6
-16.71
-13.73
-9.33
-4.38
0.17
3.61
5.66
6.45
6.46
6.21
6.09
6.21
6.41
6.43
6.02
5.02
3.5
1.55
-0.68
-3.1
-5.68
-8.4
-11.18
-13.95
-16.68
-19.34
-21.9
-24.22
-26.05
-27
-26.75
-25.13
-22.35
-19.03
-16
-14.12
-13.86
-15.11
-17.17
-18.9
-19.07
-16.91
-12.33
-5.93
1.21
8.07
13.99
18.78
22.6
25.65
28.06
29.83
30.95
31.42
31.24
30.42
28.99
27.15
25.28
24.09
24.41
27.11
32.71
41.17
51.75
62.97
72.94
79.72
81.96
79.29
72.48
63.21
53.54
45.34
39.78
37.2
37.12
38.47
39.76
39.44
36.26
29.78
20.61
10.41
1.43
-4.28
-5.55
-2.51
3.58
10.89
17.67
22.71
25.42
25.76
24.04
20.8
16.72
12.58
9.11
6.79
5.67
5.44
5.62
5.91
6.34
7.21
8.76
10.84
12.77
13.6
12.66
10.05
6.77
4.23
3.64
5.33
8.52
11.63
12.96
11.18
5.61
-3.81
-16.6
-31.61
-47.05
-60.52
-69.67
-73.07
-70.93
-65.21
-58.88
-54.57
-53.36
-54.47
-55.76
-55.03
-51.13
-44.42
-36.29
-28.31
-21.36
-15.43
-9.93
-4.32
1.52
7.18
12.06
15.74
18.11
19.34
19.63
19.07
17.53
14.77
10.57
4.94
-1.74
-8.77
-15.23
-20.25
-23.38
-24.68
-24.67
-23.99
-23.02
-21.57
-19.14
-15.21
-9.76
-3.44
2.54
6.8
8.31
6.73
2.61
-2.91
-8.48
-13.07
-16.3
-18.43
-20.12
-22.01
-24.39
-26.97
-29.16
-30.41
-30.49
-29.69
-28.65
-28.09
-28.44
-29.65
-31.19
-32.23
-32
-29.99
-26.25
-21.25
-15.7
-10.23
-5.17
-0.49
4.05
8.71
13.57
18.42
22.92
26.79
29.96
32.51
34.55
35.95
36.33
35.29
32.64
28.72
24.29
20.2
16.93
14.5
12.5
10.55
8.6
6.99
6.15
6.24
6.86
7.31
7.07
6.16
5.25
5.26
6.66
9.03
11.13
11.51
9.43
5.27
0.47
-3.28
-4.93
-4.64
-3.53
-2.95
-3.63
-5.33
-7.14
-8.17
-8.09
-7.24
-6.37
-6.08
-6.67
-8.25
-10.98
-15.21
-21.27
-29.09
-37.93
-46.54
-53.53
-57.9
-59.36
-58.29
-55.5
-51.81
-47.88
-44.18
-41.01
-38.47
-36.46
-34.7
-32.78
-30.41
-27.54
-24.4
-21.49
-19.45
-18.81
-19.78
-22.09
-24.78
-26.51
-25.93
-22.25
-15.64
-7.29
1.08
7.86
12.15
14
14.25
14.04
14.34
15.64
17.81
20.38
22.67
24.2
24.91
25.16
25.66
27.02
29.47
32.69
36
38.77
40.64
41.72
42.26
42.53
42.57
42.23
41.3
39.65
37.34
34.52
31.33
27.79
23.84
19.43
14.72
10.05
5.93
2.9
1.35
1.38
2.62
4.3
5.28
4.55
1.59
-3.24
-8.81
-13.58
-16.23
-16.25
-14.1
-10.89
-7.85
-5.78
-4.8
-4.41
-3.84
-2.45
0.04
3.39
6.81
9.17
9.26
6.36
0.49
-7.44
-15.96
-23.58
-29.32
-32.98
-35.08
-36.52
-38.16
-40.64
-44.15
-48.53
-53.21
-57.44
-60.45
-61.64
-60.78
-58.11
-54.25
-50.13
-46.68
-44.56
-43.93
-44.34
-44.7
-43.58
-39.65
-32.21
-21.68
-9.62
1.65
9.87
13.57
12.63
8.3
2.73
-1.71
-3.19
-0.93
4.79
12.91
21.99
30.69
38
43.26
46.15
46.65
45.15
42.5
39.94
38.81
40.14
44.13
50.04
56.33
61.23
63.27
61.68
56.5
48.43
38.65
28.62
19.87
13.74
10.96
11.28
13.55
15.96
16.74
14.92
10.68
5.37
0.94
-0.75
1.4
7.47
16.68
27.78
39.54
51.01
61.54
70.75
78.45
84.6
89.31
92.85
95.55
97.57
98.77
98.7
96.68
92.27
85.55
77.33
68.86
61.42
55.71
51.52
47.91
43.53
37.29
28.67
17.82
5.41
-7.69
-20.55
-32.1
-41.24
-47.14
-49.66
-49.68
-48.96
-49.4
-52.18
-57.19
-63.22
-68.69
-72.5
-74.49
-75.21
-75.39
-75.38
-75.08
-74.17
-72.26
-69.03
-63.98
-56.4
-45.67
-31.88
-16.27
-1.23
10.42
16.55
16.57
11.64
4.18
-3.13
-8.32
-10.53
-9.97
-7.44
-3.84
0.1
3.8
6.81
8.66
8.94
7.54
4.82
1.49
-1.63
-3.93
-5.34
-6.22
-7.11
-8.41
-10.15
-12.03
-13.49
-13.96
-12.95
-10.1
-5.28
1.26
8.86
16.63
23.63
29.32
33.68
37.16
40.34
43.59
46.77
49.37
50.72
50.29
47.92
43.84
38.68
33.29
28.61
25.32
23.5
22.5
20.8
16.54
8.08
-5.21
-22.69
-42.51
-62.2
-79.48
-92.96
-102.5
-108.91
-113.49
-117.28
-120.65
-123.18
-124.08
-122.59
-118.36
-111.52
-102.44
-91.5
-79.02
-65.3
-50.92
-36.9
-24.57
-15.22
-9.65
-7.79
-8.83
-11.48
-14.56
-17.33
-19.67
-21.86
-24.28
-27.15
-30.41
-33.79
-36.73
-38.38
-37.48
-32.62
-22.68
-7.42
11.99
33.08
52.66
67.85
77.11
80.7
80.44
78.88
78.26
79.87
83.89
89.76
96.62
103.68
110.26
115.82
120
122.72
124.29
125.37
126.67
128.49
130.47
131.49
130.16
125.36
116.7
104.72
90.62
75.82
61.33
47.39
33.45
18.51
1.93
-16.14
-34.51
-51.45
-65.54
-76.31
-84.34
-90.64
-95.97
-100.23
-102.69
-102.39
-98.91
-92.55
-84.21
-74.94
-65.68
-57.2
-50.19
-45.39
-43.42
-44.63
-48.88
-55.57
-63.71
-72.12
-79.49
-84.56
-86.38
-84.54
-79.36
-71.84
-63.29
-54.94
-47.59
-41.49
-36.47
-32.19
-28.28
-24.47
-20.46
-16.06
-11.2
-6
-0.97
3.12
5.28
4.73
1.11
-5.12
-12.73
-20.01
-25.22
-27.07
-25.06
-19.34
-10.53
0.69
13.74
28.14
43.22
58
71.23
81.68
88.59
91.96
92.4
90.82
88.07
84.7
81.03
77.37
74.12
71.59
69.69
67.77
64.77
59.75
52.49
43.82
35.26
28.42
24.25
22.67
22.63
22.59
20.93
16.48
8.64
-2.55
-16.52
-32.24
-48.47
-63.96
-77.6
-88.45
-95.82
-99.28
-98.75
-94.64
-87.84
-79.61
-71.16
-63.33
-56.34
-49.86
-43.36
-36.48
-29.26
-21.98
-14.91
-8.05
-1.12
6.11
13.54
20.53
26.19
29.79
31.22
31.14
30.84
31.69
34.68
40.04
47.27
55.32
62.96
69.2
73.46
75.58
75.71
73.98
70.38
64.86
57.62
49.37
41.26
34.6
30.2
27.99
26.97
25.55
22.19
16
6.99
-4.01
-15.6
-26.25
-34.53
-39.55
-41
-39.31
-35.37
-30.25
-24.9
-19.88
-15.47
-11.79
-8.92
-6.8
-5.16
-3.52
-1.4
1.14
3.34
3.82
1.31
-4.59
-12.89
-21.47
-27.92
-30.54
-29.07
-24.5
-18.58
-12.86
-8.18
-4.66
-2
0.02
1.36
1.69
0.79
-1.29
-4
-6.53
-8.26
-9.07
-9.5
-10.41
-12.53
-15.91
-19.81
-22.96
-24.09
-22.63
-18.87
-13.9
-9.1
-5.51
-3.5
-2.69
-2.24
-1.14
1.28
5.38
11.01
17.67
24.62
31.01
35.94
38.75
39.15
37.26
33.68
29.17
24.45
19.87
15.39
10.62
5.11
-1.47
-9.1
-17.46
-25.9
-33.58
-39.56
-43.02
-43.49
-41
-36.17
-30.1
-24
-18.8
-14.86
-11.89
-9.22
-6.22
-2.73
0.83
3.65
5
4.57
2.66
0.03
-2.57
-4.65
-6.25
-7.71
-9.42
-11.51
-13.84
-16.14
-18.23
-20.15
-22.17
-24.49
-27.14
-29.86
-32.36
-34.51
-36.47
-38.64
-41.41
-44.83
-48.45
-51.41
-52.69
-51.41
-47.07
-39.66
-29.62
-17.77
-5.17
6.98
17.56
25.77
31.33
34.46
35.85
36.31
36.61
37.3
38.66
40.59
42.7
44.38
44.93
43.85
41
36.62
31.21
25.44
19.88
14.97
11.03
8.25
6.63
5.87
5.37
4.47
2.68
-0.03
-3.29
-6.49
-9.07
-10.71
-11.4
-11.22
-10.13
-7.89
-4.2
1.07
7.65
14.76
21.38
26.58
29.95
31.78
32.89
34.34
36.86
40.57
44.88
48.81
51.39
52.02
50.6
47.47
43.2
38.37
33.47
28.95
25.35
23.16
22.71
23.83
25.76
27.43
27.93
26.99
25.17
23.49
22.81
23.28
24.3
24.82
24.03
21.73
18.45
15.18
12.97
12.5
14.03
17.37
21.99
27.19
32.21
36.39
39.17
40.18
39.31
36.8
33.37
30.05
27.73
26.62
25.85
23.67
18.26
8.74
-4.1
-17.99
-30.14
-38.49
-42.61
-43.62
-43.55
-44.2
-46.46
-50.17
-54.63
-59.07
-63.07
-66.48
-69.26
-71.27
-72.34
-72.39
-71.61
-70.5
-69.63
-69.32
-69.5
-69.68
-69.14
-67.35
-64.19
-59.97
-55.28
-50.59
-45.9
-40.75
-34.48
-26.66
-17.57
-8.26
-0.1
5.77
8.95
9.9
9.59
8.93
8.41
7.95
7.23
6.07
4.58
3.11
1.95
1.09
0.25
-0.91
-2.56
-4.51
-6.34
-7.66
-8.35
-8.63
-9.01
-9.95
-11.64
-13.83
-15.92
-17.1
-16.73
-14.49
-10.56
-5.52
-0.09
5.15
10.06
14.91
20.22
26.3
33.03
39.61
44.77
47.13
45.75
40.51
32.12
21.91
11.39
1.8
-6.09
-12.14
-16.61
-20.06
-23.11
-26.39
-30.4
-35.35
-41.11
-47.17
-52.88
-57.65
-61.24
-63.62
-64.88
-64.96
-63.61
-60.56
-55.95
-50.49
-45.32
-41.58
-39.88
-40.04
-41.08
-41.7
-40.68
-37.25
-31.26
-23.09
-13.47
-3.25
6.92
16.66
25.86
34.55
42.7
50.22
56.9
62.57
67.13
70.58
72.94
74.19
74.2
72.93
70.49
67.17
63.43
59.84
56.85
54.73
53.47
52.79
52.26
51.42
49.99
47.99
45.77
43.78
42.45
41.9
41.94
42.11
41.88
40.89
39.06
36.65
34.11
31.89
30.23
29.02
27.98
26.73
25.12
23.21
21.22
19.4
17.89
16.67
15.54
14.24
12.38
9.63
5.77
0.83
-4.81
-10.52
-15.59
-19.64
-22.68
-25.18
-27.74
-30.73
-34.19
-37.79
-41.12
-43.98
-46.39
-48.47
-50.26
-51.65
-52.45
-52.63
-52.51
-52.6
-53.43
-55.1
-57.13
-58.62
-58.67
-56.8
-53.22
-48.64
-43.9
-39.56
-35.72
-32.06
-28.19
-23.86
-19.09
-13.98
-8.66
-3.13
2.58
8.43
14.27
19.93
25.38
30.65
35.82
40.76
45.23
48.92
51.79
54.12
56.46
59.28
62.6
65.87
68.16
68.52
66.31
61.33
53.64
43.41
30.73
15.89
-0.4
-16.87
-31.84
-43.72
-51.48
-55
-54.91
-52.12
-47.22
-40.23
-30.7
-18.17
-2.61
15.24
33.99
52.08
68.14
81.29
91
97.01
99.17
97.6
92.78
85.54
76.98
68.01
59.03
49.88
40.1
29.44
18.21
7.33
-2.11
-9.33
-14.27
-17.59
-20.26
-23.04
-26.21
-29.44
-32.1
-33.58
-33.71
-32.7
-31.1
-29.44
-28.01
-26.71
-25.17
-23.07
-20.33
-17.21
-14.17
-11.65
-9.83
-8.65
-7.87
-7.33
-6.96
-6.86
-7.1
-7.65
-8.34
-8.99
-9.5
-9.88
-10.28
-10.88
-11.88
-13.37
-15.27
-17.42
-19.55
-21.5
-23.38
-25.53
-28.42
-32.41
-37.52
-43.5
-49.83
-55.97
-61.49
-66.15
-69.84
-72.61
-74.64
-76.26
-78.04
-80.57
-84.27
-89.05
-94.16
-98.32
-100.22
-99
-94.58
-87.35
-77.76
-65.72
-50.58
-31.71
-9.27
15.26
39.35
60.44
76.94
88.76
96.92
102.69
106.66
108.66
108.15
105.01
99.79
93.58
87.32
81.25
74.89
67.4
58.2
47.39
35.72
24.19
13.64
4.52
-3.2
-9.82
-15.67
-20.87
-25.26
-28.4
-29.79
-29.1
-26.28
-21.71
-16.13
-10.47
-5.7
-2.64
-1.78
-3.29
-6.89
-11.99
-17.87
-23.9
-29.72
-35.2
-40.26
-44.58
-47.51
-48.26
-46.36
-42.11
-36.63
-31.63
-28.66
-28.42
-30.52
-33.54
-35.55
-34.7
-29.84
-20.76
-8.22
6.3
21.07
34.59
45.9
54.66
61.13
65.94
69.92
73.87
78.44
83.88
89.92
95.85
100.67
103.5
103.89
101.9
97.94
92.47
85.94
78.96
72.47
67.6
65.1
64.79
65.24
64.22
59.62
50.45
37.27
21.88
6.38
-7.72
-19.86
-30.24
-39.35
-47.47
-54.66
-60.85
-66.1
-70.62
-74.73
-78.69
-82.65
-86.52
-90.02
-92.75
-94.3
-94.37
-92.84
-89.79
-85.46
-80.19
-74.44
-68.78
-63.77
-59.88
-57.24
-55.61
-54.48
-53.27
-51.56
-49.11
-45.8
-41.56
-36.4
-30.51
-24.46
-19.05
-14.98
-12.52
-11.32
-10.51
-9.12
-6.57
-2.81
1.64
6.04
9.7
12.17
13.21
12.8
11.02
8.12
4.58
0.94
-2.36
-5.11
-7.41
-9.42
-11.17
-12.38
-12.55
-11.22
-8.26
-3.91
1.38
7.08
12.94
18.81
24.63
30.15
35.08
39.07
41.96
43.77
44.71
45.09
45.29
45.62
46.31
47.36
48.54
49.45
49.65
48.88
47.2
44.92
42.43
39.99
37.59
35
32
28.6
25.07
21.88
19.51
18.24
18.02
18.54
19.35
20.06
20.42
20.34
19.87
19.17
18.49
18.19
18.75
20.63
24.16
29.28
35.45
41.67
46.73
49.56
49.53
46.6
41.23
34.12
25.9
17.07
7.99
-1.06
-9.75
-17.75
-24.83
-30.99
-36.36
-41.17
-45.58
-49.63
-53.26
-56.22
-58.22
-58.97
-58.3
-56.32
-53.43
-50.24
-47.34
-45.05
-43.25
-41.57
-39.55
-36.95
-33.89
-30.78
-28.18
-26.6
-26.25
-26.92
-27.95
-28.26
-26.76
-22.65
-15.87
-7.11
2.46
11.7
20.06
27.71
35.34
43.72
53.19
63.61
74.38
84.74
93.99
101.54
106.98
110.16
111.22
110.8
109.94
109.72
110.65
112.1
112.09
107.79
96.7
77.84
52.58
24.57
-1.41
-20.98
-31.59
-33.09
-27.29
-16.91
-4.63
7.51
17.92
25.2
27.96
25.28
17.42
6.41
-4.14
-10.08
-8.3
2.07
19.45
40.41
60.87
77.27
87.58
91.63
90.98
88.16
85.99
86.99
92.58
102.32
113.21
120.43
118.54
103.19
72.67
29.12
-21.08
-68.66
-104.34
-123.4
-126.59
-119.66
-110.79
-107.39
-113.27
-127.27
-144.47
-158.99
-169.14
-175.98
-181.09
-184.04
-182.43
-173.19
-154.53
-127.64
-96.81
-71.45
-59.4
-62.9
-78
-98.35
-119.08
-138.24
-155.81
-171.91
-190.08
-211.84
-235.67
-258.25
-278.06
-296.82
-317.63
-342.13
-341.23
-296.07
-209.42
-104.94
-7.6
69.73
125.66
164.72
193.54
217.87
236.5
246.43
246.13
237.62
224.35
209.34
194.45
181.46
172
163.64
153.73
141.36
128.83
119.09
113.3
110.36
108.87
108.19
106.78
104.72
106.21
116.92
140.59
177.7
219.6
253.99
272.47
272.46
259.82
235.68
200.58
155.52
101.77
43.05
-14.2
-63.94
-103.48
-133.54
-157.16
-176.33
-191.6
-202.46
-208.22
-208.43
-203.29
-193.99
-182.42
-170.98
-160.93
-152.61
-145.72
-139.77
-134.17
-128.6
-123.21
-118.3
-114.05
-109.57
-103.31
-93.93
-81.04
-65.23
-47.93
-31.02
-16.17
-4.56
3.69
9.33
13.68
18.43
25.22
35.36
49.33
66.53
85.22
102.85
116.61
123.88
122.9
113.05
95.12
71.08
43.84
16.61
-7.55
-26.31
-38.55
-44.43
-45.24
-42.74
-38.57
-33.7
-28.42
-22.6
-16.14
-9.3
-2.63
3.11
7.21
9.26
9.09
6.92
3.25
-1.21
-5.76
-9.92
-13.68
-17.43
-21.63
-26.44
-31.36
-35.53
-38.1
-38.94
-38.89
-39.57
-42.53
-48.49
-56.75
-65.34
-71.88
-74.47
-72.52
-66.83
-59.06
-51.02
-43.83
-37.52
-30.87
-21.89
-8.63
9.68
31.65
53.81
71.68
81.81
83.59
79.7
74.93
73.69
77.8
85.7
93.6
97.7
96.2
89.91
81.31
72.99
66.46
61.96
58.84
56.43
54.19
51.77
48.79
44.91
40.06
34.8
30.2
27.34
26.53
26.41
24
15.6
-1.49
-27.36
-58.82
-90.22
-115.44
-130.23
-133.62
-127.87
-116.98
-104.64
-92.84
-81.69
-70.37
-58.27
-45.78
-33.93
-23.54
-14.67
-6.59
1.55
9.93
17.79
23.72
26.5
25.69
21.84
15.97
8.94
1.03
-8.02
-18.48
-30.24
-42.63
-54.6
-65.2
-73.86
-80.59
-85.87
-90.31
-94.33
-97.87
-100.41
-101.31
-100.03
-96.45
-90.53
-82.06
-70.52
-55.28
-36.13
-13.73
10.48
34.75
57.72
78.8
98.01
115.48
130.82
143.12
151.38
155.21
155.24
152.87
149.57
146.26
143
139.17
133.94
126.85
118.05
108.46
99.42
92.33
88.01
86.17
85.28
82.78
75.96
62.83
42.89
17.37
-11.07
-39.03
-63.31
-81.51
-92.45
-96.22
-93.95
-87.31
-77.95
-67.08
-55.36
-43.1
-30.57
-18.22
-6.77
3.04
10.66
15.75
18.12
17.7
14.68
9.83
4.6
0.86
0.18
3.09
8.62
14.59
18.58
18.99
15.72
10.23
4.79
1.53
1.57
4.76
9.86
15.06
18.5
18.79
15.32
8.41
-0.66
-10.08
-17.94
-22.91
-24.52
-23.19
-19.86
-15.48
-10.74
-6.03
-1.69
1.8
3.83
3.91
1.92
-1.7
-6.21
-10.72
-14.63
-17.61
-19.64
-20.79
-21.07
-20.57
-19.43
-17.98
-16.73
-16.25
-17.04
-19.4
-23.38
-28.72
-34.91
-41.35
-47.43
-52.67
-56.77
-59.52
-60.78
-60.52
-58.88
-56.11
-52.57
-48.54
-44.15
-39.5
-34.73
-30.11
-25.95
-22.43
-19.34
-16.22
-12.7
-8.86
-5.28
-2.59
-0.9
0.42
2.46
6
10.84
15.88
19.67
21.38
21.16
19.96
18.6
17.11
14.58
9.82
2.24
-7.55
-17.94
-27
-33.29
-36.25
-36.12
-33.48
-28.92
-22.89
-15.68
-7.7
0.6
8.72
16.4
23.55
30.16
36.16
41.33
45.42
48.37
50.47
52.27
54.26
56.54
58.72
60.06
59.85
57.74
53.9
48.89
43.39
37.92
32.71
27.8
23.14
18.68
14.35
10.07
5.66
0.96
-4.08
-9.23
-14.05
-18.04
-20.87
-22.46
-22.93
-22.46
-21.07
-18.69
-15.33
-11.18
-6.67
-2.25
1.79
5.45
8.95
12.48
16.03
19.26
21.65
22.78
22.5
21.11
19.21
17.55
16.7
16.92
17.9
18.88
18.85
16.94
12.71
6.25
-1.88
-11.01
-20.4
-29.36
-37.06
-42.63
-45.27
-44.63
-41.11
-36
-31.21
-28.57
-29.06
-32.33
-36.82
-40.46
-41.49
-39.07
-33.4
-25.44
-16.36
-7.23
1.35
9.16
16.22
22.77
29.11
35.79
43.58
53.51
66.53
82.98
102.17
122.16
139.99
152.32
156.33
150.55
135.21
112.01
83.74
53.68
25
0.44
-18.24
-30.53
-37.1
-39.36
-38.66
-35.61
-29.93
-21
-8.82
5.48
19.79
31.93
40.57
45.72
48.22
48.82
47.37
42.75
33.64
19.65
1.97
-17.03
-34.63
-48.93
-59.56
-67.47
-74.21
-81.1
-88.66
-96.53
-103.83
-109.69
-113.72
-116.06
-117.08
-116.98
-115.32
-111.17
-103.55
-92.24
-78.18
-63.1
-48.79
-36.05
-24.47
-12.86
-0.3
13.05
25.87
36.42
43.6
47.53
49.4
50.69
52.27
54.12
55.68
56.43
56.51
56.6
57.35
58.87
60.28
60.13
57.01
50.42
41.15
31.13
22.57
17.01
14.65
14.24
13.83
11.74
7.41
1.4
-5.06
-11.07
-16.59
-22.31
-28.95
-36.5
-43.9
-49.35
-51.19
-48.64
-42.17
-33.18
-23.22
-13.46
-4.35
4.14
12.19
19.77
26.7
32.85
38.45
44.15
50.82
59.23
69.56
81.39
93.91
106.16
117.27
126.52
133.06
135.92
134.2
127.51
116.19
101.39
84.59
67.12
49.76
32.74
16.18
0.46
-13.43
-24.1
-30.12
-30.71
-26.17
-18.04
-8.78
-1.11
2.86
2.28
-2.03
-7.93
-12.68
-13.98
-10.93
-4.48
2.88
8.06
8.61
3.82
-5.11
-15.62
-25.03
-31.76
-36.11
-39.91
-45.48
-54.07
-64.77
-74.64
-79.85
-77.61
-67.54
-51.92
-34.6
-19.17
-7.59
0.33
6.04
10.99
15.43
18.34
18.34
14.78
8.6
2.06
-2.15
-2.13
2.56
10.64
19.73
27.27
31.38
31.53
28.46
23.72
18.97
15.36
13.2
12.09
11.3
10.12
8.24
5.67
2.68
-0.49
-3.76
-7.24
-11.08
-15.26
-19.5
-23.2
-25.68
-26.48
-25.54
-23.37
-20.85
-19.04
-18.66
-19.97
-22.67
-26.17
-30.06
-34.25
-39.07
-44.91
-51.88
-59.58
-67.14
-73.45
-77.43
-78.16
-74.93
-67.3
-55.29
-39.64
-21.95
-4.39
10.76
21.89
28.45
31.04
31.06
29.98
28.86
27.99
27.08
25.61
23.31
20.36
17.41
15.21
14.3
14.74
16.1
17.8
19.36
20.66
21.8
22.86
23.64
23.7
22.51
19.83
15.88
11.3
6.85
2.97
-0.48
-4.09
-8.63
-14.41
-20.98
-27.17
-31.61
-33.31
-32.08
-28.6
-23.99
-19.34
-15.33
-12.18
-9.91
-8.58
-8.39
-9.62
-12.41
-16.62
-21.78
-27.11
-31.66
-34.53
-35.1
-33.22
-29.3
-24.22
-19.07
-14.75
-11.86
-10.58
-10.76
-12.08
-14.04
-16.07
-17.52
-17.76
-16.44
-13.54
-9.43
-4.63
0.39
5.5
10.8
16.58
23.14
30.62
38.9
47.64
56.34
64.34
70.92
75.4
77.35
76.75
74.06
70.13
65.86
61.84
58.16
54.47
50.23
44.94
38.45
30.85
22.46
13.65
4.74
-3.97
-12.37
-20.44
-28.38
-36.4
-44.56
-52.52
-59.66
-65.27
-68.86
-70.39
-70.11
-68.43
-65.74
-62.33
-58.59
-54.93
-51.59
-48.49
-45.05
-40.55
-34.58
-27.62
-21.02
-16.55
-15.5
-17.93
-22.49
-26.66
-27.76
-23.78
-14.08
0.47
17.72
34.94
49.42
58.93
62.04
58.23
47.88
32.44
14.28
-3.68
-18.53
-28.08
-31.3
-28.2
-19.55
-6.33
10.44
29.48
48.82
65.72
76.97
79.73
72.54
56.1
33.53
9.83
-9.38
-19.63
-19.17
-9.72
4.03
16.27
22.23
19.93
10.58
-2.49
-15.59
-26.14
-33.19
-37
-38.13
-36.92
-33.59
-28.7
-23.59
-20
-19.37
-21.86
-26.17
-30.05
-31.49
-29.76
-25.71
-21.26
-18.31
-17.8
-19.51
-22.34
-25.08
-26.99
-27.92
-28
-27.49
-26.57
-25.47
-24.47
-23.85
-23.64
-23.41
-22.32
-19.42
-14.2
-6.99
0.92
7.65
11.4
11.27
7.61
2.1
-2.76
-4.48
-1.36
6.91
19.05
32.64
45
54.18
59.63
62.18
63.22
63.75
63.66
61.85
57.33
50.13
41.51
33.25
26.65
22.07
19.44
19
21.63
28.21
38.36
49.53
57.61
58.77
51.53
37.81
21.89
8.27
-0.41
-4.03
-4.1
-2.05
1.72
7.72
16.11
25.56
33.11
35.09
28.76
13.64
-8.21
-33.09
-57.2
-77.93
-94.44
-107.16
-117.06
-124.81
-130.5
-134
-135.31
-134.97
-133.81
-132.71
-131.96
-131.15
-129.29
-125.21
-118.13
-108.03
-95.7
-82.37
-69.23
-57
-45.89
-35.81
-26.73
-18.91
-12.88
-9.2
-8.14
-9.52
-12.63
-16.26
-18.81
-18.51
-13.93
-4.62
8.45
22.88
35.63
44.08
47.06
45.18
40.39
35.06
31.13
29.65
30.8
34.21
39.18
44.78
49.9
53.51
54.85
53.8
50.88
47.01
43.26
40.5
39.36
40.19
43
47.42
52.57
57.27
60.34
61.12
59.66
56.67
53.14
49.89
47.28
45.23
43.44
41.73
40.11
38.75
37.79
37.24
36.99
36.86
36.7
36.4
35.81
34.79
33.18
30.94
28.19
25.13
21.96
18.76
15.48
12.01
8.27
4.31
0.29
-3.6
-7.25
-10.58
-13.52
-15.92
-17.4
-17.48
-15.63
-11.37
-4.51
4.73
15.69
27.43
38.85
48.96
57.04
62.67
65.83
66.78
66.01
64.15
61.81
59.47
57.27
54.92
51.76
46.97
39.93
30.32
18.29
4.39
-10.56
-25.63
-40.01
-53.3
-65.62
-77.52
-89.7
-102.5
-115.67
-128.37
-139.54
-148.33
-154.43
-157.76
-158.09
-154.72
-146.58
-132.9
-113.77
-90.49
-65.24
-40.47
-18.2
0.47
15.27
26.69
35.55
42.83
49.35
55.57
61.51
66.76
70.92
73.82
75.85
77.86
80.79
85.21
90.95
97.16
102.69
106.54
108.28
108.1
106.72
104.97
103.46
102.35
101.29
99.75
97.34
94.15
90.71
87.7
85.66
84.74
84.75
85.44
86.57
87.72
87.84
84.94
76.69
61.49
39.73
13.88
-12.38
-35.86
-55.21
-70.96
-84.41
-96.24
-105.99
-112.68
-116.21
-118.17
-121.27
-127.78
-138.02
-150.03
-160.87
-168.35
-171.92
-172.06
-168.94
-161.37
-147.34
-125.51
-96.87
-65.23
-36.04
-14.13
-1.7
2.14
0.44
-3.51
-7.59
-11.33
-15.24
-19.83
-25.02
-30.16
-34.42
-37.29
-38.82
-39.48
-40.01
-41.08
-43.03
-45.73
-48.69
-51.21
-52.77
-53.32
-53.25
-53.13
-53.25
-53.22
-52.07
-48.64
-42.22
-32.92
-21.58
-9.28
3.25
15.94
29.22
43.38
58.13
72.28
83.95
91.25
92.93
88.82
79.99
68.25
55.59
43.63
33.39
25.38
19.84
16.84
16.14
17.1
18.61
19.37
18.42
15.54
11.44
7.32
4.35
3.06
3.28
4.29
5.27
5.68
5.31
4.25
2.77
1.15
-0.3
-1.28
-1.64
-1.37
-0.62
0.39
1.49
2.68
4.03
5.67
7.58
9.64
11.56
13.11
14.09
14.36
13.71
11.87
8.71
4.59
0.56
-1.67
-0.24
6.07
17.1
31.24
45.85
58.24
66.58
70.32
70.13
67.19
62.6
56.93
50.33
42.71
34.04
24.42
14.1
3.55
-6.5
-15.16
-21.65
-25.39
-26.4
-25.33
-23.14
-20.73
-18.64
-16.88
-15.18
-13.34
-11.51
-10.27
-10.3
-12.04
-15.44
-20.06
-25.23
-30.36
-34.97
-38.57
-40.52
-40.09
-36.85
-31.05
-23.88
-17
-11.97
-9.51
-9.39
-10.76
-12.86
-15.35
-18.31
-21.81
-25.5
-28.67
-30.63
-30.93
-29.57
-26.69
-22.28
-16.09
-7.9
2.14
13.34
24.64
34.98
43.56
50.03
54.37
56.74
57.44
56.9
55.65
54.2
52.83
51.48
49.91
47.82
45.19
42.31
39.64
37.7
36.82
37.13
38.47
40.52
42.84
44.98
46.51
47.14
46.83
45.72
44.24
42.95
42.41
42.88
44.21
45.75
46.61
46
43.66
40.06
36.16
32.88
30.58
28.81
26.58
23.02
17.86
11.58
5.07
-0.97
-6.41
-11.66
-17.21
-23.15
-29.11
-34.43
-38.72
-42.07
-44.91
-47.58
-49.99
-51.63
-52.02
-51.14
-49.57
-48.16
-47.51
-47.58
-47.78
-47.35
-45.98
-44.06
-42.45
-42.03
-43.12
-45.43
-48.23
-50.84
-52.99
-54.95
-57.34
-60.73
-65.37
-71
-77
-82.61
-87.2
-90.39
-91.95
-91.68
-89.13
-83.65
-74.59
-61.66
-45.26
-26.46
-6.92
11.65
27.89
41.14
51.39
59.1
64.91
69.36
72.85
75.54
77.5
78.74
79.11
78.36
76.19
72.34
66.79
59.89
52.27
44.66
37.6
31.31
25.65
20.37
15.22
10.13
5.22
0.64
-3.44
-6.97
-10
-12.65
-15.04
-17.38
-19.84
-22.62
-25.8
-29.3
-32.79
-35.67
-37.16
-36.53
-33.4
-27.96
-21.08
-14.19
-8.72
-5.65
-5.06
-6.12
-7.44
-7.61
-5.7
-1.47
4.74
12.21
20.04
27.41
33.55
37.9
40.23
40.72
39.85
38.23
36.38
34.52
32.66
30.6
28.12
25.02
21.28
17.12
13.08
9.92
8.33
8.69
10.67
13.48
16.08
17.7
18.08
17.42
16.17
14.68
13.12
11.5
9.86
8.2
6.44
4.33
1.51
-2.33
-7.3
-13.15
-19.37
-25.31
-30.39
-34.27
-36.89
-38.45
-39.26
-39.54
-39.32
-38.44
-36.61
-33.75
-30.08
-26.1
-22.53
-19.96
-18.67
-18.54
-19.13
-19.84
-20.15
-19.67
-18.26
-16.01
-13.17
-10.09
-7.09
-4.41
-2.14
-0.34
0.96
1.71
1.87
1.45
0.54
-0.74
-2.22
-3.82
-5.51
-7.25
-9.03
-10.9
-12.9
-15.14
-17.68
-20.43
-23.02
-24.97
-25.77
-25.23
-23.57
-21.39
-19.37
-18
-17.39
-17.25
-17.16
-16.76
-15.98
-14.96
-13.83
-12.63
-11.16
-9.17
-6.46
-3.14
0.47
3.85
6.58
8.48
9.73
10.72
11.88
13.42
15.21
16.87
17.89
17.91
16.87
15.06
13.01
11.27
10.21
9.91
10.17
10.66
10.96
10.74
9.9
8.57
7.07
5.91
5.67
6.85
9.72
14.09
19.32
24.35
28.01
29.34
27.98
24.18
18.77
12.89
7.68
3.96
2.13
2.16
3.64
6.04
8.84
11.6
14.01
15.85
16.99
17.37
17.11
16.53
16.05
15.92
16
15.7
14.32
11.43
7.22
2.45
-1.92
-5.24
-7.51
-9.31
-11.37
-14.08
-17.27
-20.29
-22.42
-23.26
-22.93
-21.92
-20.82
-19.95
-19.34
-18.8
-18.18
-17.49
-16.94
-16.86
-17.38
-18.39
-19.48
-20.13
-19.94
-18.73
-16.59
-13.75
-10.56
-7.33
-4.36
-1.9
-0.08
1.13
1.99
2.91
4.36
6.67
9.88
13.76
17.85
21.65
24.74
26.85
27.81
27.53
25.99
23.35
19.93
16.23
12.87
10.24
8.46
7.2
5.87
3.76
0.34
-4.54
-10.62
-17.24
-23.49
-28.37
-31.12
-31.37
-29.37
-25.81
-21.59
-17.47
-13.8
-10.53
-7.32
-3.87
-0.11
3.78
7.46
10.68
13.39
15.75
18.05
20.45
22.98
25.5
27.82
29.77
31.32
32.62
33.91
35.45
37.35
39.45
41.43
42.84
43.39
43.01
41.83
40.06
37.88
35.36
32.59
29.76
27.23
25.45
24.7
24.94
25.78
26.55
26.63
25.77
24.25
22.77
22.22
23.13
25.4
28.3
30.78
31.96
31.41
29.2
25.6
20.83
14.9
7.71
-0.69
-9.99
-19.61
-28.94
-37.5
-45.07
-51.52
-56.71
-60.32
-62.04
-61.56
-58.73
-53.61
-46.54
-38.06
-28.88
-19.71
-11.08
-3.13
4.36
11.86
19.89
28.81
38.62
48.96
59.09
68.12
75.32
80.28
83.07
84.15
84.07
83.18
81.46
78.59
74.13
67.88
59.79
50.02
38.81
26.43
13.31
0.14
-12.31
-23.3
-32.5
-39.99
-46.1
-51.17
-55.39
-58.93
-62.07
-65.38
-69.58
-75.19
-82.19
-89.97
-97.55
-104.04
-108.92
-112.1
-113.82
-114.41
-114.31
-114.04
-114.25
-115.52
-118.09
-121.41
-124.07
-123.95
-118.81
-107.16
-88.92
-65.62
-40.13
-15.7
4.92
20.2
30
35.04
36.29
34.6
30.65
25.32
20
16.47
16.23
19.77
26.1
33.01
38.01
39.45
37.38
33.49
30.23
29.63
32.28
37.23
42.56
46.54
48.27
47.91
46.18
43.68
40.52
36.43
31.28
25.42
19.78
15.33
12.63
11.42
10.75
9.51
6.95
2.89
-2.27
-7.84
-13.07
-17.24
-19.75
-19.97
-17.32
-11.51
-2.8
7.85
18.87
28.52
35.39
38.82
39.01
36.79
33.09
28.65
23.89
18.99
14.12
9.53
5.48
2.09
-0.81
-3.68
-7.03
-11.12
-15.78
-20.51
-24.65
-27.78
-29.95
-31.63
-33.53
-36.16
-39.52
-43.02
-45.71
-46.67
-45.51
-42.52
-38.49
-34.38
-30.85
-28.13
-26.08
-24.3
-22.37
-19.77
-15.92
-10.29
-2.72
6.39
15.89
24.2
29.84
32.05
31.17
28.41
25.5
24.01
24.99
28.83
35.27
43.5
52.25
59.89
64.75
65.46
61.38
52.92
41.36
28.4
15.57
3.73
-7.02
-17.1
-26.98
-36.88
-46.61
-55.69
-63.66
-70.27
-75.47
-79.31
-81.68
-82.34
-81.05
-77.82
-73.08
-67.47
-61.47
-54.98
-47.38
-37.81
-25.78
-11.56
3.89
19.31
33.72
46.7
58.26
68.53
77.41
84.55
89.61
92.64
94.21
95.16
96.35
98.09
100.02
101.29
100.91
98.17
92.97
85.85
77.79
69.81
62.56
56.15
50.2
44.17
37.65
30.64
23.39
16.25
9.44
3.01
-3.16
-9.21
-15.18
-21.02
-26.66
-32
-37.03
-41.73
-46.08
-49.92
-52.97
-54.98
-55.9
-55.9
-55.39
-54.77
-54.1
-53.02
-50.82
-46.78
-40.63
-32.66
-23.69
-14.67
-6.29
1.22
7.93
13.93
19.09
23.01
25.33
25.99
25.43
24.48
24.11
25.01
27.29
30.49
33.73
36.16
37.21
36.89
35.63
34.11
32.85
31.97
31.24
30.07
27.86
24.2
19.05
12.62
5.28
-2.65
-11.02
-19.83
-29.08
-38.62
-48.06
-56.81
-64.28
-70.1
-74.19
-76.83
-78.41
-79.3
-79.82
-80.2
-80.62
-81.25
-82.08
-82.93
-83.41
-83.04
-81.32
-77.96
-72.8
-65.89
-57.36
-47.42
-36.5
-25.12
-13.94
-3.4
6.35
15.48
24.28
32.87
41.06
48.33
54
57.38
58.07
56.08
51.92
46.48
40.82
35.83
32.03
29.48
27.77
26.32
24.59
22.24
19.2
15.58
11.65
7.83
4.58
2.27
1.02
0.63
0.69
0.86
1.07
1.56
2.65
4.45
6.71
8.95
10.8
12.21
13.48
14.96
16.72
18.51
19.88
20.49
20.46
20.27
20.5
21.41
22.81
24.01
24.26
23.01
20.19
16.18
11.63
7.22
3.55
0.97
-0.44
-0.89
-0.76
-0.6
-0.87
-1.93
-3.89
-6.63
-9.87
-13.25
-16.44
-19.19
-21.37
-22.89
-23.73
-23.88
-23.31
-22.03
-20.01
-17.24
-13.73
-9.48
-4.51
1.07
7.04
13
18.48
22.98
26.11
27.7
27.84
26.91
25.42
23.81
22.33
20.9
19.27
17.16
14.52
11.47
8.16
4.48
-0.09
-6.33
-14.91
-25.9
-38.54
-51.53
-63.42
-73.21
-80.36
-84.72
-86.2
-84.63
-79.84
-71.93
-61.48
-49.45
-37.04
-25.21
-14.61
-5.53
2.07
8.37
13.62
18
21.58
24.17
25.53
25.47
24.1
21.89
19.46
17.28
15.43
13.7
11.75
9.5
7.22
5.43
4.64
5.03
6.35
8.07
9.64
10.64
10.97
10.74
10.21
9.69
9.46
9.71
10.48
11.76
13.42
15.27
17.04
18.38
18.93
18.33
16.34
12.99
8.61
3.67
-1.36
-6.18
-10.62
-14.51
-17.59
-19.48
-19.88
-18.85
-16.92
-14.94
-13.69
-13.53
-14.26
-15.2
-15.53
-14.72
-12.73
-9.97
-7.02
-4.34
-2.1
-0.22
1.41
2.83
3.85
4.25
3.92
2.95
1.53
-0.21
-2.27
-4.75
-7.71
-11.03
-14.37
-17.33
-19.67
-21.34
-22.37
-22.72
-22.17
-20.36
-17.04
-12.21
-6.17
0.59
7.63
14.67
21.68
28.73
35.98
43.51
51.22
58.8
65.81
71.83
76.61
80.12
82.48
83.9
84.53
84.51
84.01
83.38
82.84
82.49
81.96
80.37
76.62
69.95
60.6
50.06
40.54
34.01
31.44
32.48
35.79
39.86
43.67
47.06
50.6
54.96
60.28
66.41
73.33
81.21
90.41
101.02
112.8
125.09
136.85
146.21
151.73
152.72
149.04
140.77
127.31
108.02
82.6
51.24
13.53
-29.45
-74.77
-118.65
-157.66
-190.9
-218.76
-242.02
-260.97
-276.89
-289.01
-294.69
-291.5
-279.19
-262.27
-246.5
-236.06
-231.93
-234.26
-239.87
-243.55
-240.75
-229.24
-211.26
-189.22
-163.63
-117.17
-44.89
42.67
125.86
184.61
220.8
239.62
247.51
251.53
257.1
264.28
270.54
272.37
266.39
250.52
222.2
181.13
129.42
70.86
8.59
-51.77
-101.89
-133.23
-140.89
-128.45
-105.73
-85.02
-76.23
-84.09
-105.44
-131.26
-151.46
-159.35
-154.76
-141.31
-123.14
-102.5
-79.94
-54.76
-27.11
0.26
21.76
30.47
22.14
-2.06
-35.21
-67.12
-87.78
-91.15
-77.31
-51.81
-23.18
1.15
17.74
27.8
35.43
44.52
56.33
69.1
79.7
86.18
89.24
91.69
95.92
101.81
106.39
105.66
97.35
82.58
64.85
47.95
34.1
23.62
16.52
13.75
17.35
28.85
47.66
70.6
93.49
113.5
130.11
144.54
158.07
170.71
181.64
190.36
197.53
204.52
211.71
216.99
215.75
202.6
174.12
131.66
82.07
36.1
4.89
-4.27
8.96
37.77
70.5
94.85
102.33
90.72
63.97
29.75
-3.94
-31.54
-50.62
-61.21
-64.89
-64.05
-62.22
-64.22
-75.17
-98.5
-133.51
-174.24
-210.17
-229.49
-223.45
-190.1
-135.77
-73.47
-18.73
15.61
23.57
7.54
-23.4
-57.57
-85.27
-101.9
-108.29
-108.47
-106.48
-104.13
-100.82
-95.39
-88.38
-82.82
-82.98
-91.73
-108.19
-127.27
-141.76
-145.61
-136.8
-118.07
-95.57
-76.11
-64.35
-61.23
-64.28
-69.32
-73.06
-74.97
-77.46
-84.33
-98.38
-119.31
-143.38
-164.96
-179.14
-183.96
-181.17
-175
-169.79
-167.88
-168.42
-168.01
-162.29
-148.03
-124.43
-93.48
-58.8
-23.98
8.99
40.17
70.76
101.37
130.49
154.43
168.8
170.86
161.34
144.56
126.75
113.33
106.93
106.89
110.43
114.45
117.05
117.83
117.28
116.03
114.32
112.04
109.29
106.49
104.36
103.42
103.51
103.88
103.63
102.41
100.78
100.09
101.7
106.08
112.28
118.02
120.54
117.52
108.02
92.89
74.61
56.4
41.05
29.69
21.27
13.03
1.83
-14.35
-35.42
-59.22
-82.68
-103.36
-120.55
-135.29
-149.34
-163.91
-178.77
-192.6
-204.12
-213.27
-221.66
-231.61
-244.78
-260.8
-276.87
-288.77
-292.36
-285.29
-267.57
-241.22
-209.12
-173.94
-137.59
-101.33
-66.2
-33.18
-2.92
24.65
50.5
76.2
102.99
130.86
158.06
181.46
197.63
204.12
200.48
188.38
170.78
150.84
130.86
111.91
94.18
77.62
62.54
49.69
39.97
33.72
30.39
28.64
27
24.54
21.22
17.82
15.28
14.05
13.85
13.83
13.13
11.33
8.64
5.7
3.35
2.22
2.51
3.97
6.03
8
9.32
9.75
9.26
7.88
5.56
2.14
-2.45
-7.88
-13.41
-18.04
-20.91
-21.69
-20.71
-18.67
-16.3
-13.98
-11.84
-9.88
-8.23
-7.15
-6.93
-7.76
-9.49
-11.73
-13.85
-15.24
-15.45
-14.45
-12.61
-10.61
-9.19
-8.75
-9.23
-9.96
-10.04
-8.66
-5.5
-0.9
4.2
8.74
11.86
13.27
13.31
12.78
12.59
13.45
15.65
18.98
22.93
26.94
30.52
33.34
35.16
35.73
34.81
32.18
27.84
22.07
15.55
9.08
3.43
-1.01
-4.3
-6.91
-9.48
-12.54
-16.23
-20.23
-23.88
-26.4
-27.24
-26.26
-23.88
-20.89
-18.26
-16.76
-16.7
-17.88
-19.57
-20.87
-20.89
-18.94
-14.58
-7.69
1.47
12.2
23.38
33.72
42.08
47.8
50.82
51.64
51
49.64
48.09
46.66
45.45
44.36
43.21
41.81
40.06
38.09
36.27
34.99
34.47
34.58
34.89
34.92
34.3
32.92
30.86
28.31
25.42
22.29
18.94
15.31
11.22
6.4
0.51
-6.62
-14.83
-23.46
-31.42
-37.52
-40.87
-41.16
-38.83
-34.84
-30.32
-26.25
-23.22
-21.34
-20.4
-19.99
-19.62
-18.89
-17.51
-15.4
-12.74
-9.91
-7.28
-4.96
-2.64
0.35
4.72
10.81
18.26
25.94
32.32
36.05
36.44
33.82
29.39
24.73
21.31
20
20.9
23.37
26.35
28.55
28.84
26.6
22.13
16.87
13.31
14.25
21.63
35.57
53.93
72.8
87.81
95.66
95.23
87.83
76.56
64.94
55.61
49.57
46.1
43.54
40.21
35.22
28.7
21.54
14.64
8.34
2.14
-4.85
-13.28
-23.06
-33.24
-42.5
-49.83
-54.99
-58.43
-60.93
-62.97
-64.39
-64.65
-63.23
-60.15
-56.2
-52.69
-50.81
-51.01
-52.7
-54.39
-54.32
-51.09
-44.15
-34.01
-21.86
-9.23
2.62
12.87
21.27
27.95
33.18
37.13
39.77
41
40.8
39.38
37.19
34.9
33.14
32.32
32.48
33.21
33.88
33.9
32.91
30.95
28.4
25.77
23.5
21.75
20.47
19.4
18.31
16.93
15.09
12.69
9.67
6.17
2.58
-0.5
-2.51
-3.07
-2.24
-0.38
1.9
4.04
5.72
6.9
7.72
8.36
8.9
9.28
9.34
8.83
7.51
5.27
2.13
-1.63
-5.57
-9.23
-12.31
-14.72
-16.59
-18.12
-19.43
-20.45
-21.04
-21.08
-20.71
-20.34
-20.46
-21.39
-23.07
-25.07
-26.78
-27.67
-27.4
-25.8
-22.81
-18.24
-11.94
-3.86
5.67
15.89
25.77
34.27
40.8
45.32
48.22
50.01
51.01
51.19
50.34
48.36
45.44
42.03
38.53
34.94
30.67
24.7
16.21
4.99
-8.22
-21.89
-34.29
-44.04
-50.49
-53.78
-54.52
-53.47
-51.3
-48.5
-45.49
-42.66
-40.33
-38.68
-37.58
-36.64
-35.25
-32.81
-28.93
-23.53
-16.87
-9.48
-2.04
4.78
10.45
14.71
17.55
19.22
20.2
20.95
21.85
23.09
24.68
26.48
28.27
29.82
30.89
31.27
30.76
29.16
26.41
22.55
17.85
12.74
7.71
3.15
-0.72
-3.94
-6.73
-9.35
-11.99
-14.75
-17.58
-20.29
-22.64
-24.33
-25.14
-25.01
-24.02
-22.4
-20.43
-18.21
-15.71
-12.79
-9.29
-5.22
-0.7
4.04
8.7
13.03
16.82
19.89
22.04
23.13
23.04
21.79
19.54
16.66
13.66
11.05
9.24
8.33
8.16
8.24
8.02
7.03
5.14
2.56
-0.3
-2.98
-5.18
-6.77
-7.86
-8.58
-9.02
-9.15
-8.87
-8.07
-6.63
-4.51
-1.7
1.69
5.44
9.14
12.29
14.4
15.15
14.54
12.86
10.68
8.62
7.26
6.87
7.45
8.74
10.34
11.91
13.15
13.96
14.33
14.35
14.07
13.6
13.02
12.34
11.55
10.53
9.14
7.26
4.9
2.23
-0.5
-3.05
-5.34
-7.37
-9.24
-11.08
-12.98
-15.11
-17.59
-20.53
-23.85
-27.23
-30.07
-31.76
-31.93
-30.59
-28.19
-25.35
-22.61
-20.24
-18.25
-16.52
-15.01
-13.82
-13.07
-12.87
-13.09
-13.54
-14.04
-14.47
-14.79
-14.97
-14.92
-14.49
-13.66
-12.52
-11.39
-10.62
-10.42
-10.76
-11.4
-12.09
-12.7
-13.34
-14.14
-15.1
-15.99
-16.4
-15.93
-14.53
-12.47
-10.27
-8.42
-7.13
-6.29
-5.67
-5.07
-4.46
-3.82
-3.06
-1.84
0.26
3.57
8.09
13.37
18.7
23.39
27.02
29.57
31.31
32.5
33.32
33.71
33.49
32.47
30.6
27.95
24.78
21.4
18.11
15.14
12.62
10.58
8.97
7.73
6.8
6.21
6.05
6.44
7.38
8.73
10.2
11.4
12.06
12.05
11.46
10.53
9.52
8.66
8.08
7.73
7.49
7.09
6.3
4.96
3.07
0.93
-1.05
-2.39
-2.85
-2.5
-1.65
-0.8
-0.25
-0.14
-0.36
-0.76
-1.26
-1.96
-3.06
-4.6
-6.41
-8.08
-9.13
-9.28
-8.58
-7.41
-6.31
-5.8
-6.27
-7.81
-10.36
-13.63
-17.18
-20.46
-23.03
-24.59
-25.16
-25.02
-24.6
-24.15
-23.82
-23.58
-23.43
-23.53
-24.06
-25.19
-26.86
-28.84
-30.76
-32.42
-33.73
-34.68
-35.13
-34.68
-32.79
-29
-23.3
-16.23
-8.7
-1.71
4.04
8.27
11.11
12.87
13.92
14.53
14.93
15.31
15.9
16.84
18.23
20.02
22
23.88
25.36
26.18
26.24
25.64
24.65
23.65
22.98
22.88
23.41
24.46
25.82
27.23
28.44
29.21
29.4
28.95
27.96
26.58
25
23.3
21.47
19.35
16.78
13.73
10.36
7.02
4.09
1.91
0.64
0.24
0.5
1.15
1.93
2.7
3.46
4.31
5.27
6.22
6.74
6.25
4.21
0.42
-4.84
-10.87
-16.81
-21.94
-25.88
-28.59
-30.22
-30.91
-30.76
-29.81
-28.09
-25.65
-22.53
-18.8
-14.45
-9.45
-3.79
2.39
8.73
14.6
19.25
22.07
22.79
21.59
19.05
15.85
12.47
9.07
5.6
1.99
-1.59
-4.74
-7
-8.16
-8.42
-8.21
-7.95
-7.77
-7.44
-6.52
-4.77
-2.33
0.07
1.44
0.88
-1.95
-6.64
-12.16
-17.16
-20.5
-21.57
-20.47
-17.91
-14.91
-12.48
-11.42
-12.06
-14.35
-17.84
-21.88
-25.77
-28.93
-31
-31.89
-31.78
-30.98
-29.85
-28.65
-27.42
-25.95
-23.87
-20.83
-16.69
-11.6
-6.01
-0.45
4.61
8.92
12.41
15.12
17.09
18.32
18.8
18.63
17.98
17.12
16.37
15.91
15.8
15.9
15.96
15.71
14.98
13.76
12.24
10.68
9.3
8.18
7.36
6.82
6.62
6.81
7.26
7.58
7.3
6.34
5.33
5.65
8.89
16.01
26.54
38.46
48.85
55.05
55.76
51.46
44.04
35.87
28.86
23.93
21.08
19.72
19.23
19.04
18.71
17.82
15.91
12.58
7.71
1.53
-5.32
-12.02
-17.88
-22.62
-26.4
-29.67
-32.95
-36.43
-39.99
-43.32
-45.99
-47.71
-48.4
-48.12
-47.16
-45.85
-44.61
-43.73
-43.34
-43.22
-42.86
-41.65
-39.14
-35.25
-30.3
-24.77
-19.11
-13.48
-7.77
-1.82
4.36
10.54
16.28
21.17
25.05
28.07
30.55
32.73
34.6
35.91
36.29
35.51
33.57
30.79
27.51
24.06
20.55
16.95
13.16
9.1
4.79
0.29
-4.22
-8.54
-12.42
-15.59
-17.81
-18.88
-18.69
-17.2
-14.55
-10.98
-6.93
-2.82
0.99
4.35
7.34
10.1
12.7
14.94
16.45
16.91
16.23
14.7
12.78
10.93
9.35
7.97
6.59
5.1
3.59
2.26
1.24
0.43
-0.43
-1.62
-3.26
-5.21
-7.14
-8.69
-9.67
-10.08
-10.16
-10.25
-10.6
-11.29
-12.11
-12.66
-12.44
-11.14
-8.75
-5.63
-2.43
0.21
1.82
2.22
1.47
-0.22
-2.53
-5.05
-7.27
-8.69
-8.98
-8.2
-6.78
-5.42
-4.84
-5.41
-7.12
-9.61
-12.4
-15.04
-17.31
-19.17
-20.8
-22.51
-24.6
-27.24
-30.38
-33.72
-36.74
-38.95
-39.82
-39.05
-36.51
-32.44
-27.42
-22.32
-18.02
-15.1
-13.56
-12.79
-11.82
-9.82
-6.38
-1.71
3.68
9.29
14.89
20.5
26.21
31.97
37.4
42.02
45.44
47.48
48.28
48.15
47.46
46.5
45.56
44.8
44.29
43.89
43.18
41.54
38.34
33.22
26.28
18.11
9.55
1.48
-5.49
-11.13
-15.53
-19.03
-22.08
-25.07
-28.18
-31.18
-33.4
-34.04
-32.6
-29.22
-24.77
-20.5
-17.46
-15.91
-15.22
-14.15
-11.52
-6.67
0.26
8.46
16.79
24.01
29.13
31.61
31.51
29.52
26.7
24.08
22.24
21.11
20.15
18.79
16.74
14.13
11.35
8.82
6.65
4.73
2.9
1.08
-0.6
-1.99
-3.02
-3.92
-5.08
-6.9
-9.48
-12.56
-15.63
-18.14
-19.96
-21.27
-22.56
-24.14
-25.93
-27.46
-28.17
-27.84
-26.77
-25.72
-25.35
-25.91
-26.94
-27.5
-26.56
-23.59
-18.77
-12.94
-7.37
-3.23
-1.31
-1.81
-4.33
-8.02
-11.61
-13.4
-11.47
-4.1
9.57
28.81
50.94
71.84
87.2
94.1
92.23
83.98
73.09
62.88
54.71
47.86
40.6
31.7
21.38
11.13
2.61
-3.56
-8.36
-13.89
-22.18
-33.97
-48.14
-62.35
-74
-81.26
-83.7
-82.26
-78.8
-74.96
-71.15
-65.94
-57.22
-43.32
-24.13
-1.62
20.52
38.03
48.07
50.83
49.86
49.44
52.81
60.75
71.64
82.09
87.85
85.51
73.79
54.24
29.09
1.24
-25.52
-46.58
-57.93
-58.35
-50.2
-38.56
-29.01
-27.69
-38.56
-61.46
-90.3
-112.51
-115.58
-96.17
-64.94
-28.87
7.24
40.69
69.14
90.88
105.36
112.32
111.8
104.8
94.18
82.21
70.57
60.35
52.13
45.56
39.08
30.71
19.64
7.37
-4.36
-13.99
-20.53
-23.68
-23.91
-22.58
-21.22
-20.53
-19.85
-18.43
-15.8
-11.85
-6.78
-1.06
4.51
9.01
11.79
12.68
11.55
8.36
3.4
-2.65
-8.87
-14.34
-18.42
-20.68
-20.84
-18.93
-15.22
-10.23
-4.67
0.7
5.19
8.48
10.66
12.22
13.7
15.45
17.36
19.12
20.36
20.96
21.04
20.81
20.45
20.07
19.76
19.74
20.25
21.37
22.83
24.07
24.47
23.62
21.48
18.28
14.23
9.44
3.95
-2.07
-8.19
-13.87
-18.7
-22.7
-26.16
-29.35
-32.18
-34.24
-34.98
-34.17
-32.14
-29.71
-27.86
-27.31
-28.25
-30.37
-33.13
-36.01
-38.7
-41.08
-42.99
-44.24
-44.51
-43.48
-41.07
-37.49
-33.19
-28.71
-24.37
-20.19
-15.96
-11.46
-6.63
-1.78
2.59
6.05
8.34
9.52
9.89
9.73
9.27
8.59
7.65
6.42
4.85
2.84
0.27
-2.94
-6.68
-10.56
-13.93
-16.16
-16.8
-15.85
-13.75
-11.1
-8.49
-6.17
-4.07
-1.92
0.44
3.01
5.44
7.22
7.83
6.94
4.54
1
-3.05
-6.96
-10.15
-12.41
-13.81
-14.61
-15.14
-15.65
-16.15
-16.48
-16.32
-15.41
-13.65
-11.15
-8.23
-5.32
-2.88
-1.25
-0.62
-0.93
-1.82
-2.68
-2.83
-1.69
0.99
4.98
9.71
14.41
18.59
22.17
25.46
28.98
33.02
37.5
42.04
46.3
50.15
53.87
57.86
62.39
67.35
72.33
76.85
80.64
83.63
85.72
86.66
85.88
82.88
77.53
70.22
61.78
53.03
44.42
35.79
26.65
16.46
5.08
-7.22
-20.02
-33.02
-46.24
-59.95
-74.38
-89.45
-104.79
-119.86
-134.38
-148.54
-162.93
-178.23
-194.58
-211.36
-227.25
-240.85
-251.04
-257.13
-258.45
-253.79
-241.24
-218.75
-185.2
-141.55
-91.18
-39.15
9.28
50.15
81.47
103.01
115.46
119.8
117.23
109.47
98.97
88.58
80.57
75.71
72.92
69.98
64.79
56.52
46.04
35.39
26.75
21.52
19.96
21.39
24.77
29.05
33.5
37.71
41.78
46.06
50.98
56.66
62.54
67.45
69.98
69.05
64.38
56.56
46.73
36.08
25.54
15.68
6.86
-0.45
-5.64
-8.04
-7.23
-3.26
3.26
11.32
19.76
27.59
34.19
39.45
43.51
46.55
48.58
49.35
48.56
45.99
41.93
37.14
32.61
29.11
26.77
24.89
22.2
17.45
9.9
-0.25
-11.93
-23.77
-34.49
-43.34
-50.04
-54.52
-56.73
-56.63
-54.29
-50.08
-44.7
-38.93
-33.44
-28.48
-23.96
-19.49
-14.63
-9.14
-3
3.47
9.65
14.76
18.02
18.98
17.75
15.02
11.96
9.79
9.35
10.89
13.98
17.8
21.49
24.42
26.27
27.02
26.81
25.86
24.35
22.47
20.32
17.97
15.43
12.68
9.77
6.78
3.92
1.51
-0.2
-1.08
-1.19
-0.77
-0.18
0.25
0.26
-0.28
-1.39
-3.06
-5.2
-7.67
-10.32
-12.91
-15.25
-17.14
-18.43
-18.98
-18.64
-17.22
-14.53
-10.48
-5.2
0.95
7.32
13.18
17.86
21.02
22.75
23.47
23.74
24
24.37
24.7
24.75
24.37
23.58
22.55
21.37
20.06
18.56
16.88
15.15
13.58
12.3
11.31
10.36
9.17
7.53
5.44
3.15
0.98
-0.78
-2.11
-3.26
-4.69
-6.9
-10.24
-14.86
-20.53
-26.79
-33.04
-38.71
-43.39
-46.91
-49.26
-50.53
-50.78
-50.06
-48.37
-45.77
-42.43
-38.62
-34.63
-30.69
-26.93
-23.36
-19.79
-15.83
-10.84
-4.11
4.84
15.84
27.92
39.43
48.59
54.1
55.61
53.78
49.8
44.84
39.64
34.46
29.28
24.15
19.38
15.34
12.36
10.41
9.12
7.91
6.25
3.83
0.61
-3.19
-7.26
-11.25
-14.86
-17.76
-19.65
-20.35
-19.79
-18.04
-15.31
-11.87
-7.96
-3.83
0.24
3.94
6.99
9.22
10.7
11.73
12.7
13.98
15.74
17.92
20.33
22.71
24.86
26.68
28.16
29.29
29.99
30.09
29.31
27.39
24.15
19.64
14.09
7.95
1.71
-4.25
-9.72
-14.7
-19.33
-23.75
-27.94
-31.74
-34.9
-37.16
-38.41
-38.67
-38.14
-37.16
-36.1
-35.19
-34.43
-33.63
-32.36
-30.27
-27.22
-23.49
-19.6
-16.1
-13.29
-11.04
-8.85
-6.09
-2.17
3.25
10.2
18.35
26.96
34.96
41.08
44.33
44.48
42.36
39.82
39.01
41.41
46.98
53.99
59.71
61.49
57.85
49.04
36.76
23.34
10.75
0.12
-8.27
-14.54
-18.76
-20.8
-20.47
-17.84
-13.58
-8.89
-5.14
-3.27
-3.46
-4.98
-6.65
-7.3
-6.4
-4.14
-1.17
1.85
4.56
7.05
9.6
12.34
15.09
17.39
18.8
19.12
18.49
17.27
15.76
14.14
12.47
10.68
8.81
6.88
4.94
2.87
0.52
-2.29
-5.5
-8.82
-11.74
-13.67
-14.27
-13.53
-11.83
-9.75
-7.81
-6.37
-5.46
-4.86
-4.25
-3.35
-2.1
-0.64
0.72
1.72
2.16
2.04
1.49
0.72
-0.14
-1.03
-2.04
-3.28
-4.86
-6.79
-8.96
-11.21
-13.33
-15.2
-16.73
-17.91
-18.76
-19.34
-19.71
-19.96
-20.23
-20.67
-21.31
-22.06
-22.65
-22.76
-22.13
-20.67
-18.54
-16.05
-13.54
-11.26
-9.36
-7.82
-6.61
-5.74
-5.28
-5.36
-6.09
-7.41
-9.07
-10.72
-12.03
-12.83
-13.24
-13.53
-14.04
-15
-16.38
-17.99
-19.59
-21.02
-22.32
-23.65
-25.18
-27.03
-29.19
-31.61
-34.2
-36.82
-39.18
-40.82
-41.26
-40.26
-38.06
-35.47
-33.53
-33.01
-33.89
-35.26
-35.77
-34.23
-30.23
-24.3
-17.52
-10.85
-4.68
1.22
7.34
13.94
20.88
27.61
33.58
38.5
42.45
45.67
48.41
50.76
52.87
55.1
58.08
62.57
69.25
78.32
89.47
101.8
113.98
124.62
132.67
137.82
140.68
142.58
144.98
148.74
153.75
159.01
163.19
165.29
164.98
162.52
158.21
151.96
143.21
131.27
115.68
96.55
74.32
49.32
21.49
-9.59
-44.18
-81.72
-120.38
-157.22
-188.88
-212.59
-227.14
-233.04
-232.44
-228.28
-223.39
-219.7
-217.84
-217.2
-216.24
-213.24
-206.93
-197.06
-184.38
-170.33
-156.34
-143.2
-130.64
-117.3
-101.13
-79.85
-51.69
-15.89
26.75
73.78
121.54
166.09
204.37
235.13
259.12
278.34
294.69
308.67
318.54
320.81
311.42
287.38
248.09
195.85
135.27
72.01
11.5
-42.04
-85.97
-119.09
-141.45
-154.08
-158.86
-158.39
-155.48
-152.61
-151.24
-151.54
-152.62
-153.05
-151.67
-148.04
-142.55
-136.11
-129.66
-123.64
-117.81
-111.44
-103.72
-94.22
-83.28
-71.95
-61.64
-53.67
-48.92
-47.55
-49.11
-52.7
-57.25
-61.77
-65.68
-69
-72.4
-76.96
-83.76
-93.27
-104.92
-117.19
-128.11
-135.96
-139.91
-140.27
-138.08
-134.81
-131.75
-129.73
-129.21
-130.39
-133.24
-137.32
-141.5
-143.75
-141.71
-133.06
-116.17
-90.3
-55.4
-11.37
42.42
106.95
182.25
265.83
351.8
431.58
496.33
540.14
561.95
565.45
556.65
540.66
519.32
491.29
454.01
406.25
349.83
289.02
228.47
171.07
117.15
65.3
14.22
-35.77
-82.46
-122.47
-153.01
-173.1
-184.05
-188.67
-189.95
-189.93
-189.12
-186.92
-182.37
-175.12
-165.81
-155.81
-146.62
-139.09
-133
-127.23
-120.31
-111.14
-99.59
-86.46
-73.16
-61.05
-50.81
-42.33
-34.85
-27.48
-19.69
-11.55
-3.65
3.25
8.62
12.37
14.95
17.19
20.08
24.51
30.98
39.36
48.91
58.49
67.22
74.79
81.74
88.95
96.99
105.49
113.05
117.81
118.27
114.09
106.17
96.14
85.66
75.96
67.63
60.45
53.31
43.77
28.13
2.35
-36.21
-86.73
-143.76
-198
-239.14
-259.49
-256.78
-234.6
-200.4
-162.21
-125.91
-94.33
-68.15
-47.59
-33.24
-25.93
-25.48
-29.91
-35.53
-38.44
-36.26
-29.03
-18.9
-8.83
-1.17
3.23
4.88
5.05
5.1
6.01
8.22
11.74
16.26
21.25
26.06
30.25
33.6
36.24
38.37
40.09
41.2
41.35
40.24
38.09
35.64
34.01
34.19
36.54
40.54
44.9
48.1
48.94
47
42.59
36.52
29.67
22.65
15.86
9.52
3.82
-1.15
-5.38
-9.07
-12.45
-15.63
-18.5
-20.75
-22
-21.99
-20.63
-18.11
-14.78
-11.08
-7.43
-4.13
-1.3
1.12
3.3
5.39
7.39
9.08
10.25
10.79
10.91
11.02
11.56
12.78
14.58
16.62
18.43
19.73
20.45
20.72
20.77
20.73
20.59
20.23
19.53
18.47
17.18
15.86
14.67
13.65
12.69
11.62
10.32
8.94
7.89
7.61
8.4
10.09
12.13
13.7
14.22
13.53
12.08
10.62
9.86
10.1
11.12
12.38
13.3
13.59
13.31
12.74
12.12
11.5
10.75
9.62
8.07
6.28
4.61
3.39
2.67
2.21
1.65
0.69
-0.71
-2.36
-3.98
-5.34
-6.44
-7.41
-8.46
-9.69
-11.17
-12.81
-14.46
-15.97
-17.01
-17.26
-16.49
-14.62
-11.89
-8.76
-5.71
-3
-0.71
1.31
3.17
4.8
5.95
6.32
5.78
4.51
2.95
1.58
0.7
0.36
0.29
0.12
-0.41
-1.37
-2.57
-3.71
-4.46
-4.65
-4.27
-3.54
-2.84
-2.6
-3.16
-4.65
-6.96
-9.82
-12.89
-15.85
-18.35
-20.04
-20.61
-19.78
-17.42
-13.64
-8.84
-3.62
1.32
5.27
7.73
8.56
8.05
6.94
6.24
6.81
9.05
12.7
16.89
20.53
22.66
22.77
20.83
17.22
12.52
7.41
2.56
-1.46
-4.31
-5.9
-6.52
-6.72
-7.12
-8.23
-10.22
-12.86
-15.62
-17.85
-19.07
-19.14
-18.31
-16.97
-15.51
-14.02
-12.35
-10.23
-7.42
-3.71
1.25
7.96
17.05
28.75
42.41
56.4
68.49
76.78
80.59
80.75
79.12
77.59
77.14
77.45
77.43
76
72.72
67.86
62.01
55.41
47.75
38.43
27.11
14.28
1.26
-10.17
-18.48
-22.94
-23.93
-22.65
-20.77
-19.72
-20.31
-22.61
-26.12
-30.1
-33.93
-37.37
-40.44
-43.29
-45.96
-48.31
-50
-50.7
-50.24
-48.61
-46.08
-42.92
-39.4
-35.71
-31.97
-28.27
-24.73
-21.51
-18.74
-16.53
-14.91
-13.82
-13.19
-12.91
-12.9
-13.11
-13.49
-13.96
-14.43
-14.69
-14.51
-13.68
-12.03
-9.6
-6.64
-3.58
-0.89
1.04
2.04
2.19
1.7
0.81
-0.3
-1.57
-2.97
-4.41
-5.7
-6.63
-7.07
-7.11
-7.02
-7.13
-7.64
-8.5
-9.44
-10.11
-10.23
-9.65
-8.44
-6.73
-4.74
-2.72
-0.93
0.41
1.18
1.5
1.62
1.86
2.45
3.44
4.71
6.1
7.48
8.85
10.26
11.74
13.19
14.45
15.34
15.75
15.77
15.53
15.26
15.08
14.95
14.77
14.36
13.62
12.58
11.28
9.77
8.09
6.21
4.1
1.78
-0.65
-2.98
-4.99
-6.56
-7.65
-8.39
-9.01
-9.8
-10.94
-12.53
-14.43
-16.34
-17.85
-18.59
-18.35
-17.15
-15.26
-13.11
-11.15
-9.69
-8.82
-8.39
-8.09
-7.69
-7.03
-6.19
-5.43
-5.03
-5.14
-5.67
-6.29
-6.54
-6.07
-4.7
-2.57
0.08
2.99
6.02
9.17
12.48
15.96
19.54
22.95
25.86
27.92
28.88
28.62
27.16
24.65
21.26
17.21
12.7
7.9
2.93
-2.25
-7.98
-14.77
-23.11
-33.24
-44.87
-57.09
-68.5
-77.43
-82.47
-82.84
-78.67
-71.01
-61.35
-51.28
-41.73
-32.79
-23.67
-13.3
-0.95
13.31
28.42
42.83
54.91
63.52
68.13
68.76
65.79
59.8
51.5
41.62
31.02
20.61
11.33
4.07
-0.45
-1.86
-0.31
3.5
8.39
13.03
16.34
17.86
17.8
16.98
16.5
17.37
20.26
25.15
31.21
36.9
40.34
39.95
35.19
26.98
17.48
9.32
4.54
3.68
5.57
7.82
7.85
4.03
-3.69
-13.81
-24.07
-32.34
-37.38
-39.1
-38.26
-35.97
-33.23
-30.59
-28.19
-25.89
-23.44
-20.65
-17.47
-14.07
-10.85
-8.22
-6.58
-6.06
-6.57
-7.87
-9.74
-12.04
-14.7
-17.59
-20.47
-23
-24.91
-26.19
-26.96
-27.57
-28.29
-29.23
-30.29
-31.26
-31.82
-31.79
-31.07
-29.72
-27.92
-25.96
-24.06
-22.36
-20.81
-19.18
-17.25
-14.85
-12.08
-9.24
-6.68
-4.68
-3.35
-2.56
-2.05
-1.57
-0.87
0.18
1.55
3.12
4.68
5.94
6.66
6.75
6.27
5.5
4.8
4.44
4.59
5.23
6.12
6.93
7.35
7.17
6.33
4.91
3.08
1.09
-0.73
-2.12
-2.94
-3.25
-3.35
-3.63
-4.36
-5.55
-6.79
-7.49
-6.97
-4.82
-0.97
4.27
10.33
16.48
21.97
26.29
29.28
31.34
33.27
36.07
40.38
46.15
52.57
58.42
62.6
64.59
64.71
63.79
62.7
61.84
61.05
59.76
57.47
54.12
50.15
46.28
43.01
40.34
37.83
34.93
31.39
27.45
23.78
21
19.4
18.74
18.4
17.78
16.55
14.75
12.63
10.44
8.24
5.89
3.1
-0.43
-4.88
-10.38
-16.86
-24.14
-32
-40.29
-48.98
-58.15
-67.89
-78.13
-88.57
-98.65
-107.76
-115.37
-121.25
-125.38
-127.87
-128.83
-128.14
-125.52
-120.49
-112.47
-101
-85.87
-67.4
-46.49
-24.68
-3.85
14.04
27.41
35.5
38.47
37.41
33.93
29.65
25.7
22.53
19.99
17.66
15.42
13.58
12.8
13.7
16.44
20.44
24.66
27.95
29.48
29.17
27.66
26.15
25.8
27.35
30.75
35.24
39.75
43.34
45.52
46.24
45.75
44.32
42.35
40.51
39.74
41.03
44.79
50.35
55.87
59
57.85
51.78
41.82
30.05
18.83
9.95
4.15
1.01
-0.63
-2.1
-4.47
-8.23
-13.54
-20.31
-28.54
-38.25
-49.33
-61.05
-72.05
-80.56
-85.03
-84.8
-80.38
-73.22
-65.05
-57.19
-50.13
-43.71
-37.48
-31.08
-24.52
-18.08
-12.17
-7.08
-2.96
0.28
2.69
4.28
5.1
5.28
5.15
5.17
5.82
7.39
9.94
13.32
17.26
21.51
25.82
29.98
33.79
37.01
39.5
41.15
41.97
42.04
41.5
40.51
39.27
37.99
36.78
35.62
34.34
32.78
30.86
28.76
26.81
25.34
24.55
24.3
24.23
23.93
23.05
21.42
19.03
16.04
12.75
9.73
7.68
7.28
8.92
12.29
16.52
20.4
22.89
23.53
22.6
20.76
18.72
16.87
15.15
13.27
10.92
8.05
4.78
1.34
-2.05
-5.29
-8.32
-11.12
-13.58
-15.59
-17.01
-17.77
-17.92
-17.62
-17.1
-16.56
-16.08
-15.56
-14.77
-13.47
-11.5
-8.96
-6.09
-3.31
-0.92
0.89
2.15
2.98
3.53
3.83
3.8
3.31
2.37
1.26
0.49
0.71
2.35
5.44
9.49
13.69
17.19
19.37
20.02
19.25
17.32
14.48
10.9
6.69
1.95
-3.18
-8.46
-13.65
-18.57
-23.32
-28.22
-33.68
-39.94
-46.88
-53.84
-59.89
-64.21
-66.42
-66.69
-65.61
-63.84
-61.79
-59.58
-57.11
-54.31
-51.25
-48.11
-45.1
-42.24
-39.5
-36.74
-33.87
-30.79
-27.39
-23.58
-19.31
-14.7
-10.02
-5.66
-2.04
0.54
1.96
2.21
1.34
-0.55
-3.34
-6.82
-10.61
-14.15
-16.76
-17.76
-16.63
-13.24
-7.91
-1.34
5.61
12.35
18.68
24.89
31.26
37.78
43.83
48.38
50.43
49.59
46.25
41.4
36.22
31.59
27.89
25.11
23.08
21.65
20.76
20.31
20.1
19.87
19.41
18.67
17.82
17.06
16.64
16.64
17.04
17.72
18.6
19.58
20.6
21.54
22.23
22.5
22.27
21.6
20.65
19.69
18.93
18.46
18.34
18.62
19.46
21.16
23.98
27.94
32.57
36.86
39.53
39.46
36.12
29.74
21.31
12.25
4.13
-1.81
-4.85
-4.94
-2.65
0.95
4.58
7
7.33
5.23
1.06
-4.38
-10.05
-15.09
-19.03
-21.87
-23.94
-25.68
-27.35
-28.83
-29.76
-29.72
-28.62
-26.73
-24.51
-22.36
-20.37
-18.41
-16.38
-14.35
-12.59
-11.35
-10.59
-9.94
-8.88
-7.03
-4.4
-1.4
1.42
3.56
4.69
4.65
3.36
0.95
-2.07
-4.78
-6.06
-5.17
-2.21
1.79
5.22
6.69
5.45
1.62
-4.25
-11.61
-20.14
-29.74
-40.06
-50.27
-59.12
