-59.54
-64.95
-68.88
-70.91
-70.98
-69.24
-65.92
-61.19
-55.13
-47.8
-39.31
-29.84
-19.69
-9.3
0.71
9.65
16.89
22.09
25.31
27.03
27.95
28.76
29.8
30.92
31.68
31.46
29.92
27.01
23.09
18.63
14.08
9.69
5.48
1.31
-2.96
-7.4
-11.94
-16.43
-20.6
-24.12
-26.63
-27.72
-27.16
-24.99
-21.61
-17.69
-13.95
-10.96
-9.01
-8.05
-7.91
-8.37
-9.24
-10.28
-11.18
-11.56
-11.14
-9.96
-8.44
-7.25
-6.94
-7.64
-9.02
-10.51
-11.67
-12.5
-13.29
-14.36
-15.76
-17.27
-18.57
-19.49
-20.11
-20.55
-20.82
-20.63
-19.53
-17.19
-13.61
-9.17
-4.38
0.34
4.73
8.7
12.16
14.92
16.75
17.46
17.05
15.67
13.69
11.51
9.43
7.54
5.65
3.42
0.6
-2.76
-6.25
-9.18
-11
-11.55
-11.15
-10.39
-9.8
-9.56
-9.44
-9.1
-8.32
-7.18
-6.07
-5.37
-5.28
-5.64
-6.03
-5.97
-5.12
-3.38
-0.92
1.96
4.94
7.69
9.95
11.51
12.25
12.19
11.54
10.7
10.17
10.44
11.84
14.48
18.25
22.91
28.25
34.07
40.27
46.68
53.01
58.76
63.29
65.93
66.16
63.78
58.89
51.92
43.48
34.15
24.32
14.16
3.69
-7.12
-18.14
-28.96
-38.82
-46.65
-51.38
-52.28
-49.24
-42.9
-34.5
-25.48
-17.07
-10.01
-4.55
-0.52
2.37
4.39
5.82
6.95
8.07
9.34
10.72
11.86
12.28
11.6
9.72
6.99
4.12
2.05
1.67
3.54
7.6
13.07
18.65
22.9
24.8
24.1
21.28
17.13
12.14
6.25
-1.02
-10.1
-20.83
-32.35
-43.46
-53.14
-60.94
-67.06
-71.89
-75.65
-78.13
-78.95
-77.8
-74.81
-70.45
-65.33
-59.86
-54.12
-47.98
-41.38
-34.6
-28.15
-22.65
-18.4
-15.28
-12.83
-10.52
-8
-5.19
-2.21
0.75
3.44
5.56
6.84
7.1
6.47
5.5
5.02
5.88
8.54
13.02
19.02
26.15
34.09
42.54
50.94
58.46
64.04
66.81
66.47
63.34
58.22
51.96
45.16
38.05
30.63
22.89
14.95
7.11
-0.15
-6.3
-10.81
-13.33
-13.8
-12.54
-10.23
-7.68
-5.55
-4.15
-3.42
-2.97
-2.38
-1.29
0.44
2.88
5.96
9.58
13.49
17.34
20.71
23.23
24.78
25.48
25.68
25.74
25.96
26.44
27.17
28.07
29.01
29.79
30.12
29.68
28.21
25.71
22.37
18.62
14.87
11.32
8
4.78
1.6
-1.44
-4.04
-5.87
-6.65
-6.31
-4.99
-2.95
-0.51
2.02
4.49
6.83
9.04
11.07
12.79
13.95
14.33
13.81
12.4
10.38
8.12
6.07
4.6
3.9
3.87
4.17
4.3
3.81
2.54
0.71
-1.23
-2.76
-3.55
-3.63
-3.28
-2.98
-3.2
-4.33
-6.54
-9.76
-13.64
-17.58
-20.84
-22.72
-22.76
-20.79
-16.92
-11.52
-5.12
1.62
7.96
13.32
17.45
20.57
23.27
26.12
29.31
32.46
34.86
35.77
34.9
32.48
29.08
25.32
21.6
17.9
13.94
9.24
3.28
-4.43
-14.25
-26.31
-40.44
-56.07
-72.27
-87.74
-101.03
-110.79
-115.99
-116.2
-111.64
-103.21
-92.18
-79.88
-67.45
-55.76
-45.37
-36.72
-30.12
-25.64
-23.07
-21.83
-21.07
-19.93
-17.77
-14.41
-10.07
-5.31
-0.76
3.14
6.19
8.48
10.25
11.73
13.01
14.08
14.81
15.15
15.14
14.94
14.8
14.95
15.63
17.07
19.46
22.88
27.27
32.35
37.79
43.24
48.43
53.14
57.14
60.16
61.98
62.54
62.01
60.76
59.23
57.71
56.21
54.55
52.44
49.71
46.32
42.39
38.14
33.76
29.52
25.59
22.11
19.09
16.49
14.29
12.48
11.11
10.23
9.85
9.86
10.1
10.42
10.76
11.21
11.9
13.05
14.77
17.12
20.05
23.37
26.78
29.91
32.39
34.04
35.01
35.72
36.71
38.38
40.76
43.5
46.15
48.36
50.19
52.1
54.55
57.8
61.6
65.22
67.63
67.67
64.09
55.58
40.97
19.61
-8.07
-40.39
-74.55
-107.41
-136.33
-159.73
-177.16
-188.79
-194.91
-195.59
-190.85
-181.08
-167.43
-151.85
-136.57
-123.54
-113.84
-107.54
-103.88
-101.67
-99.72
-97.11
-93.33
-88.31
-82.29
-75.75
-69.21
-63.05
-57.41
-52.08
-46.7
-40.89
-34.5
-27.7
-21.01
-15.12
-10.63
-7.84
-6.52
-5.85
-4.56
-1.23
5.3
15.51
29.02
44.65
60.79
75.84
88.53
98.11
104.37
107.52
108.15
106.91
104.45
101.23
97.27
92.32
85.91
77.63
67.26
54.84
40.63
25.06
8.89
-6.85
-20.9
-32.06
-39.63
-43.71
-45.19
-45.26
-44.9
-44.37
-43.22
-40.64
-36.02
-29.33
-21.14
-12.4
-3.96
3.57
9.94
15.08
19.03
21.88
23.72
24.8
25.4
25.74
25.92
25.89
25.58
25.02
24.42
24.12
24.43
25.39
26.75
27.99
28.55
28.04
26.32
23.48
19.71
15.29
10.54
5.92
1.97
-0.79
-2.09
-2.1
-1.42
-0.89
-1.17
-2.54
-4.73
-7.16
-9.26
-10.77
-11.84
-12.86
-14.17
-15.86
-17.71
-19.35
-20.51
-21.14
-21.44
-21.63
-21.83
-21.91
-21.55
-20.42
-18.34
-15.4
-11.95
-8.51
-5.57
-3.46
-2.17
-1.37
-0.54
0.8
2.88
5.72
9.21
13.33
18.18
23.98
30.7
37.98
45.13
51.34
56.14
59.48
61.78
63.54
64.98
65.8
65.44
63.62
60.65
57.5
55.27
54.57
55.04
55.61
55.18
53.41
51.04
49.4
49.49
51.12
52.77
52.25
47.92
39.62
28.86
18.13
9.73
4.79
2.74
1.63
-1.1
-7.7
-19.35
-35.9
-55.84
-76.6
-95.07
-108.38
-114.78
-114.37
-109.06
-101.74
-94.85
-89.08
-83.04
-74.01
-59.57
-38.93
-13.6
13.06
37.27
56.07
68.2
74.02
74.91
72.34
67.25
59.84
49.75
36.73
21.09
4.01
-12.71
-27.17
-38.04
-44.85
-47.79
-47.3
-43.69
-37.14
-28.04
-17.35
-6.62
2.38
8.37
11.15
11.74
11.84
12.9
15.07
16.83
15.26
7.19
-9.5
-34.87
-66.62
-100.59
-131.86
-155.79
-168.97
-169.66
-158.06
-136.33
-108.23
-78.48
-51.65
-31.02
-17.8
-11.07
-8.5
-7.5
-6.27
-4.3
-2.1
-0.51
0.02
-0.3
-0.83
-0.9
-0.2
1.23
3.19
5.64
8.77
12.79
17.73
23.19
28.44
32.71
35.57
37.17
38.12
39.17
40.85
43.23
46.06
49.04
52.03
55.13
58.46
61.87
64.87
66.82
67.21
66
63.66
61.05
58.94
57.77
57.42
57.34
56.68
54.48
49.82
42.03
31.01
17.44
2.8
-10.9
-21.74
-28.56
-31.48
-31.76
-31.33
-31.82
-33.83
-36.68
-38.94
-39.29
-37.37
-34
-30.65
-28.66
-28.51
-29.7
-31.18
-32.15
-32.55
-33.05
-34.52
-37.37
-41.21
-45
-47.39
-47.34
-44.39
-38.77
-31.25
-22.94
-14.97
-8.31
-3.53
-0.71
0.48
0.58
0.2
-0.16
-0.06
0.87
2.89
6.06
10.04
14.22
17.9
20.65
22.47
23.64
24.52
25.2
25.44
24.87
23.28
20.86
18.24
16.25
15.41
15.7
16.37
16.31
14.49
10.48
4.66
-1.93
-8.07
-13.06
-16.97
-20.6
-24.89
-30.39
-36.94
-43.82
-50.4
-56.55
-62.79
-69.68
-77.24
-84.41
-89.17
-89.21
-83
-70.59
-53.81
-35.72
-19.36
-6.83
1.36
6.14
9.31
12.71
17.63
24.59
33.44
43.83
55.19
66.78
77.76
87.28
94.68
99.67
102.34
103.17
103.36
103.96
105.55
108.14
111.32
114.65
117.82
120.81
123.66
127.22
132
138.07
144.99
152.06
158.58
164
168.05
170.73
173.6
178.26
185.61
195.07
204.34
210.06
209.08
199.97
176.35
136.99
84.95
26.8
-29.83
-79.11
-118.35
-147.63
-168.41
-182.49
-190.42
-192.8
-190.57
-185
-177.52
-169.45
-161.73
-154.79
-148.81
-142.88
-136.27
-128.85
-121.13
-113.9
-107.59
-101.91
-95.96
-88.99
-80.4
-70.72
-61.28
-53.51
-48.23
-45.22
-43.46
-41.74
-39.3
-35.82
-31.58
-27.09
-22.81
-19.03
-15.86
-13.28
-11.26
-9.75
-8.53
-7.47
-6.37
-5.05
-3.46
-1.58
0.53
2.79
5.09
7.38
9.69
12.17
15.04
18.45
22.32
26.3
29.78
32.04
32.64
31.17
27.72
22.75
16.94
10.95
5.24
0.03
-4.65
-8.83
-12.5
-15.48
-17.48
-18.29
-17.9
-16.6
-14.95
-13.49
-12.57
-12.14
-11.85
-11.23
-10.06
-8.53
-7.11
-6.42
-6.77
-7.95
-9.25
-9.8
-8.78
-5.85
-1.3
4.24
9.89
14.9
18.87
21.7
23.27
23.65
23.19
22.71
23.46
26.55
32.49
40.61
49.2
55.96
59.31
59.08
56.5
53.5
51.68
51.68
53.21
55.49
57.6
59.24
60.47
61.31
61.35
59.77
55.61
47.93
38.46
28.56
19.52
12.23
6.96
3.24
0.15
-3.26
-7.64
-13.11
-19.65
-26.87
-34.25
-41.3
-47.71
-53.39
-58.45
-63.14
-67.63
-72.09
-76.25
-79.53
-81.3
-81.25
-79.67
-77.31
-75.09
-73.6
-73.04
-73.11
-73.31
-73.43
-73.62
-74.28
-75.73
-77.98
-80.66
-83.34
-85.6
-87.15
-87.68
-86.71
-83.55
-77.59
-68.83
-58.22
-47.67
-39.6
-36.03
-37.84
-44.34
-53.34
-61.69
-66.32
-65.26
-58.11
-46.23
-31.93
-17.6
-4.78
5.91
14.47
20.76
24.42
25.33
24.23
22.95
23.69
27.75
34.57
41.94
47.19
48.83
47.44
45.27
44.87
47.75
53.86
62.03
71.01
80.04
89.02
97.91
106.25
113.29
118.33
121.18
122.38
122.84
123.35
124.18
125.1
125.56
125.2
124.05
122.52
121.16
120.29
119.7
118.67
116.17
111.08
102.5
89.77
72.94
52.96
32
13.09
-0.57
-7.01
-6.51
-2.02
1.4
-1.68
-15.11
-39.75
-73.17
-110.8
-147.76
-180.54
-207.79
-229.87
-247.75
-261.87
-271.73
-276.27
-274.8
-267.66
-256.07
-241.27
-223.73
-203
-178.6
-151.2
-123.18
-98.13
-79.22
-67.62
-62.03
-59.59
-57.68
-55.19
-52.6
-50.72
-49.28
-46.31
-38.87
-24.72
-3.55
22.69
50.79
77.57
100.76
119.19
132.4
140.16
142.37
139.32
131.81
121.12
108.72
95.93
83.73
72.8
63.48
55.86
49.7
44.4
39.28
33.89
28.36
23.39
19.91
18.62
19.49
21.72
23.95
24.89
23.83
20.84
16.48
11.49
6.31
1.02
-4.43
-9.87
-14.66
-17.93
-18.92
-17.41
-13.77
-8.8
-3.24
2.45
8.21
13.99
19.53
24.2
27.3
28.32
27.3
24.95
22.46
21.08
21.74
24.73
29.69
35.76
41.88
47.1
50.82
53.02
54.28
55.81
59.08
65.28
74.59
85.73
95.96
101.85
100.49
90.75
73.82
52.84
31.8
14.06
1.49
-5.82
-8.97
-9.45
-8.44
-6.57
-4.12
-1.35
1.31
3.22
3.93
3.38
2.06
0.73
0.01
0.02
0.28
0.07
-1.18
-3.48
-6.29
-8.81
-10.35
-10.61
-9.65
-7.78
-5.41
-2.93
-0.69
1.13
2.69
4.49
7.28
11.7
18.05
26.14
35.5
45.56
55.7
65.09
72.63
77.14
77.93
75.38
71.11
67.37
65.97
67.24
69.72
70.79
67.95
59.86
46.72
29.89
10.96
-8.87
-28.99
-48.99
-68.23
-85.67
-100.39
-112.15
-121.82
-130.81
-140.12
-149.35
-156.42
-158.39
-152.93
-139.67
-120.63
-99.38
-79.58
-63.55
-51.77
-43.2
-36.4
-30.36
-24.85
-20.2
-16.8
-14.84
-14.24
-14.82
-16.36
-18.57
-21.12
-23.48
-25.13
-25.8
-25.61
-25.09
-25.01
-25.93
-27.92
-30.58
-33.2
-35.16
-36.24
-36.75
-37.33
-38.79
-41.78
-46.42
-51.83
-55.73
-54.77
-45.57
-26.39
1.55
33.87
64.36
87.23
99.37
101.32
96.49
89.26
82.91
78.66
75.91
73.52
70.84
68.04
65.67
63.75
61.38
57.02
49.16
37.12
21.51
4.1
-12.89
-27.55
-38.88
-46.9
-52.34
-56.16
-58.98
-60.91
-61.68
-60.91
-58.46
-54.72
-50.52
-46.93
-44.86
-44.59
-45.59
-46.73
-46.76
-44.85
-40.99
-35.96
-30.83
-26.52
-23.29
-20.69
-17.88
-14.15
-9.36
-3.86
1.91
7.78
13.9
20.33
26.62
31.67
34.26
33.65
30.05
24.33
17.34
9.16
-0.86
-13.44
-28.37
-44
-57.55
-66.33
-68.93
-65.81
-58.95
-50.82
-43.31
-37.26
-32.54
-28.55
-24.85
-21.38
-18.48
-16.53
-15.55
-14.99
-13.89
-11.19
-6.41
0.16
7.47
14.25
19.63
23.42
26.18
28.72
31.71
35.33
39.24
42.92
45.93
48.12
49.59
50.58
51.4
52.32
53.67
55.73
58.6
62.06
65.52
68.14
69.27
68.66
66.63
63.88
61.1
58.68
56.53
54.28
51.64
48.66
45.65
42.96
40.58
38.15
35.19
31.47
27.34
23.65
21.34
20.95
22.34
24.78
27.28
29.01
29.53
28.86
27.35
25.42
23.56
22.12
21.31
21.06
20.98
20.4
18.64
15.29
10.45
4.71
-1.01
-5.79
-9
-10.43
-10.22
-8.68
-6.16
-2.9
0.87
4.82
8.52
11.45
13.25
13.84
13.46
12.56
11.53
10.54
9.57
8.58
7.76
7.68
9.13
12.8
18.84
26.59
34.65
41.27
44.92
44.79
40.86
33.67
23.88
12
-1.54
-16.13
-30.64
-43.49
-53.01
-58.16
-59.07
-57
-53.91
-51.55
-50.76
-51.27
-52.04
-51.86
-50.03
-46.6
-42.23
-37.77
-33.93
-30.99
-28.94
-27.6
-26.76
-26.21
-25.66
-24.74
-23.1
-20.54
-17.2
-13.46
-9.87
-6.86
-4.7
-3.53
-3.43
-4.53
-7
-10.74
-15.38
-20.14
-24.11
-26.53
-27.06
-25.8
-23.26
-20.09
-16.91
-14.2
-12.23
-11.11
-10.8
-11.15
-11.93
-12.89
-13.89
-14.96
-16.35
-18.46
-21.59
-25.74
-30.45
-34.83
-37.82
-38.61
-36.93
-33.11
-27.89
-22.02
-16.01
-9.98
-3.85
2.39
8.54
14.17
18.73
21.72
22.71
21.37
17.57
11.49
3.87
-4.11
-11.02
-15.8
-18.27
-19.32
-20.48
-23
-26.86
-30.55
-31.74
-28.74
-21.67
-12.76
-5.41
-2.41
-4.48
-9.72
-14.52
-15.22
-9.81
1.4
16.34
32.37
47.53
60.99
72.6
82.2
89.19
92.65
91.99
87.49
80.49
72.73
65.46
58.67
51.21
41.77
29.94
16.8
4.5
-4.83
-10.22
-12.24
-12.49
-12.66
-13.67
-15.56
-17.92
-20.52
-23.63
-27.72
-33
-39
-44.81
-49.6
-53.05
-55.37
-56.92
-57.72
-57.34
-55.34
-51.66
-46.93
-42.15
-37.98
-34.18
-29.63
-23
-13.49
-1.43
11.93
25.09
37.03
47.4
56.24
63.39
68.23
70.02
68.39
63.64
56.66
48.57
40.13
31.46
22.11
11.52
-0.36
-12.67
-23.59
-31.08
-33.73
-31.64
-26.57
-21.3
-18.41
-19.11
-22.75
-27.42
-31.1
-32.74
-32.46
-30.76
-27.7
-22.71
-15.39
-6.74
0.58
3.15
-1.17
-11.73
-24.74
-35.03
-38.51
-34.28
-24.9
-14.89
-8.26
-6.62
-8.87
-12.34
-14.59
-14.64
-13.1
-11.29
-10.22
-9.88
-9.36
-7.55
-3.85
1.45
7.37
12.79
17.07
20.28
23.03
25.99
29.4
33.1
36.71
40.08
43.5
47.53
52.53
58.1
63.05
65.72
64.83
60.09
52.45
43.81
36.17
30.87
28.19
27.36
27.08
26.01
23.21
18.39
11.85
4.52
-2.23
-6.97
-8.53
-6.51
-1.56
4.88
11.02
15.48
17.74
18.31
18.35
19.16
21.66
26.08
32.05
38.76
45.13
50.1
52.89
53.16
51.2
47.85
44.12
40.86
38.3
36.09
33.62
30.45
26.62
22.71
19.38
17.05
15.58
14.44
13
10.81
7.76
3.96
-0.37
-5.01
-9.69
-13.93
-17.12
-18.56
-17.86
-14.96
-10.27
-4.43
1.88
8.07
13.7
18.41
21.93
24.17
25.25
25.59
25.79
26.37
27.61
29.38
31.2
32.45
32.6
31.39
28.83
25.25
21.03
16.62
12.35
8.51
5.22
2.5
0.12
-2.27
-5.14
-8.78
-13.1
-17.51
-20.9
-22.1
-20.25
-15.29
-8.03
0.15
7.89
14.44
19.82
24.72
29.77
35.05
39.94
43.35
44.35
42.68
38.86
33.94
29.1
25.32
23.18
22.95
24.41
26.73
28.23
26.55
19.3
5.48
-13.63
-34.43
-52.37
-64.39
-71.03
-76.96
-89.01
-112.66
-148.74
-192.62
-236.22
-271.54
-293.67
-301.69
-297.49
-283.88
-263.4
-238.67
-213.08
-190.69
-174.92
-166.86
-164.32
-162.75
-157.41
-145.7
-128.05
-107.32
-87.09
-69.97
-57.11
-48.12
-41.73
-36.43
-31.22
-26.06
-22.06
-20.99
-24.29
-32.07
-42.5
-52.34
-58.03
-56.99
-47.99
-30.93
-6.24
25.34
62.33
102.15
141.01
174.58
199.37
213.85
218.78
216.64
210.28
201.76
191.96
180.92
168.56
155.28
142.07
130.01
119.72
111.11
103.48
96.04
88.35
80.55
73.24
67.05
62.19
58.15
53.78
47.8
39.22
27.78
13.94
-1.33
-16.93
-31.89
-45.3
-56.27
-64.07
-68.33
-69.56
-69.26
-69.46
-71.78
-76.57
-82.71
-88.29
-91.76
-92.73
-92.02
-90.89
-90.16
-89.76
-88.83
-86.42
-82.03
-75.87
-68.55
-60.82
-53.26
-46.25
-39.98
-34.37
-28.98
-23.14
-16.39
-8.84
-1.44
4.35
6.9
4.82
-2.57
-14.73
-29.42
-42.76
-50.08
-47.56
-33.98
-11.57
14.72
39.29
58.23
70.7
78.45
84.15
89.55
94.84
99.22
102.32
104.98
108.83
115.07
123.39
131.81
137.69
139.1
135.81
129.3
121.91
115.67
111.53
109.26
107.75
105.66
101.89
95.91
87.83
78.28
67.99
57.49
46.76
35.41
22.98
9.52
-4.2
-16.99
-27.87
-36.66
-43.96
-50.63
-57.08
-62.89
-66.95
-68.17
-66.17
-61.52
-55.54
-49.67
-44.84
-41.23
-38.44
-35.86
-33.03
-29.88
-26.7
-23.92
-21.85
-20.56
-19.71
-18.7
-16.86
-13.88
-9.94
-5.74
-2.07
0.51
2.11
3.45
5.65
9.69
15.99
24.2
33.42
42.6
51.01
58.39
64.8
70.3
74.75
77.95
79.83
80.76
81.4
82.34
83.54
84.24
83.04
78.7
70.84
60.34
49.2
39.66
33.18
29.73
27.92
25.66
21.39
14.67
6.06
-3.68
-14.41
-26.81
-41.62
-58.64
-76.5
-93.34
-108.27
-122.15
-137
-154.08
-172.12
-187.07
-193.89
-189.51
-174.62
-153.31
-130.39
-108.41
-86.37
-61.18
-30.79
3.34
36.01
60.82
73.45
74.02
67.01
58.91
55.11
57.62
64.71
72.42
76.84
76.03
70.57
62.87
55.43
49.37
43.86
36.82
26.3
11.77
-5.42
-22.81
-38.12
-50.51
-60.6
-69.65
-78.44
-86.79
-94.12
-100.32
-106.21
-112.82
-119.98
-125.5
-125.6
-117.01
-99.12
-75.04
-50.46
-30.92
-19.24
-14.49
-13.12
-11.42
-7.69
-2.62
1.97
4.88
6.63
9.08
14.04
21.89
31.1
39.04
43.56
44.27
42.76
41.67
43.01
47.02
52.06
55.61
55.71
51.95
45.52
38.39
32.42
28.68
27.6
29.33
34.01
41.41
50.32
58.25
62.03
59.29
49.62
34.98
18.82
4.35
-6.93
-15.39
-22.1
-27.29
-29.46
-25.87
-13.95
6.95
34.82
65.54
94.3
117.07
131.52
137.05
134.4
125.25
111.8
96.56
81.83
69.37
60
53.7
49.85
47.68
46.42
45.38
43.84
41.25
37.3
32.07
25.95
19.55
13.47
8.14
3.77
0.27
-2.6
-5.17
-7.68
-10.23
-12.67
-14.75
-16.29
-17.36
-18.27
-19.45
-21.21
-23.6
-26.32
-28.95
-31.13
-32.73
-33.87
-34.76
-35.53
-36.13
-36.31
-35.76
-34.21
-31.6
-28.08
-24.02
-19.84
-15.98
-12.81
-10.57
-9.34
-8.99
-9.24
-9.69
-9.98
-9.81
-9.06
-7.79
-6.21
-4.62
-3.32
-2.58
-2.51
-3.08
-4.07
-5.25
-6.41
-7.52
-8.69
-10.11
-11.85
-13.84
-15.87
-17.73
-19.29
-20.56
-21.51
-22.07
-22.04
-21.24
-19.6
-17.31
-14.78
-12.5
-10.85
-9.99
-9.86
-10.23
-10.83
-11.39
-11.67
-11.51
-10.88
-9.86
-8.69
-7.61
-6.74
-6.02
-5.22
-4.05
-2.34
-0.27
1.76
3.27
3.91
3.65
2.87
2.17
2.21
3.44
5.97
9.53
13.55
17.28
19.99
21.23
20.84
19.13
16.72
14.4
12.79
12.25
12.73
13.87
15.1
15.8
15.4
13.46
9.65
3.82
-4.03
-13.56
-24.12
-34.69
-44.09
-51.24
-55.51
-56.99
-56.5
-55.52
-55.75
-58.69
-65.17
-75.05
-87.31
-100.32
-112.22
-121.37
-126.65
-127.57
-124.28
-117.45
-108.11
-97.55
-87.11
-77.98
-70.86
-65.9
-62.59
-60
-57.14
-53.27
-48.14
-42.04
-35.56
-29.38
-23.94
-19.29
-15.11
-10.96
-6.39
-1.24
4.43
10.3
15.95
20.98
25.1
28.19
30.37
32.07
33.94
36.69
40.79
46.25
52.63
59.31
65.86
72.27
78.86
85.83
92.85
98.89
102.59
102.88
99.41
92.76
84.07
74.52
64.93
55.7
46.98
38.9
31.56
24.99
18.92
12.8
5.96
-2.1
-11.42
-21.47
-31.15
-39.21
-44.69
-47.26
-47.44
-46.27
-44.8
-43.62
-42.65
-41.33
-39.14
-35.92
-32.09
-28.38
-25.41
-23.5
-22.62
-22.56
-23.19
-24.53
-26.66
-29.54
-32.74
-35.49
-36.85
-36.07
-32.83
-27.51
-21.03
-14.56
-9.13
-5.27
-2.89
-1.45
-0.31
1.01
2.69
4.51
6.06
6.91
6.74
5.52
3.52
1.29
-0.54
-1.45
-1.18
0.22
2.59
5.79
9.81
14.64
20.07
25.59
30.44
33.94
35.78
36.12
35.48
34.38
33.08
31.56
29.68
27.47
25.2
23.38
22.41
22.47
23.45
25.09
27.15
29.46
31.97
34.62
37.35
40.15
43.12
46.51
50.71
55.99
62.36
69.47
76.58
82.77
87.16
89.17
88.66
85.87
81.37
75.76
69.52
62.93
56.14
49.4
43.08
37.66
33.46
30.42
28
25.45
22.13
17.91
13.15
8.56
4.7
1.82
-0.2
-1.64
-2.73
-3.6
-4.45
-5.7
-7.99
-11.89
-17.5
-24.23
-30.99
-36.72
-41.01
-44.34
-47.79
-52.33
-58.14
-64.47
-70.04
-73.86
-75.83
-76.87
-78.3
-81.05
-85.02
-89.18
-92.2
-93.3
-92.75
-91.63
-91.17
-91.88
-93.17
-93.71
-92.16
-87.87
-81.28
-73.57
-66.04
-59.66
-54.88
-51.76
-50.18
-49.81
-49.9
-49.27
-46.48
-40.4
-30.75
-18.37
-4.89
7.89
18.58
26.52
31.58
33.9
33.74
31.63
28.49
25.64
24.34
25.29
28.21
31.97
35.07
36.36
35.59
33.42
31.1
29.8
30.18
32.28
35.66
39.77
44.16
48.47
52.35
55.37
57.08
57.26
56.08
54.1
52.14
50.87
50.6
51.16
52.04
52.77
53.06
52.97
52.69
52.44
52.27
52.08
51.69
50.92
49.62
47.67
44.91
41.2
36.38
30.41
23.36
15.45
7.02
-1.53
-9.86
-17.69
-24.82
-31.05
-36.07
-39.48
-40.83
-39.83
-36.56
-31.51
-25.62
-19.92
-15.27
-12.1
-10.34
-9.6
-9.38
-9.33
-9.29
-9.27
-9.36
-9.69
-10.41
-11.68
-13.61
-16.11
-18.9
-21.52
-23.46
-24.33
-24.06
-22.88
-21.19
-19.47
-18.09
-17.26
-17.05
-17.36
-18.05
-18.9
-19.74
-20.43
-20.91
-21.09
-20.82
-19.88
-18.01
-14.97
-10.71
-5.29
1.02
7.87
14.93
21.92
28.67
35.02
40.81
45.78
49.59
51.96
52.76
52.16
50.56
48.46
46.3
44.27
42.36
40.49
38.65
36.97
35.62
34.67
33.97
33.15
31.77
29.53
26.39
22.55
18.39
14.29
10.47
7.03
3.96
1.33
-0.67
-1.71
-1.45
0.29
3.39
7.43
11.78
15.74
18.71
20.25
19.99
17.66
13.13
6.53
-1.58
-10.18
-18
-23.86
-27.06
-27.56
-25.93
-23.03
-19.66
-16.29
-13.03
-9.79
-6.48
-3.2
-0.27
1.87
2.81
2.39
0.69
-1.98
-5.17
-8.46
-11.46
-13.81
-15.21
-15.45
-14.45
-12.38
-9.61
-6.67
-4.13
-2.38
-1.57
-1.6
-2.24
-3.21
-4.35
-5.61
-7.04
-8.62
-10.1
-11.05
-11.06
-10
-8.33
-7.04
-7.32
-10.06
-15.38
-22.53
-30.19
-37.05
-42.35
-46.09
-48.92
-51.64
-54.78
-58.35
-61.9
-64.76
-66.43
-66.77
-65.89
-63.9
-60.6
-55.47
-47.96
-37.94
-26.12
-13.88
-2.79
6.1
12.75
18.01
22.97
28.22
33.62
38.67
43.3
48.34
55.37
65.88
80.13
96.62
112.45
124.27
129.62
127.59
118.84
104.95
87.65
68.3
47.83
27.05
6.89
-11.59
-27.47
-40.25
-50.23
-58.37
-65.82
-73.29
-80.44
-85.79
-87.35
-83.55
-74.33
-61.56
-48.6
-39.02
-35.2
-37.35
-43.51
-50.37
-54.54
-53.75
-47.43
-36.58
-23.05
-8.76
4.99
17.61
29.06
39.47
48.86
57.05
63.81
68.93
72.25
73.66
72.88
69.58
63.51
55.02
45.15
35.49
27.65
22.68
20.81
21.63
24.44
28.68
33.82
39.18
43.65
45.77
44.32
39
30.82
21.76
13.95
8.67
5.84
4.25
2.3
-1.16
-6.52
-13.51
-21.65
-30.68
-40.62
-51.57
-63.43
-75.71
-87.6
-98.12
-106.39
-111.84
-114.29
-114.06
-111.93
-108.92
-105.88
-103.08
-100.09
-95.94
-89.6
-80.54
-68.94
-55.65
-41.84
-28.6
-16.73
-6.62
1.58
7.88
12.37
15.26
16.93
17.79
18.15
18.13
17.65
16.6
15.06
13.35
11.99
11.51
12.03
13.07
13.74
13
10.18
5.35
-0.59
-6.18
-9.89
-10.64
-8.12
-2.75
4.59
12.95
21.6
30.03
37.83
44.59
49.8
53.06
54.27
53.82
52.47
51.13
50.44
50.54
51.08
51.4
50.95
49.55
47.48
45.41
44.09
44.01
45.15
46.99
48.69
49.47
48.9
47.04
44.34
41.46
38.96
37.12
35.9
35.01
34.04
32.6
30.39
27.26
23.18
18.24
12.71
7.1
2.09
-1.52
-3.14
-2.54
-0.03
3.62
7.47
10.76
13.1
14.51
15.2
15.3
14.78
13.43
11.13
7.99
4.41
0.97
-1.86
-3.91
-5.43
-6.93
-9.03
-12.1
-16.19
-21.05
-26.25
-31.45
-36.51
-41.51
-46.62
-51.98
-57.62
-63.42
-69.27
-75.05
-80.63
-85.78
-90.09
-92.91
-93.6
-91.83
-87.79
-82.25
-76.37
-71.23
-67.53
-65.31
-64.05
-62.98
-61.39
-58.81
-55.13
-50.47
-45.16
-39.54
-33.96
-28.73
-24.08
-20.15
-16.95
-14.38
-12.18
-9.99
-7.35
-3.9
0.51
5.74
11.32
16.57
20.74
23.2
23.61
22.02
18.91
15.16
11.87
10.07
10.44
13.11
17.79
23.88
30.77
38.04
45.34
52.28
58.36
63.01
65.79
66.62
65.91
64.36
62.81
61.9
61.96
62.97
64.65
66.57
68.28
69.35
69.42
68.24
65.71
61.86
56.88
51.11
44.96
38.88
33.21
28.08
23.3
18.55
13.45
7.89
2.04
-3.61
-8.55
-12.4
-15.07
-16.68
-17.45
-17.55
-17.11
-16.27
-15.2
-14.22
-13.72
-14
-15.24
-17.38
-20.25
-23.58
-27.2
-31.06
-35.2
-39.67
-44.39
-49.05
-53.25
-56.64
-59.03
-60.48
-61.09
-60.84
-59.48
-56.64
-52.04
-45.74
-38.2
-30.16
-22.49
-15.9
-10.86
-7.35
-4.78
-1.93
2.85
11.07
23.53
39.78
58.1
76.03
91.1
101.65
107.18
108.27
106.1
101.78
95.96
88.62
79.46
68.28
55.37
41.55
27.83
14.97
3.23
-7.51
-17.15
-25.13
-30.52
-32.76
-32.29
-30.61
-29.6
-30.39
-32.7
-35.18
-36.52
-36.47
-36.17
-37.24
-40.53
-45.34
-49.7
-51.5
-49.68
-44.68
-37.99
-31.18
-25.08
-19.75
-14.78
-9.87
-5.07
-0.87
2.13
3.55
3.3
1.65
-0.82
-3.47
-5.76
-7.47
-8.78
-10.12
-11.89
-14.25
-16.95
-19.54
-21.51
-22.59
-22.74
-22.22
-21.39
-20.65
-20.27
-20.42
-21.1
-22.17
-23.42
-24.49
-24.93
-24.33
-22.35
-18.85
-13.95
-7.98
-1.55
4.7
10.12
14.24
16.89
18.09
18.07
17.11
15.54
13.65
11.82
10.42
9.79
10.05
11.06
12.35
13.29
13.39
12.46
10.73
8.68
6.76
5.17
3.79
2.26
0.27
-2.31
-5.33
-8.39
-11.07
-12.95
-13.71
-13.15
-11.18
-7.83
-3.28
2.17
8.14
14.22
20.07
25.37
29.85
33.22
35.29
36.04
35.63
34.55
33.34
32.54
32.48
33.25
34.73
36.71
39
41.43
43.9
46.31
48.54
50.45
51.83
52.51
52.33
51.39
50.05
48.94
48.75
49.8
51.84
53.96
55.1
54.72
53.37
52.75
55.02
61.72
72.87
86.65
99.9
109.25
112.18
107.77
96.86
81.7
65.35
50.78
40.15
34.24
32.26
31.99
30.45
24.58
11.58
-10.56
-42.81
-84.59
-133.44
-184.96
-233.43
-272.96
-299.09
-309.89
-305.92
-289.79
-265.35
-237.36
-211.33
-192.97
-186.82
-194.58
-213.76
-237.51
-256.5
-262.21
-250.18
-221.71
-182.89
-141.25
-103
-71.12
-45.14
-22.31
0.56
25.28
51.01
74.39
91.95
101.23
101.97
96.77
90.65
89.2
95.81
109.31
124.04
133.91
134.19
123.02
101.86
75.35
49.96
31.6
23.75
26.74
40.42
63.6
94.05
129.11
167.06
207.12
248.12
287.13
306.86
293.84
248.22
185.59
125.37
79.62
50.33
32.41
18.23
1.9
-16.44
-33.36
-45.87
-54.27
-61.13
-69.1
-79.26
-90.92
-102.35
-110.98
-114.05
-110.81
-102.73
-91.84
-79.6
-66.95
-54.92
-44.73
-36.23
-28.29
-19.49
-9.26
1.84
12.12
19.5
22.43
20.95
17.4
14.16
13.74
17.03
23.08
29.89
35.45
38.72
39.61
38.97
37.59
35.82
33.03
28.41
21.81
14.04
6.8
1.69
-0.41
0.19
2.55
5.62
8.76
11.93
15.13
17.95
19.39
18.36
14.2
7.01
-2.54
-13.37
-23.95
-32.41
-36.7
-35.44
-28.66
-18.23
-7.22
1.42
6.14
7.49
7.26
7.38
8.59
10.36
11.58
11.39
9.67
6.62
2.31
-3.65
-11.77
-22.13
-33.97
-45.8
-56.01
-63.37
-67.54
-68.96
-68.53
-67.15
-65.5
-63.96
-62.65
-61.72
-61.16
-60.76
-60.03
-58.25
-54.73
-49.14
-41.79
-33.58
-25.84
-19.78
-16.02
-14.39
-13.95
-13.24
-10.9
-5.94
1.88
12.01
23.4
34.98
45.9
55.86
64.98
73.45
81.31
88.32
94.01
97.98
100.06
100.27
98.8
95.83
91.39
85.58
78.58
70.67
62.33
53.99
45.93
38.19
30.66
23.02
14.98
6.41
-2.68
-11.89
-20.61
-28.12
-33.75
-36.89
-37.23
-34.73
-29.64
-22.69
-14.84
-7.14
-0.39
5.04
9.34
12.9
16.04
18.67
20.21
19.92
17.12
11.7
4.14
-4.52
-13.05
-20.33
-25.65
-28.95
-30.53
-31.04
-31
-30.79
-30.49
-30.05
-29.44
-28.69
-28.03
-27.63
-27.66
-28.15
-28.92
-29.65
-29.97
-29.52
-28.04
-25.42
-21.64
-16.82
-11.19
-5.11
0.93
6.42
10.87
14.02
15.83
16.6
16.72
16.45
15.93
15.08
13.82
12.27
10.77
9.68
9.25
9.28
9.32
8.76
7.19
4.63
1.58
-1.17
-2.95
-3.25
-2.09
0.19
3
5.64
7.45
7.92
6.76
3.93
-0.23
-5.08
-9.69
-13.06
-14.49
-13.71
-11.02
-7.15
-3.03
0.55
3.15
4.59
5.06
4.8
4.11
3.27
2.38
1.36
0.05
-1.71
-3.94
-6.32
-8.33
-9.39
-9.15
-7.64
-5.27
-2.61
-0.1
2.02
3.86
5.62
7.5
9.67
12.15
14.85
17.5
19.73
21.04
21.06
19.66
17.08
14.04
11.45
10.17
10.67
12.96
16.52
20.5
23.98
26.15
26.51
24.9
21.47
16.66
11.11
5.49
0.45
-3.51
-6.18
-7.55
-7.91
-7.7
-7.44
-7.64
-8.74
-11.04
-14.75
-19.94
-26.45
-33.87
-41.57
-48.85
-55.14
-60.17
-64.03
-66.94
-69.12
-70.49
-70.75
-69.51
-66.55
-61.92
-55.85
-48.59
-40.25
-30.85
-20.44
-9.16
2.56
14.23
25.3
35.44
44.41
52.07
58.17
62.41
64.48
64.36
62.34
59.01
55.09
51.17
47.59
44.35
41.27
38.12
34.67
30.67
25.77
19.6
12
3.27
-5.76
-13.79
-19.55
-22.24
-21.77
-18.73
-14.07
-8.64
-2.89
3
9.03
15.06
20.71
25.6
29.41
32.13
34.03
35.53
37
38.66
40.48
42.18
43.32
43.34
41.79
38.41
33.27
26.8
19.62
12.34
5.44
-0.73
-5.95
-10.1
-13.09
-15.08
-16.33
-17.34
-18.72
-20.9
-24.06
-28.09
-32.59
-36.97
-40.64
-43.03
-43.68
-42.39
-39.16
-34.19
-27.96
-21.04
-13.96
-7.27
-1.3
3.83
8.23
12.21
16.14
20.25
24.39
28.03
30.23
30.05
26.88
20.65
12.03
2.18
-7.57
-16.06
-22.46
-26.48
-28.21
-28.16
-27.31
-26.85
-27.97
-31.36
-36.78
-43.19
-49.07
-53.16
-55
-55.19
-54.91
-55.32
-56.99
-59.66
-62.51
-64.72
-65.92
-66.26
-66.24
-66.28
-66.44
-66.29
-65.13
-62.33
-57.76
-51.8
-45.17
-38.56
-32.17
-25.66
-18.44
-10.01
-0.41
9.78
19.61
28.15
34.77
39.29
41.93
42.97
42.66
41.17
38.55
35.02
30.81
26.19
21.52
17.07
13.06
9.7
7.21
5.8
5.68
7.04
9.9
14.18
19.56
25.48
31.3
36.36
40.17
42.61
43.89
44.31
44.13
43.41
41.96
39.65
36.55
32.99
29.56
26.79
24.86
23.65
22.79
21.87
20.7
19.21
17.45
15.5
13.29
10.77
7.97
4.99
1.94
-1.06
-4.09
-7.33
-10.84
-14.44
-17.61
-19.52
-19.47
-17.13
-12.66
-6.71
-0.17
6.18
11.82
16.55
20.41
23.43
25.6
26.84
27.04
26.2
24.57
22.56
20.66
19.27
18.49
18.12
17.76
16.99
15.51
13.34
10.71
7.9
5.22
2.74
0.42
-1.92
-4.5
-7.51
-11.01
-14.94
-19.23
-23.68
-28.02
-31.78
-34.28
-34.8
-32.75
-27.97
-20.85
-12.26
-3.38
4.72
11.27
16.01
19.03
20.62
21.08
20.55
19.09
16.81
13.96
10.96
8.3
6.29
5.07
4.5
4.26
4.06
3.75
3.19
2.35
1.23
-0.13
-1.66
-3.21
-4.71
-6.23
-8.01
-10.35
-13.34
-16.7
-19.69
-21.35
-20.87
-17.98
-13
-6.76
-0.26
5.73
10.79
14.8
17.69
19.38
19.7
18.56
16.13
12.81
9.24
5.9
3.05
0.61
-1.62
-3.87
-6.21
-8.58
-10.89
-13
-14.84
-16.35
-17.59
-18.73
-20.08
-22.02
-24.81
-28.46
-32.68
-37.02
-40.93
-43.9
-45.47
-45.17
-42.69
-37.99
-31.43
-23.75
-15.96
-9.04
-3.69
-0.29
1.17
0.71
-1.6
-5.76
-11.52
-18.37
-25.45
-31.74
-36.34
-38.61
-38.47
-36.19
-32.3
-27.3
-21.6
-15.54
-9.53
-4.11
0.12
2.59
2.93
1.05
-2.89
-8.5
-15.25
-22.57
-29.76
-35.96
-40.21
-41.59
-39.54
-34.12
-25.95
-16.03
-5.36
5.37
15.8
25.85
35.35
43.94
51.05
56.21
59.32
60.68
60.95
60.75
60.47
60.19
59.72
58.86
57.46
55.51
52.96
49.78
45.84
41.16
35.87
30.29
24.76
19.49
14.48
9.5
4.22
-1.58
-7.93
-14.62
-21.21
-27.04
-31.28
-33.15
-32.09
-28.07
-21.59
-13.66
-5.46
1.96
8
12.51
15.65
17.66
18.8
19.22
19.1
18.63
18
17.41
17.02
16.93
17.21
17.9
18.95
20.15
21.15
21.5
20.86
19.13
16.54
13.54
10.6
8.04
5.96
4.24
2.72
1.3
-0.01
-1.17
-2.18
-3.18
-4.3
-5.53
-6.59
-6.9
-5.85
-3.05
1.43
7.12
13.15
18.67
23.05
25.93
27.17
26.75
24.63
20.84
15.58
9.23
2.44
-4.08
-9.68
-14.01
-17.05
-19.09
-20.7
-22.37
-24.52
-27.24
-30.36
-33.4
-36
-38.04
-39.82
-42.03
-45.35
-50.21
-56.53
-63.7
-70.79
-76.87
-81.39
-84.13
-85.23
-84.85
-83.12
-79.85
-74.73
-67.62
-58.59
-48.28
-37.55
-27.46
-18.72
-11.61
-5.88
-0.92
3.87
8.89
14.27
20.04
26.13
32.64
39.62
46.95
54.23
60.65
65.28
67.29
66.29
62.38
56.15
48.44
40.06
31.71
23.85
16.72
10.34
4.49
-1.12
-6.89
-13.06
-19.71
-26.67
-33.63
-40.11
-45.56
-49.22
-50.25
-47.86
-41.59
-31.63
-18.92
-4.9
8.83
21.09
31.26
39.3
45.48
50.06
53.1
54.54
54.33
52.66
50.02
47.1
44.59
42.93
42.26
42.39
42.99
43.7
44.21
44.24
43.57
42.06
39.68
36.61
33.13
29.57
26.11
22.61
18.57
13.22
5.73
-4.39
-16.95
-30.9
-44.52
-55.84
-63.24
-65.98
-64.36
-59.52
-52.88
-45.69
-38.63
-31.88
-25.44
-19.36
-13.88
-9.31
-5.82
-3.36
-1.54
0.09
1.98
4.37
7.29
10.6
14.11
17.6
20.83
23.53
25.41
26.17
25.6
23.61
20.36
16.25
11.78
7.43
3.4
-0.55
-4.98
-10.54
-17.66
-26.27
-35.77
-45.12
-53.17
-58.9
-61.77
-61.72
-59.25
-55.23
-50.75
-46.85
-44.27
-43.35
-44.03
-45.99
-48.8
-51.92
-54.85
-56.98
-57.74
-56.61
-53.38
-48.08
-41.1
-32.96
-24.26
-15.57
-7.43
-0.31
5.43
9.62
12.31
13.83
14.71
15.46
16.48
17.9
19.55
21.13
22.29
22.81
22.77
22.58
22.81
24.03
26.53
30.25
34.81
39.78
44.73
49.41
53.63
57.16
59.68
60.89
60.56
58.77
55.85
52.33
48.81
45.81
43.68
42.62
42.49
42.85
43
42.27
40.2
36.79
32.43
27.7
23.05
18.65
14.4
10.2
6.06
2.2
-1.07
-3.56
-5.4
-6.93
-8.49
-10.18
-11.65
-12.21
-11.09
-7.77
-2.2
5.09
13.32
21.67
29.49
36.48
42.51
47.56
51.65
54.78
56.97
58.27
58.78
58.64
58.05
57.28
56.58
56.09
55.83
55.59
55.06
53.88
51.71
48.34
43.64
37.65
30.65
23.15
15.88
9.6
4.82
1.68
-0.11
-1.09
-1.8
-2.65
-3.91
-5.75
-8.19
-11.05
-13.77
-15.46
-15.12
-12.15
-6.86
-0.54
4.82
7.45
6.49
2.4
-3.47
-9.78
-15.98
-22.61
-30.59
-40.28
-50.81
-60.21
-66.29
-67.84
-65.22
-60.11
-54.61
-50.2
-47.22
-45.16
-43.3
-41.34
-39.56
-38.62
-39.05
-41.09
-44.58
-49.05
-53.91
-58.36
-61.59
-62.74
-61.14
-56.41
-48.64
-38.42
-26.74
-14.85
-3.94
5.1
11.85
16.38
19.09
20.43
20.79
20.43
19.55
18.43
17.41
16.71
16.34
16.04
15.49
14.48
13.07
11.53
10.16
9.05
7.97
6.46
4.1
0.7
-3.58
-8.39
-13.37
-18.26
-22.99
-27.5
-31.54
-34.52
-35.67
-34.19
-29.71
-22.54
-13.62
-4.18
4.63
12.12
18.19
23.01
26.82
29.57
31.05
30.95
29.26
26.37
23.03
20.01
17.8
16.48
15.71
15.07
14.16
12.86
11.26
9.52
7.73
5.84
3.65
1
-2.27
-6.2
-10.76
-15.75
-20.8
-25.33
-28.59
-29.82
-28.42
-24.25
-17.69
-9.7
-1.5
5.76
11.35
15.12
17.35
18.51
18.98
18.89
18.18
16.89
15.12
13.15
11.18
9.26
7.19
4.69
1.56
-2.14
-6
-9.55
-12.4
-14.47
-16.02
-17.51
-19.39
-22.02
-25.58
-30.03
-35.25
-41.01
-46.93
-52.36
-56.46
-58.18
-56.63
-51.38
-42.64
-31.35
-18.97
-7.14
2.82
10.22
15.16
18.35
20.68
22.85
25.08
27.2
28.75
29.25
28.4
26.2
23.01
19.42
16.03
13.22
11.03
9.16
7.07
4.32
0.75
-3.53
-8.27
-13.23
-18.3
-23.28
-27.85
-31.59
-34.13
-35.33
-35.28
-34.21
-32.18
-29.13
-24.95
-19.68
-13.65
-7.43
-1.71
2.85
5.71
6.47
4.95
1.18
-4.31
-10.69
-16.92
-22.21
-26.33
-29.56
-32.51
-35.59
-38.9
-42.12
-44.78
-46.53
-47.38
-47.61
-47.57
-47.56
-47.62
-47.82
-48.21
-49
-50.4
-52.41
-54.6
-56.02
-55.43
-51.55
-43.56
-31.32
-15.49
2.62
21.46
39.57
55.91
69.86
81.25
90.16
96.75
101.2
103.67
104.41
103.71
101.96
99.56
96.87
94.16
91.58
89.15
86.71
84.01
80.78
76.78
72.01
66.62
60.94
55.22
49.62
43.97
38.04
31.59
24.58
17.33
10.32
4.05
-1.24
-5.52
-8.99
-11.76
-13.78
-14.87
-14.84
-13.66
-11.59
-8.99
-6.18
-3.23
0.03
3.83
8.19
12.77
16.89
19.75
20.79
19.78
16.98
12.86
7.99
2.96
-1.79
-5.94
-9.41
-12.4
-15.36
-18.86
-23.42
-29.35
-36.58
-44.76
-53.4
-62.04
-70.34
-78.12
-85.39
-92.2
-98.64
-104.63
-109.89
-113.87
-115.89
-115.3
-111.65
-104.83
-95.07
-82.9
-69.03
-54.42
-40.06
-26.93
-15.85
-7.22
-1.02
3.2
6.04
8.06
9.6
10.86
11.98
13.14
14.64
16.73
19.52
22.73
25.86
28.32
29.73
30.05
29.61
28.92
28.34
27.97
27.58
26.81
25.39
23.19
20.27
16.83
13.17
9.71
7.14
6.23
7.76
12.11
19.04
27.65
36.68
44.88
51.33
55.7
58.08
58.73
58.01
56.14
53.37
50.04
46.58
43.4
40.82
38.89
37.5
36.45
35.55
34.63
33.55
32.07
30
27.3
24.03
20.49
17.01
13.81
10.93
8.25
5.55
2.73
-0.17
-3.02
-5.71
-8.11
-10.19
-11.72
-12.47
-12.14
-10.55
-7.74
-4.05
-0.02
3.79
6.91
9.16
10.58
11.33
11.58
11.43
10.84
9.82
8.47
6.98
5.65
4.77
4.43
4.56
4.94
5.22
5.09
4.4
3.12
1.44
-0.42
-2.22
-3.83
-5.32
-6.91
-8.82
-11.14
-13.86
-16.83
-20
-23.41
-27.18
-31.25
-35.25
-38.48
-39.98
-38.92
-34.86
-28.01
-19.12
-9.33
0.15
8.4
14.85
19.35
21.98
23.01
22.66
21.18
18.9
16.22
13.57
11.34
9.69
8.59
7.84
7.26
6.66
5.97
5.1
3.93
2.29
0.08
-2.74
-5.99
-9.41
-12.78
-16
-19.15
-22.42
-25.98
-29.92
-34.21
-38.65
-42.91
-46.46
-48.6
-48.64
-46.09
-40.89
-33.55
-25.07
-16.64
-9.26
-3.53
0.49
3.08
4.69
5.66
6.17
6.23
5.78
4.84
3.54
2.14
0.95
0.21
-0.05
-0.07
-0.29
-1.2
-3.13
-6.05
-9.63
-13.35
-16.69
-19.41
-21.5
-23.1
-24.37
-25.37
-26.12
-26.73
-27.39
-28.28
-29.36
-30.17
-29.89
-27.64
-22.79
-15.38
-6.1
3.95
13.6
22.01
28.85
34.15
38.13
40.94
42.61
43.08
42.39
40.79
38.69
36.61
34.93
33.83
33.15
32.62
31.93
30.8
29.08
26.73
23.75
20.12
15.9
11.09
5.76
0.07
-5.75
-11.46
-16.87
-21.95
-26.74
-31.26
-35.27
-38.19
-39.26
-37.72
-33.28
-26.31
-17.79
-8.94
-0.87
5.7
10.61
14.04
16.29
17.66
18.27
18.13
17.33
16.02
14.46
12.98
11.81
10.98
10.32
9.54
8.38
6.74
4.68
2.32
-0.27
-3.15
-6.46
-10.28
-14.47
-18.73
-22.69
-26.11
-29.01
-31.54
-33.92
-36.21
-38.18
-39.44
-39.58
-38.37
-35.87
-32.52
-28.78
-25.09
-21.63
-18.32
-14.95
-11.23
-6.96
-2.06
3.44
9.43
15.73
22.08
28.23
33.86
38.68
42.39
44.67
45.27
44.04
41.06
36.59
31.17
25.38
19.68
14.28
9.14
4.01
-1.38
-7.25
-13.61
-20.24
-26.69
-32.26
-36.19
-37.69
-36.27
-31.94
-25.2
-17.02
-8.48
-0.51
6.32
11.82
16.05
19.07
20.85
21.3
20.43
18.49
16
13.62
11.92
11.13
11.06
11.25
11.25
10.78
9.86
8.63
7.24
5.63
3.66
1.11
-2.1
-5.89
-10.12
-14.51
-18.73
-22.29
-24.58
-24.94
-23
-18.78
-12.86
-6.14
0.5
6.5
11.75
16.36
20.41
23.75
26.01
26.86
26.26
24.58
22.42
20.37
18.74
17.51
16.42
15.22
13.81
12.26
10.74
9.37
8.19
7.1
5.95
4.59
2.89
0.78
-1.77
-4.63
-7.52
-10.04
-11.7
-12.07
-10.9
-8.17
-4.09
0.95
6.57
12.42
18.26
23.91
29.19
33.92
37.84
40.63
42.03
41.94
40.53
38.31
35.91
33.86
32.22
30.62
28.39
24.99
20.31
14.69
8.65
2.63
-3.17
-8.64
-13.57
-17.63
-20.52
-22.28
-23.23
-23.71
-23.57
-22.13
-18.48
-12.31
-4.37
3.57
9.45
11.74
10.01
4.81
-3.17
-13.71
-27.25
-43.95
-62.78
-81.3
-96.51
-106.13
-109.75
-108.82
-105.51
-101.4
-96.65
-90.28
-81.38
-70.12
-57.89
-46.49
-37.11
-29.73
-23.55
-17.75
-11.93
-6.1
-0.11
6.53
14.2
22.5
30.17
35.6
37.76
36.95
34.59
32.46
31.82
32.87
34.96
37.22
38.79
38.88
36.63
31.31
22.77
12.09
1.59
-5.88
-8.04
-4.31
3.94
13.98
22.96
28.85
30.9
29.45
25.46
19.99
13.9
7.97
2.94
-0.45
-1.66
-0.59
2.28
5.98
9.44
11.81
12.95
13.43
14.37
16.95
22.02
29.73
39.47
50.06
60.05
68.22
73.96
77.31
78.81
79.04
78.21
76.09
72.25
66.43
58.9
50.46
42.23
35.17
29.73
25.66
22.22
18.51
13.88
8.24
2.12
-3.66
-8.43
-12.13
-15.46
-19.63
-25.65
-33.73
-42.94
-51.4
-57.07
-58.48
-55.24
-48.1
-38.5
-27.97
-17.69
-8.46
-0.77
4.99
8.58
9.96
9.27
6.76
2.76
-2.59
-9.25
-17.26
-26.43
-36.18
-45.63
-53.86
-60.2
-64.44
-66.79
-67.64
-67.33
-66
-63.6
-60.15
-55.84
-51.05
-46.27
-41.93
-38.22
-35.13
-32.5
-30.13
-27.8
-25.24
-22.14
-18.29
-13.71
-8.66
-3.59
1.05
4.95
8.05
10.49
12.49
14.26
15.89
17.4
18.73
19.85
20.72
21.31
21.59
21.49
20.92
19.76
17.89
15.19
11.64
7.33
2.48
-2.59
-7.61
-12.44
-17.09
-21.66
-26.24
-30.76
-35
-38.72
-41.8
-44.34
-46.62
-48.84
-50.98
-52.72
-53.57
-53.21
-51.56
-48.87
-45.52
-41.81
-37.87
-33.76
-29.59
-25.64
-22.31
-19.9
-18.45
-17.71
-17.22
-16.48
-15.14
-12.96
-9.84
-5.73
-0.66
5.21
11.54
17.85
23.63
28.53
32.43
35.48
37.96
40.13
42.06
43.66
44.72
45.04
44.56
43.38
41.68
39.71
37.72
36.11
35.45
36.45
39.82
45.93
54.59
64.97
75.85
85.96
94.31
100.47
104.44
106.46
106.89
106.16
104.76
103.14
101.57
100.05
98.25
95.77
92.36
88.09
83.27
78.22
73
67.36
61.01
53.93
46.55
39.52
33.39
28.24
23.75
19.5
15.35
11.67
9.05
7.83
7.81
8.28
8.44
7.91
7
6.42
6.81
8.3
10.39
12.29
13.14
12.32
9.25
3.36
-5.93
-18.88
-34.98
-52.89
-70.67
-86.51
-99.29
-108.74
-115.2
-119.07
-120.55
-119.65
-116.46
-111.56
-105.9
-100.45
-95.64
-91.11
-85.91
-79.07
-70.18
-59.72
-48.76
-38.36
-29.02
-20.38
-11.55
-1.67
9.54
21.55
33.38
44.06
53.11
60.54
66.7
71.95
76.49
80.4
83.72
86.39
88.32
89.32
89.05
87.24
83.82
78.96
72.82
65.34
55.89
43.52
27.29
6.89
-16.83
-41.71
-64.61
-82.2
-91.95
-92.87
-85.84
-73.13
-57.62
-41.81
-27.34
-14.83
-4.39
3.96
10.03
13.49
14.21
12.46
9.02
4.91
1.02
-2.16
-4.54
-6.34
-7.83
-9.2
-10.48
-11.58
-12.47
-13.29
-14.34
-15.99
-18.47
-21.73
-25.32
-28.56
-30.84
-31.84
-31.77
-31.21
-30.89
-31.4
-32.88
-35.02
-37.21
-38.83
-39.45
-39.01
-37.91
-36.81
-36.38
-37.03
-38.59
-40.47
-41.75
-41.62
-39.66
-36.01
-31.28
-26.26
-21.72
-18.19
-15.98
-15.16
-15.62
-17.12
-19.2
-21.34
-23.02
-23.95
-23.99
-23.27
-21.93
-20.09
-17.81
-15.12
-12.19
-9.29
-6.79
-4.92
-3.68
-2.78
-1.8
-0.38
1.64
4.08
6.66
8.99
10.77
11.88
12.32
12.3
12.19
12.46
13.49
15.53
18.52
22.06
25.6
28.61
30.75
31.95
32.23
31.67
30.26
27.87
24.39
19.79
14.2
7.96
1.57
-4.39
-9.45
-13.28
-15.89
-17.54
-18.66
-19.65
-20.7
-21.67
-22.19
-21.84
-20.31
-17.57
-13.84
-9.39
-4.59
0.24
4.79
8.74
11.8
13.87
15.13
16.01
17.09
18.86
21.5
24.79
28.26
31.44
34
36
37.73
39.63
41.97
44.72
47.53
49.88
51.35
51.74
51.21
50.21
49.31
48.96
49.39
50.5
51.97
53.27
53.82
53.08
50.64
46.39
40.47
33.38
25.71
18.04
10.75
3.95
-2.56
-9.12
-16.08
-23.6
-31.51
-39.28
-46.12
-51.34
-54.55
-55.85
-55.77
-55.08
-54.44
-54.11
-53.99
-53.64
-52.54
-50.41
-47.27
-43.5
-39.64
-36.14
-33.17
-30.59
-28.08
-25.4
-22.62
-20.04
-18.08
-17.06
-16.97
-17.58
-18.55
-19.66
-20.87
-22.31
-24.09
-26.25
-28.69
-31.31
-34.03
-36.87
-39.87
-42.93
-45.69
-47.5
-47.58
-45.24
-40.15
-32.53
-23.09
-12.86
-2.76
6.52
14.67
21.65
27.47
32.14
35.63
38
39.45
40.3
40.94
41.66
42.6
43.69
44.72
45.39
45.45
44.68
43.03
40.55
37.44
34
30.6
27.56
25.17
23.65
23.08
23.44
24.56
26.14
27.78
29.11
29.92
30.25
30.44
30.97
32.31
34.6
37.59
40.62
42.84
43.46
42.07
38.7
33.71
27.56
20.61
13.13
5.29
-2.65
-10.34
-17.31
-23.13
-27.51
-30.33
-31.61
-31.48
-30.08
-27.6
-24.32
-20.67
-17.28
-14.89
-14.24
-15.91
-20.1
-26.58
-34.71
-43.57
-52.27
-60.13
-66.79
-72.26
-76.8
-80.73
-84.18
-86.92
-88.34
-87.61
-84
-77.15
-67.31
-55.31
-42.31
-29.49
-17.69
-7.32
1.69
9.69
17.14
24.42
31.72
38.98
46.05
52.7
58.82
64.38
69.33
73.53
76.72
78.5
78.53
76.57
72.6
66.68
58.96
49.7
39.29
28.33
17.62
8.03
0.35
-4.93
-7.69
-8.18
-6.98
-4.84
-2.45
-0.35
1.27
2.6
4.09
6.27
9.5
13.84
18.96
24.38
29.58
34.26
38.27
41.61
44.28
46.16
47
46.54
44.6
41.14
36.4
30.87
25.19
19.96
15.53
11.75
7.94
3.21
-3.18
-11.36
-20.71
-30.09
-38.31
-44.66
-49.08
-52.08
-54.38
-56.58
-59.04
-61.89
-65.18
-68.81
-72.44
-75.33
-76.46
-74.73
-69.38
-60.36
-48.4
-34.87
-21.35
-9.29
0.35
7.14
11.12
12.6
11.94
9.53
5.77
1.23
-3.35
-7.15
-9.46
-9.91
-8.6
-6.01
-2.84
0.35
3.17
5.43
7.04
7.87
7.82
6.89
5.26
3.3
1.44
0.03
-0.9
-1.53
-2.21
-3.12
-4.04
-4.29
-2.91
0.96
7.69
16.87
27.45
38.09
47.58
55.19
60.77
64.55
66.9
68.09
68.21
67.27
65.32
62.48
58.99
55.09
51.01
46.85
42.63
38.33
33.91
29.35
24.65
19.83
14.87
9.7
4.27
-1.45
-7.34
-13.22
-18.85
-24.03
-28.71
-33
-37
-40.73
-43.93
-46.06
-46.44
-44.52
-40.15
-33.73
-26.08
-18.24
-11.17
-5.45
-1.32
1.27
2.51
2.62
1.86
0.58
-0.73
-1.56
-1.48
-0.25
1.99
4.88
7.92
10.63
12.72
14.07
14.71
14.64
13.88
12.31
9.85
6.48
2.34
-2.26
-6.94
-11.35
-15.36
-19.05
-22.65
-26.34
-30.1
-33.57
-36.07
-36.92
-35.62
-32.16
-26.97
-20.82
-14.56
-8.85
-4.05
-0.27
2.57
4.51
5.49
5.39
4.16
1.94
-0.87
-3.71
-6.02
-7.47
-8.05
-8.09
-8.09
-8.5
-9.51
-11.05
-12.84
-14.66
-16.41
-18.15
-20.03
-22.1
-24.36
-26.68
-29.05
-31.46
-33.98
-36.44
-38.32
-38.87
-37.25
-33.04
-26.45
-18.32
-9.84
-2.15
4.08
8.72
12
14.27
15.77
16.55
16.55
15.76
14.29
12.37
10.31
8.35
6.65
5.2
3.81
2.23
0.24
-2.21
-4.95
-7.68
-10.14
-12.23
-14.09
-16.01
-18.2
-20.77
-23.65
-26.75
-30.05
-33.53
-37.02
-40.09
-42.12
-42.49
-40.83
-37.22
-32.12
-26.18
-19.99
-13.93
-8.21
-2.87
2.19
7.08
11.95
16.83
21.63
26.12
30.09
33.47
36.5
39.68
43.55
48.44
54.3
60.72
67.19
73.2
78.36
82.32
84.63
84.82
82.54
77.77
70.95
62.84
54.26
45.72
37.23
28.38
18.76
8.36
-2.19
-11.66
-18.78
-22.67
-23.29
-21.47
-18.62
-16.22
-15.3
-16.18
-18.39
-20.97
-22.83
-23.21
-21.97
-19.62
-17.12
-15.36
-14.83
-15.35
-16.33
-17.06
-17.18
-16.72
-16.08
-15.66
-15.73
-16.4
-17.72
-19.87
-23.05
-27.39
-32.72
-38.55
-44.13
-48.75
-51.94
-53.59
-53.91
-53.37
-52.39
-51.25
-49.95
-48.21
-45.56
-41.6
-36.16
-29.46
-22.03
-14.58
-7.69
-1.66
3.54
8.11
12.21
15.91
19.16
21.91
24.28
26.57
29.21
32.55
36.74
41.63
46.83
51.79
55.91
58.68
59.74
58.99
56.67
53.26
49.24
45.03
40.78
36.46
31.97
27.29
22.45
17.55
12.63
7.73
2.99
-1.29
-4.61
-6.47
-6.61
-5.18
-2.74
0.04
2.57
4.54
5.86
6.49
6.35
5.26
3.17
0.27
-2.95
-5.79
-7.66
-8.26
-7.74
-6.57
-5.38
-4.71
-4.82
-5.72
-7.22
-9.09
-11.13
-13.27
-15.46
-17.67
-19.76
-21.56
-22.87
-23.51
-23.44
-22.77
-21.74
-20.53
-19.18
-17.51
-15.13
-11.64
-6.79
-0.68
6.24
13.25
19.64
24.96
29.14
32.4
35.05
37.3
39.13
40.33
40.7
40.12
38.65
36.53
34.04
31.44
28.92
26.68
24.9
23.78
23.47
23.99
25.28
27.21
29.67
32.58
35.87
39.4
42.94
46.18
48.82
50.64
51.55
51.7
51.43
51.37
52.31
54.92
59.39
65.14
70.79
74.57
75.06
71.75
65.33
57.3
49.21
42.04
35.88
30.21
24.49
18.65
13.14
8.75
6.24
5.99
8.01
12.02
17.51
23.72
29.75
34.54
37.32
37.98
37.22
36.32
36.47
38.01
39.85
39.6
34.16
20.72
-2.04
-33.36
-70.3
-108.54
-143.52
-171.9
-192.71
-207.62
-220.03
-233.48
-249.97
-269.1
-288.28
-304.1
-313.64
-315.56
-310.26
-299.42
-285.34
-270.26
-255.91
-243.05
-231.24
-218.71
-202.86
-181.19
-152.37
-117.03
-77.52
-37.21
0.65
33.58
60.13
79.72
92.5
99.39
101.93
102.16
101.9
102.22
102.99
103.15
101.41
96.95
89.87
81.13
71.96
63.56
56.73
51.9
49.25
48.74
50.04
52.55
55.41
57.74
58.92
58.79
57.59
55.75
53.79
52.04
50.71
49.82
49.29
48.89
48.37
47.53
46.3
44.75
43.11
41.6
40.36
39.31
38.28
36.94
35.06
32.51
29.35
25.84
22.28
19
16.25
14.16
12.78
12.09
12.08
12.77
14.22
16.46
19.42
22.89
26.61
30.35
33.96
37.39
40.62
43.6
46.19
48.22
49.57
50.42
51.25
52.72
55.41
59.42
64.22
68.82
72.23
73.96
74.25
73.84
73.61
74.06
75.2
76.64
77.86
78.23
76.96
73.08
65.47
53.36
36.8
17.02
-3.77
-22.82
-37.64
-46.63
-49.36
-46.56
-39.77
-30.97
-22.2
-15.18
-11.03
-10.08
-11.82
-15
-18.03
-19.33
-17.82
-13.35
-6.69
0.59
6.7
10.11
9.89
5.68
-2.29
-13.42
-26.78
-41.05
-54.65
-66.08
-74.32
-79.17
-81.3
-81.97
-82.55
-84.04
-86.77
-90.28
-93.61
-95.45
-94.58
-90.21
-82.28
-71.46
-59.08
-46.53
-34.97
-24.92
-16.38
-9.04
-2.71
2.58
6.54
8.99
10.05
10.23
10.21
10.62
11.76
13.64
16.13
19.31
23.45
28.92
35.84
43.83
51.97
58.99
63.67
65.25
63.56
58.97
52.28
44.43
36.44
29.28
23.72
20.19
18.67
18.69
19.5
20.33
20.56
19.82
17.97
15.07
11.24
6.73
1.8
-3.22
-8.01
-12.22
-15.52
-17.51
-17.8
-16.21
-12.85
-8.25
-3.17
1.64
5.68
8.83
11.21
12.97
14.16
14.68
14.43
13.42
11.84
10.05
8.4
7.18
6.54
6.48
6.92
7.71
8.61
9.37
9.68
9.27
7.98
5.8
2.76
-1.07
-5.68
-11.05
-16.98
-23.04
-28.55
-32.71
-34.83
-34.6
-32.15
-28.1
-23.31
-18.69
-14.92
-12.31
-10.81
-10.16
-10.08
-10.39
-11.14
-12.54
-14.71
-17.6
-20.96
-24.43
-27.71
-30.61
-33
-34.7
-35.38
-34.72
-32.45
-28.59
-23.36
-17.14
-10.23
-2.83
4.91
12.85
20.69
28.08
34.59
39.9
43.85
46.56
48.49
50.3
52.73
56.14
60.29
64.19
66.37
65.38
60.41
51.63
40.07
27.22
14.33
2.13
-9.32
-20.27
-30.92
-41.13
-50.43
-58.32
-64.53
-69.24
-72.84
-75.74
-78.02
-79.39
-79.39
-77.71
-74.5
-70.37
-66.19
-62.67
-60.09
-58.18
-56.27
-53.72
-50.09
-45.38
-39.89
-34.02
-28.1
-22.36
-16.99
-12.11
-7.9
-4.4
-1.49
1.11
3.73
6.53
9.45
12.24
14.62
16.41
17.6
18.27
18.53
18.52
18.35
18.25
18.51
19.31
20.67
22.3
23.77
24.71
25.05
25
24.99
25.45
26.55
28.2
30.04
31.65
32.71
33.11
32.97
32.56
32.26
32.33
32.9
33.79
34.69
35.23
35.22
34.77
34.28
34.34
35.53
38.22
42.45
47.94
54.11
60.2
65.47
69.37
71.65
72.43
72.15
71.37
70.59
70.05
69.65
68.96
67.32
64.01
58.48
50.55
40.58
29.39
17.96
7.12
-2.75
-11.79
-20.37
-28.83
-37.17
-45.08
-52.04
-57.58
-61.48
-63.78
-64.67
-64.48
-63.52
-62.04
-60.19
-58.01
-55.46
-52.52
-49.21
-45.57
-41.68
-37.49
-33
-28.31
-23.85
-20.33
-18.58
-19.13
-21.82
-25.76
-29.6
-32.07
-32.5
-31.05
-28.55
-25.99
-24.05
-22.85
-21.98
-20.9
-19.22
-16.92
-14.29
-11.74
-9.57
-7.9
-6.71
-5.97
-5.63
-5.69
-6.07
-6.55
-6.81
-6.54
-5.59
-4.09
-2.47
-1.3
-1.2
-2.61
-5.68
-10.22
-15.7
-21.34
-26.28
-29.78
-31.27
-30.43
-27.02
-20.88
-11.82
0.18
14.78
31.14
47.95
63.58
76.43
85.37
89.95
90.36
87.25
81.4
73.45
63.94
53.43
42.65
32.56
24.28
18.63
15.92
15.77
17.4
20.01
23.05
26.05
28.54
29.88
29.29
26.28
20.88
13.88
6.59
0.44
-3.6
-5.32
-5.26
-4.42
-3.89
-4.57
-7.09
-11.83
-18.86
-27.76
-37.43
-46.27
-52.57
-55.13
-53.9
-50.15
-45.97
-43.45
-43.76
-46.69
-51.01
-55.05
-57.38
-57.21
-54.35
-49.03
-41.69
-32.96
-23.72
-15.14
-8.51
-4.91
-4.98
-8.72
-15.55
-24.44
-34.27
-43.99
-52.81
-60.06
-65.25
-68.03
-68.23
-65.98
-61.77
-56.29
-50.37
-44.63
-39.47
-34.99
-31.13
-27.73
-24.57
-21.45
-18.25
-15
-11.82
-9.08
-7.2
-6.66
-7.69
-10.08
-13.14
-15.75
-16.8
-15.62
-12.3
-7.72
-3.14
0.3
1.98
1.93
0.65
-1.16
-2.96
-4.43
-5.48
-6.16
-6.65
-7.22
-8.15
-9.53
-11.08
-12.07
-11.45
-8.19
-1.72
7.72
19.16
31.12
42.18
51.43
58.62
64.18
68.74
72.98
77.33
82.03
87.03
92.08
96.78
100.55
102.85
103.37
102.14
99.58
96.21
92.37
88.06
83.07
77.47
71.95
67.83
66.54
68.94
74.67
81.82
87.27
87.52
79.75
62.72
37.1
5.23
-29.49
-63.45
-93.6
-118.12
-136.71
-150.28
-160.16
-167.3
-171.83
-173.24
-170.88
-164.55
-154.64
-142.03
-127.68
-112.4
-96.71
-81
-65.75
-51.5
-38.87
-28.31
-20.14
-14.46
-11.11
-9.52
-8.59
-6.93
-3.19
3.33
12.42
22.79
32.38
38.97
40.71
36.96
28.55
17.9
8.28
2.89
3.57
10.09
20.24
30.66
38.29
41.41
40.04
35.54
29.68
23.94
19.07
15.38
13.07
12.53
14.27
18.59
25.18
33.05
40.75
46.87
50.53
51.66
50.82
48.92
46.67
44.44
42.16
39.59
36.44
32.63
28.33
23.9
19.73
16.18
13.49
11.78
11.04
11.14
11.94
13.29
15.11
17.31
19.7
21.96
23.74
24.69
24.69
23.83
22.36
20.47
18.23
15.6
12.58
9.21
5.62
1.93
-1.83
-5.63
-9.4
-13
-16.3
-19.28
-22.09
-24.72
-26.81
-27.43
-25.36
-19.56
-9.78
3.21
17.87
32.44
45.4
55.74
62.8
66.26
66.08
62.55
56.37
48.38
39.41
30.04
20.72
11.95
4.4
-1.43
-5.56
-8.87
-12.86
-18.75
-26.66
-35.14
-41.82
-44.69
-43.45
-39.73
-36.31
-35.47
-37.62
-41.05
-42.98
-41.28
-35.8
-28.5
-22.23
-19.05
-19.07
-20.64
-21.5
-20.07
-16.26
-11.11
-5.91
-1.4
2.43
6.08
9.98
14.18
18.4
22.3
25.63
28.31
30.27
31.44
31.76
31.24
29.98
28.08
25.7
23.09
20.71
19.28
19.41
21.17
23.78
25.73
25.42
21.87
15.23
6.68
-2.22
-10.26
-16.99
-22.62
-27.53
-31.8
-35.04
-36.69
-36.31
-34.02
-30.38
-26.13
-21.82
-17.65
-13.46
-9
-4.22
0.66
5.11
8.57
10.71
11.55
11.57
11.43
11.7
12.55
13.73
14.71
14.98
14.36
12.99
11.28
9.6
8.18
6.96
5.72
4.11
1.83
-1.36
-5.57
-10.64
-16.25
-21.87
-26.89
-30.75
-33.08
-33.69
-32.57
-29.85
-25.74
-20.6
-14.81
-8.81
-2.97
2.44
7.26
11.44
14.99
17.93
20.31
22.18
23.69
25.02
26.33
27.69
29.09
30.34
31.26
31.68
31.57
30.98
30.02
28.79
27.26
25.31
22.75
19.45
15.45
10.96
6.31
1.85
-2.09
-5.31
-7.66
-9.05
-9.44
-8.9
-7.64
-5.97
-4.16
-2.34
-0.41
1.85
4.68
8.13
12
15.95
19.64
22.87
25.66
28.16
30.5
32.72
34.67
36.11
36.84
36.68
35.53
33.29
29.82
25.06
19.07
12.12
4.61
-3.03
-10.52
-17.83
-24.91
-31.74
-38.14
-43.86
-48.71
-52.67
-55.85
-58.37
-60.14
-60.87
-60.18
-57.82
-53.88
-48.75
-43.05
-37.34
-31.93
-26.78
-21.72
-16.56
-11.28
-6.06
-1.12
3.37
7.45
11.32
15.21
19.2
23.13
26.58
29.04
30.12
29.81
28.5
26.9
25.75
25.55
26.3
27.56
28.61
28.74
27.55
25.06
21.6
17.61
13.52
9.59
5.94
2.67
-0.11
-2.22
-3.41
-3.45
-2.19
0.35
3.99
8.3
12.7
16.49
19
19.85
19.12
17.5
16.1
16.11
18.14
21.81
25.65
27.65
26.13
20.53
11.81
2.09
-6.08
-10.67
-10.84
-7.2
-1.71
2.81
3.35
-2.44
-15.43
-34.53
-56.91
-78.78
-96.5
-107.61
-111.05
-107.05
-96.62
-81.23
-62.69
-43.29
-25.56
-11.78
-3.39
-0.46
-1.84
-5.63
-9.98
-13.5
-15.44
-15.41
-13.15
-8.66
-2.37
4.76
11.46
16.62
19.86
21.66
23.07
25.07
27.97
31.24
33.91
35.07
34.4
32.25
29.34
26.37
23.72
21.51
19.8
18.82
19.02
20.84
24.51
29.75
35.64
40.91
44.26
44.75
42.11
36.62
28.83
19.22
7.82
-5.73
-21.74
-39.92
-59.05
-77.07
-91.84
-101.99
-107.47
-109.4
-109.35
-108.28
-106.15
-102.19
-95.76
-87.24
-78.06
-70.06
-64.42
-60.93
-58.14
-54.25
-48.22
-40.26
-31.64
-23.81
-17.67
-13.12
-9.37
-5.46
-0.8
4.53
10.04
15.16
19.61
23.56
27.51
31.96
37.12
42.7
47.95
52.03
54.25
54.4
52.74
49.87
46.51
43.26
40.57
38.63
37.4
36.67
36.09
35.31
34.14
32.61
31.03
29.81
29.24
29.3
29.54
29.31
28.08
25.68
22.29
18.31
14.15
10.22
7.11
5.77
7.25
12.11
19.78
28.39
35.27
38.16
36.25
30.53
23.19
16.28
10.68
5.86
0.45
-6.64
-15.5
-25.15
-34.19
-41.6
-47.23
-51.63
-55.54
-59.32
-62.68
-64.93
-65.44
-64.04
-61.17
-57.6
-54.06
-50.83
-47.69
-44.26
-40.23
-35.67
-31
-26.78
-23.52
-21.51
-20.81
-21.28
-22.51
-23.9
-24.7
-24.14
-21.69
-17.23
-11.16
-4.17
3
9.78
15.91
21.28
25.89
29.66
32.44
34.13
34.68
34.25
33.13
31.66
30.07
28.52
27.06
25.68
24.43
23.35
22.52
21.95
21.6
21.34
21
20.48
19.69
18.7
17.64
16.65
15.84
15.25
14.88
14.7
14.68
14.74
14.89
15.1
15.44
16.05
17.1
18.75
21.08
24.07
27.59
31.54
35.83
40.47
45.43
50.61
55.75
60.44
64.22
66.68
67.71
67.4
66.03
63.82
60.75
56.55
50.9
43.78
35.62
27.2
19.36
12.65
7.19
2.84
-0.61
-3.28
-5.34
-7.17
-9.34
-12.47
-16.74
-21.66
-26.22
-29.34
-30.56
-30.25
-29.49
-29.37
-30.43
-32.26
-33.86
-34.17
-32.69
-29.78
-26.41
-23.67
-22.24
-22
-22.24
-21.88
-20
-16.07
-10.14
-2.89
4.49
10.36
13.08
11.33
4.67
-6.19
-19.5
-32.94
-44.3
-52.15
-56.17
-57.08
-56.25
-55.2
-55.14
-56.66
-59.72
-63.67
-67.59
-70.55
-71.86
-71.19
-68.57
-64.23
-58.5
-51.72
-44.24
-36.43
-28.67
-21.31
-14.59
-8.58
-3.19
1.71
6.21
10.27
13.75
16.44
18.31
19.55
20.57
21.87
23.84
26.57
29.8
32.95
35.39
36.65
36.63
35.58
33.91
31.97
29.94
27.82
25.59
23.3
21.22
19.64
18.81
18.76
19.31
20.19
21.15
22.11
23.2
24.55
26.21
27.98
29.47
30.32
30.32
29.55
28.35
27.12
26.05
25.13
24.1
22.67
20.67
18.11
15.19
12.15
9.27
6.68
4.47
2.54
0.65
-1.56
-4.42
-8.08
-12.43
-17.08
-21.51
-25.21
-27.85
-29.32
-29.72
-29.28
-28.23
-26.77
-25.01
-22.9
-20.32
-17.21
-13.64
-9.88
-6.3
-3.21
-0.74
1.28
3.12
5.01
6.94
8.67
9.85
10.3
10.13
9.71
9.45
9.5
9.68
9.56
8.7
6.98
4.65
2.26
0.34
-0.78
-1.16
-1.17
-1.18
-1.53
-2.35
-3.66
-5.32
-7.11
-8.75
-9.84
-10.03
-9.05
-6.9
-3.78
-0.1
3.71
7.29
10.5
13.31
15.81
18.01
19.93
21.56
22.9
23.98
24.83
25.38
25.55
25.19
24.28
22.94
21.38
19.88
18.57
17.4
16.19
14.75
12.92
10.7
8.12
5.26
2.16
-1.13
-4.47
-7.71
-10.69
-13.36
-15.82
-18.18
-20.5
-22.68
-24.38
-25.16
-24.59
-22.46
-18.9
-14.39
-9.61
-5.34
-2.16
-0.25
0.51
0.51
0.09
-0.59
-1.61
-3.16
-5.26
-7.74
-10.22
-12.31
-13.75
-14.51
-14.63
-14.15
-13.1
-11.49
-9.42
-7.12
-4.88
-2.87
-1.16
0.28
1.56
2.69
3.64
4.28
4.5
4.21
3.47
2.44
1.45
0.95
1.31
2.67
4.9
7.52
10.01
11.94
13.18
13.9
14.38
14.83
15.3
15.68
15.78
15.52
14.92
14.21
13.62
13.41
13.61
14.09
14.57
14.66
14.08
12.68
10.41
7.36
3.65
-0.49
-4.78
-8.85
-12.37
-15.08
-16.96
-18.16
-19
-19.88
-21.16
-23.11
-25.76
-28.91
-32.06
-34.56
-35.76
-35.25
-33.03
-29.47
-25.21
-20.89
-16.99
-13.68
-10.91
-8.55
-6.38
-4.25
-2.04
0.31
2.74
5.11
7.16
8.7
9.56
9.78
9.47
8.9
8.31
7.89
7.72
7.71
7.66
7.32
6.54
5.27
3.62
1.85
0.27
-0.91
-1.66
-2
-2.04
-1.83
-1.41
-0.77
0.01
0.79
1.41
1.78
1.94
2.05
2.33
2.91
3.83
5
6.29
7.63
8.94
10.17
11.21
11.97
12.41
12.67
12.96
13.47
14.23
15.01
15.5
15.47
14.95
14.31
14.01
14.45
15.71
17.52
19.44
20.9
21.41
20.58
18.19
14.21
8.94
2.95
-3.01
-8.29
-12.54
-15.76
-18.24
-20.26
-21.97
-23.34
-24.34
-25.04
-25.62
-26.32
-27.19
-28.12
-28.86
-29.2
-29.12
-28.78
-28.35
-27.87
-27.21
-26.08
-24.27
-21.67
-18.34
-14.39
-9.91
-4.98
0.3
5.75
11.11
16.13
20.68
24.77
28.47
31.71
34.27
35.72
35.73
34.21
31.54
28.38
25.47
23.3
21.96
21.12
20.2
18.65
16.1
12.47
7.81
2.31
-3.85
-10.49
-17.41
-24.46
-31.49
-38.42
-45.18
-51.51
-56.92
-60.63
-61.95
-60.55
-56.76
-51.54
-45.98
-40.74
-35.66
-29.94
-22.58
-13.2
-2.38
8.38
17.29
22.97
25
23.91
20.75
16.59
12.11
7.56
2.98
-1.42
-5.24
-7.95
-9.17
-9
-7.94
-6.75
-6.04
-6.06
-6.61
-7.21
-7.45
-7.19
-6.69
-6.36
-6.58
-7.47
-8.88
-10.51
-11.98
-13.04
-13.46
-13.13
-12.02
-10.34
-8.49
-7
-6.27
-6.36
-6.87
-7.14
-6.71
-5.45
-3.82
-2.45
-1.86
-2.07
-2.63
-2.88
-2.22
-0.42
2.43
5.94
9.65
13.1
15.83
17.47
17.72
16.51
13.97
10.5
6.59
2.8
-0.47
-2.95
-4.57
-5.51
-6.09
-6.69
-7.66
-9.1
-10.91
-12.71
-14.03
-14.47
-13.84
-12.18
-9.69
-6.61
-3.06
0.9
5.21
9.66
13.95
17.71
20.64
22.6
23.63
23.87
23.52
22.78
21.82
20.89
20.27
20.22
20.89
22.24
24.03
25.94
27.66
28.99
29.94
30.54
30.85
30.85
30.45
29.51
27.99
25.91
23.42
20.77
18.25
16.11
14.59
13.78
13.72
14.34
15.44
16.75
17.99
18.92
19.38
19.33
18.84
18.03
17.07
16.06
15
13.78
12.15
9.96
7.16
4.05
1.19
-0.69
-0.92
0.81
4.37
9.21
14.61
19.85
24.45
28.13
30.75
32.1
31.9
29.87
25.83
19.94
12.67
4.78
-2.94
-9.9
-15.83
-20.76
-24.9
-28.5
-31.7
-34.51
-36.88
-38.69
-39.84
-40.29
-40
-38.9
-36.98
-34.35
-31.32
-28.4
-26.19
-25.16
-25.47
-26.91
-29.07
-31.57
-34.26
-37.15
-40.25
-43.26
-45.54
-46.32
-45.05
-41.77
-37.08
-31.89
-27.01
-22.85
-19.46
-16.71
-14.59
-13.29
-13.11
-14.17
-16.19
-18.51
-20.24
-20.62
-19.24
-16.16
-11.83
-6.78
-1.33
4.4
10.49
17.01
23.76
30.26
35.88
40.03
42.42
43.1
42.4
40.69
38.23
35.07
31.16
26.47
21.1
15.37
9.82
5.11
1.93
0.78
1.79
4.56
8.19
11.52
13.52
13.69
12.12
9.39
6.13
2.69
-0.93
-4.83
-9
-13.13
-16.7
-19.37
-21.1
-22.21
-23.05
-23.71
-23.89
-23.03
-20.67
-16.74
-11.71
-6.31
-1.35
2.64
5.44
7.15
7.99
8.2
7.94
7.27
6.24
4.91
3.39
1.82
0.3
-1.17
-2.6
-4.04
-5.43
-6.52
-6.99
-6.5
-4.86
-2.12
1.45
5.47
9.62
13.7
17.69
21.65
25.69
29.79
33.89
37.8
41.31
44.2
46.27
47.43
47.64
46.97
45.58
43.63
41.23
38.43
35.24
31.69
27.92
24.06
20.22
16.41
12.5
8.43
4.25
0.25
-3.2
-5.81
-7.61
-8.95
-10.4
-12.46
-15.2
-18.27
-20.96
-22.53
-22.5
-20.95
-18.34
-15.41
-12.81
-10.87
-9.51
-8.38
-7.05
-5.27
-3.11
-0.94
0.66
1.12
0.06
-2.55
-6.41
-10.97
-15.7
-20.13
-24.07
-27.56
-30.89
-34.53
-38.92
-44.32
-50.67
-57.43
-63.56
-67.71
-68.6
-65.53
-58.8
-49.71
-40.21
-32.16
-26.58
-23.36
-21.43
-19.49
-16.67
-12.89
-8.71
-4.83
-1.67
0.78
2.82
4.64
6.28
7.61
8.51
8.96
8.91
8.17
6.46
3.53
-0.52
-4.99
-8.69
-10.22
-8.43
-2.84
6.04
16.83
27.48
35.79
39.99
39.28
33.91
24.96
13.87
1.97
-9.64
-20.09
-28.46
-33.83
-35.49
-33.38
-28.31
-21.96
-16.35
-13.17
-13.33
-16.49
-21.25
-25.53
-27.16
-24.52
-16.91
-4.69
10.85
28
45.11
60.85
74.19
84.34
90.57
92.38
89.74
83.33
74.46
64.86
56.14
49.42
45.06
42.69
41.44
40.33
38.59
35.88
32.27
28.09
23.67
19.11
14.26
8.93
3.07
-3.02
-8.81
-13.77
-17.62
-20.43
-22.52
-24.17
-25.43
-26.08
-25.87
-24.69
-22.69
-20.22
-17.65
-15.15
-12.7
-10.24
-7.84
-5.79
-4.51
-4.37
-5.49
-7.63
-10.35
-13.08
-15.31
-16.69
-17.06
-16.45
-15.04
-13.11
-10.95
-8.79
-6.77
-4.91
-3.2
-1.64
-0.2
1.14
2.42
3.69
4.96
6.14
7.06
7.56
7.6
7.25
6.67
6
5.28
4.48
3.64
2.93
2.65
3.07
4.36
6.41
8.95
11.6
14
15.9
17.06
17.3
16.43
14.31
10.99
6.73
1.89
-3.2
-8.28
-13.32
-18.32
-23.2
-27.64
-31.16
-33.24
-33.59
-32.31
-29.88
-26.96
-24.14
-21.76
-19.98
-18.82
-18.29
-18.35
-18.8
-19.16
-18.81
-17.18
-14.11
-10.01
-5.74
-2.16
0.24
1.67
2.94
5.08
8.8
14.27
20.97
27.96
34.14
38.61
40.88
40.93
39.15
36.23
32.99
30.16
28.14
26.95
26.28
25.64
24.6
22.94
20.61
17.77
14.62
11.42
8.45
5.95
3.99
2.35
0.55
-2.01
-5.84
-11.08
-17.43
-24.18
-30.52
-35.83
-39.86
-42.71
-44.69
-46.11
-47.14
-47.8
-48.04
-47.89
-47.51
-47.06
-46.61
-45.87
-44.29
-41.19
-36.08
-29.01
-20.54
-11.6
-3.15
4.23
10.42
15.75
20.62
25.24
29.43
32.73
34.62
34.94
33.98
32.36
30.82
29.8
29.33
29
28.24
26.6
23.92
20.36
16.29
12.13
8.26
4.98
2.41
0.55
-0.72
-1.64
-2.37
-3.04
-3.66
-4.24
-4.82
-5.49
-6.32
-7.35
-8.48
-9.53
-10.23
-10.31
-9.57
-7.92
-5.42
-2.31
1.11
4.49
7.53
10.01
11.82
12.92
13.33
13.15
12.51
11.63
10.74
9.99
9.46
9.08
8.76
8.39
7.94
7.36
6.69
5.9
4.96
3.79
2.29
0.36
-2.03
-4.81
-7.83
-10.85
-13.61
-15.94
-17.84
-19.46
-21.13
-23.11
-25.58
-28.42
-31.23
-33.39
-34.24
-33.25
-30.26
-25.58
-19.94
-14.27
-9.46
-6.1
-4.29
-3.71
-3.83
-4.11
-4.25
-4.23
-4.21
-4.34
-4.62
-4.87
-4.84
-4.36
-3.29
-1.56
0.99
4.49
8.92
13.94
18.84
22.71
24.83
24.91
23.2
20.32
16.88
13.32
9.82
6.42
3.19
0.34
-1.86
-3.22
-3.73
-3.51
-2.75
-1.59
-0.1
1.68
3.75
6.07
8.57
11.12
13.61
15.87
17.86
19.63
21.45
23.73
26.86
31.07
36.22
41.86
47.3
51.83
54.98
56.57
56.7
55.63
53.58
50.63
46.74
41.71
35.28
27.29
17.77
6.99
-4.55
-16.15
-26.97
-36.25
-43.29
-47.65
-49.25
-48.53
-46.39
-44.09
-42.83
-43.43
-45.95
-49.75
-53.69
-56.68
-58.06
-57.76
-56.21
-53.97
-51.4
-48.57
-45.23
-41.14
-36.26
-30.87
-25.41
-20.28
-15.69
-11.59
-7.83
-4.25
-0.83
2.35
5.14
7.44
9.29
10.8
12.11
13.31
14.39
15.24
15.72
15.69
15.11
14.14
13.12
12.5
12.69
13.89
16
18.6
21.18
23.29
24.76
25.62
26.07
26.28
26.34
26.17
25.64
24.65
23.21
21.4
19.34
17.12
14.8
12.39
9.92
7.45
5.11
3.12
1.71
1.06
1.28
2.25
3.63
4.89
5.54
5.29
4.25
2.87
1.73
1.2
1.3
1.7
1.87
1.38
0.03
-2.13
-4.84
-7.79
-10.6
-12.91
-14.4
-14.89
-14.52
-13.73
-13.19
-13.44
-14.62
-16.36
-17.82
-18.11
-16.63
-13.38
-8.9
-4.08
0.32
3.87
6.64
8.98
11.31
13.78
16.27
18.51
20.19
21.23
21.7
21.69
21.27
20.41
19.07
17.36
15.56
14.01
12.97
12.42
12.1
11.7
11.03
10.24
9.73
9.95
11.07
12.88
14.83
16.27
16.75
16.19
14.82
13.01
11.08
9.13
7.14
5
2.65
0.2
-2.23
-4.61
-7.01
-9.68
-12.95
-16.99
-21.66
-26.5
-30.78
-33.71
-34.77
-33.82
-31.15
-27.3
-22.91
-18.51
-14.52
-11.31
-9.21
-8.5
-9.33
-11.65
-15.12
-19.25
-23.4
-27.02
-29.67
-31.21
-31.72
-31.44
-30.67
-29.59
-28.22
-26.37
-23.7
-19.88
-14.76
-8.4
-1.09
6.81
14.95
23.07
30.92
38.21
44.52
49.29
52.08
52.68
51.25
48.24
44.3
40
35.84
32.19
29.37
27.68
27.37
28.53
31.07
34.71
38.98
43.3
47.04
49.6
50.62
50.12
48.55
46.68
45.32
44.95
45.55
46.67
47.68
48.07
47.61
46.33
44.4
41.96
38.99
35.25
30.34
23.82
15.49
5.47
-5.62
-16.79
-26.92
-35.1
-40.88
-44.35
-46.09
-46.86
-47.36
-48.08
-49.24
-50.87
-52.82
-54.81
-56.56
-57.78
-58.3
-58.08
-57.2
-55.75
-53.74
-51.18
-48.06
-44.53
-40.93
-37.67
-35.01
-32.93
-31.12
-29.22
-27.01
-24.65
-22.61
-21.47
-21.59
-22.93
-25.04
-27.3
-29.12
-30.18
-30.45
-30.14
-29.45
-28.47
-27.03
-24.86
-21.7
-17.57
-12.78
-7.87
-3.43
0.14
2.7
4.35
5.32
5.81
5.95
5.83
5.5
5.01
4.45
3.9
3.4
2.93
2.43
1.83
1.09
0.18
-0.87
-1.96
-2.99
-3.88
-4.64
-5.35
-6.15
-7.15
-8.4
-9.85
-11.35
-12.82
-14.26
-15.8
-17.57
-19.59
-21.66
-23.43
-24.49
-24.58
-23.72
-22.19
-20.41
-18.75
-17.41
-16.39
-15.56
-14.77
-13.87
-12.84
-11.66
-10.43
-9.2
-7.99
-6.66
-5
-2.77
0.15
3.64
7.38
10.99
14.19
16.94
19.38
21.67
23.85
25.81
27.35
28.32
28.72
28.7
28.43
28.06
27.62
27.09
26.41
25.49
24.23
22.55
20.47
18.17
16.01
14.36
13.51
13.53
14.17
15.08
15.97
16.74
17.51
18.45
19.71
21.22
22.77
24.06
24.82
24.94
24.4
23.27
21.65
19.6
17.17
14.45
11.52
8.46
5.32
2.15
-0.99
-3.97
-6.6
-8.71
-10.24
-11.23
-11.84
-12.24
-12.56
-12.89
-13.21
-13.46
-13.45
-12.95
-11.72
-9.58
-6.57
-2.98
0.78
4.32
7.5
10.47
13.54
16.97
20.83
24.92
28.86
32.36
35.25
37.58
39.51
41.21
42.68
43.83
44.44
44.32
43.41
41.77
39.63
37.26
34.91
32.66
30.45
28.06
25.21
21.74
17.67
13.29
9.07
5.56
3.17
2.09
2.34
3.82
6.43
10.03
14.4
19.03
23.22
26.25
27.59
27.11
25.02
21.67
17.34
12.13
6.04
-0.85
-8.19
-15.38
-21.73
-26.79
-30.36
-32.55
-33.57
-33.63
-32.86
-31.39
-29.44
-27.31
-25.36
-23.89
-23.1
-23.09
-23.83
-25.31
-27.5
-30.4
-34.09
-38.63
-44.02
-50.14
-56.6
-62.85
-68.29
-72.48
-75.27
-76.84
-77.55
-77.8
-77.89
-77.94
-77.95
-77.81
-77.38
-76.52
-75.09
-73.11
-70.69
-68.07
-65.34
-62.34
-58.69
-53.99
-47.99
-40.8
-32.86
-24.69
-16.82
-9.59
-3.2
2.19
6.51
9.74
11.99
13.44
14.33
14.77
14.77
14.32
13.5
12.58
11.9
11.77
12.21
12.99
13.64
13.76
13.22
12.22
11.19
10.5
10.33
10.55
10.89
11.01
10.79
10.27
9.66
9.14
8.77
8.39
7.72
6.47
4.49
1.95
-0.74
-2.9
-3.86
-3.13
-0.63
3.29
8.06
13.03
17.72
21.9
25.5
28.47
30.7
32.08
32.58
32.38
31.85
31.38
31.19
31.25
31.29
31.08
30.59
30.07
29.8
29.97
30.44
30.89
31
30.74
30.27
29.91
29.76
29.65
29.15
27.84
25.64
22.84
20.02
17.79
16.4
15.69
15.14
14.14
12.31
9.79
7.2
5.54
5.75
8.35
13.19
19.4
25.69
30.72
33.63
34.17
32.78
30.29
27.57
25.26
23.55
22.27
21.1
19.85
18.53
17.31
16.42
16
16.26
17.5
20.14
24.53
30.64
37.77
44.63
49.67
51.75
50.58
46.88
41.96
37.09
32.97
29.51
26.09
21.86
16.09
8.21
-2.1
-14.84
-29.49
-44.84
-59
-69.8
-75.44
-75.02
-68.95
-58.67
-46.22
-33.52
-22.04
-12.55
-5.15
0.4
4.4
6.97
7.96
7.12
4.61
1.23
-1.46
-1.62
2.06
9.78
20.34
31.65
41.55
48.64
52.56
53.8
53.08
50.81
46.99
41.49
34.45
26.53
18.77
12.13
6.94
2.68
-1.84
-7.99
-16.7
-28.15
-41.85
-57
-72.78
-88.5
-103.45
-116.72
-127.26
-134.14
-136.97
-136.1
-132.58
-127.53
-121.73
-115.23
-107.51
-97.88
-86.08
-72.5
-58.14
-44.26
-31.92
-21.74
-13.91
-8.33
-4.74
-2.76
-1.89
-1.41
-0.49
1.59
5.15
9.95
15.32
20.39
24.43
27.05
28.26
28.41
28.13
28.14
29.17
31.74
35.92
41.3
47.04
52.18
56.14
58.98
61.39
64.43
68.97
75.35
83.17
91.46
99.08
105.18
109.51
112.51
115.04
118.02
122.05
127.17
132.8
137.63
139.73
136.92
127.37
110.32
86.6
58.54
29.3
1.87
-21.9
-41.59
-57.66
-70.8
-81.47
-89.86
-96.29
-101.48
-106.54
-112.77
-121.42
-133.3
-148.34
-165.13
-180.81
-191.64
-194.4
-188.02
-174.43
-157.83
-142.69
-131.5
-123.73
-116.49
-106.67
-92.87
-76.15
-59.07
-43.9
-31.39
-20.7
-10.42
0.3
11.07
20.62
27.65
31.59
32.9
32.8
32.61
33.25
34.98
37.37
39.67
41.15
41.48
40.8
39.63
38.57
38.1
38.39
39.25
40.2
40.57
39.6
36.67
31.47
24.17
15.45
6.29
-2.32
-9.67
-15.51
-20.01
-23.58
-26.7
-29.69
-32.65
-35.47
-37.93
-39.76
-40.72
-40.58
-39.17
-36.22
-31.34
-24.03
-13.88
-0.93
14.14
29.93
44.73
57.06
66.29
72.94
78.47
84.69
92.78
102.74
113.44
123.51
132.14
139.42
145.87
151.65
156.06
157.87
155.91
149.8
139.91
126.68
109.92
88.83
62.79
32.62
1.16
-27.55
-50.15
-65.92
-77.31
-88.64
-103.46
-122.5
-143.06
-160.34
-170.05
-170.42
-162.83
-150.76
-137.89
-126.53
-117.1
-108.53
-99.23
-87.86
-73.65
-56.5
-36.86
-15.72
5.54
25.38
42.46
55.83
64.96
69.57
69.67
65.68
58.74
50.64
43.24
37.69
33.71
29.7
23.67
14.46
2.61
-9.5
-18.75
-22.52
-20.03
-12.59
-3.12
5.07
9.5
9.23
4.95
-1.65
-8.54
-14.07
-17.26
-17.88
-16.25
-13.01
-8.95
-4.86
-1.52
0.41
0.46
-1.45
-5.03
-9.63
-14.44
-18.72
-22.01
-24.27
-25.8
-27.08
-28.53
-30.23
-31.9
-32.97
-32.81
-31.12
-28.1
-24.5
-21.28
-19.34
-19.12
-20.47
-22.84
-25.52
-27.88
-29.52
-30.3
-30.2
-29.26
-27.58
-25.27
-22.44
-19.19
-15.48
-11.14
-6.05
-0.2
6.19
12.77
19.15
25.07
30.44
35.35
39.9
44.01
47.52
50.15
51.74
52.38
52.36
52.15
52.17
52.57
53.26
53.96
54.33
54.18
53.46
52.23
50.67
48.96
47.32
46.09
45.76
46.94
50.12
55.4
62.27
69.77
76.79
82.5
86.58
89.11
90.14
89.35
86.1
79.63
69.65
56.67
41.78
26.25
10.95
-3.79
-17.89
-31.05
-42.56
-51.33
-56.4
-57.38
-54.69
-49.51
-43.28
-37.29
-32.32
-28.6
-25.96
-24.19
-23.21
-23.13
-24.1
-26.14
-29.14
-33.16
-38.57
-46.07
-56.33
-69.35
-83.94
-97.87
-108.45
-113.44
-111.76
-103.67
-90.43
-73.59
-54.45
-33.76
-11.91
10.84
34.18
57.69
80.8
102.68
122.32
138.58
150.39
157.03
158.33
154.84
147.77
138.74
129.37
120.85
113.68
107.54
101.67
95.18
87.47
78.39
68.06
56.72
44.54
31.53
17.68
3.16
-11.72
-26.51
-40.77
-54.09
-66.1
-76.42
-84.8
-91.25
-96.17
-100.42
-105
-110.53
-116.88
-123.01
-127.29
-128.17
-124.72
-116.96
-105.74
-92.38
-78.17
-64.13
-50.91
-38.9
-28.32
-19.37
-12.16
-6.68
-2.78
-0.21
1.37
2.2
2.39
1.99
1.06
-0.27
-1.71
-2.94
-3.67
-3.72
-3.05
-1.74
0.08
2.19
4.38
6.39
8.03
9.19
9.89
10.25
10.38
10.31
9.9
9.06
7.78
6.23
4.81
3.87
3.69
4.27
5.4
6.76
8.05
9.16
10.12
11.12
12.36
13.94
15.77
17.66
19.34
20.52
21.02
20.71
19.48
17.28
14.13
10.13
5.59
0.94
-3.31
-6.7
-8.91
-9.79
-9.43
-7.99
-5.8
-3.27
-0.86
1.02
2.11
2.33
1.89
1.16
0.61
0.57
1.27
2.65
4.48
6.38
7.92
8.75
8.84
8.44
8.04
8.15
8.91
9.99
10.73
10.44
8.9
6.54
4.29
3.16
3.81
6.23
9.86
13.91
17.69
20.68
22.63
23.32
22.7
20.93
18.52
16.25
14.98
15.18
16.69
18.78
20.43
20.81
19.55
16.85
13.19
9.04
4.57
-0.26
-5.59
-11.43
-17.55
-23.57
-29.13
-34.02
-38.22
-41.87
-45.07
-47.9
-50.28
-52.04
-52.82
-52.2
-49.69
-45.01
-38.24
-29.89
-20.78
-11.78
-3.51
3.76
10.05
15.44
19.92
23.34
25.58
26.69
26.92
26.69
26.36
26.07
25.73
25.12
24.03
22.32
20
17.12
13.86
10.42
7
3.79
0.88
-1.84
-4.54
-7.41
-10.57
-13.93
-17.26
-20.17
-22.22
-23.06
-22.51
-20.69
-18.04
-15.21
-12.91
-11.68
-11.74
-12.95
-14.95
-17.26
-19.4
-20.95
-21.43
-20.46
-17.77
-13.38
-7.64
-1.24
5
10.33
14.22
16.5
17.31
17.07
16.36
15.73
15.58
15.97
16.69
17.29
17.33
16.45
14.56
11.74
8.22
4.26
0.15
-3.87
-7.57
-10.77
-13.35
-15.26
-16.55
-17.33
-17.74
-17.96
-18.21
-18.68
-19.43
-20.3
-21.06
-21.34
-20.86
-19.49
-17.28
-14.43
-11.25
-7.97
-4.75
-1.73
1.01
3.37
5.4
7.27
9.37
12.12
15.7
19.97
24.34
28.04
30.46
31.39
31.1
30.2
29.28
28.59
27.94
26.82
24.65
21.1
16.18
10.34
4.25
-1.31
-5.67
-8.47
-9.63
-9.42
-8.42
-7.29
-6.67
-6.94
-8.11
-9.78
-11.32
-12.02
-11.35
-9.11
-5.48
-0.89
4.11
9.04
13.69
18.08
22.51
27.39
33.13
39.92
47.72
56.07
64.23
71.23
76.11
78.09
76.66
71.73
63.6
52.91
40.44
27.11
13.7
0.87
-10.95
-21.52
-30.72
-38.39
-44.35
-48.34
-50.23
-50.09
-48.26
-45.24
-41.56
-37.72
-34.01
-30.6
-27.55
-24.83
-22.29
-19.76
-17.05
-14.11
-11.09
-8.33
-6.28
-5.29
-5.42
-6.48
-8.07
-9.69
-11.06
-12.11
-13.05
-14.15
-15.61
-17.44
-19.47
-21.48
-23.22
-24.61
-25.65
-26.41
-26.97
-27.33
-27.49
-27.44
-27.23
-26.86
-26.36
-25.6
-24.47
-22.92
-20.98
-18.8
-16.63
-14.69
-13.12
-12
-11.37
-11.22
-11.51
-12.04
-12.47
-12.35
-11.28
-9.06
-5.76
-1.7
2.71
7.04
11.06
14.61
17.66
20.18
22.07
23.26
23.77
23.76
23.52
23.32
23.25
23.16
22.68
21.37
19
15.6
11.56
7.42
3.74
0.86
-1.14
-2.39
-3.14
-3.62
-3.99
-4.43
-5.11
-6.12
-7.43
-8.8
-9.81
-10.06
-9.32
-7.73
-5.69
-3.69
-2.02
-0.68
0.59
2.09
3.94
6.06
8.23
10.25
12.01
13.42
14.35
14.66
14.31
13.42
12.3
11.27
10.57
10.14
9.78
9.22
8.43
7.58
6.99
6.96
7.61
8.86
10.45
12.08
13.56
14.81
15.87
16.94
18.22
19.88
21.95
24.3
26.61
28.47
29.46
29.29
27.86
25.26
21.79
17.93
14.31
11.56
10.05
9.6
9.47
8.51
5.62
0.25
-7.35
-16.36
-25.77
-34.85
-43.42
-51.54
-59.22
-66.25
-72.16
-76.63
-79.78
-82.18
-84.56
-87.34
-90.32
-92.69
-93.31
-91.13
-85.55
-76.58
-64.84
-51.32
-37.21
-23.57
-11.15
-0.35
8.8
16.51
23.02
28.48
32.95
36.36
38.68
40.03
40.74
41.28
42.24
44.1
47.01
50.66
54.26
56.74
57.09
54.77
49.84
43.01
35.33
27.94
21.66
16.84
13.4
10.95
9.06
7.45
5.99
4.65
3.32
1.85
-0.02
-2.39
-5.1
-7.77
-9.89
-11.19
-11.62
-11.4
-10.79
-9.9
-8.65
-6.95
-4.8
-2.49
-0.5
0.71
0.85
0.06
-1.27
-2.56
-3.34
-3.29
-2.33
-0.57
1.69
4.1
6.29
8.04
9.29
10.15
10.82
11.38
11.8
11.88
11.43
10.45
9.22
8.18
7.73
8.05
8.99
10.15
11.16
11.8
12.12
12.33
12.68
13.27
14.16
15.24
16.44
17.69
18.88
19.9
20.63
20.91
20.64
19.77
18.31
16.31
13.87
11.14
8.35
5.81
3.83
2.66
2.34
2.71
3.47
4.27
4.88
5.25
5.51
5.72
5.79
5.35
3.92
1.2
-2.69
-7.1
-11.07
-13.7
-14.55
-13.74
-11.82
-9.49
-7.29
-5.58
-4.49
-4.1
-4.4
-5.3
-6.53
-7.7
-8.41
-8.54
-8.28
-8.1
-8.53
-9.86
-12.1
-14.85
-17.6
-19.75
-20.84
-20.67
-19.35
-17.3
-15.05
-13.05
-11.42
-9.97
-8.25
-5.81
-2.49
1.49
5.52
8.85
10.89
11.35
10.33
8.25
5.66
3.13
1.13
-0.09
-0.49
-0.22
0.41
1.08
1.56
1.77
1.78
1.82
2.08
2.82
4.15
6.07
8.37
10.53
11.91
11.79
9.75
5.84
0.74
-4.47
-8.7
-11.18
-11.76
-10.85
-9.32
-8.09
-7.86
-8.92
-11.17
-14.23
-17.66
-21.19
-24.8
-28.72
-33.2
-38.26
-43.61
-48.52
-52.09
-53.46
-52.21
-48.42
-42.74
-36.09
-29.49
-23.71
-19.12
-15.67
-13.04
-10.8
-8.6
-6.26
-3.81
-1.43
0.59
1.95
2.47
2.07
0.88
-0.76
-2.47
-3.86
-4.68
-4.86
-4.45
-3.62
-2.47
-1.04
0.67
2.65
4.78
6.82
8.52
9.68
10.28
10.52
10.73
11.22
12.11
13.28
14.45
15.31
15.63
15.37
14.57
13.39
11.97
10.4
8.78
7.19
5.78
4.65
3.89
3.52
3.53
3.9
4.6
5.66
7.17
9.28
12.17
16.05
21
26.95
33.56
40.28
46.46
51.53
55.27
57.79
59.58
61.18
62.96
64.93
66.83
68.22
68.78
68.42
67.19
65.31
62.95
60.25
57.44
54.81
52.77
51.62
51.37
51.74
52.11
51.89
50.79
49.03
47.15
45.56
43.96
41.23
35.86
26.99
15.21
2.8
-7.09
-11.73
-10.05
-2.98
7.18
17.9
27.36
34.72
39.68
42.01
41.32
37.35
30.44
21.75
13.04
6.2
2.61
2.89
6.94
14.33
24.61
37.37
52.01
67.35
81.53
92.44
98.21
98.17
93.29
85.58
77.03
68.52
59.81
49.85
37.71
23.04
6.46
-10.65
-26.55
-39.49
-47.87
-50.71
-48.36
-43.12
-39.45
-41.61
-51.45
-67.34
-85.35
-101.93
-116.14
-129.78
-145.38
-164.95
-186.2
-203.02
-209.09
-202.23
-185.82
-165.9
-146.52
-127.22
-107.45
-86.37
-64.47
-44.47
-30.69
-26.51
-31.65
-42.03
-52.58
-65.77
-86.1
-115.81
-152.22
-189.36
-220.94
-242.48
-253.02
-255.68
-263.28
-286.95
-329.6
-384.67
-441.64
-491.99
-531.69
-561.28
-541.54
-454.16
-313.08
-156.64
-17.15
93.96
179.06
243.76
291.94
325.56
340.01
333.7
311.55
283.83
259.9
243.76
234.6
229.48
225.09
214.59
193.85
164.05
132.05
106.12
92.49
94.47
112.28
142.44
175.73
202.13
211.34
200.32
173.17
137.54
101.47
72.5
51.32
36.06
24.57
15.57
9.4
6.29
5.34
4.89
3.51
0.04
-6.25
-14.65
-23.21
-28.69
-28.53
-22.35
-12.38
-2.56
2.88
1.98
-4.46
-13.17
-19.46
-19.4
-11.4
3.21
21.04
38.15
52.12
62.45
70.05
76.29
81.59
84.98
84.76
79.92
71.04
60.4
50.55
42.63
35.68
27.21
14.82
-2.07
-21.64
-40.53
-55.37
-64.26
-67.31
-65.94
-61.97
-56.78
-51.13
-45.4
-40
-35.54
-32.71
-31.98
-33.28
-36
-39.05
-41.27
-41.71
-39.96
-36.18
-31.04
-25.5
-20.39
-16.23
-13.19
-11.08
-9.71
-9.03
-9.17
-10.31
-12.56
-15.67
-19.15
-22.39
-24.87
-26.42
-27.12
-27.26
-27.07
-26.69
-26.06
-25.08
-23.74
-22.08
-20.19
-18.1
-15.76
-13
-9.67
-5.69
-1.11
3.89
9.14
14.46
19.67
24.53
28.75
32.01
34.1
35.06
35.18
34.91
34.65
34.66
34.9
35.19
35.32
35.08
34.42
33.38
32.03
30.47
28.82
27.14
25.49
23.85
22.08
20.1
17.85
15.36
12.72
10.03
7.46
5.18
3.43
2.49
2.59
3.77
5.85
8.53
11.37
14.05
16.33
18.11
19.3
19.84
19.66
18.73
17.09
14.87
12.27
9.57
7.07
5.01
3.55
2.66
2.12
1.6
0.74
-0.67
-2.66
-5.08
-7.76
-10.58
-13.48
-16.48
-19.5
-22.46
-25.21
-27.64
-29.64
-31.15
-32.01
-31.99
-30.83
-28.29
-24.32
-19.11
-13.11
-6.92
-1.19
3.67
7.52
10.49
12.94
15.2
17.43
19.51
21.16
22.03
21.94
20.97
19.39
17.58
15.81
14.15
12.42
10.35
7.68
4.34
0.46
-3.64
-7.62
-11.17
-14.17
-16.57
-18.33
-19.49
-20.01
-19.99
-19.66
-19.34
-19.23
-19.39
-19.5
-19.08
-17.69
-15.16
-11.72
-7.8
-3.83
0.04
3.87
7.86
11.99
15.94
19.19
21.26
21.99
21.57
20.51
19.33
18.33
17.55
16.86
16.13
15.34
14.5
13.6
12.54
11.08
9.04
6.45
3.56
0.82
-1.37
-2.84
-3.7
-4.33
-5.14
-6.42
-8.15
-10.02
-11.6
-12.46
-12.37
-11.33
-9.51
-7.15
-4.43
-1.45
1.74
5.02
8.22
11.06
13.28
14.68
15.29
15.32
15.12
14.99
15.09
15.3
15.41
15.15
14.43
13.3
11.96
10.62
9.33
8.02
6.52
4.68
2.5
0.15
-2.2
-4.38
-6.34
-8.14
-9.93
-11.84
-13.96
-16.24
-18.45
-20.22
-21.11
-20.76
-19.03
-16.09
-12.3
-8.22
-4.3
-0.77
2.35
5.21
8
10.81
13.65
16.36
18.73
20.51
21.5
21.63
21
19.87
18.59
17.45
16.57
15.9
15.21
14.31
13.09
11.64
10.17
8.87
7.78
6.85
5.96
5.04
4.11
3.24
2.47
1.72
0.86
-0.19
-1.33
-2.16
-2.15
-0.76
2.27
6.76
12.16
17.73
22.83
27.17
30.75
33.77
36.37
38.5
40
40.77
40.93
40.83
40.86
41.23
41.82
42.25
42.08
41.08
39.34
37.1
34.63
32.03
29.16
25.73
21.44
16.17
10.05
3.44
-3.24
-9.61
-15.32
-20.14
-23.81
-26.08
-26.71
-25.59
-22.89
-19.05
-14.63
-10.12
-5.79
-1.75
2.02
5.46
8.34
10.46
11.65
11.86
11.19
9.78
7.83
5.47
2.86
0.1
-2.69
-5.46
-8.16
-10.79
-13.34
-15.78
-18.07
-20.11
-21.74
-22.77
-23.01
-22.4
-21.07
-19.36
-17.64
-16.12
-14.7
-12.98
-10.53
-7.19
-3.24
0.7
3.94
6.14
7.44
8.48
9.91
12.08
14.66
16.82
17.58
16.39
13.47
9.78
6.59
4.99
5.37
7.21
9.4
10.67
10.13
7.46
3.01
-2.45
-7.92
-12.51
-15.72
-17.55
-18.57
-19.72
-22.08
-26.56
-33.5
-42.46
-52.24
-61.1
-67.45
-70.4
-70.17
-67.91
-65
-62.14
-59.06
-54.67
-47.89
-38.54
-27.68
-17.21
-8.87
-3.48
-0.67
0.63
1.52
2.59
3.95
5.51
7.42
10.13
14.07
19.3
25.23
30.65
34.15
34.69
32.14
27.47
22.45
18.9
17.86
19.04
20.91
21.37
18.69
12.35
3.29
-6.53
-14.98
-20.54
-22.69
-21.89
-19.11
-15.35
-11.28
-7.14
-2.94
1.36
5.73
9.95
13.84
17.39
20.71
23.79
26.38
27.9
27.65
25.23
20.9
15.61
10.71
7.31
5.81
5.78
6.31
6.46
5.74
4.26
2.46
0.84
-0.46
-1.67
-3.28
-5.66
-8.83
-12.36
-15.57
-17.78
-18.72
-18.66
-18.19
-17.95
-18.26
-18.98
-19.61
-19.7
-19.07
-17.9
-16.65
-15.88
-16.02
-17.35
-19.85
-23.1
-26.41
-28.9
-29.79
-28.8
-26.3
-23.34
-21.25
-21.28
-24.08
-29.49
-36.5
-43.46
-48.43
-49.71
-46.47
-39.01
-28.87
-18.41
-10.17
-6.11
-6.97
-12.16
-19.7
-26.98
-31.48
-31.48
-26.6
-17.83
-7.1
3.5
12.26
18.31
21.51
22.34
21.62
20.41
19.95
21.34
25.09
30.62
36.31
39.97
39.87
35.52
27.96
19.23
11.34
5.46
1.59
-1.08
-3.37
-5.63
-7.61
-8.8
-8.93
-8.15
-6.91
-5.68
-4.64
-3.56
-2.03
0.36
3.74
8.02
12.94
18.21
23.59
28.93
34.08
38.94
43.36
47.26
50.6
53.48
56.05
58.4
60.63
62.74
64.8
66.9
69.09
71.12
72.21
71.17
66.8
58.45
46.43
32.07
17.12
3.02
-9.72
-21.55
-33.37
-45.72
-58.38
-70.38
-80.45
-87.24
-89.66
-86.77
-77.9
-63.06
-43.25
-20.66
1.58
20.17
32.66
38.35
38.83
37.77
39.67
48.15
64.56
87.4
113.08
137.38
156.97
169.94
175.42
172.7
160.73
138.55
106.29
66.08
21.9
-21.61
-60.81
-94.05
-121.77
-145.17
-164.92
-180.35
-189.82
-192.1
-187.99
-180.85
-175.78
-177.38
-187.35
-203.42
-220.26
-231.99
-235.03
-229.37
-217.56
-202.39
-184.85
-163.92
-138.13
-107.65
-75.21
-45.18
-21.34
-4.92
5.92
14.7
24.6
36.93
50.79
64.11
74.92
82.28
86.45
88.38
89.18
89.72
90.35
90.87
90.64
88.95
85.38
80.11
73.85
67.54
61.87
56.95
52.43
47.87
43.03
38.09
33.55
29.94
27.6
26.5
26.33
26.66
27.19
27.81
28.61
29.78
31.33
33.1
34.8
36.26
37.66
39.53
42.47
46.58
51.05
54.02
53.17
46.59
33.54
14.9
-7.27
-30.3
-51.75
-69.9
-83.8
-93.02
-97.43
-97.1
-92.24
-83.44
-71.54
-57.56
-42.53
-27.23
-12.22
2.16
15.59
27.67
37.77
45.16
49.14
49.24
45.55
38.73
29.95
20.59
11.85
4.46
-1.37
-5.82
-9.19
-11.69
-13.39
-14.27
-14.39
-13.89
-13.03
-12.02
