-1.53
0.31
2.92
6.26
9.96
13.48
16.36
18.32
19.36
19.56
19.01
17.76
15.87
13.51
10.99
8.72
7.04
6.12
5.91
6.21
6.78
7.42
8.01
8.43
8.58
8.29
7.47
6.11
4.38
2.53
0.83
-0.59
-1.72
-2.66
-3.53
-4.36
-5.07
-5.48
-5.43
-4.82
-3.65
-2.06
-0.25
1.6
3.38
5.11
6.83
8.55
10.12
11.28
11.76
11.47
10.58
9.5
8.67
8.4
8.75
9.52
10.4
11.11
11.54
11.66
11.52
11.15
10.57
9.76
8.75
7.61
6.45
5.38
4.48
3.73
3.06
2.44
1.92
1.67
1.94
2.99
4.92
7.66
10.96
14.43
17.64
20.14
21.54
21.54
20.03
17.13
13.21
8.85
4.71
1.31
-1.03
-2.27
-2.6
-2.26
-1.53
-0.67
0.08
0.48
0.33
-0.47
-1.81
-3.43
-4.99
-6.2
-7.02
-7.63
-8.41
-9.73
-11.75
-14.33
-16.96
-18.95
-19.63
-18.63
-15.99
-12.14
-7.76
-3.52
0.08
2.84
4.76
5.98
6.68
6.92
6.66
5.83
4.41
2.51
0.4
-1.52
-2.9
-3.57
-3.68
-3.64
-3.9
-4.83
-6.55
-8.87
-11.33
-13.13
-13.32
-10.99
-5.63
2.59
12.65
22.87
31.34
36.44
37.45
34.63
29.12
22.45
16.02
10.77
7.03
4.64
3.19
2.28
1.67
1.22
0.96
0.84
0.81
0.81
0.8
0.82
0.93
1.16
1.48
1.81
2.03
2.01
1.7
1.11
0.4
-0.21
-0.54
-0.54
-0.37
-0.31
-0.67
-1.57
-2.95
-4.54
-6.06
-7.38
-8.49
-9.52
-10.63
-11.85
-13.1
-14.2
-14.95
-15.14
-14.67
-13.51
-11.73
-9.51
-7.11
-4.81
-2.8
-1.19
0.11
1.22
2.31
3.41
4.47
5.37
5.98
6.24
6.16
5.82
5.31
4.69
3.98
3.21
2.41
1.64
0.97
0.4
-0.09
-0.56
-1.04
-1.54
-1.99
-2.33
-2.52
-2.63
-2.76
-3.05
-3.6
-4.48
-5.72
-7.26
-9.02
-10.8
-12.33
-13.32
-13.47
-12.64
-10.85
-8.29
-5.28
-2.19
0.63
2.9
4.5
5.43
5.8
5.8
5.61
5.33
5.01
4.66
4.33
4.06
3.91
3.92
4.06
4.31
4.6
4.89
5.1
5.18
5.08
4.74
4.18
3.41
2.48
1.45
0.35
-0.82
-2.09
-3.51
-5.12
-6.89
-8.69
-10.28
-11.37
-11.71
-11.17
-9.77
-7.7
-5.17
-2.43
0.28
2.7
4.57
5.68
5.99
5.64
4.91
4.13
3.58
3.4
3.61
4.07
4.63
5.08
5.27
5.1
4.54
3.67
2.6
1.49
0.46
-0.39
-1.02
-1.44
-1.71
-1.92
-2.24
-2.78
-3.52
-4.29
-4.82
-4.86
-4.3
-3.23
-1.85
-0.42
0.88
1.94
2.75
3.29
3.53
3.48
3.16
2.66
2.09
1.59
1.24
1.09
1.13
1.32
1.59
1.8
1.84
1.65
1.21
0.62
-0.01
-0.52
-0.85
-0.99
-0.98
-0.9
-0.82
-0.78
-0.88
-1.2
-1.85
-2.9
-4.36
-6.18
-8.17
-10.05
-11.56
-12.45
-12.63
-12.15
-11.15
-9.85
-8.4
-6.92
-5.48
-4.13
-2.94
-1.96
-1.22
-0.67
-0.22
0.21
0.62
0.97
1.18
1.27
1.31
1.43
1.72
2.15
2.64
3.07
3.36
3.51
3.5
3.33
2.97
2.4
1.68
0.85
-0.02
-0.91
-1.84
-2.85
-3.93
-4.97
-5.91
-6.65
-7.23
-7.68
-8.06
-8.31
-8.37
-8.13
-7.55
-6.65
-5.49
-4.18
-2.77
-1.34
0.07
1.4
2.55
3.42
3.94
4.09
3.92
3.56
3.13
2.79
2.64
2.75
3.08
3.59
4.16
4.7
5.11
5.29
5.21
4.85
4.26
3.47
2.54
1.51
0.42
-0.71
-1.86
-2.99
-4.06
-5.08
-6.04
-6.98
-7.89
-8.73
-9.36
-9.61
-9.31
-8.4
-6.95
-5.15
-3.27
-1.54
-0.07
1.12
2.12
3.03
3.89
4.69
5.32
5.65
5.57
5.05
4.15
3.06
2
1.23
0.91
1.08
1.6
2.24
2.72
2.84
2.52
1.84
0.95
0.03
-0.81
-1.58
-2.33
-3.14
-3.98
-4.83
-5.67
-6.56
-7.58
-8.84
-10.32
-11.92
-13.39
-14.44
-14.75
-14.09
-12.39
-9.69
-6.23
-2.35
1.5
4.88
7.46
9.08
9.82
9.88
9.49
8.89
8.26
7.73
7.41
7.36
7.58
8
8.47
8.79
8.82
8.55
8.07
7.55
7.12
6.77
6.41
5.88
5.06
3.91
2.55
1.12
-0.25
-1.51
-2.69
-3.82
-4.95
-6.06
-7.16
-8.27
-9.43
-10.64
-11.82
-12.77
-13.18
-12.77
-11.45
-9.39
-6.98
-4.73
-3.03
-2.06
-1.75
-1.84
-2.06
-2.18
-2.1
-1.81
-1.29
-0.5
0.58
1.92
3.4
4.82
5.96
6.68
6.91
6.7
6.13
5.28
4.17
2.81
1.26
-0.38
-1.93
-3.18
-4.01
-4.37
-4.36
-4.15
-3.93
-3.88
-4.13
-4.62
-5.21
-5.58
-5.42
-4.51
-2.85
-0.74
1.35
2.95
3.79
3.88
3.43
2.75
2.02
1.31
0.58
-0.21
-1.01
-1.71
-2.21
-2.46
-2.46
-2.29
-2.04
-1.81
-1.68
-1.71
-1.97
-2.39
-2.76
-2.75
-2.06
-0.61
1.4
3.5
5.15
5.97
5.79
4.67
2.77
0.26
-2.66
-5.71
-8.52
-10.62
-11.63
-11.45
-10.25
-8.48
-6.61
-5.01
-3.84
-3.09
-2.65
-2.38
-2.22
-2.16
-2.18
-2.28
-2.43
-2.55
-2.62
-2.61
-2.55
-2.44
-2.28
-2.04
-1.7
-1.24
-0.67
-0.09
0.4
0.67
0.62
0.23
-0.44
-1.32
-2.34
-3.48
-4.78
-6.22
-7.64
-8.71
-9.05
-8.32
-6.52
-3.86
-0.82
2.1
4.57
6.42
7.68
8.39
8.61
8.33
7.55
6.39
5.04
3.78
2.84
2.4
2.43
2.78
3.21
3.5
3.52
3.23
2.7
2.02
1.24
0.33
-0.76
-2.1
-3.68
-5.45
-7.29
-9.06
-10.68
-12.07
-13.17
-13.85
-13.94
-13.32
-11.96
-10.01
-7.75
-5.48
-3.41
-1.61
-0.05
1.33
2.54
3.52
4.25
4.81
5.38
6.13
7.16
8.37
9.54
10.39
10.68
10.3
9.24
7.54
5.34
2.87
0.38
-1.78
-3.42
-4.51
-5.29
-6.17
-7.55
-9.6
-12.18
-14.85
-16.99
-18.07
-17.76
-16.02
-13.07
-9.32
-5.27
-1.43
1.75
3.97
5.12
5.32
4.88
4.22
3.73
3.67
4.15
5.12
6.43
7.9
9.27
10.33
10.85
10.76
10.12
9.11
8
7
6.2
5.51
4.79
3.91
2.79
1.44
-0.05
-1.56
-2.94
-4.03
-4.69
-4.83
-4.48
-3.69
-2.53
-1.04
0.8
2.96
5.34
7.71
9.78
11.26
11.99
11.99
11.41
10.51
9.53
8.65
7.92
7.36
6.95
6.67
6.47
6.32
6.11
5.74
5.14
4.31
3.33
2.32
1.34
0.32
-0.84
-2.3
-4.09
-6.09
-8.04
-9.61
-10.48
-10.43
-9.41
-7.53
-5.05
-2.29
0.44
2.94
5.16
7.17
9.09
10.97
12.71
13.94
14.18
12.96
10.1
5.88
0.98
-3.65
-7.1
-8.79
-8.67
-7.13
-4.8
-2.29
-0.04
1.71
2.86
3.36
3.17
2.26
0.67
-1.45
-3.84
-6.14
-8.01
-9.19
-9.55
-9.08
-7.89
-6.13
-3.97
-1.58
0.88
3.21
5.24
6.79
7.78
8.24
8.25
7.98
7.56
7.15
6.79
6.54
6.41
6.42
6.55
6.78
7.08
7.37
7.59
7.66
7.54
7.17
6.55
5.71
4.68
3.51
2.21
0.77
-0.81
-2.49
-4.2
-5.8
-7.17
-8.21
-8.88
-9.18
-9.11
-8.6
-7.6
-6.09
-4.19
-2.14
-0.31
0.94
1.42
1.15
0.47
-0.18
-0.34
0.32
1.85
4.02
6.4
8.48
9.83
10.28
9.84
8.74
7.32
5.85
4.56
3.56
2.85
2.4
2.09
1.8
1.38
0.74
-0.2
-1.39
-2.74
-4.15
-5.43
-6.37
-6.69
-6.09
-4.41
-1.67
1.82
5.56
8.98
11.64
13.28
13.94
13.75
12.95
11.72
10.23
8.67
7.18
5.99
5.29
5.15
5.55
6.25
6.96
7.4
7.39
6.96
6.26
5.5
4.79
4.15
3.42
2.48
1.2
-0.42
-2.37
-4.52
-6.75
-8.89
-10.77
-12.19
-13.04
-13.24
-12.78
-11.7
-10.08
-8.02
-5.69
-3.32
-1.19
0.46
1.46
1.82
1.69
1.31
0.91
0.63
0.51
0.55
0.72
1.04
1.53
2.15
2.82
3.36
3.6
3.45
2.94
2.22
1.45
0.75
0.1
-0.64
-1.61
-2.95
-4.63
-6.47
-8.2
-9.42
-9.82
-9.24
-7.78
-5.77
-3.67
-1.87
-0.54
0.39
1.14
1.92
2.75
3.51
4
4.09
3.81
3.31
2.77
2.33
2.08
2.04
2.23
2.64
3.19
3.72
4.02
3.95
3.47
2.69
1.8
0.98
0.3
-0.25
-0.74
-1.26
-1.89
-2.68
-3.68
-4.89
-6.25
-7.61
-8.81
-9.61
-9.84
-9.43
-8.4
-6.89
-5.12
-3.32
-1.67
-0.31
0.71
1.37
1.7
1.73
1.56
1.28
1.07
1.04
1.23
1.58
1.96
2.28
2.57
2.97
3.65
4.71
6.09
7.59
8.94
9.92
10.46
10.6
10.45
10.04
9.3
8.12
6.45
4.34
1.92
-0.57
-2.95
-5.06
-6.78
-8.03
-8.7
-8.75
-8.19
-7.17
-5.89
-4.59
-3.46
-2.59
-1.97
-1.54
-1.2
-0.83
-0.36
0.21
0.85
1.48
2.03
2.51
2.94
3.35
3.72
3.95
3.91
3.55
2.92
2.11
1.24
0.36
-0.53
-1.45
-2.32
-3.03
-3.44
-3.54
-3.49
-3.56
-3.99
-4.91
-6.18
-7.55
-8.71
-9.41
-9.53
-9.11
-8.27
-7.19
-6.01
-4.83
-3.7
-2.63
-1.63
-0.73
0.02
0.56
0.88
1.01
0.99
0.89
0.7
0.45
0.17
-0.04
-0.06
0.18
0.71
1.43
2.18
2.81
3.23
3.42
3.37
3.11
2.62
1.92
1.08
0.22
-0.54
-1.13
-1.59
-2.11
-2.87
-4.01
-5.55
-7.3
-8.94
-10.1
-10.47
-9.9
-8.44
-6.34
-4
-1.79
0.06
1.43
2.35
2.91
3.15
3.09
2.74
2.14
1.41
0.74
0.27
0.09
0.14
0.3
0.39
0.32
0.05
-0.35
-0.79
-1.2
-1.51
-1.69
-1.75
-1.72
-1.65
-1.63
-1.74
-2.01
-2.46
-2.97
-3.46
-3.83
-4
-3.9
-3.49
-2.71
-1.57
-0.18
1.25
2.44
3.16
3.3
2.93
2.32
1.72
1.33
1.19
1.23
1.33
1.48
1.74
2.25
3.06
4.1
5.16
5.99
6.44
6.45
6.12
5.58
4.92
4.2
3.49
2.81
2.22
1.75
1.37
1
0.57
0.02
-0.67
-1.49
-2.42
-3.42
-4.37
-5.11
-5.47
-5.37
-4.89
-4.19
-3.46
-2.79
-2.12
-1.29
-0.2
1.09
2.39
3.44
4.03
4.16
4
3.78
3.67
3.68
3.66
3.4
2.78
1.81
0.61
-0.67
-1.92
-3.12
-4.22
-5.11
-5.63
-5.66
-5.2
-4.43
-3.66
-3.16
-3.06
-3.33
-3.86
-4.57
-5.54
-6.89
-8.75
-11.03
-13.43
-15.5
-16.76
-16.96
-16.1
-14.44
-12.38
-10.26
-8.26
-6.45
-4.78
-3.21
-1.83
-0.77
-0.15
0.05
0.01
0.09
0.62
1.79
3.56
5.61
7.45
8.62
8.78
7.91
6.22
4.12
2.03
0.18
-1.38
-2.82
-4.4
-6.28
-8.5
-10.96
-13.44
-15.77
-17.86
-19.68
-21.26
-22.57
-23.55
-24.13
-24.3
-24.09
-23.53
-22.55
-20.96
-18.53
-15.19
-11.22
-7.25
-4.23
-3.01
-4.15
-7.7
-13.25
-20.16
-27.84
-35.87
-43.9
-51.35
-57.21
-60.16
-59.03
-53.37
-43.87
-32.29
-20.82
-11.25
-4.38
0.08
2.99
5.16
6.94
8.28
9.11
9.74
10.93
13.55
18.11
24.45
31.81
39.21
45.82
51.25
55.51
58.75
61.03
62.36
62.8
62.51
61.88
61.29
60.96
60.85
60.64
59.95
58.46
56.03
52.62
48.3
43.16
37.41
31.44
25.77
20.77
16.58
12.88
9.01
4.3
-1.7
-9.04
-17.35
-25.97
-34.07
-40.71
-44.97
-46.16
-44.02
-38.97
-32.09
-24.76
-18.23
-13.23
-9.83
-7.6
-6.03
-4.94
-4.52
-5.2
-7.26
-10.66
-14.95
-19.48
-23.67
-27.23
-30.21
-32.94
-35.74
-38.74
-41.83
-44.76
-47.22
-49.08
-50.27
-50.72
-50.29
-48.67
-45.59
-41
-35.23
-28.93
-22.85
-17.52
-13.05
-9.15
-5.29
-1.08
3.59
8.41
12.89
16.57
19.22
20.94
22.06
22.95
23.92
25.16
26.79
28.98
31.93
35.84
40.68
46.08
51.25
55.22
57.16
56.81
54.69
51.98
50.18
50.46
53.26
58.07
63.71
68.81
72.28
73.35
71.46
66.11
56.8
43.36
26.33
7.24
-11.63
-27.82
-39.46
-45.75
-47.02
-44.33
-38.84
-31.45
-22.66
-12.81
-2.38
7.89
16.97
23.86
27.91
29.03
27.8
25.39
23.24
22.67
24.59
29.22
36
43.8
51.22
57.11
60.93
62.79
63.38
63.61
64.32
66.1
69.24
73.55
78.23
81.83
82.44
78.29
68.49
53.46
34.91
15.16
-3.75
-20.68
-35.53
-48.74
-60.7
-71.37
-80.47
-87.8
-93.48
-97.96
-101.65
-104.6
-106.4
-106.43
-104.19
-99.66
-93.34
-86.15
-79.2
-73.49
-69.79
-68.33
-68.85
-70.48
-71.95
-71.99
-69.71
-64.91
-58.04
-50.03
-41.95
-34.64
-28.57
-23.83
-20.12
-16.93
-13.59
-9.42
-3.88
3.24
11.76
21.14
30.68
39.72
47.82
54.74
60.4
64.7
67.48
68.54
67.68
64.82
60.12
53.94
46.85
39.54
32.61
26.52
21.43
17.27
13.83
10.93
8.46
6.46
4.97
4
3.39
2.92
2.38
1.6
0.52
-0.91
-2.79
-5.3
-8.6
-12.72
-17.37
-21.94
-25.65
-27.8
-28.13
-26.88
-24.69
-22.36
-20.42
-19.06
-18.12
-17.24
-16.09
-14.47
-12.32
-9.7
-6.83
-4.1
-2.05
-1.24
-1.98
-4.23
-7.48
-10.96
-13.91
-15.83
-16.61
-16.56
-16.18
-15.97
-16.26
-17.13
-18.43
-19.94
-21.42
-22.67
-23.69
-24.54
-25.26
-25.81
-25.98
-25.44
-23.89
-21.24
-17.56
-13.18
-8.49
-3.75
0.9
5.38
9.6
13.26
15.95
17.31
17.2
15.91
14.08
12.49
11.79
12.26
13.75
15.79
17.85
19.54
20.69
21.3
21.42
21.05
20.07
18.3
15.63
12.15
8.12
3.92
-0.12
-3.82
-7.16
-10.16
-12.82
-15.01
-16.44
-16.89
-16.22
-14.52
-12.07
-9.2
-6.15
-3.06
0.01
2.94
5.46
7.13
7.52
6.34
3.72
0.13
-3.71
-7.13
-9.69
-11.35
-12.39
-13.26
-14.34
-15.79
-17.55
-19.35
-20.96
-22.18
-22.95
-23.18
-22.81
-21.85
-20.47
-19.07
-18.14
-18.1
-18.91
-20.09
-20.76
-20.1
-17.66
-13.65
-8.82
-4.08
-0.14
2.72
4.62
5.92
7.05
8.4
10.35
13.19
17.16
22.24
28.24
34.67
40.97
46.65
51.39
55.08
57.7
59.28
59.79
59.21
57.51
54.72
50.9
46.08
40.27
33.51
25.94
17.92
10.04
3.01
-2.5
-6.02
-7.53
-7.4
-6.2
-4.54
-2.84
-1.28
0.11
1.34
2.35
2.98
3.12
2.77
2.05
1.19
0.43
-0.04
-0.11
0.2
0.75
1.35
1.77
1.82
1.41
0.59
-0.51
-1.78
-3.11
-4.48
-5.89
-7.37
-8.95
-10.75
-12.86
-15.28
-17.84
-20.1
-21.49
-21.47
-19.81
-16.67
-12.54
-8
-3.53
0.58
4.19
7.18
9.44
10.85
11.42
11.3
10.78
10.13
9.5
8.91
8.26
7.53
6.77
6.09
5.56
5.16
4.84
4.48
4.05
3.54
2.95
2.28
1.46
0.45
-0.73
-2.02
-3.3
-4.48
-5.56
-6.55
-7.45
-8.15
-8.43
-8.05
-6.89
-5.02
-2.66
-0.15
2.23
4.29
5.94
7.18
8.02
8.43
8.35
7.86
7.05
6.15
5.4
4.95
4.87
5.07
5.37
5.55
5.49
5.16
4.6
3.92
3.16
2.35
1.5
0.63
-0.24
-1.1
-1.97
-2.95
-4.17
-5.7
-7.55
-9.56
-11.45
-12.8
-13.25
-12.56
-10.72
-7.95
-4.67
-1.29
1.86
4.56
6.78
8.53
9.79
10.51
10.69
10.42
9.87
9.32
8.96
8.91
9.15
9.55
10
10.4
10.66
10.75
10.59
10.14
9.35
8.19
6.66
4.8
2.73
0.58
-1.51
-3.45
-5.22
-6.91
-8.55
-10.16
-11.57
-12.55
-12.89
-12.48
-11.37
-9.73
-7.75
-5.57
-3.28
-0.98
1.2
3.03
4.32
4.91
4.83
4.23
3.38
2.51
1.8
1.33
1.13
1.19
1.46
1.83
2.17
2.34
2.25
1.88
1.31
0.66
0.02
-0.55
-1.09
-1.67
-2.36
-3.21
-4.23
-5.4
-6.65
-7.83
-8.75
-9.18
-8.97
-8.11
-6.71
-5.01
-3.25
-1.61
-0.16
1.1
2.2
3.1
3.71
3.94
3.79
3.4
3.01
2.86
3.06
3.59
4.23
4.75
4.96
4.86
4.54
4.15
3.77
3.39
2.97
2.43
1.79
1.07
0.35
-0.38
-1.19
-2.13
-3.29
-4.67
-6.18
-7.66
-8.91
-9.7
-9.82
-9.18
-7.79
-5.83
-3.56
-1.29
0.71
2.23
3.2
3.63
3.56
3.14
2.52
1.88
1.39
1.15
1.17
1.43
1.86
2.4
2.98
3.52
3.93
4.12
4.02
3.64
3.02
2.22
1.29
0.27
-0.85
-2.03
-3.29
-4.6
-5.94
-7.33
-8.72
-10.03
-11.1
-11.75
-11.78
-11.08
-9.64
-7.55
-5.03
-2.36
0.17
2.32
3.91
4.92
5.4
5.53
5.46
5.31
5.15
4.97
4.76
4.55
4.36
4.26
4.28
4.44
4.69
4.94
5.08
4.99
4.66
4.08
3.35
2.59
1.87
1.24
0.66
0.02
-0.78
-1.85
-3.25
-4.97
-6.93
-8.92
-10.67
-11.9
-12.38
-12.03
-10.9
-9.13
-6.97
-4.65
-2.42
-0.49
1.01
2.03
2.59
2.79
2.7
2.41
1.99
1.53
1.2
1.18
1.59
2.43
3.55
4.65
5.5
5.94
5.98
5.72
5.26
4.66
3.93
3.03
1.95
0.72
-0.62
-2.01
-3.42
-4.83
-6.26
-7.68
-9.01
-10.12
-10.8
-10.9
-10.31
-9.08
-7.37
-5.45
-3.58
-1.94
-0.62
0.41
1.25
1.93
2.47
2.82
2.95
2.87
2.64
2.42
2.3
2.33
2.49
2.67
2.8
2.86
2.91
2.99
3.09
3.13
2.94
2.43
1.61
0.61
-0.39
-1.24
-1.93
-2.55
-3.27
-4.22
-5.46
-6.94
-8.53
-10.01
-11.16
-11.74
-11.57
-10.57
-8.85
-6.61
-4.18
-1.89
0
1.37
2.21
2.61
2.66
2.45
2.07
1.58
1.04
0.56
0.22
0.11
0.26
0.68
1.32
2.11
2.93
3.62
4
3.94
3.39
2.4
1.1
-0.36
-1.85
-3.31
-4.68
-5.93
-7.06
-8.04
-8.9
-9.68
-10.43
-11.1
-11.55
-11.56
-10.95
-9.63
-7.69
-5.35
-2.91
-0.63
1.36
3
4.29
5.25
5.85
6.03
5.78
5.13
4.22
3.25
2.4
1.75
1.3
0.93
0.54
0.07
-0.43
-0.87
-1.18
-1.43
-1.78
-2.43
-3.48
-4.83
-6.19
-7.25
-7.85
-8.04
-8.11
-8.41
-9.19
-10.44
-11.89
-13.11
-13.7
-13.45
-12.42
-10.92
-9.31
-7.96
-7.04
-6.58
-6.47
-6.59
-6.87
-7.29
-7.91
-8.83
-10.21
-12.18
-14.79
-17.93
-21.28
-24.34
-26.56
-27.51
-27.02
-25.3
-22.75
-19.87
-17.05
-14.49
-12.25
-10.33
-8.77
-7.58
-6.77
-6.24
-5.85
-5.52
-5.29
-5.32
-5.74
-6.53
-7.46
-8.12
-8.13
-7.32
-5.81
-4.03
-2.54
-1.8
-2.1
-3.42
-5.48
-7.73
-9.42
-9.84
-8.37
-4.83
0.5
6.89
13.32
18.87
22.95
25.48
26.81
27.53
28.19
29.05
30.05
30.86
31.13
30.59
29.16
26.89
23.9
20.34
16.43
12.5
9.05
6.66
5.79
6.61
8.9
12.16
15.7
18.97
21.57
23.38
24.43
24.82
24.65
23.95
22.66
20.64
17.72
13.84
9.17
4.11
-0.84
-5.19
-8.71
-11.44
-13.68
-15.76
-17.95
-20.43
-23.28
-26.56
-30.31
-34.48
-39
-43.68
-48.27
-52.54
-56.25
-59.14
-60.99
-61.61
-60.86
-58.69
-55.1
-50.15
-43.88
-36.33
-27.58
-17.82
-7.4
3.17
13.3
22.41
30.12
36.37
41.42
45.76
49.86
53.98
58.06
61.83
65.07
67.74
70.08
72.46
75.1
77.92
80.54
82.41
83.09
82.23
79.66
75.28
69.03
60.92
51.24
40.52
29.57
19.25
10.27
3.08
-2.18
-5.57
-7.37
-7.93
-7.76
-7.38
-7.21
-7.54
-8.34
-9.43
-10.49
-11.31
-11.71
-11.64
-11.06
-9.93
-8.24
-6.11
-3.82
-1.75
-0.32
0.21
-0.17
-1.25
-2.7
-4.29
-5.94
-7.71
-9.71
-11.93
-14.21
-16.28
-17.92
-19.06
-19.72
-19.9
-19.53
-18.35
-16.09
-12.61
-8.08
-2.94
2.29
7.24
11.82
16.13
20.19
23.64
25.77
25.77
23.28
18.7
13.22
8.42
5.62
5.45
7.71
11.56
15.94
19.91
22.8
24.15
23.7
21.38
17.42
12.24
6.48
0.79
-4.37
-8.76
-12.42
-15.56
-18.51
-21.63
-25.17
-29.23
-33.59
-37.79
-41.17
-43.15
-43.33
-41.73
-38.69
-34.75
-30.48
-26.22
-22.17
-18.35
-14.79
-11.56
-8.78
-6.59
-5.01
-3.94
-3.12
-2.25
-1.09
0.41
2.17
3.94
5.47
6.54
7.05
7.06
6.72
6.22
5.76
5.38
5.03
4.54
3.74
2.53
0.98
-0.68
-2.2
-3.43
-4.44
-5.43
-6.65
-8.2
-9.98
-11.69
-12.99
-13.58
-13.34
-12.24
-10.35
-7.69
-4.28
-0.14
4.62
9.73
14.8
19.3
22.75
24.77
25.16
23.95
21.42
18.07
14.52
11.43
9.32
8.4
8.55
9.36
10.3
10.89
10.82
9.94
8.24
5.81
2.8
-0.58
-4.04
-7.34
-10.33
-12.99
-15.41
-17.62
-19.53
-20.93
-21.48
-20.97
-19.28
-16.55
-13.03
-9.02
-4.73
-0.32
4.13
8.56
12.83
16.74
20.07
22.65
24.43
25.51
26.07
26.31
26.3
25.95
25.13
23.72
21.7
19.2
16.39
13.43
10.45
7.54
4.76
2.2
-0.14
-2.4
-4.86
-7.78
-11.28
-15.05
-18.52
-20.93
-21.78
-21
-18.98
-16.35
-13.74
-11.49
-9.63
-7.99
-6.41
-4.83
-3.36
-2.19
-1.45
-1.14
-1.13
-1.14
-0.9
-0.21
0.98
2.61
4.52
6.58
8.68
10.7
12.51
13.92
14.68
14.64
13.75
12.11
9.91
7.38
4.7
2.03
-0.56
-3
-5.27
-7.4
-9.5
-11.62
-13.75
-15.64
-16.85
-16.94
-15.66
-13.13
-9.87
-6.58
-3.82
-1.86
-0.64
0.06
0.39
0.31
-0.32
-1.58
-3.34
-5.23
-6.77
-7.63
-7.7
-7.07
-5.95
-4.53
-2.91
-1.2
0.49
1.95
2.98
3.45
3.38
2.95
2.44
2.11
2.16
2.61
3.27
3.86
4.05
3.54
2.23
0.18
-2.37
-5.11
-7.67
-9.72
-11.01
-11.38
-10.81
-9.44
-7.56
-5.52
-3.64
-2.11
-0.96
-0.16
0.38
0.68
0.69
0.4
-0.11
-0.67
-1.03
-1.01
-0.64
-0.08
0.39
0.59
0.51
0.31
0.26
0.49
0.97
1.43
1.58
1.19
0.22
-1.17
-2.76
-4.33
-5.82
-7.21
-8.53
-9.81
-11.03
-12.16
-13.23
-14.3
-15.38
-16.39
-17.13
-17.35
-16.9
-15.84
-14.4
-12.96
-11.85
-11.22
-11.03
-11.05
-11.09
-11.05
-10.9
-10.61
-10.05
-9.01
-7.25
-4.72
-1.66
1.48
4.21
6.22
7.45
8.05
8.23
8.35
8.95
10.82
14.85
21.58
30.8
41.36
51.4
59.04
63.06
63.25
60.34
55.43
49.42
42.76
35.47
27.53
19.12
10.69
2.74
-4.32
-10.38
-15.52
-19.91
-23.64
-26.63
-28.8
-30.15
-30.91
-31.42
-32.06
-33.06
-34.4
-35.89
-37.31
-38.56
-39.69
-40.95
-42.54
-44.55
-46.85
-49.16
-51.22
-52.87
-54.07
-54.82
-54.96
-54.22
-52.25
-48.88
-44.2
-38.66
-32.8
-27.16
-22.08
-17.67
-13.92
-10.74
-7.96
-5.3
-2.36
1.26
5.72
10.81
15.93
20.31
23.33
24.78
25.06
25.03
25.79
28.18
32.56
38.6
45.37
51.7
56.62
59.72
61.18
61.66
61.87
62.28
62.99
63.72
64.1
63.85
63.02
61.84
60.67
59.71
58.86
57.77
55.91
52.83
48.28
42.3
35.11
27.07
18.56
9.98
1.8
-5.47
-11.36
-15.65
-18.46
-20.23
-21.5
-22.71
-24.03
-25.37
-26.5
-27.23
-27.51
-27.42
-27.05
-26.46
-25.61
-24.49
-23.13
-21.67
-20.27
-19.06
-17.99
-16.91
-15.66
-14.14
-12.48
-10.9
-9.71
-9.06
-8.95
-9.21
-9.63
-10.08
-10.58
-11.27
-12.31
-13.75
-15.51
-17.32
-18.85
-19.76
-19.83
-19.02
-17.44
-15.28
-12.75
-10.11
-7.59
-5.41
-3.73
-2.65
-2.14
-2.06
-2.26
-2.51
-2.69
-2.73
-2.61
-2.35
-1.94
-1.42
-0.83
-0.25
0.2
0.41
0.3
-0.12
-0.75
-1.41
-1.92
-2.11
-1.93
-1.46
-0.86
-0.34
-0.11
-0.31
-0.97
-2.05
-3.33
-4.56
-5.46
-5.82
-5.53
-4.63
-3.28
-1.72
-0.19
1.13
2.12
2.75
3.01
2.97
2.71
2.31
1.87
1.43
1
0.53
0.01
-0.58
-1.23
-1.89
-2.52
-3.13
-3.75
-4.44
-5.29
-6.31
-7.5
-8.85
-10.36
-12.06
-13.98
-16.12
-18.4
-20.7
-22.88
-24.83
-26.57
-28.19
-29.81
-31.44
-32.88
-33.85
-34.03
-33.31
-31.76
-29.73
-27.62
-25.86
-24.72
-24.35
-24.81
-26.1
-28.09
-30.39
-32.34
-33.16
-32.25
-29.37
-24.85
-19.35
-13.5
-7.62
-1.66
4.64
11.43
18.51
25.41
31.52
36.45
40.11
42.57
43.9
44.05
42.92
40.64
37.71
34.96
33.26
33.13
34.54
36.91
39.41
41.31
42.25
42.25
41.58
40.55
39.35
38.11
36.94
36.03
35.61
35.78
36.55
37.74
39.12
40.5
41.83
43.15
44.61
46.29
48.16
49.98
51.32
51.63
50.4
47.34
42.5
36.31
29.45
22.59
16.12
9.97
3.77
-2.98
-10.55
-18.86
-27.44
-35.54
-42.24
-46.44
-47.04
-43.11
-34.3
-21.18
-5.33
11.09
26.06
38.34
47.8
55.1
61.14
66.33
70.4
72.62
72.19
68.61
61.77
51.85
39.25
24.54
8.55
-7.61
-22.7
-35.62
-45.71
-52.96
-57.87
-61.27
-63.98
-66.64
-69.59
-72.91
-76.37
-79.5
-81.7
-82.39
-81.26
-78.46
-74.64
-70.75
-67.68
-65.99
-65.76
-66.5
-67.41
-67.57
-66.1
-62.42
-56.4
-48.45
-39.46
-30.62
-22.94
-17.02
-12.88
-10.05
-7.9
-5.91
-3.76
-1.42
1
3.32
5.37
6.97
8.01
8.41
8.15
7.26
5.72
3.52
0.69
-2.58
-5.92
-8.89
-11.14
-12.63
-13.61
-14.42
-15.28
-16.02
-16.28
-15.57
-13.63
-10.5
-6.48
-1.83
3.24
8.69
14.46
20.31
25.89
30.82
34.84
37.95
40.38
42.36
44.04
45.37
46.1
45.88
44.37
41.41
36.99
31.35
25.02
18.66
12.96
8.44
5.27
3.32
2.3
2.02
2.48
3.91
6.55
10.48
15.58
21.58
28.22
35.32
42.8
50.45
57.84
64.24
68.75
70.55
69.21
64.75
57.65
48.73
38.92
29.05
19.75
11.31
3.8
-2.97
-9.17
-14.96
-20.31
-25.12
-29.26
-32.75
-35.78
-38.67
-41.8
-45.35
-49.19
-52.89
-55.85
-57.53
-57.64
-56.27
-53.83
-50.83
-47.76
-44.98
-42.71
-40.92
-39.22
-36.85
-32.78
-26.08
-16.47
-4.55
8.19
19.99
29.4
35.79
39.39
40.92
41.05
40.16
38.36
35.79
32.78
29.86
27.52
25.92
24.79
23.58
21.71
18.9
15.23
11.12
7.1
3.67
1.15
-0.27
-0.58
0.11
1.59
3.54
5.56
7.32
8.58
9.31
9.61
9.57
9.19
8.28
6.6
4.03
0.69
-3.02
-6.55
-9.41
-11.35
-12.42
-12.93
-13.29
-13.89
-15.06
-17.01
-19.73
-22.89
-25.78
-27.37
-26.72
-23.34
-17.58
-10.61
-3.96
1.04
3.82
4.74
4.74
4.77
5.36
6.45
7.6
8.4
8.76
8.96
9.49
10.7
12.61
14.89
17
18.53
19.34
19.63
19.81
20.28
21.18
22.4
23.62
24.49
24.76
24.34
23.18
21.23
18.39
14.57
9.84
4.51
-0.97
-6.08
-10.47
-14.04
-16.9
-19.35
-21.66
-23.97
-26.22
-28.24
-29.75
-30.55
-30.49
-29.57
-27.89
-25.62
-22.97
-20.18
-17.5
-15.17
-13.36
-12.17
-11.61
-11.55
-11.8
-12.09
-12.24
-12.1
-11.63
-10.88
-9.96
-9
-8.03
-7.1
-6.17
-5.27
-4.45
-3.8
-3.36
-3.14
-3.07
-3.1
-3.25
-3.59
-4.27
-5.36
-6.8
-8.44
-9.97
-11.11
-11.62
-11.44
-10.62
-9.3
-7.67
-5.84
-3.9
-1.92
0.02
1.78
3.2
4.16
4.64
4.75
4.65
4.51
4.42
4.47
4.71
5.26
6.14
7.33
8.61
9.69
10.3
10.33
9.87
9.11
8.28
7.48
6.68
5.82
4.84
3.76
2.61
1.41
0.14
-1.18
-2.52
-3.65
-4.29
-4.18
-3.15
-1.29
1.13
3.72
6.17
8.32
10.18
11.8
13.16
14.08
14.38
13.95
12.88
11.49
10.2
9.33
9.01
9.09
9.29
9.27
8.83
7.92
6.64
5.17
3.64
2.11
0.58
-0.97
-2.56
-4.19
-5.86
-7.6
-9.47
-11.49
-13.57
-15.42
-16.66
-16.93
-16.04
-14.06
-11.33
-8.3
-5.39
-2.91
-1.06
0.11
0.6
0.48
-0.08
-0.85
-1.55
-1.95
-1.88
-1.34
-0.47
0.47
1.25
1.7
1.75
1.47
1
0.51
0.13
-0.03
0.07
0.39
0.85
1.33
1.64
1.6
1.02
-0.12
-1.68
-3.32
-4.6
-5.13
-4.72
-3.47
-1.69
0.24
1.98
3.41
4.49
5.25
5.68
5.74
5.44
4.85
4.19
3.64
3.33
3.25
3.3
3.39
3.53
3.82
4.33
5.03
5.77
6.35
6.54
6.26
5.52
4.39
2.96
1.26
-0.69
-2.88
-5.22
-7.59
-9.82
-11.68
-12.98
-13.5
-13.14
-11.93
-10.06
-7.8
-5.49
-3.36
-1.51
-0
1.14
1.89
2.23
2.16
1.82
1.32
0.84
0.48
0.28
0.23
0.31
0.46
0.66
0.89
1.16
1.42
1.62
1.65
1.43
0.91
0.13
-0.81
-1.8
-2.83
-3.93
-5.18
-6.55
-7.8
-8.57
-8.54
-7.57
-5.79
-3.45
-0.81
1.99
4.84
7.5
9.51
10.25
9.21
6.37
2.24
-2.16
-5.79
-7.97
-8.57
-8.02
-6.9
-5.59
-4.21
-2.64
-0.83
1.04
2.6
3.46
3.46
2.75
1.81
1.09
0.93
1.33
2.06
2.79
3.27
3.37
3.19
2.92
2.83
3.13
3.89
5.01
6.23
7.24
7.77
7.65
6.86
5.52
3.83
2.05
0.43
-0.83
-1.65
-2.08
-2.24
-2.27
-2.32
-2.45
-2.71
-3.13
-3.76
-4.62
-5.68
-6.87
-8.07
-9.22
-10.32
-11.41
-12.52
-13.53
-14.24
-14.36
-13.68
-12.14
-9.91
-7.28
-4.59
-2.08
0.15
2.08
3.79
5.25
6.41
7.14
7.28
6.8
5.74
4.34
2.87
1.68
0.98
0.87
1.26
1.94
2.63
3.07
3.04
2.43
1.25
-0.44
-2.5
-4.76
-7.07
-9.29
-11.32
-12.98
-14.04
-14.27
-13.48
-11.65
-8.97
-5.78
-2.43
0.78
3.72
6.37
8.72
10.68
12.11
12.86
12.89
12.31
11.35
10.31
9.42
8.84
8.55
8.49
8.57
8.69
8.81
8.88
8.84
8.6
8.06
7.12
5.79
4.16
2.41
0.72
-0.82
-2.22
-3.62
-5.17
-6.93
-8.79
-10.5
-11.75
-12.28
-11.95
-10.8
-9.06
-7.01
-4.95
-3.12
-1.63
-0.51
0.3
0.89
1.32
1.67
2.03
2.48
3.17
4.18
5.53
7.18
9
10.83
12.53
13.97
15
15.55
15.51
14.92
13.85
12.48
11
9.55
8.25
7.14
6.25
5.54
5.01
4.68
4.65
5.05
6
7.54
9.53
11.72
13.77
15.43
16.62
17.3
17.53
17.29
16.51
15.06
12.86
9.97
6.65
3.3
0.36
-1.77
-2.89
-2.97
-2.22
-0.96
0.52
1.98
3.32
4.48
5.39
5.94
6.01
5.5
4.39
2.72
0.59
-1.94
-4.8
-7.92
-11.17
-14.28
-16.92
-18.69
-19.33
-18.74
-17.08
-14.66
-11.89
-9.11
-6.56
-4.35
-2.46
-0.86
0.46
1.48
2.13
2.27
1.79
0.64
-1.14
-3.33
-5.58
-7.51
-8.84
-9.49
-9.59
-9.41
-9.24
-9.24
-9.41
-9.67
-9.9
-10.11
-10.36
-10.73
-11.25
-11.85
-12.37
-12.59
-12.33
-11.5
-10.08
-8.12
-5.75
-3.13
-0.47
2.07
4.32
6.19
7.62
8.6
9.12
9.25
9.05
8.65
8.22
7.98
8.17
9
10.57
12.77
15.3
17.68
19.47
20.37
20.3
19.36
17.74
15.6
13.04
10.11
6.93
3.71
0.74
-1.72
-3.5
-4.61
-5.15
-5.29
-5.09
-4.5
-3.4
-1.73
0.43
2.77
4.88
6.35
6.88
6.42
5.06
3.02
0.57
-2.01
-4.35
-6.1
-6.92
-6.64
-5.33
-3.25
-0.8
1.65
3.78
5.35
6.23
6.35
5.76
4.65
3.31
2.01
0.87
-0.16
-1.29
-2.71
-4.41
-6.09
-7.34
-7.76
-7.23
-5.91
-4.18
-2.41
-0.83
0.52
1.64
2.49
2.97
2.94
2.41
1.57
0.73
0.16
0
0.18
0.47
0.68
0.71
0.56
0.3
0.03
-0.17
-0.31
-0.39
-0.46
-0.59
-0.86
-1.35
-2.11
-3.12
-4.28
-5.44
-6.47
-7.31
-7.94
-8.41
-8.77
-9.01
-9.04
-8.76
-8.01
-6.75
-5.02
-3.02
-0.97
0.85
2.26
3.14
3.54
3.61
3.55
3.56
3.79
4.23
4.8
5.31
5.62
5.64
5.39
4.96
4.43
3.84
3.17
2.43
1.63
0.85
0.16
-0.39
-0.83
-1.25
-1.76
-2.43
-3.23
-4.11
-4.99
-5.83
-6.65
-7.49
-8.39
-9.3
-10.1
-10.58
-10.56
-9.98
-8.93
-7.63
-6.34
-5.24
-4.4
-3.72
-3.08
-2.36
-1.56
-0.76
-0.09
0.37
0.63
0.78
0.92
1.12
1.39
1.66
1.89
2.04
2.18
2.4
2.81
3.44
4.21
4.94
5.43
5.5
5.06
4.15
2.94
1.66
0.55
-0.24
-0.69
-0.91
-1.06
-1.3
-1.7
-2.23
-2.81
-3.37
-3.8
-4.01
-3.9
-3.38
-2.42
-1.07
0.48
2.05
3.43
4.49
5.18
5.5
5.46
5.1
4.49
3.72
2.89
2.05
1.24
0.43
-0.34
-0.96
-1.3
-1.27
-0.83
-0.12
0.63
1.18
1.35
1.06
0.37
-0.59
-1.64
-2.59
-3.24
-3.5
-3.34
-2.87
-2.29
-1.81
-1.61
-1.78
-2.29
-2.99
-3.65
-4.1
-4.22
-4.06
-3.76
-3.46
-3.24
-3.05
-2.73
-2.15
-1.24
-0.13
0.96
1.75
2.13
2.1
1.86
1.58
1.42
1.38
1.34
1.12
0.57
-0.39
-1.74
-3.35
-5.02
-6.5
-7.52
-7.92
-7.68
-6.9
-5.84
-4.71
-3.64
-2.7
-1.91
-1.38
-1.31
-1.91
-3.28
-5.25
-7.39
-9.14
-10.08
-10.06
-9.29
-8.13
-7.01
-6.13
-5.48
-4.92
-4.3
-3.59
-2.88
-2.33
-2.08
-2.2
-2.59
-3.11
-3.54
-3.78
-3.79
-3.61
-3.36
-3.11
-2.93
-2.86
-2.88
-2.98
-3.15
-3.36
-3.6
-3.8
-3.89
-3.83
-3.59
-3.17
-2.61
-1.95
-1.2
-0.41
0.35
0.96
1.27
1.13
0.47
-0.62
-1.89
-3
-3.62
-3.59
-2.9
-1.68
-0.12
1.58
3.26
4.79
6.05
6.93
7.39
7.46
7.3
7.08
6.97
7.07
7.41
7.95
8.6
9.26
9.87
10.37
10.7
10.8
10.56
9.92
8.86
7.47
5.86
4.2
2.6
1.1
-0.34
-1.76
-3.15
-4.39
-5.36
-6.01
-6.39
-6.72
-7.23
-8.04
-9.11
-10.24
-11.14
-11.58
-11.51
-10.92
-9.87
-8.37
-6.42
-4.06
-1.51
0.86
2.64
3.57
3.65
3.1
2.27
1.42
0.67
0.02
-0.56
-1.03
-1.27
-1.16
-0.7
0
0.78
1.47
2.05
2.57
3.12
3.74
4.41
5.03
5.5
5.82
6.03
6.2
6.3
6.22
5.83
5.03
3.89
2.64
1.52
0.7
0.11
-0.52
-1.51
-3.11
-5.24
-7.56
-9.54
-10.67
-10.62
-9.38
-7.22
-4.58
-1.89
0.48
2.3
3.47
3.99
3.95
3.49
2.8
2.12
1.63
1.42
1.43
1.54
1.6
1.59
1.52
1.49
1.57
1.71
1.79
1.65
1.21
0.51
-0.33
-1.1
-1.6
-1.79
-1.71
-1.53
-1.41
-1.49
-1.84
-2.46
-3.32
-4.39
-5.67
-7.09
-8.48
-9.56
-10.01
-9.63
-8.32
-6.24
-3.7
-1.04
1.41
3.43
4.88
5.75
6.08
6
5.65
5.19
4.73
4.34
4.06
3.96
4.08
4.42
4.91
5.4
5.75
5.84
5.66
5.22
4.61
3.83
2.89
1.74
0.39
-1.13
-2.73
-4.28
-5.71
-6.96
-8.06
-9.12
-10.27
-11.56
-12.96
-14.29
-15.26
-15.58
-15.07
-13.71
-11.64
-9.05
-6.23
-3.39
-0.74
1.59
3.53
5.06
6.24
7.04
7.45
7.4
6.91
6.07
5.12
4.31
3.85
3.86
4.27
4.99
5.87
6.78
7.63
8.28
8.61
8.48
7.86
6.79
5.4
3.91
2.5
1.28
0.21
-0.89
-2.41
-4.71
-8.05
-12.34
-17.12
-21.65
-25.08
-26.76
-26.41
-24.19
-20.59
-16.26
-11.83
-7.76
-4.28
-1.47
0.75
2.46
3.75
4.65
5.22
5.57
5.85
6.24
6.82
7.56
8.3
8.88
9.21
9.33
9.34
9.36
9.4
9.31
8.93
8.12
6.84
5.21
3.41
1.63
-0.01
-1.5
-2.89
-4.33
-5.99
-7.93
-10.09
-12.21
-13.89
-14.69
-14.37
-12.86
-10.39
-7.34
-4.14
-1.13
1.44
3.47
4.93
5.85
6.32
6.46
6.39
6.18
5.87
5.45
5
4.62
4.48
4.69
5.25
6.03
6.81
7.41
7.73
7.74
7.45
6.85
5.89
4.54
2.82
0.83
-1.29
-3.4
-5.43
-7.34
-9.18
-10.93
-12.51
-13.71
-14.29
-13.99
-12.68
-10.4
-7.42
-4.11
-0.91
1.86
4.03
5.57
6.56
7.09
7.23
7.05
6.59
5.95
5.26
4.7
4.42
4.51
4.9
5.41
5.8
5.79
5.31
4.39
3.25
2.06
0.94
-0.19
-1.43
-2.88
-4.52
-6.23
-7.9
-9.44
-10.84
-12.08
-13.08
-13.57
-13.24
-11.79
-9.14
-5.52
-1.39
2.69
6.25
9.01
10.95
12.23
13.03
13.48
13.56
13.23
12.5
11.54
10.6
9.97
9.78
9.98
10.36
10.61
10.54
10.08
9.32
8.42
7.48
6.59
5.75
4.9
3.96
2.84
1.49
-0.12
-1.99
-4.12
-6.48
-9
-11.54
-13.82
-15.42
-15.98
-15.22
-13.14
-10.04
-6.35
-2.54
1
4.06
6.6
8.59
10.07
11.07
11.65
11.96
12.16
12.44
12.9
13.55
14.3
15.04
15.68
16.14
16.39
16.35
15.9
14.94
13.42
11.43
9.2
7.02
5.13
3.62
2.43
1.37
0.22
-1.15
-2.83
-4.81
-7.03
-9.37
-11.58
-13.3
-14.13
-13.77
-12.11
-9.34
-5.9
-2.31
1
3.78
5.98
7.6
8.67
9.17
9.11
8.63
7.99
7.48
7.36
7.65
8.23
8.87
9.35
9.6
9.7
9.75
9.85
9.94
9.9
9.58
8.89
7.87
6.6
5.24
3.89
2.59
1.29
-0.05
-1.5
-3.09
-4.79
-6.58
-8.4
-10.19
-11.85
-13.2
-13.99
-14
-13.07
-11.22
-8.56
-5.32
-1.68
2.22
6.31
10.45
14.45
18.01
20.82
22.71
23.71
23.96
23.73
23.16
22.27
21
19.26
17.08
14.61
12.06
9.67
7.53
5.59
3.68
1.66
-0.48
-2.66
-4.69
-6.42
-7.79
-8.88
-9.82
-10.72
-11.62
-12.47
-13.2
-13.8
-14.32
-14.73
-14.95
-14.81
-14.12
-12.78
-10.82
-8.4
-5.77
-3.19
-0.87
1.09
2.62
3.74
4.49
4.94
5.18
5.28
5.29
5.29
5.34
5.54
5.95
6.59
7.4
8.25
8.98
9.44
9.49
9.05
8.12
6.79
5.17
3.45
1.74
0.13
-1.4
-2.91
-4.43
-5.97
-7.45
-8.77
-9.84
-10.63
-11.1
-11.21
-10.9
-10.11
-8.88
-7.36
-5.74
-4.22
-2.83
-1.41
0.32
2.56
5.26
8.11
10.62
12.37
13.11
12.9
11.96
10.6
9.08
7.63
6.39
5.48
4.98
4.95
5.3
5.85
6.3
6.38
5.9
4.82
3.25
1.38
-0.6
-2.54
-4.39
-6.14
-7.74
-9.09
-10.01
-10.31
-9.91
-8.8
-7.1
-5
-2.67
-0.24
2.12
4.34
6.33
8.08
9.67
11.18
12.65
14.06
15.24
15.98
16.1
15.53
14.38
12.89
11.38
10.08
9.07
8.25
7.44
6.47
5.3
3.94
2.46
0.89
-0.8
-2.62
-4.54
-6.5
-8.33
-9.91
-11.18
-12.2
-13.09
-14.04
-15.14
-16.43
-17.81
-19.09
-19.99
-20.22
-19.57
-18.02
-15.73
-13.01
-10.22
-7.65
-5.45
-3.65
-2.17
-0.88
0.28
1.35
2.32
3.14
3.81
4.34
4.71
4.99
5.19
5.39
5.61
5.85
6.05
6.05
5.75
5.06
4.04
2.83
1.64
0.56
-0.38
-1.24
-2.09
-2.9
-3.62
-4.18
-4.65
-5.18
-6
-7.25
-8.86
-10.53
-11.8
-12.25
-11.64
-10.06
-7.81
-5.32
-2.96
-0.94
0.69
1.96
2.85
3.28
3.16
2.46
1.36
0.15
-0.85
-1.43
-1.57
-1.42
-1.14
-0.84
-0.5
-0.06
0.53
1.2
1.72
1.9
1.61
0.91
-0
-0.86
-1.47
-1.79
-1.93
-2.11
-2.55
-3.34
-4.41
-5.51
-6.33
-6.61
-6.23
-5.21
-3.74
-2.01
-0.19
1.59
3.2
4.52
5.39
5.73
5.57
5.1
4.57
4.16
3.91
3.72
3.41
2.89
2.25
1.67
1.38
1.5
1.93
2.45
2.82
2.85
2.58
2.1
1.56
1
0.4
-0.34
-1.3
-2.49
-3.9
-5.44
-7.01
-8.45
-9.62
-10.32
-10.44
-9.93
-8.87
-7.42
-5.71
-3.9
-2.11
-0.45
0.97
2.06
2.77
3.15
3.27
3.28
3.26
3.23
3.14
2.93
2.58
2.18
1.88
1.83
2.14
2.76
3.56
4.35
4.96
5.31
5.36
5.16
4.77
4.23
3.58
2.86
2.1
1.33
0.5
-0.44
-1.54
-2.8
-4.05
-5.04
-5.52
-5.35
-4.57
-3.41
-2.18
-1.17
-0.5
-0.11
0.1
0.25
0.36
0.35
0.2
-0.06
-0.32
-0.43
-0.33
-0.11
0.01
-0.16
-0.7
-1.46
-2.13
-2.39
-2.11
-1.39
-0.6
-0.15
-0.38
-1.35
-2.85
-4.53
-6.04
-7.21
-8.01
-8.62
-9.23
-10
-10.98
-12.09
-13.13
-13.81
-13.9
-13.26
-11.93
-10.13
-8.11
-6.09
-4.16
-2.32
-0.55
1.08
2.4
3.24
3.49
3.21
2.59
1.86
1.17
0.6
0.16
-0.12
-0.15
0.09
0.61
1.21
1.67
1.74
1.32
0.47
-0.58
-1.59
-2.39
-2.95
-3.34
-3.69
-4.1
-4.62
-5.23
-5.87
-6.46
-6.92
-7.17
-7.17
-6.89
-6.29
-5.34
-3.97
-2.17
-0.03
2.27
4.43
6.16
7.28
7.75
7.73
7.46
7.17
7.03
7.08
7.3
7.61
7.95
8.28
8.55
8.72
8.66
8.28
7.48
6.25
4.7
3.04
1.48
0.2
-0.76
-1.47
-2.06
-2.69
-3.52
-4.65
-6.1
-7.8
-9.47
-10.75
-11.29
-10.83
-9.41
-7.26
-4.79
-2.31
-0.05
1.95
3.64
4.93
5.71
5.83
5.29
4.25
2.95
1.71
0.78
0.28
0.23
0.56
1.1
1.66
2.08
2.22
2.04
1.6
0.98
0.27
-0.45
-1.22
-2.07
-3.08
-4.34
-5.91
-7.82
-9.94
-12.09
-13.96
-15.25
-15.66
-15.04
-13.31
-10.56
-7.07
-3.29
0.28
3.16
5.09
6
6.06
5.49
4.51
3.23
1.77
0.29
-1
-1.84
-2.12
-1.83
-1.18
-0.39
0.33
0.82
1.03
0.91
0.51
-0.1
-0.81
-1.53
-2.21
-2.89
-3.67
-4.64
-5.82
-7.14
-8.39
-9.3
-9.62
-9.15
-7.84
-5.78
-3.26
-0.64
1.74
3.68
5.15
6.26
7.12
7.77
8.17
8.24
7.99
7.5
6.93
6.39
5.93
5.47
4.95
4.31
3.64
3.05
2.64
2.4
2.21
1.91
1.35
0.52
-0.53
-1.68
-2.9
-4.24
-5.78
-7.58
-9.53
-11.39
-12.8
-13.43
-13.12
-11.86
-9.84
-7.33
-4.61
-1.93
0.5
2.54
4.11
5.2
5.87
6.22
6.35
6.34
6.26
6.19
6.23
6.42
6.79
7.27
7.73
8.02
8.07
7.84
7.37
6.76
6.01
5.14
4.05
2.63
0.82
-1.39
-3.89
-6.45
-8.82
-10.78
-12.2
-13.03
-13.23
-12.69
-11.22
-8.72
-5.22
-1.04
3.32
7.31
10.6
13.13
15.09
16.75
18.26
19.63
20.75
21.48
21.68
21.2
19.82
17.24
13.32
8.16
2.25
-3.59
-8.52
-11.9
-13.49
-13.48
-12.28
-10.35
-8.02
-5.51
-3
-0.84
0.41
0.03
-2.59
-7.68
-14.78
-22.74
-30.02
-35.17
-37.32
-36.46
-33.29
-28.87
-24.09
-19.48
-15.14
-10.99
-7.02
-3.44
-0.53
1.48
2.59
3.09
3.39
3.92
4.85
6.13
7.46
8.54
9.15
9.32
9.22
9.11
9.1
9.12
8.98
8.44
7.42
6.03
4.51
3.15
2.09
1.28
0.58
-0.24
-1.29
-2.52
-3.71
-4.56
-4.76
-4.07
-2.46
-0.01
2.99
6.17
9.17
11.68
13.55
14.74
15.27
15.18
14.5
13.32
11.78
10.15
8.77
7.92
7.72
8.06
8.64
9.12
9.21
8.8
7.93
6.68
5.13
3.33
1.34
-0.71
-2.61
-4.19
-5.38
-6.31
-7.24
-8.46
-10.08
-11.96
-13.69
-14.79
-14.88
-13.84
-11.83
-9.22
-6.45
-3.87
-1.69
0.03
1.33
2.24
2.77
2.91
2.66
2.11
1.46
0.91
0.65
0.78
1.19
1.71
2.14
2.39
2.47
2.52
2.7
3.05
3.5
3.87
3.93
3.54
2.63
1.23
-0.56
-2.62
-4.76
-6.7
-8.1
-8.61
-7.99
-6.25
-3.65
-0.63
2.38
5.07
7.31
9.12
10.51
11.42
11.73
11.39
10.49
9.25
8.04
7.16
6.74
6.76
7.07
7.47
7.76
7.85
7.67
7.24
6.57
5.74
4.8
3.78
2.67
1.38
-0.12
-1.87
-3.81
-5.78
-7.59
-9.03
-9.85
-9.89
-9.04
-7.37
-5.05
-2.43
0.16
2.48
4.38
5.84
6.87
7.46
7.55
7.11
6.19
5.02
3.89
3.05
2.68
2.72
3.06
3.47
3.79
3.89
3.74
3.37
2.84
2.28
1.79
1.45
1.23
1.01
0.6
-0.17
-1.36
-2.83
-4.24
-5.24
-5.5
-4.89
-3.45
-1.41
0.97
3.4
5.61
7.32
8.21
8.06
6.79
4.6
1.96
-0.54
-2.34
-3.14
-2.95
-2.06
-0.97
-0.11
0.23
0.04
-0.5
-1.07
-1.43
-1.52
-1.45
-1.44
-1.71
-2.41
-3.53
-4.97
-6.53
-8
-9.11
-9.61
-9.27
-8
-5.91
-3.36
-0.82
1.27
2.64
3.31
3.45
3.35
3.19
3.03
2.78
2.35
1.74
1
0.26
-0.39
-0.94
-1.43
-1.94
-2.44
-2.81
-2.91
-2.69
-2.2
-1.67
-1.42
-1.71
-2.65
-4.16
-6
-7.89
-9.61
-11
-11.94
-12.32
-12
-10.9
-8.99
-6.39
-3.38
-0.33
2.45
4.7
6.32
7.37
7.96
8.18
8.14
7.9
7.56
7.26
7.15
7.37
7.95
8.86
9.94
10.99
11.83
12.34
12.5
12.39
12.11
11.72
11.23
10.62
9.86
8.95
7.95
6.89
5.73
4.39
2.8
0.99
-0.86
-2.52
-3.82
-4.79
-5.7
-6.84
-8.38
-10.25
-12.08
-13.47
-14.1
-13.88
-12.91
-11.4
-9.51
-7.36
-5.01
-2.53
-0.05
2.31
4.44
6.31
7.89
9.2
10.23
10.96
11.42
11.66
11.85
12.11
12.51
13.07
13.76
14.54
15.34
16.06
16.47
16.24
15.07
12.76
9.38
5.26
0.84
-3.44
-7.34
-10.84
-14.06
-17.14
-20.13
-22.92
-25.31
-27.1
-28.15
-28.51
-28.46
-28.46
-29.04
-30.56
-32.95
-35.74
-38.13
-39.38
-39.13
-37.58
-35.42
-33.51
-32.6
-33.12
-35.11
-38.16
-41.25
-42.79
-40.78
-33.54
-20.37
-2.19
18.6
38.88
55.96
68.44
76.46
81.19
83.97
85.59
86.15
85.31
82.76
78.51
72.88
66.3
59.09
51.42
43.43
35.34
27.47
20.23
13.98
8.91
4.99
2.03
-0.3
-2.34
-4.37
-6.57
-8.86
-11.05
-12.89
-14.19
-15.01
-15.58
-16.22
-17.11
-18.11
-18.89
-19.04
-18.33
-16.85
-14.96
-13.09
-11.58
-10.53
-9.86
-9.43
-9.17
-9.06
-9.06
-9.07
-8.94
-8.54
-7.86
-7.05
-6.32
-5.83
-5.58
-5.44
-5.22
-4.79
-4.16
-3.46
-2.84
-2.41
-2.22
-2.25
-2.49
-2.91
-3.45
-3.99
-4.4
-4.56
-4.45
-4.14
-3.79
-3.55
-3.49
-3.6
-3.8
-3.98
-4.07
-4.08
-4.12
-4.32
-4.78
-5.52
-6.41
-7.24
-7.78
-7.87
-7.44
-6.54
-5.28
-3.77
-2.11
-0.41
1.21
2.61
3.69
4.39
4.75
4.86
4.87
4.9
5.03
5.23
5.44
5.58
5.58
5.44
5.18
4.91
4.73
4.73
4.94
5.3
5.7
5.95
5.93
5.54
4.85
4.01
3.26
2.82
2.72
2.87
3
2.91
2.49
1.8
0.99
0.21
-0.5
-1.16
-1.87
-2.65
-3.46
-4.22
-4.89
-5.48
-6.02
-6.47
-6.76
-6.76
-6.37
-5.6
-4.59
-3.56
-2.74
-2.27
-2.18
-2.38
-2.7
-2.99
-3.12
-3.07
-2.82
-2.43
-1.89
-1.25
-0.55
0.13
0.67
0.97
0.97
0.71
0.3
-0.13
-0.48
-0.7
-0.81
-0.86
-0.92
-1
-1.11
-1.25
-1.35
-1.4
-1.37
-1.32
-1.3
-1.41
-1.72
-2.22
-2.81
-3.35
-3.68
-3.77
-3.68
-3.57
-3.6
-3.87
-4.35
-4.94
-5.46
-5.72
-5.53
-4.78
-3.51
-1.89
-0.18
1.33
2.46
3.14
3.39
3.29
2.89
2.25
1.4
0.46
-0.37
-0.91
-1.01
-0.66
0.03
0.86
1.63
2.16
2.33
2.11
1.57
0.85
0.11
-0.51
-0.92
-1.12
-1.14
-1.05
-0.9
-0.77
-0.73
-0.87
-1.23
-1.78
-2.44
-3.1
-3.62
-3.98
-4.19
-4.31
-4.39
-4.42
-4.4
-4.33
-4.23
-4.1
-3.88
-3.49
-2.79
-1.75
-0.41
1.03
2.36
3.39
4.08
4.47
4.65
4.68
4.54
4.17
3.58
2.81
1.97
1.18
0.5
-0.08
-0.63
-1.14
-1.61
-1.93
-2.03
-1.94
-1.75
-1.62
-1.69
-1.98
-2.41
-2.87
-3.24
-3.51
-3.7
-3.9
-4.15
-4.42
-4.67
-4.83
-4.83
-4.67
-4.39
-4.03
-3.68
-3.41
-3.29
-3.36
-3.64
-4.08
-4.58
-4.99
-5.18
-5.03
-4.53
-3.74
-2.81
-1.88
-1.09
-0.49
-0.1
0.08
0.08
-0.09
-0.43
-0.92
-1.51
-2.13
-2.69
-3.15
-3.46
-3.62
-3.62
-3.49
-3.25
-2.94
-2.61
-2.27
-1.97
-1.75
-1.65
-1.71
-1.95
-2.33
-2.8
-3.29
-3.71
-4.02
-4.17
-4.11
-3.86
-3.48
-3.08
-2.85
-2.97
-3.52
-4.51
-5.8
-7.12
-8.27
-9.05
-9.32
-9.02
-8.19
-6.95
-5.49
-4.08
-2.91
-2.09
-1.6
-1.36
-1.27
-1.28
-1.4
-1.65
-2.02
-2.36
-2.52
-2.34
-1.74
-0.88
0.01
0.61
0.68
0.14
-0.88
-2.14
-3.35
-4.3
-4.89
-5.09
-4.91
-4.36
-3.49
-2.43
-1.45
-0.9
-1.08
-2.19
-4.23
-7
-10.24
-13.68
-17.06
-20.13
-22.57
-24.06
-24.34
-23.3
-21.01
-17.77
-13.93
-9.9
-5.99
-2.41
0.69
3.24
5.21
6.6
7.41
7.7
7.56
7.07
6.34
5.51
4.71
4.04
3.58
3.32
3.22
3.18
3.11
2.95
2.68
2.33
1.88
1.32
0.6
-0.32
-1.47
-2.83
-4.33
-5.9
-7.48
-9
-10.45
-11.77
-12.95
-14.03
-15.09
-16.22
-17.48
-18.7
-19.62
-19.86
-19.19
-17.58
-15.24
-12.54
-9.81
-7.33
-5.21
-3.54
-2.41
-1.93
-2.16
-3.08
-4.53
-6.29
-8.16
-9.96
-11.61
-13.1
-14.39
-15.51
-16.48
-17.39
-18.3
-19.21
-20.06
-20.72
-21.06
-20.92
-20.2
-18.75
-16.46
-13.31
-9.45
-5.33
-1.56
1.17
2.46
2.24
0.85
-1.11
-3.07
-4.64
-5.64
-6.08
-6.05
-5.6
-4.81
-3.69
-2.24
-0.49
1.61
4.17
7.29
11.03
15.25
19.69
24.12
28.52
33.17
38.63
45.26
53
61.21
68.92
75.25
79.8
82.82
84.88
86.51
87.74
88.17
87.21
84.47
80.01
74.32
68.06
61.69
55.35
48.85
41.88
34.24
25.96
17.24
8.37
-0.4
-8.99
-17.29
-25.18
-32.37
-38.42
-42.91
-45.55
-46.37
-45.68
-44.02
-41.99
-40.13
-38.78
-38.09
-38.03
-38.31
-38.59
-38.42
-37.49
-35.68
-33.07
-29.91
-26.49
-23.1
-19.86
-16.82
-13.97
-11.29
-8.84
-6.73
-5.13
-4.17
-3.94
-4.44
-5.56
-7.11
-8.8
-10.41
-11.79
-12.97
-14.1
-15.37
-16.88
-18.53
-20.04
-20.96
-20.85
-19.4
-16.53
-12.47
-7.62
-2.5
2.39
6.69
10.22
12.97
15.12
16.92
18.6
20.33
22.06
23.62
24.65
24.76
23.73
21.67
19.08
16.67
15.09
14.66
15.19
16.07
16.56
16.08
14.43
11.82
8.67
5.42
2.37
-0.32
-2.61
-4.58
-6.36
-8.12
-10.02
-12.14
-14.4
-16.58
-18.32
-19.24
-19
-17.37
-14.31
-10.01
-4.83
0.72
6.11
10.82
14.53
17.08
18.54
19.1
19.03
18.59
17.97
17.32
16.67
16.08
15.59
15.29
15.24
15.45
15.85
16.25
16.4
16.08
15.18
13.79
12.06
10.18
8.25
6.31
4.34
2.39
0.58
-0.93
-2.05
-2.93
-3.84
-5.15
-7.05
-9.52
-12.19
-14.51
-15.92
-15.99
-14.57
-11.76
-7.87
-3.31
1.5
6.19
10.44
13.98
16.67
18.43
19.31
19.48
19.18
18.65
18.07
17.56
17.16
16.88
16.71
16.62
16.56
16.51
16.46
16.4
16.33
16.2
15.99
15.63
15.1
14.41
13.6
12.72
11.75
10.65
9.33
7.75
5.91
3.85
1.65
-0.59
-2.74
-4.74
-6.57
-8.34
-10.26
-12.48
-15.03
-17.62
-19.67
-20.44
-19.36
-16.21
-11.33
-5.47
0.51
5.92
10.39
13.85
16.42
18.22
19.34
19.84
19.84
19.54
19.22
19.08
19.21
19.54
19.89
20.13
20.12
19.84
19.28
18.46
17.4
16.18
14.88
13.6
12.4
11.26
10.08
8.74
7.15
5.29
3.24
1.16
-0.79
-2.53
-4.09
-5.64
-7.38
-9.5
-12
-14.78
-17.67
-20.48
-23.11
-25.46
-27.38
-28.57
-28.66
-27.32
-24.46
-20.34
-15.52
-10.64
-6.24
-2.56
0.39
2.75
4.64
6.06
6.98
7.35
7.26
6.91
6.58
6.52
6.85
7.54
8.4
9.21
9.78
10.02
9.97
9.72
9.42
9.12
8.76
8.22
7.42
6.28
4.85
3.18
1.34
-0.61
-2.6
-4.5
-6.07
-7.06
-7.29
-6.81
-5.92
-5.08
-4.77
-5.23
-6.42
-7.97
-9.38
-10.13
-9.88
-8.56
-6.36
-3.61
-0.74
1.92
4.17
5.93
7.23
8.13
8.61
8.66
8.27
7.53
6.6
5.69
4.96
4.48
4.2
4
3.78
3.54
3.33
3.26
3.35
3.53
3.59
3.28
2.43
1.03
-0.77
-2.72
-4.55
-6.1
-7.35
-8.36
-9.27
-10.23
-11.34
-12.79
-14.64
-16.87
-19.23
-21.25
-22.34
-21.97
-19.91
-16.31
-11.67
-6.64
-1.86
2.29
5.63
8.19
10.06
11.26
11.73
11.44
10.49
9.11
7.65
6.44
5.65
5.27
5.07
4.78
4.19
3.25
2.04
0.72
-0.55
-1.7
-2.78
-3.91
-5.25
-6.84
-8.56
-10.15
-11.23
-11.54
-11
-9.79
-8.22
-6.67
-5.45
-4.78
-4.71
-5.19
-6
-6.82
-7.23
-6.88
-5.61
-3.5
-0.89
1.8
4.21
6.13
7.54
8.54
9.28
9.88
10.37
10.75
11.05
11.29
11.54
11.84
12.2
12.54
12.74
12.71
12.44
11.99
11.49
11.11
10.9
10.9
10.99
10.98
10.61
9.68
8.1
6.03
3.82
1.87
0.43
-0.51
-1.29
-2.38
-4.19
-6.85
-10.18
-13.72
-16.91
-19.16
-19.98
-19.09
-16.51
-12.69
-8.49
-4.92
-2.86
-2.69
-4.17
-6.57
-9.04
-10.88
-11.76
-11.65
-10.62
-8.65
-5.7
-1.84
2.59
7
10.66
13
13.85
13.43
12.22
10.76
9.38
8.2
7.14
6.08
4.94
3.72
2.5
1.35
0.31
-0.63
-1.54
-2.56
-3.87
-5.61
-7.87
-10.55
-13.4
-15.99
-17.83
-18.58
-18.13
-16.71
-14.76
-12.75
-11.05
-9.74
-8.71
-7.74
-6.66
-5.46
-4.27
-3.26
-2.6
-2.37
-2.48
-2.79
-3.05
-2.99
-2.45
-1.42
-0.08
1.26
2.28
2.76
2.67
2.11
1.2
0
-1.48
-3.28
-5.31
-7.37
-9.16
-10.47
-11.21
-11.48
-11.47
-11.38
-11.34
-11.36
-11.41
-11.38
-11.21
-10.81
-10.14
-9.19
-7.96
-6.54
-5.01
-3.49
-2.08
-0.9
-0.05
0.43
0.62
0.71
0.95
1.55
2.54
3.8
5.04
6.03
6.6
6.78
6.7
6.53
6.34
6.12
5.8
5.31
4.6
3.7
2.63
1.4
0.01
-1.58
-3.3
-5.05
-6.61
-7.86
-8.8
-9.63
-10.63
-12
-13.64
-15.22
-16.27
-16.41
-15.5
-13.67
-11.21
-8.43
-5.55
-2.73
-0.1
2.2
4.04
5.38
6.24
6.73
7
7.14
7.16
7.01
6.65
6.07
5.35
4.57
3.87
3.32
2.98
2.88
3.01
3.32
3.74
4.13
4.27
3.97
3.04
1.45
-0.68
-3.14
-5.65
-8.01
-10.07
-11.71
-12.82
-13.22
-12.69
-11.11
-8.53
-5.21
-1.59
1.86
4.78
6.97
8.44
9.3
9.68
9.67
9.34
8.77
8.04
7.26
6.57
6.04
5.71
5.51
5.37
5.2
4.99
4.78
4.65
4.62
4.61
4.49
4.06
3.24
2.06
0.7
-0.62
-1.71
-2.54
-3.26
-4.12
-5.33
-6.97
-8.84
-10.57
-11.68
-11.86
-11.08
-9.65
-8.05
-6.76
-6
-5.73
-5.7
-5.67
-5.5
-5.27
-5.18
-5.43
-6.11
-7.28
-8.83
-10.64
-12.5
-14.14
-15.35
-16.02
-16.25
-16.29
-16.54
-17.31
-18.72
-20.61
-22.64
-24.39
-25.53
-25.98
-25.87
-25.49
-25.24
-25.47
-26.45
-28.23
-30.61
-33.11
-35.04
-35.62
-34.3
-30.86
-25.56
-19
-11.85
-4.68
2.17
8.54
14.35
19.49
23.82
27.28
29.88
31.78
33.2
34.34
35.36
36.41
37.66
39.26
41.24
43.5
45.78
47.8
49.32
50.29
50.73
50.72
50.22
49.04
46.86
43.41
38.56
32.43
25.43
18.09
11.02
4.71
-0.5
-4.55
-7.56
-9.81
-11.68
-13.49
-15.53
-17.95
-20.76
-23.84
-26.99
-29.95
-32.53
-34.6
-36.22
-37.51
-38.65
-39.71
-40.51
-40.67
-39.82
-37.75
-34.62
-30.97
-27.48
-24.73
-22.95
-22.08
-21.79
-21.73
-21.63
-21.31
-20.73
-19.93
-19.04
-18.16
-17.19
-15.71
-13.02
-8.37
-1.39
7.61
17.71
27.74
36.78
44.48
51.03
56.83
62.08
66.58
69.93
71.91
72.71
72.97
73.4
74.34
75.54
76.28
75.79
73.61
69.85
64.96
59.41
53.39
46.8
39.38
31.07
22.09
12.89
4.02
-4.11
-11.36
-17.74
-23.38
-28.38
-32.72
-36.21
-38.58
-39.55
-38.95
-36.9
-33.78
-30.18
-26.73
-23.84
-21.67
-20.14
-19.03
-18.18
-17.53
-17.07
-16.78
-16.56
-16.19
-15.44
-14.21
-12.53
-10.61
-8.71
-7.03
-5.63
-4.43
-3.29
-2.13
-0.97
0.08
0.81
1.07
0.78
-0
-1.14
-2.46
-3.83
-5.15
-6.36
-7.43
-8.31
-8.92
-9.16
-8.93
-8.15
-6.78
-4.88
-2.61
-0.22
2.01
3.83
5.09
5.81
6.12
6.19
6.11
5.91
5.57
5.09
4.59
4.24
4.19
4.43
4.77
4.87
4.41
3.23
1.37
-0.91
-3.32
-5.61
-7.67
-9.44
-10.89
-11.99
-12.63
-12.77
-12.44
-11.76
-10.89
-9.91
-8.83
-7.62
-6.3
-5.05
-4.17
-3.97
-4.61
-5.92
-7.46
-8.65
-9.03
-8.35
-6.7
-4.37
-1.8
0.64
2.61
3.91
4.44
4.25
3.54
2.62
1.8
1.31
1.3
1.74
2.49
3.39
4.27
5.04
5.62
6.05
6.39
6.76
7.27
7.93
8.64
9.16
9.2
8.51
7
4.82
2.27
-0.24
-2.32
-3.7
-4.2
-3.75
-2.35
-0.11
2.77
5.98
9.14
11.92
14.1
15.61
16.52
16.94
16.98
16.83
16.74
16.99
17.78
19.11
20.63
21.74
21.8
20.43
17.62
13.82
9.61
5.49
1.72
-1.73
-5.04
-8.28
-11.42
-14.31
-16.79
-18.77
-20.26
-21.26
-21.69
-21.38
-20.15
-17.97
-15.13
-12.08
-9.37
-7.33
-5.98
-5.13
-4.41
-3.62
-2.7
-1.78
-1.02
-0.53
-0.3
-0.29
-0.45
-0.77
-1.24
-1.77
-2.21
-2.32
-1.96
-1.1
0.1
1.34
2.3
2.68
2.32
1.24
-0.38
-2.3
-4.25
-6.1
-7.87
-9.67
-11.6
-13.62
-15.54
-17.03
-17.78
-17.59
-16.39
-14.28
-11.43
-8.09
-4.55
-1.12
1.84
4.06
5.38
5.82
5.48
4.54
3.21
1.7
0.27
-0.83
-1.41
-1.43
-0.99
-0.37
0.16
0.43
0.43
0.28
0.1
-0.07
-0.28
-0.63
-1.2
-2.06
-3.2
-4.62
-6.27
-8
-9.52
-10.45
-10.46
-9.36
-7.23
-4.38
-1.22
1.91
4.81
7.44
9.79
11.84
13.47
14.54
14.95
14.69
13.94
12.96
12
11.2
10.56
10
9.34
8.52
7.5
6.33
5.09
3.81
2.54
1.28
0.04
-1.17
-2.38
-3.61
-4.97
-6.55
-8.43
-10.6
-12.91
-15.06
-16.65
-17.3
-16.76
-15.03
-12.35
-9.13
-5.83
-2.81
-0.26
1.79
3.42
4.73
5.79
6.65
7.3
7.74
7.97
8.03
7.98
7.92
7.93
8.1
8.42
8.83
9.19
9.34
9.11
8.43
7.33
5.97
4.56
3.26
2.11
0.97
-0.37
-2.08
-4.25
-6.75
-9.36
-11.75
-13.63
-14.75
-14.97
-14.18
-12.43
-9.84
-6.72
-3.45
-0.45
2.05
3.95
5.29
6.22
6.84
7.18
7.25
7.04
6.61
6.09
5.63
5.31
5.18
5.21
5.29
5.35
5.33
5.15
4.78
4.18
3.32
2.19
0.84
-0.67
-2.2
-3.65
-4.98
-6.21
-7.51
-9.04
-10.85
-12.81
-14.58
-15.69
-15.75
-14.56
-12.25
-9.18
-5.91
-2.9
-0.49
1.17
2.05
2.18
1.69
0.83
-0.04
-0.48
-0.14
1.16
3.28
5.88
8.53
10.84
12.65
13.93
14.73
15.06
14.82
13.94
12.42
10.41
8.21
6.14
4.44
3.13
2.06
0.99
-0.33
-2.03
-4.1
-6.41
-8.72
-10.71
-12.06
-12.49
-11.83
-10.14
-7.69
-4.89
-2.18
0.11
1.83
2.98
3.72
4.18
4.52
4.82
5.12
5.42
5.73
6
6.2
6.27
6.2
6
5.73
5.43
5.18
4.95
4.68
4.27
3.66
2.82
1.83
0.79
-0.23
-1.19
-2.12
-3.09
-4.16
-5.35
-6.67
-8.06
-9.39
-10.47
-11.08
-11.06
-10.32
-8.91
-6.93
-4.62
-2.18
0.15
2.2
3.8
4.86
5.36
5.39
5.12
4.75
4.42
4.23
4.17
4.2
4.26
4.36
4.54
4.86
5.35
5.92
6.41
6.61
6.4
5.73
4.71
3.48
2.17
0.88
-0.38
-1.62
-2.86
-4.06
-5.26
-6.46
-7.69
-8.93
-10.05
-10.9
-11.27
-11
-10
-8.28
-5.98
-3.37
-0.68
1.78
3.8
5.26
6.14
6.52
6.57
6.41
6.17
5.93
5.78
5.75
5.82
5.95
6.01
5.96
5.79
5.56
5.37
5.25
5.13
4.86
4.3
3.33
1.99
0.42
-1.2
-2.72
-4.05
-5.18
-6.16
-7.1
-8.08
-9.12
-10.13
-10.96
-11.38
-11.24
-10.49
-9.22
-7.65
-5.96
-4.27
-2.6
-0.91
0.78
2.35
3.63
4.45
4.8
4.75
4.48
4.16
3.88
3.69
3.58
3.57
3.69
3.98
4.41
4.86
5.19
5.21
4.83
4.04
2.89
1.53
0.13
-1.11
-2.09
-2.77
-3.27
-3.76
-4.44
-5.42
-6.67
-7.97
-8.98
-9.37
-8.91
-7.62
-5.63
-3.23
-0.72
1.68
3.85
5.71
7.18
8.19
8.66
8.63
8.27
7.83
7.57
7.62
7.95
8.37
8.62
8.51
7.98
7.05
5.83
4.44
2.98
1.54
0.16
-1.13
-2.39
-3.66
-5.01
-6.42
-7.81
-9.07
-10.1
-10.95
-11.71
-12.53
-13.47
-14.43
-15.15
-15.32
-14.71
-13.26
-11.14
-8.67
-6.21
-4.07
-2.37
-1.16
-0.38
0.05
0.18
0.13
0.01
-0.07
-0.01
0.22
0.54
0.91
1.26
1.58
1.87
2.1
2.21
2.11
1.78
1.27
0.76
0.43
0.39
0.55
0.71
0.6
-0
-1.19
-2.84
-4.78
-6.75
-8.54
-9.97
-10.88
-11.1
-10.55
-9.24
-7.31
-5.05
-2.8
-0.81
0.79
2.01
2.9
3.51
3.84
3.88
3.64
3.17
2.6
1.98
1.35
0.67
-0.13
-1.04
-2.01
-2.97
-3.88
-4.75
-5.65
-6.69
-7.94
-9.38
-10.96
-12.64
-14.43
-16.39
-18.54
-20.79
-22.91
-24.64
-25.76
-26.24
-26.19
-25.81
-25.2
-24.29
-22.92
-20.91
-18.26
-15.21
-12.19
-9.66
-7.95
-7.18
-7.32
-8.25
-9.73
-11.36
-12.61
-12.76
-11.11
-7.29
-1.43
5.86
13.65
21.03
27.41
32.56
36.52
39.39
41.22
41.96
41.57
40.12
37.79
34.82
31.37
27.52
23.3
18.76
14.03
9.36
5.03
1.38
-1.37
-3.03
-3.57
-3.03
-1.53
0.8
3.81
7.3
11.04
14.75
18.12
20.93
22.99
24.22
24.55
23.97
22.5
20.3
17.61
14.73
11.89
9.13
6.38
3.54
0.59
-2.32
-4.96
-7.16
-8.92
-10.37
-11.65
-12.79
-13.7
-14.17
-14.13
-13.59
-12.73
-11.73
-10.68
-9.55
-8.22
-6.56
-4.54
-2.22
0.23
2.63
4.84
6.84
8.67
10.4
12.03
13.47
14.5
14.92
14.63
13.7
12.29
10.64
8.87
7.11
5.39
3.74
2.16
0.59
-1.1
-3.09
-5.51
-8.28
-11.17
-13.84
-16.01
-17.59
-18.67
-19.46
-20.14
-20.75
-21.26
-21.53
-21.47
-20.95
-19.86
-18.09
-15.59
-12.39
-8.71
-4.91
-1.45
1.29
3.02
3.71
3.53
2.78
1.84
1.03
0.56
0.47
0.69
1.03
1.34
1.48
1.38
1.06
0.55
-0.06
-0.68
-1.21
-1.59
-1.81
-1.97
-2.16
-2.52
-3.11
-3.93
-4.96
-6.14
-7.37
-8.53
-9.46
-9.99
-9.96
-9.28
-7.94
-5.98
-3.54
-0.85
1.83
4.18
5.99
7.1
7.53
7.42
6.99
6.47
6.03
5.74
5.57
5.39
5.09
4.58
3.89
3.13
2.45
1.98
1.73
1.66
1.62
1.49
1.17
0.59
-0.31
-1.56
-3.18
-5.09
-7.14
-9.11
-10.73
-11.81
-12.26
-12.07
-11.3
-10.02
-8.36
-6.43
-4.44
-2.57
-1.01
0.2
1.09
1.8
2.42
2.94
3.27
3.3
3.07
2.71
2.46
2.51
2.89
3.47
3.99
4.26
4.24
4.02
3.78
3.59
3.44
3.2
2.72
1.94
0.87
-0.42
-1.88
-3.52
-5.39
-7.42
-9.41
-11
-11.85
-11.72
-10.6
-8.69
-6.25
-3.55
-0.74
2.08
4.83
7.38
9.57
11.25
12.31
12.78
12.76
12.43
11.96
11.53
11.27
11.19
11.19
11.13
10.91
10.5
9.98
9.42
8.85
8.17
7.3
6.16
4.84
3.51
2.38
1.5
0.81
0.15
-0.71
-1.9
-3.42
-5.17
-7
-8.71
-10.11
-10.96
-11.06
-10.3
-8.75
-6.62
-4.26
-2.02
-0.13
1.29
2.26
2.89
3.29
3.57
3.75
3.85
3.85
3.74
3.53
3.25
2.94
2.63
2.39
2.26
2.27
2.47
2.85
3.29
3.58
3.49
2.87
1.72
0.23
-1.32
-2.7
-3.8
-4.7
-5.55
-6.47
-7.52
-8.62
-9.66
-10.5
-11.06
-11.23
-10.89
-9.99
-8.49
-6.49
-4.16
-1.76
0.45
2.24
3.54
4.34
4.74
4.88
4.86
4.8
4.76
4.76
4.82
5.01
5.41
6.03
6.88
7.85
8.81
9.6
10.13
10.37
10.32
10
9.41
8.56
7.48
6.26
4.99
3.71
2.4
1
-0.53
-2.19
-3.84
-5.33
-6.44
-7.03
-6.96
-6.24
-4.98
-3.32
-1.52
0.19
1.6
2.57
3.06
3.07
2.75
2.22
1.66
1.2
0.9
0.74
0.63
0.52
0.38
0.24
0.1
-0.04
-0.21
-0.41
-0.6
-0.72
-0.72
-0.59
-0.4
-0.29
-0.36
-0.66
-1.17
-1.84
-2.62
-3.47
-4.38
-5.3
-6.07
-6.45
-6.23
-5.27
-3.61
-1.51
0.67
2.62
4.17
5.35
6.26
7.01
7.6
7.95
7.96
7.63
7.06
6.4
5.83
5.4
5.1
4.89
4.72
4.53
4.31
4.03
3.71
3.38
3.11
3
3.06
3.24
3.4
3.34
2.91
1.99
0.57
-1.24
-3.26
-5.28
-7.03
-8.28
-8.83
-8.57
-7.57
-5.98
-4.03
-1.94
0.11
2.01
3.72
5.19
6.33
7.08
7.4
7.36
7.09
6.76
6.49
6.25
5.92
5.36
4.48
3.41
2.44
1.89
1.94
2.54
3.35
3.94
3.97
3.39
2.38
1.25
0.27
-0.46
-0.99
-1.5
-2.09
-2.83
-3.69
-4.68
-5.8
-7.03
-8.25
-9.21
-9.61
-9.21
-7.96
-6.07
-3.91
-1.87
-0.17
1.13
2.15
3.03
3.79
4.35
4.57
4.33
3.68
2.8
1.95
1.35
1.09
1.12
1.33
1.58
1.81
1.95
1.98
1.84
1.55
1.11
0.57
0.02
-0.52
-1.05
-1.62
-2.25
-2.96
-3.7
-4.45
-5.21
-6.01
-6.85
-7.62
-8.12
-8.08
-7.32
-5.82
-3.8
-1.63
0.3
1.77
2.74
3.35
3.8
4.18
4.46
4.51
4.2
3.52
2.55
1.47
0.45
-0.39
-0.98
-1.32
-1.41
-1.31
-1.1
-0.86
-0.68
-0.6
-0.61
-0.7
-0.89
-1.23
-1.72
-2.3
-2.88
-3.31
-3.52
-3.52
-3.44
-3.46
-3.72
-4.2
-4.75
-5.11
-5.01
-4.33
-3.09
-1.48
0.24
1.83
3.17
4.2
4.93
5.34
5.39
5.02
4.23
3.14
1.99
1.1
0.69
0.87
1.5
2.31
2.97
3.3
3.26
2.99
2.68
2.43
2.25
2.06
1.76
1.3
0.74
0.14
-0.47
-1.08
-1.72
-2.42
-3.18
-4.03
-4.99
-6.09
-7.32
-8.54
-9.5
-9.91
-9.51
-8.26
-6.34
-4.06
-1.78
0.24
1.92
3.23
4.13
4.58
4.5
3.84
2.68
1.25
-0.16
-1.24
-1.84
-1.94
-1.73
-1.41
-1.16
-1.05
-1.02
-0.96
-0.78
-0.52
-0.31
-0.26
-0.47
-0.88
-1.39
-1.9
-2.42
-3.02
-3.8
-4.82
-6.04
-7.34
-8.55
-9.49
-9.98
-9.85
-9
-7.44
-5.3
-2.85
-0.4
1.8
3.61
5.02
6.06
6.76
7.13
7.15
6.81
6.17
5.31
4.34
3.39
2.57
1.91
1.44
1.11
0.83
0.52
0.08
-0.54
-1.33
-2.28
-3.31
-4.29
-5.08
-5.56
-5.73
-5.72
-5.76
-6.04
-6.64
-7.43
-8.15
-8.49
-8.24
-7.36
-5.99
-4.29
-2.46
-0.65
1.09
2.68
4.06
5.1
5.71
5.86
5.56
4.93
4.06
3.07
2.11
1.29
0.76
0.6
0.82
1.3
1.84
2.2
2.21
1.84
1.18
0.35
-0.57
-1.6
-2.84
-4.33
-6.04
-7.85
-9.63
-11.29
-12.8
-14.15
-15.23
-15.8
-15.57
-14.34
-12.11
-9.16
-5.96
-2.97
-0.47
1.44
2.85
3.87
4.54
4.85
4.8
4.43
3.9
3.4
3.08
3
3.11
3.3
3.49
3.64
3.75
3.79
3.68
3.3
2.55
1.41
-0.05
-1.69
-3.35
-4.99
-6.61
-8.34
-10.25
-12.36
-14.55
-16.59
-18.2
-19.15
-19.28
-18.57
-17.12
-15.09
-12.74
-10.27
-7.93
-5.88
-4.22
-2.96
-2
-1.16
-0.24
0.93
2.44
4.26
6.25
8.21
9.97
11.44
12.6
13.5
14.2
14.67
14.85
14.68
14.17
13.39
12.46
11.46
10.4
9.22
7.81
6.12
4.17
2.02
-0.25
-2.53
-4.7
-6.56
-7.88
-8.39
-7.96
-6.63
-4.58
-2.11
0.44
2.78
4.75
6.25
7.29
7.93
8.25
8.35
8.28
8.07
7.71
7.22
6.66
6.11
5.67
5.41
5.3
5.28
5.25
5.14
4.93
4.62
4.23
3.79
3.25
2.59
1.73
0.65
-0.69
-2.29
-4.11
-6.07
-8.06
-9.96
-11.53
-12.58
-12.92
-12.44
-11.13
-9.13
-6.68
-4.09
-1.67
0.36
1.87
2.88
3.46
3.68
3.64
3.38
2.94
2.41
1.88
1.49
1.35
1.49
1.86
2.3
2.6
2.59
2.21
1.48
0.5
-0.62
-1.84
-3.16
-4.62
-6.24
-7.92
-9.55
-10.99
-12.21
-13.16
-13.81
-14.05
-13.71
-12.59
-10.61
-7.86
-4.54
-0.95
2.65
6.05
9.09
11.62
13.57
14.92
15.74
16.19
16.43
16.54
16.47
16.11
15.36
14.27
13.01
11.84
10.98
10.51
10.29
10.13
9.79
9.15
8.17
6.97
5.66
4.34
3.04
1.71
0.3
-1.31
-3.12
-5.08
-7.04
-8.68
-9.71
-9.83
-8.96
-7.18
-4.78
-2.1
0.54
2.87
4.74
6.09
6.93
7.28
7.27
7.02
6.67
6.35
6.12
5.99
5.99
6.08
6.21
6.26
6.05
5.48
4.53
3.38
2.26
1.4
0.83
0.44
-0.04
-0.85
-2.07
-3.65
-5.39
-7.06
-8.47
-9.47
-9.9
-9.66
-8.67
-6.95
-4.69
-2.18
0.31
2.57
4.55
6.27
7.76
8.97
9.77
10.06
9.8
9.15
8.37
7.75
7.46
7.53
7.85
8.24
8.55
8.72
8.75
8.66
8.48
8.18
7.71
6.94
5.69
3.77
1.01
-2.69
-7.2
-12.16
-16.99
-20.97
-23.36
-23.61
-21.52
-17.34
-11.68
-5.35
0.8
6.12
10.27
13.12
14.75
15.3
14.95
13.91
12.44
10.79
9.2
7.83
6.68
5.74
4.92
4.18
3.52
2.98
2.51
2.08
1.6
1.03
0.37
-0.35
-1.14
-2.04
-3.17
-4.6
-6.32
-8.17
-9.91
-11.31
-12.19
-12.51
-12.26
-11.48
-10.21
-8.5
-6.47
-4.33
-2.3
-0.59
0.72
1.65
2.31
2.82
3.28
3.69
4.07
4.43
4.83
5.4
6.16
7.05
7.85
8.26
8.1
7.38
6.36
5.38
4.67
4.22
3.81
3.09
1.85
0.08
-2.06
-4.34
-6.56
-8.56
-10.18
-11.2
-11.39
-10.65
-9.01
-6.76
-4.26
-1.92
0
1.44
2.45
3.18
3.71
4.1
4.3
4.31
4.11
3.77
3.41
3.14
3.02
3.03
3.07
3.11
3.13
3.18
3.31
3.52
3.71
3.7
3.34
2.5
1.2
-0.47
-2.31
-4.1
-5.63
-6.75
-7.36
-7.43
-6.97
-5.98
-4.52
-2.64
-0.49
1.68
3.59
5.03
5.91
6.27
6.21
5.89
5.4
4.8
4.15
3.49
2.92
2.51
2.29
2.26
2.34
2.49
2.64
2.76
2.83
2.82
2.67
2.32
1.7
0.75
-0.57
-2.29
-4.35
-6.63
-8.94
-10.97
-12.43
-13.05
-12.71
-11.45
-9.49
-7.15
-4.73
-2.47
-0.45
1.29
2.74
3.83
4.51
4.73
4.56
4.12
3.6
3.13
2.81
2.61
2.48
2.31
2.02
1.57
0.9
-0.01
-1.14
-2.39
-3.56
-4.47
-4.98
-5.15
-5.18
-5.39
-6.06
-7.3
-9.02
-10.99
-12.93
-14.61
-15.87
-16.59
-16.69
-16.11
-14.79
-12.71
-9.95
-6.69
-3.2
0.18
3.11
5.34
6.82
7.67
8.15
8.55
9.07
9.8
10.71
11.73
12.8
13.84
14.73
15.34
15.5
15.09
14.1
12.62
10.83
8.95
7.18
5.58
4.16
2.86
1.62
0.37
-0.94
-2.3
-3.74
-5.17
-6.45
-7.33
-7.52
-6.8
-5.13
-2.71
0.06
2.71
4.84
6.23
6.91
7.09
7.03
6.91
6.79
6.63
6.35
5.97
5.57
5.28
5.2
5.33
5.54
5.71
5.75
5.67
5.57
5.48
5.39
5.2
4.8
4.14
3.24
2.22
1.15
0.1
-1
-2.25
-3.72
-5.4
-7.13
-8.69
-9.82
-10.32
-10.09
-9.19
-7.82
-6.28
-4.86
-3.8
-3.18
-2.93
-2.84
-2.67
-2.27
-1.6
-0.76
0.09
0.85
1.48
2.03
2.54
3.01
3.35
3.46
3.25
2.68
1.76
0.52
-0.97
-2.61
-4.29
-5.9
-7.37
-8.67
-9.88
-11.01
-12.01
-12.68
-12.82
-12.29
-11.16
-9.63
-8.05
-6.66
-5.54
-4.61
-3.7
-2.69
-1.55
-0.4
0.67
1.54
2.13
2.36
2.14
1.38
0.08
-1.61
-3.43
-5.04
-6.19
-6.75
-6.74
-6.31
-5.67
-4.98
-4.42
-4.08
-4.01
-4.23
-4.64
-5.17
-5.67
-6.05
-6.16
-5.88
-5.07
-3.7
-1.83
0.31
2.42
4.16
5.37
6.07
6.4
6.54
6.6
6.56
6.35
5.94
5.36
4.71
4.13
3.63
3.2
2.76
2.24
1.66
1.1
0.64
0.32
0.14
-0
-0.21
-0.59
-1.23
-2.18
-3.49
-5.09
-6.8
-8.33
-9.31
-9.45
-8.62
-6.94
-4.72
-2.38
-0.24
1.54
2.93
3.94
4.58
4.78
4.47
3.66
2.48
1.14
-0.14
-1.19
-1.96
-2.46
-2.77
-3.03
-3.32
-3.7
-4.17
-4.7
-5.28
-5.89
-6.55
-7.31
-8.2
-9.21
-10.26
-11.2
-11.85
-12.03
-11.6
-10.5
-8.81
-6.69
-4.36
-2.03
0.15
2.14
3.94
5.54
6.85
7.77
8.21
8.18
7.77
7.13
6.42
5.79
5.33
5.05
4.94
4.87
4.74
4.43
3.93
3.29
2.57
1.76
0.79
-0.47
-2.12
-4.11
-6.29
-8.43
-10.35
-11.95
-13.16
-13.92
-14.12
-13.57
-12.16
-9.93
-7.09
-3.96
-0.82
2.09
4.69
6.95
8.85
10.36
11.45
12.14
12.51
12.7
12.85
13.03
13.24
13.42
13.5
13.44
13.31
13.23
13.31
13.62
14.08
14.47
14.53
14.05
12.95
11.39
9.57
7.75
6.04
4.5
3.1
1.81
0.71
-0.15
-0.74
-1.14
-1.56
-2.28
-3.54
-5.44
-7.82
-10.31
-12.4
-13.67
-13.94
-13.36
-12.3
-11.17
-10.19
-9.33
-8.36
-7.02
-5.23
-3.11
-0.92
1.14
3
4.77
6.56
8.44
10.31
11.96
13.16
13.82
13.97
13.77
13.47
13.24
13.25
13.51
13.95
14.33
14.39
13.87
12.67
10.89
8.77
6.59
4.52
2.6
0.72
-1.2
-3.17
-5.09
-6.85
-8.42
-9.89
-11.44
-13.26
-15.4
-17.74
-20.01
-21.83
-22.88
-22.93
-21.94
-20
-17.35
-14.27
-11.02
-7.83
-4.82
-2.06
0.49
2.88
5.12
7.2
9.01
10.45
11.42
11.9
11.98
11.82
11.61
11.46
11.43
11.48
11.53
11.5
11.37
11.14
10.87
10.57
10.24
9.81
9.17
8.28
7.12
5.79
4.43
3.15
2.01
0.98
-0.01
-0.99
-1.95
-2.83
-3.56
-4.12
-4.59
-5.19
-6.15
-7.65
-9.66
-11.93
-14.03
-15.46
-15.85
-15.1
-13.39
-11.06
-8.48
-5.87
-3.29
-0.73
1.84
4.33
6.59
8.51
10.02
11.17
12.08
12.83
13.4
13.72
13.69
13.32
12.75
12.18
11.84
11.79
11.99
12.21
12.23
11.87
11.15
10.2
9.23
8.43
7.88
7.53
7.22
6.76
5.97
4.8
3.3
1.64
-0
-1.45
-2.64
-3.62
-4.49
-5.39
-6.43
-7.64
-8.95
-10.2
-11.22
-11.84
-11.95
-11.55
-10.69
-9.51
-8.14
-6.7
-5.29
-3.96
-2.77
-1.71
-0.74
0.19
1.12
2.04
2.91
3.61
4.05
4.21
4.16
4.02
3.91
3.88
3.93
4.03
4.16
4.29
4.41
4.49
4.51
4.42
4.22
3.91
3.51
3.05
2.52
1.91
1.24
0.51
-0.2
-0.81
-1.28
-1.59
-1.81
-2.06
-2.45
-3.09
-4.02
-5.21
-6.54
-7.81
-8.8
-9.33
-9.31
-8.71
-7.65
-6.27
-4.75
-3.23
-1.81
-0.57
0.44
1.19
1.69
1.97
2.1
2.18
2.25
2.38
2.6
2.94
3.42
4.06
4.78
5.46
5.94
6.04
5.69
4.87
3.72
2.4
1.06
-0.2
-1.38
-2.44
-3.39
-4.22
-4.9
-5.41
-5.79
-6.08
-6.31
-6.5
-6.63
-6.68
-6.66
-6.63
-6.63
-6.71
-6.84
-6.93
-6.91
-6.7
-6.28
-5.64
-4.79
-3.74
-2.53
-1.26
-0.05
0.92
1.52
1.68
1.42
0.87
0.16
-0.49
-0.95
-1.08
-0.84
-0.26
0.57
1.47
2.23
2.67
2.67
2.25
1.56
0.83
0.3
0.11
0.2
0.38
0.39
0.11
-0.4
-0.93
-1.2
-1.1
-0.71
-0.28
-0.1
-0.33
-0.98
-1.96
-3.11
-4.31
-5.43
-6.32
-6.8
-6.68
-5.85
-4.32
-2.28
-0.01
2.16
3.9
5.03
5.56
5.63
5.52
5.43
5.47
5.58
5.65
5.56
5.3
4.95
4.63
4.42
4.32
4.3
4.32
4.39
4.52
4.72
4.92
5.02
4.92
4.52
3.79
2.76
1.51
0.14
-1.23
-2.52
-3.7
-4.77
-5.72
-6.56
-7.28
-7.9
-8.45
-8.97
-9.42
-9.71
-9.68
-9.18
-8.13
-6.6
-4.72
-2.73
-0.81
0.94
2.49
3.88
5.09
6.05
6.59
6.53
5.74
4.21
2.11
-0.27
-2.59
-4.63
-6.3
-7.7
-8.96
-10.15
-11.26
-12.19
-12.88
-13.33
-13.6
-13.76
-13.88
-13.98
-14.13
-14.46
-15.07
-16
-17.07
-17.9
-18.1
-17.45
-16.05
-14.3
-12.72
-11.71
-11.39
-11.57
-11.87
-11.9
-11.48
-10.56
-9.3
-7.87
-6.31
-4.58
-2.58
-0.26
2.27
4.7
6.65
7.83
8.14
7.8
7.17
6.63
6.43
6.57
6.93
7.32
7.64
7.89
8.14
8.42
8.72
8.89
8.81
8.38
7.67
6.86
6.12
5.57
5.15
4.72
4.1
3.16
1.92
0.53
-0.81
-1.93
-2.81
-3.51
-4.21
-5.01
-5.96
-6.92
-7.7
-8.1
-7.99
-7.33
-6.17
-4.62
-2.8
-0.79
1.26
3.18
4.8
5.93
6.46
6.4
5.9
5.14
4.32
3.56
2.9
2.32
1.79
1.31
0.89
0.56
0.35
0.25
0.24
0.29
0.37
0.46
0.52
0.51
0.35
0.01
-0.53
-1.21
-1.95
-2.66
-3.32
-3.97
-4.72
-5.7
-7
-8.6
-10.33
-11.94
-13.09
-13.57
-13.25
-12.17
-10.48
-8.35
-5.95
-3.46
-1.03
1.17
2.94
4.15
4.77
4.88
4.71
4.53
4.55
4.86
5.41
5.99
6.42
6.58
6.43
6.07
5.57
5
4.36
3.63
2.75
1.74
0.63
-0.52
-1.64
-2.65
-3.52
-4.21
-4.75
-5.24
-5.83
-6.69
-7.96
-9.65
-11.63
-13.6
-15.15
-15.86
-15.44
-13.85
-11.31
-8.19
-4.88
-1.69
1.25
3.87
6.12
7.92
9.13
9.7
9.67
9.2
8.51
7.83
7.32
7.03
7
7.19
7.53
7.95
8.34
8.59
8.61
8.37
7.88
7.16
6.19
4.94
3.36
1.49
-0.56
-2.55
-4.26
-5.57
-6.51
-7.29
-8.22
-9.53
-11.26
-13.15
-14.77
-15.62
-15.4
-14.07
-11.86
-9.2
-6.45
-3.87
-1.5
0.67
2.63
4.28
5.44
5.97
5.91
5.44
4.81
4.27
3.96
3.91
4.11
4.53
5.15
5.93
6.8
7.63
8.3
8.69
8.77
8.53
7.99
7.16
6.02
4.6
2.94
1.21
-0.46
-1.95
-3.27
-4.54
-5.95
-7.59
-9.43
-11.21
-12.52
-12.94
-12.24
-10.48
-8
-5.26
-2.66
-0.42
1.47
3.13
4.67
6.05
7.14
7.74
7.78
7.35
6.73
6.26
6.15
6.4
6.85
7.29
7.55
7.6
7.53
7.38
7.14
6.67
5.86
4.7
3.31
1.87
0.51
-0.79
-2.18
-3.78
-5.66
-7.74
-9.85
-11.76
-13.26
-14.13
-14.18
-13.28
-11.42
-8.79
-5.68
-2.48
0.53
3.19
5.47
7.39
8.91
9.93
10.39
10.29
9.82
9.24
8.81
8.68
8.84
9.21
9.72
10.32
11.01
11.69
12.16
12.17
11.49
10.05
7.97
5.49
2.87
0.26
-2.3
-4.88
-7.52
-10.2
-12.8
-15.16
-17.05
-18.26
-18.59
-17.85
-15.98
-13.05
-9.27
-4.97
-0.58
3.51
6.95
9.52
11.09
11.68
11.45
10.65
9.55
8.38
7.3
6.37
5.59
4.96
4.5
4.16
3.92
3.62
3.13
2.31
1.13
-0.34
-1.96
-3.57
-5.09
-6.48
-7.84
-9.28
-10.88
-12.68
-14.56
-16.34
-17.79
-18.7
-18.88
-18.25
-16.78
-14.43
-11.32
-7.63
-3.68
0.17
3.63
6.55
8.96
10.98
12.75
14.3
15.57
16.45
16.89
16.92
16.66
16.28
15.93
15.77
15.83
16.11
16.47
16.72
16.65
16.14
15.19
13.89
12.38
10.74
8.99
7.02
4.83
2.44
-0.11
-2.72
-5.39
-8.06
-10.68
-13.03
-14.81
-15.67
-15.42
-14.05
-11.77
-8.93
-5.85
-2.79
0.11
2.77
5.11
7.04
8.46
9.35
9.74
9.79
9.67
9.57
9.63
9.84
10.16
10.49
10.77
10.97
11.13
11.28
11.41
11.47
11.31
10.8
9.81
8.33
6.48
4.46
2.48
0.7
-0.83
-2.22
-3.67
-5.36
-7.42
-9.82
-12.35
-14.69
-16.51
-17.52
-17.51
-16.41
-14.29
-11.32
-7.78
-3.98
-0.25
3.12
5.89
7.91
9.12
9.54
9.32
8.7
8.01
7.55
7.48
7.77
8.19
8.47
8.41
7.95
7.21
6.3
5.29
4.19
3.01
1.82
0.83
0.21
0.04
0.26
0.69
1.11
1.45
1.74
2.02
2.3
2.45
2.28
1.64
0.6
-0.58
-1.49
-1.79
-1.34
-0.26
1.17
2.66
4.13
5.66
7.43
9.56
11.87
13.96
15.37
15.74
15.1
13.79
12.4
11.49
11.38
12.02
13.08
14.06
14.54
14.32
13.46
12.25
11.03
10.07
9.5
9.3
9.3
9.19
8.48
6.56
2.86
-2.82
-10.07
-17.78
-24.57
-29.22
-31.22
-30.86
-28.99
-26.47
-23.73
-20.64
-16.83
-12.16
-6.99
-2.19
1.33
3.02
3
1.93
0.65
-0.22
-0.49
-0.41
-0.35
-0.55
-0.95
-1.28
-1.26
-0.71
0.27
1.4
2.37
2.98
3.21
3.21
3.14
3.16
3.31
3.57
3.84
4.02
4.01
3.76
3.21
2.34
1.15
-0.27
-1.79
-3.19
-4.26
-4.79
-4.65
-3.79
-2.25
-0.15
2.3
4.82
7.09
8.83
9.84
10.12
9.83
9.22
8.54
7.94
7.42
6.92
6.39
5.86
5.38
5.06
4.93
4.94
4.97
4.92
4.72
4.36
3.87
3.31
2.69
2.04
1.35
0.61
-0.19
-1.06
-2
-3.01
-4.06
-5.14
-6.19
-7.1
-7.68
-7.75
-7.17
-5.93
-4.17
-2.13
-0.06
1.87
3.57
5.04
6.24
7.08
7.48
7.41
6.95
6.32
5.78
5.5
5.49
5.55
5.45
5.02
4.27
3.36
2.5
1.83
1.39
1.02
0.56
-0.11
-1.03
-2.13
-3.28
-4.34
-5.26
-6.06
-6.75
-7.41
-8.08
-8.83
-9.75
-10.89
-12.23
-13.68
-14.95
-15.74
-15.79
-15
-13.47
-11.47
-9.28
-7.08
-4.99
-3.02
-1.17
0.49
1.83
2.72
3.13
3.14
2.99
2.94
3.18
3.75
4.52
5.23
5.65
5.71
5.51
5.25
5.06
4.97
4.87
4.63
4.2
3.68
3.27
3.14
3.3
3.61
3.85
3.8
3.33
2.47
1.34
0.08
-1.15
-2.25
-3.19
-4.02
-4.85
-5.81
-6.97
-8.28
-9.61
-10.73
-11.4
-11.43
-10.74
-9.36
-7.46
-5.32
-3.28
-1.61
-0.46
0.19
0.51
0.7
0.92
1.2
1.48
1.65
1.69
1.63
1.49
1.32
1.11
0.83
0.45
0.04
-0.31
-0.48
-0.41
-0.14
0.2
0.48
0.56
0.35
-0.22
-1.13
-2.36
-3.78
-5.25
-6.59
-7.62
-8.24
-8.42
-8.26
-7.89
-7.51
-7.31
-7.42
-7.88
-8.58
-9.29
-9.66
-9.4
-8.37
-6.64
-4.49
-2.24
-0.16
1.65
3.19
4.49
5.53
6.24
6.53
6.43
6.05
5.59
5.19
4.9
4.71
4.6
4.52
4.48
4.45
4.4
4.36
4.34
4.41
4.56
4.76
4.83
4.63
4.08
3.26
2.34
1.5
0.82
0.24
-0.39
-1.23
-2.29
-3.49
-4.66
-5.66
-6.52
-7.33
-8.2
-9.12
-9.95
-10.42
-10.32
-9.55
-8.22
-6.6
-4.96
-3.5
-2.28
-1.23
-0.31
0.51
1.17
1.55
1.59
1.32
0.86
0.38
0.1
0.14
0.52
1.14
1.82
2.35
2.61
2.56
2.27
1.84
1.38
0.88
0.3
-0.41
-1.26
-2.12
-2.84
-3.23
-3.27
-3.02
-2.69
-2.49
-2.53
-2.87
-3.47
-4.33
-5.44
-6.81
-8.34
-9.81
-10.89
-11.28
-10.9
-9.84
-8.36
-6.72
-5.07
-3.43
-1.77
-0.05
1.65
3.23
4.55
5.53
6.21
6.66
6.96
7.17
7.33
7.42
7.41
7.26
6.93
6.41
5.74
5
4.29
3.64
3.01
2.27
1.32
0.13
-1.19
-2.4
-3.21
-3.5
-3.34
-2.98
-2.79
-3.01
-3.63
-4.42
-5.04
-5.18
-4.74
-3.83
-2.69
-1.54
-0.46
0.65
1.97
3.67
5.88
8.62
11.78
15.1
18.08
20.04
20.19
17.94
13.2
6.47
-1.15
-8.35
-13.98
-17.4
-18.55
-17.83
-15.85
-13.18
-10.25
-7.36
-4.74
-2.65
-1.34
-1.04
-1.82
-3.53
-5.74
-7.94
-9.62
-10.59
-10.93
-10.99
-11.15
-11.66
-12.42
-13.15
-13.45
-13.05
-11.9
-10.17
-8.13
-6.09
-4.27
-2.78
-1.62
-0.71
0.03
0.69
1.24
1.58
1.62
1.33
0.78
0.16
-0.36
-0.66
-0.73
-0.67
-0.59
-0.55
-0.54
-0.53
-0.54
-0.67
-0.98
-1.54
-2.3
-3.18
-4.09
-4.93
-5.7
-6.42
-7.14
-7.87
-8.64
-9.38
-9.97
-10.22
-9.93
-8.97
-7.33
-5.25
-3.04
-1.06
0.46
1.49
2.16
2.67
3.16
3.63
3.98
4.11
3.99
3.65
3.26
2.9
2.62
2.41
2.17
1.82
1.29
0.58
-0.25
-1.09
-1.81
-2.33
-2.69
-3.01
-3.51
-4.36
-5.6
-7.11
-8.61
-9.83
-10.54
-10.62
-10.1
-9.06
-7.61
-5.81
-3.73
-1.47
0.82
2.93
4.69
6
6.86
7.33
7.49
7.35
6.93
6.21
5.32
4.46
3.87
3.72
3.98
4.48
4.87
4.88
4.36
3.42
2.29
1.2
0.26
-0.62
-1.6
-2.84
-4.35
-5.97
-7.46
-8.55
-9.08
-8.95
-8.17
-6.76
-4.8
-2.43
0.14
2.63
4.83
6.56
7.81
8.57
8.86
8.7
8.15
7.34
6.47
5.76
5.34
5.18
5.15
5.05
4.74
4.18
3.45
2.63
1.82
1.06
0.34
-0.4
-1.25
-2.29
-3.55
-5
-6.55
-8.06
-9.31
-10.11
-10.31
-9.83
-8.67
-6.9
-4.64
-2.07
0.63
3.25
5.6
7.49
8.8
9.51
9.72
9.59
9.29
8.95
8.57
8.1
7.51
6.82
6.11
5.49
5.03
4.73
4.56
4.43
4.27
4.03
3.66
3.15
2.45
1.51
0.32
-1.11
-2.7
-4.36
-6.01
-7.59
-9.05
-10.32
-11.3
-11.83
-11.74
-10.9
-9.29
-7.02
-4.35
-1.61
0.89
2.89
4.27
5.02
5.21
5.07
4.83
4.79
5.14
6
7.33
8.92
10.54
11.9
12.86
13.37
13.48
13.3
12.93
12.43
11.82
11.1
10.3
9.46
8.66
7.94
7.27
6.52
5.52
4.16
2.39
0.31
-1.83
-3.76
-5.16
-5.8
-5.6
-4.64
-3.07
-1.14
0.88
2.79
4.46
5.81
6.82
7.47
7.78
7.79
7.57
7.19
6.7
6.16
5.59
5.02
4.49
4.05
3.73
3.52
3.38
3.27
3.13
2.92
2.62
2.21
1.68
1.05
0.32
-0.46
-1.26
-2.07
-2.94
-3.92
-5.04
-6.26
-7.42
-8.31
-8.62
-8.21
-7.06
-5.33
-3.3
-1.28
0.56
2.13
3.44
4.46
5.09
5.21
4.77
3.87
2.8
1.9
1.4
1.39
1.72
2.1
2.31
2.23
1.93
1.62
1.46
1.53
1.71
1.78
1.55
0.96
0.11
-0.82
-1.69
-2.49
-3.35
-4.4
-5.7
-7.17
-8.6
-9.8
-10.62
-11.01
-10.99
-10.57
-9.77
-8.61
-7.11
-5.31
-3.31
-1.21
0.81
2.58
3.99
5.04
5.83
6.53
7.24
7.96
8.57
8.9
8.85
8.49
7.99
7.55
7.3
7.21
7.15
6.96
6.52
5.85
5.04
4.21
3.44
2.7
1.92
1
-0.1
-1.35
-2.66
-3.97
-5.24
-6.38
-7.32
-7.95
-8.11
-7.75
-6.89
-5.65
-4.18
-2.57
-0.82
1.14
3.25
5.35
7.1
8.06
7.9
6.58
4.46
2.2
0.57
0.19
1.27
3.56
6.44
9.19
11.27
12.45
12.78
12.49
11.82
10.97
10.06
9.16
8.36
7.72
7.22
6.76
6.17
5.3
4.05
2.44
0.65
-1.03
-2.28
-2.83
-2.59
-1.68
-0.44
0.78
1.63
1.95
1.72
1.04
0.05
-1.09
-2.26
-3.35
-4.27
-4.99
-5.47
-5.73
-5.73
-5.42
-4.75
-3.75
-2.54
-1.37
-0.53
-0.21
-0.46
-1.17
-2.09
-2.94
-3.52
-3.79
-3.83
-3.83
-4.02
-4.58
-5.63
-7.16
-9.02
-10.93
-12.5
-13.37
-13.27
-12.18
-10.28
-7.91
-5.45
-3.18
-1.2
0.49
1.92
3.1
3.97
4.42
4.44
4.13
3.67
3.3
3.15
3.17
3.2
3.1
2.79
2.31
1.8
1.31
0.83
0.29
-0.4
-1.2
-2.03
-2.76
-3.34
-3.85
-4.39
-5.06
-5.87
-6.77
-7.7
-8.64
-9.55
-10.3
-10.77
-10.77
-10.18
-9.03
-7.52
-5.93
-4.51
-3.42
-2.64
-2.12
-1.75
-1.47
-1.26
-1.12
-1.06
-1.12
-1.33
-1.69
-2.19
-2.73
-3.17
-3.41
-3.42
-3.23
-2.94
-2.67
-2.5
-2.47
-2.56
-2.72
-2.87
-2.97
-3
-2.97
-2.91
-2.84
-2.78
-2.75
-2.78
-2.9
-3.17
-3.58
-4.04
-4.38
-4.41
-4.02
-3.21
-2.1
-0.86
0.34
1.38
2.16
2.63
2.75
2.56
2.18
1.84
1.73
2.02
2.66
3.51
4.38
5.12
5.69
6.11
6.46
6.72
6.84
6.71
6.25
5.47
4.46
3.37
2.35
1.51
0.84
0.25
-0.4
-1.23
-2.27
-3.45
-4.59
-5.53
-6.16
-6.44
-6.4
-6.05
-5.39
-4.37
-3.02
-1.38
0.45
2.29
3.99
5.39
6.37
6.91
7
6.74
6.25
5.71
5.27
5.04
5.02
5.15
5.29
5.3
5.06
4.54
3.81
3.01
2.34
1.93
1.78
1.75
1.6
1.09
0.11
-1.28
-2.93
-4.61
-6.1
-7.22
-7.81
-7.78
-7.06
-5.69
-3.86
-1.87
-0.07
1.34
2.28
2.83
3.17
3.37
3.45
3.31
2.9
2.19
1.33
0.52
-0.03
-0.2
0.02
0.5
1.02
1.44
1.63
1.59
1.42
1.25
1.15
1.09
0.93
0.49
-0.38
-1.69
-3.34
-5.13
-6.84
-8.28
-9.31
-9.82
-9.78
-9.15
-8.02
-6.46
-4.66
-2.82
-1.06
0.54
1.97
3.18
4.1
4.59
4.45
3.52
1.76
-0.63
-3.29
-5.73
-7.6
-8.73
-9.2
-9.28
-9.23
-9.17
-9.07
-8.83
-8.34
-7.62
-6.81
-6.11
-5.65
-5.53
-5.76
-6.33
-7.21
-8.34
-9.6
-10.72
-11.39
-11.38
-10.55
-8.99
-6.91
-4.59
-2.25
-0.09
1.78
3.29
4.37
5.05
5.31
5.26
4.98
4.64
4.35
4.24
4.35
4.65
5.09
5.62
6.2
6.8
7.36
7.76
7.88
7.63
7.04
6.26
5.45
4.73
4.05
3.27
2.27
0.95
-0.65
-2.45
-4.34
-6.22
-7.93
-9.24
-9.85
-9.54
-8.27
-6.24
-3.8
-1.35
0.8
2.46
3.59
4.28
4.6
4.68
4.62
4.56
4.55
4.64
4.76
4.86
4.88
4.85
4.8
4.81
4.89
4.96
4.91
4.66
4.22
3.68
3.12
2.58
2.01
1.28
0.32
-0.87
-2.15
-3.38
-4.47
-5.43
-6.34
-7.22
-8.03
-8.6
-8.71
-8.24
-7.2
-5.67
-3.77
-1.64
0.63
2.87
4.9
6.55
7.72
8.42
8.78
8.95
9.05
9.07
8.96
8.7
8.35
8.02
7.82
7.8
7.92
8.04
8.04
7.83
7.38
6.72
5.9
4.95
3.88
2.7
1.41
0.05
-1.33
-2.68
-3.98
-5.19
-6.29
-7.28
-8.14
-8.79
-9.09
-8.91
-8.19
-6.96
-5.33
-3.48
-1.58
0.25
1.92
3.33
4.38
4.93
4.95
4.51
3.8
3.09
2.64
2.55
2.79
3.24
3.75
4.25
4.75
5.25
5.78
6.25
6.52
6.41
5.84
4.84
3.58
2.28
1.14
0.23
-0.53
-1.26
-2.09
-3.09
-4.24
-5.51
-6.84
-8.19
-9.5
-10.64
-11.4
-11.59
-11.09
-9.88
-8.06
-5.83
-3.37
-0.93
1.29
3.1
4.37
5.09
5.33
5.25
5.02
4.79
4.65
4.68
4.83
5.07
5.32
5.52
5.62
5.61
5.5
5.33
5.13
4.91
4.71
4.59
4.61
4.77
5
5.17
5.13
4.84
4.33
3.76
3.26
2.83
2.31
1.46
0.13
-1.59
-3.34
-4.6
-4.89
-3.99
-2.02
0.65
3.54
6.28
8.62
10.45
11.75
12.49
12.65
12.29
11.53
10.55
9.53
8.57
7.67
6.77
5.78
4.66
3.44
2.21
1.13
0.27
-0.36
-0.84
-1.33
-2
-2.93
-4.04
-5.2
-6.22
-6.98
-7.49
-7.87
-8.3
-8.99
-10.08
-11.62
-13.5
-15.51
-17.3
-18.46
-18.64
-17.67
-15.6
-12.72
-9.47
-6.28
-3.46
-1.16
0.67
2.15
3.42
4.56
5.56
6.37
6.98
7.4
7.7
7.98
8.32
8.74
