-13.79
-16
-18.53
-21.66
-25.48
-29.8
-34.18
-37.98
-40.36
-40.53
-37.88
-32.27
-24.1
-14.3
-4.12
5.26
12.92
18.52
22.15
24.24
25.3
25.73
25.75
25.45
24.9
24.13
23.28
22.46
21.82
21.42
21.26
21.3
21.47
21.66
21.71
21.42
20.62
19.23
17.28
14.96
12.48
10.02
7.63
5.23
2.67
-0.16
-3.24
-6.42
-9.49
-12.32
-14.93
-17.5
-20.33
-23.67
-27.62
-32.09
-36.74
-40.92
-43.82
-44.55
-42.37
-37.02
-28.84
-18.77
-8.12
1.77
9.96
16.02
20.01
22.31
23.4
23.61
23.18
22.28
21.07
19.81
18.76
18.16
18.15
18.71
19.64
20.63
21.37
21.62
21.25
20.27
18.78
16.94
14.86
12.58
10.1
7.37
4.39
1.24
-1.92
-4.91
-7.59
-9.95
-12.1
-14.17
-16.33
-18.71
-21.41
-24.52
-28.05
-31.79
-35.27
-37.71
-38.26
-36.28
-31.59
-24.63
-16.28
-7.64
0.37
7.14
12.47
16.39
19.03
20.51
20.93
20.37
18.99
17.06
14.91
12.94
11.52
10.86
10.99
11.78
12.87
13.92
14.65
14.98
14.92
14.52
13.72
12.35
10.22
7.31
3.83
0.25
-2.97
-5.63
-7.82
-9.96
-12.51
-15.79
-19.86
-24.54
-29.47
-34.12
-37.84
-39.8
-39.23
-35.66
-29.16
-20.49
-10.83
-1.52
6.44
12.53
16.74
19.4
20.9
21.58
21.59
21.04
19.98
18.62
17.18
16
15.35
15.34
15.86
16.61
17.24
17.43
17.12
16.37
15.34
14.12
12.68
10.94
8.8
6.25
3.39
0.37
-2.63
-5.49
-8.13
-10.56
-12.83
-15.12
-17.67
-20.86
-24.93
-29.85
-35.05
-39.47
-41.8
-40.94
-36.5
-28.93
-19.48
-9.63
-0.65
6.73
12.4
16.52
19.36
21.05
21.67
21.33
20.29
18.88
17.5
16.4
15.67
15.27
15.05
14.83
14.48
13.87
13.06
12.12
11.2
10.37
9.62
8.8
7.64
5.9
3.42
0.31
-3.17
-6.62
-9.78
-12.57
-15.16
-17.93
-21.22
-25.22
-29.83
-34.63
-38.86
-41.67
-42.16
-39.7
-34.09
-25.77
-15.77
-5.44
3.94
11.48
16.87
20.24
21.98
22.4
21.76
20.3
18.4
16.51
15.14
14.58
14.8
15.49
16.17
16.48
16.29
15.74
15.07
14.42
13.81
13.01
11.71
9.65
6.73
3.09
-0.99
-5.08
-8.8
-11.9
-14.32
-16.28
-18.17
-20.5
-23.68
-27.87
-32.74
-37.45
-40.82
-41.68
-39.24
-33.4
-24.81
-14.7
-4.51
4.59
11.91
17.25
20.72
22.59
23.07
22.41
20.91
18.96
17.04
15.48
14.4
13.7
13.13
12.52
11.87
11.35
11.08
11.08
11.11
10.8
9.84
8.06
5.52
2.45
-0.85
-4.13
-7.24
-10.14
-12.89
-15.64
-18.69
-22.3
-26.62
-31.41
-36.07
-39.55
-40.71
-38.66
-33.09
-24.46
-13.91
-2.93
7.08
15.12
20.82
24.26
25.79
25.89
24.95
23.33
21.35
19.32
17.51
16.06
15
14.19
13.44
12.59
11.6
10.57
9.68
9.08
8.71
8.31
7.43
5.75
3.15
-0.2
-3.83
-7.29
-10.26
-12.7
-14.83
-17.02
-19.65
-23.04
-27.24
-31.96
-36.5
-39.83
-40.85
-38.74
-33.28
-24.97
-14.93
-4.52
5.03
12.87
18.62
22.33
24.3
24.93
24.6
23.62
22.26
20.75
19.27
18.02
17.14
16.67
16.52
16.49
16.38
16.06
15.54
14.89
14.18
13.33
12.1
10.21
7.51
4.05
0.1
-3.93
-7.74
-11.2
-14.37
-17.47
-20.76
-24.4
-28.46
-32.8
-36.99
-40.31
-41.81
-40.61
-36.23
-28.85
-19.28
-8.8
1.27
9.92
16.58
21.16
23.81
24.82
24.49
23.15
21.17
18.94
16.81
14.98
13.52
12.39
11.53
10.93
10.66
10.76
11.14
11.64
11.9
11.61
10.54
8.68
6.15
3.17
-0.02
-3.28
-6.48
-9.66
-12.9
-16.36
-20.19
-24.49
-29.07
-33.47
-36.89
-38.37
-37.09
-32.65
-25.28
-15.83
-5.56
4.24
12.51
18.68
22.68
24.74
25.23
24.58
23.14
21.26
19.23
17.29
15.61
14.23
13.17
12.39
11.81
11.35
10.92
10.41
9.71
8.7
7.3
5.47
3.27
0.74
-1.99
-4.81
-7.64
-10.48
-13.43
-16.67
-20.39
-24.63
-29.25
-33.77
-37.39
-39.18
-38.28
-34.21
-27.07
-17.6
-7.02
3.35
12.37
19.37
24.14
26.85
27.88
27.68
26.68
25.26
23.71
22.24
20.94
19.8
18.76
17.76
16.75
15.74
14.75
13.81
12.92
12.03
10.97
9.53
7.49
4.75
1.38
-2.34
-6.07
-9.49
-12.47
-15.12
-17.77
-20.83
-24.64
-29.21
-34.16
-38.57
-41.27
-41.14
-37.54
-30.55
-21.02
-10.29
0.23
9.47
16.88
22.34
26.02
28.14
28.88
28.43
27.01
25.02
22.93
21.17
20.02
19.44
19.23
19.05
18.68
18.04
17.21
16.34
15.51
14.62
13.45
11.77
9.41
6.44
3
-0.63
-4.2
-7.55
-10.68
-13.69
-16.78
-20.2
-24.08
-28.45
-33.15
-37.69
-41.31
-43
-41.86
-37.4
-29.85
-20.09
-9.47
0.67
9.31
15.97
20.66
23.6
25.06
25.27
24.45
22.86
20.86
18.89
17.29
16.29
15.89
15.91
16.04
16.03
15.74
15.2
14.58
13.98
13.36
12.53
11.18
9.06
6.13
2.56
-1.31
-5.09
-8.56
-11.69
-14.73
-18.07
-22.09
-26.95
-32.41
-37.79
-42.02
-43.99
-42.81
-38.12
-30.26
-20.16
-9.16
1.37
10.31
17.05
21.46
23.85
24.71
24.5
23.53
21.97
19.99
17.82
15.77
14.16
13.23
13
13.33
13.97
14.67
15.25
15.57
15.5
14.82
13.36
11.05
7.96
4.36
0.59
-3.05
-6.5
-9.88
-13.54
-17.81
-22.88
-28.53
-34.08
-38.46
-40.46
-39.14
-34.2
-26.15
-16.17
-5.75
3.78
11.57
17.35
21.31
23.75
24.99
25.22
24.59
23.32
21.71
20.09
18.71
17.71
17.03
16.52
15.97
15.21
14.24
13.14
12.11
11.23
10.46
9.53
8.09
5.8
2.67
-1.07
-4.97
-8.6
-11.85
-14.83
-17.89
-21.36
-25.39
-29.89
-34.46
-38.43
-41
-41.33
-38.81
-33.27
-25.13
-15.36
-5.2
4.16
11.92
17.82
21.9
24.44
25.66
25.75
24.93
23.55
22.04
20.82
20.11
19.85
19.78
19.55
18.96
18
16.86
15.69
14.58
13.44
12.12
10.43
8.3
5.76
2.88
-0.24
-3.5
-6.79
-10.03
-13.23
-16.5
-20.09
-24.27
-29.15
-34.54
-39.81
-44.01
-46.09
-45.24
-41.13
-34.12
-25
-14.9
-4.87
4.24
11.91
17.86
22.03
24.53
25.53
25.33
24.33
22.95
21.57
20.41
19.55
18.91
18.28
17.43
16.25
14.73
13.04
11.4
9.94
8.65
7.31
5.62
3.37
0.58
-2.53
-5.6
-8.35
-10.7
-12.82
-15.12
-18.07
-21.99
-26.8
-31.97
-36.59
-39.54
-39.87
-37.03
-31.11
-22.73
-12.98
-3.06
5.93
13.22
18.4
21.4
22.41
21.8
20.03
17.62
15.07
12.81
11.11
10.03
9.4
8.92
8.34
7.53
6.59
5.67
4.9
4.2
3.4
2.22
0.51
-1.69
-4.17
-6.64
-8.93
-11.03
-13.14
-15.57
-18.63
-22.5
-27.06
-31.89
-36.18
-38.91
-39.11
-36.12
-29.9
-21.06
-10.82
-0.61
8.27
15.06
19.58
22.18
23.47
23.98
23.98
23.5
22.46
20.85
18.84
16.73
14.86
13.46
12.55
12.04
11.72
11.41
10.94
10.14
8.87
7.01
4.53
1.55
-1.79
-5.38
-9.16
-13.21
-17.64
-22.48
-27.69
-32.95
-37.74
-41.23
-42.53
-40.86
-35.93
-28.08
-18.27
-7.81
2.01
10.3
16.69
21.21
24.08
25.51
25.61
24.57
22.67
20.34
18.06
16.2
14.87
13.94
13.2
12.44
11.6
10.68
9.68
8.56
7.16
5.38
3.17
0.64
-2.07
-4.76
-7.42
-10.17
-13.27
-16.98
-21.5
-26.78
-32.39
-37.58
-41.3
-42.56
-40.6
-35.31
-27.22
-17.37
-7.07
2.54
10.67
16.99
21.48
24.34
25.79
25.99
25.19
23.67
21.79
19.95
18.48
17.57
17.22
17.26
17.39
17.34
16.93
16.1
14.88
13.34
11.51
9.37
6.91
4.14
1.13
-2.07
-5.46
-9.16
-13.38
-18.29
-23.81
-29.52
-34.58
-38.01
-38.87
-36.63
-31.34
-23.58
-14.36
-4.78
4.18
11.82
17.77
21.91
24.33
25.25
25
24
22.65
21.29
20.07
19
17.97
16.93
15.94
15.16
14.7
14.51
14.28
13.63
12.25
10.03
7.18
4.05
0.95
-1.98
-4.84
-7.86
-11.33
-15.43
-20.24
-25.66
-31.36
-36.71
-40.77
-42.57
-41.34
-36.84
-29.47
-20.2
-10.27
-0.84
7.29
13.72
18.41
21.47
23.12
23.55
22.95
21.54
19.58
17.38
15.26
13.48
12.19
11.42
11.06
10.97
10.96
10.84
10.34
9.23
7.27
4.45
0.96
-2.9
-6.78
-10.47
-14
-17.57
-21.45
-25.79
-30.57
-35.52
-40.04
-43.28
-44.26
-42.14
-36.58
-27.93
-17.32
-6.27
3.7
11.64
17.23
20.8
22.85
23.8
23.89
23.17
21.75
19.89
17.97
16.33
15.16
14.45
14.04
13.75
13.38
12.8
11.86
10.41
8.32
5.62
2.51
-0.77
-3.99
-7.08
-10.14
-13.41
-17.1
-21.35
-26.15
-31.28
-36.3
-40.49
-42.93
-42.7
-39.2
-32.4
-22.97
-12.17
-1.45
7.94
15.3
20.48
23.7
25.38
25.95
25.79
25.22
24.5
23.75
22.99
22.12
21.09
19.99
18.99
18.35
18.11
18.1
17.92
17.17
15.63
13.32
10.47
7.34
4.12
0.86
-2.48
-6.02
-9.85
-14.11
-18.88
-24.07
-29.28
-33.68
-36.17
-35.63
-31.42
-23.57
-12.91
-0.81
11.26
22.1
31.07
37.98
43
46.34
48.22
48.72
47.97
46.16
43.49
40.18
36.39
32.25
27.87
23.4
19.01
14.84
10.98
7.39
3.91
0.35
-3.47
-7.62
-12.05
-16.61
-21.03
-25.08
-28.66
-31.89
-35.11
-38.81
-43.32
-48.6
-54.07
-58.62
-60.84
-59.6
-54.3
-45.26
-33.53
-20.65
-8.14
2.85
11.7
18.3
22.84
25.63
26.96
27.08
26.25
24.76
22.92
20.96
19.08
17.39
15.98
14.94
14.29
13.99
13.8
13.39
12.4
10.64
8.17
5.2
2.05
-1.1
-4.23
-7.42
-10.88
-14.78
-19.34
-24.67
-30.68
-36.85
-42.2
-45.39
-45.15
-40.79
-32.52
-21.49
-9.43
1.96
11.49
18.63
23.52
26.58
28.23
28.75
28.21
26.71
24.43
21.66
18.84
16.34
14.39
13
12.02
11.17
10.26
9.24
8.08
6.82
5.46
3.88
1.94
-0.45
-3.34
-6.76
-10.71
-15.29
-20.51
-26.21
-31.88
-36.59
-39.17
-38.53
-34.13
-26.17
-15.69
-4.17
6.89
16.35
23.68
28.76
31.79
32.97
32.46
30.44
27.22
23.31
19.33
15.89
13.3
11.58
10.43
9.4
8.12
6.4
4.35
2.2
0.21
-1.55
-3.22
-5.2
-7.88
-11.58
-16.39
-22.11
-28.32
-34.32
-39.27
-42.17
-42.13
-38.63
-31.74
-22.16
-11.15
-0.1
9.89
18.15
24.52
29.12
32.04
33.32
32.95
31.05
28
24.44
21
18.14
15.99
14.36
12.95
11.49
9.89
8.23
6.66
5.23
3.91
2.56
0.92
-1.23
-4.17
-8.15
-13.33
-19.71
-26.92
-34.09
-40
-43.26
-42.79
-38.12
-29.7
-18.71
-6.74
4.67
14.43
22.04
27.46
30.95
32.78
33.22
32.42
30.54
27.8
24.47
20.92
17.55
14.66
12.45
10.87
9.68
8.51
7.02
5.04
2.62
0.01
-2.57
-5.02
-7.45
-10.12
-13.36
-17.41
-22.42
-28.29
-34.68
-40.94
-46.11
-49.04
-48.6
-44.1
-35.57
-23.86
-10.45
2.96
14.91
24.52
31.49
35.95
38.23
38.68
37.63
35.42
32.47
29.2
26.05
23.28
21
19.14
17.57
16.12
14.66
13.08
11.33
9.32
7.04
4.42
1.4
-2.02
-5.84
-10.05
-14.56
-19.35
-24.48
-30.05
-36.07
-42.24
-47.8
-51.57
-52.24
-48.86
-41.23
-30.07
-16.85
-3.31
8.96
18.96
26.31
31.14
33.78
34.56
33.76
31.62
28.44
24.66
20.74
17.2
14.4
12.51
11.51
11.17
11.24
11.32
11.1
10.26
8.62
6.18
3.09
-0.37
-3.95
-7.55
-11.25
-15.29
-20
-25.55
-31.81
-38.2
-43.74
-47.21
-47.5
-43.92
-36.45
-25.82
-13.33
-0.56
11.03
20.52
27.55
32.29
35.12
36.37
36.16
34.53
31.6
27.78
23.78
20.38
18.07
16.92
16.51
16.18
15.31
13.58
11.01
7.88
4.54
1.24
-1.98
-5.17
-8.51
-12.12
-16.12
-20.54
-25.45
-30.83
-36.5
-42.03
-46.55
-48.92
-48.02
-43.13
-34.33
-22.57
-9.45
3.23
13.97
21.96
27.07
29.7
30.45
29.8
28.09
25.52
22.33
18.92
15.82
13.5
12.21
11.89
12.08
12.25
11.86
10.65
8.67
6.23
3.67
1.2
-1.17
-3.67
-6.6
-10.26
-14.81
-20.3
-26.64
-33.52
-40.42
-46.44
-50.45
-51.23
-47.87
-40.18
-28.81
-15.23
-1.25
11.42
21.66
29.06
33.81
36.38
37.23
36.62
34.68
31.47
27.26
22.54
18
14.32
11.95
10.88
10.68
10.63
10.04
8.51
6.1
3.22
0.33
-2.3
-4.73
-7.29
-10.36
-14.2
-18.83
-24.17
-30
-35.95
-41.37
-45.29
-46.55
-44.15
-37.74
-27.81
-15.68
-3.09
8.36
17.63
24.32
28.59
30.82
31.38
30.53
28.46
25.47
21.94
18.39
15.29
12.96
11.48
10.64
10.08
9.37
8.16
6.34
3.98
1.32
-1.39
-3.99
-6.52
-9.2
-12.32
-16.21
-21.05
-26.85
-33.35
-39.93
-45.63
-49.27
-49.72
-46.24
-38.82
-28.19
-15.68
-2.81
9.09
19.05
26.56
31.46
33.88
34.1
32.53
29.69
26.11
22.36
18.88
16.08
14.15
13.14
12.82
12.83
12.71
12.11
10.88
9.01
6.63
3.83
0.64
-2.96
-6.98
-11.38
-16.11
-21.17
-26.62
-32.52
-38.74
-44.73
-49.47
-51.67
-50.16
-44.38
-34.68
-22.25
-8.8
3.98
14.86
23.28
29.21
32.93
34.82
35.14
34.17
32.25
29.77
27.12
24.63
22.5
20.81
19.6
18.89
18.64
18.72
18.81
18.49
17.35
15.16
11.96
8.04
3.8
-0.41
-4.4
-8.23
-12.14
-16.48
-21.6
-27.68
-34.5
-41.41
-47.26
-50.68
-50.41
-45.76
-36.97
-25.19
-12.15
0.41
11.13
19.32
24.96
28.38
30.07
30.47
29.92
28.71
27.14
25.59
24.33
23.54
23.21
23.19
23.22
23.13
22.84
22.43
22.02
21.67
21.23
20.38
18.71
15.92
11.99
7.2
2.07
-2.85
-7.15
-10.71
-13.77
-16.83
-20.53
-25.3
-31.21
-37.69
-43.65
-47.68
-48.46
-45.19
-37.86
-27.28
-14.82
-2.05
9.68
19.52
27.15
32.59
36.01
37.61
37.58
36.22
33.94
31.31
28.89
27.1
26.05
25.57
25.32
25
24.48
23.77
22.91
21.9
20.63
18.84
16.32
12.96
8.87
4.35
-0.19
-4.42
-8.11
-11.3
-14.25
-17.35
-21.03
-25.59
-31.04
-36.99
-42.6
-46.72
-48.18
-46.1
-40.2
-30.99
-19.58
-7.4
4.2
14.22
22.11
27.67
30.96
32.2
31.66
29.76
27.06
24.18
21.7
19.97
19.07
18.8
18.81
18.79
18.56
18.1
17.5
16.79
15.9
14.65
12.87
10.51
7.64
4.51
1.33
-1.73
-4.69
-7.69
-10.97
-14.82
-19.4
-24.69
-30.33
-35.65
-39.68
-41.33
-39.74
-34.53
-26
-15.16
-3.47
7.57
16.76
23.48
27.73
29.94
30.63
30.24
29.02
27.11
24.72
22.18
19.9
18.21
17.22
16.79
16.59
16.32
15.83
15.18
14.51
13.85
13.03
11.73
9.63
6.61
2.83
-1.33
-5.41
-9.11
-12.43
-15.57
-18.94
-22.89
-27.61
-33.01
-38.57
-43.39
-46.31
-46.21
-42.35
-34.7
-24.03
-11.76
0.47
11.2
19.58
25.39
28.94
30.78
31.38
31.09
30.09
28.5
26.57
24.61
22.97
21.87
21.29
21.01
20.65
19.94
18.8
17.4
16.05
14.95
14.05
13.05
11.53
9.14
5.79
1.69
-2.72
-6.99
-10.75
-13.86
-16.43
-18.77
-21.33
-24.53
-28.63
-33.57
-38.82
-43.44
-46.24
-46.07
-42.31
-35
-24.93
-13.46
-2.05
8.06
16.09
21.81
25.3
26.87
26.81
25.52
23.41
20.96
18.67
16.91
15.86
15.47
15.48
15.53
15.41
15.03
14.49
13.93
13.44
13.03
12.53
11.63
10.01
7.43
3.82
-0.58
-5.31
-9.86
-13.77
-16.85
-19.25
-21.37
-23.77
-26.96
-31.19
-36.24
-41.39
-45.48
-47.26
-45.73
-40.53
-32.07
-21.43
-10.04
0.75
9.88
16.79
21.32
23.6
23.94
22.79
20.7
18.19
15.68
13.46
11.69
10.36
9.43
8.84
8.52
8.44
8.53
8.73
9.01
9.23
9.22
8.68
7.3
4.86
1.33
-3.03
-7.74
-12.24
-16.12
-19.26
-21.92
-24.61
-27.84
-31.9
-36.61
-41.21
-44.58
-45.52
-43.13
-37.21
-28.3
-17.62
-6.67
3.19
11.02
16.5
19.76
21.18
21.19
20.1
18.17
15.68
12.97
10.4
8.29
6.76
5.75
5.13
4.72
4.48
4.34
4.3
4.19
3.79
2.81
1.06
-1.55
-4.89
-8.59
-12.25
-15.44
-18.01
-20.11
-22.25
-25.03
-28.93
-33.97
-39.53
-44.44
-47.26
-46.8
-42.46
-34.53
-24.01
-12.36
-1.1
8.63
16.16
21.34
24.31
25.36
24.88
23.3
21.21
19.1
17.34
15.99
14.9
13.79
12.51
11.15
9.95
9.17
8.86
8.84
8.72
8.1
6.74
4.61
1.9
-1.18
-4.38
-7.55
-10.56
-13.4
-16.21
-19.23
-22.81
-27.26
-32.67
-38.67
-44.36
-48.47
-49.64
-46.96
-40.25
-30.2
-18.26
-6.11
4.74
13.34
19.45
23.3
25.36
26.06
25.68
24.38
22.37
19.94
17.49
15.4
13.95
13.16
12.88
12.87
12.89
12.78
12.41
11.66
10.38
8.44
5.8
2.59
-0.91
-4.38
-7.58
-10.49
-13.22
-16.07
-19.39
-23.47
-28.4
-33.95
-39.55
-44.24
-46.92
-46.6
-42.73
-35.5
-25.75
-14.85
-4.22
5.05
12.39
17.72
21.28
23.37
24.24
24.08
23.02
21.29
19.15
16.9
14.74
12.78
11.14
9.86
9.01
8.53
8.3
8.02
7.37
6.08
4.02
1.25
-2.04
-5.49
-8.83
-11.8
-14.32
-16.53
-18.77
-21.46
-24.98
-29.4
-34.33
-38.87
-41.81
-41.96
-38.57
-31.59
-21.82
-10.55
0.69
10.6
18.33
23.6
26.5
27.43
26.86
25.29
23.23
21.09
19.15
17.49
16.08
14.84
13.7
12.71
11.9
11.3
10.81
10.26
9.41
8.14
6.41
4.27
1.82
-0.91
-3.91
-7.25
-10.9
-14.82
-18.98
-23.37
-28.11
-33.35
-39.07
-44.81
-49.63
-52.16
-51.13
-45.85
-36.6
-24.63
-11.74
0.37
10.57
18.53
24.49
28.82
31.72
33.16
33.05
31.57
29.21
26.69
24.66
23.4
22.79
22.42
21.86
20.85
19.39
17.68
15.97
14.48
13.2
11.99
10.55
8.63
6.02
2.74
-1.02
-4.95
-8.77
-12.31
-15.62
-18.91
-22.5
-26.69
-31.7
-37.45
-43.45
-48.76
-52.1
-52.22
-48.29
-40.34
-29.24
-16.49
-3.74
7.66
16.99
24.08
29.09
32.28
33.81
33.83
32.63
30.66
28.52
26.78
25.82
25.65
25.99
26.44
26.63
26.38
25.69
24.67
23.43
22.06
20.57
18.94
17.07
14.83
12.08
8.77
4.92
0.72
-3.52
-7.48
-10.96
-13.99
-16.86
-19.95
-23.6
-27.98
-33.06
-38.52
-43.79
-48.06
-50.37
-49.85
-45.89
-38.47
-28.18
-16.19
-3.89
7.42
16.83
23.92
28.71
31.53
32.76
32.86
32.13
30.87
29.34
27.84
26.72
26.2
26.34
26.93
27.56
27.75
27.23
25.97
24.25
22.45
20.74
19.05
16.99
14.17
10.35
5.66
0.51
-4.54
-9
-12.65
-15.6
-18.25
-21.07
-24.52
-28.84
-34.01
-39.61
-44.84
-48.67
-49.97
-47.93
-42.26
-33.36
-22.28
-10.43
0.78
10.36
17.78
23.06
26.48
28.33
28.86
28.25
26.69
24.54
22.32
20.53
19.57
19.46
19.94
20.51
20.75
20.39
19.47
18.25
17
15.9
14.9
13.79
12.26
10.1
7.21
3.69
-0.18
-4.1
-7.8
-11.14
-14.16
-17.02
-20.09
-23.77
-28.37
-33.94
-40.07
-45.82
-49.91
-51.06
-48.41
-41.91
-32.29
-20.88
-9.18
1.59
10.72
17.94
23.29
26.9
28.92
29.5
28.95
27.67
26.14
24.79
23.86
23.4
23.29
23.36
23.44
23.4
23.1
22.49
21.52
20.27
18.84
17.29
15.57
13.46
10.75
7.27
3.13
-1.4
-5.9
-10.06
-13.74
-17
-20.07
-23.23
-26.75
-30.87
-35.65
-40.92
-46.12
-50.31
-52.38
-51.34
-46.64
-38.48
-27.67
-15.49
-3.33
7.64
16.62
23.27
27.59
29.85
30.45
29.83
28.47
26.85
25.34
24.18
23.44
22.99
22.67
22.3
21.82
21.29
20.85
20.56
20.35
19.99
19.15
17.54
14.98
11.49
7.22
2.48
-2.36
-6.96
-11.06
-14.6
-17.74
-20.84
-24.41
-28.81
-34.1
-39.81
-45.03
-48.55
-49.25
-46.47
-40.19
-31.06
-20.21
-8.98
1.48
10.31
17.1
21.8
24.56
25.69
25.48
24.27
22.4
20.22
18.08
16.27
14.97
14.22
13.96
14
14.21
14.43
14.52
14.35
13.72
12.44
10.35
7.47
3.98
0.19
-3.58
-7.13
-10.47
-13.79
-17.38
-21.5
-26.29
-31.67
-37.31
-42.54
-46.41
-47.8
-45.75
-39.84
-30.46
-18.83
-6.62
4.52
13.41
19.56
23.11
24.53
24.38
23.09
20.96
18.26
15.28
12.28
9.57
7.37
5.84
4.99
4.67
4.62
4.46
3.84
2.54
0.52
-2.12
-5.17
-8.4
-11.66
-14.84
-17.94
-21.01
-24.2
-27.68
-31.68
-36.28
-41.28
-46.01
-49.39
-50.15
-47.34
-40.65
-30.68
-18.83
-6.79
3.92
12.37
18.33
22.09
24.18
25.06
24.98
24.05
22.32
19.96
17.31
14.8
12.87
11.72
11.29
11.25
11.12
10.51
9.28
7.51
5.43
3.25
1.05
-1.23
-3.73
-6.57
-9.82
-13.49
-17.62
-22.27
-27.4
-32.77
-37.76
-41.43
-42.73
-40.8
-35.34
-26.74
-16.05
-4.66
6.02
14.98
21.74
26.34
29.14
30.54
30.85
30.28
28.95
27.01
24.7
22.38
20.38
18.93
18.07
17.65
17.36
16.84
15.85
14.24
12.03
9.33
6.29
3.03
-0.37
-3.86
-7.44
-11.17
-15.23
-19.86
-25.33
-31.68
-38.57
-45.21
-50.32
-52.58
-50.96
-45.14
-35.67
-23.8
-11.15
0.81
11.09
19.25
25.29
29.46
32.01
33.18
33.21
32.42
31.22
30.01
29.05
28.37
27.83
27.2
26.33
25.26
24.13
23.19
22.48
21.86
20.92
19.25
16.54
12.76
8.25
3.47
-1.1
-5.29
-9.19
-13.16
-17.62
-22.85
-28.9
-35.49
-42.01
-47.57
-51.13
-51.68
-48.55
-41.72
-31.95
-20.66
-9.48
0.2
7.69
12.98
16.57
19.09
20.9
22.13
22.74
22.77
22.43
22.06
21.95
22.13
22.43
22.55
22.31
21.75
21.14
20.76
20.7
20.69
20.19
18.59
15.56
11.18
5.95
0.55
-4.46
-8.78
-12.55
-16.17
-20.15
-24.96
-30.76
-37.36
-44.06
-49.76
-53.13
-52.97
-48.7
-40.52
-29.48
-17.11
-4.99
5.67
14.29
20.81
25.46
28.5
30.16
30.59
30.06
28.99
27.89
27.19
27.05
27.37
27.78
27.95
27.66
26.99
26.11
25.19
24.28
23.19
21.66
19.37
16.21
12.29
7.91
3.46
-0.71
-4.46
-7.89
-11.35
-15.26
-20.01
-25.79
-32.44
-39.34
-45.46
-49.54
-50.39
-47.3
-40.27
-30.09
-18.13
-5.92
5.29
14.73
22.17
27.75
31.79
34.59
36.39
37.35
37.57
37.21
36.42
35.41
34.45
33.74
33.38
33.3
33.3
33.16
32.72
31.93
30.87
29.6
28.07
26.12
23.52
20.09
15.81
10.84
5.51
0.23
-4.69
-9.08
-12.96
-16.58
-20.27
-24.35
-29.08
-34.54
-40.56
-46.66
-52.03
-55.58
-56.2
-53.13
-46.18
-35.98
-23.79
-11.13
0.68
10.74
18.76
24.8
29.11
31.95
33.54
34.14
34.04
33.62
33.18
32.96
32.96
33.13
33.37
33.6
33.75
33.77
33.54
32.96
31.96
30.53
28.7
26.53
23.98
20.97
17.44
13.37
8.86
4.15
-0.48
-4.84
-8.79
-12.33
-15.5
-18.42
-21.31
-24.47
-28.25
-32.89
-38.34
-44.02
-48.87
-51.53
-50.72
-45.76
-36.86
-25.11
-12.2
0.14
10.6
18.57
24.12
27.63
29.56
30.2
29.75
28.4
26.5
24.59
23.16
22.57
22.83
23.65
24.56
25.1
25.04
24.4
23.42
22.39
21.5
20.71
19.79
18.33
15.99
12.63
8.41
3.7
-1.02
-5.41
-9.31
-12.86
-16.34
-20.05
-24.17
-28.75
-33.71
-38.85
-43.76
-47.78
-49.98
-49.4
-45.38
-37.83
-27.44
-15.54
-3.67
6.86
15.31
21.48
25.58
27.92
28.68
28.02
26.14
23.43
20.43
17.76
15.88
14.97
14.94
15.41
16.02
16.45
16.6
16.48
16.14
15.59
14.65
13.09
10.64
7.21
2.95
-1.76
-6.47
-10.78
-14.53
-17.86
-21.1
-24.72
-29.05
-34.23
-39.96
-45.53
-49.88
-51.83
-50.4
-45.14
-36.39
-25.17
-12.99
-1.38
8.58
16.35
21.99
25.87
28.4
29.77
30.06
29.35
27.83
25.85
23.84
22.15
20.93
20.12
19.45
18.66
17.59
16.27
14.92
13.76
12.89
12.18
11.25
9.65
7.04
3.41
-0.93
-5.39
-9.5
-13
-16.02
-18.93
-22.17
-26.07
-30.74
-36.03
-41.49
-46.46
-49.99
-51.1
-48.97
-43.27
-34.33
-23.13
-11.13
0.27
9.93
17.3
22.38
25.53
27.21
27.81
27.63
26.83
25.59
24.09
22.56
21.26
20.31
19.76
19.48
19.3
19.05
18.69
18.23
17.72
17.18
16.46
15.37
13.68
11.25
8.1
4.39
0.43
-3.55
-7.33
-10.83
-14.04
-17.05
-20.03
-23.26
-27.01
-31.44
-36.5
-41.75
-46.36
-49.29
-49.51
-46.29
-39.46
-29.51
-17.46
-4.69
7.37
17.54
25.09
29.87
32.19
32.71
32.12
30.99
29.64
28.21
26.76
25.4
24.29
23.64
23.55
23.92
24.46
24.79
24.62
23.85
22.58
21.03
19.34
17.52
15.44
12.93
9.83
6.12
1.92
-2.47
-6.73
-10.49
-13.56
-15.96
-18.02
-20.3
-23.38
-27.6
-32.9
-38.73
-44.25
-48.41
-50.26
-49.08
-44.61
-37.1
-27.37
-16.6
-6.08
3.08
10.15
14.85
17.33
17.93
17.15
15.49
13.43
11.44
9.86
8.84
8.35
8.16
7.95
7.45
6.56
5.33
3.97
2.75
1.87
1.37
1.05
0.57
-0.47
-2.36
-5.21
-8.81
-12.74
-16.61
-20.17
-23.48
-26.89
-30.82
-35.57
-41.09
-46.86
-51.96
-55.26
-55.67
-52.53
-45.75
-35.97
-24.39
-12.44
-1.41
7.86
14.96
19.96
23.09
24.59
24.76
23.9
22.36
20.52
18.74
17.23
16.09
15.29
14.71
14.24
13.76
13.19
12.46
11.56
10.41
8.89
6.84
4.12
0.7
-3.24
-7.42
-11.51
-15.25
-18.63
-21.86
-25.35
-29.47
-34.4
-39.97
-45.51
-49.99
-52.21
-51.13
-46.21
-37.64
-26.32
-13.69
-1.36
9.37
17.69
23.39
26.74
28.22
28.33
27.48
25.97
24.08
22.11
20.3
18.84
17.73
16.91
16.26
15.7
15.23
14.84
14.49
14.03
13.17
11.59
9.06
5.58
1.36
-3.17
-7.57
-11.56
-15.08
-18.37
-21.83
-25.9
-30.89
-36.72
-42.82
-48.22
-51.67
-52.01
-48.55
-41.26
-30.89
-18.75
-6.37
4.93
14.2
21.08
25.56
27.94
28.67
28.23
27.13
25.81
24.56
23.52
22.58
21.57
20.34
18.86
17.25
15.74
14.55
13.73
13.17
12.6
11.65
9.98
7.41
3.96
-0.17
-4.6
-9.05
-13.3
-17.4
-21.57
-26.18
-31.43
-37.3
-43.34
-48.71
-52.31
-53.08
-50.28
-43.75
-34.01
-22.18
-9.65
2.19
12.34
20.21
25.7
28.97
30.34
30.17
28.87
26.88
24.65
22.58
20.9
19.7
18.88
18.26
17.75
17.28
16.9
16.59
16.28
15.74
14.74
13.08
10.7
7.65
4.07
0.15
-3.98
-8.17
-12.38
-16.64
-21.09
-25.94
-31.29
-37.03
-42.64
-47.25
-49.7
-48.96
-44.44
-36.21
-25.15
-12.64
-0.26
10.62
19.12
25.01
28.5
30.04
30.1
29.05
27.23
24.94
22.57
20.44
18.78
17.57
16.66
15.86
15.07
14.32
13.74
13.32
12.89
12.14
10.68
8.33
5.17
1.46
-2.41
-6.15
-9.73
-13.39
-17.47
-22.36
-28.21
-34.84
-41.58
-47.37
-50.91
-51.06
-47.19
-39.47
-28.9
-16.94
-5.19
5.1
13.25
19.15
22.99
25.07
25.67
25.03
23.52
21.58
19.67
18.19
17.28
16.92
16.88
16.92
16.89
16.77
16.59
16.36
16.02
15.36
14.19
12.28
9.53
5.99
1.85
-2.64
-7.23
-11.76
-16.27
-20.92
-25.99
-31.67
-37.9
-44.13
-49.4
-52.41
-51.98
-47.45
-38.92
-27.38
-14.37
-1.56
9.75
18.82
25.53
30.15
33.01
34.41
34.46
33.3
31.25
28.79
26.56
25.08
24.53
24.71
25.14
25.32
25.04
24.38
23.62
23
22.48
21.7
20.11
17.28
13.05
7.65
1.61
-4.44
-9.97
-14.71
-18.73
-22.36
-26.07
-30.37
-35.55
-41.58
-47.9
-53.47
-56.96
-57.09
-53.04
-44.84
-33.37
-20.16
-6.88
5.1
15.01
22.6
28.01
31.54
33.45
34.03
33.58
32.5
31.16
29.9
28.91
28.22
27.74
27.34
26.85
26.19
25.33
24.37
23.44
22.66
22
21.28
20.1
18.08
14.98
10.85
6.02
0.95
-3.94
-8.44
-12.57
-16.59
-20.88
-25.78
-31.51
-38.03
-44.92
-51.33
-56.11
-58.04
-56.21
-50.29
-40.79
-28.86
-16.01
-3.69
7.07
15.8
22.44
27.21
30.38
32.13
32.62
32.07
30.83
29.35
28.05
27.17
26.66
26.24
25.61
24.58
23.25
21.94
20.96
20.42
20.1
19.56
18.26
15.85
12.31
7.91
3.08
-1.75
-6.33
-10.57
-14.61
-18.72
-23.27
-28.55
-34.65
-41.37
-47.99
-53.45
-56.42
-55.76
-50.9
-42.11
-30.42
-17.42
-4.73
6.46
15.53
22.42
27.38
30.67
32.46
32.86
32.07
30.49
28.67
27.16
26.26
25.96
25.93
25.76
25.13
24.02
22.65
21.38
20.48
19.98
19.65
19.08
17.86
15.68
12.5
8.47
3.84
-1.04
-5.9
-10.48
-14.68
-18.54
-22.3
-26.29
-30.83
-35.98
-41.36
-46.08
-48.9
-48.62
-44.46
-36.28
-24.77
-11.17
2.98
16.15
27.15
35.25
40.29
42.54
42.64
41.35
39.3
36.98
34.61
32.33
30.3
28.69
27.68
27.2
27
26.66
25.86
24.51
22.82
21.11
19.62
18.32
16.87
14.84
11.82
7.68
2.58
-3.09
-8.9
-14.46
-19.55
-24.13
-28.35
-32.51
-36.94
-41.99
-47.86
-54.54
-61.69
-68.53
-73.9
-76.52
-75.31
-69.82
-60.46
-48.55
-35.83
-24.04
-14.42
-7.46
-3.02
-0.64
0.22
-0.09
-1.34
-3.35
-5.88
-8.58
-11.08
-13.07
-14.44
-15.27
-15.9
-16.79
-18.31
-20.71
-23.95
-27.77
-31.88
-36.09
-40.49
-45.39
-51.18
-58.12
-66.18
-74.99
-83.91
-92.29
-99.64
-105.76
-110.78
-115.11
-119.35
-124.05
-129.64
-136.17
-143.16
-149.52
-153.66
-153.79
-148.41
-136.77
-119.19
-97
-72.25
-47.25
-24.06
-4.17
11.66
23.34
31.35
36.51
39.74
41.9
43.64
45.38
47.35
49.66
52.27
54.99
57.51
59.4
60.36
60.3
59.46
58.29
57.25
56.57
56.15
55.62
54.5
52.4
49.2
45.02
40.14
34.84
29.38
23.83
18.25
12.64
7.04
1.48
-4.08
-9.72
-15.44
-21.01
-25.88
-29.1
-29.69
-26.91
-20.62
-11.34
-0.14
11.72
23.1
33.18
41.47
47.69
51.69
53.39
52.91
50.6
47.15
43.44
40.28
38.27
37.58
37.95
38.86
39.8
40.41
40.61
40.51
40.25
39.86
39.18
37.95
35.95
33.06
29.4
25.21
20.8
16.35
11.96
7.55
2.96
-1.95
-7.31
-13.17
-19.37
-25.4
-30.47
-33.53
-33.6
-30.05
-22.87
-12.69
-0.66
11.83
23.57
33.63
41.53
47.14
50.6
52.25
52.45
51.61
50.16
48.52
47.07
46.03
45.45
45.13
44.78
44.12
43.1
41.87
40.66
39.58
38.55
37.23
35.23
32.31
28.44
23.87
18.89
13.73
8.54
3.37
-1.82
-7.08
-12.5
-18.22
-24.26
-30.41
-36.15
-40.6
-42.78
-41.85
-37.44
-29.86
-20
-9.08
1.69
11.34
19.35
25.52
29.88
32.62
33.97
34.21
33.74
32.96
32.23
31.71
31.36
30.96
30.3
29.28
27.96
26.56
25.3
24.26
23.36
22.34
20.9
18.77
15.82
12.14
7.91
3.4
-1.07
-5.31
-9.27
-13.12
-17.19
-21.9
-27.46
-33.77
-40.17
-45.6
-48.86
-48.92
-45.34
-38.33
-28.73
-17.74
-6.59
3.7
12.48
19.45
24.58
28.02
29.99
30.78
30.72
30.12
29.29
28.43
27.64
26.98
26.43
26.03
25.81
25.79
25.91
26.01
25.84
25.21
23.96
22.04
19.45
16.26
12.62
8.73
4.77
0.86
-3.06
-7.15
-11.61
-16.5
-21.59
-26.26
-29.7
-31.02
-29.59
-25.26
-18.36
-9.69
-0.3
8.7
16.44
22.35
26.25
28.28
28.74
28.04
26.59
24.76
22.84
21.09
19.64
18.56
17.85
17.46
17.34
17.35
17.34
17.09
16.38
15.04
12.99
10.27
7.05
3.52
-0.15
-3.88
-7.7
-11.75
-16.21
-21.11
-26.3
-31.36
-35.52
-37.94
-37.82
-34.73
-28.72
-20.44
-10.92
-1.27
7.52
14.87
20.57
24.72
27.48
29.07
29.59
29.16
27.9
25.99
23.69
21.31
19.16
17.47
16.33
15.65
15.2
14.69
13.85
12.53
10.72
8.54
6.11
3.53
0.82
-2.13
-5.44
-9.26
-13.7
-18.77
-24.32
-29.93
-34.95
-38.53
-39.82
-38.23
-33.58
-26.27
-17.16
-7.36
2.09
10.42
17.21
22.37
25.96
28.12
29.07
29.07
28.4
27.36
26.18
24.94
23.65
22.35
21.11
20.08
19.36
18.92
18.61
18.11
17.14
15.46
13.01
9.84
6.17
2.25
-1.63
-5.32
-8.8
-12.29
-16.1
-20.48
-25.47
-30.68
-35.45
-38.85
-40.03
-38.4
-33.87
-26.85
-18.14
-8.82
0.06
7.73
13.79
18.22
21.25
23.25
24.52
25.27
25.64
25.68
25.45
24.98
24.31
23.5
22.65
21.84
21.18
20.7
20.31
19.81
18.89
17.28
14.82
11.58
7.83
3.96
0.38
-2.65
-5.13
-7.28
-9.48
-12.14
-15.53
-19.72
-24.4
-28.96
-32.6
-34.5
-34.06
-31.04
-25.71
-18.72
-11.01
-3.49
3.15
8.58
12.79
15.97
18.3
19.84
20.54
20.35
19.34
17.82
16.21
14.91
14.15
13.86
13.79
13.63
13.2
12.44
11.41
10.2
8.79
7.08
4.93
2.3
-0.76
-4
-7.14
-9.91
-12.23
-14.27
-16.37
-18.97
-22.39
-26.64
-31.33
-35.72
-38.82
-39.73
-37.85
-33.1
-25.98
-17.4
-8.43
-0.04
7.1
12.71
16.81
19.61
21.39
22.4
22.81
22.77
22.41
21.79
21.03
20.24
19.48
18.84
18.33
17.9
17.5
17.03
16.37
15.43
14.09
12.26
9.91
7.1
3.99
0.81
-2.21
-4.94
-7.39
-9.73
-12.26
-15.31
-19.1
-23.62
-28.57
-33.3
-36.97
-38.71
-37.93
-34.51
-28.84
-21.68
-13.93
-6.38
0.45
6.32
11.18
15.02
17.88
19.83
20.93
21.34
21.24
20.81
20.3
19.88
19.7
19.73
19.84
19.85
19.58
19.01
18.22
17.35
16.48
15.53
14.32
12.63
10.4
7.68
4.69
1.67
-1.19
-3.81
-6.22
-8.57
-11.02
-13.77
-16.97
-20.68
-24.78
-28.99
-32.82
-35.68
-36.93
-36.09
-32.99
-27.82
-21.06
-13.44
-5.73
1.33
7.27
11.87
15.1
17.16
18.27
18.66
18.52
18
17.22
16.34
15.59
15.17
15.26
15.89
16.93
18.12
19.16
19.77
19.82
19.26
18.16
16.65
14.86
12.86
10.67
8.25
5.51
2.43
-0.92
-4.35
-7.58
-10.43
-12.78
-14.68
-16.34
-18.04
-20.08
-22.72
-26.07
-29.95
-33.84
-36.93
-38.28
-37.19
-33.45
-27.45
-20.04
-12.3
-5.13
0.93
5.71
9.3
11.88
13.58
14.48
14.65
14.18
13.26
12.16
11.18
10.58
10.49
10.86
11.45
11.93
12.02
11.57
10.63
9.38
8.01
6.59
5.09
3.35
1.25
-1.23
-3.95
-6.65
-9.13
-11.25
-13.06
-14.76
-16.62
-18.9
-21.75
-25.11
-28.65
-31.86
-34.04
-34.49
-32.68
-28.45
-22.12
-14.45
-6.4
1.09
7.35
12.11
15.41
17.42
18.37
18.45
17.87
16.87
15.77
14.84
14.28
14.1
14.22
14.49
14.74
14.89
14.82
14.46
13.78
12.78
11.54
10.09
8.45
6.52
4.19
1.34
-1.97
-5.55
-9.04
-12.11
-14.56
-16.42
-17.96
-19.6
-21.8
-24.82
-28.59
-32.58
-35.96
-37.74
-37.15
-33.85
-28.14
-20.8
-12.87
-5.35
1.12
6.3
10.26
13.21
15.33
16.69
17.35
17.42
17.09
16.63
16.26
16.1
16.14
16.25
16.31
16.23
16.01
15.68
15.33
14.96
14.54
13.92
12.94
11.43
9.32
6.64
3.58
0.42
-2.62
-5.35
-7.69
-9.7
-11.46
-13.15
-14.95
-17.07
-19.71
-22.94
-26.61
-30.33
-33.48
-35.33
-35.21
-32.76
-28.02
-21.47
-13.94
-6.31
0.58
6.22
10.39
13.14
14.65
15.14
14.92
14.28
13.53
12.89
12.53
12.5
12.68
12.9
12.96
12.77
12.35
11.8
11.31
10.93
10.63
10.2
9.41
8.04
6.07
3.6
0.89
-1.82
-4.33
-6.54
-8.46
-10.2
-12.01
-14.15
-16.88
-20.27
-24.14
-28.01
-31.11
-32.67
-32.04
-29
-23.75
-16.97
-9.57
-2.46
3.64
8.37
11.65
13.62
14.49
14.47
13.77
12.63
11.38
10.32
9.68
9.46
9.48
9.47
9.22
8.69
8
7.39
7.01
6.89
6.84
6.55
5.75
4.28
2.21
-0.22
-2.76
-5.21
-7.52
-9.78
-12.16
-14.81
-17.84
-21.21
-24.79
-28.28
-31.14
-32.73
-32.4
-29.77
-24.89
-18.32
-10.99
-3.89
2.18
6.77
9.85
11.62
12.4
12.46
11.99
11.14
10.05
8.88
7.84
7.07
6.66
6.62
6.88
7.3
7.74
8.12
8.42
8.63
8.67
8.38
7.54
5.97
3.69
0.95
-1.87
-4.42
-6.59
-8.53
-10.62
-13.24
-16.61
-20.69
-25.24
-29.76
-33.66
-36.18
-36.63
-34.55
-29.91
-23.16
-15.19
-7.03
0.43
6.55
11.1
14.08
15.63
16.02
15.53
14.5
13.28
12.16
11.26
10.6
10.07
9.53
8.97
8.43
8.02
7.82
7.77
7.67
7.23
6.24
4.59
2.39
-0.17
-2.87
-5.55
-8.1
-10.47
-12.62
-14.57
-16.53
-18.8
-21.69
-25.27
-29.17
-32.62
-34.57
-34.17
-31.06
-25.54
-18.48
-10.94
-3.86
2.17
6.92
10.44
12.87
14.4
15.18
15.33
15.01
14.39
13.63
12.88
12.27
11.78
11.38
10.97
10.48
9.89
9.24
8.57
7.87
7.08
6.02
4.54
2.57
0.16
-2.54
-5.31
-8.02
-10.6
-13.13
-15.81
-18.86
-22.43
-26.48
-30.62
-34.15
-36.19
-35.93
-32.94
-27.37
-19.91
-11.61
-3.57
3.39
8.79
12.54
14.77
15.67
15.48
14.43
12.78
10.85
8.95
7.35
6.2
5.51
5.19
5.08
5.02
4.92
4.73
4.44
4.05
3.49
2.66
1.43
-0.27
-2.44
-5.04
-7.97
-11.12
-14.45
-17.94
-21.58
-25.27
-28.72
-31.4
-32.61
-31.68
-28.26
-22.47
-14.98
-6.8
0.99
7.6
12.62
16.03
18.04
18.94
18.96
18.3
17.14
15.69
14.19
12.84
11.73
10.86
10.15
9.49
8.81
8.04
7.15
6.09
4.79
3.16
1.17
-1.18
-3.78
-6.48
-9.13
-11.66
-14.2
-16.97
-20.23
-24.09
-28.36
-32.41
-35.36
-36.28
-34.54
-30.03
-23.25
-15.11
-6.66
1.25
8.06
13.56
17.68
20.47
21.97
22.29
21.66
20.41
18.94
17.54
16.43
15.64
15.14
14.86
14.7
14.55
14.23
13.58
12.46
10.82
8.72
6.3
3.71
1.07
-1.51
-4.04
-6.53
-9.11
-11.99
-15.4
-19.45
-24
-28.51
-32.16
-34.05
-33.45
-30.11
-24.26
-16.66
-8.3
-0.2
6.88
12.5
16.6
19.38
21.14
22.13
22.48
22.25
21.41
20.07
18.42
16.74
15.29
14.26
13.69
13.52
13.61
13.78
13.82
13.52
12.72
11.29
9.24
6.66
3.77
0.78
-2.12
-4.92
-7.75
-10.93
-14.76
-19.29
-24.16
-28.55
-31.38
-31.66
-28.87
-23.18
-15.4
-6.73
1.65
8.83
14.34
18.06
20.16
20.91
20.65
19.71
18.45
17.17
16.08
15.28
14.76
14.4
14.06
13.58
12.86
11.9
10.7
9.33
7.81
6.13
4.26
2.21
0.02
-2.23
-4.5
-6.88
-9.54
-12.72
-16.54
-20.86
-25.21
-28.86
-30.98
-30.91
-28.37
-23.54
-17.07
-9.86
-2.82
3.34
8.25
11.86
14.39
16.06
17.05
17.35
16.92
15.76
13.98
11.91
9.95
8.49
7.77
7.86
8.6
9.67
10.63
11.13
10.87
9.77
7.95
5.63
3.14
0.7
-1.6
-3.83
-6.19
-8.87
-12.02
-15.57
-19.25
-22.56
-24.87
-25.53
-24.05
-20.3
-14.54
-7.39
0.35
7.8
14.27
19.29
22.72
24.65
25.35
25.19
24.52
23.6
22.56
21.49
20.46
19.54
18.78
18.24
17.87
17.61
17.36
16.97
16.32
15.27
13.72
11.63
9.08
6.25
3.36
0.64
-1.82
-4.07
-6.31
-8.76
-11.64
-15.01
-18.72
-22.32
-25.13
-26.36
-25.4
-22.01
-16.48
-9.56
-2.17
4.77
10.69
15.31
18.59
20.59
21.36
21.05
19.86
18.15
16.37
14.87
13.82
13.21
12.83
12.49
12.1
11.66
11.3
11.08
11.02
10.99
10.75
10.06
8.73
6.75
4.26
1.56
-1.08
-3.45
-5.51
-7.4
-9.37
-11.71
-14.61
-18.06
-21.8
-25.27
-27.78
-28.59
-27.21
-23.55
-17.98
-11.23
-4.22
2.17
7.34
11.02
13.27
14.4
14.76
14.64
14.25
13.69
13.01
12.24
11.52
10.87
10.35
9.91
9.46
8.91
8.28
7.63
7.01
6.43
5.74
4.74
3.24
1.21
-1.21
-3.73
-6.02
-7.9
-9.39
-10.72
-12.21
-14.15
-16.63
-19.47
-22.18
-24.1
-24.58
-23.21
-19.94
-15.11
-9.33
-3.29
2.4
7.29
11.09
13.68
15.03
15.26
14.64
13.49
12.09
10.64
9.2
7.83
6.57
5.52
4.8
4.5
4.61
4.95
5.35
5.58
5.53
5.11
4.26
2.99
1.37
-0.48
-2.38
-4.18
-5.83
-7.35
-8.94
-10.86
-13.3
-16.31
-19.65
-22.79
-24.99
-25.55
-23.92
-20.07
-14.45
-7.93
-1.5
3.99
8.06
10.69
12.08
12.56
12.43
11.84
10.96
9.94
8.96
8.2
7.76
7.59
7.54
7.41
7.08
6.53
5.84
5.1
4.4
3.74
3.04
2.23
1.2
-0.1
-1.63
-3.31
-4.99
-6.61
-8.15
-9.75
-11.54
-13.68
-16.21
-19.02
-21.86
-24.27
-25.65
-25.45
-23.32
-19.27
-13.72
-7.43
-1.3
3.86
7.57
9.78
10.75
10.85
10.43
9.74
8.88
7.96
7.08
6.37
5.93
5.77
5.76
5.73
5.55
5.21
4.85
4.6
4.49
4.35
3.92
2.9
1.23
-0.96
-3.32
-5.5
-7.24
-8.51
-9.5
-10.53
-11.97
-14
-16.62
-19.54
-22.19
-23.93
-24.17
-22.54
-19.07
-14.2
-8.57
-2.98
1.92
5.71
8.19
9.41
9.59
9.03
8.07
7.05
6.17
5.51
5.02
4.58
4.1
3.63
3.31
3.24
3.41
3.65
3.65
3.2
2.22
0.82
-0.77
-2.37
-3.87
-5.32
-6.79
-8.31
-9.84
-11.36
-12.92
-14.59
-16.51
-18.64
-20.73
-22.23
-22.49
-20.95
-17.46
-12.39
-6.56
-0.98
3.5
6.41
7.83
8.14
7.84
7.24
6.48
5.54
4.36
3
1.64
0.53
-0.13
-0.27
0.01
0.5
0.96
1.15
0.89
0.11
-1.15
-2.8
-4.65
-6.53
-8.31
-9.96
-11.54
-13.15
-14.96
-17.1
-19.65
-22.5
-25.38
-27.78
-29.1
-28.84
-26.7
-22.84
-17.75
-12.17
-6.88
-2.45
0.82
2.92
3.95
4.11
3.53
2.35
0.74
-1.11
-2.96
-4.6
-5.93
-6.97
-7.85
-8.81
-10.05
-11.63
-13.44
-15.11
-16.16
-16.06
-14.51
-11.59
-7.75
-3.71
-0.16
2.38
3.71
3.81
2.75
0.61
-2.45
-6.07
-9.62
-12.29
-13.31
-12.22
-9.07
-4.4
0.96
6.16
10.57
13.87
16.04
17.22
17.65
17.49
16.9
16.02
14.95
13.8
12.67
11.59
10.56
9.56
8.6
7.71
6.96
6.32
5.72
5.03
4.07
2.76
1.14
-0.7
-2.63
-4.52
-6.35
-8.2
-10.21
-12.53
-15.3
-18.52
-21.96
-25.21
-27.6
-28.44
-27.24
-23.84
-18.59
-12.24
-5.73
0.1
4.72
8
10.1
11.36
12.06
12.34
12.23
11.7
10.79
9.66
8.54
7.59
6.9
6.45
6.16
6.03
6.08
6.31
6.56
6.6
6.13
5
3.21
0.96
-1.48
-3.89
-6.21
-8.46
-10.7
-12.99
-15.37
-17.86
-20.42
-22.88
-24.87
-25.82
-25.15
-22.44
-17.74
-11.55
-4.76
1.68
7
10.83
13.21
14.46
14.89
14.78
14.25
13.38
12.27
11.12
10.13
9.46
9.13
8.99
8.83
8.51
7.95
7.23
6.43
5.57
4.56
3.25
1.5
-0.67
-3.12
-5.62
-7.91
-9.92
-11.74
-13.59
-15.72
-18.21
-20.9
-23.29
-24.73
-24.58
-22.46
-18.39
-12.75
-6.17
0.61
7
12.6
17.17
20.64
22.99
24.29
24.69
24.41
23.7
22.78
21.87
21.08
20.49
20.14
20.05
20.19
20.43
20.54
20.28
19.48
18.01
15.97
13.51
10.84
8.15
5.51
2.98
0.53
-1.92
-4.5
-7.36
-10.58
-14.13
-17.68
-20.72
-22.6
-22.75
-20.87
-17.05
-11.76
-5.73
0.17
5.24
9
11.25
12.09
11.74
10.53
8.76
6.71
4.62
2.73
1.21
0.19
-0.24
-0.06
0.7
1.98
3.67
5.5
7.15
8.21
8.28
7.1
4.59
0.81
-3.94
-9.3
-14.85
-20.2
-25.08
-29.4
-33.2
-36.69
-40.08
-43.41
-46.47
-48.73
-49.53
-48.25
-44.55
-38.53
-30.72
-21.97
-13.2
-5.24
1.41
6.52
10.13
12.35
13.38
13.42
12.77
11.86
11.15
11.01
11.56
12.6
13.72
14.53
14.87
14.86
14.81
14.95
15.29
15.53
15.28
14.21
12.25
9.59
6.61
3.72
1.21
-0.82
-2.42
-3.8
-5.31
-7.31
-10.06
-13.58
-17.55
-21.3
-23.98
-24.77
-23.21
-19.28
-13.43
-6.41
0.92
7.81
13.69
18.26
21.39
23.18
23.83
23.58
22.67
21.34
19.75
18.09
16.52
15.23
14.33
13.83
13.64
13.57
13.41
13.01
12.3
11.29
10.02
8.5
6.75
4.76
2.58
0.36
-1.76
-3.72
-5.6
-7.68
-10.27
-13.53
-17.26
-20.87
-23.58
-24.6
-23.53
-20.35
-15.46
-9.51
-3.17
2.92
8.32
12.7
15.92
17.93
18.83
18.78
18
16.79
15.42
14.15
13.14
12.47
12.13
12.02
12.07
12.21
12.4
12.6
12.71
12.61
12.13
11.14
9.58
7.45
4.88
2.06
-0.83
-3.66
-6.41
-9.19
-12.15
-15.45
-19.03
-22.58
-25.46
-26.93
-26.32
-23.36
-18.29
-11.78
-4.78
1.88
7.63
12.25
15.76
18.21
19.67
20.15
19.72
18.59
17.1
15.62
14.44
13.66
13.22
12.95
12.76
12.65
12.73
13.06
13.61
14.11
14.2
13.51
11.86
9.34
6.27
3.02
-0.08
-2.84
-5.27
-7.45
-9.54
-11.72
-14.13
-16.89
-19.93
-23.04
-25.71
-27.32
-27.2
-24.99
-20.71
-14.84
-8.21
-1.71
3.92
8.27
11.3
13.22
14.36
14.98
15.25
15.22
14.9
14.37
13.8
13.4
13.35
13.65
14.14
14.57
14.72
14.51
14.04
13.45
12.85
12.16
11.14
9.6
7.46
4.86
2.11
-0.44
-2.63
-4.46
-6.13
-7.91
-9.96
-12.34
-15.05
-17.96
-20.87
-23.45
-25.23
-25.65
-24.29
-21.04
-16.13
-10.22
-4.06
1.67
6.55
10.42
13.31
15.25
16.23
16.24
15.33
13.78
11.99
10.39
9.33
8.93
9.04
9.44
9.81
9.97
9.87
9.62
9.38
9.27
9.27
9.18
8.74
7.71
6
3.76
1.24
-1.25
-3.5
-5.47
-7.25
-9.04
-11.07
-13.53
-16.47
-19.69
-22.77
-25
-25.65
-24.19
-20.51
-15.1
-8.83
-2.71
2.45
6.24
8.67
10.01
10.61
10.75
10.62
10.3
9.84
9.3
8.76
8.27
7.85
7.51
7.23
7.03
6.98
7.13
7.53
8.1
8.63
8.79
8.27
6.9
4.75
2.08
-0.74
-3.36
-5.59
-7.43
-9
-10.55
-12.32
-14.48
-17.07
-19.97
-22.79
-25.01
-26.01
-25.28
-22.64
-18.29
-12.82
-6.96
-1.41
3.32
7
9.61
11.26
12.05
12.1
11.48
10.33
8.87
7.38
6.13
5.28
4.86
4.77
4.88
5.09
5.39
5.81
6.31
6.82
7.19
7.28
6.97
6.25
5.16
3.78
2.19
0.47
-1.33
-3.21
-5.22
-7.47
-10.11
-13.19
-16.62
-20.06
-22.98
-24.75
-24.88
-23.13
-19.63
-14.83
-9.41
-4.05
0.7
4.51
7.25
8.95
9.73
9.83
9.5
9.01
8.52
8.11
7.79
7.52
7.3
7.15
7.12
7.24
7.47
7.74
7.94
8.01
7.88
7.47
6.63
5.22
3.12
0.4
-2.67
-5.66
-8.18
-10.02
-11.26
-12.26
-13.51
-15.47
-18.34
-21.96
-25.78
-29.01
-30.83
-30.62
-28.17
-23.7
-17.84
-11.39
-5.14
0.36
4.81
8.16
10.48
11.88
12.43
12.22
11.34
9.95
8.35
6.85
5.79
5.36
5.55
6.23
7.1
7.9
8.48
8.79
8.9
8.87
8.71
8.36
7.67
6.47
4.7
2.44
-0.06
-2.53
-4.74
-6.7
-8.64
-10.85
-13.51
-16.55
-19.55
-21.92
-23.04
-22.52
-20.26
-16.45
-11.5
-5.9
-0.18
5.15
9.64
12.95
14.93
15.6
15.19
14.11
12.79
11.7
11.1
11.07
11.5
12.13
12.65
12.86
12.73
12.36
11.94
11.71
11.77
12.13
12.62
12.97
12.91
12.21
10.74
8.52
5.64
2.33
-1.24
-4.93
-8.74
-12.74
-17
-21.38
-25.54
-28.88
-30.7
-30.58
-28.44
-24.7
-20.14
-15.58
-11.62
-8.53
-6.24
-4.5
-3.09
-1.87
-0.84
-0.04
0.57
1.05
1.53
2.1
2.79
3.55
4.32
5.06
5.74
6.36
6.88
7.24
7.38
7.22
6.7
5.83
4.6
3.01
1.16
-0.87
-2.88
-4.78
-6.54
-8.3
-10.29
-12.82
-15.99
-19.65
-23.32
-26.27
-27.74
-27.17
-24.39
-19.66
-13.65
-7.16
-0.88
4.69
9.31
12.96
15.6
17.24
17.86
17.59
16.69
15.58
14.69
14.34
14.61
15.31
16.14
16.78
17.07
17.01
16.77
16.52
16.39
16.33
16.22
15.93
15.43
14.78
14.07
13.34
12.55
11.63
10.47
9.05
7.46
5.8
4.11
2.36
0.46
-1.57
-3.5
-4.8
-4.73
-2.56
2.12
9.17
17.85
26.98
35.32
41.86
46.06
47.9
47.62
45.53
41.91
36.95
30.85
23.96
16.8
9.98
4.03
-0.76
-4.33
-6.84
-8.51
-9.63
-10.4
-11
-11.68
-12.7
-14.37
-16.92
-20.41
-24.7
-29.43
-34.17
-38.6
-42.56
-46.08
-49.29
-52.35
-55.35
-58.2
-60.67
-62.41
-63.03
-62.11
-59.22
-54.14
-46.96
-38.15
-28.59
-19.35
-11.35
-5.14
-0.76
2.13
4.04
5.38
6.32
6.9
7.12
7.12
7.08
7.2
7.54
8
8.42
8.74
8.96
9.17
9.4
9.59
9.57
9.16
8.24
6.82
5.02
2.98
0.85
-1.26
-3.33
-5.39
-7.57
-10.1
-13.04
-16.26
-19.32
-21.5
-22.11
-20.64
-17.05
-11.76
-5.56
0.74
6.44
11.11
14.6
16.94
18.23
18.66
18.45
17.81
16.97
16.11
15.32
14.63
14.02
13.47
12.97
12.55
12.22
11.99
11.78
11.44
10.84
9.85
8.42
6.59
4.48
2.27
0.12
-1.87
-3.7
-5.5
-7.53
-9.97
-12.93
-16.24
-19.45
-21.9
-22.93
-22.09
-19.28
-14.79
-9.22
-3.3
2.32
7.18
11.02
13.84
15.71
16.82
17.3
17.27
16.83
16.12
15.31
14.58
14.03
13.7
13.52
13.4
13.27
13.12
12.94
12.69
12.27
11.53
10.38
8.85
6.96
4.83
2.48
-0.05
-2.75
-5.58
-8.52
-11.65
-15.04
-18.7
-22.4
-25.61
-27.56
-27.47
-24.93
-20.02
-13.39
-6.02
1.07
7.08
11.56
14.48
16.02
16.49
16.25
15.52
14.56
13.5
12.52
11.7
11.11
10.73
10.49
10.28
10
9.66
9.24
8.76
8.2
7.53
6.64
5.51
4.12
2.49
0.64
-1.43
-3.79
-6.56
-9.81
-13.52
-17.45
-21.12
-23.91
-25.17
-24.46
-21.65
-17.05
-11.33
-5.28
0.35
5.08
8.69
11.18
12.65
13.29
13.25
12.71
11.88
10.99
10.21
9.62
9.22
8.94
8.74
8.57
8.39
8.09
7.46
6.34
4.62
2.39
-0.04
-2.33
-4.22
-5.67
-6.9
-8.29
-10.17
-12.71
-15.84
-19.26
-22.5
-25.04
-26.31
-25.89
-23.55
-19.38
-13.79
-7.48
-1.19
4.42
8.98
12.41
14.8
16.41
17.42
17.99
18.14
17.96
17.52
16.98
16.53
16.27
16.21
16.23
16.09
15.6
14.62
13.12
11.17
8.93
6.55
4.2
1.97
-0.14
-2.16
-4.26
-6.6
-9.37
-12.6
-16.24
-19.98
-23.42
-25.98
-27.06
-26.25
-23.34
-18.6
-12.59
-6.18
-0.17
4.94
8.98
12.13
14.64
16.64
18.1
18.85
18.84
18.17
17.12
16.03
15.13
14.39
13.72
13.01
12.26
11.58
11.11
10.89
10.76
10.51
9.9
8.77
7.13
5.09
2.81
0.4
-2.05
-4.56
-7.17
-9.99
-13.14
-16.58
-20.12
-23.26
-25.37
-25.78
-24.08
-20.28
-14.84
-8.49
-1.99
4.07
9.4
13.87
17.48
20.16
21.83
22.5
22.32
21.62
20.78
20.07
19.61
19.31
18.97
18.44
17.7
16.85
16.04
15.37
14.84
14.34
13.69
12.73
11.39
9.65
7.53
5.13
2.54
-0.07
-2.54
-4.81
-6.9
-9.02
-11.39
-14.17
-17.36
-20.73
-23.88
-26.26
-27.36
-26.73
-24.12
-19.58
-13.51
-6.62
0.24
6.29
11.04
14.35
16.4
17.41
17.64
17.27
16.46
15.42
14.4
13.64
13.22
13.13
13.19
13.19
12.98
12.52
11.88
11.2
10.54
9.88
9.08
7.89
6.15
3.85
1.21
-1.42
-3.69
-5.46
-6.84
-8.1
-9.62
-11.65
-14.28
-17.36
-20.51
-23.14
-24.57
-24.2
-21.75
-17.36
-11.61
-5.3
0.71
5.83
9.78
12.53
14.2
14.93
14.9
14.29
13.38
12.43
11.68
11.24
11.13
11.24
11.39
11.43
11.29
11.03
10.77
10.62
10.57
10.44
10.01
9.05
7.46
5.33
2.85
0.21
-2.47
-5.1
-7.66
-10.03
-12.19
-14.18
-16.18
-18.34
-20.7
-22.98
-24.62
-24.98
-23.57
-20.3
-15.49
-9.76
-3.81
1.73
6.42
10.02
12.48
13.93
14.6
14.79
14.75
14.62
14.48
14.38
14.4
14.59
14.96
15.38
15.6
15.4
14.69
13.6
12.44
11.47
10.77
10.23
9.53
8.4
6.66
4.35
1.65
-1.14
-3.74
-5.99
-7.88
-9.59
-11.38
-13.51
-16.13
-19.08
-22.02
-24.36
-25.51
-25.02
-22.74
-18.78
-13.59
-7.73
-1.86
3.46
7.79
10.89
12.69
13.27
12.85
11.8
10.5
9.35
8.58
8.28
8.37
8.63
8.8
8.67
8.17
7.44
6.7
6.24
6.22
6.61
7.14
7.38
6.98
5.77
3.85
1.54
-0.75
-2.72
-4.27
-5.55
-6.88
-8.64
-11.08
-14.16
-17.46
-20.36
-22.07
-21.98
-19.87
-15.91
-10.68
-4.95
0.57
5.33
9.01
11.51
12.86
13.18
12.67
11.52
10.02
8.44
6.98
5.81
4.95
4.3
3.79
3.35
3.02
2.86
2.91
3.14
3.41
3.5
3.21
2.41
1.12
-0.56
-2.44
-4.34
-6.14
-7.79
-9.32
-10.86
-12.56
-14.58
-16.99
-19.7
-22.38
-24.55
-25.64
-25.14
-22.81
-18.76
-13.49
-7.7
-2.15
2.61
6.26
8.8
10.37
11.15
11.33
11.03
10.39
9.57
8.74
7.98
7.31
6.62
5.8
4.88
3.99
3.32
3.02
3.06
3.23
3.23
2.81
1.87
0.5
-1.07
-2.61
-3.96
-5.08
-6.08
-7.12
-8.45
-10.31
-12.86
-16.04
-19.57
-22.87
-25.23
-25.97
-24.68
-21.36
-16.36
-10.41
-4.35
1.04
5.24
8.08
9.65
10.23
10.13
9.57
8.7
7.7
6.76
6.07
5.73
5.68
5.7
5.57
5.16
4.58
4.06
3.82
3.89
4.1
4.18
3.91
3.23
2.19
0.92
-0.49
-2.01
-3.64
-5.36
-7.18
-9.12
-11.28
-13.78
-16.6
-19.53
-22.11
-23.77
-24.01
-22.62
-19.69
-15.6
-10.88
-6.01
-1.39
2.65
5.89
8.14
9.33
9.5
8.8
7.49
5.89
4.31
3.01
2.17
1.83
1.95
2.37
2.93
3.5
4.02
4.43
4.72
4.81
4.61
4.05
3.09
1.74
0.09
-1.76
-3.73
-5.73
-7.72
-9.74
-11.89
-14.28
-16.96
-19.8
-22.41
-24.23
-24.67
-23.35
-20.2
-15.59
-10.11
-4.54
0.5
4.54
7.35
8.93
9.38
8.93
7.91
6.66
5.5
4.63
4.07
3.74
3.49
3.22
2.93
2.7
2.59
2.62
2.76
2.84
2.71
2.22
1.28
-0.11
-1.84
-3.73
-5.62
-7.39
-9.01
-10.58
-12.26
-14.22
-16.46
-18.84
-21.01
-22.46
-22.7
-21.39
-18.44
-14.12
-8.93
-3.47
1.64
5.94
9.14
11.1
11.88
11.7
10.88
9.76
8.64
7.69
6.96
6.41
5.97
5.6
5.25
4.92
4.57
4.16
3.64
3
2.26
1.4
0.4
-0.8
-2.22
-3.85
-5.62
-7.43
-9.18
-10.82
-12.43
-14.13
-16.1
-18.38
-20.81
-22.94
-24.13
-23.78
-21.55
-17.53
-12.25
-6.53
-1.2
3.18
6.41
8.6
10.04
10.97
11.54
11.8
11.73
11.33
10.68
9.9
9.14
8.55
8.21
8.13
8.23
8.37
8.42
8.25
7.82
7.12
6.13
4.84
3.2
1.3
-0.78
-2.85
-4.75
-6.46
-8.07
-9.83
-11.95
-14.55
-17.53
-20.57
-23.17
-24.78
-24.91
-23.24
-19.73
-14.67
-8.59
-2.19
3.88
9.07
13.1
15.86
17.43
17.95
17.66
16.77
15.53
14.16
12.85
11.74
10.92
10.39
10.09
9.93
9.83
9.76
9.66
9.46
9.06
8.37
7.3
5.84
4.03
2.01
-0.09
-2.15
-4.09
-5.89
-7.64
-9.51
-11.71
-14.39
-17.47
-20.55
-22.99
-24.07
-23.28
-20.51
-16.07
-10.58
-4.75
0.77
5.54
9.31
11.94
13.44
13.89
13.46
12.46
11.17
9.89
8.79
7.93
7.3
6.88
6.67
6.72
7.06
7.66
8.32
8.77
8.73
8.05
6.71
4.84
2.66
0.35
-1.97
-4.22
-6.41
-8.59
-10.83
-13.25
-15.84
-18.48
-20.81
-22.31
-22.52
-21.1
-18.01
-13.54
-8.21
-2.63
2.6
7.06
10.51
12.93
14.47
15.38
15.86
16.02
15.9
15.46
14.72
13.77
12.76
11.87
11.18
10.71
10.41
10.18
9.91
9.51
8.91
8.03
6.81
5.22
3.31
1.23
-0.81
-2.65
-4.2
-5.58
-7.08
-9.04
-11.73
-15.13
-18.84
-22.14
-24.21
-24.39
-22.4
-18.47
-13.17
-7.3
-1.59
3.46
7.65
10.93
13.34
14.91
15.64
15.57
14.88
13.81
12.67
11.68
10.91
10.3
9.77
9.29
8.95
8.91
9.24
9.86
10.53
10.9
10.66
9.71
8.12
6.15
4.06
2.05
0.19
-1.59
-3.4
-5.38
-7.59
-10.05
-12.78
-15.69
-18.67
-21.38
-23.38
-24.12
-23.14
-20.22
-15.54
-9.65
-3.32
2.62
7.53
11.15
13.53
14.92
15.65
15.99
16.06
15.98
15.79
15.6
15.46
15.4
15.34
15.12
14.66
13.89
12.95
11.96
11.07
10.28
9.5
8.56
7.29
5.64
3.64
1.4
-0.95
-3.28
-5.52
-7.63
-9.62
-11.55
-13.48
-15.49
-17.52
-19.39
-20.7
-20.95
-19.71
-16.81
-12.48
-7.26
-1.84
3.17
7.4
10.72
13.18
14.82
15.68
15.81
15.29
14.31
13.09
11.86
10.75
9.83
9.08
8.47
7.96
7.59
7.42
7.45
7.66
7.92
8.04
7.8
7.05
5.75
3.95
1.85
-0.33
-2.45
-4.42
-6.33
-8.34
-10.64
-13.36
-16.43
-19.49
-22.01
-23.37
-23.08
-20.93
-17.05
-11.88
-6.04
-0.24
4.92
8.98
11.75
13.24
13.7
13.46
12.82
12.02
11.12
10.13
9.07
7.99
7.02
6.26
5.75
5.46
5.34
5.3
5.25
5.1
4.77
4.2
3.33
2.17
0.71
-1.04
-3.07
-5.37
-7.89
-10.57
-13.32
-16.03
-18.51
-20.51
-21.6
-21.36
-19.51
-15.96
-11.08
-5.5
0.01
4.8
8.5
11.05
12.64
13.52
13.95
14.04
13.8
13.2
12.22
10.98
9.65
8.48
7.62
7.12
6.86
6.68
6.42
6.06
5.62
5.09
4.4
3.41
2.02
0.28
-1.6
-3.33
-4.8
-6.07
-7.46
-9.34
-11.9
-14.98
-18.13
-20.68
-22.07
-21.89
-20.08
-16.8
-12.43
-7.4
-2.19
2.78
7.15
10.62
13.05
14.38
14.67
14.1
12.89
11.33
9.69
8.21
7.04
6.23
5.74
5.49
5.45
5.55
5.76
6.02
6.2
6.11
5.61
4.61
3.18
1.51
-0.24
-1.9
-3.43
-4.85
-6.28
-7.85
-9.7
-11.9
-14.37
-16.84
-18.83
-19.75
-19.14
-16.79
-12.9
-8.03
-2.92
1.78
5.59
8.37
10.19
11.24
11.79
12.01
12.04
11.97
11.83
11.6
11.24
10.75
10.08
9.32
8.52
7.82
7.35
7.22
7.41
7.76
7.99
7.77
6.83
5.11
2.79
0.25
-2.12
-4.07
-5.58
-6.83
-8.15
-9.84
-12.06
-14.76
-17.65
-20.27
-22.05
-22.44
-21.11
-18.03
-13.52
-8.24
-2.96
1.68
5.23
7.61
8.92
9.42
9.33
8.82
8.05
7.14
6.24
5.47
4.88
4.49
4.26
4.17
4.29
4.65
5.22
5.8
6.15
6
5.25
3.97
2.4
0.75
-0.84
-2.39
-4.01
-5.84
-7.93
-10.27
-12.86
-15.58
-18.3
-20.73
-22.49
-23.09
-22.15
-19.45
-15.12
-9.64
-3.69
1.9
6.52
9.8
11.69
12.44
12.41
11.95
11.29
10.54
9.62
8.56
7.4
6.26
5.33
4.73
4.53
4.6
4.79
4.86
4.7
4.29
3.67
2.94
2.1
1.16
0.05
-1.26
-2.79
-4.58
-6.66
-9.16
-12.09
-15.39
-18.75
-21.64
-23.43
-23.55
-21.75
-18.15
-13.33
-8.01
-2.95
1.34
4.63
6.99
8.62
9.72
10.42
10.76
10.8
10.59
10.26
9.92
9.64
9.46
9.33
9.18
8.95
8.59
8.11
7.53
6.88
6.09
5.11
3.82
2.19
0.23
-1.91
-4.09
-6.18
-8.17
-10.21
-12.48
-15.16
-18.19
-21.23
-23.71
-24.93
-24.34
-21.73
-17.35
-11.81
-5.95
-0.56
3.83
6.97
8.89
9.76
9.85
9.44
8.81
8.2
7.8
7.74
7.99
8.47
8.97
9.32
9.39
9.19
8.83
8.47
8.23
8.06
7.78
7.14
5.95
4.18
1.99
-0.31
-2.44
-4.31
-6.01
-7.77
-9.8
-12.24
-15.04
-18
-20.76
-22.88
-23.85
-23.27
-20.9
-16.87
-11.59
-5.72
0.03
5.1
9.11
11.91
13.54
14.1
13.83
12.97
11.87
10.81
10
9.48
9.22
9.11
9.1
9.16
9.29
9.43
9.43
9.15
8.47
7.38
5.98
4.44
2.89
1.41
-0.01
-1.41
-2.89
-4.55
-6.5
-8.8
-11.45
-14.34
-17.22
-19.64
-21.1
-21.11
-19.37
-15.93
-11.16
-5.72
-0.35
4.3
7.87
10.28
11.63
12.13
11.99
11.39
10.53
9.59
8.76
8.17
7.83
7.61
7.39
7.03
6.46
5.72
4.85
3.89
2.82
1.58
0.13
-1.56
-3.42
-5.33
-7.18
-8.92
-10.56
-12.14
-13.73
-15.42
-17.28
-19.25
-21.16
-22.6
-23.03
-21.95
-19.15
-14.79
-9.45
-3.88
1.22
5.38
8.46
10.51
11.69
12.12
11.95
11.31
10.38
9.35
8.39
7.61
7.09
6.84
6.85
7.05
7.3
7.44
7.27
6.66
5.55
4.03
2.28
0.49
-1.19
-2.76
-4.34
-6.12
-8.3
-10.97
-14.08
-17.33
-20.26
-22.34
-23.08
-22.14
-19.48
-15.32
-10.15
-4.56
0.86
5.66
9.54
12.42
14.26
15.16
15.22
14.64
13.6
12.34
11.05
9.91
9.02
8.45
8.2
8.2
8.34
8.47
8.49
8.29
7.84
7.11
6.05
4.67
2.99
1.15
-0.72
-2.5
-4.25
-6.16
-8.5
-11.47
-15
-18.68
-21.85
-23.75
-23.79
-21.69
-17.66
-12.23
-6.16
-0.22
5.03
9.23
12.3
14.32
15.42
15.76
15.52
14.9
14.13
13.37
12.73
12.2
11.74
11.31
10.93
10.67
10.59
10.65
10.73
10.59
10.05
8.98
7.41
5.5
3.43
1.36
-0.61
-2.44
-4.17
-5.88
-7.73
-9.89
-12.52
-15.66
-19.1
-22.37
-24.85
-25.86
-24.96
-22.03
-17.32
-11.4
-5.01
1.1
6.33
10.32
12.98
14.43
14.94
14.8
14.28
13.59
12.88
12.24
11.72
11.32
10.97
10.61
10.16
9.66
9.18
8.81
8.59
8.46
8.27
7.79
6.85
5.38
3.45
1.28
-0.92
-2.94
-4.73
-6.38
-8.09
-10.08
-12.56
-15.59
-19.02
-22.48
-25.41
-27.13
-27.04
-24.8
-20.47
-14.55
-7.81
-1.13
4.76
9.44
12.81
15.02
16.32
16.92
16.98
16.59
15.84
14.93
14.04
13.38
12.99
12.79
12.62
12.29
11.81
11.31
10.98
10.9
10.94
10.8
10.12
8.74
6.72
4.38
2.09
0.09
-1.59
-3.13
-4.76
-6.68
-8.99
-11.74
-14.91
-18.35
-21.7
-24.36
-25.6
-24.8
-21.79
-16.93
-11.07
-5.18
-0.03
4.03
7.03
9.19
10.71
11.63
11.92
11.6
10.85
10.02
9.48
9.45
9.95
10.73
11.44
11.78
11.65
11.21
10.74
10.52
10.61
10.84
10.87
10.32
9.02
7.01
4.52
1.89
-0.61
-2.84
-4.85
-6.82
-8.94
-11.33
-13.99
-16.69
-19.05
-20.63
-20.97
-19.79
-17.12
-13.2
-8.53
-3.64
0.99
5.05
8.39
11
12.95
14.24
14.85
14.79
14.12
13.01
11.72
10.49
9.46
8.68
8.07
7.54
7.01
6.47
5.87
5.16
4.25
3.03
1.44
-0.52
-2.75
-5.17
-7.68
-10.18
-12.59
-14.84
-16.93
-18.93
-21.04
-23.44
-26.16
-28.96
-31.28
-32.41
-31.71
-28.89
-24.11
-17.97
-11.29
-4.88
0.62
4.88
7.87
9.76
10.75
11.04
10.79
10.11
9.14
8.01
6.88
5.85
5.01
4.39
4.01
3.91
4.1
4.51
5.01
5.34
5.23
4.52
3.23
1.56
-0.24
-1.98
-3.61
-5.21
-6.93
-8.89
-11.15
-13.75
-16.67
-19.81
-22.91
-25.53
-27.05
-26.89
-24.67
-20.43
-14.63
-8.05
-1.55
4.15
8.6
11.67
13.45
14.17
14.12
13.54
12.68
11.71
10.74
9.83
8.99
8.28
7.75
7.47
7.48
7.73
8.05
8.18
7.93
7.2
6.03
4.59
3.03
1.46
-0.12
-1.74
-3.46
-5.35
-7.51
-10.05
-13.03
-16.44
-20.07
-23.47
-26.06
-27.22
-26.46
-23.63
-18.93
-12.97
-6.56
-0.51
4.54
8.27
10.69
12.02
12.58
12.67
12.48
12.11
11.66
11.22
10.85
10.61
10.46
10.3
10.08
9.77
9.41
9.11
8.92
8.78
8.58
8.08
7.12
5.63
3.66
1.38
-1.03
-3.43
-5.75
-8.06
-10.52
-13.29
-16.4
-19.67
-22.7
-24.91
-25.79
-25
-22.51
-18.61
-13.79
-8.55
-3.38
1.35
5.42
8.68
11.09
12.69
13.59
13.95
13.89
13.55
13.04
12.43
11.81
11.18
10.55
9.9
9.25
8.67
8.26
8.07
8.06
8.05
7.77
6.95
5.48
3.41
1.01
-1.39
-3.53
-5.35
-6.99
-8.77
-11
-13.8
-17.04
-20.27
-22.88
-24.17
-23.68
-21.25
-17.09
-11.7
-5.76
0.08
5.27
9.46
12.54
14.54
15.58
15.83
15.47
14.68
13.62
12.48
11.49
10.82
10.62
10.89
11.46
12.12
12.65
12.88
12.77
12.29
11.39
10.02
8.08
5.59
2.67
-0.45
-3.5
-6.28
-8.7
-10.85
-12.93
-15.13
-17.64
-20.43
-23.25
-25.59
-26.81
-26.33
-23.9
-19.64
-14.07
-7.96
-2.04
3.13
7.27
10.36
12.52
13.87
14.57
14.72
14.5
14.1
13.7
13.45
13.4
13.5
13.62
13.69
13.62
13.41
13.1
12.74
12.3
11.74
10.93
9.72
8.06
5.99
3.73
1.55
-0.36
-2.03
-3.68
-5.67
-8.33
-11.72
-15.63
-19.62
-23.11
-25.54
-26.42
-25.46
-22.56
-17.96
-12.18
-5.98
-0.14
4.78
8.56
11.26
13.1
14.28
14.89
14.96
14.52
13.74
12.9
12.33
12.26
12.68
13.44
14.23
14.75
14.81
14.38
13.54
12.43
11.15
9.71
8.1
6.25
4.21
2.06
-0.04
-1.96
-3.67
-5.19
-6.61
-8.05
-9.7
-11.7
-14.14
-16.94
-19.85
-22.38
-23.93
-24.02
-22.4
-19.2
-14.81
-9.78
-4.58
0.39
4.85
8.56
11.36
13.17
14.09
14.32
14.14
13.79
13.42
13.07
12.79
12.69
12.84
13.23
13.69
13.93
13.67
12.82
11.55
10.18
9.03
8.19
7.55
6.81
5.74
4.22
2.38
0.41
-1.5
-3.27
-4.95
-6.68
-8.61
-10.87
-13.52
-16.46
-19.46
-22.1
-23.86
-24.27
-23.05
-20.2
-16.02
-11.04
-5.87
-1.04
3.1
6.42
8.96
10.81
12.09
12.89
13.24
13.18
12.81
12.25
11.7
11.32
11.21
11.34
11.55
11.73
11.77
11.71
11.67
11.71
11.78
11.69
11.21
10.16
8.54
6.53
4.36
2.29
0.43
-1.24
-2.8
-4.43
-6.24
-8.36
-10.83
-13.65
-16.71
-19.78
-22.49
-24.35
-24.88
-23.71
-20.76
-16.28
-10.82
-5.08
0.29
4.86
8.48
11.12
12.9
13.95
14.37
14.35
14.11
13.86
13.77
13.84
13.93
13.93
13.78
13.5
13.22
13.02
12.91
12.8
12.53
12.02
11.28
10.41
9.54
8.74
7.95
7.04
5.8
4.15
2.09
-0.21
-2.55
-4.77
-6.84
-8.84
-10.89
-13.05
-15.33
-17.67
-20.02
-22.31
-24.38
-25.94
-26.58
-25.82
-23.38
-19.27
-13.86
-7.86
-2.02
3
6.87
9.57
11.28
12.33
12.99
13.43
13.75
13.94
13.99
13.86
13.57
13.21
12.88
12.71
12.77
13.04
13.39
13.66
13.72
13.48
13
12.34
11.59
10.74
9.75
8.53
7.02
5.26
3.27
1.14
-1.11
-3.43
-5.75
-7.97
-9.95
-11.64
-13.13
-14.67
-16.56
-18.98
-21.81
-24.59
-26.62
-27.18
-25.84
-22.57
-17.77
-12.08
-6.26
-0.97
3.36
6.48
8.46
9.5
9.96
10.11
10.12
10.02
9.75
9.29
8.72
8.2
7.86
7.8
7.98
8.28
8.58
8.76
8.8
8.62
8.2
7.49
6.52
5.32
3.97
2.51
0.99
-0.56
-2.09
-3.51
-4.8
-5.92
-7
-8.24
-9.84
-11.95
-14.53
-17.37
-20.04
-22.09
-23.1
-22.8
-21.12
-18.2
-14.39
-10.08
-5.66
-1.45
2.31
5.48
7.97
9.77
10.89
11.4
11.41
11.06
10.49
9.83
9.18
8.6
8.16
7.9
7.83
7.92
8.14
8.35
8.45
8.32
7.92
7.23
6.24
4.97
3.41
1.62
-0.27
-2.12
-3.84
-5.4
-6.91
-8.54
-10.44
-12.71
-15.37
-18.29
-21.23
-23.79
-25.45
-25.71
-24.23
-21.01
-16.48
-11.31
-6.22
-1.72
1.95
4.8
6.91
8.37
9.3
9.81
10.09
10.34
10.7
11.15
11.58
11.82
11.77
11.45
10.92
10.27
9.6
8.97
8.42
7.98
7.66
7.35
6.93
6.23
5.15
3.63
1.75
-0.33
-2.46
-4.51
-6.48
-8.47
-10.67
-13.23
-16.2
-19.41
-22.51
-25.02
-26.47
-26.52
-25.03
-22.12
-18.05
-13.24
-8.18
-3.36
0.8
4.05
6.38
7.89
8.8
9.3
9.49
9.43
9.18
8.82
8.49
8.32
8.34
8.5
8.64
8.61
8.33
7.81
7.15
6.46
5.8
5.13
4.35
3.34
1.98
0.3
-1.57
-3.4
-4.99
-6.26
-7.38
-8.69
-10.57
-13.22
-16.55
-20.09
-23.22
-25.27
-25.78
-24.6
-21.87
-17.96
-13.33
-8.42
-3.62
0.73
4.41
7.26
9.23
10.35
10.78
10.7
10.28
9.66
8.92
8.1
7.23
6.34
5.47
4.65
3.92
3.36
3.04
2.97
3.03
3.01
2.63
1.7
0.21
-1.66
-3.63
-5.44
-6.99
-8.32
-9.62
-11.09
-12.88
-15.09
-17.66
-20.34
-22.62
-23.89
-23.6
-21.47
-17.75
-13.03
-8.13
-3.71
-0.13
2.61
4.74
6.44
7.81
8.76
9.23
9.2
8.77
8.07
7.24
6.4
5.64
5.05
4.71
4.64
4.77
4.94
4.96
4.66
3.99
2.96
1.71
0.35
-0.99
-2.33
-3.7
-5.26
-7.19
-9.6
-12.49
-15.65
-18.68
-21.04
-22.22
-21.86
-19.87
-16.44
-12.01
-7.1
-2.29
1.97
5.39
7.84
9.39
10.29
10.79
11.09
11.27
11.28
11.02
10.42
9.58
8.65
7.86
7.37
7.14
7.03
6.82
6.38
5.68
4.8
3.8
2.68
1.36
-0.23
-2.09
-4.12
-6.22
-8.4
-10.79
-13.57
-16.76
-20.13
-23.09
-24.92
-25.03
-23.2
-19.65
-14.91
-9.65
-4.43
0.42
4.76
8.53
11.67
14.13
15.84
16.81
17.16
17.03
16.63
16.11
15.55
14.96
14.31
13.56
12.74
11.99
11.42
11.14
11.09
11.08
10.82
10.06
8.67
6.71
4.4
1.98
-0.32
-2.39
-4.24
-6
-7.84
-9.96
-12.44
-15.17
-17.85
-19.97
-20.97
-20.49
-18.42
-14.99
-10.67
-6.02
-1.49
2.54
5.89
8.49
10.38
11.69
12.57
13.2
13.63
13.93
14.06
14.07
14.03
14.03
14.18
14.48
14.86
15.19
15.36
15.31
15.07
14.68
14.15
13.4
12.3
10.72
8.63
6.16
3.54
1.07
-0.99
-2.56
-3.74
-4.81
-6.1
-7.89
-10.32
-13.28
-16.43
-19.3
-21.33
-22.06
-21.21
-18.79
-15.05
-10.45
-5.56
-0.91
3.15
6.46
9.03
10.94
12.27
13.02
13.21
12.95
12.39
11.75
11.21
10.83
10.55
10.25
9.87
9.44
9.07
8.88
8.9
9.03
9.07
8.75
7.89
6.4
4.37
2.04
-0.35
-2.57
-4.56
-6.4
-8.26
-10.33
-12.74
-15.42
-18.16
-20.62
-22.37
-22.97
-22.12
-19.73
-16.03
-11.47
-6.61
-1.94
2.23
5.76
8.65
10.9
12.5
13.42
13.77
13.76
13.69
13.76
14.08
14.52
14.91
15.07
14.92
14.56
14.12
13.69
13.29
12.84
12.2
11.24
9.9
8.17
6.13
3.91
1.64
-0.55
-2.56
-4.43
-6.23
-8.12
-10.26
-12.77
-15.62
-18.65
-21.48
-23.64
-24.59
-23.93
-21.53
-17.6
-12.61
-7.19
-1.92
2.82
6.89
10.26
12.94
14.91
16.1
16.49
16.18
15.41
14.55
13.92
13.71
13.92
14.4
14.9
15.18
15.12
14.7
14.04
13.26
12.43
11.55
10.55
9.32
7.81
6.04
4.06
2.02
0.01
-1.89
-3.7
-5.43
-7.13
-8.88
-10.74
-12.81
-15.12
-17.61
-20.05
-21.99
-22.89
-22.25
-19.84
-15.79
-10.62
-5.06
0.18
4.58
7.91
10.2
11.64
12.46
12.89
13.06
13.04
12.83
12.45
12
11.59
11.35
11.3
11.38
11.39
11.2
10.74
10.12
9.54
9.07
8.67
8.1
7.12
5.57
3.53
1.22
-1.09
-3.21
-5.06
-6.7
-8.25
-9.85
-11.68
-13.88
-16.55
-19.64
-22.89
-25.83
-27.85
-28.37
-27.08
-24.01
-19.59
-14.48
-9.45
-5.11
-1.76
0.63
2.37
3.91
5.66
7.77
10.19
12.68
14.94
16.73
17.96
18.66
18.9
18.75
18.23
17.36
16.27
15.11
14.04
13.1
12.16
11
9.36
7.17
4.54
1.79
-0.76
-2.91
-4.69
-6.27
-7.88
-9.71
-11.81
-14.16
-16.68
-19.15
-21.24
-22.57
-22.73
-21.39
-18.58
-14.58
-9.93
-5.2
-0.87
2.85
5.92
8.38
10.29
11.59
12.21
12.13
11.47
10.48
9.51
8.9
8.78
9.1
9.59
10
10.08
9.8
9.24
8.55
7.83
7.04
6.07
4.73
3
0.97
-1.11
-3.02
-4.64
-6.02
-7.41
-9.09
-11.26
-13.94
-16.94
-19.89
-22.28
-23.61
-23.4
-21.41
-17.73
-12.81
-7.3
-1.98
2.57
6.03
8.34
9.65
10.16
10.09
9.6
8.89
8.14
7.48
6.97
6.59
6.27
5.91
5.53
5.17
4.95
4.92
5.05
5.25
5.4
5.39
5.11
4.48
3.47
2.06
0.34
-1.59
-3.57
-5.52
-7.39
-9.23
-11.17
-13.29
-15.58
-17.87
-19.79
-20.82
-20.49
-18.46
-14.78
-9.85
-4.37
0.88
5.33
8.67
10.91
12.21
12.76
12.71
12.15
11.2
9.98
8.7
7.57
6.73
6.26
6.12
6.26
6.56
6.91
7.13
7.07
6.62
5.74
4.45
2.84
1.08
-0.7
-2.4
-3.95
-5.34
-6.59
-7.82
-9.14
-10.76
-12.78
-15.2
-17.79
-20.11
-21.57
-21.63
-20
-16.67
-11.95
-6.4
-0.68
4.58
8.82
11.65
12.91
12.7
11.34
9.27
6.96
4.74
2.86
1.41
0.45
-0.01
-0.01
0.32
0.86
1.46
2.07
2.7
3.35
3.91
4.22
4.04
3.22
1.77
-0.14
-2.25
-4.36
-6.41
-8.46
-10.61
-12.95
-15.45
-17.96
-20.26
-22.02
-22.84
-22.3
-20.12
-16.26
-11.02
-5.06
0.81
5.85
9.6
11.98
13.21
13.59
13.4
12.77
11.75
10.43
8.9
7.4
6.17
5.34
4.95
4.88
4.93
4.93
4.79
4.56
4.31
4.12
3.9
3.46
2.56
1.08
-0.88
-3.04
-5.05
-6.73
-8.13
-9.54
-11.27
-13.51
-16.18
-18.93
-21.3
-22.84
-23.19
-22.12
-19.57
-15.66
-10.7
-5.21
0.18
4.84
8.33
10.48
11.43
11.52
11.16
10.63
10.09
9.54
8.92
8.18
7.34
6.48
5.75
5.29
5.16
5.36
5.83
6.44
7.03
7.42
7.4
6.82
5.61
3.79
1.54
-0.9
-3.27
-5.43
-7.42
-9.38
-11.53
-14.05
-16.9
-19.85
-22.44
-24.14
-24.44
-23.07
-20.03
-15.68
-10.61
-5.48
-0.85
2.94
5.82
7.92
9.4
10.36
10.8
10.67
9.94
8.73
7.25
5.82
4.72
4.14
4.09
4.47
5.09
5.71
6.2
6.46
6.48
6.28
5.8
4.98
3.79
2.23
0.42
-1.43
-3.16
-4.78
-6.48
-8.6
-11.36
-14.74
-18.37
-21.54
-23.51
-23.69
-21.89
-18.33
-13.57
-8.32
-3.21
1.29
4.93
7.62
9.39
10.31
10.48
10.03
9.12
7.95
6.71
5.57
4.6
3.88
3.42
3.23
3.27
3.52
3.85
4.11
4.14
3.82
3.13
2.16
1.09
0.04
-0.97
-2.04
-3.4
-5.22
-7.59
-10.45
-13.5
-16.28
-18.23
-18.85
-17.78
-14.99
-10.76
-5.66
-0.44
4.22
7.85
10.31
11.74
12.38
12.51
12.27
11.74
10.95
10.01
9.05
8.21
7.6
7.19
6.88
6.57
6.15
5.55
4.79
3.88
2.83
1.67
0.4
-0.96
-2.49
-4.24
-6.36
-8.93
-11.97
-15.31
-18.56
-21.19
-22.6
-22.32
-20.17
-16.35
-11.36
-5.94
-0.83
3.45
6.61
8.65
9.8
10.31
10.41
10.21
9.74
9.01
8.09
7.06
6.09
5.35
4.97
4.96
5.21
5.55
5.73
5.58
4.97
3.91
2.44
0.6
-1.63
-4.3
-7.47
-11.1
-15.05
-19.01
-22.58
-25.33
-26.9
-27.03
-25.57
-22.56
-18.19
-12.84
-7.03
-1.34
3.73
7.86
10.95
13.09
14.48
15.36
15.89
16.16
16.16
15.86
15.22
14.27
13.12
11.92
10.84
9.93
9.13
8.32
7.33
6.14
4.82
3.45
2.12
0.73
-0.92
-3.09
-5.92
-9.38
-13.21
-16.97
-20.15
-22.22
-22.78
-21.62
-18.81
-14.67
-9.76
-4.69
0.03
4.03
7.21
9.61
11.33
12.47
13.02
12.96
12.24
10.9
9.1
7.11
5.17
3.58
2.46
1.78
1.37
1.04
0.63
0.06
-0.61
-1.32
-2.02
-2.74
-3.63
-4.91
-6.74
-9.16
-12.07
-15.19
-18.15
-20.55
-21.99
-22.05
-20.43
-17.01
-11.94
-5.71
0.92
7.08
12.07
15.52
17.46
18.19
18.12
17.57
16.77
15.85
14.9
14.05
13.48
13.23
13.23
13.2
12.79
11.7
9.84
7.41
4.78
2.35
0.4
-1.06
-2.24
-3.42
-4.83
-6.56
-8.56
-10.8
-13.25
-15.92
-18.69
-21.22
-22.96
-23.27
-21.66
-18.02
-12.68
-6.38
0.04
5.87
10.71
14.44
17.13
18.84
19.58
19.3
18.03
15.95
13.39
10.81
8.63
7.07
6.21
5.9
5.92
6.05
6.13
6.08
5.92
5.65
5.31
4.86
4.23
3.34
2.18
0.83
-0.63
-2.19
-3.97
-6.25
-9.22
-12.87
-16.83
-20.39
-22.72
-23.12
-21.27
-17.25
-11.56
-4.86
2.08
8.57
14.06
18.13
20.59
21.44
20.9
19.38
17.34
15.25
13.44
12.09
11.2
10.69
10.46
10.44
10.56
10.73
10.81
10.63
10.02
8.94
7.48
5.81
4.12
2.49
0.93
-0.65
-2.36
-4.35
-6.68
-9.37
-12.38
-15.5
-18.39
-20.53
-21.36
-20.45
-17.6
-13.04
-7.28
-1.14
4.58
9.22
12.48
14.4
15.22
15.31
14.89
14.08
12.86
11.29
9.49
7.69
6.17
5.07
4.46
4.27
4.33
4.44
4.44
4.18
3.56
2.53
1.13
-0.51
-2.26
-3.98
-5.6
-7.12
-8.64
-10.31
-12.23
-14.42
-16.67
-18.53
-19.39
-18.64
-15.9
-11.22
-5.1
1.67
8.22
13.91
18.44
21.82
24.17
25.6
26.11
25.67
24.41
22.69
21.08
20.17
20.3
21.45
23.15
24.75
25.73
25.96
25.72
25.6
26.12
27.47
29.4
31.32
32.55
32.64
31.51
29.44
26.98
24.77
23.51
23.95
26.79
32.3
39.85
47.73
53.42
54.45
49.39
38.55
23.83
7.96
-6.67
-18.78
-28.39
-36.31
-43.35
-49.98
-56.13
-61.6
-66.35
-70.54
-74.35
-77.7
-80.16
-81.12
-80.1
-77.02
-72.35
-66.87
-61.42
-56.6
-52.58
-49.27
-46.4
-43.76
-41.35
-39.29
-37.74
-36.7
-35.94
-35.01
-33.37
-30.49
-26.14
-20.36
-13.56
-6.36
0.55
6.55
11.25
14.54
16.59
17.76
18.42
18.84
19.13
19.25
19.13
18.69
18.03
17.29
16.67
16.27
16.04
15.82
15.38
14.59
13.4
11.93
10.35
8.76
7.15
5.36
3.2
0.57
-2.5
-5.84
-9.2
-12.24
-14.57
-15.78
-15.47
-13.36
-9.46
-4.13
1.96
8
13.21
17.13
19.62
20.85
21.17
20.92
20.36
19.62
18.74
17.74
16.63
15.48
14.36
13.31
12.37
11.52
10.74
9.96
9.11
8.14
6.99
5.68
4.33
3.05
1.92
0.93
-0.12
-1.46
-3.33
-5.85
-8.98
-12.45
-15.84
-18.53
-19.92
-19.51
-17.1
-12.86
-7.34
-1.27
4.59
9.7
13.77
16.75
18.68
19.62
19.68
19.02
17.92
16.64
15.42
14.35
13.37
12.36
11.25
10.13
9.13
8.47
8.2
8.2
8.23
8.01
7.37
6.23
4.63
2.7
0.57
-1.56
-3.52
-5.23
-6.7
-8.16
-9.94
-12.27
-15.09
-17.96
-20.12
-20.75
-19.3
-15.69
-10.38
-4.17
2.05
7.57
12
15.22
17.31
18.4
18.58
17.99
16.79
15.26
13.73
12.54
11.86
11.71
11.89
12.11
12.12
11.77
11.1
10.26
9.4
8.65
8.03
7.44
6.75
5.85
4.67
3.25
1.7
0.13
-1.34
-2.71
-4.04
-5.49
-7.24
-9.45
-12.23
-15.52
-19.09
-22.52
-25.24
-26.62
-26.18
-23.71
-19.35
-13.62
-7.24
-1
4.44
8.63
11.47
13.08
13.74
13.75
13.4
12.85
12.24
11.68
11.28
11.16
11.36
11.78
12.21
12.36
12.08
11.38
10.46
9.61
9.05
8.74
8.48
7.87
6.61
4.64
2.15
-0.44
-2.73
-4.47
-5.63
-6.38
-6.95
-7.58
-8.42
-9.55
-11.05
-12.9
-14.96
-16.88
-18.14
-18.12
-16.41
-13.01
-8.35
-3.2
1.65
5.62
8.48
10.31
11.35
11.79
11.76
11.34
10.63
9.82
9.14
8.79
8.8
9.1
9.45
9.65
9.59
9.26
8.72
8.06
7.32
6.48
5.48
4.3
2.91
1.36
-0.27
-1.89
-3.36
-4.55
-5.41
-5.96
-6.37
-6.86
-7.63
-8.84
-10.46
-12.34
-14.22
-15.76
-16.57
-16.31
-14.74
-11.86
-7.92
-3.48
0.85
4.47
7.03
8.49
8.98
8.7
7.83
6.54
5.02
3.52
2.37
1.8
1.87
2.42
3.11
3.6
3.72
3.52
3.2
2.93
2.76
2.54
2.09
1.24
0
-1.54
-3.19
-4.81
-6.31
-7.63
-8.77
-9.8
-10.89
-12.22
-13.98
-16.12
-18.38
-20.25
-21.14
-20.61
-18.52
-15.08
-10.73
-6.02
-1.48
2.48
5.63
7.87
9.16
9.57
9.22
8.28
6.97
5.57
4.38
3.57
3.17
3.07
3.07
3.02
2.91
2.81
2.83
2.95
3.02
2.79
2.07
0.83
-0.76
-2.41
-3.87
-5
-5.85
-6.61
-7.52
-8.75
-10.46
-12.67
-15.26
-17.94
-20.21
-21.51
-21.39
-19.62
-16.36
-12.08
-7.45
-3.14
0.37
2.87
4.44
5.29
5.7
5.88
5.87
5.65
5.18
4.5
3.74
3.07
2.58
2.26
1.99
1.69
1.39
1.25
1.44
1.95
2.58
2.99
2.83
1.95
0.41
-1.53
-3.58
-5.51
-7.22
-8.72
-10.11
-11.51
-13.1
-14.98
-17.15
-19.34
-21.09
-21.82
-21.05
-18.62
-14.71
-9.89
-4.84
-0.17
3.72
6.61
8.57
9.73
10.24
10.28
9.97
9.44
8.82
8.28
7.92
7.77
7.71
7.54
7.04
6.1
4.81
3.42
2.21
1.32
0.71
0.17
-0.61
-1.76
-3.23
-4.82
-6.26
-7.42
-8.33
-9.2
-10.27
-11.73
-13.61
-15.85
-18.3
-20.69
-22.64
-23.66
-23.31
-21.29
-17.63
-12.68
-7.06
-1.5
3.36
7.09
9.49
10.58
10.55
9.75
8.56
7.37
6.36
5.58
4.9
4.19
3.43
2.69
2.09
1.71
1.53
1.42
1.3
1.06
0.67
0.11
-0.64
-1.67
-3.01
-4.63
-6.41
-8.2
-9.85
-11.34
-12.78
-14.34
-16.17
-18.25
-20.31
-21.91
-22.52
-21.7
-19.28
-15.43
-10.66
-5.61
-0.92
2.98
5.87
7.8
8.92
9.42
9.44
9.02
8.19
6.97
5.48
3.92
2.51
1.43
0.76
0.44
0.35
0.29
0.12
-0.25
-0.85
-1.68
-2.73
-4.04
-5.65
-7.61
-9.86
-12.28
-14.72
-17.05
-19.32
-21.7
-24.46
-27.68
-31.18
-34.43
-36.7
-37.37
-36.24
-33.56
-30
-26.36
-23.29
-21.21
-20.26
-20.43
-21.67
-23.92
-27.07
-30.91
-35.16
-39.56
-43.92
-48.17
-52.36
-56.57
-60.95
-65.7
-71.07
-77.17
-84.05
-91.46
-98.96
-105.9
-111.44
-114.68
-114.69
-110.65
-101.91
-88.15
-69.52
-46.76
-21.18
5.5
31.38
54.68
74.05
88.68
98.45
103.87
105.88
105.63
104.24
102.53
100.93
99.51
98.05
96.26
94
91.28
88.2
84.89
81.4
77.69
73.7
69.44
64.99
60.55
56.32
52.42
48.86
45.57
42.46
39.48
36.6
33.86
31.28
28.81
26.46
24.21
22.09
20.08
18.11
16.04
13.78
11.28
8.64
6.01
3.52
1.22
-1.06
-3.53
-6.48
-10.06
-14.22
-18.65
-22.78
-25.94
-27.48
-26.99
-24.39
-20.02
-14.49
-8.59
-2.99
1.85
5.71
8.64
10.8
12.39
13.5
14.21
14.55
14.59
14.5
14.42
14.51
14.79
15.19
15.59
15.85
15.91
15.78
15.51
15.14
14.64
13.93
12.9
11.45
9.55
7.25
4.72
2.19
-0.14
-2.19
-4.01
-5.74
-7.58
-9.69
-12.15
-14.94
-17.91
-20.84
-23.34
-24.99
-25.37
-24.17
-21.3
-16.96
-11.58
-5.71
0.04
5.13
9.24
12.2
14.1
15.09
15.37
15.12
14.5
13.7
12.92
12.35
12.11
12.19
12.47
12.78
12.97
13
12.88
12.62
12.22
11.58
10.64
9.38
7.82
6.01
4.03
1.95
-0.12
-2.08
-3.9
-5.62
-7.4
-9.47
-12.01
-15.07
-18.4
-21.51
-23.7
-24.37
-23.15
-20.05
-15.48
-10.1
-4.56
0.66
5.33
9.43
12.95
15.86
18.02
19.31
19.68
19.27
18.35
17.27
16.31
15.61
15.22
15.01
14.89
14.74
14.51
14.17
13.75
13.3
12.84
12.35
11.71
10.81
9.53
7.83
5.83
3.69
1.64
-0.25
-2.04
-3.86
-5.89
-8.21
-10.87
-13.85
-17.09
-20.39
-23.38
-25.51
-26.15
-24.84
-21.49
-16.43
-10.36
-4.14
1.54
6.3
10.09
13.04
15.33
17.04
18.13
18.52
18.16
17.18
15.9
14.69
13.87
13.54
13.57
13.69
13.63
13.29
12.75
12.23
11.89
11.77
11.69
11.36
10.53
9.07
7.14
4.98
2.87
0.93
-0.84
-2.58
-4.46
-6.63
-9.16
-12.06
-15.23
-18.5
-21.61
-24.12
-25.54
-25.44
-23.56
-19.97
-15.02
-9.32
-3.5
1.86
6.41
10.03
12.73
14.6
15.71
16.13
15.94
15.26
14.31
13.33
12.54
12.02
11.73
11.5
11.15
10.6
9.9
9.21
8.64
8.25
7.93
7.52
6.79
5.64
4.05
2.11
-0.02
-2.22
-4.34
-6.36
-8.26
-10.09
-11.99
-14.08
-16.5
-19.21
-21.98
-24.32
-25.65
-25.38
-23.22
-19.19
-13.72
-7.54
-1.45
3.85
7.93
10.6
11.95
12.24
11.8
10.98
10.08
9.35
8.9
8.81
8.99
9.33
9.69
9.89
9.83
9.44
8.79
7.98
7.21
6.61
6.19
5.85
5.4
4.64
3.47
1.95
0.26
-1.37
-2.79
-4.07
-5.42
-7.15
-9.49
-12.47
-15.89
-19.36
-22.34
-24.31
-24.85
-23.69
-20.8
-16.39
-10.96
-5.2
0.17
4.66
8.03
10.33
11.79
12.59
12.86
12.64
12.04
11.23
10.51
10.12
10.16
10.57
11.09
11.43
11.39
10.93
10.17
9.27
8.33
7.39
6.36
5.13
3.64
1.86
-0.13
-2.19
-4.21
-6.1
-7.83
-9.42
-11
-12.72
-14.76
-17.19
-19.86
-22.39
-24.21
-24.78
-23.7
-20.95
-16.82
-11.86
-6.68
-1.78
2.52
6.09
8.91
10.99
12.36
13.06
13.15
12.8
12.23
11.66
11.2
10.86
10.56
10.23
9.89
9.65
9.67
10.1
10.98
12.18
13.43
14.39
14.78
14.46
13.47
12.02
10.39
8.87
7.63
6.75
6.16
5.74
5.31
4.65
3.64
2.27
0.78
-0.35
-0.44
1.14
4.8
10.52
17.74
25.61
33.1
39.39
43.99
46.8
47.98
47.89
46.95
45.64
44.44
43.79
44.04
45.36
47.68
50.73
54.13
57.45
60.31
62.41
63.49
63.46
62.32
60.16
57.16
53.49
49.33
44.88
40.33
35.83
31.51
27.33
23.07
18.3
12.49
5.19
-3.79
-14.18
-25.24
-35.87
-44.87
-51.27
-54.58
-54.88
-52.72
-48.88
-44.2
-39.43
-35.14
-31.74
-29.48
-28.3
-27.96
-28.01
-27.97
-27.49
-26.42
-24.78
-22.64
-20.05
-16.88
-12.92
-7.94
-1.84
5.29
13.12
21.12
28.67
35.18
40.28
43.85
46.01
47.03
47.19
46.61
45.27
42.97
39.54
34.83
28.88
21.89
14.31
6.75
-0.02
-5.3
-8.66
-10.11
-10.17
-9.71
-9.69
-10.83
-13.47
-17.48
-22.43
-27.79
-33.14
-38.2
-42.88
-47.17
-51.06
-54.48
-57.21
-59.01
-59.8
-59.67
-59.11
-58.79
-59.37
-61.26
-64.52
-68.84
-73.77
-78.87
-83.8
-88.4
-92.63
-96.53
-100.27
-104.01
-107.61
-110.32
-110.45
-105.62
-93.35
-72.17
-42.39
-6.32
32.25
69.31
101.75
128.14
148.72
164.81
178.05
189.75
200.58
210.49
218.66
223.65
223.61
216.94
202.98
182.63
158.38
133.65
111.82
95.2
84.59
79.34
77.9
78.56
79.82
80.59
80.08
77.78
73.49
67.43
60.27
53.03
46.58
41.18
36.14
29.85
20.42
6.57
-11.58
-32.31
-52.83
-70.44
-83.5
-91.95
-96.89
-99.85
-101.9
-103.38
-104.11
-103.9
-102.91
-101.73
-101.06
-101.28
-102.27
-103.47
-104.18
-103.88
-102.47
-100.23
-97.68
-95.34
-93.52
-92.24
-91.25
-90.19
-88.74
-86.76
-84.31
-81.64
-79.06
-76.81
-75.01
-73.66
-72.66
-71.89
-71.32
-71.02
-71.17
-71.97
-73.56
-75.96
-79.07
-82.63
-86.24
-89.36
-91.35
-91.51
-89.31
-84.47
-77.13
-67.77
-57.12
-45.86
-34.6
-23.66
-13.18
-3.12
6.56
15.85
24.61
32.49
38.99
43.54
45.67
45.14
42
36.53
29.11
20.2
10.16
-0.6
-11.64
-22.42
-32.48
-41.5
-49.44
-56.43
-62.56
-67.75
-71.6
-73.63
-73.45
-71.12
-67.26
-62.82
-58.8
-55.77
-53.7
-51.91
-49.38
-45.15
-38.6
-29.66
-18.82
-6.94
4.97
15.96
25.31
32.58
37.68
40.83
42.38
42.77
42.39
41.57
40.57
39.61
38.89
38.51
38.45
38.6
38.7
38.54
37.97
36.99
35.71
34.23
32.61
30.81
28.67
26.07
22.95
19.33
15.35
11.23
7.16
3.33
-0.15
-3.3
-6.22
-9.1
-12.16
-15.55
-19.34
-23.42
-27.46
-30.89
-32.92
-32.75
-29.81
-23.99
-15.78
-6.17
3.61
12.48
19.73
25.04
28.51
30.37
30.92
30.51
29.5
28.24
27.06
26.16
25.56
25.18
24.88
24.58
24.33
24.19
24.2
24.27
24.21
23.77
22.77
21.08
18.7
15.78
12.51
9.15
5.92
2.95
0.26
-2.27
-4.76
-7.28
-9.78
-12.12
-14.17
-15.86
-17.36
-18.98
-21.09
-23.97
-27.64
-31.72
-35.45
-37.82
-37.73
-34.44
-27.76
-18.3
-7.26
3.82
13.56
21.08
26.09
28.87
29.91
29.74
28.81
27.44
25.91
24.48
23.36
22.63
22.24
22
21.75
21.42
21.04
20.7
20.46
20.25
19.94
19.33
18.27
16.7
14.69
12.36
9.86
7.28
4.65
1.89
-1.06
-4.21
-7.5
-10.76
-13.78
-16.39
-18.56
-20.42
-22.31
-24.55
-27.38
-30.83
-34.57
-38
-40.31
-40.68
-38.4
-33.23
-25.36
-15.52
-4.86
5.36
13.98
20.31
24.22
26.02
26.29
25.63
24.48
23.04
21.44
19.77
18.2
16.97
16.23
16.01
16.15
16.39
16.47
16.21
15.55
14.56
13.35
12.04
10.67
9.19
7.43
5.19
2.35
-1.03
-4.73
-8.4
-11.74
-14.61
-17.04
-19.22
-21.36
-23.64
-26.2
-29.15
-32.48
-35.95
-39.05
-40.91
-40.55
-37.2
-30.64
-21.35
-10.43
0.69
10.69
18.63
24.1
27.13
28.1
27.51
25.87
23.67
21.32
19.17
17.46
16.33
15.83
15.87
16.19
16.47
16.45
15.92
14.92
13.67
12.47
11.55
10.9
10.23
9.12
7.17
4.21
0.47
-3.6
-7.44
-10.68
-13.24
-15.38
-17.55
-20.14
-23.48
-27.51
-31.94
-36.23
-39.64
-41.36
-40.66
-37.1
-30.67
-21.9
-11.71
-1.23
8.48
16.64
22.81
26.9
28.98
29.26
28.06
25.79
22.97
20.08
17.54
15.59
14.26
13.45
12.99
12.66
12.3
11.78
11.05
10.19
9.32
8.54
7.81
6.93
5.55
3.39
0.37
-3.24
-7
-10.4
-13.18
-15.39
-17.36
-19.47
-22.06
-25.24
-28.84
-32.47
-35.54
-37.36
-37.21
-34.56
-29.26
-21.61
-12.42
-2.85
5.94
12.99
17.83
20.48
21.37
21.03
20
18.57
16.9
15.07
13.17
11.38
9.91
8.9
8.37
8.23
8.28
8.42
8.58
8.79
9.04
9.22
9.13
8.51
7.21
5.24
2.81
0.23
-2.18
-4.25
-5.98
-7.61
-9.52
-12.11
-15.63
-20.05
-24.94
-29.57
-32.97
-34.26
-32.81
-28.45
-21.53
-12.87
-3.53
5.36
12.87
18.44
21.88
23.42
23.49
22.56
21.05
19.21
17.18
15.1
13.1
11.29
9.79
8.64
7.84
7.36
7.14
7.09
7.03
6.74
5.93
4.38
2.02
-1.05
-4.5
-7.96
-11.12
-13.89
-16.39
-18.97
-22.05
-25.88
-30.4
-35.09
-39.04
-41.12
-40.29
-36.01
-28.36
-18.19
-6.86
4.13
13.51
20.54
25.05
27.37
28.02
27.52
26.26
24.53
22.55
20.58
18.82
17.38
16.27
15.41
14.68
14.04
13.53
13.21
13.09
13.05
12.84
12.19
10.85
8.73
5.85
2.37
-1.49
-5.58
-9.78
-14.19
-18.97
-24.3
-30.09
-35.93
-40.99
-44.19
-44.55
-41.46
-34.99
-25.87
-15.26
-4.5
5.31
13.44
19.54
23.61
25.79
26.32
25.5
23.69
21.34
18.88
16.71
15.07
13.99
13.38
13.04
12.82
12.66
12.54
12.48
12.4
12.16
11.49
10.15
7.98
4.98
1.38
-2.46
-6.15
-9.38
-12.04
-14.31
-16.62
-19.54
-23.51
-28.52
-34.06
-39.01
-42.04
-41.95
-38.11
-30.66
-20.58
-9.37
1.46
10.68
17.7
22.53
25.53
27.15
27.73
27.41
26.25
24.37
22.09
19.84
18.03
16.87
16.3
16.06
15.84
15.43
14.79
14
13.18
12.34
11.33
9.88
7.75
4.82
1.26
-2.6
-6.32
-9.57
-12.24
-14.48
-16.56
-18.8
-21.47
-24.64
