71.52
68.96
64.39
58.27
51.38
44.45
37.94
31.77
25.53
18.79
11.56
4.35
-2.07
-7.25
-11.27
-14.8
-18.6
-23.03
-27.8
-32.05
-34.81
-35.35
-33.55
-29.74
-24.51
-18.42
-12.02
-5.64
0.47
6.12
11.26
15.88
20.04
23.85
27.45
30.98
34.67
38.71
43.12
47.76
52.26
56.14
58.9
60.17
59.77
57.8
54.6
50.61
46.28
41.98
37.93
34.21
30.79
27.6
24.67
22.15
20.21
18.98
18.33
17.97
17.56
16.87
16.06
15.61
16.09
17.89
20.91
24.49
27.85
30.29
31.61
32.05
32.07
31.96
31.69
30.96
29.45
27.04
24
20.77
17.83
15.44
13.54
11.92
10.34
8.53
6.35
3.71
0.61
-2.82
-6.11
-8.62
-9.58
-8.48
-5.36
-0.91
3.86
7.98
11.07
13.28
15.31
18.01
22.09
27.58
33.89
39.95
44.77
47.91
49.61
50.58
51.65
53.36
55.64
57.82
58.67
56.66
49.86
36.11
13.81
-16.8
-52.79
-88.84
-118.92
-138.45
-145.48
-141.37
-129.81
-114.88
-99.12
-82.99
-65.98
-48.07
-30.48
-13.95
1.2
14.96
27.33
38.25
47.42
53.72
55.19
49.26
35.85
16.39
-7.16
-32.92
-58.69
-81.42
-97.94
-105.75
-103.52
-88.25
-57.38
-10.72
48.53
115.15
183.97
250.51
311.26
347.47
343.8
298.47
225.75
144.53
67.73
1
-55.12
-102.41
-143.72
-179.22
-208.48
-232.2
-253.12
-274.53
-297.72
-323.7
-350.75
-376.43
-396.24
-406.14
-404.17
-391.52
-371.41
-346.44
-318.94
-290.68
-263.22
-236.41
-209.55
-181.78
-152.22
-126.05
-105.59
-91.64
-83.63
-80.34
-79.46
-78.48
-75.23
-68.53
-57.98
-42.65
-22.22
2.94
31.38
61.12
89.5
113.61
130.5
137.72
134.56
121.22
98.81
68.93
33.79
-4.05
-41.54
-75.33
-102.03
-118.09
-121.14
-110.4
-87.12
-54.35
-16.4
22.18
57.55
87.17
110.34
127.42
139.41
147.22
151.77
153.95
155.05
157.06
162.35
173.36
191.92
219.08
254.69
297.22
343.16
386.74
420.72
437.87
433.6
407.92
366.22
317.72
272.49
237.92
216.77
207.23
204.89
205.48
206.63
208.21
211.11
215.95
222.22
228.48
233.22
235.48
235.34
233.48
230.46
226.27
220.32
211.99
201.12
188.31
174.6
161.06
148.51
137.1
126.53
116.32
106.1
95.71
85.21
74.73
64.5
54.82
46.08
38.7
33.02
29.1
26.64
25.14
24.11
23.39
23.04
22.98
22.67
21.1
17.31
11.32
4.84
1.1
3.73
15.03
34.42
58.31
81.05
97.19
103.3
98.94
86.26
68.71
49.84
32.67
19.65
12.59
12.55
19.23
30.51
42.67
51.38
53.19
46.71
33.03
14.88
-4.49
-22.38
-37.19
-48.29
-55.56
-59.23
-59.83
-58.34
-56.25
-55.11
-55.95
-58.76
-62.46
-65.46
-66.44
-65.02
-61.76
-57.76
-53.93
-50.59
-47.5
-44.14
-40.17
-35.68
-31.12
-26.99
-23.57
-20.67
-17.8
-14.42
-10.21
-5.21
0.22
5.65
10.84
15.74
20.37
24.41
26.94
26.35
20.75
8.79
-9.67
-33.08
-58.66
-83.23
-104.25
-120.47
-132.02
-140.07
-146.4
-153.17
-162.76
-177.8
-200.68
-232.76
-273.57
-320.62
-370.02
-417.61
-460.28
-496.46
-526.12
-550.39
-570.93
-589.23
-605.63
-618.32
-622.76
-612.45
-581.03
-525.29
-447.58
-355.87
-261.53
-175.69
-106.17
-56.35
-25.78
-11.46
-10.01
-18.4
-33.61
-52.01
-69.27
-81.38
-86.09
-83.17
-73.13
-57.42
-37.85
-16.07
7.27
32.18
59.21
88.2
118.5
150.24
182.74
213.93
240.72
260.98
273.93
281.17
284.97
288.4
296.21
312.46
339.45
377.46
425.85
482.14
543.24
604.38
643.94
641.9
590.57
498.62
381.59
253.02
121.27
-4
-123.25
-234.98
-335.42
-422.81
-499.27
-570.76
-630.43
-674.04
-696.41
-694.14
-666
-613.29
-540.52
-454.36
-361.92
-268.77
-180.4
-100.82
-34.14
16.98
52.23
73.55
84.75
90.63
96.73
106.96
123.98
147.07
171.58
189.36
190.57
167.56
118.72
50.5
-25.24
-95.02
-149.4
-185.77
-207.56
-220.49
-228.17
-229.94
-221.88
-200.58
-165.8
-121.59
-74.45
-30.19
8.54
42.92
76.28
111.57
149.49
188.44
225.58
258.28
285.09
305.76
320.71
330.28
334.36
332.61
324.8
311.31
293.42
273.32
253.79
237.73
227.26
223.05
224
227.36
229.66
227.87
220.46
207.84
191.99
175.45
160.22
147.12
135.77
125.24
114.8
104.46
94.92
87.21
82.03
79.34
78.27
77.44
75.39
71.08
64.16
54.92
44.12
32.7
21.48
11.02
1.62
-6.67
-14.02
-20.65
-26.86
-32.94
-39.06
-45.2
-51.17
-56.71
-61.57
-65.73
-69.36
-72.74
-76.22
-79.95
-83.92
-87.9
-91.57
-94.58
-96.73
-98.01
-98.66
-99.13
-99.91
-101.19
-102.72
-103.56
-102.33
-97.52
-88.01
-73.35
-53.92
-30.81
-5.58
19.98
44.29
66.12
84.78
100.05
111.99
120.51
125.11
124.8
118.52
105.73
86.83
63.37
37.81
12.97
-8.57
-24.92
-35.18
-39.59
-39.34
-36.39
-32.87
-30.55
-30.37
-32.35
-35.84
-39.97
-44.01
-47.54
-50.44
-52.76
-54.69
-56.53
-58.65
-61.46
-65.11
-69.31
-73.19
-75.52
-75.1
-71.13
-63.53
-52.97
-40.64
-28.01
-16.44
-6.84
0.42
5.58
9.28
12.3
15.37
18.9
23.03
27.64
32.54
37.5
42.32
46.79
50.55
53.24
54.57
54.5
53.22
51.13
48.62
45.94
43.15
40.09
36.44
31.8
25.79
18.15
8.83
-1.97
-13.93
-26.58
-39.51
-52.15
-63.76
-73.25
-79.32
-80.83
-77.21
-68.85
-57.04
-43.73
-30.78
-19.61
-10.85
-4.41
0.25
3.78
6.66
9.1
11.06
12.48
13.46
14.25
15.28
16.89
19.2
21.94
24.49
26.08
26.08
24.22
20.54
15.41
9.19
2.25
-5.13
-12.67
-20.02
-26.82
-32.66
-37.32
-40.72
-42.99
-44.2
-44.25
-42.72
-38.98
-32.48
-23.05
-11.14
2.3
16.01
28.95
40.5
50.58
59.47
67.48
74.74
81.02
85.91
88.97
89.91
88.78
85.91
81.87
77.32
72.82
68.65
64.69
60.53
55.62
49.54
42.13
33.63
24.35
14.74
5.09
-4.37
-13.5
-22.15
-30.18
-37.58
-44.34
-50.43
-55.52
-59
-60.18
-58.54
-54.19
-47.87
-40.82
-34.25
-29.01
-25.37
-23.09
-21.74
-20.95
-20.55
-20.54
-20.88
-21.35
-21.58
-21.11
-19.59
-16.93
-13.34
-9.28
-5.37
-2.1
0.32
1.99
3.17
4.15
5.03
5.57
5.32
3.81
0.74
-3.87
-9.64
-15.87
-21.62
-25.86
-27.62
-26.25
-21.51
-13.82
-4.17
6.08
15.53
23.09
28.11
30.48
30.43
28.4
24.88
20.29
15
9.27
3.26
-2.9
-9.13
-15.46
-22.08
-29.3
-37.41
-46.46
-56.19
-66.01
-75.16
-83.1
-89.69
-95.26
-100.42
-105.66
-111.15
-116.59
-121.26
-124.21
-124.49
-121.35
-114.42
-103.77
-89.92
-73.74
-56.23
-38.29
-20.6
-3.69
11.95
25.69
36.74
44.28
47.69
46.85
42.34
35.43
27.8
21.23
17.14
16.18
18.11
21.9
26.18
29.66
31.58
31.77
30.58
28.48
25.75
22.36
18.08
12.69
6.3
-0.5
-6.68
-11.09
-12.73
-11.07
-6.17
1.38
10.57
20.34
29.73
38.06
44.89
50.04
53.43
55.07
55.07
53.7
51.39
48.79
46.46
44.8
43.79
43.04
41.96
40.05
37.1
33.32
29.18
25.26
21.9
19.13
16.62
13.83
10.26
5.65
0.15
-5.6
-10.64
-13.94
-14.63
-12.31
-7.12
0.29
8.97
17.82
25.93
32.6
37.48
40.49
41.7
41.32
39.63
36.99
33.84
30.63
27.76
25.36
23.37
21.47
19.27
16.53
13.19
9.45
5.57
1.83
-1.63
-4.8
-7.87
-11.06
-14.63
-18.69
-23.12
-27.52
-31.1
-32.98
-32.27
-28.49
-21.58
-12.1
-1.02
10.51
21.31
30.55
37.68
42.54
45.21
45.96
45.12
43.12
40.46
37.62
35.05
32.95
31.28
29.69
27.76
25.12
21.66
17.51
12.98
8.32
3.7
-0.96
-5.88
-11.37
-17.65
-24.62
-31.84
-38.43
-43.28
-45.29
-43.75
-38.6
-30.56
-20.86
-10.96
-2.04
5.2
10.56
14.15
16.15
16.67
15.69
13.31
9.85
5.8
1.76
-1.82
-4.76
-7.18
-9.37
-11.62
-14.06
-16.62
-19.13
-21.47
-23.61
-25.77
-28.25
-31.4
-35.36
-39.93
-44.43
-47.89
-49.2
-47.5
-42.48
-34.52
-24.51
-13.69
-3.18
6.15
13.81
19.59
23.41
25.3
25.36
23.86
21.21
17.99
14.73
11.81
9.37
7.33
5.5
3.69
1.88
0.13
-1.33
-2.47
-3.37
-4.29
-5.61
-7.74
-10.93
-15.21
-20.27
-25.35
-29.4
-31.23
-29.89
-25.02
-17
-7
3.49
13.03
20.72
26.25
29.82
31.78
32.4
31.78
30.01
27.28
24.01
20.78
18.01
15.86
14.08
12.16
9.74
6.69
3.27
-0.09
-3.03
-5.51
-7.81
-10.37
-13.72
-18.1
-23.44
-29.27
-34.75
-38.89
-40.68
-39.39
-34.78
-27.32
-17.98
-8
1.41
9.45
15.74
20.32
23.36
25.11
25.69
25.21
23.88
22
20.05
18.45
17.44
16.89
16.43
15.57
13.95
11.56
8.62
5.56
2.75
0.34
-1.75
-3.79
-6.17
-9.24
-13.07
-17.4
-21.52
-24.44
-25.05
-22.59
-16.95
-8.78
0.72
10.18
18.44
24.86
29.23
31.68
32.41
31.61
29.51
26.45
22.89
19.35
16.29
13.92
12.15
10.63
8.89
6.61
3.68
0.29
-3.25
-6.64
-9.76
-12.76
-15.9
-19.4
-23.38
-27.7
-31.98
-35.59
-37.72
-37.51
-34.31
-27.9
-18.75
-7.89
3.23
13.23
21.11
26.41
29.17
29.68
28.36
25.49
21.41
16.45
11.03
5.66
0.69
-3.62
-7.31
-10.54
-13.56
-16.52
-19.47
-22.37
-25.17
-27.89
-30.61
-33.58
-37.04
-41.21
-46.01
-50.99
-55.21
-57.48
-56.66
-52.08
-43.89
-33.04
-21
-9.31
0.87
8.92
14.7
18.36
20.13
20.23
18.9
16.53
13.6
10.65
8
5.73
3.7
1.61
-0.68
-3.06
-5.27
-7.04
-8.23
-9.02
-9.76
-10.98
-13.08
-16.28
-20.45
-25.06
-29.26
-31.9
-31.93
-28.67
-22.16
-13.17
-3.05
6.75
15.01
21.02
24.63
25.95
25.31
23.04
19.5
15.22
10.79
6.84
3.8
1.83
0.66
-0.16
-1.17
-2.7
-4.82
-7.36
-10.06
-12.77
-15.45
-18.37
-21.84
-26.16
-31.38
-37.07
-42.29
-45.68
-45.83
-41.76
-33.43
-21.72
-8.29
5
16.69
25.94
32.64
37.06
39.64
40.67
40.41
39.13
37.25
35.34
33.81
32.85
32.24
31.5
30.05
27.48
23.69
18.91
13.56
7.99
2.38
-3.31
-9.28
-15.73
-22.69
-29.87
-36.58
-41.78
-44.25
-43.03
-37.72
-28.79
-17.47
-5.4
5.82
14.96
21.49
25.43
27.08
26.88
25.21
22.57
19.49
16.55
14.19
12.6
11.67
10.97
10.05
8.52
6.22
3.18
-0.42
-4.36
-8.48
-12.75
-17.3
-22.31
-27.9
-33.89
-39.6
-43.85
-45.2
-42.43
-35.01
-23.55
-9.5
5.14
18.55
29.54
37.67
43.08
46.2
47.54
47.47
46.4
44.68
42.62
40.4
37.96
35.05
31.33
26.57
20.7
13.95
6.72
-0.56
-7.46
-13.83
-19.71
-25.36
-31.06
-36.89
-42.54
-47.21
-49.78
-49.07
-44.4
-35.83
-24.38
-11.69
0.34
10.18
16.96
20.51
21.29
19.95
17.18
13.51
9.44
5.44
1.98
-0.54
-1.94
-2.34
-2.12
-1.7
-1.39
-1.33
-1.46
-1.78
-2.39
-3.65
-6.03
-9.86
-15.08
-21.02
-26.46
-29.83
-29.61
-24.84
-15.53
-2.65
12
26.47
39.06
48.81
55.52
59.49
61.14
60.81
58.74
55.22
50.75
46.06
41.95
39.1
37.8
37.96
39.24
41.14
43.25
45.2
46.71
47.53
47.41
46.13
43.59
39.9
35.39
30.63
26.24
22.71
20.14
18.11
15.8
12.25
6.63
-1.55
-12.31
-25.34
-40
-55.43
-70.66
-84.7
-96.66
-105.97
-112.45
-116.15
-117.39
-116.49
-113.76
-109.47
-104
-97.83
-91.64
-86.16
-82.03
-79.66
-79.04
-79.61
-80.19
-79.34
-75.64
-68.19
-56.96
-42.79
-27.27
-12.19
0.82
10.71
17
19.8
19.55
16.86
12.51
7.21
1.65
-3.64
-8.39
-12.62
-16.44
-20.09
-23.69
-27.24
-30.65
-33.83
-36.85
-40.06
-43.97
-49.06
-55.44
-62.65
-69.58
-74.59
-76.05
-72.8
-64.68
-52.75
-39.02
-25.8
-15.13
-8.14
-4.87
-4.6
-6.2
-8.71
-11.46
-14.01
-16.03
-17.07
-16.71
-14.73
-11.3
-7.06
-2.96
0.1
1.52
1.2
-0.67
-3.75
-7.81
-12.68
-18.05
-23.22
-27
-27.86
-24.52
-16.39
-3.95
11.32
27.35
42.11
54.13
62.73
67.97
70.34
70.44
68.77
65.73
61.6
56.75
51.6
46.57
42.02
38
34.32
30.62
26.47
21.62
16.02
9.77
3.06
-3.77
-10.29
-15.77
-19.24
-19.73
-16.58
-9.87
-0.5
9.97
19.93
28.18
34.29
38.53
41.46
43.52
44.91
45.56
45.45
44.79
44
43.56
43.87
45.04
46.98
49.48
52.18
54.67
56.4
56.73
55.01
50.79
43.89
34.67
24.06
13.57
5.01
0.13
-0
4.65
12.96
22.96
32.39
39.33
42.6
41.92
37.77
31.14
23.34
15.7
9.42
5.3
3.69
4.42
6.87
10.22
13.5
15.9
16.78
15.9
13.34
9.42
4.48
-1.21
-7.45
-13.82
-19.56
-23.36
-23.76
-19.66
-10.89
1.57
15.8
29.63
41.25
49.72
54.87
57.15
57.15
55.38
52.23
48.15
43.61
39.19
35.37
32.37
30.1
28.22
26.3
23.96
21.04
17.52
13.45
8.86
3.79
-1.74
-7.67
-13.81
-19.8
-25.04
-28.8
-30.37
-29.41
-26.14
-21.36
-16.22
-11.73
-8.45
-6.31
-4.87
-3.7
-2.69
-2.18
-2.66
-4.48
-7.54
-11.33
-15.04
-17.81
-18.91
-17.83
-14.43
-8.85
-1.65
6.27
13.75
19.64
22.99
23.23
20.4
15.13
8.66
2.68
-1.03
-1.12
2.92
10.45
19.79
28.77
35.36
38.4
37.78
34.31
29.15
23.32
17.29
11.07
4.53
-2.33
-9.13
-15.28
-20.14
-23.48
-25.52
-26.84
-28.15
-30
-32.66
-36.17
-40.38
-45.1
-50.13
-55.07
-59.22
-61.51
-60.71
-55.82
-46.59
-33.75
-18.83
-3.78
9.74
20.83
29.36
35.77
40.46
43.5
44.61
43.43
39.93
34.6
28.35
22.15
16.72
12.3
8.72
5.59
2.58
-0.53
-3.8
-7.29
-11.22
-15.85
-21.38
-27.64
-33.9
-38.9
-41.12
-39.3
-33.01
-22.93
-10.73
1.45
11.67
18.72
22.25
22.65
20.59
16.74
11.62
5.68
-0.63
-6.75
-12.11
-16.3
-19.2
-20.97
-21.97
-22.59
-23.04
-23.25
-22.9
-21.58
-19.02
-15.34
-11.07
-6.84
-3.03
0.62
5.03
11.43
20.73
32.93
46.93
60.84
72.62
80.81
84.86
85.08
82.34
77.56
71.5
64.61
57.22
49.52
41.7
33.9
26.25
18.83
11.75
5.03
-1.33
-7.37
-13.24
-19.06
-25.01
-31.26
-37.99
-45.17
-52.37
-58.63
-62.59
-62.91
-58.77
-50.45
-39.32
-27.53
-17.28
-10.17
-6.74
-6.54
-8.6
-11.83
-15.47
-19.18
-22.94
-26.73
-30.53
-34.12
-37.17
-39.49
-41.02
-41.88
-42.23
-42.24
-41.97
-41.55
-41.29
-41.66
-43.2
-46.08
-49.81
-53.03
-53.93
-50.79
-42.84
-30.74
-16.41
-2.5
8.57
15.35
17.62
16.27
12.79
8.64
4.86
1.9
-0.29
-1.99
-3.56
-5.22
-7.06
-9
-10.93
-12.71
-14.29
-15.72
-17.05
-18.48
-20.28
-22.79
-26.37
-31.03
-36.32
-41.09
-43.86
-43.2
-38.38
-29.86
-19.15
-8.45
0.16
5.32
6.69
4.78
0.53
-5.05
-11.15
-17.06
-22.23
-26.15
-28.49
-29.16
-28.41
-26.67
-24.44
-22.1
-19.81
-17.67
-15.68
-13.96
-12.7
-12.1
-12.28
-12.99
-13.54
-12.8
-9.5
-2.69
7.84
21.31
36.18
50.48
62.45
70.9
75.44
76.29
74.05
69.49
63.33
56.39
49.38
42.88
37.17
32.24
27.86
23.64
19.27
14.51
9.23
3.45
-2.75
-9.38
-16.52
-24.43
-33.43
-43.52
-54.12
-63.9
-71.05
-73.95
-71.88
-65.45
-56.51
-47.45
-40.37
-36.45
-35.82
-37.9
-41.78
-46.56
-51.42
-55.56
-58.22
-58.75
-56.86
-52.71
-46.8
-39.86
-32.53
-25.3
-18.52
-12.53
-7.74
-4.49
-2.98
-3.02
-4
-4.85
-4.2
-0.69
6.78
18.53
33.99
51.57
69.06
84.12
94.86
100.24
100.26
95.64
87.43
76.74
64.54
51.77
39.37
28.33
19.45
13.2
9.51
7.76
7.01
6.28
4.9
2.45
-1.26
-6.42
-13.16
-21.39
-30.46
-38.89
-44.62
-45.52
-40.26
-28.96
-13.37
3.7
19.36
31.49
39.33
43.22
44.17
43.24
41.15
38.32
34.9
31.1
27.1
23.12
19.25
15.51
11.9
8.43
5.06
1.76
-1.61
-5.24
-9.33
-14.09
-19.58
-25.58
-31.45
-35.97
-37.51
-34.52
-26.25
-13.19
2.83
19.19
33.4
43.81
49.99
52.46
52.17
49.88
46.05
40.88
34.67
27.84
20.89
14.22
7.91
1.86
-4.14
-10.2
-16.11
-21.49
-25.83
-28.91
-30.84
-32.24
-34.01
-37.05
-41.74
-47.61
-53.16
-56.23
-54.61
-46.96
-33.34
-15.34
4.39
23.08
38.63
50.11
57.65
62.04
64.12
64.45
63.31
60.85
57.36
53.29
49.01
44.73
40.34
35.51
29.84
23.09
15.28
6.74
-1.99
-10.38
-18.07
-25.09
-31.84
-38.87
-46.47
-54.17
-60.55
-63.51
-60.97
-51.78
-36.38
-16.78
4.04
22.98
37.78
47.33
51.65
51.44
47.68
41.45
33.8
25.87
18.7
12.97
8.85
6.01
3.75
1.37
-1.49
-4.9
-8.61
-12.3
-15.73
-18.93
-22.21
-26.12
-31.37
-38.43
-47.24
-56.75
-64.92
-69.15
-67.07
-57.59
-41.39
-20.92
0.43
19.38
33.73
42.69
46.62
46.49
43.32
38.02
31.4
24.39
17.85
12.53
8.78
6.3
4.43
2.32
-0.64
-4.68
-9.61
-15
-20.37
-25.45
-30.3
-35.27
-40.87
-47.43
-54.77
-61.92
-67.08
-68.15
-63.47
-52.59
-36.62
-17.96
0.46
16.2
27.94
35.54
39.74
41.48
41.48
40.24
38.25
36.1
34.52
34.09
34.91
36.45
37.74
37.7
35.65
31.66
26.33
20.46
14.74
9.32
3.87
-2.24
-9.62
-18.63
-28.99
-39.89
-49.84
-56.96
-59.36
-55.69
-45.62
-30.17
-11.49
7.77
25.11
38.81
48.16
53.22
54.53
52.8
48.78
43.37
37.56
32.38
28.56
26.41
25.58
25.29
24.61
22.74
19.37
14.62
8.95
2.8
-3.41
-9.61
-15.95
-22.71
-30.22
-38.44
-46.8
-54.08
-58.52
-58.29
-52.17
-40.06
-23.2
-3.94
14.98
31.22
43.27
50.7
53.8
53.26
49.89
44.53
38.07
31.43
25.48
20.76
17.35
14.87
12.58
9.84
6.33
2.09
-2.54
-7.12
-11.42
-15.53
-19.8
-24.81
-31.08
-38.88
-47.83
-56.86
-64.02
-67.04
-63.91
-53.75
-37.34
-17.13
3.4
20.81
32.63
38.02
37.57
32.84
25.57
17.19
8.71
0.83
-5.9
-10.95
-14.03
-15.19
-14.99
-14.23
-13.63
-13.58
-13.96
-14.33
-14.3
-13.8
-13.19
-13.18
-14.48
-17.56
-22.31
-27.96
-33.01
-35.54
-33.62
-25.97
-12.44
5.78
26.41
46.72
64.26
77.47
85.79
89.44
89.07
85.46
79.41
71.85
63.84
56.51
50.62
46.31
42.98
39.58
35.05
28.94
21.44
13.39
5.72
-0.96
-6.68
-12.07
-18.05
-25.44
-34.65
-45.38
-56.59
-66.48
-72.95
-74.07
-68.78
-57.39
-41.49
-23.61
-6.43
7.85
18
23.64
25.04
22.82
17.75
10.79
3.12
-4.02
-9.67
-13.27
-15.07
-15.8
-16.49
-17.99
-20.65
-24.26
-28.2
-31.69
-34.14
-35.46
-36.04
-36.7
-38.34
-41.48
-45.92
-50.46
-53.14
-51.78
-44.82
-31.89
-14.08
6.22
26.14
43.03
55.11
61.69
63.06
60.12
53.98
45.86
36.8
27.76
19.45
12.4
6.75
2.41
-0.99
-3.91
-6.69
-9.6
-12.66
-15.78
-18.8
-21.62
-24.34
-27.22
-30.61
-34.6
-38.81
-42.14
-42.97
-39.63
-31.03
-17.33
0.09
18.81
36.15
49.95
59
63.2
63.17
59.94
54.6
48.09
41.2
34.54
28.51
23.21
18.5
14.04
9.48
4.65
-0.4
-5.42
-10.08
-14.13
-17.56
-20.54
-23.44
-26.73
-30.83
-35.87
-41.39
-46.22
-48.6
-46.71
-39.35
-26.59
-10
7.86
24.14
36.57
44
46.37
44.42
39.25
32.05
24.04
16.44
10.34
6.41
4.75
4.76
5.43
5.72
4.9
2.83
-0.14
-3.43
-6.61
-9.55
-12.55
-16.22
-21.09
-27.36
-34.5
-41.2
-45.56
-45.6
-39.94
-28.41
-12.28
5.92
23.07
36.42
44.25
46.18
43.13
36.66
28.53
20.22
12.76
6.76
2.39
-0.57
-2.78
-5.11
-8.45
-13.37
-19.93
-27.58
-35.43
-42.56
-48.4
-52.97
-56.73
-60.32
-64.15
-67.91
-70.54
-70.36
-65.71
-55.57
-40.18
-21.04
-0.68
18.15
33.13
42.88
47.15
46.57
42.41
36.11
29.06
22.4
16.83
12.69
9.9
8.11
6.84
5.62
4.03
1.86
-0.92
-4.15
-7.63
-11.3
-15.35
-20.28
-26.59
-34.35
-42.77
-50.04
-53.77
-51.79
-43.19
-28.68
-10.61
7.9
23.96
35.7
42.6
45.19
44.61
42.04
38.57
35.04
32.09
30.22
29.56
29.93
30.85
31.76
32.17
31.77
30.37
27.95
24.55
20.15
14.7
7.97
-0.15
-9.43
-18.88
-26.74
-30.71
-28.71
-19.85
-4.96
13.43
31.9
47.31
57.77
62.87
63.33
60.23
54.44
46.51
36.82
25.98
14.89
4.58
-4.18
-11.15
-16.67
-21.38
-25.72
-29.76
-33.11
-35.18
-35.72
-35.08
-34.35
-34.91
-37.87
-43.31
-50.05
-55.81
-57.87
-54.17
-44.06
-28.61
-10.22
8.11
23.81
35.28
42.08
44.74
44.16
41.31
36.98
31.82
26.32
20.94
16.09
11.95
8.56
5.78
3.32
0.81
-2.15
-5.91
-10.69
-16.54
-23.53
-31.6
-40.61
-49.96
-58.37
-63.92
-64.42
-58.3
-45.37
-27.24
-6.77
12.61
28.23
38.72
44.06
45.13
43.08
38.95
33.52
27.51
21.56
16.16
11.49
7.37
3.26
-1.43
-7.04
-13.51
-20.37
-27
-32.88
-37.9
-42.37
-46.86
-51.81
-56.96
-61.17
-62.44
-58.66
-48.44
-31.81
-10.51
12.45
33.72
50.68
61.92
67.43
68.08
65.14
59.86
53.29
46.31
39.61
33.82
29.28
26.1
24.04
22.61
21.18
19.17
16.2
12.15
7.14
1.29
-5.37
-12.92
-21.26
-29.7
-36.74
-40.35
-38.62
-30.64
-17.08
0.03
17.9
33.83
46.12
54.04
57.75
57.74
54.62
49.03
41.78
33.89
26.43
20.29
15.83
12.77
10.46
8.12
5.19
1.51
-2.72
-7.16
-11.51
-15.75
-20.23
-25.46
-31.95
-39.84
-48.57
-56.83
-62.66
-63.99
-59.3
-48.26
-31.92
-12.57
7.06
24.51
38.16
47.44
52.5
53.92
52.27
48.22
42.5
36.12
30.25
25.9
23.62
23.2
23.81
24.24
23.42
20.78
16.47
11.12
5.43
-0.12
-5.61
-11.53
-18.66
-27.6
-38.43
-50.36
-61.65
-69.99
-73.01
-69.2
-58.36
-41.86
-22.21
-2.19
15.91
30.84
42.28
50.51
55.93
58.92
59.75
58.83
56.75
54.15
51.49
48.78
45.6
41.27
35.16
27.08
17.38
6.98
-3.01
-11.64
-18.51
-23.99
-29.06
-34.96
-42.58
-51.91
-61.69
-69.62
-73
-69.63
-58.72
-41.26
-19.77
2.55
22.75
38.95
50.5
57.69
61.18
61.53
59.11
54.35
48.01
41.28
35.5
31.58
29.68
29.02
28.32
26.33
22.34
16.46
9.43
2.21
-4.43
-10.07
-14.82
-19.11
-23.65
-29.19
-36.2
-44.43
-52.6
-58.49
-59.51
-53.69
-40.6
-21.79
-0.24
20.67
38.19
51.02
59.16
63.31
64.19
62.17
57.5
50.59
42.41
34.28
27.57
23.13
20.98
20.42
20.28
19.48
17.16
12.99
6.92
-0.9
-10.1
-20.37
-31.28
-42.51
-53.72
-64.55
-74.35
-82.06
-86.22
-85.28
-78.24
-65.2
-47.63
-28.02
-9.14
6.73
18.38
25.66
29.14
29.62
27.86
24.45
20
15.2
10.76
7.24
4.76
3.04
1.45
-0.57
-3.34
-6.83
-10.67
-14.43
-17.83
-20.91
-24.02
-27.78
-32.76
-39.2
-46.65
-53.68
-58.18
-57.76
-50.73
-36.74
-17.2
5.06
26.72
44.95
58.2
66.25
69.88
70.14
68.04
64.39
59.89
55.42
51.85
49.88
49.71
51
52.99
54.92
56.32
57.18
57.89
58.94
60.58
62.58
64.29
64.86
63.63
60.56
56.27
51.98
49.05
48.52
50.66
54.7
58.92
61.02
58.81
50.73
36.39
16.5
-7.31
-33.07
-58.86
-83.03
-104.31
-121.69
-134.56
-142.82
-147.08
-148.56
-148.76
-148.98
-149.93
-151.72
-154
-156.2
-157.66
-157.65
-155.28
-149.69
-140.31
-127.09
-110.61
-91.76
-71.32
-49.74
-27.14
-3.73
19.73
41.83
60.86
75.27
84.34
88.3
88.18
85.28
80.77
75.45
69.68
63.7
57.65
51.71
46.04
40.75
35.77
30.9
25.9
20.51
14.63
8.29
1.57
-5.48
-13.03
-21.35
-30.66
-40.67
-50.33
-57.88
-61.25
-58.72
-49.65
-34.83
-16.23
3.43
21.57
36.22
46.28
51.57
52.46
49.79
44.55
37.88
30.84
24.32
18.81
14.31
10.5
6.82
2.88
-1.47
-5.98
-10.33
-14.26
-17.76
-21.22
-25.19
-30.29
-36.85
-44.72
-53.1
-60.45
-64.87
-64.43
-58
-45.57
-28.5
-9.09
10.05
26.72
39.44
47.55
51.05
50.31
46.01
39.07
30.69
22.06
14.22
7.68
2.4
-2.09
-6.36
-10.75
-15.26
-19.57
-23.23
-25.9
-27.56
-28.55
-29.5
-31.16
-34.15
-38.6
-43.97
-48.89
-51.38
-49.21
-40.79
-25.68
-5.11
18.22
40.84
59.44
71.8
77.13
76.13
70.3
61.53
51.57
41.91
33.78
27.95
24.71
23.63
23.61
23.18
21.02
16.45
9.69
1.8
-5.97
-12.62
-17.89
-22.33
-26.99
-32.95
-40.78
-50.26
-60.03
-67.97
-71.52
-68.54
-58.07
-40.73
-18.7
4.92
26.91
44.9
57.59
64.87
67.28
65.67
60.98
54.26
46.68
39.5
33.81
30.09
28.13
26.94
25.31
22.25
17.38
11.04
4
-2.92
-9.25
-15.04
-20.83
-27.38
-35.3
-44.74
-55.09
-64.97
-72.39
-75.27
-72.03
-62.15
-46.49
-26.97
-6.18
13.42
29.95
42.4
50.38
54
53.55
49.5
42.65
34.1
25.3
17.69
12.39
9.91
9.98
11.68
13.75
15.08
15.01
13.52
11.09
8.38
5.74
3.02
-0.52
-5.81
-13.52
-23.64
-35.18
-46.21
-54.39
-57.5
-54.27
-44.73
-30.29
-13.31
3.64
18.49
30.06
38.03
42.56
43.86
42.08
37.43
30.48
22.31
14.32
7.81
3.41
0.91
-0.61
-2.28
-4.95
-8.81
-13.54
-18.53
-23.31
-27.84
-32.39
-37.49
-43.7
-51.47
-60.9
-71.56
-82.33
-91.36
-96.42
-95.49
-87.48
-72.74
-53.11
-31.43
-10.68
6.75
19.49
27.18
30.19
29.24
25.28
19.42
12.88
6.89
2.41
-0.15
-1.04
-1.01
-0.99
-1.7
-3.47
-6.17
-9.53
-13.29
-17.46
-22.32
-28.34
-35.96
-45.3
-55.78
-66
-73.79
-76.82
-73.19
-62.21
-44.73
-22.9
0.44
22.58
41.53
56.19
66.15
71.43
72.38
69.65
64.33
57.86
51.75
47.2
44.62
43.61
43.16
42.11
39.64
35.57
30.34
24.67
19.18
14.13
9.32
4.17
-1.93
-9.49
-18.55
-28.6
-38.39
-46.12
-49.77
-47.61
-38.96
-24.4
-5.77
14.43
33.68
50.2
63.04
72.03
77.37
79.32
78.15
74.3
68.66
62.43
56.98
53.38
51.97
52.33
53.39
54.04
53.43
51.44
48.43
45.01
41.7
38.59
35.45
31.75
26.99
20.77
12.94
3.7
-6.18
-15.31
-21.83
-23.72
-19.49
-8.67
7.91
28.27
49.91
70.53
88.51
103.12
114.27
122.18
127.06
129.12
128.6
126.08
122.4
118.63
115.66
114.03
113.68
113.94
113.71
111.71
106.81
98.22
85.69
69.47
50.3
29.08
6.74
-15.83
-37.83
-58.42
-76.9
-92.65
-105.4
-115.16
-122.09
-126.17
-126.98
-123.82
-116.01
-103.62
-87.69
-70.28
-53.82
-40.35
-30.88
-25.27
-22.6
-21.86
-22.47
-24.33
-27.58
-32.11
-37.3
-42.14
-45.6
-47.1
-46.79
-45.35
-43.69
-42.65
-42.75
-44.15
-46.84
-50.66
-55.34
-60.42
-65.21
-68.94
-70.9
-70.89
-69.27
-67.05
-65.48
-65.51
-67.43
-70.44
-73.03
-73.3
-69.68
-61.31
-48.36
-31.91
-13.69
4.25
19.95
31.83
39.09
41.81
40.96
38.07
34.87
32.96
33.49
37.02
43.41
51.9
61.17
69.67
76.03
79.41
79.77
77.67
73.95
69.2
63.66
57.09
49.06
39.29
27.78
15.03
1.97
-9.97
-19.17
-24.11
-23.79
-18.18
-8.32
3.73
15.62
25.22
31.42
34.16
34.23
32.65
30.11
26.81
22.65
17.65
12.2
7.06
2.97
0.19
-1.65
-3.42
-5.97
-9.66
-14.26
-19.11
-23.6
-27.46
-30.91
-34.4
-38.37
-42.93
-47.95
-53.22
-58.77
-64.83
-71.62
-78.87
-85.35
-89
-87.34
-78.56
-62.39
-40.42
-15.77
8.01
27.94
42.5
51.57
56.04
57.01
55.36
51.65
46.24
39.59
32.29
25.04
18.44
12.83
8.33
4.74
1.77
-1.1
-4.32
-8.37
-13.45
-19.53
-26.34
-33.47
-40.64
-47.67
-54.68
-61.86
-69.54
-77.99
-87.3
-97.11
-106.37
-113.37
-116.02
-112.48
-102.01
-85.35
-64.74
-43.27
-23.92
-8.65
1.88
8.18
11.46
12.9
13.31
12.97
11.93
10.2
8.11
6.25
5.42
6.44
9.93
16.36
25.78
37.72
50.98
63.76
73.91
79.51
79.46
73.8
63.75
51.04
37.36
23.75
10.41
-2.98
-16.81
-30.99
-44.63
-55.97
-62.82
-63.2
-56.15
-42.16
-23.14
-2.01
18.25
35.31
48
56.22
60.62
62.12
61.51
59.49
56.56
53.18
49.57
45.79
41.7
37.07
31.87
26.32
21.02
16.64
13.76
12.46
12.23
12.08
10.81
7.45
1.58
-6.59
-16.24
-26.26
-35.63
-43.76
-50.62
-56.72
-62.91
-69.99
-78.34
-87.65
-96.68
-103.45
-105.69
-101.51
-90.12
-72.17
-49.75
-25.78
-3.27
15.54
29.57
38.96
44.63
47.83
49.73
51.08
52.31
53.49
54.56
55.35
55.71
55.45
54.45
52.68
50.22
47.22
43.86
40.27
36.42
32.12
27.13
21.22
14.35
6.8
-0.96
-8.38
-14.97
-20.49
-25.07
-29.14
-33.36
-38.28
-44.07
-50.2
-55.33
-57.53
-54.86
-46.08
-31.28
-12
9.28
29.81
47.39
60.81
69.74
74.46
75.41
73.1
68.12
61.29
53.66
46.29
40.01
35.01
30.96
27.12
22.79
17.63
11.8
5.79
0.1
-5.02
-9.75
-14.54
-19.98
-26.32
-33.42
-40.62
-47.04
-51.77
-54.23
-54.39
-52.81
-50.63
-49.15
-49.35
-51.44
-54.6
-57.12
-56.86
-52.14
-42.23
-27.76
-10.46
7.47
23.95
37.67
48.15
55.54
60.13
62.19
61.83
59.15
54.56
48.8
42.89
37.73
33.86
31.18
29.24
27.39
25.21
22.52
19.31
15.57
11.08
5.47
-1.58
-10.02
-19.41
-28.99
-37.96
-45.88
-52.8
-59.22
-65.95
-73.64
-82.43
-91.67
-99.85
-104.79
-104.29
-96.79
-82.05
-61.37
-37.36
-13.15
8.37
25.33
37.18
44.41
48.04
49.17
48.62
46.88
44.19
40.79
36.92
32.93
29.15
25.82
23.1
21.06
19.76
19.19
19.28
19.69
19.9
19.29
17.35
13.91
9.26
3.94
-1.37
-6.28
-10.82
-15.43
-20.74
-27.2
-34.67
-42.2
-48.1
-50.27
-46.87
-36.95
-20.9
-0.42
21.91
43.38
61.84
76.07
85.82
91.41
93.45
92.51
89.13
83.83
77.29
70.21
63.21
56.75
50.93
45.64
40.62
35.59
30.3
24.52
17.91
10.09
0.82
-9.89
-21.48
-32.92
-42.95
-50.52
-55.07
-56.85
-56.83
-56.36
-56.91
-59.61
-64.93
-72.5
-80.93
-88.09
-91.5
-89.22
-80.4
-65.73
-47.21
-27.44
-8.92
6.76
18.92
27.62
33.25
36.25
36.98
35.89
33.62
30.88
28.38
26.54
25.46
24.93
24.63
24.24
23.52
22.39
20.69
18.32
15.13
11.02
6.02
0.26
-5.98
-12.37
-18.63
-24.64
-30.47
-36.47
-43.07
-50.45
-58.31
-65.53
-70.27
-70.47
-64.61
-52.26
-34.49
-13.56
7.77
27.04
42.63
53.92
61.09
64.63
65.22
63.49
60.12
55.96
51.82
48.4
46.01
44.46
43.26
41.76
39.49
36.25
32.16
27.4
22.14
16.38
10
2.91
-4.88
-13.21
-21.82
-30.4
-38.85
-47.23
-55.85
-65.08
-74.98
-85.02
-93.87
-99.55
-99.99
-93.78
-80.73
-62.12
-40.26
-17.87
2.75
20.13
33.82
44
51.16
55.79
58.21
58.67
57.43
54.76
51.03
46.71
42.33
38.41
35.23
32.84
30.9
28.9
26.3
22.77
18.24
12.87
6.91
0.5
-6.27
-13.37
-20.66
-28.06
-35.5
-43.13
-51.14
-59.47
-67.38
-73.3
-75.11
-70.83
-59.46
-41.6
-19.45
3.83
25.08
42.06
53.9
60.9
64.09
64.61
63.3
60.73
57.3
53.44
49.66
46.43
43.99
42.25
40.86
39.28
37.12
34.12
30.25
25.52
19.97
13.56
6.33
-1.56
-9.78
-17.94
-25.71
-32.92
-39.71
-46.46
-53.68
-61.76
-70.65
-79.61
-87.01
-90.74
-88.71
-79.7
-63.88
-42.93
-19.63
3
22.48
37.44
47.56
53.38
55.74
55.56
53.63
50.63
47.11
43.53
40.2
37.24
34.62
32.17
29.7
27.03
24.08
20.85
17.38
13.64
9.58
5.12
0.26
-4.96
-10.37
-15.85
-21.32
-26.84
-32.64
-38.95
-46.07
-54.19
-63.28
-72.81
-81.62
-87.91
-89.64
-85.19
-73.96
-56.77
-35.65
-13.3
7.81
25.95
40.38
51.16
58.67
63.32
65.43
65.39
63.7
61.16
58.49
56.32
54.81
53.72
52.53
50.65
47.73
43.65
38.46
32.26
25.09
16.94
7.88
-1.88
-11.96
-21.82
-31.03
-39.48
-47.41
-55.41
-64.08
-73.66
-83.59
-92.35
-97.77
-97.62
-90.53
-76.53
-57.27
-35.43
-14.02
4.59
19.1
29.31
35.73
39.12
40.11
39.15
36.65
33.15
29.36
25.96
23.47
22.03
21.45
21.3
21.07
20.32
18.78
16.29
12.8
8.34
3.04
-2.93
-9.27
-15.69
-21.94
-27.85
-33.47
-39.05
-44.97
-51.61
-59.1
-66.91
-73.71
-77.52
-76.24
-68.47
-54.16
-34.83
-13.19
7.74
25.51
38.79
47.4
51.99
53.48
52.73
50.45
47.25
43.7
40.33
37.53
35.37
33.77
32.45
31.2
30
28.97
28.25
27.84
27.4
26.31
23.85
19.54
13.3
5.67
-2.43
-9.97
-16.19
-20.81
-24.17
-27.13
-30.86
-36.49
-44.63
-54.97
-66.08
-75.5
-80.38
-78.39
-68.47
-51.37
-29.4
-5.79
16.31
34.65
48.13
56.8
61.31
62.56
61.41
58.62
54.96
51.13
47.77
45.22
43.49
42.32
41.27
39.97
38.14
35.59
32.15
27.63
21.9
14.97
7.08
-1.24
-9.42
-17.02
-23.79
-29.87
-35.67
-41.77
-48.74
-56.86
-65.75
-74.2
-80.24
-81.5
-76.11
-63.33
-44.16
-21.08
2.59
23.74
40.31
51.49
57.7
59.92
59.36
56.98
53.55
49.54
45.27
40.96
36.7
32.6
28.86
25.69
23.24
21.43
19.92
18.14
15.63
12.01
7.27
1.49
-5.07
-12.19
-19.64
-27.17
-34.63
-41.98
-49.44
-57.27
-65.64
-74.19
-81.74
-86.43
-86.16
-79.37
-65.64
-46.06
-22.99
0.59
21.9
39.05
51.26
58.79
62.42
63.17
61.93
59.52
56.68
54.1
52.35
51.68
52
52.9
53.82
54.26
53.87
52.46
49.97
46.37
41.62
35.7
28.62
20.36
10.84
-0.02
-12.35
-26.22
-41.51
-58
-75.28
-92.66
-109.04
-122.85
-132.14
-134.91
-129.77
-116.34
-95.64
-69.89
-42.1
-15.31
7.97
26.12
38.52
45.29
47.07
44.71
39.19
31.45
22.47
13.2
4.45
-3.2
-9.68
-15.31
-20.88
-27.22
-34.87
-43.86
-53.63
-63.32
-71.98
-78.97
-84.02
-87.23
-89.03
-89.97
-90.66
-91.48
-92.37
-92.52
-90.47
-84.27
-72.27
-53.79
-29.58
-1.85
26.53
52.66
74.43
90.77
101.62
107.47
109.1
107.3
102.86
96.71
89.81
83.09
77.23
72.62
69.29
66.93
65.06
63.11
60.59
57.08
52.37
46.46
39.54
32.01
24.25
16.71
9.6
3
-3.31
-9.66
-16.49
-24.11
-32.35
-40.45
-46.77
-49.23
-45.78
-35.25
-17.85
4.62
29.17
52.56
72.16
86.58
95.65
100.15
101.15
99.59
96.13
91.15
85.01
77.93
70.18
61.92
53.31
44.53
35.75
27.22
18.99
10.97
2.87
-5.64
-14.81
-24.65
-34.93
-45.36
-55.58
-65.39
-74.7
-83.57
-92.17
-100.76
-109.44
-117.87
-125.09
-129.47
-129.07
-122.27
-108.39
-88.2
-63.79
-38.13
-14.12
6.02
21.22
31.46
37.42
39.94
39.72
37.29
33.17
28.15
23.18
19.31
17.27
17.16
18.35
19.73
20.13
18.77
15.48
10.61
4.82
-1.22
-7.09
-12.61
-17.81
-22.73
-27.56
-32.45
-37.54
-42.77
-47.51
-50.5
-49.85
-43.56
-30.22
-9.82
15.99
44.11
70.76
92.56
107.27
114.28
114.24
108.73
99.55
88.42
76.83
65.86
56.33
48.61
42.68
38.06
34.04
29.86
24.94
19.06
12.22
4.74
-3.09
-10.95
-18.7
-26.3
-33.77
-41.24
-48.86
-56.88
-65.56
-75.16
-85.7
-96.77
-107.28
-115.39
-118.93
-115.9
-105.32
-87.67
-64.95
-40.12
-16.19
4.47
20.74
32.54
40.5
45.38
47.77
47.96
46.17
42.76
38.37
33.92
30.28
28.03
27.2
27.24
27.23
26.22
23.53
18.92
12.55
4.73
-4.17
-13.8
-23.87
-33.95
-43.64
-52.62
-60.85
-68.68
-76.69
-85.38
-94.73
-103.92
-111.25
-114.52
-111.68
-101.56
-84.41
-61.93
-36.91
-12.4
8.97
25.66
37.2
44.09
47.29
47.78
46.43
43.97
41.11
38.69
37.6
38.54
41.79
47.01
53.19
58.87
62.58
63.21
60.32
54.22
45.64
35.54
24.69
13.6
2.52
-8.45
-19.16
-29.48
-39.31
-48.56
-56.91
-63.58
-67.21
-66
-58.49
-44.23
-24.26
-1.04
22.23
42.65
58.39
68.98
75.09
77.84
78.25
77.03
74.56
71.13
67.07
62.86
58.9
55.52
52.81
50.64
48.72
46.65
44.08
40.72
36.5
31.46
25.87
19.97
14
8.09
2.29
-3.43
-9.19
-15.19
-21.64
-28.63
-35.78
-42.03
-45.53
-44.14
-36.03
-20.6
1.2
26.85
53.04
76.55
95.08
107.58
114.08
115.27
112.02
105.28
96.04
85.46
74.8
65.15
57.24
51.13
46.31
41.88
36.94
30.8
23.23
14.39
4.64
-5.47
-15.4
-24.49
-32.22
-38.3
-42.96
-47.07
-51.98
-59.2
-69.76
-83.86
-100.5
-117.73
-132.96
-143.5
-147.05
-142.14
-128.47
-107.07
-80.26
-51.19
-23.22
0.89
19.53
32.31
39.99
43.82
45.14
44.95
43.94
42.47
40.75
39
37.29
35.77
34.42
33.11
31.56
29.48
26.54
22.47
17.15
10.47
2.53
-6.47
-16.18
-26.16
-35.94
-45.14
-53.67
-61.73
-69.75
-78.02
-86.36
-93.75
-98.36
-98.05
-91.02
-76.64
-55.85
-31.02
-5.28
18.4
37.95
52.51
62.26
67.98
70.47
70.42
68.34
64.72
60.24
55.66
51.73
48.84
47.05
45.96
45
43.62
41.41
38.13
33.61
27.68
20.11
10.83
-0.08
-12.2
-24.82
-37.25
-48.92
-59.64
-69.59
-79.29
-89.23
-99.62
-109.9
-118.73
-124.09
-123.8
-116.35
-101.45
-80.44
-55.89
-30.97
-8.48
9.7
22.88
31.41
36.17
38.17
38.24
36.98
34.85
32.24
29.62
27.41
26.02
25.68
26.33
27.67
29.19
30.34
30.69
29.98
28.16
25.45
22.12
18.5
14.92
11.5
8.31
5.14
1.69
-2.41
-7.32
-12.72
-17.71
-20.69
-19.78
-13.36
-0.74
17.5
39.47
62.42
83.51
100.43
111.9
117.66
118.22
114.38
106.96
96.77
84.61
71.55
58.82
47.67
38.92
32.62
28.04
23.92
19.18
13.3
6.63
0.01
-5.66
-10.09
-13.65
-17.25
-21.97
-28.63
-37.64
-48.98
-62.38
-77.19
-92.29
-105.91
-115.72
-119.35
-115.05
-102.45
-82.76
-58.7
-33.58
-10.5
8.41
22.32
31.43
36.57
38.73
38.79
37.41
35.06
32.12
28.97
25.93
23.29
21.23
19.62
18.05
15.85
12.31
7.04
0.12
-7.91
-16.28
-24.29
-31.7
-38.71
-45.85
-53.75
-62.8
-73
-83.88
-94.47
-103.24
-108.33
-107.95
-100.93
-87.23
-68.08
-45.83
-23.22
-2.69
14.22
26.87
35.36
40.13
41.6
40.23
36.47
31.06
24.89
18.98
14.16
10.98
9.48
9.27
9.71
10.03
9.7
8.49
6.55
4.24
1.85
-0.53
-3.18
-6.61
-11.41
-18.04
-26.66
-37.03
-48.33
-59.1
-67.37
-70.99
-68.23
-58.53
-42.68
-22.81
-1.7
18.11
34.91
48.04
57.63
64.05
67.5
67.99
65.54
60.55
53.94
46.95
40.73
35.93
32.46
29.61
26.51
22.43
17.06
10.61
3.53
-3.64
-10.53
-17
-23.16
-29.24
-35.46
-41.94
-48.76
-55.93
-63.39
-70.9
-77.83
-83.04
-84.96
-81.89
-72.57
-56.72
-35.42
-10.86
14.18
37.07
56.02
70.21
79.81
85.42
87.78
87.55
85.29
81.72
77.74
74.26
72.02
71.21
71.28
71.2
69.85
66.43
60.84
53.59
45.54
37.57
30.26
23.69
17.66
11.76
5.61
-0.98
-7.98
-15.2
-22.42
-29.46
-36.14
-42.02
-46.11
-46.74
-41.77
-29.22
-7.97
21.5
57.14
95.72
133.71
168.03
196.34
216.98
228.74
230.8
223.13
207
185.14
161.09
138.18
118.28
101.46
86.37
71.36
55.52
39.07
22.98
8.04
-5.64
-18.75
-32.12
-46.16
-60.48
-74.1
-86.04
-95.71
-103.3
-109.44
-115.1
-121.2
-128.56
-137.76
-148.88
-161.34
-173.67
-183.74
-189.19
-188.25
-180.37
-166.57
-149.25
-131.49
-116.27
-105.71
-100.75
-101.06
-105.46
-112.23
-119.58
-126.01
-130.47
-132.46
-131.87
-128.87
-123.7
-116.62
-107.91
-97.88
-86.92
-75.43
-63.76
-51.99
-39.89
-27.13
-13.25
2.12
19.28
38.3
58.97
80.47
101.47
120.26
135.34
145.99
152.69
157.09
161.48
168.14
178.5
192.9
210.54
229.83
248.81
265.6
278.76
287.53
291.92
292.46
289.93
284.91
277.55
267.72
255.18
239.91
222.3
203.03
182.87
162.48
142.29
122.53
103.34
84.76
66.62
48.52
29.75
9.52
-12.83
-37.55
-64.4
-92.7
-121.66
-150.6
-179.12
-207.02
-234.09
-259.89
-283.63
-304.33
-321.05
-333.16
-340.61
-343.87
-343.79
-341.39
-337.61
-333.11
-328.17
-322.69
-316.12
-307.83
-297.23
-284.11
-268.67
-251.45
-233.14
-214.2
-194.8
-174.73
-153.68
-131.38
-107.93
-83.76
-59.7
-36.75
-15.9
2.13
16.97
28.6
37.31
43.39
47.03
48.31
47.12
43.42
37.4
29.82
22.05
16.04
13.91
17.39
27.36
43.4
63.95
86.39
107.91
126.03
139.15
146.72
149.1
147.14
141.67
133.38
122.7
110.17
96.64
83.3
71.52
62.37
56.19
52.48
50.1
47.64
43.99
38.58
31.42
23.03
14.01
4.89
-4.08
-12.84
-21.54
-30.44
-39.77
-49.89
-60.84
-72.34
-83.29
-91.8
-95.47
-92.07
-80.43
-61.01
-36.08
-9.07
16.4
37.6
53.19
63.23
68.62
70.51
69.91
67.58
64.23
60.57
57.35
55.15
54.16
54.2
54.65
54.79
53.98
51.93
48.54
43.97
38.45
32.08
24.9
16.8
7.73
-2.27
-12.98
-24.12
-35.54
-47.3
-59.57
-72.24
-84.53
-94.62
-100.01
-98.14
-87.51
-68.37
-42.97
-14.92
11.97
34.72
51.88
63.45
70.34
73.61
74.08
72.19
68.21
62.58
56.02
49.36
43.37
38.52
34.73
31.52
28.22
24.21
19.17
13.07
6.1
-1.49
-9.46
-17.64
-25.93
-34.22
-42.51
-50.79
-59.22
-67.93
-76.81
-85.15
-91.58
-94.13
-90.77
-80.12
-62.02
-37.85
-10.31
17.31
41.98
61.6
75.36
83.62
87.28
87.37
84.77
80.11
73.98
67.12
60.44
54.77
50.65
47.97
46.08
43.93
40.54
35.29
28.12
19.47
9.95
0.15
-9.8
-20.06
-30.96
-42.75
-55.39
-68.6
-81.94
-94.86
-106.62
-116.02
-121.34
-120.5
-111.78
-94.62
-70.2
-41.39
-12
14.45
35.69
51.12
61.5
68.02
71.64
72.79
71.54
68.11
63.22
58.06
53.89
51.49
50.81
51.02
50.79
48.92
44.68
38.04
29.51
19.94
10.06
0.4
-8.85
-17.71
-26.48
-35.53
-45.37
-56.36
-68.49
-80.93
-91.91
-98.92
-99.35
-91.42
-74.97
-51.67
-24.64
2.44
26.49
45.67
59.53
68.72
74.29
77.22
78.1
77.31
75.09
71.82
68.09
64.54
61.63
59.35
57.32
54.82
51.33
46.67
41.21
35.55
30.2
25.15
19.79
13.18
4.4
-7
-20.78
-36.13
-51.81
-66.34
-78.03
-85.15
-86.17
-80.19
-67.34
-49.11
-28.15
-7.6
9.66
21.87
28.49
30.14
27.95
23.14
16.68
9.37
2.04
-4.41
-9.02
-11.21
-11.02
-9.14
-6.82
-5.3
-5.42
-7.17
-9.99
-12.99
-15.48
-17.41
-19.39
-22.51
-27.9
-36.41
-48.22
-62.95
-79.53
-96.31
-111.06
-121.17
-124.14
-118.28
-103.34
-80.9
-54.03
-26.49
-1.67
18.22
32.4
41.12
45.23
45.56
42.83
37.84
31.65
25.52
20.75
18.22
17.95
19.14
20.37
20.16
17.55
12.42
5.51
-2.15
-9.59
-16.42
-22.78
-29.29
-36.69
-45.5
-55.93
-67.52
-79.12
-88.82
-94.17
-92.72
-82.86
-64.48
-39.24
-10.25
18.92
45.12
66.45
82.31
93.13
99.74
102.83
102.96
100.55
96.24
90.9
85.49
80.74
76.9
73.7
70.45
66.54
61.56
55.6
49.08
42.6
36.65
31.44
26.8
22.19
16.9
10.07
1.1
-10.17
-23.06
-35.86
-46.07
-50.93
-48.35
-37.71
-20.37
0.66
21.45
38.3
48.72
51.79
47.94
38.48
24.98
8.85
-8.64
-26.26
-42.83
-57.26
-68.85
-77.36
-82.96
-85.94
-86.46
-84.45
-79.8
-72.75
-64.04
-54.96
-46.92
-41.12
-38.14
-38.11
-40.82
-46.08
-53.85
-64.04
-76.19
-89.15
-100.92
-108.91
-110.51
-103.79
-88.14
-64.64
-35.84
-5.16
24.07
49.32
69.21
83.42
92.34
96.56
96.69
93.37
87.34
79.64
71.41
63.79
57.69
53.53
51.19
50.03
49.13
47.52
44.36
39.19
31.99
23.19
13.41
3.3
-6.7
-16.37
-25.66
-34.78
-43.98
-53.7
-64.29
-75.85
-87.67
-98.01
-104.18
-103.14
-92.65
-72.23
-43.72
-10.84
21.94
50.75
73.36
89.5
100.2
106.96
110.88
112.38
111.53
108.49
103.89
98.86
94.57
91.81
90.53
89.98
89.02
86.6
82.19
75.86
68.19
59.89
51.53
43.36
35.3
27.01
18.14
8.4
-2.26
-13.64
-25.25
-36.14
-44.9
-49.72
-48.75
-40.64
-25.14
-3.41
22.22
48.69
73.09
93.27
108.16
117.64
122.28
122.92
120.5
115.88
109.82
102.97
95.81
88.7
81.75
75.05
68.6
62.4
56.36
50.2
43.59
36.07
27.3
17.14
5.81
-6.1
-17.79
-28.53
-37.86
-45.73
-52.56
-59.14
-66.39
-74.97
-84.9
-95.3
-104.27
-109.37
-108.24
-99.48
-83.23
-61.31
-36.77
-12.98
7.32
22.67
33
39.18
42.37
43.58
43.45
42.36
40.64
38.75
37.26
36.64
36.98
37.97
38.89
38.95
37.47
34.07
28.69
21.56
13.06
3.66
-6.13
-15.95
-25.47
-34.4
-42.55
-49.89
-56.63
-63.25
-70.28
-77.93
-85.83
-92.71
-96.59
-95.43
-87.87
-74.01
-55.38
-34.72
-15
1.34
12.96
19.78
22.54
22.42
20.48
17.54
14.19
10.87
8.03
6.12
5.52
6.31
8.3
10.94
13.53
15.39
16.08
15.52
13.92
11.66
9.02
6.22
3.29
0.21
-3.15
-6.9
-11.25
-16.51
-22.92
-30.54
-38.85
-46.59
-51.84
-52.43
-46.64
-33.86
-15
7.75
31.39
53.01
70.54
83.08
90.8
94.55
95.39
94.16
91.47
87.69
83.18
78.38
73.74
69.7
66.44
63.94
61.91
59.9
57.34
53.63
48.24
40.73
30.96
19.11
5.68
-8.6
-22.95
-36.73
-49.57
-61.37
-72.38
-83
-93.61
-104.22
-114.18
-122.05
-125.91
-123.85
-114.83
-99.25
-79.01
-57.06
-36.51
-19.68
-7.65
-0.17
3.84
5.74
6.65
7.35
8.23
9.51
11.37
13.86
16.87
20.04
22.78
24.39
24.37
22.45
18.71
13.46
7.11
0.04
-7.42
-14.92
-22.17
-28.88
-34.96
-40.59
-46.17
-52.24
-59.11
-66.55
-73.53
-78.35
-78.93
-73.55
-61.49
-43.4
-21.31
1.98
23.66
41.72
55.19
64.23
69.63
72.24
72.67
71.19
67.94
63.3
57.94
52.78
48.68
46.07
44.6
43.3
40.82
35.87
27.78
16.58
2.98
-11.93
-26.92
-41.04
-53.59
-64.31
-73.35
-81.13
-88.2
-94.85
-100.77
-104.73
-104.89
-99.29
-86.7
-67.36
-43.02
-16.62
8.7
30.48
47.42
59.3
66.57
69.77
69.37
65.86
59.88
52.47
44.92
38.44
33.74
30.83
28.99
27.17
24.42
20.16
14.45
7.76
0.72
-6.13
-12.63
-18.89
-25.2
-31.82
-38.87
-46.38
-54.39
-62.88
-71.68
-80.16
-87.09
-90.71
-89.17
-81.16
-66.52
-46.53
-23.56
-0.56
19.89
36.15
47.69
54.91
58.66
59.8
58.91
56.36
52.45
47.6
42.45
37.68
33.89
31.29
29.65
28.34
26.54
23.58
19.08
13.12
6.05
-1.57
-9.19
-16.4
-22.98
-28.87
-34.25
-39.48
-45.1
-51.7
-59.45
-67.79
-75.24
-79.54
-78.27
-69.77
-53.88
-32.26
-8.09
14.93
33.57
45.91
51.68
51.96
48.56
43.33
37.71
32.51
28.02
24.26
21.08
18.43
16.23
14.39
12.79
11.17
9.19
6.41
2.42
-3.03
-9.88
-17.74
-25.92
-33.67
-40.36
-45.74
-50.03
-53.78
-57.74
-62.62
-68.94
-76.76
-85.41
-93.38
-98.39
-97.92
-89.95
-73.83
-50.62
-22.99
5.56
31.7
52.97
68.3
77.76
82.21
82.79
80.64
76.76
72.05
67.26
62.95
59.4
56.57
54.16
51.75
48.99
45.76
42.11
38.13
33.76
28.77
22.74
15.33
6.44
-3.62
-14.18
-24.41
-33.63
-41.56
-48.42
-54.9
-61.92
-70.19
-79.75
-89.54
-97.49
-100.87
-97.27
-85.4
-65.77
-40.65
-13.41
12.49
34.34
50.77
61.74
68.12
71.13
71.92
71.3
69.79
67.68
65.17
62.39
59.49
56.62
53.91
51.45
49.26
47.31
45.42
43.29
40.4
36.22
30.35
22.71
13.68
4.02
-5.28
-13.43
-20.04
-25.34
-30.08
-35.29
-41.79
-49.74
-58.23
-65.22
-68.06
-64.26
-52.54
-33.54
-9.89
14.48
35.66
50.9
59.34
61.76
59.93
55.62
50.05
43.74
36.75
29.13
21.02
12.71
4.5
-3.41
-10.98
-18.26
-25.23
-31.78
-37.6
-42.41
-45.98
-48.38
-50.01
-51.54
-53.73
-57.09
-61.8
-67.66
-74.32
-81.54
-89.26
-97.45
-105.75
-113.12
-117.71
-117.24
-109.67
-94.04
-71.05
-43.04
-13.48
14.09
36.99
53.94
65.05
71.33
74.05
74.24
72.5
69.2
64.7
59.57
54.51
50.24
47.21
45.42
44.47
43.66
42.2
39.53
35.37
29.79
23.16
15.85
8.21
0.45
-7.32
-15.14
-23.2
-31.76
-41.17
-51.49
-62.35
-72.52
-80.08
-82.67
-78.38
-66.47
-47.83
-24.91
-0.99
20.78
38.27
50.74
58.66
63.06
65.02
65.19
63.82
61.12
57.4
53.3
49.59
46.87
45.35
44.77
44.43
43.48
41.28
37.48
32.18
25.84
19.04
12.29
5.87
-0.33
-6.71
-13.86
-22.37
-32.54
-44.19
-56.43
-67.67
-75.95
-79.31
-76.47
-67.33
-53.12
-36.15
-19.1
-4.29
6.91
14.1
17.66
18.18
16.17
11.96
5.94
-1.15
-8.13
-13.62
-16.47
-16.2
-13.12
-8.22
-2.73
2.34
6.44
9.42
11.3
12.06
11.66
9.97
7.01
2.93
-2.06
-7.71
-13.81
-19.95
-25.38
-28.76
-28.41
-22.74
-10.89
6.71
28.36
51.41
73.04
90.96
103.85
111.35
113.86
112.06
106.68
98.43
88.16
76.83
65.53
55.2
46.44
39.34
33.43
27.89
21.92
15.06
7.39
-0.63
-8.33
-15.14
-20.91
-25.91
-30.78
-36.34
-43.36
-52.31
-63.24
-75.53
-87.78
-97.87
-103.35
-102.13
-93.19
-77.08
-55.9
-32.74
-10.79
7.49
20.85
29.29
33.59
34.78
33.63
30.63
26
20.04
13.32
6.72
1.22
-2.41
-3.99
-4.12
-3.86
-4.46
-6.74
-10.88
-16.36
-22.33
-28.01
-32.97
-37.33
-41.59
-46.41
-52.37
-59.82
-68.61
-78.06
-86.82
-93.03
-94.64
-90.02
-78.51
-60.79
-38.84
-15.39
6.83
25.75
40.22
50.04
55.51
57.12
55.38
50.9
44.57
37.57
31.28
26.89
25.04
25.6
27.68
29.95
31.05
30.11
26.86
21.72
15.39
8.59
1.68
-5.38
-12.92
-21.44
-31.25
-42.4
-54.43
-66.25
-76.15
-81.97
-81.69
-73.94
-58.83
-37.91
-13.95
9.89
31
47.74
59.66
67.02
70.37
70.21
67.03
61.42
54.29
46.77
39.97
34.74
31.31
29.29
27.78
25.75
22.37
17.23
10.52
2.78
-5.24
-12.96
-20.14
-27
-34.09
-41.98
-51.09
-61.23
-71.62
-80.72
-86.49
-86.79
-79.96
-65.39
-43.8
-17.34
11.02
38.09
61.27
79.12
91.34
98.53
101.65
101.59
98.95
94.27
88.09
81.29
74.83
69.57
65.8
63.14
60.62
57.04
51.6
44.11
35.18
25.81
16.99
9.24
2.51
-3.73
-10.24
-17.67
-26.39
-36.41
-47.31
-58.13
-67.34
-72.92
-72.78
-65.5
-50.88
-30.33
-6.53
17.28
38.24
54.64
66.01
72.84
76
76.28
74.24
70.42
65.51
60.33
55.8
52.55
50.66
49.66
48.69
46.93
43.83
39.41
34.1
28.52
23.14
18.11
13.15
7.71
1.23
-6.76
-16.43
-27.74
-40.46
-54.21
-68.37
-81.95
-93.5
-101.19
-103.25
-98.45
-86.62
-68.88
-47.37
-24.67
-3.14
15.57
30.63
41.8
49.22
53.18
53.98
52.04
47.94
42.39
36.17
30.05
24.68
20.51
17.71
16.17
15.49
15.04
14.12
12.06
8.49
3.29
-3.28
-10.8
-18.76
-26.68
-34.33
-41.66
-48.89
-56.33
-64.24
-72.55
-80.68
-87.38
-90.85
-89.34
-81.62
-67.74
-49.17
-28.52
-8.7
7.91
20.03
27.6
31.36
32.29
31.17
28.39
24.18
18.89
13.11
7.62
3.12
-0.03
-1.89
-2.9
-3.68
-4.72
-6.38
-8.69
-11.59
-14.86
-18.38
-22.04
-25.71
-29.19
-32.16
-34.31
-35.38
-35.48
-34.99
-34.43
-34.01
-33.21
-30.7
-24.74
-13.86
2.31
22.51
44.13
63.92
79.04
87.88
90.39
87.87
82.17
75.11
67.83
60.77
53.85
46.88
39.78
32.8
26.32
20.59
15.46
10.32
4.29
-3.41
-13.13
-24.58
-36.91
-49.04
-60.14
-69.79
-78.2
-85.96
-93.86
-102.5
-112.14
-122.52
-132.78
-141.55
-146.89
-146.79
-139.67
-125.03
-103.94
-78.91
-53.25
-30.1
-11.53
1.85
10.64
16.04
19.13
20.56
20.65
19.7
18.27
17.19
17.27
19.04
22.4
26.73
30.91
33.83
34.57
32.79
28.77
23.18
16.86
10.36
3.88
-2.78
-9.96
-17.86
-26.42
-35.29
-43.84
-51.24
-56.51
-58.48
-56.05
-48.47
-35.68
-18.61
0.9
20.48
37.82
51.27
60.09
64.41
64.92
62.49
57.94
51.98
45.34
38.88
33.47
29.71
27.57
26.27
24.61
21.33
15.75
7.99
-1.07
-10.29
-18.78
-26.21
-32.95
-39.69
-47.18
-55.89
-65.78
-76.24
-86.06
-93.6
-97.03
-94.81
-86.09
-71.19
-51.52
-29.33
-7.05
13.24
30.24
43.34
52.49
57.9
59.87
58.83
55.43
50.54
45.19
40.34
36.59
34.04
32.21
30.31
27.54
23.46
18.16
12.14
6.13
0.65
-4.16
-8.69
-13.61
-19.62
-27.03
-35.52
-44.06
-51.02
-54.56
-53.01
-45.53
-32.34
-14.84
4.78
24.13
41.26
55
65
71.49
74.81
75.28
73.1
68.62
62.5
55.75
49.55
44.86
42.09
40.9
40.37
39.32
36.82
32.49
26.7
20.23
13.89
8.2
3.15
-1.69
-7.05
-13.61
-21.82
-31.63
-42.33
-52.56
-60.45
-64.14
-62.31
-54.74
-42.45
-27.44
-12.02
1.85
13
21.28
27.13
31.27
34.25
36.3
37.32
37.14
35.8
33.62
31.18
29.06
27.54
26.47
25.36
23.5
20.33
15.72
9.94
3.54
-2.94
-9.14
-15.06
-20.95
-27.21
-34.24
-42.26
-51.2
-60.55
-69.37
-76.25
-79.51
-77.54
-69.28
-54.71
-35.02
-12.51
10.04
30.07
45.95
57.21
64.29
68.07
69.26
68.27
65.17
60.24
54.13
47.88
42.6
38.96
36.96
35.92
34.88
32.99
29.92
25.87
21.36
16.92
12.76
8.73
4.4
-0.67
-6.87
-14.24
-22.41
-30.56
-37.22
-40.67
-39.18
-31.58
-17.7
1.36
23.57
46.43
67.64
85.68
99.82
110
116.44
119.41
119.16
116.09
110.88
104.44
97.81
91.79
86.73
82.41
78.16
73.2
67.03
59.68
51.61
43.63
36.41
30.28
25.03
20
14.33
7.3
-1.53
-12.15
-24.05
-36.14
-46.92
-54.73
-58.3
-57.05
-51.46
-42.89
-33.13
-23.83
-15.98
-9.94
-5.55
-2.68
-1.39
-1.93
-4.42
-8.53
-13.32
-17.3
-19.14
-18.01
-14.15
-8.79
-3.88
-1.31
-2.34
-7.26
-15.35
-25.33
-35.81
-45.77
-54.67
-62.46
-69.36
-75.74
-81.93
-88.11
-94.19
-99.41
-102.46
-101.63
-95.34
-82.89
-64.87
-43.19
-20.47
0.6
18.08
31.1
39.68
44.4
46
45.09
42.25
38.11
33.37
28.75
24.85
21.97
20.07
18.79
17.61
16.02
13.68
10.43
6.29
1.29
-4.47
-10.95
-18.08
-25.74
-33.77
-42.01
-50.37
-58.84
-67.38
-75.72
-83.2
-88.74
-91.06
-89.08
-82.35
-71.28
-57.03
-41.32
-25.81
-11.75
0.18
9.88
17.48
23.14
26.98
29.1
29.71
29.29
28.56
28.31
29.1
31.08
33.94
36.98
39.25
39.91
38.31
34.17
27.62
19.06
9.2
-1.29
-11.7
-21.59
-30.78
-39.39
-47.77
-56.2
-64.65
-72.39
-78.04
-79.81
-76.1
-66.23
-50.89
-32.07
-12.62
4.67
17.78
25.91
29.44
29.53
27.59
24.79
21.79
18.75
15.48
11.79
7.63
3.27
-0.83
-4.29
-6.95
-9.04
-11.06
-13.6
-17.12
-21.86
-27.71
-34.31
-41.13
-47.56
-53.13
-57.63
-61.22
-64.42
-68.01
-72.66
-78.58
-85.28
-91.41
-95
-93.85
-86.12
-70.89
-48.54
-20.77
9.75
39.98
67.25
89.71
106.66
118.39
125.92
130.5
133.31
135.25
136.76
137.95
138.61
138.4
136.9
133.69
128.43
120.88
111.04
99.13
85.53
70.73
55.21
39.4
23.72
8.62
-5.41
-17.83
-28.26
-36.58
-42.99
-48.1
-52.8
-57.94
-63.98
-70.66
-76.7
-80.14
-78.84
-71.32
-57.44
-38.61
-17.35
3.49
21.55
35.55
45.29
51.31
54.43
55.31
54.37
51.99
48.59
44.64
40.68
37.1
33.99
31.14
28.14
24.61
20.32
15.34
9.93
4.42
-0.96
-6.13
-11.12
-16.07
-21.09
-26.34
-31.99
-38.35
-45.7
-54.19
-63.53
-72.72
-80.18
-83.95
-82.36
-74.55
-60.88
-43
-23.35
-4.53
11.39
23.23
30.8
34.61
35.44
34
30.82
26.36
21.1
15.67
10.74
6.86
4.15
2.23
0.36
-2.35
-6.46
-12.12
-18.95
-26.35
-33.68
-40.52
-46.69
-52.21
-57.31
-62.26
-67.49
-73.45
-80.46
-88.55
-97.04
-104.45
-108.67
-107.57
-99.67
-84.9
-64.73
-41.79
-19.18
0.52
15.8
26.4
32.81
35.87
36.29
34.58
31.2
26.75
22.07
18.04
15.32
14
13.6
13.21
11.89
9.06
4.6
-1.11
-7.49
-14.03
-20.38
-26.52
-32.61
-39
-45.99
-53.77
-62.15
-70.39
-77.15
-80.58
-78.75
-70.23
-54.72
-33.26
-8.11
17.82
41.75
61.67
76.68
86.91
93.13
96.19
96.85
95.64
92.99
89.51
85.96
83.19
81.78
81.9
83.07
84.39
84.84
83.63
80.51
75.77
70
63.76
57.3
50.45
42.74
33.61
22.66
9.74
-4.98
-20.99
-37.44
-52.95
-65.68
-73.57
-74.9
-68.98
-56.43
-39.31
-20.46
-2.73
11.74
21.91
27.69
29.6
28.35
24.68
19.27
12.94
6.61
1.17
-2.69
-4.72
-5.1
-4.5
-3.75
-3.74
-5.06
-7.96
-12.27
-17.58
-23.41
-29.28
-35
-40.48
-45.93
-51.63
-57.96
-65.23
-73.37
-81.8
-89.11
-93.44
-92.8
-85.79
-72.2
-53.06
-30.54
-7.19
14.61
33.14
47.6
57.9
64.39
67.5
67.72
65.52
61.55
56.62
51.63
47.36
44.2
42.08
40.39
38.33
35.16
30.62
24.89
18.45
11.85
5.41
-0.85
-7.18
-13.96
-21.57
-30.2
-39.79
-49.92
-59.67
-67.63
-72
-71.01
-63.51
-49.49
-30.32
-8.43
13.34
32.52
47.55
57.92
63.96
66.39
66
63.44
59.34
54.3
49.03
44.13
40.08
37.02
34.76
32.82
30.66
27.84
24.05
19.26
13.51
6.96
-0.22
-7.8
-15.57
-23.29
-30.83
-38.22
-45.69
-53.55
-62.01
-70.9
-79.41
-86.01
-88.81
-85.96
-76.42
-60.38
-39.46
-16.17
6.71
26.94
43.26
55.28
63.4
68.25
70.45
70.59
69.21
66.99
64.55
62.47
60.92
59.82
58.7
57.12
54.78
51.63
47.92
43.86
39.5
34.56
28.65
21.36
12.68
3.01
-6.95
-16.44
-25
-32.55
-39.51
-46.51
-54.14
-62.6
-71.4
-79.32
-84.49
-84.89
-78.93
-66.12
-47.33
-24.68
-0.93
21.25
39.86
54.01
63.67
69.4
71.92
71.88
69.91
66.62
62.8
59.24
56.65
55.35
55.18
55.46
55.32
54.06
51.39
47.63
43.39
39.28
35.53
31.89
27.72
22.32
15.33
6.86
-2.51
-12.03
-21.01
-29.06
-36.15
-42.52
-48.59
-54.82
-61.57
-68.95
-76.68
-83.91
-89.18
-90.66
-86.67
-76.25
-59.7
-38.64
-15.6
6.65
25.84
40.7
51.04
57.38
60.55
61.39
60.5
58.4
55.55
52.41
49.5
47.2
45.67
44.77
44.09
43.1
41.28
38.37
34.44
29.86
25.12
20.65
16.53
12.5
8.03
2.64
-3.94
-11.48
-19.38
-26.93
-33.57
-39.11
-43.76
-48.1
-52.71
-58.13
-64.63
-72.09
-79.89
-86.81
-91.15
-91.03
-85.02
-72.59
-54.53
-32.8
-10.02
11.31
29.32
43.15
52.83
58.94
62.18
63.18
62.42
60.38
57.64
54.88
52.75
51.56
51.27
51.37
51.18
50.04
47.63
43.97
39.34
34.19
28.84
23.55
18.33
13.13
7.74
1.99
-4.24
-10.87
-17.58
-23.95
-29.52
-34.02
-37.53
-40.37
-43.1
-46.28
-50.45
-55.81
-62.12
-68.6
-73.83
-76.04
-73.5
-65.16
-51.07
-32.59
-11.98
8.23
25.86
39.72
49.51
55.68
58.91
59.91
59.19
57.22
54.5
51.59
49.1
47.42
46.7
46.65
46.78
46.54
45.47
43.44
40.59
37.26
33.81
30.51
27.29
23.94
20.09
15.43
9.88
3.58
-3.06
-9.6
-15.65
-21.04
-25.84
-30.33
-34.94
-39.97
-45.63
-51.77
-57.95
-63.33
-66.82
-67.11
-63.08
-54.11
-40.4
-23.11
-4.14
14.28
30.12
42.02
49.46
52.63
52.14
48.83
43.5
37.11
30.57
24.77
20.24
16.96
14.43
11.89
8.81
5.19
1.65
-1.01
-2.32
-2.56
-2.74
-4.22
-8.19
-15.16
-24.97
-36.85
-49.78
-62.8
-75.05
-86.06
-95.62
-103.96
-111.54
-118.87
-126.21
-133.19
-138.7
-141.11
-138.81
-130.68
-116.75
-98.21
-77.16
-56.08
-37.09
-21.56
-9.91
-1.78
3.67
7.32
9.98
12.12
13.96
15.41
16.36
16.7
16.43
15.82
15.18
14.9
15.24
16.3
17.99
20.06
21.98
22.98
22.2
18.79
12.33
3.09
-8.04
-19.62
-30.15
-38.63
-44.86
-49.47
-53.58
-58.4
-64.66
-72.38
-80.66
-87.84
-91.84
-90.59
-82.57
-67.33
-45.74
-19.87
7.47
33.31
55.29
72
83.12
89.18
91.22
90.44
88.02
84.9
81.77
78.96
76.48
74.15
71.6
68.58
65.01
61.12
57.28
53.7
50.29
46.49
41.53
34.65
25.57
14.56
2.54
-9.36
-20.19
-29.44
-37.2
-44.04
-50.82
-58.32
-66.98
-76.61
-86.18
-93.91
-97.56
-95.15
-85.61
-69.35
-48.16
-24.85
-2.33
17.14
32.39
43.37
50.71
55.23
57.53
58
56.94
54.82
52.39
50.46
49.61
49.87
50.68
51.05
50.04
47.19
42.64
37.07
31.25
25.73
20.59
15.46
9.66
2.45
-6.78
-18.33
-32.01
-47.17
-62.71
-77.38
-90.09
-100.27
-107.88
-113.36
-117.26
-119.74
-120.42
-118.32
-112.33
-101.67
-86.33
-67.18
-45.77
-23.95
-3.37
14.88
30.3
42.8
52.46
59.41
63.75
65.82
66.27
66
65.94
66.77
68.65
71.17
73.7
75.58
76.51
76.61
76.27
75.79
75.16
73.89
71.19
66.21
58.4
47.83
35.17
21.55
8.16
-4.13
-15.08
-25.06
-34.9
-45.58
-57.74
-71.25
-85.13
-97.44
-105.7
-107.55
-101.39
-86.99
-65.77
-40.52
-14.58
8.82
27.51
40.58
48.28
51.66
52.04
50.57
48.18
45.57
43.22
41.5
40.5
40.04
39.63
38.69
36.71
33.48
29.15
24.05
18.63
13.03
7.12
0.56
-6.99
-15.57
-24.8
-33.88
-41.87
-48.09
-52.33
-55.07
-57.22
-59.78
-63.33
-67.69
-71.73
-73.67
-71.54
-63.84
-50.2
-31.51
-9.8
12.35
32.43
48.74
60.46
67.68
71.09
71.54
69.92
66.98
63.37
59.59
56.13
53.26
51.03
49.3
47.73
45.94
43.62
40.58
36.78
32.24
26.87
20.51
12.95
3.98
-6.29
-17.44
-28.72
-39.25
-48.34
-55.73
-61.73
-67.06
-72.67
-79.26
-86.98
-95.24
-102.53
-106.88
-106.14
-98.73
-84.07
-63.01
-37.6
-10.64
14.99
37.12
54.47
66.78
74.44
78.13
78.66
76.8
73.39
69.27
65.34
62.31
60.59
60.2
60.77
61.72
62.47
62.55
61.64
59.54
56.06
51.08
44.57
36.76
28.14
19.45
11.39
4.34
-1.79
-7.6
-13.96
-21.64
-30.88
-41.1
-50.79
-57.92
-60.49
-57.18
-47.92
-34.02
-17.91
-2.48
9.73
17.17
19.7
18.45
15.44
12.72
11.68
12.62
14.71
16.59
16.98
15.37
12.06
7.95
3.89
0.28
-2.97
-6.33
-10.17
-14.6
-19.54
-24.81
-30.38
-36.39
-42.99
-50.12
-57.58
-64.96
-71.91
-78.46
-84.89
-91.64
-98.72
-105.36
-109.77
-109.69
-103.06
-88.94
-68.1
-42.84
-16.42
7.93
27.86
42.24
51.06
55.12
55.51
53.26
49.22
44.08
38.41
32.82
27.85
23.9
21.18
19.64
19.09
19.32
20.13
21.36
22.75
23.84
23.96
22.44
18.83
13.03
5.34
-3.78
-13.92
-24.86
-36.54
-48.96
-61.77
-74.06
-84.29
-90.38
-90.3
-82.71
-67.49
-46.07
-21.11
4.25
27.19
45.86
59.63
68.72
73.85
75.76
75.05
72.24
67.81
62.4
56.65
51.19
46.38
42.35
38.94
35.85
32.78
29.43
25.55
20.92
15.43
9.01
1.74
-6.18
-14.46
-22.79
-30.92
-38.86
-46.9
-55.4
-64.69
-74.6
-84.14
-91.48
-94.26
-90.37
-78.73
-59.95
-36.27
-11.03
12.37
31.42
45.08
53.66
58.27
60.06
59.71
57.34
52.87
46.32
38.27
29.69
21.69
15.11
10.33
7.19
5.23
3.92
2.69
1.12
-1.24
-4.63
-9.15
-14.57
-20.45
-26.25
-31.61
-36.49
-41.19
-46.39
-52.68
-60.29
-68.65
-76.19
-80.45
-78.85
-69.52
-52.15
-28.36
-1.33
25.19
47.93
65.03
76.11
81.99
83.95
83.23
80.67
76.82
72.13
67.07
62.22
58.1
55.1
53.14
51.8
50.33
47.88
43.8
37.83
30.19
21.45
12.35
3.53
-4.66
-12.19
-19.31
-26.48
-34.23
-43.03
-53.06
-63.89
-74.26
-82.15
-85.12
-81.14
-69.33
-50.46
-26.89
-1.93
21.13
39.95
53.41
61.65
65.53
66.15
64.43
61.06
56.59
51.49
46.42
41.98
38.71
36.76
35.87
35.22
33.76
30.54
25.04
17.41
8.39
-1.07
-10.22
-18.78
-27
-35.4
-44.45
-54.4
-65.1
-76.2
-87.01
-96.48
-103.11
-105.03
-100.44
-88.26
-68.77
-43.78
-16.35
10.11
32.81
50.26
62.39
70.02
74.22
75.66
74.59
71.11
65.62
59.02
52.6
47.53
44.32
42.7
41.58
39.73
36.31
31.19
24.87
18.11
11.55
5.32
-0.8
-7.29
-14.51
-22.61
-31.52
-40.89
-50.13
-58.27
-63.98
-65.71
-62.17
-52.78
-38.01
-19.47
0.63
19.95
36.7
49.87
59.16
64.73
66.84
65.78
61.93
55.96
48.85
41.85
36.07
32.1
29.85
28.5
26.95
24.19
19.76
13.79
6.89
-0.26
-7.21
-13.98
-20.96
-28.8
-38.01
-48.76
-60.52
-71.95
-81.06
-85.57
-83.63
-74.54
-59.06
-39.38
-18.38
1.27
17.71
30.21
38.86
44.02
45.97
44.83
40.83
34.56
27.15
19.98
14.28
10.74
9.32
9.21
9.3
8.42
5.77
1.11
-5.29
-12.77
-20.62
-28.31
-35.71
-42.97
-50.42
-58.35
-66.55
-74.36
-80.54
-83.51
-81.72
-74.24
-61.09
-43.49
-23.52
-3.46
14.78
30.18
42.6
52.4
59.95
65.18
67.71
67.13
63.5
57.5
50.34
43.3
37.19
32.15
27.62
22.79
17.05
10.38
3.33
-3.2
-8.5
-12.41
-15.37
-18.34
-22.32
-28.08
-35.84
-45.16
-54.96
-63.68
-69.43
-70.51
-65.7
-54.75
-38.55
-18.95
1.66
20.99
37.39
49.99
58.63
63.51
64.9
63.07
58.4
51.58
43.73
36.27
30.47
27.09
26.09
26.7
27.71
28.02
26.97
24.59
21.4
18.08
15.01
12.03
8.46
3.33
-4.1
-13.87
-25.11
-35.95
-44.01
-46.95
-43.15
-32.28
-15.42
5.1
26.36
45.54
60.62
70.61
75.5
75.84
72.33
65.72
56.78
46.49
36.02
26.61
19.18
13.99
10.55
7.85
4.8
0.64
-4.74
-10.96
-17.39
-23.51
-29.19
-34.6
-40.21
-46.48
-53.77
-62.13
-71.19
-80.04
-87.1
-90.49
-88.37
-79.75
-64.96
-45.75
-24.73
-4.63
12.54
25.87
35.43
41.77
45.44
46.76
45.91
43.16
39.04
34.35
29.98
26.56
24.26
22.75
21.27
18.87
14.82
8.84
1.26
-7.07
-15.21
-22.44
-28.62
-34.26
-40.22
-47.35
-55.99
-65.81
-75.76
-84.33
-89.86
-90.89
-86.49
-76.5
-61.63
-43.45
-24.11
-5.9
9.2
19.99
26.13
28.04
26.65
23.07
18.44
13.81
10.12
8.12
8.2
10.27
13.66
17.44
20.58
22.39
22.7
21.87
20.57
19.4
18.6
17.92
16.77
14.35
10.07
3.77
-4.1
-12.41
-19.47
-23.31
-22.24
-15.27
-2.63
14.26
33.16
51.59
67.55
79.86
88.17
92.66
93.67
91.49
86.4
78.96
70.01
60.72
52.22
45.33
40.19
36.3
32.68
28.3
22.57
15.48
7.63
-0.16
-7.24
-13.48
-19.4
-25.81
-33.54
-42.85
-53.23
-63.28
-71.04
-74.48
-72.05
-63.27
-48.88
-30.77
-11.46
6.63
21.69
32.84
39.87
43
42.56
38.9
32.53
24.29
15.33
6.95
0.22
-4.34
-6.95
-8.31
-9.38
-10.98
-13.49
-16.79
-20.38
-23.55
-25.75
-26.83
-27.07
-27.05
-27.46
-28.72
-30.74
-32.84
-33.66
-31.51
-24.79
-12.59
4.97
26.44
49.4
71.02
88.83
101.34
108.12
109.56
106.39
99.33
89.01
76.21
61.94
47.45
33.8
21.52
10.35
-0.45
-11.69
-23.77
-36.35
-48.54
-59.41
-68.39
-75.6
-81.73
-87.76
-94.51
-102.31
-110.74
-118.67
-124.45
-126.19
-122.19
-111.4
-93.78
-70.42
-43.54
-15.94
9.44
30.19
44.93
53.37
56.24
54.79
50.44
44.41
37.67
31.04
25.14
20.43
16.99
14.48
12.13
9.04
4.61
-1.25
-8.06
-15.14
-21.89
-28.18
-34.35
-40.97
-48.57
-57.29
-66.73
-75.82
-83.05
-86.55
-84.68
-76.48
-62.13
-43.16
-22.05
-1.62
15.73
28.57
36.56
40.16
40.12
37.2
32.03
25.33
17.91
10.77
4.81
0.56
-2.04
-3.67
-5.31
-7.85
-11.63
-16.33
-21.23
-25.5
-28.75
-31.2
-33.63
-36.99
-42
-48.67
-56.24
-63.21
-67.64
-67.59
-61.65
-49.42
-31.71
-10.53
11.49
31.78
48.55
61.1
69.61
74.73
76.93
76.45
73.38
68
61.13
53.93
47.59
42.78
39.39
36.52
33.04
27.94
20.85
12.1
2.45
-7.21
-16.23
-24.36
-31.83
-39.17
-46.96
-55.75
-65.62
-76.19
-86.3
-94.21
-97.77
-95.12
-85.29
-68.71
-47.34
-24.08
-2.16
15.95
28.94
36.82
40.53
41.33
40.35
38.4
36.01
33.41
30.75
28.09
25.38
22.58
19.72
16.99
14.64
13.02
12.24
12.19
12.41
12.23
10.97
8.11
3.5
-2.6
-9.56
-16.64
-23.28
-29.32
-35.03
-40.83
-46.83
-52.52
-56.56
-57.11
-52.49
-41.87
-25.69
-5.75
15.49
35.57
52.61
65.76
75.01
80.85
83.86
84.56
83.32
80.62
77.03
73.21
69.67
66.61
63.83
60.83
57.17
52.59
47.22
41.42
35.51
29.49
22.95
15.3
6.07
-4.69
-16.41
-28.03
-38.52
-47.25
-54.2
-59.99
-65.52
-71.66
-78.81
-86.73
-94.35
-99.9
-101.31
-96.73
-85.3
-67.51
-45.35
-21.69
0.46
18.84
32.41
41.26
46.13
47.9
47.21
44.45
40.01
34.46
28.55
23.02
18.21
14
9.81
4.92
-1.12
-8.33
-16.35
-24.86
-33.78
-43.49
-54.63
-67.62
-82.27
-97.6
-112.08
-124.12
-132.71
-137.65
-139.71
-140.32
-141.1
-143.31
-147.27
-152.1
-155.71
-155.29
-148.07
-132.33
-108.14
-77.62
-44.37
-12.37
15.03
36.13
50.87
60.53
66.87
71.49
75.48
79.22
82.81
86.12
88.96
91.12
92.31
92.28
90.83
87.98
83.9
79.03
73.78
68.52
63.37
58.23
52.86
47
40.6
33.73
26.77
20.13
14.11
8.69
3.37
-2.65
-10.23
-19.7
-30.51
-40.82
-47.94
-49.12
-42.46
-27.82
-6.95
16.99
40.52
60.84
76.55
87.57
94.68
98.88
100.86
100.96
99.25
96.02
91.78
87.35
83.54
80.8
79.07
77.78
76.1
73.22
68.69
62.47
54.86
46.39
37.56
28.84
20.54
12.8
5.56
-1.47
-8.79
-16.91
-26
-35.65
-44.62
-51.08
-52.97
-48.73
-37.89
-21.38
-1.44
19.15
37.68
52.3
62.23
67.72
69.61
68.84
66.23
62.33
57.58
52.5
47.68
43.65
40.8
39.24
38.63
38.45
37.96
36.53
33.71
29.3
23.34
16.09
8.01
-0.46
-8.91
-17.14
-25.1
-32.93
-40.83
-49.01
-57.55
-66.16
-74.14
-80.2
-82.68
-79.94
-70.95
-55.83
-36
-13.96
7.44
25.76
39.56
48.55
53.32
54.86
54.17
52.1
49.32
46.46
44.04
42.43
41.71
41.59
41.55
40.99
39.53
37.04
33.71
29.77
25.41
20.66
15.35
9.3
2.46
-5.02
-12.73
-20.13
-26.82
-32.63
-37.83
-43.02
-48.85
-55.64
-63.01
-69.78
-74.15
-74.24
-68.78
-57.54
-41.61
-22.97
-4.03
13.15
27.3
38
45.49
50.22
52.5
52.47
50.14
45.6
39.21
31.56
23.31
15
6.95
-0.64
-7.66
-13.87
-19
-22.89
-25.56
-27.4
-29.01
-31.06
-33.97
-37.8
-42.16
-46.41
-49.89
-52.14
-53.17
-53.31
-53.32
-54.07
-56.23
-59.88
-64.28
-67.8
-68.25
-63.61
-52.76
-36.09
-15.48
6.34
26.65
43.55
56.34
65.34
71.34
75.17
77.3
77.94
77.2
75.28
72.52
69.36
66.25
63.41
60.97
58.75
56.45
53.74
50.28
45.92
40.63
34.54
27.81
20.61
13
5.04
-3.17
-11.46
-19.62
-27.57
-35.37
-43.08
-50.49
-56.85
-60.79
-60.6
-54.9
-43.25
-26.64
-7.24
12.22
29.35
42.64
51.7
57.02
59.43
59.82
58.76
56.63
53.7
50.22
46.54
42.92
39.6
36.66
34.05
31.6
29
25.88
21.91
16.9
10.84
3.93
-3.42
-10.85
-18.03
-24.8
-31.24
-37.53
-43.99
-50.96
-58.64
-66.79
-74.64
-80.73
-83.24
-80.57
-71.87
-57.52
-39.23
-19.48
-0.87
14.59
25.92
33.09
36.8
38.01
37.66
36.41
34.68
32.7
30.6
28.5
26.5
24.65
22.9
21.18
19.33
17.21
14.7
11.65
7.97
3.52
-1.71
-7.64
-13.97
-20.26
-26.09
-31.22
-35.76
-40.05
-44.74
-50.4
-57.26
-64.96
-72.35
-77.65
-78.93
-74.76
-64.78
-49.99
-32.55
-15.05
0.19
11.86
19.71
24.4
26.79
27.63
27.31
25.98
23.84
21.24
18.67
16.57
15.17
14.36
13.84
13.3
12.5
11.33
9.67
7.46
4.58
1.11
-2.73
-6.64
-10.39
-14.01
-17.84
-22.47
-28.48
-36.36
-46.19
-57.56
-69.44
-80.17
-87.71
-90.16
-86.36
-76.25
-61.15
-43.25
-25.07
-8.73
4.5
14.31
21.13
25.81
29.35
32.53
35.85
39.42
43.01
46.1
48.11
48.54
47.18
44.16
39.96
35.24
30.64
26.47
22.58
18.47
13.45
7.14
-0.45
-8.79
-17.08
-24.57
-30.81
-35.83
-40.02
-44.03
-48.53
-54.01
-60.61
-67.86
-74.57
-78.94
-78.97
-72.97
-60.31
-41.64
-18.86
5.35
28.25
47.61
62.07
71.11
74.96
74.24
70.01
63.63
56.66
50.68
46.84
45.58
46.52
48.57
50.38
50.84
49.38
46.16
41.92
37.66
34.21
32.04
31.04
30.57
29.78
27.76
23.94
18.17
10.67
1.83
-7.93
-18.28
-29.01
-39.9
-50.71
-61.07
-70.26
-77.25
-80.61
-78.85
-70.97
-57.02
-38.4
-17.58
2.48
19.41
31.79
39.48
43.24
44.13
43.13
40.98
38.27
35.54
33.3
31.87
31.24
31.08
30.76
29.67
27.52
24.39
20.68
16.83
13
8.99
4.35
-1.46
-8.75
-17.36
-26.76
-36.27
-45.24
-53.31
-60.39
-66.57
-72.12
-77.41
-82.75
-88.28
-93.63
-97.68
-98.71
-94.78
-84.48
-67.53
-45.14
-19.7
5.85
28.88
47.64
61.32
69.82
73.38
72.43
67.55
59.73
50.29
40.77
32.6
26.58
22.8
20.72
19.45
18.28
16.78
14.89
12.68
10.15
7.1
3.24
-1.62
-7.47
-14.11
-21.19
-28.31
-35.25
-41.84
-47.95
-53.5
-58.39
-62.56
-65.9
-68.13
-68.71
-66.81
-61.6
-52.6
-40.09
-25.27
-9.94
4.03
15.31
23.41
28.63
31.69
33.3
33.85
33.46
32.14
30.03
27.47
24.88
22.64
20.9
19.57
18.34
16.84
14.73
11.69
7.54
2.27
-3.97
-10.85
-17.94
-24.9
-31.59
-38.03
-44.5
-51.33
-58.84
-67.15
-76.12
-85.06
-92.76
-97.45
-97.29
-90.94
-78.1
-59.84
-38.38
-16.54
3.17
19
30.31
37.33
40.65
41.01
39.02
35.24
30.35
25.21
20.72
17.62
16.19
16.18
16.88
17.4
16.94
15.09
11.9
7.73
3.11
-1.61
-6.3
-11.04
-16.06
-21.62
-27.91
-35.01
-42.81
-50.87
-58.29
-63.65
-65.15
-61.1
-50.53
-33.69
-12.22
11.23
33.77
53.06
67.74
77.64
83.24
85.41
84.88
82.2
77.79
72.17
66.01
59.98
54.71
50.51
47.32
44.77
42.28
39.28
35.34
30.31
24.22
17.2
9.39
0.82
-8.4
-18.04
-27.66
-36.8
-45.08
-52.59
-59.7
-66.82
-73.92
-80.24
-84.22
-84
-78.19
-66.4
-49.62
-29.97
-10.03
7.72
21.49
30.38
34.32
33.88
30.17
24.62
18.84
14.5
12.85
14.55
19.34
26.11
33.15
38.63
41.04
39.58
34.33
25.95
15.64
4.66
-5.85
-15.16
-22.98
-29.49
-35.33
-41.29
-48.12
-56.07
-64.6
-72.24
-76.87
-76.17
-68.54
-53.65
-32.79
-8.54
15.98
37.97
55.56
68.14
76.04
80.08
81.12
79.83
76.74
72.3
67.05
61.54
56.46
52.25
49.18
47.18
45.78
44.22
41.63
37.36
31.16
23.41
14.87
6.47
-1.22
-8.11
-14.57
-21.3
-28.91
-37.74
-47.52
-57.38
-65.84
-70.94
-70.7
-63.64
-49.42
-29.1
-5.19
19.15
40.84
57.78
69.19
75.34
77.05
75.04
69.81
61.67
51.18
39.32
27.41
16.8
8.28
1.92
-2.94
-7.28
-12.07
-17.76
-24.35
-31.42
-38.41
-44.98
-51.12
-57.17
-63.71
-71.31
-80.27
-90.57
-101.67
-112.45
-121.38
-126.52
-125.99
-118.43
-103.48
-82.04
-56.24
-28.94
-2.96
19.53
37.42
50.6
59.54
64.87
67.15
66.84
64.33
60.27
55.46
50.67
46.44
42.76
39.11
34.71
28.88
21.43
12.76
3.7
-4.89
-12.51
-19.14
-25.28
-31.59
-38.64
-46.62
-55.2
-63.43
-69.92
-72.99
-71.1
-63.23
-49.33
-30.45
-8.64
13.65
34.12
51.13
64.01
72.71
77.51
78.71
76.55
71.36
63.88
55.35
47.22
40.89
36.98
35.25
34.57
33.5
30.79
25.94
19.25
11.59
4.02
-2.79
-8.78
-14.44
-20.58
-27.88
-36.61
-46.35
-56.03
-63.93
-68.1
-66.74
-58.82
-44.43
-24.86
-2.5
19.95
40.03
56.13
67.58
74.48
77.38
76.93
73.83
68.77
62.65
56.49
51.27
47.69
45.89
45.41
45.28
44.45
42.1
37.93
32.23
25.61
18.85
12.47
6.62
1.13
-4.35
-10.23
-16.79
-24.19
-32.36
-40.92
-49.02
-55.23
-57.76
-54.82
-45.32
-29.37
-8.47
14.79
37.45
56.93
71.65
81.22
86.17
87.53
86.35
83.51
79.55
74.89
69.8
64.53
59.4
54.64
50.44
46.85
43.78
40.97
38.08
34.71
30.49
25.19
18.75
11.39
3.5
-4.36
-11.78
-18.52
-24.74
-30.91
-37.68
-45.51
-54.4
-63.6
-71.64
-76.52
-76.3
-69.7
-56.72
-38.75
-18.35
1.5
18.19
30.22
37.39
40.48
40.76
39.37
37.18
34.71
32.37
30.43
29.11
28.42
28.08
27.6
26.38
24.02
20.39
15.63
9.94
3.46
-3.89
-12.17
-21.42
-31.32
-41.15
-49.93
-56.71
-60.97
-62.82
-63.07
-62.83
-63.15
-64.63
-67.13
-69.85
-71.38
-70.16
-64.8
-54.59
-39.72
-21.35
-1.36
18.22
35.59
49.74
60.43
67.99
73
75.86
76.85
76.18
74.21
71.43
68.47
65.82
63.74
62.16
60.67
58.81
56.07
52.11
46.65
39.61
31.05
21.21
10.5
-0.72
-12.14
-23.63
-35.19
-46.91
-58.92
-71.27
-83.75
-95.7
-105.97
-112.86
-114.65
-110.04
-98.73
-81.75
-61.1
-39.29
-18.53
-0.39
14.26
25
31.64
34.2
33
28.88
23.17
17.5
13.31
11.47
12.04
14.28
16.96
18.7
18.48
15.91
11.32
5.66
0.15
-4.19
-6.84
-7.96
-8.39
-9.28
-11.89
-17.21
-25.73
-37.17
-50.39
-63.43
-73.78
-79.06
-77.68
-69.45
-55.76
-39.2
-22.8
-9.11
0.3
5.2
6.25
4.53
1.19
-2.93
-7.09
-10.75
-13.33
-14.45
-13.9
-11.88
-8.95
-5.86
-3.38
-1.98
-1.81
-2.71
-4.41
-6.65
-9.39
-12.81
-17.17
-22.7
-29.44
-37.25
-45.79
-54.64
-63.16
-70.39
-75.08
-75.72
-71.08
-60.56
-44.64
-24.96
-3.94
15.88
32.49
44.83
52.85
57.1
58.37
57.37
54.66
50.82
46.58
42.8
40.16
38.92
38.65
38.43
37.2
34.18
29.22
22.73
15.49
8.21
1.34
-4.96
-10.71
-16
-20.94
-25.79
-30.88
-36.49
-42.51
-48.17
-51.94
-51.92
-46.54
-35.27
-19.01
0.03
19.05
35.55
48.06
56.27
60.82
62.56
62.15
59.88
55.86
50.38
44.06
37.89
32.75
29.11
26.75
24.86
22.39
18.53
13.09
6.47
-0.54
-7.17
-13.04
-18.27
-23.39
-29.02
-35.56
-43.02
-51.07
-59.08
-66.21
-71.4
-73.38
-70.97
-63.47
-51.13
-35.26
-18.1
-2.06
10.99
20.18
25.68
28.17
28.35
26.52
22.74
17.06
10.06
2.75
-3.63
-8.1
-10.44
-11.18
-11.45
-12.42
-14.83
-18.81
-23.87
-29.27
-34.37
-38.83
-42.73
-46.41
-50.4
-55.13
-60.83
-67.26
-73.61
-78.47
-80.06
-76.73
-67.53
-52.66
-33.52
-12.54
7.7
24.99
38.1
46.79
51.49
52.85
51.49
47.91
42.57
36.18
29.69
24.11
20.18
18.04
17.17
16.59
15.29
12.6
8.48
3.42
-1.81
-6.56
-10.58
-14.16
-17.87
-22.34
-28.06
-34.97
-42.51
-49.55
-54.43
-55.39
-50.96
-40.56
-24.89
-5.88
13.84
31.7
45.86
55.68
61.41
63.79
63.49
60.97
56.46
50.4
43.46
36.55
30.6
26.2
23.46
21.98
21.04
19.77
17.45
13.67
8.41
2.04
-4.88
-11.74
-18.14
-24
-29.51
-35.08
-41.16
-48.1
-55.88
-64.06
-71.52
-76.61
-77.38
-72.21
-60.38
-42.52
-20.68
2.29
23.35
40.19
51.64
57.76
59.54
58.26
55.19
51.24
47.02
42.87
39.01
35.58
32.68
30.36
28.59
27.31
26.39
25.62
24.68
23.18
20.73
17.03
12.03
5.9
-0.94
-8.05
-15.01
-21.55
-27.65
-33.49
-39.48
-45.99
-53.15
-60.4
-66.33
-68.82
-65.61
-55.25
-37.79
-15.05
9.9
33.68
53.69
68.71
78.87
85.2
88.96
91.15
92.24
92.31
91.1
88.28
83.62
77.13
69.16
60.39
51.72
43.89
37.25
31.68
26.58
21.16
14.68
6.77
-2.5
-12.65
-22.9
-32.43
-40.56
-46.83
-51.17
-53.95
-55.96
-58.29
-62.09
-68.23
-76.79
-86.85
-96.35
-102.46
-102.43
-94.43
-78.4
-56.29
-31.51
-7.94
11.3
24.6
32.05
34.83
34.53
32.47
29.47
26.04
22.64
19.87
18.3
18.38
20.08
22.94
26.2
29.05
30.92
31.65
31.36
30.35
28.87
26.87
24.02
19.88
14.18
7.09
-0.76
-8.41
-14.94
-19.94
-23.71
-27.19
-31.57
-37.69
-45.45
-53.54
-59.61
-60.93
-55.43
-42.54
-23.67
-1.91
18.81
34.92
44.14
45.87
40.92
30.95
17.87
3.37
-11.01
-24.01
-34.57
-42.03
-46.33
-47.93
-47.72
-46.47
-44.66
-42.3
-39.19
-35.16
-30.42
-25.52
-21.18
-18.1
-16.58
-16.54
-17.61
-19.31
-21.22
-23.15
-25.21
-27.7
-31.14
-35.85
-41.73
-47.88
-52.54
-53.38
-48.15
-35.63
-16.16
8.15
34
57.8
76.85
89.91
97.34
100.46
100.81
99.59
97.35
94.27
90.39
85.84
80.82
75.4
69.38
62.4
54.28
45.22
35.89
27.18
19.66
13.4
7.8
2.01
-4.66
-12.34
-20.68
-29.01
-36.7
-43.46
-49.51
-55.44
-62.03
-69.87
-78.91
-88.25
-95.99
-99.61
-96.74
-85.95
-67.43
-43.16
-16.37
9.33
30.95
46.73
56.41
60.75
61.03
58.53
54.23
48.82
42.86
36.94
31.6
27.26
23.93
21.32
18.94
16.32
13.25
9.74
5.9
1.63
-3.32
-9.34
-16.62
-24.98
-33.86
-42.53
-50.44
-57.47
-64.01
-70.78
-78.58
-87.79
-98.06
-108.04
-115.46
-117.63
-112.25
-98.35
-76.83
-50.41
-22.84
2.23
22.28
36.47
45.43
50.56
53.31
54.66
55
54.37
52.69
49.99
46.48
42.45
38.2
33.99
30.11
26.81
24.31
22.71
21.89
21.4
20.52
18.5
14.85
9.54
3.06
-3.76
-10.11
-15.57
-20.32
-25.13
-31.04
-38.73
-47.98
-57.26
-64.05
-65.39
-59.12
-44.64
-23.39
1.52
26.3
47.68
63.73
74.05
79.38
80.9
79.64
76.32
71.49
65.77
60.02
55.15
51.89
50.4
50.25
50.47
49.86
47.36
42.34
34.79
25.27
14.63
3.79
-6.64
-16.4
-25.61
-34.56
-43.49
-52.64
-62.14
-72.03
-82.02
-91.13
-97.6
-99.14
-93.61
-80
-59.03
-33.11
-5.76
19.66
40.72
56.44
67.03
73.31
76.1
75.95
73.4
69.22
64.59
60.77
58.66
58.49
59.65
61.05
61.61
60.73
58.47
55.37
52.22
49.62
47.94
47.18
46.95
46.58
45.18
41.82
35.79
26.99
16.06
4.54
-5.55
-12.15
-13.78
-10.07
-1.91
8.75
19.67
28.8
34.91
37.64
37.19
34.05
28.67
21.5
13.18
4.81
-2.23
-6.47
-6.97
-3.76
2.03
8.38
13.08
14.35
11.45
4.7
-4.75
-15.51
-26.44
-37.05
-47.44
-58.03
-69.26
-81.18
-93.34
-104.65
-113.5
-118.06
-116.65
-108.34
-93.36
-73.22
-50.44
-27.95
-8.13
7.55
18.75
25.86
29.57
30.44
28.9
25.51
21.07
16.78
13.92
13.35
15.23
18.87
23.02
26.37
28.09
28.11
27.05
26.01
25.85
26.91
28.67
29.94
29.23
25.3
17.56
6.34
-7.03
-20.51
-31.75
-38.73
-40.33
-36.71
-29.34
-20.55
-12.75
-7.73
-6.34
-8.47
-13.49
-20.61
-28.98
-37.7
-45.67
-51.71
-54.81
-54.61
-51.63
-47.11
-42.68
-39.68
-38.77
-39.81
-42.09
-44.67
-46.91
-48.69
-50.38
-52.72
-56.39
-61.75
-68.59
-76.21
-83.4
-88.65
-90.27
-86.57
-76.35
-59.14
-35.63
-7.7
21.92
50.24
74.66
93.54
106.23
112.69
113.33
108.68
99.53
87.12
73.24
59.91
48.86
40.98
35.92
32.45
29.02
24.54
18.71
12.05
5.31
-1.01
-6.99
-13.28
-20.74
-29.97
-41.07
-53.41
-65.8
-76.52
-83.57
-85.02
-79.43
-66.5
-47.31
-24.38
-0.95
19.76
35.48
45.19
49.1
48
42.95
34.89
24.76
13.66
2.83
-6.56
-13.86
-19.28
-23.86
-28.99
-35.81
-44.75
-55.33
-66.5
-77.13
-86.56
-94.87
-102.8
-111.41
-121.6
-133.71
-147.15
-160.39
-171.09
-176.69
-175.15
-165.63
-148.9
-127.06
-102.8
-78.46
-55.36
-33.82
-13.61
5.35
22.55
37.15
48.5
56.81
63.32
69.95
78.52
89.96
103.92
118.74
131.95
140.97
143.83
139.64
128.79
112.86
94.09
74.75
56.42
39.6
23.76
7.76
-9.37
-27.82
-46.49
-63.06
-74.68
-78.87
-74.58
-62.73
-46.14
-28.6
-13.66
-3.54
1.31
1.78
-0.75
-5.28
-11.56
-19.77
-29.89
-41.29
-52.67
-62.6
-70.18
-75.47
-79.42
-83.49
-88.93
-96.23
-105.06
-114.41
-123.15
-130.35
-135.53
-138.62
-139.82
-139.52
-138.24
-136.67
-135.5
-135.05
-134.87
-133.57
-129
-119.1
-102.57
-79.42
-50.84
-18.74
14.88
48.27
79.95
108.49
132.49
150.75
162.57
168.04
167.98
163.5
155.79
145.89
134.71
123.13
112
101.95
93.26
85.84
79.29
73.18
67.21
61.28
55.57
50.3
45.73
41.86
38.41
34.74
30.03
23.68
15.88
7.9
1.94
0.53
5.5
17.3
34.74
55.41
76.46
95.45
110.82
121.78
128.15
130.04
127.79
122.03
113.84
104.57
95.69
88.35
83.06
79.54
76.79
73.51
68.5
61.11
51.46
40.28
28.59
17.26
6.73
-3.13
-12.77
-22.78
-33.69
-45.73
-58.96
-73.14
-87.61
-101.08
-111.68
-117.15
-115.47
-105.58
-87.76
-63.79
-36.35
-8.32
18
41.15
60.4
75.36
85.64
90.98
91.48
87.98
82.11
75.85
70.92
68.25
67.69
68.41
69.28
69.41
68.26
65.77
61.96
56.84
50.48
43.05
35.01
27.1
20.22
15.1
12.05
10.76
10.29
9.38
6.76
1.77
-5.2
-12.6
-17.91
-18.43
-12.11
1.64
21.75
45.76
70.64
93.59
112.67
127.06
136.71
142.07
143.66
142.14
138.17
132.62
126.35
120.04
114.02
108.19
102.14
95.5
88.17
80.39
72.62
65.2
58.13
51.03
43.3
34.48
24.54
13.96
3.53
-5.89
-13.86
-20.45
-26.13
-31.71
-37.79
-44.61
-51.83
-58.45
-62.83
-63.1
-57.61
-45.57
-27.64
-5.89
16.6
36.57
51.6
60.61
63.88
62.65
58.44
52.59
46.07
39.59
33.68
28.76
24.98
22.12
19.58
16.55
12.34
6.72
0.04
-6.9
-13.18
-18.19
-22
-25.29
-29.05
-34.11
-40.65
-48.13
-55.53
-61.82
-66.48
-69.74
-72.47
-75.85
-80.85
-88
-97.12
-107.32
-117.01
-124.04
-126.15
-121.45
-109.15
-89.89
-65.81
-39.99
-15.62
4.83
20.14
30.21
35.81
37.89
37.26
34.47
29.99
24.31
18.06
11.89
6.32
1.62
-2.31
-5.81
-9.37
-13.32
-17.8
-22.83
-28.31
-34.17
-40.26
-46.42
-52.41
-57.89
-62.56
-66.25
-69.09
-71.5
-74.16
-77.65
-82.15
-87.06
-90.93
-91.72
-87.32
-76.31
-58.53
-35.32
-9.19
16.82
40.1
59.04
73.28
83.43
90.51
95.38
98.49
99.95
99.78
98.2
95.71
92.83
90.04
87.43
84.81
81.78
77.94
72.99
66.92
59.94
52.33
44.49
36.6
28.73
20.77
12.61
4.14
-4.71
-13.93
-23.54
-33.37
-42.92
-51.14
-56.5
-57.32
-52.38
-41.51
-25.81
-7.44
11.02
27.31
40.07
48.97
54.45
57.29
58.17
57.52
55.51
52.29
48.2
43.69
39.38
35.66
32.62
29.93
27.1
23.6
19.14
13.78
7.75
1.43
-4.88
-10.98
-16.86
-22.59
-28.41
-34.5
-41
-47.9
-54.81
-60.92
-64.96
-65.51
-61.46
-52.4
-38.89
-22.49
-5.24
10.82
24.28
34.44
41.35
45.37
46.93
46.32
43.9
40.12
35.66
31.24
27.47
24.66
22.79
21.53
20.4
18.9
16.61
13.4
9.32
4.65
-0.16
-4.77
-8.96
-12.8
-16.48
-20.29
-24.4
-28.88
-33.57
-37.92
-41.01
-41.54
-38.22
-30.16
-17.5
-1.45
15.89
32.15
45.46
54.83
60.26
62.24
61.42
58.19
52.7
44.94
35.04
23.35
10.33
-3.41
-17.41
-31.25
-44.62
-57.33
-69.23
-80.24
-90.22
-98.97
-106.09
-111.11
-113.57
-113.34
-110.77
-106.68
-102.33
-99.02
-97.9
-99.65
-104.31
-111.09
-118.3
-123.6
-124.36
-118.53
-105.31
-85.57
-61.72
-37.05
-14.74
3.09
15.66
23.48
27.8
30.06
31.4
32.46
33.46
34.22
34.47
33.86
32.17
29.31
25.39
20.65
15.37
9.85
4.29
-1.13
-6.34
-11.25
-15.87
-20.31
-24.76
-29.5
-34.8
-40.87
-47.7
-55.02
-62.31
-68.84
-73.67
-75.73
-74.01
-67.84
-57.21
-42.95
-26.74
-10.74
2.98
12.99
18.89
21.18
20.96
19.41
17.45
15.56
13.91
12.63
11.84
11.77
12.49
13.96
15.86
17.7
18.96
19.18
18.13
15.67
11.88
6.91
1.1
-5.18
-11.48
-17.34
-22.5
-26.9
-30.83
-34.79
-39.31
-44.45
-49.53
-53.11
-53.15
-47.85
-36.31
-19.04
2.04
24.18
44.65
61.44
73.6
81.27
85.13
86.14
85.06
82.45
78.59
73.8
68.46
63.04
58.06
53.75
50.1
46.7
43
38.49
33.01
26.74
20.14
13.77
8
2.96
-1.37
-5.23
-8.91
-12.75
-17.13
-22.48
-28.95
-36.33
-43.71
-49.5
-51.77
-48.68
-39.26
-23.9
-4.43
16.37
35.48
50.55
60.5
65.42
66.31
64.32
60.4
55.07
48.7
41.73
34.81
28.7
24
20.87
18.93
17.4
15.39
12.27
7.88
2.5
-3.24
-8.75
-13.56
-17.57
-21.05
-24.54
-28.72
-34.32
-41.99
-52.02
-64.26
-77.71
-90.47
-100.02
-103.79
-100.03
-88.61
-71.08
-50.38
-29.93
-12.7
-0.41
6.54
8.88
7.94
5.05
1.43
-2
-4.46
-5.34
-4.19
-0.97
3.87
9.39
14.43
17.85
18.94
17.47
13.71
8.19
1.49
-5.86
-13.45
-20.94
-28.04
-34.47
-40.18
-45.32
-50.3
-55.57
-61.22
-66.64
-70.43
-70.63
-65.36
-53.67
-36.12
-14.77
7.34
27.28
43.01
53.85
60.17
62.99
63.14
61.1
57.17
51.62
45.15
38.75
33.46
29.93
28.24
27.8
27.75
27.28
25.87
23.47
20.36
16.88
13.28
9.6
5.62
1.07
-4.32
-10.83
-18.55
-27.28
-36.34
-44.39
-49.55
-49.86
-43.85
-31.26
-13.43
7.13
27.3
44.34
56.51
63.18
64.65
61.67
55.1
45.78
34.67
22.94
11.89
2.77
-3.8
-7.9
-10.42
-12.66
-15.87
-20.81
-27.55
-35.57
-43.98
-52
-59.22
-65.68
-71.9
-78.55
-86.24
-95.3
-105.46
-115.77
-124.6
-129.9
-129.62
-122.39
-107.92
-87.23
-62.42
-36.1
-10.83
11.37
29.13
41.65
48.44
49.41
44.94
36.12
24.74
12.97
2.76
-4.68
-9.37
-12.37
-15.27
-19.42
-25.26
-32.07
-38.36
-42.53
-43.76
-42.39
-39.93
-38.41
-39.67
-44.66
-53.08
-63.37
-73.2
-79.91
-81.25
-75.87
-63.65
-45.81
-24.61
-2.75
17.23
33.5
45.07
51.8
54.02
52.43
47.88
41.54
34.65
28.47
23.85
20.96
19.36
18.2
16.66
14.33
11.38
8.27
5.47
3.12
0.85
-1.97
-6.06
-11.95
-19.78
-29.31
-39.74
-49.68
-57.1
-59.75
-55.64
-43.9
-25.16
-1.62
23.6
47.31
67.2
82.12
92.02
97.43
98.92
97.09
92.6
86.34
79.52
73.39
68.81
65.9
64.04
62.19
59.4
55.2
49.7
43.46
37.03
30.84
24.91
18.98
12.59
5.21
-3.59
-13.95
-25.42
-36.92
-46.77
-53.11
-54.6
-50.84
-42.69
-31.94
-20.87
-11.54
-5.47
-3.39
-5.21
-10.16
-16.92
-23.81
-29.16
-31.8
-31.36
-28.49
-24.61
-21.34
-20
-21.17
-24.6
-29.4
-34.49
-38.95
-42.33
-44.78
-46.9
-49.61
-53.72
-59.72
-67.29
-75.2
-81.39
-83.44
-79.28
-67.91
-49.85
-27.07
-2.47
21.04
41.21
56.84
67.69
74.12
76.74
76.13
72.95
67.91
61.87
55.61
49.78
44.68
40.23
36.14
32.01
27.57
22.74
17.6
12.29
6.9
1.25
-5.06
-12.63
-21.84
-32.48
-43.47
-52.86
-58.26
-57.52
-49.56
-34.74
-14.85
7.47
29.52
49.21
65.39
77.74
86.45
91.81
94.18
93.97
91.93
89.09
86.48
84.81
84.17
83.9
83.07
80.8
76.7
71.01
64.42
57.78
51.72
46.43
41.58
36.54
30.63
23.47
15.38
7.45
1.51
-0.44
3.03
12.22
26.21
43
60.32
76.23
89.56
99.91
107.28
