137.65
150.92
168.92
192.45
220.54
250.82
280.31
306.01
325.39
336.75
339.42
333.9
321.73
305.11
286.31
267.15
248.71
231.41
215.28
200.22
186.13
172.84
160.05
147.2
133.59
118.61
102.01
84.03
65.32
46.67
28.52
10.7
-7.7
-27.9
-50.83
-76.45
-103.44
-129.49
-152.08
-169.47
-181.31
-188.59
-193.11
-196.58
-200.03
-203.55
-206.58
-208.33
-208.25
-206.1
-201.95
-196.13
-189.4
-183.02
-178.69
-178.18
-182.53
-191.53
-203.44
-215.38
-224.27
-227.57
-224
-213.58
-197.41
-177.13
-154.53
-131.16
-108.12
-85.9
-64.38
-43.24
-22.35
-2.17
16.29
31.74
43.41
51.39
56.68
60.76
64.79
69.11
73.2
76.04
76.74
75.05
71.5
67.06
62.77
59.32
56.93
55.52
54.79
54.48
54.35
54.09
53.29
51.46
48.29
43.85
38.91
34.74
32.98
35.04
41.74
53.12
68.59
87.16
107.76
129.56
151.82
173.82
194.57
212.77
226.96
235.79
238.5
235.23
227.29
217.05
207.62
202.17
203.08
211.19
225.25
242.12
257.59
267.77
270.4
265.59
255.58
243.41
231.48
220.33
208.89
195.56
179.53
161.35
142.27
123.04
102.89
79.74
51.59
18.26
-17.87
-52.46
-81.06
-101.03
-112.38
-117.41
-119.16
-120.08
-121.14
-122.11
-122.28
-121.09
-118.6
-115.34
-112.09
-109.37
-107.19
-104.96
-101.75
-96.85
-90.24
-82.81
-76.15
-71.76
-70.34
-71.32
-73
-73.27
-70.5
-64.04
-54.41
-42.88
-30.99
-20.13
-11.22
-4.51
0.51
5.02
10.45
17.8
26.98
36.68
44.85
49.59
49.96
46.24
39.43
30.62
20.33
8.57
-4.78
-19.53
-35.09
-50.64
-65.42
-78.85
-90.45
-99.91
-107.25
-113.29
-119.73
-128.64
-141.5
-158.25
-177.08
-195.02
-209.21
-217.87
-220.61
-217.93
-210.56
-199.01
-183.79
-165.92
-147.07
-129.32
-114.34
-102.73
-93.96
-86.78
-80.04
-73.18
-66.43
-60.52
-56.32
-54.54
-55.52
-59.26
-65.36
-73.3
-82.43
-92.21
-102.15
-111.85
-121.03
-129.72
-138.56
-148.93
-162.72
-181.78
-207.18
-238.48
-273.49
-308.56
-339.17
-360.99
-370.78
-367.03
-350.28
-322.84
-288.29
-250.6
-213.4
-179.35
-150.15
-126.61
-109.01
-97.2
-90.53
-87.79
-87.16
-86.4
-83.21
-75.67
-62.48
-43.07
-17.58
13.09
47.23
82.45
115.94
145.13
168.43
185.55
197.55
206.04
212.42
217.16
219.75
219.18
214.69
206.48
195.98
185.49
177.46
173.68
174.76
180.02
187.85
196.22
203.38
208.24
210.45
210.35
208.79
206.86
205.69
206.32
209.38
214.97
222.55
231.23
239.98
248.1
255.33
261.76
267.63
272.95
277.54
281.1
283.6
285.64
288.61
294.37
304.73
320.83
342.46
367.63
392.45
411.61
419.54
412.07
388
349.77
302.8
253.61
207.46
166.68
130.52
96.39
62.05
27.15
-6.37
-35.47
-57.75
-72.9
-83.1
-92.11
-103.66
-120.04
-141.36
-165.75
-189.99
-210.33
-223.4
-227.13
-221.59
-209.82
-197.54
-191.88
-198.77
-220.03
-251.55
-283.82
-305.08
-306.23
-284.93
-246.88
-203.45
-166.73
-144.57
-137.81
-140.91
-145.11
-142.38
-128.5
-103.9
-72.58
-40.27
-12.54
6.49
14.89
12.88
2.56
-12.5
-27.67
-37.64
-36.65
-19.03
19.24
78.56
153.87
234.64
307.2
358.92
382.68
379.03
355.32
321.88
287.25
254.73
221.89
183.36
135.34
79.34
22.93
-22.9
-49.01
-52.68
-39.25
-19.8
-6.14
-5.84
-19.65
-42.65
-67.78
-89.6
-106.08
-118.03
-127.14
-134.36
-139.73
-143.17
-145.31
-147.51
-150.91
-155.73
-160.91
-164.76
-166.07
-164.81
-161.85
-157.96
-152.51
-143.1
-126.5
-100.7
-66.88
-30.03
2.52
24.11
31.64
26.92
15.46
3.46
-5.23
-10.52
-15.1
-21.9
-31.74
-42.66
-51.17
-54.43
-51.91
-45.64
-38.95
-34.98
-35.56
-41.08
-51.1
-64.74
-80.79
-97.46
-112.14
-121.82
-124.13
-118.41
-106.27
-91.52
-79.04
-73.57
-78.28
-93.76
-117.42
-143.88
-166.01
-176.93
-172.11
-150.81
-116.23
-74.17
-30.99
8.27
40.38
63.83
78.13
83.7
82.17
76.65
71.33
70.16
75.38
86.47
100.53
113.6
122.37
125.46
123.44
118.28
112.24
107.15
104.03
103.16
104.23
106.59
109.41
111.69
112.26
109.77
102.96
91.13
74.62
55.11
35.23
17.79
4.61
-4.07
-9.67
-14.4
-20.15
-27.56
-35.83
-43.25
-48.04
-49.12
-46.3
-40.22
-31.97
-22.76
-13.87
-6.51
-1.61
0.39
-0.08
-1.76
-2.97
-2.29
0.84
5.77
10.99
14.87
16.37
15.5
13.06
9.88
6.17
1.14
-6.63
-18.25
-33.71
-51.65
-69.83
-85.97
-98.47
-106.7
-110.79
-111.39
-109.5
-106.49
-104.15
-104.49
-109.15
-118.8
-132.75
-149.03
-165.04
-178.41
-187.83
-193.23
-195.32
-194.56
-190.37
-181
-164.32
-139.3
-107.31
-72.32
-39.82
-15.18
-1.94
-1.19
-11.8
-31.08
-55.34
-80.31
-101.39
-114.43
-116.64
-107.1
-86.82
-57.85
-22.36
17.67
60.15
101.97
138.66
164.75
175.14
166.78
139.93
98.59
49.71
1.4
-39.58
-69.91
-90.45
-105.04
-117.65
-129.5
-137.68
-136.28
-119.26
-83.74
-31.72
30.4
94.06
151.22
196.35
227.19
244.36
250.51
249.19
243.6
235.48
224.49
208.6
185.16
152.5
110.68
61.2
6.18
-52.35
-112.35
-171.02
-224.33
-267.58
-296.9
-310.93
-311.88
-304.52
-294.13
-284.19
-275.01
-264.44
-249.94
-231.09
-210.85
-194.95
-189.39
-197.44
-217.67
-243.9
-267.51
-280.75
-279.67
-265.32
-242.38
-216.3
-190.59
-165.68
-139.64
-110.33
-77.23
-42.12
-7.96
22.77
49.76
75.11
102.15
133.8
170.65
210.22
247.43
276.08
290.78
289.03
272
243.98
211.06
179.12
152.22
132.02
118
108.3
100.86
93.67
84.58
71.33
51.12
21.99
-15.68
-58.92
-104.44
-148.65
-188.26
-220.95
-245.73
-261.61
-269.17
-269.75
-265.03
-256.52
-245.08
-231.15
-214.93
-196.64
-176.69
-155.73
-134.32
-112.99
-92.11
-71.79
-52.02
-32.8
-14.32
3.05
18.71
32.09
42.75
50.46
55.34
57.81
58.47
57.94
56.81
55.43
54.06
52.75
51.42
49.99
48.38
46.62
44.75
42.94
41.32
39.95
38.82
37.81
36.69
35.36
33.75
32.05
30.57
29.68
29.65
30.55
32.21
34.3
36.48
38.57
40.68
43.19
46.56
51.11
56.89
63.57
70.63
77.6
84.21
90.61
97.23
104.74
113.85
125.23
139.34
156.07
174.55
192.98
208.96
220.15
225.11
223.88
217.94
209.62
201.07
193.54
187.1
180.97
174.13
165.79
155.57
143.44
129.43
113.6
96.16
77.6
58.82
41.09
25.86
14.36
7.22
4.16
3.92
4.61
4.19
1.09
-5.3
-14.63
-25.83
-37.65
-49.02
-59.27
-67.97
-74.65
-78.61
-79
-75.16
-67.02
-55.41
-41.97
-28.69
-17.37
-9.1
-4.06
-1.57
-0.43
0.77
3.44
8.8
17.72
30.52
46.65
64.65
82.36
97.4
107.85
112.78
112.38
107.74
100.35
91.59
82.39
73.14
63.96
54.9
46.06
37.65
29.85
22.73
16.22
10.15
4.37
-1.18
-6.5
-11.58
-16.41
-20.99
-25.23
-28.85
-31.34
-32.04
-30.38
-26.04
-19.18
-10.39
-0.53
9.51
18.98
27.36
34.22
39.14
41.72
41.63
38.85
33.71
26.98
19.62
12.59
6.6
2
-1.07
-2.73
-3.14
-2.58
-1.48
-0.41
-0.13
-1.43
-4.87
-10.5
-17.72
-25.32
-31.78
-35.69
-36.19
-33.18
-27.28
-19.55
-11.1
-2.89
4.4
10.31
14.56
17.04
17.8
17.1
15.32
12.83
9.85
6.46
2.64
-1.6
-6.09
-10.62
-14.93
-18.89
-22.53
-26.02
-29.65
-33.76
-38.67
-44.61
-51.46
-58.69
-65.34
-70.14
-71.94
-70.06
-64.52
-56.02
-45.55
-33.99
-21.78
-8.98
4.49
18.44
32.12
44.39
54.09
60.56
63.93
65
64.76
63.89
62.54
60.45
57.36
53.33
48.69
43.83
38.8
33.19
26.34
17.83
7.86
-2.52
-11.74
-18.16
-20.52
-18.38
-12.11
-2.83
7.98
18.81
28.53
36.56
42.84
47.67
51.38
54.2
56.17
57.3
57.67
57.52
57.17
56.86
56.72
56.75
56.88
57.01
56.89
55.96
53.34
47.89
38.66
25.26
8.28
-10.71
-29.4
-45.31
-56.44
-61.69
-61.11
-55.81
-47.52
-38.19
-29.42
-22.26
-17.09
-13.77
-11.86
-10.77
-9.98
-9.01
-7.53
-5.37
-2.53
0.86
4.61
8.59
12.82
17.41
22.51
28.12
34.11
40.1
45.7
50.59
54.76
58.56
62.72
68.08
75.32
84.5
94.92
105.17
113.57
118.64
119.53
116.14
109
98.94
86.88
73.69
60.14
46.97
34.78
24.06
15.02
7.64
1.71
-3.03
-6.73
-9.39
-10.73
-10.43
-8.22
-4.17
1.12
6.48
10.37
11.3
8.37
1.61
-7.88
-18.33
-27.75
-34.42
-37.1
-35.07
-27.94
-15.71
1.17
21.53
43.55
64.97
83.68
98.1
107.42
111.5
110.67
105.54
97.09
86.63
75.75
66.01
58.62
54.1
52.22
52.07
52.28
51.37
48.19
42.32
34.33
25.63
17.86
12.14
8.44
5.69
2.37
-2.45
-8.5
-14.29
-17.84
-17.72
-13.69
-6.85
0.9
7.5
11.26
10.96
5.59
-5.85
-24.31
-50.3
-83.39
-121.88
-163
-203.54
-240.7
-272.75
-299.18
-320.48
-337.49
-350.82
-360.54
-366.17
-367.04
-362.73
-353.5
-340.37
-325.02
-309.38
-295.01
-282.47
-271.01
-258.7
-243.11
-222.3
-195.62
-163.99
-129.53
-94.69
-61.42
-30.73
-2.83
22.36
44.72
63.83
79.23
90.73
98.46
102.54
102.8
98.68
89.53
75.24
56.66
35.63
14.56
-4.26
-19.25
-29.69
-35.69
-37.83
-37.06
-34.54
-31.53
-29.24
-28.39
-29.03
-30.41
-31.13
-29.69
-24.89
-16.32
-4.39
9.8
24.87
39.52
52.79
64.15
73.4
80.63
86.02
89.86
92.48
94.31
95.81
97.44
99.56
102.22
105.17
107.86
109.6
109.83
108.29
105.12
100.77
95.83
90.76
85.75
80.66
75.05
68.44
60.47
51.15
40.97
30.92
22.19
15.89
12.62
12.33
14.39
17.84
21.75
25.41
28.41
30.47
31.4
31.01
29.24
26.25
22.46
18.5
14.93
12.05
9.8
7.76
5.32
1.99
-2.41
-7.58
-12.83
-17.23
-19.97
-20.57
-19.1
-16.24
-13.06
-10.79
-10.5
-12.74
-17.34
-23.36
-29.22
-33.06
-33.23
-28.71
-19.4
-6.11
9.77
26.7
43.33
58.76
72.63
84.88
95.64
104.99
112.83
118.81
122.43
123.14
120.5
114.36
104.88
92.49
77.75
61.3
43.74
25.73
7.96
-8.9
-24.24
-37.67
-49.01
-58.28
-65.56
-70.92
-74.34
-75.84
-75.51
-73.51
-70.06
-65.22
-58.9
-50.86
-40.81
-28.75
-15.03
-0.42
14.15
27.78
39.87
50.1
58.32
64.43
68.39
70.32
70.6
69.97
69.33
69.51
70.94
73.58
76.95
80.43
83.46
85.72
87.16
88.01
88.71
89.82
91.73
94.3
96.66
97.17
93.8
84.77
69.19
47.32
20.49
-9.42
-40.33
-70.25
-97.3
-119.67
-135.83
-144.85
-146.82
-142.89
-135.11
-125.71
-116.53
-108.55
-101.86
-95.95
-90.04
-83.46
-75.73
-66.66
-56.28
-44.75
-32.35
-19.48
-6.66
5.5
16.39
25.47
32.4
37.11
39.8
40.87
40.76
39.78
38.1
35.74
32.67
28.95
24.8
20.64
17.15
15.15
15.52
18.98
25.93
36.18
49.01
63.23
77.59
91.07
103.12
113.66
122.82
130.7
137.19
142.12
145.42
147.41
148.77
150.34
152.76
156.23
160.34
164.15
166.43
165.89
161.49
152.73
139.95
124.43
108.26
93.94
83.73
79.15
80.64
87.63
98.92
113.03
128.51
144.07
158.7
171.61
182.33
190.78
197.21
202.15
206.11
209.45
212.16
213.91
214.15
212.27
207.8
200.48
190.35
177.64
162.7
145.89
127.63
108.32
88.43
68.54
49.31
31.45
15.62
2.37
-8.01
-15.42
-20.12
-22.51
-23.16
-22.76
-21.96
-21.31
-21.23
-21.92
-23.42
-25.57
-28.09
-30.63
-32.86
-34.52
-35.38
-35.36
-34.4
-32.55
-30.02
-27.11
-24.26
-21.96
-20.65
-20.56
-21.7
-23.8
-26.44
-29.2
-31.85
-34.46
-37.36
-41.02
-45.84
-52.07
-59.64
-68.37
-77.99
-88.29
-99.15
-110.55
-122.47
-135.04
-148.56
-163.48
-180.13
-198.28
-216.74
-233.37
-245.63
-251.5
-250.37
-243.3
-232.69
-221.35
-211.49
-204.07
-198.78
-194.49
-189.95
-184.24
-177.06
-168.72
-160.15
-152.72
-147.97
-147.08
-150.16
-155.74
-160.72
-161.12
-153.45
-136.07
-110.06
-79.12
-48.47
-23.2
-6.87
-0.74
-3.91
-14.17
-28.95
-46.03
-63.99
-82.07
-100.03
-117.86
-135.36
-151.64
-164.81
-172.12
-170.81
-159.54
-139.35
-113.75
-87.31
-63.63
-43.64
-25.65
-6.92
13.74
34.38
50.22
55.9
48.37
28.74
1.98
-25.17
-46.95
-60.56
-66.45
-67.24
-66.09
-65.39
-66.44
-69.92
-76.59
-87.76
-105.03
-129.56
-161.13
-197.6
-235.09
-268.91
-295.05
-311.45
-318.69
-319.68
-318.48
-318.87
-323.31
-332.4
-345.23
-359.9
-374.07
-385.3
-391.31
-390.2
-380.92
-363.63
-339.81
-311.88
-282.45
-253.76
-227.13
-203.11
-181.64
-162.45
-145.15
-129.35
-114.63
-100.67
-87.28
-74.56
-62.75
-52.04
-42.46
-33.79
-25.61
-17.49
-9.11
-0.33
8.81
18.24
27.89
37.79
48.02
58.82
70.46
83.14
96.75
110.54
123.16
132.82
137.89
137.51
131.95
122.5
110.96
98.95
87.47
76.89
67.38
59.31
53.53
51.2
53.27
60.08
71.09
85.08
100.52
115.98
130.43
143.18
153.75
161.83
167.12
169.38
168.69
165.74
161.51
157.01
152.96
149.56
146.62
143.73
140.32
136.21
131.64
127.06
122.89
119.22
115.72
111.94
107.31
100.99
92.69
83.08
73.53
65.85
61.87
62.97
70.23
83.57
100.63
118.59
135.27
148.9
158.48
163.8
165.28
164.98
165
164.8
164.02
163.54
164.02
165.86
169.22
173.95
181.74
193.98
207.93
221.36
234.36
247.04
259.41
271.11
281.42
292.19
305.56
319.36
333.08
349.38
370.14
395.36
423.01
433.4
412.1
380.18
351.03
321.76
292.08
260.87
226.96
190.2
152.22
118.51
94.13
77.04
63.53
51.28
38.01
23.02
7.56
-5.9
-12.98
-10.87
-2.63
7.78
18.07
26.25
30.98
31.79
28.73
23.54
18
11.48
3.73
-4.03
-10.66
-15.25
-17.36
-17.09
-14.39
-9.53
-4.17
0.29
3.31
4.59
4.02
1.72
-2
-6.4
-10.6
-14.3
-17.42
-20.14
-23.09
-27.1
-32.88
-40.52
-49.41
-58.36
-66.11
-71.95
-76.14
-79.91
-84.95
-92.6
-103.14
-115.56
-128.06
-138.84
-147.06
-153.34
-159.56
-168.26
-181.72
-201.38
-227.36
-258.14
-290.33
-318.8
-337.65
-341.8
-329
-301.07
-263.66
-224.44
-190.15
-164.28
-146.19
-132.3
-118.49
-102.59
-85.43
-70.23
-60.54
-58.11
-61.77
-67.86
-72
-71.19
-65.2
-56.3
-47.65
-41.31
-36.99
-32.42
-24.75
-12.41
3.98
21.81
37.71
48.87
53.78
52.21
44.58
31.45
13.25
-9.6
-36.47
-66.24
-97.12
-126.65
-151.81
-169.68
-178.09
-176.53
-166.38
-150.52
-132.32
-114.46
-98.25
-83.65
-70.11
-57.45
-46.51
-38.98
-36.57
-40.03
-48.55
-59.86
-71.01
-79.62
-84.79
-87.35
-89.32
-92.95
-99.74
-109.96
-122.63
-135.87
-147.25
-154.1
-153.76
-144.1
-124.18
-94.8
-58.48
-18.81
20.55
56.69
87.7
112.32
129.39
137.61
135.78
123.55
101.84
72.91
39.73
5.07
-29.18
-62.36
-94.78
-127.19
-160.05
-192.64
-222.6
-246.04
-258.47
-256.5
-239.28
-209.11
-170.59
-128.91
-88
-49.61
-13.69
20.45
53.09
83.91
112.56
139.25
164.65
189.06
211.3
228.25
235.6
229.72
209.31
176.43
135.92
93.63
54.52
21.25
-5.86
-28.02
-46.8
-63.39
-78.45
-92.43
-105.93
-119.47
-132.97
-145.19
-153.69
-155.61
-148.77
-132.73
-109.03
-80.58
-50.58
-21.46
5.55
30.19
52.44
71.87
87.38
97.44
100.82
97.2
87.54
74.01
59.56
47.41
40.45
40.74
48.91
63.75
82.24
100.14
113.15
118.27
114.71
103.99
89.2
73.78
60.39
50.44
44.05
40.57
38.88
37.75
35.95
32.48
26.83
19.22
10.72
3
-2.1
-3.14
0.39
7.94
18.05
28.85
38.59
46.06
50.75
52.83
52.91
51.8
50.23
48.74
47.58
46.77
46.24
45.98
46.24
47.48
50.04
53.89
58.49
62.88
66.18
68
68.68
69.14
70.42
73.02
76.54
79.67
80.72
78.38
72.59
64.88
58.14
55.81
60.64
73.72
94.02
118.56
143.21
163.81
177.26
182.28
179.63
171.81
162.2
153.97
149.21
148.34
150.27
153.01
154.63
154
151.06
146.65
141.89
137.64
134.14
131.19
128.3
124.94
120.69
115.29
108.65
100.89
92.44
83.85
75.37
66.65
56.84
45.26
32.06
18.68
7.48
0.68
-0.88
1.63
5.35
7.02
4.35
-3.11
-14.24
-27.17
-40.38
-53.19
-65.41
-76.67
-85.82
-91.13
-91.14
-85.7
-76.38
-66.13
-58.08
-54.03
-53.88
-55.97
-58.27
-59.47
-59.37
-58.54
-57.31
-55.15
-50.55
-41.59
-26.64
-5.1
22.38
53.68
85.43
113.42
133.33
141.93
138.13
123.53
101.89
78
56.01
38.26
25.16
15.78
8.91
3.81
0.3
-1.7
-2.69
-3.82
-6.7
-12.74
-22.78
-36.98
-54.99
-76.15
-99.37
-122.79
-143.57
-158.41
-164.58
-161.36
-150.74
-137.01
-125.17
-118.85
-119.08
-124.34
-131.89
-139.33
-145.67
-151.15
-156.38
-161.45
-165.65
-168.13
-168.8
-168.81
-170.38
-175.74
-185.9
-199.94
-215.19
-228.19
-236.07
-237.51
-232.99
-224.23
-213.17
-201.12
-188.46
-175.03
-160.7
-145.89
-131.46
-118.28
-106.75
-96.54
-86.87
-77.09
-67.15
-57.58
-49.03
-41.43
-33.65
-23.71
-9.72
9.06
31.62
55.57
78.05
96.76
110.59
119.42
123.61
123.57
119.94
113.9
107.6
103.65
104.25
110.08
119.77
130.38
138.65
142.28
140.8
135.47
128.42
121.62
116.01
111.16
105.52
97.12
84.43
67.05
46.03
23.63
2.54
-14.91
-27.52
-35.59
-40.59
-44.52
-49.13
-55.12
-61.95
-68.04
-71.48
-70.87
-65.9
-57.61
-48.08
-39.75
-34.63
-33.79
-37.2
-43.9
-52.49
-61.5
-69.76
-76.53
-81.41
-84.18
-84.68
-82.71
-78.26
-71.61
-63.54
-55.15
-47.73
-42.33
-39.42
-38.66
-38.69
-37
-30
-13.67
15.28
57.78
111.1
168.73
221.73
261.47
282.36
283.44
268.13
242.35
212.16
182.02
154.31
129.57
107.11
85.5
63.02
38.4
11.85
-14.1
-34.48
-42.86
-33.51
-3.79
44.02
102.56
161.02
208.06
235.14
238.77
220.9
187.68
146.8
104.91
66.08
31.59
0.71
-28.17
-56.75
-86.29
-117.13
-148.37
-177.69
-201.95
-218.1
-224.18
-220.04
-207.02
-187.33
-163.37
-137.36
-111.39
-87.54
-67.6
-52.62
-42.56
-36.3
-32.3
-29.31
-26.92
-25.45
-25.37
-26.76
-29.03
-31.13
-32.19
-31.92
-30.83
-30.03
-30.86
-34.45
-41.37
-51.54
-64.18
-77.79
-90.47
-100.29
-106.01
-107.55
-105.91
-102.36
-97.46
-90.48
-79.91
-64.62
-45.39
-25.17
-8.19
1.84
3.62
-1.27
-9.32
-17.15
-23.31
-28.74
-35.8
-46.34
-60.14
-74.7
-86.39
-92.3
-91.72
-86.53
-80.27
-76.49
-77.11
-81.84
-88.64
-95.05
-99.49
-102.02
-104.25
-108.47
-116.6
-129.51
-146.63
-166.21
-185.75
-202.54
-214.03
-218.47
-215.32
-205.5
-191.33
-175.88
-162.14
-152.25
-147.18
-146.82
-150.24
-155.9
-161.62
-164.73
-162.52
-153
-135.85
-112.84
-87.46
-63.79
-45.09
-32.95
-27.15
-26.23
-28.35
-31.94
-35.9
-39.59
-42.61
-44.71
-45.77
-45.88
-45.37
-44.75
-44.64
-45.55
-47.82
-51.47
-56.28
-61.84
-67.67
-73.33
-78.42
-82.67
-85.84
-87.76
-88.3
-87.42
-85.17
-81.71
-77.26
-72.08
-66.39
-60.31
-53.87
-46.99
-39.63
-31.7
-23.25
-14.37
-5.28
3.83
12.72
21.24
29.28
36.79
43.79
50.35
56.59
62.64
68.67
74.82
81.25
88.05
95.3
103.03
111.24
119.98
129.23
139.01
149.24
159.78
170.39
180.61
189.81
197.14
201.64
202.28
198.1
188.34
172.59
150.91
123.83
92.41
58.05
22.44
-12.71
-45.78
-75.48
-100.89
-121.53
-137.37
-148.73
-156.21
-160.57
-162.63
-163.16
-162.79
-162.03
-161.17
-160.39
-159.72
-159.12
-158.63
-158.31
-158.32
-158.77
-159.68
-160.86
-161.85
-161.85
-159.79
-154.59
-145.33
-131.43
-112.79
-89.79
-63.11
-33.67
-2.49
29.34
60.66
90.23
116.8
139.26
156.91
169.7
178.3
184.03
188.54
193.31
199.36
206.94
215.77
225.23
234.82
244.46
254.45
265.42
278.21
293.66
312.41
334.37
358.28
381.56
400.66
412.11
413.78
405.79
390.56
372.04
354.08
339.15
327.93
319.67
313.18
307.55
302.49
298.02
294.54
292.13
290.4
288.46
284.97
278.19
266.31
247.68
221.04
186.71
145.96
100.96
54.47
9.72
-29.85
-60.85
-80.48
-87.47
-80.44
-59.95
-28.5
10.05
51.36
91.56
127.93
159.14
184.12
206.64
230.72
259.61
295.04
336.72
382.75
430.4
477.03
518.95
560.16
605.23
657.45
717.61
783.47
850.73
914.65
971.76
1017.8
1059.5
1104.3
1157.4
1219.9
1288.4
1356.8
1419.3
1472.5
1471.5
1388.9
1210.5
940.24
602.21
233.15
-129.35
-457.05
-714.61
-908.24
-1045.6
-1134.2
-1180.5
-1191
-1174.1
-1139.9
-1100.7
-1065.4
-1042.8
-1029.5
-1018.9
-1004.8
-983.7
-955.83
-924.81
-895.97
-874.26
-866.36
-871.3
-886.16
-906.79
-927.82
-942.58
-943.81
-925.3
-883.82
-822.67
-746.19
-660.8
-572.91
-487.11
-405.79
-330.03
-260.8
-199.41
-148.14
-106.9
-73.95
-46.35
-20.9
4.92
32.5
62.24
94
127.15
161.41
196.58
232.32
268.11
303.34
337.4
369.82
400.46
429.35
456.38
480.84
500.91
513.76
516.18
505.71
481.84
446.52
403.93
359.35
317.74
282.73
256.15
238.34
228.59
225.55
227.39
231.75
235.86
236.9
232.44
221.07
202.56
177.83
148.55
116.77
84.48
53.42
25.09
0.71
-18.74
-32.5
-40.22
-42.04
-38.67
-31.35
-21.63
-11.26
-1.82
5.37
9.5
10.31
8.13
3.74
-1.81
-7.56
-12.82
-17.53
-22.15
-27.48
-34.28
-42.82
-52.69
-62.9
-72.25
-79.89
-85.82
-90.97
-96.84
-104.82
-115.52
-128.34
-141.79
-154.15
-164.24
-172.09
-178.87
-186.39
-196.55
-210.94
-230.49
-255.08
-282.91
-309.97
-330.27
-337.23
-325.92
-295.24
-248.76
-193.68
-138.5
-90.44
-53.9
-30.48
-19.94
-21.28
-33.21
-53.95
-81.01
-111.3
-141.99
-171.33
-199.05
-226.13
-254.36
-285.69
-321.54
-361.89
-404.2
-442.87
-470.12
-478.37
-463.35
-426.24
-373.5
-314.21
-256.38
-204.16
-157.57
-114.48
-73.43
-35.36
-3.06
20.72
35.48
43.75
50.09
58.9
72.27
89.03
105.17
115.68
116.84
107.91
91.7
73.34
58.26
49.98
49.1
53.57
60.17
66.15
70.23
72.59
74.07
75.37
76.45
76.7
75.25
71.48
65.25
57
47.48
37.44
27.37
17.35
7.27
-3.05
-13.34
-22.88
-30.55
-35.26
-36.39
-34.07
-29.24
-23.26
-17.41
-12.49
-8.56
-5.13
-1.5
2.72
7.45
12.14
16.09
18.8
20.19
20.58
20.47
20.27
20.19
20.21
20.18
20
19.64
19.13
18.45
17.43
15.78
13.25
9.76
5.49
0.95
-3.32
-6.86
-9.39
-10.78
-10.87
-9.32
-5.63
0.67
9.77
21.3
34.36
47.68
60
70.32
78.12
83.37
86.4
87.9
88.88
90.73
95.07
103.43
116.67
134.51
155.25
176.31
195.11
210.06
221.11
229.36
236.04
241.61
245.29
245.6
241.42
233.01
222.19
211.7
204.11
200.78
201.72
205.97
212.39
220.17
228.79
237.64
245.58
250.84
251.4
245.77
233.57
215.8
194.59
172.33
150.85
130.78
111.48
91.56
69.82
45.94
20.8
-3.83
-26.08
-44.88
-60.4
-74.04
-88.01
-104.61
-125.64
-151.88
-182.55
-214.94
-244.63
-266.27
-275.54
-270.68
-253.57
-228.97
-203.09
-181.02
-164.96
-153.92
-145.13
-136.34
-127.24
-119.65
-116.17
-118.88
-127.96
-141.47
-155.81
-167.04
-172.72
-172.4
-167.64
-160.87
-155.28
-153.72
-158.31
-169.85
-188.16
-213.3
-244.46
-279.79
-315.2
-347.48
-374.82
-397.45
-416.2
-431.93
-447.16
-463.35
-480.74
-495.6
-505.76
-510.23
-509.45
-503.15
-490.76
-475.58
-460.99
-449.69
-437.99
-423.89
-406.43
-386.8
-365.43
-342.61
-323.47
-312.54
-312.68
-318.06
-325.26
-332.75
-342.36
-355.19
-342.81
-287.96
-184.39
-79.12
6.63
63.7
104.44
134.82
159.5
181.93
199.69
210.33
212.44
212.89
215.73
222.73
231.99
242.17
252.37
258.45
257.32
247.61
234.91
223.04
214.17
207.63
203.01
200.09
196.41
189.98
179.76
168.93
159.49
152.39
146.88
142.5
138.99
135.14
130.04
123.17
116.04
109.56
104.13
99.4
95.31
92
89.3
87.07
85.11
83.76
82.99
82.59
82.33
82.38
83.25
85.56
89.77
95.86
103.31
111.3
119.06
126.3
133.38
141.27
151.14
163.89
179.66
197.87
217.43
237.22
256.68
275.95
295.81
317.5
342.47
372
406.78
446.07
487.1
525.06
553.95
568.46
565.78
546.79
515.58
477.8
438.5
400.62
364.77
330.18
295.88
261.55
227.57
194.52
162.77
132.4
103.53
76.63
52.6
32.5
17.3
7.42
2.57
1.74
3.24
5.14
5.63
3.69
-0.68
-6.32
-11.33
-13.76
-12.25
-6.56
2.45
13.13
23.52
31.87
36.87
37.82
34.47
26.94
15.5
0.49
-17.62
-38.21
-60.47
-83.52
-106.56
-129.27
-151.82
-174.75
-198.47
-222.79
-246.56
-267.69
-283.79
-292.88
-294.21
-288.54
-277.78
-264.38
-250.39
-236.99
-224.39
-212.39
-200.98
-190.56
-181.73
-174.74
-168.96
-162.95
-155.08
-144.45
-131.62
-118.58
-107.98
-102.01
-101.48
-105.57
-112.3
-119.56
-125.95
-131.35
-136.77
-143.81
-153.99
-168.08
-185.65
-205.08
-223.7
-238.32
-245.87
-244.1
-232.11
-210.72
-182.44
-150.98
-120.54
-94.87
-76.53
-66.59
-64.64
-69.21
-78.26
-89.46
-100.45
-108.96
-112.97
-111.13
-103.09
-89.61
-72.32
-53.22
-34.06
-15.85
1.14
17.25
33.08
49.17
65.81
82.95
100.1
116.38
130.69
142.01
149.79
154.3
156.59
158.28
160.96
165.76
172.97
182.1
192.14
201.99
210.78
218.04
223.63
227.59
229.97
230.71
229.77
227.21
223.34
218.68
213.81
209.2
204.97
200.89
196.49
191.34
185.25
178.41
171.21
164.03
156.88
149.37
140.8
130.37
117.56
102.3
84.96
66.23
46.84
27.46
8.59
-9.35
-25.98
-40.96
-54.12
-65.51
-75.42
-84.21
-92.14
-99.2
-105.09
-109.42
-112.1
-113.38
-113.89
-114.25
-114.7
-114.8
-113.59
-109.9
-102.83
-92.14
-78.25
-61.96
-44.12
-25.41
-6.24
13.03
32.01
50.18
66.92
81.72
94.37
105.04
114.25
122.71
131.23
140.56
151.37
164.13
178.97
195.56
212.96
229.78
244.45
255.61
262.53
265.15
263.93
259.4
251.85
241.15
227.12
209.85
190.01
168.86
147.89
128.38
111.06
96.1
83.24
72.08
62.27
53.36
44.65
35.12
23.41
8.11
-11.92
-37.09
-66.79
-99.28
-131.85
-161.33
-184.97
-201.21
-210.21
-213.6
-213.69
-212.38
-210.35
-207.04
-201.13
-191.53
-178.09
-161.82
-144.4
-127.44
-111.82
-97.49
-83.77
-69.91
-55.74
-41.93
-29.78
-20.73
-15.75
-14.95
-17.62
-22.55
-28.63
-35.13
-41.86
-49
-56.81
-65.43
-74.88
-85.01
-95.73
-106.98
-118.77
-131.01
-143.36
-155.2
-165.57
-173.44
-177.86
-178.24
-174.47
-166.76
-155.47
-140.85
-123.11
-102.54
-79.79
-56.08
-33.15
-12.97
2.79
13.17
18.12
18.42
15.33
10.21
4.21
-1.88
-7.58
-12.55
-16.56
-19.42
-21.06
-21.62
-21.5
-21.37
-21.96
-23.99
-27.95
-34
-41.94
-51.05
-60.2
-67.86
-72.32
-71.98
-65.74
-53.34
-35.51
-13.96
9.02
31.11
50.38
65.7
76.68
83.47
86.42
85.75
81.61
74.17
63.93
51.8
39.01
26.79
16.08
7.26
0.18
-5.65
-10.69
-15.06
-18.47
-20.21
-19.47
-15.75
-9.14
-0.48
8.82
17.22
23.51
27.16
28.46
28.33
27.97
28.56
30.88
35.22
41.36
48.71
56.55
64.21
71.17
77.01
81.31
83.66
83.68
81.19
76.35
69.68
61.93
53.87
46.06
38.74
31.92
25.41
18.91
12.15
4.96
-2.71
-10.64
-18.41
-25.47
-31.31
-35.64
-38.48
-40.2
-41.36
-42.61
-44.45
-47.1
-50.33
-53.45
-55.43
-55.1
-51.58
-44.6
-34.65
-22.91
-10.86
0.13
9.21
16.22
21.58
26.05
30.38
35.11
40.49
46.59
53.34
60.68
68.4
76.15
83.4
89.49
93.94
96.6
97.77
98.05
98.09
98.37
99.09
100.25
101.73
103.37
104.93
105.95
105.76
103.51
98.53
90.59
80.15
68.36
56.78
46.94
39.8
35.47
33.22
31.82
30.01
26.91
22.2
16.05
8.86
1.01
-7.14
-15.26
-22.89
-29.4
-34.03
-36.15
-35.39
-31.81
-25.97
-18.76
-11.24
-4.33
1.39
5.82
9.34
12.64
16.53
21.69
28.46
36.73
45.92
55.08
63.15
69.24
72.97
74.66
75.29
76.25
78.94
84.21
92.09
101.54
110.69
117.26
119.08
114.64
103.5
86.25
64.31
39.44
13.3
-12.9
-38.39
-62.7
-85.44
-106.13
-124.34
-139.83
-152.76
-163.65
-173.18
-181.8
-189.49
-195.67
-199.47
-200.18
-197.69
-192.75
-186.87
-181.87
-179.19
-179.25
-181.02
-182.25
-180.04
-171.93
-156.82
-135.53
-110.63
-85.62
-63.7
-46.77
-34.83
-26.15
-17.96
-7.52
6.85
24.84
43.84
59.48
66.86
62.47
45.69
19.37
-11.07
-39.53
-61.56
-75.66
-83.26
-87.47
-91.2
-96.04
-102.01
-108.35
-114.39
-120.17
-126.3
-133.44
-141.74
-150.5
-158.35
-163.67
-164.97
-160.89
-150.71
-134.37
-112.63
-87.31
-60.48
-34.09
-9.26
14.12
37.77
63.87
94.12
128.9
166.42
204
238.56
267.39
288.87
303.13
311.25
315.15
317.5
320.74
327.93
341.48
361.62
385.81
409.62
427.16
433.29
425.55
403.99
372.6
337.36
304.14
271.46
238.51
204.71
170.69
144.53
128.08
120.34
118.91
119.21
118.41
115.86
111.82
106.99
102
95.96
88.24
78.29
65.67
50.61
34.32
18.27
3.8
-8.17
-18.21
-26.92
-34.98
-43.05
-51.3
-59.13
-65.82
-70.74
-73.69
-75.58
-77.55
-80.79
-86.31
-94.45
-104.75
-116.2
-127.62
-138
-147.07
-155.05
-162.65
-170.97
-181.09
-193.62
-208.27
-223.53
-236.84
-245.26
-246.4
-239.26
-224.85
-205.86
-185.89
-168.38
-155.72
-148.66
-146.27
-146.32
-146.24
-144.18
-139.8
-134.37
-130.06
-128.73
-130.93
-135.63
-140.97
-145.25
-147.84
-149.18
-150.15
-151.31
-152.61
-153.59
-153.93
-153.63
-152.74
-150.73
-146.4
-138.19
-125.18
-107.84
-88.3
-69.64
-54.68
-44.76
-39.33
-36.37
-33.48
-28.96
-22.46
-14.83
-7.49
-1.65
2.21
4.29
5.22
5.59
5.79
5.92
5.94
5.78
5.38
4.7
3.76
2.82
2.31
2.88
5.13
9.33
15.33
22.66
30.84
39.59
48.82
58.47
68.57
79.79
94.02
114.4
144.18
184.79
233.86
284.79
328.52
356.69
364.72
352.98
325.82
289.29
248.84
208.75
172.53
143.79
125.89
120.46
125.78
136.43
144.83
143.98
130.08
103.33
67.4
27.2
-13.18
-51.64
-87.8
-121.91
-154.26
-184.68
-213.66
-242.12
-271.91
-305.58
-345.39
-391.92
-442.41
-491.55
-532.07
-558.4
-567.09
-558.11
-534.94
-503.21
-469.13
-437.06
-410.79
-392.22
-383.78
-385.4
-394.5
-406.77
-417.23
-422.11
-418.7
-408.76
-396
-387.26
-386.79
-395.2
-410.05
-426.95
-441.93
-451.09
-455.31
-436.42
-385.76
-302.71
-195.72
-79.63
30.88
113.13
167.71
200.91
219.88
227.48
225.89
219.81
211.87
204.11
197.84
195.43
196.35
199.6
202.27
203.04
202.17
200.78
200.75
203.57
211.33
223.53
239.09
255.77
272.5
289.29
306.45
324.47
343.26
363.25
383.57
403.58
422.86
442
462.37
485.53
513.34
547.22
587.65
631.99
674.3
706.16
719.34
708.94
675.55
625.58
568.86
515.28
471.3
438.93
416.73
401.88
391.87
384.94
379.71
374.32
366.28
353.18
333.72
308.29
278.77
247.87
217.85
189.77
163.22
136.83
109.12
79.41
48.18
16.88
-12.77
-39.66
-63.73
-86.09
-108.31
-131.66
-156.44
-181.77
-206.09
-227.85
-246.39
-262.25
-276.99
-292.43
-309.77
-329.01
-349.02
-368.03
-384.45
-397.56
-407.67
-415.98
-424.34
-435.04
-450.36
-471.75
-498.54
-527.12
-551
-562.59
-555.92
-529.24
-485.99
-433.52
-380.26
-332.82
-294.38
-265.18
-244.02
-229.99
-223.07
-223.65
-231.53
-245.33
-262.78
-281.48
-299.82
-317.14
-333.59
-349.34
-363.86
-375.71
-382.73
-382.68
-373.89
-355.85
-329.28
-295.86
-257.61
-216.38
-173.56
-130.07
-86.65
-44.13
-3.62
33.69
66.68
94.75
117.96
137.04
153.05
167.06
179.74
191.19
201.12
208.94
214.11
216.27
215.37
211.5
204.95
196.14
185.76
174.92
165.06
157.71
154.1
154.79
159.53
167.68
178.89
193.67
213.12
237.92
266.94
296.48
320.9
334.39
333.19
316.82
287.92
250.92
210.59
171.49
138.06
114.97
106.36
114.29
136.82
167.54
197.05
216.4
220.42
209.35
188.27
164.21
143.24
128.35
119.4
114.52
111.87
110.7
111.14
113.17
115.57
115.73
110.75
99.16
82.33
64.44
50.98
46.16
50.77
61.34
71.24
73.21
62.08
36.48
-0.93
-44.81
-88.98
-128.08
-158.62
-178.99
-189.09
-189.91
-183.28
-171.95
-159.48
-149.87
-146.69
-151.94
-165.21
-183.49
-201.98
-215.36
-219.26
-211.31
-191.5
-162.04
-126.62
-89.55
-54.77
-25.28
-2.77
12.39
20.89
24.11
23.91
22.32
21.28
22.3
26.13
32.57
40.54
48.53
55.05
59.09
60.24
58.68
54.99
50.15
45.48
42.74
43.71
49.61
60.45
74.67
89.55
102.33
111.33
116.81
120.72
125.42
132.22
140.47
147.82
151.51
150.04
144.09
136.44
130.98
131.5
140.58
159.02
185.39
215.97
245.35
267.72
278.66
276.74
264.01
245.14
225.49
209.11
197.79
191.43
189.11
190.25
194.58
201.64
209.94
216.75
218.94
214.18
202.08
184.42
164.36
145.21
128.9
115.35
102.66
88.27
70.42
49.3
27.17
7.35
-7.15
-15.26
-18.41
-20.03
-24.48
-35.59
-55.73
-85.17
-121.71
-160.68
-195.33
-218.47
-224.77
-213.27
-188.54
-159.52
-136.23
-125.98
-130.78
-147.37
-169.89
-193.21
-215.37
-237.89
-264.24
-297.44
-338.05
-383.31
-427.72
-464.7
-488.62
-496.61
-489.06
-469
-440.49
-406.78
-369.58
-329.31
-286.27
-241.46
-196.91
-154.93
-117.22
-84.38
-56.14
-32.03
-12
3.43
13.42
17.26
14.81
7.13
-3.22
-12.37
-15.88
-9.93
7.35
35.09
69.7
105.78
137.63
160.63
172.28
172.45
163.19
148.08
131.51
117.89
110.92
112.89
124.06
142.64
165.13
187.31
205.2
215.97
218.18
211.64
196.81
174.45
145.4
110.85
72.48
32.37
-7.26
-44.54
-78.08
-106.84
-129.72
-145.54
-153.37
-153.22
-146.78
-137.43
-129.54
-127.09
-132.21
-144.45
-160.93
-177.45
-190.12
-196.66
-196.87
-192.18
-184.53
-175.19
-164.16
-150.31
-132.25
-109.4
-82.67
-54.27
-27.01
-3.21
15.94
30.43
40.79
47.48
50.45
49.4
44.38
36.49
27.99
21.73
20.12
24.08
32.71
43.79
54.84
64.09
70.98
75.88
79.46
82.09
83.75
84.21
83.49
81.93
79.96
77.7
74.84
70.66
64.53
56.26
46.27
35.64
25.95
19.08
16.95
21.04
32.09
49.7
72.37
97.75
123.25
146.66
166.4
181.5
191.25
194.99
192.1
182.46
166.87
147.46
127.54
111.06
101.81
102.45
113.95
135.33
163.84
195.48
225.62
249.7
263.99
266.36
256.73
237.34
212.29
186.68
165.41
152.14
148.64
154.74
168.81
188.27
210.23
231.85
250.54
264.25
271.63
272.24
266.5
255.57
240.94
224.09
206.21
188.08
170.18
152.83
136.4
121.27
107.83
96.29
86.49
77.93
69.81
61.34
52.01
41.72
30.81
19.84
9.28
-0.82
-10.87
-21.67
-33.96
-48.15
-64
-80.7
-97.29
-113.04
-127.8
-142.08
-156.69
-172.39
-189.54
-208.15
-227.9
-248.18
-268.02
-285.94
-300.08
-308.55
-309.88
-303.52
-289.92
-270.31
-246.39
-220.07
-193.37
-168.28
-146.56
-129.33
-116.57
-107.06
-98.86
-89.99
-79.3
-67.12
-55.17
-46.33
-44
-51.35
-70.34
-100.45
-137.84
-175.76
-206.34
-223.68
-226.45
-218.64
-207.69
-200.89
-201.96
-209.65
-219.34
-226.34
-229.24
-231.01
-237.53
-254.39
-283.73
-322.81
-364.74
-400.89
-423.66
-428.56
-415.18
-386.42
-346.73
-300.5
-250.98
-200.71
-152.3
-108.87
-73.35
-46.91
-27.8
-11.62
6.65
30.01
57.72
85.87
109.78
126.83
137.84
146.33
156.2
169.67
186.67
205.79
225.76
246.26
267.47
288.89
308.58
323.46
330.35
327.46
315.03
295.06
270.35
243.49
216.25
189.5
163.6
138.79
115.37
93.77
74.5
57.95
44.26
33.23
24.3
16.68
9.58
2.41
-5.11
-12.93
-20.77
-28.28
-34.96
-40.13
-43.06
-43.06
-39.84
-33.64
-25.37
-16.34
-7.94
-1.18
3.48
6.16
7.32
7.52
7.13
6.33
5.12
3.51
1.66
-0.1
-1.38
-1.92
-1.69
-1
-0.25
0.16
0.07
-0.47
-1.3
-2.33
-3.6
-5.28
-7.56
-10.44
-13.69
-16.86
-19.49
-21.27
-22.14
-22.31
-22.14
-21.98
-21.99
-22.18
-22.42
-22.57
-22.55
-22.25
-21.51
-19.99
-17.24
-12.85
-6.67
1.06
9.75
18.63
27.14
35.01
42.3
49.21
55.86
62.06
67.57
72.61
78.27
86.53
99.5
118.29
142.11
168.12
192.13
209.89
218.26
215.69
202.22
179.05
148.39
113.48
78.42
47.47
23.82
8.3
-1.22
-9.15
-20.56
-39.32
-66.84
-101.83
-141
-180.18
-215.51
-244.07
-264.06
-274.7
-276.17
-269.57
-256.93
-240.89
-224.15
-208.73
-195.37
-183.38
-171.3
-157.74
-142.28
-125.76
-109.86
-96.18
-85.49
-77.45
-70.95
-64.9
-58.89
-53.41
-49.55
-48.46
-50.75
-56.23
-63.94
-72.38
-79.98
-85.47
-88.19
-88.22
-86.34
-83.81
-82.02
-82.04
-84.19
-87.99
-92.27
-95.6
-96.81
-95.4
-91.64
-86.61
-81.76
-78.53
-77.93
-80.13
-84.31
-88.79
-91.43
-90.13
-83.49
-71.17
-53.79
-32.63
-8.97
16.29
42.77
70.26
98.32
125.92
151.51
173.41
190.34
201.84
208.29
210.7
210.21
207.76
203.97
199.16
193.52
187.11
179.85
171.48
161.65
150.07
136.74
122.19
107.38
93.53
81.7
72.38
65.38
60.01
55.47
51.19
47.03
43.1
39.52
36.12
32.55
28.46
23.75
18.64
13.6
9
4.94
1.28
-2.23
-5.76
-9.3
-12.75
-16
-19.09
-22.08
-25.06
-27.94
-30.46
-32.32
-33.18
-32.96
-31.8
-30.12
-28.44
-27.15
-26.19
-25.04
-22.85
-18.78
-12.37
-3.69
6.71
18.12
29.97
41.95
53.89
65.27
75.02
81.48
82.91
78.09
66.94
50.74
31.75
12.69
-4.02
-16.86
-25.49
-30.91
-35.21
-41.27
-51.92
-68.99
-92.44
-119.96
-147.43
-170.18
-184.53
-188.91
-184.15
-172.8
-157.99
-142.2
-126.82
-112.26
-98.41
-85.01
-71.75
-58.13
-43.52
-27.3
-9.42
9.41
27.73
43.9
56.71
65.81
71.81
75.75
78.62
80.95
82.85
84.19
84.91
85.16
85.35
85.93
87.35
89.84
93.29
97.31
101.28
104.53
106.5
106.88
105.55
102.56
98.01
92
84.62
75.93
65.97
54.75
42.3
28.87
15.13
2.28
-8.13
-14.68
-16.62
-14.22
-8.72
-1.9
4.48
9.12
11.42
11.41
9.54
6.47
2.89
-0.54
-3.33
-5.19
-6.04
-5.93
-5.02
-3.53
-1.69
0.27
2.09
3.55
4.57
5.22
5.72
6.35
7.29
8.58
10.09
11.59
12.83
13.61
13.85
13.69
13.52
14.17
17.01
23.86
36.44
55.62
80.36
107.41
131.85
148.39
153.21
145.27
126.56
101.36
74.68
50.77
32.16
19.43
11.51
6.45
2.1
-3.19
-10.11
-18.27
-26.51
-33.62
-39.05
-43.39
-48.14
-55.18
-65.91
-80.51
-97.58
-114.3
-127.07
-132.63
-129.31
-118.05
-102.65
-88.98
-83.04
-88.81
-106.41
-131.78
-157.87
-177.15
-184.13
-176.99
-157.68
-130.55
-100.52
-71.68
-46.56
-26.46
-11.96
-3.36
-0.59
-2.87
-8.42
-14.61
-18.65
-18.54
-13.73
-5.31
4.57
13.57
20.08
23.63
24.8
24.59
23.72
22.36
20.14
16.68
12.03
6.98
2.86
1.07
2.51
7.29
14.69
23.42
32.18
39.92
46.08
50.63
53.81
55.97
57.27
57.79
57.52
56.69
55.83
55.79
57.37
61.11
66.81
73.56
80.05
84.97
87.57
87.81
86.3
83.79
80.87
77.63
73.71
68.64
62.25
54.97
48.01
43.17
42.28
46.55
55.98
69.01
82.57
92.9
96.43
90.72
75.05
50.66
20.51
-11.25
-40.44
-64.3
-82.67
-98.25
-115.27
-137.08
-163.92
-191.68
-213.21
-221.39
-212.52
-188.08
-154.09
-118.27
-86.87
-63.05
-46.79
-36.48
-30.74
-29.05
-31.41
-37.38
-45.29
-52.29
-55.83
-54.36
-48.03
-38.66
-28.81
-20.75
-15.6
-13.01
-11.6
-11.01
-11.6
-14.58
-21.72
-34.58
-53.73
-78.27
-105.97
-133.57
-160.34
-186.22
-211.35
-235.51
-257.65
-275.91
-288.2
-293.05
-289.47
-281.89
-275.49
-274.81
-282.93
-301.25
-329.82
-367.55
-411.92
-457.18
-500.99
-539.58
-568.77
-585.55
-589.48
-583.25
-571.84
-560.93
-528.27
-462.56
-361.86
-235.79
-101.99
21.89
124.76
203.76
253.71
284.2
300.29
305.19
301.16
290.78
277.37
264.46
256.15
253.74
258.1
264.16
266.94
263.17
252.1
235.42
216.2
197.5
181.49
170.37
162.25
154.77
146.17
135.81
124.2
112.48
101.67
92.26
85.11
79.06
72.89
65.88
57.96
49.57
41.41
34.06
27.77
22.92
19.04
15.59
12.25
8.94
5.75
2.86
0.37
-1.74
-3.41
-4.75
-5.86
-6.75
-7.43
-7.83
-7.89
-7.58
-6.91
-5.85
-4.44
-2.66
-0.53
1.92
4.69
7.72
10.94
14.29
17.67
20.99
24.1
27.05
29.85
32.5
34.9
36.94
38.45
39.3
39.5
39.09
38.37
37.72
37.52
38.01
39.3
41.32
43.95
47.05
50.57
54.83
60.24
67.1
75.46
85.14
95.78
107.01
118.57
130.32
143.2
158.24
176.13
196.94
220.17
244.94
270.39
295.89
320.97
347.23
376.44
409.83
447.71
489.72
535.01
582.48
630.49
676.53
720.24
761.77
801.11
837.81
870.94
899.27
921.61
937.42
947.25
956.43
971.96
998.87
1037.5
1082.7
1126.2
1159.9
1179.8
1155.9
1070.3
917.75
706.58
456.43
192.78
-60.28
-285.36
-473.41
-611.36
-703.45
-757.2
-780.37
-780.64
-765.62
-742.4
-716.71
-692.58
-673.1
-657.16
-640.92
-620.99
-595.87
-566.21
-534.07
-501.95
-471.91
-445.33
-421.88
-399.45
-376.14
-351.22
-325.2
-299.34
-275.1
-253.57
-235.34
-220.16
-206.61
-193.32
-179.52
-165.13
-150.58
-136.46
-123.25
-111.19
-100.24
-89.79
-79.24
-68.26
-56.88
-45.4
-34.3
-24.02
-14.88
-7.17
-0.82
4.33
8.5
11.79
14.2
15.63
15.97
15.17
13.38
10.85
7.96
4.99
2.02
-1.16
-4.98
-9.94
-16.36
-24.21
-33.06
-42.28
-51.26
-59.74
-67.95
-76.49
-86.14
-97.4
-110.24
-124.16
-138.35
-152.08
-164.99
-177.24
-189.38
-202.2
-216.66
-233.65
-253.8
-276.83
-300.97
-322.82
-337.89
-341.96
-332.66
-310.54
-279.01
-243.23
-208.44
-178.51
-155.35
-139.1
-128.77
-122.84
-119.59
-117.21
-113.93
-108.37
-99.99
-89.34
-77.97
-68.05
-61.53
-59.34
-60.69
-63.05
-62.83
-56.68
-43.04
-22.96
-0.05
20.85
35.5
41.73
40.13
33.37
24.94
17.73
13.32
11.93
13.14
16.56
22.38
31.36
44.5
62.59
85.68
112.92
142.64
172.66
200.76
225.13
244.59
258.69
267.74
272.66
274.78
275.38
275.27
274.44
271.9
266.03
255.16
238.3
215.68
188.8
159.91
131.23
104.27
79.51
56.76
35.74
16.61
0.02
-13.35
-23.47
-31.3
-38.54
-46.86
-56.99
-68.39
-79.58
-89.09
-96.23
-101.38
-105.54
-109.58
-113.61
-116.94
-118.63
-118.23
-116.36
-114.62
-115.08
-119.26
-127.42
-138.21
-148.97
-156.63
-158.69
-154.3
-144.54
-132.2
-120.78
-113.34
-111.34
-114.29
-119.88
-124.89
-126.25
-122.01
-111.83
-96.97
-79.73
-62.76
-48.27
-37.58
-30.91
-27.56
-26.35
-26.12
-26.03
-25.69
-24.87
-23.39
-20.93
-17.12
-11.73
-4.85
3.09
11.5
19.92
28.17
36.28
44.4
52.5
60.33
67.43
73.27
77.49
79.89
80.4
79.01
75.68
70.47
63.7
56.08
48.65
42.45
38.09
35.44
33.67
31.5
27.71
21.48
12.57
1.29
-11.79
-25.94
-40.43
-54.56
-67.69
-79.31
-89.17
-97.28
-103.92
-109.63
-115.02
-120.53
-126.17
-131.4
-135.21
-136.52
-134.63
-129.6
-122.28
-113.96
-105.8
-98.4
-91.69
-84.99
-77.43
-68.27
-56.99
-43.43
-27.66
-10.01
8.91
28.02
45.95
61.09
72.14
78.49
80.52
79.39
76.62
73.35
70.01
66.3
61.56
55.26
47.35
38.14
28.15
17.76
7.14
-3.67
-14.5
-25.02
-34.84
-43.66
-51.47
-58.49
-64.98
-71.06
-76.5
-80.68
-82.79
-82.23
-78.89
-73.41
-67.05
-61.32
-57.41
-55.77
-55.85
-56.21
-55
-50.39
-41.09
-26.73
-8
13.47
35.43
55.53
71.84
83.31
89.99
92.81
93.23
92.74
92.51
93.28
95.35
98.73
103.27
108.74
114.87
121.27
127.51
133.1
137.56
140.54
141.9
141.8
140.64
138.99
137.4
136.29
135.8
135.7
135.57
134.82
132.92
129.46
124.16
116.74
106.82
93.85
77.16
56.11
30.49
0.86
-30.89
-61.45
-86.68
-102.74
-107.61
-102.14
-90.07
-76.8
-67.37
-64.69
-68.69
-76.92
-85.99
-93.16
-97.17
-98.12
-96.74
-93.6
-88.89
-82.66
-75.3
-67.87
-61.9
-59.01
-60.2
-65.4
-73.42
-82.31
-90.1
-95.49
-98.24
-99.12
-99.46
-100.29
-101.87
-103.41
-103.58
-101.3
-96.48
-90.39
-85.16
-82.97
-85.07
-91.35
-100.49
-110.83
-121.05
-130.76
-140.39
-150.78
-162.75
-176.66
-192.36
-209.09
-225.49
-239.9
-250.69
-256.82
-258.22
-255.7
-250.3
-242.64
-232.42
-218.59
-200.17
-177.1
-150.68
-123.22
-97.17
-74.14
-54.38
-37.04
-20.79
-4.55
12.29
30.01
48.94
69.3
90.83
112.01
129.89
140.67
140.91
129.08
106.28
75.94
42.42
9.5
-20.48
-46.46
-67.78
-83.46
-92.17
-93
-86.34
-74.29
-60.13
-47.09
-37.22
-30.8
-26.71
-23.28
-19.36
-14.76
-10.13
-6.36
-3.84
-2.04
0.56
5.87
15.68
30.87
51.21
75.6
102.56
130.9
160.14
190.49
222.61
257.3
295.38
337.71
384.85
436.26
489.35
538.92
577.99
599.71
599.9
578.65
540.28
491.58
439.24
388.01
340.14
296.22
256.4
220.95
190.17
163.67
140.08
117.5
94.5
70.97
48.17
28.06
12.22
0.86
-7.26
-14.47
-23.2
-35.16
-50.83
-69.52
-89.7
-109.57
-127.33
-141.4
-150.53
-153.77
-150.39
-139.64
-120.86
-93.66
-58.71
-18.41
22.95
60.03
88.07
104.62
110.48
109.14
105.03
101.58
100
99.64
99.01
97.2
94.37
91.47
89.35
88.16
87.18
85.28
81.51
75.5
67.59
58.64
49.57
41.15
33.61
26.77
20.18
13.52
6.86
0.61
-4.9
-9.76
-14.5
-19.7
-25.64
-32.12
-38.75
-45.38
-52.6
-61.49
-73.13
-87.75
-104.35
-120.82
-134.64
-143.73
-147.01
-144.61
-137.6
-127.56
-116.21
-105.22
-96.17
-90.44
-89.1
-92.6
-100.43
-111.01
-122.07
-131.46
-138
-142
-144.92
-148.52
-153.52
-158.96
-162.28
-160.25
-150.2
-131.02
-103.26
-68.77
-29.87
11.25
52.67
92.5
128.63
158.74
180.65
192.74
194.3
185.41
166.66
139.29
105.59
69.63
37.35
15.46
9.18
19.74
43.15
71.14
94.03
104.29
99.13
80.74
54.55
26.51
1
-19.79
-35.24
-45.31
-49.85
-48.82
-42.85
-33.52
-23
-13.34
-5.55
0.89
7.66
16.86
29.93
46.93
66.44
86.03
103.11
115.93
124.2
129.27
133.62
139.91
149.91
163.67
179.4
194.02
204.36
208.36
205.76
198.02
187.28
175.33
162.78
149.04
132.9
113.45
90.57
64.85
37.28
8.72
-20.21
-49.01
-77
-103.23
-126.62
-146.35
-162.19
-174.44
-183.83
-191.07
-196.62
-200.55
-202.62
-202.52
-200
-195.23
-188.78
-181.62
-174.91
-169.65
-166.55
-165.86
-167.54
-171.53
-178.02
-187.47
-200.4
-216.95
-236.34
-256.75
-275.33
-288.87
-294.68
-291.55
-280.36
-263.95
-246.36
-231.44
-221.62
-217.09
-215.85
-214.43
-209.1
-196.89
-176.32
-147.57
-112.02
-71.74
-28.84
15.12
59.41
104.15
149.87
196.65
243.3
287.01
323.45
347.71
355.41
343.81
312.49
263.59
201.35
131.49
60.22
-6.78
-65.18
-112.52
-148.3
-173.81
-191.54
-204.66
-216.47
-229.83
-246.56
-266.63
-287.79
-305.87
-316.02
-314.36
-299.59
-273.54
-240.51
-205.69
-173.42
-146.25
-124.89
-108.99
-98.05
-91.91
-90.7
-94.22
-101.69
-111.58
-122.13
-131.88
-140.12
-146.97
-153.12
-159.37
-166.18
-173.55
-181.03
-187.96
-193.72
-197.99
-200.75
-202.16
-202.3
-200.96
-197.58
-191.28
-181.14
-166.49
-147.22
-123.89
-97.69
-70.12
-42.57
-15.97
9.48
34.19
58.9
84.15
109.93
135.47
159.58
181.07
199.42
215.14
229.66
244.85
262.21
282.17
303.81
325.43
345.17
361.97
376.18
389.32
403.64
421.56
445.09
475.26
511.44
550.54
586.97
613.71
624.44
616.12
590.6
554.19
515.3
481.16
455.22
436.56
421.47
405.89
387.65
367.25
347.05
329.73
316.83
307.97
301.07
293.19
281.51
264.57
242.45
216.6
189.11
161.83
135.99
112.25
91.27
74.02
61.86
55.85
56.06
61.08
68.19
74.23
76.67
74.5
68.43
60.34
52.29
45.48
39.76
33.71
25.39
13.22
-3.17
-22.79
-43.64
-63.63
-81.53
-97.52
-113.07
-130.35
-151.17
-176.12
-204.37
-234.05
-263.08
-290.08
-314.93
-338.66
-363.07
-390.38
-422.87
-462.43
-509.58
-562.2
-614.94
-659.81
-688.41
-694.96
-678.66
-644.03
-598.98
-551.59
-507.37
-468.26
-433.64
-402.15
-373.19
-347.02
-323.8
-302.63
-281.32
-257.27
-228.8
-196.02
-160.8
-126.02
-94.11
-65.89
-40.26
-14.72
13.52
46.17
83.2
122.96
163.01
201.25
236.76
269.99
302.42
335.99
372.74
414.37
461.6
513.19
565.08
610.43
641.07
650.04
634.08
594.81
537.93
471.04
401.28
334.04
273.07
221.25
181.16
154.56
141.46
139.35
143.67
149.31
152.45
151.66
147.79
143.01
139.42
137.99
138.2
138.39
136.57
131.29
122.27
110.63
98.64
89.2
84.97
87.3
95.52
106.74
116.46
120.05
114.35
98.71
75.07
46.95
17.81
-10.09
-36.11
-60.74
-84.59
-107.85
-130.32
-151.87
-172.85
-193.99
-215.79
-237.77
-258.26
-274.8
-285.02
-287.69
-283.05
-272.74
-258.98
-243.83
-228.66
-214.03
-200.04
-186.46
-172.82
-158.21
-141.3
-120.67
-95.58
-66.79
-36.91
-9.77
10.75
22.15
24.25
19.21
10.49
1.65
-4.91
-8.31
-8.94
-7.88
-6.25
-4.96
-4.75
-6.41
-10.76
-18.47
-29.64
-43.33
-57.55
-69.56
-76.7
-77.3
-71.23
-59.87
-45.55
-30.78
-17.71
-7.91
-2.43
-1.7
-5.35
-11.99
-19.25
-24.36
-25.02
-20.41
-11.56
-1
8.38
14.52
17.09
17.41
17.64
19.72
24.62
32.17
41.52
51.81
62.52
73.41
84.13
94
101.95
106.98
108.53
106.82
102.78
97.66
92.54
88.08
84.39
81.1
77.63
73.39
68.03
61.7
55.04
49.16
45.37
44.8
48.12
55.31
65.37
76.22
84.79
87.69
82.07
66.65
42.3
11.65
-22.04
-56.2
-89.8
-122.78
-154.68
-183.23
-204.09
-212.19
-204.07
-179.85
-143.83
-103.27
-65.83
-37.17
-19.68
-12.65
-13.61
-19.93
-29.7
-42.1
-56.94
-74.17
-93.3
-113.23
-132.22
-148.31
-159.94
-166.53
-168.92
-169.14
-169.91
-173.74
-182.09
-194.7
-209.55
-223.26
-232.07
-232.78
-223.79
-205.45
-179.91
-150.55
-120.99
-94.46
-73.2
-58.27
-49.74
-46.93
-48.79
-54.33
-62.79
-73.61
-86.28
-99.98
-113.4
-124.95
-133.15
-137.13
-136.9
-133.13
-126.86
-119.18
-111.26
-104.44
-100.26
-99.87
-103.33
-109.11
-114.45
-116.4
-113.18
-105.1
-94.36
-83.89
-75.84
-70.41
-65.91
-59.66
-49.3
-33.81
-13.8
9.11
33.07
56.87
80.28
104.06
129.35
156.88
186.17
215.03
239.85
256.45
261.39
253.11
232.48
202.39
166.73
129.14
92.3
57.73
26.14
-2.15
-27.17
-49.34
-69.75
-90
-111.74
-135.97
-162.47
-189.56
-214.41
-233.74
-244.83
-246.34
-238.79
-224.38
-206.3
-187.69
-170.81
-156.66
-145.14
-135.66
-127.62
-120.79
-115.2
-110.96
-107.98
-105.91
-104.23
-102.59
-100.89
-99.38
-98.47
-98.46
-99.43
-101.12
-103.01
-104.48
-105.01
-104.28
-102.22
-98.93
-94.64
-89.59
-83.99
-77.96
-71.61
-65.01
-58.21
-51.18
-43.88
-36.17
-27.87
-18.84
-8.91
1.99
13.9
26.79
40.57
55
69.77
84.43
98.47
111.4
122.82
132.59
140.71
147.31
152.5
156.23
158.29
158.34
156.17
151.88
146.09
139.83
134.33
130.66
129.41
130.55
133.58
137.88
143.16
149.71
158.41
170.34
186.26
206.2
229.31
254.15
279.16
303.24
326.04
347.99
370.13
394.03
421.4
453.59
490.59
530.11
567.24
595.29
607.78
600.74
574.37
533.11
484.02
434.38
389.66
352.72
324.34
304.26
292.07
287.28
288.96
295.23
303.34
310.32
313.76
312.41
306.29
296.21
283.04
267.16
248.32
225.9
199.57
169.79
137.98
106.32
76.99
51.49
30.08
11.83
-4.89
-21.61
-39.12
-57.17
-74.76
-90.79
-104.8
-117.41
-130.16
-144.93
-163.09
-184.92
-209.43
-234.92
-259.66
-282.73
-304.27
-325.44
-348.05
-374.17
-405.75
-443.83
-487.43
-532.72
-572.93
-599.86
-606.42
-589.37
-550.65
-496.64
-435.59
-374.58
-317.59
-265.41
-217.07
-171.74
-129.73
-92.42
-61.18
-36.49
-17.61
-2.86
9.69
21.68
34.2
47.58
61.59
75.56
88.51
99.43
107.49
112.15
113.32
111.19
106.21
99.06
90.63
82.02
74.38
68.74
65.67
65.2
66.83
70.02
74.54
80.81
89.67
102
118.09
137.31
158.19
178.91
197.85
213.96
226.73
235.93
241.21
241.89
236.98
225.47
206.83
181.44
150.83
117.59
84.94
56.02
33.1
17.24
8.22
4.87
5.57
8.62
12.45
15.63
17.03
16.03
12.62
7.57
1.99
-3.1
-7.18
-10.31
-12.91
-15.29
-17.31
-18.44
-18.03
-15.8
-12.12
-7.93
-4.36
-2.23
-1.81
-2.79
-4.58
-6.66
-8.78
-10.95
-13.2
-15.54
-17.85
-20.15
-22.64
-25.8
-30.15
-35.94
-42.97
-50.48
-57.53
-63.31
-67.51
-70.51
-73.22
-76.74
-81.88
-88.84
-97.04
-105.25
-111.95
-115.75
-115.65
-111.28
-102.87
-91.05
-76.68
-60.56
-43.16
-24.51
-4.32
17.69
41.25
65.19
87.39
105.24
116.58
120.5
117.79
110.72
102.17
94.71
89.71
87
85.1
81.93
75.54
64.82
49.76
31.41
11.58
-7.51
-23.58
-34.67
-39.52
-38.08
-31.81
-23.59
-17.03
-15.29
-19.99
-30.59
-44.69
-59.22
-71.61
-80.58
-86.17
-89.2
-90.37
-89.83
-87.18
-81.83
-73.52
-62.57
-49.8
-36.3
-23.13
-11.14
-0.88
7.43
13.91
18.86
22.69
25.76
28.28
30.36
32.04
33.42
34.59
35.61
36.47
37.13
37.68
38.6
40.85
45.66
53.98
65.82
79.84
93.43
103.4
107.06
103.16
92.36
76.96
60.03
44.34
31.58
22.11
15.23
9.64
3.94
-3.08
-12.28
-24.09
-38.39
-54.51
-71.44
-88.09
-103.65
-117.82
-130.63
-142.23
-152.54
-161.22
-167.77
-171.91
-173.77
-173.89
-172.91
-171.32
-169.29
-166.74
-163.61
-159.92
-155.93
-151.91
-147.94
-143.9
-139.46
-134.23
-128.01
-120.84
-112.86
-104.3
-95.25
-85.64
-75.3
-63.99
-51.57
-38.18
-24.27
-10.53
2.35
13.96
24.38
34.11
43.72
53.52
63.24
72.15
79.31
84.02
86.08
85.79
83.7
80.42
76.34
71.57
66.14
60.02
53.28
46.02
38.44
30.72
23.04
15.39
7.63
-0.55
-9.52
-19.51
-30.39
-41.51
-51.79
-59.82
-64.24
-64.07
-59.04
-49.72
-37.5
-24.17
-11.45
-0.62
7.73
13.55
17.06
18.41
17.63
14.68
9.85
3.83
-2.47
-8.17
-12.85
-16.7
-20.24
-24.13
-28.93
-35.15
-43.33
-54.18
-68.1
-84.58
-101.83
-116.72
-125.81
-126.76
-119.6
-106.89
-92.9
-81.86
-76.44
-77.18
-82.62
-90.3
-97.7
-102.91
-105
-104.43
-103.2
-104.81
-113.26
-131.21
-158.26
-190.22
-220.4
-242.24
-252.21
-251.32
-244.36
-237.53
-235.52
-239.98
-249.51
-261.07
-271.75
-279.71
-284.16
-284.7
-280.71
-271.1
-254.77
-231.16
-200.56
-164.2
-123.83
-81.27
-37.89
5.49
48.53
91.09
132.87
173.37
212.13
249.26
285.55
322.1
359.25
395.51
427.26
449.44
457.32
448.29
423.07
385.55
341.54
296.94
256.4
222.72
197.07
179.48
169.2
164.75
164.04
164.49
163.44
158.68
148.88
133.72
113.97
90.94
66.07
40.37
14.19
-12.76
-41.11
-71.42
-103.8
-137.75
-172.25
-205.99
-237.8
-266.82
-292.66
-315.32
-334.94
-351.65
-365.34
-375.69
-382.22
-384.41
-381.82
-374.2
-361.54
-344.14
-322.76
-298.61
-273.19
-248.09
-224.58
-203.38
-184.48
-167.37
-151.36
-135.9
-120.76
-106.02
-91.75
-77.87
-63.96
-49.41
-33.64
-16.41
1.99
20.77
38.94
55.78
71.27
86.16
101.87
119.83
140.95
165.23
191.77
219.42
247.17
274.87
303.16
333.22
366.34
403.81
446.87
496.44
552.11
610.98
667.05
712.06
737.93
739.59
717.02
675.11
621.52
563.51
505.77
449.93
395.77
343.06
292.5
245.47
202.96
164.63
128.83
93.67
58.39
24.09
-6.45
-29.84
-43.85
-48.5
-46.29
-41.25
-37.32
-36.85
-40
-45.29
-50.8
-55.4
-59.23
-63.39
-69.09
-76.74
-85.7
-94.61
-102.02
-107.09
-109.67
-110.14
-109.02
-106.65
-103.1
-98.43
-92.89
-87.01
-81.46
-76.81
-73.33
-70.92
-69.18
-67.69
-66.21
-64.79
-63.63
-62.97
-62.93
-63.45
-64.31
-65.25
-66.15
-66.99
-67.97
-69.28
-71.07
-73.31
-75.75
-77.88
-79.02
-78.47
-75.73
-70.7
-63.77
-55.68
-47.28
-39.21
-31.76
-24.78
-17.94
-10.83
-3.15
5.28
14.43
24.11
33.88
43.07
50.87
56.63
60
61.03
60.1
57.72
54.24
49.87
44.64
38.55
31.63
23.93
15.47
6.23
-3.81
-14.52
-25.57
-36.41
-46.5
-55.44
-63.12
-69.63
-75.13
-79.7
-83.33
-85.91
-87.41
-87.85
-87.37
-86.18
-84.43
-82.18
-79.34
-75.75
-71.21
-65.64
-59.11
-51.82
-44.11
-36.26
-28.46
-20.76
-13.16
-5.7
1.43
7.92
13.44
17.84
21.23
23.99
26.64
29.57
32.9
36.36
39.34
41.23
41.58
40.28
37.53
33.76
29.36
24.65
19.79
14.77
9.53
3.94
-2.08
-8.44
-14.87
-20.89
-25.95
-29.77
-32.53
-35.04
-38.57
-44.41
-53.18
-64.33
-76.03
-85.48
-89.81
-86.97
-76.27
-58.55
-35.68
-9.9
16.68
42.25
65.37
84.76
99.5
109.4
115.18
118.57
121.75
126.55
133.58
141.87
149.1
152.51
149.95
140.77
126.11
108.36
90.28
73.94
60.19
48.64
38.26
28.05
17.59
7.09
-2.89
-11.92
-20
-27.49
-34.86
-42.22
-49.12
-54.71
-58.06
-58.69
-56.76
-53.07
-48.73
-44.72
-41.52
-39.03
-36.79
-34.33
-31.42
-28.18
-24.98
-22.23
-20.16
-18.69
-17.46
-16.08
-14.19
-11.63
-8.41
-4.49
0.08
5.25
10.86
16.51
21.67
25.78
28.46
29.62
29.44
28.23
26.3
23.8
20.68
16.89
12.35
7.12
1.42
-4.46
-10.27
-15.87
-21.25
-26.44
-31.41
-36.03
-40.11
-43.53
-46.3
-48.67
-50.98
-53.5
-56.36
-59.49
-62.7
-65.77
-68.5
-70.76
-72.47
-73.55
-73.98
-73.78
-73
-71.74
-70.14
-68.25
-66.13
-63.84
-61.53
-59.43
-57.73
-56.42
-55.2
-53.6
-51.13
-47.63
-43.38
-39.01
-35.24
-32.59
-31.15
-30.61
-30.43
-30.13
-29.42
-28.25
-26.77
-25.21
-23.86
-22.95
-22.58
-22.77
-23.37
-24.13
-24.8
-25.13
-24.95
-24.25
-23.07
-21.52
-19.68
-17.59
-15.13
-12.09
-8.21
-3.35
2.42
8.75
15.16
21.17
26.45
30.91
34.52
37.19
38.76
39
37.82
35.5
32.6
29.78
27.54
25.96
24.72
23.28
21.14
18.09
14.21
9.88
5.59
1.78
-1.29
-3.59
-5.3
-6.83
-8.75
-11.63
-15.94
-21.68
-28.33
-34.83
-39.86
-42.42
-42.19
-39.85
-36.75
-34.42
-33.88
-35.28
-37.95
-40.73
-42.5
-42.54
-40.75
-37.54
-33.76
-30.37
-28.26
-28.05
-29.88
-33.42
-37.87
-42.12
-45.05
-45.73
-43.74
-39.29
-33.19
-26.67
-21.11
-17.64
-16.82
-18.41
-21.44
-24.48
-26.02
-24.96
-20.87
-14.13
-5.85
2.63
10.23
16.49
21.73
26.87
32.98
40.85
50.68
62.04
74.01
85.46
95.39
103.05
108.05
110.31
109.96
107.32
102.82
96.96
90.22
82.98
75.43
67.56
59.28
50.48
41.23
31.83
22.81
14.73
8
2.71
-1.43
-4.95
-8.48
-12.43
-16.89
-21.67
-26.51
-31.31
-36.25
-41.62
-47.58
-53.84
-59.75
-64.63
-68.18
-70.73
-73.03
-75.79
-79.19
-82.69
-85.36
-86.48
-86.09
-84.91
-83.96
-83.9
-84.56
-85.12
-84.54
-82.25
-78.49
-74.22
-70.59
-68.28
-67.2
-66.45
-64.8
-61.21
-55.28
-47.4
-38.55
-29.91
-22.53
-16.88
-12.73
-9.11
-4.57
2.32
12.32
25.14
39.45
53.43
65.51
74.98
82.04
87.46
91.98
96.01
99.66
102.93
105.95
108.79
111.11
111.97
109.95
103.81
93.19
79
63.2
47.92
34.61
23.46
13.46
3.09
-8.9
-22.9
-38.39
-54.32
-69.78
-84.39
-98.37
-112.19
-126.12
-139.95
-153.05
-164.8
-174.99
-184.15
-193.32
-203.68
-215.97
-230.18
-245.52
-260.67
-273.93
-283.49
-287.57
-284.68
-274.01
-255.89
-231.87
-204.56
-176.93
-151.55
-129.99
-112.79
-99.69
-90.1
-83.41
-79
-76.22
-74.31
-72.46
-70.02
-66.74
-62.69
-58.22
-53.75
-49.58
-45.9
-42.82
-40.45
-39.06
-39.11
-41.13
-45.62
-52.81
-62.59
-74.44
-87.54
-100.88
-113.55
-124.81
-134.21
-141.55
-146.85
-150.29
-152.05
-152.35
-151.44
-149.5
-146.74
-143.25
-139.09
-134.16
-128.23
-121.01
-112.2
-101.56
-89.04
-74.73
-58.9
-41.92
-24.27
-6.44
11.09
27.88
43.48
57.41
69.13
78.06
83.65
85.42
83.05
76.5
66.09
52.53
36.85
20.4
4.57
-9.16
-19.51
-25.42
-26.19
-21.58
-11.82
2.37
19.91
39.46
59.77
79.81
98.94
116.99
134.07
150.55
166.76
182.92
199.07
215.1
230.85
246.17
260.93
275.05
288.59
301.9
315.5
329.81
344.75
359.44
372.16
380.91
383.98
380.7
371.58
357.97
341.49
323.46
304.77
286.01
267.83
251.04
236.46
224.59
215.45
208.58
203.33
199.11
195.56
192.58
190.19
188.39
187.11
186.12
185.1
183.66
181.49
178.47
174.74
170.68
166.75
163.46
161.26
160.74
162.65
167.72
176.32
188.08
201.7
215.25
226.84
235.41
241.03
244.65
247.24
249.14
249.61
247.13
240.16
227.82
210.31
188.75
164.84
140.37
117.08
96.57
80.23
69.07
63.41
62.67
65.27
68.89
70.89
68.81
60.85
46.2
25.31
-0.22
-27.94
-55.07
-79.05
-98.02
-110.94
-117.63
-118.54
-114.44
-106.22
-94.79
-81.12
-66.37
-52.03
-39.76
-30.99
-26.35
-25.3
-26.16
-26.65
-24.73
-19.44
-11.13
-1.25
8.4
16.28
21.51
23.81
23.18
19.62
13.03
3.26
-9.7
-25.64
-43.88
-63.52
-83.65
-103.68
-123.68
-144.37
-166.76
-191.49
-218.19
-245.21
-269.88
-289.09
-300.18
-301.71
-293.8
-278.17
-257.68
-235.64
-215
-197.62
-183.9
-172.77
-162.25
-150.32
-135.8
-118.94
-101.57
-86.71
-77.58
-76.36
-82.96
-94.45
-105.53
-110.26
-104.43
-87.45
-62.91
-37.31
-17.51
-8.14
-10.02
-20.45
-34.92
-49.37
-61.77
-72.65
-84.29
-99.22
-118.66
-141.45
-164.04
-181.51
-189.19
-184.03
-165.25
-134.11
-93.49
-47.59
-1.74
37.84
64.88
74.74
66.07
41.79
8.4
-25.95
-53.95
-70.77
-74.56
-65.84
-46.83
-21.03
7.1
32.66
51.36
60.67
60.78
54.36
45.53
37.93
33.22
30.74
28.32
23.64
15.09
3.03
-10.81
-23.39
-32.29
-36.52
-36.37
-32.95
-27.4
-21.19
-14.81
-8.84
-2.61
4.34
12.75
23.91
39.47
60.9
87.75
119.37
153.92
190.95
229.82
269.86
310.12
348.78
383.29
409.51
425.5
416.51
373.29
293.13
181.99
52.83
-79.48
-194.48
-289.08
-364.95
-424.6
-467.95
-494.55
-505.57
-502.63
-488.78
-467.85
-444.74
-421.72
-399.59
-376.75
-351.55
-323.07
-291.33
-257.64
-223.87
-192.83
-165.46
-141.83
-120.73
-100.97
-81.8
-62.87
-44.42
-26.93
-11.55
1.54
12.3
21.17
28.46
34.48
39.72
44.76
50.25
56.43
63.63
71.77
80.59
89.64
98.63
107.74
117.42
128.37
141.28
156.94
175.89
197.96
221.7
244.17
261.37
269.28
265.39
249.91
225.93
198.35
172.14
150.72
135.15
124.62
117.5
112.39
108.54
105.58
102.97
99.72
94.61
86.76
76.1
63.58
50.82
39.47
30.51
23.97
19.02
14.4
9.05
2.51
-4.95
-12.53
-19.36
-24.88
-29.18
-32.94
-37.11
-42.46
-49.18
-56.69
-63.82
-69.2
-71.7
-70.72
-66.33
-59.05
-49.71
-39.2
-28.33
-17.81
-8.25
-0.12
6.18
10.44
12.65
13.06
12.23
10.92
9.87
9.58
10.1
11.04
11.8
11.96
11.45
10.66
10.18
10.45
11.55
13.11
14.52
15.08
14.17
11.4
6.75
0.59
-6.25
-12.64
-17.49
-20.08
-20.33
-18.75
-16.14
-13.27
-10.57
-8.13
-5.91
-3.89
-2.16
-0.85
0.04
0.76
1.72
3.37
5.96
9.49
13.74
18.36
22.97
27.22
30.8
33.33
34.38
33.62
30.92
26.55
21.17
15.68
11.02
7.94
6.83
7.71
10.13
13.29
16.12
17.45
16.42
12.63
6.37
-1.65
-10.53
-19.51
-28.14
-36.05
-42.86
-48.04
-51.02
-51.43
-49.43
-45.61
-40.9
-36.18
-32.06
-28.79
-26.4
-24.76
-23.78
-23.36
-23.44
-23.93
-24.71
-25.56
-26.16
-25.98
-24.35
-20.64
-14.42
-5.74
4.85
16.34
27.67
37.95
46.8
54.32
60.96
67.18
73.11
78.48
82.71
85.21
85.68
84.27
81.55
78.13
74.48
70.75
66.7
61.93
56.1
49.12
41.21
32.81
24.34
16.06
8.11
0.4
-7.12
-14.42
-21.24
-27.19
-31.82
-34.73
-35.7
-34.46
-30.9
-25.06
-17.23
-7.88
2.32
12.67
22.61
31.77
40.55
49.31
58.17
66.9
74.95
81.8
87.24
91.55
95.34
100.43
108.13
118.87
132.07
146.47
160.68
173.68
185.18
195.42
206.81
221.59
241.27
266.2
295.34
326.47
356.74
383.46
404.83
422.98
441.28
463.03
489.8
520.15
549.98
574.16
588.91
577.64
531.1
446.43
328.01
186.56
35.99
-110.37
-242.38
-353.94
-442.71
-506.93
-547.3
-566.58
-568.96
-559.32
-542.48
-522.46
-502.02
-482.82
-463.76
-443.4
-420.69
-395.4
-368.36
-341.18
-315.65
-293.16
-274.45
-258.34
-243.23
-227.63
-210.74
-192.64
-174.25
-156.82
-141.42
-128.73
-118.48
-110.2
-103.34
-97.05
-90
-80.44
-66.76
-48.44
-26.85
-4.86
13.99
27.05
33.66
35.18
33.95
31.93
29.86
27.44
24.2
20.29
16.69
14.54
14.34
15.63
17.32
18.4
18.33
17.36
15.85
14.11
12.26
10.24
8.18
6.54
5.84
6.33
7.83
9.6
10.75
10.59
8.68
4.96
-0.42
-7.12
-14.58
-21.94
-28.19
-32.17
-32.58
-29.12
-21.98
-12.08
-0.96
9.55
18.09
23.54
25.29
23.4
18.36
11.14
2.98
-5.02
-11.81
-16.52
-18.53
-17.7
-14.15
-8.41
-1.18
6.82
14.68
21.64
27.19
30.97
32.74
32.48
30.13
25.74
19.44
10.95
0.36
-11.95
-25.21
-38.46
-50.54
-60.42
-67.24
-70.31
-70.21
-67.31
-61.93
-54.18
-44.26
-32.27
-18.57
-3.77
11.51
25.14
35.68
42.36
45.14
44.45
40.82
34.76
26.68
17.21
5.01
-10.47
-29.06
-49.75
-71.08
-91.83
-111.48
-130.67
-137.78
-127.87
-100.82
-61.74
-17.73
25.27
63.81
96.54
123.48
145.55
161.87
173.12
179.4
180.71
177.15
168.7
155.32
136.64
112.47
81.15
43.54
3.39
-35.02
-68.5
-95.46
-115.22
-128.41
-135.85
-139.17
-139.51
-137.82
-135.09
-132.13
-129.76
-128.2
-128.16
-129.85
-133.28
-137.75
-142.53
-146.96
-150.51
-155.74
-160.56
-164.22
-166.65
-168.3
-169.61
-170.24
-169.29
-164.6
-153.71
-134.48
-107.58
-75.91
-43.86
-15.95
5.13
17.22
20.86
18.03
11.81
4.71
-0.97
-3.2
-0.16
8.35
19.51
32.11
45.39
59.8
75.73
93.64
113.61
135.01
158.92
180.58
198.4
211.92
222.78
232.61
243.29
256.94
275.94
304.84
338.37
372.07
399.73
416.75
419.26
407.03
384.33
339.3
307.06
285.86
273.92
267.46
264.91
262.75
256.96
243.11
217.46
179.84
122.54
44.45
-50.31
-150.06
-244.33
-324.83
-386.57
-426.97
-430.17
-391.58
-317.26
-241.35
-174.65
-118.93
-69.47
-27.38
4.41
23.81
24.16
2.99
-37.42
-87.73
-140.28
-189.89
-234.5
-273.64
-307.91
-342.41
-381.65
-428.03
-478.54
-529.4
-574.96
-608.04
-620.71
-607.11
-567.91
-509.29
-440.97
-371.68
-309.43
-258.81
-220.44
-191.6
-168.61
-149.07
-132.12
-117.51
-103.96
-90.36
-75.62
-58.95
-40.02
-19.32
2.24
23.98
46.02
69.58
95.73
124.69
155.66
187.2
217.95
247.43
276.24
305.92
338.11
373.86
412.98
454.11
495.2
534.29
570.26
603.32
635.01
667.33
701.26
735.03
763.27
777.66
769.33
732.23
665.8
575.78
472.9
369.97
278.73
207.42
159.4
133.14
123.06
121.27
119.82
112.76
97.7
75.9
51.16
27.93
9.53
-2.42
-7.97
-8.2
-4.78
0.13
4.01
4.33
-0.77
-11.85
-27.99
-47.24
-67.35
-86.65
-104.49
-121.48
-139.05
-158.81
-181.65
-206.79
-231.72
-252.7
-266.03
-269.56
-263.59
-250.76
-234.86
-219.15
-205.21
-192.7
-180.07
-165.76
-149.15
-130.6
-111.07
-91.38
-71.89
-52.67
-33.98
-16.68
-2.35
6.97
9.66
5.12
-5.61
-20.05
-34.84
-46.83
-53.96
-55.73
-53.11
-47.91
-42.02
-36.75
-32.62
-29.47
-26.78
-23.89
-20.14
-14.97
-7.91
1.2
12.01
23.63
34.68
43.61
49.16
50.59
47.73
40.95
30.9
18.35
4.16
-10.72
-25.3
-38.67
-50.36
-60.68
-70.91
-83.19
-99.95
-123.13
-153.39
-189.69
-229.61
-269.97
-307.98
-342.06
-372.19
-399.77
-427.1
-456.82
-491.16
-530.85
-574.13
-616.31
-650.44
-669.33
-668.07
-645.98
-606.9
-557.61
-505.15
-454.63
-408.31
-366.3
-327.99
-293.14
-262.07
-235.02
-211.43
-189.91
-168.72
-146.73
-123.87
-101.14
-80.11
-62.07
-47.4
-35.5
-25.08
-14.77
-3.79
7.84
19.34
29.63
37.94
44.17
48.98
53.46
58.68
65.19
72.89
81.05
88.8
95.51
101.16
106.31
111.84
118.54
126.73
136.11
145.94
155.41
164.06
172.09
180.25
189.54
200.69
213.82
228.3
243.17
257.55
271.07
284.14
297.65
312.65
330
350.32
373.76
399.83
427.02
452.51
472.54
483.31
482.25
468.96
445.28
414.42
379.59
343.16
306.38
270.04
235.14
203
174.81
150.75
129.76
109.68
88.53
65.76
43.04
24.21
14.63
19.77
43.4
85.8
142.41
203.85
257.85
292.63
300.71
281.38
240.64
188.58
135.57
88.85
51.18
21.7
-2.31
-23.81
-45.41
-69.43
-97.61
-130.29
-165.33
-197.77
-221.15
-229.89
-221.52
-197.91
-164.47
-127.91
-93.82
-65.24
-42.57
-24.65
-10.07
2.18
12.42
20.66
26.88
31.12
33.43
33.86
32.42
29.14
24.34
18.71
13.25
9.13
7.23
7.69
9.77
11.96
12.58
10.63
6.21
0.55
-4.53
-7.5
-7.79
-5.95
-3.26
-1.06
-0.17
-0.79
-2.81
-6.09
-10.64
-16.41
-22.93
-29.3
-34.44
-37.56
-38.75
-39.08
-40.33
-44.37
-52.33
-64.23
-78.95
-94.58
-109.12
-121.15
-130.38
-137.85
-145.8
-156.98
-173.62
-196.28
-222.92
-248.77
-267.35
-272.43
-260.09
-230.42
-187.16
-136.29
-83.37
-31.36
20.15
74.05
133.24
198.1
264.85
325.9
371.7
393.57
386.49
351.05
294
227.18
164.53
118.16
94.65
93.17
106.31
123.58
135.56
137.2
128.33
111.87
91.02
67.38
40.92
11.64
-18.74
-46.62
-67.78
-79.64
-82.64
-80.06
-76.55
-75.87
-79.42
-86.04
-93
-97.52
-98.07
-94.9
-89.59
-84.05
-79.49
-75.79
-71.74
-65.77
-56.84
-45.08
-31.86
-19.24
-9.19
-2.95
-0.71
-1.73
-4.79
-8.57
-12.05
-14.68
-16.52
-18.09
-20.32
-24.13
-30.19
-38.6
-48.89
-60.23
-71.68
-82.52
-92.22
-100.42
-106.77
-110.87
-112.34
-110.98
-106.95
-100.68
-92.91
-84.59
-76.76
-70.33
-65.79
-62.86
-60.38
-56.51
-49.3
-37.48
-20.97
-0.97
20.51
41.34
59.93
75.49
87.85
97.13
103.43
106.79
107.38
105.84
103.35
101.49
101.78
105.16
111.53
119.8
128.21
135.06
139.41
141.43
142.35
143.82
147.2
152.76
159.51
165.35
167.82
164.92
155.73
140.84
122.22
102.85
86.08
74.94
71.3
75.33
85.04
96.39
104.13
103.12
89.83
63.54
26.56
-16.89
-62.45
-107.16
-149.75
-189.55
-224.93
-252.71
-269.09
-271.88
-262.45
-245.92
-229.28
-218.33
-215.22
-218.01
-222.4
-224.36
-222.26
-217.07
-211.2
-206.76
-204.42
-203.6
-203.37
-203.68
-205.86
-212.48
-225.83
-246.17
-270.87
-294.53
-310.95
-315.46
-306.81
-287.56
-262.8
-237.89
-216.49
-199.64
-186.31
-174.51
-162.38
-148.62
-132.43
-113.18
-90.25
-63.31
-32.64
0.5
33.76
63.98
87.95
102.9
107.15
100.35
83.38
58.07
26.96
-7.01
-40.73
-70.97
-94.87
-110
-115.03
-109.97
-96.38
-77.02
-55.34
-34.66
-17.52
-5.38
1.34
2.95
-0.01
-6.88
-16.94
-29.04
-41.4
-51.58
-56.92
-55.16
-45.24
-27.86
-5.15
19.91
44.69
67.95
90.22
113.66
141.25
175.83
218.99
270.48
327.63
385.61
438.55
481.17
510.74
528.34
538.95
549.35
564.99
586.63
609.02
622.71
617.83
588.42
534.95
464.17
386.83
314.46
256.59
218.86
202.24
203.15
214.47
227.6
234.9
231.91
218.51
198.16
175.92
156.46
142.41
134.57
132.62
135.87
143.37
153.32
162.84
168.41
167.18
157.73
140.55
117.82
92.45
66.95
42.63
19.32
-4.24
-29.05
-55.73
-84.61
-116.01
-150.28
-187.42
-226.49
-265.09
-299.39
-323.33
-332.1
-324.26
-302.57
-272.49
-239.96
-209.52
-183.64
-162.86
-143.39
-121.97
-97.88
-73.08
-50.13
-30.15
-12.51
4.04
20.36
41.31
69.3
102.68
136.26
164.86
186.04
199.94
207.62
209.88
214.02
226.33
249.78
283.36
324.35
370.34
418.86
466.69
467.71
394.93
252.56
75.19
-97.45
-241.84
-352.67
-434.92
-496.18
-542.92
-572.83
-583.65
-577.1
-560.02
-540.76
-525.21
-515.68
-512.13
-512.13
-507.83
-493.23
-467.08
-433.43
-398.46
-367.1
-342.01
-323.4
-310.4
-298.64
-284.6
-267.23
-248.19
-229.84
-212.97
-200.34
-191.87
-186.5
-181.46
-174.52
-164.88
-153.37
-141.52
-130.51
-120.91
-112.27
-104.08
-95.42
-85.71
-74.96
-63.76
-52.89
-42.96
-34.36
-26.81
-20.07
-13.99
-8.51
-3.66
0.46
3.67
5.77
6.51
5.89
3.86
0.35
-4.68
-11.09
-18.51
-26.31
-33.6
-39.36
-42.46
-42.03
-37.71
-29.4
-17.54
-3.02
13.06
29.75
46.43
62.93
79.28
95.52
111.83
128.23
144.64
160.97
177.3
193.88
210.9
228.27
245.32
261.51
276
287.81
296.2
301.04
302.95
303.3
303.84
306.32
313.72
327.59
346.85
367.69
384.75
393.33
391.19
379.07
360.15
342.05
330.99
329.15
334.34
342.07
348.69
353.1
356.46
360.93
373.72
399.64
438.6
485.48
533.04
575.44
609.96
636.04
654.11
671.43
693.48
720.9
749.01
770.77
780.78
777.15
760.44
687.03
535.65
313.53
56.41
-190.41
-394.35
-543.71
-642.3
-701.97
-732.31
-739.58
-726.21
-695.39
-653.72
-609.62
-569.83
-537.63
-515.74
-503.76
-495.51
-484.5
-467.7
-446.96
-427.15
-412.8
-406.21
-410.04
-425.16
-447.89
-472.71
-495.26
-514.09
-529.99
-543.97
-539.42
-503.96
-434.02
-337.08
-226.67
-115.54
-12.23
78.78
155.93
219.49
266.99
299.62
319.04
328.24
330.65
328.81
323.82
315.6
303.38
283.76
255.49
218.35
174.49
127.49
80.89
37.21
-2.37
-37.77
-70.92
-103.58
-137.12
-171.24
-204.32
-234.34
-259.84
-280.46
-297.08
-312.21
-328.35
-347.21
-368.3
-388.88
-404.76
-411.38
-404.84
-382.47
-343.79
-290.96
-229.15
-165.68
-108.6
-64.7
-37.7
-27.31
-29.4
-38.06
-48.03
-56.43
-62.68
-67.38
-71.1
-73.88
-75.43
-75.03
-72.51
-68.75
-65.39
-63.72
-63.8
-64.23
-62.74
-57.08
-44.86
-24.38
4.65
41.11
83
128.03
173.79
218.51
255.34
276.91
279.99
266.94
242.93
213.07
181.04
149.07
118.22
88.93
61.97
38.19
18.09
1.54
-11.89
-22.69
-31.34
-38.68
-44.8
-48.93
-49.89
-46.62
-38.77
-26.8
-12.15
3.19
17.02
27.79
35
39.21
41.7
44.23
49.04
58.61
75.47
98.5
126.11
155.03
180.66
198.64
206.8
206.54
202.1
199.06
201.76
211.99
228.18
246.62
263.33
275.69
282.81
284.14
279.66
269.65
255.28
238.13
219.83
201.68
184.48
168.28
150.63
129.25
103.13
73.48
42.95
14.21
-10.99
-32.05
-49.36
-66.85
-87.88
-114.04
-144.17
-175.7
-206.71
-236.83
-266.8
-297.55
-333.18
-375.88
-425.2
-477.28
-526.86
-569.81
-604.19
-629.63
-622.41
-567.29
-463.19
-327.04
-183.3
-51.32
59.62
148.13
217.05
270.58
307.43
329.53
338.66
338.23
332.61
325.36
318.34
312.08
306.32
297.29
283.68
265.08
243.57
222.53
204.85
192
184.08
180.44
178.19
174.96
168.98
160.25
149.84
138.74
127.31
115.36
102.54
87.83
70.98
52.25
33.01
15.02
-0.35
-12.65
-22.31
-30.25
-37.79
-45.83
-54.86
-64.73
-74.98
-85.29
-95.74
-106.78
-119.01
-133.14
-149.74
-169.21
-191.27
-214.58
-236.58
-253.94
-263.5
-263.48
-254.27
-238.47
-219.96
-202.47
-188.34
-178.12
-170.95
-165.56
-161.06
-157.26
-154.43
-152.74
-151.96
-151.37
-150.16
-147.81
-144.24
-139.85
-135.06
-130.04
-124.54
-118.05
-110.01
-100.21
-88.77
-76.07
-62.51
-48.33
-33.7
-18.87
-4.22
9.78
22.94
35.56
48.48
62.65
78.59
95.86
113.03
128.1
139.21
145.38
146.77
144.7
141.16
138.52
138.99
144.11
154.2
167.89
182.16
193.03
196.86
191.58
177.44
156.63
132.23
106.82
81.9
58
35.48
15.26
-1.19
-12.39
-17.83
-18.35
-16.02
-13.21
-11.72
-12.26
-14.45
-17.33
-19.89
-21.38
-21.4
-19.78
-16.44
-11.29
-4.31
4.47
14.79
26.29
38.4
50.41
61.57
71.09
78.41
83.23
85.88
87.18
88.27
90.01
92.36
94.04
92.83
86.48
73.74
55.21
33.25
11.14
-8.24
-23.57
-35.39
-45.59
-56.19
-68.26
-81.39
-93.96
-103.91
-109.7
-110.85
-108
-102.46
-95.53
-88.15
-80.78
-73.64
-66.98
-61.2
-56.73
-53.89
-52.52
-52.09
-51.82
-50.86
-48.58
-44.7
-39.31
-32.88
-26.09
-19.62
-13.96
-9.3
-5.48
-2.11
1.18
4.55
7.88
10.79
12.9
13.99
14.11
13.55
12.71
11.86
11.08
10.26
9.24
7.84
5.91
3.19
-0.77
-6.45
-14.19
-23.82
-34.55
-45.09
-54.01
-60.23
-63.37
-63.78
-62.27
-59.86
-57.37
-55.39
-54.23
-53.9
-54.15
-54.39
-53.87
-51.87
-48.08
-42.94
-37.67
-34.07
-33.87
-38.03
-46.27
-57.02
-67.9
-76.46
-80.94
-80.65
-76.04
-68.29
-58.89
-49.16
-40.03
-31.9
-24.77
-18.34
-12.28
-6.37
-0.62
4.73
9.32
12.89
15.37
17.02
18.39
20.26
23.33
28.17
34.89
43.27
52.75
62.58
72.05
80.61
87.88
93.62
97.7
100.12
101.2
101.57
102.09
103.45
105.74
108.11
108.88
106.16
98.57
86.03
69.89
52.49
36.3
22.98
12.94
5.39
-0.91
-7.09
-13.75
-20.95
-28.55
-36.14
-42.51
-44.84
-38.8
-19.92
13.76
59.31
108.41
149.54
172.04
170.03
144.12
100.23
46.79
-8.11
-58.07
-98.12
-124.23
-133.6
-125.86
-104.16
-74.98
-46.31
-24.94
-14.53
-15
-23.57
-36.42
-50.2
-62.66
-72.63
-79.69
-84.02
-86.48
-88.24
-90.81
-95.89
-105.19
-120.04
-140.89
-167.18
-197.32
-229.49
-261.4
-290.71
-315.4
-334.18
-346.7
-353.44
-355.53
-354.23
-351.1
-345.99
-337.1
-322.16
-300.11
-272.09
-241.06
-210.8
-184.4
-164.54
-150.99
-141.34
-132.53
-122.43
-110.15
-95.21
-77.15
-55.27
-30.66
-3.51
26.61
60.01
95.81
132.09
166.78
197.97
235.11
277.25
316.21
342.13
350.19
341.31
319.35
288.96
254.08
217.71
180.22
142.67
106.82
74.98
48.41
26.12
8.1
-5.81
-15.79
-23.38
-29.15
-32.86
-33.41
-30.46
-24.59
-16.65
-7.71
1.42
9.67
17.43
22.03
22.89
19.83
12.8
2.18
-11.46
-27.23
-44.45
-62.15
-79.39
-94.64
-106.94
-115.94
-121.61
-124.3
-124.46
-122.74
-119.69
-115.77
-110.87
-104.98
-98.24
-90.82
-82.95
-74.89
-66.9
-59.23
-52.14
-45.51
-39.26
-33.26
-27.35
-21.4
-15.34
-9.17
-3.02
2.88
8.42
13.44
17.85
21.65
25
28.08
31.12
34.28
37.63
41.18
44.89
48.71
52.65
56.78
61.12
65.59
69.89
73.49
75.81
76.34
74.96
71.98
68.13
64.37
61.52
60.03
59.85
60.55
61.64
62.99
64.95
68.41
74.45
83.88
96.86
112.81
130.67
149.25
167.79
186.12
204.68
224.59
247.18
273.78
304.91
340.01
376.58
410.12
434.79
445.28
439.04
417.25
384.53
347.05
310.68
279.29
254.23
234.89
219.91
208.47
199.91
193.53
187.69
181.11
172.96
163.33
152.76
142.08
133.24
127.48
125.01
123.64
122.04
119.5
116.09
111.74
106.35
102.24
101.24
104.02
107.18
109.22
109.77
109.59
108.6
106.3
105.9
109.89
119.09
128.06
134.5
137.78
138.83
137.06
131.12
124.71
121.15
122.08
121.14
116.02
106.62
95.59
85.22
47.61
-29.94
-143.41
-237.74
-295.24
-313.32
-307.8
-285.47
-250.32
-205.61
-151.28
-91.82
-36.92
-4.51
-4.06
-35.64
-90.04
-156.14
-224.74
-287.24
-340.05
-383.1
-421.46
-454.21
-477.02
-484.64
-476.48
-456.59
-429.08
-397.75
-364.5
-331.68
-297.45
-259.16
-215.09
-166.88
-118.36
-72.52
-31.45
3.73
31.21
50.62
62.08
66.4
64.71
58.9
52.17
47.87
48.48
54.54
65.16
78.27
91.58
103.16
111.97
117.92
121.54
123.58
125.03
126.38
127.56
128.2
127.98
126.66
124.11
120.25
115.19
109.8
104.76
100.32
96.44
93.14
90.72
89.62
90.2
92.41
96.33
100.83
103.58
101.66
92.55
74.74
47.91
12.94
-32.32
-83.89
-132.96
-169.44
-187.17
-186.08
-170.76
-147.22
-120.58
-94.2
-69.01
-45.47
-24.34
-6.64
7.14
17.23
24.57
30.74
37.16
45.33
55.66
67.49
79.66
91.3
102.01
112.09
122.12
132.46
143.33
154.1
163.21
168.58
170.23
168.04
162.45
154.3
144.35
133.45
122.1
110.4
98.26
85.58
72.29
58.61
44.96
31.55
18.55
5.88
-6.71
-19.52
-32.77
-46.6
-60.85
-75.21
-89.77
-104.59
-119.68
-134.94
-150.27
-165.69
-181.49
-198.08
-215.69
-235.12
-255.75
-275.41
-291
-299.78
-300.5
-293.72
-281.38
-265.89
-251.43
-240.44
-233.45
-230.18
-230.93
-237.08
-250.32
-271.51
-300.07
-337.46
-382.76
-432.68
-482.51
-527.61
-564.19
-588.94
-598.96
-591.95
-571.14
-539.13
-497.09
-445.52
-385.81
-321.17
-255.75
-193.51
-110.98
-4.11
114.38
222.85
304.8
355.36
377.91
379.06
365.27
342.08
309.29
268.08
222.25
176.55
136.16
104.54
83.37
72.93
73.2
80.09
90.63
103.78
119.86
139.18
161.05
184.53
204.12
216.03
215.81
201.78
175.4
140.57
102.04
63.97
29.6
1.01
-20.03
-33.69
-40.46
-40.65
-34.55
-22.73
-6.33
13.26
34.79
58.17
83.49
111.13
141.44
173.45
204.48
230.81
249.17
258.25
259.58
256.6
253.25
253.38
258.7
268.62
280.98
293.06
302.38
306.97
305.26
296.41
282.33
265.83
250.11
237.94
231.14
230.22
234.06
240.07
244.89
247.16
245.54
238.39
223.92
200.61
167.91
126.46
78.23
15.17
-61.24
-141.68
-212.81
-264.46
-294.41
-306.84
-308.04
-303
-294.26
-280.57
-261.16
-237.23
-211.86
-188.82
-170.52
-157.17
-147.13
-137.87
-125.97
-109.55
-89.98
-70.84
-56.32
-49.4
-51.33
-61.9
-79.84
-101.85
-123.66
-140.3
-145.36
-134.86
-109.5
-74.91
-39.81
-12.45
2.96
6.79
2.71
-4.87
-13.33
-22.17
-31.97
-43.07
-54.66
-64.96
-72.54
-76.98
-78.96
-80.05
-81.2
-81.98
-81.07
-76.9
-68.32
-55.63
-40.04
-23.38
-7.6
6.03
17.48
27.27
35.94
43.92
50.28
54.37
55.81
54.86
52.6
50.99
51.57
54.9
60.92
67.54
73.42
78.04
82.25
85.04
87.9
93.21
103.29
119.69
139.78
158.63
168.88
163.1
136.95
91.91
34.92
-27.53
-79.03
-114.39
-132.25
-135.78
-131
-124.82
-122.51
-126.85
-137.11
-148.54
-155.79
-153.01
-137.2
-109.45
-74.17
-37.01
-3.15
23.78
41.93
49.12
44.59
29.13
6.02
-19.19
-40.17
-52.4
-54.83
-49.49
-40.52
-30.52
-19.6
-5.83
12.58
35.07
57.67
74.02
77.94
65.35
36.35
-5.32
-53.91
-103.59
-149.7
-189.08
-219.62
-239.57
-247.57
-242.64
-224.68
-194.7
-154.91
-108.44
-59.12
-11
32.18
67.68
94.29
112.63
124.75
133.24
140.18
146.35
151.21
153.58
152.42
147.47
139.48
129.97
120.68
112.92
107.25
103.49
101.25
99.96
99.06
98.31
97.86
98
98.98
100.74
103.05
106.4
111.08
117.07
124.24
132.93
144.37
160.52
183.08
212.36
247.12
282.85
312.54
328.97
327.48
307.54
272.86
230.11
187.1
152.06
129.63
119.34
115.9
111.46
98.54
72.51
32.83
-24.24
-93.01
-161.4
-216.62
-251.35
-265.42
-262.53
-246.72
-221.52
-190.06
-154.35
-117.3
-82.4
-52.38
-28.13
-8.5
8.72
25.22
41.63
58.36
74.43
87.84
96.72
100.33
99.5
96.18
91.91
87.97
85.64
85.02
85.03
83.86
79.41
69.63
57.12
43.3
29.47
17.06
6.87
-1.07
-7.35
-12.85
-18.43
-24.72
-32.66
-42.47
-53.13
-62.46
-67.35
-64.52
-51.81
-29.32
0.11
30.91
56.92
73.35
78.09
72.02
58.22
40.48
22.16
5.61
-8.19
-18.86
-26.34
-30.9
-33.15
-34.01
-34.58
-35.78
-38.11
-41.75
-46.56
-52.26
-58.58
-65.27
-72.04
-78.6
-84.63
-89.83
-94.02
-97.06
-98.79
-99.15
-98.28
-96.53
-94.57
-93.07
-92.56
-93.11
-94.46
-96.06
-97.47
-98.56
-99.55
-100.88
-102.96
-106
-109.84
-114.04
-117.78
-120.1
-119.98
-116.64
-109.71
-99.33
-86.15
-71.05
-54.99
-38.87
-23.56
-10.05
0.65
7.6
10.28
8.75
3.73
-3.66
-12.26
-21.33
-30.28
-38.5
-45.39
-50.42
-53.37
-54.4
-53.95
-52.56
-50.95
-49.52
-48.26
-46.84
-44.92
-42.38
-39.34
-36.07
-32.78
-30.18
-28.59
-27.8
-27.27
-26.65
-26.06
-26.06
-27.27
-30.1
-36.41
-47.06
-61.38
-77.46
-93.26
-107.54
-119.92
-130.59
-139.93
-151.84
-168.7
-189.96
-212.57
-233.17
-249.98
-262.94
-272.94
-281.09
-293.7
-314.07
-340.22
-365.84
-384.32
-392.46
-391.13
-384.01
-375.53
-376.43
-392.44
-421.55
-455.46
-484.94
-504.05
-510.55
-504.37
-440.9
-303.12
-108.37
99.4
278.33
408.05
488.38
529.53
544.08
542.62
525.06
491.33
445.26
394.76
347.87
309.16
279.47
257.39
240.87
221.67
195.6
163.73
131.22
103.58
83.67
71.46
65.27
62.97
59.16
50.38
36.87
21.5
7.59
-2.88
-9.43
-12.24
-11.35
-7.88
-5.05
-3.32
-1.64
1.43
6.72
14.49
24.62
36.96
50.72
65.38
81.3
98.79
117.8
137.47
156.28
172.52
184.98
193.26
198.01
200.96
203.82
207.85
213.69
221.3
230.15
239.37
247.77
253.67
255.19
250.29
237.24
215.52
185.98
150.77
112.7
74.46
37.98
4.32
-26.3
-54.07
-79.06
-101.18
-120.19
-135.76
-147.46
-154.79
-157.33
-154.83
-147.58
-136.09
-121.73
-106.33
-91.4
-77.11
-61.89
-43.3
-18.84
12.19
49.49
90.82
133.06
173.34
209.81
241.54
267.11
284.95
292.64
290.06
278.44
260.64
240.46
221.77
207.59
198.35
193.32
189.61
186.09
181.82
176.64
171.43
168.07
169.24
175.98
188.73
186.6
153.48
83.45
-14.43
-121.33
-218.95
-288.85
-331.55
-349.12
-343.3
-313.41
-261.05
-194.29
-126.7
-74.18
-48.86
-55.31
-86.8
-130.5
-171.14
-198.47
-209.86
-208.96
-201.68
-191.9
-180.8
-165.94
-145.35
-118.07
-85.89
-52.45
-21.43
4.5
24.5
38.53
47.9
53.39
55.67
54.63
50.04
42.46
32.92
22.77
13.1
5.3
0.51
0.03
4.86
15.75
33.49
57.4
85.1
112.95
137.51
156.31
168.43
173.9
173.57
169.44
162.94
154.47
143.65
129.8
112.16
90.22
63.41
27.96
-13.19
-51.62
-77.82
-86.72
-79.34
-62.56
-41.75
-20.83
-2.47
12.25
22.33
26.73
24.82
17.53
7.37
-2.22
-8.56
-10.22
-6.34
2.79
16.09
32.12
49.49
66.8
82.69
95.63
104.55
109.73
112.13
112.87
112.66
111.97
111.08
110.54
110.95
113.09
117.89
125.86
136.97
150.86
167.13
185.27
204.38
222.71
237.81
247.22
249.16
243.25
230.66
213.71
194.84
175.8
157.11
138.22
118.22
96.48
73.01
48.54
24.23
1.29
-19.24
-36.68
-50.74
-61.48
-69.19
-74.23
-76.96
-77.69
-76.73
-74.59
-72.04
-70.16
-70.12
-72.8
-78.55
-86.96
-97.06
-107.37
-116.32
-122.58
-125.49
-125.4
-123.55
-121.75
-121.67
-124.14
-129.03
-135.4
-142.27
-149.22
-156.76
-165.96
-178.09
-194.07
-213.89
-235.97
-256.69
-270.71
-272.11
-256.64
-223.91
-178.57
-129.25
-85.7
-55.36
-40.9
-40.2
-48.1
-59.4
-70.8
-81.36
-91.29
-100.47
-107.58
-110.59
-108.08
-100.32
-89.57
-79.35
-72.73
-71
-73.19
-76.83
-79.32
-79.26
-76.89
-73.7
-71.37
-70.83
-71.96
-73.95
-76.04
-78.08
-80.76
-85.3
-92.84
-103.91
-118.08
-134.06
-149.87
-163.23
-171.89
-173.99
-168.35
-154.89
-134.85
-110.66
-85.67
-63.34
-46.62
-37.35
-36
-41.77
-52.91
-67.23
-82.6
-97.44
-110.83
-122.63
-133.05
-142.39
-150.74
-157.98
-163.89
-168.37
-171.46
-173.28
-173.89
-173.32
-171.66
-169.39
-167.47
-167.14
-169.66
-175.91
-186.08
-199.59
-215.01
-230.14
-242.12
-247.9
-244.9
-231.8
-209.29
-180.01
-147.98
-117.2
-90.56
-69.03
-51.79
-37.01
-22.91
-8.55
6.23
21.17
36.21
51.81
68.82
88.25
110.95
137.39
167.73
201.64
237.83
273.66
305.06
327.22
336.34
331.19
313.63
288.07
259.67
232.35
207.64
184.68
161.12
135.26
107.07
77.99
50.24
25.91
6.52
-7.03
-14.33
-15.87
-11.79
-2.33
11.17
25.93
38.39
45.6
46.46
42.15
34.73
27.64
23.8
23.58
24.3
21.73
12.25
-5.49
-30.01
-58.51
-85.1
-102.38
-103.98
-86.56
-50.38
1.02
61.74
130.83
196.75
244.82
266.33
262.79
241.67
210.79
175.53
139.22
103.79
69.28
36.77
7.93
-16.19
-36.16
-53.45
-69.45
-85.34
-100.29
-113.82
-124.37
-130.04
-129.69
-124.11
-115.52
-106.56
-98.94
-93.47
-90.72
-89.84
-89.02
-85.93
-79.4
-69.07
-58.23
-48.7
-41.1
-35.41
-30.44
-24.26
-13.66
3.25
26.54
55.15
88.5
126.51
169.26
216.88
269.07
327.11
390.7
457.81
525.4
590.28
648.7
695.82
726.15
734.77
721.9
689.45
639.86
575.44
498.76
412.86
321.38
228.68
123.16
8.43
-101.22
-189.4
-247.09
-275.04
-279.91
-269.49
-250.23
-227.77
-202.78
-174.63
-144.74
-115.44
-89.95
-70.77
-59.33
-56.05
-62.12
-74.95
-89.47
-102.99
-115.5
-127.69
-140.3
-154.49
-168.49
-183.48
-199.61
-214.92
-229.95
-246.46
-263.46
-276.71
-280.64
-260.23
-211.47
-157.75
-111.38
-72.85
-43.23
-21.09
-3.91
9.58
18.18
16.84
2.16
-22.76
-53.06
-83.87
-110.15
-128.43
-137.48
-137.83
-132.05
-121.62
-104.27
-78.85
-46.7
-10.51
25.77
57.89
82.41
96.76
100.88
98.37
92.91
86.93
81.92
78.2
75.18
72.01
67.75
62.32
57.32
54.33
54.29
57.57
63.76
71.9
80.72
89.05
96.23
102.44
108.1
113.56
119.01
124.29
128.84
131.71
131.91
128.75
122.38
114.04
105.98
100.73
100.95
108.9
125.61
150.13
179.27
208.15
231.36
244.52
245.31
234.45
215.43
192.98
171.41
153.32
139.48
129.42
122.17
116.03
109.73
102.58
94.1
83.63
70.52
54.65
36.77
18.52
-0.21
-18.7
-35.12
-47.61
-55.72
-60.95
-65.91
-73.15
-84.31
-104.36
-135.15
-174.2
-216.53
-258.18
-297.86
-336.14
-373.74
-410.5
-452.24
-500.69
-551.55
-597.23
-632.25
-655.83
-670.64
-680.71
-690.05
-711.21
-750.37
-802.81
-854.92
-891.52
-901.77
-881.33
-832.57
-704.88
-490.33
-226.12
27.89
229.68
369.4
457.01
507.15
531.71
539.15
526.55
494.64
451.05
407.26
371.49
345.49
326.41
310.17
293.79
269.09
233.13
189.9
147.83
113.73
89.04
72.93
63.25
58.1
51.81
41.53
28.44
16.56
8.83
5.43
4.82
4.88
4.02
-0.71
-10.55
-24.56
-39.85
-54.12
-66.4
-76.62
-85.06
-91.74
-96.94
-99.89
-102.75
-105.33
-107.17
-108.06
-107.91
-106.75
-104.56
-101.36
-97.18
-92.26
-86.35
-79.49
-71.9
-63.85
-55.69
-47.8
-40.56
-34.32
-29.49
-25.97
-23.73
-22.46
-21.81
-21.45
-21.09
-20.46
-19.27
-17.22
-13.81
-8.6
-1.07
9.13
22.15
37.83
55.71
74.99
94.54
113.01
128.97
141.62
150.44
155.15
155.7
152.42
146.01
137.38
127.41
117.09
109.02
105.51
108.12
117.41
133.13
154.61
180.83
209.96
240.41
273.78
311.12
352.09
394.94
437.49
478.7
518.82
557.94
596.37
637.58
681.28
722.66
753.96
768.4
764.13
744.6
715.4
683.79
660.84
651.82
654.71
661.64
663.56
655.04
635.41
606.14
530.45
391.49
195.39
-28.38
-242.54
-420.01
-549.49
-623.94
-658.65
-666.94
-652.64
-619.15
-572.54
-521.88
-479.65
-454.57
-451
-470.8
-510.35
-558.11
-598.03
-615.34
-602.93
-563.49
-505.88
-440.36
-376.47
-318.97
-266.87
-218.64
-174.58
-136.7
-107.3
-87.58
-77.01
-74.75
-78.73
-86.21
-96.03
-108.86
-125.95
-147.37
-170.69
-189.21
-196.32
-187.26
-161.21
-122.07
-77
-33.72
1.97
27.49
42.99
50.21
52.1
51.33
49.74
48.08
46.29
43.82
40.19
35.58
31.38
30.59
36.24
50.16
72.56
102.52
138.64
179.43
216.76
241.04
245.77
229.82
196.65
151.5
99.09
43.03
-14.27
-70.81
-128.75
-187.56
-243.92
-292.11
-325.02
-335.88
-320.52
-279.37
-213.59
-132.49
-48.83
24.18
76.36
102.87
104.73
87.25
57.7
23
-11.72
-41.92
-64.19
-76.39
-77.79
-69.36
-53.78
-34.9
-16.64
-1.99
8.84
17.62
26.82
38.1
51.34
64.82
76.18
83.63
86.51
85.96
83.94
82.04
80.79
79.49
76.84
71.66
63.49
52.56
39.99
27.27
15.78
6.58
0.22
-3.16
-3.69
-1.78
1.9
6.5
11.12
14.81
16.86
16.84
14.7
10.74
5.51
-0.28
-5.8
-10.15
-12.46
-11.92
-7.96
-0.56
9.76
21.93
34.6
46.43
56.04
62.2
63.8
59.94
49.88
33.22
10.2
-18.13
-49.74
-82.03
-111.93
-136.12
-151.7
-157.06
-152.54
-140.31
-123.69
-105.72
-88.63
-72.95
-57.18
-38.78
-15.79
11.77
41.89
71.37
97.89
120.17
139.04
157.63
180.21
210.1
247.38
288.54
326.9
354.53
362.54
343.47
293.83
215.63
116.26
6.76
-99.96
-192.5
-254.78
-275.63
-256.26
-209.64
-152.43
-97.44
-51.78
-15.61
11.66
30.66
41.13
43.15
38.54
29.39
19.61
13.01
12.53
19.4
33.4
52.1
71.81
89.38
103.28
113.67
120.95
125.13
125.16
119.79
107.89
89.49
66.59
42.59
20.76
2.17
-14.86
-34
-58.82
-91.1
-129.73
-170.73
-208.73
-238.89
-258.75
-268.73
-271.58
-271.03
-270.5
-272.2
-276.48
-281.81
-285.01
-281.91
-268.28
-240.99
-198.93
-143.63
-79.22
-11.41
53.88
112.11
160.87
200.06
231.07
255.86
276.04
292.38
304.68
311.9
312.51
305.27
290.04
268.6
244.68
223.11
208.11
201.6
202.43
207.01
211.08
211.68
208.29
202.56
197.01
193.37
191.79
191
189.27
185.62
180.22
174.22
168.8
164.43
160.4
155.13
146.96
134.97
119.54
102.2
85.04
69.76
57.1
46.56
36.9
26.75
