-7.27
-10.05
-13.41
-16.94
-20.13
-22.49
-23.74
-23.81
-22.83
-21.07
-18.82
-16.42
-14.11
-12.12
-10.5
-9.17
-7.92
-6.48
-4.67
-2.51
-0.24
1.78
3.19
3.86
3.88
3.56
3.23
3.09
3.18
3.36
3.46
3.41
3.2
2.88
2.47
1.94
1.21
0.3
-0.74
-1.8
-2.77
-3.64
-4.45
-5.27
-6.15
-7.05
-7.96
-8.78
-9.49
-10.02
-10.33
-10.46
-10.57
-10.9
-11.64
-12.79
-14.09
-15.05
-15.15
-14.09
-11.9
-8.97
-5.87
-3.13
-1.06
0.3
1.19
1.92
2.76
3.83
5.03
6.2
7.19
7.91
8.42
8.77
8.94
8.81
8.24
7.1
5.42
3.35
1.13
-0.95
-2.59
-3.5
-3.46
-2.42
-0.53
1.81
4.07
5.8
6.78
7.01
6.72
6.1
5.22
4.05
2.48
0.47
-1.92
-4.56
-7.35
-10.24
-13.24
-16.31
-19.26
-21.79
-23.48
-24.02
-23.3
-21.52
-19.03
-16.28
-13.63
-11.21
-9.01
-6.89
-4.72
-2.39
0.09
2.67
5.27
7.73
9.98
11.94
13.65
15.18
16.65
18.15
19.71
21.26
22.67
23.82
24.63
25.1
25.33
25.41
25.46
25.56
25.79
26.12
26.55
26.95
27.12
26.83
25.86
24.12
21.67
18.73
15.56
12.31
8.94
5.28
1.18
-3.34
-8.07
-12.6
-16.55
-19.57
-21.41
-21.95
-21.19
-19.24
-16.34
-12.79
-8.91
-4.86
-0.66
3.81
8.64
13.76
18.84
23.45
27.18
29.94
32.02
34.1
36.96
41.23
47.08
53.96
60.78
66.23
69.18
69.14
66.46
62.23
57.9
54.79
53.53
53.9
54.85
55.02
53.22
48.88
42.22
34.12
25.66
17.85
11.31
6.28
2.64
0.05
-2.07
-4.39
-7.56
-11.89
-17.21
-22.8
-27.66
-30.85
-31.81
-30.56
-27.68
-24.06
-20.59
-17.87
-16.03
-14.81
-13.69
-12.21
-10.22
-7.88
-5.59
-3.68
-2.24
-1.11
-0.1
0.82
1.4
1.22
-0.04
-2.4
-5.45
-8.52
-10.9
-12.14
-12.16
-11.19
-9.59
-7.69
-5.76
-3.98
-2.61
-1.89
-2.11
-3.38
-5.52
-8.13
-10.68
-12.81
-14.34
-15.34
-15.93
-16.18
-16.05
-15.51
-14.56
-13.29
-11.8
-10.09
-8.13
-5.88
-3.45
-1.08
0.87
2.1
2.52
2.31
1.81
1.38
1.33
1.76
2.62
3.69
4.62
4.93
4.03
1.41
-3.06
-8.77
-14.29
-17.59
-16.67
-10.38
1.01
15.76
31.06
43.96
52.2
54.69
51.51
43.63
32.39
19.2
5.39
-7.84
-19.42
-28.47
-34.51
-37.61
-38.38
-37.78
-36.67
-35.33
-33.38
-29.86
-23.86
-15.08
-4.11
7.63
18.39
26.7
31.65
33.02
31.27
27.49
23.33
20.78
21.68
27.11
36.75
48.84
60.69
69.85
75.25
77.95
80.8
87.24
99.43
116.94
136.53
153.37
163.14
163.94
156.9
145.33
132.7
120.8
108.99
95.02
76.73
53.55
26.84
-0.92
-27.74
-53.2
-78.29
-104.2
-131.1
-157.62
-181.7
-201.87
-218.11
-231.4
-242.16
-248.64
-246.61
-230.64
-196.57
-143.65
-75.59
0.18
74.66
139.69
189.91
223.42
241.1
245.1
237.5
219.8
193.7
162.37
130.93
105.29
89.64
84.03
83.79
81.56
70.99
50.03
21.72
-7.88
-33.14
-51.52
-64.03
-73.6
-82.82
-92.5
-101.79
-109.39
-114.63
-117.88
-120.11
-122.29
-124.78
-127.21
-128.89
-129.05
-127.32
-123.77
-118.93
-113.59
-108.59
-104.48
-101.38
-98.92
-96.42
-93.23
-89.06
-84.06
-78.79
-73.93
-70.01
-67.23
-65.48
-64.58
-64.53
-65.65
-68.23
-72.02
-75.79
-77.42
-74.71
-66.44
-53.25
-37.62
-23.06
-12.68
-8.09
-8.9
-13.22
-18.67
-23.4
-26.65
-28.61
-29.89
-30.9
-31.55
-31.45
-30.27
-27.94
-24.7
-20.68
-15.54
-8.3
2.31
17.2
36.22
57.85
79.42
97.79
110.23
115.11
112.16
102.42
87.81
70.55
52.61
35.36
19.37
4.75
-8.67
-20.91
-31.77
-40.75
-47.37
-51.4
-52.99
-52.55
-50.45
-46.85
-41.83
-35.71
-29.35
-24.1
-21.22
-21.16
-23.27
-26.03
-27.91
-28.13
-26.83
-24.55
-21.44
-16.98
-10.48
-1.83
7.93
16.93
23.33
26.28
26.31
25.03
24.3
25.34
28.33
32.53
36.68
39.68
40.92
40.47
38.72
36.11
32.8
28.67
23.52
17.36
10.74
4.53
-0.36
-3.38
-4.53
-4.28
-3.22
-1.8
-0.19
1.6
3.59
5.64
7.43
8.62
8.95
8.45
7.43
6.44
5.97
6.28
7.26
8.42
9.2
9.13
8.04
6.05
3.37
0.28
-3.06
-6.43
-9.42
-11.41
-11.72
-9.78
-5.53
0.51
7.3
13.55
18.15
20.41
20.26
18.09
14.65
10.74
7.1
4.26
2.44
1.59
1.41
1.49
1.35
0.62
-0.92
-3.37
-6.55
-10.24
-14.13
-18
-21.67
-25.03
-27.85
-29.83
-30.62
-30.08
-28.45
-26.3
-24.45
-23.6
-24.02
-25.57
-27.72
-29.97
-31.85
-33.14
-33.62
-33.04
-31.13
-27.79
-23.23
-18.01
-12.85
-8.37
-4.9
-2.35
-0.5
0.96
2.2
3.28
4.22
5.07
5.93
6.89
7.9
8.85
9.58
10
10.08
9.88
9.4
8.69
7.7
6.44
4.9
3.05
0.86
-1.72
-4.62
-7.59
-10.23
-12.22
-13.42
-14.07
-14.61
-15.41
-16.54
-17.62
-18.13
-17.67
-16.21
-14.11
-11.79
-9.51
-7.16
-4.45
-1.18
2.5
6.07
8.92
10.67
11.41
11.61
11.89
12.73
14.28
16.33
18.49
20.3
21.35
21.44
20.57
19.01
17.21
15.58
14.36
13.5
12.69
11.59
9.96
7.81
5.33
2.74
0.21
-2.12
-4.17
-5.85
-7.1
-7.87
-8.23
-8.17
-7.66
-6.48
-4.35
-1.11
3.12
7.92
12.68
16.82
19.94
21.88
22.71
22.62
21.9
20.87
19.81
18.91
18.18
17.54
16.88
16.17
15.52
15.02
14.74
14.49
13.94
12.81
11.08
9.02
7.1
5.68
4.81
4.25
3.52
2.27
0.34
-2.12
-4.81
-7.33
-9.3
-10.49
-10.78
-10.15
-8.75
-6.69
-4.12
-1.2
1.84
4.8
7.4
9.42
10.7
11.25
11.2
10.73
10.1
9.51
9.13
9.04
9.17
9.39
9.48
9.25
8.63
7.66
6.46
5.16
3.78
2.3
0.72
-0.88
-2.35
-3.57
-4.54
-5.44
-6.53
-8.02
-9.83
-11.57
-12.64
-12.54
-11.08
-8.52
-5.45
-2.51
-0.11
1.67
3.02
4.16
5.17
5.97
6.41
6.46
6.24
6.03
6.09
6.52
7.25
8.01
8.5
8.51
8.01
7.12
6.02
4.91
3.84
2.81
1.7
0.45
-0.96
-2.47
-3.94
-5.25
-6.4
-7.54
-8.93
-10.76
-13.06
-15.59
-17.87
-19.32
-19.5
-18.22
-15.69
-12.37
-8.8
-5.44
-2.5
0.01
2.24
4.29
6.24
8.07
9.69
11.02
12.01
12.66
13
13.11
13.02
12.78
12.43
12
11.59
11.22
10.85
10.34
9.48
8.13
6.33
4.31
2.41
0.97
0.08
-0.47
-1.11
-2.33
-4.39
-7.23
-10.48
-13.63
-16.29
-18.2
-19.36
-19.82
-19.73
-19.39
-19.2
-19.59
-20.68
-21.97
-22.24
-19.9
-13.66
-3.3
10.06
24.15
36.42
44.92
48.89
48.79
45.8
41.27
36.22
31.29
26.82
23.04
20.13
18.14
16.97
16.26
15.51
14.19
11.93
8.68
4.71
0.54
-3.16
-5.85
-7.31
-7.7
-7.5
-7.32
-7.6
-8.46
-9.74
-11.1
-12.26
-13.06
-13.46
-13.5
-13.18
-12.5
-11.5
-10.31
-9.17
-8.29
-7.74
-7.43
-7.07
-6.43
-5.42
-4.14
-2.86
-1.85
-1.26
-1.04
-1.05
-1.14
-1.26
-1.48
-1.86
-2.41
-2.98
-3.36
-3.4
-3.13
-2.73
-2.43
-2.39
-2.61
-2.94
-3.2
-3.32
-3.36
-3.44
-3.66
-4.1
-4.73
-5.54
-6.61
-8
-9.74
-11.81
-14.04
-16.25
-18.22
-19.72
-20.57
-20.56
-19.63
-17.91
-15.68
-13.28
-11.01
-8.9
-6.81
-4.55
-1.99
0.74
3.36
5.61
7.4
8.83
10.15
11.51
12.93
14.27
15.31
15.86
15.88
15.41
14.55
13.41
12.1
10.69
9.28
7.93
6.68
5.51
4.38
3.23
2.04
0.78
-0.57
-2
-3.48
-4.97
-6.42
-7.87
-9.44
-11.33
-13.71
-16.57
-19.6
-22.3
-24.16
-24.89
-24.55
-23.43
-21.86
-20.04
-17.98
-15.54
-12.59
-9.13
-5.31
-1.37
2.38
5.73
8.5
10.6
12.03
12.91
13.41
13.76
14.14
14.61
15.09
15.45
15.5
15.17
14.49
13.59
12.67
11.82
11.02
10.11
8.94
7.42
5.68
3.89
2.24
0.76
-0.68
-2.21
-3.9
-5.63
-7.27
-8.72
-10.16
-11.92
-14.31
-17.4
-20.86
-24.1
-26.47
-27.51
-27.08
-25.43
-23.05
-20.41
-17.91
-15.69
-13.61
-11.42
-8.87
-5.88
-2.62
0.58
3.34
5.43
6.87
7.85
8.64
9.48
10.46
11.54
12.55
13.28
13.54
13.22
12.4
11.24
9.95
8.71
7.52
6.3
4.94
3.37
1.73
0.2
-0.98
-1.73
-2.19
-2.71
-3.69
-5.37
-7.78
-10.64
-13.6
-16.33
-18.71
-20.66
-22.11
-22.86
-22.69
-21.46
-19.24
-16.38
-13.31
-10.32
-7.46
-4.55
-1.36
2.15
5.74
8.97
11.39
12.84
13.44
13.66
14.01
14.84
16.23
17.97
19.71
21.07
21.86
22.03
21.72
21.07
20.17
19.07
17.73
16.21
14.6
13.06
11.67
10.44
9.19
7.7
5.75
3.38
0.83
-1.5
-3.3
-4.57
-5.61
-6.97
-9.15
-12.39
-16.53
-21.06
-25.29
-28.57
-30.42
-30.63
-29.27
-26.59
-22.97
-18.9
-14.83
-11.09
-7.78
-4.75
-1.7
1.63
5.31
9.1
12.5
14.97
16.17
16.21
15.52
14.72
14.29
14.46
15.17
16.27
17.61
19.04
20.4
21.34
21.48
20.5
18.42
15.65
12.87
10.75
9.65
9.51
9.95
10.44
10.55
10.07
9.04
7.64
6.07
4.48
2.88
1.23
-0.55
-2.51
-4.62
-6.9
-9.38
-12.16
-15.3
-18.73
-22.13
-24.92
-26.46
-26.27
-24.31
-20.97
-16.96
-12.9
-9.15
-5.61
-1.98
2.02
6.43
10.89
14.95
18.22
20.59
22.2
23.31
24.12
24.66
24.92
24.88
24.59
24.18
23.75
23.24
22.52
21.4
19.78
17.69
15.34
13.02
10.99
9.43
8.36
7.62
6.93
5.95
4.46
2.4
-0.07
-2.72
-5.3
-7.75
-10.16
-12.69
-15.52
-18.68
-22.06
-25.41
-28.47
-30.94
-32.54
-33.03
-32.23
-30.19
-27.14
-23.48
-19.66
-15.98
-12.52
-9.23
-6.03
-2.98
-0.33
1.6
2.63
2.85
2.72
2.83
3.66
5.46
8.06
10.99
13.66
15.58
16.49
16.45
15.71
14.61
13.44
12.3
11.14
9.81
8.2
6.36
4.54
3.06
2.13
1.68
1.35
0.66
-0.75
-3
-5.99
-9.46
-13.17
-16.97
-20.7
-24.11
-26.75
-28.16
-27.98
-26.13
-22.93
-18.93
-14.76
-10.88
-7.49
-4.49
-1.68
1.2
4.25
7.42
10.5
13.28
15.56
17.31
18.65
19.69
20.55
21.2
21.51
21.3
20.52
19.26
17.78
16.43
15.36
14.49
13.53
12.07
9.91
7.15
4.19
1.53
-0.46
-1.79
-2.71
-3.64
-4.93
-6.73
-9.06
-11.83
-14.98
-18.42
-22.04
-25.56
-28.6
-30.71
-31.5
-30.8
-28.69
-25.46
-21.51
-17.19
-12.69
-8.01
-3.04
2.37
8.19
14.16
19.82
24.6
28.11
30.15
30.83
30.47
29.4
27.93
26.28
24.54
22.83
21.22
19.74
18.39
17.11
15.8
14.4
12.82
10.99
8.82
6.28
3.46
0.56
-2.12
-4.36
-6.11
-7.51
-8.82
-10.23
-11.84
-13.64
-15.6
-17.82
-20.55
-24
-28.21
-32.9
-37.46
-41.12
-43.17
-43.19
-41.17
-37.46
-32.61
-27.21
-21.73
-16.41
-11.31
-6.37
-1.53
3.23
7.83
12.13
15.96
19.17
21.66
23.42
24.55
25.22
25.66
26.08
26.6
27.22
27.81
28.15
28.03
27.31
26.03
24.32
22.42
20.54
18.77
17.08
15.42
13.73
11.98
10.2
8.32
6.27
3.89
1.07
-2.23
-5.89
-9.65
-13.25
-16.46
-19.28
-21.9
-24.64
-27.7
-30.99
-34.01
-36.04
-36.36
-34.59
-30.93
-25.96
-20.46
-14.96
-9.66
-4.48
0.64
5.59
10.11
13.9
16.89
19.23
21.21
23.08
24.84
26.32
27.26
27.61
27.52
27.39
27.59
28.29
29.36
30.47
31.22
31.37
30.81
29.6
27.87
25.71
23.22
20.54
17.84
15.34
13.18
11.41
9.88
8.36
6.63
4.58
2.18
-0.47
-3.24
-5.99
-8.66
-11.26
-13.9
-16.76
-19.97
-23.45
-26.85
-29.46
-30.52
-29.45
-26.17
-21.13
-15.26
-9.49
-4.53
-0.63
2.38
4.87
7.15
9.36
11.44
13.27
14.71
15.73
16.33
16.51
16.29
15.72
14.93
14.09
13.36
12.85
12.49
12.18
11.74
11.05
10.05
8.69
7.01
5.07
3
0.95
-0.88
-2.33
-3.4
-4.2
-4.95
-5.97
-7.48
-9.66
-12.54
-16.05
-20.01
-24.08
-27.81
-30.6
-31.93
-31.43
-29.03
-25.05
-20.1
-14.84
-9.88
-5.51
-1.78
1.48
4.45
7.2
9.63
11.53
12.76
13.33
13.48
13.63
14.12
15.14
16.56
17.99
18.94
19.06
18.29
16.84
15.1
13.36
11.73
10.15
8.45
6.53
4.36
2.01
-0.4
-2.81
-5.21
-7.67
-10.27
-13.13
-16.36
-20.05
-24.24
-28.83
-33.54
-37.97
-41.54
-43.61
-43.65
-41.38
-36.96
-31
-24.4
-18.06
-12.53
-7.84
-3.66
0.45
4.7
8.93
12.71
15.7
17.78
19.18
20.25
21.28
22.34
23.33
24.02
24.26
23.99
23.24
22.15
20.86
19.47
18
16.4
14.54
12.29
9.63
6.72
3.86
1.33
-0.76
-2.46
-4.03
-5.75
-7.88
-10.61
-14.06
-18.23
-22.94
-27.7
-31.81
-34.51
-35.24
-33.83
-30.62
-26.24
-21.37
-16.52
-11.88
-7.38
-2.85
1.79
6.48
10.99
15.01
18.21
20.4
21.54
21.85
21.71
21.56
21.78
22.49
23.47
24.37
24.79
24.54
23.7
22.47
21.1
19.68
18.15
16.37
14.28
11.91
9.45
7.06
4.83
2.74
0.7
-1.43
-3.77
-6.4
-9.4
-12.82
-16.67
-20.94
-25.51
-30.09
-34.21
-37.26
-38.68
-38.15
-35.71
-31.78
-26.98
-21.87
-16.81
-11.88
-6.96
-1.93
3.21
8.32
13.11
17.3
20.68
23.15
24.75
25.59
25.83
25.69
25.37
25.03
24.83
24.87
25.16
25.59
25.95
25.94
25.36
24.08
22.14
19.68
16.9
13.99
11.1
8.35
5.79
3.38
1.02
-1.39
-3.99
-6.8
-9.81
-12.93
-16.17
-19.61
-23.41
-27.78
-32.67
-37.74
-42.35
-45.63
-46.84
-45.58
-42.01
-36.76
-30.74
-24.71
-19.04
-13.68
-8.26
-2.46
3.73
10
15.81
20.65
24.21
26.5
27.78
28.44
28.87
29.36
30.06
30.92
31.73
32.17
31.95
30.9
29.15
26.95
24.63
22.42
20.41
18.58
16.82
15.06
13.24
11.36
9.38
7.26
4.95
2.45
-0.14
-2.74
-5.26
-7.73
-10.31
-13.24
-16.78
-21.09
-26.14
-31.58
-36.83
-41.15
-43.82
-44.39
-42.78
-39.32
-34.55
-29.12
-23.49
-17.86
-12.21
-6.43
-0.5
5.45
11.01
15.79
19.42
21.83
23.26
24.22
25.22
26.53
28.12
29.62
30.64
30.9
30.46
29.63
28.84
28.38
28.29
28.38
28.29
27.68
26.32
24.14
21.27
17.99
14.66
11.57
8.91
6.59
4.33
1.82
-1.15
-4.51
-8.07
-11.56
-14.82
-17.91
-21.02
-24.4
-28.14
-32.15
-36.12
-39.59
-42.05
-43.03
-42.19
-39.43
-35
-29.4
-23.26
-17.14
-11.28
-5.62
0.06
5.89
11.73
17.14
21.58
24.67
26.39
27.11
27.38
27.7
28.31
29.16
30.01
30.59
30.73
30.4
29.62
28.43
26.85
24.89
22.62
20.17
17.71
15.42
13.39
11.55
9.71
7.55
4.82
1.47
-2.25
-5.88
-8.9
-11.01
-12.33
-13.32
-14.67
-16.98
-20.53
-25.24
-30.68
-36.2
-41.02
-44.34
-45.5
-44.18
-40.47
-34.94
-28.47
-21.99
-16.11
-11.04
-6.59
-2.38
1.88
6.21
10.32
13.74
16.05
17.12
17.23
16.92
16.79
17.2
18.11
19.12
19.77
19.75
19.06
17.92
16.57
15.13
13.54
11.73
9.64
7.37
5.05
2.79
0.65
-1.39
-3.34
-5.25
-7.18
-9.25
-11.66
-14.58
-18.09
-22.12
-26.46
-30.73
-34.43
-37.01
-37.95
-36.88
-33.73
-28.75
-22.44
-15.41
-8.22
-1.29
5.08
10.71
15.48
19.3
22.16
24.14
25.39
26.07
26.3
26.15
25.68
25.02
24.31
23.69
23.3
23.1
22.99
22.74
22.11
20.94
19.18
16.89
14.2
11.26
8.13
4.85
1.41
-2.09
-5.5
-8.6
-11.29
-13.64
-15.91
-18.51
-21.8
-26.01
-31.02
-36.37
-41.4
-45.33
-47.54
-47.66
-45.7
-41.94
-36.87
-31.08
-25.06
-19.19
-13.59
-8.23
-2.97
2.32
7.6
12.67
17.19
20.82
23.34
24.75
25.21
24.98
24.25
23.17
21.89
20.58
19.43
18.59
18.09
17.78
17.42
16.72
15.47
13.57
11.01
7.96
4.63
1.29
-1.84
-4.63
-7.07
-9.28
-11.49
-13.95
-16.9
-20.5
-24.75
-29.49
-34.32
-38.64
-41.81
-43.24
-42.68
-40.23
-36.31
-31.51
-26.37
-21.26
-16.27
-11.3
-6.08
-0.43
5.64
11.87
17.82
23.02
27.13
30.08
31.92
32.87
33.09
32.71
31.86
30.69
29.42
28.26
27.33
26.49
25.47
23.97
21.8
18.98
15.73
12.26
8.79
5.41
2.19
-0.88
-3.77
-6.5
-9.04
-11.45
-13.79
-16.17
-18.77
-21.81
-25.53
-30.08
-35.33
-40.81
-45.65
-48.93
-49.93
-48.47
-44.95
-40.11
-34.7
-29.13
-23.44
-17.39
-10.84
-3.86
3.18
9.81
15.62
20.44
24.21
26.94
28.64
29.38
29.33
28.78
28.05
27.41
26.98
26.75
26.62
26.52
26.36
26.06
25.45
24.31
22.47
19.87
16.72
13.45
10.49
8.14
6.37
4.9
3.3
1.22
-1.44
-4.61
-7.99
-11.31
-14.33
-16.96
-19.24
-21.38
-23.67
-26.39
-29.72
-33.5
-37.26
-40.22
-41.64
-40.99
-38.31
-34.08
-29.01
-23.75
-18.6
-13.46
-8.06
-2.18
4.07
10.23
15.79
20.35
23.9
26.73
29.21
31.52
33.57
35.09
35.84
35.82
35.3
34.66
34.2
33.96
33.7
33.04
31.63
29.39
26.52
23.43
20.62
18.46
17.06
16.27
15.74
15.07
13.97
12.28
9.95
7.05
3.7
0.06
-3.65
-7.25
-10.58
-13.63
-16.51
-19.39
-22.45
-25.67
-28.81
-31.4
-32.85
-32.71
-30.79
-27.23
-22.45
-17
-11.35
-5.76
-0.29
5.12
10.49
15.68
20.34
24.09
26.62
27.86
28.04
27.58
26.92
26.43
26.28
26.43
26.7
26.86
26.67
25.93
24.53
22.43
19.76
16.78
13.8
11.05
8.64
6.45
4.35
2.16
-0.21
-2.74
-5.41
-8.22
-11.13
-14.1
-17.02
-19.73
-22.1
-24.15
-26.06
-28.15
-30.65
-33.55
-36.49
-38.84
-39.9
-39.12
-36.37
-31.92
-26.39
-20.62
-15.23
-10.51
-6.33
-2.27
2
6.48
10.69
13.85
15.35
15.08
13.61
11.88
10.8
10.7
11.34
12.11
12.48
12.33
11.95
11.72
11.77
11.89
11.56
10.34
8.08
5.01
1.58
-1.7
-4.53
-6.82
-8.67
-10.28
-11.94
-13.96
-16.64
-20.16
-24.45
-29.08
-33.37
-36.46
-37.75
-37.04
-34.67
-31.32
-27.73
-24.37
-21.28
-18.19
-14.74
-10.73
-6.29
-1.75
2.4
5.77
8.1
9.32
9.51
8.94
7.98
7.05
6.55
6.66
7.3
8.09
8.52
8.13
6.69
4.32
1.42
-1.51
-4.17
-6.49
-8.65
-10.87
-13.28
-15.83
-18.36
-20.8
-23.2
-25.76
-28.55
-31.39
-33.8
-35.11
-34.78
-32.61
-28.95
-24.45
-19.89
-15.76
-12.11
-8.64
-4.97
-0.89
3.33
7.15
9.97
11.42
11.63
11.07
10.33
9.9
9.99
10.49
11.17
11.78
12.11
12.05
11.46
10.22
8.25
5.57
2.39
-0.95
-4.07
-6.71
-8.84
-10.64
-12.53
-14.93
-18.15
-22.26
-27.01
-31.9
-36.27
-39.46
-40.94
-40.46
-38.09
-34.28
-29.65
-24.78
-20.06
-15.52
-10.95
-6.14
-1.01
4.26
9.26
13.62
17.04
19.47
21.01
21.87
22.31
22.53
22.7
22.9
23.12
23.26
23.18
22.74
21.92
20.7
19.08
17
14.42
11.37
8
4.54
1.25
-1.73
-4.4
-6.91
-9.48
-12.36
-15.74
-19.66
-23.99
-28.31
-32.03
-34.51
-35.3
-34.26
-31.61
-27.82
-23.38
-18.59
-13.52
-8.07
-2.16
4.18
10.72
17.03
22.63
27.11
30.19
31.85
32.3
32
31.51
31.36
31.83
32.86
34.12
35.18
35.71
35.59
34.92
33.82
32.33
30.35
27.71
24.33
20.31
15.99
11.72
7.77
4.18
0.81
-2.61
-6.29
-10.39
-14.96
-19.94
-25.18
-30.47
-35.4
-39.47
-42.12
-42.93
-41.71
-38.63
-34.16
-28.92
-23.51
-18.33
-13.48
-8.85
-4.25
0.45
5.17
9.66
13.51
16.34
18.02
18.68
18.73
18.64
18.82
19.33
20.02
20.61
20.85
20.69
20.17
19.33
18.1
16.31
13.81
10.72
7.44
4.56
2.5
1.31
0.56
-0.43
-2.35
-5.57
-10.01
-15.19
-20.37
-24.71
-27.48
-28.15
-26.53
-22.79
-17.42
-11.1
-4.52
1.74
7.32
12.06
15.94
19.03
21.43
23.26
24.58
25.43
25.85
25.9
25.71
25.43
25.2
25.07
25.04
25.02
24.98
24.89
24.75
24.56
24.19
23.47
22.18
20.13
17.23
13.55
9.3
4.82
0.48
-3.42
-6.72
-9.41
-11.68
-13.78
-15.99
-18.53
-21.55
-25.02
-28.75
-32.39
-35.45
-37.41
-37.81
-36.4
-33.21
-28.52
-22.76
-16.43
-9.93
-3.59
2.38
7.86
12.81
17.2
21.03
24.3
26.95
28.97
30.35
31.13
31.44
31.41
31.2
30.87
30.37
29.62
28.56
27.17
25.5
23.63
21.59
19.39
16.98
14.36
11.6
8.85
6.28
3.97
1.86
-0.2
-2.4
-4.86
-7.57
-10.48
-13.54
-16.81
-20.39
-24.35
-28.58
-32.71
-36.19
-38.39
-38.86
-37.41
-34.16
-29.48
-23.86
-17.81
-11.76
-5.98
-0.64
4.22
8.61
12.46
15.65
17.98
19.35
19.87
19.89
19.85
20.1
20.77
21.69
22.58
23.16
23.32
23.05
22.41
21.4
19.95
18.07
15.81
13.4
11.1
9.09
7.31
5.59
3.66
1.37
-1.19
-3.81
-6.25
-8.4
-10.35
-12.37
-14.75
-17.7
-21.2
-24.99
-28.63
-31.53
-33.16
-33.17
-31.54
-28.54
-24.7
-20.53
-16.4
-12.38
-8.35
-4.11
0.39
5.04
9.56
13.66
17.08
19.72
21.57
22.71
23.24
23.29
23.02
22.6
22.23
22.04
22.04
22.12
22.01
21.47
20.36
18.75
16.83
14.86
12.95
11.05
9.02
6.75
4.24
1.62
-0.98
-3.5
-5.99
-8.53
-11.15
-13.79
-16.39
-18.99
-21.71
-24.72
-28.03
-31.36
-34.2
-35.92
-35.98
-34.19
-30.76
-26.26
-21.36
-16.65
-12.39
-8.48
-4.58
-0.38
4.14
8.6
12.36
14.85
15.83
15.56
14.66
13.83
13.54
13.89
14.66
15.53
16.29
16.82
17.13
17.2
16.96
16.23
14.85
12.76
10.06
6.98
3.8
0.83
-1.72
-3.71
-5.13
-6.12
-6.97
-8.05
-9.75
-12.31
-15.74
-19.81
-24.12
-28.15
-31.38
-33.33
-33.61
-31.99
-28.59
-23.82
-18.37
-12.99
-8.25
-4.29
-0.95
2.11
5.12
8.08
10.79
13.04
14.77
16.05
17.02
17.77
18.28
18.53
18.57
18.48
18.32
18.03
17.47
16.55
15.32
14.01
12.81
11.72
10.46
8.62
5.97
2.73
-0.6
-3.4
-5.35
-6.6
-7.64
-9.09
-11.3
-14.28
-17.76
-21.35
-24.79
-27.9
-30.59
-32.68
-33.89
-33.87
-32.42
-29.55
-25.56
-20.9
-16.04
-11.34
-6.9
-2.71
1.28
4.99
8.21
10.71
12.39
13.37
13.99
14.66
15.68
17.06
18.54
19.74
20.32
20.14
19.27
17.96
16.45
14.88
13.31
11.7
10.05
8.36
6.69
5.13
3.73
2.44
1.09
-0.56
-2.73
-5.57
-9
-12.79
-16.63
-20.26
-23.47
-26.11
-27.98
-28.73
-28.04
-25.75
-22.07
-17.53
-12.83
-8.5
-4.71
-1.23
2.32
6.24
10.61
15.15
19.45
23.07
25.71
27.2
27.61
27.14
26.16
25.04
24.13
23.59
23.42
23.45
23.47
23.34
22.98
22.39
21.56
20.42
18.84
16.71
14.03
10.95
7.78
4.83
2.35
0.37
-1.24
-2.73
-4.4
-6.47
-9.06
-12.14
-15.68
-19.55
-23.58
-27.55
-31.09
-33.75
-35.06
-34.77
-32.86
-29.64
-25.65
-21.38
-17.21
-13.2
-9.26
-5.21
-0.97
3.45
7.86
12
15.59
18.41
20.33
21.34
21.63
21.44
21.07
20.76
20.62
20.64
20.71
20.73
20.54
20.04
19.11
17.71
15.86
13.73
11.57
9.67
8.22
7.22
6.5
5.67
4.36
2.28
-0.61
-4.01
-7.49
-10.55
-12.84
-14.35
-15.34
-16.33
-17.77
-20
-23.03
-26.56
-30.07
-32.91
-34.54
-34.62
-33.12
-30.27
-26.56
-22.53
-18.54
-14.7
-10.88
-6.85
-2.51
2.04
6.47
10.4
13.57
15.84
17.28
18.03
18.27
18.2
18
17.81
17.72
17.7
17.67
17.53
17.21
16.73
16.13
15.43
14.59
13.53
12.14
10.44
8.51
6.52
4.66
3.05
1.7
0.55
-0.51
-1.59
-2.76
-4.09
-5.58
-7.22
-8.92
-10.57
-12.11
-13.63
-15.39
-17.73
-20.9
-24.86
-29.16
-33.09
-35.94
-37.31
-37.21
-35.94
-33.88
-31.3
-28.28
-24.86
-21.13
-17.22
-13.34
-9.56
-5.86
-2.24
1.23
4.36
6.9
8.71
9.83
10.49
10.96
11.34
11.56
11.44
10.87
9.9
8.75
7.67
6.8
6.11
5.37
4.32
2.74
0.56
-2.14
-5.13
-8.07
-10.58
-12.39
-13.36
-13.53
-13.03
-12.03
-10.68
-9.09
-7.34
-5.58
-3.91
-2.48
-1.38
-0.77
-0.79
-1.63
-3.34
-5.65
-8.06
-9.76
-10.06
-8.64
-5.77
-2.13
1.41
4.23
6.17
7.54
8.92
10.9
13.68
17.12
20.72
23.93
26.36
27.92
28.75
29.08
29.05
28.65
27.8
26.48
24.84
23.18
21.72
20.52
19.42
18.14
16.47
14.44
12.24
10.12
8.25
6.65
5.2
3.75
2.13
0.29
-1.77
-4
-6.3
-8.57
-10.68
-12.53
-14.1
-15.43
-16.65
-17.98
-19.64
-21.85
-24.73
-28.2
-31.88
-35.15
-37.28
-37.69
-36.12
-32.78
-28.27
-23.36
-18.77
-14.94
-11.93
-9.47
-7.17
-4.7
-1.98
0.87
3.55
5.85
7.71
9.25
10.64
11.96
13.18
14.19
14.97
15.59
16.25
17.04
17.91
18.58
18.67
17.93
16.36
14.2
11.86
9.69
7.9
6.52
5.47
4.56
3.57
2.34
0.76
-1.1
-3.04
-4.8
-6.14
-7.08
-7.86
-8.95
-10.87
-13.88
-17.95
-22.68
-27.45
-31.61
-34.62
-36.15
-36.04
-34.36
-31.38
-27.54
-23.35
-19.27
-15.54
-12.16
-8.99
-5.81
-2.51
0.82
4
6.87
9.35
11.49
13.39
15.06
16.44
17.44
17.98
18.11
17.99
17.8
17.62
17.48
17.27
16.89
16.28
15.44
14.4
13.18
11.78
10.25
8.72
7.4
6.42
5.76
5.15
4.22
2.68
0.54
-1.92
-4.29
-6.29
-7.97
-9.66
-11.82
-14.71
-18.29
-22.28
-26.23
-29.77
-32.63
-34.58
-35.45
-35.09
-33.45
-30.62
-26.91
-22.71
-18.39
-14.18
-10.16
-6.26
-2.4
1.48
5.27
8.71
11.5
13.38
14.33
14.59
14.56
14.64
15.02
15.6
16.1
16.32
16.23
16.04
16.05
16.41
16.94
17.22
16.84
15.62
13.73
11.61
9.71
8.26
7.18
6.17
4.91
3.26
1.3
-0.72
-2.54
-4.06
-5.33
-6.59
-8.09
-10.13
-12.87
-16.41
-20.7
-25.5
-30.36
-34.68
-37.82
-39.27
-38.79
-36.53
-32.92
-28.5
-23.77
-18.99
-14.23
-9.43
-4.51
0.53
5.56
10.32
14.5
17.86
20.2
21.49
21.92
21.8
21.59
21.7
22.32
23.39
24.59
25.47
25.72
25.26
24.26
23.03
21.83
20.77
19.79
18.8
17.76
16.72
15.74
14.74
13.53
11.82
9.42
6.35
2.87
-0.63
-3.79
-6.49
-8.87
-11.21
-13.71
-16.41
-19.26
-22.12
-24.99
-27.88
-30.75
-33.34
-35.22
-35.87
-34.92
-32.37
-28.6
-24.2
-19.73
-15.54
-11.71
-8.16
-4.75
-1.48
1.56
4.18
6.24
7.71
8.68
9.33
9.86
10.41
11
11.59
12.07
12.37
12.46
12.4
12.26
12.15
12.13
12.13
12
11.54
10.53
8.88
6.7
4.29
2
0.09
-1.46
-2.88
-4.6
-7.05
-10.46
-14.78
-19.64
-24.41
-28.38
-30.93
-31.64
-30.48
-27.74
-24
-19.89
-15.9
-12.24
-8.8
-5.3
-1.49
2.65
6.87
10.79
13.99
16.26
17.59
18.14
18.11
17.72
17.11
16.46
15.96
15.74
15.81
15.93
15.77
14.96
13.35
11.06
8.43
5.89
3.69
1.85
0.17
-1.64
-3.82
-6.5
-9.67
-13.24
-17.04
-20.81
-24.23
-26.91
-28.47
-28.64
-27.36
-24.8
-21.33
-17.41
-13.49
-9.79
-6.34
-2.93
0.64
4.48
8.45
12.17
15.21
17.28
18.4
18.89
19.19
19.64
20.31
20.98
21.36
21.24
20.68
19.88
19.07
18.35
17.61
16.67
15.38
13.71
11.73
9.54
7.22
4.8
2.32
-0.17
-2.62
-5.05
-7.63
-10.62
-14.27
-18.66
-23.51
-28.23
-32.02
-34.14
-34.11
-31.93
-27.97
-22.9
-17.4
-12.07
-7.18
-2.8
1.24
5.18
9.18
13.29
17.38
21.14
24.24
26.45
27.7
28.12
28.01
27.68
27.31
26.98
26.61
26.16
25.62
24.96
24.14
23.05
21.56
19.65
17.44
15.25
13.4
12
10.86
9.55
7.62
4.9
1.56
-1.9
-4.99
-7.44
-9.38
-11.27
-13.64
-16.85
-20.92
-25.43
-29.69
-32.93
-34.58
-34.42
-32.71
-29.93
-26.66
-23.23
-19.76
-16.12
-12.2
-8
-3.68
0.53
4.37
7.68
10.35
12.37
13.75
14.53
14.86
14.94
14.93
14.97
15.11
15.32
15.58
15.82
15.94
15.8
15.22
14.05
12.3
10.12
7.73
5.32
2.98
0.7
-1.59
-3.91
-6.24
-8.61
-11.09
-13.87
-17
-20.27
-23.19
-25.07
-25.34
-23.81
-20.8
-16.99
-13.06
-9.41
-6.03
-2.64
1
4.86
8.62
11.88
14.31
15.92
16.9
17.57
18.11
18.61
19.02
19.34
19.62
19.89
20.14
20.24
20.05
19.47
18.5
17.2
15.69
14.04
12.31
10.54
8.78
7.08
5.44
3.85
2.23
0.52
-1.32
-3.36
-5.64
-8.23
-11.21
-14.55
-18.11
-21.58
-24.5
-26.44
-27.07
-26.28
-24.23
-21.28
-17.8
-14.09
-10.28
-6.37
-2.28
2
6.36
10.51
14.12
16.95
18.9
20.07
20.61
20.66
20.27
19.49
18.42
17.27
16.27
15.59
15.17
14.77
14.07
12.86
11.17
9.27
7.46
5.93
4.66
3.47
2.18
0.75
-0.71
-2.04
-3.24
-4.52
-6.23
-8.71
-12.02
-15.93
-19.92
-23.38
-25.82
-26.98
-26.83
-25.56
-23.48
-20.98
-18.4
-15.93
-13.57
-11.11
-8.28
-4.92
-1.12
2.76
6.22
8.87
10.55
11.35
11.52
11.31
10.93
10.55
10.29
10.3
10.62
11.2
11.9
12.46
12.69
12.48
11.8
10.66
9.04
6.96
4.5
1.96
-0.29
-1.94
-2.98
-3.74
-4.79
-6.62
-9.38
-12.83
-16.41
-19.51
-21.69
-22.79
-22.83
-21.97
-20.34
-18.06
-15.27
-12.2
-9.07
-6.04
-3.18
-0.4
2.39
5.25
8.05
10.57
12.56
13.83
14.43
14.56
14.55
14.68
15.02
15.45
15.74
15.72
15.39
14.88
14.35
13.83
13.19
12.23
10.82
9.01
7.04
5.2
3.63
2.31
1.04
-0.4
-2.18
-4.3
-6.7
-9.17
-11.53
-13.63
-15.45
-17.11
-18.82
-20.7
-22.69
-24.41
-25.31
-24.94
-23.18
-20.32
-16.9
-13.42
-10.18
-7.17
-4.22
-1.21
1.84
4.78
7.41
9.62
11.43
12.97
14.38
15.79
17.17
18.34
19.05
19.07
18.33
16.99
15.32
13.7
12.47
11.77
11.62
11.88
12.24
12.41
12.06
11
9.17
6.71
3.95
1.29
-0.95
-2.57
-3.64
-4.45
-5.39
-6.87
-9.15
-12.31
-16.12
-20.12
-23.76
-26.47
-27.89
-27.85
-26.47
-24.1
-21.2
-18.22
-15.45
-13.02
-10.77
-8.46
-5.8
-2.64
0.97
4.71
8.12
10.74
12.32
12.93
12.94
12.81
12.87
13.2
13.66
14.07
14.35
14.51
14.67
14.83
14.88
14.65
14.04
13.09
11.96
10.85
9.84
8.9
7.87
6.54
4.82
2.74
0.4
-2.01
-4.37
-6.65
-8.89
-11.23
-13.83
-16.78
-20.04
-23.39
-26.46
-28.76
-29.87
-29.59
-27.97
-25.34
-22.17
-18.89
-15.75
-12.81
-9.98
-7.18
-4.39
-1.68
0.91
3.38
5.77
8.04
10.08
11.71
12.83
13.48
13.86
14.21
14.68
15.2
15.56
15.51
14.89
13.81
12.51
11.3
10.43
9.92
9.65
9.38
8.9
8.08
6.94
5.57
4.07
2.5
0.73
-1.36
-3.88
-6.81
-9.96
-13.03
-15.71
-17.82
-19.26
-20.12
-20.52
-20.54
-20.22
-19.55
-18.49
-17.01
-15.09
-12.66
-9.71
-6.27
-2.58
1
4.02
6.13
7.21
7.39
6.98
6.35
5.74
5.27
5.02
5.02
5.33
5.96
6.76
7.47
7.77
7.51
6.71
5.66
4.69
4
3.59
3.22
2.59
1.5
-0.02
-1.79
-3.55
-5.17
-6.66
-8.17
-9.89
-11.93
-14.25
-16.71
-19.09
-21.07
-22.36
-22.7
-21.98
-20.22
-17.61
-14.46
-11.05
-7.6
-4.15
-0.62
3.05
6.85
10.56
13.88
16.43
17.97
18.45
18.07
17.22
16.33
15.79
15.77
16.28
17.15
18.1
18.88
19.3
19.22
18.6
17.45
15.8
13.74
11.39
8.9
6.42
4.09
1.92
-0.08
-1.92
-3.66
-5.3
-6.91
-8.61
-10.58
-12.98
-15.85
-19.04
-22.15
-24.71
-26.23
-26.4
-25.16
-22.73
-19.48
-15.85
-12.2
-8.67
-5.23
-1.69
2.06
5.99
9.81
13.12
15.5
16.77
17.06
16.76
16.33
16.15
16.38
16.95
17.61
18.11
18.28
18.15
17.86
17.59
17.43
17.28
16.9
16.02
14.55
12.61
10.53
8.63
7.06
5.83
4.76
3.68
2.53
1.37
0.2
-1.06
-2.61
-4.7
-7.47
-10.77
-14.2
-17.13
-18.99
-19.4
-18.38
-16.33
-13.87
-11.61
-9.83
-8.47
-7.17
-5.59
-3.6
-1.35
0.79
2.5
3.67
4.37
4.79
5.11
5.41
5.7
5.92
6.05
6.1
6.1
6.08
6.01
5.82
5.42
4.64
3.47
1.96
0.36
-1.1
-2.26
-3.16
-4.04
-5.2
-6.89
-9.19
-11.96
-14.93
-17.79
-20.21
-21.93
-22.72
-22.54
-21.45
-19.63
-17.32
-14.69
-11.84
-8.76
-5.44
-1.95
1.57
4.89
7.74
9.92
11.31
11.99
12.16
12.13
12.11
12.21
12.38
12.47
12.32
11.82
10.99
9.95
8.85
7.84
6.94
6.06
5.03
3.73
2.04
0.02
-2.26
-4.61
-6.95
-9.28
-11.71
-14.41
-17.47
-20.77
-23.97
-26.59
-28.17
-28.47
-27.45
-25.32
-22.39
-18.93
-15.16
-11.25
-7.38
-3.72
-0.47
2.29
4.57
6.46
8.05
9.44
10.64
11.7
12.66
13.56
14.36
14.96
15.31
15.36
15.17
14.87
14.6
14.36
14.03
13.38
12.2
10.41
8.15
5.69
3.31
1.19
-0.69
-2.44
-4.25
-6.27
-8.62
-11.24
-14.06
-16.86
-19.32
-21.13
-22.04
-21.98
-21.07
-19.51
-17.44
-14.88
-11.73
-7.93
-3.62
0.85
5
8.45
11.06
12.9
14.17
15.02
15.52
15.65
15.49
15.2
15.01
15.09
15.37
15.63
15.58
15.05
14.05
12.8
11.54
10.42
9.4
8.32
7.03
5.5
3.85
2.22
0.75
-0.61
-2
-3.58
-5.39
-7.38
-9.45
-11.55
-13.77
-16.19
-18.86
-21.59
-23.98
-25.56
-25.98
-25.18
-23.4
-21.05
-18.47
-15.83
-13.03
-9.85
-6.09
-1.74
2.99
7.62
11.6
14.46
15.96
16.26
15.82
15.22
14.93
15.07
15.49
15.88
16.05
16.05
16.05
16.2
16.4
16.33
15.63
14.16
12.12
9.95
8.05
6.56
5.31
3.96
2.26
0.19
-1.97
-3.89
-5.34
-6.34
-7.08
-7.85
-8.92
-10.41
-12.35
-14.65
-17.11
-19.47
-21.34
-22.3
-21.98
-20.26
-17.3
-13.59
-9.75
-6.35
-3.6
-1.39
0.69
3.06
5.95
9.26
12.63
15.55
17.63
18.7
18.92
18.65
18.3
18.15
18.29
18.65
19.08
19.5
19.88
20.19
20.25
19.78
18.51
16.33
13.49
10.46
7.82
5.88
4.67
3.87
3.07
1.95
0.42
-1.4
-3.32
-5.21
-7
-8.76
-10.68
-12.92
-15.63
-18.76
-22.03
-24.96
-26.96
-27.62
-26.81
-24.78
-22.01
-19.05
-16.26
-13.76
-11.38
-8.9
-6.14
-3.05
0.25
3.56
6.66
9.34
11.39
12.7
13.26
13.2
12.81
12.44
12.33
12.54
12.95
13.32
13.45
13.29
12.98
12.63
12.26
11.77
10.93
9.63
7.93
6.06
4.32
2.95
1.96
1.19
0.4
-0.64
-2.04
-3.78
-5.77
-7.9
-10.13
-12.47
-14.94
-17.52
-20.01
-22.08
-23.32
-23.38
-22.16
-19.85
-16.97
-14.08
-11.62
-9.77
-8.38
-7.18
-5.86
-4.27
-2.38
-0.23
2.09
4.56
7.12
9.67
12.03
13.96
15.3
15.99
16.1
15.76
15.09
14.12
12.9
11.52
10.17
9.09
8.44
8.21
8.12
7.84
7.09
5.77
4.02
2.11
0.23
-1.54
-3.2
-4.8
-6.29
-7.67
-8.99
-10.47
-12.4
-15.02
-18.28
-21.77
-24.87
-26.97
-27.68
-26.99
-25.15
-22.53
-19.4
-15.97
-12.4
-8.85
-5.52
-2.61
-0.14
1.97
3.89
5.75
7.58
9.29
10.72
11.71
12.23
12.3
12.08
11.76
11.52
11.49
11.68
11.93
12
11.68
10.85
9.55
7.92
6.2
4.55
3.1
1.89
0.9
0.02
-0.86
-1.88
-3.1
-4.53
-6.13
-7.86
-9.71
-11.75
-14.04
-16.55
-19.08
-21.23
-22.55
-22.72
-21.63
-19.51
-16.77
-13.86
-11.09
-8.56
-6.19
-3.84
-1.4
1.16
3.74
6.22
8.44
10.28
11.66
12.64
13.31
13.85
14.38
14.93
15.39
15.62
15.5
15.06
14.4
13.65
12.91
12.13
11.23
10.1
8.71
7.13
5.49
3.96
2.58
1.37
0.24
-0.97
-2.37
-4.07
-6.13
-8.55
-11.29
-14.21
-17.05
-19.44
-21
-21.44
-20.7
-19.04
-16.88
-14.63
-12.5
-10.43
-8.23
-5.67
-2.72
0.47
3.64
6.58
9.14
11.26
12.86
13.82
14.1
13.82
13.3
12.92
13.01
13.6
14.43
15.14
15.36
14.94
13.91
12.5
10.93
9.42
8.05
6.85
5.79
4.78
3.73
2.54
1.12
-0.62
-2.77
-5.37
-8.39
-11.67
-14.88
-17.51
-19.08
-19.3
-18.22
-16.2
-13.73
-11.22
-8.82
-6.42
-3.8
-0.84
2.31
5.31
7.77
9.47
10.47
10.96
11.12
11.04
10.69
10.06
9.24
8.48
8.02
8
8.34
8.74
8.85
8.41
7.35
5.75
3.82
1.76
-0.25
-2.1
-3.81
-5.5
-7.41
-9.75
-12.66
-16.03
-19.53
-22.64
-24.79
-25.58
-24.91
-23.03
-20.46
-17.73
-15.24
-13.04
-10.9
-8.47
-5.45
-1.81
2.19
6.13
9.59
12.25
13.97
14.85
15.09
14.99
14.78
14.65
14.65
14.71
14.67
14.38
13.69
12.55
11.01
9.17
7.17
5.17
3.31
1.63
0.16
-1.21
-2.7
-4.58
-7.1
-10.35
-14.11
-17.89
-21.01
-22.85
-23.09
-21.85
-19.58
-16.82
-13.9
-10.82
-7.4
-3.49
0.81
5.16
9.14
12.48
15.11
17.07
18.38
19
18.85
18.02
16.79
15.6
14.8
14.5
14.54
14.64
14.6
14.34
13.85
13.07
11.84
10
7.58
4.87
2.32
0.31
-1.07
-2.08
-3.23
-4.93
-7.39
-10.52
-13.94
-17.2
-19.86
-21.54
-21.99
-21.16
-19.18
-16.39
-13.23
-10.07
-7.11
-4.3
-1.42
1.72
5.15
8.74
12.17
15.11
17.33
18.71
19.28
19.24
18.88
18.52
18.47
18.85
19.6
20.48
21.15
21.34
20.93
19.93
18.46
16.73
14.88
13.04
11.26
9.55
7.89
6.27
4.64
2.95
1.18
-0.71
-2.8
-5.15
-7.79
-10.72
-13.82
-16.79
-19.27
-20.88
-21.38
-20.74
-19.11
-16.74
-13.86
-10.63
-7.11
-3.41
0.32
3.89
7.06
9.71
11.78
13.28
14.27
14.82
15
14.91
14.68
14.42
14.22
14.13
14.09
14.05
13.9
13.53
12.91
12.07
11.05
9.86
8.47
6.83
4.93
2.81
0.61
-1.55
-3.63
-5.7
-7.88
-10.26
-12.84
-15.49
-18.04
-20.3
-22.09
-23.18
-23.42
-22.7
-21.14
-18.96
-16.45
-13.78
-10.9
-7.61
-3.73
0.7
5.32
9.58
12.89
14.96
15.83
15.89
15.67
15.64
16.01
16.68
17.34
17.56
17.05
15.76
13.94
12.07
10.56
9.69
9.32
9.08
8.55
7.46
5.81
3.8
1.64
-0.57
-2.83
-5.19
-7.57
-9.83
-11.79
-13.39
-14.75
-16.12
-17.75
-19.67
-21.63
-23.22
-24.02
-23.84
-22.76
-21.04
-18.99
-16.74
-14.25
-11.34
-7.9
-3.98
0.09
3.89
7.04
9.38
10.96
11.94
12.48
12.7
12.73
12.69
12.74
12.96
13.32
13.66
13.76
13.49
12.85
11.94
10.92
9.85
8.71
7.46
6.12
4.8
3.69
2.87
2.25
1.54
0.45
-1.16
-3.18
-5.32
-7.26
-8.86
-10.25
-11.75
-13.67
-16.03
-18.54
-20.66
-21.9
-21.99
-21.01
-19.24
-17.01
-14.58
-12.11
-9.69
-7.4
-5.3
-3.39
-1.62
0.09
1.81
3.47
4.94
6.03
6.64
6.85
6.83
6.81
6.98
7.42
8.12
9.01
9.9
10.57
10.73
10.17
8.81
6.76
4.29
1.71
-0.72
-2.84
-4.64
-6.18
-7.57
-9
-10.67
-12.68
-14.97
-17.2
-18.87
-19.53
-18.96
-17.3
-14.97
-12.43
-9.99
-7.72
-5.42
-2.86
0.1
3.4
6.76
9.75
11.99
13.24
13.56
13.26
12.81
12.63
12.87
13.37
13.79
13.79
13.26
12.32
11.27
10.35
9.61
8.88
7.82
6.13
3.81
1.1
-1.51
-3.57
-4.89
-5.69
-6.5
-7.87
-10.13
-13.13
-16.39
-19.2
-20.97
-21.42
-20.67
-19.11
-17.22
-15.36
-13.64
-11.9
-9.87
-7.3
-4.17
-0.73
2.59
5.33
7.17
8.07
8.24
8.07
8
8.33
9.18
10.38
11.58
12.36
12.42
11.73
10.53
9.26
8.34
7.96
8.01
8.18
8.12
7.54
6.38
4.7
2.68
0.53
-1.56
-3.43
-5.02
-6.41
-7.77
-9.3
-11.09
-13.02
-14.8
-16.08
-16.62
-16.39
-15.49
-14.1
-12.29
-10
-7.19
-3.94
-0.53
2.67
5.3
7.2
8.41
9.12
9.55
9.86
10.14
10.38
10.53
10.51
10.28
9.77
8.97
7.9
6.63
5.26
3.85
2.42
1
-0.41
-1.71
-2.77
-3.46
-3.74
-3.72
-3.7
-4.08
-5.1
-6.83
-8.96
-11.06
-12.65
-13.48
-13.54
-13.03
-12.16
-11.09
-9.85
-8.36
-6.55
-4.43
-2.11
0.24
2.45
4.36
5.81
6.76
7.3
7.61
7.89
8.26
8.68
8.97
8.98
8.63
8.02
7.33
6.68
6.12
5.6
5
4.16
3.03
1.55
-0.24
-2.23
-4.22
-5.92
-7.11
-7.74
-8.03
-8.3
-8.96
-10.24
-12.19
-14.57
-17.04
-19.19
-20.66
-21.2
-20.71
-19.23
-16.9
-13.92
-10.47
-6.71
-2.84
0.91
4.29
7.02
8.99
10.27
11.15
11.88
12.68
13.57
14.42
15.09
15.5
15.64
15.57
15.35
14.93
14.27
13.27
11.86
10.1
8.11
6.03
4.01
2.06
0.16
-1.72
-3.58
-5.45
-7.35
-9.36
-11.59
-14.07
-16.69
-19.19
-21.17
-22.27
-22.32
-21.36
-19.66
-17.59
-15.47
-13.45
-11.48
-9.37
-6.93
-4.07
-0.84
2.56
5.89
8.92
11.5
13.48
14.82
15.52
15.67
15.45
15.08
14.79
14.65
14.59
14.42
13.95
13.13
12.05
10.92
9.94
9.16
8.48
7.67
6.5
4.91
3.01
1.05
-0.79
-2.46
-4.14
-6.03
-8.27
-10.83
-13.53
-16.18
-18.63
-20.75
-22.41
-23.36
-23.34
-22.17
-19.85
-16.64
-12.88
-8.96
-5.22
-1.85
1.03
3.39
5.25
6.71
7.92
9.08
10.32
11.68
13.11
14.47
15.62
16.46
16.89
16.86
16.35
15.44
14.34
13.31
12.55
12.13
11.92
11.62
10.9
9.58
7.69
5.53
3.48
1.82
0.66
-0.13
-0.85
-1.79
-3.25
-5.37
-8.13
-11.36
-14.67
-17.64
-19.82
-20.9
-20.71
-19.31
-16.96
-14.07
-11.11
-8.43
-6.19
-4.29
-2.47
-0.48
1.73
3.97
5.87
7.08
7.5
7.28
6.75
6.22
5.93
5.93
6.23
6.77
7.48
8.24
8.78
8.86
8.27
6.99
5.21
3.29
1.6
0.39
-0.38
-0.99
-1.86
-3.36
-5.61
-8.46
-11.55
-14.42
-16.71
-18.12
-18.45
-17.6
-15.6
-12.71
-9.38
-6.14
-3.37
-1.21
0.58
2.29
4.17
6.21
8.22
9.96
11.21
11.94
12.14
11.9
11.3
10.47
9.59
8.84
8.36
8.14
8.06
7.87
7.36
6.39
4.96
3.17
1.13
-1.04
-3.22
-5.29
-7.2
-8.96
-10.73
-12.75
-15.27
-18.35
-21.69
-24.72
-26.67
-26.99
-25.49
-22.51
-18.71
-14.82
-11.34
-8.42
-5.92
-3.6
-1.21
1.29
3.85
6.3
8.46
10.17
11.32
11.87
11.89
11.5
10.88
10.24
9.75
9.49
9.42
9.33
8.96
8.02
6.42
4.27
1.9
-0.31
-2.09
-3.37
-4.33
-5.27
-6.44
-8.02
-10.02
-12.44
-15.21
-18.24
-21.37
-24.26
-26.41
-27.35
-26.77
-24.67
-21.45
-17.69
-13.97
-10.72
-8.02
-5.73
-3.59
-1.38
0.97
3.33
5.49
7.22
8.37
8.94
9.04
8.81
8.46
8.12
7.91
7.88
8
8.1
7.97
7.32
5.98
3.94
1.46
-1.11
-3.4
-5.22
-6.7
-8.15
-9.99
-12.54
-15.87
-19.79
-23.81
-27.31
-29.64
-30.3
-29.13
-26.32
-22.43
-18.13
-14
-10.31
-6.98
-3.71
-0.22
3.5
7.24
10.59
13.22
14.99
16
16.53
16.89
17.26
17.68
18.03
18.17
18.07
17.75
17.32
16.82
16.23
15.37
14.08
12.24
9.86
7.04
4
0.96
-1.91
-4.49
-6.76
-8.81
-10.82
-12.99
-15.5
-18.36
-21.3
-23.79
-25.23
-25.13
-23.36
-20.27
-16.48
-12.65
-9.2
-6.14
-3.2
0
3.59
7.4
10.98
13.82
15.53
16.02
15.49
14.36
13.11
12.12
11.61
11.53
11.71
11.89
11.91
11.67
11.15
10.36
9.31
8.01
6.53
4.95
3.3
1.52
-0.6
-3.21
-6.38
-9.95
-13.55
-16.76
-19.2
-20.59
-20.8
-19.75
-17.41
-13.87
-9.4
-4.43
0.51
5.02
8.87
12.06
14.67
16.82
18.54
19.75
20.4
20.5
20.12
19.4
18.51
17.64
16.93
16.46
16.2
15.98
15.58
14.79
13.5
11.72
9.54
7.1
4.57
2.1
-0.17
-2.22
-4.19
-6.4
-9.21
-12.76
-16.88
-20.97
-24.15
-25.65
-25.07
-22.51
-18.48
-13.65
-8.68
-3.97
0.3
4.18
7.78
11.27
14.69
17.97
20.91
23.23
24.7
25.19
24.81
23.84
22.69
21.74
21.21
21.08
21.13
20.96
20.24
18.77
16.6
13.96
11.16
8.45
5.92
3.51
1.09
-1.47
-4.25
-7.33
-10.72
-14.34
-17.97
-21.17
-23.39
-24.09
-22.99
-20.25
-16.35
-11.96
-7.63
-3.63
0.04
3.56
7.11
10.65
14.01
16.85
18.85
19.82
19.76
18.91
17.63
16.35
15.37
14.81
14.53
14.27
13.74
12.75
11.28
9.42
7.33
5.09
2.77
0.35
-2.21
-4.96
-7.95
-11.21
-14.65
-17.95
-20.65
-22.14
-21.97
-20.08
-16.79
-12.71
-8.45
-4.41
-0.64
2.98
6.6
10.2
13.63
16.68
19.16
20.98
22.1
22.55
22.39
21.82
21.08
20.4
19.87
19.37
18.65
17.46
15.74
13.62
11.37
9.22
7.29
5.56
3.91
2.21
0.35
-1.83
-4.54
-7.92
-11.91
-16.18
-20.08
-22.9
-24.08
-23.44
-21.26
-18.07
-14.38
-10.56
-6.72
-2.82
1.16
5.17
9.06
12.62
15.62
17.93
19.46
20.2
20.29
19.93
19.37
18.85
18.52
18.42
18.41
18.3
17.87
16.93
15.41
13.32
10.84
8.2
5.68
3.54
1.85
0.51
-0.72
-2.2
-4.25
-7.06
-10.63
-14.71
-18.9
-22.64
-25.36
-26.55
-25.97
-23.68
-20.11
-15.92
-11.72
-7.89
-4.51
-1.35
1.88
5.34
8.97
12.48
15.52
17.8
19.25
19.96
20.19
20.25
20.37
20.66
21.09
21.48
21.64
21.43
20.85
19.97
18.98
17.98
17.03
16.09
15.05
13.79
12.24
10.4
8.33
6.18
4.08
2.18
0.53
-0.89
-2.26
-3.83
-5.95
-8.83
-12.49
-16.69
-20.98
-24.79
-27.67
-29.3
-29.53
-28.38
-26.02
-22.69
-18.7
-14.4
-10.13
-6.2
-2.76
0.18
2.75
5.17
7.57
9.92
12.01
13.58
14.38
14.39
13.78
12.89
12.07
11.55
11.44
11.69
12.14
12.57
12.76
12.57
11.94
11
9.95
9.01
8.24
7.56
6.72
5.51
3.84
1.77
-0.45
-2.65
-4.72
-6.75
-8.92
-11.42
-14.25
-17.22
-19.9
-21.84
-22.71
-22.4
-21.04
-18.95
-16.51
-14.01
-11.58
-9.22
-6.77
-4.07
-1.04
2.23
5.45
8.28
10.35
11.44
11.53
10.81
9.63
8.43
7.61
7.45
8.02
9.16
10.49
11.53
11.93
11.51
10.39
8.88
7.29
5.83
4.55
3.32
2.07
0.79
-0.39
-1.3
-1.9
-2.39
-3.09
-4.34
-6.34
-8.98
-11.94
-14.82
-17.25
-19
-19.96
-20.12
-19.5
-18.19
-16.27
-13.89
-11.22
-8.41
-5.6
-2.9
-0.44
1.68
3.42
4.83
6
6.94
7.62
7.91
7.79
7.38
7.01
6.95
7.3
7.84
8.07
7.58
6.24
4.33
2.39
0.88
-0.04
-0.55
-1
-1.64
-2.44
-3.21
-3.72
-3.93
-4.03
-4.42
-5.46
-7.38
-10.1
-13.32
-16.54
-19.23
-20.95
-21.46
-20.84
-19.34
-17.34
-15.12
-12.8
-10.38
-7.82
-5.15
-2.51
-0.09
2.02
3.76
5.14
6.15
6.69
6.68
6.11
5.19
4.25
3.66
3.6
4
4.59
4.99
4.96
4.45
3.57
2.53
1.52
0.67
0.04
-0.37
-0.63
-0.88
-1.33
-2.21
-3.65
-5.71
-8.29
-11.18
-14.08
-16.64
-18.54
-19.49
-19.39
-18.3
-16.45
-14.17
-11.76
-9.44
-7.33
-5.47
-3.88
-2.57
-1.55
-0.79
-0.19
0.39
1.1
1.96
2.94
3.88
4.63
5.04
5.13
4.98
4.77
4.66
4.67
4.67
4.4
3.62
2.27
0.53
-1.2
-2.55
-3.29
-3.54
-3.64
-4.08
-5.25
-7.31
-10.15
-13.49
-16.93
-20.04
-22.35
-23.37
-22.77
-20.53
-17.07
-13.11
-9.49
-6.74
-4.92
-3.68
-2.45
-0.87
1.14
3.32
5.29
6.76
7.61
7.97
8.03
7.94
7.76
7.47
7.04
6.5
5.97
5.59
5.43
5.47
5.48
5.21
4.41
3.08
1.33
-0.57
-2.41
-4.12
-5.8
-7.63
-9.79
-12.33
-15.13
-17.89
-20.11
-21.28
-20.95
-19
-15.68
-11.6
-7.51
-3.92
-1.05
1.3
3.44
5.56
7.62
9.32
10.4
10.73
10.47
9.91
9.4
9.11
9
8.92
8.65
8.03
7.06
5.83
4.51
3.26
2.15
1.21
0.34
-0.56
-1.56
-2.73
-4.03
-5.43
-6.94
-8.55
-10.27
-12.04
-13.72
-14.98
-15.46
-14.84
-13.01
-10.2
-6.9
-3.69
-0.96
1.16
2.87
4.45
6.08
7.76
9.35
10.67
11.65
12.31
12.77
13.14
13.45
13.65
13.58
13.07
12
10.34
8.23
6
3.98
2.42
1.33
0.49
-0.51
-1.98
-4.1
-6.8
-9.9
-13.16
-16.38
-19.34
-21.7
-23.12
-23.26
-22
-19.5
-16.13
-12.36
-8.52
-4.74
-1
2.75
6.48
9.96
12.92
15.14
16.55
17.26
17.43
17.26
16.87
16.34
15.73
15.07
14.44
13.82
13.16
12.28
11.04
9.37
7.41
5.43
3.67
2.21
0.83
-0.87
-3.31
-6.68
-10.8
-15.19
-19.22
-22.31
-24.1
-24.52
-23.64
-21.65
-18.76
-15.15
-11.01
-6.48
-1.75
2.99
7.46
11.43
14.7
17.18
18.98
20.32
21.46
22.58
23.64
24.44
24.7
24.25
23.17
21.72
20.3
19.16
18.42
17.96
17.52
16.87
15.82
14.32
12.39
10.14
7.69
5.25
3.01
1.15
-0.23
-1.23
-2.09
-3.19
-4.97
-7.76
-11.66
-16.47
-21.7
-26.62
-30.53
-32.89
-33.5
-32.52
-30.35
-27.49
-24.3
-20.99
-17.48
-13.62
-9.22
-4.29
0.95
6.12
10.8
14.65
17.5
19.36
20.38
20.77
20.77
20.59
20.4
20.31
20.32
20.34
20.25
19.88
19.12
17.94
16.36
14.51
12.52
10.54
8.69
7.04
5.62
4.33
2.99
1.44
-0.4
-2.48
-4.6
-6.53
-8.18
-9.62
-11.11
-12.94
-15.22
-17.79
-20.2
-21.96
-22.67
-22.21
-20.71
-18.46
-15.76
-12.79
-9.6
-6.17
-2.55
1.13
4.63
7.67
10.11
11.91
13.16
13.94
14.37
14.52
14.47
14.35
14.28
14.29
14.37
14.4
14.25
13.87
13.31
12.65
11.96
11.2
10.23
8.87
6.99
4.62
1.92
-0.82
-3.33
-5.46
-7.18
-8.67
-10.16
-11.82
-13.74
-15.87
-18.09
-20.26
-22.23
-23.82
-24.8
-24.89
-23.96
-22.02
-19.3
-16.16
-12.94
-9.8
-6.69
-3.48
-0.07
3.45
6.85
9.79
12.02
13.45
14.16
14.39
14.36
14.26
14.18
14.13
14.07
13.95
13.78
13.61
13.46
13.3
13.03
12.53
11.74
10.69
9.51
8.31
7.09
5.77
4.17
2.18
-0.18
-2.7
-5.06
-7
-8.49
-9.76
-11.23
-13.29
-16.02
-19.13
-22.02
-24.03
-24.78
-24.31
-22.98
-21.21
-19.23
-17.02
-14.41
-11.33
-7.87
-4.37
-1.13
1.72
4.2
6.42
8.42
10.14
11.4
12.14
12.45
12.57
12.81
13.35
14.25
15.36
16.49
17.4
17.9
17.89
17.36
16.44
15.2
13.78
12.18
10.35
8.26
5.94
3.59
1.4
-0.44
-2
-3.42
-4.94
-6.67
-8.53
-10.42
-12.31
-14.31
-16.6
-19.25
-21.98
-24.25
-25.45
-25.2
-23.62
-21.2
-18.59
-16.24
-14.2
-12.19
-9.83
-6.93
-3.61
-0.29
2.6
4.72
6.02
6.64
6.8
6.71
6.47
6.1
5.63
5.09
4.52
3.94
3.4
2.93
2.51
2.05
1.42
0.45
-0.93
-2.63
-4.39
-5.91
-7.02
-7.78
-8.54
-9.78
-11.92
-15.05
-18.86
-22.69
-25.75
-27.34
-27.13
-25.27
-22.25
-18.72
-15.24
-12.06
-9.15
-6.36
-3.6
-0.88
1.69
3.97
5.97
7.79
9.52
11.18
12.63
13.65
14.15
14.2
14.04
13.97
14.13
14.47
14.73
14.63
13.99
12.81
11.33
9.78
8.34
7.01
5.71
4.32
2.79
1.11
-0.77
-2.97
-5.63
-8.78
-12.18
-15.3
-17.51
-18.34
-17.78
-16.22
-14.31
-12.52
-10.9
-9.1
-6.67
-3.43
0.32
3.96
6.84
8.64
9.41
9.53
9.34
9.05
8.67
8.24
7.94
8.04
8.75
10.03
11.62
13
13.77
13.7
12.78
11.16
9.02
6.59
4.08
1.8
-0.09
-1.51
-2.61
-3.69
-5.12
-7.1
-9.7
-12.77
-15.99
-19
-21.38
-22.74
-22.76
-21.3
-18.39
-14.36
-9.68
-4.88
-0.43
3.37
6.48
9.03
11.22
13.26
15.23
17.06
18.58
19.64
20.16
20.19
19.81
19.08
18.06
16.8
15.42
14.05
12.86
11.89
11.04
10.13
8.88
7.16
4.99
2.58
0.2
-1.96
-3.84
-5.57
-7.32
-9.27
-11.47
-13.92
-16.61
-19.53
-22.59
-25.56
-28
-29.42
-29.39
-27.77
-24.82
-21
-16.84
-12.71
-8.75
-4.96
-1.32
2.09
5.13
7.58
9.33
10.36
10.84
10.99
11.08
11.26
11.58
11.99
12.42
12.77
13
13.03
12.72
11.89
10.38
8.19
5.6
3.01
0.87
-0.6
-1.54
-2.38
-3.63
-5.72
-8.76
-12.44
-16.19
-19.3
-21.21
-21.71
-20.98
-19.42
-17.48
-15.45
-13.34
-10.98
-8.24
-5.09
-1.77
1.39
4.14
6.38
8.15
9.58
10.74
11.7
12.47
13.08
13.59
14.01
14.29
14.33
14.05
13.47
12.71
11.87
10.99
10.03
8.9
7.57
6.09
4.59
3.15
1.72
0.19
-1.58
-3.64
-5.99
-8.55
-11.34
-14.34
-17.49
-20.51
-22.94
-24.21
-23.92
-22.03
-18.89
-15.12
-11.37
-8.01
-5.08
-2.34
0.5
3.57
6.73
9.65
11.98
13.55
14.49
15.13
15.81
16.7
17.7
18.52
18.91
18.79
18.33
17.84
17.51
17.41
17.41
17.31
17.01
16.47
15.68
14.59
13.08
11.11
8.77
6.36
4.17
2.39
0.92
-0.51
-2.21
-4.37
-6.97
-9.88
-12.93
-16
-18.89
-21.27
-22.67
-22.62
-20.94
-17.9
-14.12
-10.34
-7.09
-4.5
-2.37
-0.4
1.58
3.48
5.08
6.19
6.8
7.09
7.29
7.55
7.93
8.33
8.65
8.8
8.75
8.52
8.07
7.35
6.29
4.85
3.04
0.98
-1.21
-3.35
-5.33
-7.07
-8.63
-10.16
-11.89
-14.03
-16.64
-19.47
-22.03
-23.71
-23.97
-22.67
-20.04
-16.68
-13.22
-10.05
-7.21
-4.51
-1.67
1.4
4.61
7.75
10.63
13.1
15.09
16.52
17.35
17.56
17.25
16.62
15.87
15.19
14.63
14.22
13.86
13.56
13.24
12.83
12.13
10.98
9.31
7.26
5.13
3.22
1.69
0.45
-0.74
-2.25
-4.34
-7.12
-10.47
-14.1
-17.62
-20.61
-22.73
-23.72
-23.58
-22.45
-20.63
-18.47
-16.21
-13.89
-11.45
-8.75
-5.75
-2.55
0.59
3.38
5.56
7.06
7.95
8.43
8.75
9.12
9.64
10.3
10.97
11.45
11.62
11.44
11.03
10.57
10.24
10.08
10
9.78
9.19
8.15
6.7
5.04
3.34
1.74
0.21
-1.38
-3.16
-5.25
-7.63
-10.29
-13.12
-15.94
-18.49
-20.45
-21.44
-21.19
-19.67
-17.14
-14.06
-10.89
-7.9
-5.09
-2.27
0.76
3.99
7.16
9.84
11.64
12.45
12.48
12.12
11.82
11.83
12.17
12.63
13.04
13.32
13.53
13.83
14.27
14.71
14.94
14.68
13.8
12.37
10.59
8.67
6.73
4.8
2.91
1.08
-0.65
-2.25
-3.82
-5.57
-7.7
-10.36
-13.45
-16.68
-19.62
-21.82
-22.92
-22.78
-21.43
-19.08
-16.07
-12.73
-9.32
-6
-2.8
0.28
3.22
5.94
8.35
10.43
12.2
13.73
15.07
16.16
16.89
17.11
16.78
16
14.94
13.85
12.87
12.05
11.41
10.9
10.45
9.99
9.4
8.58
7.46
6.04
4.42
2.76
1.18
-0.19
-1.31
-2.19
-2.93
-3.7
-4.72
-6.26
-8.47
-11.29
-14.33
-16.97
-18.6
-18.8
-17.53
-15.16
-12.19
-9.02
-5.83
-2.6
0.69
3.93
6.77
8.92
10.25
10.94
11.41
12.02
12.89
13.9
14.74
15.22
15.31
15.12
14.8
14.45
14.03
13.47
12.81
12.12
11.5
10.98
10.47
9.82
8.92
7.73
6.26
4.58
2.72
0.71
-1.37
-3.43
-5.4
-7.2
-8.86
-10.45
-12
-13.55
-15.06
-16.48
-17.66
-18.42
-18.52
-17.76
-16.08
-13.59
-10.66
-7.69
-5
-2.69
-0.64
1.3
3.25
5.18
6.99
8.6
9.98
11.16
12.17
13.01
13.69
14.2
14.53
14.72
14.77
14.63
14.23
13.54
12.62
11.62
10.63
9.66
8.59
7.21
5.43
3.31
1.09
-0.98
-2.88
-4.83
-7.24
-10.37
-14.18
-18.15
-21.55
-23.66
-24.2
-23.32
-21.53
-19.41
-17.41
-15.7
-14.26
-12.91
-11.58
-10.18
-8.68
-7.03
-5.16
-3.01
-0.62
1.81
4.01
5.68
6.65
6.94
6.77
6.41
6.07
5.85
5.66
5.38
4.91
4.24
3.44
2.58
1.7
0.8
-0.15
-1.2
-2.36
-3.57
-4.77
-5.87
-6.86
-7.83
-8.98
-10.46
-12.28
-14.13
-15.55
-16.03
-15.29
-13.45
-10.91
-8.24
-5.81
-3.75
-1.92
-0.03
2.14
4.65
7.37
10.03
12.32
14
14.87
14.91
14.2
12.96
11.46
10.03
8.95
8.36
8.24
8.34
8.26
7.62
6.21
4.09
1.51
-1.19
-3.74
-6.02
-7.95
-9.5
-10.66
-11.48
-12.14
-12.99
-14.42
-16.61
-19.36
-22.08
-24.04
-24.67
-23.89
-22.08
-19.82
-17.52
-15.25
-12.8
-9.89
-6.48
-2.8
0.71
3.71
6.08
7.93
9.42
10.53
11.09
10.85
9.75
8.07
6.31
5.1
4.8
5.41
6.58
7.73
8.36
8.21
7.31
5.91
4.29
2.69
1.2
-0.16
-1.34
-2.31
-3.05
-3.64
-4.29
-5.32
-7.07
-9.75
-13.35
-17.52
-21.68
-25.12
-27.22
-27.67
-26.54
-24.23
-21.25
-18.05
-14.81
-11.5
-7.98
-4.23
-0.41
3.18
6.24
8.68
10.58
12.17
13.64
15.07
16.4
17.48
18.19
18.47
18.36
17.94
17.35
16.74
16.25
15.98
15.88
15.8
15.51
14.76
13.41
11.48
9.04
6.28
3.37
0.51
-2.14
-4.47
-6.5
-8.37
-10.37
-12.84
-16.03
-19.91
-24.21
-28.32
-31.61
-33.46
-33.61
-32.08
-29.18
-25.36
-20.99
-16.39
-11.76
-7.32
-3.34
-0.03
2.51
4.38
5.85
7.2
8.57
9.89
10.96
11.61
11.77
11.56
11.16
10.77
10.44
10.2
9.98
9.72
9.31
8.61
7.52
6.04
4.3
2.55
1.08
-0.02
-0.87
-1.78
-3.13
-5.16
-7.86
-11
-14.22
-17.19
-19.66
-21.38
-22.21
-22.04
-20.86
-18.84
-16.23
-13.31
-10.19
-6.88
-3.33
0.45
4.26
7.8
10.81
13.16
14.93
16.23
17.17
17.73
17.88
17.57
16.95
16.14
15.27
14.33
13.27
12.04
10.72
9.45
8.32
7.31
6.31
5.23
4.06
2.86
1.78
0.92
0.27
-0.24
-0.73
-1.35
-2.27
-3.68
-5.78
-8.67
-12.24
-16.16
-19.9
-22.9
-24.73
-25.14
-24.16
-22.03
-19.08
-15.68
-12.13
-8.59
-5.05
-1.37
2.61
6.99
11.66
16.26
20.26
23.08
24.29
23.78
21.89
19.27
16.75
15.02
14.41
14.78
15.68
16.5
16.76
16.29
15.21
13.77
12.18
10.57
8.89
7.1
5.23
3.43
1.97
1.02
0.58
0.35
-0.19
-1.61
-4.25
-8
-12.35
-16.57
-20
-22.33
-23.64
-24.26
-24.49
-24.37
-23.7
-22.24
-19.85
-16.69
-13.08
-9.35
-5.64
-1.93
1.94
5.97
10.01
13.71
16.73
18.85
20.15
20.89
21.41
21.97
22.66
23.44
24.22
24.84
25.17
25.04
24.38
23.21
21.71
20.18
18.82
17.7
16.67
15.47
13.9
11.89
9.59
7.15
4.68
2.16
-0.43
-3.1
-5.71
-8.08
-10.12
-11.91
-13.76
-16.02
-18.94
-22.48
-26.22
-29.55
-31.81
-32.59
-31.79
-29.66
-26.62
-23.14
-19.54
-15.96
-12.34
-8.5
-4.28
0.34
5.17
9.83
13.84
16.83
18.63
19.32
19.23
18.76
18.31
18.14
18.27
18.54
18.64
18.26
17.24
15.68
13.89
12.22
10.89
9.75
8.51
6.86
4.76
2.37
0.02
-2.06
-3.83
-5.45
-7.14
-9.02
-11.14
-13.49
-16.09
-18.92
-21.88
-24.71
-26.98
-28.21
-28.1
-26.6
-23.95
-20.61
-17.02
-13.52
-10.29
-7.29
-4.46
-1.67
1.12
3.88
6.47
8.75
10.64
12.14
13.33
14.3
15.12
15.81
16.36
16.76
17.01
17.14
17.2
17.23
17.22
17.16
16.95
16.5
15.71
14.55
13.06
11.33
9.5
7.63
5.7
3.67
1.48
-0.76
-2.97
-5.03
-6.97
-8.98
-11.32
-14.23
-17.75
-21.72
-25.71
-29.14
-31.41
-32.08
-30.97
-28.31
-24.52
-20.18
-15.8
-11.73
-8.08
-4.76
-1.59
1.61
4.88
8.11
11
13.26
14.66
15.2
15.04
14.55
14.04
13.78
13.81
14.11
14.5
14.83
14.87
14.41
13.27
11.45
9.04
6.35
3.76
1.59
-0
-1.1
-1.92
-2.77
-3.87
-5.29
-6.98
-8.81
-10.68
-12.57
-14.53
-16.66
-19.08
-21.81
-24.79
-27.75
-30.31
-32
-32.43
-31.46
-29.24
-26.13
-22.56
-18.88
-15.19
-11.45
-7.58
-3.53
0.59
4.59
8.27
11.43
13.94
15.73
16.74
17.03
16.79
16.36
16.11
16.31
17.01
18
18.93
19.5
19.49
18.92
17.89
16.53
14.95
13.2
11.34
9.46
7.65
5.94
4.22
2.3
-0.02
-2.76
-5.79
-8.82
-11.61
-14.17
-16.72
-19.65
-23.24
-27.49
-32.05
-36.35
-39.74
-41.73
-42.03
-40.61
-37.63
-33.47
-28.62
-23.61
-18.84
-14.41
-10.09
-5.5
-0.35
5.28
10.88
15.79
19.45
21.69
22.78
23.19
23.36
23.44
23.37
22.99
22.28
21.39
20.63
20.17
19.97
19.74
19.08
17.77
15.87
13.79
11.98
10.74
9.98
9.28
8.13
6.2
3.57
0.62
-2.18
-4.54
-6.5
-8.33
-10.42
-13.06
-16.4
-20.43
-24.95
-29.61
-33.85
-36.98
-38.36
-37.67
-34.98
-30.81
-25.84
-20.66
-15.57
-10.58
-5.52
-0.29
5.05
10.3
15.22
19.58
23.28
26.3
28.68
30.56
32.05
33.24
34.14
34.71
34.87
34.63
34.09
33.38
32.62
31.75
30.53
28.75
26.3
23.38
20.39
17.78
15.72
14.13
12.68
11
8.85
6.24
3.34
0.4
-2.45
-5.18
-7.84
-10.49
-13.14
-15.79
-18.49
-21.37
-24.57
-28.09
-31.67
-34.77
-36.72
-36.99
-35.35
-32
-27.45
-22.23
-16.76
-11.25
-5.75
-0.35
4.87
9.73
14.02
17.56
20.26
22.17
23.41
24.25
24.93
25.64
26.46
27.35
28.25
29.16
30.08
31.02
31.85
32.31
32.1
31.02
29.1
26.59
23.86
21.25
18.95
17
15.24
13.42
11.32
8.76
5.77
2.55
-0.61
-3.48
-6.02
-8.38
-10.9
-13.9
-17.6
-21.96
-26.69
-31.34
-35.35
-38.16
-39.39
-38.88
-36.81
-33.56
-29.63
-25.37
-20.95
-16.33
-11.4
-6.1
-0.45
5.4
11.24
16.8
21.76
25.76
28.47
29.71
29.56
28.44
26.97
25.78
25.27
25.47
26.07
26.64
26.75
26.16
24.86
23.03
20.91
18.77
16.83
15.19
13.88
12.76
11.59
10.05
7.89
5.04
1.66
-1.89
-5.14
-7.8
-9.81
-11.4
-13
-15.04
-17.85
-21.46
-25.65
-29.93
-33.66
-36.24
-37.18
-36.35
-33.9
-30.26
-25.96
-21.5
-17.16
-13.01
-8.95
-4.9
-0.82
3.15
6.78
9.79
11.96
13.18
13.53
13.23
12.56
11.79
11.05
10.41
9.9
9.57
9.47
9.56
9.71
9.61
9.03
7.83
6.09
4.02
1.84
-0.37
-2.63
-4.95
-7.29
-9.48
-11.41
-13.16
-14.97
-17.14
-19.77
-22.57
-24.94
-26.22
-25.98
-24.27
-21.51
-18.24
-14.87
-11.47
-7.87
-3.85
0.63
5.32
9.79
13.57
16.39
18.18
19.08
19.29
18.96
18.16
16.93
15.28
13.32
11.24
9.34
7.88
7.02
6.68
6.56
6.23
5.27
3.47
0.9
-2.12
-5.08
-7.61
-9.57
-11.12
-12.63
-14.48
-16.9
-19.84
-23.07
-26.21
-28.79
-30.37
-30.59
-29.27
-26.49
-22.62
-18.21
-13.79
-9.67
-5.82
-1.93
2.35
7.16
12.38
17.62
22.37
26.23
28.9
30.3
30.51
29.82
28.58
27.1
25.58
24.05
22.53
21.06
19.74
18.56
17.37
15.81
13.49
10.24
6.22
1.96
-1.91
-4.91
-6.96
-8.28
-9.33
-10.54
-12.2
-14.5
-17.52
-21.3
-25.64
-30.15
-34.19
-37
-37.91
-36.59
-33.19
-28.34
-22.9
-17.62
-12.84
-8.46
-4.06
0.77
6.11
11.69
16.96
21.4
24.74
27.01
28.49
29.47
30.16
30.63
30.85
30.81
30.63
30.44
30.34
30.37
30.38
30.18
29.49
28.17
26.19
23.68
20.91
18.14
15.51
12.95
10.2
7.04
3.37
-0.65
-4.65
-8.28
-11.36
-13.99
-16.45
-19.06
-22.05
-25.46
-29.19
-33.04
-36.7
-39.74
-41.67
-42.07
-40.7
-37.72
-33.56
-28.78
-23.87
-19.04
-14.28
-9.43
-4.36
0.89
6.1
10.92
14.97
18.04
20.1
21.35
22.14
22.77
23.43
24.05
24.48
24.55
24.23
23.61
22.9
22.25
21.71
21.19
20.47
19.35
17.69
15.56
13.18
10.81
8.71
6.95
5.43
3.9
2.11
-0.1
-2.65
-5.31
-7.77
-9.82
-11.49
-13.07
-14.97
-17.62
-21.19
-25.52
-30.09
-34.2
-37.12
-38.38
-37.84
-35.77
-32.69
-29.19
-25.76
-22.57
-19.54
-16.41
-12.88
-8.76
-4.1
0.85
5.7
10.02
13.45
15.78
17.07
17.54
17.6
17.64
17.86
18.3
18.81
19.25
19.54
19.68
19.68
19.47
18.9
17.78
16.08
13.95
11.69
9.69
8.2
7.24
6.6
5.91
4.81
3.07
0.69
-2.11
-4.99
-7.63
-9.88
-11.79
-13.58
-15.5
-17.68
-20.14
-22.77
-25.39
-27.73
-29.51
-30.43
-30.3
-29.07
-26.88
-24.04
-20.94
-17.81
-14.72
-11.53
-8.03
-4.12
0.18
4.61
8.84
12.55
15.52
17.7
19.17
20.11
20.71
21.09
21.31
21.37
21.28
21.1
20.85
20.6
20.29
19.75
18.69
16.87
14.2
10.92
7.53
4.59
2.54
1.38
0.74
0.02
-1.25
-3.23
-5.62
-7.97
-9.88
-11.22
-12.24
-13.35
-14.93
-17.15
-20
-23.28
-26.74
-30.09
-33.07
-35.35
-36.59
-36.5
-34.89
-31.85
-27.69
-22.95
-18.17
-13.74
-9.72
-5.93
-2.06
2.04
6.27
10.24
13.51
15.8
17.18
17.96
18.52
19.11
19.7
20.17
20.35
20.26
20.02
19.82
19.7
19.55
19.15
18.34
17.13
15.71
14.31
13.14
12.27
11.67
11.19
10.67
9.91
8.76
7.09
4.91
2.35
-0.32
-2.88
-5.17
-7.26
-9.37
-11.79
-14.69
-18.1
-21.86
-25.67
-29.2
-32.05
-33.88
-34.39
-33.49
-31.28
-28.08
-24.41
-20.74
-17.42
-14.54
-11.92
-9.22
-6.15
-2.7
0.88
4.16
6.71
8.39
9.34
9.92
10.51
11.3
12.24
13.13
13.81
14.25
14.56
14.85
15.07
14.94
14.1
12.29
9.58
6.35
3.17
0.57
-1.2
-2.32
-3.23
-4.44
-6.31
-8.94
-12.22
-15.89
-19.65
-23.18
-26.12
-28.08
-28.72
-27.9
-25.72
-22.48
-18.58
-14.33
-9.94
-5.52
-1.19
2.79
6.07
8.33
9.36
9.29
8.53
7.69
7.31
7.68
8.75
10.19
11.61
12.73
13.55
14.18
14.68
14.93
14.61
13.35
10.98
7.73
4.13
0.85
-1.58
-2.97
-3.53
-3.76
-4.28
-5.65
-8.17
-11.78
-16.07
-20.33
-23.84
-26.02
-26.61
-25.72
-23.57
-20.46
-16.6
-12.2
-7.54
-2.95
1.16
4.53
7.13
9.17
10.94
12.67
14.36
15.86
16.93
17.42
17.34
16.87
16.26
15.83
15.73
15.94
16.23
16.2
15.54
14.13
12.13
9.87
7.71
5.79
4.06
2.38
0.62
-1.24
-3.18
-5.22
-7.46
-10.12
-13.26
-16.8
-20.31
-23.25
-25.03
-25.33
-24.13
-21.77
-18.73
-15.45
-12.17
-8.91
-5.58
-2.06
1.59
5.19
8.43
11.08
13.02
14.25
14.85
14.91
14.54
13.88
13.14
12.54
12.28
12.43
12.9
13.51
13.99
14.07
13.56
12.37
10.58
8.43
6.25
4.33
2.75
1.33
-0.27
-2.43
-5.31
-8.74
-12.29
-15.42
-17.69
-18.82
-18.71
-17.39
-14.96
-11.6
-7.59
-3.27
1.06
5.16
8.94
12.36
15.38
17.83
19.54
20.31
20.14
19.24
17.94
16.65
15.62
14.87
14.23
13.45
12.33
10.78
8.87
6.79
4.71
2.77
1.01
-0.56
-1.9
-3.05
-4.03
-5
-6.13
-7.59
-9.45
-11.69
-14.28
-17.19
-20.34
-23.53
-26.38
-28.34
-28.85
-27.59
-24.6
-20.27
-15.21
-10.03
-5.13
-0.64
3.54
7.6
11.7
15.84
19.78
23.14
25.51
26.66
26.7
26
25.11
24.48
24.26
24.34
24.41
24.19
23.49
22.31
20.75
18.95
17.03
15.05
13.05
11.05
9.11
7.29
5.62
4.13
2.72
1.24
-0.52
-2.74
-5.56
-8.96
-12.79
-16.83
-20.87
-24.66
-28
-30.68
-32.46
-33.17
-32.69
-31.07
-28.5
-25.26
-21.6
-17.71
-13.6
-9.21
-4.53
0.33
5.09
9.4
12.98
15.72
17.68
19
19.83
20.25
20.25
19.9
19.35
18.83
18.56
18.58
18.76
18.8
18.43
17.53
16.19
14.58
12.93
11.36
9.94
8.64
7.41
6.11
4.63
2.86
0.78
-1.47
-3.69
-5.71
-7.5
-9.22
-11.12
-13.41
-16.13
-19.16
-22.28
-25.3
-28.06
-30.41
-32.09
-32.77
-32.18
-30.29
-27.31
-23.62
-19.57
-15.3
-10.77
-5.88
-0.68
4.49
9.14
12.89
15.58
17.39
18.58
19.42
19.96
20.17
20.03
19.65
19.23
18.91
18.73
18.59
18.33
17.88
17.27
16.57
15.78
14.78
13.43
11.65
9.58
7.52
5.81
4.67
4.13
3.99
3.98
3.82
3.34
2.49
1.23
-0.5
-2.78
-5.59
-8.83
-12.22
-15.42
-18.24
-20.65
-22.85
-25.03
-27.21
-29.2
-30.64
-31.21
-30.76
-29.43
-27.49
-25.24
-22.75
-19.91
-16.53
-12.57
-8.16
-3.63
0.61
4.28
7.23
9.49
11.17
12.42
13.34
13.96
14.29
14.33
14.13
13.78
13.42
13.17
13.07
13.06
12.93
12.42
11.29
9.52
7.35
5.22
3.57
2.62
2.29
2.24
2.06
1.48
0.45
-0.88
-2.36
-3.95
-5.77
-8.01
-10.76
-13.96
-17.38
-20.75
-23.88
-26.66
-29.08
-30.99
-32.16
-32.28
-31.12
-28.64
-25.11
-21.01
-16.85
-13
-9.59
-6.54
-3.64
-0.73
2.27
5.31
8.28
11.03
13.44
15.49
17.13
18.35
19.09
19.38
19.39
19.39
19.71
20.53
21.74
22.98
23.79
23.77
22.77
20.94
18.62
16.21
13.97
12.06
10.48
9.14
7.85
6.46
4.82
2.9
0.8
-1.33
-3.35
-5.21
-6.93
-8.62
-10.41
-12.44
-14.83
-17.62
-20.75
-24
-27.05
-29.5
-31.06
-31.54
-30.96
-29.48
-27.34
-24.77
-21.96
-19.05
-16.06
-13.02
-9.92
-6.81
-3.81
-1.04
1.35
3.31
4.84
5.96
6.69
7.05
7.08
6.89
6.67
6.57
6.66
6.85
7
6.96
6.7
6.35
6.05
5.9
5.74
5.26
4.19
2.44
0.2
-2.14
-4.22
-5.88
-7.28
-8.75
-10.68
-13.3
-16.65
-20.56
-24.7
-28.58
-31.67
-33.53
-33.9
-32.78
-30.41
-27.2
-23.53
-19.69
-15.87
-12.18
-8.69
-5.5
-2.63
-0.08
2.18
4.11
5.61
6.57
6.95
6.86
6.53
6.24
6.19
6.48
7.04
7.73
8.41
8.95
9.33
9.52
9.53
9.35
8.99
8.49
7.9
7.27
6.56
5.65
4.32
2.41
-0.1
-3.01
-5.98
-8.71
-11.06
-13.27
-15.74
-18.86
-22.67
-26.75
-30.35
-32.62
-33
-31.4
-28.17
-23.95
-19.35
-14.76
-10.3
-5.91
-1.48
3.01
7.49
11.73
15.48
18.46
20.46
21.45
21.57
21.17
20.65
20.36
20.49
21.08
21.9
22.64
22.95
22.6
21.54
19.94
18.08
16.26
14.64
13.19
11.77
10.19
8.34
6.26
3.99
1.59
-0.99
-3.8
-6.82
-10
-13.23
-16.57
-20.1
-23.94
-28
-31.87
-34.86
-36.22
-35.41
-32.41
-27.73
-22.16
-16.46
-11.1
-6.17
-1.5
3.08
7.54
11.67
15.14
17.71
19.34
20.24
20.71
21.05
21.35
21.57
21.5
20.99
20.03
18.76
17.47
16.42
15.73
15.25
14.62
13.44
11.41
8.53
5.08
1.49
-1.77
-4.48
-6.69
-8.64
-10.71
-13.2
-16.24
-19.81
-23.73
-27.7
-31.28
-33.99
-35.3
-34.81
-32.4
-28.37
-23.38
-18.18
-13.32
-8.95
-4.88
-0.85
3.28
7.33
10.98
13.95
16.17
17.82
19.12
20.19
20.97
21.29
21
20.11
18.81
17.38
16.09
15.12
14.5
14.13
13.79
13.17
11.96
9.95
7.15
3.78
0.26
-2.99
-5.71
-7.89
-9.77
-11.68
-13.93
-16.71
-19.93
-23.33
-26.42
-28.62
-29.32
-28.15
-25.1
-20.62
-15.4
-10.1
-5.02
-0.06
5.1
10.65
16.36
21.66
25.96
28.94
30.74
31.81
32.58
33.24
33.65
33.56
32.85
31.63
30.21
28.92
27.86
26.9
25.78
24.21
22.09
19.43
16.39
13.04
9.42
5.53
1.39
-2.8
-6.81
-10.39
-13.51
-16.41
-19.52
-23.16
-27.33
-31.5
-34.79
-36.34
-35.72
-33.05
-28.94
-24.13
-19.16
-14.16
-9
-3.5
2.32
8.24
13.86
18.85
23.04
26.38
28.9
30.64
31.72
32.28
32.49
32.55
32.55
32.45
32.16
31.57
30.72
29.74
28.78
27.86
26.82
25.42
23.43
20.85
17.85
14.72
11.68
8.77
5.95
3.12
0.19
-2.92
-6.32
-10.15
-14.46
-19.04
-23.38
-26.77
-28.53
-28.37
-26.46
-23.36
-19.73
-15.99
-12.24
-8.36
-4.1
0.64
5.78
11.03
16
20.23
23.39
25.31
26.05
25.91
25.33
24.8
24.69
25.11
25.87
26.59
26.83
26.28
24.95
23.08
21.08
19.27
17.68
16.09
14.14
11.57
8.4
4.97
1.74
-0.97
-3.15
-5.15
-7.44
-10.36
-13.96
-17.93
-21.86
-25.44
-28.52
-31.11
-33.16
-34.46
-34.66
-33.46
-30.79
-26.9
-22.28
-17.38
-12.53
-7.75
-2.89
2.19
7.46
12.7
17.45
21.25
23.81
25.1
25.46
25.4
25.45
25.88
26.68
27.56
28.24
28.51
28.35
27.78
26.81
25.32
23.27
20.74
18.01
15.45
13.33
11.69
10.24
8.59
6.42
3.66
0.52
-2.64
-5.55
-8.09
-10.36
-12.66
-15.27
-18.42
-22.07
-25.88
-29.32
-31.75
-32.64
-31.77
-29.23
-25.44
-20.88
-16.03
-11.18
-6.47
-1.92
2.44
6.5
10.06
12.89
14.78
15.61
15.43
14.41
12.9
11.29
9.96
9.17
9.07
9.57
10.47
11.46
12.16
12.26
11.54
9.9
7.48
4.56
1.56
-1.1
-3.07
-4.27
-4.85
-5.28
-6.07
-7.69
-10.32
-13.85
-17.86
-21.81
-25.16
-27.52
-28.67
-28.51
-27.05
-24.42
-20.92
-16.96
-12.98
-9.27
-5.88
-2.63
0.76
4.45
8.33
12.06
15.22
17.52
18.85
19.35
19.29
18.86
18.18
17.35
16.42
15.53
14.79
14.27
13.97
13.81
13.61
13.12
12.13
10.51
8.28
5.63
2.88
0.39
-1.58
-2.98
-4.03
-5.07
-6.49
-8.59
-11.48
-15.07
-19.12
-23.23
-26.88
-29.46
-30.47
-29.71
-27.34
-23.88
-20.05
-16.48
-13.54
-11.21
-9.2
-7.11
-4.59
-1.54
1.92
5.47
8.68
11.21
12.8
13.42
13.26
12.58
11.71
10.94
10.46
10.33
10.56
11.07
11.64
12.06
12.13
11.75
10.94
9.82
8.52
7.12
5.66
4.07
2.36
0.49
-1.49
-3.53
-5.57
-7.62
-9.68
-11.81
-14.11
-16.61
-19.3
-22.01
-24.42
-26.16
-26.9
-26.49
-25
-22.68
-19.81
-16.65
-13.3
-9.76
-6.05
-2.24
1.49
4.91
7.76
9.91
11.32
12.03
12.16
11.85
11.32
10.84
10.63
10.82
11.36
11.96
12.3
12.12
11.41
10.37
9.27
8.27
7.28
6.09
4.55
2.68
0.76
-0.87
-2.05
-2.89
-3.72
-4.91
-6.7
-9.11
-12.03
-15.33
-18.84
-22.38
-25.67
-28.25
-29.58
-29.26
-27.21
-23.79
-19.67
-15.62
-12.19
-9.57
-7.6
-5.9
-4.07
-1.91
0.55
3.09
5.47
7.51
9.19
10.63
11.91
13.01
13.77
14.03
13.67
12.83
11.88
11.19
11.06
11.39
11.81
11.81
11.01
9.33
6.98
4.29
1.61
-0.86
-3.03
-4.88
-6.45
-7.85
-9.26
-10.92
-13.01
-15.57
-18.45
-21.37
-23.96
-25.92
-27.06
-27.28
-26.59
-25.01
-22.62
-19.55
-16.03
-12.36
-8.76
-5.42
-2.39
0.4
3.01
5.48
7.7
9.52
10.75
11.33
11.38
11.19
11.1
11.32
11.9
12.72
13.59
14.33
14.83
15.07
14.99
14.55
13.63
12.15
10.19
7.91
5.54
3.26
1.12
-0.95
-3.08
-5.35
-7.72
-10.06
-12.24
-14.26
-16.26
-18.45
-21
-23.87
-26.76
-29.22
-30.75
-30.98
-29.76
-27.22
-23.7
-19.64
-15.47
-11.48
-7.77
-4.3
-0.96
2.31
5.41
8.14
10.26
11.67
12.54
13.23
14.14
15.46
17.03
18.38
19.04
18.82
17.94
16.9
16.18
15.91
15.78
15.3
14.09
12.17
9.93
7.87
6.25
4.95
3.63
1.95
-0.17
-2.47
-4.58
-6.28
-7.76
-9.45
-11.88
-15.31
-19.57
-24.11
-28.09
-30.81
-31.8
-31.06
-28.93
-26.01
-22.84
-19.77
-16.85
-13.9
-10.72
-7.3
-3.78
-0.45
2.42
4.71
6.42
7.57
8.18
8.29
8.06
7.83
8
8.85
10.32
12.01
13.35
13.89
13.51
12.4
10.91
9.36
7.85
6.38
4.87
3.29
1.66
0.06
-1.52
-3.13
-4.94
-7.12
-9.79
-12.96
-16.39
-19.7
-22.4
-24.11
-24.67
-24.17
-22.87
-20.99
-18.63
-15.8
-12.46
-8.66
-4.63
-0.68
2.91
6
8.6
10.8
12.71
14.35
15.7
16.69
17.3
17.59
17.65
17.64
17.71
17.89
18.14
18.27
18.08
17.37
16.14
14.53
12.78
11.14
9.71
8.43
7.08
5.49
3.55
1.35
-0.94
-3.1
-5.01
-6.74
-8.5
-10.62
-13.34
-16.75
-20.69
-24.77
-28.47
-31.27
-32.75
-32.67
-31.03
-28.04
-24.05
-19.47
-14.68
-9.93
-5.37
-1.06
2.96
6.64
9.94
12.82
15.3
17.42
19.23
20.81
22.19
23.4
24.43
25.2
25.62
25.59
25.09
24.22
23.11
21.95
20.82
19.71
18.55
17.32
16.01
14.72
13.5
12.32
11.06
9.49
7.46
4.97
2.16
-0.62
-3.07
-5
-6.52
-7.92
-9.62
-11.93
-14.97
-18.65
-22.64
-26.5
-29.7
-31.69
-32.09
-30.82
-28.18
-24.75
-21.13
-17.72
-14.52
-11.25
-7.56
-3.33
1.31
6.02
10.43
14.28
17.38
19.61
20.88
21.15
20.57
19.5
18.41
17.75
17.73
18.31
19.13
19.76
19.82
19.14
17.8
16.03
14.11
12.18
10.24
8.18
5.94
3.63
1.47
-0.32
-1.67
-2.76
-3.88
-5.29
-7.08
-9.22
-11.61
-14.26
-17.22
-20.44
-23.69
-26.45
-28.08
-28.12
-26.45
-23.44
-19.76
-16.1
-12.9
-10.24
-7.93
-5.64
-3.12
-0.37
2.44
5.05
7.29
9.09
10.52
11.58
12.18
12.2
11.62
10.67
9.83
9.57
10.12
11.31
12.62
13.4
13.24
12.1
10.19
7.89
5.52
3.27
1.29
-0.33
-1.56
-2.59
-3.7
-5.3
-7.65
-10.79
-14.33
-17.62
-19.98
-20.87
-20.16
-18.04
-15.01
-11.57
-8.17
-5.06
-2.3
0.15
2.41
4.55
6.62
8.63
10.54
12.25
13.59
14.45
14.74
14.53
13.99
13.39
12.96
12.9
13.25
13.96
14.88
15.76
16.32
16.2
15.19
13.24
10.5
7.28
4.01
1.04
-1.44
-3.42
-5.07
-6.7
-8.57
-10.86
-13.56
-16.53
-19.5
-22.16
-24.23
-25.44
-25.55
-24.41
-21.96
-18.44
-14.31
-10.23
-6.77
-4.18
-2.34
-0.82
0.83
2.75
4.8
6.63
7.99
8.93
9.75
10.78
12.15
13.7
15.09
16.02
16.42
16.49
16.52
16.71
17.01
17.15
16.81
15.75
13.94
11.53
8.84
6.23
4.01
2.39
1.39
0.79
0.23
-0.71
-2.39
-5
-8.47
-12.48
-16.53
-20.07
-22.64
-23.97
-24.01
-22.95
-21.07
-18.73
-16.22
-13.77
-11.52
-9.48
-7.55
-5.52
-3.15
-0.34
2.86
6.16
9.22
11.78
13.76
15.26
16.41
17.29
17.86
18.02
17.8
17.37
17
16.91
17.12
17.41
17.45
16.93
15.74
14
11.96
9.86
7.8
5.75
3.58
1.26
-1.08
-3.26
-5.06
-6.43
-7.53
-8.65
-10.12
-12.13
-14.71
-17.73
-20.97
-24.13
-26.96
-29.16
-30.44
-30.56
-29.43
-27.16
-23.98
-20.26
-16.32
-12.37
-8.49
-4.65
-0.88
2.74
5.98
8.58
10.33
11.22
11.43
11.31
11.2
11.32
11.73
12.35
13.04
13.72
14.32
14.75
14.9
14.64
13.86
12.62
11.04
9.33
7.62
5.98
4.39
2.8
1.16
-0.58
-2.47
-4.51
-6.64
-8.72
-10.6
-12.2
-13.66
-15.33
-17.6
-20.67
-24.38
-28.03
-30.69
-31.45
-29.85
-26.08
-20.9
-15.31
-10.23
-6.1
-2.84
-0.06
2.62
5.3
7.83
9.93
11.54
12.89
14.33
16.08
17.99
19.59
20.37
20.12
19.07
17.8
16.88
16.57
16.68
16.75
16.32
15.12
13.2
10.86
8.45
6.29
4.53
3.2
2.21
1.37
0.48
-0.66
-2.18
-4.11
-6.37
-8.84
-11.41
-14.12
-17.05
-20.33
-23.95
-27.7
-31.1
-33.53
-34.42
-33.46
-30.72
-26.65
-21.86
-16.93
-12.26
-8.03
-4.23
-0.79
2.38
5.33
8.07
10.55
12.75
14.62
16.14
17.3
18.07
18.47
18.56
18.43
18.17
17.85
17.53
17.22
17.01
16.92
16.95
17.03
16.99
16.64
15.81
14.42
12.49
10.14
7.52
4.82
2.17
-0.27
-2.43
-4.31
-5.98
-7.63
-9.45
-11.57
-14.08
-16.98
-20.21
-23.58
-26.74
-29.13
-30.1
-29.23
-26.45
-22.23
-17.39
-12.82
-9.15
-6.48
-4.49
-2.68
-0.65
1.68
4.07
6.18
7.74
8.71
9.3
9.81
10.49
11.39
12.43
13.39
14.16
14.7
15.1
15.45
15.76
15.92
15.75
15.11
14.01
12.61
11.14
9.74
8.41
7
5.3
3.25
0.97
-1.28
-3.25
-4.84
-6.17
-7.56
-9.4
-11.98
-15.36
-19.3
-23.34
-26.85
-29.22
-30.07
-29.28
-27.08
-23.89
-20.2
-16.43
-12.79
-9.35
-6.04
-2.77
0.52
3.83
7.09
10.17
12.88
15.11
16.74
17.81
18.41
18.67
18.69
18.5
18.13
17.59
16.9
16.03
14.97
13.67
12.12
10.43
8.75
7.29
6.15
5.22
4.22
2.79
0.74
-1.81
-4.47
-6.8
-8.57
-9.97
-11.52
-13.82
-17.25
-21.74
-26.76
-31.44
-34.89
-36.44
-35.77
-33.05
-28.77
-23.62
-18.27
-13.17
-8.54
-4.35
-0.49
3.03
6.17
8.85
11.13
13.22
15.31
17.47
19.54
21.24
22.36
22.92
23.17
23.42
23.81
24.25
24.48
24.27
23.59
22.61
21.56
20.52
19.3
17.55
14.96
11.53
7.61
3.78
0.58
-1.77
-3.43
-4.94
-6.92
-9.87
-13.92
-18.82
-24.01
-28.77
-32.46
-34.62
-35.07
-33.89
-31.39
-27.97
-24.06
-20.02
-16.1
-12.42
-9
-5.88
-3.09
-0.7
1.28
2.89
4.31
5.76
7.42
9.3
11.17
12.67
13.55
13.74
13.48
13.11
12.87
12.79
12.67
12.17
10.99
9.05
6.48
3.62
0.85
-1.5
-3.37
-4.89
-6.47
-8.59
-11.61
-15.59
-20.16
-24.61
-28.02
-29.69
-29.27
-26.96
-23.29
-18.89
-14.31
-9.82
-5.53
-1.4
2.57
6.3
9.65
12.46
14.58
15.99
16.78
17.14
17.37
17.7
18.22
18.87
19.42
19.67
19.52
19
18.26
17.39
16.37
15.13
13.57
11.62
9.33
6.8
4.18
1.67
-0.5
-2.18
-3.39
-4.47
-5.97
-8.49
-12.37
-17.35
-22.63
-27.09
-29.74
-30.03
-28.12
-24.64
-20.46
-16.27
-12.41
-8.92
-5.65
-2.46
0.68
3.66
6.34
8.63
10.52
12.12
13.62
15.18
16.88
18.69
20.37
21.62
22.18
21.96
21.11
19.98
18.99
18.39
18.19
18.1
17.72
16.73
15.01
12.73
10.14
7.56
5.18
3.09
1.28
-0.36
-2.03
-4.03
-6.71
-10.3
-14.79
-19.84
-24.8
-28.86
-31.31
-31.73
-30.08
-26.69
-22.14
-17.1
-12.14
-7.67
-3.81
-0.52
2.42
5.22
7.97
10.65
13.14
15.33
17.13
18.52
19.48
19.95
19.94
19.51
18.84
18.11
17.41
16.73
15.93
14.94
13.76
12.46
11.14
9.75
8.16
6.27
4.18
2.16
0.61
-0.27
-0.56
-0.64
-0.88
-1.43
-2.06
-2.28
-1.7
-0.22
1.74
3.41
3.9
2.47
-1.33
-7.5
-15.33
-23.27
-29.11
-30.66
-26.64
-17.27
-4.31
9.68
22.35
32.46
40.08
46.11
51.45
56.43
60.71
63.63
64.66
63.51
60.11
54.42
46.56
36.91
26.3
15.85
6.58
-0.78
-6.1
-9.63
-11.79
-12.85
-12.93
-12.07
-10.5
-8.67
-7.17
-6.46
-6.69
-7.67
-8.97
-10.15
-10.96
-11.45
-11.88
-12.65
-14.13
-16.59
-19.96
-23.78
-27.25
-29.5
-29.9
-28.37
-25.42
-21.96
-18.86
-16.66
-15.39
-14.7
-14.1
-13.2
-11.74
-9.73
-7.3
-4.71
-2.23
-0.04
1.89
3.82
6.02
8.54
11.1
13.02
13.63
12.53
9.91
6.39
2.78
-0.31
-2.6
-4.17
-5.23
-6.1
-7.01
-8.18
-9.79
-11.87
-14.3
-16.77
-18.92
-20.54
-21.61
-22.35
-23
-23.72
-24.52
-25.27
-25.94
-26.61
-27.46
-28.61
-30
-31.3
-32.02
-31.66
-29.98
-27.02
-23.1
-18.62
-13.87
-9.04
-4.2
0.53
4.92
8.69
11.65
13.87
15.61
17.3
19.25
21.48
23.76
25.71
27.03
27.68
27.77
27.51
27.02
26.25
25.06
23.38
21.28
18.99
16.78
14.8
13.03
11.22
9.02
6.17
2.58
-1.55
-5.82
-9.73
-12.95
-15.33
-17.03
-18.35
-19.69
-21.34
-23.47
-26.2
-29.5
-33.27
-37.16
-40.65
-43.04
-43.75
-42.51
-39.49
-35.16
-30
-24.37
-18.33
-11.91
-5.25
1.21
6.85
11.21
14.22
16.28
18.01
19.9
22.07
24.27
26.02
26.95
27.02
26.43
25.61
24.95
24.69
24.88
25.36
25.84
25.95
25.35
23.91
21.8
19.42
17.21
15.4
13.95
12.54
10.84
8.72
6.29
3.8
1.51
-0.58
-2.63
-4.9
-7.6
-10.78
-14.38
-18.25
-22.14
-25.76
-28.75
-30.69
-31.26
-30.26
-27.7
-23.77
-18.86
-13.52
-8.35
-3.96
-0.69
1.46
2.81
3.89
5.18
6.9
8.98
11.16
13.12
14.71
15.97
17
17.89
18.63
19.18
19.53
19.72
19.8
19.74
19.38
18.5
16.95
14.79
12.29
9.83
7.73
6.08
4.75
3.47
2
0.27
-1.65
-3.68
-5.73
-7.87
-10.19
-12.81
-15.78
-19.09
-22.64
-26.19
-29.42
-31.8
-32.8
-31.98
-29.21
-24.79
-19.41
-13.94
-9.08
-5.18
-2.11
0.54
3.21
6.12
9.18
12.09
14.5
16.21
17.3
18.03
18.7
19.46
20.21
20.71
20.68
20.07
19.07
17.99
17.14
16.57
16.09
15.37
14.15
12.42
10.42
8.43
6.63
4.96
3.21
1.17
-1.26
-3.96
-6.77
-9.47
-11.95
-14.23
-16.48
-18.98
-22.04
-25.9
-30.47
-35.22
-39.21
-41.35
-40.9
-37.79
-32.75
-26.94
-21.45
-16.84
-13.01
-9.45
-5.65
-1.46
2.88
6.91
10.24
12.72
14.47
15.77
16.92
18.13
19.49
20.89
22.23
23.32
24.08
24.52
24.65
24.46
23.88
22.8
21.14
19.05
16.79
14.72
13.07
11.86
10.86
9.71
8.04
5.61
2.41
-1.38
-5.43
-9.4
-13.12
-16.6
-19.97
-23.35
-26.62
-29.41
-31.16
-31.41
-29.96
-27.02
-23.07
-18.69
-14.3
-10.09
-6.14
-2.45
0.9
3.83
6.26
8.28
9.98
11.47
12.77
13.79
14.43
14.65
14.53
14.27
14.04
13.92
13.83
13.65
13.28
12.77
12.27
11.98
11.96
12.05
11.93
11.2
9.66
7.31
4.46
1.51
-1.2
-3.49
-5.34
-6.82
-7.99
-8.89
-9.6
-10.31
-11.4
-13.33
-16.44
-20.71
-25.61
-30.2
-33.39
-34.36
-32.82
-29.15
-24.1
-18.51
-12.94
-7.61
-2.44
2.69
7.8
12.71
17.16
20.87
23.68
25.52
26.48
26.69
26.39
25.86
25.38
25.22
25.45
26
26.65
27.1
27.09
26.5
25.38
23.95
22.41
20.88
19.29
17.49
15.32
12.75
9.97
7.31
5.08
3.41
2.13
0.84
-0.94
-3.48
-6.82
-10.74
-14.9
-18.98
-22.77
-26.06
-28.58
-29.95
-29.74
-27.72
-24.04
-19.3
-14.36
-10
-6.61
-4.01
-1.65
1.1
4.46
8.19
11.63
14.18
15.52
15.83
15.67
15.63
15.99
16.68
17.35
17.68
17.56
17.09
16.5
15.93
15.39
14.76
13.87
12.61
10.91
8.7
6.02
3.03
-0.03
-2.83
-5.2
-7.18
-9.07
-11.29
-14.07
-17.37
-20.85
-24.06
-26.71
-28.83
-30.69
-32.55
-34.43
-35.97
-36.61
-35.82
-33.41
-29.59
-24.94
-20.05
-15.34
-10.92
-6.7
-2.52
1.54
5.17
7.87
9.21
9.04
7.62
5.56
3.67
2.59
2.61
3.53
4.83
5.87
6.25
5.94
5.22
4.46
3.82
3.15
2.06
0.18
-2.47
-5.52
-8.3
-10.36
-11.59
-12.37
-13.28
-14.79
-17.06
-19.83
-22.62
-24.88
-26.18
-26.18
-24.76
-21.96
-17.99
-13.18
-7.91
-2.49
2.86
7.97
12.69
16.79
20.02
22.2
23.3
23.42
22.82
21.74
20.39
18.9
17.32
15.68
14.02
12.39
10.95
9.85
9.19
8.92
8.84
8.62
7.99
6.82
5.16
3.18
1.05
-1.19
-3.59
-6.2
-9.05
-12.1
-15.21
-18.33
-21.45
-24.57
-27.6
-30.32
-32.28
-33.01
-32.12
-29.44
-25.16
-19.72
-13.78
-7.93
-2.58
2.1
6.19
9.86
13.14
15.94
18.05
19.33
19.85
19.98
20.19
20.85
22
23.35
24.43
24.83
24.44
23.41
22.06
20.69
19.52
18.6
17.89
17.23
16.43
15.23
13.43
10.97
7.96
4.7
1.51
-1.4
-4
-6.44
-8.94
-11.76
-15.05
-18.8
-22.78
-26.48
-29.17
-30.22
-29.23
-26.31
-22.06
-17.26
-12.63
-8.59
-5.12
-2.01
1
4.05
7.14
10.13
12.84
15.09
16.83
18.06
18.87
19.32
19.45
19.21
18.57
17.56
16.38
15.27
14.54
14.22
14.17
14.11
13.73
12.9
11.65
10.07
8.28
6.32
4.2
1.97
-0.3
-2.45
-4.31
-5.77
-6.83
-7.65
-8.52
-9.83
-11.91
-14.98
-19.08
-23.92
-28.94
-33.36
-36.37
-37.33
-35.98
-32.48
-27.51
-21.93
-16.59
-11.96
-8.09
-4.66
-1.22
2.56
6.72
11.02
15.11
18.66
21.5
23.6
25.02
25.84
26.07
25.68
24.66
23.11
21.32
19.67
18.5
17.96
17.87
17.8
17.3
16.19
14.66
13.18
12.21
11.87
11.88
11.7
10.83
9.15
6.87
4.46
2.26
0.39
-1.32
-3.17
-5.36
-8
-11.02
-14.37
-17.98
-21.72
-25.33
-28.39
-30.4
-30.95
-29.9
-27.49
-24.19
-20.54
-16.88
-13.25
-9.47
-5.32
-0.72
4.11
8.76
12.73
15.71
17.64
18.73
19.32
19.66
19.84
19.74
19.25
18.31
17.04
15.74
14.7
14.13
14.03
14.22
14.39
14.31
13.83
12.95
11.72
10.17
8.35
6.19
3.69
0.97
-1.76
-4.21
-6.12
-7.37
-8.11
-8.63
-9.42
-10.9
-13.37
-16.92
-21.39
-26.37
-31.26
-35.29
-37.68
-37.8
-35.38
-30.65
-24.32
-17.4
-10.91
-5.51
-1.43
1.64
4.23
6.85
9.77
12.95
16.1
18.82
20.82
21.96
22.37
22.34
22.22
22.27
22.56
22.95
23.15
22.84
21.87
20.19
17.94
15.33
12.54
9.8
7.27
5.1
3.33
1.87
0.5
-1
-2.73
-4.63
-6.46
-7.99
-9.09
-9.87
-10.59
-11.53
-12.87
-14.68
-16.96
-19.7
-22.89
-26.32
-29.54
-31.84
-32.49
-31.08
-27.74
-23.08
-17.95
-13.16
-9.09
-5.78
-2.97
-0.35
2.33
5.09
7.78
10.13
11.83
12.68
12.76
12.35
11.91
11.83
12.3
13.24
14.34
15.25
15.69
15.48
14.61
13.19
11.44
9.64
8.01
6.66
5.53
4.4
3.07
1.46
-0.34
-2.18
-3.91
-5.51
-7.08
-8.7
-10.4
-12.19
-14.2
-16.63
-19.65
-23.23
-26.91
-29.88
-31.29
-30.61
-27.93
-23.88
-19.37
-15.12
-11.46
-8.25
-5.24
-2.26
0.71
3.5
6
8.21
10.21
12.03
13.62
14.84
15.55
15.79
15.74
15.74
16.03
16.67
17.48
18.14
18.35
17.99
17.08
15.74
14.02
11.92
9.43
6.65
3.82
1.29
-0.72
-2.17
-3.3
-4.4
-5.76
-7.56
-9.85
-12.67
-16.08
-19.97
-24.04
-27.7
-30.24
-31.07
-30
-27.3
-23.62
-19.7
-16.1
-13.05
-10.46
-8.05
-5.54
-2.83
-0.06
2.5
4.51
5.75
6.19
6.05
5.68
5.46
5.65
6.25
7.05
7.68
7.83
7.39
6.54
5.65
5.08
5.01
5.25
5.36
4.84
3.43
1.27
-1.17
-3.34
-4.87
-5.78
-6.37
-7.1
-8.29
-10.06
-12.37
-15.11
-18.12
-21.24
-24.14
-26.32
-27.15
-26.14
-23.12
-18.53
-13.18
-8.03
-3.8
-0.62
1.87
4.29
7.11
10.37
13.64
16.23
17.62
17.69
16.78
15.57
14.72
14.66
15.48
17
18.84
20.61
21.92
22.55
22.42
21.57
20.14
18.3
16.19
13.93
11.58
9.19
6.82
4.43
1.99
-0.56
-3.23
-5.95
-8.62
-11.18
-13.72
-16.41
-19.51
-23.12
-27.09
-30.96
-34.1
-35.93
-36.08
-34.63
-32
-28.75
-25.4
-22.2
-19.2
-16.27
-13.28
-10.2
-7.12
-4.18
-1.52
0.78
2.68
4.1
4.98
