-22.37
-20.91
-17.03
-11.41
-4.92
1.44
6.84
10.73
13
13.83
13.57
12.51
10.83
8.61
6
3.27
0.8
-1.03
-2.09
-2.54
-2.8
-3.25
-4.05
-4.99
-5.76
-6.08
-6
-5.89
-6.26
-7.46
-9.53
-12.16
-14.89
-17.38
-19.59
-21.64
-23.71
-25.72
-27.34
-28.03
-27.36
-25.17
-21.62
-17.14
-12.22
-7.36
-2.98
0.58
3.12
4.62
5.3
5.56
5.86
6.49
7.47
8.63
9.7
10.54
11.15
11.66
12.18
12.72
13.17
13.3
12.9
11.82
10.02
7.56
4.59
1.35
-1.94
-5.15
-8.26
-11.31
-14.25
-16.83
-18.57
-18.85
-17.19
-13.46
-8.07
-1.89
4.07
8.96
12.42
14.61
16.01
17.12
18.12
18.93
19.31
19.14
18.63
18.15
18.06
18.45
19.09
19.59
19.61
19.07
18.1
16.88
15.49
13.85
11.83
9.41
6.71
3.97
1.42
-0.89
-3.05
-5.18
-7.41
-9.68
-11.9
-13.96
-15.77
-17.24
-18.24
-18.51
-17.77
-15.83
-12.78
-9.05
-5.24
-1.99
0.27
1.39
1.44
0.63
-0.85
-2.74
-4.79
-6.72
-8.34
-9.59
-10.62
-11.6
-12.67
-13.72
-14.48
-14.57
-13.78
-12.12
-9.91
-7.62
-5.8
-4.97
-5.47
-7.31
-10.08
-12.99
-15.05
-15.42
-13.7
-10.1
-5.32
-0.27
4.23
7.78
10.39
12.36
14.11
15.87
17.7
19.49
21.17
22.88
24.94
27.83
31.95
37.46
44.17
51.6
59.11
66.1
72.12
76.87
80.19
82
82.28
81.01
78.18
73.83
68.1
61.27
53.74
45.86
37.72
29.03
19.18
7.61
-5.89
-20.76
-35.72
-49.05
-59.09
-64.76
-65.81
-62.73
-56.55
-48.54
-39.95
-31.97
-25.62
-21.57
-20.06
-20.75
-22.78
-25.01
-26.33
-26.03
-23.94
-20.4
-16.01
-11.29
-6.55
-1.82
2.98
7.9
12.71
17
20.32
22.34
23.01
22.56
21.36
19.8
18.13
16.48
14.83
13.15
11.38
9.51
7.48
5.23
2.65
-0.27
-3.49
-6.84
-10.07
-12.96
-15.37
-17.33
-19.04
-20.76
-22.7
-24.84
-26.87
-28.33
-28.76
-27.88
-25.71
-22.52
-18.72
-14.67
-10.67
-6.94
-3.72
-1.29
0.13
0.47
-0.09
-1.08
-1.95
-2.2
-1.54
0.07
2.43
5.17
7.84
10.01
11.38
11.87
11.62
10.87
9.89
8.81
7.63
6.28
4.69
2.92
1.12
-0.5
-1.76
-2.62
-3.21
-3.85
-4.94
-6.79
-9.48
-12.72
-15.9
-18.29
-19.32
-18.8
-16.97
-14.31
-11.32
-8.35
-5.6
-3.1
-0.9
0.96
2.46
3.68
4.78
5.98
7.39
8.99
10.66
12.2
13.47
14.41
15.05
15.39
15.41
15.01
14.03
12.37
10.06
7.22
4.14
1.12
-1.61
-3.97
-6.04
-8
-10.02
-12.2
-14.48
-16.69
-18.64
-20.25
-21.62
-22.94
-24.44
-26.14
-27.79
-28.86
-28.77
-27.13
-23.92
-19.6
-14.93
-10.7
-7.44
-5.25
-3.86
-2.8
-1.66
-0.26
1.34
2.91
4.28
5.42
6.47
7.62
8.97
10.44
11.76
12.61
12.73
12
10.51
8.46
6.16
3.87
1.77
-0.15
-2.07
-4.3
-7.11
-10.62
-14.61
-18.64
-22.09
-24.41
-25.26
-24.62
-22.77
-20.23
-17.55
-15.22
-13.55
-12.61
-12.26
-12.3
-12.48
-12.68
-12.85
-13.02
-13.16
-13.23
-13.08
-12.52
-11.42
-9.65
-7.16
-3.92
0.04
4.63
9.66
14.81
19.72
24.07
27.62
30.31
32.22
33.49
34.3
34.83
35.24
35.63
35.99
36.14
35.77
34.58
32.46
29.62
26.53
23.87
22.18
21.71
22.36
23.78
25.61
27.55
29.48
31.33
33.08
34.67
36.06
37.27
38.33
39.33
40.27
41.05
41.47
41.29
40.49
39.23
37.86
36.68
35.82
35.1
34.17
32.61
30.21
27.07
23.52
20.02
16.88
14.2
11.85
9.47
6.65
3.1
-1.17
-5.76
-10.01
-13.34
-15.52
-16.73
-17.27
-17.14
-15.77
-12.11
-5.21
5.19
18.32
32.59
46.24
57.9
66.8
72.58
74.91
73.38
67.9
59.22
49.08
39.74
32.83
28.38
24.47
18.12
6.86
-9.72
-29.53
-48.85
-64.04
-73.19
-76.79
-77.06
-76.6
-77.02
-78.43
-79.9
-80.34
-79.32
-77.25
-74.92
-72.94
-71.27
-69.25
-66.07
-61.21
-54.83
-47.71
-40.9
-35.22
-31.01
-27.92
-25.18
-22.01
-17.98
-13.23
-8.34
-4
-0.57
2.07
4.5
7.39
11.18
15.78
20.66
25.06
28.37
30.34
31.19
31.41
31.55
31.94
32.63
33.36
33.78
33.6
32.84
31.76
30.77
30.07
29.56
28.83
27.44
25.16
22.25
19.28
16.93
15.64
15.38
15.77
16.27
16.46
16.19
15.48
14.44
13.19
11.82
10.44
9.27
8.58
8.64
9.62
11.53
14.25
17.48
20.87
24.01
26.53
28.18
28.87
28.69
27.74
26.11
23.8
20.77
17.02
12.66
7.78
2.45
-3.41
-9.95
-17.23
-25.16
-33.32
-40.98
-47.32
-51.59
-53.39
-52.79
-50.27
-46.55
-42.33
-38.03
-33.73
-29.41
-25.05
-20.88
-17.3
-14.61
-12.76
-11.32
-9.61
-7.18
-4.07
-0.9
1.46
2.3
1.5
-0.41
-2.53
-4.06
-4.65
-4.6
-4.56
-5.24
-7.06
-9.95
-13.55
-17.36
-21.01
-24.17
-26.67
-28.2
-28.49
-27.27
-24.46
-20.23
-15.01
-9.25
-3.3
2.75
9.01
15.6
22.4
28.95
34.52
38.28
39.59
38.17
34.24
28.47
21.84
15.51
10.38
6.94
5.1
4.25
3.64
2.72
1.45
0.2
-0.53
-0.52
-0.06
0.24
-0.25
-1.72
-3.89
-6.14
-7.97
-9.28
-10.39
-11.82
-13.9
-16.51
-19.06
-20.79
-21.08
-19.77
-17.2
-14.06
-11.04
-8.54
-6.53
-4.68
-2.58
-0.03
2.74
5.22
6.85
7.33
6.79
5.67
4.51
3.63
3.07
2.62
2.05
1.27
0.37
-0.51
-1.3
-2.13
-3.21
-4.67
-6.47
-8.32
-9.92
-11.03
-11.68
-12.07
-12.42
-12.8
-13.07
-13
-12.46
-11.58
-10.72
-10.21
-10.15
-10.2
-9.74
-8.1
-4.97
-0.58
4.37
8.88
12.12
13.6
13.28
11.54
8.96
6.28
4.12
2.87
2.58
2.93
3.29
2.97
1.54
-0.98
-4.06
-6.84
-8.47
-8.45
-6.86
-4.24
-1.4
0.94
2.43
3.16
3.56
4.09
4.98
6.13
7.19
7.76
7.69
7.08
6.31
5.82
5.89
6.62
7.91
9.53
11.28
12.96
14.43
15.58
16.4
16.85
16.95
16.73
16.16
15.19
13.8
11.99
9.9
7.72
5.64
3.73
1.96
0.18
-1.75
-3.82
-5.9
-7.69
-8.92
-9.49
-9.5
-9.25
-9.08
-9.24
-9.76
-10.46
-11.02
-11.21
-10.9
-10.24
-9.54
-9.17
-9.39
-10.24
-11.59
-13.13
-14.53
-15.5
-15.78
-15.28
-14.05
-12.32
-10.5
-9.06
-8.31
-8.29
-8.7
-9.07
-9.01
-8.38
-7.44
-6.66
-6.57
-7.49
-9.34
-11.73
-14.09
-15.9
-16.83
-16.87
-16.27
-15.43
-14.82
-14.85
-15.71
-17.26
-18.98
-20.09
-19.86
-17.95
-14.75
-11.29
-8.87
-8.43
-10.08
-13.1
-16.24
-18.42
-19.16
-18.71
-17.77
-17.07
-16.97
-17.27
-17.42
-16.68
-14.46
-10.47
-4.8
2.17
9.93
17.92
25.72
33
39.51
45.02
49.36
52.53
54.74
56.43
58.1
60.1
62.49
65.04
67.41
69.24
70.48
71.31
72.13
73.28
74.94
76.9
78.71
79.83
79.89
78.86
76.87
74.07
70.33
65.31
58.68
50.49
41.3
31.91
22.9
14.25
5.38
-4.42
-15.32
-26.66
-37.08
-45.16
-50.07
-51.89
-51.54
-50.17
-48.69
-47.47
-46.43
-45.27
-43.72
-41.68
-39.16
-36.31
-33.25
-30.09
-26.95
-23.88
-20.95
-18.19
-15.6
-13.18
-10.94
-8.89
-7.03
-5.29
-3.55
-1.69
0.34
2.49
4.58
6.35
7.56
8.05
7.66
6.24
3.69
-0.01
-4.61
-9.55
-14.02
-17.19
-18.5
-17.88
-15.86
-13.3
-11.15
-10.13
-10.48
-11.93
-13.83
-15.46
-16.33
-16.39
-15.98
-15.61
-15.61
-15.92
-16.16
-15.94
-15.22
-14.47
-14.49
-15.87
-18.73
-22.51
-26.34
-29.5
-31.71
-33.2
-34.37
-35.49
-36.43
-36.83
-36.3
-34.74
-32.43
-29.88
-27.57
-25.68
-24.08
-22.45
-20.44
-17.92
-15.04
-12.21
-9.93
-8.66
-8.64
-9.77
-11.64
-13.6
-15.01
-15.43
-14.75
-13.18
-11.17
-9.11
-7.31
-5.88
-4.77
-3.85
-2.81
-1.18
1.62
5.98
11.82
18.44
24.61
29.16
31.44
31.64
30.58
29.21
28.1
27.25
26.23
24.63
22.33
19.56
16.73
14.17
11.97
10.12
8.53
7.18
6.12
5.35
4.81
4.37
3.94
3.49
3.05
2.69
2.44
2.26
2.06
1.77
1.43
1.17
1.13
1.35
1.7
1.83
1.33
-0.1
-2.48
-5.46
-8.53
-11.17
-13.03
-14.08
-14.43
-14.26
-13.71
-12.86
-11.76
-10.48
-9.1
-7.68
-6.29
-5.01
-3.99
-3.35
-3.15
-3.28
-3.51
-3.61
-3.55
-3.59
-4.17
-5.67
-8.16
-11.38
-14.77
-17.79
-20.05
-21.42
-22
-21.91
-21.35
-20.46
-19.37
-18.14
-16.76
-15.1
-13.04
-10.54
-7.73
-4.88
-2.32
-0.27
1.24
2.22
2.76
2.94
2.91
2.96
3.53
5.04
7.65
11.09
14.77
17.99
20.41
22.09
23.43
24.77
26.11
26.98
26.73
24.94
21.7
17.61
13.54
10.29
8.23
7.3
7.1
7.08
6.73
5.65
3.58
0.45
-3.61
-8.29
-13.12
-17.55
-21.14
-23.49
-24.45
-24.13
-22.9
-21.31
-19.94
-19.12
-18.82
-18.61
-17.95
-16.42
-13.96
-10.89
-7.72
-4.91
-2.68
-1.06
0.05
0.63
0.69
0.22
-0.59
-1.36
-1.67
-1.19
0.16
2.22
4.64
7.05
9.19
10.98
12.46
13.72
14.81
15.7
16.32
16.59
16.43
15.83
14.83
13.55
12.31
11.5
11.49
12.46
14.25
16.3
17.9
18.39
17.5
15.42
12.68
9.88
7.49
5.68
4.45
3.71
3.38
3.41
3.73
4.18
4.57
4.7
4.5
4.01
3.4
2.86
2.51
2.42
2.55
2.83
3.23
3.73
4.33
4.98
5.56
5.91
5.91
5.51
4.75
3.78
2.7
1.63
0.61
-0.28
-0.87
-0.98
-0.48
0.63
2.04
3.24
3.66
2.88
0.88
-1.93
-4.85
-7.17
-8.44
-8.61
-7.96
-6.9
-5.75
-4.56
-3.24
-1.59
0.43
2.71
5.03
7.2
9.21
11.29
13.72
16.72
20.23
23.94
27.33
29.84
31.1
31.01
29.71
27.59
25.11
22.7
20.59
18.67
16.44
13.17
8.17
1.14
-7.61
-17.19
-26.51
-34.69
-41.48
-47.35
-53.23
-60.09
-68.5
-78.43
-89.24
-99.82
-108.94
-115.51
-118.94
-119.3
-117.38
-114.36
-111.35
-108.89
-106.58
-103.06
-96.31
-84.32
-65.95
-41.59
-13.35
15.45
41.31
61.64
75.42
83.21
86.46
86.72
85.1
82.2
78.45
74.29
70.22
66.63
63.53
60.61
57.41
53.64
49.29
44.62
39.96
35.69
32.17
29.75
28.7
29.1
30.72
33.06
35.56
37.87
39.83
41.48
42.75
43.44
43.21
41.88
39.57
36.77
34.11
32
30.46
29.09
27.34
24.88
21.79
18.51
15.62
13.63
12.67
12.58
12.93
13.21
12.93
11.7
9.36
6.07
2.42
-0.67
-2.23
-1.63
1.04
4.88
8.41
10.12
9.08
5.29
-0.33
-6.41
-11.78
-15.93
-19.16
-22.13
-25.19
-28.02
-29.52
-28.35
-23.69
-15.71
-5.67
4.64
13.59
20.28
24.56
26.7
27.03
25.78
23.2
19.87
16.7
14.61
14.05
14.67
15.54
15.58
14.19
11.43
7.84
4
0.17
-3.69
-7.76
-12
-16.14
-19.83
-22.86
-25.35
-27.48
-29.34
-30.78
-31.42
-30.95
-29.33
-26.85
-24
-21.23
-18.8
-16.9
-15.62
-15.05
-15.18
-15.82
-16.6
-17.04
-16.86
-16.01
-14.76
-13.44
-12.24
-11.15
-9.98
-8.56
-6.84
-4.97
-3.14
-1.47
0.03
1.4
2.58
3.47
3.9
3.81
3.34
2.81
2.62
3.11
4.4
6.42
8.9
11.47
13.7
15.21
15.69
14.96
13.07
10.26
6.96
3.73
1.11
-0.4
-0.52
0.84
3.62
7.57
12.36
17.53
22.65
27.31
31.25
34.47
37.19
39.8
42.72
46.13
49.91
53.58
56.54
58.26
58.55
57.6
55.8
53.53
50.95
47.82
43.66
37.88
30.03
19.96
7.99
-5.19
-18.56
-31.07
-41.95
-51.01
-58.65
-65.69
-72.84
-80.4
-88.03
-95.03
-100.71
-104.81
-107.58
-109.51
-111
-112.17
-112.92
-113.15
-113.01
-112.87
-113.07
-113.71
-114.49
-114.78
-113.82
-110.93
-105.47
-96.86
-84.41
-67.49
-45.84
-20
8.37
36.58
61.46
80.12
90.69
92.84
87.67
77.39
64.66
52.01
41.32
33.59
28.91
26.61
25.67
25.2
24.74
24.36
24.54
25.73
28.19
31.87
36.52
41.95
47.96
54.21
60.05
64.45
66.28
64.64
59.31
50.86
40.56
29.99
20.63
13.52
9.14
7.41
7.84
9.74
12.46
15.56
18.89
22.52
26.66
31.45
36.75
42.21
47.24
51.22
53.67
54.35
53.47
51.62
49.69
48.7
49.43
52.18
56.66
62.11
67.56
72.32
76.2
79.6
83.28
87.8
92.99
97.67
99.7
96.45
85.62
65.95
37.8
3.17
-34.89
-73.09
-108.74
-140.17
-166.68
-187.96
-203.6
-212.84
-214.62
-208.03
-192.78
-169.52
-139.96
-106.72
-72.96
-41.86
-16.04
2.95
14.81
20.37
21.12
18.79
15.05
11.25
8.43
7.18
7.58
9.15
11.02
12.24
12.08
10.21
6.8
2.39
-2.21
-6.12
-8.63
-9.4
-8.6
-6.78
-4.57
-2.23
0.44
3.93
8.58
14.2
20.12
25.35
29.18
31.38
32.2
32.07
31.3
29.94
27.92
25.23
22.12
19.01
16.4
14.63
13.79
13.71
14.1
14.65
15.15
15.5
15.65
15.52
15.02
14.05
12.57
10.63
8.35
5.84
3.22
0.61
-1.86
-4.04
-5.82
-7.16
-8.09
-8.74
-9.3
-9.93
-10.72
-11.63
-12.52
-13.23
-13.63
-13.76
-13.79
-14.11
-15.11
-17.08
-20.01
-23.6
-27.27
-30.37
-32.37
-32.99
-32.27
-30.6
-28.56
-26.81
-25.84
-25.82
-26.51
-27.39
-27.85
-27.5
-26.32
-24.61
-22.71
-20.83
-18.73
-15.85
-11.44
-4.85
4.15
15.25
27.55
39.83
50.9
59.92
66.62
71.2
74.05
75.42
75.26
73.3
69.36
63.65
56.79
49.58
42.66
36.17
29.8
23.03
15.51
7.33
-0.86
-8.04
-13.26
-16.02
-16.43
-15.22
-13.32
-11.54
-10.24
-9.32
-8.45
-7.29
-5.79
-4.19
-2.83
-2.01
-1.83
-2.16
-2.71
-3.1
-2.92
-1.83
0.3
3.39
7.03
10.6
13.45
14.98
14.8
12.86
9.33
4.57
-1
-7.03
-13.26
-19.53
-25.65
-31.43
-36.66
-41.27
-45.39
-49.37
-53.66
-58.42
-63.37
-67.84
-71.04
-72.47
-72.19
-70.73
-68.74
-66.68
-64.53
-62
-58.72
-54.5
-49.41
-43.61
-37.25
-30.44
-23.38
-16.54
-10.68
-6.68
-5.09
-5.85
-8.12
-10.57
-11.76
-10.82
-7.7
-3.25
1.15
4.18
5.07
3.79
1.02
-2.27
-5.2
-7.25
-8.33
-8.71
-8.75
-8.8
-9.17
-10.09
-11.64
-13.68
-15.85
-17.58
-18.28
-17.54
-15.3
-11.81
-7.55
-3.03
1.32
5.24
8.63
11.45
13.76
15.57
16.86
17.38
16.72
14.46
10.58
5.75
1.37
-0.9
0.16
4.66
11.45
18.52
23.84
26.24
25.76
23.46
20.82
19.07
18.86
20.19
22.68
25.76
28.89
31.64
33.69
34.79
34.77
33.44
30.75
26.77
21.81
16.37
11.01
6.13
1.87
-1.81
-5.08
-7.94
-10.19
-11.52
-11.68
-10.65
-8.76
-6.44
-4.09
-1.88
0.26
2.46
4.74
6.87
8.46
9.11
8.6
7.07
4.96
2.77
0.83
-0.84
-2.47
-4.35
-6.6
-9.05
-11.45
-13.53
-15.21
-16.59
-17.92
-19.46
-21.42
-23.87
-26.75
-29.79
-32.56
-34.51
-35.24
-34.58
-32.68
-29.99
-27.05
-24.25
-21.73
-19.44
-17.22
-15.01
-12.9
-11.05
-9.64
-8.76
-8.43
-8.63
-9.39
-10.75
-12.72
-15.25
-18.18
-21.26
-24.2
-26.75
-28.7
-29.9
-30.26
-29.78
-28.65
-27.25
-26
-25.1
-24.29
-22.89
-20.15
-15.66
-9.69
-3.15
2.8
7.27
9.97
11.13
11.19
10.57
9.45
8.07
6.88
6.62
8.11
11.79
17.5
24.41
31.39
37.4
41.88
44.79
46.5
47.42
47.93
48.12
47.98
47.41
46.37
44.96
43.33
41.68
40.14
38.72
37.35
35.88
34.18
32.24
30.2
28.3
26.81
25.89
25.55
25.6
25.79
25.83
25.57
24.98
24.13
23.12
22.01
20.82
19.53
18.17
16.83
15.59
14.42
13.21
11.78
10.1
8.34
6.87
6.21
6.72
8.48
11.17
14.22
17.07
19.32
20.95
22.16
23.26
24.47
25.82
27.19
28.35
29.18
29.68
30.02
30.45
31.19
32.29
33.68
35.29
37.07
39.09
41.47
44.31
47.67
51.54
55.85
60.49
65.2
69.44
72.38
72.98
70.35
63.96
53.85
40.64
25.26
8.75
-8
-24.29
-39.62
-53.56
-65.7
-75.66
-83.12
-87.9
-90.11
-90.19
-88.82
-86.74
-84.57
-82.55
-80.61
-78.36
-75.44
-71.69
-67.23
-62.49
-57.98
-54.14
-51.19
-48.99
-47.25
-45.57
-43.71
-41.66
-39.52
-37.38
-35.14
-32.42
-28.77
-23.85
-17.69
-10.76
-3.8
2.44
7.5
11.31
14.1
16.21
17.78
18.78
18.99
18.28
16.69
14.45
11.9
9.36
7.02
4.98
3.31
2.13
1.63
2.02
3.51
6.16
9.83
14.15
18.64
22.84
26.41
29.24
31.36
32.94
34.1
34.97
35.61
36.13
36.69
37.53
38.99
41.42
45.12
50.17
56.29
62.91
69.29
74.81
79.25
82.76
85.76
88.68
91.74
94.96
98.15
100.99
103.05
103.75
102.37
98.25
90.99
80.69
67.7
52.36
34.58
13.76
-10.83
-39.26
-70.4
-101.82
-130.36
-153.13
-168.48
-176.29
-177.74
-174.56
-168.32
-160.03
-150.22
-139.09
-126.74
-113.25
-98.68
-83.14
-66.86
-50.39
-34.4
-19.53
-6.18
5.61
15.95
24.85
32.08
37.33
40.41
41.63
41.75
41.68
42.09
43.06
44.06
44.26
42.99
40.08
35.9
31.09
26.29
21.91
18.09
14.86
12.28
10.53
9.84
10.42
12.27
15.2
18.78
22.57
26.15
29.3
31.95
34.22
36.34
38.62
41.32
44.54
48
51.04
52.77
52.39
49.58
44.74
38.9
33.36
29.24
27.01
26.39
26.56
26.43
25.12
22.07
17.13
10.47
2.52
-6.06
-14.53
-22.16
-28.48
-33.3
-36.82
-39.36
-41.25
-42.61
-43.28
-42.97
-41.43
-38.6
-34.7
-30.07
-25.15
-20.39
-16.3
-13.44
-12.31
-13.26
-16.2
-20.55
-25.3
-29.36
-31.86
-32.45
-31.33
-29.13
-26.54
-24.13
-22.11
-20.44
-18.96
-17.54
-16.14
-14.78
-13.45
-12.05
-10.44
-8.55
-6.53
-4.75
-3.63
-3.48
-4.31
-5.85
-7.64
-9.19
-10.2
-10.52
-10.17
-9.21
-7.74
-5.92
-3.98
-2.2
-0.85
-0.04
0.36
0.66
1.26
2.48
4.46
7.19
10.64
14.66
19.06
23.41
27.01
28.95
28.46
25.17
19.47
12.4
5.3
-0.78
-5.44
-8.95
-11.85
-14.49
-16.67
-17.77
-17.28
-15.28
-12.68
-10.78
-10.55
-12.03
-14.23
-15.78
-15.74
-14.2
-12.15
-10.81
-10.79
-11.74
-12.55
-12.15
-10.11
-6.91
-3.51
-0.85
0.76
1.65
2.57
4.3
7.28
11.57
16.8
22.4
27.79
32.54
36.44
39.5
41.8
43.4
44.29
44.44
43.92
42.93
41.87
41.13
40.89
41.1
41.4
41.35
40.59
38.97
36.64
33.99
31.58
30.05
29.98
31.66
35.01
39.55
44.39
48.55
51.18
51.95
51.24
50.08
49.7
51
54.05
57.96
61.26
62.57
61.12
57.07
51.24
44.65
38.19
32.36
27.45
23.5
20.25
17.04
12.86
6.82
-1.37
-10.93
-20.25
-27.53
-31.54
-32.19
-30.4
-27.56
-24.75
-22.36
-20.18
-17.94
-15.95
-15.37
-18.08
-26.08
-40.84
-62.99
-92.18
-127.1
-165.49
-204.04
-238.52
-264.55
-278.57
-278.94
-266.31
-243.03
-211.83
-174.64
-132.44
-86.09
-37.72
8.67
47.85
75.32
89.23
91.25
85.77
77.91
71.4
67.48
64.9
61.1
53.42
40.19
21.1
-2.87
-29.89
-57.72
-84.31
-108.03
-127.83
-143.09
-153.36
-158.17
-157.06
-149.89
-137.03
-119.48
-98.66
-76.07
-53.14
-31.14
-11.17
5.95
19.89
31
40.11
48.18
55.82
63.06
69.5
74.77
78.76
81.6
83.4
83.97
82.95
80.11
75.77
70.72
65.91
61.95
58.77
55.82
52.41
48.07
42.8
36.93
30.9
25.17
20.01
15.59
11.88
8.71
5.81
2.96
0.07
-2.75
-5.25
-7.18
-8.34
-8.71
-8.42
-7.74
-6.91
-6.04
-4.92
-3.13
-0.16
4.3
10.18
17
24.03
30.44
35.4
38.15
38.22
35.63
31.18
26.34
22.85
21.92
23.62
26.75
29.31
29.41
26.07
19.6
11.32
2.92
-4.22
-9.48
-13.01
-15.43
-17.35
-19.05
-20.36
-20.84
-20.17
-18.51
-16.43
-14.79
-14.29
-15.15
-17.19
-19.91
-22.91
-26.02
-29.26
-32.55
-35.58
-37.66
-37.99
-36.04
-31.9
-26.31
-20.41
-15.33
-11.68
-9.42
-7.96
-6.58
-4.73
-2.27
0.61
3.62
6.43
8.91
11
12.8
14.45
16.18
18.15
20.33
22.49
24.12
24.83
24.46
23.3
21.93
20.89
20.35
19.99
19.16
17.24
13.99
9.63
4.7
-0.19
-4.69
-8.67
-12.2
-15.29
-17.83
-19.63
-20.61
-20.87
-20.78
-20.76
-21.01
-21.31
-21.18
-19.98
-17.43
-13.7
-9.42
-5.39
-2.22
-0.12
1.1
1.77
2.23
2.69
3.26
4.09
5.33
7.07
9.15
11.15
12.53
12.91
12.27
10.96
9.54
8.53
8.17
8.41
9
9.71
10.44
11.27
12.26
13.26
13.76
13.07
10.61
6.29
0.72
-4.87
-9.15
-11.25
-11.17
-9.85
-8.66
-8.78
-10.64
-13.82
-17.29
-19.86
-20.6
-18.97
-14.96
-9.04
-2.29
3.82
7.61
7.72
3.61
-4.18
-14.13
-24.21
-32.46
-37.52
-38.85
-36.67
-31.74
-25.05
-17.68
-10.65
-4.76
-0.43
2.33
3.97
5.17
6.5
8.25
10.36
12.47
14.19
15.29
15.69
15.44
14.56
13.11
11.25
9.35
7.92
7.45
8.16
9.92
12.27
14.66
16.66
18.13
19.15
19.96
20.7
21.39
21.86
21.92
21.35
19.99
17.75
14.45
9.84
3.7
-4.04
-13
-22.42
-31.38
-39.27
-46.07
-52.36
-58.88
-66.01
-73.48
-80.45
-85.98
-89.49
-90.91
-90.55
-88.77
-85.79
-81.72
-76.78
-71.37
-66.02
-61.04
-56.31
-51.25
-45.13
-37.36
-27.73
-16.29
-3.1
11.82
28.37
46.22
64.65
82.73
99.58
114.57
127.32
137.61
145.16
149.68
151.05
149.55
146.02
141.74
138.05
135.98
135.85
137.2
138.84
139.11
136.29
129.17
117.43
101.91
84.33
66.75
50.85
37.49
26.58
17.4
9.06
0.99
-6.89
-14.2
-20.36
-24.96
-27.89
-29.32
-29.59
-29
-27.68
-25.6
-22.77
-19.45
-16.02
-12.95
-10.47
-8.4
-6.27
-3.66
-0.52
2.73
5.33
6.64
6.29
4.29
0.79
-4.04
-9.96
-16.52
-23.01
-28.59
-32.77
-35.6
-37.64
-39.5
-41.48
-43.35
-44.7
-45.45
-46.06
-47.28
-49.63
-52.99
-56.63
-59.89
-62.54
-64.99
-67.84
-71.26
-74.73
-77.35
-78.45
-78.12
-77.29
-77.09
-78.24
-80.55
-83.1
-84.84
-85.13
-83.87
-81.22
-77.13
-71.02
-61.94
-49.03
-32.16
-12.21
9.03
29.35
46.83
60.35
69.78
75.64
78.57
78.88
76.4
70.76
61.93
50.67
38.67
28.17
21.24
19.16
21.95
28.56
37.23
46.12
53.74
59.18
62.08
62.43
60.41
56.34
50.66
44.01
37.22
31.06
26.02
22.03
18.44
14.36
9.03
2.27
-5.36
-12.81
-18.96
-23.1
-25.1
-25.33
-24.35
-22.61
-20.4
-17.89
-15.29
-12.85
-10.8
-9.23
-8.09
-7.24
-6.62
-6.31
-6.54
-7.53
-9.3
-11.63
-14.07
-16.12
-17.35
-17.47
-16.35
-14.05
-10.78
-6.79
-2.42
2.03
6.41
10.71
15.01
19.36
23.73
27.98
31.93
35.54
38.95
42.43
46.23
50.37
54.69
58.89
62.83
66.78
71.37
77.37
85.1
94.18
103.39
110.97
115.07
114.32
108.11
96.59
80.56
61.16
39.76
17.93
-2.58
-20.05
-33.24
-41.83
-46.61
-49.19
-51.34
-54.17
-57.77
-61.36
-63.88
-64.69
-63.93
-62.33
-60.65
-59.23
-57.77
-55.74
-52.76
-48.96
-44.92
-41.38
-38.75
-36.98
-35.63
-34.16
-32.31
-30.3
-28.67
-27.99
-28.43
-29.59
-30.67
-30.87
-29.84
-27.84
-25.6
-23.83
-22.86
-22.5
-22.22
-21.47
-19.94
-17.72
-15.13
-12.56
-10.3
-8.6
-7.63
-7.55
-8.37
-9.87
-11.49
-12.51
-12.19
-10.21
-6.87
-3.19
-0.59
-0.36
-3.06
-8.22
-14.47
-20.14
-23.91
-25.36
-24.83
-23.06
-20.67
-17.89
-14.63
-10.91
-7.06
-3.77
-1.76
-1.48
-2.88
-5.46
-8.51
-11.29
-13.17
-13.76
-12.92
-10.75
-7.58
-3.9
-0.12
3.41
6.48
8.96
10.78
11.95
12.59
12.96
13.4
14.15
15.28
16.58
17.74
18.45
18.49
17.79
16.4
14.51
12.4
10.4
8.83
7.85
7.36
7
6.23
4.61
1.93
-1.59
-5.48
-9.16
-12.27
-14.84
-17.23
-19.9
-23.12
-26.75
-30.29
-33.21
-35.17
-36.28
-37.08
-38.27
-40.41
-43.75
-48.11
-52.75
-56.46
-57.54
-53.98
-43.9
-26.15
-0.88
30.02
63.14
94.28
119.59
136.68
145.15
146.43
142.87
136.77
129.56
121.74
113.29
104.17
94.61
85.06
75.89
67.14
58.66
50.31
42.33
35.34
30.11
27.18
26.61
27.89
30.08
32.16
33.18
32.53
29.91
25.2
18.47
9.84
-0.41
-11.84
-23.82
-35.6
-46.45
-55.72
-62.99
-67.95
-70.47
-70.71
-69.21
-66.87
-64.65
-63.14
-62.19
-61.02
-58.51
-53.81
-46.77
-37.99
-28.52
-19.43
-11.46
-4.94
0.1
3.78
6.25
7.76
8.65
9.4
10.44
12.12
14.53
17.57
20.97
24.41
27.63
30.41
32.67
34.38
35.46
35.87
35.63
34.84
33.77
32.76
32.06
31.84
32.04
32.52
33.08
33.57
33.91
34.08
34.08
33.93
33.64
33.12
32.23
30.76
28.51
25.4
21.54
17.22
12.83
8.66
4.79
1.14
-2.49
-6.23
-10.04
-13.67
-16.8
-19.16
-20.6
-21.11
-20.74
-19.56
-17.63
-15.06
-11.97
-8.6
-5.21
-2.05
0.68
2.8
4.18
4.74
4.55
3.83
2.89
2.04
1.44
1
0.5
-0.39
-2.04
-4.82
-9.14
-15.35
-23.47
-32.98
-42.63
-50.79
-55.99
-57.54
-55.78
-51.81
-46.91
-42.04
-37.67
-34.04
-31.44
-30.37
-31.23
-33.98
-37.83
-41.35
-43.03
-41.87
-37.79
-31.52
-24.21
-16.89
-10.23
-4.56
0.11
3.85
6.84
9.25
11.28
13.12
14.9
16.55
17.91
18.69
18.62
17.55
15.54
12.81
9.75
6.81
4.45
3
2.57
3.01
4.06
5.35
6.6
7.65
8.5
9.26
10.17
11.44
13.15
15.05
16.61
17.12
16
13.13
8.84
3.87
-1.06
-5.43
-9.06
-11.97
-14.13
-15.41
-15.56
-14.4
-11.91
-8.23
-3.55
2.02
8.32
15.11
21.91
28.06
32.91
36.03
37.34
37.02
35.29
32.31
28.22
23.17
17.48
11.59
5.9
0.67
-4.05
-8.28
-12.01
-15.15
-17.59
-19.31
-20.46
-21.23
-21.72
-21.82
-21.21
-19.6
-16.89
-13.33
-9.37
-5.52
-2.2
0.28
1.73
2.04
1.22
-0.48
-2.6
-4.48
-5.58
-5.6
-4.7
-3.32
-2.06
-1.45
-1.78
-3.06
-5.07
-7.44
-9.84
-12.11
-14.28
-16.59
-19.2
-22.04
-24.71
-26.63
-27.34
-26.69
-24.96
-22.75
-20.65
-19.04
-18
-17.4
-17.02
-16.74
-16.51
-16.33
-16.25
-16.34
-16.61
-16.95
-17.23
-17.21
-16.75
-15.76
-14.41
-13.09
-12.27
-12.47
-14.03
-16.94
-20.84
-25.08
-28.91
-31.73
-33.21
-33.32
-32.18
-30.04
-27.15
-23.77
-20.22
-16.79
-13.72
-11.14
-9.06
-7.43
-6.18
-5.28
-4.62
-4.05
-3.33
-2.27
-0.9
0.52
1.53
1.82
1.36
0.46
-0.33
-0.61
-0.32
0.25
0.68
0.69
0.37
0.06
0.13
0.7
1.49
1.96
1.55
-0.02
-2.63
-5.84
-9.15
-12.2
-14.86
-17.21
-19.36
-21.38
-23.23
-24.82
-26
-26.65
-26.63
-25.83
-24.15
-21.57
-18.26
-14.53
-10.79
-7.3
-4.16
-1.14
2.12
5.98
10.67
16.16
22.21
28.37
34.18
39.13
42.82
45.01
45.65
44.88
43
40.4
37.43
34.4
31.57
29.17
27.45
26.61
26.75
27.88
29.79
32.15
34.54
36.53
37.78
38.04
37.22
35.38
32.74
29.7
26.77
24.46
23.16
23.04
24.01
25.8
28.08
30.66
33.49
36.7
40.4
44.47
48.54
51.98
54.08
54.27
52.31
48.35
42.9
36.57
29.97
23.45
17.09
10.67
3.84
-3.86
-12.75
-22.85
-33.76
-44.66
-54.5
-62.36
-67.75
-70.77
-72.02
-72.27
-72.16
-71.98
-71.83
-71.73
-71.79
-72.14
-72.7
-73.06
-72.66
-70.96
-67.85
-63.76
-59.43
-55.52
-52.26
-49.36
-46.22
-42.35
-37.7
-32.59
-27.54
-22.89
-18.66
-14.6
-10.5
-6.34
-2.35
1.1
3.71
5.38
6.29
6.72
6.99
7.27
7.59
7.86
7.93
7.65
6.93
5.76
4.21
2.38
0.38
-1.71
-3.77
-5.74
-7.53
-9.16
-10.71
-12.21
-13.54
-14.35
-14.12
-12.49
-9.49
-5.66
-1.91
0.89
2.31
2.6
2.45
2.69
3.86
6.04
8.9
11.95
14.73
16.92
18.37
19.04
19.01
18.41
17.46
16.41
15.49
14.84
14.51
14.4
14.33
14.09
13.39
12.05
10.01
7.44
4.73
2.34
0.69
-0.09
-0.15
0.1
0.21
-0.17
-1.18
-2.75
-4.76
-7.17
-10.04
-13.41
-17.12
-20.72
-23.52
-24.87
-24.41
-22.25
-18.88
-14.96
-11
-7.27
-3.74
-0.22
3.49
7.48
11.6
15.53
18.78
20.95
21.86
21.62
20.69
19.63
18.88
18.57
18.55
18.55
18.29
17.67
16.67
15.3
13.51
11.31
8.77
6.06
3.4
0.9
-1.47
-3.83
-6.21
-8.43
-10.26
-11.45
-11.93
-11.92
-11.79
-12.01
-13
-15.01
-18
-21.66
-25.37
-28.47
-30.39
-30.79
-29.68
-27.3
-23.98
-19.99
-15.52
-10.67
-5.61
-0.59
4.07
8.03
11.07
13.1
14.18
14.48
14.23
13.64
12.82
11.8
10.55
9.13
7.71
6.59
6.05
6.21
6.96
7.92
8.67
8.84
8.27
7
5.23
3.19
1.1
-0.84
-2.46
-3.58
-4.14
-4.24
-4.19
-4.38
-5.2
-6.86
-9.27
-12.08
-14.74
-16.69
-17.55
-17.32
-16.31
-15.09
-14.2
-13.9
-14.13
-14.64
-15.26
-15.98
-17.07
-18.75
-20.95
-23.28
-25.17
-26.22
-26.43
-26.14
-25.82
-25.79
-26.16
-26.8
-27.6
-28.46
-29.18
-29.28
-28.02
-24.58
-18.52
-10.08
-0.3
9.35
17.48
23.24
26.6
28.17
28.83
29.35
30.21
31.53
33.26
35.37
38.06
41.74
46.97
54.23
63.6
74.51
85.57
94.87
100.38
100.52
94.67
83.33
68
50.8
34.02
19.77
9.71
4.92
5.61
11.11
19.8
29.54
38.16
44.11
46.95
47.37
46.8
46.77
48.38
52.03
57.47
64.11
71.24
78.15
84.01
87.87
88.8
86.23
80.2
71.45
61.17
50.53
40.42
31.37
23.61
17.38
13.03
10.9
11.11
13.41
17.03
20.89
23.86
25.12
24.4
22.03
18.79
15.54
12.97
11.37
10.69
10.53
10.2
8.71
4.81
-2.7
-14.47
-29.96
-47.17
-63.13
-74.96
-81.17
-82.22
-80.27
-77.94
-77.05
-77.94
-79.56
-80.26
-78.61
-73.91
-66.24
-56.25
-44.87
-33.18
-22.17
-12.62
-4.87
1.33
6.64
11.94
17.87
24.63
31.85
38.61
43.46
44.68
40.69
30.59
14.73
-5.11
-26.09
-45.07
-59.54
-68.27
-71.41
-70.11
-65.89
-60.1
-53.54
-46.52
-38.97
-30.73
-21.68
-11.85
-1.44
9.16
19.48
28.97
37.19
43.89
49.06
52.87
55.57
57.42
58.54
59.07
59.05
58.55
57.61
56.26
54.58
52.62
50.4
47.87
44.89
41.26
36.77
31.29
24.85
17.7
10.21
2.74
-4.5
-11.58
-18.72
-26.21
-34.07
-41.99
-49.27
-55.13
-58.99
-60.67
-60.39
-58.62
-55.78
-52.1
-47.81
-43.17
-38.64
-34.71
-31.71
-29.67
-28.28
-27.17
-26.11
-25.14
-24.48
-24.33
-24.67
-25.29
-25.94
-26.49
-26.89
-27.17
-27.24
-26.91
-25.98
-24.4
-22.31
-20
-17.83
-16.04
-14.73
-13.84
-13.18
-12.41
-11.1
-8.81
-5.27
-0.52
5.01
10.71
16.11
21.18
26.38
32.59
40.64
50.93
63.11
76.1
88.26
97.78
103.1
103.12
97.44
86.43
71.29
53.92
36.81
22.67
13.93
11.95
16.5
25.7
36.63
46.29
52.49
54.35
52.18
46.95
39.7
31.38
23.04
16.1
12.32
13.15
18.9
28.24
38.39
46.1
48.84
45.46
36.2
22
3.89
-17.34
-40.84
-65.26
-88.52
-108.16
-122.18
-129.82
-131.7
-129.5
-125.12
-120.01
-114.91
-110.06
-105.55
-101.6
-98.45
-96.1
-94.05
-91.3
-86.58
-78.85
-67.7
-53.55
-37.66
-21.73
-7.54
3.51
10.67
13.97
14.12
12.31
9.86
7.78
6.55
5.99
5.55
4.64
3.02
0.96
-0.99
-2.36
-3.03
-3.43
-4.2
-5.94
-8.83
-12.6
-16.71
-20.59
-23.88
-26.41
-28.19
-29.2
-29.4
-28.7
-27.06
-24.52
-21.27
-17.62
-13.89
-10.36
-7.08
-3.88
-0.46
3.39
7.69
12.23
16.71
20.94
24.96
29.11
33.88
39.85
47.42
56.77
67.72
79.75
92.01
103.49
113.26
120.7
125.59
128.09
128.71
128.18
127.31
126.69
126.4
125.72
123.28
117.42
106.83
91.1
70.89
47.82
24.14
2.25
-15.75
-28.41
-35.29
-37.07
-35.4
-32.4
-29.98
-29.22
-30.21
-32.3
-34.56
-36.24
-36.87
-36.36
-34.91
-33.14
-31.97
-32.57
-35.72
-41.48
-48.88
-56.22
-61.83
-64.77
-65.24
-64.27
-63.07
-62.34
-61.87
-60.92
-58.78
-55.3
-51.04
-46.91
-43.68
-41.58
-40.32
-39.49
-38.89
-38.78
-39.59
-41.65
-44.75
-48.17
-50.94
-52.37
-52.32
-51.21
-49.67
-48.16
-46.75
-45.18
-43.09
-40.3
-36.89
-33.03
-28.88
-24.44
-19.66
-14.59
-9.48
-4.71
-0.66
2.49
4.79
6.35
7.27
7.59
7.29
6.5
5.56
4.83
4.63
4.96
5.6
6.25
6.81
7.42
8.43
10.09
12.44
15.2
17.93
20.29
22.22
24.06
26.51
30.25
35.62
42.22
48.9
54.04
56.16
54.41
48.94
40.77
31.31
21.94
13.62
6.92
2.03
-1.04
-2.49
-2.69
-2.15
-1.38
-0.71
-0.21
0.27
0.97
2.09
3.7
5.75
8.11
10.59
13.04
15.33
17.42
19.27
20.84
21.94
22.33
21.86
20.63
19.04
17.68
17.08
17.49
18.75
20.38
21.74
22.25
21.55
19.6
16.63
13.1
9.49
6.21
3.4
0.89
-1.68
-4.72
-8.47
-12.9
-17.74
-22.64
-27.35
-31.72
-35.73
-39.31
-42.25
-44.31
-45.31
-45.32
-44.66
-43.8
-43.12
-42.71
-42.24
-41.2
-39.06
-35.54
-30.72
-25.04
-19.11
-13.56
-8.89
-5.27
-2.61
-0.49
1.53
3.74
6.11
8.31
9.94
10.72
10.68
10.09
9.27
8.42
7.55
6.52
5.26
3.85
2.48
1.47
1.04
1.25
1.97
2.85
3.48
3.46
2.53
0.74
-1.63
-4.16
-6.42
-8.2
-9.54
-10.68
-11.88
-13.23
-14.56
-15.5
-15.66
-14.8
-13.05
-10.84
-8.76
-7.2
-6.14
-5.18
-3.72
-1.36
1.79
5.23
8.21
10.21
11.18
11.42
11.33
11.07
10.58
9.68
8.37
6.92
5.76
5.23
5.41
6.11
7.02
7.95
8.86
9.86
10.99
12.24
13.46
14.51
15.26
15.73
16.03
16.42
17.19
18.57
20.53
22.77
24.75
25.92
25.86
24.45
21.83
18.37
14.54
10.92
8.11
6.64
6.75
8.27
10.54
12.65
13.79
13.6
12.34
10.71
9.44
8.97
9.16
9.49
9.25
8.03
5.88
3.36
1.34
0.57
1.45
3.87
7.29
10.95
14.11
16.23
17.08
16.74
15.48
13.69
11.74
9.82
7.98
6.07
3.86
1.08
-2.41
-6.67
-11.59
-17.04
-22.81
-28.72
-34.5
-39.81
-44.26
-47.45
-49.05
-48.9
-47
-43.64
-39.25
-34.38
-29.48
-24.88
-20.68
-16.82
-13.19
-9.73
-6.51
-3.71
-1.48
0.16
1.4
2.56
4
5.94
8.39
11.08
13.59
15.47
16.45
16.51
15.92
15.05
14.22
13.55
12.92
12.09
10.83
9.01
6.59
3.61
0.21
-3.32
-6.51
-8.8
-9.77
-9.32
-7.72
-5.5
-3.15
-0.97
0.95
2.57
3.77
4.3
3.96
2.8
1.24
-0.09
-0.67
-0.34
0.61
1.58
2.04
1.8
1.02
0.09
-0.6
-0.89
-0.87
-0.76
-0.69
-0.61
-0.32
0.35
1.45
2.79
4.05
4.93
5.27
5.02
4.26
3.02
1.39
-0.56
-2.63
-4.55
-6.07
-7.08
-7.69
-8.15
-8.76
-9.65
-10.81
-12.08
-13.15
-13.62
-13.04
-10.96
-7.18
-1.85
4.45
10.94
16.92
22.09
26.51
30.5
34.41
38.47
42.86
47.82
53.64
60.48
68.15
76.03
83.25
89.16
93.57
96.8
99.35
101.55
103.34
104.33
104.12
102.49
99.53
95.46
90.43
84.4
77.04
67.96
56.84
43.57
28.31
11.46
-6.31
-24.17
-41.26
-56.93
-70.89
-83.32
-94.7
-105.49
-115.83
-125.4
-133.57
-139.76
-143.74
-145.82
-146.67
-146.99
-147.19
-147.26
-146.74
-144.91
-140.99
-134.34
-124.61
-111.92
-96.78
-79.92
-62.1
-43.76
-25.08
-6.07
13.17
32.2
50.2
66.26
79.7
90.36
98.69
105.45
111.32
116.59
121.06
124.08
124.87
122.73
117.29
108.52
96.73
82.46
66.53
49.97
33.92
19.44
7.28
-2.39
-10.03
-16.55
-22.99
-30.11
-38
-45.98
-52.79
-57.07
-57.89
-55
-48.85
-40.2
-29.87
-18.64
-7.32
3.07
11.4
16.69
18.61
17.71
15.32
12.99
11.87
12.29
13.82
15.7
17.32
18.57
19.74
21.25
23.38
26.2
29.54
33.23
37.08
40.88
44.26
46.78
48.02
47.94
46.88
45.5
44.53
44.36
45.05
46.29
47.71
48.93
49.55
48.98
46.35
40.76
31.75
19.71
5.99
-7.5
-19.03
-27.79
-34.11
-39.13
-44.01
-49.31
-54.78
-59.64
-63.25
-65.46
-66.67
-67.35
-67.66
-67.2
-65.23
-61.12
-54.64
-46.12
-36.12
-25.13
-13.4
-1.08
11.67
24.43
36.67
47.9
57.99
67.21
76.07
85.06
94.16
102.77
109.72
113.7
113.82
109.91
102.67
93.36
83.22
73.09
63.15
53.03
42.16
30.16
16.99
3.01
-11.17
-24.92
-37.63
-48.87
-58.43
-66.38
-72.97
-78.6
-83.6
-88.15
-92.14
-95.32
-97.39
-98.15
-97.66
-96.14
-93.96
-91.43
-88.77
-86.1
-83.49
-81.17
-79.53
-79.08
-80.18
-82.81
-86.42
-90
-92.47
-93.02
-91.48
-88.3
-84.25
-80.05
-75.97
-71.81
-67.05
-61.29
-54.54
-47.29
-40.35
-34.47
-30.03
-26.98
-24.95
-23.5
-22.43
-21.8
-21.89
-22.94
-25.07
-28.17
-31.98
-36.14
-40.32
-44.21
-47.49
-49.74
-50.45
-48.99
-44.77
-37.55
-27.59
-15.53
-2.16
11.94
26.62
41.82
57.38
72.66
86.56
97.94
105.99
110.52
111.88
110.63
107.29
102.26
95.86
88.53
80.76
72.98
65.4
57.99
50.66
43.46
36.67
30.69
25.98
22.89
21.74
22.86
26.57
33.04
41.97
52.37
62.54
70.54
74.78
74.71
71.04
65.48
60
56.12
54.42
54.5
55.33
55.64
54.18
49.81
41.51
28.62
11.08
-10.23
-33.55
-56.67
-77.61
-95.11
-108.87
-119.26
-126.76
-131.66
-133.99
-133.72
-131.12
-126.73
-121.16
-114.69
-107.08
-97.61
-85.54
-70.55
-53.05
-34.01
-14.68
3.97
21.38
37.45
52.34
66.23
79.25
91.47
102.94
113.66
123.52
132.3
139.54
144.65
147.04
146.34
142.43
135.61
126.39
115.42
103.36
90.83
78.47
66.93
56.82
48.52
41.96
36.56
31.43
25.64
18.68
10.68
2.27
-5.64
-12.32
-17.38
-20.82
-22.87
-23.91
-24.38
-24.85
-25.96
-28.35
-32.34
-37.81
-44.14
-50.48
-56.01
-60.14
-62.58
-63.19
-62.02
-59.31
-55.65
-51.92
-49.06
-47.59
-47.3
-47.19
-45.98
-42.77
-37.47
-30.86
-24.13
-18.29
-13.88
-11.03
-9.81
-10.47
-13.24
-17.99
-23.9
-29.55
-33.52
-35.04
-34.41
-32.82
-31.65
-31.68
-32.71
-33.77
-33.83
-32.51
-30.27
-28.17
-27.09
-27.3
-28.31
-29.33
-29.72
-29.35
-28.54
-27.67
-26.95
-26.28
-25.45
-24.46
-23.55
-23.1
-23.31
-23.94
-24.44
-24.2
-22.87
-20.53
-17.57
-14.41
-11.3
-8.26
-5.17
-1.98
1.22
4.19
6.67
8.53
9.84
10.82
11.81
13.08
14.8
17.04
19.77
22.84
26.06
29.2
32
34.23
35.75
36.55
36.82
36.94
37.28
38.04
39.09
39.86
39.66
38.02
35.15
32.06
30.28
31.31
35.88
43.56
52.76
61.23
66.74
67.77
63.84
55.54
44.2
31.42
18.71
7.28
-2.06
-8.8
-12.77
-13.99
-12.67
-9.24
-4.36
0.97
5.54
8.13
7.89
4.73
-0.54
-6.48
-11.55
-14.72
-15.71
-14.95
-13.07
-10.51
-7.4
-3.69
0.52
4.85
8.83
12.17
15
17.81
21.16
25.33
30.3
35.82
41.6
47.43
53.05
58
61.66
63.46
63.15
61.03
57.87
54.55
51.57
48.8
45.56
40.98
34.56
26.33
16.96
7.41
-1.51
-9.28
-15.74
-20.88
-24.72
-27.35
-29.18
-31.01
-33.94
-38.9
-45.98
-54.2
-61.74
-66.77
-68.41
-67.16
-64.66
-62.72
-62.37
-63.31
-64.21
-63.6
-60.69
-55.81
-50.18
-45.24
-42.02
-40.72
-40.79
-41.42
-41.89
-41.85
-41.3
-40.43
-39.37
-38.05
-36.39
-34.24
-31.68
-28.97
-26.47
-24.55
-23.39
-23.02
-23.21
-23.52
-23.31
-21.94
-18.96
-14.38
-8.81
-3.22
1.31
4.12
5.13
4.81
3.86
2.81
1.86
0.88
-0.19
-1.19
-1.64
-0.91
1.37
5.06
9.49
13.72
16.94
18.79
19.4
19.22
18.75
18.24
17.71
16.96
15.84
14.33
12.59
10.82
9.21
7.8
6.56
5.41
4.26
3.13
2
0.87
-0.37
-1.81
-3.51
-5.42
-7.41
-9.35
-11.17
-12.85
-14.39
-15.7
-16.67
-17.21
-17.41
-17.45
-17.59
-17.93
-18.3
-18.38
-17.82
-16.47
-14.47
-12.18
-9.92
-7.96
-6.39
-5.19
-4.31
-3.68
-3.22
-2.77
-2.18
-1.3
-0.09
1.34
2.74
3.71
3.86
2.97
1.13
-1.24
-3.48
-4.98
-5.48
-5.16
-4.6
-4.47
-5.15
-6.57
-8.22
-9.44
-9.75
-9.08
-7.78
-6.58
-6.25
-7.45
-10.36
-14.46
-18.47
-20.71
-19.72
-14.99
-7.24
1.73
9.91
15.93
19.69
22.17
24.84
28.77
34.13
40.12
45.4
48.69
49.32
47.49
44.18
40.88
39.05
39.63
42.74
47.66
53.13
57.98
61.51
63.66
64.91
65.79
66.61
67.19
66.93
65.05
60.9
54.25
45.48
35.49
25.29
15.68
6.87
-1.55
-10.26
-19.66
-29.56
-39.04
-46.87
-52.15
-54.83
-55.82
-56.64
-58.64
-62.25
-66.67
-70.02
-70.01
-64.72
-53.19
-35.78
-13.97
9.91
33.2
53.45
68.87
78.69
83.25
83.79
81.95
79.2
76.43
73.84
71.17
68.14
64.69
60.94
57.1
53.29
49.52
45.85
42.5
39.88
38.42
38.32
39.37
40.88
41.97
41.79
39.83
36.02
30.64
24.04
16.52
8.24
-0.77
-10.46
-20.69
-31.22
-41.71
-51.8
-61.16
-69.49
-76.5
-82.01
-86.02
-88.68
-90.36
-91.44
-92.28
-93.15
-94.31
-96.05
-98.62
-102.2
-106.58
-111.18
-115.05
-117.17
-116.66
-113.09
-106.51
-97.47
-86.9
-75.83
-65.31
-56.13
-48.73
-43.11
-38.92
-35.5
-32.09
-27.93
-22.54
-15.89
-8.38
-0.74
6.33
12.38
17.43
21.92
26.47
31.64
37.7
44.63
52.14
59.81
67.1
73.4
78.14
80.93
81.82
81.25
80.01
78.96
78.6
78.98
79.63
79.87
79.17
77.4
74.75
71.63
68.3
64.83
61.17
57.35
53.68
50.52
47.98
45.6
42.36
37.15
29.44
19.65
9.17
-0.33
-7.63
-12.47
-15.41
-17.4
-19.14
-20.84
-22.33
-23.41
-24.13
-24.85
-25.89
-27.24
-28.39
-28.47
-26.64
-22.62
-17.04
-11.37
-7.59
-7.37
-11.44
-19.14
-28.73
-38.07
-45.51
-50.45
-53.33
-55.01
-56.08
-56.51
-55.78
-53.46
-49.58
-44.83
-40.2
-36.49
-33.87
-31.96
-30.13
-27.93
-25.37
-22.84
-20.81
-19.63
-19.28
-19.49
-19.85
-20.14
-20.32
-20.59
-21.23
-22.55
-24.64
-27.36
-30.21
-32.38
-32.99
-31.38
-27.33
-21.16
-13.69
-5.87
1.27
6.77
9.67
9.04
4.24
-4.8
-17.14
-30.94
-43.7
-52.99
-57.06
-55.26
-48
-36.53
-22.46
-7.4
7.38
21.15
33.64
44.91
55.13
64.36
72.51
79.35
84.63
88.08
89.39
88.12
83.82
76.21
65.57
52.93
39.81
27.69
17.4
8.9
1.61
-4.92
-10.35
-13.55
-13.19
-8.7
-0.9
8.09
15.73
20.24
21.25
19.69
16.95
14
10.98
7.34
2.53
-3.56
-10.42
-17.16
-22.84
-26.84
-28.96
-29.43
-28.73
-27.48
-26.14
-24.89
-23.51
-21.56
-18.75
-15.21
-11.54
-8.59
-7.01
-6.85
-7.56
-8.26
-8.24
-7.3
-5.74
-4.19
-3.24
-3.21
-4.03
-5.43
-7.05
-8.67
-10.24
-11.76
-13.21
-14.4
-15.04
-14.86
-13.85
-12.26
-10.57
-9.21
-8.26
-7.39
-5.99
-3.53
0.14
4.78
9.91
15.17
20.66
26.9
34.58
44.11
55.29
67.23
78.68
88.45
95.73
100.3
102.34
102.24
100.48
97.47
93.44
88.42
82.04
73.65
62.48
48.14
31
12.45
-5.38
-20.28
-30.73
-36.49
-38.64
-39.15
-40.17
-43.12
-48.36
-55.15
-62.14
-68.1
-72.35
-74.97
-76.48
-77.33
-77.64
-77.14
-75.56
-72.92
-69.63
-66.3
-63.33
-60.57
-57.46
-53.31
-47.8
-41.14
-33.97
-26.95
-20.45
-14.4
-8.44
-2.24
4.22
10.64
16.47
21.21
24.58
26.68
27.78
28.27
28.41
28.27
27.8
26.94
25.74
24.33
22.93
21.64
20.5
19.48
18.59
18.02
18.01
18.66
19.82
20.91
21.08
19.63
16.24
11.22
5.36
-0.47
-5.7
-10.25
-14.48
-18.88
-23.77
-29.13
-34.61
-39.71
-43.96
-46.93
-48.32
-47.93
-45.78
-42.15
-37.56
-32.66
-27.91
-23.47
-19.13
-14.54
-9.44
-3.85
1.9
7.37
12.26
16.49
20.24
23.77
27.25
30.68
33.9
36.77
39.26
41.51
43.72
46.05
48.49
50.87
52.99
54.81
56.51
58.43
60.91
64.03
67.46
70.58
72.74
73.52
72.95
71.5
69.72
67.99
66.25
64.09
61
56.71
51.36
45.4
39.41
33.77
28.52
23.41
18.08
12.21
5.64
-1.55
-9.05
-16.42
-23.24
-29.19
-34.17
-38.23
-41.51
-44.06
-45.84
-46.74
-46.74
-45.97
-44.66
-43.08
-41.4
-39.65
-37.83
-35.93
-34.02
-32.19
-30.55
-29.15
-28
-27.05
-26.21
-25.36
-24.39
-23.25
-21.93
-20.54
-19.21
-18.1
-17.28
-16.71
-16.3
-15.89
-15.4
-14.81
-14.16
-13.58
-13.28
-13.53
-14.58
-16.57
-19.42
-22.71
-25.72
-27.64
-27.82
-26.05
-22.67
-18.43
-14.16
-10.39
-7.21
-4.29
-1.21
2.29
6.11
9.92
13.31
16.04
18.07
19.52
20.51
21.12
21.29
20.97
20.12
18.86
17.32
15.76
14.36
13.27
12.5
11.95
11.36
10.54
9.4
8.03
6.64
5.44
4.59
4.14
4.08
4.36
4.9
5.51
5.85
5.51
4.22
2
-0.75
-3.42
-5.48
-6.72
-7.35
-7.81
-8.62
-10.13
-12.41
-15.22
-18.1
-20.42
-21.53
-20.89
-18.23
-13.59
-7.4
-0.39
6.66
13.06
18.4
22.57
25.76
28.27
30.45
32.56
34.72
36.88
38.82
40.18
40.51
39.38
36.49
31.9
26.01
19.43
12.8
6.55
0.81
-4.45
-9.23
-13.39
-16.67
-18.9
-20.22
-21.11
-22.13
-23.63
-25.46
-27.05
-27.69
-26.89
-24.62
-21.33
-17.71
-14.34
-11.52
-9.22
-7.22
-5.31
-3.46
-1.92
-1.11
-1.49
-3.33
-6.66
-11.11
-16.09
-20.88
-24.83
-27.5
-28.72
-28.57
-27.34
-25.47
-23.33
-21.22
-19.3
-17.52
-15.8
-14.01
-12.1
-10.02
-7.78
-5.34
-2.65
0.29
3.44
6.61
9.61
12.27
14.67
17.08
19.93
23.67
28.48
34.21
40.32
46.05
50.58
53.25
53.66
51.75
47.74
42.06
35.25
27.77
19.96
12.01
4.06
-3.7
-11
-17.55
-23.19
-27.9
-31.88
-35.4
-38.7
-41.86
-44.74
-47.11
-48.65
-49.1
-48.26
-46.11
-42.79
-38.63
-34.08
-29.5
-25.18
-21.16
-17.42
-13.88
-10.52
-7.4
-4.61
-2.21
-0.25
1.25
2.27
2.84
2.93
2.54
1.72
0.6
-0.66
-1.85
-2.82
-3.62
-4.45
-5.57
-7.19
-9.2
-11.29
-13.11
-14.46
-15.48
-16.49
-17.82
-19.54
-21.42
-22.99
-23.72
-23.15
-20.97
-17.03
-11.43
-4.59
2.81
9.87
15.77
19.97
22.36
23.31
23.45
23.44
23.74
24.5
25.61
26.84
28.02
29.17
30.38
31.62
32.62
32.79
31.43
28.07
22.66
15.65
7.86
0.08
-7.07
-13.32
-18.71
-23.46
-27.77
-31.7
-35.13
-37.78
-39.32
-39.49
-38.22
-35.67
-32.18
-28.19
-24.13
-20.24
-16.52
-12.63
-8.05
-2.28
4.81
12.82
20.86
27.83
32.91
35.88
37.22
37.85
38.71
40.48
43.36
47.12
51.1
54.43
56.09
55.21
51.43
45.22
37.91
31.29
26.86
25.14
25.31
25.65
24.33
20.33
13.79
5.75
-2.62
-10.6
-18.12
-25.34
-32.03
-37.27
-39.67
-38.16
-32.7
-24.6
-15.97
-8.75
-3.94
-1.35
0.03
1.16
2.42
3.44
3.49
2.05
-0.79
-4.36
-7.74
-10.18
-11.43
-11.66
-11.36
-11.09
-11.42
-12.76
-15.3
-18.9
-23.06
-27.03
-29.99
-31.37
-30.88
-28.63
-24.92
-20.13
-14.57
-8.46
-2.05
4.35
10.2
14.86
17.76
18.55
17.36
14.8
11.81
9.31
7.91
7.68
8.2
8.77
8.75
7.86
6.22
4.26
2.49
1.22
0.44
-0.09
-0.65
-1.32
-1.92
-2.14
-1.79
-0.98
-0.14
0.26
0.05
-0.55
-1.02
-0.93
-0.28
0.42
0.43
-0.8
-3.22
-6.18
-8.75
-10.19
-10.23
-9.15
-7.47
-5.69
-3.98
-2.19
0.03
3.08
7.15
12.23
18.03
24.08
29.9
35.02
39.2
42.3
44.25
44.99
44.42
42.59
39.78
36.56
33.68
31.69
30.67
30.05
28.78
25.79
20.48
13.1
4.64
-3.54
-10.33
-15.33
-18.94
-22.08
-25.65
-30.1
-35.24
-40.47
-45.11
-48.87
-51.8
-54.26
-56.51
-58.48
-59.75
-59.7
-57.88
-54.24
-49.2
-43.41
-37.53
-31.81
-26.15
-20.23
-13.83
-7.1
-0.58
5.07
9.36
12.21
13.95
15.14
16.28
17.57
18.92
20.06
20.77
20.99
20.89
20.71
20.62
20.57
20.29
19.37
17.51
14.65
11.02
7.06
3.19
-0.33
-3.43
-6.18
-8.74
-11.23
-13.84
-16.87
-20.6
-25.19
-30.36
-35.36
-39.06
-40.45
-38.99
-35.03
-29.66
-24.34
-20.3
-18
-16.99
-16.19
-14.45
-11.02
-5.87
0.4
6.91
12.86
17.86
21.85
25.04
27.61
29.71
31.46
33.14
35.24
38.29
42.57
47.85
53.38
58.28
61.91
64.25
65.78
67.14
68.69
70.34
71.67
72.38
72.57
72.73
73.49
75.19
77.76
80.75
83.68
86.22
88.27
89.84
90.83
90.9
89.5
86.05
80.27
72.4
63.29
54.25
46.65
41.38
38.59
37.72
37.78
37.86
37.44
36.42
34.91
32.97
30.43
26.97
22.38
16.77
10.62
4.71
-0.17
-3.49
-5.13
-5.43
-5.07
-4.81
-5.18
-6.29
-7.73
-8.82
-8.97
-8.13
-6.95
-6.72
-8.88
-14.43
-23.46
-35.06
-47.66
-59.63
-69.84
-77.92
-84.13
-89.01
-92.96
-95.98
-97.74
-97.84
-96.03
-92.42
-87.46
-81.76
-75.84
-69.97
-64.15
-58.21
-51.98
-45.41
-38.66
-31.96
-25.54
-19.52
-14
-9.08
-4.97
-1.96
-0.24
0.24
-0.09
-0.55
-0.45
0.55
2.26
4.06
5.14
4.94
3.39
0.84
-2.04
-4.67
-6.74
-8.21
-9.21
-9.93
-10.5
-11
-11.52
-12.1
-12.68
-13.14
-13.26
-12.92
-12.2
-11.39
-10.92
-11.09
-11.9
-13.05
-14.04
-14.41
-13.84
-12.31
-9.94
-6.96
-3.55
0.14
3.96
7.7
11.11
13.95
16.04
17.39
18.08
18.33
18.35
18.31
18.34
18.5
18.79
19.11
19.28
19.1
18.49
17.44
16.1
14.72
13.43
12.26
11.09
9.76
8.16
6.31
4.37
2.45
0.59
-1.3
-3.45
-6.06
-9.2
-12.8
-16.66
-20.58
-24.51
-28.57
-33.06
-38.24
-44.14
-50.42
-56.33
-60.92
-63.26
-62.79
-59.44
-53.71
-46.42
-38.46
-30.54
-23.03
-15.92
-8.93
-1.67
6.2
14.78
23.87
33
41.51
48.89
54.94
59.85
64.07
68.06
71.95
75.41
77.7
77.89
75.23
69.39
60.59
49.51
37.18
24.7
13.06
3.02
-5.03
-10.99
-15.07
-17.71
-19.47
-20.94
-22.52
-24.43
-26.58
-28.79
-30.87
-32.83
-34.83
-37.02
-39.37
-41.49
-42.68
-42.18
-39.51
-34.68
-28.14
-20.62
-12.78
-5.03
2.41
9.36
15.52
20.47
23.88
25.77
26.63
27.3
28.52
30.48
32.64
33.93
33.29
30.23
25.18
19.23
13.72
9.62
7.27
6.45
6.74
7.89
10.03
13.51
18.62
25.33
33.14
41.31
49.02
55.63
60.76
64.21
65.84
65.47
62.85
57.74
50.15
40.34
28.89
16.55
3.98
-8.35
-20.25
-31.62
-42.36
-52.14
-60.47
-66.81
-70.75
-72.25
-71.57
-69.29
-66.1
-62.59
-59.13
-55.85
-52.7
-49.59
-46.54
-43.63
-40.98
-38.66
-36.6
-34.66
-32.76
-30.89
-29.17
-27.77
-26.8
-26.21
-25.88
-25.64
-25.37
-24.99
-24.45
-23.72
-22.82
-21.76
-20.68
-19.77
-19.19
-19.06
-19.41
-20.24
-21.56
-23.45
-25.94
-29.01
-32.56
-36.42
-40.45
-44.56
-48.66
-52.63
-56.16
-58.76
-59.82
-58.87
-55.72
-50.66
-44.33
-37.53
-30.93
-24.87
-19.27
-13.86
-8.37
-2.75
2.74
7.68
11.7
14.68
16.81
18.44
19.8
20.87
21.28
20.6
18.7
16.02
13.53
12.35
13.07
15.56
18.98
22.43
25.51
28.72
33.15
39.82
49
59.91
71
80.56
87.39
91.03
91.66
89.75
85.66
79.62
71.82
62.6
52.52
42.41
33.17
25.47
19.68
15.74
13.33
12.05
11.65
11.96
12.87
14.15
15.47
16.58
17.42
18.2
19.26
20.86
22.98
25.34
27.62
29.6
31.26
32.76
34.24
35.76
37.3
38.89
40.6
42.54
44.73
47.1
49.54
51.94
54.24
56.28
57.72
58.08
56.81
53.54
48.25
41.26
33.06
24.2
15.08
6.09
-2.47
-10.2
-16.8
-22.09
-26.21
-29.54
-32.52
-35.45
-38.31
-40.69
-41.98
-41.7
-39.78
-36.73
-33.55
-31.45
-31.42
-33.98
-38.97
-45.69
-53.05
-59.95
-65.56
-69.42
-71.51
-72.02
-71.29
-69.57
-67.09
-64.07
-60.77
-57.44
-54.27
-51.25
-48.18
-44.79
-40.93
-36.74
-32.57
-28.84
-25.76
-23.38
-21.56
-20.21
-19.42
-19.36
-20.14
-21.68
-23.57
-25.26
-26.26
-26.28
-25.28
-23.36
-20.58
-17.05
-12.97
-8.77
-5.12
-2.78
-2.29
-3.72
-6.62
-10.11
-13.15
-14.94
-15.1
-13.71
-11.26
-8.37
-5.57
-3.15
-1.17
0.46
1.88
3.21
4.5
5.84
7.37
9.2
11.3
13.49
15.39
16.6
16.91
16.4
15.43
14.45
13.81
13.63
13.82
14.17
14.57
15.07
15.93
17.37
19.57
22.41
25.6
28.73
31.49
33.79
35.78
37.83
40.28
43.31
46.79
50.33
53.39
55.57
56.72
57.02
56.91
56.89
57.37
58.49
60.1
61.96
63.78
65.38
66.75
67.94
69.06
70.2
71.45
72.95
74.71
76.52
77.73
77.31
74.09
67.21
56.6
43.2
28.74
15.25
4.34
-3.16
-7.33
-8.78
-8.24
-6.22
-2.93
1.42
6.37
11.08
14.44
15.42
13.43
8.63
1.74
-6.25
-14.5
-22.5
-30.08
-37.23
-43.88
-49.81
-54.8
-58.88
-62.4
-65.86
-69.55
-73.21
-76.09
-77.28
-76.31
-73.5
-69.85
-66.57
-64.46
-63.56
-63.21
-62.54
-60.97
-58.47
-55.57
-52.96
-51.18
-50.41
-50.54
-51.38
-52.77
-54.64
-56.93
-59.5
-62.03
-64.03
-65.01
-64.74
-63.36
-61.39
-59.48
-58.02
-56.81
-55.04
-51.61
-45.71
-37.28
-27.04
-16.22
-6.07
2.53
9.28
14.32
18.06
21.15
24.52
29.34
36.76
47.38
60.76
75.39
89.04
99.55
105.53
106.65
103.36
96.5
86.99
75.77
64.09
53.69
46.48
44.02
46.62
53.01
60.47
65.74
66.15
60.55
49.54
35.08
19.62
5.13
-7.35
-17.72
-26.37
-33.65
-39.56
-43.8
-46.01
-46.16
-44.67
-42.33
-39.92
-37.95
-36.39
-34.81
-32.68
-29.72
-26.07
-22.26
-18.95
-16.64
-15.4
-14.87
-14.44
-13.58
-12.05
-10.1
-8.36
-7.56
-8.15
-10.1
-12.88
-15.69
-17.94
-19.52
-20.9
-22.78
-25.72
-29.77
-34.42
-38.93
-42.65
-45.41
-47.47
-49.36
-51.54
-54.08
-56.66
-58.71
-59.71
-59.38
-57.8
-55.15
-51.48
-46.46
-39.57
-30.46
-19.51
-7.95
2.41
10.03
14.4
16.27
17.31
19.2
22.89
28.35
34.9
41.72
48.19
53.88
58.3
60.85
61.06
58.94
55.29
51.47
48.84
48.1
49.01
50.49
51.19
50.16
47.33
43.58
40.56
40.11
43.65
51.5
62.49
74.14
83.27
87.06
84.02
74.45
60.14
43.72
27.69
13.85
3.09
-4.47
-9.22
-11.86
-13.31
-14.56
-16.44
-19.42
-23.34
-27.44
-30.68
-32.08
-31.12
-28
-23.53
-18.82
-14.92
-12.44
-11.42
-11.36
-11.46
-10.92
-9.28
-6.55
-3.15
0.2
2.82
4.27
4.4
3.33
1.35
-1.26
-4.3
-7.69
-11.39
-15.43
-19.86
-24.75
-30.16
-36.06
-42.27
-48.44
-54.1
-58.79
-62.18
-64.09
-64.51
-63.55
-61.49
-58.7
-55.66
-52.78
-50.24
-47.91
-45.39
-42.09
-37.55
-31.5
-23.95
-15.12
-5.3
5.16
15.99
26.9
37.68
48.08
57.91
66.97
75.06
82.05
87.77
92.17
95.17
96.69
96.57
94.56
90.41
83.93
75.21
64.63
52.85
40.68
28.84
17.75
7.52
-1.96
-10.89
-19.36
-27.31
-34.62
-41.13
-46.79
-51.58
-55.56
-58.8
-61.36
-63.33
-64.79
-65.88
-66.7
-67.35
-67.85
-68.12
-67.98
-67.17
-65.41
-62.56
-58.61
-53.86
-48.74
-43.72
-39.13
-35.03
-31.25
-27.42
-23.25
-18.68
-13.89
-9.25
-5.16
-1.82
0.78
2.86
4.71
6.59
8.61
10.73
12.82
14.72
16.24
17.27
17.72
17.59
16.91
15.75
14.16
12.24
10.16
8.12
6.35
5.04
4.24
3.85
3.7
3.56
3.18
2.35
0.89
-1.26
-4.11
-7.46
-11
-14.27
-16.76
-18.13
-18.26
-17.36
-15.92
-14.47
-13.34
-12.48
-11.62
-10.34
-8.41
-5.87
-3
-0.1
2.6
5.03
7.2
9.08
10.55
11.47
11.68
11.17
10.02
8.39
6.42
4.3
2.16
0.17
-1.54
-2.91
-3.97
-4.8
-5.58
-6.43
-7.42
-8.54
-9.66
-10.64
-11.41
-12.01
-12.68
-13.69
-15.2
-17.15
-19.18
-20.79
-21.52
-21.15
-19.74
-17.58
-15.02
-12.28
-9.42
-6.28
-2.65
1.62
6.4
11.35
15.98
19.82
22.59
24.31
25.25
25.87
26.56
27.54
28.84
30.3
31.68
32.74
33.32
33.4
33.13
32.84
32.85
33.36
34.2
34.86
34.68
33.1
29.92
25.37
20.09
14.71
9.72
5.26
1.23
-2.6
-6.3
-9.83
-13.02
-15.7
-17.82
-19.36
-20.4
-21.02
-21.31
-21.43
-21.52
-21.63
-21.65
-21.22
-19.91
-17.41
-13.75
-9.32
-4.81
-0.83
2.29
4.58
6.33
7.94
9.64
11.49
13.41
15.24
16.91
18.41
19.73
20.85
21.6
21.8
21.28
20.09
18.51
16.98
15.94
15.64
16
16.69
17.22
17.21
16.52
15.18
13.4
11.39
9.27
7.14
5.06
3.13
1.45
0.07
-0.99
-1.75
-2.2
-2.2
-1.51
0.1
2.69
5.97
9.4
12.34
14.29
15.13
15.03
14.3
13.13
11.51
9.28
6.38
3
-0.42
-3.38
-5.59
-7.05
-8.05
-8.99
-10.18
-11.83
-13.94
-16.4
-18.89
-20.97
-22.22
-22.37
-21.51
-20.08
-18.66
-17.75
-17.5
-17.76
-18.23
-18.66
-19.03
-19.45
-20.06
-20.93
-22.02
-23.26
-24.59
-25.86
-26.8
-27.03
-26.2
-24.17
-21.06
-17.23
-13.05
-8.75
-4.37
0.13
4.71
9.14
13.03
16.04
17.96
18.84
18.92
18.52
17.93
17.4
17.11
17.16
17.54
18.15
18.76
19.13
19.06
18.45
17.33
15.8
14.05
12.26
10.59
9.17
8.06
7.14
6.24
5.21
3.95
2.47
0.86
-0.82
-2.53
-4.24
-5.91
-7.45
-8.74
-9.78
-10.62
-11.35
-11.99
-12.39
-12.27
-11.34
-9.46
-6.73
-3.45
0.11
3.72
7.37
11.1
14.92
18.73
22.29
25.31
27.53
28.91
29.49
29.48
29.07
28.38
27.44
26.27
24.93
23.55
22.26
21.09
19.89
18.42
16.45
13.89
10.87
7.63
4.5
1.76
-0.39
-1.83
-2.64
-3.04
-3.36
-3.96
-5.06
-6.63
-8.43
-10.13
-11.54
-12.67
-13.73
-14.99
-16.61
-18.51
-20.4
-21.84
-22.44
-21.97
-20.46
-18.26
-15.9
-13.92
-12.64
-12.12
-12.07
-11.98
-11.26
-9.41
-6.19
-1.76
3.44
8.72
13.42
17.11
19.75
21.68
23.44
25.45
27.84
30.38
32.67
34.39
35.54
36.49
37.71
39.49
41.65
43.53
44.2
42.91
39.45
34.16
27.78
21.1
14.75
9.09
4.28
0.31
-2.91
-5.55
-7.82
-9.85
-11.63
-12.95
-13.55
-13.27
-12.08
-10.08
-7.42
-4.16
-0.37
3.71
7.57
10.38
11.28
9.69
5.59
-0.36
-7.05
-13.27
-18.13
-21.28
-22.93
-23.6
-23.79
-23.77
-23.56
-23.06
-22.25
-21.31
-20.46
-19.8
-19.19
-18.28
-16.71
-14.36
-11.43
-8.35
-5.62
-3.51
-2.06
-1.07
-0.32
0.31
0.76
0.88
0.49
-0.48
-1.98
-3.9
-6.11
-8.56
-11.21
-14.01
-16.82
-19.39
-21.38
-22.49
-22.54
-21.57
-19.82
-17.61
-15.25
-12.94
-10.67
-8.31
-5.65
-2.54
1.05
5
9.09
13.02
16.49
19.29
21.28
22.5
23.07
23.17
22.96
22.49
21.81
20.98
20.04
19.05
18.01
16.71
14.91
12.41
9.26
5.78
2.5
-0.07
-1.65
-2.24
-2.12
-1.62
-1
-0.36
0.35
1.23
2.27
3.31
4.09
4.28
3.64
2.11
-0.12
-2.69
-5.14
-7.08
-8.25
-8.51
-7.85
-6.32
-4.09
-1.4
1.44
4.06
6.18
7.59
8.19
7.98
7.06
5.61
3.94
2.43
1.41
1.04
1.25
1.78
2.31
2.67
2.88
3.06
3.36
3.68
3.72
3.09
1.55
-0.81
-3.63
-6.31
-8.38
-9.65
-10.23
-10.46
-10.65
-10.96
-11.33
-11.56
-11.48
-11.06
-10.42
-9.8
-9.45
-9.57
-10.18
-11.15
-12.18
-12.82
-12.58
-11.16
-8.53
-5.03
-1.27
2.06
4.54
6
6.59
6.62
6.38
6.07
5.82
5.74
5.96
6.6
7.64
8.86
9.88
10.36
10.15
9.4
8.44
7.61
7.07
6.68
6.18
5.32
4.07
2.64
1.35
0.47
0.06
0
0.11
0.21
0.29
0.43
0.72
1.11
1.33
1
-0.24
-2.56
-5.8
-9.55
-13.3
-16.65
-19.35
-21.33
-22.6
-23.12
-22.81
-21.65
-19.74
-17.31
-14.6
-11.81
-8.96
-6.01
-2.91
0.25
3.21
5.68
7.42
8.42
8.85
8.99
9.07
9.14
9.11
8.88
8.47
8.08
8.03
8.5
9.43
10.46
11.06
10.78
9.44
7.21
4.46
1.58
-1.18
-3.7
-5.94
-7.87
-9.43
-10.66
-11.69
-12.8
-14.2
-15.93
-17.75
-19.23
-19.92
-19.56
-18.15
-15.94
-13.24
-10.4
-7.64
-5.08
-2.67
-0.24
2.44
5.51
8.88
12.2
14.99
16.82
17.59
17.49
16.97
16.47
16.22
16.24
16.37
16.35
15.94
14.89
12.98
10.11
6.39
2.23
-1.84
-5.31
-7.94
-9.79
-11.16
-12.41
-13.84
-15.58
-17.75
-20.41
-23.53
-26.93
-30.16
-32.62
-33.76
-33.42
-31.92
-30.05
-28.64
-28.17
-28.48
-28.88
-28.42
-26.42
-22.78
-18.05
-13.12
-8.88
-5.85
-4.13
-3.53
-3.85
-4.96
-6.71
-8.71
-10.2
-10.16
-7.62
-2.12
6.08
16
26.28
35.64
43.22
48.71
52.3
54.53
56.15
57.92
60.36
63.61
67.42
71.34
74.99
78.2
80.93
83.1
84.28
83.8
81.06
76.04
69.6
63.27
58.77
57.25
58.95
63.28
69.34
76.45
84.41
93.35
103.39
114.2
124.89
134.25
141.19
145.07
145.71
143.16
137.41
128.35
115.97
100.65
83.28
65
46.86
29.34
12.28
-4.76
-22.01
-39.12
-55.24
-69.43
-81.16
-90.63
-98.5
-105.58
-112.32
-118.68
-124.23
-128.45
-131.06
-132.14
-132.05
-131.17
-129.74
-127.73
-125.02
-121.49
-117.28
-112.78
-108.6
-105.39
-103.58
-103.25
-104
-105.01
-105.34
-104.27
-101.6
-97.73
-93.45
-89.54
-86.36
-83.7
-80.94
-77.41
-72.73
-66.9
-60.17
-52.81
-44.97
-36.69
-27.98
-18.98
-9.93
-1.07
7.44
15.57
23.37
30.85
37.94
44.38
49.8
53.77
55.98
56.36
55.21
53.13
50.79
48.67
46.87
45.07
42.7
39.07
33.73
26.59
18.04
9.03
0.89
-5.08
-8.15
-8.55
-7.6
-7.2
-9.13
-14.22
-22.11
-31.49
-40.74
-48.64
-54.57
-58.48
-60.5
-60.63
-58.68
-54.47
-48.06
-39.94
-30.97
-22.11
-14.16
-7.43
-1.79
3.26
8.27
13.53
18.93
24.03
28.29
31.35
33.27
34.36
34.96
35.13
34.63
33.12
30.46
26.99
23.4
20.48
18.66
17.82
17.44
17
16.38
15.92
16.19
17.62
20.1
22.99
25.33
26.27
25.42
22.92
19.33
15.42
11.82
8.95
7.03
6.19
6.55
8.18
11.03
14.84
19.22
23.62
27.67
31.22
34.37
37.4
40.5
43.64
46.54
48.84
50.22
50.65
50.34
49.65
49.02
48.8
49.24
50.51
52.69
55.65
58.84
61.06
60.57
55.65
45.43
30.69
14.01
-1.1
-11.55
-16.1
-15.86
-13.72
-12.93
-15.64
-22.15
-31.12
-40.51
-48.5
-54.1
-57.13
-57.97
-57.27
-55.85
-54.57
-54.27
-55.61
-58.8
-63.56
-69.16
-74.63
-78.95
-81.27
-81.18
-78.82
-74.92
-70.5
-66.39
-62.82
-59.36
-55.23
-49.76
-42.84
-34.99
-27.06
-19.82
-13.62
-8.48
-4.21
-0.64
2.41
5.26
8.45
12.57
17.94
24.25
30.54
35.57
38.32
38.51
36.62
33.68
30.74
28.58
27.44
27.1
27.09
26.92
26.24
25.01
23.58
22.56
22.64
24.3
27.52
31.75
35.99
39.12
40.23
38.85
35.03
29.33
22.67
16.19
10.92
7.55
6.12
6.11
6.71
7.39
8.22
9.94
13.54
19.59
27.71
36.49
43.88
47.86
47.1
41.27
30.98
17.53
2.44
-12.88
-27.31
-40.13
-51
-59.9
-67.12
-73.13
-78.43
-83.42
-88.2
-92.55
-95.91
-97.47
-96.38
-91.95
-83.83
-72.15
-57.59
-41.43
-25.38
-11.23
-0.3
7.18
12.23
16.92
23.44
33.14
45.93
60.34
74.21
85.66
93.81
98.74
101.08
101.27
99.32
94.98
88.25
79.76
70.85
63.12
57.82
55.54
56.08
58.76
62.73
67.14
71.25
74.36
75.77
74.73
70.5
62.46
50.33
34.4
15.71
-4.05
-22.83
-38.7
-50.24
-56.72
-58.09
-54.85
-48.01
-39.02
-29.62
-21.52
-15.93
-13.16
-12.51
-12.68
-12.4
-10.97
-8.36
-5
-1.37
2.32
6.14
10.1
13.83
16.34
16.22
12.07
3.04
-10.6
-27.37
-44.78
-59.85
-69.77
-72.51
-67.3
-54.79
-36.92
-16.59
2.96
18.72
28.5
31.22
27.05
17.38
4.36
-9.6
-22.45
-33.09
-41.49
-48.41
-54.65
-60.48
-65.15
-67.28
-65.54
-59.48
-50.02
-39.2
-29.4
-22.43
-19.07
-19.01
-21.44
-25.5
-30.6
-36.34
-42.26
-47.6
-51.36
-52.63
-51.04
-47.01
-41.71
-36.67
-33.2
-31.94
-32.66
-34.43
-36.1
-36.84
-36.46
-35.39
-34.2
-33.12
-31.61
-28.6
-22.9
-13.9
-1.98
11.52
24.81
36.27
44.95
50.75
54.24
56.25
57.41
57.87
57.28
55.04
50.8
44.68
37.42
30.01
23.28
17.49
12.27
6.97
1.19
-4.8
-10.12
-13.72
-15.01
-14.15
-12.01
-9.67
-7.9
-6.92
-6.52
-6.42
-6.63
-7.42
-9.14
-11.86
-15.16
-18.29
-20.51
-21.45
-21.27
-20.47
-19.52
-18.63
-17.61
-16.23
-14.38
-12.24
-10.15
-8.3
-6.55
-4.42
-1.42
2.65
7.46
12.22
16.04
18.24
18.6
17.42
15.42
13.48
12.48
13.06
15.37
18.98
22.91
25.94
27.06
25.85
22.67
18.42
14.09
10.34
7.3
4.67
2.05
-0.7
-3.42
-5.78
-7.61
-9.02
-10.41
-12.21
-14.57
-17.27
-19.93
-22.25
-24.22
-26.05
-27.96
-29.84
-31.26
-31.55
-30.19
-27.12
-22.77
-17.83
-12.92
-8.31
-3.93
0.44
4.94
9.49
13.85
17.78
21.15
23.87
25.8
26.67
26.25
24.53
21.88
19.09
17
16.14
16.5
17.53
18.49
18.83
18.43
17.67
17.18
17.43
18.61
20.38
22.09
22.99
22.48
20.42
17.08
13.05
8.99
5.33
2.26
-0.31
-2.48
-4.34
-5.83
-6.88
-7.45
-7.58
-7.28
-6.57
-5.46
-4
-2.38
-0.82
0.54
1.73
2.94
4.35
5.97
7.58
8.83
9.44
9.41
9.02
8.7
8.79
9.4
10.37
11.37
12.07
12.23
11.76
10.67
9.09
7.15
5.02
2.82
0.67
-1.38
-3.32
-5.17
-6.98
-8.77
-10.49
-12.05
-13.4
-14.55
-15.62
-16.81
-18.34
-20.32
-22.75
-25.53
-28.56
-31.78
-35.15
-38.61
-42
-45.05
-47.43
-48.93
-49.51
-49.29
-48.38
-46.75
-44.08
-39.87
-33.71
-25.49
-15.57
-4.66
6.53
17.53
28.27
38.94
49.52
59.6
68.34
74.81
78.63
80.3
81.32
83.66
89.05
98.33
111.11
126.06
141.33
155.2
166.2
173.06
174.42
168.74
154.57
131.17
99.16
60.75
19.48
-20.7
-56.32
-85.03
-105.74
-118.18
-122.55
-119.22
-108.82
-92.45
-71.84
-49.19
-26.72
-6.22
11.36
25.91
37.9
47.87
55.91
61.4
63.18
60.14
51.88
39.31
24.5
10.13
-1.48
-9.2
-13.29
-15
-15.77
-16.53
-17.37
-17.8
-17.17
-15.2
-12.13
-8.56
-5.25
-2.75
-1.33
-1.01
-1.67
-3.19
-5.44
-8.2
-11.13
-13.82
-15.89
-17.2
-17.88
-18.34
-19.09
-20.46
-22.53
-25.02
-27.44
-29.21
-29.81
-28.98
-26.66
-23.06
-18.53
-13.5
-8.36
-3.44
1.03
4.85
7.84
9.91
11.1
11.66
11.95
12.32
12.85
13.36
13.39
12.55
10.85
8.81
7.33
7.25
9.03
12.51
17.1
22.16
27.45
33.16
39.64
46.93
54.35
60.62
64.32
64.55
61.29
55.21
47.21
37.77
26.87
14.3
0.3
-14.09
-27.28
-37.86
-45.28
-50.13
-53.78
-57.45
-61.61
-65.85
-69.4
-71.87
-73.69
-76.02
-80.09
-86.4
-94.32
-102.29
-108.43
-111.51
-111.43
-109.24
-106.56
-104.77
-104.43
-105.2
-106.29
-107.04
-107.32
-107.33
-107.21
-106.56
-104.47
-99.96
-92.6
-82.92
-72.26
-62.06
-53.09
-44.97
-36.41
-25.89
-12.51
3.5
20.9
38.01
53.4
66.35
76.82
85.05
91.21
95.2
96.91
96.58
95.09
93.84
94.32
97.49
103.43
111.29
119.68
127.17
132.84
136.43
138.33
139.22
139.78
140.43
141.35
142.6
144.15
145.78
146.87
146.25
142.48
134.31
121.4
104.67
86.02
67.46
50.13
33.65
16.51
-2.83
-24.75
-47.94
-69.94
-88.37
-102.05
-111.35
-117.48
-121.42
-123.19
-121.91
-116.77
-107.94
-97.04
-86.53
-78.67
-74.5
-73.48
-74.01
-74.33
-73.35
-70.99
-68
-65.39
-64
-64.1
-65.41
-67.29
-68.97
-69.7
-69.02
-66.73
-62.93
-57.97
-52.26
-46.23
-40.13
-34.15
-28.42
-23.06
-18.2
-13.96
-10.38
-7.39
-4.91
-2.82
-1.02
0.63
2.27
4.06
6.07
8.28
10.55
12.68
14.48
15.78
16.52
16.7
16.36
15.66
14.73
13.71
12.63
11.49
10.21
8.75
7.15
5.48
3.84
2.29
0.78
-0.78
-2.46
-4.29
-6.29
-8.48
-10.96
-13.76
-16.8
-19.86
-22.54
-24.43
-25.28
-25.1
-24.19
-22.94
-21.67
-20.45
-19.04
-17.01
-13.99
-9.82
-4.63
1.17
7.03
12.39
16.8
20
21.93
22.75
22.74
22.2
21.37
20.45
19.61
19.01
18.83
19.22
20.14
21.37
22.62
23.58
24.16
24.46
24.66
24.87
24.94
24.53
23.2
20.77
17.37
13.45
9.58
6.17
3.37
1.01
-1.14
-3.3
-5.52
-7.71
-9.78
-11.62
-13.23
-14.55
-15.43
-15.69
-15.1
-13.61
-11.29
-8.44
-5.35
-2.25
0.76
3.72
6.7
9.67
12.43
14.7
16.23
16.92
16.91
16.54
16.22
16.25
16.73
17.49
18.23
18.7
18.79
18.55
18.14
17.73
17.37
16.98
16.5
15.89
15.26
14.75
14.44
14.23
13.83
12.91
11.29
8.99
6.33
3.72
1.48
-0.27
-1.61
-2.8
-4.1
-5.66
-7.53
-9.69
-12.07
-14.62
-17.11
-19.21
-20.45
-20.42
-18.91
-16.13
-12.61
-9.04
-5.99
-3.73
-2.16
-0.98
0.09
1.2
2.26
3.18
3.97
4.79
5.91
7.45
9.3
11.17
12.62
13.41
13.6
13.46
13.37
13.59
14.1
14.69
15.1
15.16
14.89
14.44
13.96
13.52
13.1
12.61
11.97
11.14
10.09
8.78
7.14
5.09
2.6
-0.24
-3.26
-6.13
-8.45
-9.86
-10.13
-9.34
-7.76
-5.77
-3.74
-1.87
-0.15
1.5
3.14
4.75
6.17
7.28
8.02
8.5
8.89
9.36
10.02
10.88
11.91
13.06
14.26
15.47
16.68
17.89
19.11
20.3
21.32
21.96
21.99
21.26
19.81
17.89
15.88
14.13
12.84
11.96
11.2
10.18
8.56
6.1
2.77
-1.28
-5.71
-10.07
-13.89
-16.79
-18.55
-19.19
-18.89
-17.89
-16.43
-14.67
-12.68
-10.55
-8.35
-6.2
-4.15
-2.21
-0.34
1.49
3.24
4.84
6.22
7.3
8.02
8.35
8.25
7.73
6.88
5.92
5.14
4.75
4.76
4.97
5.05
4.7
3.87
2.71
1.54
0.57
-0.17
-0.85
-1.7
-2.81
-4.08
-5.27
-6.13
-6.6
-6.79
-6.96
-7.36
-8.11
-9.29
-10.84
-12.66
-14.55
-16.17
-17.13
-17.04
-15.78
-13.5
-10.64
-7.72
-5.2
-3.23
-1.74
-0.4
1.13
3.16
5.77
8.84
12.02
14.86
16.99
18.25
18.74
18.63
18.12
17.27
16.01
14.33
12.29
10.04
7.76
5.47
3.09
0.5
-2.36
-5.37
-8.28
-10.85
-12.98
-14.74
-16.31
-17.85
-19.35
-20.67
-21.63
-22.14
-22.25
-22.21
-22.25
-22.44
-22.63
-22.48
-21.75
-20.46
-18.87
-17.38
-16.15
-15.03
-13.5
-10.91
-6.8
-1.13
5.68
12.91
19.9
26.26
32.03
37.55
43.21
49.18
55.3
61.17
66.43
71.02
75.19
79.25
83.22
86.69
89
89.69
88.9
87.38
86.11
85.69
86.02
86.34
85.79
83.93
81.03
77.73
74.6
71.57
67.95
62.72
55.15
45.18
33.43
20.87
8.21
-4.34
-17.13
-30.61
-44.85
-59.31
-72.93
-84.57
-93.47
-99.51
-103.14
-105.04
-105.68
-105.23
-103.66
-100.93
-97.23
-92.92
-88.35
-83.64
-78.62
-73.03
-66.78
-60.14
-53.68
-47.97
-43.31
-39.58
-36.36
-33.26
-30.15
-27.2
-24.69
-22.74
-21.22
-19.82
-18.23
-16.39
-14.42
-12.51
-10.74
-9.05
-7.4
-5.93
-4.98
-4.92
-5.93
-7.78
-9.95
-11.86
-13.16
-13.83
-14.18
-14.59
-15.35
-16.58
-18.18
-19.97
-21.8
-23.47
-24.84
-25.67
-25.8
-25.12
-23.73
-21.84
-19.74
-17.65
-15.63
-13.55
-11.2
-8.47
-5.41
-2.29
0.62
3.12
5.18
6.9
8.35
9.47
10.13
10.26
10
9.74
9.99
11.08
12.99
15.31
17.37
18.56
18.57
17.49
15.75
13.92
12.45
11.54
11.11
10.91
10.68
10.25
9.6
8.78
7.83
6.74
5.41
3.72
1.59
-0.99
-3.87
-6.83
-9.62
-12.02
-13.87
-15.05
-15.5
-15.19
-14.07
-12.18
-9.7
-7.01
-4.59
-2.86
-1.96
-1.66
-1.43
-0.66
1.06
3.72
6.91
9.98
12.33
13.57
13.68
12.91
11.67
10.38
9.38
8.92
9.12
9.97
11.27
12.7
13.88
14.5
14.44
13.8
12.83
11.76
10.88
10.36
10.39
11.02
12.11
13.16
13.47
12.38
9.66
5.7
1.4
-2.25
-4.62
-5.75
-6.18
-6.61
-7.45
-8.58
-9.5
-9.63
-8.68
-6.74
-4.3
-1.93
-0.13
0.78
0.68
-0.4
-2.32
-4.85
-7.62
-10.13
-11.75
-11.9
-10.18
-6.66
-1.89
3.09
7.12
9.32
9.46
8.07
6.19
4.92
4.83
5.78
7.1
8.12
8.6
8.84
9.38
10.51
12.02
13.27
13.69
13.17
12.3
11.99
12.97
15.29
18.17
20.32
20.51
18.19
13.67
8.09
2.86
-0.88
-2.59
-2.45
-1.19
0.41
1.79
2.8
3.64
4.51
5.43
6.17
6.4
5.92
4.87
3.68
2.91
2.95
3.85
5.3
6.78
7.84
8.22
8.04
7.6
7.26
7.2
7.32
7.27
6.57
4.91
2.35
-0.64
-3.41
-5.45
-6.66
-7.28
-7.69
-8.03
-8.07
-7.37
-5.58
-2.77
0.52
3.46
5.26
5.47
4.11
1.57
-1.54
-4.58
-6.99
-8.41
-8.77
-8.31
-7.52
-6.97
-7.07
-7.93
-9.32
-10.89
-12.27
-13.27
-13.85
-14.08
-14.03
-13.76
-13.38
-13.04
-13.01
-13.46
-14.36
-15.42
-16.2
-16.31
-15.7
-14.64
-13.64
-13.05
-12.86
-12.69
-11.99
-10.43
-8.21
-5.96
-4.53
-4.48
-5.88
-8.23
-10.76
-12.82
-14.11
-14.75
-15.05
-15.28
-15.41
-15.21
-14.32
-12.56
-9.97
-6.82
-3.54
-0.38
2.54
5.32
8.08
10.76
13.05
14.51
14.77
13.73
11.73
9.29
6.95
5.08
3.72
2.73
1.92
1.14
0.34
-0.52
-1.5
-2.62
-3.84
-4.98
-5.78
-6.09
-5.98
-5.85
-6.22
-7.47
-9.63
-12.24
-14.6
-15.98
-15.9
-14.23
-11.06
-6.58
-1.14
4.74
10.24
14.43
16.58
16.49
14.75
12.58
11.23
11.51
13.38
16.06
18.43
19.6
19.28
17.8
15.83
14.05
12.84
12.23
11.98
11.71
11.19
10.38
9.45
8.65
8.13
7.81
7.43
6.74
5.63
4.34
3.27
2.74
2.74
2.87
2.56
1.32
-0.93
-3.86
-6.95
-9.77
-12.11
-14
-15.55
-16.77
-17.56
-17.82
-17.6
-17.09
-16.58
-16.25
-15.98
-15.42
-14.04
-11.5
-7.81
-3.39
1.05
4.8
7.42
8.9
9.54
9.8
10.03
10.33
10.6
10.73
10.76
10.89
11.36
12.25
13.4
14.48
15.22
15.59
15.75
15.87
15.84
15.28
13.73
11.07
7.71
4.46
2.05
0.64
-0.28
-1.56
-3.83
-7.02
-10.43
-13.09
-14.41
-14.38
-13.51
-12.35
-11.09
-9.62
-7.65
-5.22
-2.78
-1.11
-0.81
-1.95
-3.94
-5.72
-6.25
-4.96
-1.96
2.09
6.33
10.04
12.89
14.86
16.14
16.99
17.61
18.12
18.62
19.19
19.91
20.81
21.85
22.85
23.52
23.46
22.31
19.86
16.22
11.83
7.37
3.54
0.77
-0.87
-1.65
-1.98
-2.22
-2.54
-2.94
-3.36
-3.83
-4.48
-5.52
-7.08
-9.16
-11.64
-14.21
-16.53
-18.26
-19.11
-18.92
-17.71
-15.68
-13.23
-10.76
-8.59
-6.81
-5.3
-3.77
-1.95
0.31
3.05
6.12
9.31
12.35
14.97
16.85
17.73
17.5
16.26
14.34
12.22
10.39
9.18
8.67
8.72
9.01
9.18
8.89
7.98
6.47
4.51
2.36
0.27
-1.59
-3.16
-4.49
-5.7
-6.93
-8.28
-9.78
-11.43
-13.22
-15.11
-17.07
-19.06
-21.04
-22.96
-24.78
-26.42
-27.82
-28.87
-29.48
-29.57
-29.08
-28.03
-26.48
-24.56
-22.42
-20.19
-17.95
-15.68
-13.39
-11.1
-8.93
-7.04
-5.53
-4.42
-3.63
-3
-2.38
-1.64
-0.7
0.5
2.02
3.76
5.57
7.12
8.09
8.27
7.7
6.7
5.76
5.41
5.95
7.4
9.37
11.23
12.32
12.26
11.07
9.22
7.4
6.14
5.6
5.44
5.03
3.8
1.47
-1.8
-5.6
-9.41
-12.73
-15.13
-16.29
-15.94
-14.07
-11.05
-7.6
-4.6
-2.76
-2.33
-3.08
-4.44
-5.79
-6.74
-7.16
-7.09
-6.62
-5.74
-4.43
-2.65
-0.5
1.85
4.23
6.46
8.51
10.38
12.14
13.81
15.34
16.62
17.5
17.84
17.6
16.95
16.21
15.75
15.82
16.43
17.33
18.08
18.28
17.74
16.59
15.2
13.96
13.14
12.7
12.31
11.53
10.03
7.7
4.74
1.53
-1.42
-3.62
-4.55
-3.82
-1.21
3.14
8.67
14.35
18.98
21.43
21.14
18.28
13.74
8.8
4.64
1.9
0.57
0.16
-0.05
-0.55
-1.46
-2.61
-3.65
-4.38
-4.84
-5.24
-5.82
-6.67
-7.71
-8.83
-10.01
-11.38
-13.12
-15.22
-17.4
-19.13
-19.9
-19.51
-18.29
-16.94
-16.17
-16.28
-17.07
-17.93
-18.24
-17.73
-16.58
-15.25
-14.23
-13.71
-13.64
-13.72
-13.69
-13.37
-12.73
-11.79
-10.55
-9.02
-7.21
-5.23
-3.26
-1.54
-0.16
0.9
1.82
2.83
4.06
5.51
6.97
8.15
8.81
8.87
8.43
7.76
7.18
6.89
6.95
7.2
7.44
7.47
7.23
6.81
6.37
6.02
5.73
5.35
4.69
3.75
2.69
1.8
1.36
1.42
1.85
2.33
2.61
2.6
2.41
2.22
2.11
1.95
1.42
0.22
-1.79
-4.43
-7.21
-9.49
-10.74
-10.73
-9.55
-7.61
-5.43
-3.48
-2.07
-1.24
-0.82
-0.51
0.05
1.13
2.79
4.93
7.26
9.41
11.04
11.88
11.83
10.97
9.5
7.66
5.72
3.85
2.16
0.7
-0.46
-1.29
-1.75
-1.89
-1.92
-2.13
-2.79
-4.01
-5.62
-7.26
-8.57
-9.3
-9.49
-9.36
-9.2
-9.2
-9.41
-9.72
-10
-10.12
-10.03
-9.71
-9.14
-8.32
-7.2
-5.84
-4.36
-2.93
-1.69
-0.74
0.04
0.86
1.95
3.45
5.25
7.06
8.54
9.38
9.49
8.96
8.09
7.18
6.54
6.3
6.44
6.78
7.08
7.15
6.95
6.62
6.37
6.38
6.72
7.24
7.7
7.85
7.56
6.86
5.9
4.91
4.05
3.37
2.8
2.16
1.27
0.03
-1.53
-3.22
-4.81
-6.11
-7.02
-7.53
-7.72
-7.74
-7.77
-7.99
-8.5
-9.14
-9.63
-9.55
-8.6
-6.74
-4.23
-1.54
0.9
2.83
4.21
5.22
6.08
7.09
8.47
10.47
13.24
16.74
20.61
24.11
26.36
26.61
24.6
20.7
15.78
10.82
6.5
3.01
0.09
-2.62
-5.33
-8
-10.42
-12.45
-14.15
-15.75
-17.41
-19.18
-20.9
-22.43
-23.76
-25.1
-26.69
-28.65
-30.8
-32.75
-34.03
-34.33
-33.55
-31.82
-29.41
-26.6
-23.62
-20.65
-17.77
-14.97
-12.13
-9.17
-6.03
-2.77
0.43
3.42
6.1
8.54
10.84
13.08
15.22
17.13
18.69
19.9
20.87
21.75
22.62
23.43
24
24.11
23.62
22.57
21.09
19.4
17.73
16.27
15.12
14.34
13.88
13.67
13.61
13.58
13.42
12.93
11.84
9.99
7.36
4.18
0.82
-2.34
-5.11
-7.54
-9.83
-12.17
-14.52
-16.63
-18.18
-18.92
-18.87
-18.24
-17.32
-16.27
-15.08
-13.6
-11.73
-9.52
-7.24
-5.28
-3.96
-3.43
-3.59
-4.19
-4.86
-5.3
-5.27
-4.62
-3.32
-1.49
0.62
2.68
4.37
5.53
6.2
6.58
6.88
7.2
7.47
7.46
7
6.1
4.98
4
3.46
3.4
3.68
3.96
3.97
3.57
2.8
1.8
0.67
-0.56
-1.9
-3.29
-4.57
-5.36
-5.28
-4.04
-1.65
1.61
5.21
8.6
11.41
13.58
15.34
17.08
19.18
21.81
24.92
28.26
31.51
34.31
36.28
37.01
36.1
33.33
28.8
23.06
16.99
11.49
7.16
4.03
1.67
-0.63
-3.47
-7.04
-11.07
-15
-18.21
-20.34
-21.38
-21.57
-21.33
-20.98
-20.71
-20.56
-20.45
-20.3
-20.07
-19.79
-19.46
-19.04
-18.39
-17.38
-16
-14.45
-13.07
-12.22
-11.94
-11.95
-11.66
-10.47
-8.05
-4.6
-0.68
2.98
5.77
7.47
8.17
8.21
7.96
7.7
7.59
7.64
7.78
7.87
7.81
7.57
7.23
6.92
6.75
6.64
6.45
5.98
5.15
4.06
2.93
1.99
1.38
1.09
1.04
1.07
1.05
0.89
0.56
0.1
-0.32
-0.5
-0.26
0.47
1.57
2.86
4.1
5.16
5.99
6.61
7.01
7.17
7.13
6.98
6.87
6.83
6.7
6.14
4.76
2.39
-0.84
-4.43
-7.76
-10.36
-12.09
-13.13
-13.81
-14.35
-14.72
-14.64
-13.78
-11.99
-9.41
-6.47
-3.69
-1.52
-0.2
0.35
0.35
0.12
-0.07
-0.04
0.27
0.83
1.53
2.27
2.91
3.38
3.63
3.63
3.38
2.81
1.85
0.41
-1.57
-4.08
-6.95
-9.95
-12.75
-14.98
-16.35
-16.71
-16.15
-14.94
-13.44
-11.91
-10.45
-8.98
-7.44
-5.9
-4.61
-3.87
-3.86
-4.49
-5.42
-6.17
-6.39
-5.92
-4.85
-3.42
-1.86
-0.33
1.24
3.05
5.37
8.43
12.25
16.49
20.52
23.57
25.06
24.87
23.31
20.99
18.65
16.81
15.79
15.66
16.31
17.49
18.87
20.02
20.61
20.44
19.57
18.26
16.81
15.44
14.18
12.82
11.08
8.75
5.8
2.43
-0.89
-3.54
-4.87
-4.44
-2.17
1.5
5.69
9.36
11.56
11.77
9.97
6.57
2.3
-1.97
-5.4
-7.3
-7.29
-5.48
-2.43
0.94
3.7
5.19
5.2
3.93
1.81
-0.76
-3.61
-6.69
-10
-13.43
-16.72
-19.59
-21.84
-23.49
-24.72
-25.78
-26.77
-27.63
-28.15
-28.11
-27.41
-26.11
-24.42
-22.59
-20.74
-18.91
-17
-14.98
-12.89
-10.91
-9.2
-7.93
-7.08
-6.51
-6.03
-5.45
-4.67
-3.67
-2.46
-1.11
0.32
1.7
2.93
3.85
4.37
4.44
4.03
3.13
1.79
0.03
-2.06
-4.34
-6.68
-8.93
-10.9
-12.38
-13.18
-13.15
-12.28
-10.74
-8.83
-6.94
-5.41
-4.41
-3.93
-3.74
-3.6
-3.3
-2.83
-2.39
-2.32
-2.94
-4.41
-6.63
-9.24
-11.76
-13.64
-14.33
-13.29
-10.06
-4.38
3.61
13.25
23.31
32.22
38.42
40.87
39.37
34.71
28.46
22.66
19.35
20.08
25.53
35.25
47.67
60.45
70.97
76.99
77.04
70.54
57.58
38.75
15.02
-12.13
-40.51
-67.19
-88.77
-102.1
-105.2
-97.86
-81.93
-60.81
-38.59
-18.9
-4.04
5.47
10.69
13.56
16.14
19.9
25.37
32.23
39.53
45.96
50.13
50.82
47.39
40.15
30.51
20.85
13.89
11.89
15.93
25.58
39.12
54.22
68.63
80.88
90.33
97.09
101.63
104.61
106.69
108.51
110.65
113.45
116.93
120.79
124.47
127.38
129.04
129.09
127.13
122.58
114.66
102.65
86.23
65.82
42.63
18.42
-5.01
-26.28
-44.7
-60.39
-74.02
-86.61
-99.03
-111.72
-124.41
-136.17
-145.66
-151.58
-153.22
-150.63
-144.65
-136.58
-127.7
-118.94
-110.77
-103.35
-96.62
-90.53
-84.97
-79.82
-74.89
-70
-65.03
-59.95
-54.86
-49.93
-45.33
-41.17
-37.48
-34.29
-31.56
-29.25
-27.23
-25.39
-23.65
-22.06
-20.74
-19.94
-19.79
-20.24
-21.06
-21.87
-22.37
-22.47
-22.36
-22.45
-23.18
-24.71
-26.88
-29.21
-31.07
-31.89
-31.29
-29.15
-25.49
-20.39
-13.96
-6.28
2.45
11.97
21.95
32.06
41.99
51.48
60.19
67.71
73.57
77.3
78.66
77.58
74.3
69.32
63.28
56.91
50.81
45.42
40.89
37.1
33.64
30.02
25.84
20.87
15.2
9.15
3.19
-2.26
-6.9
-10.62
-13.45
-15.44
-16.65
-17.12
-16.92
-16.22
-15.29
-14.39
-13.8
-13.67
-14.05
-14.96
-16.43
-18.42
-20.94
-23.85
-26.86
-29.46
-31.06
-31.16
-29.58
-26.7
-23.27
-20.27
-18.37
-17.76
-18.09
-18.72
-19.02
-18.65
-17.59
-15.99
-14.07
-12.04
-10.08
-8.42
-7.26
-6.66
-6.44
-6.25
-5.74
-4.8
-3.68
-2.84
-2.77
-3.66
-5.39
-7.61
-9.99
-12.38
-14.88
-17.6
-20.39
-22.75
-23.94
-23.34
-20.79
-16.71
-11.9
-7.23
-3.2
0.17
3.25
6.63
10.76
15.82
21.73
28.17
34.81
41.31
47.5
53.39
59.17
65.01
70.86
76.21
80.04
81.01
77.95
70.32
58.5
43.73
27.72
12.14
-1.9
-13.93
-24.06
-32.6
-39.8
-45.77
-50.6
-54.46
-57.7
-60.74
-63.81
-66.8
-69.16
-70.1
-68.99
-65.57
-60.08
-53.04
-44.97
-36.14
-26.54
-16.05
-4.65
7.38
19.53
31.23
41.97
51.45
59.64
66.7
72.88
78.48
83.71
88.55
92.67
95.43
96.07
94.02
89.13
81.62
71.94
60.55
47.78
33.87
19.22
4.52
-9.28
-21.22
-30.6
-37.23
-41.44
-43.88
-45.3
-46.22
-46.93
-47.35
-47.27
-46.41
-44.64
-42.07
-39.02
-35.89
-32.93
-30.11
-27.09
-23.4
-18.65
-12.79
-6.12
0.79
7.38
13.19
17.98
21.66
24.19
25.54
25.67
24.59
22.42
19.4
15.84
12.07
8.36
4.92
1.88
-0.75
-3.1
-5.34
-7.71
-10.41
-13.46
-16.76
-20.08
-23.17
-25.84
-28.05
-29.85
-31.32
-32.59
-33.77
-34.94
-36.2
-37.52
-38.75
-39.58
-39.63
-38.64
-36.65
-34.04
-31.37
-29.17
-27.69
-26.8
-26.12
-25.21
-23.82
-21.89
-19.54
-16.95
-14.28
-11.64
-9.13
-6.88
-5.01
-3.69
-3.03
-3.03
-3.54
-4.28
-4.88
-5.06
-4.75
-4.15
-3.64
-3.51
-3.79
-4.21
-4.27
-3.57
-1.99
0.13
2.15
3.37
3.23
1.61
-1.16
-4.43
-7.39
-9.4
-10.19
-9.91
-9.05
-8.12
-7.49
-7.29
-7.44
-7.78
-8.18
-8.6
-8.97
-9.2
-9.19
-8.8
-7.94
-6.57
-4.63
-2.03
1.34
5.54
10.62
16.51
23.06
30.03
37.11
43.96
50.22
55.58
59.85
63
65.12
66.44
67.21
67.68
67.92
67.79
66.95
64.95
61.44
56.37
50.11
43.34
36.75
30.84
25.74
21.36
17.64
14.68
12.84
12.42
13.5
15.68
18.27
20.45
21.66
21.75
20.94
19.6
17.98
16.16
13.94
11.02
7.16
2.23
-3.69
-10.43
-17.69
-25.09
-32.17
-38.46
-43.54
-47.14
-49.22
-49.96
-49.67
-48.66
-47.12
-45.09
-42.53
-39.46
-36.04
-32.52
-29.11
-25.9
-22.76
-19.58
-16.36
-13.34
-10.89
-9.27
-8.48
-8.16
-7.82
-7.08
-5.86
-4.42
-3.2
-2.52
-2.43
-2.77
-3.24
-3.6
-3.73
-3.68
-3.57
-3.53
-3.68
-4.03
-4.53
-5.12
-5.71
-6.28
-6.87
-7.54
-8.29
-9.09
-9.88
-10.69
-11.71
-13.24
-15.5
-18.51
-21.93
-25.1
-27.33
-28.1
-27.26
-25.03
-21.91
-18.43
-15.02
-11.91
-9.14
-6.62
-4.26
-1.91
0.48
2.93
5.4
7.8
10.01
11.87
13.28
14.15
14.41
14.04
13.03
11.5
9.65
7.76
6.04
4.59
3.34
2.09
0.63
-1.15
-3.21
-5.45
-7.82
-10.38
-13.22
-16.39
-19.82
-23.21
-26.29
-28.85
-30.97
-32.86
-34.84
-37.08
-39.62
-42.39
-45.23
-48
-50.48
-52.28
-52.85
-51.58
-48.16
-42.73
-35.99
-28.8
-21.88
-15.38
-8.8
-1.16
8.59
21.3
37.47
57.19
80.04
104.84
129.63
151.81
168.82
178.93
181.9
179.05
172.62
164.77
156.88
149.46
142.57
136.54
132.05
129.81
129.65
129.97
127.86
120.1
104.67
81.81
54.11
25.7
0.68
-18.2
-30.33
-36.91
-40.22
-42.56
-45.75
-51.05
-59.22
-70.48
-84.23
-98.74
-111.46
-119.68
-121.7
-117.6
-109.3
-99.62
-91.07
-84.86
-80.91
-78.37
-76.49
-75.06
-74.18
-73.77
-73
-70.44
-64.52
-54.21
-39.48
-21.37
-1.63
17.82
35.46
50.43
62.57
72.28
80.26
87.23
93.74
100.08
106.25
112.07
117.12
120.56
121.1
117.1
107.16
90.9
69.69
46.65
25.95
11.33
4.72
5.74
12.15
20.97
29.58
36.36
40.62
42.36
42.01
40.34
38.28
36.62
35.41
33.65
29.51
21.26
8.31
-8.21
-25.75
-41.44
-53.34
-61.07
-65.66
-68.66
-71.24
-73.63
-75.25
-75.41
-73.89
-71.3
-68.83
-67.53
-67.79
-69.11
-70.39
-70.56
-69.14
-66.46
-63.41
-60.89
-59.35
-58.59
-57.99
-56.85
-54.81
-51.94
-48.57
-45.08
-41.61
-37.97
-33.72
-28.44
-21.9
-14.25
-6.04
1.98
8.96
14.32
17.92
20.18
21.93
24.14
27.49
32.16
37.74
43.5
48.67
52.7
55.36
56.61
56.47
54.94
52.02
47.85
42.79
37.37
32.15
27.56
23.78
20.7
18.11
15.75
13.42
10.99
8.38
5.54
2.4
-1.07
-4.74
-8.37
-11.64
-14.3
-16.37
-18.18
-20.32
-23.33
-27.45
-32.47
-37.69
-42.28
-45.57
-47.25
-47.47
-46.72
-45.53
-44.36
-43.48
-43.02
-43.04
-43.6
-44.69
-46.13
-47.53
-48.3
-47.73
-45.29
-40.7
-34.06
-25.76
-16.35
-6.52
3.01
11.42
17.98
22.21
24.13
24.43
24.24
24.72
26.49
29.37
32.4
34.29
34
31.05
25.68
18.69
11.14
4.14
-1.39
-4.85
-6.16
-5.8
-4.8
-4.37
-5.53
-8.64
-13.34
-18.7
-23.67
-27.58
-30.22
-31.83
-32.77
-33.27
-33.38
-33.08
-32.47
-31.83
-31.49
-31.68
-32.32
-33.02
-33.18
-32.19
-29.61
-25.3
-19.5
-12.86
-6.33
-0.92
2.66
4.32
4.66
4.75
5.62
7.74
10.91
14.42
17.61
20.27
22.68
25.37
28.7
32.55
36.42
39.61
41.6
42.16
41.28
39.05
35.5
30.72
24.92
18.62
12.45
7.11
3.07
0.39
-1.29
-2.62
-4.36
-7.06
-10.87
-15.42
-20.01
-23.84
-26.32
-27.32
-27.09
-26.14
-24.94
-23.73
-22.53
-21.16
-19.38
-16.93
-13.53
-9.1
-3.77
2
7.51
12.08
15.29
17.11
17.92
18.29
18.75
19.61
20.86
22.2
23.12
23.06
21.6
18.69
14.75
10.68
7.57
6.35
7.4
10.38
14.36
18.18
20.85
21.98
21.81
21.01
20.25
19.76
19.2
17.84
15.01
10.53
4.97
-0.57
-4.99
-7.65
-8.63
-8.58
-8.27
-8.11
-8.06
-7.73
-6.78
-5.19
-3.26
-1.46
-0.04
1.1
2.34
4.08
6.41
9.01
11.23
12.4
12.04
10.07
6.83
2.89
-1.14
-4.83
-8.01
-10.75
-13.26
-15.8
-18.46
-21.12
-23.39
-24.75
-24.72
-23.01
-19.72
-15.32
-10.53
-6.09
-2.52
-0.03
1.56
2.66
3.75
5.21
7.17
9.52
11.94
14
15.37
15.89
15.66
15.03
14.39
14.06
14.16
14.56
15.04
15.3
15.12
14.3
12.73
10.34
7.22
3.58
-0.19
-3.58
-6.1
-7.41
-7.5
-6.67
-5.43
-4.34
-3.79
-3.85
-4.21
-4.35
-3.74
-2.11
0.43
3.44
6.32
8.53
9.77
10.01
9.45
8.38
7.12
5.9
4.87
4.12
3.6
3.12
2.42
1.24
-0.52
-2.66
-4.69
-6.05
-6.3
-5.33
-3.37
-0.86
1.78
4.32
6.7
9
11.35
13.91
16.82
20.19
23.95
27.79
31.06
33
32.92
30.6
26.33
20.77
14.67
8.57
2.74
-2.72
-7.77
-12.31
-16.24
-19.58
-22.53
-25.43
-28.5
-31.74
-34.88
-37.47
-39.16
-39.73
-39.12
-37.33
-34.43
-30.51
-25.82
-20.77
-15.84
-11.4
-7.57
-4.21
-1.12
1.76
4.23
6.01
6.83
6.7
5.94
4.9
3.85
2.77
1.45
-0.29
-2.45
-4.82
-7.08
-8.97
-10.41
-11.46
-12.25
-12.88
-13.34
-13.57
-13.47
-12.92
-11.86
-10.26
-8.1
-5.41
-2.24
1.26
4.83
8.16
10.89
12.76
13.68
13.91
13.91
14.26
15.37
17.27
19.6
21.67
22.85
22.77
21.55
19.72
17.92
16.61
15.88
15.48
14.99
14.11
12.84
11.34
9.82
8.31
6.63
4.55
1.95
-1.04
-4.01
-6.58
-8.51
-9.89
-11.06
-12.38
-14.04
-15.99
-17.97
-19.75
-21.25
-22.52
-23.7
-24.86
-25.94
-26.84
-27.47
-27.81
-27.92
-27.84
-27.51
-26.73
-25.3
-23.14
-20.4
-17.46
-14.78
-12.67
-11.17
-10.03
-8.84
-7.25
-5.12
-2.61
-0.01
2.43
4.64
6.72
8.82
10.94
12.9
14.43
15.34
15.66
15.55
15.22
14.77
14.13
13.16
11.86
10.36
9
8.04
7.58
7.49
7.43
7.08
6.28
5.06
3.67
2.4
1.48
0.96
0.69
0.32
-0.51
-1.98
-4.05
-6.33
-8.29
-9.39
-9.3
-7.99
-5.69
-2.84
0.1
2.72
4.69
5.87
6.23
