4.05
7.85
12.1
16.26
19.86
22.65
24.55
25.58
25.72
24.89
23.02
20.2
16.74
13.17
10.04
7.75
6.35
5.67
5.35
5.08
4.71
4.24
3.72
3.22
2.72
2.2
1.62
0.95
0.13
-0.92
-2.32
-4.15
-6.42
-8.98
-11.63
-14.12
-16.34
-18.32
-20.26
-22.38
-24.81
-27.47
-30.06
-32.13
-33.17
-32.83
-31.01
-27.87
-23.79
-19.29
-14.87
-10.89
-7.53
-4.86
-2.88
-1.61
-1.08
-1.2
-1.72
-2.23
-2.3
-1.67
-0.31
1.48
3.31
4.8
5.81
6.39
6.72
7.06
7.54
8.22
9.03
9.78
10.27
10.32
9.89
9.13
8.36
7.94
8.12
8.97
10.35
11.93
13.33
14.15
14.03
12.79
10.46
7.43
4.31
1.84
0.59
0.7
1.88
3.48
4.87
5.64
5.78
5.55
5.22
4.92
4.58
4.02
3.2
2.28
1.61
1.49
2.04
3.04
4.08
4.79
4.97
4.72
4.26
3.77
3.25
2.52
1.34
-0.45
-2.77
-5.35
-7.8
-9.76
-11.08
-11.81
-12.19
-12.59
-13.32
-14.58
-16.42
-18.73
-21.33
-23.96
-26.36
-28.23
-29.25
-29.18
-27.86
-25.33
-21.78
-17.56
-13.02
-8.5
-4.25
-0.38
3.09
6.13
8.72
10.76
12.18
12.96
13.24
13.31
13.55
14.26
15.55
17.3
19.26
21.17
22.86
24.33
25.57
26.54
27.04
26.79
25.59
23.39
20.4
16.96
13.48
10.23
7.28
4.52
1.7
-1.49
-5.22
-9.47
-13.96
-18.1
-21.25
-22.91
-22.85
-21.28
-18.72
-15.75
-12.87
-10.3
-8.04
-5.97
-4.01
-2.17
-0.49
0.95
2.07
2.85
3.27
3.38
3.27
3.1
3.05
3.25
3.73
4.36
4.89
5.08
4.8
4.02
2.86
1.42
-0.28
-2.28
-4.66
-7.4
-10.35
-13.2
-15.63
-17.45
-18.67
-19.5
-20.24
-21.16
-22.43
-24.04
-25.8
-27.35
-28.18
-27.84
-26
-22.64
-18.05
-12.78
-7.44
-2.45
1.99
5.86
9.18
11.93
14.05
15.51
16.39
16.99
17.66
18.69
20.16
21.89
23.61
24.96
25.81
26.13
26.09
25.88
25.65
25.47
25.28
24.94
24.27
23.14
21.51
19.39
16.9
14.13
11.21
8.28
5.47
2.88
0.55
-1.65
-4.01
-6.8
-10.21
-14.08
-17.95
-21.11
-22.89
-22.87
-21.05
-17.79
-13.69
-9.37
-5.32
-1.79
1.11
3.38
5.04
6.12
6.65
6.75
6.59
6.4
6.44
6.85
7.62
8.55
9.39
9.89
9.94
9.61
8.99
8.21
7.31
6.23
4.84
2.99
0.63
-2.2
-5.33
-8.52
-11.45
-13.92
-15.84
-17.32
-18.62
-20.02
-21.76
-23.95
-26.6
-29.67
-33.02
-36.39
-39.37
-41.39
-41.84
-40.31
-36.67
-31.21
-24.45
-17.05
-9.56
-2.34
4.48
10.86
16.7
21.85
26.07
29.23
31.41
32.92
34.13
35.38
36.79
38.22
39.4
40.08
40.13
39.59
38.56
37.19
35.59
33.81
31.86
29.69
27.19
24.17
20.45
16
10.99
5.8
0.92
-3.29
-6.69
-9.4
-11.79
-14.26
-17.14
-20.5
-24.17
-27.68
-30.4
-31.74
-31.33
-29.17
-25.59
-21.1
-16.19
-11.23
-6.41
-1.89
2.13
5.49
8.07
9.96
11.43
12.78
14.2
15.65
16.94
17.86
18.35
18.49
18.42
18.26
17.93
17.3
16.25
14.76
12.97
11.06
9.2
7.42
5.66
3.82
1.87
-0.07
-1.84
-3.33
-4.52
-5.58
-6.73
-8.17
-10.01
-12.26
-14.79
-17.39
-19.69
-21.25
-21.58
-20.43
-17.86
-14.34
-10.55
-7.15
-4.49
-2.6
-1.26
-0.26
0.5
0.99
1.16
1.11
1.06
1.26
1.81
2.65
3.53
4.15
4.33
4.04
3.34
2.4
1.32
0.22
-0.82
-1.73
-2.56
-3.39
-4.41
-5.8
-7.63
-9.79
-12.06
-14.14
-15.9
-17.34
-18.58
-19.83
-21.21
-22.73
-24.23
-25.43
-25.94
-25.34
-23.3
-19.63
-14.41
-7.95
-0.72
6.79
14.13
20.98
27.04
32.07
35.83
38.13
38.9
38.31
36.64
34.34
31.82
29.39
27.11
24.84
22.33
19.38
15.94
12.2
8.49
5.1
2.16
-0.42
-2.89
-5.48
-8.34
-11.43
-14.6
-17.64
-20.43
-22.95
-25.26
-27.53
-29.9
-32.46
-35.17
-37.96
-40.69
-43.24
-45.46
-47.12
-47.87
-47.31
-45.14
-41.29
-36.08
-30.07
-23.91
-18.11
-12.9
-8.35
-4.45
-1.17
1.47
3.6
5.52
7.68
10.46
14.04
18.29
22.83
27.19
31
34.07
36.4
38.08
39.21
39.85
39.97
39.52
38.46
36.83
34.72
32.26
29.6
26.85
24.07
21.32
18.62
15.94
13.11
9.92
6.11
1.58
-3.48
-8.6
-13.18
-16.65
-18.66
-19.17
-18.36
-16.6
-14.28
-11.87
-9.77
-8.26
-7.44
-7.22
-7.33
-7.48
-7.47
-7.23
-6.81
-6.29
-5.77
-5.32
-5.02
-4.97
-5.22
-5.79
-6.65
-7.7
-8.88
-10.11
-11.35
-12.61
-13.88
-15.21
-16.63
-18.2
-19.89
-21.62
-23.26
-24.71
-25.9
-26.84
-27.55
-27.95
-28
-27.59
-26.68
-25.2
-23.06
-20.08
-16
-10.65
-4.13
3.1
10.36
16.89
22.16
26.04
28.74
30.66
32.18
33.46
34.51
35.27
35.71
35.91
35.98
35.97
35.82
35.32
34.21
32.35
29.73
26.5
22.88
19.03
15.02
10.86
6.52
2.08
-2.34
-6.59
-10.52
-14.06
-17.2
-19.98
-22.46
-24.73
-26.96
-29.31
-31.92
-34.76
-37.58
-39.93
-41.21
-40.96
-38.94
-35.3
-30.55
-25.42
-20.61
-16.63
-13.66
-11.62
-10.25
-9.24
-8.38
-7.53
-6.64
-5.64
-4.43
-2.85
-0.82
1.68
4.54
7.61
10.77
13.9
16.94
19.75
22.15
23.91
24.83
24.94
24.42
23.63
22.89
22.38
22.01
21.52
20.56
18.83
16.16
12.61
8.45
4.13
0.2
-2.8
-4.5
-4.74
-3.63
-1.47
1.27
4.09
6.51
8.21
9.05
9.08
8.49
7.53
6.44
5.36
4.46
3.87
3.7
3.99
4.67
5.56
6.47
7.19
7.59
7.61
7.22
6.44
5.33
3.94
2.37
0.62
-1.34
-3.54
-5.98
-8.54
-11.04
-13.31
-15.27
-16.98
-18.67
-20.63
-23.04
-25.93
-29.02
-31.74
-33.39
-33.34
-31.33
-27.57
-22.74
-17.67
-13.05
-9.26
-6.27
-3.88
-1.87
-0.13
1.24
2.11
2.37
2.11
1.52
0.89
0.46
0.31
0.39
0.55
0.71
0.88
1.12
1.5
1.95
2.23
2.04
1.17
-0.41
-2.45
-4.59
-6.46
-7.85
-8.66
-8.97
-8.93
-8.77
-8.8
-9.37
-10.71
-12.83
-15.31
-17.36
-18.07
-16.69
-12.98
-7.3
-0.39
6.85
13.67
19.58
24.29
27.65
29.57
30.1
29.43
27.9
25.92
23.82
21.86
20.22
19.05
18.46
18.48
18.91
19.35
19.32
18.46
16.74
14.44
12.02
9.9
8.16
6.59
4.78
2.38
-0.7
-4.22
-7.76
-10.94
-13.59
-15.84
-18.04
-20.6
-23.77
-27.55
-31.58
-35.35
-38.23
-39.7
-39.45
-37.42
-33.74
-28.77
-22.96
-16.81
-10.79
-5.28
-0.53
3.39
6.51
8.9
10.58
11.58
12.01
12.13
12.36
13.17
14.82
17.3
20.27
23.25
25.81
27.74
29.01
29.75
30.03
29.83
29.04
27.59
25.51
22.89
19.89
16.68
13.37
10.04
6.73
3.44
0.03
-3.69
-7.95
-12.78
-17.89
-22.65
-26.22
-27.89
-27.26
-24.39
-19.71
-13.85
-7.43
-1.01
4.94
9.99
13.76
16.02
16.75
16.19
14.75
12.92
11.13
9.73
8.9
8.69
8.97
9.54
10.19
10.76
11.17
11.4
11.46
11.34
10.99
10.4
9.61
8.78
8.11
7.72
7.59
7.48
7.06
6
4.15
1.49
-1.78
-5.37
-8.89
-11.93
-14.06
-14.89
-14.13
-11.73
-7.93
-3.22
1.7
6.15
9.7
12.19
13.71
14.47
14.58
14.06
12.79
10.81
8.35
5.92
4.1
3.4
3.95
5.47
7.36
8.97
9.84
9.8
9.03
7.87
6.63
5.44
4.2
2.67
0.67
-1.74
-4.27
-6.47
-8.01
-8.81
-9.14
-9.49
-10.36
-12.03
-14.54
-17.58
-20.67
-23.22
-24.69
-24.65
-22.92
-19.56
-14.86
-9.29
-3.39
2.32
7.39
11.46
14.33
15.91
16.33
15.83
14.74
13.4
12.1
11.07
10.37
10.06
10.08
10.33
10.7
11.06
11.35
11.47
11.38
10.98
10.18
8.93
7.22
5.17
2.98
0.88
-0.94
-2.37
-3.47
-4.38
-5.34
-6.54
-8.15
-10.2
-12.6
-15.31
-18.18
-21.09
-23.76
-25.77
-26.62
-25.82
-23.18
-18.84
-13.37
-7.49
-1.92
2.92
6.81
9.77
11.82
12.9
13.02
12.25
10.9
9.38
8.15
7.51
7.58
8.31
9.51
10.98
12.52
13.95
15.12
15.93
16.37
16.46
16.23
15.66
14.7
13.24
11.26
8.83
6.16
3.51
1.08
-0.99
-2.73
-4.25
-5.81
-7.64
-9.96
-12.84
-16.15
-19.53
-22.43
-24.24
-24.45
-22.85
-19.54
-14.97
-9.78
-4.6
0.12
4.2
7.64
10.47
12.67
14.14
14.73
14.46
13.58
12.54
11.87
11.92
12.82
14.41
16.36
18.22
19.63
20.32
20.21
19.42
18.18
16.77
15.35
13.95
12.5
10.95
9.32
7.69
6.09
4.44
2.6
0.46
-2.03
-4.76
-7.64
-10.7
-14.09
-17.96
-22.24
-26.51
-30.03
-32.01
-31.94
-29.77
-25.92
-21.15
-16.16
-11.53
-7.52
-4.14
-1.26
1.22
3.32
4.97
6.08
6.66
6.82
6.74
6.66
6.7
6.86
7.07
7.2
7.22
7.15
7.03
6.79
6.33
5.51
4.32
2.94
1.63
0.67
0.12
-0.16
-0.43
-0.93
-1.67
-2.5
-3.16
-3.52
-3.59
-3.59
-3.83
-4.52
-5.78
-7.55
-9.68
-11.87
-13.76
-14.92
-15.06
-14.01
-11.85
-8.86
-5.45
-2
1.19
3.94
6.13
7.69
8.64
9.08
9.22
9.35
9.76
10.66
12.06
13.81
15.6
17.05
17.85
17.79
16.89
15.38
13.59
11.85
10.34
9
7.64
6.05
4.13
1.98
-0.25
-2.43
-4.52
-6.52
-8.47
-10.39
-12.31
-14.35
-16.64
-19.24
-21.92
-24.2
-25.41
-25.02
-22.83
-19.1
-14.43
-9.5
-4.87
-0.84
2.49
5.05
6.78
7.6
7.51
6.58
5.02
3.17
1.36
-0.07
-0.89
-0.96
-0.37
0.71
1.91
2.88
3.33
3.15
2.42
1.34
0.12
-1.14
-2.45
-3.9
-5.5
-7.17
-8.74
-10.05
-11.02
-11.74
-12.46
-13.46
-15.05
-17.31
-20.1
-23.06
-25.68
-27.47
-28.12
-27.54
-25.8
-23.04
-19.39
-14.99
-10.1
-5.12
-0.52
3.26
6.03
7.87
9.05
9.91
10.71
11.57
12.57
13.77
15.25
17.04
19.06
21.08
22.82
24.07
24.78
25.03
24.96
24.68
24.22
23.54
22.57
21.23
19.49
17.31
14.68
11.7
8.57
5.58
2.98
0.95
-0.62
-2.06
-3.83
-6.36
-9.8
-14
-18.41
-22.24
-24.69
-25.16
-23.53
-20.15
-15.76
-11.18
-7.09
-3.84
-1.48
0.14
1.17
1.66
1.62
1.06
0.13
-0.92
-1.75
-2.11
-1.91
-1.25
-0.4
0.35
0.79
0.91
0.88
0.93
1.18
1.58
1.93
2
1.66
0.95
0.07
-0.77
-1.39
-1.76
-1.95
-2.15
-2.6
-3.52
-5.11
-7.41
-10.31
-13.56
-16.82
-19.72
-21.86
-22.87
-22.44
-20.44
-17.01
-12.66
-8.08
-3.9
-0.47
2.28
4.66
6.97
9.26
11.27
12.61
13
12.5
11.48
10.45
9.82
9.82
10.41
11.43
12.69
14
15.22
16.18
16.69
16.63
15.99
14.92
13.67
12.5
11.53
10.72
9.86
8.71
7.09
5.02
2.69
0.4
-1.59
-3.23
-4.7
-6.35
-8.56
-11.49
-15.06
-18.94
-22.6
-25.55
-27.37
-27.9
-27.09
-25.09
-22.08
-18.32
-14.14
-9.91
-6.06
-2.94
-0.7
0.71
1.58
2.29
3.16
4.32
5.71
7.16
8.53
9.74
10.8
11.76
12.58
13.15
13.38
13.22
12.75
12.07
11.28
10.4
9.42
8.25
6.87
5.31
3.67
2.09
0.63
-0.8
-2.38
-4.32
-6.75
-9.59
-12.65
-15.63
-18.33
-20.68
-22.76
-24.64
-26.33
-27.65
-28.3
-27.95
-26.37
-23.5
-19.54
-14.9
-10.1
-5.64
-1.9
1.01
3.1
4.47
5.24
5.54
5.61
5.88
6.85
8.95
12.34
16.74
21.43
25.6
28.55
29.98
29.95
28.75
26.72
24.13
21.1
17.75
14.2
10.64
7.24
4.13
1.39
-0.98
-2.95
-4.48
-5.56
-6.25
-6.75
-7.32
-8.29
-9.87
-12.05
-14.55
-16.95
-18.68
-19.33
-18.71
-16.96
-14.41
-11.52
-8.64
-5.99
-3.63
-1.51
0.37
1.94
3.11
3.82
4.11
4.13
4.09
4.14
4.44
5.01
5.79
6.63
7.33
7.69
7.55
6.88
5.77
4.4
3
1.68
0.38
-1.06
-2.81
-4.86
-6.99
-8.91
-10.37
-11.38
-12.16
-13.03
-14.25
-15.86
-17.73
-19.73
-21.87
-24.22
-26.85
-29.54
-31.78
-32.94
-32.47
-30.16
-26.2
-21.05
-15.32
-9.59
-4.37
-0.01
3.29
5.56
7.05
8.09
8.99
9.78
10.32
10.4
9.99
9.34
8.9
9.08
10.03
11.56
13.24
14.61
15.39
15.52
15.12
14.29
13.09
11.56
9.7
7.58
5.37
3.29
1.5
0.12
-0.89
-1.66
-2.43
-3.46
-4.99
-7.11
-9.84
-13.04
-16.52
-19.97
-22.99
-25.12
-25.88
-24.92
-22.22
-18.08
-13.12
-8.05
-3.4
0.61
4.01
6.93
9.48
11.6
13.12
13.92
14.04
13.66
13.06
12.54
12.35
12.65
13.52
14.88
16.57
18.36
19.96
21.2
21.98
22.27
22.07
21.38
20.18
18.48
16.28
13.65
10.66
7.35
3.82
0.14
-3.54
-7.07
-10.35
-13.37
-16.24
-19.16
-22.31
-25.74
-29.26
-32.43
-34.62
-35.21
-33.81
-30.42
-25.4
-19.43
-13.22
-7.31
-2.01
2.55
6.3
9.13
10.91
11.63
11.5
10.92
10.39
10.33
10.88
11.92
13.17
14.33
15.21
15.79
16.08
16.13
15.94
15.46
14.58
13.25
11.44
9.27
6.96
4.77
2.87
1.32
-0.02
-1.41
-3.11
-5.35
-8.22
-11.73
-15.78
-20.12
-24.35
-27.9
-30.09
-30.34
-28.37
-24.29
-18.63
-12.13
-5.59
0.38
5.39
9.25
11.94
13.5
14.02
13.73
12.92
12.04
11.44
11.36
11.82
12.59
13.42
14.09
14.47
14.61
14.57
14.4
14.02
13.31
12.14
10.51
8.54
6.46
4.49
2.75
1.23
-0.25
-1.97
-4.13
-6.88
-10.14
-13.62
-16.91
-19.52
-21.01
-21
-19.24
-15.71
-10.62
-4.49
1.98
8
12.95
16.48
18.6
19.51
19.47
18.72
17.46
15.89
14.28
12.87
11.87
11.34
11.21
11.36
11.61
11.81
11.78
11.33
10.34
8.81
6.86
4.67
2.42
0.18
-2.08
-4.45
-6.99
-9.7
-12.55
-15.57
-18.82
-22.3
-25.85
-29.03
-31.2
-31.66
-29.94
-26
-20.33
-13.83
-7.45
-1.91
2.49
5.91
8.68
11.1
13.24
15.02
16.3
17.04
17.38
17.55
17.75
18.1
18.59
19.13
19.67
20.16
20.6
20.89
20.82
20.07
18.38
15.63
11.96
7.78
3.57
-0.3
-3.68
-6.68
-9.51
-12.37
-15.35
-18.43
-21.53
-24.51
-27.14
-29.01
-29.61
-28.47
-25.38
-20.57
-14.66
-8.49
-2.79
2.01
5.84
8.92
11.51
13.74
15.59
16.95
17.73
17.97
17.91
17.87
18.17
18.9
19.94
20.95
21.61
21.78
21.55
21.16
20.81
20.44
19.75
18.35
16.02
12.81
9.11
5.39
2.04
-0.82
-3.29
-5.58
-7.83
-10.19
-12.74
-15.59
-18.75
-22.08
-25.2
-27.47
-28.26
-27.12
-24.05
-19.46
-14.03
-8.43
-3.14
1.62
5.84
9.51
12.51
14.67
15.89
16.25
16.07
15.81
15.85
16.29
17.01
17.72
18.16
18.2
17.9
17.39
16.81
16.22
15.6
14.9
14.06
12.99
11.65
10.03
8.11
5.96
3.67
1.32
-0.96
-3.08
-4.95
-6.53
-7.86
-9.09
-10.5
-12.38
-14.91
-17.98
-21.2
-23.87
-25.25
-24.74
-22.17
-17.78
-12.25
-6.42
-1.03
3.42
6.73
8.89
10.06
10.43
10.26
9.85
9.46
9.35
9.58
10.08
10.7
11.3
11.79
12.16
12.41
12.44
12.1
11.24
9.79
7.92
5.91
4.02
2.43
1.14
0.03
-1
-2.02
-2.95
-3.74
-4.39
-5
-5.75
-6.82
-8.33
-10.28
-12.61
-15.11
-17.52
-19.44
-20.41
-19.97
-17.87
-14.12
-9.09
-3.46
2
6.65
10.11
12.4
13.74
14.39
14.55
14.31
13.7
12.81
11.84
11.04
10.58
10.48
10.61
10.73
10.6
10.11
9.25
8.06
6.63
5.1
3.55
2.14
1.01
0.22
-0.18
-0.24
-0.13
-0.1
-0.42
-1.4
-3.19
-5.69
-8.6
-11.43
-13.71
-15.22
-16.08
-16.8
-17.96
-20.06
-23.14
-26.74
-29.95
-31.76
-31.43
-28.71
-23.99
-18.05
-11.75
-5.76
-0.47
4
7.63
10.4
12.27
13.23
13.39
13.03
12.48
12.04
11.9
12.05
12.34
12.58
12.65
12.57
12.42
12.26
12.04
11.61
10.84
9.71
8.37
7.1
6.12
5.47
4.94
4.2
2.97
1.17
-1.02
-3.26
-5.23
-6.77
-7.94
-9
-10.27
-12.02
-14.37
-17.17
-20.12
-22.76
-24.67
-25.5
-25.05
-23.3
-20.38
-16.55
-12.14
-7.49
-2.93
1.31
5.03
8.18
10.7
12.63
14.01
14.92
15.41
15.52
15.38
15.11
14.97
15.14
15.68
16.48
17.24
17.69
17.61
17.02
16.05
14.91
13.74
12.61
11.47
10.19
8.66
6.7
4.24
1.31
-1.86
-4.87
-7.29
-8.89
-9.75
-10.2
-10.71
-11.65
-13.21
-15.37
-17.99
-20.81
-23.56
-25.85
-27.28
-27.46
-26.22
-23.65
-20.11
-16.09
-12.04
-8.23
-4.77
-1.62
1.2
3.63
5.56
6.88
7.63
7.95
8.06
8.21
8.49
8.89
9.31
9.64
9.84
9.95
10.02
10.04
9.93
9.59
9
8.25
7.49
6.83
6.22
5.45
4.25
2.47
0.21
-2.25
-4.56
-6.48
-7.98
-9.13
-10.03
-10.67
-11.03
-11.14
-11.22
-11.62
-12.73
-14.74
-17.49
-20.5
-23.04
-24.44
-24.27
-22.44
-19.22
-15.11
-10.72
-6.62
-3.18
-0.59
1.19
2.34
3.07
3.56
3.95
4.32
4.79
5.48
6.49
7.79
9.21
10.43
11.18
11.33
10.94
10.22
9.41
8.68
8.03
7.41
6.73
5.9
4.91
3.73
2.35
0.82
-0.79
-2.36
-3.72
-4.77
-5.51
-6.08
-6.75
-7.8
-9.33
-11.18
-12.95
-14.07
-14.09
-12.81
-10.4
-7.24
-3.81
-0.44
2.65
5.3
7.38
8.74
9.25
8.98
8.11
6.91
5.69
4.65
3.94
3.64
3.79
4.35
5.24
6.32
7.44
8.41
9.08
9.26
8.88
7.88
6.39
4.67
3.04
1.79
1
0.49
-0.05
-0.91
-2.25
-4.04
-6.16
-8.54
-11.14
-13.98
-16.96
-19.79
-21.98
-23.01
-22.49
-20.42
-17.14
-13.28
-9.47
-6.12
-3.28
-0.81
1.54
3.83
5.9
7.4
8.04
7.72
6.72
5.58
4.84
4.82
5.48
6.45
7.28
7.58
7.24
6.35
5.12
3.73
2.33
0.99
-0.19
-1.16
-1.96
-2.74
-3.71
-5.05
-6.79
-8.79
-10.79
-12.61
-14.21
-15.7
-17.23
-18.87
-20.52
-21.9
-22.61
-22.24
-20.6
-17.71
-13.83
-9.38
-4.8
-0.46
3.41
6.65
9.18
10.98
12.08
12.58
12.65
12.52
12.36
12.28
12.29
12.33
12.35
12.29
12.14
11.94
11.7
11.42
11.02
10.35
9.18
7.38
4.93
1.96
-1.27
-4.52
-7.62
-10.56
-13.34
-16.03
-18.64
-21.16
-23.51
-25.51
-26.82
-27.02
-25.8
-23.09
-19.17
-14.67
-10.25
-6.44
-3.44
-1.2
0.41
1.49
2.09
2.23
2.04
1.73
1.57
1.74
2.29
3.13
4.13
5.15
6.03
6.67
6.99
7.01
6.79
6.35
5.67
4.6
2.99
0.77
-1.95
-4.9
-7.77
-10.35
-12.61
-14.66
-16.64
-18.61
-20.42
-21.73
-22.18
-21.45
-19.42
-16.17
-11.98
-7.34
-2.73
1.41
4.76
7.21
8.83
9.75
10.14
10.2
10.1
10.05
10.23
10.73
11.51
12.41
13.18
13.57
13.45
12.79
11.69
10.29
8.74
7.12
5.52
3.96
2.45
0.98
-0.44
-1.82
-3.16
-4.52
-6.04
-7.88
-10.12
-12.68
-15.22
-17.26
-18.29
-17.89
-15.95
-12.68
-8.5
-3.99
0.32
4.01
6.89
8.88
10.04
10.5
10.46
10.19
9.99
10.06
10.52
11.29
12.19
13
13.55
13.74
13.56
12.97
11.9
10.31
8.26
5.89
3.46
1.16
-0.91
-2.76
-4.51
-6.25
-8.07
-10.02
-12.03
-13.92
-15.42
-16.22
-16.01
-14.6
-11.95
-8.26
-3.91
0.65
4.95
8.68
11.66
13.83
15.17
15.73
15.53
14.7
13.44
12.01
10.73
9.77
9.2
8.95
8.88
8.92
9.01
9.1
8.99
8.45
7.28
5.49
3.35
1.29
-0.29
-1.24
-1.63
-1.74
-1.85
-2.22
-3.04
-4.59
-7.08
-10.66
-15.09
-19.78
-23.8
-26.3
-26.76
-25.2
-22.06
-18
-13.62
-9.32
-5.34
-1.77
1.29
3.79
5.71
7.12
8.12
8.89
9.6
10.41
11.47
12.78
14.17
15.36
15.96
15.67
14.39
12.3
9.77
7.23
5.05
3.33
1.95
0.61
-0.93
-2.82
-5
-7.24
-9.34
-11.1
-12.48
-13.58
-14.61
-15.81
-17.41
-19.48
-21.9
-24.33
-26.26
-27.16
-26.58
-24.31
-20.45
-15.36
-9.62
-3.88
1.33
5.65
9.01
11.53
13.49
15.11
16.5
17.67
18.57
19.24
19.77
20.26
20.75
21.16
21.3
21.05
20.41
19.52
18.67
18.08
17.88
17.94
18
17.7
16.78
15.15
12.88
10.15
7.08
3.75
0.17
-3.59
-7.35
-10.86
-13.93
-16.55
-18.93
-21.38
-24.21
-27.55
-31.2
-34.7
-37.42
-38.68
-38
-35.15
-30.3
-23.92
-16.79
-9.73
-3.37
1.89
6.03
9.22
11.74
13.81
15.54
16.9
17.86
18.39
18.62
18.82
19.31
20.33
21.95
23.92
25.86
27.31
27.99
27.81
26.9
25.5
23.84
22.07
20.3
18.55
16.82
15.09
13.27
11.3
9.11
6.69
4.06
1.32
-1.49
-4.33
-7.27
-10.47
-14.12
-18.36
-23.13
-28.02
-32.33
-35.25
-36.09
-34.57
-30.86
-25.55
-19.36
-12.99
-6.93
-1.49
3.13
6.81
9.5
11.29
12.4
13.21
14.08
15.32
16.97
18.89
20.83
22.54
23.92
24.96
25.71
26.21
26.39
26.17
25.52
24.5
23.23
21.79
20.13
18.04
15.31
11.8
7.6
3.03
-1.49
-5.5
-8.73
-11.14
-12.89
-14.33
-15.85
-17.76
-20.25
-23.2
-26.27
-28.84
-30.28
-30.12
-28.19
-24.78
-20.38
-15.6
-10.86
-6.35
-2.15
1.68
4.94
7.42
8.93
9.53
9.5
9.24
9.08
9.22
9.66
10.38
11.36
12.57
13.95
15.33
16.45
17.14
17.31
17.03
16.43
15.61
14.57
13.25
11.61
9.72
7.78
6
4.51
3.24
2.04
0.64
-1.07
-3.12
-5.41
-7.86
-10.36
-12.91
-15.43
-17.76
-19.64
-20.73
-20.78
-19.68
-17.49
-14.41
-10.72
-6.77
-2.91
0.54
3.34
5.4
6.82
7.79
8.54
9.1
9.37
9.19
8.49
7.38
6.18
5.27
4.95
5.32
6.29
7.65
9.16
10.59
11.74
12.48
12.77
12.59
12.01
11.16
10.13
8.97
7.67
6.18
4.51
2.66
0.64
-1.52
-3.84
-6.33
-8.95
-11.63
-14.29
-16.8
-19.04
-20.85
-22.02
-22.3
-21.54
-19.64
-16.66
-12.83
-8.44
-3.87
0.5
4.34
7.34
9.29
10.15
10.02
9.15
7.91
6.66
5.69
5.16
5.1
5.38
5.85
6.36
6.76
7
7.06
6.96
6.75
6.44
6.05
5.56
4.88
3.92
2.62
1
-0.84
-2.73
-4.5
-5.98
-7.14
-7.96
-8.51
-8.9
-9.27
-9.85
-10.85
-12.4
-14.47
-16.82
-19.07
-20.81
-21.66
-21.36
-19.77
-16.87
-12.83
-7.98
-2.81
2.1
6.19
9.08
10.58
10.75
9.88
8.34
6.58
4.95
3.74
3.04
2.85
3.05
3.53
4.18
4.88
5.52
5.97
6.13
5.98
5.53
4.85
4.02
3.11
2.14
1.11
0.05
-1.03
-2.1
-3.18
-4.32
-5.61
-7.15
-9.02
-11.22
-13.67
-16.14
-18.28
-19.67
-19.83
-18.45
-15.47
-11.16
-6.09
-0.95
3.66
7.4
10.23
12.34
13.97
15.26
16.21
16.7
16.63
16.03
15.13
14.28
13.84
14.04
14.9
16.16
17.43
18.3
18.44
17.71
16.11
13.8
11.02
8.02
5.07
2.33
-0.14
-2.43
-4.7
-7.1
-9.73
-12.6
-15.71
-19.06
-22.66
-26.46
-30.27
-33.73
-36.39
-37.84
-37.86
-36.45
-33.82
-30.21
-25.91
-21.11
-16.06
-11
-6.27
-2.2
0.94
3.06
4.25
4.75
4.82
4.7
4.55
4.43
4.4
4.54
4.92
5.65
6.77
8.24
9.88
11.42
12.56
13.06
12.79
11.81
10.32
8.59
6.94
5.61
4.69
4.15
3.74
3.12
1.93
-0.03
-2.76
-6.03
-9.41
-12.45
-14.72
-15.91
-15.9
-14.69
-12.43
-9.37
-5.85
-2.21
1.26
4.35
7.01
9.24
11.03
12.38
13.29
13.8
14.06
14.3
14.66
15.15
15.56
15.54
14.82
13.38
11.52
9.72
8.39
7.7
7.39
6.95
5.81
3.67
0.55
-3.22
-7.12
-10.64
-13.45
-15.43
-16.66
-17.43
-18.1
-19.04
-20.46
-22.32
-24.35
-26.06
-26.89
-26.39
-24.33
-20.79
-16.14
-10.94
-5.82
-1.33
2.18
4.59
6.03
6.73
6.87
6.58
6.02
5.35
4.8
4.62
4.93
5.65
6.57
7.44
8.14
8.69
9.23
9.83
10.39
10.68
10.38
9.29
7.39
4.91
2.23
-0.2
-2.06
-3.25
-4
-4.77
-6.06
-8.21
-11.28
-14.96
-18.72
-21.9
-23.97
-24.62
-23.82
-21.78
-18.86
-15.47
-11.91
-8.42
-5.19
-2.36
-0.14
1.33
2
1.99
1.54
1.02
0.7
0.75
1.23
2.16
3.54
5.37
7.59
9.97
12.21
13.89
14.71
14.57
13.55
11.91
9.9
7.77
5.61
3.49
1.44
-0.49
-2.24
-3.89
-5.64
-7.75
-10.42
-13.54
-16.65
-19.08
-20.12
-19.35
-16.8
-12.91
-8.3
-3.59
0.82
4.79
8.27
11.23
13.56
15.11
15.83
15.79
15.26
14.56
13.97
13.63
13.51
13.52
13.51
13.4
13.1
12.5
11.49
9.96
7.87
5.3
2.4
-0.72
-3.94
-7.21
-10.38
-13.26
-15.61
-17.31
-18.36
-19.01
-19.64
-20.61
-22.14
-24.23
-26.64
-28.99
-30.78
-31.44
-30.47
-27.5
-22.49
-15.82
-8.2
-0.56
6.25
11.64
15.49
18.03
19.7
20.96
22.05
23.05
23.94
24.74
25.5
26.35
27.28
28.15
28.67
28.55
27.75
26.5
25.17
24.15
23.55
23.18
22.68
21.72
20.11
17.94
15.42
12.77
10.08
7.29
4.29
1.01
-2.55
-6.25
-10
-13.77
-17.64
-21.71
-26
-30.25
-33.99
-36.6
-37.53
-36.49
-33.57
-29.22
-24.03
-18.58
-13.25
-8.18
-3.35
1.3
5.72
9.72
13.06
15.55
17.19
18.19
18.88
19.58
20.51
21.69
23.06
24.46
25.73
26.73
27.32
27.37
26.8
25.62
23.92
21.81
19.38
16.71
13.84
10.9
8.03
5.37
2.97
0.81
-1.18
-3.07
-4.89
-6.64
-8.39
-10.26
-12.41
-14.88
-17.51
-19.9
-21.47
-21.67
-20.19
-17.06
-12.68
-7.66
-2.7
1.61
4.88
7
8.06
8.26
7.86
7.06
5.98
4.78
3.56
2.5
1.79
1.59
2.02
3.02
4.38
5.79
6.93
7.62
7.91
8.02
8.24
8.72
9.46
10.31
11.11
11.71
12.03
12.03
11.71
11.09
10.26
9.38
8.62
8.08
7.64
7
5.75
3.65
0.8
-2.34
-4.98
-6.39
-6.11
-4.11
-0.77
3.34
7.58
11.46
14.62
16.79
17.85
17.76
16.64
14.71
12.25
9.5
6.68
3.98
1.67
0.04
-0.74
-0.7
-0.17
0.34
0.34
-0.36
-1.73
-3.5
-5.47
-7.53
-9.71
-12.06
-14.53
-16.99
-19.29
-21.28
-22.84
-23.88
-24.31
-24.04
-23.19
-22.01
-20.88
-20.12
-19.9
-20.15
-20.58
-20.84
-20.56
-19.49
-17.41
-14.32
-10.37
-5.93
-1.42
2.76
6.36
9.29
11.54
13.13
14.09
14.5
14.56
14.54
14.74
15.35
16.37
17.65
18.97
20.16
21.11
21.77
22.09
22.02
21.53
20.65
19.47
18.14
16.84
15.66
14.61
13.51
12.11
10.11
7.37
3.98
0.28
-3.24
-6.16
-8.21
-9.38
-9.96
-10.41
-11.26
-12.96
-15.7
-19.3
-23.21
-26.58
-28.54
-28.5
-26.33
-22.45
-17.69
-12.94
-8.89
-5.86
-3.77
-2.3
-1.06
0.21
1.62
3.17
4.82
6.53
8.23
9.84
11.18
12.12
12.57
12.58
12.29
11.87
11.4
10.88
10.27
9.53
8.65
7.62
6.44
5.07
3.49
1.76
-0.07
-1.89
-3.63
-5.25
-6.76
-8.18
-9.52
-10.84
-12.22
-13.79
-15.61
-17.63
-19.58
-21.05
-21.66
-21.15
-19.5
-16.89
-13.68
-10.21
-6.79
-3.61
-0.76
1.73
3.89
5.77
7.38
8.67
9.52
9.74
9.23
8.09
6.64
5.34
4.58
4.53
5.01
5.72
6.31
6.63
6.76
6.83
6.88
6.76
6.22
5.08
3.4
1.51
-0.17
-1.35
-2.04
-2.44
-2.91
-3.7
-4.86
-6.34
-8.03
-9.9
-12.02
-14.44
-17.07
-19.62
-21.62
-22.58
-22.15
-20.27
-17.19
-13.31
-9.18
-5.27
-1.91
0.71
2.5
3.45
3.6
3.07
2.14
1.18
0.52
0.38
0.73
1.34
1.88
2.18
2.3
2.42
2.74
3.27
3.77
3.87
3.27
1.95
0.1
-1.87
-3.64
-4.99
-5.92
-6.57
-7.11
-7.69
-8.39
-9.2
-10.13
-11.21
-12.48
-14.03
-15.91
-18.07
-20.32
-22.32
-23.64
-23.94
-23.05
-21.03
-18.17
-14.85
-11.45
-8.24
-5.39
-2.92
-0.78
1.1
2.72
4.08
5.12
5.8
6.16
6.29
6.36
6.49
6.77
7.13
7.48
7.72
7.81
7.76
7.61
7.33
6.89
6.17
5.09
3.61
1.73
-0.42
-2.73
-5.02
-7.15
-8.99
-10.45
-11.46
-12.06
-12.37
-12.59
-12.93
-13.54
-14.37
-15.14
-15.46
-14.91
-13.21
-10.35
-6.6
-2.43
1.6
5.08
7.8
9.71
10.92
11.52
11.63
11.39
11.08
11.1
11.83
13.43
15.67
17.92
19.49
19.85
19.01
17.38
15.59
14.06
12.9
11.86
10.64
9.07
7.18
5.15
3.14
1.22
-0.65
-2.57
-4.57
-6.61
-8.64
-10.6
-12.5
-14.35
-16.19
-17.99
-19.64
-20.91
-21.5
-21.08
-19.42
-16.53
-12.72
-8.5
-4.48
-1.1
1.45
3.18
4.24
4.75
4.78
4.46
4
3.71
3.88
4.61
5.68
6.75
7.46
7.62
7.34
6.88
6.43
6.02
5.52
4.71
3.49
1.9
0.1
-1.73
-3.5
-5.21
-6.9
-8.6
-10.27
-11.86
-13.37
-14.88
-16.53
-18.46
-20.65
-22.82
-24.52
-25.22
-24.54
-22.41
-19.09
-14.98
-10.54
-6.09
-1.78
2.26
5.84
8.7
10.57
11.42
11.47
11.11
10.79
10.8
11.23
11.96
12.85
13.68
14.33
14.68
14.58
13.96
12.87
11.48
10.08
8.92
8.07
7.4
6.65
5.54
3.93
1.88
-0.43
-2.77
-4.99
-7.14
-9.34
-11.84
-14.74
-17.96
-21.2
-23.97
-25.76
-26.2
-25.14
-22.67
-19.1
-14.9
-10.57
-6.53
-3.06
-0.19
2.18
4.26
6.14
7.75
8.95
9.6
9.75
9.68
9.79
10.41
11.57
13.02
14.3
15.08
15.25
15.02
14.69
14.44
14.26
13.87
12.93
11.23
8.8
5.87
2.84
0.08
-2.11
-3.6
-4.42
-4.83
-5.21
-6.05
-7.72
-10.27
-13.42
-16.55
-18.96
-20.07
-19.57
-17.47
-13.94
-9.38
-4.2
1.08
5.97
10.05
13.13
15.23
16.56
17.38
17.85
18.05
17.97
17.64
17.17
16.71
16.4
16.3
16.41
16.71
17.16
17.74
18.28
18.52
18.14
16.93
14.84
12.07
8.98
5.97
3.3
1.04
-0.9
-2.69
-4.55
-6.65
-9.1
-11.91
-14.92
-17.73
-19.83
-20.65
-19.83
-17.31
-13.41
-8.66
-3.65
1.14
5.42
9.08
12.11
14.51
16.25
17.28
17.57
17.15
16.13
14.76
13.34
12.17
11.45
11.16
11.12
11.08
10.84
10.35
9.66
8.85
7.96
6.86
5.42
3.51
1.19
-1.38
-3.93
-6.25
-8.26
-10.05
-11.77
-13.56
-15.44
-17.39
-19.32
-21.16
-22.78
-24.01
-24.59
-24.21
-22.62
-19.73
-15.67
-10.78
-5.55
-0.44
4.18
8.17
11.6
14.65
17.47
20.1
22.46
24.36
25.75
26.74
27.62
28.7
30.1
31.65
32.9
33.35
32.59
30.58
27.61
24.18
20.77
17.69
14.98
12.56
10.35
8.39
6.78
5.61
4.81
4.09
3.14
1.73
-0.16
-2.41
-4.88
-7.55
-10.53
-13.92
-17.62
-21.16
-23.79
-24.77
-23.66
-20.58
-16.11
-11.04
-6.1
-1.66
2.21
5.62
8.72
11.46
13.67
15.14
15.74
15.51
14.71
13.73
12.99
12.8
13.26
14.3
15.59
16.75
17.44
17.47
16.86
15.8
14.48
13.01
11.42
9.59
7.42
4.89
2.18
-0.42
-2.58
-4.09
-5.03
-5.69
-6.49
-7.76
-9.59
-11.91
-14.5
-17.2
-19.93
-22.68
-25.3
-27.41
-28.46
-27.84
-25.21
-20.68
-14.86
-8.66
-2.94
1.76
5.31
7.92
9.88
11.35
12.3
12.64
12.37
11.71
11.05
10.73
10.9
11.41
11.97
12.28
12.22
11.83
11.28
10.66
9.95
9.09
7.96
6.58
5.07
3.6
2.3
1.17
0.06
-1.2
-2.7
-4.37
-6.05
-7.56
-8.79
-9.86
-10.98
-12.39
-14.22
-16.42
-18.78
-21.01
-22.79
-23.83
-23.87
-22.72
-20.29
-16.76
-12.48
-8.02
-3.92
-0.52
2.08
3.98
5.39
6.48
7.23
7.62
7.65
7.41
7.12
7
7.15
7.58
8.22
8.98
9.83
10.67
11.39
11.83
11.84
11.41
10.59
9.49
8.17
6.64
4.82
2.71
0.43
-1.84
-3.9
-5.68
-7.22
-8.63
-10
-11.42
-12.94
-14.6
-16.42
-18.26
-19.75
-20.46
-19.97
-18.13
-15.15
-11.45
-7.53
-3.75
-0.29
2.81
5.45
7.46
8.69
9.09
8.84
8.32
7.94
7.97
8.45
9.21
9.91
10.3
10.22
9.76
9.11
8.47
7.95
7.49
6.94
6.15
5.06
3.77
2.41
1.05
-0.34
-1.85
-3.58
-5.46
-7.3
-8.91
-10.17
-11.19
-12.23
-13.57
-15.41
-17.7
-20.14
-22.32
-23.78
-24.2
-23.43
-21.54
-18.73
-15.29
-11.53
-7.75
-4.23
-1.14
1.4
3.37
4.85
5.87
6.42
6.44
5.89
4.89
3.75
2.87
2.57
3.05
4.17
5.62
7.01
7.99
8.39
8.2
7.54
6.57
5.47
4.28
2.91
1.32
-0.52
-2.47
-4.26
-5.69
-6.76
-7.72
-8.97
-10.79
-13.16
-15.81
-18.32
-20.44
-22.1
-23.39
-24.28
-24.58
-23.94
-22.05
-18.89
-14.82
-10.49
-6.53
-3.37
-1.04
0.72
2.27
3.8
5.25
6.44
7.18
7.53
7.78
8.26
9.18
10.45
11.76
12.77
13.32
13.45
13.36
13.21
13.07
12.85
12.38
11.55
10.28
8.57
6.5
4.25
2.02
0.07
-1.42
-2.42
-3.06
-3.58
-4.19
-5.06
-6.25
-7.78
-9.63
-11.74
-13.99
-16.09
-17.6
-18.03
-17
-14.39
-10.47
-5.76
-0.95
3.47
7.27
10.51
13.44
16.22
18.88
21.24
23.11
24.35
24.98
25.17
25.15
25.13
25.23
25.51
25.94
26.43
26.85
27.07
26.96
26.39
25.24
23.41
20.91
17.89
14.71
11.83
9.59
8.11
7.21
6.56
5.78
4.6
2.84
0.37
-2.93
-7.15
-12.2
-17.74
-23.28
-28.23
-32.2
-34.98
-36.64
-37.28
-37.03
-36.05
-34.51
-32.7
-30.87
-29.18
-27.64
-26.12
-24.47
-22.63
-20.66
-18.65
-16.68
-14.65
-12.42
-9.77
-6.65
-3.23
0.16
3.17
5.46
6.97
7.84
8.36
8.79
9.32
9.94
10.5
10.83
10.81
10.41
9.7
8.69
7.42
5.96
4.36
2.71
1.05
-0.69
-2.61
-4.74
-7
-9.08
-10.55
-11.01
-10.21
-8.2
-5.27
-1.89
1.48
4.54
7.14
9.33
11.23
12.93
14.39
15.42
15.82
15.52
14.69
13.72
13.1
13.13
13.86
15.06
16.32
17.28
17.68
17.46
16.69
15.49
13.99
12.32
10.61
9.01
7.66
6.64
5.92
5.38
4.83
4.11
3.17
2.07
0.93
-0.18
-1.22
-2.21
-3.19
-4.12
-4.92
-5.43
-5.58
-5.36
-4.84
-4.1
-3.22
-2.21
-1.12
0.01
1.04
1.85
2.31
2.35
2
1.4
0.73
0.14
-0.25
-0.48
-0.68
-1.01
-1.52
-2.15
-2.74
-3.15
-3.29
-3.19
-3
-2.83
-2.76
-2.78
-2.85
-2.95
-3.13
-3.45
-3.97
-4.7
-5.59
-6.61
-7.66
-8.71
-9.69
-10.58
-11.45
-12.45
-13.81
-15.61
-17.75
-19.84
-21.38
-21.91
-21.22
-19.42
-16.86
-14.04
-11.34
-9.05
-7.21
-5.76
-4.48
-3.17
-1.65
0.15
2.16
4.25
6.22
7.91
9.22
10.13
10.71
11.13
11.61
12.33
13.3
14.35
15.2
15.56
15.29
14.45
13.17
11.6
9.74
7.56
5.04
2.26
-0.5
-2.96
-4.92
-6.38
-7.5
-8.49
-9.57
-10.9
-12.65
-14.98
-17.86
-21.03
-23.93
-25.82
-26.04
-24.3
-20.82
-16.2
-11.2
-6.4
-2.09
1.73
5.07
7.83
9.78
10.68
10.44
9.26
7.55
5.88
4.68
4.15
4.21
4.54
4.79
4.74
4.39
3.91
3.54
3.48
3.76
4.23
4.62
4.69
4.28
3.41
2.25
1.06
0.07
-0.63
-1.06
-1.31
-1.54
-1.87
-2.34
-2.99
-3.87
-5.06
-6.68
-8.74
-11.17
-13.7
-16.01
-17.73
-18.68
-18.79
-18.14
-16.88
-15.13
-12.99
-10.59
-8.08
-5.64
-3.46
-1.68
-0.35
0.55
1.13
1.52
1.91
2.48
3.36
4.54
5.83
7.05
7.99
8.69
9.3
10.07
11.07
12.11
12.83
12.9
12.23
10.96
9.38
7.73
6.05
4.23
2.2
0.01
-2.05
-3.7
-4.8
-5.47
-6.02
-6.77
-7.9
-9.35
-10.86
-12.1
-12.77
-12.67
-11.73
-10.02
-7.73
-5.11
-2.42
0.09
2.24
3.92
5.05
5.63
5.73
5.53
5.26
5.15
5.32
5.74
6.24
6.63
6.73
6.58
6.32
6.18
6.36
6.89
7.61
8.22
8.4
7.96
6.86
5.24
3.35
1.44
-0.33
-1.91
-3.39
-4.85
-6.35
-7.81
-9.11
-10.1
-10.76
-11.19
-11.64
-12.35
-13.44
-14.93
-16.67
-18.49
-20.16
-21.4
-21.86
-21.23
-19.29
-16.15
-12.23
-8.08
-4.22
-0.92
1.8
4.07
6.05
7.79
9.24
10.33
11.08
11.59
11.94
12.18
12.18
11.84
11.12
10.12
9.06
8.18
7.68
7.67
8.1
8.86
9.73
10.44
10.75
10.48
9.66
8.47
7.14
5.87
4.65
3.35
1.8
-0.05
-2.1
-4.18
-6.18
-8.22
-10.54
-13.31
-16.44
-19.53
-21.95
-23.11
-22.69
-20.71
-17.42
-13.25
-8.66
-4.07
0.2
3.88
6.8
8.92
10.31
11.12
11.54
11.7
11.65
11.37
10.84
10.11
9.27
8.52
8.02
7.9
8.16
8.76
9.55
10.34
10.9
11.04
10.58
9.48
7.82
5.8
3.62
1.5
-0.47
-2.21
-3.7
-4.94
-5.96
-6.82
-7.73
-8.87
-10.39
-12.35
-14.63
-17
-19.19
-20.91
-21.89
-21.93
-20.91
-18.88
-16.08
-12.85
-9.53
-6.35
-3.42
-0.78
1.54
3.41
4.7
5.3
5.27
4.86
4.43
4.36
4.88
6.02
7.64
9.54
11.48
13.28
14.77
15.82
16.3
16.17
15.43
14.16
12.48
10.5
8.33
6.07
3.84
1.79
0.06
-1.28
-2.31
-3.23
-4.28
-5.61
-7.22
-9.01
-10.82
-12.54
-14.1
-15.43
-16.41
-16.82
-16.42
-15.04
-12.74
-9.8
-6.6
-3.57
-1.04
0.9
2.3
3.35
4.26
5.16
6.09
6.98
7.69
8.15
8.35
8.35
8.27
8.18
8.09
8
7.92
7.85
7.77
7.61
7.2
6.4
5.11
3.39
1.43
-0.52
-2.26
-3.74
-4.99
-6.19
-7.53
-9.21
-11.36
-13.9
-16.53
-18.74
-19.89
-19.5
-17.4
-13.85
-9.34
-4.5
0.16
4.31
7.82
10.7
12.91
14.43
15.2
15.22
14.56
13.4
12.04
10.8
9.95
9.6
9.69
9.99
10.26
10.32
10.19
9.94
9.69
9.47
9.21
8.8
8.09
6.98
5.45
3.54
1.37
-0.87
-3
-4.92
-6.7
-8.57
-10.8
-13.52
-16.56
-19.52
-21.82
-22.94
-22.57
-20.7
-17.57
-13.58
-9.15
-4.69
-0.54
2.96
5.62
7.37
8.37
8.94
9.48
10.27
11.35
12.57
13.6
14.23
14.37
14.19
13.91
13.69
13.53
13.31
12.94
12.44
11.91
11.45
10.99
10.3
9.05
7.08
4.45
1.57
-1.07
-3.07
-4.31
-5
-5.54
-6.31
-7.59
-9.41
-11.73
-14.41
-17.24
-19.94
-22.16
-23.5
-23.6
-22.27
-19.55
-15.74
-11.28
-6.71
-2.53
0.97
3.67
5.65
7.05
8.07
8.78
9.19
9.27
9.01
8.58
8.22
8.23
8.76
9.78
11.12
12.49
13.62
14.34
14.52
14.15
13.24
11.87
10.19
8.42
6.74
5.27
4
2.78
1.46
-0.08
-1.86
-3.79
-5.75
-7.65
-9.46
-11.24
-13.12
-15.21
-17.61
-20.28
-23
-25.39
-26.96
-27.33
-26.25
-23.77
-20.18
-15.87
-11.31
-6.83
-2.7
0.9
3.92
6.36
8.26
9.67
10.64
11.23
11.54
11.72
11.95
12.4
13.11
13.98
14.85
15.54
16.02
16.31
16.5
16.6
16.54
16.18
15.46
14.46
13.35
12.27
11.26
10.22
8.96
7.4
5.59
3.73
2.04
0.65
-0.45
-1.38
-2.3
-3.35
-4.68
-6.44
-8.76
-11.68
-15.01
-18.32
-20.99
-22.48
-22.46
-20.95
-18.21
-14.65
-10.65
-6.53
-2.57
1.01
4.04
6.42
8.14
9.3
10
10.32
10.31
10.01
9.59
9.33
9.51
10.33
11.71
13.36
14.8
15.65
15.75
15.16
14.08
12.75
11.28
9.75
8.18
6.64
5.23
3.99
2.9
1.84
0.7
-0.52
-1.73
-2.83
-3.77
-4.68
-5.73
-7.08
-8.77
-10.65
-12.52
-14.21
-15.65
-16.88
-17.98
-18.94
-19.62
-19.74
-19.01
-17.16
-14.15
-10.19
-5.71
-1.25
2.63
5.54
7.31
8.02
7.96
7.58
7.28
7.34
7.83
8.62
9.47
10.19
10.69
11.03
11.34
11.74
12.27
12.92
13.55
14.01
14.11
13.76
12.92
11.66
10.1
8.39
6.65
4.95
3.32
1.76
0.23
-1.28
-2.8
-4.29
-5.73
-7.05
-8.25
-9.42
-10.81
-12.65
-15.08
-17.92
-20.65
-22.54
-22.94
-21.53
-18.53
-14.56
-10.41
-6.71
-3.73
-1.39
0.56
2.37
4.09
5.65
6.88
7.75
8.32
8.72
9.1
9.58
10.15
10.74
11.24
11.54
11.62
11.52
11.38
11.26
11.1
10.69
9.78
8.26
6.26
4.15
2.41
1.35
0.95
0.88
0.63
-0.19
-1.7
-3.67
-5.71
-7.45
-8.72
-9.59
-10.35
-11.35
-12.92
-15.24
-18.15
-21.23
-23.84
-25.3
-25.17
-23.44
-20.51
-16.99
-13.41
-9.96
-6.55
-2.95
0.78
4.29
6.97
8.36
8.47
7.83
7.16
7.02
7.58
8.51
9.35
9.75
9.71
9.46
9.33
9.53
10.04
10.67
11.18
11.33
10.97
10.08
8.71
7.05
5.31
3.69
2.32
1.18
0.17
-0.85
-2.03
-3.44
-5.05
-6.73
-8.34
-9.77
-11.05
-12.28
-13.62
-15.16
-16.8
-18.28
-19.27
-19.5
-18.87
-17.44
-15.33
-12.66
-9.49
-5.91
-2.13
1.56
4.85
7.52
9.52
10.95
11.92
12.52
12.79
12.7
12.33
11.86
11.53
11.54
11.93
12.57
13.24
13.73
13.89
13.66
13.03
12.08
10.85
9.41
7.81
6.09
4.32
2.59
0.99
-0.41
-1.61
-2.63
-3.58
-4.52
-5.49
-6.48
-7.54
-8.81
-10.47
-12.64
-15.21
-17.79
-19.79
-20.65
-20.05
-18.07
-15.11
-11.72
-8.32
-5.14
-2.2
0.59
3.21
5.54
7.38
8.59
9.16
9.31
9.34
9.55
10.07
10.81
11.57
12.14
12.35
12.19
11.73
11.05
10.23
9.35
8.44
7.58
6.81
6.03
5.13
3.92
2.33
0.43
-1.57
-3.46
-5.06
-6.34
-7.33
-8.03
-8.47
-8.74
-9.05
-9.79
-11.28
-13.63
-16.48
-19.13
-20.74
-20.76
-19.07
-16.05
-12.27
-8.31
-4.5
-1.02
2.04
4.58
6.51
7.8
8.54
8.85
8.9
8.74
8.4
7.96
7.59
7.53
8
9.04
10.48
11.99
13.2
13.83
13.84
13.34
12.53
11.53
10.37
8.97
7.33
5.56
3.9
2.61
1.75
1.14
0.44
-0.72
-2.51
-4.87
-7.52
-10.14
-12.5
-14.42
-15.75
-16.25
-15.65
-13.72
-10.49
-6.25
-1.52
3.07
7
9.95
11.8
12.69
12.81
12.37
11.52
10.42
9.17
7.95
6.94
6.32
6.2
6.6
7.36
8.2
8.82
8.95
8.51
7.58
6.4
5.21
4.13
3.15
2.16
1.01
-0.33
-1.77
-3.18
-4.44
-5.56
-6.64
-7.8
-9.13
-10.66
-12.37
-14.26
-16.25
-18.25
-20.01
-21.25
-21.69
-21.18
-19.71
-17.37
-14.38
-10.89
-7.07
-3.1
0.78
4.24
6.97
8.7
9.41
9.25
8.55
7.72
7.06
6.74
6.78
7.11
7.74
8.68
9.95
11.41
12.78
13.68
13.89
13.43
12.6
11.76
11.13
10.63
9.95
8.81
7.07
4.95
2.72
0.7
-1.06
-2.63
-4.16
-5.75
-7.32
-8.81
-10.19
-11.55
-13.01
-14.63
-16.23
-17.49
-17.92
-17.15
-14.97
-11.47
-6.95
-1.83
3.38
8.21
12.22
15.16
16.93
17.66
17.63
17.21
16.71
16.34
16.18
16.24
16.49
16.92
17.52
18.22
18.84
19.12
18.82
17.83
16.24
14.21
12
9.71
7.34
4.82
2.12
-0.66
-3.29
-5.53
-7.26
-8.56
-9.65
-10.78
-12.04
-13.33
-14.5
-15.51
-16.47
-17.7
-19.5
-22.01
-25.03
-28.06
-30.47
-31.68
-31.35
-29.44
-26.22
-22.12
-17.6
-13.11
-8.95
-5.36
-2.47
-0.36
0.92
1.52
1.73
2.04
2.86
4.39
6.48
8.67
10.42
11.36
11.52
11.15
10.63
10.15
9.7
9.1
8.18
7
5.78
4.83
4.26
3.98
3.71
3.16
2.21
1
-0.26
-1.29
-2.03
-2.59
-3.19
-4.03
-5.25
-6.84
-8.76
-10.92
-13.15
-15.24
-16.91
-17.85
-17.88
-16.96
-15.16
-12.65
-9.58
-6.14
-2.54
0.95
3.99
6.31
7.8
8.57
8.8
8.72
8.49
8.16
7.83
7.7
8
8.89
10.28
11.82
13.01
13.46
13.03
11.95
10.63
9.45
8.58
7.98
7.38
6.56
5.36
3.78
1.98
0.18
-1.42
-2.73
-3.8
-4.8
-5.87
-7.08
-8.4
-9.7
-10.93
-12.13
-13.42
-14.83
-16.16
-16.95
-16.73
-15.2
-12.43
-8.85
-5.01
-1.35
1.93
4.83
7.37
9.46
10.85
11.31
10.83
9.63
8.15
6.84
5.99
5.69
5.86
6.34
7.02
7.81
8.65
9.44
10.04
10.28
9.98
9.04
7.48
5.48
3.33
1.37
-0.18
-1.27
-2.04
-2.78
-3.74
-5.07
-6.78
-8.76
-10.89
-13.03
-15.07
-16.81
-17.95
-18.18
-17.26
-15.12
-11.95
-8.17
-4.32
-0.85
1.98
4.15
5.85
7.32
8.71
10.01
11.1
11.83
12.18
12.26
12.33
12.6
13.11
13.74
14.19
14.23
13.76
12.92
11.98
11.18
10.61
10.12
9.41
8.19
6.33
3.97
1.41
-0.99
-3.04
-4.75
-6.27
-7.8
-9.4
-11.09
-12.8
-14.6
-16.52
-18.6
-20.65
-22.31
-23.12
-22.72
-21
-18.13
-14.5
-10.49
-6.43
-2.57
0.88
3.72
5.82
7.19
7.98
8.41
8.7
8.94
9.2
9.49
9.86
10.34
10.87
11.36
11.72
11.9
11.95
11.95
11.92
11.71
11.15
10.03
8.3
6.15
3.87
1.76
-0.03
-1.5
-2.81
-4.02
-5.16
-6.12
-6.8
-7.21
-7.57
-8.22
-9.5
-11.58
-14.32
-17.31
-20.02
-21.99
-22.95
-22.83
-21.65
-19.45
-16.29
-12.32
-7.82
-3.26
0.89
4.27
6.77
8.49
9.64
10.41
10.92
11.21
11.34
11.39
11.47
11.64
11.96
12.42
13
13.68
14.38
14.91
14.99
14.36
12.95
10.92
8.68
6.71
5.36
4.68
4.49
4.41
4.14
3.47
2.39
0.97
-0.67
-2.49
-4.37
-6.22
-7.89
-9.28
-10.47
-11.68
-13.23
-15.33
-17.85
-20.39
-22.35
-23.16
-22.58
-20.63
-17.6
-13.89
-9.86
-5.79
-1.87
1.74
4.89
7.43
9.23
10.22
10.44
10.05
9.39
8.88
8.88
9.54
10.76
12.17
13.3
13.87
13.79
13.19
12.32
11.4
10.56
9.81
9.15
8.57
8.08
7.64
7.11
6.36
5.23
3.75
2.08
0.45
-0.94
-2.02
-2.91
-3.79
-4.84
-6.19
-7.88
-9.91
-12.25
-14.82
-17.52
-20.11
-22.28
-23.62
-23.83
-22.73
-20.39
-17.14
-13.45
-9.81
-6.58
-3.88
-1.66
0.18
1.68
2.81
3.5
3.84
3.97
4.16
4.63
5.47
6.63
7.98
9.34
10.48
11.23
11.49
11.34
10.97
10.62
10.45
10.38
10.1
9.24
7.6
5.29
2.75
0.51
-1.04
-1.86
-2.17
-2.33
-2.6
-3.1
-3.87
-4.95
-6.42
-8.36
-10.74
-13.33
-15.72
-17.38
-17.93
-17.23
-15.43
-12.85
-9.89
-6.8
-3.72
-0.66
2.34
5.14
7.47
9.08
9.82
9.81
9.4
8.98
8.86
9.11
9.56
10.02
10.3
10.37
10.33
10.28
10.3
10.31
10.14
9.61
8.58
7.06
5.17
3.16
1.25
-0.36
-1.63
-2.65
-3.6
-4.61
-5.78
-7.16
-8.78
-10.7
-12.9
-15.25
-17.45
-19.07
-19.7
-19.11
-17.3
-14.49
-11.1
-7.45
-3.84
-0.42
2.69
5.35
7.41
8.76
9.4
9.46
9.23
8.99
8.95
9.18
9.62
10.12
10.56
10.87
11.07
11.2
11.27
11.21
10.92
10.33
9.46
8.35
7.06
5.61
4.04
2.39
0.74
-0.85
-2.34
-3.79
-5.31
-6.98
-8.84
-10.87
-13.08
-15.53
-18.29
-21.33
-24.35
-26.85
-28.3
-28.37
-27.12
-24.88
-22.11
-19.13
-16.07
-13
-10.06
-7.51
-5.66
-4.7
-4.65
-5.34
-6.55
-8.08
-9.81
-11.69
-13.67
-15.71
-17.83
-20.07
-22.51
-25.25
-28.37
-31.87
-35.79
-40.15
-44.92
-50.1
-55.57
-61.22
-67
-72.86
-78.71
-84.27
-89.13
-92.71
-94.44
-93.76
-90.27
-83.67
-73.79
-60.67
-44.59
-26.16
-6.28
13.94
33.33
50.84
65.62
77.19
85.41
90.55
93.17
93.99
93.66
92.64
91.06
88.86
86.02
82.6
78.86
75.08
71.38
67.69
63.81
59.57
54.97
50.24
45.7
41.64
38.17
35.23
32.66
30.3
28.09
25.94
23.8
21.54
19.08
16.43
13.72
11.17
8.97
7.22
5.85
4.74
3.74
2.78
1.79
0.67
-0.68
-2.41
-4.56
-7.07
-9.81
-12.69
-15.59
-18.54
-21.55
-24.58
-27.45
-29.8
-31.23
-31.32
-29.88
-26.94
-22.85
-18.13
-13.4
-9.19
-5.78
-3.27
-1.54
-0.52
-0.09
-0.17
-0.55
-0.9
-0.82
0.1
2.03
4.86
8.2
11.59
14.65
17.26
19.53
21.64
23.75
25.78
27.55
28.83
29.47
29.6
29.51
29.62
30.24
31.41
32.89
34.21
34.84
34.38
32.63
29.61
25.43
20.3
14.43
8.07
1.61
-4.46
-9.64
-13.54
-16.01
-17.25
-17.62
-17.59
-17.45
-17.24
-16.69
-15.47
-13.3
-10.18
-6.41
-2.47
1.17
4.27
6.81
9.03
11.14
13.21
15.13
16.69
17.74
18.22
18.17
17.67
16.68
15.07
12.72
9.56
5.7
1.37
-3.17
-7.73
-12.18
-16.41
-20.37
-23.95
-27.09
-29.74
-31.9
-33.57
-34.82
-35.85
-36.96
-38.52
-40.68
-43.23
-45.51
-46.55
-45.51
-41.96
-36.17
-28.89
-21.15
-13.77
-7.28
-1.83
2.57
5.99
8.47
10.14
11.22
12.06
12.98
14.18
15.66
17.21
18.55
19.47
19.9
19.94
19.71
19.36
18.94
18.44
17.78
16.92
15.75
14.18
12.16
9.72
7.04
4.42
2.24
0.8
0.18
0.16
0.26
-0.09
-1.37
-3.8
-7.29
-11.44
-15.66
-19.32
-21.91
-23.05
-22.66
-20.92
-18.26
-15.21
-12.31
-9.91
-8.12
-6.78
-5.61
-4.4
-3.1
-1.86
-0.91
-0.43
-0.39
-0.57
-0.59
-0.14
0.94
2.47
4.08
5.32
5.89
5.74
5.07
4.22
3.47
2.95
2.61
2.29
1.83
1.17
0.38
-0.43
-1.18
-1.88
-2.62
-3.52
-4.67
-6.11
-7.8
-9.63
-11.38
-12.83
-13.74
-13.9
-13.17
-11.47
-8.83
-5.41
-1.48
2.59
6.39
9.56
11.89
13.34
13.99
14.04
13.66
13.01
12.23
11.48
10.98
10.95
11.47
12.4
13.38
13.92
13.66
12.46
10.56
8.43
6.58
5.33
4.74
4.6
4.53
4.23
3.53
2.43
1.05
-0.49
-2.22
-4.21
-6.54
-9.16
-11.8
-14.03
-15.45
-15.84
-15.24
-13.89
-12.08
-10
-7.72
-5.21
-2.47
0.38
3.11
5.47
7.29
8.5
9.18
9.4
9.25
8.81
8.19
7.59
7.25
7.36
7.93
8.79
9.55
9.83
9.41
8.32
6.88
5.45
4.29
3.4
2.58
1.59
0.34
-1
-2.14
-2.85
-3.17
-3.4
-4
-5.33
-7.43
-10.06
-12.71
-14.86
-16.1
-16.23
-15.18
-13.1
-10.25
-6.97
-3.66
-0.62
1.95
4.03
5.69
6.96
7.87
8.37
8.48
8.32
8.12
8.12
8.44
9.06
9.85
10.63
11.27
11.69
11.89
11.9
11.7
11.3
10.68
9.77
8.51
6.88
4.96
2.91
1
-0.62
-1.92
-3.05
-4.29
-5.84
-7.72
-9.8
-11.85
-13.71
-15.31
-16.68
-17.78
-18.4
-18.26
-17.08
-14.81
-11.66
-8.11
-4.62
-1.54
1.01
3.1
4.84
6.24
7.27
7.89
8.22
8.5
9.03
10.01
11.37
12.8
13.87
14.26
13.86
12.93
11.88
11.14
10.97
11.28
11.77
12.03
11.7
10.63
8.9
6.83
4.74
2.93
1.5
0.4
-0.55
-1.55
-2.75
-4.12
-5.52
-6.81
-7.89
-8.86
-9.99
-11.56
-13.7
-16.22
-18.56
-20.09
-20.35
-19.21
-16.97
-14.12
-11.13
-8.18
-5.22
-2.13
1.1
4.21
6.87
8.8
9.99
10.69
11.24
11.89
12.65
13.33
13.73
13.77
13.54
13.29
13.23
13.44
13.83
14.15
14.19
13.8
13
11.86
10.53
9.11
7.66
6.17
4.62
3
1.34
-0.29
-1.78
-3.04
-4.06
-4.89
-5.64
-6.39
-7.24
-8.24
-9.48
-11.05
-13.02
-15.33
-17.74
-19.84
-21.24
-21.65
-21
-19.39
-17.05
-14.18
-10.96
-7.56
-4.15
-0.96
1.77
3.81
5.02
5.38
5.02
4.2
3.29
2.72
2.75
3.46
4.61
5.84
6.82
7.41
7.72
7.91
8.12
8.29
8.22
7.74
6.82
5.69
4.63
3.84
3.31
2.83
2.08
0.86
-0.81
-2.75
-4.63
-6.14
-7.09
-7.41
-7.2
-6.67
-6.15
-5.98
-6.4
-7.53
-9.27
-11.36
-13.42
-15.06
-15.94
-15.83
-14.67
-12.52
-9.65
-6.42
-3.19
-0.29
2.06
3.77
4.86
5.43
5.61
5.54
5.33
5.09
4.97
5.09
5.56
6.41
7.63
9.08
10.58
11.87
12.69
12.88
12.37
11.25
9.74
8.12
6.61
5.34
4.28
3.36
2.45
1.53
0.67
-0.08
-0.74
-1.44
-2.33
-3.53
-4.99
-6.6
-8.25
-9.84
-11.32
-12.66
-13.76
-14.51
-14.75
-14.39
-13.38
-11.73
-9.54
-6.96
-4.21
-1.57
0.73
2.5
3.69
4.36
4.61
4.55
4.26
3.86
3.47
3.25
3.29
3.6
4.01
4.25
4.07
3.35
2.19
0.93
-0.04
-0.45
-0.27
0.21
0.53
0.34
-0.48
-1.73
-3.07
-4.2
-5.02
-5.65
-6.27
-6.97
-7.7
-8.36
-8.81
-9.12
-9.47
-10.09
-11.1
-12.39
-13.59
-14.2
-13.82
-12.28
-9.81
-6.92
-4.16
-1.93
-0.32
0.91
2.06
3.32
4.59
5.64
6.22
6.32
6.14
5.97
5.99
6.18
6.38
6.43
6.29
6.09
6.05
6.27
6.68
7.03
7.01
6.44
5.33
3.87
2.32
0.87
-0.38
-1.46
-2.48
-3.53
-4.64
-5.8
-6.94
-8.03
-9.06
-10.08
-11.19
-12.48
-13.95
-15.49
-16.83
-17.6
-17.47
-16.25
-13.97
-10.86
-7.31
-3.75
-0.57
1.96
3.72
4.7
5.01
4.79
4.25
3.64
3.2
3.08
3.32
3.82
4.39
4.84
5.09
5.19
5.25
5.31
5.32
5.13
4.64
3.83
2.86
1.94
1.16
0.48
-0.26
-1.15
-2.15
-3.06
-3.69
-3.98
-4.06
-4.23
-4.75
-5.75
-7.14
-8.67
-10.05
-11.01
-11.38
-11.08
-10.09
-8.43
-6.16
-3.45
-0.52
2.38
4.98
7.08
8.54
9.29
9.39
8.89
7.95
6.75
5.44
4.18
3.1
2.28
1.78
1.64
1.78
2.14
2.57
2.94
3.17
3.26
3.24
3.17
3.03
2.73
2.23
1.6
0.98
0.6
0.53
0.65
0.67
0.26
-0.81
-2.52
-4.68
-7.01
-9.16
-10.85
-11.83
-11.92
-11.08
-9.5
-7.49
-5.39
-3.46
-1.76
-0.22
1.19
2.36
3.1
3.22
2.74
1.92
1.13
0.76
1.04
1.99
3.53
5.48
7.67
9.9
11.97
13.62
14.67
15.05
14.85
14.31
13.68
13.12
12.59
11.93
10.97
9.61
7.84
5.71
3.28
0.55
-2.45
-5.63
-8.75
-11.56
-13.82
-15.46
-16.48
-16.94
-16.82
-15.98
-14.32
-11.81
-8.66
-5.26
-2.07
0.48
2.22
3.17
3.58
3.71
3.81
3.95
4.1
4.18
4.2
4.24
4.43
4.84
5.43
5.98
6.23
6.06
5.52
4.86
4.33
4.09
4.09
4.17
4.13
3.9
3.54
3.14
2.78
2.38
1.81
0.85
-0.62
-2.63
-5.11
-7.86
-10.68
-13.26
-15.25
-16.28
-16.05
-14.47
-11.69
-8.14
-4.33
-0.79
2.17
4.46
6.11
7.22
7.86
8
7.66
6.89
5.88
4.9
4.29
4.31
5.04
6.33
7.82
9.11
9.86
9.93
9.45
8.68
7.89
7.21
6.66
6.18
5.67
5.12
4.5
3.76
2.81
1.58
0.09
-1.53
-3.1
-4.54
-5.88
-7.31
-8.96
-10.83
-12.71
-14.26
-15.14
-15.14
-14.27
-12.68
-10.59
-8.2
-5.62
-2.92
-0.2
2.42
4.75
6.6
7.87
8.52
8.67
8.52
8.28
8.13
8.22
8.58
9.27
10.24
11.36
12.49
13.43
14.05
14.26
14.11
13.67
13.06
12.39
11.72
11.04
10.31
9.45
8.41
7.14
5.6
3.82
1.85
-0.17
-2.12
-3.87
-5.34
-6.55
-7.63
-8.78
-10.17
-11.8
-13.47
-14.73
-15.14
-14.41
-12.57
-9.9
-6.87
-3.87
-1.2
1.03
2.76
3.99
4.69
4.86
4.58
3.99
3.35
2.97
3.15
4.1
5.84
8.25
11
13.75
16.2
18.12
19.4
19.95
19.77
18.91
17.57
16.06
14.65
13.57
12.72
11.86
10.68
9.03
6.96
4.69
2.43
0.29
-1.72
-3.67
-5.6
-7.51
-9.39
-11.3
-13.27
-15.25
-17.02
-18.18
-18.36
-17.28
-15.04
-12.05
-8.91
-6.27
-4.67
-4.43
-5.66
-8.2
-11.66
-15.43
-18.84
-21.32
-22.58
-22.63
-21.73
-20.2
-18.33
-16.31
-14.26
-12.26
-10.39
-8.73
-7.25
-5.93
-4.69
-3.52
-2.52
-1.91
-1.95
-2.75
-4.23
-6.02
-7.63
-8.65
-8.91
-8.51
-7.75
-6.99
-6.5
-6.42
-6.82
-7.71
-9.03
-10.61
-12.15
-13.23
-13.41
-12.4
-10.19
-7.03
-3.39
0.22
3.4
6.03
8.22
10.16
11.97
13.61
14.88
15.69
16.08
16.3
16.6
17.05
17.54
17.79
17.62
17.09
16.41
15.84
15.47
15.19
14.73
13.85
12.45
10.57
8.42
6.22
4.14
2.38
1.06
0.29
0.13
0.51
1.28
2.2
2.96
3.23
2.79
1.61
-0.13
-2.05
-3.83
-5.29
-6.43
-7.33
-8
-8.31
-8.09
-7.3
-6.13
-4.98
-4.26
-4.18
-4.67
-5.45
-6.17
-6.66
-6.91
-6.96
-6.76
-6.11
-4.76
-2.67
-0.06
2.58
4.71
5.99
6.39
6.2
5.78
5.36
4.94
4.33
3.31
1.84
0.06
-1.77
-3.48
-5.03
-6.47
-7.78
-8.77
-9.19
-8.85
-7.84
-6.56
-5.62
-5.56
-6.59
-8.51
-10.83
-12.95
-14.37
-14.8
-14.17
-12.6
-10.27
-7.49
-4.65
-2.12
-0.17
1.09
1.78
2.16
2.55
3.12
3.82
4.47
4.89
5.08
5.3
5.91
7.18
9.07
11.23
13.11
14.27
14.54
14.04
13.01
11.68
10.13
8.39
6.48
4.51
2.6
0.83
-0.86
-2.62
-4.54
-6.63
-8.77
-10.7
-12.19
-13.09
-13.43
-13.44
-13.51
-13.97
-14.96
-16.2
-17.08
-16.89
-15.24
-12.22
-8.4
-4.56
-1.27
1.27
3.23
4.84
6.21
7.18
7.48
6.95
5.67
3.99
2.35
1.07
0.32
0.02
0.04
0.28
0.76
1.5
2.54
3.74
4.91
5.85
6.46
6.82
7.08
7.35
7.56
7.47
6.82
5.55
3.86
2.15
0.83
0.08
-0.26
-0.58
-1.36
-2.9
-5.28
-8.29
-11.58
-14.75
-17.46
-19.4
-20.29
-19.9
-18.13
-15.08
-11.05
-6.6
-2.29
1.36
4.07
5.87
7
7.84
8.7
9.67
10.63
11.31
11.44
11.01
10.23
9.46
9.05
9.08
9.4
9.71
9.67
9.18
8.24
7.01
5.59
4
2.25
0.35
-1.6
-3.42
-4.95
-6.13
-6.94
-7.39
-7.48
-7.28
-6.91
-6.63
-6.75
-7.5
-8.92
-10.75
-12.58
-13.95
-14.55
-14.27
-13.2
-11.59
-9.71
-7.83
-6.11
-4.64
-3.49
-2.64
-2.12
-1.91
-2
-2.31
-2.68
-2.91
-2.76
-2.05
-0.67
1.34
3.8
6.39
8.77
10.6
11.79
12.42
12.73
13
13.38
13.8
14.05
13.9
13.23
12.11
10.74
9.36
8.07
6.79
5.26
3.18
0.33
-3.28
-7.41
-11.67
-15.66
-19.1
-21.88
-24.04
-25.67
-26.78
-27.28
-26.98
-25.72
-23.48
-20.39
-16.79
-13.1
-9.68
-6.77
-4.46
-2.64
-1.15
0.18
1.45
2.62
3.68
4.61
5.49
6.47
7.64
8.97
10.24
11.21
11.66
11.57
11.13
10.56
10.08
9.74
9.48
9.21
8.9
8.51
8.06
7.4
6.34
4.72
2.59
0.24
-1.97
-3.81
-5.26
-6.53
-7.89
-9.45
-11.04
-12.31
-12.8
-12.23
-10.5
-7.71
-4.13
-0.08
4.07
8
11.41
14.15
16.18
17.55
18.35
18.6
18.33
17.59
16.55
15.44
14.56
14.14
14.23
14.78
15.54
16.23
16.58
16.41
15.63
14.27
12.51
10.51
8.44
6.36
4.27
2.1
-0.14
-2.42
-4.64
-6.67
-8.52
-10.24
-11.99
-13.85
-15.82
-17.75
-19.5
-20.97
-22.17
-23.15
-23.92
-24.41
-24.4
-23.63
-21.93
-19.37
-16.18
-12.77
-9.52
-6.7
-4.44
-2.71
-1.5
-0.76
-0.45
-0.48
-0.67
-0.78
-0.53
0.21
1.36
2.7
3.94
4.87
5.46
5.89
6.36
7.01
7.81
8.56
9.02
9.02
8.58
7.81
6.92
6.06
5.32
4.71
4.24
3.95
3.86
3.88
3.81
3.4
2.49
1.07
-0.63
-2.25
-3.39
-3.74
-3.2
-1.85
0.12
2.46
4.97
7.56
10.18
12.73
15
16.69
17.59
17.64
17.06
16.23
15.52
15.12
14.98
14.88
14.6
14.05
13.22
12.15
10.84
9.23
7.25
4.91
2.32
-0.34
-2.85
-5.06
-6.92
-8.5
-9.95
-11.44
-13.03
-14.62
-16.1
-17.36
-18.37
-19.28
-20.22
-21.2
-22.05
-22.49
-22.2
-21.05
-19.11
-16.62
-13.87
-11.06
-8.27
-5.51
-2.87
-0.54
1.2
2.12
2.17
1.54
0.62
-0.17
-0.58
-0.58
-0.3
0.14
0.68
1.4
2.39
3.63
4.93
6.01
6.64
6.7
6.28
5.63
5.03
4.66
4.57
4.7
4.86
4.91
4.78
4.42
3.8
2.79
1.23
-0.98
-3.69
-6.51
-8.89
-10.27
-10.42
-9.37
-7.48
-5.15
-2.69
-0.25
2.08
4.16
5.86
6.96
7.42
7.4
7.16
7.01
7.12
7.52
8.12
8.87
9.71
10.67
11.75
12.88
13.93
14.76
15.21
15.25
14.81
13.88
12.42
10.45
8.04
5.38
2.67
0.1
-2.22
-4.32
-6.32
-8.32
-10.46
-12.87
-15.63
-18.81
-22.38
-26.11
-29.59
-32.25
-33.5
-32.92
-30.4
-26.2
-20.85
-15
-9.21
-3.82
1.06
5.47
9.39
12.78
15.48
17.43
18.69
19.54
20.35
21.47
23.03
24.83
26.54
27.73
28.12
27.61
26.34
24.54
22.49
20.44
18.54
16.87
15.43
14.09
12.73
11.23
9.57
7.86
6.19
4.57
2.91
1.02
-1.27
-4.03
-7.17
-10.46
-13.63
-16.4
-18.5
-19.7
-19.79
-18.71
-16.52
-13.54
-10.22
-7.04
-4.48
-2.87
-2.36
-2.97
-4.47
-6.48
-8.47
-9.88
-10.22
-9.3
-7.21
-4.37
-1.31
1.5
3.82
5.7
7.32
8.89
10.47
11.98
13.34
14.46
15.35
15.95
16.14
15.77
14.75
13.15
11.19
9.16
7.23
5.46
3.76
1.96
-0.03
-2.22
-4.55
-6.95
-9.24
-11.18
-12.49
-12.83
-12.06
-10.22
-7.57
-4.48
-1.39
1.33
3.41
4.7
5.25
5.19
4.75
4.15
3.51
2.86
2.21
1.59
1.13
0.89
0.9
1.03
1.04
0.71
-0.06
-1.14
-2.27
-3.24
-3.92
-4.45
-5.01
-5.75
-6.64
-7.47
-8.02
-8.18
-8.02
-7.84
-7.97
-8.73
-10.2
-12.21
-14.33
-16.07
-16.94
-16.68
-15.28
-12.91
-9.89
-6.52
-3.03
0.42
3.69
6.6
8.94
10.49
11.08
10.71
9.56
8
6.5
5.51
5.36
6.09
7.44
8.97
10.25
10.96
11.07
10.73
10.16
9.56
9.05
8.65
8.29
7.86
7.31
6.65
5.94
5.27
4.71
4.2
3.61
2.7
1.28
-0.77
-3.43
-6.55
-9.96
-13.4
-16.59
-19.07
-20.36
-20.08
-18.11
-14.73
-10.53
-6.23
-2.41
0.68
3.08
5.04
6.77
8.37
9.77
10.82
11.43
11.65
11.67
11.82
12.3
13.17
14.29
15.37
16.12
16.4
16.24
15.77
15.13
14.36
13.37
12.01
10.21
8.02
5.65
3.45
1.76
0.85
0.8
1.38
2.15
2.52
1.97
0.28
-2.42
-5.57
-8.53
-10.68
-11.66
-11.41
-10.07
-7.86
-5.05
-1.92
1.22
4.05
6.28
7.79
8.64
9.02
9.16
9.2
9.12
8.77
8.04
6.94
5.69
4.63
4.05
4.06
4.49
5.01
5.26
5.05
4.42
3.57
2.64
1.59
0.18
-1.9
-4.82
-8.45
-12.31
-15.78
-18.32
-19.7
-20.09
-19.91
-19.74
-20
-20.92
-22.4
-24.21
-26
-27.37
-27.97
-27.45
-25.57
-22.28
-17.79
-12.59
-7.25
-2.28
2.07
5.76
8.81
11.18
12.72
13.28
12.96
12.1
11.27
10.94
11.33
12.24
13.23
13.9
14.05
13.81
13.45
13.25
13.31
13.54
13.75
13.72
13.3
12.39
10.98
9.07
6.79
4.33
1.94
-0.16
-1.82
-3.11
-4.19
-5.28
-6.57
-8.13
-9.9
-11.75
-13.55
-15.13
-16.3
-16.88
-16.68
-15.58
-13.55
-10.69
-7.26
-3.6
-0.13
2.77
4.77
5.73
5.69
4.88
3.64
2.33
1.24
0.58
0.4
0.62
1.1
1.64
2.05
2.25
2.2
1.97
1.63
1.25
0.84
0.49
0.24
0.16
0.26
0.45
0.59
0.55
0.25
-0.3
-1.05
-1.93
-2.93
-4
-4.98
-5.63
-5.56
-4.44
-2.12
1.21
5.08
8.96
12.41
15.23
17.47
19.26
20.65
21.56
21.86
21.44
20.37
18.9
17.39
16.08
15.02
14.09
13.06
11.82
10.36
8.89
7.62
6.69
6.07
5.56
4.87
3.7
1.89
-0.64
-3.75
-7.2
-10.54
-13.29
-14.98
-15.41
-14.78
-13.66
-12.9
-13.23
-15.04
-18.19
-22.02
-25.7
-28.44
-29.71
-29.34
-27.51
-24.61
-21.14
-17.55
-14.23
-11.45
-9.41
-8.15
-7.68
-7.85
-8.41
-9.03
-9.38
-9.24
-8.57
-7.43
-5.96
-4.28
-2.4
-0.31
1.99
4.42
6.86
9.13
11.08
12.59
13.57
13.95
13.68
12.78
11.36
9.64
7.87
6.31
5.16
4.41
3.92
3.41
2.55
1.11
-0.96
-3.42
-5.84
-7.75
-8.8
-8.87
-8.09
-6.71
-4.99
-3.12
-1.2
0.68
2.41
3.85
4.85
5.3
5.21
4.74
4.09
3.49
3.1
2.94
3.01
3.22
3.53
3.92
4.41
5.01
5.66
6.27
6.73
6.92
6.82
6.43
5.81
4.94
3.77
2.2
0.13
-2.36
-5.07
-7.71
-10.02
-11.9
-13.55
-15.29
-17.37
-19.85
-22.49
-24.86
-26.56
-27.34
-27.13
-25.97
-23.87
-20.81
-16.86
-12.21
-7.32
-2.7
1.17
4.07
6.07
7.46
8.54
9.54
10.54
11.58
12.75
14.23
16.15
18.47
20.94
23.12
24.58
25.14
24.95
24.35
23.63
22.91
21.96
20.49
18.27
15.42
12.3
9.34
6.83
4.7
2.6
0.05
-3.27
-7.34
-11.8
-16.08
-19.62
-22
-23.01
-22.65
-21.03
-18.33
-14.85
-10.95
-7.03
-3.48
-0.53
1.71
3.33
4.46
5.22
5.62
5.63
5.25
4.54
3.7
2.95
2.46
2.28
2.3
2.33
2.19
1.76
1.03
0.08
-1.01
-2.22
-3.62
-5.32
-7.43
-9.99
-12.88
-15.81
-18.37
-20.13
-20.85
-20.49
-19.33
-17.8
-16.36
-15.25
-14.43
-13.53
-12.12
-9.82
-6.57
-2.59
1.71
5.93
9.82
13.34
16.57
19.55
22.22
24.39
25.84
26.45
26.3
25.73
25.18
25.07
25.68
27.01
28.78
30.5
31.62
31.74
30.63
28.35
25.07
21.1
16.71
12.15
7.68
3.52
-0.12
-3.13
-5.51
-7.35
-8.83
-10.11
-11.41
-12.93
-14.91
-17.53
-20.81
-24.5
-28.12
-31.06
-32.86
-33.27
-32.33
-30.3
-27.48
-24.08
-20.31
-16.36
-12.57
-9.27
-6.77
-5.22
-4.52
-4.42
-4.61
-4.89
-5.21
-5.57
-5.96
-6.26
-6.25
-5.74
-4.58
-2.81
-0.56
1.97
4.58
7.11
9.4
11.3
12.66
13.38
13.45
12.97
12.14
11.15
10.15
9.15
8.05
6.73
5.06
3.03
0.75
-1.63
-3.89
-5.77
-7.08
-7.64
-7.35
-6.27
-4.54
-2.4
-0.14
2.03
3.95
5.46
6.42
6.7
6.26
5.19
3.81
2.49
1.58
1.3
1.69
2.64
3.97
5.48
6.97
8.28
9.24
9.75
9.75
9.25
8.37
7.22
5.91
4.48
2.89
1.09
-0.9
-3.01
-5.06
-6.92
-8.59
-10.25
-12.22
-14.84
-18.28
-22.36
-26.62
-30.32
-32.72
-33.28
-31.76
-28.3
-23.3
-17.37
-11.13
-5.16
0.16
4.63
8.25
11.19
13.63
15.67
17.34
18.54
19.22
19.46
19.47
19.5
19.79
20.39
21.19
22.01
22.7
23.15
23.31
23.09
22.34
20.88
18.57
15.43
11.66
7.59
3.65
0.15
-2.73
-5.01
-6.87
-8.56
-10.36
-12.46
-14.93
-17.69
-20.53
-23.13
-25.11
-26.16
-26
-24.52
-21.72
-17.79
-13.06
-8.02
-3.23
0.78
3.62
5.21
5.72
5.51
4.98
4.42
3.95
3.57
3.25
2.97
2.72
2.51
2.27
2.01
1.75
1.65
1.93
2.82
4.35
6.31
8.23
9.51
9.75
8.84
7.07
4.94
2.99
1.5
0.48
-0.3
-1.15
-2.33
-3.95
-5.91
-7.94
-9.65
-10.59
-10.44
-9.04
-6.49
-3.11
0.66
4.38
7.67
10.24
11.9
12.53
12.2
11.15
9.77
8.53
7.75
7.53
7.72
8.05
8.26
8.26
8.12
7.99
8.02
8.13
8.16
7.93
7.4
6.63
5.82
5
4.09
2.86
1.15
-1
-3.28
-5.26
-6.64
-7.41
-7.92
-8.71
-10.29
-12.9
-16.37
-20.17
-23.56
-25.77
-26.24
-24.82
-21.76
-17.64
-13.11
-8.65
-4.5
-0.66
2.94
6.24
9.06
11.18
12.44
12.92
12.83
12.53
12.31
12.29
12.51
12.89
13.29
13.6
13.7
13.47
12.84
11.83
10.49
8.93
7.25
5.44
3.45
1.24
-1.11
-3.38
-5.2
-6.29
-6.51
-6.03
-5.29
-4.8
-5.01
-6.16
-8.19
-10.76
-13.36
-15.34
-16.12
-15.31
-12.84
-9.07
-4.64
-0.29
3.47
6.42
8.68
10.47
11.95
13.05
13.62
13.51
12.74
11.54
10.21
9.07
8.24
7.71
7.38
7.11
6.83
6.52
6.18
5.76
5.2
4.4
3.33
2.1
0.91
-0.05
-0.61
-0.78
-0.77
-0.91
-1.56
-2.92
-4.93
-7.27
-9.58
-11.58
-13.24
-14.68
-16.06
-17.34
-18.28
-18.46
-17.57
-15.63
-12.99
-10.14
-7.52
-5.25
-3.2
-1.22
0.77
2.56
3.86
4.54
4.72
4.8
5.29
6.52
8.46
10.76
12.89
14.37
15
14.92
14.44
13.94
13.66
13.6
13.55
13.26
12.46
11.05
9.03
6.47
3.56
0.48
-2.59
-5.5
-8.23
-10.88
-13.61
-16.54
-19.63
-22.59
-25.02
-26.5
-26.78
-25.81
-23.75
-20.85
-17.35
-13.49
-9.45
-5.4
-1.58
1.79
4.51
6.42
7.48
7.75
7.41
6.74
6.07
5.64
5.63
5.99
6.55
7.07
7.4
7.49
7.42
7.31
7.25
7.16
6.82
6.01
4.66
2.91
1.14
-0.22
-0.85
-0.76
-0.26
0.13
-0.12
-1.29
-3.33
-5.85
-8.27
-9.97
-10.56
-9.86
-7.99
-5.25
-2.07
1.12
4.02
6.49
8.52
10.12
11.25
11.82
11.7
10.85
9.45
7.84
6.44
5.61
5.49
5.98
6.83
7.72
8.38
8.69
8.66
8.41
8.08
7.75
7.42
6.95
6.18
4.99
3.38
1.49
-0.44
-2.15
-3.49
-4.45
-5.18
-5.98
-7.2
-9.08
-11.66
-14.66
-17.5
-19.54
-20.25
-19.51
-17.59
-15.02
-12.34
-9.84
-7.56
-5.42
-3.4
-1.66
-0.49
-0.07
-0.39
-1.15
-1.94
-2.44
-2.55
-2.42
-2.25
-2.17
-2.16
-2.08
-1.8
-1.29
-0.66
-0.07
0.37
0.64
0.79
0.85
0.79
0.49
-0.09
-0.92
-1.84
-2.63
-3.16
-3.45
-3.71
-4.2
-5.1
-6.44
-8.06
-9.75
-11.36
-12.76
-13.94
-14.74
-14.93
-14.2
-12.36
-9.49
-5.97
-2.35
0.84
3.35
5.21
6.68
7.99
9.24
10.31
11.05
11.38
11.46
11.6
12.1
13.03
14.24
15.43
16.37
17.05
17.61
18.21
18.87
19.4
19.5
18.94
17.71
15.99
14.08
12.14
10.15
7.93
5.32
2.24
-1.23
-4.89
-8.45
-11.69
-14.52
-16.93
-19.05
-20.97
-22.68
-23.98
-24.49
-23.83
-21.78
-18.43
-14.2
-9.71
-5.57
-2.19
0.27
1.89
2.75
2.94
2.44
1.25
-0.4
-2.1
-3.36
-3.77
-3.28
-2.2
-1.06
-0.33
-0.2
-0.41
-0.51
-0.11
0.82
1.96
2.78
2.92
2.37
1.4
0.4
-0.41
-1.07
-1.82
-2.85
-4.27
-5.99
-7.88
-9.87
-11.95
-14.13
-16.32
-18.27
-19.71
-20.4
-20.18
-18.98
-16.8
-13.72
-9.97
-5.95
-2.1
1.16
3.57
5.17
6.1
6.56
6.66
6.48
6.14
5.84
5.91
6.56
7.88
9.68
11.67
13.53
15.08
16.24
17.04
17.56
17.9
18.11
18.25
18.21
17.85
16.97
15.44
13.29
10.67
7.8
4.85
1.87
-1.11
-4.08
-6.98
-9.7
-12.14
-14.16
-15.63
-16.36
-16.18
-15.04
-13.07
-10.59
-8
-5.55
-3.33
-1.23
0.9
3.05
5.07
6.69
7.7
8.06
7.97
7.7
7.52
7.61
8
8.59
9.21
9.72
10.03
10.09
9.92
9.52
8.82
7.71
6.04
3.79
1.06
-1.87
-4.69
-7.22
-9.43
-11.42
-13.35
-15.29
-17.19
-18.93
-20.48
-21.91
-23.41
-25.09
-26.81
-28.19
-28.71
-27.9
-25.61
-22.03
-17.6
-12.82
-8.08
-3.6
0.49
4.09
7.01
9.08
10.23
10.56
10.39
10.09
10.04
10.38
11.13
12.11
13.1
13.89
14.33
14.35
13.97
13.28
12.42
11.48
10.47
9.26
7.7
5.69
3.31
0.83
-1.39
-3.1
-4.24
-5.01
-5.71
-6.6
-7.77
-9.2
-10.83
-12.54
-14.25
-15.78
-16.8
-16.9
-15.71
-13.18
-9.55
-5.34
-1.1
2.77
6.13
9.11
11.86
14.46
16.84
18.8
20.21
21.1
21.7
22.33
23.3
24.75
26.58
28.5
30.08
30.93
30.71
29.28
26.74
23.32
19.35
15.14
10.92
6.83
2.91
-0.82
-4.33
-7.6
-10.58
-13.25
-15.56
-17.51
-19.06
-20.27
-21.27
-22.25
-23.39
-24.75
-26.23
-27.52
-28.22
-27.94
-26.47
-23.78
-20.05
-15.57
-10.69
-5.76
-1.07
3.1
6.48
8.91
10.33
10.83
10.64
10.04
9.35
8.8
8.53
8.57
8.85
9.2
9.43
9.44
9.28
9.18
9.39
10.04
10.92
11.47
11.01
8.99
5.34
0.5
-4.71
-9.46
-13.2
-15.86
-17.81
-19.6
-21.75
-24.41
-27.47
-30.46
-32.87
-34.26
-34.34
-32.97
-30.21
-26.17
-21.09
-15.29
-9.2
-3.3
1.99
6.34
9.62
11.87
13.24
13.99
14.43
14.88
15.61
16.79
18.36
20.09
21.66
22.76
23.26
23.19
22.7
22.02
21.29
20.55
19.72
18.65
17.23
15.44
13.41
11.34
9.45
7.83
6.43
5.13
3.71
2.01
-0.14
-2.77
-5.85
-9.13
-12.24
-14.69
-16.03
-16.02
-14.77
-12.67
-10.2
-7.81
-5.68
-3.82
-2.08
-0.37
1.31
2.79
3.87
4.35
4.18
3.45
2.45
1.55
1.05
1.14
1.78
2.81
4.05
5.32
6.53
7.59
8.36
8.72
8.54
7.86
6.85
5.83
5.1
4.84
5.02
5.37
5.58
5.35
4.6
3.39
1.87
0.21
-1.59
-3.71
-6.39
-9.77
-13.74
-17.82
-21.3
-23.44
-23.72
-22.07
-18.83
-14.66
-10.26
-6.17
-2.65
0.27
2.67
4.62
6.15
7.29
8.07
8.65
9.16
9.7
10.28
10.82
11.22
11.43
11.47
11.39
11.22
10.96
10.59
10.08
9.41
8.55
7.41
5.94
4.1
2.01
-0.15
-2.15
-3.81
-5.09
-6.14
-7.17
-8.41
-9.99
-11.96
-14.29
-16.91
-19.71
-22.46
-24.84
-26.42
-26.76
-25.61
-23.02
-19.33
-15.1
-10.9
-7.18
-4.18
-1.82
0.12
1.87
3.58
5.19
6.52
7.4
7.78
7.81
7.79
8.07
8.87
10.2
11.87
13.57
15
16
16.57
16.79
16.71
16.27
15.34
13.83
11.79
9.49
7.41
5.97
5.34
5.37
5.66
5.82
5.65
5.2
4.66
4.08
3.32
2.13
0.32
-1.95
-4.23
-5.9
-6.48
-5.85
-4.33
-2.48
-0.86
0.23
0.75
0.9
0.87
0.73
0.39
-0.32
-1.46
-2.88
-4.25
-5.21
-5.51
-5.19
-4.47
-3.71
-3.21
-3.06
-3.22
-3.5
-3.75
-3.86
-3.87
-3.89
-4.04
-4.37
-4.88
-5.5
-6.18
-6.92
-7.78
-8.79
-9.88
-10.87
-11.53
-11.73
-11.56
-11.4
-11.66
-12.63
-14.14
-15.67
-16.45
-15.84
-13.58
-9.84
-5.17
-0.23
4.41
8.37
11.46
13.63
14.93
15.56
15.77
15.87
16.04
16.35
16.65
16.78
16.63
16.28
15.94
15.87
16.19
16.83
17.6
18.25
18.59
18.55
18.15
17.39
16.29
14.83
12.97
10.76
8.31
5.81
3.46
1.42
-0.21
-1.46
-2.43
-3.29
-4.21
-5.41
-7.03
-9.16
-11.81
-14.77
-17.61
-19.78
-20.79
-20.37
-18.63
-16
-13.04
-10.23
-7.82
-5.84
-4.23
-2.93
-1.97
-1.45
-1.39
-1.7
-2.21
-2.68
-2.89
-2.71
-2.1
-1.09
0.21
1.64
3.04
4.3
5.33
6.12
6.72
7.14
7.34
7.22
6.67
5.61
4.06
2.16
0.19
-1.6
-3.02
-4.09
-4.9
-5.68
-6.57
-7.67
-9.03
-10.61
-12.32
-14
-15.36
-16.05
-15.73
-14.22
-11.65
-8.36
-4.81
-1.39
1.75
4.7
7.6
10.42
13
14.97
16.02
16.07
15.32
14.23
13.28
12.8
12.81
13.07
13.23
13.02
12.44
11.61
10.77
10.08
9.51
8.85
7.8
6.13
3.79
0.91
-2.25
-5.38
-8.22
-10.61
-12.44
-13.78
-14.77
-15.61
-16.59
-17.93
-19.71
-21.85
-24.08
-25.89
-26.78
-26.31
-24.28
-20.83
-16.36
-11.45
-6.69
-2.48
1
3.71
5.68
7
7.73
7.97
7.91
7.76
7.72
7.91
8.31
8.78
9.1
9.12
8.83
8.34
7.78
7.25
6.7
5.96
4.91
3.47
1.73
-0.1
-1.78
-3.12
-4.1
-4.85
-5.53
-6.27
-7.14
-8.1
-9.09
-9.99
-10.7
-10.98
-10.56
-9.11
-6.42
-2.52
2.2
7.12
11.64
15.33
18.14
20.23
21.8
22.9
23.46
23.36
22.69
21.76
21.01
20.74
20.98
21.44
21.68
21.39
20.52
19.27
17.82
16.19
14.25
11.77
8.68
5.2
1.78
-1.12
-3.24
-4.71
-5.97
-7.57
-9.9
-12.98
-16.46
-19.76
-22.23
-23.37
-22.97
-21.03
-17.75
-13.44
-8.43
-3.13
1.99
6.41
9.68
11.51
11.96
11.36
10.26
9.19
8.51
8.32
8.48
8.75
8.88
8.71
8.18
7.21
5.73
3.67
0.96
-2.32
-5.96
-9.61
-12.88
-15.5
-17.28
-18.26
-18.66
-18.73
-18.69
-18.72
-18.9
-19.26
-19.8
-20.47
-21.15
-21.63
-21.61
-20.79
-19.05
-16.42
-13.14
-9.49
-5.78
-2.26
0.84
3.32
5.04
6.02
6.48
6.82
7.43
8.61
10.34
12.35
14.24
15.64
16.41
16.58
16.33
15.78
15.01
13.98
12.65
10.98
8.97
6.63
4.01
1.21
-1.59
-4.12
-6.18
-7.67
-8.73
-9.68
-10.96
-12.9
-15.62
-18.93
-22.41
-25.48
-27.53
-28.09
-26.91
-24.04
-19.83
-14.74
-9.29
-3.88
1.25
5.94
10.09
13.62
16.48
18.67
20.22
21.16
21.56
21.51
21.12
20.54
19.85
19.09
18.23
17.17
15.91
14.53
13.24
12.24
11.65
11.43
11.46
11.55
11.62
11.64
11.57
11.37
10.88
10
8.7
7.11
5.49
4.09
3.02
2.14
1.18
-0.17
-1.98
-4.07
-5.96
-7.18
-7.34
-6.35
-4.34
-1.66
1.22
3.83
5.72
6.64
6.51
5.48
3.9
2.13
0.56
-0.57
-1.13
-1.09
-0.48
0.59
2.02
3.6
5.13
6.4
7.24
7.55
7.27
6.45
5.26
3.94
2.73
1.77
1
0.22
-0.75
-2
-3.42
-4.85
-6.14
-7.26
-8.29
-9.36
-10.57
-12.03
-13.77
-15.8
-18.03
-20.23
-22.03
-22.96
-22.69
-21.1
-18.42
-15.13
-11.82
-9.04
-7.11
-6.04
-5.55
-5.22
-4.62
-3.52
-1.95
-0.1
1.78
3.57
5.27
7.06
9.06
11.24
13.48
15.5
17.05
17.98
18.27
18.03
17.48
16.8
16.14
15.56
14.97
14.3
13.46
12.37
10.97
9.2
7.06
4.61
1.96
-0.83
-3.81
-7.13
-10.92
-15.08
-19.16
-22.47
-24.33
-24.41
-22.87
-20.16
-16.84
-13.28
-9.67
-6.11
-2.74
0.23
2.62
4.39
5.71
6.78
7.75
8.61
9.23
9.51
9.39
8.93
8.18
7.2
6.02
4.79
3.77
3.2
3.17
3.46
3.61
3.14
1.8
-0.28
-2.66
-4.82
-6.39
-7.29
-7.65
-7.7
-7.64
-7.62
-7.76
-8.17
-8.96
-10.19
-11.78
-13.55
-15.32
-16.98
-18.44
-19.64
-20.43
-20.52
-19.63
-17.6
-14.51
-10.68
-6.54
-2.51
1.18
4.46
7.31
9.66
11.34
12.19
12.22
11.66
10.92
10.43
10.42
10.8
11.25
11.42
11.15
10.49
9.68
8.93
8.26
7.49
6.38
4.76
2.68
0.39
-1.76
-3.45
-4.51
-4.98
-5.09
-5.1
-5.25
-5.65
-6.23
-6.88
-7.45
-7.88
-8.21
-8.52
-8.92
-9.49
-10.27
-11.22
-12.17
-12.92
-13.2
-12.75
-11.45
-9.35
-6.65
-3.65
-0.6
2.34
5.1
7.57
9.64
11.15
11.96
12.07
11.58
10.69
9.6
8.52
7.58
6.92
6.59
6.6
6.9
7.39
7.96
8.52
9
9.32
9.38
9.04
8.21
6.94
5.35
3.66
2.04
0.57
-0.78
-2.06
-3.37
-4.77
-6.26
-7.88
-9.6
-11.35
-13.04
-14.55
-15.88
-17.1
-18.4
-19.88
-21.52
-23.13
-24.35
-24.86
-24.42
-22.97
-20.61
-17.53
-13.98
-10.28
-6.71
-3.59
-1.15
0.56
1.63
2.21
2.48
2.5
2.31
1.98
1.67
1.68
2.28
3.55
5.35
7.27
8.85
9.75
9.94
9.61
9.08
8.6
8.23
7.83
7.25
6.48
5.64
4.91
4.38
3.93
3.34
2.4
1.1
-0.33
-1.6
-2.53
-3.2
-3.92
-5.01
-6.62
-8.53
-10.26
-11.26
-11.15
-9.87
-7.6
-4.72
-1.62
1.34
3.92
5.92
7.28
7.93
7.98
7.58
6.98
6.4
6
5.86
5.99
6.33
6.8
7.34
7.87
8.35
8.72
8.95
8.99
8.76
8.21
7.37
6.32
5.21
4.18
3.21
2.17
0.85
-0.8
-2.61
-4.29
-5.65
-6.76
-8.07
-10.06
-13
-16.6
-20.07
-22.44
-23.02
-21.65
-18.77
-15.15
-11.49
-8.21
-5.37
-2.82
-0.37
2.02
4.28
6.2
7.59
8.36
8.55
8.35
7.96
7.54
7.19
6.92
6.76
6.71
6.79
7
7.35
7.77
8.18
8.46
8.45
8.01
7.01
5.44
3.38
1.09
-1.09
-2.95
-4.45
-5.77
-7.24
-9.13
-11.54
-14.32
-17.13
-19.59
-21.35
-22.1
-21.7
-20.15
-17.66
-14.57
-11.29
-8.19
-5.48
-3.18
-1.16
0.67
2.36
3.83
4.95
5.61
5.82
5.69
5.39
5.16
5.13
5.3
5.56
5.75
5.71
5.45
5.09
4.78
4.58
4.38
3.97
3.18
1.99
0.58
-0.79
-1.91
-2.71
-3.24
-3.63
-3.95
-4.25
-4.67
-5.38
-6.59
-8.35
-10.48
-12.54
-14
-14.36
-13.35
-11
-7.55
-3.39
1.1
5.58
9.72
13.22
15.82
17.31
17.65
16.94
15.47
13.63
11.88
10.58
9.85
9.62
9.61
9.49
9.11
8.44
7.63
6.91
6.43
6.26
6.24
6.12
5.66
4.64
3.06
1.09
-0.92
-2.59
-3.66
-4.15
-4.36
-4.76
-5.85
-7.86
-10.8
-14.41
-18.36
-22.25
-25.69
-28.27
-29.55
-29.21
-27.18
-23.63
-19.02
-13.96
-9.02
-4.59
-0.88
2.12
4.45
6.28
7.73
8.97
10.12
11.25
12.35
13.31
14
14.32
14.25
13.91
13.5
13.25
13.26
13.43
13.5
13.15
12.2
10.75
9.07
7.51
6.28
5.31
4.37
3.14
1.51
-0.45
-2.45
-4.21
-5.6
-6.69
-7.62
-8.5
-9.28
-9.69
-9.42
-8.22
-6.09
-3.19
0.13
3.57
6.86
9.8
12.25
14.03
15.02
15.18
14.64
13.69
12.75
12.2
12.26
12.9
13.83
14.62
14.88
14.39
13.18
11.47
9.53
7.57
5.66
3.74
1.73
-0.44
-2.72
-4.99
-7.16
-9.12
-10.89
-12.54
-14.21
-15.99
-17.92
-19.86
-21.54
-22.61
-22.74
-21.73
-19.58
-16.51
-12.78
-8.73
-4.59
-0.57
3.18
6.45
9.01
10.65
11.25
10.93
9.95
8.72
7.63
6.93
6.74
6.95
7.36
7.71
7.79
7.49
6.87
6.1
5.42
4.95
4.64
4.26
3.47
2.09
0.14
-2.12
-4.38
-6.33
-7.84
-8.98
-9.91
-10.82
-11.84
-13.06
-14.48
-16.03
-17.57
-18.86
-19.67
-19.73
-18.8
-16.73
-13.44
-9.02
-3.79
1.69
6.86
11.21
14.52
16.81
18.27
19.12
19.51
19.6
19.49
19.31
19.16
19.05
18.96
18.85
18.74
18.67
18.69
18.64
18.3
17.42
15.9
13.89
11.66
9.44
7.3
5.1
2.64
-0.15
-3.18
-6.14
-8.75
-10.81
-12.31
-13.42
-14.41
-15.56
-17.05
-18.87
-20.79
-22.37
-23.15
-22.77
-21.13
-18.43
-14.99
-11.14
-7.1
-2.97
1.11
4.91
8.09
10.36
11.6
11.94
11.72
11.29
10.9
10.64
10.48
10.42
10.5
10.78
11.28
11.93
12.55
12.98
13.1
12.92
12.48
11.87
11.13
10.25
9.2
7.95
6.5
4.84
3.04
1.16
-0.71
-2.49
-4.14
-5.6
-6.87
-7.91
-8.79
-9.62
-10.58
-11.86
-13.56
-15.6
-17.71
-19.48
-20.5
-20.49
-19.39
-17.34
-14.65
-11.61
-8.57
-5.83
-3.63
-2.07
-1.13
-0.64
-0.37
-0.1
0.28
0.7
1.02
1.15
1.16
1.27
1.77
2.81
4.35
6.12
7.84
9.26
10.34
11.12
11.59
11.64
11.11
9.83
7.88
5.5
3.05
0.81
-1.15
-2.97
-4.93
-7.22
-9.93
-12.93
-15.93
-18.63
-20.7
-21.95
-22.26
-21.63
-20.15
-17.97
-15.15
-11.77
-7.85
-3.49
1.08
5.51
9.4
12.42
14.38
15.33
15.52
15.31
15.07
15.01
15.27
15.77
16.39
17.05
17.72
18.32
18.74
18.83
18.42
17.43
15.99
14.36
12.83
11.58
10.55
9.52
8.17
6.31
3.96
1.3
-1.41
-3.99
-6.43
-8.87
-11.52
-14.5
-17.83
-21.35
-24.72
-27.6
-29.61
-30.49
-30.02
-28.08
-24.75
-20.3
-15.21
-10.08
-5.42
-1.52
1.56
3.93
5.68
6.89
7.57
7.88
8.1
8.55
9.47
10.78
12.13
13.04
13.26
12.86
12.26
11.95
12.19
12.91
13.69
14.04
13.57
12.18
10.04
7.52
5.02
2.8
0.97
-0.53
-1.83
-3.07
-4.35
-5.78
-7.46
-9.5
-11.99
-14.85
-17.79
-20.33
-21.93
-22.18
-21.01
-18.63
-15.48
-12.02
-8.58
-5.35
-2.41
0.17
2.32
3.9
4.8
5.02
4.74
4.36
4.3
4.96
6.44
8.59
11.01
13.22
14.88
15.87
16.24
16.11
15.53
14.53
13.13
11.42
9.54
7.64
5.78
3.96
2.11
0.19
-1.8
-3.83
-5.81
-7.65
-9.22
-10.44
-11.26
-11.78
-12.21
-12.88
-13.95
-15.4
-16.89
-17.88
-17.93
-16.8
-14.63
-11.83
-8.87
-6.15
-3.86
-2.04
-0.59
0.62
1.72
2.76
3.71
4.51
5.08
5.44
5.7
6.06
6.65
7.53
8.53
9.4
9.91
9.9
9.39
8.45
7.2
5.78
4.33
3.06
2.14
1.69
1.64
1.82
1.95
1.85
1.43
0.77
-0.04
-0.96
-2.02
-3.31
-4.9
-6.77
-8.82
-10.79
-12.39
-13.31
-13.31
-12.21
-10.01
-6.82
-2.97
1.05
4.71
7.54
9.24
9.75
9.27
8.17
6.85
5.69
4.91
4.57
4.55
4.68
4.79
4.75
4.53
4.14
3.6
2.93
2.12
1.2
0.21
-0.75
-1.53
-2.03
-2.2
-2.09
-1.9
-1.87
-2.25
-3.15
-4.44
-5.84
-6.99
-7.73
-8.11
-8.5
-9.24
-10.53
-12.2
-13.81
-14.78
-14.67
-13.31
-10.81
-7.52
-3.82
-0.1
3.39
6.5
9.2
11.49
13.39
14.83
15.68
15.82
15.26
14.17
12.93
11.92
11.47
11.64
12.3
13.14
13.84
14.17
14.07
13.6
12.91
12.17
11.46
10.83
10.18
9.3
8.01
6.13
3.74
1.02
-1.73
-4.29
-6.58
-8.71
-10.9
-13.27
-15.85
-18.46
-20.92
-23.06
-24.81
-26.07
-26.66
-26.32
-24.77
-21.86
-17.71
-12.7
-7.45
-2.52
1.66
4.93
7.34
9.12
10.48
11.58
12.51
13.25
13.85
14.31
14.75
15.25
15.82
16.44
16.98
17.28
17.27
16.93
16.31
15.48
14.49
13.37
12.14
10.8
9.37
7.83
6.19
4.46
2.72
1.06
-0.38
-1.55
-2.46
-3.3
-4.33
-5.81
-7.88
-10.54
-13.63
-16.88
-20
-22.71
-24.71
-25.76
-25.66
-24.36
-22.04
-19.07
-15.95
-13.15
-10.9
-9.21
-7.9
-6.69
-5.42
-4.02
-2.49
-0.8
1.11
3.31
5.81
8.46
11.07
13.45
15.57
17.47
19.27
20.98
22.49
23.54
23.87
23.39
22.2
20.55
18.78
17.1
15.63
14.32
13.12
11.95
10.75
9.44
7.99
6.37
4.63
2.87
1.09
-0.81
-3.12
-6.07
-9.66
-13.51
-16.84
-18.85
-19.01
-17.32
-14.25
-10.51
-6.71
-3.27
-0.31
2.1
3.89
4.99
5.33
5.01
4.24
3.3
2.41
1.68
1.1
0.57
0.05
-0.47
-0.94
-1.26
-1.31
-1.04
-0.46
0.35
1.24
2.09
2.75
3.09
3
2.36
1.11
-0.76
-3.11
-5.76
-8.38
-10.64
-12.2
-12.84
-12.59
-11.7
-10.69
-10.09
-10.33
-11.52
-13.42
-15.53
-17.25
-18.03
-17.51
-15.52
-12.19
-7.93
-3.33
0.92
4.22
6.24
6.99
6.77
6.09
5.39
4.97
4.91
5.12
5.47
5.93
6.54
7.37
8.42
9.48
10.27
10.52
10.14
9.31
8.44
7.93
7.95
8.38
8.85
8.99
8.6
7.8
6.84
5.95
5.13
4.21
2.94
1.27
-0.64
-2.51
-4.15
-5.65
-7.29
-9.38
-11.97
-14.71
-16.97
-18.07
-17.57
-15.41
-11.88
-7.5
-2.86
1.54
5.31
8.2
10.1
11.01
11.06
10.5
9.65
8.83
8.29
8.14
8.32
8.63
8.88
8.96
8.84
8.57
8.21
7.78
7.27
6.63
5.77
4.58
2.91
0.65
-2.27
-5.7
-9.34
-12.69
-15.27
-16.82
-17.41
-17.45
-17.57
-18.32
-19.96
-22.42
-25.25
-27.85
-29.64
-30.18
-29.33
-27.18
-23.99
-20.16
-16.15
-12.38
-9.16
-6.62
-4.74
-3.33
-2.24
-1.34
-0.58
0.01
0.4
0.61
0.72
0.83
1.1
1.66
2.62
4.01
5.78
7.76
9.66
11.13
11.87
11.75
10.84
9.43
7.88
6.52
5.51
4.88
4.45
4.05
3.51
2.76
1.85
0.81
-0.35
-1.78
-3.61
-5.94
-8.6
-11.18
-13.07
-13.76
-12.94
-10.69
-7.4
-3.59
0.24
3.76
6.78
9.24
11.15
12.54
13.49
14.16
14.71
15.28
15.93
16.53
16.9
16.87
16.35
15.37
14.07
12.65
11.22
9.82
8.42
6.95
5.37
3.63
1.7
-0.45
-2.75
-5.07
-7.15
-8.72
-9.62
-9.9
-9.86
-9.89
-10.39
-11.62
-13.6
-16.1
-18.73
-20.95
-22.3
-22.44
-21.31
-19.07
-16.07
-12.66
-9.1
-5.52
-2.02
1.24
4.02
6.09
7.31
7.78
7.81
7.77
7.96
8.49
9.29
10.17
10.93
11.46
11.74
11.8
11.74
11.62
11.46
11.17
10.65
9.76
8.47
6.82
4.98
3.09
1.33
-0.25
-1.62
-2.85
-4.11
-5.64
-7.68
-10.36
-13.58
-16.93
-19.84
-21.68
-22.05
-20.8
-18.12
-14.34
-9.9
-5.21
-0.68
3.36
6.63
8.98
10.46
11.25
11.64
11.88
12.1
12.34
12.53
12.62
12.6
12.49
12.34
12.21
12.15
12.2
12.35
12.56
12.71
12.58
11.96
10.68
8.73
6.25
3.55
0.93
-1.42
-3.43
-5.14
-6.62
-7.96
-9.3
-10.84
-12.79
-15.25
-18.05
-20.69
-22.48
-22.75
-21.12
-17.74
-13.18
-8.21
-3.52
0.51
3.77
6.33
8.22
9.35
9.59
9.01
7.88
6.66
5.83
5.62
5.96
6.56
7.1
7.48
7.77
8.1
8.5
8.77
8.61
7.76
6.19
4.06
1.68
-0.7
-2.94
-5.07
-7.15
-9.24
-11.29
-13.15
-14.7
-15.84
-16.59
-17.06
-17.44
-17.87
-18.39
-18.9
-19.17
-18.88
-17.76
-15.64
-12.45
-8.31
-3.42
1.85
7.08
11.88
15.93
19.09
21.39
22.98
24.08
24.93
25.72
26.58
27.54
28.53
29.51
30.45
31.45
32.65
34.08
35.61
36.79
37.08
35.98
33.38
29.54
25
20.26
15.58
10.99
6.33
1.56
-3.22
-7.75
-11.82
-15.32
-18.29
-20.81
-22.79
-24
-24.06
-22.69
-19.9
-16.06
-11.84
-8
-5.13
-3.56
-3.29
-4.1
-5.69
-7.76
-10.04
-12.21
-13.97
-15
-15.09
-14.18
-12.46
-10.22
-7.84
-5.58
-3.54
-1.59
0.45
2.68
4.95
6.86
7.82
7.35
5.32
2.06
-1.71
-5.21
-7.99
-10.14
-12.21
-14.86
-18.45
-22.71
-26.8
-29.62
-30.27
-28.38
-24.3
-18.86
-13.06
-7.72
-3.31
0.02
2.34
3.81
4.64
5.08
5.39
5.82
6.5
7.42
8.45
9.39
10.09
10.5
10.66
10.65
10.47
10.1
9.53
8.81
8.07
7.47
7.12
7
6.96
6.75
6.17
5.1
3.59
1.81
0.02
-1.45
-2.21
-1.9
-0.25
2.76
6.83
11.33
15.5
18.66
20.49
21.08
20.87
20.36
19.88
19.45
18.87
17.9
16.49
14.79
13.14
11.83
10.99
10.56
10.35
10.08
9.61
8.84
7.78
6.46
4.87
2.92
0.54
-2.34
-5.68
-9.31
-13.01
-16.57
-19.78
-22.51
-24.64
-26.01
-26.45
-25.74
-23.76
-20.56
-16.36
-11.58
-6.67
-2.12
1.75
4.76
6.97
8.59
9.83
10.85
11.66
12.17
12.33
12.23
12.06
12.03
12.18
12.39
12.37
11.88
10.84
9.36
7.64
5.87
4.07
2.15
-0.04
-2.57
-5.42
-8.52
-11.75
-15.05
-18.38
-21.66
-24.75
-27.39
-29.3
-30.14
-29.66
-27.71
-24.41
-20.09
-15.28
-10.52
-6.22
-2.59
0.34
2.64
4.31
5.39
5.94
6.16
6.35
6.85
7.83
9.2
10.63
11.76
12.36
12.49
12.39
12.36
12.61
13.11
13.56
13.53
12.58
10.43
7.21
3.3
-0.67
-4.21
-7.01
-9.09
