-188.32
-186.89
-182.95
-176.55
-167.72
-155.84
-139.56
-116.98
-86.6
-48.12
-3.02
45.75
94.7
140.91
183.05
221.19
256.06
288.01
316.33
339.34
355.3
363.42
364.45
360.6
354.48
347.98
341.42
333.69
322.9
307.54
287.09
262.03
233.29
201.27
165.51
124.93
78.74
27.42
-26.9
-80.8
-130.78
-174.3
-210.42
-239.59
-262.91
-281.39
-295.47
-305.16
-310.36
-311.26
-308.23
-301.65
-291.66
-278
-260.32
-238.52
-213.08
-185.28
-157.03
-130.46
-107.35
-88.77
-74.83
-65.08
-58.88
-56.03
-56.86
-61.89
-71.19
-83.8
-97.45
-109.02
-115.18
-113.26
-101.89
-81.09
-52.08
-16.86
22.42
63.83
106.1
148.82
192.62
238.77
288.22
340.19
391.08
434.52
462.98
470.4
454.64
418.66
369.56
316.04
265.5
222.18
187.12
159.28
137.08
119.15
104.1
89.99
73.94
52.58
22.89
-16.79
-66.14
-122.55
-181.5
-237.49
-285.31
-321.35
-344.44
-355.85
-358.51
-355.69
-349.96
-342.8
-334.99
-327.18
-320.32
-315.31
-312.33
-310.32
-307.06
-299.91
-286.93
-267.64
-243.15
-215.68
-187.71
-160.95
-135.76
-111.08
-84.93
-55.57
-22.64
12.17
45.52
73.61
93.99
106.83
115.17
123.86
137.66
159.63
190.17
227.09
266.55
304.2
336.06
359.08
371.11
371.05
358.93
336.22
305.81
271.31
235.85
200.67
164.72
125.79
82.74
37.39
-5.31
-39.28
-60.48
-69.02
-69.06
-66.11
-63.94
-62.96
-60.98
-55.53
-46
-34
-22.08
-11.9
-3.2
5.69
16.54
29.92
44.97
60.18
74.37
87.51
100.59
114.93
131.27
149.1
166.6
181.07
189.81
191.1
184.77
172.31
156.41
140.23
126.41
116.42
109.98
104.95
97.91
85.2
64.32
35.04
-0.18
-36.94
-70.26
-96.05
-112.13
-118.34
-116.11
-107.88
-96.67
-85.74
-78.27
-76.69
-82.1
-93.77
-109.41
-125.95
-140.54
-151.28
-157.41
-158.87
-155.92
-148.85
-138.17
-124.8
-110.15
-95.76
-82.81
-71.75
-62.34
-54.01
-46.27
-38.98
-32.27
-26.23
-20.75
-15.43
-9.88
-3.88
2.4
8.65
14.53
20.01
25.26
30.5
35.68
40.41
43.96
45.56
44.75
41.46
36.19
29.76
23.22
17.53
13.52
11.67
12.12
14.67
18.78
23.79
28.9
33.41
36.69
38.32
38.11
36.19
32.93
29
25.11
21.9
19.74
18.64
18.34
18.45
18.6
18.58
18.31
17.77
16.9
15.6
13.75
11.28
8.19
4.57
0.58
-3.59
-7.76
-11.76
-15.5
-18.99
-22.38
-25.96
-30.01
-34.69
-39.96
-45.42
-50.4
-54.05
-55.54
-54.29
-50.1
-43.23
-34.32
-24.24
-13.89
-4.03
4.69
11.75
16.73
19.38
19.69
17.99
14.93
11.28
7.77
4.81
2.46
0.5
-1.34
-3.18
-5.04
-6.82
-8.55
-10.52
-13.13
-16.79
-21.71
-27.69
-34.18
-40.49
-46.02
-50.47
-53.94
-56.95
-60.17
-64.18
-69.18
-74.75
-79.76
-82.55
-81.34
-74.75
-62.24
-44.3
-22.28
1.94
26.45
49.63
70.36
88.22
103.58
117.55
131.72
147.66
166.32
187.71
210.94
234.67
257.59
278.76
297.48
312.89
323.7
328.23
324.97
313.28
293.89
268.82
240.69
211.83
183.57
156.01
128.56
100.71
72.64
45.37
20.22
-2.06
-21.88
-40.67
-60.06
-80.74
-101.74
-120.55
-134.18
-140.53
-139.36
-132.51
-123.07
-114.29
-108.53
-106.93
-109.62
-116.16
-126.1
-139.07
-154.83
-173.11
-193.44
-214.96
-236.32
-255.73
-271.4
-282.02
-287.34
-288.3
-286.67
-284.49
-283.27
-283.68
-285.31
-286.86
-286.47
-282.07
-271.85
-254.7
-230.66
-200.93
-167.62
-133.02
-99
-66.57
-35.93
-6.84
20.96
47.48
72.43
95.34
115.76
133.52
148.7
161.57
172.45
181.55
188.88
194.44
198.27
200.55
201.52
201.24
199.64
196.34
190.95
183.16
173.07
161.16
148.23
135.23
122.82
111.3
100.57
90.13
79.46
68.11
55.74
41.97
26.18
7.42
-15.17
-41.9
-72.04
-103.65
-134.02
-160.38
-180.61
-193.58
-199.16
-197.95
-190.96
-179.57
-165.44
-150.42
-136.15
-123.56
-112.4
-101.32
-88.32
-71.62
-50.38
-24.98
3.1
31.83
59.21
83.79
104.76
122.06
136.34
148.71
160.52
172.78
185.66
198.26
208.76
215.1
215.79
210.48
200.02
186.04
170.3
154.11
138.25
123.14
109.04
96.22
84.82
74.69
65.43
56.65
48.27
40.75
34.82
30.99
29.04
27.85
25.81
21.63
15.04
6.88
-1.3
-7.96
-12.14
-13.42
-11.66
-6.69
1.45
11.99
22.96
31.41
34.41
30.21
19
2.54
-16.97
-38.01
-60.07
-83.18
-106.81
-129.3
-148.38
-162.26
-170.85
-175.93
-180.32
-186.35
-194.77
-204.47
-213.27
-219.18
-221.28
-220.11
-217.18
-214.37
-213.17
-214.43
-218.09
-223.36
-228.86
-232.88
-233.57
-229.42
-219.57
-204.2
-184.54
-162.69
-140.98
-121.41
-105.22
-92.82
-84.04
-78.46
-75.59
-74.62
-74.13
-71.81
-64.94
-51.23
-29.94
-2.44
28.14
58.03
84.25
105.52
122.45
136.89
150.91
165.9
182.19
199.06
215.26
229.57
241.28
250.46
257.92
264.86
272.37
280.98
290.38
299.55
306.72
309.66
305.85
293.08
270.26
238.21
199.77
159.04
120.04
85.37
55.67
30.06
7.34
-12.96
-30.25
-43.42
-51.73
-55.36
-55.37
-53.03
-49.2
-44.07
-37.53
-29.49
-20.47
-11.61
-4.57
-0.92
-1.44
-5.6
-11.46
-16.4
-18.33
-16.81
-13.33
-10.61
-11.17
-15.84
-23.37
-31.04
-36.05
-36.8
-33.42
-27.57
-21.83
-19.04
-21.73
-31.64
-49.07
-72.45
-98.26
-121.75
-138.32
-145.02
-141.46
-129.9
-114.38
-99.25
-87.82
-81.49
-79.67
-80.37
-81.17
-80.2
-76.77
-71.36
-65.15
-59.34
-54.69
-51.36
-49.18
-47.75
-46.69
-45.45
-43.24
-39.02
-31.83
-21.17
-7.34
8.51
24.75
39.71
52.31
62.32
70.28
77.07
83.33
89.13
93.8
96.26
95.38
90.51
81.74
69.96
56.68
43.61
32.22
23.32
16.86
11.98
7.37
1.72
-5.82
-15.44
-26.61
-38.39
-49.67
-59.47
-67.11
-72.34
-75.34
-76.63
-76.85
-76.45
-75.58
-73.99
-71.18
-66.68
-60.26
-52.09
-42.75
-33.06
-23.89
-16.07
-10.19
-6.56
-5.15
-5.53
-7.05
-8.94
-10.57
-11.5
-11.64
-11.11
-10.19
-9.18
-8.27
-7.52
-6.87
-6.28
-5.74
-5.38
-5.38
-5.95
-7.26
-9.35
-12.18
-15.63
-19.52
-23.57
-27.34
-30.27
-31.66
-30.93
-27.73
-22.02
-14.16
-4.84
5.05
14.53
22.76
29.17
33.44
35.63
35.98
34.84
32.57
29.51
25.94
22.12
18.38
14.99
12.29
10.46
9.65
9.8
10.77
12.35
14.25
16.23
18.07
19.55
20.57
21.18
21.6
22.31
23.86
26.74
31.18
37
43.66
50.33
56.13
60.25
62.13
61.52
58.56
53.74
47.83
41.64
35.81
30.64
26.13
22.08
18.32
14.72
11.28
7.97
4.65
1.16
-2.6
-6.59
-10.64
-14.56
-18.31
-21.99
-25.79
-29.84
-34.05
-38.09
-41.46
-43.6
-44.04
-42.51
-39
-33.83
-27.59
-20.98
-14.66
-9.19
-4.94
-2.13
-0.81
-0.88
-2.06
-3.85
-5.64
-6.91
-7.34
-6.95
-6.09
-5.24
-4.79
-4.93
-5.56
-6.36
-7
-7.37
-7.51
-7.69
-8.28
-9.6
-11.83
-14.9
-18.46
-21.87
-24.39
-25.33
-24.3
-21.39
-17.1
-12.16
-7.24
-2.77
1.13
4.5
7.32
9.41
10.51
10.42
9.16
7.05
4.62
2.4
0.82
0.03
-0.1
0.05
-0.04
-0.96
-3.21
-7.03
-12.34
-18.69
-25.41
-31.83
-37.6
-42.7
-47.54
-52.58
-57.93
-63.1
-66.9
-67.75
-64.32
-56.22
-44.32
-30.62
-17.61
-7.29
-0.53
3.05
4.7
5.73
6.79
7.68
7.61
5.85
2.15
-3.09
-9.06
-15
-20.43
-25.03
-28.27
-29.18
-26.41
-18.79
-6.03
10.97
30.27
49.62
67.32
82.76
96.47
109.68
123.74
139.54
157.31
176.55
196.2
214.75
230.78
243.29
252.27
258.77
264.58
271.32
279.46
287.81
293.47
292.76
282.54
261.39
230.29
192.39
151.94
112.91
78.07
48.56
24.3
4.54
-11.68
-25.41
-37.99
-51.02
-65.97
-83.47
-102.77
-122.01
-139.04
-152.58
-163.07
-172.47
-183.41
-198.05
-217.07
-239.28
-261.72
-280.2
-290.33
-288.73
-274.18
-248.04
-214.03
-177.12
-142.11
-112.55
-90.31
-75.72
-67.95
-65.2
-64.8
-63.63
-58.95
-49.71
-37.23
-25.04
-17.35
-17.02
-24.08
-35.65
-47.26
-54.8
-56.18
-51.73
-43.42
-33.4
-22.89
-11.94
-0.01
13.02
26.35
38.43
47.74
53.75
57.3
60.19
64.35
70.78
79.12
87.8
94.84
98.78
99.24
97.08
93.88
91.33
90.69
92.5
96.64
102.55
109.54
116.95
124.17
130.62
135.62
138.31
137.66
132.81
123.28
109.29
91.82
72.39
52.73
34.37
18.41
5.3
-5.01
-13.02
-19.47
-25.23
-31.05
-37.49
-44.7
-52.45
-60.19
-67.18
-72.74
-76.45
-78.33
-78.76
-78.33
-77.59
-76.85
-76.11
-75.17
-73.81
-71.93
-69.54
-66.68
-63.37
-59.6
-55.49
-51.32
-47.52
-44.49
-42.34
-40.82
-39.38
-37.43
-34.64
-31.03
-26.95
-22.84
-19.08
-15.76
-12.72
-9.57
-5.8
-0.95
5.3
12.84
21.09
28.85
34.5
36.32
32.97
24.07
10.58
-5.28
-20.59
-32.63
-39.64
-41.25
-38.18
-31.65
-22.77
-12.41
-1.33
9.43
18.68
25.44
29.47
31.51
32.85
34.73
37.54
40.75
43.22
43.95
42.67
40.01
37.09
34.97
34.08
34.13
34.33
33.87
32.26
29.45
25.65
21.05
15.56
8.89
0.95
-7.88
-16.57
-23.77
-28.32
-29.8
-28.59
-25.66
-22.13
-18.84
-16.34
-14.97
-15.07
-16.91
-20.44
-25.11
-29.77
-33.14
-34.36
-33.36
-30.93
-28.22
-26.24
-25.44
-25.73
-26.73
-28.22
-30.19
-32.78
-36.1
-40.01
-44.3
-48.76
-53.31
-57.98
-62.73
-67.28
-71.14
-73.84
-75.08
-74.95
-73.83
-72.26
-70.61
-69
-67.3
-65.24
-62.73
-59.84
-56.86
-54.01
-51.29
-48.26
-44.26
-38.62
-31.07
-21.9
-11.78
-1.41
9.02
19.97
32.38
47.2
64.93
85.29
107.27
129.36
149.74
166.51
177.83
182.14
178.45
166.8
148.59
126.48
103.93
84.22
69.55
60.37
55.41
52.35
48.83
43.34
35.67
26.69
17.79
10.14
4.32
0.32
-2.3
-4.06
-5.47
-6.96
-8.95
-11.8
-15.75
-20.82
-26.78
-33.14
-39.19
-44.13
-47.26
-48.17
-46.91
-43.98
-40.18
-36.31
-32.94
-30.18
-27.68
-24.91
-21.43
-17.12
-12.25
-7.36
-3.02
0.45
3.12
5.4
7.83
10.69
13.91
17.04
19.54
21.09
21.75
21.83
21.67
21.31
20.36
18.18
14.23
8.37
0.98
-7.28
-15.68
-23.63
-30.75
-36.73
-41.34
-44.48
-46.27
-47.13
-47.77
-48.86
-50.81
-53.63
-56.94
-60.25
-63.04
-64.91
-65.49
-64.37
-61.18
-55.66
-47.75
-37.71
-25.99
-13.13
0.32
13.94
27.29
39.97
51.63
61.98
70.82
77.91
82.9
85.28
84.51
80.26
72.56
61.99
49.48
36.1
22.83
10.55
0.06
-7.92
-12.87
-14.76
-14.23
-12.41
-10.6
-9.76
-10.25
-11.91
-14.45
-17.75
-21.91
-26.98
-32.59
-37.76
-41.13
-41.57
-38.64
-32.78
-25.04
-16.52
-7.94
0.52
9
17.69
26.41
34.63
41.59
46.57
49.08
49.02
46.63
42.56
37.68
32.96
29.22
26.88
25.86
25.68
25.68
25.32
24.39
22.94
21.19
19.39
17.64
15.98
14.43
13.03
11.83
10.85
10
9.11
7.99
6.62
5.26
4.4
4.62
6.32
9.53
13.79
18.33
22.32
25.07
26.28
26.04
24.69
22.76
20.77
19.11
18.03
17.5
17.17
16.43
14.64
11.37
6.63
0.89
-5.09
-10.49
-14.76
-17.73
-19.54
-20.47
-20.83
-20.76
-20.38
-19.81
-19.21
-18.79
-18.7
-18.97
-19.46
-19.95
-20.14
-19.75
-18.59
-16.6
-13.87
-10.67
-7.39
-4.41
-1.97
-0.07
1.46
2.91
4.42
6
7.51
8.73
9.52
9.89
9.98
10.03
10.17
10.4
10.5
10.13
8.99
6.95
4.07
0.64
-3.04
-6.69
-10.18
-13.42
-16.32
-18.81
-20.79
-22.34
-23.64
-24.94
-26.4
-27.89
-29.02
-29.22
-28.07
-25.42
-21.63
-17.33
-13.26
-9.92
-7.47
-5.69
-4.18
-2.51
-0.38
2.34
5.68
9.69
14.41
19.69
25.1
29.75
32.5
32.34
28.81
22.35
14.34
6.66
1.09
-1.26
-0.18
3.79
9.73
16.79
24.4
32.26
40.12
47.66
54.5
60.27
64.71
67.69
69.08
68.59
65.78
60.21
51.75
40.78
28.11
14.74
1.39
-11.79
-25.11
-39.08
-53.78
-68.57
-82.11
-92.85
-99.69
-102.51
-102.34
-100.89
-99.85
-100.15
-101.54
-102.8
-102.21
-98.17
-89.65
-76.22
-58.04
-35.76
-10.45
16.4
43.17
68.39
91.26
111.82
130.72
148.57
165.17
178.98
187.35
187.39
177.04
156.05
126.19
90.73
53.47
17.79
-13.95
-40.43
-61.14
-76
-85.25
-89.47
-89.7
-87.28
-83.53
-79.36
-75.06
-70.39
-64.98
-58.64
-51.66
-44.65
-38.27
-32.81
-28.08
-23.47
-18.3
-12.27
-5.7
0.48
5.09
7.11
6.14
2.51
-2.98
-9.32
-15.69
-21.6
-26.77
-31
-34.02
-35.53
-35.35
-33.65
-31.1
-28.72
-27.73
-29.03
-32.85
-38.51
-44.54
-49.2
-51.06
-49.64
-45.4
-39.51
-33.13
-26.97
-21.16
-15.51
-10.04
-5.22
-1.91
-0.95
-2.56
-6.21
-10.67
-14.48
-16.37
-15.39
-10.85
-2.23
10.76
27.86
47.88
68.8
88.1
103.55
113.9
119.15
120.24
118.43
114.72
109.52
102.95
95.19
86.7
78.12
69.94
62.17
54.35
45.9
36.42
26.08
15.5
5.46
-3.48
-11.16
-17.78
-23.68
-29.17
-34.39
-39.37
-44.04
-48.25
-51.77
-54.25
-55.31
-54.62
-52.07
-47.85
-42.45
-36.5
-30.63
-25.3
-20.74
-16.96
-13.93
-11.59
-9.97
-9.15
-9.21
-10.15
-11.81
-13.92
-16.18
-18.31
-20.15
-21.67
-22.97
-24.16
-25.17
-25.64
-24.84
-21.98
-16.55
-8.73
0.53
9.75
17.5
22.89
25.79
26.68
26.16
24.53
21.77
17.73
12.53
6.76
1.29
-3.16
-6.37
-8.69
-10.74
-13.03
-15.65
-18.29
-20.55
-22.24
-23.56
-24.87
-26.42
-28.03
-29.04
-28.59
-25.95
-20.97
-14.17
-6.54
0.78
6.95
11.66
15.08
17.65
19.8
21.77
23.57
25.14
26.46
27.55
28.55
29.57
30.62
31.7
32.8
33.97
35.33
37.02
39.04
41.25
43.31
44.79
45.28
44.57
42.66
39.81
36.38
32.71
29.01
25.32
21.6
17.72
13.56
8.94
3.66
-2.46
-9.51
-17.35
-25.6
-33.73
-41.29
-48.06
-54.12
-59.57
-64.32
-67.75
-68.81
-66.3
-59.35
-47.82
-32.41
-14.45
4.4
22.42
37.95
49.38
55.33
54.91
48.12
36.17
21.29
6.22
-6.64
-15.9
-21.51
-24.44
-26.05
-27.49
-29.27
-31.26
-33.01
-34.01
-33.99
-32.93
-30.96
-28.28
-25.11
-21.78
-18.69
-16.28
-14.79
-14.14
-13.91
-13.45
-12.21
-9.97
-6.97
-3.83
-1.26
0.3
0.85
0.92
1.37
3.13
6.93
13.05
21.2
30.41
39.24
45.93
48.92
47.21
40.77
30.51
18.05
5.25
-6.39
-16.03
-23.58
-29.43
-34.11
-37.96
-41.03
-43.13
-44.01
-43.54
-41.82
-39.21
-36.19
-33.17
-30.33
-27.57
-24.55
-20.87
-16.24
-10.67
-4.5
1.65
6.91
10.33
11.02
8.42
2.78
-4.65
-11.57
-15.13
-12.83
-3.41
12.57
32.8
53.99
73.03
87.9
98.15
104.7
109.03
112.29
114.77
115.78
114.03
108.24
97.53
81.74
61.63
38.95
16.19
-3.69
-17.98
-24.83
-23.93
-16.47
-4.48
10.08
26.18
43.84
63.58
85.51
108.58
130.57
148.56
159.94
163
157.23
143.3
122.61
96.96
68.3
38.56
9.57
-17.05
-40.01
-58.62
-72.75
-82.96
-90.37
-96.36
-101.99
-107.72
-113.22
-117.57
-119.8
-119.34
-116.27
-111.17
-104.78
-97.66
-90.18
-82.54
-75.03
-68.05
-61.97
-57.01
-53.07
-49.83
-46.91
-44.06
-41.2
-38.45
-35.91
-33.64
-31.63
-29.83
-28.19
-26.68
-25.2
-23.57
-21.61
-19.32
-16.96
-15.01
-14.04
-14.45
-16.27
-19.08
-22.18
-24.79
-26.29
-26.44
-25.33
-23.26
-20.64
-17.77
-14.78
-11.7
-8.38
-4.75
-0.9
2.91
6.33
9.05
10.96
12.23
13.07
13.66
13.96
13.8
13.06
11.83
10.4
9.13
8.14
7.26
6.11
4.29
1.66
-1.56
-4.99
-8.16
-10.67
-12.21
-12.59
-11.68
-9.47
-6.2
-2.27
1.76
5.38
8.25
10.29
11.54
12.11
12.06
11.44
10.39
9.09
7.78
6.67
5.87
5.32
4.87
4.36
3.67
2.77
1.67
0.41
-0.92
-2.25
-3.5
-4.64
-5.69
-6.79
-8
-9.36
-10.69
-11.63
-11.8
-10.87
-8.8
-5.81
-2.33
1.21
4.45
7.17
9.21
10.39
10.58
9.75
8.14
6.13
4.25
2.85
2.04
1.65
1.42
1.15
0.87
0.8
1.15
2.02
3.32
4.78
6.06
6.85
6.91
6.18
4.8
3.13
1.75
1.38
2.67
5.92
10.95
17.12
23.41
28.89
32.91
35.36
36.55
36.99
37.19
37.44
37.81
38.17
38.39
38.41
38.32
38.37
38.96
40.51
43.18
46.62
50.01
52.23
52.26
49.63
44.53
37.65
29.76
21.33
12.33
2.54
-8.1
-19.23
-30.01
-39.42
-46.69
-51.54
-54.19
-55.18
-54.98
-53.86
-51.88
-49.07
-45.68
-42.23
-39.44
-37.88
-37.75
-38.7
-39.91
-40.44
-39.48
-36.69
-32.27
-26.92
-21.62
-17.3
-14.51
-13.17
-12.58
-11.6
-9.21
-4.86
1.26
8.35
15.31
21.2
25.58
28.5
30.31
31.38
31.96
32.15
32.03
31.75
31.48
31.4
31.49
31.5
31.01
29.6
27.04
23.33
18.71
13.54
8.28
3.37
-0.82
-3.99
-6
-6.87
-6.79
-6.13
-5.25
-4.48
-3.93
-3.58
-3.25
-2.9
-2.55
-2.4
-2.65
-3.41
-4.62
-6.04
-7.39
-8.5
-9.41
-10.32
-11.45
-12.98
-14.93
-17.28
-19.96
-22.96
-26.25
-29.7
-33.15
-36.33
-38.99
-40.98
-42.28
-42.9
-42.82
-41.93
-40.06
-37.14
-33.17
-28.35
-22.86
-16.87
-10.45
-3.67
3.33
10.35
17.12
23.45
29.26
34.63
39.65
44.27
48.28
51.28
52.82
52.55
50.33
46.3
40.86
34.6
28.21
22.29
17.25
13.19
9.87
6.96
4.09
1.16
-1.68
-4.07
-5.66
-6.32
-6.24
-5.86
-5.65
-5.96
-6.85
-8.22
-9.82
-11.42
-12.81
-13.86
-14.4
-14.28
-13.37
-11.66
-9.28
-6.49
-3.58
-0.76
1.88
4.44
7.12
9.94
12.75
14.99
15.94
14.82
10.97
4.09
-5.66
-17.66
-30.88
-44.01
-55.71
-64.96
-71.41
-75.49
-78.24
-80.85
-84.05
-87.78
-91.3
-93.63
-94.14
-92.88
-90.61
-88.38
-87.04
-86.95
-87.95
-89.54
-91.02
-91.64
-90.54
-86.93
-80.35
-70.85
-58.87
-44.68
-27.83
-6.76
20.65
55.74
97.42
141.46
181.26
210.08
223.51
221.18
206.49
184.81
161.14
138.45
117.35
97.08
76.77
56.33
36.42
17.97
1.42
-13.52
-27.44
-40.67
-52.65
-61.95
-66.46
-64.14
-53.8
-35.76
-12.01
14.13
38.85
58.75
71.76
77.48
77.14
72.98
67.46
62.46
58.79
56.24
54.02
51.34
47.81
43.56
38.95
34.26
29.57
24.8
19.92
15.16
11.06
8.27
7.18
7.73
9.36
11.24
12.56
12.8
11.92
10.32
8.69
7.72
7.9
9.26
11.43
13.74
15.51
16.24
15.76
14.2
11.83
8.92
5.64
2.09
-1.71
-5.67
-9.69
-13.66
-17.48
-21.06
-24.37
-27.36
-29.96
-32.14
-33.85
-35.08
-35.86
-36.23
-36.23
-35.87
-35.18
-34.06
-32.42
-30.08
-26.91
-22.86
-18.05
-12.77
-7.49
-2.72
1.06
3.61
4.88
5.05
4.47
3.54
2.68
2.23
2.37
3.12
4.32
5.7
6.97
7.98
8.72
9.29
9.84
10.48
11.21
11.95
12.58
12.99
13
12.54
11.58
10.26
8.85
7.75
7.28
7.64
8.76
10.38
12.12
13.58
14.46
14.53
13.67
11.9
9.37
6.38
3.29
0.39
-2.15
-4.27
-6
-7.38
-8.41
-9.17
-9.72
-10.16
-10.56
-10.91
-11.17
-11.33
-11.52
-11.92
-12.81
-14.33
-16.42
-18.88
-21.34
-23.42
-24.82
-25.28
-24.68
-22.99
-20.32
-16.92
-13.17
-9.44
-6.1
-3.37
-1.37
-0.19
0.15
-0.29
-1.35
-2.7
-3.91
-4.55
-4.33
-3.18
-1.21
1.36
4.33
7.54
10.91
14.38
17.81
21.09
24.1
26.81
29.18
31.1
32.28
32.35
30.97
28.13
24.27
20.19
16.79
14.75
14.25
15.03
16.58
18.46
20.38
22.25
23.94
25.21
25.71
25.16
23.45
20.72
17.29
13.51
9.67
5.94
2.44
-0.72
-3.43
-5.62
-7.36
-8.84
-10.33
-12.11
-14.42
-17.36
-20.89
-24.77
-28.58
-31.76
-33.78
-34.31
-33.36
-31.26
-28.59
-25.9
-23.55
-21.61
-19.9
-18.14
-16.16
-13.99
-11.89
-10.24
-9.44
-9.74
-11.12
-13.34
-15.92
-18.37
-20.28
-21.41
-21.81
-21.74
-21.65
-21.94
-22.85
-24.33
-26.1
-27.76
-29.03
-29.85
-30.39
-30.9
-31.49
-32.07
-32.29
-31.71
-29.93
-26.77
-22.3
-16.8
-10.72
-4.52
1.34
6.43
10.45
13.21
14.68
15.01
14.63
14.1
14.04
14.88
16.72
19.23
21.75
23.48
23.74
22.18
18.86
14.09
8.37
2.19
-3.95
-9.61
-14.35
-17.76
-19.54
-19.59
-18.03
-15.2
-11.63
-7.85
-4.34
-1.4
0.88
2.57
3.86
4.93
5.85
6.59
7.03
7.1
6.78
6.18
5.39
4.52
3.61
2.65
1.64
0.6
-0.43
-1.46
-2.62
-4.14
-6.26
-9.03
-12.24
-15.4
-17.9
-19.25
-19.23
-17.98
-15.86
-13.33
-10.76
-8.37
-6.29
-4.59
-3.4
-2.8
-2.85
-3.49
-4.56
-5.78
-6.92
-7.8
-8.32
-8.5
-8.33
-7.76
-6.71
-5.09
-2.91
-0.3
2.46
5.08
7.31
9.06
10.5
11.92
13.75
16.41
20.23
25.44
32.1
40.13
49.23
58.9
68.54
77.6
85.69
92.84
99.34
105.76
112.62
120.27
128.73
137.74
146.86
155.74
164.14
172.06
179.74
187.61
196.16
205.86
217.01
229.42
242.22
253.76
261.8
263.95
258.48
244.83
223.8
197.26
167.53
136.75
106.58
78.19
52.4
29.73
10.33
-6.12
-20.43
-33.64
-46.62
-59.8
-72.99
-85.54
-96.73
-105.92
-112.92
-118.01
-121.99
-125.98
-131.24
-138.83
-149.35
-162.84
-178.83
-196.33
-213.97
-230.11
-243.04
-251.38
-254.38
-252.22
-245.9
-236.85
-226.48
-215.86
-205.58
-195.98
-187.28
-179.7
-173.32
-167.98
-163.26
-158.64
-153.75
-148.45
-142.91
-137.45
-132.25
-127.24
-122.15
-116.59
-110.34
-103.38
-95.92
-88.33
-80.99
-74.22
-68.29
-63.33
-59.33
-56.12
-53.28
-50.2
-46.27
-41.07
-34.56
-27.14
-19.47
-12.16
-5.61
0.1
5.05
9.23
12.4
14.19
14.32
12.9
10.63
8.63
8.06
9.69
13.61
19.29
25.83
32.41
38.47
43.87
48.69
53.06
56.89
59.92
61.73
61.86
59.98
55.98
50.01
42.52
34.23
26
18.74
13.16
9.69
8.37
8.96
11.04
14.07
17.45
20.56
22.82
23.76
23.27
21.56
19.19
16.82
14.95
13.78
13.17
12.78
12.31
11.66
10.96
10.4
10.06
9.87
9.61
9.05
8.01
6.44
4.41
2.05
-0.53
-3.17
-5.74
-8.14
-10.44
-12.93
-16.01
-19.98
-24.81
-30.01
-34.67
-37.82
-38.71
-37.12
-33.35
-28.17
-22.52
-17.36
-13.46
-11.23
-10.63
-11.06
-11.46
-10.52
-7.13
-0.72
8.43
19.26
30.33
40.19
47.8
52.69
54.92
54.81
52.85
49.48
45.17
40.37
35.53
31.07
27.29
24.32
22.07
20.27
18.58
16.64
14.24
11.3
7.93
4.35
0.82
-2.42
-5.15
-7.2
-8.47
-8.93
-8.72
-8.05
-7.16
-6.18
-5.11
-3.83
-2.26
-0.43
1.56
3.46
5.12
6.42
7.31
7.79
7.91
7.73
7.43
7.24
7.35
7.84
8.63
9.48
10.1
10.24
9.79
8.83
7.61
6.42
5.49
4.9
4.5
4.02
3.17
1.78
-0.16
-2.46
-4.79
-6.83
-8.28
-8.91
-8.52
-7
-4.31
-0.61
3.84
8.65
13.44
17.98
22.11
25.75
28.78
30.99
32.12
32.01
30.71
28.56
26.12
23.92
22.33
21.35
20.71
20.05
19.08
17.78
16.3
14.91
13.8
13.02
12.4
11.63
10.38
8.4
5.57
2.02
-1.92
-5.85
-9.29
-11.88
-13.41
-13.84
-13.27
-11.85
-9.78
-7.3
-4.67
-2.25
-0.4
0.6
0.56
-0.44
-2.12
-4.03
-5.72
-6.84
-7.29
-7.09
-6.39
-5.37
-4.11
-2.73
-1.34
-0.08
0.9
1.57
2.07
2.69
3.66
5.05
6.58
7.82
8.34
7.99
6.99
5.81
5.02
4.92
5.54
6.62
7.81
8.8
9.44
9.69
9.52
8.94
7.95
6.75
5.64
5.05
5.35
6.7
8.89
11.43
13.76
15.46
16.39
16.66
16.5
16.06
15.31
14.11
12.36
10.12
7.62
5.12
2.81
0.78
-0.91
-2.18
-2.82
-2.56
-1.24
1.2
4.67
9.01
14.01
19.35
24.41
28.38
30.37
29.77
26.58
21.53
15.95
11.31
8.72
8.55
10.4
13.27
16.04
17.92
18.6
18.3
17.45
16.35
15
13.2
10.71
7.58
4.2
1.16
-1.03
-2.24
-2.73
-2.94
-3.14
-3.21
-2.64
-0.81
2.56
7.23
12.3
16.63
19.24
19.67
18.1
15.16
11.57
7.83
4.09
0.27
-3.73
-7.86
-12
-16.14
-20.47
-25.38
-31.27
-38.21
-45.8
-53.28
-59.87
-65.24
-69.65
-73.83
-78.55
-84.22
-90.64
-97.16
-103.01
-107.63
-110.78
-112.33
-112.08
-109.64
-104.56
-96.64
-86.17
-73.93
-60.95
-48.13
-35.92
-24.34
-13.12
-2.07
8.7
18.81
27.76
35.18
40.94
45.13
47.93
49.54
50.19
50.16
49.86
49.82
50.56
52.35
55.13
58.46
61.76
64.46
66.23
66.89
66.26
63.95
59.33
51.66
40.45
25.71
8.09
-11.25
-30.92
-49.62
-66.26
-79.96
-89.98
-95.8
-97.33
-95.12
-90.41
-84.79
-79.77
-76.15
-73.88
-72.07
-69.48
-64.99
-57.92
-48.18
-36.15
-22.48
-7.88
6.91
21.23
34.49
46.17
55.88
63.49
69.29
73.9
78.14
82.67
87.72
92.94
97.6
100.96
102.62
102.71
101.79
100.49
99.28
98.32
97.55
96.76
95.63
93.82
90.95
86.82
81.51
75.46
69.36
63.87
59.4
56.01
53.52
51.71
50.36
49.3
48.21
46.56
43.69
39.09
32.68
24.92
16.68
8.83
1.88
-4.21
-9.9
-15.84
-22.44
-29.73
-37.32
-44.54
-50.73
-55.37
-58.05
-58.38
-55.96
-50.35
-41.34
-29.13
-14.45
1.63
17.87
33.19
46.84
58.39
67.7
74.7
79.49
82.25
83.36
83.28
82.41
80.84
78.21
73.82
66.79
56.51
42.92
26.81
9.69
-6.54
-20.2
-30.34
-37.21
-42.1
-46.86
-53.14
-61.64
-71.8
-82.03
-90.37
-95.26
-96.12
-93.41
-88.35
-82.26
-76.22
-70.86
-66.49
-63.37
-61.77
-61.99
-64.03
-67.47
-71.51
-75.12
-77.49
-78.19
-77.24
-74.95
-71.67
-67.57
-62.65
-56.72
-49.65
-41.4
-32.06
-21.75
-10.5
1.84
15.53
30.81
47.71
65.94
84.95
104.07
122.74
140.6
157.41
172.99
187.06
199.31
209.51
217.65
223.96
228.81
232.41
234.65
235.01
232.56
226.12
214.41
196.36
171.54
140.54
105.23
68.52
33.62
3.1
-21.87
-41.75
-58.13
-72.95
-87.65
-102.85
-118.39
-133.8
-148.55
-162.15
-174.14
-184
-191.28
-195.78
-197.71
-197.49
-195.56
-192.05
-186.72
-179.12
-168.99
-156.53
-142.49
-128.09
-114.64
-103.29
-94.71
-88.94
-85.45
-83.22
-81.04
-77.84
-73.05
-66.72
-59.47
-52.19
-45.56
-39.85
-34.87
-30.18
-25.48
-20.74
-16.3
-12.62
-10.04
-8.52
-7.62
-6.67
-5.02
-2.26
1.78
7.11
13.63
21.14
29.34
37.68
45.39
51.76
56.33
59.11
60.59
61.4
61.98
62.4
62.27
61.06
58.36
54.08
48.43
41.86
34.8
27.62
20.49
13.47
6.48
-0.54
-7.68
-14.95
-22.24
-29.33
-35.9
-41.53
-45.77
-48.18
-48.43
-46.44
-42.46
-36.99
-30.81
-24.66
-19.12
-14.54
-11.04
-8.6
-7.15
-6.6
-6.81
-7.58
-8.66
-9.76
-10.65
-11.14
-11.17
-10.73
-9.86
-8.66
-7.29
-5.95
-4.98
-4.7
-5.4
-7.22
-10.01
-13.34
-16.6
-19.14
-20.38
-20.03
-18.02
-14.55
-9.97
-4.75
0.55
5.33
9.07
11.36
12.05
11.28
9.4
6.85
4.07
1.39
-1.08
-3.37
-5.64
-8.07
-10.73
-13.56
-16.38
-19.02
-21.36
-23.51
-25.74
-28.42
-31.79
-35.79
-39.96
-43.49
-45.33
-44.44
-39.99
-31.61
-19.57
-4.75
11.43
27.29
41.28
52.31
59.94
64.31
66.01
65.8
64.38
62.28
59.89
57.39
54.86
52.22
49.3
45.94
42.13
37.99
33.82
29.98
26.8
24.42
22.82
21.88
21.45
21.5
22.06
23.26
25.11
27.43
29.76
31.54
32.27
31.67
29.76
26.73
22.81
18.18
12.96
7.41
1.99
-2.73
-6.26
-8.47
-9.75
-10.82
-12.44
-15.09
-18.78
-23.23
-28.01
-32.91
-37.82
-42.66
-47.12
-50.49
-51.9
-50.6
-46.33
-39.56
-31.33
-22.92
-15.44
-9.47
-4.98
-1.61
1.15
3.64
5.97
8.15
10.2
12.23
14.37
16.66
18.88
20.73
21.87
22.19
21.89
21.31
20.75
20.2
19.4
17.89
15.4
12.06
8.48
5.56
4.18
4.9
7.72
12.16
17.31
22.13
25.63
27.14
26.35
23.41
18.81
13.22
7.38
1.84
-3.05
-7.17
-10.6
-13.46
-15.94
-18.13
-20.1
-21.88
-23.47
-24.9
-26.21
-27.51
-28.79
-29.97
-30.86
-31.27
-31.14
-30.62
-30.05
-29.83
-30.33
-31.65
-33.61
-35.77
-37.57
-38.39
-37.72
-35.19
-30.7
-24.5
-17.09
-9.16
-1.39
5.68
11.71
16.56
20.17
22.57
23.83
24.13
23.76
23.11
22.51
22.2
22.22
22.45
22.67
22.69
22.4
21.76
20.83
19.77
18.7
17.67
16.64
15.57
14.44
13.24
12.03
10.82
9.57
8.21
6.65
4.88
3.02
1.23
-0.43
-2.07
-3.98
-6.48
-9.73
-13.58
-17.5
-20.73
-22.42
-21.97
-19.16
-14.23
-7.84
-0.79
6.17
12.53
18.02
22.57
26.16
28.8
30.5
31.33
31.47
31.2
30.81
30.56
30.51
30.66
30.92
31.19
31.38
31.4
31.2
30.67
29.78
28.54
27.01
25.3
23.48
21.59
19.62
17.54
15.34
12.98
10.48
7.85
5.07
2.19
-0.67
-3.32
-5.55
-7.27
-8.57
-9.74
-11.11
-12.87
-14.92
-16.82
-17.91
-17.57
-15.4
-11.38
-5.79
0.87
7.98
14.96
21.26
26.42
30.24
32.71
34.04
34.46
34.12
32.97
30.97
28.22
25.04
22
19.67
18.34
17.96
18.11
18.3
18.12
17.38
16.09
14.45
12.71
11.15
10
9.35
9.17
9.3
9.52
9.67
9.69
9.53
9.15
8.47
7.39
5.85
3.91
1.68
-0.74
-3.36
-6.36
-9.96
-14.28
-19.18
-24.21
-28.64
-31.73
-32.93
-32.1
-29.55
-25.98
-22.19
-18.92
-16.62
-15.41
-15.04
-15.04
-14.89
-14.24
-13.02
-11.42
-9.9
-8.9
-8.65
-9.09
-9.91
-10.72
-11.33
-11.87
-12.77
-14.57
-17.57
-21.68
-26.4
-31.03
-34.95
-37.85
-39.73
-40.61
-40.46
-39.04
-36.15
-31.88
-26.68
-21.21
-16.02
-11.28
-6.76
-2.09
2.88
7.8
12.01
14.95
16.58
17.56
19.01
22.04
27.34
35
44.54
55.17
66.06
76.53
86.15
94.68
101.97
107.84
112.01
114.04
113.52
110.23
104.24
96.03
86.25
75.57
64.49
53.34
42.42
32.03
22.54
14.22
7.27
1.64
-2.87
-6.54
-9.63
-12.35
-14.89
-17.42
-20.13
-23.17
-26.64
-30.62
-35.13
-40.13
-45.48
-50.92
-56.17
-60.97
-65.19
-68.85
-72
-74.62
-76.55
-77.45
-76.93
-74.65
-70.52
-64.72
-57.68
-50.02
-42.3
-35.01
-28.39
-22.48
-17.21
-12.59
-8.74
-5.96
-4.55
-4.57
-5.77
-7.58
-9.32
-10.46
-10.82
-10.61
-10.27
-10.23
-10.74
-11.69
-12.82
-13.82
-14.51
-14.89
-15.12
-15.34
-15.66
-16.06
-16.49
-16.96
-17.53
-18.36
-19.53
-20.99
-22.5
-23.66
-24.01
-23.22
-21.13
-17.76
-13.32
-8.09
-2.45
3.18
8.28
12.28
14.73
15.36
14.25
11.79
8.59
5.27
2.33
0.04
-1.59
-2.65
-3.38
-4.04
-4.92
-6.3
-8.32
-10.99
-14.18
-17.64
-21.14
-24.57
-27.93
-31.31
-34.76
-38.11
-40.94
-42.63
-42.64
-40.64
-36.75
-31.48
-25.56
-19.71
-14.39
-9.78
-5.84
-2.49
0.28
2.38
3.73
4.35
4.31
3.79
2.94
1.89
0.81
-0.03
-0.4
-0.05
1.03
2.53
3.91
4.56
4
2.08
-0.98
-4.8
-8.89
-12.83
-16.25
-18.79
-20.12
-19.94
-18.12
-14.85
-10.54
-5.79
-1.17
3.02
6.72
10.11
13.3
16.26
18.72
20.37
20.97
20.54
19.33
17.76
16.18
14.85
13.87
13.28
13.07
13.18
13.49
13.82
13.99
13.9
13.54
12.95
12.16
11.12
9.73
7.92
5.8
3.68
2.05
1.43
2.21
4.49
8.14
12.78
17.93
23.05
27.65
31.36
33.88
35.05
34.83
33.28
30.62
27.16
23.26
19.28
15.5
12.16
9.37
7.21
5.67
4.66
4
3.46
2.8
1.8
0.33
-1.66
-4.11
-6.9
-9.86
-12.82
-15.62
-18.17
-20.53
-22.82
-25.18
-27.65
-30.07
-32.12
-33.29
-33.1
-31.2
-27.51
-22.17
-15.63
-8.5
-1.45
4.86
9.98
13.7
16.08
17.37
17.91
17.95
17.67
17.17
16.54
15.92
15.46
15.29
15.44
15.81
16.19
16.37
16.2
15.58
14.55
13.16
11.48
9.65
7.83
6.22
5.01
4.35
4.22
4.46
4.7
4.43
3.24
0.88
-2.6
-6.82
-11.21
-15.27
-18.71
-21.5
-23.88
-26.15
-28.51
-30.98
-33.34
-35.17
-35.94
-35.11
-32.26
-27.3
-20.49
-12.5
-4.24
3.31
9.36
13.45
15.57
16.03
15.31
13.91
12.18
10.36
8.53
6.73
5.02
3.5
2.28
1.46
1.16
1.46
2.38
3.85
5.67
7.6
9.37
10.87
12.09
13.13
14
14.67
14.96
14.69
13.75
12.22
10.34
8.49
7.02
6.16
5.95
6.13
6.26
5.84
4.53
2.39
-0.13
-2.31
-3.5
-3.45
-2.52
-1.47
-1.1
-1.77
-3.21
-4.73
-5.64
-5.75
-5.56
-5.97
-7.73
-10.94
-14.9
-18.38
-20.21
-19.82
-17.53
-14.32
-11.33
-9.28
-8.11
-7.01
-4.76
-0.29
6.86
16.43
27.58
39.33
50.91
61.94
72.34
82.12
91.13
98.99
105.25
109.53
111.6
111.38
108.78
103.63
95.64
84.61
70.63
54.2
36.15
17.49
-0.93
-18.59
-35.27
-50.84
-64.9
-76.6
-84.73
-88.09
-85.85
-77.92
-64.97
-48.17
-28.88
-8.43
11.88
30.61
46.04
56.26
59.63
55.29
43.66
26.55
6.7
-12.97
-30.18
-43.83
-53.97
-61.41
-67.09
-71.57
-74.86
-76.62
-76.43
-74.19
-70.14
-64.8
-58.76
-52.54
-46.5
-40.98
-36.4
-33.3
-32.26
-33.61
-37.17
-42.09
-47.05
-50.61
-51.77
-50.32
-46.82
-42.34
-37.96
-34.32
-31.45
-28.97
-26.5
-23.99
-21.88
-20.78
-21.04
-22.35
-23.73
-23.8
-21.35
-15.79
-7.32
3.3
15.21
27.85
41.06
54.78
68.71
82.06
93.68
102.51
108.02
110.48
110.75
109.85
108.46
106.72
104.39
101.22
97.39
93.46
90.22
88.1
86.86
85.6
83.01
78.01
70.1
59.53
47.08
33.65
19.87
6.02
-7.83
-21.47
-34.3
-45.28
-53.22
-57.15
-56.7
-52.2
-44.56
-35
-24.78
-15.02
-6.62
-0.22
3.86
5.68
5.62
4.3
2.39
0.43
-1.3
-2.75
-4.11
-5.69
-7.87
-11.12
-15.79
-22.17
-30.33
-40.24
-51.76
-64.72
-78.96
-94.23
-110.22
-126.39
-142.16
-156.88
-169.9
-180.55
-188.11
-191.78
-190.86
-185.02
-174.47
-160.18
-143.82
-127.38
-112.72
-101.21
-93.41
-89.11
-87.61
-87.92
-89
-89.83
-89.45
-87.04
-82.02
-74.16
-63.65
-50.99
-36.75
-21.39
-5.14
11.95
29.95
48.83
68.39
88.12
107.16
124.44
138.89
149.88
157.39
162.02
164.58
165.51
164.56
160.75
152.94
140.56
124.05
105.01
85.74
68.59
55.33
46.84
43.08
43.33
46.4
50.94
55.6
59.34
61.53
62.13
61.6
60.81
60.68
61.95
64.96
69.5
74.94
80.28
84.5
86.7
86.29
83.1
77.36
69.67
60.82
51.69
43
35.18
28.27
21.91
15.52
8.64
1.17
-6.6
-14.01
-20.42
-25.43
-28.98
-31.39
-33.04
-34.24
-35.13
-35.72
-35.97
-35.82
-35.13
-33.61
-30.87
-26.49
-20.27
-12.39
-3.47
5.51
13.42
19.25
22.3
22.39
19.86
15.48
10.21
4.9
0.02
-4.43
-8.83
-13.7
-19.38
-25.98
-33.42
-41.48
-49.9
-58.32
-66.1
-72.48
-76.77
-78.78
-78.91
-78.07
-77.11
-76.32
-75.26
-72.94
-68.47
-61.5
-52.52
-42.57
-32.87
-24.42
-17.83
-13.32
-10.75
-9.67
-9.41
-9.16
-8.17
-5.89
-2.14
2.89
8.64
14.32
18.99
21.84
22.38
20.59
16.95
12.36
7.76
3.89
1.05
-0.86
-2.17
-3.14
-3.88
-4.36
-4.6
-4.8
-5.44
-7.05
-9.91
-13.82
-18.01
-21.38
-22.9
-21.85
-18.07
-11.74
-3.29
6.66
17.28
27.53
36.23
42.36
45.4
45.51
43.44
40.25
37.05
34.89
34.73
37.39
43.31
52.27
63.24
74.52
84.24
90.92
93.81
93.03
89.21
83.3
76.21
68.71
61.34
54.35
47.67
41.06
34.31
27.51
21.02
15.38
10.94
7.64
5.03
2.45
-0.61
-4.27
-8.34
-12.46
-16.42
-20.35
-24.59
-29.57
-35.52
-42.31
-49.49
-56.54
-63.04
-68.83
-74.03
-78.78
-83.13
-86.83
-89.33
-89.91
-87.91
-83.02
-75.36
-65.5
-54.34
-42.81
-31.69
-21.53
-12.79
-5.85
-1.09
1.19
1
-1.19
-4.5
-7.85
-10.31
-11.4
-11.26
-10.53
-10.1
-10.75
-12.84
-16.16
-19.98
-23.24
-24.93
-24.55
-22.35
-19.34
-16.88
-16.13
-17.55
-20.71
-24.6
-28.17
-30.87
-32.81
-34.57
-36.68
-39.17
-41.35
-42.12
-40.3
-35.18
-26.73
-15.61
-2.94
10.03
22.24
32.94
41.73
48.46
53.1
55.61
56
54.38
51.07
46.63
41.8
37.31
33.72
31.19
29.49
28.14
26.6
24.58
22.13
19.6
17.45
15.89
14.79
13.66
11.96
9.37
5.97
2.13
-1.69
-5.26
-8.58
-11.73
-14.55
-16.41
-16.34
-13.37
-7.05
2.19
12.99
23.42
31.58
36.07
36.26
32.23
24.51
13.92
1.36
-12.13
-25.34
-36.99
-45.94
-51.58
-53.99
-53.83
-51.99
-49.29
-46.12
-42.46
-37.98
-32.38
-25.61
-17.96
-10.1
-2.9
2.67
5.96
6.78
5.6
3.49
1.76
1.63
3.78
8.27
14.57
21.84
29.24
36.06
41.81
46.12
48.53
48.54
45.61
39.48
30.42
19.44
8.14
-1.58
-8.05
-10.34
-8.42
-3.17
3.98
11.45
17.84
22.07
23.5
21.97
17.73
11.49
4.15
-3.36
-10.35
-16.6
-22.4
-28.32
-34.82
-41.74
-48.15
-52.57
-53.48
-50.07
-42.69
-32.79
-22.36
-13.18
-6.1
-0.91
3.33
7.69
12.75
18.44
24.15
29.24
33.26
36.27
38.77
41.41
44.79
49.17
54.28
59.45
63.82
66.67
67.63
66.73
64.35
61.03
57.41
54.09
51.62
50.14
49.23
47.76
44.16
37.09
26.18
12.59
-1.19
-11.95
-17.01
-15.16
-7.17
4.46
16.39
25.54
30.03
29.57
25.26
18.85
11.88
5.21
-1.14
-7.55
-14.28
-21.08
-27.18
-31.53
-33.11
-31.05
-24.57
-13.1
3.55
24.62
48.06
70.44
87.58
95.67
92.53
78.39
55.91
29.3
2.77
-20.74
-40.37
-57.15
-72.97
-89.42
-106.88
-124.45
-140.42
-153.13
-161.47
-165.02
-163.68
-157.33
-145.99
-130.12
-111.08
-91.09
-72.63
-57.5
-46.19
-37.81
-30.8
-23.81
-16.39
-9.03
-2.67
2.01
4.99
6.94
8.81
11.4
15.02
19.55
24.57
29.61
34.19
37.91
40.36
41.17
40.14
37.28
32.93
27.7
22.29
17.25
12.88
9.17
5.86
2.72
-0.43
-3.54
-6.42
-8.78
-10.28
-10.73
-10.2
-9.16
-8.39
-8.78
-10.82
-14.3
-18.15
-20.73
-20.42
-16.24
-8.28
2.39
14.21
25.74
36.04
44.79
52.02
57.78
62.03
64.63
65.58
65.09
63.65
61.89
60.34
59.39
59.24
59.99
61.55
63.59
65.44
66.21
64.95
61.11
54.68
46.33
37.14
28.24
20.44
14.07
9.1
5.24
2.16
-0.46
-2.98
-5.72
-9
-12.94
-17.46
-22.28
-27
-31.29
-35.07
-38.56
-42.15
-46.23
-50.93
-55.94
-60.47
-63.42
-63.64
-60.26
-53.08
-42.65
-30.18
-17.22
-5.23
4.81
12.57
18.21
22.15
24.69
25.93
25.79
24.3
21.77
18.86
16.37
14.96
14.83
15.67
16.78
17.39
16.93
15.28
12.64
9.44
6.05
2.64
-0.85
-4.57
-8.62
-12.98
-17.36
-21.4
-24.8
-27.4
-29.24
-30.58
-31.72
-32.96
-34.47
-36.31
-38.42
-40.58
-42.47
-43.56
-43.16
-40.54
-35.13
-26.78
-15.89
-3.41
9.46
21.57
32.09
40.71
47.5
52.75
56.81
59.95
62.36
64.21
65.64
66.79
67.79
68.81
70.04
71.67
73.86
76.7
80.07
83.77
87.51
91.06
94.3
97.33
100.39
103.8
107.99
113.4
120.4
129.1
139.16
149.74
159.58
167.36
172.01
172.95
170.08
163.5
153.28
139.25
121
98.23
71.13
40.71
8.82
-22.26
-50.52
-74.91
-95.56
-113.4
-129.47
-144.16
-156.89
-166.53
-172.05
-173.19
-170.65
-165.83
-160.3
-155.4
-152
-150.48
-150.75
-152.26
-154.14
-155.49
-155.68
-154.64
-152.77
-150.64
-148.55
-146.4
-143.77
-140.2
-135.43
-129.47
-122.46
-114.48
-105.6
-96
-86.18
-77.04
-69.61
-64.66
-62.27
-61.64
-61.32
-59.64
-55.32
-47.94
-38.06
-26.98
-16.27
-7.29
-0.82
3.04
4.77
5.28
5.63
6.91
9.93
15.08
22.15
30.42
38.85
46.55
53.1
58.6
63.49
68.17
72.67
76.61
79.43
80.69
80.37
78.77
76.27
73.04
69
63.89
57.63
50.52
43.17
36.27
30.25
25.1
20.37
15.42
9.75
3.3
-3.56
-10.04
-15.17
-18.05
-18.09
-15.16
-9.7
-2.6
5.11
12.49
18.94
24.25
28.41
31.39
33.06
33.14
31.48
28.17
23.62
18.45
13.27
8.51
4.35
0.83
-2.01
-4.08
-5.31
-5.73
-5.66
-5.62
-6.14
-7.57
-9.89
-12.77
-15.69
-18.25
-20.23
-21.75
-23.07
-24.46
-26.12
-28.05
-30.19
-32.43
-34.67
-36.83
-38.84
-40.71
-42.4
-43.99
-45.44
-46.65
-47.32
-46.9
-44.78
-40.54
-34.16
-26.14
-17.4
-9.02
-1.93
3.28
6.41
7.59
7.2
5.79
4.08
2.76
2.43
3.36
5.41
8.12
10.83
12.91
13.99
13.94
12.77
10.65
7.77
4.32
0.6
-3
-6.01
-7.92
-8.36
-7.18
-4.54
-0.88
3.25
7.32
10.99
14.15
16.79
19.01
20.84
22.27
23.22
23.71
23.9
24.18
25.13
27.35
31.2
36.58
42.98
49.54
55.37
59.86
62.74
63.93
63.49
61.49
58.12
53.84
49.37
45.55
42.99
41.84
41.72
41.96
41.89
41.09
39.56
37.57
35.49
33.62
32.02
30.59
29.09
27.25
24.87
21.87
18.35
14.51
10.62
6.93
3.59
0.58
-2.21
-5
-8.04
-11.54
-15.68
-20.45
-25.66
-30.84
-35.24
-38.02
-38.43
-36.1
-31.22
-24.47
-16.83
-9.28
-2.6
2.76
6.55
8.64
8.88
7.14
3.36
-2.31
-9.49
-17.58
-25.93
-33.91
-41.14
-47.42
-52.65
-56.81
-59.81
-61.57
-62.05
-61.35
-59.74
-57.59
-55.26
-52.94
-50.67
-48.34
-45.84
-43.1
-40.09
-36.79
-32.99
-28.33
-22.34
-14.63
-5.13
5.77
17.26
28.23
37.7
45.02
50.02
52.96
54.25
54.25
53.18
51.09
47.99
43.92
39.02
33.44
27.3
20.65
13.57
6.33
-0.54
-6.38
-10.55
-12.72
-13.08
-12.26
-11.15
-10.58
-11.06
-12.67
-15.19
-18.21
-21.38
-24.53
-27.61
-30.67
-33.68
-36.4
-38.41
-39.08
-37.76
-33.99
-27.68
-19.18
-9.18
1.45
11.93
21.65
30.18
37.29
42.81
46.67
48.93
49.86
49.84
49.38
48.82
48.36
47.98
47.51
46.65
45.12
42.68
39.15
34.57
29.03
22.8
16.16
9.32
2.37
-4.69
-11.95
-19.54
-27.52
-35.96
-44.79
-53.72
-62.25
-69.58
-74.85
-77.44
-77.19
-74.46
-70.02
-64.7
-59.07
-53.35
-47.47
-41.22
-34.51
-27.36
-19.89
-12.22
-4.48
3.2
10.62
17.5
23.54
28.51
32.37
35.32
37.67
39.7
41.62
43.37
44.83
45.85
46.36
46.52
46.51
46.52
46.49
46.19
45.19
43.16
40.01
36
31.73
27.94
25.34
24.31
24.82
26.32
27.95
28.74
27.94
25.29
21.07
16.02
11.08
7.06
4.4
3.03
2.55
2.36
1.92
0.92
-0.68
-2.71
-4.88
-6.9
-8.5
-9.46
-9.6
-8.82
-7.13
-4.77
-2.14
0.26
2.05
3.13
3.78
4.57
6.12
8.86
12.87
17.9
23.63
29.85
36.53
43.8
51.75
60.25
68.84
76.89
83.85
89.41
93.61
96.67
98.79
99.96
100.03
98.79
96.28
92.75
88.49
83.57
77.67
70.19
60.55
48.56
34.59
19.58
4.82
-8.4
-19.09
-26.65
-31.06
-32.8
-32.8
-32.14
-31.74
-32.18
-33.64
-36.05
-39.34
-43.52
-48.59
-54.34
-60.31
-65.88
-70.56
-74.26
-77.3
-80.23
-83.52
-87.3
-91.35
-95.21
-98.43
-100.75
-102.19
-102.95
-103.31
-103.51
-103.61
-103.49
-102.78
-101.03
-97.79
-92.83
-86.1
-77.8
-68.2
-57.67
-46.58
-35.38
-24.63
-14.97
-6.95
-0.92
3.12
5.53
6.9
7.83
8.77
9.92
11.2
12.43
13.39
13.95
14.11
13.93
13.51
12.89
12.07
11.02
9.76
8.28
6.67
4.94
3.11
1.12
-1.15
-3.8
-6.86
-10.23
-13.68
-16.85
-19.33
-20.86
-21.46
-21.53
-21.8
-23.01
-25.71
-29.93
-35.04
-39.85
-42.96
-43.11
-39.62
-32.68
-23.29
-13.03
-3.48
4.4
10.6
16.05
22.12
29.93
39.8
51.11
62.6
73.06
81.8
88.84
94.71
100.01
105.05
109.76
113.97
117.53
120.43
122.68
124.07
124.13
122.19
117.69
110.5
101.09
90.46
79.91
70.59
63.23
58.01
54.59
52.33
50.5
48.41
45.54
41.51
36.16
29.57
22.2
14.87
8.57
4.27
2.48
3.08
5.35
8.27
10.91
12.86
14.24
15.47
16.88
18.39
19.56
19.82
18.87
16.99
14.9
13.45
13.25
14.35
16.38
18.74
20.99
22.96
24.7
26.29
27.6
28.33
27.96
26.02
22.21
16.56
9.31
0.86
-8.44
-18.4
-28.82
-39.45
-49.87
-59.59
-68.32
-76.25
-84.11
-92.84
-103.07
-114.58
-126.14
-135.94
-142.27
-144.24
-142.09
-136.87
-129.87
-122.12
-114.18
-106.27
-98.69
-91.95
-86.79
-83.78
-82.93
-83.51
-84.25
-83.81
-81.3
-76.72
-70.92
-65.17
-60.65
-57.91
-56.76
-56.5
-56.38
-55.98
-55.38
-54.92
-54.8
-54.88
-54.65
-53.52
-51.21
-48.06
-44.93
-42.96
-43.02
-45.43
-49.76
-54.95
-59.69
-62.77
-63.42
-61.47
-57.33
-51.72
-45.43
-39.11
-33.15
-27.77
-23.13
-19.34
-16.51
-14.62
-13.4
-12.31
-10.64
-7.71
-3.09
3.2
10.82
19.21
27.86
36.48
44.98
53.45
61.89
70.12
77.81
84.48
89.69
93.03
94.09
92.41
87.49
78.88
66.48
50.71
32.57
13.6
-4.48
-20.04
-31.84
-39.2
-42.09
-41.05
-37.01
-31.19
-24.76
-18.72
-13.72
-10.03
-7.59
-6.18
-5.47
-5.18
-5.06
-4.84
-4.27
-3.12
-1.23
1.38
4.45
7.54
10.15
11.89
12.58
12.23
11.04
9.23
7
4.44
1.64
-1.36
-4.52
-7.79
-11.13
-14.55
-18.03
-21.47
-24.59
-26.9
-27.74
-26.48
-22.8
-16.85
-9.28
-1.1
6.63
13.13
18.02
21.32
23.22
23.94
23.62
22.37
20.38
17.98
15.65
13.87
12.97
12.99
13.66
14.55
15.16
15.14
14.37
12.97
11.18
9.27
7.45
5.85
4.49
3.38
2.5
1.71
0.78
-0.58
-2.57
-5.11
-7.74
-9.69
-10.16
-8.63
-5.14
-0.27
5.15
10.34
14.83
18.5
21.39
23.48
24.67
24.82
23.96
22.41
20.72
19.45
18.93
19.11
19.63
20.04
19.92
19.1
17.62
15.64
13.32
10.74
7.93
4.92
1.76
-1.41
-4.48
-7.37
-10.18
-13.12
-16.48
-20.37
-24.68
-28.93
-32.4
-34.3
-34
-31.28
-26.29
-19.59
-11.89
-3.94
3.67
10.45
16.11
20.45
23.41
25.02
25.48
25.16
24.47
23.91
23.79
24.25
25.17
26.23
27.04
27.32
26.98
26.1
24.88
23.46
21.88
20.11
18.04
15.68
13.08
10.39
7.82
5.51
3.52
1.82
0.28
-1.35
-3.33
-5.88
-9.06
-12.69
-16.31
-19.28
-20.96
-20.85
-18.79
-14.9
-9.55
-3.21
3.61
10.44
16.87
22.57
27.25
30.75
33
34.11
34.29
33.81
32.95
32.07
31.43
31.19
31.39
31.83
32.22
32.27
31.8
30.84
29.53
28.05
26.51
24.87
23.04
20.92
18.51
15.94
13.4
11.03
8.88
6.88
4.9
2.76
0.41
-2.16
-4.86
-7.52
-10.08
-12.55
-15.05
-17.76
-20.9
-24.52
-28.5
-32.5
-36.02
-38.46
-39.31
-38.3
-35.41
-30.98
-25.57
-19.83
-14.34
-9.49
-5.39
-2.02
0.71
2.9
4.62
5.9
6.84
7.56
8.23
8.99
9.88
10.86
11.83
12.65
13.26
13.62
13.78
13.81
13.72
13.44
12.8
11.66
9.94
7.77
5.42
3.2
1.3
-0.29
-1.74
-3.25
-4.96
-6.86
-8.85
-10.87
-12.92
-15.02
-17.25
-19.62
-22.11
-24.66
-27.11
-29.16
-30.38
-30.24
-28.36
-24.66
-19.53
-13.66
-7.82
-2.55
1.93
5.63
8.64
10.92
12.34
12.76
12.25
11.13
9.89
9.04
8.88
9.45
10.52
11.74
12.73
13.26
13.24
12.7
11.75
10.48
8.91
7.08
5.04
2.89
0.82
-1.02
-2.56
-3.85
-5.04
-6.28
-7.71
-9.38
-11.27
-13.3
-15.31
-17.05
-18.13
-18.17
-16.9
-14.28
-10.53
-6
-1.1
3.83
8.62
13.1
17.12
20.44
22.77
23.9
23.78
22.55
20.57
18.25
16
14.05
12.5
11.28
10.23
9.14
7.86
6.29
4.43
2.35
0.17
-2.01
-4.14
-6.21
-8.29
-10.5
-12.87
-15.49
-18.39
-21.54
-24.83
-27.99
-30.64
-32.3
-32.61
-31.39
-28.79
-25.13
-20.83
-16.27
-11.7
-7.34
-3.39
-0.19
1.95
2.81
2.41
1.08
-0.68
-2.36
-3.57
-4.15
-4.24
-4.16
-4.27
-4.87
-6.07
-7.8
-9.79
-11.7
-13.23
-14.19
-14.59
-14.55
-14.25
-13.79
-13.14
-12.13
-10.52
-8.06
-4.57
-0.02
5.57
12.08
19.45
27.62
36.53
46.05
55.93
65.77
75.12
83.5
90.48
95.82
99.43
101.29
101.48
100.09
97.31
93.38
88.72
83.74
78.76
73.88
69.01
63.97
58.69
53.35
48.4
44.37
41.64
40.19
39.65
39.53
39.52
39.76
40.74
43.02
46.72
51.24
55.28
57.32
56.06
50.96
42.23
30.66
17.2
2.74
-11.98
-26.23
-39.26
-50.3
-58.74
-64.31
-67.3
-68.52
-69.17
-70.43
-73.09
-77.25
-82.36
-87.51
-91.92
-95.29
-97.87
-100.13
-102.41
-104.69
-106.76
-108.48
-110.12
-112.23
-115.24
-118.97
-122.59
-124.92
-125.06
-122.86
-118.93
-114.24
-109.59
-105.22
-100.89
-96.11
-90.55
-84.14
-77.01
-69.23
-60.73
-51.21
-40.41
-28.32
-15.35
-2.31
9.84
20.3
28.77
35.45
40.94
45.8
50.34
54.46
57.93
60.57
62.45
63.72
64.35
63.86
61.55
56.99
50.43
43.04
36.5
32.25
30.83
31.69
33.42
34.44
33.67
30.74
26.05
20.4
14.72
9.86
6.47
4.96
5.44
7.8
11.72
16.85
22.93
29.75
36.99
44.11
50.27
54.62
56.69
56.71
55.56
54.44
54.13
54.68
55.36
55.12
53.19
49.39
44.01
37.47
29.95
21.33
11.56
0.99
-9.48
-18.63
-25.48
-29.64
-31.35
-31.18
-29.68
-27.13
-23.6
-19.25
-14.5
-9.94
-6.24
-3.74
-2.39
-1.85
-1.69
-1.57
-1.31
-0.8
0.12
1.62
3.84
6.71
9.89
12.79
14.7
14.99
13.3
9.66
4.42
-1.81
-8.35
-14.58
-20.01
-24.39
-27.65
-29.84
-31.12
-31.66
-31.61
-31.07
-30.12
-28.84
-27.3
-25.64
-23.93
-22.18
-20.27
-17.99
-15.09
-11.49
-7.33
-2.9
1.32
4.84
7.29
8.52
8.64
7.91
6.69
5.25
3.73
2.1
0.33
-1.49
-3.06
-3.85
-3.32
-1.12
2.73
7.81
13.45
18.93
23.79
27.78
30.96
33.44
35.32
36.59
37.12
36.7
35.17
32.49
28.67
23.93
18.58
13.01
7.58
2.49
-2.27
-6.82
-11.27
-15.6
-19.64
-23.13
-25.89
-27.91
-29.32
-30.21
-30.51
-29.93
-28.13
-24.96
-20.6
-15.59
-10.7
-6.6
-3.71
-2.12
-1.64
-1.91
-2.46
-2.73
-2.2
-0.42
2.73
7.01
11.76
16.15
19.43
21.25
21.71
21.29
20.58
19.96
19.46
18.74
17.33
14.85
11.18
6.58
1.51
-3.54
-8.32
-12.83
-17.27
-21.83
-26.54
-31.25
-35.7
-39.72
-43.14
-45.89
-47.8
-48.57
-47.83
-45.33
-41.1
-35.48
-29.07
-22.4
-15.87
-9.63
-3.68
2.05
7.73
13.55
19.85
26.95
35.11
44.25
53.99
63.62
72.31
79.41
84.54
87.72
89.2
89.44
88.87
87.82
86.35
84.31
81.39
77.35
72.24
66.37
60.29
54.45
48.98
43.69
38.13
31.9
24.78
16.79
8.06
-1.28
-11.12
-21.2
-30.91
-39.37
-45.64
-49.2
-50.28
-49.84
-49.18
-49.28
-50.4
-51.9
-52.68
-51.81
-48.91
-44.34
-38.91
-33.38
-28.17
-23.31
-18.57
-13.8
-9.06
-4.56
-0.6
2.66
5.2
7.1
8.35
8.82
8.21
6.18
2.56
-2.48
-8.29
-13.88
-18.23
-20.66
-21.14
-20.32
-19.27
-19.06
-20.46
-23.6
-28.06
-33
-37.48
-40.64
-41.92
-41.07
-38.06
-33.13
-26.69
-19.45
-12.37
-6.54
-2.87
-1.73
-2.72
-4.77
-6.63
-7.46
-7.13
-6.26
-5.66
-5.8
-6.52
-7.26
-7.48
-7.07
-6.39
-5.98
-6.08
-6.38
-6.14
-4.62
-1.5
2.89
7.76
12.22
15.67
18.01
19.56
20.8
22.09
23.59
25.32
27.32
29.84
33.22
37.69
43.09
48.82
53.9
57.38
58.62
57.46
54.22
49.43
43.62
37.25
30.64
24.11
18
12.57
8.07
4.55
1.97
0.1
-1.35
-2.84
-4.79
-7.49
-10.96
-14.9
-18.86
-22.4
-25.36
-27.83
-30.17
-32.65
-35.42
-38.41
-41.41
-44.15
-46.35
-47.67
-47.76
-46.32
-43.19
-38.54
-32.84
-26.77
-20.99
-16.03
-12.1
-9.17
-7.04
-5.36
-3.78
-2.02
0.06
2.43
4.88
7.12
8.91
10.16
10.92
11.35
11.54
11.49
11.03
10
8.32
6.11
3.66
1.32
-0.66
-2.2
-3.43
-4.58
-5.83
-7.44
-9.57
-12.41
-15.98
-20.03
-23.97
-26.99
-28.29
-27.36
-24.27
-19.53
-13.91
-8.08
-2.48
2.74
7.47
11.53
14.63
16.51
17.12
16.7
15.74
14.77
14.24
14.29
14.88
15.79
16.75
17.49
17.86
17.76
17.28
16.59
15.9
15.32
14.77
14
12.73
10.82
8.38
5.86
3.89
3.05
3.74
6.03
9.64
14.07
18.62
22.52
25.02
25.52
23.8
20.05
14.93
9.27
3.88
-0.76
-4.55
-7.57
-9.83
-11.06
-10.87
-8.89
-5.2
-0.46
4.21
7.55
8.57
6.85
2.57
-3.54
-10.4
-16.82
-21.81
-24.79
-25.91
-25.95
-26.04
-27.12
-29.42
-32.21
-34.05
-33.37
-29.1
-21.11
-10.24
2.07
14.15
24.58
32.4
37.27
39.56
40.3
40.93
42.84
46.99
53.57
61.98
71.06
79.48
85.95
89.53
89.65
86.22
79.74
71.13
61.55
51.89
42.53
33.21
23.32
12.27
-0.26
-14.15
-29.08
-44.55
-60
-74.68
-87.55
-97.43
-103.27
-104.48
-101.07
-93.72
-83.42
-71.26
-58.22
-45.14
-32.75
-21.64
-12.27
-4.8
0.92
5.3
8.9
12.21
15.49
18.8
22.09
25.32
28.63
32.17
36.08
40.3
44.51
48.33
51.46
53.97
56.3
59.19
63.36
69.17
76.47
84.56
92.54
99.59
105.35
110.06
114.49
119.75
126.98
136.92
149.57
163.85
177.39
186.87
188.74
180.36
161.06
132.67
99.04
64.89
34.24
9.36
-9.51
-23.54
-34.3
-42.94
-50.02
-55.68
-60.21
-64.17
-68.31
-73.21
-79.09
-85.78
-92.97
-100.46
-108.16
-116
-123.59
-130.12
-134.43
-135.46
-132.74
-126.7
-118.51
-109.71
-101.65
-95.12
-90.22
-86.57
-83.53
-80.54
-77.19
-73.2
-68.41
-62.83
-56.66
-50.34
-44.46
-39.55
-35.93
-33.5
-31.87
-30.59
-29.32
-28.09
-27.24
-27.24
-28.48
-31.07
-34.7
-38.81
-42.58
-45.22
-46.13
-45.16
-42.61
-39.16
-35.63
-32.63
-30.4
-28.75
-27.27
-25.63
-23.73
-21.68
-19.7
-17.8
-15.85
-13.57
-10.75
-7.33
-3.45
0.65
4.78
8.84
12.9
17.21
22.05
27.69
34.17
41.23
48.34
54.77
59.97
63.98
67.64
72.58
80.85
94.25
113.91
139.87
170.97
204.95
238.61
268.3
290.49
302.44
302.84
291.93
271.25
243.03
209.59
173.03
135.27
98.09
63.14
31.66
4.12
-19.82
-41.07
-60.67
-79.36
-97.38
-114.57
-130.65
-145.45
-159.1
-172.15
-185.38
-199.48
-214.7
-230.48
-245.42
-257.53
-264.81
-265.99
-260.96
-250.76
-237.24
-222.48
-208.23
-195.62
-185.03
-176.3
-168.8
-161.81
-154.67
-147.01
-138.73
-130.01
-121.18
-112.7
-105.01
-98.58
-93.77
-90.68
-89.1
-88.4
-87.65
-85.76
-81.86
-75.46
-66.71
-56.25
-45.05
-34.17
-24.42
-16.26
-9.7
-4.38
0.32
5.14
10.8
17.85
26.57
36.96
48.77
61.6
75.02
88.58
101.85
114.37
125.67
135.28
142.85
148.14
151.06
151.62
149.76
145.51
138.88
129.97
119
106.3
92.19
76.93
60.79
43.97
26.77
9.52
-7.44
-23.76
-39.05
-52.85
-64.61
-73.71
-79.61
-82.01
-80.96
-76.93
-70.68
-63.13
-55.05
-46.92
-38.87
-30.76
-22.39
-13.72
-4.92
3.69
11.8
19.31
26.28
32.93
39.32
45.33
50.64
54.85
57.7
59.07
58.98
57.51
54.64
50.37
44.69
37.75
29.92
21.72
13.7
6.31
-0.24
-6.01
-11.18
-16.03
-20.74
-25.37
-29.82
-34
-37.84
-41.38
-44.69
-47.74
-50.25
-51.65
-51.16
-48.04
-41.95
-33.17
-22.61
-11.61
-1.5
6.65
12.32
15.56
16.78
16.57
15.53
14.23
13.07
12.38
12.28
12.71
13.4
13.93
13.91
13.09
11.47
9.24
6.71
4.12
1.58
-0.96
-3.58
-6.3
-9.02
-11.56
-13.75
-15.59
-17.24
-18.88
-20.57
-22.04
-22.66
-21.58
-17.99
-11.52
-2.33
8.83
20.8
32.39
42.67
51.2
57.99
63.44
68
71.99
75.41
77.9
78.91
78
75.1
70.64
65.48
60.58
56.63
53.77
51.64
49.6
47.06
43.74
39.69
35.21
30.58
26.02
21.6
17.31
13.06
8.73
4.13
-0.84
-6.11
-11.36
-16.1
-19.85
-22.38
-23.84
-24.62
-25.19
-25.85
-26.62
-27.32
-27.8
-28.05
-28.3
-28.87
-29.98
-31.62
-33.5
-35.15
-36.14
-36.17
-35.21
-33.46
-31.27
-29.05
-27.14
-25.68
-24.64
-23.85
-23.13
-22.44
-21.91
-21.81
-22.38
-23.72
-25.61
-27.56
-28.99
-29.31
-28.14
-25.32
-20.94
-15.29
-8.75
-1.77
5.3
12.1
18.41
23.94
28.44
31.59
33.15
33.07
31.58
29.18
26.59
24.47
23.23
22.85
22.94
22.91
22.23
20.66
18.28
15.43
12.5
9.78
7.35
5.19
3.16
1.14
-1.04
-3.48
-6.25
-9.24
-12.08
-14.18
-14.84
-13.52
-10.01
-4.57
2.18
9.43
16.49
22.85
28.26
32.6
35.79
37.78
38.6
38.36
37.36
35.95
34.49
33.21
32.25
31.61
31.23
31.06
31.06
31.22
31.53
31.97
32.46
32.82
32.71
31.76
29.56
25.9
20.79
14.58
7.8
1
-5.38
-11.18
-16.27
-20.49
-23.45
-24.62
-23.5
-19.89
-14.11
-6.88
0.82
8.14
14.61
20.1
24.81
28.93
32.54
35.61
38.04
39.77
40.86
41.48
41.78
41.83
41.52
40.62
38.82
35.85
31.48
25.56
18.08
9.23
-0.56
-10.55
-19.82
-27.44
-32.73
-35.48
-36.08
-35.31
-34.15
-33.31
-33.04
-32.96
-32.28
-30.13
-25.97
-19.79
-12.15
-3.92
4.11
11.41
17.8
23.24
27.68
30.94
32.81
33.27
32.6
31.42
30.43
30.05
30.21
30.33
29.62
27.52
24
19.67
15.49
12.3
10.46
9.68
9.19
8.19
6.2
3.22
-0.37
-4.05
-7.46
-10.51
-13.32
-16.04
-18.67
-20.99
-22.7
-23.54
-23.5
-22.83
-22
-21.43
-21.45
-22.11
-23.28
-24.76
-26.28
-27.47
-27.87
-26.97
-24.3
-19.71
-13.47
-6.27
0.93
7.3
12.32
15.85
18.09
19.33
19.78
19.55
18.66
17.16
15.21
13.06
10.96
9.11
7.59
6.42
5.52
4.78
4.02
3.05
1.74
0.05
-1.93
-4.01
-6.07
-8.14
-10.43
-13.13
-16.25
-19.48
-22.31
-24.27
-25.18
-25.29
-25.03
-24.79
-24.6
-24.21
-23.12
-20.97
-17.61
-13.11
-7.58
-1.05
6.55
15.28
24.93
35.01
44.74
53.38
60.47
65.94
70.05
73.06
74.95
75.43
74.13
71.02
66.73
62.4
59.22
57.75
57.55
57.18
54.92
49.49
40.63
29.18
16.67
4.69
-5.67
-13.98
-20.39
-25.3
-29.01
-31.62
-32.95
-32.8
-31.01
-27.58
-22.59
-16.02
-7.64
2.99
16.29
32.37
50.75
70.45
90.25
109.1
126.36
141.62
154.4
163.78
168.32
166.43
156.92
139.46
114.81
84.54
50.6
14.96
-20.59
-54.43
-85.07
-111.12
-131.51
-145.73
-153.98
-157.15
-156.56
-153.62
-149.55
-145.16
-140.85
-136.75
-132.89
-129.41
-126.6
-124.72
-123.8
-123.44
-122.85
-120.96
-116.82
-109.84
-100.01
-87.86
-74.22
-60.07
-46.22
-33.28
-21.7
-11.73
-3.49
3.1
8.27
12.36
15.67
18.43
20.69
22.34
23.23
23.32
22.74
21.73
20.55
19.27
17.76
15.76
13.05
9.59
5.59
1.4
-2.64
-6.3
-9.53
-12.34
-14.72
-16.52
-17.6
-17.82
-17.28
-16.2
-14.94
-13.89
-13.35
-13.48
-14.23
-15.4
-16.68
-17.78
-18.56
-19.02
-19.34
-19.76
-20.52
-21.78
-23.61
-25.99
-28.83
-31.89
-34.73
-36.8
-37.46
-36.25
-32.99
-27.93
-21.61
-14.74
-8.01
-1.85
3.49
7.99
11.68
14.58
16.69
18.05
18.78
19.16
19.59
20.47
22.01
24.15
26.58
28.81
30.37
30.99
30.6
29.36
27.53
25.4
23.22
21.14
19.22
17.4
15.6
13.68
11.64
9.53
7.45
5.5
3.7
1.99
0.25
-1.66
-3.83
-6.3
-9.01
-11.76
-14.2
-15.85
-16.25
-15.07
-12.23
-7.98
-2.75
2.89
8.42
13.43
17.66
20.91
23.15
24.4
24.77
24.44
23.67
22.76
21.96
21.45
21.24
21.22
21.22
21.08
20.67
20
19.12
18.13
17.07
15.94
14.67
13.17
11.36
9.22
6.8
4.24
1.69
-0.68
-2.81
-4.68
-6.35
-7.97
-9.71
-11.78
-14.32
-17.39
-20.84
-24.33
-27.33
-29.23
-29.54
-28.03
-24.8
-20.31
-15.18
-9.97
-5.08
-0.68
3.25
6.71
9.63
11.8
13.06
13.29
12.66
11.5
10.25
9.3
8.83
8.84
9.12
9.45
9.61
9.48
9.06
8.4
7.54
6.5
5.3
3.92
2.35
0.6
-1.36
-3.53
-5.9
-8.42
-11.01
-13.58
-16.04
-18.32
-20.38
-22.25
-23.96
-25.63
-27.27
-28.77
-29.85
-30.04
-28.87
-26.08
-21.68
-16.03
-9.71
-3.37
2.49
7.5
11.46
14.31
16.05
16.79
16.76
16.29
15.74
15.41
15.45
15.84
16.43
17.03
17.54
17.96
18.43
19.11
20.02
21.06
21.94
22.38
22.18
21.39
20.2
18.85
17.48
16.09
14.54
12.71
10.55
8.11
5.53
2.91
0.28
-2.31
-4.78
-6.92
-8.42
-9.01
-8.53
-7.05
-4.83
-2.19
0.56
3.2
5.59
7.63
9.23
10.3
10.84
10.96
10.84
10.67
10.59
10.6
10.61
10.48
10.13
9.57
8.89
8.17
7.48
6.81
6.09
5.2
4.05
2.6
0.95
-0.75
-2.31
-3.6
-4.62
-5.43
-6.21
-7.03
-7.94
-8.87
-9.75
-10.4
-10.68
-10.37
-9.2
-6.96
-3.58
0.79
5.76
10.81
15.46
19.4
22.51
24.87
26.63
27.9
28.67
28.89
28.52
27.67
26.47
25.12
23.72
22.26
20.64
18.82
16.83
14.86
13.14
11.82
10.81
9.87
8.66
6.97
4.82
2.47
0.28
-1.51
-2.84
-3.92
-5.04
-6.45
-8.25
-10.37
-12.63
-14.83
-16.8
-18.35
-19.21
-19.07
-17.69
-15
-11.2
-6.72
-2.05
2.43
6.54
10.29
13.73
16.82
19.39
21.17
21.96
21.81
20.93
19.73
18.55
17.57
16.74
15.92
14.95
13.8
12.61
11.56
10.75
10.11
9.43
8.43
6.94
4.95
2.61
0.19
-2.07
-4.04
-5.75
-7.35
-9.01
-10.84
-12.85
-14.91
-16.88
-18.62
-20.15
-21.54
-22.94
-24.46
-26.14
-28
-29.98
-31.99
-33.84
-35.2
-35.61
-34.6
-31.91
-27.56
-21.99
-15.83
-9.75
-4.24
0.52
4.53
7.9
10.64
12.66
13.82
14.08
13.52
12.45
11.26
10.24
9.5
8.95
8.36
7.55
6.46
5.18
3.89
2.73
1.69
0.67
-0.52
-2.02
-3.84
-5.9
-8.05
-10.08
-11.88
-13.33
-14.49
-15.46
-16.38
-17.36
-18.43
-19.57
-20.67
-21.63
-22.4
-23.04
-23.66
-24.39
-25.37
-26.64
-28.2
-29.91
-31.56
-32.83
-33.39
-32.94
-31.23
-28.21
-24.01
-18.89
-13.22
-7.43
-1.93
2.97
6.99
10.02
12.02
13.09
13.42
13.3
12.98
12.69
12.56
12.63
12.93
13.37
13.87
14.28
14.45
14.24
13.64
12.72
11.63
10.53
9.48
8.47
7.43
6.27
4.93
3.4
1.71
-0.1
-2.03
-4.04
-6.06
-7.95
-9.54
-10.75
-11.59
-12.22
-12.85
-13.7
-14.89
-16.39
-18.09
-19.76
-21.1
-21.75
-21.37
-19.66
-16.55
-12.22
-7.18
-2.06
2.55
6.33
9.21
11.29
12.67
13.38
13.43
12.88
11.93
10.96
10.33
10.25
10.68
11.32
11.84
12
11.75
11.23
10.63
10.04
9.41
8.54
7.25
5.48
3.32
1.08
-0.94
-2.49
-3.48
-4
-4.27
-4.54
-5.05
-5.96
-7.33
-9.12
-11.14
-13.15
-14.79
-15.69
-15.55
-14.22
-11.75
-8.38
-4.52
-0.62
2.91
5.81
7.96
9.37
10.08
10.18
9.74
8.87
7.73
6.49
5.31
4.34
3.63
3.16
2.88
2.63
2.26
1.66
0.76
-0.41
-1.77
-3.17
-4.48
-5.64
-6.65
-7.6
-8.64
-9.93
-11.53
-13.38
-15.21
-16.68
-17.38
-17.07
-15.67
-13.27
-10.05
-6.24
-2.06
2.21
6.35
10.09
13.2
15.53
16.98
17.51
17.17
16.04
14.32
12.22
10.04
8.03
6.33
4.96
3.82
2.74
1.54
0.12
-1.57
-3.49
-5.56
-7.76
-10.12
-12.78
-15.82
-19.3
-23.11
-27.04
-30.73
-33.81
-35.88
-36.62
-35.79
-33.27
-29.13
-23.63
-17.2
-10.41
-3.84
1.97
6.63
9.98
12.05
13.09
13.46
13.51
13.5
13.58
13.73
13.87
13.94
13.89
13.76
13.62
13.53
13.53
13.63
13.77
13.86
13.81
13.49
12.84
11.83
10.55
9.11
7.67
6.32
5.02
3.67
2.09
0.18
-2.04
-4.41
-6.73
-8.92
-11.05
-13.39
-16.23
-19.69
-23.53
-27.22
-30.03
-31.27
-30.52
-27.77
-23.3
-17.68
-11.52
-5.35
0.42
5.61
10.11
13.89
16.91
19.07
20.34
20.76
20.51
19.87
19.14
18.52
18.07
17.68
17.18
16.46
15.5
14.46
13.52
12.82
12.38
12.02
11.45
10.41
8.73
6.51
4
1.55
-0.62
-2.48
-4.17
-5.91
-7.86
-10.04
-12.34
-14.55
-16.48
-18.01
-19.12
-19.91
-20.51
-21.1
-21.77
-22.56
-23.38
-24.02
-24.18
-23.53
-21.75
-18.64
-14.17
-8.49
-1.96
4.96
11.79
18.11
23.63
28.2
31.8
34.44
36.2
37.15
37.42
37.16
36.56
35.82
35.11
34.52
34.05
33.59
33.04
32.33
31.47
30.51
29.52
28.47
27.19
25.4
22.83
19.38
15.2
10.67
6.27
2.35
-0.9
-3.55
-5.79
-7.77
-9.62
-11.44
-13.34
-15.46
-17.9
-20.63
-23.46
-26
-27.77
-28.39
-27.59
-25.35
-21.82
-17.32
-12.15
-6.62
-0.93
4.73
10.17
15.1
19.15
21.94
23.26
23.23
22.25
20.89
19.65
18.77
18.21
17.79
17.34
16.86
16.48
16.23
16.01
15.57
14.61
13.02
10.95
8.72
6.61
4.73
2.97
1.12
-0.95
-3.24
-5.58
-7.79
-9.75
-11.49
-13.1
-14.75
-16.52
-18.47
-20.59
-22.78
-24.85
-26.46
-27.19
-26.61
-24.46
-20.73
-15.75
-10.09
-4.31
1.1
5.85
9.8
12.84
14.84
15.62
15.07
13.27
10.58
7.54
4.72
2.51
1.05
0.23
-0.17
-0.38
-0.54
-0.77
-1.16
-1.82
-2.84
-4.25
-5.95
-7.8
-9.64
-11.45
-13.25
-15.13
-17.17
-19.36
-21.65
-24.02
-26.41
-28.76
-30.93
-32.7
-33.88
-34.38
-34.33
-34.05
-33.92
-34.14
-34.57
-34.67
-33.73
-31.13
-26.62
-20.38
-12.98
-5.14
2.49
9.48
15.67
21.02
25.6
29.44
32.54
34.82
36.24
36.74
36.39
35.35
33.92
32.47
31.29
30.55
30.19
30.04
29.87
29.49
28.81
27.76
26.36
24.55
22.31
19.73
16.94
14.2
11.68
9.47
7.48
5.54
3.45
1.09
-1.49
-4.22
-7.01
-9.9
-12.93
-16.16
-19.48
-22.59
-25.02
-26.27
-26.01
-24.19
-21.14
-17.37
-13.48
-9.89
-6.81
-4.29
-2.31
-0.95
-0.3
-0.41
-1.17
-2.31
-3.54
-4.62
-5.52
-6.37
-7.28
-8.26
-9.13
-9.66
-9.74
-9.47
-9.11
-9.02
-9.39
-10.22
-11.36
-12.59
-13.75
-14.69
-15.28
-15.31
-14.62
-13.18
-11.24
-9.31
-7.99
-7.72
-8.58
-10.26
-12.17
-13.68
-14.15
-13.1
-10.27
-5.72
0.13
6.54
12.65
17.81
21.74
24.69
27.13
29.49
31.93
34.34
36.54
38.56
40.67
43.26
46.56
50.39
54.2
57.28
59.09
59.52
58.91
57.81
56.72
55.81
54.86
53.4
50.96
47.24
42.22
36.1
29.22
21.96
14.7
7.68
1.03
-5.43
-12.19
-19.94
-29.32
-40.52
-53.04
-65.66
-76.73
-84.64
-88.26
-87.22
-81.85
-73
-61.77
-49.21
-36.3
-23.87
-12.57
-2.88
4.88
10.68
14.63
17.08
18.51
19.42
20.17
20.84
21.22
20.94
19.75
17.67
15.1
12.6
10.62
9.25
8.13
6.75
4.66
1.78
-1.55
-4.75
-7.3
-8.94
-9.83
-10.35
-10.92
-11.77
-12.89
-14.11
-15.21
-16.04
-16.53
-16.56
-15.92
-14.3
-11.45
-7.33
-2.27
3.13
8.16
12.25
15.16
16.98
18.05
18.71
19.18
19.45
19.34
18.74
17.65
16.28
14.95
13.93
13.27
12.81
12.26
11.41
10.21
8.81
7.4
6.06
4.61
2.77
0.27
-2.87
-6.38
-9.8
-12.68
-14.88
-16.55
-17.99
-19.46
-21.02
-22.52
-23.74
-24.61
-25.17
-25.55
-25.84
-25.97
-25.8
-25.24
-24.35
-23.36
-22.47
-21.75
-21.05
-20.14
-18.77
-16.89
-14.67
-12.43
-10.52
-9.17
-8.43
-8.09
-7.86
-7.44
-6.65
-5.56
-4.33
-3.17
-2.16
-1.22
-0.14
1.25
2.97
4.88
6.69
8.15
9.1
9.44
9.16
8.2
6.57
4.3
1.54
-1.51
-4.6
-7.51
-10.14
-12.55
-14.95
-17.65
-20.87
-24.62
-28.53
-31.92
-34.02
-34.28
-32.59
-29.36
-25.27
-21.04
-17.12
-13.66
-10.67
-8.14
-6.15
-4.76
-3.98
-3.57
-3.16
-2.35
-0.86
1.32
4.03
7.02
10.08
13.05
15.83
18.31
20.4
22.05
23.32
24.33
25.19
25.93
26.42
26.49
26.02
25.02
23.66
22.18
20.77
19.44
18.08
16.58
14.91
13.24
11.82
10.93
10.7
11.13
12.1
13.47
15.12
16.88
18.49
19.53
19.48
17.91
14.71
10.16
4.93
-0.22
-4.74
-8.47
-11.62
-14.5
-17.34
-20.11
-22.56
-24.37
-25.33
-25.44
-24.88
-23.96
-22.96
-22.03
-21.19
-20.34
-19.36
-18.15
-16.73
-15.26
-13.96
-13.04
-12.53
-12.36
-12.3
-12.06
-11.4
-10.06
-7.88
-4.74
-0.61
4.42
10.19
16.41
22.72
28.76
34.17
38.66
42.08
44.37
45.54
45.62
44.58
42.39
39.16
35.14
30.71
26.31
22.19
18.38
14.73
11.08
7.37
3.74
0.37
-2.68
-5.46
-8.15
-10.88
-13.63
-16.24
-18.5
-20.21
-21.33
-21.88
-21.96
-21.65
-21.04
-20.22
-19.28
-18.37
-17.53
-16.7
-15.67
-14.06
-11.41
-7.36
-1.69
5.52
13.85
22.59
30.88
37.88
42.94
45.71
46.14
44.53
41.36
37.2
32.55
27.79
23.13
18.71
14.58
10.75
7.12
3.45
-0.53
-5.04
-10.04
-15.24
-20.22
-24.62
-28.28
-31.29
-33.84
-36.05
-37.88
-39.22
-39.99
-40.21
-39.95
-39.19
-37.71
-35.19
-31.39
-26.35
-20.51
-14.57
-9.16
-4.64
-1.03
1.9
4.32
6.23
7.46
7.81
7.28
6.13
4.8
3.72
3.13
3.04
3.29
3.66
4.02
4.32
4.54
4.63
4.51
4.08
3.31
2.24
0.94
-0.48
-1.97
-3.47
-4.97
-6.48
-8.07
-9.79
-11.73
-13.87
-16.03
-17.87
-18.93
-18.84
-17.36
-14.54
-10.63
-5.98
-0.96
4.16
9.12
13.68
17.55
20.5
22.39
23.25
23.35
23.09
22.9
23.14
23.89
24.99
26.09
26.89
27.22
27.19
27.04
27
27.06
26.98
26.38
24.92
22.5
19.27
15.56
11.75
8.11
4.86
2.2
0.25
-0.96
-1.62
-2.05
-2.53
-3.06
-3.26
-2.38
0.3
5.04
11.46
18.57
25.16
30.29
33.56
35.1
35.36
34.75
33.53
31.76
29.43
26.64
23.52
20.17
16.63
12.8
8.59
4.02
-0.7
-5.28
-9.55
-13.65
-17.96
-23.01
-29.04
-35.84
-42.72
-48.75
-53.18
-55.72
-56.61
-56.39
-55.61
-54.59
-53.42
-52.15
-50.92
-50.07
-49.95
-50.7
-52.02
-53.24
-53.44
-51.85
-48.08
-42.27
-35.03
-27.19
-19.52
-12.53
-6.48
-1.44
2.57
5.47
7.22
7.91
7.77
7.24
6.78
6.65
6.86
7.2
7.4
7.26
6.78
6.12
5.47
4.96
4.58
4.27
3.97
3.71
3.55
3.55
3.69
3.82
3.73
3.21
2.21
0.85
-0.63
-1.92
-2.86
-3.49
-4.04
-4.81
-6.04
-7.82
-10.03
-12.39
-14.45
-15.77
-16.01
-14.97
-12.62
-9.18
-4.97
-0.39
4.17
8.4
12.07
15.08
17.36
18.92
19.82
20.2
20.27
20.2
20.13
20.07
19.97
19.73
19.25
18.53
17.67
16.81
16.09
15.59
15.28
15.05
14.66
13.87
12.45
10.32
7.59
4.47
1.26
-1.87
-4.87
-7.83
-10.92
-14.25
-17.78
-21.36
-24.71
-27.49
-29.39
-30.14
-29.57
-27.59
-24.3
-19.96
-14.96
-9.77
-4.85
-0.49
3.16
6.12
8.46
10.25
11.57
12.45
12.95
13.17
13.25
13.29
13.37
13.54
13.77
14.02
14.21
14.3
14.27
14.23
14.28
14.47
14.75
14.94
14.84
14.28
13.32
12.16
11.13
10.43
10.07
9.87
9.46
8.54
6.88
4.47
1.5
-1.73
-4.8
-7.23
-8.55
-8.4
-6.53
-3.03
1.77
7.31
12.95
18.15
22.59
26.15
28.82
30.56
31.23
30.67
28.78
25.69
21.86
17.88
14.27
11.32
8.97
6.97
5.03
3.04
1.14
-0.41
-1.38
-1.74
-1.68
-1.52
-1.54
-1.9
-2.6
-3.58
-4.8
-6.34
-8.31
-10.79
-13.73
-16.84
-19.79
-22.29
-24.35
-26.31
-28.71
-32.02
-36.36
-41.42
-46.48
-50.68
-53.3
-53.99
-52.78
-49.9
-45.71
-40.49
-34.44
-27.81
-20.84
-13.88
-7.33
-1.58
3.12
6.71
9.36
11.39
13.24
15.27
17.71
20.61
23.87
27.31
30.75
34.04
37
39.5
41.39
42.64
43.33
43.66
43.87
44.03
44.05
43.7
42.73
41.05
38.78
36.16
33.36
30.41
27.15
23.42
19.16
14.53
9.86
5.5
1.79
-1.08
-2.91
-3.57
-3.02
-1.36
1.09
3.86
6.45
8.4
9.27
8.67
6.26
1.84
-4.43
-11.99
-19.94
-27.41
-33.8
-38.95
-43.02
-46.29
-48.88
-50.71
-51.68
-51.8
-51.3
-50.5
-49.59
-48.52
-47
-44.7
-41.4
-37.17
-32.3
-27.19
-22.25
-17.81
-14.09
-11.23
-9.28
-8.19
-7.79
-7.84
-8.03
-8.2
-8.21
-8.01
-7.49
-6.43
-4.52
-1.41
3.09
8.93
15.77
23.03
30.1
36.48
41.89
46.24
49.53
51.75
52.96
53.32
53.16
52.89
52.81
52.92
52.82
51.99
50.06
47.2
44.09
41.59
40.22
39.76
39.31
37.64
33.84
27.67
19.67
10.75
1.79
-6.61
-14.18
-20.83
-26.42
-30.8
-33.88
-35.74
-36.69
-37.12
-37.38
-37.67
-37.95
-38.05
-37.64
-36.37
-33.92
-30.06
-24.75
-18.19
-10.84
-3.28
3.94
10.39
15.84
20.21
23.45
25.52
26.34
25.85
24.12
21.37
17.95
14.28
10.7
7.43
4.52
1.92
-0.48
-2.75
-4.89
-6.8
-8.41
-9.71
-10.77
-11.7
-12.61
-13.54
-14.43
-15.21
-15.87
-16.42
-16.93
-17.43
-17.95
-18.44
-18.88
-19.29
-19.74
-20.3
-20.94
-21.54
-21.87
-21.62
-20.56
-18.56
-15.65
-12.1
-8.3
-4.71
-1.69
0.56
2.02
2.78
2.95
2.61
1.81
0.62
-0.83
-2.44
-4.12
-5.78
-7.38
-8.83
-9.95
-10.47
-10.23
-9.21
-7.6
-5.76
-4
-2.47
-1.06
0.46
2.35
4.68
7.25
9.7
11.61
12.74
13.02
12.58
11.57
10.14
8.35
6.34
4.37
2.77
1.87
1.85
2.69
4.22
6.26
8.69
11.58
14.99
18.91
23.15
27.27
30.66
32.73
33.05
31.54
28.56
24.78
21.03
17.96
15.82
14.42
13.28
11.95
10.29
8.53
7.07
6.19
5.81
5.51
4.81
3.45
1.61
-0.19
-1.43
-1.9
-1.87
-1.96
-2.81
-4.83
-8.04
-12.19
-16.91
-21.83
-26.62
-30.91
-34.32
-36.55
-37.42
-37
-35.49
-33.19
-30.32
-27.03
-23.45
-19.72
-16.05
-12.72
-9.94
-7.83
-6.35
-5.36
-4.65
-4.01
-3.31
-2.5
-1.64
-0.8
-0.02
0.75
1.54
2.34
3.06
3.55
3.66
3.31
2.51
1.34
-0.11
-1.7
-3.35
-4.95
-6.38
-7.6
-8.64
-9.6
-10.67
-12.04
-13.82
-15.99
-18.39
-20.76
-22.77
-24.12
-24.52
-23.79
-21.91
-18.99
-15.33
-11.32
-7.41
-3.92
-1.05
1.18
2.87
4.06
4.79
4.99
4.7
4.01
3.2
2.58
2.42
2.77
3.48
4.28
4.86
5.04
4.8
4.28
3.63
2.95
2.18
1.22
-0.06
-1.72
-3.65
-5.61
-7.32
-8.61
-9.46
-10.11
-10.86
-11.97
-13.52
-15.32
-16.94
-17.89
-17.76
-16.41
-13.96
-10.78
-7.31
-3.91
-0.8
1.98
4.44
6.57
8.33
9.66
10.57
11.16
11.6
12
12.36
12.56
12.48
12.13
11.6
11.1
10.73
10.49
10.25
9.78
8.95
7.74
6.24
4.58
2.88
1.18
-0.57
-2.46
-4.57
-6.91
-9.43
-11.94
-14.17
-15.81
-16.51
-16.01
-14.23
-11.31
-7.6
-3.59
0.27
3.68
6.56
8.97
11.02
12.69
13.79
14.15
13.67
12.49
10.97
9.59
8.69
8.42
8.69
9.24
9.82
10.2
10.32
10.16
9.77
9.19
8.49
7.74
6.97
6.2
5.33
4.29
3
1.47
-0.17
-1.68
-2.81
-3.34
-3.13
-2.1
-0.12
2.93
7.16
12.62
19.16
26.47
34.07
41.51
48.35
54.2
58.72
61.61
62.76
62.29
60.66
58.46
56.17
53.86
51.15
47.3
41.63
33.82
24.1
13.17
1.94
-8.74
-18.35
-26.7
-33.86
-39.89
-44.72
-48.03
-49.29
-48.04
-44.06
-37.5
-28.87
-18.82
-8.12
2.36
11.5
17.98
20.58
18.78
13.28
6.12
0.17
-1.82
1.67
10.48
23.03
36.97
50.3
61.93
71.75
80.33
88.39
96.22
103.5
109.26
112.07
110.51
103.7
91.81
76.2
59.27
43.8
32.1
25.34
23.24
24.42
27.06
29.52
30.8
30.53
28.8
26.1
23.34
21.97
23.78
30.17
41.28
55.19
68.09
75.4
73.46
60.99
39.62
13.14
-13.97
-38
-56.82
-69.88
-77.52
-80.31
-78.75
-73.38
-64.97
-54.61
-43.65
-33.34
-24.57
-17.79
-13.06
-10.29
-9.4
-10.4
-13.51
-18.91
-26.74
-36.8
-48.64
-61.45
-74.27
-86.08
-96.04
-103.64
-108.84
-112.12
-114.22
-115.98
-117.91
-120.14
-122.29
-123.72
-123.92
-122.69
-120.34
-117.52
-115.03
-113.48
-113.02
-113.33
-113.59
-112.74
-109.76
-104
-95.32
-84.12
-71.2
-57.5
-43.9
-31.1
-19.59
-9.62
-1.24
5.71
11.58
16.75
21.49
25.79
29.31
31.52
31.98
30.58
27.73
24.29
21.26
19.55
19.62
21.44
24.57
28.34
32.07
35.24
37.53
38.84
39.19
38.63
37.24
35.11
32.39
29.23
25.82
22.32
18.8
15.23
11.54
7.68
3.71
-0.24
-4.11
-7.89
-11.65
-15.43
-19.05
-22.09
-23.98
-24.21
-22.57
-19.2
-14.59
-9.34
-3.98
1.12
5.75
9.75
12.95
15.15
16.23
16.21
15.26
13.73
12.02
10.41
9.05
7.86
6.67
5.36
3.98
2.76
1.89
1.47
1.34
1.16
0.58
-0.59
-2.29
-4.31
-6.4
-8.43
-10.38
-12.31
-14.27
-16.25
-18.28
-20.36
-22.54
-24.76
-26.83
-28.42
-29.11
-28.55
-26.58
-23.25
-18.8
-13.63
-8.2
-2.94
1.72
5.49
8.19
9.82
10.56
10.67
10.45
10.13
9.91
9.86
10.02
10.36
10.84
11.36
11.8
12
11.82
11.18
10.03
8.45
6.56
4.59
2.7
1.04
-0.4
-1.67
-2.91
-4.23
-5.72
-7.4
-9.25
-11.09
-12.64
-13.5
-13.24
-11.6
-8.55
-4.37
0.46
5.36
9.87
13.7
16.75
18.97
20.4
21.06
21.01
20.39
19.37
18.2
17.13
16.39
16.06
16.14
16.43
16.69
16.63
16.13
15.24
14.14
13.04
12.06
11.16
10.2
8.95
7.28
5.13
2.58
-0.21
-2.97
-5.37
-7.06
-7.68
-7.02
-5.04
-1.95
1.91
6.09
10.2
13.95
17.13
19.65
21.42
22.44
22.73
22.46
21.87
21.29
20.99
21.1
21.55
22.15
22.63
22.77
22.49
21.82
20.78
19.41
17.72
15.71
13.42
10.98
8.52
6.13
3.8
1.41
-1.19
-4.04
-7.01
-9.79
-11.96
-13.09
-12.93
-11.43
-8.82
-5.45
-1.73
1.99
5.46
8.56
11.24
13.49
15.27
16.53
17.22
17.31
16.86
16.05
15.15
14.41
13.97
13.82
13.8
13.69
13.32
12.65
11.73
10.71
9.64
8.52
7.25
5.79
4.21
2.65
1.26
0.11
-0.83
-1.69
-2.62
-3.68
-4.9
-6.25
-7.75
-9.47
-11.42
-13.57
-15.79
-17.83
-19.38
-20.17
-19.96
-18.61
-16.11
-12.57
-8.25
-3.52
1.24
5.68
9.54
12.65
14.92
16.35
16.97
16.92
16.44
15.79
15.24
14.91
14.83
14.88
14.85
14.63
14.15
13.45
12.63
11.74
10.78
9.67
8.37
6.89
5.35
3.9
2.64
1.6
0.67
-0.29
-1.4
-2.69
-4.13
-5.62
-7.07
-8.39
-9.5
-10.41
-11.14
-11.8
-12.51
-13.45
-14.73
-16.33
-18.12
-19.8
-21.04
-21.56
-21.16
-19.83
-17.66
-14.83
-11.57
-8.11
-4.62
-1.27
1.82
4.53
6.77
8.47
9.6
10.27
10.63
10.87
11.17
11.6
12.09
12.54
12.86
12.99
12.97
12.84
12.6
12.25
11.75
11.11
10.32
9.42
8.34
7.02
5.4
3.46
1.26
-1.08
-3.48
-5.9
-8.31
-10.63
-12.74
-14.45
-15.64
-16.33
-16.67
-16.92
-17.32
-17.99
-18.97
-20.19
-21.56
-22.96
-24.28
-25.31
-25.83
-25.61
-24.49
-22.45
-19.63
-16.27
-12.64
-8.97
-5.45
-2.13
0.92
3.73
6.26
8.43
10.08
11.07
11.32
10.96
10.27
9.58
9.2
9.2
9.47
9.78
9.93
9.93
9.9
9.95
10.1
10.18
9.95
9.24
8.04
6.54
5.03
3.76
2.81
2.18
1.73
1.34
0.89
0.29
-0.5
-1.49
-2.66
-3.92
-5.19
-6.41
-7.58
-8.75
-9.97
-11.26
-12.63
-14.07
-15.53
-16.92
-18.07
-18.73
-18.63
-17.61
-15.61
-12.81
-9.49
-6
-2.65
0.38
2.99
5.17
6.94
8.33
9.4
10.21
10.78
11.16
11.38
11.47
11.45
11.31
11.03
10.61
10.08
9.54
9.1
8.82
8.63
8.36
7.87
7.08
6.09
5.09
4.25
3.62
3.1
2.45
1.5
0.14
-1.58
-3.47
-5.3
-6.84
-7.88
-8.41
-8.53
-8.46
-8.52
-8.95
-9.85
-11.11
-12.48
-13.61
-14.24
-14.19
-13.42
-11.97
-9.91
-7.31
-4.3
-1.02
2.29
5.37
8.03
10.17
11.81
13.02
13.9
14.5
14.91
15.17
15.34
15.48
15.6
15.65
15.66
15.66
15.75
15.94
16.14
16.07
15.45
14.11
12.17
9.95
7.83
6.12
4.87
3.91
2.99
1.91
0.58
-0.94
-2.53
-4.12
-5.65
-7.15
-8.68
-10.27
-11.98
-13.82
-15.8
-17.88
-19.96
-21.79
-23.14
-23.72
-23.37
-22.06
-19.88
-17.03
-13.72
-10.19
-6.68
-3.38
-0.44
2.09
4.15
5.77
6.97
7.77
8.23
8.45
8.57
8.73
9.03
9.49
10.08
10.76
11.53
12.37
13.26
14.04
14.57
14.64
14.14
13.12
11.72
10.13
8.55
7.09
5.73
4.44
3.14
1.79
0.36
-1.15
-2.75
-4.42
-6.1
-7.7
-9.14
-10.37
-11.44
-12.52
-13.87
-15.64
-17.79
-20.05
-21.94
-22.93
-22.66
-21.08
-18.43
-15.13
-11.6
-8.15
-4.91
-1.91
0.86
3.36
5.57
7.46
9.04
10.31
11.28
11.92
12.24
12.28
12.11
11.83
11.52
11.23
10.92
10.6
10.23
9.82
9.36
8.81
8.17
7.41
6.51
5.5
4.35
3.07
1.67
0.16
-1.44
-3.19
-5.14
-7.33
-9.7
-12.08
-14.21
-15.88
-17.01
-17.76
-18.41
-19.27
-20.55
-22.22
-24.13
-26
-27.54
-28.48
-28.6
-27.73
-25.76
-22.71
-18.72
-14.08
-9.21
-4.49
-0.23
3.41
6.38
8.68
10.33
11.31
11.69
11.59
11.27
11.02
11.09
11.55
12.32
13.21
14.01
14.61
15.01
15.25
15.36
15.29
14.94
14.18
13.03
11.6
10.09
8.69
7.47
6.34
5.13
3.73
2.18
0.64
-0.69
-1.68
-2.44
-3.21
-4.26
-5.74
-7.57
-9.55
-11.52
-13.45
-15.4
-17.37
-19.18
-20.43
-20.63
-19.45
-16.9
-13.34
-9.33
-5.35
-1.65
1.78
5.03
8.1
10.84
12.94
14.19
14.53
14.11
13.26
12.28
11.4
10.67
10.05
9.47
8.95
8.57
8.42
8.55
8.91
9.32
9.61
9.61
9.26
8.61
7.73
6.68
5.49
4.16
2.72
1.26
-0.09
-1.24
-2.14
-2.92
-3.73
-4.78
-6.23
-8.07
-10.21
-12.4
-14.34
-15.7
-16.21
-15.72
-14.16
-11.66
-8.46
-4.88
-1.21
2.26
5.38
8.05
10.2
11.79
12.76
13.09
12.8
11.96
10.72
9.23
7.7
6.32
5.32
4.82
4.86
5.26
5.7
5.83
5.35
4.19
2.47
0.48
-1.54
-3.37
-5
-6.49
-7.92
-9.38
-10.97
-12.73
-14.71
-16.89
-19.1
-21.03
-22.23
-22.29
-20.97
-18.28
-14.54
-10.25
-5.97
-2.15
0.96
3.29
4.88
5.8
6.16
6.03
5.51
4.73
3.85
3.02
2.36
1.93
1.73
1.71
1.81
1.91
1.9
1.71
1.32
0.71
-0.04
-0.9
-1.86
-3
-4.41
-6.18
-8.41
-11.11
-14.21
-17.55
-20.83
-23.63
-25.42
-25.69
-24.1
-20.65
-15.7
-9.87
-3.91
1.6
6.31
10.19
13.41
16.15
18.44
20.1
20.87
20.58
19.38
17.63
15.89
14.59
13.83
13.44
13.06
12.37
11.28
9.9
8.42
6.98
5.56
4.07
2.39
0.51
-1.53
-3.64
-5.76
-7.92
-10.21
-12.71
-15.45
-18.24
-20.67
-22.18
-22.19
-20.36
-16.67
-11.56
-5.65
0.32
5.84
10.6
14.58
17.83
20.44
22.42
23.76
24.48
24.61
24.28
23.66
22.87
22.03
21.21
20.47
19.84
19.36
19.05
18.92
18.98
19.17
19.36
19.33
18.87
17.82
16.23
14.32
12.41
10.78
9.57
8.69
7.94
7.06
5.85
4.24
2.24
-0.07
-2.57
-5.09
-7.45
-9.52
-11.35
-13.13
-15.15
-17.71
-20.92
-24.62
-28.36
-31.5
-33.38
-33.49
-31.61
-27.82
-22.43
-15.89
-8.69
-1.26
5.97
12.64
18.49
23.3
27.01
29.64
31.3
32.17
32.45
32.32
31.92
31.35
30.58
29.58
28.28
26.68
24.92
23.14
21.47
19.92
18.43
16.84
15.08
13.17
11.2
9.29
7.57
6.07
4.78
3.66
2.6
1.44
-0.02
-1.95
-4.36
-7.11
-9.9
-12.41
-14.45
-16.04
-17.35
-18.68
-20.33
-22.47
-25.12
-28.09
-30.99
-33.25
-34.22
-33.31
-30.18
-24.96
-18.19
-10.69
-3.26
3.5
9.35
14.29
18.43
21.82
24.38
26.01
26.65
26.44
25.64
24.6
23.6
22.82
22.28
21.93
21.67
21.43
21.19
20.99
20.85
20.76
20.66
20.45
20
19.24
18.11
16.63
14.86
12.87
10.71
8.47
6.2
4.02
2.03
0.28
-1.27
-2.75
-4.37
-6.31
-8.67
-11.4
-14.31
-17.13
-19.65
-21.79
-23.65
-25.43
-27.36
-29.56
-31.94
-34.15
-35.68
-35.94
-34.45
-31.03
-25.82
-19.27
-12.05
-4.81
1.95
7.89
12.84
16.73
19.52
21.22
21.94
21.9
21.41
20.8
20.3
19.97
19.72
19.43
19.02
18.53
18.08
17.85
17.95
18.33
18.82
19.14
19.05
18.37
17.06
15.25
13.13
10.92
8.75
6.71
4.8
2.97
1.13
-0.79
-2.85
-5.01
-7.2
-9.28
-11.11
-12.58
-13.67
-14.5
-15.24
-16.09
-17.24
-18.78
-20.68
-22.74
-24.61
-25.82
-25.83
-24.26
-20.89
-15.84
-9.43
-2.16
5.43
12.86
19.75
25.85
31.02
35.2
38.37
40.56
41.8
42.17
41.81
40.87
39.55
37.99
36.22
34.18
31.75
28.92
25.85
22.78
20
17.59
15.41
13.08
10.2
6.51
2
-3.11
-8.56
-14.23
-20.13
-26.33
-32.78
-39.25
-45.29
-50.49
-54.66
-57.88
-60.47
-62.86
-65.32
-67.95
-70.71
-73.46
-76.16
-78.79
-81.36
-83.85
-86.17
-88.14
-89.49
-89.96
-89.18
-86.78
-82.38
-75.64
-66.4
-54.8
-41.34
-26.78
-11.97
2.41
15.96
28.56
40.27
51.1
60.9
69.41
76.39
81.8
85.84
88.87
91.3
93.4
95.21
96.59
97.18
96.53
94.23
89.99
83.76
75.77
66.51
56.54
46.35
36.19
26.09
16.03
6.01
-3.78
-13.06
-21.59
-29.24
-36.06
-42.14
-47.5
-52
-55.44
-57.67
-58.8
-59.26
-59.61
-60.35
-61.63
-63.13
-64.23
-64.18
-62.39
-58.62
-53
-46
-38.24
-30.33
-22.82
-16.07
-10.31
-5.58
-1.88
0.91
2.89
4.29
5.32
6.21
7.07
7.87
8.42
8.58
8.31
7.86
7.61
7.91
8.89
10.31
11.73
12.67
12.82
12.15
10.78
8.84
6.42
3.57
0.35
-2.98
-6.09
-8.6
-10.29
-11.2
-11.49
-11.33
-10.71
-9.4
-7.05
-3.46
1.24
6.58
11.85
16.41
19.89
22.24
23.65
24.35
24.45
23.86
22.46
20.2
17.26
13.99
10.79
8
5.73
3.91
2.34
0.82
-0.78
-2.45
-4.15
-5.82
-7.5
-9.29
-11.36
-13.88
-16.94
-20.54
-24.47
-28.44
-32.09
-35.03
-37.03
-37.94
-37.7
-36.24
-33.54
-29.59
-24.53
-18.64
-12.38
-6.26
-0.69
4.06
7.95
11.11
13.72
15.88
17.6
18.77
19.26
19.03
18.15
16.81
15.22
13.57
11.94
10.35
8.79
7.19
5.45
3.42
0.91
-2.21
-5.9
-9.89
-13.67
-16.66
-18.36
-18.49
-17.03
-14.24
-10.48
-6.2
-1.85
2.18
5.59
8.18
9.87
10.73
10.83
10.2
8.82
6.69
3.92
0.8
-2.3
-5.02
-7.23
-9.13
-11.17
-13.93
-17.84
-22.97
-29.08
-35.59
-41.93
-47.71
-52.85
-57.59
-62.28
-67.19
-72.31
-77.34
-81.69
-84.59
-85.25
-82.95
-77.15
-67.67
-54.71
-38.98
-21.58
-3.83
13.07
28.31
41.59
53.08
63.15
72.11
80.06
86.81
92.11
95.79
97.89
98.68
98.58
97.92
96.93
95.7
94.27
92.74
91.25
89.93
88.86
87.99
87.14
86.06
84.52
82.35
79.56
76.22
72.44
68.31
63.83
58.88
53.28
46.9
39.73
32.05
24.44
17.55
11.98
7.92
5.1
2.87
0.5
-2.58
-6.52
-11
-15.4
-18.94
-20.92
-20.82
-18.36
-13.62
-7.02
0.78
8.94
16.67
23.54
29.54
35.08
40.82
47.16
53.92
60.19
64.61
65.78
62.75
55.34
43.98
29.65
13.44
-3.55
-20.29
-35.85
-49.49
-60.65
-69.07
-74.75
-77.91
-79.06
-79.02
-78.83
-79.51
-81.62
-84.88
-88.08
-89.59
-87.97
-82.72
-74.52
-64.97
-55.9
-48.72
-43.96
-41.3
-39.97
-39.13
-38.19
-36.89
-35.14
-32.88
-29.94
-26.1
-21.26
-15.6
-9.61
-3.99
0.58
3.63
5.05
5.03
3.97
2.4
0.84
-0.14
-0.13
1.07
3.32
6.19
9.1
11.6
13.5
14.84
15.87
16.88
18.21
20.22
23.29
27.58
32.81
37.97
41.54
41.93
38.18
30.43
19.93
8.59
-1.81
-10.22
-16.53
-21.23
-24.92
-27.88
-30.01
-31.05
-30.97
-30.13
-29.1
-28.42
-28.27
-28.4
-28.21
-27.01
-24.32
-20.03
-14.48
-8.37
-2.58
2.11
5.26
6.88
7.46
7.69
8.14
9.07
10.34
11.61
12.45
12.67
12.22
11.16
9.6
7.6
5.36
3.2
1.59
1.1
2.17
4.86
8.78
13.18
17.08
19.63
20.31
19.04
16.21
12.48
8.53
4.9
1.76
-1.04
-3.9
-7.23
-11.2
-15.64
-20.03
-23.7
-26.06
-26.85
-26.24
-24.79
-23.19
-22.06
-21.71
-22.08
-22.83
-23.52
-23.82
-23.62
-23.04
-22.33
-21.7
-21.23
-20.97
-20.93
-21.21
-21.96
-23.2
-24.73
-26.08
-26.66
-25.91
-23.57
-19.73
-14.71
-8.91
-2.59
4.11
11.15
18.27
25
30.66
34.53
36.22
35.81
33.87
31.27
28.89
27.31
26.77
27.26
28.67
30.92
33.97
37.73
41.92
45.99
49.22
50.91
50.54
47.9
43.24
37.09
30.16
23.07
16.23
9.64
3.13
-3.49
-10.05
-15.84
-19.78
-20.93
-18.93
-14.26
-8.05
-1.56
4.26
9.03
12.83
15.74
17.68
18.37
17.67
15.9
13.82
12.29
11.79
12.17
12.74
12.82
12.25
11.5
11.4
12.57
14.86
17.38
18.9
18.42
15.76
11.41
6.14
0.46
-5.55
-12.12
-19.3
-26.66
-33.39
-38.55
-41.69
-43
-43.16
-42.9
-42.53
-41.81
-40.15
-37.08
-32.57
-27.16
-21.8
-17.5
-15
-14.57
-15.89
-18.2
-20.48
-21.75
-21.32
-19.06
-15.32
-10.82
-6.29
-2.19
1.43
4.77
8.17
11.77
15.45
18.86
21.56
23.2
23.71
23.29
22.28
21.01
19.63
17.96
15.59
12.04
7.01
0.66
-6.42
-13.25
-18.83
-22.41
-23.7
-22.82
-20.2
-16.35
-11.68
-6.48
-0.85
5.18
11.53
17.99
24.13
29.31
32.78
33.93
32.48
28.71
23.42
17.68
12.52
8.55
5.84
4.09
2.87
1.94
1.3
1.08
1.31
1.77
1.88
0.89
-1.95
-7.24
-15.25
-25.79
-38.13
-51.03
-62.86
-72.11
-77.71
-79.47
-77.97
-74.29
-69.52
-64.38
-59.11
-53.72
-48.18
-42.63
-37.39
-32.78
-28.89
-25.56
-22.43
-19.16
-15.48
-11.47
-7.37
-3.58
-0.46
1.86
3.52
4.85
6.19
7.78
9.58
11.31
12.63
13.25
13.06
12.19
10.89
9.42
7.89
6.35
4.79
3.24
1.91
1.13
1.32
2.85
5.89
10.28
15.61
21.28
26.7
31.37
35.04
37.65
39.35
40.38
41.12
41.9
42.97
44.32
45.63
46.43
46.28
45.03
42.94
40.63
38.81
38.05
38.51
39.84
41.25
41.77
40.56
37.24
32.05
25.76
19.47
14.17
10.43
8.2
6.77
5.04
1.89
-3.33
-10.41
-18.32
-25.5
-30.56
-32.89
-32.91
-31.83
-31.02
-31.37
-32.98
-35.34
-37.76
-39.71
-40.97
-41.45
-41.02
-39.43
-36.56
-32.54
-27.88
-23.27
-19.37
-16.5
-14.71
-13.76
-13.24
-12.74
-11.87
-10.43
-8.56
-6.74
-5.75
-6.33
-8.87
-13.08
-17.97
-22.22
-24.68
-24.8
-22.87
-19.74
-16.4
-13.49
-11.09
-8.82
-6.14
-2.7
1.46
6.1
10.96
16.04
21.56
