31.22
35.44
41.9
49.85
58.37
66.63
73.98
79.92
84.07
86.25
86.52
85.23
82.89
79.81
75.71
69.55
59.71
44.56
23.21
-3.96
-35.11
-67.34
-97.4
-122.41
-140.54
-151.22
-155.17
-154.09
-150.15
-145.45
-141.58
-139.27
-138.42
-138.33
-138.05
-136.82
-134.31
-130.72
-126.63
-122.69
-119.37
-116.59
-113.73
-109.69
-103.18
-93.01
-78.32
-58.7
-34.12
-5.01
27.81
63.02
98.88
133.24
163.73
188.23
205.2
214.01
215.02
209.37
198.59
184.24
167.75
150.28
132.83
116.08
100.49
86.38
74.15
64.38
57.79
54.93
55.76
59.52
65.01
71.11
77.31
83.84
91.39
100.53
111.27
122.82
133.62
141.76
145.37
143
133.97
118.53
97.68
72.87
45.53
16.89
-12.07
-40.36
-66.94
-90.76
-110.94
-127.17
-139.73
-149.25
-156.39
-161.45
-164.3
-164.75
-163.07
-160.36
-158.57
-159.88
-166.07
-177.85
-194.67
-214.8
-235.79
-254.86
-269.36
-277.24
-277.4
-269.9
-255.89
-237.08
-215.08
-191
-165.43
-138.78
-111.79
-85.48
-61.03
-39.32
-20.71
-5.08
7.88
18.62
27.69
35.75
43.64
52.03
61.16
70.64
79.62
87.12
92.4
95.23
95.76
94.53
92.25
89.61
87.25
85.6
84.85
84.97
85.74
86.78
87.69
87.94
86.96
84.25
79.48
72.67
64.25
54.95
45.59
36.94
29.51
23.52
18.96
15.54
12.86
10.38
7.62
4.25
0.18
-4.42
-9.26
-14.05
-18.58
-22.76
-26.51
-29.82
-32.63
-34.94
-36.79
-38.37
-39.9
-41.57
-43.52
-45.68
-47.99
-50.34
-52.69
-55
-57.04
-58.33
-58.2
-55.9
-50.94
-43.27
-33.41
-22.25
-10.84
-0.08
9.48
17.62
24.32
29.66
33.66
36.37
37.85
38.24
37.84
36.99
36.03
35.16
34.48
33.88
33.29
32.61
31.8
30.8
29.46
27.59
24.98
21.51
17.27
12.49
7.5
2.53
-2.34
-7.23
-12.35
-17.89
-23.83
-29.94
-35.68
-40.32
-43.03
-43.12
-40.21
-34.41
-26.43
-17.39
-8.58
-1.04
4.6
8.22
10.1
10.69
10.42
9.65
8.7
7.86
7.37
7.35
7.69
8.07
8.13
7.66
6.78
5.93
5.58
5.98
6.89
7.58
7.14
4.86
0.59
-4.96
-10.38
-13.89
-13.88
-9.37
-0.34
12.36
27.42
43.5
59.67
75.4
90.31
103.78
114.8
122.05
124.37
121.18
112.74
100.07
84.62
67.86
51.09
35.34
21.43
9.89
0.98
-5.37
-9.58
-12.27
-14.09
-15.55
-17.02
-18.7
-20.77
-23.41
-26.76
-30.96
-36.06
-42.04
-48.72
-55.73
-62.39
-67.78
-70.82
-70.53
-66.37
-58.4
-47.35
-34.47
-21.17
-8.73
1.99
10.52
16.8
20.97
23.32
24.19
23.95
23.07
21.99
21.16
20.88
21.28
22.19
23.26
24.01
24.02
23.1
21.33
18.97
16.39
13.86
11.38
8.84
5.98
2.6
-1.44
-6.15
-11.42
-16.93
-22.08
-26.13
-28.29
-28
-25.16
-20.17
-13.79
-6.84
0
6.34
11.98
16.79
20.64
23.39
24.99
25.56
25.41
24.99
24.69
24.82
25.45
26.47
27.62
28.61
29.19
29.24
28.73
27.74
26.34
24.58
22.48
19.99
17.1
13.83
10.25
6.53
2.88
-0.48
-3.45
-6.01
-8.41
-11.03
-14.27
-18.41
-23.43
-28.93
-34.14
-38.09
-39.94
-39.14
-35.67
-29.96
-22.83
-15.13
-7.62
-0.75
5.26
10.29
14.24
16.97
18.44
18.73
18.16
17.25
16.51
16.37
16.96
18.16
19.64
21.03
22.02
22.45
22.29
21.58
20.44
18.97
17.23
15.29
13.14
10.75
8.08
5.12
1.89
-1.54
-5.04
-8.45
-11.6
-14.44
-16.98
-19.35
-21.74
-24.35
-27.28
-30.44
-33.53
-35.96
-37.08
-36.29
-33.19
-27.77
-20.38
-11.71
-2.56
6.3
14.32
21.16
26.64
30.61
32.95
33.64
32.84
30.93
28.5
26.14
24.24
22.91
21.96
21.09
20.11
19.05
18.07
17.41
17.13
17.09
16.98
16.49
15.52
14.19
12.78
11.6
10.81
10.28
9.71
8.75
7.13
4.84
2.03
-1.04
-4.07
-6.87
-9.35
-11.57
-13.69
-16
-18.8
-22.36
-26.77
-31.85
-37.06
-41.62
-44.66
-45.52
-43.9
-39.99
-34.38
-27.86
-21.22
-15.02
-9.52
-4.81
-0.84
2.39
4.89
6.7
7.91
8.77
9.55
10.53
11.83
13.44
15.18
16.83
18.19
19.09
19.54
19.63
19.52
19.33
19.1
18.76
18.14
17.09
15.53
13.58
11.43
9.34
7.5
6
4.77
3.66
2.51
1.18
-0.39
-2.21
-4.28
-6.59
-9.16
-11.99
-15.1
-18.51
-22.29
-26.44
-30.88
-35.33
-39.24
-41.91
-42.61
-40.92
-36.83
-30.83
-23.72
-16.35
-9.38
-3.21
1.96
6.03
8.98
10.81
11.67
11.81
11.51
11.07
10.69
10.48
10.51
10.79
11.38
12.25
13.34
14.55
15.8
17.07
18.28
19.36
20.08
20.26
19.78
18.72
17.31
15.86
14.58
13.46
12.29
10.78
8.76
6.21
3.32
0.33
-2.58
-5.36
-8.13
-11.06
-14.34
-18.02
-22.02
-26.04
-29.6
-32.14
-33.15
-32.37
-29.87
-26.03
-21.39
-16.48
-11.67
-7.17
-3.12
0.35
3.04
4.79
5.55
5.47
4.89
4.2
3.78
3.79
4.26
5.07
6.05
7.07
8.07
8.98
9.8
10.48
10.92
11.04
10.77
10.06
8.94
7.45
5.66
3.7
1.61
-0.57
-2.82
-5.19
-7.72
-10.35
-12.97
-15.37
-17.42
-19.1
-20.61
-22.24
-24.31
-26.97
-30.11
-33.37
-36.25
-38.18
-38.68
-37.41
-34.24
-29.31
-22.95
-15.7
-8.14
-0.83
5.86
11.75
16.79
20.98
24.29
26.7
28.25
29.14
29.65
30.11
30.69
31.47
32.33
33.16
33.88
34.45
34.78
34.71
33.98
32.33
29.65
26
21.64
16.92
12.13
7.44
2.93
-1.44
-5.77
-10.11
-14.48
-18.84
-23.04
-26.84
-30.02
-32.41
-34.06
-35.18
-36.08
-37.03
-38.13
-39.25
-40.08
-40.26
-39.46
-37.48
-34.23
-29.74
-24.12
-17.56
-10.39
-2.99
4.2
10.84
16.65
21.55
25.53
28.73
31.26
33.3
34.99
36.41
37.67
38.81
39.84
40.72
41.29
41.32
40.52
38.67
35.68
31.66
26.83
21.54
16.07
10.64
5.42
0.57
-3.74
-7.43
-10.48
-13.07
-15.46
-17.86
-20.4
-22.93
-25.22
-27.04
-28.31
-29.1
-29.7
-30.41
-31.48
-33.05
-35.07
-37.29
-39.29
-40.58
-40.61
-39.04
-35.78
-31.07
-25.39
-19.31
-13.36
-7.92
-3.24
0.53
3.29
5.05
5.91
6.08
5.85
5.5
5.26
5.27
5.62
6.32
7.39
8.77
10.31
11.83
13.14
14.08
14.64
14.87
14.91
14.85
14.75
14.6
14.35
13.97
13.38
12.48
11.15
9.33
7.09
4.64
2.33
0.52
-0.57
-1.01
-1.15
-1.55
-2.8
-5.24
-8.85
-13.18
-17.43
-20.7
-22.23
-21.59
-18.82
-14.36
-8.86
-3.09
2.34
6.99
10.57
12.99
14.29
14.57
14.08
13.11
11.93
10.73
9.61
8.62
7.76
7.1
6.7
6.56
6.65
6.87
7.11
7.38
7.73
8.22
8.86
9.49
9.93
10.04
9.82
9.41
8.94
8.45
7.79
6.76
5.2
3.17
0.85
-1.49
-3.72
-5.89
-8.19
-10.85
-13.97
-17.49
-21.14
-24.55
-27.31
-29.03
-29.46
-28.51
-26.24
-22.84
-18.57
-13.7
-8.48
-3.21
1.76
6.07
9.39
11.61
12.79
13.23
13.32
13.51
14.17
15.56
17.79
20.83
24.48
28.25
31.51
33.57
33.89
32.25
28.85
24.18
18.94
13.74
8.99
4.79
1.06
-2.41
-5.73
-8.94
-11.95
-14.65
-17.01
-19.07
-20.88
-22.57
-24.19
-25.82
-27.53
-29.43
-31.54
-33.78
-35.85
-37.3
-37.62
-36.49
-33.81
-29.79
-24.8
-19.3
-13.73
-8.46
-3.78
0.06
2.93
4.8
5.74
5.91
5.5
4.72
3.84
3.14
2.87
3.17
4
5.15
6.34
7.29
7.89
8.16
8.21
8.12
7.92
7.55
6.98
6.19
5.21
4.09
2.89
1.66
0.43
-0.76
-1.86
-2.85
-3.8
-4.83
-6.09
-7.75
-9.88
-12.46
-15.37
-18.34
-20.99
-22.87
-23.6
-22.92
-20.86
-17.72
-14
-10.23
-6.86
-4.11
-2
-0.48
0.53
1.08
1.2
0.99
0.64
0.39
0.5
1.08
2.06
3.23
4.34
5.19
5.74
6.07
6.3
6.48
6.56
6.38
5.82
4.81
3.42
1.86
0.34
-0.95
-1.97
-2.81
-3.65
-4.68
-6.05
-7.85
-10.14
-12.89
-16.02
-19.28
-22.26
-24.45
-25.36
-24.68
-22.45
-19
-14.88
-10.64
-6.66
-3.1
0.03
2.74
4.98
6.64
7.65
8.05
8.07
8.09
8.44
9.35
10.83
12.68
14.61
16.33
17.65
18.48
18.84
18.77
18.4
17.81
17.13
16.39
15.59
14.62
13.34
11.64
9.53
7.18
4.88
2.92
1.48
0.53
-0.2
-1.12
-2.59
-4.78
-7.56
-10.48
-12.96
-14.41
-14.47
-13.07
-10.37
-6.76
-2.68
1.4
5.1
8.12
10.32
11.67
12.2
12.06
11.38
10.3
9.01
7.73
6.73
6.25
6.39
7.03
7.92
8.75
9.27
9.42
9.25
8.9
8.44
7.86
7.09
6.03
4.7
3.24
1.8
0.57
-0.43
-1.3
-2.21
-3.32
-4.7
-6.35
-8.15
-9.99
-11.8
-13.57
-15.29
-16.87
-18.07
-18.56
-18.02
-16.23
-13.26
-9.41
-5.18
-1.02
2.75
5.99
8.65
10.64
11.82
12.07
11.46
10.22
8.84
7.78
7.33
7.55
8.25
9.09
9.82
10.24
10.31
10.06
9.52
8.77
7.93
7.09
6.36
5.78
5.3
4.84
4.31
3.62
2.77
1.78
0.71
-0.35
-1.38
-2.39
-3.44
-4.58
-5.84
-7.29
-8.95
-10.83
-12.86
-14.83
-16.43
-17.26
-17.02
-15.56
-12.97
-9.52
-5.6
-1.6
2.15
5.46
8.25
10.47
12.16
13.38
14.17
14.59
14.7
14.55
14.26
13.93
13.69
13.61
13.72
13.95
14.18
14.29
14.19
13.86
13.3
12.53
11.58
10.48
9.27
8.03
6.82
5.68
4.56
3.35
1.93
0.19
-1.85
-4.12
-6.43
-8.64
-10.65
-12.47
-14.16
-15.84
-17.59
-19.48
-21.52
-23.6
-25.48
-26.84
-27.34
-26.73
-24.97
-22.24
-18.99
-15.69
-12.72
-10.29
-8.4
-6.93
-5.75
-4.78
-3.96
-3.27
-2.61
-1.88
-0.98
0.11
1.29
2.38
3.28
3.99
4.63
5.35
6.24
7.2
8.03
8.49
8.45
7.98
7.3
6.67
6.23
5.96
5.68
5.21
4.45
3.47
2.42
1.44
0.57
-0.26
-1.21
-2.45
-4.08
-6.1
-8.34
-10.61
-12.57
-13.88
-14.22
-13.39
-11.29
-8.01
-3.79
1.02
5.96
10.64
14.71
17.96
20.33
21.87
22.71
22.99
22.83
22.33
21.59
20.67
19.58
18.24
16.55
14.47
12.05
9.5
7.11
5.15
3.73
2.8
2.19
1.7
1.2
0.61
-0.03
-0.75
-1.53
-2.46
-3.6
-4.97
-6.52
-8.1
-9.58
-10.87
-11.99
-12.99
-13.97
-14.99
-16.04
-17.09
-18.14
-19.21
-20.24
-21.06
-21.39
-20.86
-19.18
-16.26
-12.26
-7.5
-2.42
2.56
7.18
11.29
14.86
17.9
20.44
22.46
23.96
24.9
25.35
25.45
25.38
25.3
25.29
25.35
25.34
25.14
24.7
24
23.06
21.85
20.31
18.36
15.99
13.31
10.51
7.82
5.35
3.13
1.06
-0.96
-2.96
-4.9
-6.68
-8.23
-9.54
-10.66
-11.69
-12.75
-13.94
-15.36
-17.08
-19.1
-21.32
-23.5
-25.28
-26.2
-25.88
-24.13
-21.09
-17.1
-12.71
-8.42
-4.57
-1.31
1.36
3.51
5.16
6.31
6.93
7.11
7
6.8
6.7
6.81
7.16
7.77
8.59
9.57
10.66
11.71
12.56
13.01
12.94
12.31
11.22
9.79
8.16
6.46
4.75
3.1
1.53
0.05
-1.36
-2.73
-4.04
-5.28
-6.38
-7.3
-8.03
-8.63
-9.25
-10.03
-11.09
-12.43
-13.95
-15.43
-16.62
-17.26
-17.14
-16.14
-14.25
-11.56
-8.21
-4.48
-0.66
2.87
5.75
7.8
9
9.51
9.6
9.53
9.45
9.4
9.37
9.28
9.13
8.95
8.82
8.73
8.69
8.63
8.5
8.23
7.79
7.2
6.48
5.64
4.66
3.51
2.17
0.75
-0.61
-1.78
-2.67
-3.33
-3.89
-4.47
-5.16
-5.99
-6.94
-8.03
-9.32
-10.87
-12.69
-14.69
-16.69
-18.45
-19.75
-20.41
-20.32
-19.42
-17.69
-15.16
-11.95
-8.27
-4.38
-0.62
2.69
5.28
6.95
7.63
7.38
6.35
4.82
3.07
1.39
0.01
-0.95
-1.46
-1.59
-1.44
-1.11
-0.68
-0.21
0.19
0.45
0.49
0.34
0.07
-0.2
-0.38
-0.49
-0.62
-0.93
-1.46
-2.17
-2.94
-3.59
-4.04
-4.39
-4.75
-5.28
-6.08
-7.15
-8.42
-9.77
-11.06
-12.1
-12.7
-12.64
-11.79
-10.1
-7.7
-4.83
-1.8
1.12
3.77
6.12
8.23
10.07
11.59
12.63
13.07
12.96
12.52
12.08
11.94
12.25
12.9
13.65
14.3
14.73
15.01
15.33
15.79
16.46
17.27
18.08
18.76
19.25
19.62
20.07
20.89
22.33
24.51
27.29
30.33
33.23
35.64
37.45
38.91
40.48
42.77
46.29
51.23
57.52
64.78
72.55
80.4
88.18
95.93
103.9
112.46
121.85
132.07
142.56
152.05
158.62
160.11
154.79
142.16
123.25
100.4
76.51
54.04
34.41
17.95
4.28
-7.1
-16.47
-23.9
-29.65
-34.31
-38.85
-44.25
-51.09
-59.31
-68.31
-77.26
-85.53
-92.96
-99.81
-106.57
-113.59
-120.76
-127.49
-132.88
-136.02
-136.33
-133.7
-128.54
-121.56
-113.56
-105.2
-97.01
-89.3
-82.33
-76.28
-71.28
-67.3
-64.13
-61.45
-58.91
-56.26
-53.39
-50.37
-47.32
-44.37
-41.59
-38.97
-36.5
-34.1
-31.74
-29.37
-27.05
-24.8
-22.73
-20.9
-19.36
-18.17
-17.3
-16.7
-16.32
-16.11
-16
-15.98
-16.02
-16.17
-16.46
-16.9
-17.44
-17.91
-18.11
-17.76
-16.67
-14.72
-11.96
-8.56
-4.79
-0.9
2.91
6.47
9.67
12.39
14.49
15.9
16.61
16.74
16.52
16.2
16.03
16.1
16.33
16.61
16.78
16.83
16.8
16.79
16.85
16.86
16.61
15.84
14.45
12.54
10.4
8.32
6.51
4.95
3.45
1.81
-0.09
-2.14
-4.12
-5.76
-6.94
-7.7
-8.23
-8.82
-9.71
-10.99
-12.6
-14.4
-16.22
-17.88
-19.23
-20.02
-19.98
-18.8
-16.24
-12.35
-7.43
-2.04
3.21
7.85
11.7
14.85
17.52
19.89
21.97
23.68
24.89
25.6
25.92
26.01
26.02
25.97
25.82
25.45
24.79
23.85
22.73
21.52
20.26
18.91
17.36
15.55
13.5
11.32
9.27
7.54
6.22
5.25
4.39
3.38
2.02
0.28
-1.74
-3.78
-5.62
-7.09
-8.2
-9.1
-10.03
-11.25
-12.94
-15.08
-17.4
-19.46
-20.76
-20.89
-19.62
-16.97
-13.21
-8.75
-4.01
0.67
5.02
8.9
12.14
14.66
16.36
17.27
17.52
17.36
17.06
16.85
16.84
17.02
17.32
17.65
17.92
18.06
17.98
17.62
16.98
16.12
15.13
14.11
13.12
12.22
11.49
11.03
10.92
11.14
11.53
11.78
11.59
10.8
9.4
7.6
5.64
3.68
1.82
0.1
-1.47
-2.82
-3.92
-4.86
-5.81
-6.97
-8.39
-9.92
-11.24
-12.02
-12
-11.14
-9.5
-7.23
-4.44
-1.26
2.16
5.5
8.39
10.53
11.71
11.99
11.6
10.87
10.11
9.56
9.32
9.37
9.66
10.12
10.72
11.47
12.36
13.32
14.27
15.1
15.68
15.96
15.94
15.71
15.45
15.34
15.62
16.43
17.82
19.76
22.11
24.68
27.36
30.11
32.92
35.87
39.05
42.55
46.45
50.74
55.28
59.85
64.16
68
71.43
74.79
78.64
83.52
89.58
96.36
102.69
106.92
107.37
102.87
93.12
78.78
61.25
42.14
22.95
4.75
-11.8
-26.43
-39.13
-50.14
-59.95
-69.22
-78.6
-88.49
-98.73
-108.63
-117.12
-123.13
-125.93
-125.39
-121.86
-116.11
-108.93
-101.02
-92.9
-84.94
-77.47
-70.77
-65.03
-60.28
-56.38
-53.06
-50.09
-47.4
-45.08
-43.34
-42.33
-42.07
-42.47
-43.32
-44.45
-45.67
-46.81
-47.66
-48.05
-47.8
-46.83
-45.04
-42.39
-38.8
-34.27
-28.86
-22.75
-16.26
-9.75
-3.47
2.43
7.84
12.65
16.65
19.64
21.55
22.48
22.79
22.93
23.29
24.03
25.04
26.03
26.71
26.92
26.65
26
25.15
24.21
23.26
22.25
21.13
19.8
18.18
16.25
14.06
11.7
9.32
7.09
5.16
3.58
2.38
1.46
0.71
0.04
-0.68
-1.56
-2.65
-3.99
-5.64
-7.61
-9.88
-12.41
-15.03
-17.46
-19.34
-20.28
-19.97
-18.29
-15.36
-11.51
-7.13
-2.58
1.95
6.34
10.54
14.44
17.88
20.64
22.62
23.9
24.7
25.29
25.86
26.46
27.05
27.64
28.34
29.39
31.05
33.47
36.5
39.8
42.83
45.01
45.8
44.85
42.05
37.53
31.75
25.36
19.02
13.27
8.33
4.21
0.76
-2.18
-4.75
-7.02
-9.1
-11.13
-13.25
-15.48
-17.66
-19.4
-20.3
-20.05
-18.62
-16.24
-13.31
-10.24
-7.35
-4.84
-2.76
-1.23
-0.36
-0.27
-1.02
-2.47
-4.31
-6.11
-7.5
-8.26
-8.48
-8.34
-8.08
-7.87
-7.73
-7.64
-7.55
-7.47
-7.51
-7.87
-8.64
-9.8
-11.24
-12.74
-14.06
-15.09
-15.8
-16.3
-16.8
-17.48
-18.46
-19.8
-21.41
-23.16
-24.83
-26.18
-26.88
-26.65
-25.28
-22.71
-19.16
-14.97
-10.62
-6.54
-2.99
-0.07
2.23
3.97
5.2
5.95
6.3
6.34
6.23
6.12
6.11
6.23
6.42
6.6
6.69
6.74
6.81
6.98
7.29
7.66
7.92
7.87
7.35
6.32
4.91
3.28
1.67
0.17
-1.22
-2.59
-4.08
-5.8
-7.72
-9.7
-11.54
-13
-13.85
-13.98
-13.23
-11.58
-9.08
-5.9
-2.28
1.48
5.15
8.56
11.6
14.21
16.27
17.68
18.36
18.39
17.97
17.41
17
16.91
17.16
17.61
18.08
18.43
18.6
18.65
18.66
18.69
18.73
18.61
18.12
17.02
15.22
12.79
10
7.14
4.48
2.05
-0.26
-2.66
-5.29
-8.11
-10.94
-13.42
-15.24
-16.09
-15.85
-14.55
-12.39
-9.63
-6.57
-3.44
-0.4
2.42
4.9
6.84
8.09
8.55
8.29
7.5
6.46
5.45
4.6
4.04
3.72
3.58
3.48
3.25
2.68
1.68
0.26
-1.43
-3.1
-4.56
-5.76
-6.76
-7.69
-8.6
-9.45
-10.17
-10.71
-11.07
-11.35
-11.64
-11.9
-12.05
-11.96
-11.65
-11.32
-11.27
-11.68
-12.53
-13.46
-13.93
-13.46
-11.75
-8.86
-5.12
-1
3.07
6.77
9.9
12.41
14.23
15.39
15.97
16.14
16.14
16.23
16.52
17.04
17.68
18.23
18.56
18.54
18.18
17.48
16.56
15.53
14.55
13.75
13.19
12.81
12.41
11.75
10.66
9.13
7.33
5.44
3.64
2
0.56
-0.71
-1.79
-2.65
-3.34
-3.97
-4.75
-5.89
-7.52
-9.53
-11.6
-13.28
-14.05
-13.59
-11.77
-8.79
-5.04
-1.02
2.84
6.25
9.1
11.35
13.01
14.07
14.52
14.37
13.73
12.79
11.77
10.87
10.17
9.65
9.26
8.91
8.52
8.06
7.51
6.88
6.22
5.63
5.2
4.93
4.74
4.49
4.01
3.23
2.23
1.17
0.19
-0.61
-1.28
-1.95
-2.72
-3.64
-4.69
-5.83
-7.03
-8.3
-9.6
-10.88
-11.98
-12.68
-12.75
-12.03
-10.48
-8.16
-5.25
-1.95
1.52
5
8.34
11.38
13.98
15.95
17.18
17.61
17.37
16.71
15.94
15.31
14.97
14.87
14.86
14.8
14.63
14.45
14.38
14.49
14.81
15.22
15.57
15.71
15.49
14.79
13.49
11.56
9.06
6.19
3.18
0.24
-2.58
-5.34
-8.15
-11.03
-13.86
-16.43
-18.5
-19.98
-20.94
-21.59
-22.23
-23.11
-24.34
-25.84
-27.38
-28.59
-29.06
-28.41
-26.37
-22.98
-18.51
-13.46
-8.42
-3.86
-0.06
2.97
5.31
7.12
8.42
9.23
9.57
9.58
9.44
9.35
9.35
9.41
9.42
9.27
9
8.65
8.3
7.89
7.34
6.54
5.41
4.02
2.42
0.7
-1.11
-2.96
-4.81
-6.56
-8.11
-9.39
-10.38
-11.16
-11.86
-12.62
-13.55
-14.69
-16.02
-17.44
-18.89
-20.29
-21.63
-22.91
-24.11
-25.14
-25.81
-25.89
-25.16
-23.49
-20.89
-17.54
-13.75
-9.87
-6.19
-2.89
-0.04
2.37
4.34
5.89
6.99
7.7
8.08
8.24
8.32
8.44
8.7
9.16
9.77
10.41
10.89
11.02
10.73
10.1
9.35
8.68
8.22
7.94
7.65
7.18
6.46
5.54
4.5
3.44
2.42
1.46
0.56
-0.24
-0.88
-1.34
-1.73
-2.21
-2.98
-4.14
-5.64
-7.27
-8.71
-9.61
-9.81
-9.26
-8.05
-6.31
-4.2
-1.81
0.72
3.28
5.73
7.9
9.66
10.93
11.66
11.84
11.49
10.69
9.6
8.45
7.43
6.73
6.36
6.22
6.13
5.91
5.42
4.62
3.55
2.31
0.95
-0.45
-1.87
-3.24
-4.54
-5.76
-6.9
-8.01
-9.12
-10.27
-11.44
-12.63
-13.83
-15.08
-16.41
-17.83
-19.32
-20.75
-21.97
-22.75
-22.86
-22.12
-20.44
-17.9
-14.67
-11.02
-7.18
-3.37
0.29
3.74
6.91
9.67
11.89
13.48
14.37
14.65
14.48
14.09
13.69
13.35
13.13
12.97
12.8
12.56
12.18
11.64
10.94
10.13
9.26
8.44
7.75
7.23
6.84
6.47
5.95
5.19
4.18
3.02
1.91
0.99
0.27
-0.37
-1.1
-2.1
-3.39
-4.91
-6.48
-7.95
-9.16
-9.99
-10.29
-9.95
-8.9
-7.19
-4.99
-2.52
-0.04
2.3
4.37
6.12
7.52
8.56
9.24
9.56
9.56
9.32
8.91
8.44
7.99
7.61
7.3
7.09
6.95
6.92
6.99
7.11
7.23
7.26
7.14
6.86
6.49
6.07
5.66
5.22
4.7
4.03
3.15
2.09
0.91
-0.34
-1.61
-2.85
-4.02
-5.04
-5.79
-6.17
-6.1
-5.58
-4.71
-3.63
-2.48
-1.35
-0.25
0.87
1.98
3
3.77
4.12
3.97
3.32
2.35
1.3
0.45
-0.02
-0.1
0.08
0.25
0.19
-0.31
-1.24
-2.44
-3.69
-4.8
-5.68
-6.39
-6.98
-7.46
-7.78
-7.86
-7.7
-7.4
-7.11
-6.95
-6.86
-6.63
-5.94
-4.57
-2.53
-0.05
2.55
4.95
6.92
8.38
9.33
9.77
9.72
9.24
8.48
7.61
6.82
6.22
5.89
5.77
5.82
6.01
6.34
6.8
7.33
7.84
8.25
8.53
8.67
8.66
8.53
8.25
7.83
7.27
6.59
5.85
5.09
4.31
3.47
2.48
1.24
-0.28
-2
-3.77
-5.42
-6.78
-7.76
-8.35
-8.55
-8.34
-7.69
-6.66
-5.41
-4.19
-3.32
-3.01
-3.27
-3.98
-4.9
-5.84
-6.73
-7.61
-8.51
-9.44
-10.3
-10.93
-11.19
-11.05
-10.53
-9.78
-8.91
-8.01
-7.14
-6.33
-5.61
-5.05
-4.7
-4.58
-4.62
-4.74
-4.79
-4.75
-4.61
-4.47
-4.45
-4.64
-5.12
-5.91
-6.97
-8.22
-9.5
-10.58
-11.21
-11.23
-10.54
-9.18
-7.29
-5.06
-2.69
-0.31
2.02
4.29
6.44
8.43
10.19
11.62
12.71
13.43
13.84
14
13.97
13.79
13.49
13.13
12.8
12.6
12.54
12.6
12.67
12.6
12.28
11.7
10.87
9.86
8.75
7.57
6.34
5.12
3.99
3.06
2.44
2.1
1.87
1.5
0.72
-0.59
-2.31
-4.06
-5.25
-5.31
-3.81
-0.64
3.96
9.44
15.07
20.14
24.2
27.18
29.4
31.37
33.57
36.19
39.06
41.71
43.61
44.37
43.91
42.42
40.26
37.89
35.83
34.58
34.55
35.99
38.85
42.81
47.36
51.97
56.34
60.49
64.68
69.28
74.53
80.42
86.73
93.19
99.58
106
112.74
120.16
128.46
137.4
146.15
153.43
157.77
157.89
153.04
143.02
128.24
109.39
87.33
62.95
36.91
9.61
-19.05
-49.48
-82.12
-116.93
-152.97
-188.23
-219.89
-244.94
-260.79
-265.92
-260.07
-244.23
-220.42
-191.35
-160.19
-130.24
-104.56
-85.51
-74.25
-70.38
-72.08
-76.64
-81.32
-84.15
-84.35
-82.32
-79.01
-75.28
-71.5
-67.57
-63.15
-58.05
-52.35
-46.35
-40.35
-34.52
-28.92
-23.48
-18.19
-13.15
-8.52
-4.61
-1.67
0.13
0.82
0.62
-0.11
-1.02
-1.93
-2.79
-3.75
-4.92
-6.34
-7.88
-9.36
-10.61
-11.51
-12.08
-12.4
-12.59
-12.75
-12.98
-13.36
-13.89
-14.55
-15.2
-15.58
-15.39
-14.37
-12.36
-9.34
-5.42
-0.78
4.35
9.75
15.18
20.45
25.38
29.81
33.62
36.74
39.16
40.92
42.18
43.07
43.77
44.34
44.74
44.85
44.58
43.91
42.81
41.3
39.32
36.78
33.6
29.81
25.51
20.93
16.26
11.68
7.3
3.2
-0.55
-3.83
-6.61
-8.92
-10.91
-12.81
-14.86
-17.2
-19.89
-22.83
-25.85
-28.8
-31.54
-34
-36.14
-37.92
-39.3
-40.23
-40.66
-40.5
-39.66
-37.96
-35.32
-31.72
-27.3
-22.29
-17.05
-11.9
-7.05
-2.61
1.44
5.15
8.51
11.53
14.15
16.38
18.3
20.03
21.7
23.44
25.26
27.14
29.01
30.77
32.43
34.03
35.64
37.28
38.9
40.35
41.45
42.08
42.2
41.91
41.34
40.53
39.38
37.68
35.21
31.88
27.79
23.24
18.61
14.2
10.17
6.58
3.45
0.85
-1.1
-2.34
-2.93
-3.04
-2.92
-2.78
-2.66
-2.54
-2.34
-1.99
-1.45
-0.72
0.16
1.16
2.15
3.04
3.71
4.07
4.16
4.01
3.73
3.33
2.82
2.17
1.41
0.63
-0.12
-0.74
-1.25
-1.65
-1.99
-2.31
-2.65
-3.05
-3.57
-4.27
-5.18
-6.33
-7.69
-9.16
-10.61
-11.96
-13.12
-14.07
-14.82
-15.37
-15.7
-15.78
-15.61
-15.26
-14.87
-14.62
-14.61
-14.85
-15.2
-15.45
-15.42
-14.95
-13.98
-12.53
-10.63
-8.37
-5.93
-3.49
-1.33
0.26
1.02
0.77
-0.56
-2.87
-5.96
-9.51
-13.15
-16.53
-19.4
-21.59
-23.04
-23.8
-23.97
-23.7
-23.19
-22.54
-21.86
-21.23
-20.62
-20.02
-19.36
-18.57
-17.65
-16.64
-15.67
-14.91
-14.52
-14.62
-15.19
-16.09
-17.09
-17.92
-18.41
-18.49
-18.27
-17.96
-17.8
-17.96
-18.46
-19.14
-19.61
-19.38
-17.98
-15.19
-11.06
-5.99
-0.6
4.46
8.72
11.98
14.25
15.72
16.56
16.9
16.81
16.37
15.71
15
14.4
13.96
13.67
13.44
13.21
12.94
12.67
12.44
12.27
12.12
11.89
11.46
10.84
10.02
9.06
8
6.86
5.65
4.38
3.06
1.78
0.62
-0.41
-1.37
-2.41
-3.7
-5.32
-7.22
-9.16
-10.83
-11.89
-12.1
-11.35
-9.66
-7.17
-4.03
-0.48
3.22
6.81
10.06
12.8
14.92
16.34
17.06
17.08
16.48
15.44
14.16
12.85
11.68
10.72
9.95
9.32
8.8
8.34
7.93
7.56
7.15
6.66
6.06
5.35
4.54
3.66
2.66
1.51
0.16
-1.37
-3
-4.6
-6.01
-7.14
-7.98
-8.61
-9.13
-9.65
-10.23
-10.83
-11.35
-11.66
-11.68
-11.35
-10.63
-9.49
-7.84
-5.64
-2.88
0.3
3.65
6.9
9.84
12.35
14.44
16.14
17.41
18.14
18.23
17.68
16.73
15.73
15.02
14.79
14.98
15.35
15.56
15.41
14.85
14.02
13.1
12.18
11.27
10.26
9.04
7.54
5.81
3.9
1.9
-0.11
-2.07
-3.95
-5.69
-7.27
-8.7
-10.05
-11.34
-12.54
-13.51
-13.98
-13.7
-12.51
-10.43
-7.65
-4.46
-1.15
2.07
5.11
7.9
10.4
12.47
13.95
14.63
14.4
13.29
11.56
9.6
7.83
6.62
6.14
6.32
6.9
7.54
7.92
7.8
7.13
5.93
4.34
2.49
0.54
-1.38
-3.23
-5.03
-6.84
-8.72
-10.66
-12.57
-14.29
-15.67
-16.64
-17.23
-17.61
-17.97
-18.5
-19.27
-20.2
-21.08
-21.61
-21.45
-20.34
-18.16
-14.98
-11.06
-6.8
-2.64
1.07
4.11
6.42
8.04
9.08
9.67
9.88
9.85
9.71
9.62
9.69
9.98
10.5
11.15
11.83
12.42
12.83
13.02
12.98
12.74
12.3
11.66
10.83
9.86
8.81
7.77
6.8
5.88
4.94
3.92
2.81
1.63
0.46
-0.66
-1.74
-2.88
-4.12
-5.44
-6.71
-7.7
-8.25
-8.25
-7.69
-6.62
-5.11
-3.23
-1.11
1.01
2.84
4.09
4.6
4.43
3.74
2.81
1.85
1.03
0.43
0.1
0.16
0.69
1.7
3.12
4.7
6.17
7.31
8.03
8.36
8.39
8.18
7.71
6.93
5.83
4.5
3.1
1.82
0.71
-0.29
-1.36
-2.67
-4.32
-6.26
-8.33
-10.36
-12.12
-13.42
-14.05
-13.79
-12.53
-10.27
-7.19
-3.63
0.01
3.39
6.31
8.71
10.67
12.28
13.59
14.56
15.11
15.19
14.81
14.1
13.29
12.62
12.25
12.26
12.59
13.07
13.53
13.84
13.93
13.8
13.51
13.1
12.63
12.07
11.38
10.55
9.65
8.78
8.06
7.57
7.31
7.25
7.31
7.43
7.56
7.62
7.53
7.23
6.72
6.1
5.64
5.74
6.83
9.25
13.11
18.17
23.93
29.68
34.79
38.82
41.68
43.59
44.87
45.8
46.57
47.23
47.8
48.24
48.52
48.52
48.07
47.08
45.55
43.78
42.22
41.31
41.23
41.66
41.88
40.94
38.07
32.96
25.92
17.79
9.57
2.06
-4.35
-9.71
-14.31
-18.42
-22.1
-25.27
-27.84
-29.94
-31.95
-34.38
-37.6
-41.69
-46.35
-51.07
-55.31
-58.73
-61.24
-62.85
-63.57
-63.35
-62.11
-59.82
-56.61
-52.78
-48.68
-44.64
-40.82
-37.37
-34.39
-32.05
-30.52
-29.95
-30.27
-31.25
-32.49
-33.48
-33.78
-33.13
-31.49
-29.05
-26.16
-23.21
-20.44
-17.96
-15.74
-13.71
-11.83
-10.13
-8.66
-7.47
-6.48
-5.59
-4.63
-3.52
-2.25
-0.93
0.32
1.39
2.26
3
3.72
4.49
5.28
5.98
6.46
6.56
6.19
5.33
4.01
2.31
0.39
-1.62
-3.46
-4.92
-5.8
-5.95
-5.41
-4.34
-3.1
-2.06
-1.6
-1.93
-3.13
-5.18
-7.94
-11.24
-14.8
-18.24
-21.05
-22.75
-22.97
-21.62
-18.9
-15.2
-11.04
-6.9
-3.17
-0.1
2.21
3.81
4.84
5.51
6.03
6.54
7.11
7.7
8.18
8.42
8.29
7.77
6.9
5.86
4.84
4.06
3.65
3.67
4.11
4.89
5.92
7.02
8
8.73
9.23
9.65
10.28
11.35
12.91
14.76
16.56
17.92
18.62
18.62
18.01
16.98
15.66
14.11
12.32
10.28
7.99
5.48
2.83
0.17
-2.28
-4.24
-5.47
-5.82
-5.32
-4.17
-2.68
-1.12
0.31
1.5
2.38
2.83
2.76
2.14
1.06
-0.24
-1.5
-2.52
-3.29
-3.96
-4.73
-5.67
-6.73
-7.73
-8.54
-9.16
-9.74
-10.52
-11.68
-13.26
-15.12
-17.11
-19.03
-20.71
-22.01
-22.7
-22.55
-21.31
-18.91
-15.46
-11.31
-6.91
-2.7
0.97
3.94
6.19
7.82
8.94
9.71
10.26
10.77
11.39
12.22
13.37
14.86
16.65
18.59
20.46
22.05
23.19
23.82
23.98
23.78
23.31
22.62
21.76
20.82
19.93
19.23
18.71
18.23
17.45
16.05
13.85
10.91
7.49
3.89
0.32
-3.19
-6.71
-10.33
-14
-17.57
-20.81
-23.51
-25.48
-26.53
-26.48
-25.14
-22.45
-18.56
-13.89
-9.02
-4.53
-0.85
1.9
3.79
5.06
5.9
6.46
6.8
6.91
6.86
6.73
6.65
6.72
7.04
7.57
8.27
9.03
9.73
10.3
10.62
10.59
10.12
9.17
7.79
6.14
4.47
2.95
1.65
0.47
-0.8
-2.31
-4.12
-6.09
-8.01
-9.65
-10.94
-11.97
-12.98
-14.21
-15.85
-17.87
-20.02
-21.93
-23.14
-23.32
-22.33
-20.22
-17.15
-13.36
-9.06
-4.46
0.19
4.61
8.51
11.67
13.94
15.28
15.7
15.26
14.15
12.62
11.03
9.78
9.18
9.26
9.81
10.4
10.63
10.24
9.22
7.77
6.2
4.8
3.75
3.14
2.86
2.71
2.39
1.57
0.03
-2.32
-5.36
-8.82
-12.38
-15.79
-18.92
-21.74
-24.32
-26.68
-28.91
-31.06
-33.3
-35.72
-38.31
-40.84
-42.76
-43.41
-42.21
-38.95
-33.9
-27.77
-21.39
-15.47
-10.33
-5.93
-2.08
1.37
4.41
6.86
8.6
9.64
10.21
10.62
11.17
11.95
12.89
13.81
14.57
15.15
15.62
16.07
16.5
16.79
16.71
16.05
14.66
12.6
10.08
7.43
4.97
2.91
1.26
-0.16
-1.55
-3.14
-4.96
-6.93
-8.87
-10.6
-12.14
-13.61
-15.31
-17.53
-20.41
-23.87
-27.58
-31.03
-33.65
-34.91
-34.51
-32.38
-28.72
-23.88
-18.31
-12.46
-6.65
-1.14
3.91
8.35
12.04
14.78
16.42
16.94
16.45
15.23
13.72
12.34
11.38
10.91
10.75
10.62
10.25
9.55
8.62
7.62
6.75
6.1
5.66
5.4
5.29
5.32
5.49
5.75
5.98
5.99
5.62
4.77
3.44
1.71
-0.23
-2.21
-4.07
-5.74
-7.27
-8.73
-10.22
-11.87
-13.78
-15.97
-18.44
-20.98
-23.26
-24.84
-25.31
-24.44
-22.27
-19.1
-15.28
-11.18
-7.09
-3.26
0.07
2.67
4.38
5.18
5.27
4.94
4.54
4.29
4.3
4.56
5.08
5.86
6.9
8.18
9.52
10.68
11.44
11.71
11.5
10.93
10.16
9.33
8.51
7.65
6.68
5.51
4.08
2.38
0.48
-1.53
-3.51
-5.29
-6.76
-7.87
-8.69
-9.42
-10.37
-11.8
-13.8
-16.17
-18.32
-19.52
-19.08
-16.63
-12.32
-6.66
-0.4
5.74
11.24
15.84
19.46
22.11
23.85
24.67
24.65
23.9
22.68
21.33
20.28
19.88
20.29
21.4
22.85
24.21
25.12
25.41
25.15
24.52
23.7
22.75
21.67
20.49
19.23
17.86
16.11
13.5
9.6
4.44
-1.2
-5.82
-7.64
-5.32
1.54
12.2
25.12
38.47
50.63
60.47
67.38
71.22
72.3
71.32
69.4
67.77
67.38
68.56
70.87
73.25
74.53
73.93
71.37
67.46
63.14
59.24
56.08
53.42
50.56
46.59
40.76
32.6
22.09
9.63
-4.03
-18.02
-31.56
-44.15
-55.68
-66.22
-75.86
-84.47
-91.73
-97.27
-100.82
-102.37
-102.19
-100.72
-98.37
-95.5
-92.33
-88.98
-85.57
-82.19
-78.95
-75.99
-73.49
-71.52
-70.1
-69.11
-68.32
-67.47
-66.19
-64.12
-60.89
-56.17
-49.82
-41.98
-33.08
-23.78
-14.78
-6.63
0.44
6.43
11.54
15.95
19.74
22.87
25.23
26.76
27.51
27.65
27.39
26.93
26.41
25.93
25.57
25.38
25.33
25.34
25.25
24.87
24.11
22.97
21.55
19.97
18.3
16.49
14.5
12.31
10
7.71
5.6
3.74
2.11
0.62
-0.82
-2.32
-3.98
-5.93
-8.26
-10.94
-13.8
-16.4
-18.17
-18.54
-17.12
-13.84
-9
-3.14
3.15
9.35
15.13
20.31
24.73
28.25
30.73
32.03
32.18
31.33
29.82
28.05
26.41
25.16
24.4
24.07
23.96
23.86
23.52
22.84
21.75
20.31
18.61
16.74
14.76
12.66
10.41
7.96
5.38
2.84
0.6
-1.09
-2.15
-2.64
-2.8
-2.92
-3.2
-3.71
-4.45
-5.4
-6.59
-8.12
-10.1
-12.45
-14.9
-16.92
-17.88
-17.27
-14.85
-10.76
-5.51
0.22
5.78
10.7
14.79
18.09
20.68
22.67
24.08
24.86
24.98
24.42
23.28
21.75
20.1
18.61
17.46
16.69
16.14
15.6
14.82
13.7
12.22
10.43
8.37
6.04
3.45
0.66
-2.13
-4.71
-6.88
-8.61
-10.04
-11.4
-12.89
-14.59
-16.43
-18.2
-19.76
-21.05
-22.17
-23.33
-24.78
-26.71
-29.11
-31.71
-34.01
-35.31
-34.99
-32.67
-28.33
-22.29
-15.18
-7.63
-0.23
6.57
12.47
17.29
20.95
23.47
24.98
25.63
25.62
25.17
24.44
23.6
22.79
22.1
21.57
21.19
20.89
20.64
20.43
20.24
19.98
19.46
18.47
16.86
14.66
12.06
9.36
6.82
4.55
2.51
0.52
-1.57
-3.87
-6.35
-8.9
-11.35
-13.5
-15.23
-16.49
-17.45
-18.44
-19.87
-22.06
-25.03
-28.4
-31.44
-33.23
-32.98
-30.28
-25.28
-18.54
-10.92
-3.29
3.71
9.73
14.64
18.49
21.34
23.21
24.18
24.34
23.87
23
21.93
20.83
19.85
19.08
18.59
18.45
18.65
19.11
19.67
20.1
20.18
19.74
18.67
16.98
14.77
12.24
9.6
7.04
4.63
2.36
0.16
-2.09
-4.45
-6.98
-9.67
-12.49
-15.35
-18.13
-20.73
-23.07
-25.21
-27.32
-29.61
-32.23
-35.09
-37.86
-39.98
-40.78
-39.65
-36.25
-30.59
-23.07
-14.38
-5.41
2.99
10.2
15.87
19.97
22.66
24.2
24.84
24.72
24
22.82
21.39
19.94
18.67
17.64
16.78
15.98
15.1
14.08
12.96
11.78
10.56
9.28
7.89
6.39
4.84
3.34
2
0.9
-0.05
-0.99
-2.08
-3.44
-5.1
-6.94
-8.81
-10.56
-12.12
-13.63
-15.27
-17.28
-19.74
-22.52
-25.22
-27.27
-28.01
-26.91
-23.71
-18.48
-11.63
-3.79
4.29
11.95
18.72
24.32
28.69
31.83
33.81
34.75
34.81
34.27
33.49
32.82
32.52
32.71
33.28
33.99
34.56
34.77
34.54
33.98
33.29
32.66
32.19
31.74
30.97
29.45
26.81
23.03
18.43
13.59
9.14
5.46
2.56
0.09
-2.47
-5.61
-9.65
-14.63
-20.33
-26.28
-31.81
-36.15
-38.56
-38.53
-36.01
-31.45
-25.7
-19.79
-14.57
-10.51
-7.69
-5.86
-4.74
-4.15
-4.06
-4.57
-5.72
-7.41
-9.36
-11.21
-12.62
-13.43
-13.57
-13.13
-12.28
-11.18
-10.01
-8.89
-7.91
-7.14
-6.64
-6.43
-6.57
-7.15
-8.22
-9.82
-11.82
-14.05
-16.22
-18.17
-19.82
-21.27
-22.68
-24.28
-26.18
-28.36
-30.62
-32.56
-33.7
-33.55
-31.7
-27.97
-22.43
-15.44
-7.52
0.69
8.55
15.51
21.15
25.23
27.76
28.89
28.93
28.28
27.27
26.22
25.33
24.69
24.32
24.15
24.05
23.9
23.57
22.99
22.15
21.11
19.86
18.38
16.6
14.44
11.86
8.89
5.68
2.44
-0.6
-3.27
-5.5
-7.38
-9.11
-10.89
-12.9
-15.27
-18.01
-21.11
-24.47
-27.89
-31.03
-33.42
-34.51
-33.82
-31.19
-26.78
-21.04
-14.56
-7.9
-1.44
4.47
9.61
13.74
16.68
18.33
18.81
18.39
17.47
16.37
15.32
14.4
13.65
13.09
12.74
12.62
12.67
12.78
12.83
12.71
12.3
11.57
10.48
9.05
7.36
5.53
3.76
2.17
0.81
-0.45
-1.83
-3.52
-5.57
-7.83
-10.04
-11.98
-13.56
-14.88
-16.18
-17.63
-19.31
-21.2
-23.17
-25.12
-26.92
-28.37
-29.12
-28.7
-26.67
-22.8
-17.26
-10.63
-3.73
2.65
7.97
12.03
14.91
16.81
17.96
18.51
18.58
18.31
17.9
17.51
17.26
17.21
17.29
17.39
17.44
17.39
17.23
16.95
16.52
15.86
14.85
13.44
11.58
9.35
6.92
4.49
2.25
0.29
-1.39
-2.86
-4.24
-5.59
-6.94
-8.26
-9.54
-10.8
-12.07
-13.39
-14.79
-16.33
-18.08
-20.14
-22.63
-25.48
-28.41
-30.89
-32.25
-31.92
-29.57
-25.27
-19.46
-12.75
-5.8
0.85
6.83
11.93
16
19.01
20.92
21.83
21.88
21.31
20.39
19.35
18.4
17.65
17.12
16.81
16.64
16.55
16.49
16.41
16.23
15.9
15.27
14.25
12.75
10.78
8.49
6.11
3.91
2.11
0.8
-0.1
-0.78
-1.53
-2.62
-4.22
-6.35
-8.81
-11.31
-13.6
-15.49
-16.96
-18.15
-19.31
-20.66
-22.37
-24.49
-26.94
-29.44
-31.58
-32.84
-32.74
-30.99
-27.5
-22.55
-16.57
-10.14
-3.81
1.97
6.86
10.64
13.28
14.86
15.54
15.6
15.3
14.89
14.56
14.41
14.5
14.82
15.28
15.76
16.13
16.34
16.38
16.29
16.12
15.87
15.5
14.89
13.9
12.49
10.7
8.69
6.63
4.64
2.76
0.91
-1.02
-3.11
-5.37
-7.74
-10.08
-12.3
-14.41
-16.44
-18.46
-20.47
-22.44
-24.3
-26.08
-27.85
-29.73
-31.78
-33.85
-35.56
-36.33
-35.51
-32.69
-27.82
-21.31
-13.89
-6.42
0.37
6.03
10.39
13.53
15.62
16.84
17.36
17.4
17.2
17.03
17.11
17.52
18.22
19.04
19.77
20.24
20.4
20.26
19.89
19.3
18.43
17.2
15.54
13.46
11.05
8.46
5.83
3.26
0.81
-1.53
-3.73
-5.78
-7.74
-9.68
-11.66
-13.74
-15.86
-17.91
-19.76
-21.3
-22.5
-23.43
-24.27
-25.24
-26.56
-28.38
-30.64
-33.09
-35.23
-36.46
-36.25
-34.32
-30.66
-25.59
-19.54
-13.04
-6.62
-0.75
4.16
7.85
10.29
11.6
12.03
11.88
11.34
10.55
9.58
8.52
7.57
6.91
6.69
6.95
7.54
8.25
8.84
9.16
9.14
8.75
7.99
6.87
5.44
3.79
2.06
0.38
-1.17
-2.58
-3.89
-5.18
-6.42
-7.55
-8.54
-9.44
-10.43
-11.73
-13.53
-15.8
-18.34
-20.74
-22.48
-23.14
-22.37
-20.07
-16.35
-11.53
-6.07
-0.45
4.89
9.64
13.59
16.57
18.51
19.36
19.2
18.26
16.86
15.4
14.22
13.51
13.33
13.58
14.06
14.53
14.77
14.64
14.13
13.36
12.54
11.84
11.36
11.02
10.64
10
9
7.64
6.13
4.67
3.48
2.6
1.91
1.17
0.08
-1.56
-3.75
-6.18
-8.29
-9.38
-8.88
-6.55
-2.49
2.79
8.68
14.63
20.34
25.68
30.64
35.08
38.67
40.93
41.29
39.27
34.71
27.89
19.47
10.39
1.63
-6.03
-12.13
-16.59
-19.55
-21.24
-21.91
-21.8
-21.17
-20.32
-19.59
-19.25
-19.41
-19.97
-20.7
-21.37
-21.85
-22.17
-22.54
-23.2
-24.3
-25.78
-27.39
-28.69
-29.21
-28.52
-26.4
-22.86
-18.2
-12.84
-7.28
-1.94
2.88
7.02
10.4
12.94
14.59
15.34
15.3
14.68
13.8
12.96
12.42
12.28
12.45
12.81
13.13
13.27
13.11
12.65
11.88
10.78
9.38
7.7
5.86
3.97
2.12
0.34
-1.46
-3.42
-5.7
-8.43
-11.63
-15.14
-18.64
-21.67
-23.71
-24.3
-23.15
-20.24
-15.84
-10.41
-4.55
1.14
6.17
10.22
13.17
15.04
16
16.23
15.85
14.95
13.66
12.19
10.89
10.1
10.08
10.89
12.27
13.86
15.27
16.25
16.73
16.74
16.34
15.59
14.51
13.14
11.53
9.8
8.05
6.33
4.62
2.88
1.08
-0.79
-2.65
-4.44
-6.19
-8.01
-10.09
-12.65
-15.76
-19.33
-23.02
-26.35
-28.71
-29.61
-28.71
-26.02
-21.79
-16.5
-10.72
-4.98
0.33
4.92
8.6
11.23
12.78
13.35
13.16
12.57
11.92
11.45
11.26
11.28
11.49
11.84
12.36
13.08
13.94
14.75
15.29
15.34
14.8
13.72
12.25
10.56
8.76
6.91
5.05
3.19
1.39
-0.29
-1.83
-3.24
-4.57
-5.88
-7.19
-8.48
-9.69
-10.83
-12
-13.38
-15.19
-17.49
-20.13
-22.69
-24.54
-25.1
-23.97
-21.14
-16.9
-11.75
-6.21
-0.72
4.39
8.88
12.54
15.24
16.97
17.84
18.09
18.04
17.95
17.98
18.13
18.31
18.43
18.45
18.35
18.2
18
17.77
17.5
17.14
16.63
15.94
15
13.74
12.18
10.32
8.31
6.31
4.48
2.9
1.5
0.08
-1.57
-3.55
-5.81
-8.22
-10.55
-12.67
-14.58
-16.37
-18.16
-20.06
-22.1
-24.24
-26.31
-28.04
-29.06
-28.96
-27.44
-24.39
-20.01
-14.72
-9.04
-3.48
1.63
6.07
9.76
12.58
14.44
15.28
15.18
14.36
13.21
12.15
11.44
11.22
11.42
11.82
12.21
12.45
12.44
12.1
11.38
10.23
8.65
6.75
4.65
2.52
0.44
-1.51
-3.35
-5.06
-6.7
-8.24
-9.73
-11.17
-12.53
-13.77
-14.84
-15.79
-16.74
-17.87
-19.35
-21.21
-23.34
-25.48
-27.3
-28.46
-28.63
-27.55
-25.08
-21.23
-16.24
-10.58
-4.75
0.76
5.63
9.66
12.73
14.74
15.62
15.38
14.19
12.41
10.48
8.8
7.61
6.96
6.75
6.82
7.02
7.17
7.2
7.02
6.62
6.08
5.46
4.81
4.1
3.25
2.2
0.91
-0.52
-1.97
-3.31
-4.47
-5.47
-6.38
-7.23
-7.99
-8.57
-8.96
-9.23
-9.57
-10.23
-11.31
-12.7
-13.96
-14.52
-13.85
-11.73
-8.25
-3.75
1.33
6.64
11.89
16.91
21.48
25.38
28.46
30.68
32.18
33.25
34.15
35.01
35.8
36.27
36.17
35.31
33.68
31.41
28.78
26.04
23.41
20.93
18.55
16.14
13.64
10.99
8.19
5.26
2.22
-0.91
-4.07
-7.13
-9.89
-12.17
-13.97
-15.45
-16.89
-18.6
-20.73
-23.2
-25.74
-27.98
-29.57
-30.26
-29.84
-28.21
-25.33
-21.32
-16.5
-11.38
-6.54
-2.43
0.78
3.16
4.91
6.17
6.94
7.14
6.7
5.73
4.57
3.63
3.18
3.25
3.58
3.76
3.45
2.52
1.09
-0.56
-2.2
-3.73
-5.2
-6.78
-8.56
-10.56
-12.66
-14.78
-16.86
-18.93
-21.01
-23.13
-25.31
-27.52
-29.76
-32.03
-34.29
-36.43
-38.21
-39.23
-39.06
-37.31
-33.85
-28.81
-22.63
-15.95
-9.44
-3.67
1.06
4.67
7.21
8.75
9.35
9.1
8.2
7
5.99
5.69
6.49
8.49
11.44
14.84
18.07
20.6
22.18
22.83
22.82
22.49
22.08
21.62
20.92
19.68
17.66
14.74
11.01
6.7
2.11
-2.42
-6.63
-10.36
-13.57
-16.33
-18.82
-21.19
-23.55
-25.88
-28.05
-29.86
-31.08
-31.53
-31.04
-29.51
-26.9
-23.3
-18.95
-14.23
-9.58
-5.37
-1.88
0.84
2.87
4.39
5.5
6.3
6.83
7.15
7.39
7.72
8.29
9.14
10.16
11.12
11.78
12.02
11.79
11.21
10.41
9.44
8.32
7.05
5.66
4.33
3.22
2.43
1.92
1.48
0.8
-0.37
-2.1
-4.24
-6.44
-8.23
-9.13
-8.82
-7.21
-4.49
-1.01
2.75
6.39
9.58
12.16
14.04
15.21
15.63
15.33
14.39
12.95
11.24
9.57
8.18
7.24
6.8
6.7
6.7
6.51
5.9
4.8
3.3
1.61
0.02
-1.23
-2.05
-2.53
-2.91
-3.44
-4.34
-5.62
-7.15
-8.63
-9.77
-10.35
-10.27
-9.46
-7.95
-5.76
-3.02
0.01
2.95
5.41
7.06
7.85
7.9
7.48
6.82
6.01
5.06
3.96
2.83
1.89
1.37
1.36
1.75
2.26
2.59
2.55
2.15
1.5
0.76
0.04
-0.59
-1.12
-1.54
-1.85
-2.14
-2.57
-3.35
-4.67
-6.58
-8.88
-11.2
-13.01
-13.86
-13.43
-11.68
-8.81
-5.15
-1.1
3
6.92
10.52
13.72
16.47
18.65
20.19
21
21.06
20.51
19.54
18.4
17.3
16.33
15.47
14.6
13.61
12.42
11.06
9.62
8.22
6.92
5.71
4.44
2.96
1.15
-0.96
-3.19
-5.25
-6.89
-8.02
-8.73
-9.3
-10.04
-11.16
-12.76
-14.74
-16.92
-19.06
-20.91
-22.12
-22.39
-21.49
-19.38
-16.29
-12.64
-8.91
-5.41
-2.29
0.53
3.13
5.59
7.85
9.82
11.47
12.83
14.03
15.16
16.24
17.19
17.94
18.41
18.62
18.64
18.56
18.41
18.21
17.88
17.35
16.53
15.38
13.9
12.18
10.34
8.54
6.87
5.35
3.92
2.43
0.8
-1.01
-2.94
-4.85
-6.55
-7.93
-8.97
-9.81
-10.68
-11.84
-13.45
-15.48
-17.73
-19.81
-21.31
-21.84
-21.14
-19.13
-15.96
-11.95
-7.54
-3.17
0.83
4.28
7.16
9.55
11.46
12.89
13.82
14.27
14.36
14.31
14.26
14.29
14.35
14.34
14.21
13.96
13.7
13.51
13.45
13.48
13.5
13.38
13.01
12.33
11.37
10.25
9.05
7.85
6.65
5.42
4.07
2.54
0.8
-1.16
-3.36
-5.76
-8.28
-10.74
-12.91
-14.59
-15.71
-16.35
-16.76
-17.27
-18.09
-19.29
-20.77
-22.28
-23.5
-24.13
-23.91
-22.7
-20.47
-17.26
-13.28
-8.8
-4.17
0.24
4.11
7.2
9.37
10.68
11.29
11.47
11.43
11.35
11.31
11.34
11.48
11.72
12.08
12.51
12.96
13.34
13.61
13.75
13.77
13.69
13.49
13.15
12.64
11.92
10.98
9.83
8.48
6.95
5.33
3.69
2.19
0.98
0.17
-0.19
-0.19
-0.03
0.03
-0.13
-0.6
-1.25
-1.95
-2.59
-3.15
-3.72
-4.45
-5.41
-6.5
-7.47
-7.94
-7.54
-6.02
-3.32
0.36
4.67
9.16
13.44
17.28
20.67
23.79
26.86
30.02
33.16
35.97
38.02
39.03
38.94
38.07
36.96
36.25
36.54
38.14
40.87
43.87
45.58
44.01
37.35
24.79
6.92
-14.11
-35.28
-53.6
-67
-74.79
-77.51
-76.43
-72.9
-68.05
-62.63
-57.13
-51.92
-47.3
-43.46
-40.35
-37.75
-35.31
-32.76
-30
-27.19
-24.7
-22.91
-22.05
-22.05
-22.58
-23.12
-23.14
-22.29
-20.41
-17.61
-14.19
-10.47
-6.74
-3.15
0.32
3.8
7.33
10.82
14
16.51
18.09
18.65
18.36
17.58
16.73
16.14
15.93
16.01
16.18
16.23
16.07
15.71
15.23
14.74
14.26
13.73
13.08
12.27
11.32
10.35
9.44
8.62
7.84
6.99
5.99
4.77
3.34
1.72
-0.03
-1.83
-3.53
-4.98
-6.07
-6.82
-7.38
-7.98
-8.86
-10.11
-11.68
-13.4
-15.02
-16.35
-17.17
-17.31
-16.62
-14.98
-12.41
-9.05
-5.18
-1.16
2.64
5.96
8.63
10.59
11.87
12.54
12.67
12.38
11.81
11.06
10.25
9.45
8.71
8.08
7.59
7.28
7.13
7.09
7.06
6.9
6.52
5.87
5.03
4.11
3.26
2.57
2.03
1.54
0.98
0.27
-0.61
-1.6
-2.62
-3.63
-4.6
-5.57
-6.57
-7.61
-8.67
-9.73
-10.71
-11.52
-12
-11.93
-11.16
-9.61
-7.34
-4.54
-1.46
1.66
4.6
7.17
9.22
10.59
11.19
11.01
10.16
8.83
7.31
5.82
4.52
3.56
2.96
2.73
2.83
3.14
3.55
3.94
4.21
4.28
4.1
3.6
2.76
1.59
0.15
-1.39
-2.86
-4.12
-5.13
-5.94
-6.7
-7.51
-8.44
-9.51
-10.71
-12
-13.32
-14.55
-15.45
-15.72
-15.05
-13.29
-10.5
-7.01
-3.29
0.15
3
5.14
6.63
7.66
8.34
8.75
8.89
8.71
8.21
7.43
6.48
5.49
4.63
4
3.71
3.77
4.13
4.71
5.34
5.85
6.07
5.89
5.26
4.24
2.97
1.68
0.57
-0.23
-0.81
-1.39
-2.25
-3.61
-5.45
-7.54
-9.48
-10.82
-11.25
-10.65
-9.08
-6.73
-3.87
-0.76
2.26
4.87
6.83
7.98
8.36
8.14
7.55
6.75
5.81
4.73
3.52
2.29
1.21
0.47
0.14
0.13
0.21
0.12
-0.36
-1.26
-2.5
-3.93
-5.38
-6.74
-7.97
-9.06
-10.07
-11.02
-11.98
-12.96
-13.98
-14.99
-15.87
-16.48
-16.61
-16.09
-14.81
-12.8
-10.22
-7.33
-4.44
-1.77
0.51
2.4
3.92
5.1
5.92
6.38
6.52
6.45
6.32
6.22
6.16
6.09
5.86
5.43
4.79
4.04
3.31
2.72
2.33
2.14
2.06
1.97
1.69
1.1
0.13
-1.17
-2.69
-4.29
-5.81
-7.17
-8.28
-8.97
-9.07
-8.36
-6.74
-4.3
-1.34
1.71
4.41
6.48
7.84
8.54
8.75
8.56
8.03
7.15
6.01
4.72
3.51
2.6
2.15
2.13
2.39
2.65
2.69
2.39
1.78
1
0.23
-0.47
-1.11
-1.81
-2.73
-3.95
-5.49
-7.34
-9.34
-11.33
-13
-14.05
-14.17
-13.18
-11.13
-8.23
-4.88
-1.47
1.65
4.28
6.31
7.71
8.43
8.43
7.72
6.42
4.83
3.32
2.22
1.74
1.8
2.12
2.36
2.23
1.66
0.76
-0.27
-1.25
-2.1
-2.86
-3.64
-4.5
-5.48
-6.57
-7.75
-9.01
-10.33
-11.64
-12.79
-13.57
-13.76
-13.15
-11.61
-9.18
-6.01
-2.4
1.28
4.65
7.42
9.42
10.65
11.23
11.31
11.05
10.55
9.84
8.98
8.1
7.32
6.77
6.5
6.5
6.65
6.79
6.74
6.36
5.53
4.25
2.57
0.65
-1.31
-3.17
-4.82
-6.29
-7.63
-8.92
-10.23
-11.58
-12.98
-14.34
-15.5
-16.19
-16.11
-14.98
-12.68
-9.31
-5.17
-0.67
3.76
7.78
11.13
13.7
15.45
16.4
16.63
16.3
15.63
14.9
14.37
14.2
14.44
15
15.63
16.09
16.18
15.82
15.07
14.09
12.99
11.85
10.65
9.33
7.88
6.39
5
3.83
2.95
2.23
1.47
0.44
-1.01
-2.84
-4.87
-6.88
-8.65
-10.07
-11.18
-12.07
-12.9
-13.87
-15.07
-16.61
-18.41
-20.28
-21.89
-22.86
-22.81
-21.54
-19.07
-15.58
-11.46
-7.15
-3.02
0.66
3.75
6.24
8.22
9.78
11
11.92
12.53
12.86
12.96
12.95
12.93
13
13.12
13.27
13.36
13.38
13.36
13.35
13.42
13.59
13.77
13.82
13.64
13.08
12.13
10.86
9.38
7.86
6.45
5.19
4.05
2.94
1.74
0.35
-1.2
-2.9
-4.65
-6.37
-8
-9.53
-10.96
-12.33
-13.68
-15.04
-16.42
-17.71
-18.69
-19.04
-18.43
-16.68
-13.84
-10.23
-6.28
-2.47
0.91
3.75
6.05
7.89
9.3
10.25
10.72
10.77
10.56
10.28
10.11
10.13
10.28
10.48
10.6
10.63
10.58
10.5
10.45
10.39
10.23
9.86
9.21
8.27
7.13
5.92
4.75
3.73
2.86
2.17
1.61
1.14
0.69
0.19
-0.44
-1.27
-2.28
-3.42
-4.58
-5.69
-6.74
-7.83
-9.12
-10.78
-12.88
-15.29
-17.72
-19.68
-20.71
-20.47
-18.88
-16.12
-12.54
-8.55
-4.52
-0.72
2.64
5.46
7.69
9.32
10.38
10.97
11.2
11.21
11.16
11.15
11.24
11.37
11.42
11.26
10.83
10.24
9.59
8.99
8.49
8.01
7.4
6.55
5.35
3.73
1.65
-0.85
-3.6
-6.32
-8.69
-10.5
-11.74
-12.63
-13.48
-14.55
-15.92
-17.47
-19.03
-20.44
-21.68
-22.8
-23.86
-24.95
-26.12
-27.43
-28.9
-30.48
-31.99
-33.08
-33.29
-32.17
-29.45
-25.12
-19.49
-13.11
-6.54
-0.23
5.59
10.91
15.78
20.21
24.08
27.17
29.34
30.62
31.27
31.72
32.42
33.62
35.3
37.14
38.75
39.76
39.96
39.36
38.17
36.63
34.96
33.28
31.61
29.91
28.16
26.33
24.42
22.43
20.32
18.03
15.6
13.15
10.95
9.33
8.46
8.29
8.41
8.25
7.2
4.96
1.57
-2.61
-7.04
-11.2
-14.72
-17.45
-19.4
-20.68
-21.4
-21.73
-21.8
-21.73
-21.53
-21.17
-20.55
-19.62
-18.43
-17.16
-16.07
-15.44
-15.43
-16.05
-17.14
-18.42
-19.53
-20.1
-19.87
-18.76
-16.89
-14.57
-12.2
-10.11
-8.44
-7.15
-6.13
-5.25
-4.53
-4.07
-3.95
-4.18
-4.6
-5.05
-5.33
-5.4
-5.31
-5.17
-5.07
-4.98
-4.83
-4.52
-4.04
-3.49
-3.06
-2.98
-3.41
-4.42
-5.92
-7.76
-9.74
-11.66
-13.3
-14.53
-15.2
-15.16
-14.25
-12.35
-9.4
-5.56
-1.13
3.38
7.43
10.56
12.56
13.49
13.72
13.7
13.88
14.54
15.66
16.94
17.86
17.78
16.2
12.94
8.22
2.61
-3.14
-8.35
-12.58
-15.7
-17.84
-19.22
-20.06
-20.45
-20.46
-20.1
-19.44
-18.54
-17.48
-16.32
-15.11
-13.86
-12.53
-11.09
-9.55
-8.03
-6.64
-5.53
-4.7
-3.97
-2.97
-1.25
1.54
5.52
10.49
16.04
21.65
26.9
31.5
35.34
38.45
40.95
42.93
44.52
45.8
46.84
47.74
48.63
49.56
50.63
51.79
52.98
54.11
55.19
56.36
57.92
60.13
63.08
66.57
70.11
73.07
74.9
75.35
74.55
73.03
71.61
71.24
72.61
75.85
80.16
83.87
84.66
80.14
68.62
49.57
23.91
-6.13
-37.47
-66.67
-90.59
-106.91
-114.67
-114.48
-108.48
-99.64
-90.82
-83.99
-79.75
-77.66
-76.9
-76.92
-77.72
-79.6
-82.66
-86.37
-89.69
-91.51
-91.14
-88.52
-84.11
-78.42
-71.71
-63.95
-54.99
-44.81
-33.63
-21.93
-10.26
0.77
10.58
18.6
24.3
27.42
28.1
26.93
24.75
22.33
20.19
18.51
17.31
16.65
16.71
17.67
19.56
22.05
24.53
26.37
27.19
27.07
26.52
26.16
26.48
27.6
29.35
31.44
33.64
35.83
38
40.1
41.97
43.33
43.76
42.87
40.29
35.87
29.67
22.01
13.44
4.57
-3.96
-11.65
-18.22
-23.66
-28.12
-31.9
-35.31
-38.56
-41.65
-44.35
-46.22
-46.84
-45.96
-43.63
-40.19
-36.09
-31.74
-27.31
-22.74
-17.84
-12.42
-6.48
-0.24
5.93
11.64
16.67
21.03
24.92
28.6
32.23
35.79
39.11
42.03
44.53
46.8
49.16
51.88
54.96
58.07
60.74
62.47
63
62.32
60.5
57.56
53.36
47.76
40.81
33.02
25.25
18.52
13.66
11.02
10.52
11.74
14.19
17.43
21.11
24.87
28.35
31.25
33.41
34.95
36.1
37.16
38.44
40.1
42.24
44.86
47.84
50.87
53.53
55.32
55.87
55.05
53.07
50.45
47.9
46.28
46.39
48.87
53.93
61.03
68.51
73.65
73.15
64.07
45.01
16.9
-16.93
-51.69
-82.74
-106.94
-123.47
-133.54
-139.38
-143.14
-146.17
-148.95
-151.53
-154
-156.55
-159.19
-161.36
-161.87
-159.26
-152.57
-141.9
-128.53
-114.44
-101.5
-90.73
-82.05
-74.56
-67.23
-59.4
-51.1
-42.84
-35.24
-28.71
-23.38
-19.14
-15.76
-13.09
-11
-9.38
-8.09
-7.03
-6.17
-5.63
-5.6
-6.23
-7.55
-9.43
-11.63
-13.83
-15.77
-17.3
-18.46
-19.39
-20.27
-21.27
-22.48
-23.85
-25.25
-26.5
-27.47
-28.11
-28.52
-28.8
-29.03
-29.22
-29.28
-29.05
-28.39
-27.18
-25.39
-23.13
-20.59
-17.97
-15.44
-13
-10.56
-7.94
-5.03
-1.92
1.08
3.55
5.16
5.78
5.51
4.59
3.28
1.87
0.66
-0
0.28
1.85
4.8
8.94
13.8
18.79
23.35
27.08
29.68
30.97
30.85
29.29
26.38
22.39
17.65
12.57
7.56
3.03
-0.61
-2.98
-3.77
-2.76
0.07
4.59
10.5
17.33
24.49
31.34
37.22
41.62
44.22
45.02
44.23
42.24
39.49
36.32
32.92
29.39
25.79
22.23
18.86
15.7
12.66
9.57
6.29
2.88
-0.4
-3.18
-5.27
-6.8
-8.26
-10.24
-13.15
-17.03
-21.62
-26.56
-31.65
-36.92
-42.47
-48.28
-54.05
-59.22
-63.24
-65.74
-66.65
-66.16
-64.48
-61.72
-57.87
-52.85
-46.7
-39.67
-32.08
-24.33
-16.81
-9.79
-3.46
2.12
6.91
10.97
14.45
17.49
20.25
22.8
25.11
27.14
28.85
30.2
31.22
31.96
32.43
32.67
32.67
32.43
31.89
31.06
29.94
28.55
26.83
24.71
22.09
18.96
15.44
11.76
8.21
5.08
2.62
0.95
0.16
0.34
1.47
3.51
6.24
9.36
12.49
15.34
17.74
19.62
21.05
22.03
22.59
22.74
22.54
22.13
21.7
21.41
21.29
21.3
21.29
21.14
20.83
20.42
20
19.6
19.15
18.51
17.53
16.18
14.58
12.95
11.55
10.54
9.99
9.79
9.76
9.7
9.46
9.07
8.68
8.6
9.2
10.74
13.29
16.64
20.37
24.01
27.15
29.59
31.22
32.05
32.03
31.14
29.34
26.75
23.56
20.09
16.62
13.41
10.58
8.2
6.21
4.5
2.98
1.55
0.16
-1.22
-2.6
-4.02
-5.54
-7.2
-9
-10.93
-12.89
-14.83
-16.7
-18.49
-20.21
-21.84
-23.4
-24.89
-26.36
-27.82
-29.31
-30.84
-32.38
-33.89
-35.29
-36.35
-36.76
-36.15
-34.18
-30.71
-25.85
-19.94
-13.4
-6.68
-0.11
6.08
11.71
16.64
20.74
23.89
26.06
27.27
27.55
27.01
25.77
23.99
21.89
19.7
17.57
15.57
13.69
11.83
9.9
7.8
5.52
3.11
0.68
-1.66
-3.77
-5.59
-7.06
-8.24
-9.26
-10.3
-11.5
-12.94
-14.54
-16.1
-17.37
-18.09
-18.11
-17.37
-15.85
-13.6
-10.65
-7.1
-3.11
1.02
4.95
8.36
10.99
12.74
13.64
13.84
13.6
13.17
12.81
12.68
12.85
13.16
13.38
13.23
12.5
11.2
9.54
7.84
6.4
5.37
4.68
4.09
3.38
2.44
1.34
0.25
-0.61
-1.14
-1.32
-1.28
-1.24
-1.46
-2.14
-3.41
-5.27
-7.53
-9.79
-11.44
-11.81
-10.39
-6.99
-1.92
4.17
10.39
15.86
19.92
22.21
22.65
21.44
18.84
15.22
10.96
6.45
2.03
-2
-5.41
-8.04
-9.8
-10.65
-10.67
-10
-8.77
-7.12
-5.24
-3.32
-1.58
-0.24
0.56
0.78
0.53
-0.01
-0.59
-1.01
-1.2
-1.25
-1.32
-1.63
-2.37
-3.58
-5.17
-6.93
-8.51
-9.58
-9.79
-8.95
-6.95
-3.88
0.02
4.36
8.72
12.7
15.99
18.45
20.05
20.9
21.1
20.8
20.09
19.05
17.78
16.41
15.08
13.88
12.83
11.9
11
10.01
8.85
7.47
5.8
3.88
1.79
-0.37
-2.46
-4.42
-6.25
-7.98
-9.68
-11.39
-13.12
-14.86
-16.63
-18.43
-20.2
-21.79
-22.94
-23.37
-22.89
-21.48
-19.3
-16.6
-13.63
-10.54
-7.45
-4.42
-1.61
0.76
2.48
3.42
3.67
3.49
3.16
2.91
2.85
2.97
3.24
3.69
4.4
5.41
6.65
7.95
9.04
9.73
9.99
9.9
9.67
9.48
9.45
9.6
9.88
10.14
10.26
10.07
9.42
8.19
6.33
3.88
1.08
-1.77
-4.21
-5.85
-6.49
-6.15
-5.12
-3.78
-2.43
-1.25
-0.24
0.73
1.7
2.61
3.33
3.74
3.82
3.64
3.36
3.1
2.96
2.98
3.08
3.22
3.29
3.24
3.03
2.73
2.43
2.24
2.18
2.12
1.92
1.42
0.55
-0.6
-1.88
-3.17
-4.41
-5.65
-6.89
-8.07
-8.97
-9.26
-8.66
-7.04
-4.56
-1.56
1.47
4.1
6.02
7.14
7.53
7.37
6.85
6.08
5.18
4.26
3.4
2.74
2.34
2.24
2.32
2.4
2.26
1.77
0.96
-0.01
-0.89
-1.52
-1.89
-2.19
-2.67
-3.55
-4.84
-6.39
-7.97
-9.29
-10.16
-10.42
-9.88
-8.4
-5.92
-2.51
1.57
5.92
10.14
13.92
17.12
19.73
21.83
23.48
24.69
25.4
25.56
25.11
24.11
22.65
20.88
18.9
16.77
14.43
11.83
8.95
5.85
2.66
-0.5
-3.62
-6.78
-10.11
-13.66
-17.35
-20.94
-24.16
-26.81
-28.76
-30.01
-30.49
-30.04
-28.41
-25.33
-20.75
-14.87
-8.14
-1.14
5.58
11.68
17.05
21.66
25.55
28.71
31.12
32.75
33.66
33.96
33.77
33.17
32.16
30.75
28.97
26.91
24.7
22.45
20.26
18.19
16.28
14.53
12.88
11.24
9.42
7.32
4.91
2.27
-0.46
-3.12
-5.71
-8.33
-11.08
-14.05
-17.11
-20.04
-22.55
-24.38
-25.34
-25.32
-24.34
-22.45
-19.8
-16.59
-13.04
-9.35
-5.66
-2.03
1.5
4.9
8.05
10.84
13.1
14.75
15.73
16.11
15.97
15.41
14.54
13.37
11.87
9.92
7.44
4.4
0.91
-2.8
-6.44
-9.71
-12.42
-14.48
-15.96
-16.95
-17.58
-17.83
-17.55
-16.47
-14.34
-10.99
-6.41
-0.78
5.63
12.52
19.56
26.43
32.8
38.37
42.96
46.47
48.91
50.23
50.26
48.69
45.22
39.7
32.36
23.77
14.74
6.05
-1.69
-8.16
-13.27
-17.13
-19.92
-21.88
-23.36
-24.76
-26.44
-28.64
-31.35
-34.39
-37.41
-40.09
-42.19
-43.66
-44.57
-45.08
-45.35
-45.44
-45.28
-44.66
-43.31
-40.96
-37.46
-32.71
-26.69
-19.41
-10.95
-1.48
8.58
18.66
28.05
36.09
42.3
46.47
48.57
48.74
47.23
44.29
40.23
35.33
29.8
23.83
17.57
11.17
4.82
-1.37
-7.4
-13.45
-19.73
-26.36
-33.11
-39.45
-44.67
-48.16
-49.64
-49.34
-47.83
-45.79
-43.78
-42.06
-40.7
-39.57
-38.54
-37.5
-36.33
-34.95
-33.24
-31.13
-28.48
-25.22
-21.34
-16.84
-11.79
-6.25
-0.34
5.81
12.02
18.12
23.96
29.39
34.26
38.45
41.76
43.97
44.89
44.37
42.45
39.3
35.19
30.37
25.05
19.38
13.53
7.8
2.54
-1.87
-5.19
-7.41
-8.77
-9.62
-10.36
-11.27
-12.44
-13.86
-15.43
-16.91
-18.05
-18.52
-18
-16.31
-13.47
-9.71
-5.48
-1.22
2.71
6.11
8.95
11.32
13.32
15.09
16.76
18.49
20.4
22.54
24.86
27.21
29.44
31.44
33.25
35.06
37.15
39.76
42.96
46.47
49.64
51.54
51.1
47.47
40.31
30
17.61
4.63
-7.39
-17.3
-24.54
-29.18
-31.75
-32.95
-33.36
-33.41
-33.34
-33.3
-33.46
-33.99
-35.14
-37.1
-40.06
-44.09
-49.15
-55
-61.31
-67.61
-73.39
-78.13
-81.26
-82.2
-80.35
-75.17
-66.36
-53.97
-38.47
-20.7
-1.71
17.4
35.61
51.97
65.71
76.2
83.16
86.67
87.14
85.26
81.72
77.13
71.92
66.4
60.74
55.05
49.27
43.26
36.86
29.96
22.66
15.27
8.2
1.76
-3.89
-8.75
-12.9
-16.37
-19.13
-21.23
-22.86
-24.5
-26.78
-30.26
-35.19
-41.39
-48.17
-54.65
-59.95
-63.4
-64.72
-63.9
-61.19
-56.93
-51.55
-45.49
-39.19
-33.04
-27.29
-22.07
-17.3
-12.81
-8.41
-3.94
0.73
5.67
10.96
16.72
23.05
30.01
37.58
45.56
53.57
61.11
67.64
72.72
76.13
77.82
77.86
76.36
73.33
68.8
62.77
55.31
46.55
36.67
25.82
14.2
2.11
-10.02
-21.63
-32.17
-41.23
-48.61
-54.33
-58.52
-61.28
-62.64
-62.54
-60.99
-58.08
-54.07
-49.35
-44.27
-39.15
-34.18
-29.49
-25.18
-21.35
-18.13
-15.6
-13.78
-12.52
-11.6
-10.68
-9.46
-7.72
-5.35
-2.4
0.99
4.65
8.48
12.43
16.54
20.8
25.08
29.15
32.69
35.36
36.87
37.06
35.85
33.31
29.71
25.5
21.21
17.34
14.13
11.57
9.49
7.7
6.14
4.99
4.47
4.73
5.72
7.2
8.89
10.63
12.37
14.15
16.01
17.81
19.35
20.33
20.55
19.91
18.51
16.6
14.58
12.87
11.89
11.95
13.18
15.56
18.97
23.15
27.75
32.26
35.94
37.93
37.42
33.85
27.17
17.8
6.48
-5.94
-18.75
-31.52
-43.97
-55.84
-66.82
-76.38
-83.9
-88.87
-90.95
-90.07
-86.4
-80.3
-72.13
-62.29
-51.17
-39.21
-26.84
-14.52
-2.54
8.94
19.86
30.21
39.89
48.81
56.87
64.09
70.66
76.86
82.97
89.1
95.25
101.13
106.19
109.51
109.85
105.89
96.59
81.66
61.87
39.01
15.35
-7.05
-26.89
-43.87
-58.27
-70.55
-80.88
-89.07
-94.85
-98.19
-99.49
-99.34
-98.17
-95.97
-92.27
-86.62
-79.01
-70.1
-61.1
-53.23
-47.23
-43.09
-40.16
-37.56
-34.66
-31.32
-27.82
-24.66
-22.2
-20.57
-19.55
-18.78
-17.89
-16.64
-14.99
-13.08
-11.13
-9.31
-7.71
-6.3
-5.07
-4.04
-3.37
-3.27
-3.92
-5.37
-7.44
-9.8
-12.04
-13.8
-14.85
-15.11
-14.58
-13.28
-11.25
-8.5
-5.13
-1.33
2.61
6.3
9.36
11.47
12.46
12.37
11.35
9.71
7.83
6.07
4.75
3.99
3.76
3.88
4.12
4.31
4.35
4.25
4.03
3.7
3.25
2.65
1.85
0.86
-0.32
-1.74
-3.43
-5.4
-7.48
-9.37
-10.59
-10.7
-9.44
-6.81
-3.1
1.25
5.76
10.05
13.88
17.1
19.55
21.04
21.44
20.78
19.28
17.36
15.45
13.9
12.81
12.07
11.43
10.68
9.7
8.55
7.3
6.03
4.77
3.51
2.21
0.9
-0.34
-1.44
-2.41
-3.38
-4.54
-6.08
-8.01
-10.18
-12.2
-13.63
-14.14
-13.58
-12.03
-9.71
-6.88
-3.74
-0.44
2.88
6.07
8.95
11.35
13.18
14.43
15.2
15.62
15.85
15.98
16.1
16.27
16.53
16.96
17.57
18.36
19.25
20.1
20.79
21.23
21.42
21.42
21.31
21.09
20.7
20
18.91
17.44
15.69
13.84
12.09
10.58
9.36
8.39
7.6
6.86
6.02
5
3.72
2.27
0.87
-0.2
-0.64
-0.21
1.2
3.58
6.76
10.46
14.28
17.79
20.62
22.52
23.42
23.39
22.59
21.24
19.55
17.73
15.97
14.43
13.19
12.23
11.43
10.69
9.94
9.22
8.63
8.26
8.21
8.51
9.11
9.94
10.91
11.95
12.97
13.92
14.82
15.72
16.76
18.05
19.66
21.58
23.71
25.93
28.14
30.23
32.1
33.65
34.77
35.25
34.86
33.32
30.32
25.58
18.86
10.03
-0.72
-12.85
-25.44
-37.37
-47.57
-55.3
-60.4
-63.26
-64.62
-65.16
-65.32
-65.14
-64.41
-62.87
-60.42
-57.17
-53.33
-49.11
-44.65
-39.99
-35.18
-30.31
-25.51
-20.97
-16.78
-12.96
-9.44
-6.15
-3.09
-0.3
2.09
4
5.45
6.58
7.63
8.79
10.19
11.75
13.34
14.77
15.97
16.93
17.75
18.49
19.2
19.87
20.49
21.06
21.51
21.74
21.61
20.97
19.74
17.97
15.79
13.32
10.68
7.84
4.74
1.43
-1.93
-4.96
-7.21
-8.33
-8.11
-6.64
-4.26
-1.43
1.39
3.89
5.92
7.53
8.82
9.87
10.71
11.28
11.48
11.27
10.64
9.69
8.55
7.37
6.28
5.42
4.89
4.72
4.88
5.29
5.8
6.31
6.71
6.95
6.99
6.77
6.25
5.44
4.37
3.17
1.95
0.79
-0.31
-1.39
-2.53
-3.72
-4.92
-6.03
-7
-7.78
-8.37
-8.82
-9.19
-9.51
-9.84
-10.22
-10.7
-11.39
-12.34
-13.53
-14.87
-16.17
-17.16
-17.62
-17.33
-16.17
-14.1
-11.19
-7.58
-3.55
0.59
4.5
7.97
10.89
13.22
14.99
16.18
16.77
16.8
16.4
15.79
15.16
14.65
14.23
13.8
13.25
12.52
11.65
10.75
9.92
9.21
8.66
8.25
7.92
7.63
7.3
6.89
6.42
5.89
5.31
4.66
3.89
2.97
1.88
0.69
-0.5
-1.61
-2.63
-3.57
-4.52
-5.5
-6.49
-7.39
-8.18
-8.86
-9.51
-10.24
-11.14
-12.22
-13.41
-14.6
-15.59
-16.2
-16.23
-15.51
-13.97
-11.66
-8.75
-5.55
-2.36
0.59
3.18
5.4
7.27
8.81
10.03
10.88
11.33
11.39
11.16
10.74
10.27
9.79
9.25
8.52
7.42
5.87
3.9
1.76
-0.25
-1.87
-2.95
-3.53
-3.76
-3.81
-3.77
-3.63
-3.28
-2.64
-1.66
-0.37
1.1
2.54
3.75
4.57
4.89
4.71
4.05
2.99
1.6
-0.08
-1.97
-4
-6.06
-8.03
-9.77
-11.18
-12.22
-12.89
-13.3
-13.59
-13.95
-14.57
-15.5
-16.62
-17.65
-18.27
-18.19
-17.37
-15.91
-14.1
-12.21
-10.41
-8.79
-7.33
-6.05
-4.98
-4.22
-3.75
-3.48
-3.21
-2.76
-2.04
-1.07
0.04
1.19
2.32
3.49
4.76
6.13
7.49
8.7
9.59
10.07
10.15
9.92
9.47
8.86
8.19
7.5
6.92
6.5
6.24
6.06
5.8
5.29
4.47
3.37
2.12
0.87
-0.31
-1.45
-2.65
-4.02
-5.62
-7.38
-9.17
-10.76
-11.98
-12.72
-12.91
-12.54
-11.62
-10.16
-8.2
-5.84
-3.18
-0.37
2.46
5.21
7.77
10
11.77
13.03
13.85
14.43
15.03
15.84
16.87
18.01
19
19.67
19.99
20.07
20.07
20.09
20.11
20.04
19.78
19.28
18.61
17.93
17.34
16.87
16.47
15.98
15.29
14.39
13.36
12.35
11.49
10.85
10.37
9.94
9.4
8.61
7.48
6
4.21
2.23
0.22
-1.64
-3.24
-4.6
-5.88
-7.33
-9.16
-11.51
-14.31
-17.31
-20.11
-22.26
-23.39
-23.36
-22.27
-20.45
-18.28
-16.12
-14.19
-12.51
-11.04
-9.74
-8.61
-7.7
-7.12
-6.96
-7.24
-7.96
-9.06
-10.37
-11.71
-12.88
-13.71
-14.11
-14.06
-13.59
-12.75
-11.61
-10.25
-8.81
-7.43
-6.21
-5.19
-4.34
-3.63
-3.02
-2.53
-2.21
-2.05
-2.01
-2.08
-2.26
-2.63
-3.29
-4.27
-5.48
-6.69
-7.66
-8.25
-8.53
-8.75
-9.23
-10.2
-11.66
-13.4
-15.05
-16.2
-16.56
-15.98
-14.49
-12.22
-9.37
-6.13
-2.68
0.87
4.41
7.79
10.93
13.71
16.02
17.85
19.21
20.22
20.98
21.61
22.15
22.61
22.93
23.06
23
22.83
22.63
22.53
22.55
22.6
22.52
22.1
21.23
19.87
18.21
16.38
14.5
12.55
10.42
7.97
5.08
1.69
-2.16
-6.4
-10.91
-15.54
-20.16
-24.66
-28.99
-33.17
-37.23
-41.22
-45.1
-48.75
-51.99
-54.6
-56.41
-57.29
-57.2
-56.12
-54.14
-51.37
-47.96
-44.13
-40.13
-36.28
-32.84
-30.04
-28
-26.82
-26.53
-27.16
-28.65
-30.73
-32.95
-34.79
-35.82
-35.95
-35.41
-34.54
-33.54
-32.22
-30
-26.18
-20.3
-12.34
-2.85
7.31
17.25
26.21
33.76
39.72
44.14
47.23
49.31
50.7
51.65
52.28
52.42
51.62
49.2
44.43
36.9
26.78
15.14
3.79
-5.02
-9.36
-8.24
-2.01
7.73
18.71
28.84
36.77
42.11
45.21
46.61
46.7
45.58
43.21
39.77
35.71
31.67
28.22
25.54
23.47
21.61
19.72
17.88
16.46
15.97
16.73
18.67
21.35
24.15
26.53
28.25
29.37
30.22
31.13
32.28
33.68
35.15
36.5
37.43
37.59
36.47
33.49
28.17
20.36
10.39
-1.03
-12.99
-24.69
-35.61
-45.38
-53.73
-60.38
-64.95
-67.18
-66.99
-64.65
-60.67
-55.68
-50.29
-45
-40.11
-35.72
-31.84
-28.41
-25.45
-23.01
-21.14
-19.83
-18.91
-18.11
-17.15
-15.88
-14.32
-12.71
-11.25
-10.09
-9.21
-8.46
-7.69
-6.85
-6.03
-5.45
-5.35
-5.87
-7.05
-8.73
-10.66
-12.6
-14.34
-15.83
-17.19
-18.59
-20.22
-22.14
-24.23
-26.14
-27.44
-27.69
-26.52
-23.82
-19.71
-14.52
-8.73
-2.88
2.6
7.4
11.47
14.91
17.95
20.77
23.43
25.81
27.7
28.94
29.46
29.43
29.09
28.68
28.34
28.13
28.02
28
28.09
28.3
28.54
28.67
28.51
27.93
26.95
25.72
24.44
23.28
22.21
20.98
19.24
16.6
12.87
8.05
2.36
-3.8
-9.94
-15.55
-20.12
-23.23
-24.64
-24.34
-22.64
-20.05
-17.11
-14.25
-11.73
-9.6
-7.81
-6.33
-5.09
-4.08
-3.24
-2.54
-1.96
-1.5
-1.12
-0.74
-0.31
0.22
0.8
1.3
1.6
1.65
1.47
1.22
1.08
1.16
1.49
2
2.5
2.78
2.62
1.87
0.53
-1.24
-3.14
-4.91
-6.42
-7.78
-9.2
-10.92
-13.03
-15.47
-18.05
-20.5
-22.52
-23.75
-23.84
-22.46
-19.46
-14.96
-9.42
-3.5
2.11
6.97
10.92
14.07
16.62
18.7
20.36
21.53
22.17
22.29
21.99
21.43
20.72
19.97
19.22
18.5
17.85
17.26
16.75
16.33
16
15.73
15.4
14.89
14.02
12.71
11
9.03
7
5.07
3.27
1.54
-0.22
-2.06
-3.94
-5.77
-7.46
-8.99
-10.43
-11.89
-13.49
-15.3
-17.33
-19.55
-21.88
-24.25
-26.48
-28.31
-29.38
-29.28
-27.63
-24.27
-19.34
-13.31
-6.9
-0.8
4.52
8.85
12.22
14.78
16.61
17.7
18.04
17.72
17
16.24
15.83
15.94
16.53
17.33
18.07
18.53
18.67
18.59
18.42
18.26
18.04
17.59
16.68
15.21
13.28
11.09
8.9
6.82
4.84
2.87
0.8
-1.37
-3.58
-5.72
-7.74
-9.59
-11.22
-12.49
-13.21
-13.24
-12.63
-11.67
-10.87
-10.81
-11.9
-14.18
-17.28
-20.53
-23.09
-24.29
-23.7
-21.27
-17.19
-11.84
-5.62
1.05
7.76
14.03
19.43
23.6
26.4
27.93
28.54
28.66
28.68
28.83
29.17
29.62
30.01
30.05
29.49
28.1
25.79
22.66
19.02
15.29
11.79
8.68
5.85
3.04
-0.02
-3.43
-7.19
-11.16
-15.2
-19.23
-23.2
-27.04
-30.58
-33.55
-35.65
-36.65
-36.49
-35.32
-33.46
-31.39
-29.61
-28.54
-28.41
-29.17
-30.55
-32.08
-33.23
-33.45
-32.33
-29.54
-25.02
-18.9
-11.59
-3.68
4.12
11.15
16.91
21.17
23.96
25.42
25.78
25.3
24.19
22.66
20.93
19.2
17.66
16.47
15.72
15.42
15.58
16.14
17.04
18.25
19.67
21.17
22.59
23.75
24.48
24.7
24.41
23.72
22.76
21.65
20.39
18.93
17.15
14.94
12.32
9.43
6.54
3.94
1.79
0.04
-1.51
-3.18
-5.26
-7.91
-11.09
-14.52
-17.76
-20.24
-21.41
-20.83
-18.32
-14.03
-8.37
-1.95
4.59
10.68
15.82
19.64
21.92
22.6
21.86
20.01
17.48
14.64
11.81
9.13
6.66
4.41
2.31
0.36
-1.41
-2.93
-4.05
-4.61
-4.52
-3.84
-2.84
-1.88
-1.31
-1.34
-1.94
-2.99
-4.25
-5.6
-7.03
-8.63
-10.52
-12.72
-15.14
-17.61
-19.92
-21.97
-23.77
-25.45
-27.23
-29.3
-31.72
-34.43
-37.19
-39.61
-41.18
-41.4
-39.78
-36.07
-30.31
-22.9
-14.48
-5.82
2.42
9.81
16.18
21.47
25.61
28.46
29.84
29.7
28.24
25.91
23.34
21.08
19.46
18.51
18.1
17.95
17.87
17.7
17.36
16.77
15.89
14.68
13.12
11.2
8.93
6.39
3.73
1.17
-1.1
-2.97
-4.51
-5.92
-7.45
-9.25
-11.35
-13.59
-15.78
-17.76
-19.54
-21.26
-23.15
-25.49
-28.48
-32.15
-36.24
-40.19
-43.16
-44.33
-43.07
-39.21
-33.12
-25.51
-17.29
-9.2
-1.78
4.73
10.16
14.44
17.5
19.32
19.94
19.55
18.39
16.76
14.99
13.43
12.43
12.26
13.09
14.84
17.28
20.03
22.75
25.14
26.98
28.15
28.52
28.03
26.62
24.34
21.4
18.12
14.92
12.18
10.1
8.61
7.36
5.84
3.66
0.74
-2.58
-5.55
-7.3
-7.13
-4.84
-0.71
4.6
10.34
15.97
21.26
26.21
30.93
35.41
39.52
43.04
45.83
47.85
49.14
49.72
49.56
48.6
46.76
44.03
40.54
36.47
31.99
27.18
22.05
16.68
11.29
6.3
2.16
-0.95
-3.39
-6.01
-9.84
-15.52
-22.81
-30.53
-36.98
-40.56
-40.39
-36.62
-30.22
-22.71
-15.74
-10.9
-9.47
-12.31
-19.43
-29.89
-41.84
-53.03
-61.42
-65.79
-65.99
-62.75
-57.32
-50.9
-44.44
-38.57
-33.64
-29.81
-27.06
-25.21
-23.91
-22.8
-21.54
-19.99
-18.17
-16.16
-14.06
-11.93
-9.76
-7.57
-5.42
-3.38
-1.53
0.1
1.46
2.53
3.2
3.37
3.02
2.19
1.09
-0.08
-1.18
-2.22
-3.33
-4.77
-6.72
-9.26
-12.33
-15.68
-18.91
-21.55
-23.05
-22.96
-21
-17.18
-11.79
-5.39
1.36
7.87
13.71
18.69
22.79
26.08
28.59
30.3
31.17
31.21
30.49
29.21
27.64
26
24.43
22.99
21.67
20.44
19.31
18.22
17.11
15.82
14.18
12.04
9.39
6.38
3.19
-0.08
-3.44
-7.03
-10.96
-15.22
-19.63
-23.83
-27.41
-30.07
-31.66
-32.17
-31.74
-30.58
-28.91
-26.97
-24.93
-22.81
-20.48
-17.65
-13.99
-9.23
-3.34
3.5
10.83
18.12
24.81
30.54
35.17
38.81
41.65
43.9
45.6
46.66
46.93
46.32
44.88
42.84
40.5
38.1
35.77
33.48
31.15
28.81
26.54
24.46
22.68
21.14
19.67
18.04
16.05
13.62
10.86
7.99
5.17
2.46
-0.24
-3.13
-6.33
-9.84
-13.54
-17.19
-20.57
-23.53
-26.04
-28.22
-30.22
-32.23
-34.44
-37.01
-39.99
-43.25
-46.35
-48.62
-49.33
-47.91
-44.16
-38.38
-31.26
-23.66
-16.36
-9.85
-4.24
0.55
4.7
8.3
11.35
13.78
15.6
16.94
18
18.97
19.98
20.98
21.85
22.47
22.83
23.03
23.23
23.59
24.19
25.05
26.16
27.53
29.17
31.06
33.02
34.72
35.7
35.48
33.8
30.73
26.68
22.24
17.97
14.21
10.93
7.86
4.71
1.23
-2.57
-6.51
-10.38
-14.09
-17.74
-21.52
-25.68
-30.32
-35.33
-40.32
-44.66
-47.63
-48.62
-47.28
-43.59
-37.96
-30.99
-23.43
-15.88
-8.78
-2.28
3.61
8.94
13.74
17.94
21.47
24.22
26.16
27.39
28.06
28.39
28.57
28.78
29.12
29.7
30.55
31.64
32.85
33.97
34.8
35.13
34.77
33.55
31.24
27.62
22.51
15.91
8.06
-0.58
-9.44
-18.03
-26.05
-33.37
-39.99
-45.96
-51.23
-55.69
-59.24
-61.78
-63.36
-64.07
-64.08
-63.57
-62.73
-61.68
-60.46
-59
-57.05
-54.22
-50.08
-44.31
-36.81
-27.8
-17.8
-7.46
2.54
11.67
19.67
26.49
32.29
37.31
41.75
45.67
48.97
51.39
52.67
52.66
51.39
49.09
46.08
42.61
38.85
34.88
30.69
26.42
22.24
18.4
15.07
12.19
9.49
6.53
2.98
-1.29
-6.13
-11.12
-15.79
-19.72
-22.75
-24.87
-26.23
-27.01
-27.43
-27.67
-27.95
-28.4
-29.04
-29.81
-30.57
-31.18
-31.58
-31.92
-32.42
-33.35
-34.9
-36.98
-39.28
-41.21
-42.04
-41.03
-37.73
-32.07
-24.43
-15.55
-6.32
2.46
10.24
16.8
22.16
26.44
29.76
32.2
33.77
34.46
34.31
33.38
31.77
29.68
27.39
25.27
23.62
22.65
22.38
22.56
22.84
22.78
22.05
20.5
18.14
15.12
11.63
7.9
4.13
0.45
-2.99
-6.11
-8.88
-11.28
-13.35
-15.21
-17
-18.84
-20.75
-22.62
-24.27
-25.55
-26.43
-27.01
-27.55
-28.28
-29.33
-30.64
-32.04
-33.3
-34.17
-34.36
-33.58
-31.56
-28.15
-23.42
-17.64
-11.24
-4.7
1.59
7.45
12.78
17.53
21.59
24.8
26.95
28
28.03
27.3
26.14
24.85
23.58
22.39
21.26
20.18
19.19
18.33
17.61
16.94
16.18
15.17
13.84
12.19
10.32
8.41
6.62
5.01
3.55
2.08
0.43
-1.54
-3.82
-6.26
-8.54
-10.45
-11.95
-13.31
-14.98
-17.46
-20.97
-25.35
-30.02
-34.12
-36.75
-37.23
-35.26
-30.96
-24.83
-17.6
-10.05
-2.92
3.33
8.41
12.33
15.23
17.34
18.84
19.91
20.67
21.21
21.66
22.11
22.64
23.25
23.84
24.32
24.57
24.51
24.17
23.55
22.69
21.58
20.24
18.69
16.96
15.06
13.02
10.81
8.45
5.98
3.46
0.94
-1.58
-4.14
-6.77
-9.44
-12.05
-14.51
-16.76
-18.87
-20.94
-22.96
-24.75
-25.9
-25.89
-24.31
-21.05
-16.34
-10.73
-4.9
0.56
5.28
9.15
12.26
14.77
16.79
18.28
19.14
19.26
18.65
17.47
15.97
14.39
12.88
11.5
10.26
9.17
8.32
7.75
7.41
7.12
6.61
5.6
4.01
1.91
-0.46
-2.87
-5.16
-7.37
-9.63
-12.08
-14.78
-17.68
-20.63
-23.53
-26.3
-28.94
-31.54
-34.18
-36.98
-40.01
-43.2
-46.33
-48.91
-50.33
-49.96
-47.4
-42.62
-36.04
-28.33
-20.25
-12.45
-5.28
1.14
6.88
12.06
16.79
21.11
25.02
28.44
31.29
33.46
34.8
35.23
34.71
33.34
31.36
29.1
26.91
25.04
23.57
22.41
21.37
20.31
19.12
17.8
16.35
14.71
12.78
10.44
7.64
4.48
1.16
-2.08
-5.04
-7.63
-9.87
-11.84
-13.58
-15.09
-16.34
-17.4
-18.42
-19.59
-21.04
-22.69
-24.13
-24.75
-23.97
-21.42
-17.15
-11.53
-5.14
1.5
8.05
14.3
20.12
25.35
29.8
33.31
35.8
37.3
37.94
37.9
37.37
36.55
35.62
34.72
33.88
33.11
32.35
31.56
30.7
29.72
28.53
26.98
24.93
22.3
19.19
15.85
12.59
9.65
7.12
4.88
2.74
0.55
-1.77
-4.14
-6.47
-8.72
-10.96
-13.32
-15.88
-18.62
-21.44
-24.21
-26.91
-29.66
-32.57
-35.57
-38.26
-40
-40.11
-38.13
-34.05
-28.28
-21.46
-14.27
-7.26
-0.74
5.12
10.26
14.58
18.01
20.45
21.93
22.51
22.39
21.77
20.86
19.85
18.86
17.97
17.23
16.68
16.31
16.09
15.93
15.77
15.62
15.47
15.3
15.07
14.64
13.88
12.73
11.2
9.36
7.25
4.83
1.98
-1.36
-5.15
-9.22
-13.27
-17.04
-20.4
-23.32
-25.87
-28.21
-30.43
-32.61
-34.81
-37.02
-39.16
-41.03
-42.28
-42.49
-41.29
-38.45
-34.03
-28.42
-22.14
-15.76
-9.7
-4.19
0.72
5.07
8.84
11.95
14.28
15.76
16.43
16.47
16.12
15.62
15.14
14.75
14.41
14.01
13.47
12.76
11.96
11.18
10.5
9.96
9.46
8.9
8.17
7.27
6.29
5.36
4.59
3.91
3.18
2.15
0.68
-1.28
-3.61
-6.07
-8.43
-10.52
-12.23
-13.6
-14.7
-15.69
-16.72
-17.95
-19.45
-21.14
-22.74
-23.87
-24.1
-23.1
-20.76
-17.22
-12.76
-7.8
-2.72
2.18
6.65
10.51
13.63
15.9
17.27
17.79
17.61
16.99
16.25
15.63
15.3
15.27
15.47
15.79
16.17
16.61
17.09
17.53
17.81
17.74
17.2
16.21
14.9
13.48
12.15
10.98
9.95
8.96
7.86
6.52
4.9
3.03
1.05
-0.87
-2.55
-3.87
-4.86
-5.71
-6.67
-8.04
-9.98
-12.45
-15.24
-17.97
-20.15
-21.34
-21.28
-19.93
-17.58
-14.69
-11.75
-9.16
-7.09
-5.46
-4.03
-2.6
-1.05
0.53
1.95
3.05
3.81
4.42
5.15
6.29
7.99
10.16
12.52
14.68
16.33
17.27
17.51
17.22
16.62
15.89
15.11
14.24
13.17
11.79
10.01
7.86
5.4
2.68
-0.24
-3.28
-6.3
-9.13
-11.61
-13.71
-15.56
-17.47
-19.79
-22.65
-25.87
-28.96
-31.3
-32.32
-31.67
-29.34
-25.55
-20.66
-15.09
-9.22
-3.38
2.16
7.24
11.73
15.58
18.74
21.22
23.01
24.12
24.57
24.44
23.79
22.74
21.38
19.86
18.28
16.72
15.16
13.52
11.68
9.54
7.04
4.18
1.02
-2.32
-5.64
-8.68
-11.14
-12.77
-13.44
-13.19
-12.27
-10.97
-9.63
-8.47
-7.62
-7.12
-7.01
-7.32
-8.09
-9.28
-10.77
-12.34
-13.71
-14.53
-14.46
-13.22
-10.67
-6.88
-2.08
3.35
9.06
14.78
20.34
25.61
30.37
34.35
37.2
38.67
38.72
37.63
35.88
34.07
32.69
31.96
31.84
32.01
32.03
31.49
30.19
28.19
25.76
23.23
20.76
18.29
15.54
12.12
7.8
2.64
-2.99
-8.53
-13.53
-17.72
-21.1
-23.82
-26.09
-28.04
-29.82
-31.54
-33.31
-35.16
-37.06
-38.84
-40.3
-41.3
-41.82
-41.95
-41.84
-41.6
-41.26
-40.76
-40.03
-39.04
-37.81
-36.42
-34.97
-33.57
-32.35
-31.47
-31.07
-31.33
-32.51
-34.86
-38.61
-43.77
-50
-56.58
-62.46
-66.49
-67.7
-65.58
-60.19
-52.09
-42.18
-31.34
-20.27
-9.39
1.11
11.15
20.62
29.42
37.42
44.56
50.78
55.96
59.77
61.86
61.89
59.78
55.79
50.42
44.2
37.49
30.44
23
15.13
6.88
-1.54
-9.77
-17.38
-23.82
-28.53
-31.02
-31.02
-28.59
-24.18
-18.49
-12.22
-5.95
0.01
5.57
10.73
15.52
19.94
23.98
27.66
31.07
34.35
37.58
40.81
44
47.06
49.98
52.74
55.38
57.85
60.04
61.75
62.8
63.11
62.82
62.29
62
62.41
63.75
65.94
68.5
70.76
72.09
72.06
70.62
68.02
64.56
60.36
55.25
48.75
40.45
30.17
18.16
5.06
-8.35
-21.35
-33.41
-44.21
-53.53
-61.22
-67.17
-71.43
-74.11
-75.4
-75.4
-74.1
-71.39
-67.25
-61.78
-55.37
-48.65
-42.36
-37.33
-34.15
-33.03
-33.63
-35.12
-36.38
-36.41
-34.74
-31.47
-27.25
-22.87
-18.93
-15.71
-13.19
-11.26
-9.85
-8.96
-8.54
-8.45
-8.44
-8.31
-7.96
-7.5
-7.16
-7.18
-7.74
-8.84
-10.43
-12.4
-14.67
-17.14
-19.69
-22.17
-24.49
-26.69
-28.88
-31.18
-33.61
-36.01
-38.04
-39.22
-39.1
-37.37
-33.94
-28.98
-22.85
-16.08
-9.26
-2.9
2.57
6.9
10.02
11.94
12.8
12.78
12.18
11.41
10.88
10.86
11.43
12.42
13.5
14.4
15.02
15.4
15.77
16.28
16.9
17.39
17.43
16.78
15.39
13.45
11.24
9.05
7
5.06
3.12
1.08
-1.1
-3.36
-5.67
-8.12
-10.79
-13.74
-16.82
-19.64
-21.64
-22.31
-21.35
-18.81
-15.09
-10.7
-6.13
-1.7
2.42
6.2
9.64
12.71
15.38
17.6
19.3
20.47
21.07
21.09
20.56
19.65
18.58
17.64
17.06
16.91
17.13
17.51
17.84
17.96
17.86
17.55
17.1
16.56
15.92
15.18
14.33
13.34
12.14
10.68
8.96
7.1
5.28
3.68
2.43
1.47
0.68
-0.07
-0.83
-1.43
-1.55
-0.75
1.36
5.06
10.4
17.19
25.05
33.51
42.22
50.92
59.5
67.96
76.34
84.58
92.56
100.12
107.11
113.56
119.7
125.96
132.86
140.75
149.59
158.78
167.17
173.35
175.98
174.13
167.49
156.31
141.24
123.01
102.22
79.15
53.81
26.16
-3.63
-34.94
-66.73
-97.63
-126.24
-151.45
-172.58
-189.39
-202.01
-210.76
-216.16
-218.87
-219.66
-219.3
-218.35
-216.97
-214.91
-211.48
-205.78
-196.97
-184.57
-168.59
-149.63
-128.8
-107.37
-86.56
-67.12
-49.26
-32.73
-17.1
-2.17
11.94
24.69
35.42
43.55
48.88
51.58
52.21
51.43
49.93
48.18
46.39
44.52
42.35
39.67
36.43
32.79
29.02
25.35
21.83
18.38
14.94
11.54
8.27
5.2
2.14
-1.28
-5.49
-10.65
-16.56
-22.66
-28.4
-33.54
-38.25
-42.91
-47.81
-52.85
-57.51
-61.07
-62.99
-63.07
-61.51
-58.65
-54.75
-49.9
-44.07
-37.27
-29.67
-21.69
-13.84
-6.66
-0.52
4.32
7.79
9.97
11.07
11.36
11.19
10.82
10.46
10.25
10.32
10.84
11.95
13.71
15.99
18.48
20.82
22.66
23.77
24.16
23.91
23.12
21.9
20.24
18.18
15.78
13.17
10.52
8.02
5.84
4.05
2.66
1.51
0.32
-1.21
-3.34
-6.09
-9.21
-12.18
-14.31
-14.94
-13.7
-10.56
-5.92
-0.48
4.98
9.77
13.49
16
17.49
18.24
18.55
18.67
18.75
18.88
19.13
19.49
19.88
20.15
20.13
19.69
18.8
17.55
16.17
14.93
14.03
13.59
13.55
13.69
13.72
13.37
12.45
10.96
9.01
6.76
4.34
1.87
-0.6
-2.96
-5.04
-6.7
-7.86
-8.66
-9.39
-10.42
-12.02
-14.17
-16.59
-18.72
-19.98
-19.84
-18.06
-14.66
-9.98
-4.54
1.07
6.35
10.99
14.88
18.02
20.46
22.21
23.24
23.57
23.3
22.66
21.96
21.43
21.2
21.2
21.27
21.22
20.92
20.33
19.53
18.57
17.5
16.32
15.01
13.6
12.14
10.7
9.26
7.78
6.12
4.18
1.92
-0.52
-2.96
-5.18
-7.09
-8.75
-10.34
-12.03
-13.87
-15.7
-17.16
-17.8
-17.24
-15.28
-11.95
-7.55
-2.52
2.63
7.44
11.59
14.96
17.58
19.58
21.07
22.12
22.76
22.99
22.88
22.49
21.91
21.17
20.33
19.41
18.52
17.81
17.4
17.33
17.45
17.5
17.15
16.19
14.55
12.34
9.79
7.18
4.71
2.56
0.79
-0.64
-1.87
-3.14
-4.75
-6.95
-9.84
-13.27
-16.89
-20.28
-23.1
-25.16
-26.37
-26.69
-26
-24.12
-20.95
-16.49
-11.05
-5.13
0.64
5.69
9.65
12.48
14.35
15.6
16.55
17.43
18.31
19.19
20
20.71
21.34
21.96
22.63
23.43
24.38
25.45
26.58
27.59
28.32
28.66
28.56
28.08
27.37
26.48
25.36
23.88
21.84
19.18
15.99
12.53
9.04
5.71
2.5
-0.76
-4.22
-7.99
-12
-16.08
-20.04
-23.67
-26.77
-29.13
-30.45
-30.45
-28.96
-25.97
-21.71
-16.65
-11.34
-6.28
-1.8
1.99
5.14
7.74
9.84
11.41
12.38
12.73
12.49
11.81
10.84
9.71
8.47
7.16
5.81
4.51
3.36
2.47
1.87
1.49
1.21
0.87
0.31
-0.57
-1.77
-3.23
-4.84
-6.47
-8.01
-9.35
-10.41
-11.2
-11.84
-12.56
-13.61
-15.16
-17.17
-19.3
-21.02
-21.73
-21.03
-18.82
-15.32
-11
-6.33
-1.76
2.43
6.12
9.22
11.65
13.37
14.31
14.48
14.04
13.15
12.07
11.01
10.15
9.64
9.56
9.86
10.39
10.9
11.12
10.85
10.06
8.86
7.46
6.03
4.6
3.14
1.6
-0.03
-1.66
-3.19
-4.56
-5.82
-7.02
-8.3
-9.75
-11.42
-13.41
-15.75
-18.42
-21.26
-23.92
-25.94
-26.86
-26.4
-24.49
-21.39
-17.51
-13.31
-9.2
-5.39
-1.96
1.16
4.02
6.62
8.83
10.43
11.22
11.12
10.32
9.15
8.06
7.41
7.36
7.82
8.57
9.36
9.94
10.14
9.84
9.02
7.78
6.32
4.91
3.77
2.94
2.22
1.29
-0.15
-2.21
-4.76
-7.51
-10.11
-12.4
-14.39
-16.29
-18.33
-20.68
-23.33
-26.14
-28.78
-30.88
-32.03
-31.94
-30.45
-27.59
-23.59
-18.8
-13.67
-8.67
-4.22
-0.59
2.12
4.01
5.32
6.34
7.26
8.12
8.79
9.05
8.78
8.07
7.14
6.29
5.78
5.67
5.88
6.21
6.4
6.3
5.87
5.08
3.99
2.62
1.05
-0.58
-2.1
-3.34
-4.21
-4.76
-5.16
-5.65
-6.39
-7.45
-8.7
-10.02
-11.31
-12.65
-14.16
-15.91
-17.74
-19.3
-20.06
-19.6
-17.69
-14.45
-10.3
-5.76
-1.31
2.72
6.2
9.12
11.52
13.41
14.75
15.43
15.4
14.73
13.56
12.17
10.81
9.74
9.05
8.78
8.88
9.28
9.86
10.53
11.19
11.71
11.99
11.92
11.39
10.37
8.91
7.15
5.25
3.39
1.69
0.18
-1.23
-2.66
-4.25
-6.05
-7.99
-9.82
-11.16
-11.62
-10.91
-8.95
-5.88
-2.01
2.26
6.58
10.68
14.4
17.75
20.84
23.8
26.69
29.36
31.41
32.35
31.75
29.46
25.69
20.95
15.87
11
6.71
3.09
0.13
-2.26
-4.16
-5.63
-6.76
-7.69
-8.56
-9.54
-10.73
-12.14
-13.71
-15.26
-16.64
-17.73
-18.51
-19.08
-19.6
-20.32
-21.44
-23.07
-25.13
-27.35
-29.26
-30.38
-30.31
-28.88
-26.23
-22.67
-18.57
-14.23
-9.85
-5.51
-1.32
2.58
6.03
8.87
10.98
12.35
13.02
13.18
13.01
12.7
12.4
12.24
12.23
12.38
12.64
12.91
13.14
13.22
13.08
12.66
11.91
10.83
9.4
7.69
5.79
3.83
1.96
0.28
-1.21
-2.54
-3.82
-5.12
-6.48
-7.94
-9.53
-11.26
-13.17
-15.19
-17.16
-18.81
-19.8
-19.79
-18.63
-16.34
-13.15
-9.46
-5.64
-2.01
1.33
4.39
7.25
9.91
12.23
14.06
15.22
15.72
15.69
15.33
14.89
14.47
14.1
13.77
13.46
13.25
13.24
13.46
13.82
14.11
14.06
13.53
12.55
11.29
9.93
8.53
7.03
5.27
3.22
1
-1.14
-3
-4.54
-5.85
-7.15
-8.53
-9.96
-11.37
-12.72
-14.1
-15.66
-17.49
-19.42
-21.08
-21.92
-21.47
-19.51
-16.11
-11.66
-6.66
-1.68
2.86
6.65
9.54
11.51
12.69
13.28
13.52
13.58
13.55
13.38
12.99
12.38
11.61
10.84
10.25
9.89
9.72
9.63
9.51
9.38
9.29
9.29
9.3
9.17
8.76
7.99
6.98
5.87
4.79
3.74
2.62
1.33
-0.16
-1.75
-3.28
-4.63
-5.76
-6.73
-7.62
-8.5
-9.38
-10.28
-11.24
-12.3
-13.49
-14.67
-15.59
-15.89
-15.2
-13.35
-10.34
-6.46
-2.09
2.35
6.51
10.17
13.22
15.67
17.53
18.87
19.75
20.23
20.32
20.01
19.36
18.46
17.51
16.71
16.23
16.09
16.19
16.31
16.23
15.85
15.12
14.08
12.73
11.06
9.06
6.83
4.57
2.52
0.9
-0.27
-1.1
-1.89
-2.87
-4.19
-5.8
-7.55
-9.27
-10.83
-12.25
-13.57
-14.93
-16.47
-18.26
-20.32
-22.51
-24.6
-26.26
-27.12
-26.94
-25.62
-23.26
-20.15
-16.64
-13.07
-9.67
-6.55
-3.7
-1.09
1.36
3.64
5.76
7.68
9.47
11.2
12.95
14.72
16.39
17.79
18.77
19.33
19.63
19.94
20.46
21.23
22.02
22.45
22.17
20.96
18.94
16.43
13.89
11.74
10.29
9.64
9.67
9.99
9.97
8.85
6.02
1.27
-5.02
-11.93
-18.27
-23.06
-25.83
-26.83
-26.86
-26.86
-27.51
-28.95
-30.81
-32.4
-33.02
-32.2
-29.81
-26.02
-21.19
-15.75
-10.08
-4.58
0.38
4.45
7.36
8.96
9.25
8.43
6.85
4.94
3.13
1.72
0.83
0.39
0.22
0.1
-0.07
-0.27
-0.47
-0.66
-0.98
-1.62
-2.68
-4.11
-5.67
-7.04
-8
-8.62
-9.16
-10.02
-11.44
-13.42
-15.64
-17.68
-19.16
-19.98
-20.27
-20.26
-20.23
-20.31
-20.57
-21
-21.59
-22.19
-22.64
-22.6
-21.75
-19.82
-16.75
-12.7
-8.05
-3.26
1.19
4.99
7.94
10.07
11.44
12.15
12.25
11.76
10.72
9.28
7.72
6.36
5.5
5.22
5.42
5.88
6.41
6.9
7.36
7.85
8.38
8.83
9.01
8.73
7.92
6.61
4.97
3.2
1.46
-0.16
-1.6
-2.86
-3.95
-4.96
-6.05
-7.4
-9.13
-11.17
-13.29
-15.02
-15.95
-15.75
-14.35
-11.87
-8.53
-4.63
-0.41
3.78
7.62
10.76
12.92
14.07
14.35
14.12
13.68
13.25
12.85
12.37
11.72
10.92
10.09
9.4
8.92
8.64
8.45
8.25
8.01
7.74
7.37
6.82
5.87
4.4
2.41
0.12
-2.15
-4.12
-5.68
-6.95
-8.2
-9.73
-11.7
-14.03
-16.45
-18.57
-20.02
-20.51
-19.9
-18.22
-15.6
-12.26
-8.43
-4.36
-0.33
3.43
6.73
9.45
11.59
13.25
14.56
15.66
16.59
17.31
17.7
17.68
17.26
16.53
15.65
14.79
13.99
13.25
12.44
11.46
10.24
