11.32
7.01
2.05
-2.66
-6.19
-7.75
-6.89
-3.54
1.97
8.97
16.67
24.28
31.16
36.88
41.19
43.95
45.14
44.86
43.34
41.01
38.39
35.95
33.93
32.22
30.47
28.27
25.45
22.19
19.02
16.53
14.96
14
12.85
10.56
6.54
0.88
-5.61
-11.8
-16.69
-19.88
-21.6
-22.46
-23.01
-23.28
-22.74
-20.45
-15.66
-8.28
0.7
9.39
15.57
17.6
15.27
10.14
5.14
3.68
8.27
19.53
35.85
53.76
69.07
78.25
79.39
72.95
62.02
52.05
49.82
61.25
88.8
129.29
173.8
210.11
227.17
219.53
189.39
145.45
98.91
58.93
29.89
11.44
0.75
-4.9
-6.75
-5.05
-0.38
5.28
8.79
7.18
-0.85
-14.19
-29.63
-43.32
-52.38
-55.99
-55.56
-53.85
-53.65
-56.57
-62.53
-70.05
-77.19
-82.58
-85.99
-88.37
-91.25
-95.92
-102.76
-111.01
-118.98
-124.75
-126.8
-124.51
-118.23
-108.87
-97.47
-84.75
-70.94
-55.91
-39.44
-21.46
-2.26
17.44
36.48
53.49
67.1
76.38
81.05
81.62
79.19
75.09
70.52
66.38
63.27
61.57
61.58
63.48
67.17
72.13
77.4
81.8
84.23
84.12
81.61
77.49
72.78
68.16
63.63
58.35
51.13
40.95
27.53
11.52
-5.86
-23.22
-39.43
-53.75
-65.6
-74.37
-79.39
-80.12
-76.53
-69.27
-59.7
-49.44
-39.97
-32.22
-26.53
-22.73
-20.5
-19.57
-19.91
-21.63
-24.82
-29.33
-34.61
-39.79
-43.81
-45.76
-45.19
-42.24
-37.61
-32.28
-27.2
-22.99
-19.85
-17.72
-16.46
-16.07
-16.72
-18.61
-21.79
-25.96
-30.51
-34.57
-37.35
-38.43
-37.92
-36.5
-35.2
-35.02
-36.55
-39.74
-43.93
-48.17
-51.77
-54.76
-57.88
-62.15
-68.07
-74.89
-80.54
-82.28
-77.98
-67.14
-51.39
-33.82
-17.61
-4.78
4.39
11.01
16.87
23.94
34.39
50.84
75.96
111.32
155.7
204.03
248.42
280.79
296.41
295.99
284.94
270.04
255.37
240.1
219.38
188.03
144.48
92.78
41.21
-1.39
-29.51
-42.85
-45.46
-42.88
-39.34
-36.49
-33.95
-30.94
-27.72
-25.76
-26.98
-32.41
-41.48
-52.1
-61.71
-68.36
-71.44
-71.76
-70.87
-70.34
-71.02
-72.85
-75
-76.34
-76.05
-73.97
-70.74
-67.51
-65.49
-65.38
-67.12
-69.9
-72.52
-73.79
-72.97
-69.96
-65.17
-59.28
-52.98
-46.76
-40.89
-35.45
-30.47
-26.03
-22.21
-19.05
-16.52
-14.47
-12.72
-11.07
-9.44
-7.83
-6.24
-4.7
-3.21
-1.86
-0.81
-0.34
-0.72
-2.06
-4.22
-6.67
-8.75
-9.75
-9.25
-7.16
-3.82
0.21
4.31
8.01
11.03
13.26
14.7
15.37
15.3
14.54
13.23
11.56
9.74
7.94
6.19
4.46
2.68
0.84
-1.04
-2.92
-4.78
-6.7
-8.8
-11.22
-13.99
-17.02
-20.05
-22.64
-24.31
-24.68
-23.6
-21.19
-17.86
-14.14
-10.51
-7.31
-4.71
-2.75
-1.46
-0.81
-0.78
-1.26
-2.03
-2.86
-3.55
-3.99
-4.24
-4.4
-4.57
-4.83
-5.18
-5.62
-6.18
-6.89
-7.81
-8.98
-10.37
-11.85
-13.18
-14.02
-14.02
-12.85
-10.45
-6.96
-2.79
1.53
5.51
8.8
11.27
12.97
13.98
14.4
14.26
13.6
12.55
11.27
10.02
8.96
8.13
7.46
6.81
6.09
5.37
4.78
4.45
4.34
4.18
3.56
2.15
-0.15
-3.05
-5.93
-8.09
-8.96
-8.33
-6.43
-3.87
-1.38
0.4
1.04
0.49
-0.96
-2.75
-4.23
-4.83
-4.35
-3.14
-2.12
-2.53
-5.56
-11.83
-21.1
-32.31
-43.88
-54.29
-62.44
-67.89
-70.74
-71.31
-69.93
-66.7
-61.26
-52.84
-40.42
-23.17
-0.94
25.43
54.09
82.7
109.09
131.75
149.98
163.57
172.46
176.47
175.47
169.83
160.61
149.48
138.23
128.15
119.69
112.52
105.94
99.33
92.43
85.22
77.72
69.65
60.47
49.58
36.65
21.89
6.1
-9.52
-23.74
-35.46
-43.97
-48.99
-50.67
-49.53
-46.4
-42.26
-38.03
-34.37
-31.65
-29.88
-28.89
-28.46
-28.35
-28.4
-28.46
-28.38
-28.02
-27.25
-26
-24.31
-22.3
-20.15
-18.09
-16.33
-15.04
-14.27
-13.97
-14.02
-14.31
-14.72
-15.13
-15.43
-15.42
-14.9
-13.71
-11.84
-9.47
-6.93
-4.59
-2.75
-1.51
-0.91
-0.9
-1.46
-2.59
-4.24
-6.31
-8.61
-10.93
-13.08
-14.97
-16.59
-18.02
-19.4
-20.84
-22.39
-23.94
-25.28
-26.1
-26.1
-25.04
-22.84
-19.51
-15.12
-9.84
-3.88
2.38
8.42
13.64
17.5
19.71
20.27
19.53
17.99
16.17
14.44
12.94
11.62
10.27
8.64
6.52
3.83
0.62
-2.9
-6.46
-9.84
-12.95
-15.87
-18.76
-21.78
-25.04
-28.52
-32.11
-35.69
-39.11
-42.27
-45.16
-47.77
-50.1
-52.06
-53.47
-54.06
-53.5
-51.69
-48.76
-45.14
-41.4
-38.06
-35.42
-33.54
-32.3
-31.57
-31.29
-31.48
-32.15
-33.19
-34.37
-35.42
-36.1
-36.41
-36.54
-36.77
-37.34
-38.32
-39.58
-40.96
-42.38
-43.97
-46.05
-48.96
-52.88
-57.6
-62.55
-66.93
-70.03
-71.45
-71.31
-70.21
-69.09
-68.98
-70.59
-74.08
-78.87
-83.73
-87.2
-88.03
-85.6
-79.92
-71.41
-60.45
-47.1
-31.15
-12.49
8.46
30.64
52.57
72.77
90.14
104.18
114.79
122.07
126.23
127.62
126.94
125.27
123.79
123.39
124.24
125.63
126.19
124.58
120.05
112.83
104.03
95.1
87.26
81.09
76.49
73.01
70.2
67.86
66.04
64.85
64.4
64.67
65.65
67.29
69.44
71.6
72.66
71.05
65.08
53.63
36.75
15.9
-6.4
-27.3
-44.52
-56.94
-64.68
-68.67
-70.15
-70.18
-69.43
-68.34
-67.26
-66.48
-66.22
-66.48
-66.98
-67.25
-66.86
-65.53
-63.34
-60.63
-57.91
-55.61
-53.95
-52.85
-52.06
-51.3
-50.49
-49.75
-49.33
-49.31
-49.52
-49.44
-48.44
-45.96
-41.85
-36.37
-30.14
-23.87
-18.19
-13.44
-9.73
-6.98
-5.07
-3.87
-3.31
-3.32
-3.8
-4.55
-5.31
-5.84
-6.01
-5.91
-5.78
-5.91
-6.52
-7.65
-9.23
-11.18
-13.46
-16.02
-18.73
-21.24
-23
-23.37
-21.94
-18.68
-13.99
-8.6
-3.28
1.36
5
7.53
8.94
9.32
8.76
7.43
5.57
3.47
1.4
-0.48
-2.1
-3.46
-4.61
-5.63
-6.59
-7.63
-8.96
-10.81
-13.38
-16.75
-20.81
-25.2
-29.37
-32.65
-34.43
-34.35
-32.46
-29.14
-24.92
-20.27
-15.34
-10
-3.96
2.88
10.22
17.38
23.51
27.95
30.48
31.54
31.96
32.75
34.57
37.63
41.54
45.61
49.15
51.72
53.26
53.93
53.99
53.74
53.5
53.7
54.87
57.48
61.75
67.39
73.7
79.76
84.68
87.88
89.07
88.19
85.29
80.5
74.04
66.3
57.89
49.62
42.29
36.47
32.22
29.01
25.8
21.47
15.28
7.3
-1.51
-9.66
-15.85
-19.54
-21.26
-22.18
-23.48
-25.66
-28.31
-30.49
-31.34
-30.72
-29.33
-28.25
-28.34
-29.69
-31.61
-33.16
-33.79
-33.69
-33.7
-34.8
-37.47
-41.4
-45.62
-48.98
-50.66
-50.51
-49.04
-47.07
-45.4
-44.52
-44.58
-45.44
-46.91
-48.73
-50.64
-52.22
-52.93
-52.21
-49.62
-45.02
-38.68
-31.18
-23.27
-15.65
-8.85
-3.17
1.3
4.55
6.67
7.76
7.99
7.57
6.82
6.06
5.55
5.42
5.64
6.08
6.56
6.95
7.16
7.11
6.68
5.73
4.22
2.24
0.13
-1.54
-2.14
-1.14
1.75
6.43
12.47
19.19
25.84
31.77
36.52
39.9
41.94
42.78
42.65
41.75
40.21
38.09
35.38
32.08
28.28
24.18
20.08
16.23
12.81
9.78
6.91
3.84
0.19
-4.34
-9.95
-16.48
-23.4
-29.55
-33.46
-33.69
-29.44
-20.98
-9.68
2.56
14.06
24.02
32.65
40.85
49.43
58.65
68.05
76.66
83.56
88.18
90.43
90.52
88.8
85.57
80.93
74.9
67.41
58.46
48.29
37.24
25.84
14.51
3.45
-7.39
-18.1
-28.58
-38.38
-46.76
-53.04
-56.89
-58.53
-58.55
-57.6
-56.08
-54.05
-51.35
-47.8
-43.44
-38.44
-33.1
-27.59
-21.92
-15.93
-9.33
-1.86
6.66
16.21
26.62
37.58
48.69
59.57
69.81
79.06
87
93.41
98.22
101.44
103.12
103.34
102.19
99.89
96.9
93.92
91.69
90.71
90.93
91.82
92.55
92.48
91.34
89.34
86.83
84.07
81.04
77.53
73.43
68.91
64.43
60.51
57.44
55.15
53.27
51.39
49.34
47.3
45.61
44.57
44.12
43.86
43.22
41.75
39.28
36.1
32.69
29.65
27.41
26.18
25.88
26.28
27.09
28.14
29.48
31.35
34.08
37.78
42.09
46.04
48.16
46.83
40.68
29.1
12.41
-8
-29.88
-50.61
-67.81
-80.12
-87.6
-91.64
-94.26
-97.17
-101.03
-105.36
-109
-111.02
-111.33
-110.72
-110.31
-110.86
-112.24
-113.61
-113.88
-112.39
-109.17
-104.85
-100.18
-95.68
-91.44
-87.22
-82.84
-78.37
-74.28
-71.21
-69.68
-69.8
-71.2
-73.07
-74.56
-75
-74.2
-72.43
-70.3
-68.52
-67.6
-67.71
-68.64
-69.93
-71
-71.45
-71.16
-70.35
-69.46
-68.96
-69.13
-69.87
-70.75
-71.08
-70.18
-67.61
-63.26
-57.33
-50.27
-42.57
-34.7
-27.11
-20.12
-14.04
-9.1
-5.39
-2.88
-1.36
-0.5
0.06
0.61
1.36
2.3
3.31
4.19
4.73
4.83
4.53
4
3.44
2.96
2.53
1.98
1.06
-0.44
-2.61
-5.39
-8.49
-11.45
-13.66
-14.57
-13.8
-11.25
-7.2
-2.18
3.18
8.29
12.78
16.43
19.13
20.85
21.58
21.35
20.36
18.89
17.3
15.88
14.79
13.98
13.32
12.66
11.87
10.91
9.84
8.75
7.73
6.84
5.98
4.95
3.49
1.36
-1.52
-4.98
-8.64
-11.92
-14.22
-15.07
-14.25
-11.85
-8.22
-3.9
0.61
4.94
8.92
12.54
15.85
18.76
21.09
22.57
23.05
22.62
21.6
20.43
19.49
18.92
18.58
18.17
17.39
16.14
14.45
12.53
10.57
8.67
6.83
4.93
2.87
0.5
-2.24
-5.32
-8.55
-11.56
-13.86
-14.93
-14.4
-12.25
-8.73
-4.37
0.32
4.95
9.35
13.46
17.16
20.18
22.15
22.75
21.97
20.12
17.83
15.74
14.28
13.51
13.15
12.79
12.09
10.95
9.48
7.94
6.55
5.41
4.43
3.43
2.14
0.38
-1.95
-4.82
-8.11
-11.61
-15.02
-17.9
-19.77
-20.13
-18.65
-15.34
-10.56
-4.99
0.67
5.84
10.25
13.85
16.71
18.84
20.23
20.86
20.8
20.27
19.55
18.89
18.36
17.88
17.23
16.23
14.85
13.2
11.5
9.92
8.52
7.16
5.59
3.59
0.97
-2.31
-6.17
-10.33
-14.36
-17.67
-19.63
-19.71
-17.74
-13.98
-9.07
-3.74
1.36
5.92
9.88
13.26
16.06
18.12
19.3
19.57
19.11
18.34
17.69
17.49
17.79
18.39
18.94
19.12
18.77
17.9
16.74
15.51
14.34
13.22
11.96
10.33
8.1
5.21
1.7
-2.29
-6.48
-10.48
-13.86
-16.12
-16.84
-15.75
-12.87
-8.48
-3.13
2.55
7.97
12.72
16.57
19.47
21.39
22.35
22.39
21.65
20.4
19.02
17.88
17.21
16.95
16.82
16.42
15.44
13.81
11.64
9.2
6.79
4.61
2.71
0.96
-0.89
-3.15
-6.07
-9.7
-13.76
-17.68
-20.69
-22.1
-21.53
-19.04
-15.04
-10.17
-4.99
0.1
4.89
9.3
13.17
16.28
18.38
19.31
19.1
18.04
16.58
15.17
14.11
13.46
13.03
12.52
11.63
10.18
8.25
6.06
3.96
2.23
0.94
-0.13
-1.41
-3.38
-6.43
-10.62
-15.62
-20.83
-25.46
-28.78
-30.23
-29.59
-26.92
-22.63
-17.32
-11.64
-6.2
-1.38
2.64
5.82
8.19
9.71
10.41
10.37
9.86
9.26
8.96
9.19
9.95
11.02
12.11
13.04
13.76
14.31
14.74
14.9
14.56
13.44
11.32
8.13
3.88
-1.39
-7.5
-14.14
-20.7
-26.36
-30.19
-31.48
-30.01
-26.13
-20.72
-14.93
-9.9
-6.55
-5.38
-6.47
-9.43
-13.59
-18.12
-22.26
-25.41
-27.16
-27.28
-25.73
-22.7
-18.58
-13.94
-9.33
-5.12
-1.42
1.88
4.94
7.83
10.49
12.79
14.7
16.32
17.83
19.38
21.08
22.96
25.15
27.88
31.48
36.22
42.14
48.98
56.19
63.08
69.06
73.74
77.11
79.41
81.09
82.51
83.82
84.89
85.31
84.56
82.08
77.33
69.88
59.39
45.74
29.18
10.33
-9.77
-29.9
-48.96
-66.15
-81.1
-93.85
-104.63
-113.72
-121.21
-126.96
-130.61
-131.73
-129.89
-125.02
-117.36
-107.55
-96.46
-85.07
-74.22
-64.55
-56.44
-50.01
-45.2
-41.69
-39.03
-36.78
-34.54
-32.1
-29.45
-26.67
-23.91
-21.3
-18.94
-16.91
-15.3
-14.1
-13.29
-12.8
-12.58
-12.74
-13.45
-14.93
-17.23
-20.08
-22.88
-24.8
-25.02
-23
-18.64
-12.3
-4.67
3.4
11.14
17.9
23.3
27.11
29.3
29.95
29.32
27.77
25.78
23.8
22.23
21.23
20.69
20.32
19.71
18.59
16.89
14.76
12.47
10.23
8.05
5.76
3.03
-0.46
-4.8
-9.79
-14.86
-19.17
-21.85
-22.26
-20.22
-16.07
-10.56
-4.56
1.17
6.13
10.09
13.06
15.17
16.74
18.2
19.99
22.42
25.5
29.01
32.62
36.2
39.94
44.26
49.48
55.57
62.11
68.44
74.03
78.58
81.94
83.84
83.8
81.33
76.48
70.14
64.04
60.16
59.86
63.32
69.39
76.23
82.06
85.78
87.14
86.39
83.91
79.89
74.39
67.56
59.73
51.44
43.23
35.47
28.18
21.17
14.15
6.95
-0.4
-7.61
-14.29
-20.12
-24.96
-29.08
-33.09
-37.94
-44.59
-53.65
-65.07
-77.91
-90.46
-100.74
-107.03
-108.48
-105.25
-98.47
-89.66
-80.28
-71.3
-63.23
-56.22
-50.36
-45.76
-42.48
-40.42
-39.15
-38.1
-36.69
-34.67
-32.15
-29.58
-27.49
-26.24
-25.85
-26.07
-26.54
-27.03
-27.57
-28.43
-30.02
-32.66
-36.51
-41.39
-46.76
-51.74
-55.26
-56.26
-53.99
-48.28
-39.67
-29.24
-18.38
-8.27
0.31
7.05
11.95
15.16
16.77
16.93
15.87
13.99
11.84
9.92
8.5
7.6
6.97
6.27
5.29
3.93
2.32
0.58
-1.22
-3.19
-5.56
-8.69
-12.83
-18
-23.82
-29.39
-33.54
-35.02
-33.01
-27.32
-18.61
-8.1
2.79
12.79
21.06
27.2
31.13
32.96
32.93
31.4
28.83
25.82
22.88
20.38
18.47
17.09
16.03
15.08
14.01
12.68
11.02
9.02
6.73
4.09
0.97
-2.85
-7.55
-13.02
-18.63
-23.25
-25.53
-24.4
-19.51
-11.48
-1.65
8.38
17.32
24.5
29.87
33.72
36.32
37.73
37.87
36.7
34.44
31.61
28.88
26.8
25.63
25.24
25.17
24.88
23.92
22.09
19.44
16.07
12.07
7.42
2.12
-3.49
-8.63
-12.15
-12.84
-9.95
-3.57
5.36
15.32
24.8
32.71
38.6
42.55
44.86
45.79
45.41
43.76
40.95
37.29
33.22
29.2
25.58
22.47
19.84
17.59
15.68
14.11
12.83
11.65
10.2
8.03
4.86
0.79
-3.53
-7
-8.35
-6.57
-1.29
6.95
16.83
26.58
34.61
39.95
42.54
43.08
42.58
41.9
41.4
40.87
39.77
37.53
33.84
28.7
22.38
15.17
7.34
-0.99
-9.79
-19.03
-28.69
-38.68
-48.9
-59.23
-69.59
-79.72
-89.16
-97.11
-102.6
-104.72
-103.01
-97.69
-89.72
-80.48
-71.34
-63.25
-56.56
-51.12
-46.56
-42.56
-38.98
-35.88
-33.36
-31.46
-30.14
-29.28
-28.76
-28.44
-28.24
-28.08
-27.85
-27.49
-27.02
-26.57
-26.45
-27.03
-28.63
-31.29
-34.56
-37.56
-39.04
-37.8
-33.02
-24.73
-13.75
-1.59
10.11
20.08
27.69
32.99
36.43
38.51
39.52
39.58
38.74
37.19
35.27
33.36
31.73
30.38
29.13
27.74
26.08
24.14
22.01
19.75
17.33
14.59
11.33
7.38
2.65
-2.68
-8.07
-12.62
-15.24
-15.01
-11.52
-5.17
2.99
11.58
19.5
26.15
31.54
35.87
39.28
41.61
42.52
41.83
39.72
36.81
33.85
31.47
29.88
28.83
27.85
26.48
24.53
22.14
19.63
17.31
15.33
13.59
11.76
9.45
6.33
2.23
-2.72
-8.07
-13.13
-17.07
-19.12
-18.82
-16.1
-11.37
-5.32
1.25
7.71
13.64
18.85
23.29
26.9
29.59
31.25
31.82
31.43
30.4
29.15
28.1
27.42
27
26.51
25.56
23.93
21.7
19.22
16.96
15.23
14.04
13.11
11.96
10.16
7.49
4.01
0.07
-3.69
-6.53
-7.68
-6.58
-3.03
2.76
10.19
18.51
27.01
35.26
43.13
50.7
58.06
65.04
71.19
75.8
78.23
78.29
76.47
73.96
72.35
72.98
76.31
81.72
87.68
92.37
94.37
93.03
88.46
81.15
71.64
60.33
47.62
34.09
20.51
7.72
-3.62
-13.27
-21.27
-27.79
-32.91
-36.63
-38.95
-40.04
-40.25
-40.02
-39.65
-39.21
-38.63
-37.86
-37.08
-36.69
-37.14
-38.67
-41.07
-43.74
-45.93
-47.04
-46.88
-45.69
-43.99
-42.29
-40.99
-40.19
-39.82
-39.74
-39.85
-40.14
-40.66
-41.55
-42.94
-44.91
-47.38
-50.05
-52.37
-53.67
-53.36
-51.11
-47.02
-41.54
-35.3
-28.94
-22.87
-17.36
-12.48
-8.3
-4.93
-2.47
-0.99
-0.41
-0.49
-0.94
-1.44
-1.77
-1.85
-1.76
-1.71
-1.9
-2.48
-3.48
-4.75
-6.14
-7.52
-8.92
-10.48
-12.42
-14.88
-17.91
-21.41
-25.15
-28.82
-32.02
-34.28
-35.21
-34.53
-32.3
-28.89
-24.86
-20.84
-17.25
-14.28
-11.84
-9.8
-8.03
-6.46
-5.11
-3.96
-2.93
-1.93
-0.83
0.41
1.72
2.96
3.94
4.49
4.58
4.28
3.79
3.35
3.06
2.86
2.52
1.7
0.22
-1.84
-4.09
-5.94
-6.76
-6.12
-3.89
-0.32
4.12
8.82
13.26
17.06
20.04
22.1
23.21
23.31
22.34
20.37
17.59
14.48
11.62
9.62
8.87
9.4
10.86
12.69
14.31
15.33
15.63
15.28
14.47
13.32
11.89
10.12
7.86
4.94
1.2
-3.36
-8.55
-13.92
-18.93
-23.16
-26.49
-29.09
-31.29
-33.34
-35.24
-36.88
-38.19
-39.37
-40.86
-43.1
-46.27
-50.13
-54.2
-57.95
-61.09
-63.52
-65.21
-66.01
-65.58
-63.48
-59.39
-53.29
-45.4
-36.12
-25.8
-14.73
-3.2
8.44
19.72
30.19
39.73
48.64
57.59
67.35
78.33
90.36
102.74
114.5
124.84
133.25
139.54
143.54
144.98
143.59
139.35
132.8
124.96
116.94
109.45
102.5
95.55
87.94
79.31
69.75
59.48
48.34
35.55
19.97
0.82
-21.59
-45.56
-68.47
-87.78
-102.04
-111.33
-116.91
-120.34
-122.6
-123.75
-123.19
-120.36
-115.22
-108.48
-101.22
-94.42
-88.64
-83.9
-79.99
-76.67
-73.9
-71.68
-69.99
-68.67
-67.42
-65.96
-64.18
-62.26
-60.57
-59.63
-59.81
-61.23
-63.67
-66.65
-69.68
-72.38
-74.71
-76.85
-79.2
-82.05
-85.45
-89.01
-91.99
-93.49
-92.81
-89.71
-84.59
-78.36
-72.15
-66.98
-63.39
-61.31
-60.16
-59.09
-57.25
-53.99
-49
-42.24
-33.99
-24.69
-14.9
-5.08
4.52
14.02
23.89
34.88
47.64
62.33
78.33
94.21
108.06
118.13
123.37
123.78
120.4
114.91
109.09
104.38
101.58
100.93
102.23
105.1
109.05
113.61
118.23
122.34
125.48
127.26
127.53
126.39
124.2
121.43
118.58
115.91
113.44
110.94
108.08
104.63
100.5
95.69
90.18
83.85
76.44
67.64
57.28
45.4
32.37
18.83
5.69
-6.13
-15.78
-22.75
-27.01
-28.98
-29.32
-28.69
-27.5
-25.91
-23.98
-21.87
-19.84
-18.23
-17.29
-17.17
-17.99
-19.91
-23.2
-28.14
-34.71
-42.47
-50.47
-57.57
-62.82
-65.88
-67.23
-68.07
-69.9
-74
-80.85
-89.97
-99.86
-108.53
-113.99
-114.83
-110.6
-101.76
-89.54
-75.45
-61.06
-47.6
-35.98
-26.65
-19.54
-14.13
-9.38
-3.97
3.3
13.08
25.15
38.3
50.73
60.58
66.49
67.99
65.52
60.2
53.34
45.92
38.16
29.5
18.94
5.73
-10.01
-26.99
-42.98
-55.49
-62.71
-64.07
-60.28
-52.97
-43.95
-34.68
-26.04
-18.38
-11.72
-5.92
-0.76
4.02
8.71
13.59
18.86
24.55
30.43
36.08
40.93
44.44
46.32
46.58
45.47
43.42
40.74
37.58
34.01
30.15
26.36
23.22
21.31
20.98
22.08
23.91
25.46
25.69
23.98
20.24
14.95
8.91
2.88
-2.6
-7.33
-11.33
-14.7
-17.45
-19.55
-20.95
-21.67
-21.84
-21.68
-21.38
-21.05
-20.71
-20.43
-20.39
-20.92
-22.4
-25.01
-28.52
-32.12
-34.56
-34.47
-30.94
-23.95
-14.53
-4.5
4.11
9.72
11.7
10.32
6.55
1.46
-4.1
-9.68
-15.15
-20.44
-25.35
-29.53
-32.63
-34.45
-35.13
-35.07
-34.82
-34.83
-35.35
-36.47
-38.19
-40.62
-43.93
-48.27
-53.48
-58.91
-63.47
-65.83
-64.88
-60.1
-51.77
-40.92
-28.93
-17.19
-6.68
2.13
9.16
14.5
18.24
20.37
20.87
19.95
18.02
15.7
13.6
12.06
11.1
10.42
9.68
8.65
7.39
5.98
4.45
2.55
-0.17
-4.19
-9.75
-16.66
-24.21
-31.39
-37
-40.03
-39.83
-36.25
-29.69
-20.99
-11.19
-1.31
7.89
15.96
22.67
27.9
31.48
33.29
33.37
32.03
29.81
27.37
25.22
23.61
22.45
21.46
20.34
18.92
17.24
15.45
13.7
12
10.15
7.77
4.46
-0.02
-5.54
-11.53
-17.03
-20.88
-22.08
-20.12
-15.04
-7.52
1.4
10.61
19.23
26.74
32.96
37.88
41.51
43.78
44.61
44.04
42.38
40.2
38.09
36.43
35.16
33.86
31.98
29.21
25.66
21.83
18.32
15.48
13.24
11.18
8.7
5.39
1.1
-3.97
-9.42
-14.6
-18.8
-21.26
-21.3
-18.61
-13.37
-6.25
1.8
9.82
17.17
23.63
29.19
33.95
37.81
40.53
41.82
41.62
40.19
38.06
35.87
34.07
32.77
31.75
30.58
28.92
26.69
24.04
21.3
18.76
16.51
14.4
12.12
9.33
5.8
1.5
-3.38
-8.47
-13.21
-16.93
-18.95
-18.75
-16.15
-11.37
-5.05
1.94
8.81
14.95
20.12
24.34
27.73
30.39
32.31
33.42
33.62
32.95
31.6
29.85
28
26.29
24.76
23.34
21.89
20.29
18.5
16.58
14.6
12.58
10.46
8.07
5.28
2.04
-1.59
-5.48
-9.57
-13.83
-18.22
-22.54
-26.29
-28.77
-29.29
-27.47
-23.45
-17.86
-11.59
-5.45
0.1
4.99
9.33
13.22
16.62
19.28
20.97
21.6
21.32
20.47
19.47
18.65
18.1
17.7
17.19
16.29
14.89
13.07
11.07
9.14
7.43
5.88
4.24
2.25
-0.32
-3.55
-7.36
-11.57
-15.91
-20.02
-23.45
-25.73
-26.4
-25.23
-22.24
-17.76
-12.32
-6.51
-0.89
4.16
8.35
11.59
13.85
15.22
15.83
15.87
15.55
15.03
14.46
13.84
13.13
12.2
10.97
9.41
7.67
5.94
4.45
3.28
2.32
1.24
-0.4
-2.88
-6.27
-10.28
-14.32
-17.67
-19.66
-19.93
-18.45
-15.52
-11.64
-7.33
-3.02
1.02
4.63
7.74
10.24
12.05
13.09
13.37
13.03
12.23
11.22
10.16
9.16
8.18
7.14
5.96
4.61
3.11
1.57
0.03
-1.51
-3.17
-5.13
-7.58
-10.62
-14.24
-18.22
-22.22
-25.77
-28.46
-29.98
-30.25
-29.39
-27.68
-25.4
-22.77
-19.93
-16.95
-14.03
-11.49
-9.78
-9.38
-10.56
-13.21
-16.88
-20.88
-24.59
-27.69
-30.32
-33
-36.41
-41.15
-47.44
-55.03
-63.08
-70.21
-74.81
-75.33
-70.94
-61.93
-49.73
-36.5
-24.35
-14.47
-6.75
0.07
7.63
17.11
28.7
41.53
54.24
65.64
75.09
82.56
88.3
92.47
95.02
95.74
94.58
91.86
88.29
84.72
81.91
80.18
79.44
79.2
78.85
77.82
75.76
72.6
68.53
63.97
59.33
54.94
50.84
46.89
42.79
38.29
33.34
28.11
22.89
17.96
13.49
9.55
6.24
3.76
2.41
2.51
4.09
6.83
10.06
13.02
15.21
16.54
17.32
17.98
18.83
19.83
20.69
21.03
20.69
19.77
18.57
17.48
16.71
16.27
15.95
15.49
14.7
13.59
12.31
11.13
10.21
9.56
9.02
8.33
7.29
5.82
3.99
1.95
-0.02
-1.56
-2.22
-1.57
0.65
4.32
8.81
13.05
15.76
15.84
12.73
6.56
-1.85
-11.27
-20.43
-28.33
-34.45
-38.79
-41.66
-43.5
-44.75
-45.75
-46.76
-47.99
-49.62
-51.73
-54.25
-56.95
-59.56
-61.87
-63.81
-65.43
-66.88
-68.28
-69.74
-71.33
-73.12
-75.18
-77.42
-79.56
-81.12
-81.58
-80.5
-77.78
-73.63
-68.46
-62.62
-56.28
-49.32
-41.57
-33.01
-23.98
-15.13
-7.21
-0.7
4.34
8.35
11.93
15.61
19.5
23.36
26.71
29.13
30.4
30.56
29.88
28.67
27.15
25.47
23.66
21.67
19.41
16.77
13.68
10.18
6.54
3.25
0.85
-0.19
0.35
2.29
5.21
8.51
11.64
14.2
15.97
16.9
17
16.37
15.15
13.48
11.51
9.41
7.31
5.35
3.62
2.18
1.02
0.07
-0.78
-1.57
-2.31
-2.97
-3.51
-3.96
-4.46
-5.17
-6.24
-7.77
-9.79
-12.26
-15
-17.77
-20.21
-21.98
-22.8
-22.59
-21.48
-19.81
-17.97
-16.32
-15.08
-14.33
-14.01
-14.05
-14.35
-14.88
-15.59
-16.38
-17.08
-17.41
-17.13
-16.13
-14.51
-12.6
-10.8
-9.45
-8.65
-8.3
-8.18
-8.1
-8
-7.97
-8.15
-8.71
-9.75
-11.28
-13.21
-15.27
-17.04
-18
-17.59
-15.45
-11.51
-6.03
0.55
7.66
14.72
21.1
26.07
28.8
28.56
25
18.44
9.86
0.73
-7.49
-13.79
-17.91
-20.3
-21.74
-22.98
-24.38
-25.88
-27.16
-27.98
-28.3
-28.38
-28.62
-29.42
-31.01
-33.4
-36.45
-39.81
-43.05
-45.57
-46.81
-46.33
-44.04
-40.18
-35.35
-30.22
-25.33
-20.99
-17.26
-14.13
-11.61
-9.8
-8.85
-8.76
-9.38
-10.35
-11.32
-12.06
-12.54
-12.93
-13.45
-14.23
-15.23
-16.31
-17.24
-17.89
-18.23
-18.31
-18.26
-18.17
-18.07
-17.88
-17.39
-16.23
-13.98
-10.26
-4.92
1.83
9.44
17.13
24.21
30.25
35.24
39.46
43.25
46.69
49.55
51.38
51.78
50.74
48.71
46.41
44.54
43.41
42.8
42.15
40.82
38.46
35.16
31.4
27.77
24.76
22.5
20.75
18.95
16.43
12.65
7.32
0.64
-6.79
-13.99
-19.91
-23.7
-25.04
-24.3
-22.4
-20.57
-19.82
-20.6
-22.58
-24.84
-26.28
-26.08
-24.1
-20.91
-17.46
-14.7
-13.19
-12.92
-13.53
-14.5
-15.47
-16.32
-17.08
-17.81
-18.47
-19
-19.32
-19.54
-19.87
-20.63
-22.1
-24.43
-27.62
-31.45
-35.54
-39.38
-42.38
-43.97
-43.77
-41.61
-37.61
-32.08
-25.38
-17.8
-9.59
-1.04
7.4
15.02
21.09
25.07
26.96
27.34
27.15
27.29
28.19
29.64
30.99
31.46
30.61
28.49
25.61
22.63
20.12
18.26
16.88
15.53
13.63
10.68
6.46
1.16
-4.61
-9.89
-13.64
-14.99
-13.54
-9.51
-3.58
3.26
10.1
16.31
21.59
25.89
29.17
31.34
32.29
31.94
30.42
28.1
25.48
23.04
21.03
19.45
18.11
16.71
14.97
12.78
10.2
7.39
4.58
1.91
-0.64
-3.26
-6.31
-10.13
-14.97
-20.83
-27.4
-33.97
-39.57
-43.17
-43.96
-41.6
-36.38
-29.1
-20.8
-12.38
-4.41
2.92
9.57
15.44
20.29
23.77
25.61
25.83
24.8
23.13
21.44
20.16
19.41
19
18.57
17.71
16.22
14.13
11.7
9.27
7.04
5
2.9
0.4
-2.79
-6.77
-11.42
-16.42
-21.29
-25.41
-28.12
-28.79
-27
-22.75
-16.44
-8.83
-0.72
7.24
14.65
21.31
27.1
31.81
35.2
37.08
37.5
36.75
35.33
33.77
32.46
31.54
30.87
30.15
29.06
27.43
25.32
22.96
20.64
18.5
16.47
14.24
11.42
7.7
2.95
-2.68
-8.75
-14.55
-19.22
-21.88
-21.92
-19.11
-13.82
-6.84
0.82
8.23
14.84
20.48
25.23
29.22
32.45
34.76
35.95
35.92
34.8
32.9
30.69
28.54
26.71
25.22
23.98
22.8
21.56
20.13
18.48
16.52
14.19
11.42
8.23
4.73
1.1
-2.45
-5.79
-8.96
-12.15
-15.65
-19.69
-24.22
-28.84
-32.76
-35.02
-34.85
-31.93
-26.59
-19.62
-12.04
-4.73
1.8
7.42
12.23
16.32
19.72
22.35
24.09
24.92
24.89
24.15
22.93
21.52
20.19
19.13
18.37
17.72
16.92
15.68
13.9
11.69
9.27
6.89
4.65
2.48
0.21
-2.29
-5.11
-8.28
-11.82
-15.77
-20.12
-24.66
-28.87
-31.95
-33.1
-31.77
-27.94
-22.17
-15.41
-8.6
-2.44
2.83
7.3
11.2
14.68
17.69
20.02
21.44
21.81
21.22
19.95
18.41
16.98
15.91
15.21
14.73
14.2
13.36
12.1
10.4
8.35
6.05
3.62
1.11
-1.43
-3.97
-6.5
-9.03
-11.67
-14.57
-17.91
-21.72
-25.74
-29.35
-31.73
-32.07
-29.97
-25.53
-19.44
-12.6
-5.91
0.07
5.17
9.45
13.04
15.97
18.16
19.54
20.1
20.05
19.66
19.19
18.83
18.57
18.28
17.75
16.88
15.7
14.4
13.16
12.1
11.13
10
8.45
6.32
3.7
0.85
-1.89
-4.29
-6.34
-8.22
-10.18
-12.47
-15.21
-18.38
-21.82
-25.16
-27.92
-29.52
-29.5
-27.66
-24.17
-19.54
-14.44
-9.44
-4.83
-0.6
3.35
7.06
10.36
12.92
14.5
15.03
14.76
14.1
13.46
13.08
12.92
12.81
12.57
12.13
11.62
11.26
11.23
11.52
11.9
11.95
11.27
9.65
7.19
4.26
1.34
-1.23
-3.38
-5.26
-7.11
-9.12
-11.37
-13.85
-16.53
-19.39
-22.26
-24.79
-26.42
-26.64
-25.15
-22.07
-17.93
-13.38
-8.98
-4.99
-1.42
1.82
4.74
7.24
9.16
10.37
10.9
10.92
10.67
10.39
10.26
10.31
10.42
10.42
10.17
9.64
8.96
8.35
7.98
7.81
7.6
6.99
5.73
3.79
1.45
-0.94
-3.03
-4.71
-6.05
-7.3
-8.68
-10.37
-12.47
-14.95
-17.74
-20.6
-23.15
-24.92
-25.47
-24.49
-22.03
-18.44
-14.24
-10
-6.07
-2.61
0.42
3.13
5.56
7.65
9.28
10.37
10.94
11.17
11.26
11.34
11.41
11.34
11
10.39
9.67
9.07
8.77
8.76
8.82
8.62
7.91
6.6
4.79
2.72
0.67
-1.16
-2.66
-3.86
-4.87
-5.89
-7.12
-8.7
-10.61
-12.75
-14.83
-16.5
-17.4
-17.21
-15.74
-13.04
-9.37
-5.2
-1.01
2.83
6.23
9.31
12.31
15.36
18.39
21.13
23.27
24.64
25.32
25.6
25.77
26
26.27
26.38
26.12
25.35
24.09
22.37
20.21
17.55
14.4
10.94
7.55
4.77
2.96
2.18
2.03
1.91
1.18
-0.52
-3.22
-6.64
-10.29
-13.61
-15.97
-16.76
-15.5
-12.13
-7.15
-1.65
3.05
5.78
5.96
3.81
0.12
-4.02
-7.65
-10.13
-11.29
-11.31
-10.64
-9.78
-9.16
-8.96
-9.13
-9.48
-9.86
-10.34
-11.15
-12.58
-14.69
-17.22
-19.68
-21.59
-22.72
-23.28
-23.64
-24.21
-25.13
-26.28
-27.41
-28.28
-28.73
-28.66
-27.95
-26.43
-24.04
-20.93
-17.59
-14.56
-12.24
-10.53
-8.89
-6.56
-3.03
1.65
6.78
11.34
14.4
15.58
15.15
13.83
12.41
11.38
10.82
10.45
9.91
9.05
7.9
6.66
5.44
4.22
2.74
0.73
-1.95
-5.18
-8.67
-12.1
-15.3
-18.21
-20.86
-23.16
-24.89
-25.69
-25.29
-23.63
-20.93
-17.6
-14.08
-10.67
-7.51
-4.66
-2.17
-0.22
1.02
1.44
1.18
0.64
0.32
0.56
1.45
2.69
3.77
4.22
3.82
2.71
1.36
0.45
0.65
2.39
5.63
9.72
13.49
15.54
14.64
10.25
2.76
-6.57
-15.88
-23.4
-27.96
-29.39
-28.4
-26.17
-23.78
-21.76
-19.99
-17.98
-15.3
-11.99
-8.57
-5.86
-4.46
-4.49
-5.54
-6.95
-8.08
-8.62
-8.63
-8.4
-8.25
-8.34
-8.65
-8.95
-8.95
-8.48
-7.53
-6.33
-5.26
-4.69
-4.88
-5.92
-7.77
-10.34
-13.45
-16.87
-20.23
-23.06
-24.82
-25.13
-23.84
-21.09
-17.24
-12.77
-8.15
-3.74
0.19
3.5
6.1
7.99
9.22
9.91
10.2
10.29
10.35
10.5
10.77
11.07
11.24
11.12
10.69
10.01
9.24
8.52
7.9
7.28
6.51
5.42
3.86
1.76
-0.93
-4.12
-7.66
-11.15
-14.09
-15.92
-16.22
-14.88
-12.08
-8.26
-3.92
0.5
4.76
8.69
12.2
15.12
17.24
18.4
18.51
17.69
16.26
14.6
13.11
12.08
11.62
11.61
11.78
11.84
11.54
10.8
9.65
8.25
6.72
5.15
3.54
1.79
-0.21
-2.57
-5.32
-8.34
-11.41
-14.16
-16.14
-16.95
-16.3
-14.1
-10.51
-5.91
-0.77
4.42
9.24
13.41
16.75
19.2
20.68
21.19
20.81
19.73
18.29
16.82
15.56
14.59
13.79
13.03
12.21
11.37
10.63
10.05
9.61
9.17
8.5
7.38
5.68
3.32
0.28
-3.32
-7.22
-10.9
-13.72
-15.03
-14.48
-12.11
-8.4
-4.02
0.41
4.53
8.3
11.85
15.29
18.49
21.13
22.79
23.21
22.43
20.82
18.9
17.19
15.91
14.99
14.18
13.16
11.81
10.21
8.56
7.05
5.67
4.22
2.44
0.12
-2.8
-6.2
-9.85
-13.43
-16.53
-18.72
-19.57
-18.82
-16.48
-12.87
-8.55
-4.06
0.19
4.1
7.71
11.08
14.13
16.59
18.12
18.53
17.87
16.5
14.95
13.69
12.99
12.8
12.82
12.65
12.02
10.9
9.46
7.99
6.69
5.56
4.4
3.01
1.21
-1.01
-3.61
-6.56
-9.8
-13.24
-16.56
-19.25
-20.68
-20.37
-18.23
-14.65
-10.29
-5.88
-1.9
1.53
4.48
7.1
9.39
11.23
12.47
13.05
13.12
12.92
12.72
12.7
12.88
13.12
13.24
13.08
12.53
11.59
10.34
8.89
7.37
5.87
4.46
3.1
1.73
0.26
-1.37
-3.22
-5.34
-7.77
-10.51
-13.39
-16.07
-18.04
-18.78
-18
-15.7
-12.27
-8.28
-4.3
-0.7
2.39
5.02
7.29
9.24
10.82
11.95
12.56
12.66
12.3
11.57
10.59
9.47
8.32
7.23
6.24
5.33
4.45
3.52
2.47
1.28
-0.03
-1.42
-2.84
-4.28
-5.73
-7.23
-8.81
-10.55
-12.53
-14.78
-17.2
-19.45
-21.04
-21.42
-20.22
-17.43
-13.4
-8.77
-4.22
-0.25
2.92
5.34
7.28
9.09
11.15
13.83
17.36
21.75
26.68
31.55
35.65
38.32
39.34
38.89
37.47
35.59
33.35
30.41
26.1
19.78
11.23
0.77
-10.91
-22.96
-34.76
-45.9
-56.11
-65.14
-72.61
-78.09
-81.16
-81.5
-78.8
-72.83
-63.39
-50.52
-34.57
-16.29
3.27
22.89
41.43
57.95
71.76
82.5
90.06
94.62
96.58
96.41
94.57
91.45
87.36
82.6
77.45
72.16
66.91
61.74
56.64
51.6
46.71
42.15
38.05
34.37
30.82
26.94
22.19
16.23
8.99
0.68
-8.15
-16.78
-24.36
-30.14
-33.61
-34.71
-33.86
-31.88
-29.69
-28.03
-27.26
-27.39
-28.25
-29.68
-31.55
-33.75
-36.03
-37.96
-39.04
-38.94
-37.65
-35.54
-33.2
-31.2
-29.85
-29.16
-28.9
-28.79
-28.71
-28.66
-28.81
-29.28
-30.12
-31.27
-32.6
-34.04
-35.61
-37.36
-39.24
-41.06
-42.45
-42.95
-42.28
-40.4
-37.62
-34.5
-31.61
-29.31
-27.69
-26.53
-25.54
-24.54
-23.52
-22.65
-22.07
-21.78
-21.59
-21.2
-20.35
-18.92
-16.97
-14.7
-12.34
-10.05
-8
-6.29
-5.06
-4.36
-4.2
-4.45
-4.94
-5.54
-6.2
-7.06
-8.32
-10.21
-12.79
-15.92
-19.19
-22.06
-23.92
-24.29
-22.99
-20.15
-16.2
-11.75
-7.38
-3.49
-0.21
2.55
4.99
7.23
9.24
10.88
11.92
12.27
12
11.34
10.56
9.88
9.38
9.03
8.71
8.29
7.72
6.97
6.01
4.84
3.47
1.96
0.4
-1.12
-2.59
-4.09
-5.82
-7.93
-10.47
-13.33
-16.2
-18.62
-20.11
-20.28
-18.92
-16.13
-12.25
-7.8
-3.32
0.74
4.17
6.92
9.08
10.76
11.98
12.72
12.99
12.82
12.35
11.77
11.22
10.76
10.43
10.18
10
9.86
9.68
9.36
8.77
7.81
6.43
4.7
2.72
0.58
-1.69
-4.12
-6.75
-9.55
-12.33
-14.76
-16.4
-16.85
-15.85
-13.37
-9.67
-5.2
-0.5
3.93
7.76
10.82
13.07
14.56
15.35
15.51
15.12
14.33
13.29
12.25
11.43
11
11.02
11.34
11.72
11.84
11.46
10.54
9.22
7.71
6.24
4.88
3.55
2.08
0.3
-1.89
-4.48
-7.33
-10.19
-12.71
-14.42
-14.91
-13.85
-11.23
-7.28
-2.55
2.39
7.05
11.09
14.4
16.9
18.55
19.33
19.28
18.57
17.54
16.56
15.9
15.62
15.59
15.56
15.32
14.84
14.17
13.42
12.64
11.76
10.64
9.17
7.31
5.18
2.95
0.82
-1.12
-2.89
-4.61
-6.47
-8.68
-11.29
-14.17
-16.96
-19.13
-20.11
-19.51
-17.21
-13.46
-8.71
-3.55
1.49
6.04
9.89
13
15.41
17.18
18.36
19
19.17
18.96
18.5
17.94
17.44
17.14
17.07
17.19
17.32
17.29
16.92
16.17
15.15
14.02
12.96
12.05
11.24
10.36
9.24
7.78
5.97
3.96
1.9
-0.03
-1.75
-3.28
-4.71
-6.21
-7.94
-10.03
-12.55
-15.46
-18.62
-21.72
-24.3
-25.85
-25.91
-24.26
-21.01
-16.6
-11.65
-6.73
-2.2
1.81
5.32
8.33
10.8
12.61
13.71
14.15
14.12
13.86
13.6
13.48
13.51
13.63
13.78
13.9
13.95
13.91
13.78
13.54
13.18
12.72
12.1
11.26
10.11
8.59
6.69
4.48
2.14
-0.14
-2.24
-4.13
-5.89
-7.65
-9.56
-11.67
-13.97
-16.38
-18.74
-20.82
-22.35
-22.98
-22.44
-20.56
-17.41
-13.3
-8.66
-3.98
0.36
4.14
7.31
9.86
11.79
13.07
13.72
13.82
13.54
13.14
12.85
12.79
12.99
13.31
13.54
13.49
13.11
12.45
11.67
10.95
10.36
9.87
9.33
8.54
7.38
5.83
3.98
1.97
-0.05
-1.99
-3.81
-5.51
-7.13
-8.76
-10.52
-12.57
-15
-17.75
-20.59
-23.11
-24.77
-25.1
-23.84
-21.04
-17.03
-12.32
-7.46
-2.83
1.35
4.96
7.91
10.12
11.52
12.12
12.09
11.77
11.49
11.5
11.85
12.38
12.84
13.04
12.95
12.65
12.3
12.02
11.83
11.65
11.33
10.74
9.77
8.39
6.65
4.7
2.69
0.77
-1.02
-2.72
-4.45
-6.35
-8.48
-10.87
-13.5
-16.26
-18.99
-21.41
-23.13
-23.78
-23.13
-21.18
-18.2
-14.6
-10.73
-6.78
-2.79
1.24
5.2
8.85
11.81
13.82
14.75
14.74
14.09
13.17
12.31
11.7
11.4
11.31
11.28
11.19
10.96
10.62
10.24
9.87
9.52
9.1
8.51
7.67
6.57
5.26
3.78
2.19
0.47
-1.35
-3.24
-5.14
-6.98
-8.8
-10.73
-12.93
-15.51
-18.35
-21.07
-23.12
-23.94
-23.25
-21.08
-17.79
-13.85
-9.7
-5.62
-1.75
1.81
4.96
7.58
9.54
10.8
11.41
11.48
11.19
10.74
10.27
9.86
9.51
9.22
8.97
8.81
8.85
9.16
9.7
10.32
10.74
10.69
10.05
8.85
7.24
5.47
3.68
1.94
0.23
-1.52
-3.32
-5.15
-6.99
-8.82
-10.72
-12.78
-15.02
-17.36
-19.51
-21.06
-21.54
-20.65
-18.37
-14.97
-10.99
-6.99
-3.39
-0.37
2.1
4.11
5.79
7.13
8.1
8.69
8.98
9.11
9.24
9.43
9.65
9.79
9.73
9.43
8.96
8.46
8.1
7.97
8
7.96
7.6
6.7
5.23
3.36
1.38
-0.45
-2
-3.27
-4.41
-5.56
-6.87
-8.45
-10.37
-12.63
-15.14
-17.61
-19.64
-20.76
-20.64
-19.18
-16.63
-13.36
-9.82
-6.34
-3.06
-0.02
2.76
5.22
7.24
8.65
9.42
9.61
9.44
9.17
8.99
8.96
9.03
9.06
8.98
8.8
8.61
8.5
8.48
8.44
8.2
7.62
6.61
5.24
3.65
2.02
0.47
-0.94
-2.26
-3.6
-5.07
-6.82
-8.9
-11.31
-14
-16.79
-19.43
-21.56
-22.81
-22.87
-21.59
-19.11
-15.79
-12.09
-8.45
-5.09
-2.05
0.75
3.37
5.72
7.65
9.01
9.74
9.96
9.89
9.79
9.81
9.99
10.24
10.46
10.55
10.49
10.31
10.05
9.73
9.31
8.7
7.86
6.79
5.52
4.12
2.66
1.15
-0.43
-2.1
-3.79
-5.41
-6.87
-8.19
-9.54
-11.17
-13.31
-15.94
-18.72
-21.03
-22.21
-21.78
-19.67
-16.19
-11.9
-7.42
-3.23
0.46
3.6
6.28
8.56
10.48
12
13.05
13.63
13.82
13.82
13.88
14.23
14.99
16.12
17.44
18.69
19.63
20.13
20.21
19.96
19.57
19.18
18.86
18.6
18.36
17.94
17.11
15.57
13.05
9.45
4.91
-0.19
-5.38
-10.26
-14.81
-19.31
-24.19
-29.7
-35.66
-41.39
-45.94
-48.41
-48.24
-45.34
-40
-32.8
-24.46
-15.85
-7.88
-1.44
2.87
4.96
5.29
4.73
4.21
4.42
5.61
7.69
10.31
13.15
15.94
18.55
20.88
22.9
24.59
25.9
26.78
27.11
26.76
25.58
23.63
21.14
18.47
16.02
14.05
12.57
11.38
10.23
8.93
7.44
5.81
4.02
1.88
-1.06
-5.33
-11.31
-18.97
-27.72
-36.43
-43.73
-48.32
-49.33
-46.54
-40.28
-31.4
-21.07
-10.69
-1.74
4.51
7.36
6.94
4.22
0.72
-2.17
-3.62
-3.66
-2.9
-2.08
-1.58
-1.26
-0.68
0.55
2.41
4.48
6.17
7.06
7.12
6.71
6.3
6.21
6.38
6.44
5.88
4.47
2.31
-0.09
-2.14
-3.41
-3.85
-3.85
-4.01
-4.88
-6.78
-9.71
-13.37
-17.23
-20.71
-23.25
-24.41
-23.96
-21.94
-18.62
-14.41
-9.74
-4.96
-0.34
3.94
7.72
10.87
13.29
15.03
16.18
16.93
17.43
17.79
18.02
18.14
18.18
18.24
18.42
18.76
19.22
19.67
19.93
19.84
19.3
18.29
16.85
15.07
13.09
11.04
9.02
7.01
4.97
2.83
0.55
-1.82
-4.19
-6.42
-8.42
-10.18
-11.81
-13.5
-15.53
-18.05
-21.06
-24.21
-26.91
-28.46
-28.28
-26.15
-22.29
-17.24
-11.68
-6.22
-1.23
3.11
6.81
9.92
12.52
14.62
16.23
17.33
17.92
18.06
17.88
17.56
17.28
17.2
17.34
17.61
17.86
17.93
17.77
17.36
16.72
15.87
14.77
13.37
11.67
9.74
7.65
5.5
3.32
1.1
-1.19
-3.57
-5.98
-8.35
-10.57
-12.62
-14.57
-16.55
-18.76
-21.32
-24.2
-27.14
-29.63
-31.05
-30.81
-28.64
-24.64
-19.3
-13.36
-7.55
-2.4
1.83
5.21
7.89
10.1
11.93
13.34
14.27
14.68
14.67
14.44
14.24
14.22
14.42
14.73
14.96
14.95
14.65
14.13
13.49
12.86
12.26
11.67
10.94
9.95
8.57
6.8
4.68
2.35
-0.05
-2.42
-4.69
-6.86
-8.94
-10.93
-12.88
-14.88
-17.04
-19.5
-22.26
-25.2
-27.91
-29.87
-30.47
-29.33
-26.38
-21.93
-16.56
-10.92
-5.53
-0.68
3.56
7.26
10.46
13.18
15.31
16.75
17.47
17.57
17.28
16.89
16.66
16.75
17.16
17.79
18.48
19.1
19.6
19.98
20.23
20.3
20.09
19.49
18.45
16.98
15.15
13.07
10.85
8.61
6.48
4.54
2.84
1.37
0.07
-1.21
-2.63
-4.3
-6.3
-8.53
-10.75
-12.6
-13.67
-13.6
-12.21
-9.51
-5.71
-1.12
3.92
9.18
14.47
19.63
24.45
28.56
31.56
33.12
33.08
31.62
29.13
26.17
23.29
20.93
19.41
18.91
19.43
20.77
22.59
24.43
25.98
27.08
27.82
28.43
29.11
29.92
30.77
31.52
32.03
32.28
32.26
31.98
31.42
30.51
29.17
27.31
24.83
21.56
17.29
11.92
5.47
-1.75
-9.17
-15.97
-21.34
-24.63
-25.57
-24.34
-21.48
-17.7
-13.69
-9.89
-6.53
-3.63
-1.08
1.17
3.06
4.38
4.79
3.91
1.42
-2.81
-8.71
-15.87
-23.64
-31.12
-37.31
-41.34
-42.8
-41.96
-39.83
-37.85
-37.39
-39.21
-43.16
-48.28
-53.28
-57.11
-59.26
-59.87
-59.37
-58.17
-56.51
-54.5
-52.29
-50.2
-48.73
-48.33
-49.34
-51.81
-55.57
-60.25
-65.34
-70.14
-73.78
-75.4
-74.29
-70.22
-63.49
-54.89
-45.45
-36.13
-27.59
-20.13
-13.81
-8.52
-4.17
-0.66
2.12
4.29
6.08
7.68
9.23
10.77
12.23
13.46
14.35
14.91
15.23
15.5
15.82
16.17
16.39
16.24
15.53
14.22
12.45
10.52
8.75
7.35
6.3
5.41
4.33
2.73
0.4
-2.67
-6.24
-9.86
-12.94
-14.86
-15.06
-13.22
-9.33
-3.79
2.74
9.42
15.56
20.76
24.92
28.19
30.76
32.71
34.04
34.71
34.72
34.23
33.48
32.69
32.04
31.6
31.35
31.23
31.14
30.87
30.18
28.83
26.67
23.76
20.36
16.8
13.35
10.13
7.06
3.99
0.75
-2.75
-6.59
-10.76
-15.17
-19.54
-23.43
-26.2
-27.24
-26.15
-22.96
-18.1
-12.32
-6.45
-1.13
3.27
6.75
9.47
11.62
13.29
14.45
14.96
14.77
14.04
13.06
12.21
11.71
11.62
11.76
11.9
11.92
11.83
11.73
11.72
11.69
11.38
10.44
8.64
5.98
2.73
-0.68
-3.84
-6.5
-8.69
-10.67
-12.86
-15.64
-19.17
-23.27
-27.38
-30.7
-32.43
-31.96
-29.11
-24.15
-17.71
-10.58
-3.52
2.88
8.33
12.75
16.2
18.88
20.95
22.58
23.86
24.78
25.34
25.48
25.19
24.48
23.44
22.15
20.75
19.36
18.09
17
16.05
15.1
13.92
12.28
10.02
7.18
3.99
0.87
-1.84
-3.97
-5.66
-7.34
-9.5
-12.52
-16.48
-21.08
-25.68
-29.46
-31.62
-31.58
-29.15
-24.59
-18.56
-11.88
-5.35
0.53
5.62
9.99
13.86
17.38
20.57
23.34
25.53
27.02
27.75
27.8
27.32
26.57
25.79
25.14
24.64
24.16
23.52
22.55
21.18
19.46
17.45
15.2
12.69
9.9
6.88
3.79
0.88
-1.68
-3.83
-5.74
-7.76
-10.31
-13.63
-17.66
-22
-25.99
-28.85
-29.97
-28.98
-25.92
-21.2
-15.42
-9.27
-3.3
2.2
7.12
11.51
15.45
18.9
21.76
23.89
25.22
25.76
25.7
25.29
24.74
24.23
23.77
23.31
22.76
22.1
21.39
20.77
20.3
19.89
19.24
17.93
15.61
12.23
8.04
3.58
-0.59
-4.09
-6.86
-9.13
-11.3
-13.8
-16.9
-20.75
-25.18
-29.75
-33.82
-36.63
-37.57
-36.39
-33.22
-28.57
-23.1
-17.42
-11.92
-6.77
-1.96
2.5
6.53
9.97
12.72
14.8
16.38
17.7
18.97
20.27
21.58
22.77
23.79
24.69
25.64
26.84
28.38
30.19
32
33.44
34.14
33.92
32.82
31.13
29.25
27.6
26.36
25.53
24.84
23.95
22.5
20.26
17.15
13.23
8.77
4.21
0.09
-2.99
-4.64
-4.75
-3.67
-2.06
-0.71
-0.23
-0.87
-2.45
-4.53
-6.63
-8.44
-9.89
-11.13
-12.43
-14.06
-16.18
-18.79
-21.77
-24.84
-27.74
-30.22
-32.14
-33.44
-34.13
-34.23
-33.79
-32.88
-31.59
-30.06
-28.36
-26.54
-24.63
-22.75
-21.15
-20.17
-20.15
-21.18
-23
-25.03
-26.47
-26.64
-25.11
-21.92
-17.46
-12.33
-7.18
-2.44
1.66
5.09
7.95
10.32
12.17
13.43
14.05
14.06
13.65
13.07
12.59
12.37
12.42
12.61
12.75
12.69
12.34
11.68
10.75
9.57
8.15
6.46
4.5
2.31
-0.01
-2.35
-4.57
-6.66
-8.62
-10.58
-12.65
-14.99
-17.65
-20.49
-23.19
-25.23
-26.08
-25.36
-23.05
-19.45
-15.12
-10.59
-6.3
-2.47
0.84
3.61
5.81
7.42
8.45
8.96
9.08
8.96
8.7
8.38
8.05
7.71
7.37
6.99
6.5
5.87
5.09
4.21
3.29
2.35
1.35
0.21
-1.14
-2.7
-4.38
-6.06
-7.73
-9.45
-11.44
-13.86
-16.77
-19.93
-22.86
-24.96
-25.71
-24.84
-22.47
-19
-14.97
-10.95
-7.31
-4.21
-1.61
0.61
2.57
4.29
5.65
6.51
6.82
6.66
6.26
5.85
5.61
5.54
5.52
5.41
5.14
4.72
4.21
3.64
2.98
2.12
0.99
-0.42
-2.01
-3.64
-5.18
-6.57
-7.89
-9.27
-10.86
-12.74
-14.88
-17.08
-18.95
-20.04
-19.92
-18.37
-15.43
-11.45
-6.99
-2.61
1.29
4.56
7.27
9.64
11.82
13.8
15.44
16.53
16.96
16.82
16.41
16.1
16.18
16.7
17.44
18.01
18.01
17.22
15.72
13.79
11.8
9.99
8.4
6.87
5.16
3.11
0.7
-1.97
-4.74
-7.52
-10.25
-12.82
-14.97
-16.24
-16.12
-14.33
-10.9
-6.27
-1.12
3.94
8.59
12.84
16.89
20.88
24.74
28.17
30.78
32.33
32.83
32.63
32.23
32.15
32.71
33.98
35.76
37.69
39.32
40.3
40.45
39.78
38.39
36.39
33.77
30.37
26.03
20.64
14.33
7.4
0.21
-6.99
-14.19
-21.52
-29.12
-36.86
-44.31
-50.78
-55.55
-58.14
-58.42
-56.7
-53.48
-49.34
-44.75
-40.02
-35.33
-30.83
-26.65
-22.89
-19.65
-16.94
-14.68
-12.78
-11.12
-9.59
-8.15
-6.76
-5.44
-4.19
-3.03
-1.99
-1.07
-0.32
0.19
0.39
0.19
-0.39
-1.27
-2.33
-3.44
-4.52
-5.58
-6.73
-8.11
-9.88
-12.13
-14.76
-17.47
-19.77
-21.08
-20.98
-19.31
-16.32
-12.53
-8.54
-4.86
-1.7
0.98
3.38
5.7
7.97
10.01
11.5
12.07
11.58
10.17
8.27
6.46
5.2
4.69
4.73
4.94
4.87
4.27
3.1
1.55
-0.2
-1.98
-3.73
-5.44
-7.12
-8.76
-10.38
-12
-13.68
-15.44
-17.16
-18.57
-19.32
-19.07
-17.69
-15.27
-12.1
-8.62
-5.19
-2.05
0.7
3.07
5.07
6.69
7.84
8.47
8.54
8.1
7.31
6.37
5.5
4.81
4.33
3.95
3.51
2.83
1.84
0.55
-0.93
-2.47
-3.98
-5.45
-6.96
-8.63
-10.55
-12.77
-15.24
-17.84
-20.36
-22.49
-23.9
-24.24
-23.24
-20.85
-17.2
-12.64
-7.62
-2.48
2.53
7.32
11.81
15.9
19.36
21.94
23.5
24.04
23.77
23.01
22.05
21.07
20.08
19
17.67
15.99
13.92
11.54
9.02
6.59
4.44
2.67
1.25
0.04
-1.16
-2.48
-4.01
-5.75
-7.69
-9.81
-12.05
-14.21
-15.99
-16.94
-16.67
-14.96
-11.89
-7.9
-3.52
0.7
4.41
7.51
10.06
12.21
14.05
15.59
16.76
17.48
17.7
17.45
16.83
15.99
15.05
14.13
13.29
12.5
11.71
10.85
9.92
8.88
7.75
6.51
5.12
3.62
2.01
0.39
-1.19
-2.73
-4.35
-6.24
-8.55
-11.28
-14.23
-16.96
-18.91
-19.62
-18.86
-16.73
-13.61
-10.05
-6.53
-3.36
-0.63
1.72
3.86
5.91
7.87
9.67
11.17
12.26
12.9
13.16
13.19
13.15
13.14
13.15
13.1
12.89
12.5
11.98
11.46
11.04
10.73
10.43
9.96
9.11
7.76
5.97
3.9
1.8
-0.09
-1.69
-3.08
-4.45
-6.01
-7.87
-10.03
-12.38
-14.77
-17.1
-19.19
-20.83
-21.75
-21.63
-20.31
-17.84
-14.54
-10.89
-7.32
-4.08
-1.16
1.59
4.34
7.1
9.68
11.8
13.26
13.96
14.03
13.69
13.18
12.67
12.16
11.61
10.95
10.2
9.48
8.96
8.69
8.6
8.45
7.96
6.92
5.31
3.32
1.2
-0.77
-2.42
-3.69
-4.64
-5.38
-6.08
-6.95
-8.19
-9.92
-12.14
-14.69
-17.26
-19.46
-20.85
-21.11
-20.08
-17.88
-14.88
-11.58
-8.47
-5.79
-3.55
-1.57
0.36
2.31
4.17
5.77
6.95
7.73
8.21
8.54
8.8
8.99
9.07
9.06
9.02
9.07
9.24
9.49
9.65
9.55
9.05
8.11
6.81
5.29
3.7
2.15
0.73
-0.54
-1.65
-2.64
-3.64
-4.77
-6.17
-7.84
-9.59
-11.04
-11.77
-11.46
-10.04
-7.79
-5.2
-2.74
-0.69
0.93
2.33
3.74
5.26
6.77
7.99
8.73
8.92
8.72
8.38
8.12
8.01
7.98
7.92
7.79
7.62
7.52
7.51
7.51
7.35
6.86
5.95
4.69
3.21
1.65
0.11
-1.39
-2.86
-4.31
-5.78
-7.33
-9.07
-11.1
-13.41
-15.77
-17.75
-18.84
-18.6
-16.93
-14.04
-10.45
-6.74
-3.37
-0.56
1.73
3.66
5.4
6.99
8.39
9.5
10.22
10.54
10.55
10.39
10.16
9.96
9.77
9.57
9.31
8.97
8.57
8.12
7.62
7
6.17
5.03
3.57
1.83
0
-1.75
-3.32
-4.71
-6.05
-7.53
-9.31
-11.47
-13.91
-16.35
-18.36
-19.5
-19.43
-18.05
-15.52
-12.18
-8.48
-4.83
-1.5
1.34
3.65
5.43
6.75
7.74
8.55
9.33
10.13
10.9
11.47
11.68
11.47
10.87
10.04
9.2
8.51
8.1
7.97
8.04
8.14
8.04
7.56
6.57
5.08
3.18
1.03
-1.23
-3.47
-5.65
-7.74
-9.78
-11.81
-13.87
-15.93
-17.84
-19.31
-20.04
-19.85
-18.75
-16.95
-14.7
-12.25
-9.68
-7.01
-4.23
-1.43
1.25
3.62
5.54
6.94
7.81
8.18
8.1
7.72
7.22
6.81
6.62
6.7
6.93
7.11
7.03
6.53
5.58
4.28
2.79
1.3
-0.08
-1.29
-2.37
-3.4
-4.5
-5.81
-7.47
-9.57
-12.1
-14.88
-17.52
-19.55
-20.5
-20.04
-18.15
-15.06
-11.23
-7.2
-3.45
-0.28
2.18
4.02
5.4
6.49
7.45
8.29
8.99
9.45
9.6
9.45
9.09
8.68
8.39
8.33
8.49
8.72
8.83
8.65
8.12
7.31
6.31
5.15
3.83
2.23
0.34
-1.79
-4.08
-6.46
-8.96
-11.63
-14.49
-17.32
-19.76
-21.27
-21.42
-20.03
-17.27
-13.61
-9.63
-5.86
-2.6
0.08
2.25
4.07
5.58
6.79
7.63
8.08
8.24
8.25
8.28
8.38
8.48
8.48
8.3
7.98
7.66
7.45
7.36
7.25
6.91
6.12
4.82
3.09
1.11
-0.92
-2.85
-4.64
-6.42
-8.34
-10.57
-13.13
-15.83
-18.27
-19.98
-20.53
-19.7
-17.52
-14.21
-10.14
-5.65
-1.07
3.34
7.36
10.84
13.68
15.9
17.58
18.83
19.77
20.53
21.15
21.7
22.21
22.71
23.25
23.89
24.7
25.69
26.82
27.89
28.64
28.75
27.92
26.01
23.07
19.33
15.22
11.21
7.69
4.89
2.78
1.15
-0.28
-1.65
-2.97
-3.99
-4.48
-4.29
-3.48
-2.3
-1
0.19
1.12
1.71
1.85
1.45
0.52
-0.76
-1.98
-2.69
-2.59
-1.73
-0.5
0.53
0.94
0.64
-0.08
-0.75
-1.03
-1
-1.11
-2.05
-4.31
-7.99
-12.77
-18.06
-23.29
-28.09
-32.29
-35.87
-38.82
-41.2
-43.15
-44.97
-46.98
-49.38
-52.05
-54.52
-56.18
-56.51
-55.37
-52.96
-49.83
-46.54
-43.5
-40.75
-37.98
-34.67
-30.29
-24.6
-17.78
-10.48
-3.6
2.03
5.92
8.12
9.11
9.59
10.15
11.09
12.44
14.01
15.62
17.15
18.6
19.95
21.13
21.97
22.27
21.92
20.98
19.69
18.32
17.02
15.72
14.17
12.06
9.15
5.44
1.15
-3.27
-7.2
-9.95
-10.95
-9.92
-6.98
-2.65
2.33
7.3
11.86
15.92
19.59
23
26.12
28.78
30.73
31.8
32.01
31.53
30.63
29.58
28.52
27.53
26.57
25.6
24.56
23.47
22.36
21.3
20.29
19.26
18.05
16.48
14.38
11.71
8.52
5.05
1.58
-1.61
-4.39
-6.78
-9.02
-11.46
-14.41
-18.05
-22.27
-26.67
-30.59
-33.3
-34.14
-32.78
-29.24
-23.95
-17.56
-10.78
-4.2
1.84
7.2
11.86
15.84
19.07
21.46
22.94
23.57
23.54
23.13
22.59
22.09
21.64
21.14
20.5
19.66
18.65
17.57
16.46
15.35
14.14
12.72
10.97
8.87
6.46
3.85
1.17
-1.43
-3.86
-6.05
-8.05
-10.04
-12.31
-15.21
-18.95
-23.36
-27.94
-31.83
-34.17
-34.31
-32.09
-27.83
-22.17
-15.83
-9.43
-3.4
1.96
6.5
10.15
12.94
14.99
16.42
17.39
17.98
18.22
18.14
17.84
17.45
17.13
16.95
16.89
16.81
16.51
15.86
14.78
13.3
11.52
9.54
7.43
5.22
2.91
0.53
-1.91
-4.43
-7.14
-10.2
-13.77
-17.8
-21.95
-25.53
-27.66
-27.58
-24.98
-20.11
-13.76
-6.92
-0.46
5.15
9.81
13.69
16.95
19.63
21.63
22.84
23.23
22.96
22.25
21.35
20.42
19.53
18.68
17.88
17.18
16.68
16.42
16.33
16.23
15.8
14.71
12.76
9.96
6.55
2.98
-0.31
-3.03
-5.14
-6.89
-8.68
-10.96
-14.04
-17.99
-22.58
-27.27
-31.31
-33.84
-34.19
-32.02
-27.47
-21.16
-13.97
-6.81
-0.38
4.94
9.05
12.08
14.14
15.35
15.84
15.74
15.26
14.64
14.15
13.92
13.99
14.25
14.55
14.76
14.77
14.55
14.13
13.53
12.71
11.57
9.95
7.74
4.97
1.87
-1.24
-4.11
-6.6
-8.86
-11.18
-13.91
-17.22
-21.07
-25.14
-28.92
-31.79
-33.15
-32.56
-29.82
-25.07
-18.85
-11.92
-5.15
0.8
5.57
9.19
11.91
14.03
15.74
17.03
17.79
17.93
17.46
16.56
15.51
14.55
13.82
13.3
12.89
12.47
11.96
11.33
10.54
9.48
8.06
6.17
3.85
1.25
-1.38
-3.84
-6.06
-8.16
-10.39
-13
-16.11
-19.54
-22.85
-25.45
-26.72
-26.26
-24.01
-20.21
-15.34
-9.98
-4.62
0.36
4.73
8.37
11.26
13.43
14.94
15.9
16.41
16.53
16.34
15.89
15.26
14.57
13.92
13.36
12.86
12.35
11.73
10.92
9.87
8.56
6.98
5.15
3.12
1
-1.13
-3.16
-5.09
-6.96
-8.89
-10.98
-13.36
-16.06
-19.04
-22.03
-24.57
-26.08
-26.01
-24.11
-20.48
-15.67
-10.38
-5.27
-0.79
2.92
5.89
8.18
9.84
10.89
11.38
11.43
11.22
10.92
10.65
10.44
10.24
9.99
9.64
9.19
8.75
8.46
8.42
8.62
8.88
8.88
8.32
7.05
5.09
2.69
0.16
-2.26
-4.47
-6.51
-8.5
-10.59
-12.92
-15.59
-18.63
-21.91
-25
-27.28
-28.1
-26.99
-23.87
-19.17
-13.62
-8
-2.89
1.42
4.89
7.61
9.62
10.97
11.71
11.95
11.87
11.67
11.45
11.26
11.07
10.86
10.62
10.41
10.29
10.28
10.34
10.36
10.15
9.54
8.39
6.66
4.48
2.05
-0.33
-2.45
-4.3
-6.01
-7.83
-10
-12.59
-15.52
-18.51
-21.14
-22.96
-23.52
-22.57
-20.06
-16.27
-11.69
-6.92
-2.45
1.44
4.7
7.41
9.67
11.51
12.91
13.88
14.45
14.74
14.86
14.89
14.85
14.74
14.53
14.23
13.9
13.56
13.27
13.01
12.69
12.24
11.53
10.47
9.03
7.21
5.09
2.8
0.51
-1.6
-3.35
-4.7
-5.79
-6.87
-8.33
-10.43
-13.3
-16.87
-20.85
-24.91
-28.64
-31.65
-33.53
-33.91
-32.54
-29.38
-24.71
-19.05
-13.03
-7.23
-1.98
2.67
6.83
10.64
14.17
17.36
20.08
22.26
23.9
25.06
25.77
25.92
25.25
23.48
20.42
16.14
11.03
5.66
0.62
-3.71
-7.21
-10.01
-12.32
-14.31
-15.99
-17.23
-17.92
-18.06
-17.87
-17.7
-17.96
-18.88
-20.55
-22.79
-25.3
-27.66
-29.39
-30.05
-29.35
-27.17
-23.66
-19.2
-14.3
-9.43
-4.91
-0.91
2.54
5.49
7.91
9.81
11.16
12.04
12.54
12.81
12.95
13.04
13.07
13.04
12.93
12.73
12.44
12.05
11.56
10.94
10.15
9.09
7.68
5.83
3.61
1.16
-1.27
-3.47
-5.32
-6.86
-8.28
-9.8
-11.63
-13.88
-16.56
-19.47
-22.22
-24.25
-24.98
-24.02
-21.31
-17.23
-12.43
-7.58
-3.13
0.71
3.98
6.78
9.12
10.91
12.05
12.48
12.3
11.68
10.85
10.02
9.32
8.77
8.33
7.9
7.37
6.65
5.73
4.66
3.49
2.22
0.8
-0.84
-2.82
-5.16
-7.77
-10.47
-13.03
-15.25
-17.03
-18.37
-19.34
-20.01
-20.52
-20.96
-21.45
-22.1
-22.96
-23.96
-24.87
-25.29
-24.79
-23.03
-19.9
-15.58
-10.54
-5.33
-0.39
4.05
7.99
11.51
14.65
17.33
19.38
20.69
21.33
21.57
21.74
22.11
22.74
23.47
24.08
24.42
24.44
24.24
23.93
23.55
23.05
22.3
21.17
19.58
17.51
15.03
12.24
9.32
6.45
3.81
1.51
-0.42
-2.09
-3.69
-5.4
-7.38
-9.67
-12.24
-14.95
-17.63
-19.98
-21.62
-22.12
-21.12
-18.53
-14.55
-9.74
-4.76
-0.2
3.61
6.66
9.17
11.36
13.34
15.11
16.55
17.6
18.26
18.64
18.88
19.07
19.24
19.32
19.24
18.97
18.51
17.95
17.4
16.89
16.36
15.67
14.7
13.4
11.82
10.1
8.33
6.57
4.77
2.88
0.88
-1.15
-3.09
-4.83
-6.3
-7.59
-8.86
-10.35
-12.27
-14.73
-17.68
-20.88
-23.84
-25.94
-26.62
-25.52
-22.74
-18.72
-14.16
-9.69
-5.64
-2.08
1.18
4.28
7.24
9.84
11.84
13.07
13.6
13.68
13.61
13.64
13.8
13.99
14.07
13.96
13.71
13.45
13.29
13.24
13.16
12.88
12.29
11.38
10.29
9.15
8.03
6.85
5.48
3.83
1.96
0.03
-1.78
-3.38
-4.84
-6.31
-7.99
-9.99
-12.34
-14.96
-17.72
-20.4
-22.69
-24.22
-24.6
-23.58
-21.13
-17.51
-13.16
-8.6
-4.24
-0.29
3.17
6.13
8.57
10.39
11.54
12.03
12
11.7
11.34
11.06
10.85
10.67
10.42
10.12
9.8
9.54
9.43
9.43
9.43
9.23
8.64
7.51
5.88
3.93
1.92
0.09
-1.4
-2.59
-3.67
-4.91
-6.57
-8.78
-11.52
-14.53
-17.35
-19.43
-20.23
-19.46
-17.13
-13.58
-9.3
-4.85
-0.63
3.13
6.33
8.96
11
12.45
13.3
13.58
13.39
12.86
12.14
11.39
10.75
10.28
9.99
9.78
9.54
9.2
8.76
8.3
7.86
7.44
6.89
6.07
4.83
3.19
1.3
-0.62
-2.35
-3.8
-4.98
-6.04
-7.17
-8.52
-10.23
-12.33
-14.8
-17.49
-20.12
-22.31
-23.61
-23.64
-22.23
-19.48
-15.73
-11.51
-7.3
-3.47
-0.16
2.59
4.87
6.75
8.28
9.49
10.41
11.08
11.53
11.79
11.85
11.68
11.24
10.53
9.62
8.64
7.72
6.99
6.47
6.06
5.58
4.77
3.45
1.59
-0.67
-3.04
-5.18
-6.89
-8.12
-9
-9.8
-10.81
-12.22
-14.09
-16.33
-18.65
-20.59
-21.68
-21.53
-20.02
-17.36
-13.98
-10.44
-7.14
-4.28
-1.8
0.47
2.7
4.89
6.89
8.49
9.48
9.86
9.75
9.43
9.18
9.18
9.4
9.72
9.92
9.83
9.36
8.53
7.39
6
4.45
2.82
1.23
-0.27
-1.64
-2.95
-4.34
-5.93
-7.81
-9.98
-12.31
-14.64
-16.7
-18.22
-18.86
-18.32
-16.39
-13.08
-8.68
-3.71
1.15
5.3
8.4
10.41
11.61
12.44
13.38
14.78
16.81
19.36
22.17
24.87
27.13
28.88
30.37
32.16
34.91
39.02
44.4
50.29
55.5
58.79
59.35
57.04
52.41
46.44
40.2
34.62
30.37
27.78
26.8
26.95
27.45
27.59
27.23
27.11
28.64
33.25
41.35
51.77
61.92
68.67
69.75
64.68
54.86
42.76
30.78
20.32
11.61
4.23
-2.27
-7.81
-11.97
-14.39
-15.2
-15.12
-15.13
-15.93
-17.57
-19.4
-20.45
-19.96
-17.69
-14.04
-9.71
-5.31
-1.11
2.97
7.07
11.13
14.61
16.67
16.46
13.5
7.97
0.78
-6.79
-13.49
-18.56
-21.96
-24.32
-26.61
-29.68
-33.85
-38.83
-43.88
-48.19
-51.23
-52.9
-53.52
-53.61
-53.68
-54.08
-54.96
-56.29
-57.88
-59.44
-60.68
-61.33
-61.27
-60.53
-59.24
-57.6
-55.79
-53.98
-52.27
-50.78
-49.61
-48.81
-48.42
-48.38
-48.59
-48.97
-49.4
-49.89
-50.54
-51.49
-52.76
-54.18
-55.28
-55.39
-53.89
-50.39
-44.92
-37.91
-30.01
-21.93
-14.26
-7.37
-1.45
3.47
7.44
10.59
13.1
15.08
16.66
17.87
18.67
19.04
18.97
18.54
17.89
17.21
16.69
16.37
16.2
16.02
15.6
14.82
13.68
12.35
11.09
10.13
9.58
9.42
9.4
9.18
8.43
6.88
4.45
1.3
-2.22
-5.59
-8.28
-9.84
-10.03
-8.89
-6.63
-3.6
-0.2
3.18
6.11
8.24
9.28
9.1
7.77
5.5
2.55
-0.86
-4.54
-8.23
-11.53
-13.97
-15.15
-14.91
-13.47
-11.21
-8.5
-5.58
-2.49
0.69
3.7
6.11
7.44
7.47
6.29
4.29
1.98
-0.3
-2.46
-4.65
-7.17
-10.26
-13.92
-17.89
-21.56
-24.2
-25.2
-24.3
-21.77
-18.22
-14.38
-10.74
-7.41
-4.22
-0.96
2.41
5.73
8.68
11.01
12.67
13.78
14.56
15.19
15.73
16.08
16.12
15.76
15.01
13.97
12.85
11.85
11.12
10.64
10.23
9.55
8.23
6.09
3.25
0.19
-2.38
-3.83
-3.94
-3.04
-1.88
-1.4
-2.17
-4.17
-6.67
-8.48
-8.42
-5.8
-0.71
6.11
13.53
20.55
26.58
31.59
35.88
39.82
43.66
47.43
50.96
53.8
55.19
54.17
50.02
42.98
34.71
28.25
27.12
33.85
48.71
69.38
91.63
111.01
124.38
130.79
131.25
127.73
122.11
115.49
108.11
99.78
90.24
79.55
68.04
56.11
44.1
32.15
20.22
8.37
-3.06
-13.33
-21.43
-26.36
-27.52
-25.05
-19.82
-13.27
-6.86
-1.68
1.9
4.2
5.9
7.64
9.58
11.38
12.35
11.95
10.12
7.4
4.61
2.47
1.19
0.49
-0.18
-1.25
-2.87
-5.1
-8.04
-12.06
-17.54
-24.63
-32.88
-41.38
-49.07
-55.38
-60.41
-64.89
-69.58
-74.74
-79.87
-83.84
-85.52
-84.22
-79.97
-73.38
-65.26
-56.33
-47.16
-38.2
-29.81
-22.21
-15.31
-8.75
-2.04
5.02
12.11
18.41
22.92
25
24.65
22.5
19.52
16.45
13.7
11.13
8.44
5.34
1.87
-1.64
-4.64
-6.63
-7.43
-7.23
-6.66
-6.41
-7.02
-8.63
-10.96
-13.51
-15.75
-17.28
-17.83
-17.25
-15.47
-12.63
-9.2
-5.92
-3.67
-3.15
-4.63
-7.82
-12
-16.36
-20.24
-23.34
-25.72
-27.62
-29.31
-30.95
-32.51
-33.87
-34.88
-35.45
-35.59
-35.41
-35.06
-34.62
-34.18
-33.72
-33.26
-32.84
-32.53
-32.4
-32.51
-32.81
-33.23
-33.71
-34.3
-35.11
-36.26
-37.7
-39.12
-39.95
-39.56
-37.48
-33.65
-28.48
-22.66
-16.93
-11.82
-7.54
-4.01
-1.04
1.48
3.56
5.08
5.95
6.15
5.83
5.24
4.65
4.28
4.22
4.4
4.67
4.8
4.6
4
3.01
1.75
0.32
-1.2
-2.83
-4.64
-6.8
-9.41
-12.47
-15.82
-19.11
-21.79
-23.34
-23.35
-21.72
-18.7
-14.75
-10.42
-6.16
-2.18
1.44
4.68
7.41
9.41
10.47
10.52
9.73
8.44
7.09
6.06
5.55
5.55
5.87
6.24
6.4
6.1
5.27
3.91
2.19
0.33
-1.47
-3.12
-4.72
-6.45
-8.58
-11.21
-14.23
-17.27
-19.78
-21.18
-21.06
-19.3
-16.06
-11.81
-7.07
-2.38
1.87
5.42
8.14
9.98
10.91
10.94
10.17
8.8
7.15
5.63
4.54
4.06
4.1
4.39
4.58
4.41
3.81
2.89
1.83
0.76
-0.35
-1.68
-3.46
-5.86
-8.92
-12.44
-16.09
-19.43
-21.96
-23.29
-23.16
-21.5
-18.52
-14.61
-10.22
-5.78
-1.55
2.31
5.72
8.57
10.7
11.94
12.21
11.6
10.36
8.84
7.41
6.31
5.67
5.41
5.36
5.3
5.04
4.45
3.54
2.35
0.91
-0.78
-2.78
-5.22
-8.14
-11.51
-15.03
-18.21
-20.48
-21.32
-20.44
-17.89
-14.02
-9.38
-4.53
0.09
4.21
7.79
10.88
13.55
15.81
17.59
18.74
19.16
18.85
18.04
17.06
16.29
15.95
16.01
16.26
16.37
16.13
15.44
14.42
13.26
12.13
10.97
9.58
7.53
4.47
0.27
-4.85
-10.38
-15.62
-19.92
-22.83
-24.09
-23.62
-21.47
-17.78
-12.9
-7.36
-1.77
3.34
7.66
11.15
14.01
16.39
18.36
19.85
20.76
21.06
20.85
20.33
19.74
19.24
18.9
18.71
18.63
18.56
18.45
18.18
17.64
16.71
15.33
13.47
11.23
8.78
6.32
3.97
1.69
-0.65
-3.28
-6.37
-9.93
-13.75
-17.39
-20.27
-21.77
-21.42
-19.08
-14.97
-9.68
-3.96
1.49
6.22
10.11
13.29
16
18.4
20.47
22.06
23
23.16
22.65
21.67
20.55
19.56
18.85
18.42
18.18
18.02
17.83
17.54
17.1
16.4
15.34
13.83
11.9
9.65
7.26
4.9
2.69
0.62
-1.36
-3.35
-5.49
-7.88
-10.65
-13.77
-17.01
-19.85
-21.59
-21.55
-19.37
-15.23
-9.78
-3.92
1.56
6.21
10
13.18
15.99
18.56
20.82
22.62
23.88
24.65
25.05
25.19
25.15
24.86
24.25
23.24
21.87
20.22
18.49
16.84
15.4
14.23
13.3
12.43
11.43
10.07
8.29
6.15
3.89
1.81
0.13
-1.14
-2.12
-3.08
-4.31
-6.01
-8.29
-11.13
-14.37
-17.73
-20.71
-22.72
-23.2
-21.81
-18.6
-14
-8.72
-3.48
1.19
5.07
8.22
10.83
13.05
14.95
16.49
17.58
18.17
18.32
18.19
17.94
17.71
17.58
17.53
17.53
17.51
17.44
17.28
17.04
16.67
16.09
15.16
13.76
11.89
9.62
7.18
4.85
2.83
1.2
-0.17
-1.51
-3.07
-5.01
-7.36
-9.99
-12.67
-15.1
-16.96
-17.93
-17.81
-16.55
-14.27
-11.23
-7.73
-4.02
-0.27
3.38
6.81
9.85
12.33
14.09
15.08
15.35
15.09
14.54
13.93
13.41
13.04
12.79
12.62
12.45
12.27
12.09
11.93
11.8
11.6
11.24
10.58
9.54
8.11
6.38
4.48
2.53
0.61
-1.24
-3.08
-4.98
-7
-9.22
-11.59
-14.01
-16.23
-17.91
-18.64
-18.13
-16.28
-13.23
-9.34
-5.07
-0.83
3.09
6.54
9.43
11.67
13.18
13.87
13.73
12.9
11.61
10.17
8.85
7.85
7.24
6.99
7.02
7.21
7.45
7.66
7.77
7.68
7.29
6.53
5.39
3.97
2.42
0.89
-0.56
-2.01
-3.64
-5.58
-7.85
-10.25
-12.37
-13.75
-14.06
-13.15
-11.14
-8.28
-4.9
-1.29
2.27
5.47
8.04
9.71
10.4
10.14
9.17
7.8
6.31
4.89
3.67
2.72
2.12
1.92
2.12
2.59
3.11
3.41
3.31
2.77
1.88
0.77
-0.43
-1.68
-3
-4.45
-6.08
-7.95
-10.07
-12.41
-14.88
-17.22
-19.13
-20.22
-20.2
-18.97
-16.65
-13.61
-10.26
-6.99
-4.03
-1.47
0.68
2.46
3.87
4.87
5.46
5.62
5.45
5.07
4.64
4.27
3.97
3.67
3.26
2.7
2.01
1.3
0.68
0.2
-0.18
-0.62
-1.3
-2.34
-3.74
-5.46
-7.39
-9.39
-11.35
-13.1
-14.43
-15.07
-14.8
-13.47
-11.18
-8.18
-4.89
-1.7
1.08
3.35
5.17
6.64
7.82
8.71
9.21
9.24
8.81
8.04
7.12
6.28
5.65
5.27
5.08
4.98
4.89
4.78
4.62
4.39
3.98
3.31
2.29
0.87
-0.93
-3.06
-5.45
-8.02
-10.61
-12.97
-14.73
-15.54
-15.17
-13.62
-11.16
-8.2
-5.16
-2.35
0.13
2.32
4.29
6.09
7.66
8.83
9.48
9.55
9.11
8.4
7.66
7.14
6.91
6.93
7.03
7.01
6.74
6.23
5.56
4.88
4.27
3.71
3.07
2.19
0.93
-0.77
-2.86
-5.15
-7.39
-9.24
-10.38
-10.51
-9.48
-7.3
-4.17
-0.43
3.52
7.32
10.67
13.39
15.36
16.58
17.18
17.38
17.45
17.62
17.96
18.38
18.7
18.71
18.32
17.56
16.56
15.44
14.3
13.14
11.87
10.47
8.9
7.22
5.47
3.67
1.78
-0.33
-2.73
-5.48
-8.46
-11.41
-13.99
-15.83
-16.68
-16.42
-15.12
-13.01
-10.35
-7.45
-4.51
-1.71
0.83
3.05
4.88
6.27
7.2
7.66
7.7
7.39
6.8
6.06
5.24
4.43
3.69
3.01
2.34
1.62
0.83
-0.01
-0.77
-1.37
-1.72
-1.9
-2.05
-2.42
-3.22
-4.53
-6.29
-8.24
-10.06
-11.36
-11.87
-11.44
-10.09
-8.05
-5.59
-3.01
-0.53
1.7
3.63
5.25
6.51
7.38
7.83
7.85
7.57
7.14
6.77
6.62
6.72
7
7.28
7.4
7.27
6.89
6.33
5.64
4.83
3.9
2.82
1.61
0.3
-1.12
-2.71
-4.57
-6.69
-8.96
-11.08
-12.66
-13.38
-13.04
-11.7
-9.52
-6.8
-3.78
-0.7
2.26
4.95
7.28
9.21
10.77
11.98
12.88
13.45
13.7
13.65
13.39
13.03
12.68
12.39
12.14
11.85
11.48
10.99
10.41
9.76
9.03
8.17
7.11
5.84
4.4
2.86
1.39
0.06
-1.04
-1.94
-2.72
-3.52
-4.44
-5.52
-6.7
-7.88
-8.98
-10.01
-11.1
-12.42
-14.05
-15.96
-17.93
-19.62
-20.73
-21.05
-20.49
-19.09
-16.95
-14.25
-11.19
-8.04
-5.05
-2.41
-0.21
1.61
3.17
4.56
5.78
6.75
7.39
7.65
7.63
7.53
7.56
7.79
8.16
8.47
8.53
8.24
7.66
6.9
6.08
5.25
4.33
3.27
2.03
0.68
-0.63
-1.76
-2.67
-3.41
-4.14
-4.98
-5.99
-7.17
-8.44
-9.8
-11.27
-12.95
-14.85
-16.85
-18.65
-19.87
-20.16
-19.37
-17.59
-15.12
-12.31
-9.43
-6.66
-4.05
-1.62
0.56
2.42
3.88
4.92
5.61
6.07
6.48
6.94
7.5
8.12
8.7
9.14
9.42
9.51
9.44
9.27
9.01
8.66
8.21
7.59
6.75
5.63
4.2
2.5
0.64
-1.2
-2.81
-4.08
-5.05
-5.9
-6.88
-8.19
-9.94
-12.03
-14.27
-16.38
-18.09
-19.16
-19.44
-18.86
-17.45
-15.38
-12.86
-10.15
-7.42
-4.8
-2.34
-0.1
1.88
3.52
4.76
5.63
6.16
6.44
6.51
6.41
6.17
5.84
5.53
5.37
5.38
5.51
5.61
5.51
5.13
4.51
3.79
3.1
2.48
1.84
1
-0.14
-1.56
-3.11
-4.57
-5.82
-6.9
-7.98
-9.24
-10.79
-12.55
-14.29
-15.73
-16.64
-16.89
-16.44
-15.34
-13.68
-11.53
-8.98
-6.16
-3.21
-0.37
2.1
3.98
5.14
5.61
5.56
5.28
4.99
4.86
4.92
5.05
5.15
5.11
4.95
4.72
4.52
4.36
4.14
3.77
3.14
2.27
1.29
0.32
-0.57
-1.38
-2.2
-3.07
-4.01
-4.99
-5.96
-6.97
-8.09
-9.35
-10.69
-11.86
-12.52
-12.37
-11.27
-9.29
-6.71
-3.87
-1.1
1.39
3.46
5.06
6.15
6.73
6.84
6.62
6.24
5.87
5.67
5.68
5.86
6.11
6.33
6.46
6.47
6.4
6.26
6.08
5.79
5.33
4.62
3.62
2.36
0.93
-0.53
-1.92
-3.2
-4.44
-5.73
-7.21
-8.94
-10.92
-13.01
-14.97
-16.51
-17.31
-17.17
-16.01
-13.97
-11.33
-8.43
-5.57
-2.95
-0.58
1.55
3.46
5.09
6.29
6.93
7
6.6
5.96
5.34
4.94
4.82
4.91
5.1
5.25
5.28
5.15
4.82
4.26
3.48
2.51
1.42
0.3
-0.76
-1.75
-2.76
-3.92
-5.41
-7.31
-9.59
-12
-14.17
-15.7
-16.25
-15.72
-14.2
-11.94
-9.26
-6.42
-3.58
-0.85
1.68
3.93
5.8
7.23
8.17
8.64
8.72
8.5
8.11
7.71
7.38
7.16
7.02
6.84
6.55
6.08
5.4
4.57
3.63
2.63
1.59
0.49
-0.68
-1.95
-3.34
-4.85
-6.52
-8.38
-10.48
-12.79
-15.17
-17.29
-18.72
-19.04
-18.08
-15.97
-13.12
-10.1
-7.32
-4.98
-3.03
-1.29
0.4
2.07
3.67
5.12
6.35
7.34
8.1
8.61
8.83
8.78
8.51
8.15
7.85
7.73
7.81
7.96
7.96
7.54
6.53
4.92
2.9
0.78
-1.18
-2.79
-4.1
-5.29
-6.55
-8.05
-9.85
-11.94
-14.26
-16.71
-19.11
-21.13
-22.41
-22.61
-21.58
-19.45
-16.54
-13.23
-9.81
-6.39
-2.99
0.35
3.55
6.39
8.71
10.46
11.76
12.83
13.84
14.83
15.71
16.35
16.68
16.78
16.81
16.98
17.4
18.04
18.75
19.26
19.28
18.59
17.12
14.93
12.27
9.47
6.83
4.52
2.48
0.53
-1.59
-4.08
-6.97
-10.11
-13.19
-15.8
-17.53
-18.1
-17.4
-15.56
-12.85
-9.65
-6.32
-3.11
-0.17
2.47
4.77
6.73
8.33
9.56
10.43
10.98
11.23
11.2
10.92
10.41
9.73
8.95
8.22
7.64
7.36
7.41
7.76
8.2
8.48
8.34
7.63
6.36
4.66
2.74
0.81
-1.01
-2.67
-4.15
-5.53
-6.87
-8.31
-9.98
-11.99
-14.35
-16.93
-19.43
-21.4
-22.37
-22
-20.18
-17.13
-13.28
-9.22
-5.41
-2.14
0.54
2.78
4.7
6.39
7.83
8.96
9.74
10.26
10.62
10.94
11.25
11.54
11.72
11.74
11.57
11.31
11.06
10.88
10.75
10.52
10.02
9.06
7.6
5.76
3.74
1.8
0.09
-1.43
-2.89
-4.51
-6.46
-8.79
-11.41
-14.17
-16.83
-19.19
-21.03
-22.12
-22.27
-21.32
-19.22
-16.09
-12.21
-7.98
-3.81
-0.07
3.05
5.49
7.3
8.63
9.6
10.29
10.81
11.17
11.39
11.5
11.49
11.39
11.19
10.89
10.47
9.99
9.5
9.07
8.7
8.29
7.66
6.66
5.24
3.52
1.76
0.19
-1.05
-1.99
-2.84
-3.87
-5.31
-7.28
-9.8
-12.74
-15.89
-18.89
-21.29
-22.64
-22.58
-21.03
-18.21
-14.59
-10.72
-7.04
-3.74
-0.76
1.99
4.59
6.97
9
10.51
11.44
11.85
11.89
11.71
11.45
11.2
11.04
11
11.02
10.97
10.71
10.11
9.16
7.99
6.75
5.52
4.27
2.91
1.35
-0.39
-2.13
-3.7
-4.96
-6.02
-7.16
-8.72
-10.93
-13.72
-16.72
-19.34
-21.04
-21.47
-20.58
-18.57
-15.76
-12.48
-8.97
-5.38
-1.82
1.61
4.73
7.38
9.43
10.85
11.73
12.23
12.51
12.68
12.77
12.76
12.62
12.28
11.73
11.03
10.25
9.51
8.91
8.45
8.04
7.48
6.56
5.17
3.33
1.2
-0.99
-3.02
-4.79
-6.25
-7.49
-8.65
-9.95
-11.62
-13.76
-16.32
-18.98
-21.19
-22.41
-22.25
-20.62
-17.79
-14.23
-10.41
-6.69
-3.26
-0.22
2.42
4.62
6.36
7.66
8.56
9.13
9.38
9.34
9.03
8.51
7.86
7.24
6.74
6.4
6.23
6.16
6.17
6.16
6.03
5.64
4.87
3.71
2.25
0.72
-0.69
-1.87
-2.89
-3.97
-5.36
-7.26
-9.7
-12.56
-15.55
-18.24
-20.16
-20.87
-20.14
-17.96
-14.64
-10.69
-6.66
-2.99
0.13
2.69
4.82
6.62
8.1
9.21
9.88
10.13
10.04
9.73
9.34
8.94
8.59
8.32
8.14
8.09
8.12
8.14
8.02
7.61
6.83
5.66
4.2
2.59
0.96
-0.58
-2
-3.33
-4.67
-6.14
-7.87
-9.93
-12.28
-14.74
-17.01
-18.69
-19.4
-18.86
-17.05
-14.14
-10.52
-6.66
-2.99
0.23
2.89
5.04
6.74
8.08
9.08
9.76
10.18
10.41
10.49
10.43
10.18
9.72
9.08
8.41
7.88
7.64
7.63
7.67
7.46
6.74
5.45
3.7
1.72
-0.26
-2.09
-3.74
-5.29
-6.84
-8.49
-10.34
-12.45
-14.82
-17.32
-19.67
-21.43
-22.16
-21.54
-19.55
-16.41
-12.59
-8.59
-4.81
-1.44
1.49
4.05
6.29
8.2
9.77
10.94
11.74
12.19
12.33
12.2
11.83
11.26
10.6
10.02
9.71
9.72
9.96
10.17
10.05
9.37
8.08
6.32
4.29
2.2
0.13
-1.9
-3.93
-6.05
-8.31
-10.79
-13.55
-16.51
-19.46
-22
-23.63
-23.9
-22.62
-19.85
-15.98
-11.51
-6.96
-2.74
0.94
3.98
6.38
8.19
9.47
10.29
10.7
10.8
10.68
10.46
10.22
10
9.81
9.64
9.51
9.5
9.67
10.03
10.49
10.84
10.82
10.21
8.95
7.16
5.07
2.89
0.78
-1.2
-3.09
-5.03
-7.17
-9.68
-12.67
-16.04
-19.47
-22.4
-24.22
-24.45
-22.96
-20
-16.07
-11.7
-7.31
-3.15
0.64
3.97
6.73
8.82
10.26
11.12
11.56
11.7
11.65
11.45
11.17
10.88
10.67
10.58
10.56
10.53
10.42
10.21
9.87
9.38
8.65
7.57
6.03
4.06
1.82
-0.46
-2.6
-4.56
-6.5
-8.68
-11.27
-14.2
-17.11
-19.39
-20.43
-19.82
-17.53
-13.89
-9.44
-4.79
-0.37
3.59
7
9.89
12.29
14.24
15.76
16.91
17.75
18.32
18.64
18.68
18.47
18.01
17.41
16.8
16.31
16.04
15.96
15.91
15.6
14.74
13.13
10.74
7.73
4.42
1.17
-1.82
-4.46
-6.92
-9.46
-12.36
-15.77
-19.66
-23.74
-27.51
-30.35
-31.68
-31.11
-28.6
-24.45
-19.23
-13.64
-8.28
-3.57
0.36
3.63
6.4
8.83
10.97
12.7
13.89
14.43
14.3
13.65
12.73
11.82
11.16
10.86
10.82
10.9
10.88
10.6
9.99
9.05
7.83
6.39
4.79
3.06
1.23
-0.71
-2.84
-5.31
-8.3
-11.95
-16.18
-20.63
-24.67
-27.56
-28.6
-27.44
-24.1
-19.08
-13.12
-7.04
-1.44
3.35
7.31
10.6
13.36
15.64
17.34
18.32
18.53
18.03
17.06
15.92
14.92
14.22
13.88
13.78
13.79
13.73
13.48
12.93
12
10.62
8.75
6.45
3.83
1.09
-1.58
-4.07
-6.42
-8.81
-11.49
-14.67
-18.33
-22.18
-25.61
-27.84
-28.2
-26.34
-22.37
-16.85
-10.58
-4.32
1.37
6.22
10.21
13.38
15.8
17.51
18.52
18.88
18.68
18.06
17.21
16.33
15.56
15.04
14.79
14.73
14.69
14.5
14.01
13.14
11.92
10.4
8.64
6.74
4.75
2.74
0.76
-1.22
-3.32
-5.72
-8.57
-11.89
-15.42
-18.59
-20.72
-21.13
-19.5
-15.94
-10.97
-5.39
0.08
4.88
8.81
11.87
14.17
15.81
16.83
17.24
17.1
16.56
15.81
15.06
14.45
14.01
13.72
13.48
13.22
12.86
12.35
11.61
10.55
9.11
7.25
5.02
2.53
-0.04
-2.55
-4.88
-7.03
-9.13
-11.36
-13.97
-17.02
-20.35
-23.49
-25.75
-26.43
-25.12
-21.79
-16.93
-11.34
-5.87
-1.16
2.52
5.25
7.32
9.03
10.55
11.91
13.02
13.76
14.09
14.06
13.77
13.39
13.07
12.94
13.04
13.31
13.59
13.6
13.09
11.88
9.98
7.59
4.97
2.37
-0.07
-2.34
-4.53
-6.74
-9.07
-11.57
-14.3
-17.27
-20.35
-23.22
-25.36
-26.19
-25.31
-22.69
-18.69
-13.98
-9.26
-5.03
-1.5
1.37
3.69
5.58
7.03
7.98
8.38
8.22
7.63
6.81
5.99
5.37
5.07
5.09
5.32
5.62
5.83
5.85
5.6
5.05
4.17
2.97
1.48
-0.23
-2.07
-3.98
-6
-8.2
-10.68
-13.45
-16.36
-19.06
-21.1
-22.03
-21.56
-19.67
-16.61
-12.83
-8.81
-4.97
-1.55
1.38
3.81
5.76
7.21
8.17
8.64
8.76
8.71
8.69
8.85
9.18
9.54
9.75
9.59
9.01
8.07
6.96
5.86
4.86
3.93
2.93
1.71
0.22
-1.53
-3.45
-5.53
-7.78
-10.27
-12.92
-15.54
-17.72
-19.01
-19.03
-17.71
-15.22
-11.94
-8.3
-4.66
-1.24
1.84
4.51
6.73
8.49
9.74
10.51
10.83
10.8
10.52
10.16
9.86
9.72
9.73
9.78
9.71
9.33
8.55
7.34
5.81
4.06
2.26
0.49
-1.16
-2.68
-4.08
-5.43
-6.85
-8.51
-10.48
-12.73
-15.03
-16.99
-18.16
-18.2
-16.94
-14.54
-11.33
-7.79
-4.37
-1.34
1.21
3.32
5.12
6.73
8.17
9.37
10.23
10.63
10.52
9.97
9.15
8.28
7.57
7.11
6.84
6.58
6.11
5.31
4.17
2.83
1.47
0.21
-0.96
-2.16
-3.58
-5.36
-7.51
-9.96
-12.49
-14.89
-16.93
-18.4
-19.13
-18.96
-17.81
-15.72
-12.85
-9.49
-6.01
-2.72
0.22
2.75
4.92
6.81
8.4
9.63
10.47
10.93
11.15
11.22
11.19
10.94
10.31
9.21
7.71
6.09
4.66
3.63
2.95
2.41
1.73
0.76
-0.46
-1.77
-3
-4.1
-5.16
-6.38
-7.85
-9.57
-11.42
-13.22
-14.8
-16.01
-16.72
-16.8
-16.12
-14.63
-12.43
-9.75
-6.96
-4.39
-2.26
-0.57
0.84
2.17
3.57
5.02
6.36
7.34
7.8
7.73
7.26
6.64
6.1
5.74
5.55
5.4
5.19
4.82
4.28
3.61
2.81
1.83
0.59
-0.92
-2.65
-4.44
-6.1
-7.46
-8.54
-9.53
-10.73
-12.42
-14.67
-17.26
-19.73
-21.49
-22.07
-21.23
-19.07
-15.92
-12.25
-8.54
-5.15
-2.29
-0
1.77
3.16
4.27
5.11
5.65
5.81
5.58
5.07
4.5
4.11
4.08
4.41
4.99
5.61
6.08
6.29
6.2
5.81
5.16
4.28
3.22
2.03
0.8
-0.45
-1.72
-3.11
-4.73
-6.69
-8.98
-11.43
-13.67
-15.23
-15.7
-14.84
-12.72
-9.65
-6.13
-2.62
0.56
3.22
5.37
7.04
8.3
9.18
9.7
9.91
9.9
9.77
9.59
9.42
9.27
9.12
8.94
8.73
8.48
8.18
7.78
7.21
6.42
5.39
4.2
2.95
1.73
0.57
-0.6
-1.95
-3.65
-5.8
-8.33
-11.02
-13.52
-15.42
-16.38
-16.18
-14.82
-12.49
-9.6
-6.55
-3.69
-1.2
0.94
2.82
4.52
6.02
7.26
8.14
8.67
8.95
9.08
9.16
9.2
9.15
8.95
8.61
8.17
7.68
7.2
6.75
6.26
5.65
4.79
3.61
2.14
0.51
-1.08
-2.47
-3.67
-4.86
-6.32
-8.27
-10.69
-13.3
-15.64
-17.25
-17.81
-17.26
-15.73
-13.43
-10.58
-7.38
-4.02
-0.71
2.35
5.01
7.19
8.96
10.42
11.67
12.73
13.52
13.95
13.94
13.56
12.96
12.35
11.88
11.56
11.29
10.85
10.02
8.73
7.07
5.24
3.46
1.91
0.59
-0.59
-1.79
-3.15
-4.77
-6.68
-8.88
-11.32
-13.85
-16.19
-17.96
-18.75
-18.29
-16.56
-13.84
-10.55
-7.13
-3.84
-0.77
2.12
4.84
7.3
9.34
10.81
11.67
12.04
12.14
12.16
12.19
12.19
12.12
11.91
11.54
11.06
10.53
10.02
9.57
9.14
8.65
7.96
6.95
5.57
3.86
1.95
-0
-1.91
-3.75
-5.6
-7.54
-9.68
-12.04
-14.61
-17.25
-19.74
-21.73
-22.84
-22.77
-21.41
-18.89
-15.58
-11.92
-8.33
-5.1
-2.38
-0.2
1.44
2.51
3.02
3.01
2.62
2.08
1.7
1.79
2.58
4.1
6.23
8.65
10.98
12.92
14.35
15.32
16.03
16.66
17.21
17.52
17.35
16.61
15.45
14.35
13.81
14.17
15.3
16.6
17.29
16.68
14.56
11.24
7.36
3.56
0.31
-2.2
-3.83
-4.25
-2.97
0.66
7.04
16.2
27.67
40.69
54.44
68.19
81.29
92.99
102.28
107.9
108.56
103.34
92.15
75.99
56.98
37.99
21.88
10.82
5.66
5.8
9.67
15.37
21.33
26.72
31.38
35.41
38.83
41.34
42.33
41.13
37.28
30.78
22.24
12.77
3.71
-3.69
-8.61
-10.84
-10.75
-8.96
-6.1
-2.6
1.29
5.3
9.04
11.99
13.74
14.06
13.05
10.93
7.79
3.33
-3.07
-12.03
-23.64
-37.04
-50.49
-61.93
-69.74
-73.4
-73.57
-71.7
-69.31
-67.45
-66.45
-66.17
-66.36
-66.91
-67.89
-69.4
-71.37
-73.53
-75.58
-77.2
-78.18
-78.33
-77.46
-75.36
-71.92
-67.18
-61.43
-55.15
-48.92
-43.22
-38.35
-34.36
-31.12
-28.43
-26.19
-24.38
-23.06
-22.22
-21.75
-21.4
-20.86
-19.91
-18.51
-16.79
-15
-13.41
-12.19
-11.45
-11.16
-11.29
-11.72
-12.33
-12.97
-13.52
-13.96
-14.39
-14.98
-15.92
-17.32
-19.16
-21.26
-23.28
-24.79
-25.33
-24.56
-22.37
-18.95
-14.74
-10.34
-6.3
-2.95
-0.37
1.61
3.19
4.52
5.63
6.47
6.97
7.16
7.17
7.1
7.11
7.27
7.56
7.94
8.26
8.38
8.15
7.52
6.53
5.31
3.99
2.61
1.17
-0.46
-2.33
-4.45
-6.78
-9.19
-11.62
-13.95
-16.01
-17.5
-18.09
-17.46
-15.5
-12.38
-8.5
-4.39
-0.48
2.97
5.95
8.56
10.94
13.05
14.72
15.72
15.95
15.48
14.59
13.69
13.08
12.85
12.89
12.96
12.82
12.37
11.63
10.66
9.51
8.2
6.7
5.02
3.22
1.36
-0.49
-2.38
-4.44
-6.84
-9.77
-13.24
-17.05
-20.73
-23.64
-25.09
-24.63
-22.15
-18.01
-12.87
-7.53
-2.64
1.44
4.65
7.16
9.2
10.91
12.3
13.26
13.68
13.55
13.05
12.48
12.15
12.26
12.77
13.4
13.78
13.58
12.69
11.24
9.53
7.82
6.24
4.71
3.05
1.08
-1.31
-4.12
-7.31
-10.78
-14.36
-17.72
-20.33
-21.61
-21.05
-18.51
-14.29
-9.04
-3.51
1.73
6.41
10.55
14.22
17.43
20.03
21.87
22.85
23.11
22.95
22.7
22.64
22.89
23.46
24.21
25
25.6
25.79
25.4
24.39
22.86
21.03
19.12
17.27
15.51
13.75
11.98
10.21
8.54
7.05
5.77
4.64
3.61
2.73
2.15
2.09
2.74
4.16
6.28
8.91
11.76
14.59
17.16
19.31
20.9
21.77
21.75
20.64
18.35
14.95
10.76
6.25
1.99
-1.57
-4.2
-5.87
-6.67
-6.76
-6.3
-5.51
-4.64
-4.03
-3.89
-4.22
-4.79
-5.24
-5.37
-5.33
-5.65
-7.05
-10.03
-14.61
-20.18
-25.7
-30.01
-32.19
-31.8
-28.91
-23.98
-17.66
-10.72
-3.82
2.53
7.99
12.49
16.04
18.79
20.85
22.32
23.29
23.87
24.24
24.56
24.95
25.43
25.88
26.13
26.02
25.48
24.52
23.23
21.69
19.97
18.06
15.95
13.59
10.94
7.91
4.34
-0.01
-5.37
-11.76
-18.87
-25.95
-31.91
-35.71
-36.65
-34.71
-30.59
-25.41
-20.34
-16.15
-13.1
-10.97
-9.36
-7.98
-6.84
-6.14
-6.1
-6.76
-7.92
-9.14
-9.97
-10.05
-9.18
-7.31
-4.58
-1.34
1.81
4.07
4.75
3.52
0.71
-2.79
-5.83
-7.56
-7.81
-7.17
-6.68
-7.31
-9.48
-12.83
-16.43
-19.11
-19.93
-18.47
-14.8
-9.38
-2.82
4.25
11.28
17.79
23.34
27.62
30.46
31.91
32.18
31.56
30.39
28.96
27.52
26.32
25.42
24.77
24.16
23.33
22.11
20.56
18.89
17.31
15.9
14.49
12.72
10.22
6.79
2.45
-2.54
-7.74
-12.64
-16.61
-19.07
-19.5
-17.68
-13.76
-8.31
-2.14
3.92
9.3
13.78
17.45
20.47
22.94
24.72
25.54
25.2
23.7
21.4
18.87
16.71
15.31
14.67
14.45
14.14
13.31
11.82
9.85
7.77
5.89
4.28
2.72
0.83
-1.77
-5.23
-9.47
-14.14
-18.72
-22.62
-25.26
-26.15
-24.97
-21.68
-16.57
-10.27
-3.51
2.97
8.69
13.48
17.35
20.43
22.78
24.34
24.98
24.65
23.45
21.69
19.76
18
16.56
15.35
14.15
12.73
11.01
9.06
7.06
5.15
3.34
1.52
-0.58
-3.18
-6.5
-10.58
-15.36
-20.55
-25.66
-30
-32.8
-33.41
-31.51
-27.28
-21.32
-14.53
-7.74
-1.53
3.86
8.44
12.32
15.54
18.06
19.76
20.57
20.52
19.73
18.43
16.87
15.27
13.84
12.67
11.77
11.02
10.23
9.21
7.84
6.12
4.14
2
-0.19
-2.41
-4.67
-7
-9.5
-12.26
-15.37
-18.88
-22.65
-26.33
-29.34
-30.99
-30.69
-28.17
-23.59
-17.58
-10.99
-4.66
0.88
5.44
9.17
12.34
15.12
17.53
19.4
20.54
20.91
20.62
19.92
19.09
18.26
17.43
16.49
15.31
13.88
12.26
10.61
9.09
7.74
6.57
5.44
4.21
2.7
0.77
-1.68
-4.67
-8.1
-11.77
-15.31
-18.26
-20.1
-20.38
-18.83
-15.52
-10.89
-5.61
-0.44
4.04
7.56
10.16
12.07
13.54
14.71
15.54
15.96
15.89
15.36
14.49
13.45
12.37
11.37
10.45
9.56
8.59
7.44
6.04
4.38
2.51
0.5
-1.57
-3.71
-5.92
-8.22
-10.64
-13.21
-15.94
-18.83
-21.83
-24.77
-27.3
-28.94
-29.2
-27.83
-24.87
-20.72
-16.04
-11.44
-7.39
-4.03
-1.25
1.16
3.38
5.42
7.13
8.27
8.68
8.31
7.31
5.94
4.5
3.21
2.17
1.37
0.71
0.1
-0.53
-1.18
-1.85
-2.51
-3.14
-3.78
-4.48
-5.32
-6.37
-7.66
-9.18
-10.9
-12.83
-14.96
-17.25
-19.52
-21.39
-22.27
-21.64
-19.22
-15.14
-9.99
-4.55
0.46
4.65
7.99
10.67
12.96
14.97
16.7
18.03
18.88
19.22
19.09
18.56
17.68
16.55
15.3
14.08
13.04
12.29
11.86
11.65
11.49
11.16
10.4
9.09
7.18
4.82
2.25
-0.28
-2.57
-4.59
-6.44
-8.3
-10.34
-12.61
-15.04
-17.38
-19.29
-20.41
-20.45
-19.23
-16.82
-13.47
-9.59
-5.66
-2.06
0.96
3.38
5.29
6.85
8.16
9.29
10.24
10.99
11.56
11.94
12.1
12.01
11.61
10.96
10.16
9.41
8.88
8.6
8.49
8.36
7.96
7.17
5.91
4.27
2.41
0.52
-1.18
-2.62
-3.85
-5.04
-6.43
-8.22
-10.41
-12.81
-15
-16.53
-16.98
-16.13
-13.97
-10.73
-6.79
-2.62
1.38
4.89
7.79
10.14
12.05
13.65
14.97
15.97
16.54
16.63
16.26
15.52
14.53
13.4
12.2
10.94
9.61
8.2
6.68
5.02
3.21
1.24
-0.84
-2.96
-5.01
-6.91
-8.57
-10.01
-11.29
-12.58
-14.04
-15.86
-18.1
-20.69
-23.43
-25.99
-27.99
-29.11
-29.09
-27.86
-25.56
-22.51
-19.15
-15.88
-12.97
-10.48
-8.32
-6.33
-4.43
-2.67
-1.19
-0.14
0.49
0.86
1.26
2
3.21
4.8
6.51
8.01
9.06
9.64
9.89
10.07
10.37
10.8
11.18
11.23
10.71
9.53
7.79
5.74
3.66
1.76
0.09
-1.36
-2.72
-4.15
-5.8
-7.78
-10.1
-12.59
-14.91
-16.58
-17.19
-16.54
-14.71
-12.02
-8.94
-5.87
-3.05
-0.52
1.78
3.91
5.85
7.49
8.72
9.5
9.87
9.97
9.95
9.91
9.85
9.74
9.57
9.37
9.22
9.19
9.27
9.36
9.32
8.98
8.25
7.14
5.72
4.1
2.42
0.81
-0.67
-1.98
-3.15
-4.32
-5.67
-7.36
-9.45
-11.86
-14.31
-16.45
-17.91
-18.41
-17.81
-16.13
-13.58
-10.45
-7.11
-3.91
-1.11
1.18
2.98
4.39
5.51
6.4
7.01
7.29
7.21
6.87
6.42
6
5.71
5.53
5.43
5.39
5.41
5.53
5.76
6.07
6.34
6.4
6.14
5.49
4.49
3.22
1.8
0.4
-0.89
-2.02
-3.02
-4.06
-5.27
-6.81
-8.71
-10.93
-13.34
-15.74
-17.83
-19.24
-19.64
-18.86
-16.92
-14.14
-10.99
-7.97
-5.44
-3.53
-2.12
-0.96
0.18
1.38
2.58
3.63
4.36
4.7
4.71
4.55
4.36
4.25
4.22
4.22
4.19
4.18
4.25
4.47
4.79
5.09
5.16
4.85
4.13
3.09
1.94
0.85
-0.12
-1.04
-2.12
-3.56
-5.45
-7.71
-10.06
-12.07
-13.32
-13.52
-12.56
-10.61
-7.98
-5.06
-2.16
0.55
3.03
5.29
7.33
9.1
10.48
11.41
11.87
11.95
11.81
11.58
11.36
11.15
10.92
10.66
10.41
10.22
10.09
10.01
9.91
9.7
9.34
8.82
8.14
7.3
6.25
4.94
3.4
1.74
0.15
-1.15
-2.09
-2.72
-3.25
-3.94
-5.03
-6.59
-8.59
-10.81
-12.91
-14.5
-15.18
-14.68
-12.91
-10.05
-6.5
-2.81
0.52
3.28
5.53
7.62
9.99
12.9
16.32
19.88
23.12
25.64
27.35
28.44
29.22
29.95
30.71
31.44
32.02
32.36
32.4
32.07
31.13
29.28
26.24
21.9
16.43
10.29
4.06
-1.71
-6.65
-10.6
-13.62
-15.93
-17.83
-19.69
-21.79
-24.27
-27.06
-29.84
-32.15
-33.46
-33.39
-31.83
-28.96
-25.24
-21.18
-17.25
-13.77
-10.82
-8.38
-6.33
-4.59
-3.12
-1.96
-1.13
-0.64
-0.43
-0.37
-0.33
-0.18
0.11
0.45
0.73
0.8
0.64
0.28
-0.12
-0.46
-0.68
-0.86
-1.11
-1.54
-2.22
-3.16
-4.27
-5.49
-6.73
-7.95
-9.16
-10.41
-11.81
-13.54
-15.69
-18.27
-21.04
-23.62
-25.5
-26.27
-25.65
-23.67
-20.63
-16.94
-13.06
-9.35
-5.97
-2.99
-0.42
1.74
3.45
4.6
5.16
5.18
4.83
4.36
3.99
3.85
3.92
4.1
4.24
4.23
4.09
3.88
3.65
3.39
3.04
2.45
1.51
0.2
-1.43
-3.21
-4.97
-6.56
-7.93
-9.12
-10.24
-11.42
-12.81
-14.51
-16.51
-18.67
-20.68
-22.11
-22.54
-21.63
-19.33
-15.86
-11.7
-7.41
-3.47
-0.14
2.52
4.61
6.23
7.42
8.17
8.4
8.09
7.35
6.37
5.39
4.62
4.19
4.07
4.18
4.35
4.42
4.29
3.91
3.33
2.59
1.74
0.8
-0.25
-1.4
-2.62
-3.92
-5.29
-6.81
-8.58
-10.65
-12.92
-15.09
-16.72
-17.34
-16.64
-14.49
-11.07
-6.82
-2.3
1.92
5.4
7.92
9.56
10.52
11.07
11.32
11.28
10.85
10.04
9
8.05
7.55
7.68
8.36
9.28
10.01
10.19
9.67
8.48
6.82
4.91
2.98
1.17
-0.45
-1.88
-3.23
-4.67
-6.37
-8.46
-10.94
-13.57
-15.94
-17.5
-17.79
-16.56
-13.84
-9.97
-5.5
-1
3.07
6.4
