-31.05
-29.12
-28
-27.32
-26.77
-26.24
-25.75
-25.37
-25.02
-24.48
-23.47
-21.91
-19.95
-17.96
-16.38
-15.49
-15.31
-15.65
-16.24
-16.88
-17.48
-18.11
-18.83
-19.7
-20.76
-22
-23.45
-25.15
-27.06
-29.09
-31
-32.43
-32.96
-32.22
-30.07
-26.57
-22.1
-17.21
-12.51
-8.43
-5.17
-2.63
-0.53
1.4
3.28
5.06
6.62
7.85
8.79
9.61
10.56
11.78
13.23
14.55
15.17
14.48
12.1
8.08
2.97
-2.31
-6.84
-10.04
-11.93
-13.12
-14.52
-16.98
-20.96
-26.39
-32.74
-39.2
-45
-49.56
-52.65
-54.43
-55.44
-56.52
-58.5
-61.79
-65.91
-69.46
-70.38
-66.86
-58.08
-44.58
-27.97
-10.13
7.66
25.01
42.23
59.63
76.95
93.17
106.78
116.24
120.36
118.65
111.58
100.62
88.16
76.94
69.41
66.89
69.26
74.98
81.77
87.38
90.18
89.6
86.1
80.96
75.9
72.64
72.61
76.54
84.37
95.28
107.86
120.5
131.56
139.71
144.18
144.95
142.77
138.81
134.3
130.14
126.67
123.8
121.24
118.82
116.65
115.04
114.27
114.36
114.85
114.67
112.19
105.56
93.08
73.86
48.36
18.58
-12.28
-40.64
-63.58
-79.63
-88.93
-92.84
-93.05
-91.05
-87.76
-83.74
-79.51
-75.65
-72.73
-70.99
-70.16
-69.63
-68.73
-67.08
-64.79
-62.37
-60.44
-59.38
-59.24
-59.68
-60.22
-60.36
-59.73
-58.1
-55.46
-51.91
-47.79
-43.47
-39.33
-35.6
-32.34
-29.41
-26.53
-23.29
-19.21
-13.9
-7.21
0.55
8.61
15.95
21.67
25.3
26.96
27.22
26.77
26.18
25.76
25.68
26.06
26.88
27.86
28.36
27.48
24.46
19.14
12.16
4.82
-1.44
-5.64
-7.59
-7.9
-7.52
-7.36
-7.88
-9.01
-10.41
-11.69
-12.76
-13.84
-15.53
-18.36
-22.34
-26.52
-29.07
-27.83
-21.4
-10
4.37
18.69
30.23
37.67
41.35
42.67
42.93
42.55
41.01
37.54
32.02
25.41
19.41
15.69
15.09
17.22
20.65
23.32
23.07
18.12
7.38
-9.25
-30.65
-54.5
-77.65
-96.88
-109.8
-115.49
-114.78
-109.79
-102.98
-96.34
-90.87
-86.73
-83.59
-81.21
-79.55
-78.65
-78.31
-77.92
-76.51
-73.1
-67.18
-59.04
-49.77
-41.02
-34.31
-30.5
-29.41
-29.85
-30.05
-28.39
-23.99
-17.1
-8.93
-1.19
4.74
8.31
9.95
10.83
12.27
15.2
19.79
25.5
31.42
36.7
41.01
44.43
47.32
49.85
51.75
52.44
51.26
47.74
41.77
33.37
22.49
8.99
-6.92
-24.14
-40.49
-52.96
-58.86
-56.99
-48.37
-35.96
-23.54
-14.25
-9.58
-9.22
-11.66
-15.2
-18.66
-21.59
-24.01
-26.03
-27.6
-28.59
-28.96
-28.98
-29.21
-30.3
-32.66
-36.21
-40.29
-44.05
-46.8
-48.43
-49.56
-51.23
-54.49
-59.89
-67.34
-76.16
-85.46
-94.38
-102.32
-108.98
-114.31
-118.49
-121.9
-125
-128.06
-131.02
-133.39
-134.49
-133.79
-131.28
-127.48
-123.09
-118.5
-113.44
-107.05
-98.26
-86.37
-71.33
-53.65
-33.95
-12.59
10.41
35.02
60.66
85.97
108.97
127.73
141.1
149.1
152.82
153.75
153.19
151.82
149.66
146.51
142.22
136.95
131.12
125.19
119.51
114.22
109.38
105.02
101.13
97.75
94.86
92.37
90.06
87.62
84.6
80.53
75.12
68.41
60.95
53.73
47.88
44.33
43.51
45.22
48.85
53.59
58.73
63.79
68.42
72.26
74.86
75.61
73.93
69.43
62.02
51.94
39.69
25.87
11.12
-3.96
-18.79
-32.8
-45.43
-56.22
-64.83
-71.21
-75.52
-78.17
-79.61
-80.25
-80.35
-79.99
-79.19
-77.92
-76.2
-74.22
-72.31
-70.81
-70.1
-70.25
-71.05
-71.93
-72.06
-70.53
-66.68
-60.3
-51.78
-41.99
-32
-22.72
-14.66
-7.92
-2.33
2.24
5.76
8.06
9.01
8.74
7.66
6.39
5.54
5.46
6.09
7.08
7.84
7.78
6.5
3.85
0.03
-4.5
-9.15
-13.37
-16.79
-19.25
-20.77
-21.51
-21.64
-21.38
-20.97
-20.61
-20.35
-20.02
-19.22
-17.38
-14.03
-8.99
-2.49
4.89
12.37
19.29
25.19
29.88
33.3
35.46
36.35
36.02
34.68
32.73
30.73
29.22
28.53
28.69
29.37
30.06
30.3
29.8
28.61
26.94
25.11
23.37
21.73
20.01
17.92
15.15
11.52
7.04
1.96
-3.25
-7.91
-11.28
-12.69
-11.8
-8.69
-3.88
1.82
7.61
12.88
17.27
20.57
22.61
23.21
22.32
20.14
17.21
14.31
12.12
10.99
10.75
10.87
10.72
9.94
8.53
6.78
5.04
3.54
2.26
0.97
-0.62
-2.7
-5.41
-8.72
-12.48
-16.36
-19.84
-22.25
-22.86
-21.17
-17.14
-11.3
-4.65
1.66
6.8
10.45
12.79
14.26
15.24
15.83
15.95
15.45
14.39
13.05
11.82
10.98
10.54
10.27
9.9
9.24
8.34
7.39
6.6
6.04
5.54
4.76
3.29
0.82
-2.67
-6.92
-11.32
-15.08
-17.41
-17.72
-15.77
-11.8
-6.38
-0.26
5.84
11.4
16.12
19.76
22.1
22.87
21.9
19.25
15.38
11.03
7.05
4.06
2.3
1.53
1.33
1.2
0.86
0.29
-0.44
-1.25
-2.2
-3.5
-5.47
-8.38
-12.35
-17.16
-22.25
-26.78
-29.78
-30.43
-28.34
-23.7
-17.17
-9.71
-2.25
4.55
10.33
15.01
18.56
20.97
22.16
22.17
21.16
19.52
17.75
16.27
15.34
14.92
14.77
14.52
13.9
12.76
11.2
9.42
7.62
5.87
4.02
1.78
-1.2
-5.16
-10.05
-15.43
-20.55
-24.45
-26.21
-25.27
-21.62
-15.8
-8.76
-1.47
5.33
11.31
16.53
21.23
25.57
29.46
32.6
34.6
35.27
34.7
33.29
31.57
30.01
28.84
27.99
27.21
26.21
24.83
23.06
21.05
18.97
16.91
14.83
12.58
9.96
6.8
2.99
-1.44
-6.41
-11.7
-16.94
-21.59
-24.96
-26.4
-25.49
-22.21
-17.01
-10.7
-4.11
2.11
7.68
12.64
17.2
21.54
25.62
29.24
32.1
33.94
34.67
34.38
33.31
31.83
30.29
28.92
27.85
27.02
26.29
25.46
24.33
22.74
20.6
17.93
14.83
11.49
8.17
5.06
2.23
-0.44
-3.22
-6.44
-10.29
-14.66
-19.08
-22.76
-24.87
-24.75
-22.23
-17.66
-11.78
-5.49
0.5
5.81
10.41
14.45
18.1
21.41
24.3
26.6
28.16
28.94
29.01
28.49
27.54
26.28
24.83
23.3
21.82
20.5
19.4
18.49
17.62
16.56
15.06
12.95
10.23
7.09
3.86
0.87
-1.63
-3.61
-5.24
-6.92
-9.06
-11.98
-15.7
-19.85
-23.74
-26.56
-27.69
-26.81
-24.07
-19.96
-15.11
-10.1
-5.37
-1.13
2.59
5.83
8.67
11.14
13.23
14.88
16.01
16.58
16.59
16.13
15.35
14.42
13.5
12.72
12.13
11.7
11.33
10.88
10.22
9.23
7.83
5.95
3.6
0.82
-2.18
-5.13
-7.74
-9.88
-11.68
-13.45
-15.59
-18.39
-21.86
-25.76
-29.63
-32.92
-35.1
-35.77
-34.72
-32.01
-27.98
-23.17
-18.21
-13.6
-9.56
-6.07
-2.94
-0.02
2.73
5.2
7.33
9.2
11.03
13.03
15.28
17.64
19.8
21.48
22.57
23.18
23.53
23.81
23.97
23.85
23.22
21.99
20.3
18.43
16.72
15.31
14.18
13.09
11.81
10.16
8.18
6.05
4.11
2.71
2.14
2.55
3.84
5.65
7.36
8.28
7.87
5.88
2.51
-1.69
-6.02
-9.78
-12.5
-13.96
-14.13
-13.18
-11.38
-9.18
-7.04
-5.42
-4.64
-4.71
-5.43
-6.4
-7.26
-7.74
-7.78
-7.51
-7.12
-6.78
-6.57
-6.47
-6.4
-6.29
-6.13
-5.98
-5.95
-6.16
-6.66
-7.42
-8.3
-9.18
-9.96
-10.64
-11.29
-12.05
-13.07
-14.49
-16.38
-18.7
-21.25
-23.63
-25.38
-26.01
-25.2
-22.95
-19.59
-15.72
-11.96
-8.78
-6.32
-4.46
-2.87
-1.27
0.43
2.13
3.6
4.64
5.18
5.32
5.28
5.24
5.31
5.47
5.6
5.57
5.33
4.92
4.44
3.97
3.54
3.07
2.45
1.63
0.65
-0.4
-1.38
-2.22
-2.91
-3.5
-4.04
-4.54
-4.99
-5.39
-5.77
-6.25
-6.97
-8.07
-9.6
-11.48
-13.47
-15.22
-16.35
-16.52
-15.6
-13.67
-11.01
-8.06
-5.2
-2.66
-0.51
1.32
2.94
4.41
5.74
6.89
7.84
8.56
9.01
9.16
8.96
8.37
7.49
6.48
5.57
4.97
4.75
4.82
5.01
5.14
5.09
4.86
4.48
4
3.42
2.74
1.96
1.1
0.21
-0.67
-1.49
-2.3
-3.11
-4
-4.98
-6.05
-7.17
-8.34
-9.56
-10.89
-12.41
-14.16
-16.1
-17.99
-19.48
-20.17
-19.78
-18.27
-15.86
-12.97
-10.04
-7.42
-5.27
-3.58
-2.21
-1
0.18
1.34
2.39
3.3
4
4.54
4.98
5.39
5.74
5.97
6.04
5.98
5.96
6.15
6.62
7.31
8
8.41
8.38
7.93
7.22
6.47
5.86
5.4
4.97
4.39
3.49
2.16
0.48
-1.4
-3.28
-5
-6.5
-7.82
-9.1
-10.5
-12.19
-14.29
-16.81
-19.59
-22.27
-24.32
-25.22
-24.65
-22.6
-19.41
-15.64
-11.87
-8.5
-5.62
-3.12
-0.75
1.68
4.17
6.57
8.62
10.09
10.92
11.17
11.01
10.62
10.12
9.54
8.9
8.26
7.76
7.5
7.56
7.86
8.23
8.48
8.43
8.03
7.33
6.44
5.51
4.65
3.92
3.32
2.75
2.06
1.19
0.1
-1.16
-2.52
-3.94
-5.45
-7.13
-9.11
-11.44
-14.12
-17.03
-19.97
-22.58
-24.48
-25.23
-24.55
-22.39
-19
-14.87
-10.57
-6.59
-3.16
-0.32
2.07
4.12
5.89
7.36
8.47
9.23
9.69
9.95
10.13
10.3
10.5
10.73
10.92
11.03
10.96
10.68
10.2
9.58
8.91
8.27
7.73
7.26
6.81
6.32
5.71
4.9
3.8
2.37
0.62
-1.31
-3.22
-4.94
-6.35
-7.5
-8.55
-9.76
-11.36
-13.48
-16.08
-18.9
-21.51
-23.38
-24.01
-23.07
-20.57
-16.83
-12.4
-7.9
-3.8
-0.33
2.49
4.77
6.6
8.03
9.05
9.64
9.88
9.92
9.89
9.95
10.17
10.51
10.92
11.36
11.79
12.17
12.46
12.58
12.47
12.06
11.36
10.4
9.26
7.96
6.57
5.09
3.55
1.98
0.38
-1.25
-2.88
-4.55
-6.25
-7.97
-9.71
-11.46
-13.28
-15.28
-17.55
-20.1
-22.76
-25.15
-26.74
-26.98
-25.56
-22.46
-18.04
-12.94
-7.83
-3.29
0.41
3.21
5.28
6.85
8.11
9.16
10.05
10.79
11.37
11.84
12.27
12.75
13.32
13.97
14.67
15.31
15.83
16.11
16.11
15.78
15.08
14.03
12.65
11.01
9.2
7.33
5.49
3.75
2.08
0.44
-1.26
-3.05
-4.92
-6.86
-8.87
-11.02
-13.48
-16.37
-19.71
-23.27
-26.63
-29.16
-30.35
-29.82
-27.55
-23.81
-19.09
-13.93
-8.79
-3.99
0.29
4
7.18
9.84
11.98
13.59
14.66
15.19
15.32
15.2
15.08
15.17
15.6
16.32
17.1
17.62
17.53
16.69
15.15
13.19
11.18
9.38
7.9
6.68
5.59
4.52
3.44
2.35
1.26
0.11
-1.18
-2.67
-4.35
-6.16
-8.08
-10.11
-12.38
-15.07
-18.27
-21.88
-25.48
-28.41
-29.89
-29.33
-26.55
-21.9
-16.14
-10.19
-4.84
-0.5
2.83
5.42
7.59
9.57
11.41
13.06
14.45
15.55
16.35
16.93
17.36
17.69
17.97
18.23
18.46
18.63
18.68
18.56
18.26
17.79
17.19
16.46
15.57
14.47
13.12
11.47
9.58
7.55
5.53
3.63
1.89
0.26
-1.4
-3.26
-5.45
-8.05
-11.05
-14.38
-17.84
-21.05
-23.51
-24.67
-24.07
-21.56
-17.38
-12.15
-6.69
-1.72
2.3
5.28
7.38
8.9
10.08
11.08
11.91
12.58
13.05
13.33
13.42
13.37
13.22
13.04
12.92
12.97
13.24
13.7
14.24
14.65
14.73
14.21
12.94
10.77
7.71
3.88
-0.47
-4.99
-9.32
-13.19
-16.51
-19.38
-22.02
-24.75
-27.74
-31.04
-34.38
-37.27
-39.07
-39.14
-37.06
-32.77
-26.64
-19.38
-11.89
-4.94
0.93
5.59
9.22
12.15
14.61
16.62
18.01
18.59
18.35
17.56
16.72
16.33
16.68
17.67
18.9
19.89
20.27
19.97
19.15
18.07
16.95
15.9
14.94
14.02
13.14
12.26
11.38
10.44
9.38
8.17
6.8
5.25
3.51
1.55
-0.68
-3.26
-6.29
-9.83
-13.81
-17.99
-21.85
-24.72
-25.92
-25.03
-22.07
-17.47
-12.01
-6.45
-1.36
3.04
6.82
10.16
13.21
15.95
18.22
19.84
20.74
20.97
20.77
20.43
20.2
20.17
20.3
20.41
20.34
20.02
19.52
19.01
18.65
18.5
18.43
18.2
17.52
16.18
14.12
11.45
8.42
5.25
2.12
-0.9
-3.86
-6.85
-9.98
-13.31
-16.94
-20.86
-24.94
-28.84
-31.96
-33.6
-33.17
-30.42
-25.63
-19.49
-12.95
-6.82
-1.58
2.69
6.22
9.33
12.2
14.85
17.09
18.78
19.83
20.36
20.58
20.71
20.84
20.96
20.95
20.7
20.19
19.52
18.84
18.25
17.72
17.07
16.08
14.51
12.25
9.39
6.15
2.89
-0.11
-2.65
-4.77
-6.64
-8.5
-10.61
-13.2
-16.43
-20.29
-24.6
-28.83
-32.22
-33.91
-33.3
-30.23
-25.09
-18.71
-12
-5.71
-0.23
4.34
8.09
11.18
13.69
15.69
17.18
18.18
18.71
18.8
18.57
18.18
17.84
17.7
17.82
18.11
18.39
18.47
18.29
17.86
17.33
16.76
16.14
15.3
14
12.07
9.46
6.37
3.14
0.1
-2.49
-4.63
-6.52
-8.48
-10.85
-13.8
-17.37
-21.38
-25.46
-29.04
-31.46
-32.1
-30.61
-26.99
-21.7
-15.51
-9.26
-3.59
1.15
4.99
8.14
10.85
13.24
15.32
17.01
18.23
18.96
19.25
19.19
18.86
18.35
17.73
17.11
16.59
16.24
16.04
15.88
15.63
15.16
14.4
13.33
11.93
10.19
8.1
5.73
3.23
0.77
-1.51
-3.53
-5.34
-7.09
-8.92
-10.99
-13.4
-16.25
-19.54
-23.15
-26.77
-29.88
-31.83
-32.04
-30.17
-26.28
-20.83
-14.54
-8.21
-2.44
2.41
6.3
9.36
11.8
13.77
15.37
16.6
17.46
17.9
17.92
17.55
16.87
16.05
15.29
14.79
14.67
14.91
15.4
15.94
16.27
16.22
15.66
14.61
13.19
11.57
9.9
8.23
6.53
4.69
2.64
0.4
-1.93
-4.22
-6.4
-8.48
-10.54
-12.73
-15.21
-18.11
-21.44
-25.02
-28.44
-31.04
-32.11
-31.13
-28
-23.14
-17.35
-11.54
-6.36
-2.12
1.25
4.03
6.49
8.75
10.83
12.64
14.13
15.28
16.05
16.46
16.54
16.35
16.01
15.69
15.5
15.47
15.53
15.55
15.41
15.03
14.36
13.44
12.28
10.91
9.31
7.49
5.44
3.21
0.87
-1.47
-3.7
-5.7
-7.44
-9
-10.51
-12.22
-14.32
-16.98
-20.18
-23.7
-27.1
-29.76
-31.04
-30.46
-27.9
-23.64
-18.31
-12.72
-7.57
-3.25
0.17
2.91
5.23
7.36
9.34
11.13
12.6
13.65
14.23
14.33
14.04
13.52
12.98
12.63
12.59
12.88
13.34
13.8
14.04
13.98
13.56
12.78
11.67
10.24
8.52
6.65
4.79
3.09
1.6
0.27
-1.07
-2.57
-4.3
-6.23
-8.27
-10.34
-12.47
-14.78
-17.43
-20.48
-23.78
-26.9
-29.25
-30.23
-29.44
-26.83
-22.76
-17.83
-12.78
-8.15
-4.23
-1
1.73
4.2
6.49
8.58
10.31
11.52
12.17
12.32
12.12
11.76
11.35
10.98
10.65
10.42
10.29
10.31
10.47
10.69
10.84
10.76
10.33
9.53
8.44
7.2
5.91
4.62
3.24
1.66
-0.2
-2.32
-4.57
-6.75
-8.68
-10.35
-11.87
-13.5
-15.49
-18
-21
-24.21
-27.2
-29.41
-30.35
-29.71
-27.49
-24.02
-19.81
-15.49
-11.55
-8.3
-5.8
-3.87
-2.29
-0.8
0.72
2.31
3.86
5.25
6.32
7.03
7.4
7.53
7.62
7.79
8.14
8.66
9.31
9.93
10.38
10.54
10.31
9.64
8.61
7.34
6.04
4.91
4.04
3.39
2.84
2.22
1.4
0.31
-1.06
-2.76
-4.92
-7.68
-11.17
-15.28
-19.69
-23.76
-26.77
-28.05
-27.22
-24.25
-19.52
-13.64
-7.32
-1.19
4.28
8.8
12.28
14.85
16.83
18.72
21.02
24.11
27.99
32.35
36.52
39.8
41.56
41.51
39.67
36.37
32.1
27.37
22.65
18.26
14.31
10.76
7.47
4.25
0.94
-2.53
-6.17
-9.91
-13.63
-17.21
-20.49
-23.3
-25.51
-27.06
-28.06
-28.82
-29.74
-31.23
-33.46
-36.18
-38.79
-40.51
-40.62
-38.8
-35.18
-30.26
-24.76
-19.33
-14.4
-10.18
-6.64
-3.65
-1.06
1.24
3.27
5.03
6.52
7.81
8.96
10.07
11.13
12.09
12.79
13.13
13.08
12.7
12.07
11.29
10.44
9.54
8.55
7.44
6.15
4.6
2.75
0.65
-1.57
-3.66
-5.35
-6.54
-7.3
-7.94
-8.82
-10.28
-12.48
-15.38
-18.68
-21.97
-24.71
-26.38
-26.56
-25.03
-21.88
-17.54
-12.64
-7.87
-3.76
-0.54
1.91
3.86
5.64
7.38
9.08
10.52
11.51
11.93
11.8
11.28
10.55
9.78
9
8.21
7.38
6.53
5.77
5.22
4.92
4.77
4.5
3.78
2.39
0.38
-1.97
-4.22
-6
-7.16
-7.85
-8.43
-9.29
-10.7
-12.76
-15.39
-18.3
-21.11
-23.27
-24.25
-23.58
-21.16
-17.2
-12.34
-7.33
-2.81
0.86
3.71
5.95
7.82
9.43
10.74
11.7
12.28
12.61
12.83
13.07
13.33
13.49
13.41
13.07
12.54
11.99
11.58
11.29
10.96
10.32
9.17
7.44
5.28
2.95
0.7
-1.32
-3.1
-4.78
-6.51
-8.45
-10.7
-13.39
-16.52
-20
-23.51
-26.49
-28.3
-28.4
-26.6
-23.19
-18.81
-14.22
-10.01
-6.36
-3.12
0.1
3.6
7.43
11.4
15.17
18.4
20.91
22.69
23.83
24.48
24.75
24.72
24.47
24.09
23.69
23.34
23.05
22.77
22.38
21.7
20.54
18.77
16.32
13.27
9.86
6.42
3.27
0.54
-1.84
-4.13
-6.68
-9.74
-13.35
-17.31
-21.2
-24.54
-26.85
-27.79
-27.24
-25.28
-22.23
-18.54
-14.62
-10.86
-7.46
-4.52
-2.04
0.04
1.79
3.29
4.63
5.83
6.87
7.66
8.11
8.16
7.85
7.31
6.72
6.25
6.01
5.99
6.05
5.91
5.29
3.99
1.98
-0.56
-3.32
-5.97
-8.36
-10.47
-12.42
-14.41
-16.71
-19.6
-23.35
-28.06
-33.48
-38.87
-43.14
-45.22
-44.42
-40.78
-34.91
-27.69
-19.69
-10.91
-0.92
10.81
24.39
39.41
55.03
70.37
84.89
98.46
111.15
122.97
133.75
143.15
150.92
156.98
161.28
163.56
163.16
159.17
150.79
137.92
121.42
102.93
84.24
66.59
50.29
34.76
19.14
2.91
-13.69
-29.66
-43.74
-55
-63.29
-69.27
-74.05
-78.67
-83.56
-88.4
-92.37
-94.59
-94.63
-92.71
-89.58
-86.07
-82.61
-78.99
-74.42
-68
-59.21
-48.16
-35.52
-22.01
-8.19
5.49
18.25
28.75
35.42
37.52
36.18
34.55
36.52
44.7
58.74
75.18
89.19
97.01
97.9
94.11
89.23
85.9
84.37
82.71
78.32
69.61
56.85
41.64
25.73
9.96
-5.98
-22.73
-40.32
-57.55
-72.4
-83.02
-88.82
-90.94
-91.87
-94.32
-99.99
-108.89
-119.34
-128.64
-134
-133.4
-126.17
-113.21
-96.74
-79.71
-64.93
-54.15
-47.7
-44.55
-43.07
-41.76
-39.85
-37.29
-34.42
-31.49
-28.41
-24.9
-20.86
-16.56
-12.72
-10.12
-9.16
-9.65
-10.86
-11.94
-12.3
-11.87
-11
-10.2
-9.8
-9.82
-10.04
-10.22
-10.32
-10.5
-11.09
-12.31
-14.2
-16.59
-19.16
-21.62
-23.81
-25.76
-27.65
-29.75
-32.22
-35.06
-37.94
-40.27
-41.26
-40.26
-36.96
-31.56
-24.72
-17.34
-10.23
-3.91
1.47
5.92
9.51
12.26
14.13
15.14
15.42
15.21
14.77
14.23
13.63
12.94
12.16
11.43
10.97
10.99
11.56
12.58
13.85
15.09
16.04
16.48
16.3
15.45
13.95
11.91
9.48
6.85
4.13
1.45
-1.17
-3.67
-6.02
-8.23
-10.36
-12.51
-14.8
-17.33
-20.16
-23.22
-26.31
-29.12
-31.21
-32.08
-31.33
-28.77
-24.56
-19.18
-13.33
-7.7
-2.78
1.24
4.51
7.32
9.92
12.43
14.75
16.68
18.08
18.89
19.24
19.34
19.41
19.61
20.06
20.79
21.75
22.83
23.84
24.57
24.88
24.73
24.2
23.44
22.59
21.68
20.65
19.4
17.85
16.05
14.17
12.45
11.13
10.29
9.82
9.39
8.55
6.89
4.13
0.27
-4.44
-9.51
-14.29
-18.06
-20.22
-20.4
-18.6
-15.22
-10.99
-6.76
-3.26
-0.91
0.29
0.6
0.47
0.33
0.45
0.9
1.62
2.45
3.28
4.06
4.82
5.62
6.53
7.55
8.61
9.59
10.4
10.95
11.22
11.18
10.86
10.23
9.29
8.04
6.49
4.73
2.83
0.92
-0.9
-2.57
-4.12
-5.63
-7.28
-9.23
-11.63
-14.5
-17.7
-20.9
-23.58
-25.19
-25.26
-23.52
-20.03
-15.14
-9.4
-3.48
1.98
6.53
9.92
12.15
13.4
13.94
14.02
13.84
13.58
13.29
13
12.69
12.35
11.97
11.55
11.11
10.68
10.28
9.94
9.67
9.41
9.1
8.62
7.8
6.54
4.84
2.8
0.64
-1.34
-2.96
-4.14
-5.06
-6.01
-7.37
-9.37
-12.07
-15.19
-18.17
-20.33
-21.02
-19.87
-16.9
-12.54
-7.47
-2.39
2.13
5.76
8.36
9.98
10.74
10.8
10.38
9.69
8.91
8.2
7.61
7.14
6.77
6.56
6.62
7.02
7.75
8.65
9.45
9.83
9.56
8.52
6.79
4.56
2.09
-0.35
-2.55
-4.46
-6.14
-7.84
-9.83
-12.33
-15.37
-18.67
-21.68
-23.71
-24.14
-22.65
-19.28
-14.49
-9.01
-3.59
1.15
4.88
7.58
9.41
10.59
11.29
11.66
11.76
11.67
11.47
11.24
11.06
11
11.09
11.35
11.73
12.09
12.24
11.98
11.2
9.9
8.27
6.51
4.83
3.28
1.83
0.38
-1.21
-2.97
-4.95
-7.14
-9.6
-12.33
-15.22
-18.03
-20.24
-21.26
-20.55
-17.89
-13.5
-7.97
-2.11
3.35
7.94
11.48
14.01
15.59
16.28
16.08
15.08
13.55
11.88
10.49
9.68
9.51
9.82
10.31
10.74
10.94
10.91
10.72
10.47
10.19
9.85
9.33
8.49
7.21
5.49
3.43
1.3
-0.62
-2.12
-3.15
-3.86
-4.61
-5.8
-7.73
-10.48
-13.8
-17.17
-19.89
-21.28
-20.88
-18.59
-14.69
-9.79
-4.63
0.14
4.08
7.08
9.24
10.76
11.82
12.5
12.83
12.86
12.72
12.62
12.75
13.19
13.86
14.52
14.92
14.86
14.34
13.44
12.38
11.27
10.17
8.99
7.62
5.94
3.95
1.73
-0.54
-2.74
-4.8
-6.8
-8.87
-11.13
-13.65
-16.41
-19.27
-21.95
-24.09
-25.27
-25.08
-23.24
-19.74
-14.83
-9.03
-3.04
2.44
6.93
10.23
12.43
13.87
14.89
15.73
16.41
16.79
16.77
16.36
15.76
15.29
15.19
15.48
15.94
16.22
16.02
15.22
13.93
12.38
10.85
9.49
8.31
7.24
6.17
5.05
3.89
2.72
1.58
0.44
-0.76
-2.09
-3.6
-5.3
-7.18
-9.27
-11.62
-14.22
-16.95
-19.46
-21.27
-21.87
-20.9
-18.35
-14.51
-9.94
-5.31
-1.23
1.94
4.06
5.21
5.62
5.6
5.38
5.13
4.89
4.65
4.37
4.03
3.7
3.47
3.42
3.6
4.02
4.57
5.13
5.55
5.73
5.6
5.18
4.5
3.61
2.59
1.5
0.4
-0.68
-1.73
-2.77
-3.8
-4.86
-5.98
-7.23
-8.76
-10.74
-13.37
-16.69
-20.48
-24.15
-26.78
-27.32
-24.95
-19.33
-10.81
-0.22
11.33
22.81
33.45
42.82
50.74
57.24
62.47
66.75
70.49
74.14
78.03
82.33
87.05
92.25
98.17
105.22
113.67
123.29
133.07
141.31
146.14
146.24
141.32
132.27
120.71
108.31
96.23
84.82
73.89
63.13
52.49
42.4
33.65
27.09
23.28
22.26
23.4
25.58
27.38
27.6
25.58
21.45
16.04
10.49
5.83
2.64
0.98
0.56
1.06
2.28
4.26
7.17
11.16
16.2
22.04
28.18
34.09
39.33
43.8
47.75
51.74
56.34
61.82
67.91
73.89
78.84
82.06
83.34
82.87
80.97
77.65
72.42
64.5
53.26
38.74
21.88
4.35
-11.98
-25.76
-36.51
-44.74
-51.44
-57.52
-63.32
-68.51
-72.32
-74.03
-73.39
-70.73
-66.83
-62.53
-58.49
-54.98
-52
-49.49
-47.51
-46.24
-45.95
-46.87
-49
-52.14
-55.93
-59.98
-64.02
-68.1
-72.51
-77.69
-83.99
-91.46
-99.7
-107.93
-115.15
-120.45
-123.18
-123.05
-120.13
-114.76
-107.5
-99.11
-90.47
-82.51
-76.09
-71.79
-69.81
-70
-71.84
-74.71
-77.95
-80.95
-83.21
-84.28
-83.82
-81.61
-77.66
-72.17
-65.55
-58.27
-50.78
-43.36
-36.23
-29.55
-23.5
-18.31
-14.2
-11.24
-9.38
-8.39
-7.97
-7.8
-7.67
-7.4
-6.99
-6.48
-6.02
-5.8
-6.01
-6.77
-8.09
-9.87
-11.93
-14.11
-16.29
-18.41
-20.45
-22.46
-24.52
-26.78
-29.37
-32.31
-35.39
-38.09
-39.72
-39.61
-37.45
-33.43
-28.18
-22.59
-17.4
-13.02
-9.45
-6.46
-3.82
-1.42
0.64
2.23
3.24
3.72
3.81
3.71
3.6
3.59
3.71
3.92
4.13
4.17
3.91
3.24
2.2
0.88
-0.56
-2.06
-3.67
-5.55
-7.88
-10.73
-14.1
-17.85
-21.76
-25.55
-28.81
-31
-31.57
-30.07
-26.42
-20.97
-14.42
-7.63
-1.38
3.88
8.06
11.32
13.94
16.11
17.95
19.42
20.39
20.74
20.41
19.47
18.13
16.65
15.29
14.21
13.49
13.07
12.82
12.51
11.88
10.7
8.87
6.46
3.71
0.96
-1.54
-3.78
-5.94
-8.38
-11.47
-15.43
-20.18
-25.34
-30.18
-33.8
-35.31
-34.11
-30.1
-23.72
-15.92
-7.77
-0.22
6.21
11.42
15.64
19.17
22.18
24.67
26.51
27.59
27.92
27.61
26.88
25.94
24.91
23.88
22.92
22.08
21.43
21
20.69
20.29
19.52
18.08
15.84
12.83
9.31
5.65
2.22
-0.73
-3.18
-5.36
-7.7
-10.66
-14.55
-19.38
-24.76
-29.83
-33.48
-34.68
-32.74
-27.67
-20.17
-11.44
-2.78
4.81
10.86
15.45
18.98
21.87
24.29
26.2
27.4
27.77
27.39
26.56
25.62
24.86
24.37
24.01
23.6
23.01
22.26
21.52
20.99
20.72
20.54
20.06
18.88
16.78
13.84
10.45
7.13
4.32
2.19
0.55
-1
-2.97
-5.78
-9.62
-14.41
-19.73
-24.85
-28.86
-30.84
-30.12
-26.54
-20.52
-12.98
-5.06
2.23
8.27
12.92
16.38
18.97
20.93
22.32
23.09
23.2
22.75
22.01
21.34
21
21.07
21.37
21.62
21.57
21.18
20.64
20.18
19.94
19.84
19.55
18.7
17.07
14.72
11.95
9.17
6.66
4.51
2.58
0.66
-1.49
-4.02
-7.03
-10.53
-14.46
-18.55
-22.22
-24.69
-25.15
-23.1
-18.57
-12.12
-4.69
2.79
9.62
15.41
20.01
23.31
25.25
25.78
25
23.22
20.9
18.56
16.67
15.49
15.08
15.31
15.9
16.56
17.06
17.31
17.34
17.27
17.09
16.75
16.06
14.8
12.88
10.34
7.4
4.34
1.44
-1.18
-3.53
-5.75
-8.1
-10.83
-14.15
-18.09
-22.42
-26.62
-30.03
-31.9
-31.69
-29.16
-24.5
-18.28
-11.32
-4.49
1.54
6.43
10.2
13.04
15.19
16.76
17.7
17.95
17.53
16.7
15.82
15.25
15.11
15.35
15.73
16.1
16.43
16.81
17.31
17.85
18.18
18.01
17.15
15.63
13.66
11.52
9.43
7.54
5.89
4.51
3.4
2.56
1.91
1.26
0.4
-0.8
-2.2
-3.33
-3.39
-1.5
3.05
10.6
21.04
33.88
48.4
63.82
79.23
93.55
105.54
113.91
117.61
116.15
109.77
99.37
86.32
72
57.7
44.35
32.57
22.73
14.83
8.58
3.34
-1.77
-7.73
-15.41
-25.36
-37.71
-52.08
-67.53
-82.74
-96.14
-106.35
-112.48
-114.32
-112.25
-107.12
-99.82
-91.26
-82.25
-73.63
-66.16
-60.43
-56.55
-54
-51.76
-48.67
-43.94
-37.4
-29.56
-21.29
-13.4
-6.36
-0.25
5.05
9.67
13.57
16.56
18.46
19.14
18.65
17.16
14.88
12.01
8.72
5.24
1.75
-1.55
-4.52
-7.12
-9.43
-11.59
-13.74
-15.98
-18.28
-20.53
-22.53
-24.11
-25.16
-25.72
-25.95
-26.11
-26.49
-27.3
-28.62
-30.3
-31.94
-32.99
-32.81
-30.88
-26.98
-21.29
-14.37
-6.99
0.03
6.1
10.92
14.44
16.75
17.99
18.3
17.85
16.85
15.59
14.36
13.41
12.86
12.71
12.84
13.07
13.26
13.37
13.48
13.68
14.01
14.33
14.37
13.8
12.43
10.36
7.9
5.5
3.46
1.82
0.37
-1.26
-3.4
-6.26
-9.81
-13.81
-17.8
-21.11
-22.98
-22.8
-20.32
-15.82
-10.05
-3.96
1.61
6.16
9.64
12.24
14.26
15.87
17.14
18.04
18.53
18.61
18.35
17.83
17.12
16.32
15.51
14.79
14.24
13.88
13.67
13.54
13.42
13.2
12.81
12.15
11.07
9.42
7.17
4.38
1.34
-1.59
-4.08
-6
-7.43
-8.75
-10.46
-12.97
-16.45
-20.66
-25
-28.56
-30.4
-29.87
-26.77
-21.48
-14.84
-7.87
-1.46
3.81
7.75
10.53
12.45
13.79
14.73
15.31
15.52
15.41
15.07
14.63
14.25
14.03
13.97
14.04
14.18
14.35
14.52
14.67
14.8
14.87
14.82
14.53
13.87
12.74
11.17
9.2
6.96
4.59
2.2
-0.12
-2.33
-4.47
-6.61
-8.88
-11.46
-14.45
-17.83
-21.34
-24.52
-26.74
-27.43
-26.26
-23.21
-18.66
-13.25
-7.69
-2.57
1.81
5.45
8.51
11.17
13.44
15.21
16.3
16.63
16.3
15.57
14.75
14.05
13.53
13.1
12.67
12.17
11.66
11.26
11.04
11.04
11.1
11.04
10.64
9.74
8.33
6.49
4.4
2.28
0.32
-1.42
-2.96
-4.44
-6.04
-7.94
-10.27
-13.07
-16.21
-19.33
-21.91
-23.3
-22.93
-20.56
-16.41
-11.13
-5.56
-0.5
3.58
6.58
8.72
10.28
11.47
12.35
12.87
13
12.74
12.23
11.65
11.15
10.85
10.75
10.78
10.85
10.86
10.78
10.65
10.53
10.38
10.09
9.45
8.23
6.3
3.75
0.82
-2.1
-4.67
-6.73
-8.32
-9.72
-11.22
-13.12
-15.49
-18.25
-21.11
-23.71
-25.65
-26.57
-26.22
-24.45
-21.31
-17.04
-12.04
-6.84
-1.93
2.3
5.71
8.37
10.4
11.97
13.12
13.81
14.03
13.83
13.4
12.97
12.69
12.62
12.63
12.54
12.24
11.75
11.15
10.63
10.28
10.05
9.79
9.28
8.32
6.86
5
2.99
1.11
-0.46
-1.67
-2.71
-3.84
-5.33
-7.35
-9.91
-12.84
-15.78
-18.31
-19.91
-20.18
-18.86
-16
-11.92
-7.18
-2.39
1.97
5.56
8.29
10.18
11.35
11.96
12.15
12.11
12.01
11.96
12
12.08
12.11
12.05
11.91
11.77
11.71
11.79
11.97
12.14
12.18
11.97
11.42
10.49
9.15
7.41
5.36
3.2
1.15
-0.61
-2.03
-3.27
-4.6
-6.32
-8.59
-11.32
-14.26
-17
-19.16
-20.39
-20.42
-19.11
-16.51
-12.84
-8.53
-4.12
-0.1
3.18
5.57
7.2
8.28
9.03
9.61
10.04
10.29
10.33
10.19
9.95
9.76
9.69
9.72
9.78
9.73
9.49
9.06
8.55
8.06
7.63
7.18
6.55
5.63
4.39
2.92
1.39
-0.03
-1.29
-2.38
-3.42
-4.49
-5.72
-7.19
-8.98
-11.08
-13.37
-15.58
-17.31
-18.16
-17.84
-16.29
-13.7
-10.45
-6.95
-3.55
-0.5
2.14
4.36
6.22
7.77
9.02
9.92
10.41
10.49
10.25
9.88
9.66
9.76
10.26
11.04
11.86
12.52
12.91
13.03
12.97
12.76
12.36
11.65
10.46
8.71
6.46
3.85
1.14
-1.42
-3.64
-5.45
-6.93
-8.23
-9.56
-11.04
-12.75
-14.63
-16.51
-18.14
-19.25
-19.57
-18.97
-17.48
-15.25
-12.63
-9.96
-7.56
-5.62
-4.15
-3.03
-2.05
-1.07
-0.01
1.05
1.98
2.66
3.1
3.42
3.81
4.41
5.25
6.23
7.19
7.99
8.57
8.91
9.02
8.91
8.58
8.02
7.27
6.36
5.3
4.12
2.84
1.5
0.18
-1.05
-2.19
-3.28
-4.46
-5.84
-7.5
-9.43
-11.55
-13.63
-15.34
-16.31
-16.22
-14.95
-12.66
-9.75
-6.73
-4.09
-2.1
-0.78
0.04
0.57
0.99
1.33
1.57
1.64
1.53
1.33
1.16
1.16
1.4
1.81
2.26
2.62
2.76
2.73
2.6
2.46
2.37
2.28
2.07
1.65
0.96
0.05
-0.94
-1.83
-2.49
-2.85
-2.95
-2.94
-3
-3.3
-3.99
-5.14
-6.71
-8.58
-10.45
-11.99
-12.82
-12.62
-11.31
-9.03
-6.18
-3.21
-0.54
1.62
3.21
4.38
5.25
5.89
6.35
6.6
6.68
6.63
6.49
6.28
6
5.65
5.26
4.96
4.87
5.04
5.4
5.81
6.07
6.08
5.82
5.32
4.66
3.8
2.68
1.25
-0.43
-2.21
-3.86
-5.19
-6.15
-6.85
-7.52
-8.38
-9.57
-11.06
-12.71
-14.3
-15.57
-16.31
-16.29
-15.33
-13.38
-10.53
-7.08
-3.49
-0.24
2.29
3.99
4.92
5.35
5.52
5.57
5.55
5.47
5.36
5.34
5.57
6.1
6.85
7.6
8.14
8.37
8.41
8.48
8.77
9.33
10.02
10.58
10.81
10.6
10.01
9.07
7.87
6.42
4.74
2.93
1.08
-0.71
-2.5
-4.49
-6.91
-9.89
-13.3
-16.69
-19.45
-21
-21.02
-19.54
-16.95
-13.82
-10.71
-8.01
-5.92
-4.44
-3.51
-3.09
-3.12
-3.57
-4.38
-5.42
-6.55
-7.64
-8.55
-9.2
-9.53
-9.5
-9.08
-8.3
-7.3
-6.26
-5.39
-4.82
-4.56
-4.42
-4.18
-3.68
-2.89
-2
-1.29
-1.06
-1.54
-2.78
-4.74
-7.26
-10.03
-12.62
-14.52
-15.22
-14.37
-11.93
-8.21
-3.78
0.67
4.58
7.63
9.78
11.17
11.96
12.26
12.04
11.29
10.08
8.66
7.41
6.64
6.53
6.97
7.7
8.34
8.61
8.36
7.56
6.29
4.66
2.83
0.92
-1.01
-2.97
-5.07
-7.47
-10.27
-13.49
-16.94
-20.25
-22.93
-24.42
-24.31
-22.42
-18.88
-14.18
-8.98
-3.97
0.33
3.67
6.09
7.77
8.96
9.84
10.47
10.83
10.89
10.65
10.27
9.93
9.84
10.07
10.5
10.9
11.03
10.77
10.15
9.32
8.39
7.38
6.14
4.5
2.26
-0.67
-4.26
-8.31
-12.54
-16.5
-19.69
-21.59
-21.8
-20.12
-16.72
-12.02
-6.69
-1.42
3.22
6.94
9.74
11.83
13.52
15.02
16.38
17.48
18.11
18.12
17.5
16.4
15.1
13.88
12.89
12.16
11.54
10.83
9.85
8.52
6.89
5.1
3.24
1.31
-0.78
-3.22
-6.14
-9.57
-13.39
-17.32
-20.99
-23.96
-25.76
-25.94
-24.22
-20.59
-15.42
-9.41
-3.41
1.89
6.14
9.39
11.94
14.15
16.16
17.92
19.27
20.08
20.37
20.31
20.05
19.73
19.34
18.89
18.41
18.01
17.76
17.62
17.35
16.64
15.22
13.06
10.42
7.67
5.15
2.99
1.08
-0.88
-3.22
-6.17
-9.82
-14
-18.32
-22.17
-24.79
-25.49
-23.89
-20.1
-14.73
-8.68
-2.82
2.29
6.54
10.13
13.34
16.28
18.9
21.01
22.52
23.48
24.02
24.29
24.32
24.05
23.42
22.51
21.55
20.84
20.6
20.84
21.29
21.53
21.15
19.93
17.87
15.2
12.23
9.26
6.49
4.02
1.84
-0.17
-2.23
-4.68
-7.84
-11.85
-16.51
-21.2
-25
-26.93
-26.39
-23.38
-18.49
-12.72
-7.07
-2.25
1.55
4.54
7.1
9.6
12.14
14.62
16.8
18.46
19.54
20.14
20.45
20.66
20.84
20.94
20.86
20.52
19.95
19.27
18.63
18.12
17.67
17.05
15.96
14.14
11.51
8.24
4.71
1.35
-1.55
-3.89
-5.85
-7.76
-10.01
-12.86
-16.42
-20.58
-24.97
-29.08
-32.27
-33.91
-33.62
-31.29
-27.21
-21.99
-16.36
-11.01
-6.39
-2.62
0.42
2.96
5.18
7.13
8.7
9.78
10.31
10.35
10.13
9.86
9.73
9.81
10.03
10.3
10.51
10.56
10.37
9.91
9.17
8.19
7.04
5.76
4.41
2.98
1.5
0.02
-1.39
-2.68
-3.86
-4.99
-6.14
-7.38
-8.78
-10.4
-12.36
-14.73
-17.52
-20.48
-23.12
-24.83
-25.02
-23.52
-20.54
-16.71
-12.79
-9.42
-6.94
-5.31
-4.32
-3.69
-3.2
-2.77
-2.39
-2.14
-2.08
-2.28
-2.78
-3.58
-4.62
-5.76
-6.85
-7.73
-8.38
-8.91
-9.6
-10.74
-12.64
-15.39
-18.89
-22.72
-26.29
-28.96
-30.28
-30.18
-29
-27.38
-26.02
-25.51
-26.06
-27.59
-29.83
-32.32
-34.64
-36.35
-37
-36.17
-33.54
-28.97
-22.72
-15.34
-7.68
-0.53
5.58
10.64
15.11
19.73
25.15
31.63
38.94
46.5
53.61
59.74
64.73
68.67
71.95
74.97
78.15
81.77
86
90.82
96.05
101.39
106.4
110.64
113.89
116.23
117.98
119.41
120.35
120.03
117.19
110.66
99.92
85.57
69.17
52.83
38.48
27.41
20.14
16.58
16.2
18.18
21.5
24.91
27.12
27.09
24.27
18.58
10.45
0.53
-10.39
-21.52
-32.12
-41.52
-49.25
-55.02
-58.8
-60.73
-61.06
-60.06
-57.97
-55.11
-51.83
-48.59
-45.85
-43.95
-43
-42.86
-43.23
-43.78
-44.29
-44.69
-45.02
-45.33
-45.61
-45.83
-45.93
-45.95
-46.02
-46.33
-47.03
-48.15
-49.5
-50.73
-51.39
-51.05
-49.47
-46.68
-42.96
-38.72
-34.37
-30.21
-26.42
-23.04
-20.08
-17.56
-15.49
-13.91
-12.83
-12.26
-12.15
-12.39
-12.76
-12.98
-12.75
-11.98
-10.76
-9.42
-8.29
-7.62
-7.4
-7.48
-7.66
-7.84
-8.05
-8.42
-8.99
-9.74
-10.55
-11.34
-12.2
-13.32
-14.94
-17.17
-19.85
-22.49
-24.44
-25.11
-24.12
-21.5
-17.66
-13.22
-8.81
-4.85
-1.57
1.03
3
4.44
5.36
5.83
5.92
5.8
5.67
5.69
5.96
6.43
7
7.5
7.85
8.07
8.25
8.52
8.95
9.49
9.95
10.05
9.59
8.51
6.97
5.24
3.65
2.38
1.39
0.42
-0.87
-2.76
-5.31
-8.29
-11.19
-13.41
-14.41
-13.85
-11.71
-8.25
-3.97
0.55
4.75
8.3
11.08
13.24
15.03
16.7
18.38
20.04
21.54
22.71
23.45
23.79
23.93
24.08
24.46
25.17
26.12
27.12
27.9
28.27
28.1
27.38
26.1
24.22
21.69
18.47
14.68
10.57
6.58
3.07
0.27
-1.94
-3.92
-6.18
-9.13
-12.87
-17.07
-21.08
-24.17
-25.74
-25.55
-23.79
-20.95
-17.63
-14.34
-11.41
-8.9
-6.72
-4.7
-2.71
-0.77
1.02
2.54
3.73
4.64
5.46
6.33
7.35
8.48
9.57
10.48
11.15
11.65
12.11
12.6
13.11
13.51
13.63
13.3
12.46
11.09
9.28
7.16
4.93
2.74
0.74
-1.04
-2.72
-4.51
-6.69
-9.48
-12.9
-16.7
-20.36
-23.2
-24.57
-24.1
-21.77
-17.95
-13.25
-8.32
-3.66
0.46
3.96
6.88
9.29
11.25
12.78
13.87
14.51
14.73
14.59
14.24
13.9
13.78
14.01
14.58
15.29
15.91
16.25
16.25
15.99
15.56
14.99
14.19
12.96
11.14
8.71
5.78
2.61
-0.54
-3.48
-6.12
-8.49
-10.67
-12.86
-15.29
-18.2
-21.68
-25.57
-29.4
-32.47
-34.03
-33.62
-31.21
-27.26
-22.57
-17.94
-13.92
-10.71
-8.18
-6.07
-4.19
-2.52
-1.22
-0.42
-0.14
-0.24
-0.46
-0.57
-0.44
-0.12
0.28
0.63
0.84
0.89
0.78
0.51
0.09
-0.49
-1.24
-2.18
-3.38
-4.92
-6.85
-9.06
-11.37
-13.51
-15.3
-16.72
-17.94
-19.28
-21.02
-23.33
-26.17
-29.34
-32.45
-35.02
-36.51
-36.43
-34.45
-30.62
-25.38
-19.49
-13.83
-9.05
-5.44
-2.85
-0.9
0.76
2.29
3.6
4.51
4.88
4.81
4.6
4.59
5.03
5.92
7.03
7.97
8.45
8.41
8.05
7.73
7.71
8.03
8.4
8.38
7.58
5.88
3.53
0.99
-1.24
-2.86
-3.9
-4.64
-5.48
-6.8
-8.84
-11.7
-15.31
-19.37
-23.41
-26.72
-28.55
-28.34
-25.92
-21.61
-16.12
-10.37
-5.1
-0.78
2.5
4.86
6.54
7.73
8.58
9.21
9.72
10.19
10.65
11.09
11.47
11.74
11.9
11.94
11.84
11.59
11.21
10.8
10.41
10.09
9.76
9.25
8.29
6.64
4.24
1.19
-2.18
-5.47
-8.36
-10.74
-12.74
-14.71
-17.03
-19.99
-23.67
-27.84
-32.01
-35.51
-37.69
-38.06
-36.44
-33.02
-28.29
-22.96
-17.65
-12.89
-8.89
-5.66
-3.1
-1.06
0.53
1.66
2.32
2.53
2.42
2.15
1.93
1.85
1.88
1.91
1.84
1.63
1.39
1.25
1.32
1.54
1.79
1.8
1.39
0.51
-0.76
-2.2
-3.54
-4.56
-5.18
-5.53
-5.93
-6.85
-8.74
-11.84
-16.05
-20.83
-25.33
-28.58
-29.78
-28.49
-24.8
-19.28
-12.81
-6.31
-0.53
4.15
7.68
10.21
12
13.23
14
14.37
14.41
14.2
13.84
13.38
12.88
12.4
12.02
11.84
11.94
12.31
12.82
13.22
13.27
12.75
11.58
9.79
7.55
5.03
2.42
-0.12
-2.5
-4.74
-6.97
-9.43
-12.42
-16.09
-20.39
-24.82
-28.58
-30.67
-30.29
-27.1
-21.43
-14.21
-6.62
0.23
5.64
9.42
11.8
13.23
14.13
14.75
15.17
15.37
15.36
15.16
14.89
14.58
14.27
13.94
13.56
13.22
13
12.98
13.07
13.02
12.45
11.04
8.69
5.56
2.07
-1.33
-4.3
-6.76
-8.87
-11.03
-13.67
-17.15
-21.53
-26.47
-31.19
-34.6
-35.63
-33.61
-28.51
-21.01
-12.32
-3.72
3.78
9.71
14.14
17.42
19.95
21.94
23.39
24.22
24.4
24.08
23.53
22.99
22.59
22.31
21.99
21.58
21.19
21.01
21.17
21.6
21.92
21.64
20.32
17.83
14.33
10.24
6
1.94
-1.8
-5.28
-8.73
-12.49
-16.9
-22.17
-28.14
-34.22
-39.36
-42.38
-42.32
-38.92
-32.65
-24.66
-16.27
-8.57
-2.12
3.1
7.4
11.14
14.43
17.19
19.19
20.38
20.87
20.97
21.02
21.21
21.55
21.87
21.95
21.65
21.02
20.21
19.37
18.56
17.57
16.04
13.58
10.02
5.55
0.69
-3.92
-7.77
-10.73
-13.07
-15.36
-18.18
-22
-26.98
-32.94
-39.31
-45.16
-49.31
-50.65
-48.47
-42.84
-34.61
-25.21
-16.13
-8.47
-2.55
1.91
5.53
8.83
11.96
14.8
17.06
18.58
19.49
20.05
20.6
21.26
21.99
22.59
22.91
22.95
22.87
22.81
22.74
22.42
21.43
19.4
16.11
11.71
6.6
1.36
-3.45
-7.49
-10.73
-13.47
-16.24
-19.65
-24.11
-29.62
-35.59
-40.94
-44.29
-44.43
-40.73
-33.42
-23.53
-12.61
-2.19
6.69
13.66
19.01
23.35
27.17
30.68
33.73
36
37.29
37.66
37.49
37.28
37.43
38.08
39.06
39.99
40.55
40.57
40.11
39.34
38.4
37.28
35.77
33.6
30.55
26.57
21.85
16.74
11.64
6.87
2.62
-1.11
-4.47
-7.78
-11.42
-15.79
-21.14
-27.43
-34.14
-40.27
-44.56
-45.79
-43.29
-37.18
-28.42
-18.49
-8.87
-0.63
5.88
10.92
15.07
18.83
22.38
25.54
28.03
29.62
30.39
30.59
30.55
30.43
30.22
29.73
28.83
27.57
26.22
25.07
24.3
23.82
23.27
22.21
20.28
17.38
13.67
9.49
5.22
1.23
-2.29
-5.28
-7.88
-10.41
-13.29
-16.93
-21.58
-27.22
-33.49
-39.64
-44.7
-47.61
-47.51
-43.96
-37.19
-28.04
-17.82
-7.81
0.99
8.24
14.12
19.09
23.52
27.5
30.78
33.03
34.08
34.11
33.55
32.94
32.6
32.59
32.65
32.49
31.91
30.96
29.89
28.92
28.14
27.36
26.18
24.17
21.04
16.82
11.8
6.5
1.42
-3.1
-7.01
-10.5
-13.93
-17.75
-22.32
-27.82
-34.15
-40.88
-47.19
-52.02
-54.32
-53.39
-49.14
-42.23
-33.85
-25.33
-17.78
-11.81
-7.53
-4.75
-3.19
-2.63
-2.87
-3.71
-4.88
-6.1
-7.15
-7.97
-8.71
-9.66
-11.09
-13.15
-15.72
-18.5
-21.13
-23.35
-25.27
-27.3
-30.11
-34.24
-39.85
-46.66
-53.9
-60.62
-65.96
-69.39
-70.86
-70.91
-70.51
-70.82
-72.74
-76.42
-81.05
-84.83
-85.48
-81
-70.5
-54.47
-34.69
-13.63
6.33
23.4
36.62
45.73
50.93
52.64
51.5
48.29
43.95
39.36
35.23
31.9
29.4
27.56
26.12
24.94
23.99
23.41
23.5
24.56
26.77
30.05
34.04
38.27
42.42
46.59
51.31
57.23
64.74
73.5
82.46
90.03
94.7
95.54
92.66
87.11
80.61
74.89
71.08
69.26
68.41
66.69
62.09
53.04
38.87
20
-2.23
-25.98
-49.33
-70.77
-89.36
-104.68
-116.61
-124.98
-129.47
-129.69
-125.43
-117
-105.35
-91.85
-77.87
-64.4
-51.88
-40.33
-29.61
-19.69
-10.75
-3.12
2.94
7.24
9.8
10.72
10.26
8.78
6.75
4.78
3.48
3.31
4.52
7.01
10.43
14.21
17.78
20.64
22.49
23.24
23.01
21.99
20.46
18.61
16.61
14.6
12.65
10.84
9.22
7.78
6.51
5.37
4.36
3.49
2.83
2.41
2.21
2.13
2.04
1.82
1.41
0.81
0.06
-0.83
-1.96
-3.45
-5.36
-7.6
-9.76
-11.2
-11.2
-9.23
-5.17
0.63
7.4
14.27
20.5
25.67
29.64
32.53
34.5
35.64
36.03
35.76
34.97
33.86
32.64
31.44
30.3
29.18
28.03
26.85
25.66
24.5
23.36
22.17
20.8
19.13
17.07
14.63
11.89
9
6.15
3.48
1.06
-1.14
-3.27
-5.61
-8.42
-11.85
-15.82
-19.94
-23.54
-25.87
-26.26
-24.37
-20.32
-14.68
-8.29
-2.03
3.44
7.84
11.26
13.96
16.23
18.15
19.62
20.48
20.62
20.13
19.29
18.41
17.73
17.25
16.88
16.47
15.97
15.42
14.9
14.42
13.85
13.02
11.73
9.91
7.63
5.09
2.5
0.07
-2.1
-4.03
-5.83
-7.7
-9.88
-12.57
-15.83
-19.56
-23.44
-26.9
-29.29
-30
-28.62
-25.14
-19.93
-13.68
-7.17
-1.08
4.19
8.47
11.85
14.45
16.38
17.68
18.37
18.47
18.1
17.45
16.8
16.36
16.23
16.34
16.48
16.4
15.94
15.11
14.1
13.17
12.47
11.95
11.36
10.33
8.63
6.21
3.35
0.42
-2.18
-4.3
-5.99
-7.55
-9.32
-11.6
-14.53
-18.05
-21.86
-25.48
-28.27
-29.63
-29.06
-26.39
-21.8
-15.82
-9.23
-2.85
2.64
6.89
9.89
11.91
13.29
14.26
14.86
15.01
14.66
13.94
13.15
12.63
12.58
12.9
13.32
13.52
13.27
12.6
11.67
10.69
9.76
8.88
7.9
6.66
5.05
3.05
0.78
-1.56
-3.76
-5.65
-7.2
-8.51
-9.74
-11.09
-12.78
-14.94
-17.62
-20.71
-23.87
-26.51
-27.97
-27.62
-25.19
-20.85
-15.18
-9.03
-3.15
1.88
5.84
8.75
10.76
12.06
12.78
13.03
12.94
12.64
12.27
12.01
11.94
12.07
12.35
12.65
12.86
12.89
12.7
12.31
11.74
11
10.03
8.74
7.08
5.08
2.84
0.55
-1.61
-3.55
-5.28
-6.9
-8.53
-10.32
-12.34
-14.72
-17.54
-20.78
-24.25
-27.47
-29.8
-30.54
-29.2
-25.69
-20.38
-13.98
-7.34
-1.23
3.88
7.83
10.66
12.54
13.64
14.05
13.87
13.2
12.27
11.39
10.84
10.76
11.09
11.58
11.94
11.97
11.69
11.26
10.87
10.58
10.29
9.73
8.65
6.91
4.59
1.97
-0.59
-2.76
-4.4
-5.56
-6.51
-7.63
-9.26
-11.59
-14.6
-18.01
-21.33
-23.96
-25.28
-24.82
-22.41
-18.25
-12.92
-7.23
-1.99
2.25
5.25
7.1
8.08
8.46
8.43
8.08
7.48
6.73
5.95
5.32
4.97
4.95
5.22
5.7
6.22
6.64
6.87
6.87
6.63
6.18
5.5
4.52
3.2
1.51
-0.48
-2.6
-4.66
-6.49
-8.02
-9.35
-10.68
-12.28
-14.37
-16.94
-19.71
-22.07
-23.25
-22.58
-19.76
-14.97
-8.87
-2.29
3.96
9.39
13.8
17.24
19.85
21.73
22.91
23.38
23.21
22.5
21.53
20.63
20.14
20.31
21.12
22.36
23.65
24.61
24.96
24.63
23.67
22.22
20.43
18.41
16.29
14.15
11.98
9.72
7.18
4.15
0.6
-3.3
-7.07
-10.09
-11.77
-11.72
-9.95
-6.78
-2.82
1.23
4.72
7.23
8.57
8.78
8.09
6.76
5.05
3.13
1.19
-0.68
-2.3
-3.55
-4.38
-4.86
-5.2
-5.67
-6.49
-7.71
-9.25
-10.9
-12.5
-13.99
-15.44
-17
-18.79
-20.89
-23.32
-26.01
-28.88
-31.76
-34.4
-36.45
-37.46
-37.01
-34.85
-31
-25.81
-19.86
-13.84
-8.31
-3.62
0.12
2.99
5.09
6.44
6.97
6.62
5.5
3.9
2.27
1.07
0.56
0.72
1.27
1.78
1.86
1.34
0.29
-1.08
-2.53
-3.95
-5.39
-7.04
-9.05
-11.49
-14.32
-17.43
-20.71
-24.07
-27.4
-30.43
-32.7
-33.6
-32.63
-29.58
-24.72
-18.71
-12.43
-6.67
-1.92
1.69
4.32
6.24
7.65
8.62
9.17
9.29
9.06
8.62
8.17
7.91
7.92
8.18
8.57
8.89
8.96
8.63
7.81
6.52
4.88
3.04
1.16
-0.65
-2.36
-4.02
-5.77
-7.76
-10.26
-13.51
-17.63
-22.42
-27.27
-31.22
-33.16
-32.31
-28.48
-22.22
-14.67
-7.07
-0.36
5.01
9.12
12.25
14.69
16.5
17.68
18.2
18.17
17.84
17.46
17.18
16.93
16.55
15.84
14.77
13.49
12.28
11.36
10.79
10.37
9.79
8.69
6.88
4.39
1.42
-1.67
-4.59
-7.16
-9.34
-11.32
-13.41
-16.02
-19.51
-23.96
-29.03
-33.89
-37.44
-38.62
-36.81
-32.08
-25.2
-17.3
-9.47
-2.47
3.42
8.27
12.22
15.3
17.44
18.57
18.76
18.28
17.53
16.88
16.54
16.5
16.62
16.68
16.56
16.23
15.78
15.27
14.73
14.08
13.12
11.63
9.44
6.57
3.22
-0.25
-3.44
-6.08
-8.16
-9.97
-11.95
-14.59
-18.21
-22.89
-28.37
-34.04
-39.06
-42.49
-43.53
-41.73
-37.18
-30.47
-22.57
-14.55
-7.32
-1.45
2.84
5.66
7.26
7.9
7.82
7.2
6.2
4.99
3.76
2.65
1.66
0.64
-0.75
-2.86
-5.8
-9.25
-12.45
-14.35
-14.08
-11.28
-6.31
-0.15
6.05
11.29
15.11
17.61
19.14
20.13
20.7
20.67
19.63
17.17
13.05
7.4
0.73
-6.11
-12.07
-16.16
-17.63
-16.19
-12.07
-5.95
1.2
8.37
14.72
19.68
23.04
24.85
25.39
25.06
24.27
23.44
22.94
23.02
23.8
25.17
26.85
28.38
29.35
29.48
28.8
27.57
26.2
25.03
24.16
23.4
22.39
20.69
18
14.28
9.7
4.6
-0.64
-5.71
-10.5
-15.04
-19.58
-24.36
-29.54
-35.1
-40.72
-45.75
-49.31
-50.51
-48.66
-43.62
-35.81
-26.24
-16.15
-6.7
1.34
7.71
12.52
16.07
18.6
20.23
21.02
21.09
20.69
20.17
19.88
20.04
20.62
21.45
22.22
22.71
22.85
22.71
22.43
22.06
21.53
20.66
19.24
17.12
14.3
10.87
7.07
3.15
-0.6
-3.96
-6.84
-9.29
-11.61
-14.16
-17.34
-21.38
-26.19
-31.3
-35.86
-38.84
-39.32
-36.81
-31.42
-23.89
-15.35
-6.94
0.47
6.5
11.14
14.67
17.35
19.33
20.67
21.38
21.55
21.37
21.11
21.03
21.29
21.91
22.72
23.47
23.92
23.94
23.57
22.92
22.15
21.27
20.15
18.59
16.42
13.61
10.31
6.79
3.36
0.23
-2.48
-4.82
-6.9
-8.95
-11.28
-14.22
-18.04
-22.78
-28.15
-33.44
-37.65
-39.76
-39.03
-35.27
-28.96
-21.12
-12.96
-5.5
0.68
5.54
9.34
12.4
14.86
16.62
17.51
17.5
16.78
15.74
14.84
14.36
14.32
14.54
14.74
14.71
14.35
13.73
13
12.31
11.77
11.35
10.91
10.21
9.03
7.27
4.98
2.35
-0.39
-3.1
-5.71
-8.21
-10.6
-12.85
-15.05
-17.36
-20.08
-23.42
-27.35
-31.41
-34.71
-36.22
-35.12
-31.15
-24.71
-16.73
-8.39
-0.68
5.78
10.77
14.39
16.84
18.31
18.87
18.63
17.79
16.71
15.78
15.33
15.47
16.04
16.71
17.2
17.36
17.2
16.89
16.55
16.21
15.71
14.81
13.28
11.03
8.16
4.95
1.78
-1.04
-3.42
-5.47
-7.53
-9.96
-13.05
-16.78
-20.85
-24.64
-27.4
-28.43
-27.28
-23.88
-18.6
-12.09
-5.2
1.34
6.99
11.46
14.73
16.88
18.03
18.29
17.82
16.8
15.56
14.46
13.82
13.82
14.34
15.07
15.6
15.63
15.09
14.17
13.13
12.17
11.26
10.17
8.58
6.28
3.32
0.01
-3.24
-6.04
-8.27
-10.09
-11.89
-14.13
-17.18
-21.12
-25.71
-30.38
-34.36
-36.82
-37.1
-34.85
-30.18
-23.64
-16.11
-8.53
-1.7
3.96
8.4
11.82
14.49
16.56
18.06
18.92
19.18
18.97
18.47
17.89
17.31
16.73
16.09
15.39
14.64
13.92
13.26
12.63
11.91
10.95
9.58
7.68
5.26
2.37
-0.75
-3.86
-6.7
-9.14
-11.21
-13.14
-15.29
-18.04
-21.61
-25.95
-30.65
-34.9
-37.73
-38.24
-35.95
-31.01
-24.15
-16.47
-9.09
-2.82
1.99
5.42
7.81
9.51
10.81
11.81
12.5
12.83
12.79
12.45
11.95
11.46
11.14
11.01
11
10.98
10.81
10.45
9.89
9.1
8
6.4
4.07
0.97
-2.72
-6.59
-10.16
-13.11
-15.45
-17.57
-20.04
-23.37
-27.68
-32.59
-37.28
-40.7
-41.92
-40.4
-36.22
-29.98
-22.7
-15.47
-9.26
-4.73
-2.13
-1.41
-2.17
-3.8
-5.51
-6.52
-6.24
-4.43
-1.22
2.95
7.52
11.98
15.98
19.36
22.02
23.92
24.92
24.82
23.4
20.53
16.26
10.99
5.42
0.36
-3.46
-5.62
-6.2
-5.6
-4.49
-3.49
-3.1
-3.6
-4.96
-6.89
-8.74
-9.71
-9.03
-6.3
-1.69
4.1
10.09
15.44
19.71
22.92
25.36
27.31
28.79
29.64
29.67
28.91
27.63
26.28
25.27
24.71
24.41
24.03
23.28
22.05
20.49
18.94
17.7
16.88
16.38
15.81
14.69
12.58
9.28
4.84
-0.4
-6.07
-11.81
-17.46
-23
-28.5
-33.96
-39.32
-44.37
-48.74
-51.95
-53.39
-52.48
-48.88
-42.71
-34.59
-25.56
-16.7
-8.83
-2.24
3.16
7.74
11.74
15.22
18.04
20.03
21.13
21.53
21.52
21.43
21.43
21.5
21.54
21.39
21.01
20.48
19.92
19.43
18.96
18.35
17.33
15.66
13.21
9.99
6.16
2.03
-2.07
-5.8
-8.99
-11.67
-14.13
-16.78
-20.08
-24.23
-29.12
-34.22
-38.69
-41.6
-42.14
-39.92
-35.11
-28.39
-20.72
-13.12
-6.3
-0.54
4.28
8.46
12.28
15.84
19.03
21.63
23.49
24.54
24.9
24.78
24.41
23.99
23.6
23.23
22.78
22.18
21.43
20.57
19.74
18.98
18.22
17.22
15.66
13.31
10.11
6.24
2.06
-2.05
-5.82
-9.16
-12.14
-14.93
-17.69
-20.59
-23.8
-27.51
-31.76
-36.34
-40.69
-43.92
-45.03
-43.31
-38.63
-31.54
-23.13
-14.63
-7.04
-0.84
4.01
7.92
11.33
14.48
17.32
19.65
21.21
21.92
21.9
21.46
20.95
20.66
20.75
21.16
21.75
22.33
22.73
22.85
22.64
22.07
21.1
19.68
17.81
15.55
13.07
10.56
8.15
5.86
3.6
1.23
-1.32
-4.01
-6.74
-9.42
-12.06
-14.83
-17.98
-21.77
-26.31
-31.39
-36.43
-40.55
-42.74
-42.21
-38.66
-32.46
-24.51
-16.01
-8.09
-1.46
3.64
7.4
10.25
12.6
14.71
16.62
18.22
19.37
20
20.14
19.99
19.76
19.65
19.73
20
20.33
20.58
20.6
20.24
19.39
17.98
16
13.53
10.66
7.58
4.44
1.39
-1.5
-4.21
-6.81
-9.36
-11.89
-14.35
-16.71
-18.94
-21.07
-23.28
-25.82
-28.92
-32.69
-37
-41.31
-44.83
-46.57
-45.7
-41.85
-35.27
-26.82
-17.71
-9.08
-1.74
4.02
8.31
11.48
13.84
15.61
16.93
17.88
18.6
19.22
19.85
20.58
21.42
22.33
23.22
23.98
24.52
24.73
24.54
23.96
23.01
21.74
20.16
18.3
16.12
13.63
10.85
7.85
4.72
1.62
-1.31
-3.9
-6.11
-8.03
-9.97
-12.34
-15.52
-19.7
-24.64
-29.7
-33.91
-36.24
-35.92
-32.65
-26.75
-19.03
-10.59
-2.49
4.5
9.99
13.96
16.61
18.24
19.07
19.29
19
18.35
17.49
16.64
16.03
15.84
16.12
16.77
17.55
18.19
18.49
18.37
17.89
17.17
16.28
15.23
13.86
12
9.48
6.32
2.73
-0.93
-4.3
-7.19
-9.65
-11.95
-14.46
-17.52
-21.33
-25.86
-30.83
-35.71
-39.68
-41.84
-41.36
-37.79
-31.28
-22.68
-13.22
-4.22
3.37
9.15
13.27
16.11
18.11
19.51
20.35
20.58
20.25
19.53
18.7
18.04
17.72
17.67
17.7
17.56
17.07
16.24
15.2
14.18
13.3
12.53
11.61
10.2
8.01
4.98
1.29
-2.66
-6.43
-9.7
-12.38
-14.67
-16.89
-19.46
-22.71
-26.84
-31.74
-37.09
-42.2
-46.18
-48.08
-47.17
-43.14
-36.32
-27.55
-18.02
-8.9
-1.03
5.23
9.97
13.47
16.05
17.86
18.97
19.39
19.25
18.79
18.28
17.93
17.74
17.57
17.24
16.7
16.06
15.57
15.42
15.6
15.88
15.8
14.94
13.05
10.16
6.61
2.85
-0.66
-3.64
-6.09
-8.24
-10.52
-13.4
-17.25
-22.18
-27.87
-33.55
-38.11
-40.41
-39.56
-35.33
-28.19
-19.26
-9.84
-1.14
6.11
11.66
15.66
18.43
20.25
21.35
21.83
21.8
21.38
20.77
20.19
19.85
19.82
20.01
20.2
20.09
19.56
18.66
17.61
16.66
15.84
14.91
13.48
11.23
8.12
4.45
0.7
-2.64
-5.33
-7.47
-9.43
-11.69
-14.72
-18.84
-24.12
-30.26
-36.59
-42.06
-45.5
-45.9
-42.77
-36.32
-27.47
-17.5
-7.72
0.95
8.14
13.92
18.54
22.2
24.89
26.46
26.82
26.1
24.7
23.15
21.93
21.27
21.08
21.04
20.81
20.19
19.2
18.01
16.86
15.82
14.75
13.37
11.34
8.45
4.78
0.63
-3.49
-7.14
-10.08
-12.36
-14.33
-16.49
-19.33
-23.15
-27.92
-33.22
-38.23
-41.93
-43.3
-41.63
-36.81
-29.39
-20.44
-11.18
-2.68
4.44
10.04
14.26
17.37
19.52
20.78
21.2
20.89
20.11
19.22
18.54
18.21
18.17
18.17
17.96
17.45
16.72
16.06
15.69
15.67
15.77
15.51
14.41
12.19
8.94
5.06
1.11
-2.47
-5.48
-8.05
-10.56
-13.47
-17.16
-21.74
-26.97
-32.25
-36.72
-39.39
-39.46
-36.52
-30.75
-22.86
-13.97
-5.28
2.28
8.21
12.46
15.35
17.29
18.59
19.38
19.64
19.38
18.7
17.89
17.25
17.05
17.27
17.73
18.04
17.92
17.34
16.44
15.5
14.7
13.98
12.96
11.22
8.45
4.67
0.28
-4.15
-8.07
-11.22
-13.7
-15.9
-18.31
-21.36
-25.3
-30.11
-35.45
-40.64
-44.78
-46.92
-46.34
-42.81
-36.76
-29.17
-21.22
-13.96
-7.99
-3.46
-0.16
2.18
3.71
4.4
4.16
2.98
1.14
-0.84
-2.25
-2.48
-1.2
1.57
5.43
9.78
14.08
17.91
21.03
23.34
24.75
25.17
24.54
22.92
20.53
17.81
15.2
13.06
11.47
10.2
8.78
6.68
3.48
-0.88
-6.01
-11.07
-14.98
-16.72
-15.66
-11.81
-5.81
1.23
8.12
13.94
18.24
21.08
22.83
23.85
24.39
24.44
23.93
22.81
21.2
19.36
17.64
16.25
15.22
14.37
13.42
12.14
10.51
8.67
6.89
5.3
3.88
2.35
0.36
-2.33
-5.75
-9.67
-13.74
-17.65
-21.23
-24.43
-27.21
-29.54
-31.39
-32.8
-33.93
-34.93
-35.68
-35.79
-34.49
-31.02
-24.98
-16.63
-6.96
2.74
11.25
17.89
22.67
26.08
28.74
31.03
32.99
34.39
34.98
34.67
33.66
32.3
30.91
29.68
28.6
27.53
26.29
24.8
23.13
21.38
19.69
18.1
16.57
14.95
13.08
10.79
7.99
4.73
1.1
-2.67
-6.36
-9.74
-12.72
-15.33
-17.8
-20.46
-23.71
-27.76
-32.57
-37.66
-42.24
-45.33
-46.07
-44.02
-39.32
-32.63
-24.92
-17.17
-10.09
-4.02
1.01
5.17
8.62
11.45
13.62
15.04
15.69
15.68
15.26
14.76
14.46
14.53
14.93
15.46
15.88
16.03
15.87
15.5
15.04
14.54
13.9
12.88
11.24
8.82
5.67
2.03
-1.73
-5.24
-8.24
-10.65
-12.56
-14.23
-15.99
-18.22
-21.18
-24.98
-29.45
-34.17
-38.45
-41.48
-42.49
-40.98
-36.86
-30.55
-22.84
-14.7
-7.06
-0.57
4.52
8.31
11.05
13.04
14.44
15.29
15.6
15.43
14.96
14.39
13.94
13.69
13.62
13.59
13.53
13.39
13.24
13.13
13.04
12.82
12.24
11.06
9.14
6.52
3.45
0.32
-2.49
-4.74
-6.46
-7.91
-9.52
-11.79
-15.04
-19.29
-24.17
-28.94
-32.64
-34.37
-33.58
-30.19
-24.66
-17.78
-10.48
-3.6
2.31
7.03
10.59
13.15
14.92
16
16.47
16.38
15.87
15.14
14.49
14.13
14.09
14.25
14.34
14.14
13.56
12.71
11.77
10.85
9.9
8.7
6.98
4.56
1.52
-1.83
-5.01
-7.65
-9.59
-11.01
-12.34
-14.1
-16.74
-20.35
-24.71
-29.21
-33.02
-35.24
-35.14
-32.41
-27.26
-20.41
-12.89
-5.73
0.34
5.07
8.6
11.3
13.48
15.29
16.67
17.52
17.83
17.76
17.53
17.35
17.28
17.2
16.94
16.36
15.55
14.81
14.46
14.64
15.13
15.37
14.71
12.65
9.19
4.77
0.14
-4.01
-7.27
-9.66
-11.58
-13.58
-16.15
-19.55
-23.72
-28.3
-32.66
-36.04
-37.67
-37
-33.8
-28.35
-21.35
-13.74
-6.48
-0.25
4.75
8.69
11.96
14.89
17.57
19.84
21.46
22.31
22.47
22.17
21.67
21.15
20.59
19.94
19.12
18.17
17.17
16.22
15.4
14.66
13.86
12.79
11.21
8.96
6.07
2.73
-0.71
-3.88
-6.58
-8.77
-10.74
-12.89
-15.67
-19.38
-24.06
-29.43
-34.88
-39.53
-42.47
-42.94
-40.61
-35.66
-28.78
-20.92
-13.03
-5.86
0.21
5.13
9.07
12.25
14.83
16.89
18.39
19.34
19.82
20
20.05
20.11
20.2
20.21
20.04
19.59
18.88
18
17.12
16.35
15.71
15.11
14.32
13.09
11.17
8.5
5.19
1.54
-2.11
-5.45
-8.4
-11.06
-13.7
-16.65
-20.19
-24.43
-29.26
-34.29
-38.86
-42.14
-43.35
-41.95
-37.85
-31.48
-23.68
-15.48
-7.76
-1.15
4.14
8.21
11.27
13.61
15.39
16.72
17.66
18.29
18.69
18.97
19.17
19.29
19.25
19
18.52
17.9
17.23
16.63
16.1
15.55
14.77
13.55
11.7
9.18
6.09
2.71
-0.62
-3.58
-6.09
-8.28
-10.53
-13.36
-17.11
-21.84
-27.15
-32.25
-36.14
-37.89
-36.91
-33.15
-27.08
-19.63
-11.79
-4.51
1.65
6.46
10
12.56
14.41
15.78
16.78
17.49
17.97
18.36
18.74
19.18
19.63
19.91
19.86
19.36
18.49
17.47
16.54
15.85
15.3
14.59
13.34
11.26
8.3
4.7
0.87
-2.71
-5.74
-8.17
-10.27
-12.48
-15.23
-18.8
-23.13
-27.79
-32.05
-35
-35.86
-34.16
-29.89
-23.6
-16.19
-8.68
-1.94
3.54
7.69
10.75
13.08
14.93
16.41
17.44
17.98
18.07
17.92
17.77
17.78
18
18.27
18.43
18.32
17.95
17.39
16.74
16.02
15.08
13.71
11.74
9.11
5.95
2.53
-0.84
-3.91
-6.59
-8.93
-11.13
-13.44
-16.08
-19.24
-23.01
-27.25
-31.52
-35.11
-37.09
-36.65
-33.39
-27.53
-19.92
-11.72
-4.05
2.37
7.36
11.13
14.05
16.38
18.19
19.39
19.9
19.77
19.23
18.61
18.23
18.22
18.55
19.01
19.32
19.3
18.91
18.26
17.51
16.75
15.89
14.77
13.21
11.11
8.51
5.6
2.61
-0.33
-3.15
-5.93
-8.71
-11.55
-14.49
-17.58
-20.96
-24.76
-28.99
-33.41
-37.44
-40.25
-40.96
-39.03
-34.42
-27.7
-19.87
-12.06
-5.15
0.41
4.62
7.72
10.06
11.81
13.03
13.69
13.81
13.53
13.05
12.56
12.18
11.91
11.68
11.44
11.23
11.1
11.12
11.26
11.38
11.24
10.57
9.18
7.02
4.24
1.13
-1.93
-4.63
-6.81
-8.55
-10.14
-11.99
-14.45
-17.68
-21.54
-25.58
-29.11
-31.38
-31.73
-29.83
-25.76
-20.01
-13.38
-6.69
-0.59
4.56
8.75
12.15
14.97
17.32
19.15
20.31
20.67
20.22
19.11
17.62
16.07
14.74
13.8
13.31
13.18
13.23
13.22
12.86
11.96
10.38
8.16
5.49
2.62
-0.23
-2.88
-5.32
-7.66
-10.14
-13
-16.43
-20.37
-24.45
-28
-30.2
-30.34
-28.02
-23.37
-17
-9.76
-2.57
3.88
9.18
13.23
16.12
18.02
19.12
19.54
19.37
18.72
17.72
16.56
15.45
14.59
14.05
13.78
13.64
13.42
12.92
12.03
10.69
8.89
6.66
4.06
1.21
-1.71
-4.51
-7.04
-9.26
-11.32
-13.51
-16.19
-19.62
-23.8
-28.33
-32.44
-35.16
-35.61
-33.31
-28.34
-21.39
-13.52
-5.88
0.66
5.67
9.2
11.66
13.47
14.99
16.34
17.45
18.17
18.37
18.05
17.3
16.3
15.16
14.02
12.99
12.23
11.88
11.96
12.27
12.47
12.09
10.79
8.5
5.45
2.09
-1.1
-3.83
-6.07
-8.11
-10.36
-13.26
-17.04
-21.7
-26.79
-31.58
-35.13
-36.53
-35.2
-31.12
-24.89
-17.46
-9.91
-3.07
2.66
7.25
10.91
13.81
16.03
17.52
18.25
18.33
17.97
17.47
17.06
16.84
16.72
16.57
16.27
15.8
15.23
14.65
14.14
13.66
13.08
12.15
10.65
8.42
5.52
2.23
-1.04
-3.87
-6.08
-7.77
-9.35
-11.36
-14.26
-18.25
-23.18
-28.52
-33.44
-37.04
-38.51
-37.35
-33.53
-27.52
-20.12
-12.32
-5.01
1.24
6.2
9.96
12.81
15.08
16.99
18.64
19.97
20.86
21.25
21.19
20.85
20.41
20.05
19.79
19.59
19.32
18.87
18.17
17.23
16.08
14.71
13.12
11.23
8.96
6.31
3.33
0.21
-2.81
-5.55
-7.93
-10.06
-12.16
-14.49
-17.26
-20.62
-24.54
-28.8
-32.92
-36.2
-37.86
-37.22
-34.03
-28.53
-21.44
-13.71
-6.24
0.37
5.87
10.32
13.89
16.75
18.97
20.56
21.47
21.67
21.25
20.37
19.28
18.25
17.51
17.13
17.06
17.18
17.34
17.42
17.34
17.04
16.47
15.56
14.2
12.29
9.77
6.71
3.3
-0.17
-3.39
-6.11
-8.25
-9.92
-11.43
-13.15
-15.41
-18.39
-22.05
-26.12
-30.13
-33.41
-35.27
-35.1
-32.58
-27.82
-21.41
-14.24
-7.3
-1.29
3.48
7.15
10.1
12.69
15.02
16.93
18.19
18.7
18.6
18.24
17.99
18.02
18.27
18.48
18.4
17.93
17.14
16.24
15.41
14.74
14.14
13.43
12.36
10.73
8.49
5.7
2.59
-0.54
-3.39
-5.77
-7.63
-9.12
-10.54
-12.24
-14.53
-17.64
-21.6
-26.21
-31.02
-35.28
-38.1
-38.66
-36.48
-31.64
-24.79
-16.98
-9.3
-2.57
2.87
7.14
10.61
13.61
16.29
18.59
20.32
21.33
21.63
21.35
20.75
20.07
19.45
18.91
18.41
17.86
17.25
16.6
15.95
15.28
14.5
13.46
12.01
10.08
7.68
4.92
1.99
-0.89
-3.54
-5.87
-7.95
-9.91
-12.02
-14.5
-17.53
-21.22
-25.51
-30.17
-34.72
-38.45
-40.49
-40.07
-36.79
-30.83
-23
-14.46
-6.38
0.42
5.69
9.62
12.62
15.05
17.03
18.48
19.26
19.33
18.89
18.28
17.82
17.72
17.94
18.27
18.46
18.34
17.9
17.22
16.46
15.72
14.95
14.04
12.82
11.11
8.87
6.14
3.11
-0.02
-3.03
-5.79
-8.28
-10.61
-12.98
-15.63
-18.79
-22.63
-27.12
-31.95
-36.52
-39.96
-41.35
-40.04
-35.86
-29.3
-21.33
-13.08
-5.54
0.75
5.69
9.55
12.59
15.05
16.96
18.3
19.1
19.48
19.61
19.62
19.53
19.32
18.93
18.39
17.82
17.35
17.03
16.76
16.38
15.71
14.64
13.17
11.33
9.2
6.8
4.2
1.48
-1.25
-3.87
-6.32
-8.67
-11.07
-13.73
-16.87
-20.61
-24.95
-29.63
-34.16
-37.81
-39.76
-39.33
-36.22
-30.66
-23.35
-15.28
-7.44
-0.61
4.87
8.98
11.89
13.85
15.05
15.65
15.81
15.7
15.5
15.35
15.3
15.26
15.11
14.73
14.07
13.26
12.48
11.89
11.57
11.39
11.06
10.28
8.8
6.58
3.73
0.54
-2.69
-5.7
-8.39
-10.77
-13.01
-15.38
-18.18
-21.69
-26.04
-31.06
-36.15
-40.37
-42.67
-42.21
-38.7
-32.56
-24.8
-16.67
-9.31
-3.38
0.94
3.89
5.81
7.01
7.61
7.59
6.92
5.64
3.91
1.95
0.03
-1.53
-2.33
-1.96
-0.01
3.68
8.89
14.95
20.89
25.7
28.59
29.28
27.94
25.11
21.46
17.7
14.37
11.84
10.16
9.08
8.09
6.54
3.88
-0.12
-5.3
-11.03
-16.28
-19.91
-20.92
-18.73
-13.46
-5.83
2.92
11.47
18.76
24.22
27.77
29.7
30.4
30.2
29.27
27.71
25.7
23.45
21.27
19.43
18.09
17.25
16.84
16.7
16.73
16.79
16.73
16.3
15.2
13.11
9.87
5.48
0.23
-5.44
-10.97
-15.84
-19.68
-22.4
-24.23
-25.66
-27.33
-29.73
-33.04
-36.88
-40.44
-42.63
-42.5
-39.55
-33.93
-26.39
-18.03
-9.95
-2.92
2.72
7.09
10.5
13.25
15.47
17.11
18.02
18.13
17.57
16.64
15.72
15.08
14.78
14.67
14.54
14.21
13.7
13.13
12.63
12.2
11.64
10.64
8.89
6.3
3.05
-0.48
-3.84
-6.72
-9.12
-11.27
-13.6
-16.52
-20.27
-24.82
-29.78
-34.52
-38.23
-40.15
-39.72
-36.79
-31.67
-25.02
-17.72
-10.59
-4.2
1.24
5.76
9.55
12.75
15.36
17.26
18.32
18.51
17.98
17.06
16.1
15.4
15.06
14.95
14.85
14.55
14.03
13.4
12.85
12.47
12.16
11.61
10.47
8.56
5.96
3.04
0.19
-2.32
-4.54
-6.74
-9.29
-12.47
-16.36
-20.8
-25.44
-29.72
-32.97
-34.49
-33.71
-30.4
-24.86
-17.84
-10.37
-3.39
2.52
7.21
10.88
13.79
16.14
17.95
19.18
19.82
19.97
19.82
19.55
19.31
19.14
19.01
18.83
18.56
18.17
17.68
17.19
16.81
16.58
16.36
15.85
14.7
12.64
9.66
6.04
2.32
-0.99
-3.55
-5.35
-6.67
-7.98
-9.79
-12.48
-16.19
-20.69
-25.34
-29.25
-31.38
-30.96
-27.7
-21.96
-14.6
-6.73
0.67
6.99
12.04
15.97
19.08
21.58
23.6
25.14
26.15
26.69
26.84
26.82
26.81
26.93
27.17
27.37
27.28
26.73
25.67
24.25
22.74
21.4
20.36
19.54
18.7
17.57
15.92
13.7
10.97
7.93
4.78
1.69
-1.24
-4.06
-6.91
-9.99
-13.52
-17.61
-22.21
-27.01
-31.51
-35
-36.87
-36.64
-34.2
-29.84
-24.11
-17.76
-11.53
-6
-1.54
1.72
3.79
4.83
5.03
4.58
3.71
2.64
1.61
0.85
0.52
0.65
1.11
1.69
2.15
2.4
2.49
2.6
2.91
3.42
3.98
4.28
4.03
3.04
1.34
-0.89
-3.36
-5.8
-8.04
-10.05
-11.92
-13.84
-16.06
-18.79
-22.11
-25.84
-29.5
-32.36
-33.61
-32.58
-28.99
-23.09
-15.63
-7.68
-0.29
5.79
10.21
13.07
14.67
15.35
15.33
14.74
13.66
12.26
10.8
9.57
8.82
8.61
8.79
9.07
9.19
9
8.57
8.12
7.87
7.91
8.14
8.24
7.88
6.84
5.1
2.91
0.59
-1.57
-3.4
-4.94
-6.34
-7.81
-9.53
-11.7
-14.46
-17.83
-21.69
-25.63
-28.97
-30.88
-30.6
-27.77
-22.6
-15.82
-8.5
-1.67
3.93
8.03
10.74
12.44
13.48
14.13
14.49
14.59
14.45
14.15
13.81
13.57
13.52
13.65
13.88
14.09
14.12
13.92
13.5
12.92
12.26
11.53
10.67
9.59
8.17
6.41
4.34
2.06
-0.31
-2.67
-4.95
-7.17
-9.39
-11.69
-14.18
-17
-20.29
-24.15
-28.58
-33.31
-37.78
-41.18
-42.66
-41.61
-37.91
-32.05
-24.97
-17.79
-11.42
-6.39
-2.78
-0.39
1.08
1.84
1.97
1.52
0.55
-0.72
-2.02
-3.03
-3.52
-3.43
-2.83
-1.91
-0.84
0.24
1.3
2.34
3.4
4.43
5.3
5.87
6.04
5.82
5.31
4.68
4.01
3.27
2.31
0.94
-0.93
-3.31
-6.13
-9.34
-12.97
-17.09
-21.68
-26.49
-31
-34.49
-36.28
-35.89
-33.24
-28.64
-22.7
-16.15
-9.67
-3.73
1.42
5.68
9.07
11.62
13.34
14.27
14.55
14.45
14.35
14.62
15.49
17.02
19.02
21.15
23.08
24.58
25.59
26.14
26.27
25.93
25.01
23.38
21.07
18.27
15.29
12.49
10.03
7.83
5.5
2.57
-1.38
-6.42
-12.24
-18.14
-23.15
-26.37
-27.14
-25.29
-21.16
-15.52
-9.39
-3.7
0.91
4.19
6.24
7.34
7.75
7.62
6.99
5.89
4.43
2.84
1.39
0.3
-0.34
-0.61
-0.66
-0.66
-0.75
-1.03
-1.58
-2.47
-3.72
-5.29
-7.05
-8.87
-10.68
-12.52
-14.59
-17.1
-20.24
-24
-28.03
-31.7
-34.16
-34.55
-32.34
-27.49
-20.54
-12.48
-4.44
2.62
8.21
12.27
15.07
16.96
18.19
18.82
18.87
18.39
17.54
16.63
16.03
16.03
16.77
18.21
20.15
22.28
24.28
25.88
26.84
27.02
26.36
24.87
22.67
19.92
16.82
13.52
10.07
6.34
2.15
-2.62
-7.83
-13.03
-17.44
-20.17
-20.49
-18.1
-13.26
-6.73
0.45
7.24
12.86
16.91
19.39
20.52
20.69
20.24
19.43
18.42
17.26
15.96
14.49
12.89
11.25
9.76
8.6
7.9
7.6
7.48
7.13
6.2
4.5
2.07
-0.82
-3.81
-6.6
-9.09
-11.32
-13.53
-16.02
-19.08
-22.94
-27.53
-32.5
-37.08
-40.27
-41.08
-38.9
-33.69
-26.13
-17.34
-8.59
-0.92
5.13
9.43
12.24
13.88
14.65
14.75
14.33
13.59
12.76
12.12
11.87
12.01
12.39
12.75
12.85
12.59
12.03
11.33
10.58
9.75
8.67
7.08
4.84
1.98
-1.29
-4.67
-7.9
-10.87
-13.7
-16.63
-19.99
-24.06
-28.96
-34.52
-40.23
-45.24
-48.49
-49
-46.18
-40.09
-31.51
-21.72
-12.11
-3.73
2.9
7.89
11.64
14.63
17.09
19.02
20.32
20.94
21.01
20.79
20.57
20.53
20.67
20.84
20.87
20.66
20.25
19.77
19.31
18.85
18.23
17.14
15.29
12.52
8.89
4.71
0.39
-3.64
-7.16
-10.17
-12.97
-16.04
-19.89
-24.82
-30.72
-37
-42.66
-46.5
-47.49
-45.08
-39.37
-31.14
-21.55
-11.88
-3.15
4.03
9.46
13.35
16.02
17.86
19.12
19.96
20.43
20.55
20.35
19.9
19.3
18.66
18.12
17.75
17.61
17.63
17.63
17.33
16.4
14.63
11.99
8.66
4.98
1.3
-2.12
-5.2
-8.08
-11.02
-14.35
-18.43
-23.37
-28.95
-34.42
-38.62
-40.23
-38.3
-32.64
-23.96
-13.69
-3.43
5.51
12.45
17.38
20.66
22.73
23.84
24.09
23.5
22.2
20.48
18.76
17.44
16.74
16.68
17.06
17.53
17.79
17.58
16.78
15.35
13.34
10.84
7.99
4.94
1.8
-1.45
-4.92
-8.81
-13.32
-18.53
-24.37
-30.51
-36.35
-40.99
-43.4
-42.65
-38.3
-30.6
-20.6
-9.82
0.19
8.36
14.25
18.13
20.52
21.99
22.88
23.26
23.13
22.55
21.69
20.83
20.22
20.03
20.23
20.69
21.2
21.5
21.35
20.56
18.94
16.42
13.06
9.09
4.9
0.83
-2.81
-6.01
-9
-12.25
-16.27
-21.46
-27.84
-34.91
-41.61
-46.5
-48.19
-45.79
-39.23
-29.42
-17.89
-6.36
3.78
11.84
17.8
22.13
25.36
27.86
29.72
30.89
31.3
31.06
30.46
29.88
29.57
29.52
29.49
29.12
28.23
26.89
25.39
24.09
23.14
22.38
21.33
19.51
16.56
12.54
7.81
2.96
-1.5
-5.33
-8.64
-11.81
-15.36
-19.74
-25.21
-31.73
-38.87
-45.85
-51.53
-54.65
-54.15
-49.52
-41.07
-29.97
-17.9
-6.54
2.92
10.1
15.3
19.14
22.18
24.7
26.66
27.92
28.47
28.47
28.28
28.19
28.37
28.74
29.06
29.05
28.61
27.8
26.86
26.01
25.28
24.45
23.09
20.78
17.33
12.92
8.01
3.17
-1.14
-4.8
-7.96
-11.03
-14.4
-18.42
-23.28
-28.97
-35.25
-41.48
-46.7
-49.7
-49.44
-45.34
-37.63
-27.31
-15.87
-4.83
4.67
12.09
17.44
21.07
23.43
24.85
25.53
25.62
25.21
24.43
23.47
22.57
21.91
21.62
21.69
21.92
22.08
21.89
21.24
20.12
18.62
16.8
14.62
11.92
8.59
4.68
0.47
-3.59
-7.03
-9.7
-11.82
-14.04
-17.07
-21.4
-26.93
-32.87
-37.91
-40.67
-40.07
-35.75
-28.13
-18.28
-7.63
2.48
11.03
17.5
21.86
24.41
25.65
26.03
25.87
25.4
24.74
24.05
23.47
23.14
23.06
23.12
23.1
22.81
22.11
21.06
19.81
18.57
17.44
16.34
15.06
13.31
10.86
7.69
4.01
0.18
-3.41
-6.47
-8.96
-11.08
-13.19
-15.72
-19.06
-23.48
-28.97
-35.16
-41.25
-46.08
-48.45
-47.45
-42.78
-34.96
-25.15
-14.73
-4.99
3.27
9.78
14.7
18.36
21.08
23.1
24.54
25.47
25.91
25.9
25.52
24.88
24.12
23.37
22.66
21.92
20.99
19.75
18.23
16.61
15.15
14.01
13.14
12.19
10.72
8.41
5.26
1.61
-2.02
-5.13
-7.51
-9.3
-10.93
-12.94
-15.76
-19.65
-24.54
-30.1
-35.67
-40.42
-43.38
-43.71
-40.92
-35.04
-26.73
-17.1
-7.42
1.21
8.11
13.17
16.67
19.04
20.69
21.76
22.25
22.11
21.4
20.34
19.25
18.45
18.03
17.93
17.92
17.81
17.5
17
16.42
15.84
15.24
14.53
13.55
12.15
10.19
7.61
4.48
0.98
-2.6
-5.98
-8.95
-11.53
-13.92
-16.48
-19.56
-23.44
-28.19
-33.59
-39.06
-43.76
-46.65
-46.77
-43.58
-37.14
-28.2
-18.03
-8
0.72
7.5
12.25
15.33
17.25
18.49
19.36
19.95
20.25
20.23
19.92
19.46
19.02
18.74
18.63
18.6
18.47
18.11
17.47
16.63
15.7
14.73
13.63
12.15
10.01
7.07
3.45
-0.5
-4.28
-7.44
-9.82
-11.53
-12.96
-14.55
-16.7
-19.63
-23.41
-27.94
-32.92
-37.8
-41.8
-44
-43.58
-40.14
-33.86
-25.51
-16.23
-7.18
0.74
7.11
11.9
15.36
17.83
19.53
20.6
21.06
20.98
20.48
19.78
19.13
18.74
18.68
18.84
18.98
18.81
18.19
17.12
15.79
14.41
13.12
11.83
10.29
8.17
5.31
1.76
-2.1
-5.85
-9.1
-11.75
-13.96
-16.08
-18.52
-21.6
-25.46
-30.02
-34.96
-39.64
-43.17
-44.53
-42.95
-38.16
-30.6
-21.34
-11.76
-3.06
4
9.24
12.89
15.32
16.86
17.66
17.84
17.53
16.92
16.26
15.7
15.34
15.14
15.07
15.08
15.15
15.23
15.23
15.03
14.52
13.68
12.55
11.2
9.65
7.81
5.53
2.72
-0.54
-3.97
-7.22
-10.04
-12.4
-14.56
-16.9
-19.83
-23.57
-28.09
-33.08
-37.96
-41.96
-44.19
-43.84
-40.41
-33.95
-25.13
-15.14
-5.3
3.23
9.81
14.34
17.17
18.83
19.78
20.31
20.47
20.23
19.56
18.55
17.37
16.29
15.53
15.2
15.25
15.52
15.8
15.88
15.64
15.05
14.16
13.05
11.7
10.06
8.03
5.52
2.56
-0.69
-4
-7.13
-9.93
-12.4
-14.74
-17.2
-20.05
-23.49
-27.59
-32.28
-37.27
-41.99
-45.62
-47.19
-45.89
-41.36
-33.94
-24.6
-14.73
-5.66
1.78
7.4
11.56
14.8
17.5
19.75
21.36
22.16
22.12
21.49
20.66
20
19.72
19.79
20
20.15
20.07
19.71
19.05
18.14
17.02
15.7
14.24
12.65
10.93
9.03
6.91
4.51
1.85
-1
-3.97
-6.94
-9.85
-12.64
-15.36
-18.13
-21.22
-24.95
-29.55
-34.99
-40.77
-45.93
-49.3
-49.81
-46.88
-40.66
-32.04
-22.33
-12.9
-4.75
1.65
6.39
9.88
12.54
14.65
16.26
17.27
17.61
17.36
16.76
16.09
15.61
15.43
15.54
15.81
16.07
16.17
16
15.52
14.76
13.76
12.55
11.1
9.29
7.01
4.22
1.05
-2.22
-5.25
-7.77
-9.71
-11.27
-12.8
-14.72
-17.35
-20.83
-25.04
-29.55
-33.72
-36.69
-37.62
-35.84
-31.17
-23.96
-15.08
-5.65
3.25
10.91
16.98
21.47
24.5
26.17
26.54
25.68
23.76
21.11
18.17
15.34
12.89
10.86
9.13
7.56
6.07
4.72
3.64
2.91
2.43
1.95
1.12
-0.29
-2.33
-4.82
-7.48
-10.04
-12.44
-14.76
-17.21
-20.01
-23.34
-27.25
-31.64
-36.2
-40.29
-43.06
-43.58
-41.12
-35.54
-27.32
-17.52
-7.45
1.69
9.13
14.59
18.21
20.33
21.35
21.59
21.27
20.5
19.34
17.87
16.21
14.55
13.13
12.18
11.82
12.02
12.55
13.05
13.15
12.57
11.13
8.86
5.92
2.55
-0.95
-4.33
-7.47
-10.43
-13.45
-16.93
-21.21
-26.38
-32.11
-37.54
-41.55
-42.95
-41.04
-35.75
-27.75
-18.27
-8.61
0.14
7.37
12.96
17.09
19.98
21.82
22.75
22.86
22.34
21.4
20.28
19.17
18.13
17.2
16.37
15.67
15.21
15.03
15.13
15.32
15.27
14.59
12.98
10.33
6.82
2.85
-1.1
-4.66
-7.71
-10.43
-13.27
-16.76
-21.29
-26.95
-33.34
-39.58
-44.47
-46.74
-45.54
-40.65
-32.67
-22.82
-12.59
-3.25
4.42
10.26
14.52
17.64
20.03
21.86
23.19
24.03
24.4
24.36
24.02
23.46
22.75
21.93
21.08
20.31
19.75
19.48
19.51
19.64
19.57
18.88
17.24
14.5
10.74
6.34
1.8
-2.34
-5.72
-8.33
-10.5
-12.85
-16.11
-20.71
-26.64
-33.23
-39.33
-43.58
-44.8
-42.36
-36.35
-27.56
-17.22
-6.73
2.78
10.58
16.47
20.65
23.56
25.59
27
27.79
27.92
27.37
26.3
25.02
23.93
23.28
23.1
23.18
23.26
23.11
22.71
22.18
21.64
21.07
20.23
18.74
16.27
12.75
8.4
3.73
-0.74
-4.62
-7.81
-10.51
-13.1
-16.02
-19.64
-24.17
-29.56
-35.41
-40.95
-45.15
-46.95
-45.58
-40.85
-33.33
-24.15
-14.64
-5.98
1.24
6.94
11.48
15.29
18.59
21.38
23.5
24.86
25.53
25.76
25.84
25.98
26.19
26.35
26.25
25.78
24.93
23.84
22.74
21.79
21.04
20.36
19.44
17.89
15.42
12
7.82
3.35
-0.89
-4.54
-7.5
-9.95
-12.24
-14.79
-18
-22.09
-27.14
-32.91
-38.78
-43.81
-46.83
-46.85
-43.34
-36.54
-27.4
-17.26
-7.48
1.04
7.98
13.48
17.85
21.32
23.86
25.36
25.78
25.31
24.39
23.51
23.03
23
23.22
23.37
23.21
22.72
22.04
21.36
20.83
20.41
19.87
18.89
17.17
14.56
11.05
6.89
2.5
-1.7
-5.39
-8.49
-11.21
-13.97
-17.23
-21.34
-26.44
-32.3
-38.36
-43.75
-47.4
-48.34
-45.94
-40.18
-31.74
-21.8
-11.71
-2.61
4.94
10.88
15.51
19.17
22.04
24.12
25.33
25.72
25.48
24.89
24.19
23.46
22.66
21.67
20.46
19.14
17.96
17.13
16.72
16.52
16.12
15.05
13
9.92
6.05
1.84
-2.28
-6.01
-9.33
-12.53
-16.04
-20.27
-25.42
-31.22
-36.95
-41.51
-43.74
-42.75
-38.28
-30.84
-21.56
-11.84
-2.9
4.53
10.29
14.69
18.16
20.97
23.17
24.59
25.09
24.72
23.77
22.68
21.88
21.59
21.75
22.13
22.44
22.42
22
21.24
20.28
19.28
18.29
17.2
15.79
13.77
10.95
7.33
3.18
-1.11
-5.12
-8.64
-11.68
-14.45
-17.3
-20.54
-24.43
-29.08
-34.37
-39.85
-44.79
-48.23
-49.19
-47.06
-41.76
-33.86
-24.42
-14.67
-5.67
1.91
7.91
12.52
16.11
18.97
21.21
22.76
23.56
23.67
23.34
22.95
22.84
23.12
23.65
24.18
24.48
24.45
24.17
23.73
23.15
22.32
21.09
19.35
17.1
14.45
11.52
8.43
5.23
2
-1.22
-4.35
-7.37
-10.34
-13.35
-16.58
-20.24
-24.46
-29.33
-34.73
-40.23
-45.06
-48.19
-48.68
-45.93
-40.05
-31.71
-22.07
-12.33
-3.42
4.1
10.13
14.76
18.22
20.71
22.38
23.34
23.69
23.57
23.13
22.57
22.04
21.68
21.53
21.54
21.59
21.57
21.38
20.92
20.15
19.01
17.46
15.47
13.02
10.16
6.98
3.65
0.32
-2.82
-5.69
-8.31
-10.76
-13.18
-15.71
-18.51
-21.73
-25.54
-30.01
-34.99
-39.98
-44.11
-46.32
-45.71
-41.82
-34.94
-25.99
-16.26
-7
0.96
7.26
12.03
15.52
17.94
19.36
19.75
19.18
17.92
16.4
15.14
14.51
14.61
15.27
16.11
16.78
17.06
16.95
16.57
16.06
15.49
14.75
13.67
12.04
9.78
6.94
3.73
0.47
-2.55
-5.17
-7.41
-9.43
-11.59
-14.23
-17.6
-21.74
-26.43
-31.11
-34.99
-37.17
-36.91
-33.81
-28.05
-20.33
-11.73
-3.36
3.97
9.81
14.13
17.08
18.87
19.64
19.47
18.54
17.07
15.42
13.92
12.82
12.19
11.93
11.82
11.63
11.19
10.49
9.62
8.71
7.75
6.61
5.04
2.82
-0.05
-3.32
-6.56
-9.36
-11.57
-13.29
-14.94
-16.98
-19.83
-23.64
-28.23
-33.07
-37.34
-40.06
-40.32
-37.57
-31.85
-23.79
-14.47
-5.07
3.39
10.34
15.6
19.28
21.58
22.71
22.88
22.32
21.35
20.29
19.38
18.74
18.27
17.79
17.17
16.38
15.57
14.95
14.67
14.67
14.66
14.26
13.09
10.98
7.97
4.35
0.48
-3.24
-6.53
-9.33
-11.8
-14.36
-17.57
-21.85
-27.36
-33.69
-39.94
-44.84
-47.15
-46.01
-41.25
-33.43
-23.72
-13.55
-4.16
3.61
9.55
13.87
17
19.35
21.08
22.23
22.78
22.79
22.48
22.14
21.98
22.06
22.3
22.48
22.43
22.09
21.48
20.74
19.91
18.95
17.68
15.81
13.09
9.42
4.94
0.05
-4.68
-8.76
-11.96
-14.46
-16.78
-19.63
-23.59
-28.83
-35
-41.24
-46.4
-49.29
-49.07
-45.42
-38.7
-29.81
-19.97
-10.41
-2.04
4.71
9.91
13.94
17.2
19.95
22.14
23.59
24.16
23.89
23.07
22.1
21.33
20.87
20.62
20.37
20.01
19.54
19.15
18.97
18.98
18.93
18.41
17.07
14.73
11.53
7.79
3.93
0.3
-2.97
-5.93
-8.79
-11.83
-15.29
-19.37
-24.23
-29.87
-36.12
-42.47
-48.08
-51.88
-52.83
-50.3
-44.32
-35.62
-25.46
-15.21
-5.97
1.63
7.51
11.91
15.19
17.65
19.42
20.56
21.1
21.13
20.83
20.42
20.1
20
20.1
20.3
20.4
20.27
19.87
19.27
18.61
17.92
17.09
15.86
13.93
11.04
7.21
2.74
-1.87
-6.04
-9.41
-11.94
-13.93
-15.98
-18.74
-22.66
-27.85
-33.95
-40.17
-45.43
-48.62
-48.82
-45.6
-39.18
-30.44
-20.64
-11.13
-2.92
3.51
8.27
11.75
14.35
16.18
17.14
17.01
15.78
13.8
11.67
10.05
9.29
9.33
9.72
9.87
9.26
7.67
5.15
2.02
-1.26
-4.07
-5.86
-6.22
-5.11
-2.9
-0.23
2.17
3.8
4.41
3.98
2.56
0.14
-3.39
-8.06
-13.73
-19.88
-25.74
-30.31
-32.62
-32.06
-28.48
-22.32
-14.51
-6.16
1.71
8.51
14.12
18.74
22.74
26.33
29.58
32.4
34.68
36.48
37.95
39.42
41.12
43.15
45.28
47.07
48.01
47.7
46.08
43.41
40.14
36.69
33.29
29.86
26.2
22.08
17.45
12.48
7.45
2.68
-1.64
-5.51
-9.06
-12.5
-16.11
-20.14
-24.8
-30.16
-36.03
-41.83
-46.65
-49.36
-48.97
-45.02
-37.78
-28.24
-17.83
-7.95
0.43
6.95
11.79
15.46
18.44
20.96
23.02
24.41
24.96
24.71
23.89
22.93
22.19
21.9
22.07
22.49
22.9
23.01
22.69
21.87
20.58
18.88
16.86
14.6
12.15
9.5
6.63
3.49
0.02
-3.72
-7.58
-11.38
-14.94
-18.13
-20.98
-23.69
-26.58
-30.04
-34.33
-39.44
-44.91
-49.83
-53.02
-53.35
-50.11
-43.37
-33.94
-23.19
-12.58
-3.22
4.34
10.15
14.64
18.32
21.51
24.32
26.65
28.34
29.31
29.59
29.34
28.81
28.21
27.69
27.3
26.97
26.55
25.89
24.87
23.46
21.72
19.75
17.68
15.55
13.32
10.88
8.16
5.13
1.88
-1.47
-4.78
-7.96
-11
-13.98
-16.97
-20.11
-23.54
-27.46
-31.98
-37.11
-42.51
-47.47
-50.93
-51.8
-49.37
-43.56
-35.12
-25.32
-15.6
-6.99
0.04
5.59
10.08
13.87
17.1
19.71
21.59
22.73
23.27
23.43
23.4
23.27
23.06
22.74
22.4
22.16
22.15
22.37
22.71
22.89
22.63
21.76
20.23
18.13
15.63
12.88
10.02
7.16
4.34
1.57
-1.16
-3.87
-6.62
-9.43
-12.37
-15.49
-18.89
-22.67
-26.91
-31.65
-36.73
-41.74
-45.96
-48.44
-48.29
-44.93
-38.42
-29.52
-19.5
-9.77
-1.44
4.93
9.43
12.52
14.77
16.62
18.19
19.43
20.21
20.47
20.33
20.05
19.92
20.1
20.55
21.08
21.46
21.55
21.31
20.8
20.07
19.15
17.99
16.56
14.86
12.89
10.68
8.23
5.57
2.71
-0.24
-3.15
-5.93
-8.55
-11.09
-13.66
-16.42
-19.53
-23.15
-27.4
-32.23
-37.23
-41.64
-44.38
-44.44
-41.22
-34.88
-26.29
-16.86
-7.99
-0.68
4.7
8.36
10.83
12.6
13.93
14.8
15.09
14.72
13.85
12.83
12.07
11.91
12.46
13.51
14.69
15.62
16.09
16.05
15.67
15.1
14.41
13.51
12.22
10.38
7.93
4.97
1.73
-1.54
-4.66
-7.58
-10.35
-13.09
-15.97
-19.13
-22.68
-26.69
-31.07
-35.49
-39.37
-41.92
-42.31
-39.92
-34.63
-26.9
-17.72
-8.33
0.15
7.03
12.1
15.58
17.86
19.26
19.9
19.83
19.14
18.05
16.96
16.25
16.15
16.56
17.18
17.57
17.48
16.86
15.93
14.99
14.21
13.54
12.67
11.21
8.88
5.68
1.9
-1.96
-5.44
-8.27
-10.5
-12.46
-14.63
-17.45
-21.24
-25.99
-31.45
-37.03
-41.89
-45.02
-45.51
-42.8
-36.94
-28.67
-19.26
-10.13
-2.37
3.5
7.63
10.57
12.92
15.05
16.99
18.57
19.59
19.99
19.93
19.68
19.53
19.61
19.87
20.15
20.26
20.13
19.84
19.54
19.27
18.94
18.22
16.72
14.18
10.62
6.38
1.95
-2.21
-5.85
-8.98
-11.79
-14.54
-17.46
-20.76
-24.56
-28.89
-33.56
-38.08
-41.65
-43.35
-42.36
-38.36
-31.67
-23.22
-14.29
-6.08
0.7
5.89
9.84
13.09
16.01
18.7
20.95
22.49
23.2
23.2
22.81
22.35
22.07
22
22.08
22.21
22.31
22.35
22.3
22.07
21.57
20.7
19.41
17.7
15.58
13.09
10.22
7
3.5
-0.14
-3.76
-7.22
-10.42
-13.37
-16.15
-18.95
-22
-25.55
-29.77
-34.57
-39.5
-43.71
-46.15
-45.87
-42.41
-35.98
-27.47
-18.13
-9.18
-1.48
4.66
9.37
13.01
15.97
18.48
20.62
22.36
23.65
24.49
24.93
25.06
25.01
24.89
24.8
24.81
25
25.33
25.7
25.91
25.68
24.8
23.17
20.89
18.19
15.35
12.56
9.83
7.07
4.12
0.9
-2.55
-6.1
-9.55
-12.78
-15.72
-18.5
-21.34
-24.56
-28.48
-33.22
-38.52
-43.63
-47.44
-48.77
-46.84
-41.54
-33.56
-24.09
-14.51
-5.9
1.19
6.72
10.97
14.36
17.17
19.55
21.49
22.94
23.87
24.28
24.25
23.91
23.37
22.75
22.21
21.89
21.91
22.3
22.96
23.6
23.86
23.44
22.2
20.21
17.72
15
12.25
9.54
6.82
4.03
1.1
-2
-5.22
-8.44
-11.56
-14.45
-17.05
-19.48
-22
-24.97
-28.69
-33.24
-38.28
-43.06
-46.55
-47.71
-45.8
-40.67
-32.87
-23.48
-13.84
-5.11
2
7.35
11.2
13.99
16.07
17.61
18.64
19.15
19.24
19.07
18.84
18.69
18.69
18.81
18.99
19.18
19.33
19.37
19.2
18.69
17.77
16.47
14.93
13.32
11.73
10.16
8.44
6.4
3.91
1.03
-2.04
-5.03
-7.73
-10.12
-12.31
-14.57
-17.16
-20.28
-24.03
-28.34
-32.93
-37.25
-40.5
-41.8
-40.43
-36.13
-29.26
-20.71
-11.7
-3.33
3.63
8.92
12.63
15.07
16.5
17.17
17.2
16.72
15.89
14.92
14.02
13.39
13.11
13.2
13.57
14.08
14.58
14.96
15.17
15.14
14.82
14.1
12.87
11.05
8.63
5.71
2.5
-0.74
-3.79
-6.56
-9.11
-11.62
-14.3
-17.35
-20.89
-24.88
-29.12
-33.18
-36.39
-37.95
-37.13
-33.57
-27.44
-19.54
-11.01
-2.98
3.79
9.02
12.92
15.81
17.97
19.43
20.12
19.97
19.13
17.92
16.72
15.85
15.39
15.22
15.16
15.04
14.81
14.51
14.23
13.98
13.66
13.07
12.01
10.31
7.91
4.94
1.62
-1.74
-4.84
-7.56
-9.9
-12.05
-14.3
-17.04
-20.56
-24.99
-30.12
-35.34
-39.73
-42.24
-42.04
-38.79
-32.79
-24.92
-16.33
-8.12
-1.03
4.66
9.05
12.44
15.13
17.3
19.05
20.36
21.22
21.64
21.7
21.49
21.14
20.79
20.5
20.27
20.05
19.75
19.32
18.74
17.99
17.07
15.88
14.22
11.86
8.7
4.83
0.59
-3.51
-7
-9.7
-11.73
-13.52
-15.64
-18.59
-22.61
-27.58
-33.07
-38.33
-42.43
-44.43
-43.61
-39.65
-32.88
-24.19
-14.84
-6.07
1.28
6.94
11.12
14.27
16.78
18.78
20.21
20.96
21.03
20.62
20.09
19.76
19.8
20.12
20.45
20.48
20.05
19.17
18.07
17.01
16.17
15.51
14.84
13.83
12.22
9.87
6.8
3.22
-0.63
-4.49
-8.14
-11.49
-14.57
-17.54
-20.7
-24.42
-28.98
-34.38
-40.19
-45.51
-49.14
-49.95
-47.27
-41.18
-32.55
-22.69
-13.04
-4.61
2.14
7.33
11.35
14.61
17.33
19.51
21.01
21.76
21.81
21.37
20.74
20.18
19.82
19.63
19.46
19.16
18.65
17.94
17.14
16.37
15.65
14.87
13.78
12.14
9.74
6.57
2.82
-1.2
-5.11
-8.63
-11.63
-14.19
-16.56
-19.13
-22.28
-26.27
-31.13
-36.48
-41.58
-45.41
-46.87
-45.2
-40.2
-32.38
-22.86
-12.97
-3.92
3.58
9.34
13.62
16.8
19.23
21.11
22.5
23.38
23.79
23.81
23.55
23.12
22.6
21.98
21.27
20.46
19.61
18.84
18.24
17.84
17.51
16.95
15.82
13.83
10.88
7.15
3.01
-1.08
-4.72
-7.7
-10.04
-12.02
-14.05
-16.65
-20.17
-24.77
-30.23
-35.91
-40.84
-43.91
-44.16
-41.07
-34.8
-26.19
-16.51
-7.09
1.09
7.57
12.47
16.17
19.08
21.42
23.21
24.33
24.7
24.37
23.52
22.45
21.48
20.87
20.7
20.94
21.38
21.79
21.95
21.75
21.14
20.15
18.79
17.04
14.86
12.22
9.15
5.77
2.23
-1.28
-4.65
-7.87
-11.01
-14.21
-17.63
-21.43
-25.76
-30.66
-36.01
-41.4
-46.1
-49.09
-49.4
-46.37
-40.01
-31.05
-20.78
-10.58
-1.64
5.44
10.59
14.15
16.61
18.4
19.81
20.93
21.77
22.26
22.39
22.27
22.02
21.86
21.94
22.29
22.84
23.39
23.72
23.65
23.07
21.98
20.48
18.66
16.62
14.38
11.89
9.11
6.04
2.78
-0.51
-3.62
-6.41
-8.9
-11.23
-13.61
-16.33
-19.64
-23.77
-28.84
-34.69
-40.77
-46.1
-49.46
-49.68
-46.14
-39.02
-29.28
-18.39
-7.81
1.34
8.55
13.83
17.53
20.06
21.81
23.05
23.96
24.67
25.25
25.72
26.05
26.16
26.02
25.66
25.22
24.83
24.58
24.44
24.27
23.86
23.03
21.7
19.89
17.71
15.23
12.52
9.58
6.39
2.98
-0.59
-4.17
-7.64
-10.85
-13.76
-16.47
-19.16
-22.15
-25.75
-30.18
-35.4
-41.08
-46.52
-50.74
-52.7
-51.6
-47.06
-39.41
-29.57
-18.84
-8.59
0.18
7
11.91
15.33
17.75
19.57
21.05
22.3
23.38
24.33
25.13
25.76
26.19
26.41
26.42
26.31
26.18
26.1
26.07
26.01
25.75
25.09
23.89
22.02
19.5
16.5
13.23
9.92
6.68
3.48
0.22
-3.21
-6.8
-10.43
-13.91
-17.1
-20
-22.84
-25.97
-29.79
-34.47
-39.79
-45.05
-49.13
-50.81
-49.15
-43.89
-35.54
-25.28
-14.56
-4.7
3.46
9.65
14.03
16.99
18.98
20.32
21.24
21.92
22.47
22.97
23.44
23.89
24.29
24.63
24.94
25.29
25.7
26.1
26.35
26.21
25.51
24.17
22.25
19.93
17.35
14.58
11.58
8.29
4.66
0.79
-3.14
-6.91
-10.36
-13.45
-16.25
-18.88
-21.5
-24.3
-27.52
-31.39
-35.94
-40.85
-45.35
-48.33
-48.6
-45.4
-38.67
-29.22
-18.39
-7.71
1.6
8.87
14.04
17.41
19.43
20.52
20.98
21
