4.95
4.73
4.93
5.31
5.58
5.51
4.99
4.12
3.14
2.32
1.86
1.88
2.38
3.25
4.32
5.32
6
6.29
6.45
7.12
9.21
13.55
20.53
29.83
40.47
51.04
60.14
66.76
70.47
71.47
70.5
68.53
66.57
65.41
65.43
66.52
68.15
69.54
69.88
68.51
64.94
58.91
50.3
39.21
26.01
11.4
-3.67
-18.12
-31.02
-41.79
-50.36
-57.12
-62.71
-67.77
-72.68
-77.54
-82.08
-85.86
-88.3
-88.85
-87.09
-82.83
-76.21
-67.71
-58.09
-48.2
-38.82
-30.5
-23.52
-17.9
-13.57
-10.38
-8.18
-6.76
-5.85
-5.16
-4.4
-3.36
-1.99
-0.41
1.16
2.46
3.31
3.66
3.58
3.22
2.71
2.06
1.19
-0.05
-1.78
-4
-6.64
-9.57
-12.7
-16.01
-19.48
-22.96
-26.11
-28.42
-29.34
-28.5
-25.89
-21.94
-17.39
-13.04
-9.51
-7.09
-5.74
-5.21
-5.22
-5.57
-6.18
-6.99
-7.98
-9.03
-9.99
-10.69
-10.94
-10.63
-9.68
-8.11
-6.03
-3.61
-1.12
1.24
3.32
5.09
6.63
8.05
9.47
11
12.69
14.53
16.47
18.39
20.2
21.91
23.72
26.07
29.54
34.71
41.83
50.79
61.04
71.78
82.17
91.51
99.37
105.58
110.14
113.2
114.96
115.67
115.6
115.01
114.08
112.93
111.65
110.36
109.22
108.33
107.53
106.38
104.06
99.62
92.25
81.44
67.24
50.18
31.12
11.13
-8.71
-27.45
-44.41
-59.31
-72.36
-84.14
-95.34
-106.43
-117.41
-127.69
-136.3
-142.28
-145.02
-144.44
-140.98
-135.39
-128.48
-120.93
-113.25
-105.78
-98.77
-92.4
-86.82
-82.05
-78
-74.48
-71.25
-68.1
-64.91
-61.61
-58.24
-54.88
-51.59
-48.47
-45.63
-43.22
-41.39
-40.28
-39.91
-40.13
-40.58
-40.74
-40.04
-38.11
-34.83
-30.48
-25.6
-20.86
-16.84
-13.72
-11.32
-9.11
-6.42
-2.72
2.14
7.89
13.92
19.53
24.18
27.63
29.94
31.28
31.86
31.76
31.03
29.8
28.28
26.81
25.69
25.08
24.93
25.02
25.14
25.14
25.04
24.91
24.81
24.64
24.19
23.21
21.59
19.4
16.86
14.23
11.73
9.39
7.17
4.96
2.7
0.36
-2
-4.23
-6.08
-7.22
-7.32
-6.13
-3.68
-0.24
3.66
7.46
10.65
12.92
14.24
14.69
14.49
13.83
12.86
11.72
10.55
9.53
8.86
8.68
8.97
9.57
10.2
10.55
10.44
9.78
8.63
7.12
5.38
3.57
1.84
0.29
-1.03
-2.17
-3.28
-4.56
-6.16
-8.16
-10.46
-12.86
-15.03
-16.62
-17.25
-16.58
-14.38
-10.58
-5.42
0.58
6.71
12.25
16.74
20.12
22.68
24.85
26.94
29.02
30.94
32.56
33.93
35.38
37.38
40.32
44.32
49.12
54.19
58.93
62.75
65.21
66
64.96
62.12
57.67
52.04
45.81
39.6
33.86
28.72
24.03
19.39
14.46
9.19
3.84
-0.99
-4.67
-6.8
-7.36
-6.71
-5.48
-4.26
-3.51
-3.42
-4
-5.19
-6.92
-9.17
-11.89
-15
-18.29
-21.51
-24.32
-26.45
-27.71
-28.08
-27.65
-26.65
-25.32
-23.9
-22.55
-21.39
-20.51
-19.99
-19.84
-19.99
-20.24
-20.38
-20.25
-19.93
-19.79
-20.38
-22.26
-25.71
-30.54
-36.06
-41.27
-45.18
-47.11
-46.9
-44.92
-42
-39.08
-36.99
-36.31
-37.17
-39.29
-42.04
-44.55
-45.98
-45.74
-43.66
-39.99
-35.34
-30.36
-25.59
-21.34
-17.67
-14.49
-11.74
-9.37
-7.4
-5.85
-4.66
-3.78
-3.19
-3.03
-3.58
-5.22
-8.28
-12.84
-18.67
-25.06
-31.01
-35.34
-36.94
-35.08
-29.65
-21.27
-11.19
-0.98
7.91
14.56
18.68
20.65
21.07
20.54
19.49
18.14
16.7
15.41
14.62
14.65
15.68
17.71
20.53
23.84
27.31
30.66
33.67
36.14
37.98
39.11
39.48
39.05
37.81
35.78
33.06
29.78
26.11
22.12
17.8
13.16
8.41
3.98
0.57
-1.09
-0.5
2.34
6.94
12.43
17.92
22.67
26.31
28.81
30.37
31.3
31.82
32.08
32.11
31.88
31.32
30.38
29.06
27.37
25.39
23.29
21.24
19.43
17.9
16.52
14.97
12.85
9.87
5.98
1.44
-3.25
-7.56
-11.03
-13.46
-14.8
-15.19
-14.82
-13.8
-12.19
-9.98
-7.16
-3.81
-0.1
3.63
7
9.58
11.03
11.14
9.81
7.05
2.95
-2.32
-8.44
-14.94
-21.13
-26.19
-29.29
-29.81
-27.54
-22.7
-15.99
-8.45
-1.19
4.75
8.69
10.39
10.06
8.31
5.9
3.6
1.97
1.28
1.43
2.04
2.59
2.51
1.49
-0.53
-3.22
-6
-8.26
-9.59
-9.9
-9.39
-8.4
-7.22
-5.96
-4.59
-3.06
-1.41
0.26
1.76
2.95
3.76
4.2
4.31
4.16
3.8
3.3
2.79
2.39
2.18
2.2
2.37
2.57
2.63
2.45
1.93
1.05
-0.17
-1.67
-3.38
-5.28
-7.44
-10
-13.08
-16.69
-20.61
-24.35
-27.22
-28.47
-27.57
-24.32
-18.98
-12.21
-4.82
2.34
8.69
13.91
18.02
21.23
23.82
26.03
28.03
29.91
31.67
33.31
34.79
36.1
37.16
37.87
38.09
37.55
35.89
32.65
27.45
20.08
10.67
-0.32
-12.17
-24.04
-35.14
-44.8
-52.63
-58.53
-62.76
-65.86
-68.51
-71.23
-74.12
-76.75
-78.25
-77.7
-74.51
-68.71
-60.94
-52.16
-43.33
-35.14
-27.86
-21.46
-15.67
-10.16
-4.63
1.11
7.09
13.16
19.03
24.36
28.8
32.16
34.38
35.51
35.68
35.07
33.87
32.32
30.65
29
27.39
25.73
23.92
21.84
19.5
16.94
14.23
11.4
8.42
5.3
2.17
-0.62
-2.56
-3.14
-2.02
0.84
5.07
10.04
14.98
19.21
22.24
23.9
24.28
23.62
22.23
20.39
18.32
16.14
13.96
11.87
9.97
8.31
6.92
5.78
4.88
4.18
3.75
3.57
3.66
3.93
4.22
4.35
4.17
3.61
2.7
1.52
0.18
-1.25
-2.71
-4.23
-5.85
-7.61
-9.43
-11.12
-12.28
-12.47
-11.26
-8.46
-4.19
1.1
6.78
12.18
16.77
20.26
22.56
23.76
23.95
23.25
21.79
19.76
17.48
15.33
13.68
12.71
12.36
12.3
12.09
11.35
9.93
7.96
5.78
3.75
2.12
1
0.34
0.05
0.01
0.12
0.24
0.21
-0.15
-0.94
-2.02
-3.05
-3.46
-2.68
-0.34
3.52
8.41
13.47
17.78
20.66
21.91
21.86
21.15
20.42
20.05
19.99
19.99
19.73
19.15
18.5
18.18
18.52
19.61
21.27
23.15
24.94
26.46
27.69
28.66
29.35
29.66
29.45
28.63
27.21
25.37
23.31
21.18
18.98
16.52
13.51
9.79
5.4
0.77
-3.47
-6.56
-7.99
-7.67
-5.97
-3.54
-1.14
0.67
1.68
1.9
1.51
0.69
-0.5
-2.03
-3.9
-6.02
-8.22
-10.32
-12.15
-13.62
-14.67
-15.28
-15.45
-15.3
-15.08
-15.13
-15.79
-17.18
-19.25
-21.65
-23.99
-25.99
-27.56
-28.87
-30.22
-31.91
-34.15
-37.03
-40.55
-44.51
-48.5
-51.88
-53.88
-53.88
-51.72
-47.75
-42.86
-38.13
-34.47
-32.38
-32.04
-33.39
-36.42
-41.24
-47.88
-56.08
-65.15
-74.02
-81.55
-86.86
-89.59
-89.82
-88.02
-84.75
-80.58
-76.02
-71.54
-67.63
-64.72
-63.11
-62.91
-64
-66.08
-68.78
-71.67
-74.37
-76.61
-78.28
-79.51
-80.65
-82.23
-84.61
-87.87
-91.52
-94.49
-95.39
-92.82
-85.94
-74.64
-59.69
-42.5
-24.67
-7.62
7.67
20.73
31.49
40.08
46.72
51.64
55.14
57.56
59.27
60.58
61.67
62.59
63.22
63.39
62.92
61.7
59.71
57.06
53.99
50.73
47.5
44.42
41.45
38.51
35.44
32.19
28.79
25.31
21.79
18.15
14.33
10.31
6.28
2.73
0.3
-0.44
0.77
3.74
7.89
12.5
16.89
20.62
23.56
25.69
26.98
27.33
26.57
24.63
21.7
18.25
14.91
12.3
10.78
10.38
10.82
11.72
12.69
13.43
13.76
13.52
12.56
10.81
8.34
5.42
2.49
-0.05
-1.9
-3.08
-3.9
-4.76
-6.04
-7.77
-9.67
-11.14
-11.48
-10.13
-6.89
-1.98
3.96
10.05
15.4
19.35
21.62
22.3
21.72
20.31
18.38
16.17
13.82
11.46
9.29
7.49
6.16
5.31
4.82
4.54
4.37
4.27
4.25
4.3
4.37
4.4
4.36
4.31
4.3
4.39
4.51
4.54
4.25
3.41
1.91
-0.27
-2.93
-5.63
-7.8
-8.84
-8.27
-5.91
-1.98
2.99
8.25
13.11
17.08
19.93
21.66
22.4
22.29
21.46
20.07
18.32
16.52
14.98
13.95
13.47
13.4
13.44
13.36
13.04
12.53
11.97
11.44
10.94
10.32
9.35
7.84
5.64
2.81
-0.54
-4.13
-7.66
-10.94
-13.87
-16.65
-19.56
-22.91
-26.79
-30.95
-34.81
-37.66
-38.79
-37.75
-34.47
-29.22
-22.61
-15.39
-8.32
-1.94
3.44
7.83
11.35
14.12
16.21
17.57
18.19
18.16
17.72
17.2
16.91
17.03
17.5
18.15
18.74
19.05
19.04
18.76
18.36
17.93
17.45
16.78
15.71
14.08
11.85
9.2
6.38
3.64
1.11
-1.19
-3.38
-5.6
-7.99
-10.67
-13.71
-17.09
-20.62
-23.84
-26.07
-26.52
-24.58
-20.07
-13.38
-5.41
2.74
10.05
15.97
20.37
23.53
25.79
27.4
28.41
28.81
28.6
27.97
27.23
26.73
26.68
27.07
27.74
28.42
28.86
28.94
28.63
27.97
27.02
25.81
24.31
22.47
20.2
17.46
14.29
10.88
7.49
4.47
1.97
0.02
-1.63
-3.39
-5.69
-8.85
-12.88
-17.5
-22.09
-25.82
-27.88
-27.67
-25.04
-20.3
-14.2
-7.59
-1.3
4.14
8.47
11.64
13.73
14.83
15.07
14.6
13.66
12.51
11.4
10.57
10.15
10.19
10.62
11.36
12.27
13.21
14.03
14.57
14.65
14.14
12.98
11.27
9.22
7.05
4.98
3.07
1.33
-0.35
-2.13
-4.17
-6.63
-9.55
-12.75
-15.74
-17.79
-18.16
-16.36
-12.4
-6.84
-0.57
5.43
10.46
14.15
16.5
17.73
18.11
17.83
17.03
15.79
14.23
12.55
11
9.8
9.09
8.85
8.95
9.19
9.46
9.68
9.82
9.77
9.35
8.33
6.63
4.3
1.65
-0.95
-3.18
-4.95
-6.34
-7.61
-9
-10.71
-12.79
-15.15
-17.48
-19.31
-20.05
-19.15
-16.36
-11.83
-6.2
-0.34
4.86
8.81
11.31
12.46
12.59
12.06
11.15
10.14
9.24
8.59
8.32
8.45
8.99
9.91
11.21
12.86
14.84
17.01
19.2
21.18
22.71
23.61
23.72
22.93
21.26
18.82
15.85
12.66
9.52
6.55
3.66
0.64
-2.76
-6.68
-10.97
-15.21
-18.75
-20.87
-21
-18.92
-14.93
-9.71
-4.18
0.81
4.73
7.44
9.12
10.09
10.59
10.76
10.63
10.16
9.41
8.49
7.53
6.64
5.86
5.2
4.64
4.22
3.98
3.96
4.17
4.54
4.88
4.97
4.58
3.62
2.14
0.38
-1.34
-2.77
-3.76
-4.42
-4.97
-5.73
-6.97
-8.79
-11.1
-13.57
-15.69
-16.85
-16.52
-14.41
-10.66
-5.86
-0.86
3.44
6.44
7.97
8.31
7.98
7.45
6.98
6.61
6.24
5.76
5.13
4.44
3.87
3.55
3.56
3.86
4.33
4.85
5.32
5.67
5.93
6.08
6.05
5.69
4.83
3.41
1.54
-0.49
-2.39
-3.93
-5.15
-6.25
-7.55
-9.26
-11.44
-13.9
-16.3
-18.18
-19.13
-18.8
-17.08
-14.04
-10.02
-5.51
-1.08
2.84
5.92
8.06
9.29
9.75
9.56
8.86
7.77
6.4
4.92
3.52
2.41
1.72
1.53
1.78
2.32
2.93
3.42
3.66
3.59
3.21
2.55
1.68
0.7
-0.28
-1.21
-2.08
-2.99
-4.08
-5.5
-7.3
-9.39
-11.54
-13.41
-14.6
-14.78
-13.7
-11.32
-7.85
-3.72
0.51
4.22
7.02
8.74
9.47
9.49
9.1
8.52
7.85
7.13
6.34
5.54
4.8
4.25
3.94
3.88
4
4.22
4.41
4.5
4.44
4.18
3.67
2.88
1.78
0.43
-1.04
-2.5
-3.8
-4.9
-5.84
-6.75
-7.82
-9.19
-10.95
-13.04
-15.28
-17.33
-18.74
-19.06
-17.95
-15.36
-11.58
-7.13
-2.69
1.21
4.24
6.36
7.71
8.48
8.82
8.79
8.45
7.86
7.14
6.44
5.86
5.45
5.18
4.95
4.7
4.44
4.22
4.11
4.13
4.23
4.23
3.94
3.28
2.24
0.99
-0.26
-1.35
-2.23
-2.99
-3.81
-4.82
-6.12
-7.71
-9.55
-11.54
-13.48
-15.07
-15.94
-15.74
-14.33
-11.77
-8.34
-4.4
-0.33
3.6
7.17
10.23
12.64
14.31
15.26
15.6
15.59
15.51
15.57
15.91
16.46
17.1
17.6
17.8
17.64
17.19
16.58
16.02
15.61
15.34
15.1
14.67
13.88
12.67
11.08
9.33
7.62
6.16
5.06
4.27
3.62
2.85
1.74
0.13
-1.96
-4.37
-6.84
-9.05
-10.68
-11.47
-11.24
-9.92
-7.6
-4.54
-1.12
2.23
5.2
7.68
9.75
11.58
13.3
14.93
16.35
17.47
18.31
19.06
19.93
21.07
22.47
23.94
25.3
26.41
27.25
27.83
28.1
27.9
26.99
25.1
22.12
18.04
13
7.26
1.12
-5.1
-11.14
-16.86
-22.28
-27.54
-32.82
-38.19
-43.56
-48.62
-52.91
-55.99
-57.55
-57.51
-56.02
-53.38
-49.97
-46.13
-42.14
-38.19
-34.42
-30.96
-27.88
-25.2
-22.82
-20.55
-18.17
-15.53
-12.65
-9.7
-6.93
-4.56
-2.66
-1.18
-0.04
0.83
1.33
1.33
0.73
-0.42
-1.88
-3.3
-4.41
-5.11
-5.54
-5.98
-6.75
-8.03
-9.76
-11.66
-13.28
-14.14
-13.87
-12.33
-9.65
-6.2
-2.5
0.94
3.74
5.73
6.94
7.5
7.53
7.05
6.02
4.45
2.45
0.26
-1.82
-3.52
-4.72
-5.46
-5.82
-5.88
-5.58
-4.85
-3.71
-2.35
-1.17
-0.67
-1.22
-2.93
-5.65
-9.02
-12.63
-16.17
-19.49
-22.49
-25.03
-26.94
-27.91
-27.69
-26.17
-23.45
-19.86
-15.7
-11.21
-6.44
-1.32
4.09
9.54
14.51
18.47
20.99
22.01
21.85
21.01
19.96
18.96
18.03
17.06
15.91
14.59
13.19
11.84
10.69
9.78
9.09
8.55
8.05
7.5
6.78
5.77
4.35
2.45
0.13
-2.43
-4.86
-6.75
-7.64
-7.24
-5.46
-2.5
1.22
5.21
8.97
12.22
14.83
16.85
18.38
19.5
20.23
20.55
20.5
20.13
19.61
19.08
18.74
18.72
19.1
19.9
21.06
22.45
23.88
25.21
26.36
27.35
28.26
29.15
30.07
31.01
31.94
32.87
33.82
34.74
35.48
35.74
35.23
33.75
31.34
28.25
24.91
21.7
18.8
16.13
13.44
10.35
6.56
1.94
-3.39
-9.21
-15.13
-20.8
-25.88
-30.14
-33.46
-35.82
-37.29
-38.02
-38.18
-37.87
-37.2
-36.2
-34.91
-33.42
-31.82
-30.22
-28.66
-27.16
-25.7
-24.3
-23.03
-21.99
-21.29
-20.94
-20.84
-20.79
-20.57
-20
-19.05
-17.87
-16.71
-15.88
-15.59
-15.87
-16.54
-17.2
-17.41
-16.81
-15.19
-12.58
-9.23
-5.48
-1.75
1.66
4.51
6.73
8.31
9.33
9.87
9.96
9.68
9.05
8.19
7.26
6.48
6
5.9
6.1
6.42
6.66
6.68
6.52
6.32
6.24
6.37
6.59
6.66
6.32
5.41
3.99
2.27
0.58
-0.83
-1.85
-2.58
-3.21
-3.97
-4.99
-6.28
-7.77
-9.31
-10.72
-11.79
-12.3
-12.03
-10.84
-8.73
-5.9
-2.68
0.55
3.48
5.91
7.81
9.18
10.13
10.7
10.93
10.86
10.53
10.01
9.4
8.86
8.53
8.52
8.81
9.33
9.89
10.31
10.48
10.34
9.92
9.28
8.46
7.41
6.07
4.44
2.66
0.95
-0.44
-1.41
-2.08
-2.75
-3.76
-5.3
-7.35
-9.57
-11.58
-13.01
-13.68
-13.58
-12.77
-11.37
-9.44
-7.06
-4.37
-1.6
0.98
3.15
4.8
5.92
6.58
6.86
6.84
6.57
6.12
5.56
4.97
4.44
4.04
3.81
3.78
3.96
4.31
4.7
4.95
4.84
4.25
3.2
1.82
0.34
-1.1
-2.44
-3.7
-4.89
-6.01
-6.98
-7.77
-8.45
-9.2
-10.19
-11.52
-13.12
-14.71
-15.92
-16.39
-15.93
-14.5
-12.24
-9.41
-6.33
-3.27
-0.41
2.14
4.38
6.33
7.98
9.26
10.09
10.41
10.26
9.78
9.18
8.67
8.38
8.33
8.41
8.48
8.4
8.14
7.77
7.39
7.06
6.75
6.34
5.68
4.7
3.46
2.09
0.76
-0.47
-1.62
-2.84
-4.25
-5.9
-7.75
-9.66
-11.48
-13.02
-14.11
-14.57
-14.29
-13.18
-11.32
-8.86
-6.03
-3.06
-0.19
2.36
4.39
5.76
6.41
6.4
5.88
5.08
4.25
3.54
3.05
2.78
2.65
2.59
2.54
2.48
2.42
2.36
2.33
2.3
2.24
2.06
1.66
0.97
-0.03
-1.22
-2.44
-3.54
-4.42
-5.16
-5.96
-7.05
-8.61
-10.61
-12.77
-14.6
-15.61
-15.38
-13.86
-11.25
-7.98
-4.53
-1.3
1.49
3.75
5.5
6.75
7.52
7.81
7.63
7.05
6.16
5.16
4.27
3.69
3.55
3.86
4.46
5.12
5.58
5.72
5.5
5.02
4.39
3.67
2.86
1.91
0.81
-0.4
-1.61
-2.75
-3.85
-5.02
-6.42
-8.14
-10.05
-11.84
-13.05
-13.28
-12.36
-10.41
-7.82
-5.04
-2.44
-0.24
1.52
2.83
3.75
4.26
4.35
4.05
3.49
2.84
2.26
1.89
1.75
1.82
2.03
2.3
2.55
2.72
2.78
2.69
2.44
1.97
1.27
0.31
-0.85
-2.14
-3.44
-4.68
-5.85
-7.02
-8.3
-9.78
-11.44
-13.15
-14.67
-15.73
-16.07
-15.54
-14.14
-11.98
-9.31
-6.39
-3.46
-0.72
1.7
3.69
5.17
6.05
6.34
6.14
5.66
5.13
4.72
4.5
4.43
4.41
4.38
4.34
4.34
4.39
4.46
4.4
4.05
3.34
2.25
0.92
-0.48
-1.83
-3.07
-4.22
-5.32
-6.47
-7.73
-9.17
-10.79
-12.54
-14.27
-15.69
-16.47
-16.31
-15.05
-12.73
-9.59
-5.99
-2.34
1
3.8
5.96
7.49
8.49
9.05
9.23
9.05
8.53
7.77
6.96
6.32
6.03
6.13
6.56
7.11
7.6
7.86
7.81
7.44
6.77
5.86
4.79
3.64
2.52
1.51
0.65
-0.01
-0.53
-0.96
-1.38
-1.9
-2.66
-3.8
-5.4
-7.39
-9.57
-11.55
-12.97
-13.51
-13.09
-11.81
-9.92
-7.68
-5.34
-3.05
-0.93
0.92
2.45
3.57
4.3
4.7
4.84
4.84
4.77
4.74
4.79
4.97
5.24
5.57
5.89
6.15
6.3
6.31
6.15
5.79
5.25
4.52
3.62
2.59
1.45
0.23
-1.02
-2.25
-3.44
-4.61
-5.86
-7.33
-9.08
-11.08
-13.07
-14.69
-15.52
-15.28
-13.82
-11.27
-7.92
-4.21
-0.54
2.77
5.56
7.81
9.57
10.88
11.76
12.23
12.34
12.21
12.07
12.12
12.5
13.24
14.28
15.52
16.93
18.47
20.14
21.82
23.28
24.25
24.54
24.15
23.3
22.33
21.57
21.24
21.3
21.58
21.82
21.83
21.57
21.13
20.72
20.63
21.2
22.78
25.68
30.02
35.69
42.27
49.13
55.54
60.92
64.97
67.67
69.21
69.79
69.52
68.45
66.63
64.24
61.56
58.95
56.64
54.66
52.83
50.83
48.36
45.24
41.43
36.95
31.9
26.38
20.57
14.62
8.61
2.44
-4.23
-11.87
-20.91
-31.56
-43.6
-56.35
-68.79
-79.72
-87.96
-92.57
-93.05
-89.36
-82.01
-71.85
-59.95
-47.36
-34.98
-23.51
-13.4
-4.86
2.13
7.77
12.48
16.82
21.4
26.76
33.18
40.6
48.53
56.04
61.93
64.95
64.16
59.25
50.73
39.82
28.16
17.4
8.81
3.08
0.31
0.25
2.45
6.45
11.8
18.01
24.5
30.52
35.32
38.13
38.46
36.09
31.32
24.83
17.58
10.46
3.91
-2.26
-8.89
-17.11
-27.77
-40.89
-55.46
-69.62
-81.24
-88.53
-90.6
-87.54
-80.25
-70.06
-58.37
-46.43
-35.32
-25.91
-18.9
-14.68
-13.27
-14.36
-17.42
-21.85
-27.28
-33.52
-40.41
-47.61
-54.32
-59.27
-60.98
-58.25
-50.81
-39.69
-27.18
-16.23
-9.5
-8.5
-13.16
-21.93
-32.52
-42.69
-50.76
-55.81
-57.45
-55.54
-50.01
-40.86
-28.34
-13
4.42
23.12
42.27
60.87
77.39
89.75
95.59
93.04
81.64
62.85
39.93
17
-2.18
-15.29
-21.89
-23.09
-20.68
-16.33
-11.16
-5.8
-0.79
3.11
4.9
3.68
-0.92
-8.37
-17.31
-25.97
-32.82
-37.01
-38.52
-37.89
-35.82
-33.04
-30.23
-28.21
-27.88
-29.84
-33.89
-38.78
-42.44
-42.78
-38.64
-30.37
-19.73
-9.09
-0.55
4.77
6.8
6.22
4.03
1.3
-0.87
-1.36
0.71
5.7
12.96
20.84
26.99
29.18
25.95
17.2
4.11
-11.18
-26.2
-38.77
-47.38
-51.39
-50.98
-46.87
-40.1
-31.69
-22.52
-13.29
-4.62
2.91
8.74
12.51
14.2
14.15
12.98
11.31
9.54
7.7
5.53
2.59
-1.55
-7.23
-14.59
-23.54
-33.69
-44.42
-54.85
-64.14
-71.48
-76.24
-78.02
-76.56
-71.83
-64
-53.58
-41.41
-28.65
-16.56
-6.33
1.27
5.92
7.82
7.53
5.62
2.46
-1.95
-7.91
-15.81
-25.86
-37.94
-51.59
-66.04
-80.32
-93.31
-103.78
-110.6
-112.9
-110.4
-103.58
-93.6
-82.03
-70.43
-59.96
-51.17
-44.06
-38.28
-33.35
-28.9
-24.72
-20.8
-17.21
-13.97
-11.05
-8.33
-5.71
-3.11
-0.54
1.96
4.35
6.57
8.54
10.11
11.08
11.29
10.74
9.67
8.47
7.49
6.89
6.52
5.92
4.57
2.13
-1.35
-5.3
-8.71
-10.41
-9.35
-4.98
2.55
12.47
23.56
34.61
44.72
53.48
60.94
67.34
72.84
77.37
80.6
82.14
81.68
79.18
74.96
69.66
64.11
59.17
55.53
53.59
53.38
54.6
56.71
59.07
61.04
62.07
61.69
59.48
55.12
48.35
39.1
27.49
13.91
-1.03
-16.57
-31.93
-46.45
-59.64
-71.11
-80.38
-86.82
-89.56
-87.77
-80.93
-69.25
-53.76
-36.2
-18.54
-2.55
10.72
20.96
28.53
34.06
38.1
40.95
42.71
43.43
43.28
42.62
41.71
40.59
38.98
36.45
32.78
28.18
23.27
18.94
15.81
14.06
13.31
12.9
12.13
10.55
8.04
4.75
0.98
-2.97
-6.89
-10.68
-14.33
-17.8
-20.88
-23.13
-23.98
-22.94
-19.78
-14.72
-8.3
-1.26
5.76
12.31
18.13
23.04
26.84
29.31
30.26
29.78
28.29
26.49
25.17
24.87
25.66
27.08
28.32
28.61
27.58
25.37
22.46
19.33
16.11
12.54
8.08
2.25
-5.08
-13.66
-22.88
-32.04
-40.5
-47.7
-53.18
-56.67
-58.14
-58
-56.95
-55.83
-55.17
-54.88
-54.19
-52.03
-47.51
-40.47
-31.59
-22.1
-13.28
-6
-0.45
3.65
6.82
9.43
11.66
13.53
15.15
16.78
18.82
21.57
25.05
28.93
32.68
35.77
37.97
39.43
40.55
41.79
43.44
45.49
47.67
49.64
51.14
52.11
52.59
52.69
52.45
51.8
50.52
48.38
45.15
40.71
35.09
28.5
21.4
14.47
8.52
4.34
2.47
3.06
5.66
9.42
13.27
16.31
18.04
18.52
18.18
17.63
17.36
17.64
18.59
20.22
22.57
25.74
29.75
34.56
39.95
45.55
50.9
55.55
59.13
61.48
62.65
62.78
62.12
60.89
59.33
57.72
56.42
55.78
56
56.99
58.28
59.13
58.77
56.56
52.14
45.36
36.27
25.03
12.03
-2.06
-16.27
-29.52
-40.9
-49.93
-56.67
-61.62
-65.51
-68.91
-72.16
-75.22
-77.87
-79.84
-80.99
-81.37
-81.15
-80.57
-79.74
-78.61
-76.97
-74.57
-71.28
-67.16
-62.57
-58.01
-54.02
-50.99
-49.04
-47.92
-47.2
-46.4
-45.21
-43.6
-41.86
-40.34
-39.27
-38.54
-37.74
-36.23
-33.26
-28.08
-20
-8.36
7.29
26.88
49.65
74.11
98.19
119.77
137.06
148.96
155.09
155.57
150.73
140.95
126.76
109.03
89.19
69.25
51.43
37.62
28.73
24.45
23.45
24.09
25.13
26.21
27.75
30.4
34.37
39.04
43.15
45.38
45
42.16
37.74
32.79
27.87
22.75
16.56
8.36
-2.27
-14.72
-27.5
-38.56
-46.04
-48.75
-46.54
-40.12
-30.81
-20.16
-9.64
-0.42
6.83
11.99
15.52
18.33
21.43
25.51
30.68
36.37
41.57
45.23
46.6
45.45
42.04
36.94
30.83
24.25
17.55
10.7
3.37
-5.12
-15.46
-28.07
-42.77
-58.68
-74.32
-87.98
-98.27
-104.44
-106.63
-105.67
-102.83
-99.39
-96.3
-93.96
-92.13
-90.12
-86.98
-81.92
-74.59
-65.24
-54.7
-44.08
-34.44
-26.54
-20.83
-17.42
-16.24
-17.11
-19.65
-23.29
-27.27
-30.85
-33.52
-35.17
-36.02
-36.52
-36.99
-37.5
-37.81
-37.63
-36.74
-35.28
-33.53
-31.92
-30.76
-30.18
-30.12
-30.45
-30.98
-31.59
-32.21
-32.84
-33.59
-34.6
-36
-37.77
-39.62
-40.92
-40.95
-39.01
-34.77
-28.39
-20.54
-12.17
-4.24
2.48
7.61
11.11
13.17
14.07
14.07
13.43
12.38
11.19
10.14
9.45
9.24
9.47
10.01
10.69
11.33
11.86
12.23
12.38
12.17
11.44
10.04
7.96
5.32
2.43
-0.36
-2.79
-4.77
-6.42
-8
-9.82
-12.12
-14.93
-18.04
-20.96
-23.02
-23.56
-22.09
-18.47
-13
-6.42
0.41
6.6
11.61
15.2
17.44
18.6
18.92
18.58
17.73
16.54
15.24
14.1
13.31
12.92
12.84
12.92
13.02
13.11
13.22
13.31
13.29
12.96
12.12
10.72
8.85
6.72
4.52
2.39
0.34
-1.66
-3.65
-5.67
-7.84
-10.32
-13.31
-16.87
-20.8
-24.53
-27.18
-27.86
-25.93
-21.17
-13.94
-4.97
4.86
14.64
23.63
31.26
37.15
41.11
43.18
43.63
42.89
41.45
39.75
38.08
36.52
35.01
33.4
31.55
29.39
26.94
24.34
21.77
19.41
17.33
15.49
13.67
11.59
8.98
5.78
2.1
-1.8
-5.52
-8.74
-11.32
-13.29
-14.88
-16.41
-18.2
-20.42
-23.02
-25.64
-27.7
-28.47
-27.32
-23.96
-18.62
-12.03
-5.23
0.82
5.5
8.65
10.51
11.45
11.8
11.72
11.3
10.67
10.01
9.56
9.47
9.78
10.36
11.01
11.61
12.09
12.46
12.78
13.04
13.19
13.08
12.57
11.54
9.96
7.94
5.68
3.44
1.42
-0.26
-1.63
-2.81
-4.01
-5.42
-7.16
-9.25
-11.48
-13.48
-14.72
-14.68
-13.03
-9.73
-5.11
0.24
5.61
10.36
14.11
16.7
18.17
18.7
18.46
17.65
16.46
15.07
13.64
12.34
11.34
10.77
10.71
11.1
11.79
12.56
13.17
13.43
13.24
12.62
11.62
10.28
8.69
6.9
4.99
3.07
1.23
-0.49
-2.17
-3.98
-6.07
-8.5
-11.11
-13.5
-15.12
-15.42
-14.04
-10.98
-6.59
-1.52
3.54
8.02
11.59
14.15
15.75
16.46
16.35
15.48
14
12.15
10.28
8.76
7.91
7.8
8.32
9.14
9.93
10.44
10.63
10.66
10.7
10.83
10.95
10.73
9.88
8.19
5.72
2.76
-0.32
-3.18
-5.64
-7.75
-9.68
-11.61
-13.71
-15.96
-18.17
-20
-20.99
-20.72
-18.94
-15.64
-11.09
-5.82
-0.44
4.42
8.31
10.95
12.36
12.76
12.44
11.73
10.81
9.79
8.72
7.69
6.83
6.3
6.23
6.58
7.21
7.89
8.45
8.8
8.96
8.95
8.74
8.23
7.26
5.76
3.77
1.48
-0.78
-2.72
-4.15
-5.11
-5.82
-6.64
-7.89
-9.74
-12.09
-14.56
-16.63
-17.75
-17.5
-15.7
-12.46
-8.14
-3.28
1.52
5.75
9.07
11.41
12.84
13.54
13.64
13.24
12.38
11.15
9.69
8.26
7.12
6.47
6.38
6.71
7.28
7.86
8.3
8.56
8.64
8.56
8.3
7.84
7.13
6.17
4.97
3.6
2.12
0.61
-0.84
-2.18
-3.41
-4.66
-6.12
-8.02
-10.49
-13.42
-16.44
-18.94
-20.28
-20.01
-17.98
-14.43
-9.86
-4.9
-0.15
3.91
7.01
9.03
10
10.1
9.56
8.68
7.72
6.85
6.16
5.68
5.41
5.35
5.53
5.89
6.33
6.72
6.98
7.07
7.05
6.98
6.82
6.44
5.65
4.32
2.51
0.46
-1.51
-3.13
-4.33
-5.29
-6.33
-7.79
-9.82
-12.3
-14.86
-16.98
-18.16
-18.01
-16.4
-13.44
-9.5
-5.08
-0.73
3.09
6.1
8.21
9.5
10.11
10.2
9.84
9.09
8.05
6.91
5.97
5.5
5.67
6.48
7.73
9.14
10.42
11.35
11.81
11.78
11.26
10.29
8.93
7.33
5.65
4.09
2.74
1.58
0.4
-1.08
-3.07
-5.6
-8.44
-11.11
-12.97
-13.49
-12.34
-9.58
-5.6
-1.05
3.36
7.07
9.8
11.53
12.42
12.67
12.45
11.82
10.82
9.54
8.1
6.72
5.62
4.99
4.88
5.24
5.84
6.42
6.72
6.57
5.96
4.95
3.7
2.31
0.85
-0.65
-2.2
-3.8
-5.46
-7.25
-9.25
-11.53
-14.02
-16.47
-18.42
-19.27
-18.54
-15.99
-11.86
-6.79
-1.69
2.61
5.63
7.31
8
8.17
8.17
8.14
8
7.6
6.87
5.89
4.82
3.9
3.31
3.17
3.46
4.12
4.95
5.72
6.18
6.12
5.47
4.26
2.62
0.69
-1.36
-3.45
-5.53
-7.59
-9.68
-11.87
-14.23
-16.74
-19.24
-21.39
-22.68
-22.65
-20.98
-17.72
-13.27
-8.27
-3.37
0.95
4.46
7.17
9.16
10.55
11.36
11.66
11.49
10.96
10.23
9.44
8.72
8.19
7.91
7.89
8.1
8.43
8.77
9.02
9.07
8.84
8.21
7.11
5.54
3.56
1.35
-0.88
-3
-5
-6.99
-9.11
-11.47
-14.08
-16.79
-19.29
-21.14
-21.86
-21.01
-18.4
-14.17
-8.82
-3.08
2.36
6.97
10.58
13.25
15.13
16.35
16.91
16.78
15.98
14.74
13.41
12.35
11.83
11.86
12.23
12.67
12.98
13.07
12.98
12.77
12.44
11.86
10.89
9.45
7.56
5.43
3.26
1.26
-0.52
-2.15
-3.8
-5.64
-7.82
-10.36
-13.14
-15.86
-18.07
-19.27
-19
-16.99
-13.29
-8.27
-2.58
3.06
8.01
11.88
14.53
16.07
16.68
16.58
15.94
14.92
13.68
12.41
11.35
10.68
10.45
10.61
11.04
11.59
12.14
12.64
13.02
13.17
12.98
12.35
11.29
9.93
8.48
7.11
5.89
4.78
3.67
2.47
1.11
-0.45
-2.25
-4.26
-6.35
-8.16
-9.11
-8.65
-6.42
-2.49
2.67
8.35
13.88
18.8
22.89
26.17
28.68
30.48
31.58
32.03
31.98
31.65
31.29
31.14
31.4
32.17
33.45
35.11
36.96
38.75
40.26
41.33
41.76
41.32
39.62
36.27
30.98
23.74
14.95
5.31
-4.35
-13.37
-21.35
-28.29
-34.45
-40.2
-45.84
-51.46
-56.84
-61.51
-64.83
-66.18
-65.17
-61.85
-56.6
-50.12
-43.16
-36.35
-30.15
-24.83
-20.52
-17.28
-15.03
-13.6
-12.74
-12.15
-11.58
-10.87
-9.96
-8.86
-7.61
-6.22
-4.73
-3.19
-1.68
-0.32
0.78
1.54
1.89
1.81
1.3
0.38
-0.88
-2.3
-3.63
-4.59
-4.91
-4.42
-3.07
-0.97
1.73
4.9
8.54
12.87
18.24
25.15
34.04
45.21
58.59
73.72
89.74
105.48
119.62
130.84
138.08
140.59
138.14
131.08
120.4
107.58
94.38
82.63
73.91
69.41
69.83
75.32
85.53
99.57
116.07
133.22
148.95
161.35
169
171.27
168.32
160.88
149.8
135.87
119.62
101.55
82.28
62.71
43.87
26.78
12.09
-0
-9.7
-17.46
-23.73
-28.88
-33.16
-36.71
-39.59
-41.79
-43.23
-43.84
-43.58
-42.53
-40.9
-39.03
-37.31
-36.05
-35.44
-35.46
-35.95
-36.64
-37.23
-37.46
-37.09
-35.96
-33.99
-31.25
-27.95
-24.41
-20.95
-17.83
-15.17
-12.96
-11.13
-9.6
-8.36
-7.4
-6.73
-6.32
-6.12
-6.09
-6.26
-6.7
-7.49
-8.65
-10.13
-11.83
-13.68
-15.67
-17.82
-20.14
-22.54
-24.81
-26.67
-27.86
-28.27
-27.98
-27.18
-26.12
-25.02
-24.05
-23.33
-23.03
-23.37
-24.56
-26.7
-29.73
-33.38
-37.28
-41.01
-44.24
-46.77
-48.53
-49.56
-49.97
-49.99
-49.86
-49.86
-50.2
-50.99
-52.22
-53.81
-55.69
-57.82
-60.2
-62.76
-65.29
-67.48
-69.1
-70.11
-70.78
-71.6
-73.03
-75.27
-78.12
-81.07
-83.56
-85.17
-85.76
-85.45
-84.43
-82.86
-80.86
-78.5
-75.9
-73.22
-70.59
-68.09
-65.74
-63.44
-61.14
-58.78
-56.26
-53.42
-50
-45.76
-40.57
-34.65
-28.45
-22.61
-17.7
-13.96
-11.25
-9.14
-7.19
-5.22
-3.44
-2.36
-2.56
-4.41
-7.9
-12.58
-17.78
-22.82
-27.22
-30.8
-33.62
-35.85
-37.64
-39.01
-39.83
-39.9
-39.06
-37.21
-34.4
-30.84
-26.8
-22.61
-18.6
-15.1
-12.41
-10.81
-10.48
-11.47
-13.65
-16.71
-20.29
-24.03
-27.74
-31.4
-35.09
-38.92
-42.84
-46.57
-49.68
-51.63
-51.98
-50.54
-47.42
-42.96
-37.7
-32.25
-27.24
-23.18
-20.42
-19.05
-18.85
-19.32
-19.96
-20.49
-21.09
-22.38
-25.16
-30.01
-37.05
-45.74
-55.05
-63.76
-70.7
-75.03
-76.3
-74.48
-69.84
-62.96
-54.57
-45.38
-36.02
-26.97
-18.51
-10.91
-4.42
0.72
4.38
6.51
7.25
6.84
5.7
4.38
3.58
4.1
6.64
11.58
18.78
27.52
36.76
45.34
52.34
57.22
59.78
60.06
58.24
54.66
49.77
44.11
38.1
31.93
25.37
17.97
9.3
-0.7
-11.42
-21.68
-29.95
-34.91
-35.76
-32.49
-25.81
-16.87
-6.99
2.64
11.14
17.96
22.9
25.99
27.44
27.63
27.09
26.44
26.31
27.13
29.05
31.79
34.83
37.53
39.52
40.75
41.6
42.56
43.91
45.52
46.82
47
45.36
41.61
35.91
28.78
20.86
12.66
4.46
-3.76
-12.13
-20.86
-30.15
-40.07
-50.42
-60.65
-69.79
-76.57
-79.79
-78.73
-73.5
-65.12
-55.27
-45.74
-37.93
-32.49
-29.3
-27.75
-27.07
-26.56
-25.75
-24.35
-22.11
-18.91
-14.76
-9.89
-4.76
0.07
4.17
7.33
9.64
11.39
12.9
14.43
16.07
17.75
19.31
20.52
21.13
20.97
19.94
18.07
15.49
12.29
8.46
3.84
-1.78
-8.38
-15.52
-22.25
-27.2
-29.05
-26.98
-21.08
-12.39
-2.61
6.49
13.64
18.31
20.75
21.54
21.31
20.5
19.35
18.1
17.2
17.25
18.87
22.39
27.54
33.57
39.41
44.19
47.49
49.48
50.65
51.46
52.06
52.13
51.14
48.6
44.4
38.79
32.28
25.41
18.49
11.59
4.52
-3
-11.28
-20.48
-30.42
-40.48
-49.47
-55.88
-58.24
-55.67
-48.27
-37.12
-24
-10.81
0.9
10.35
17.35
22.14
25.11
26.52
26.64
25.71
24.08
22.17
20.39
19.11
18.49
18.52
19.04
19.79
20.54
21.21
21.84
22.56
23.47
24.48
25.36
25.71
25.25
23.91
21.87
19.52
17.2
15.01
12.72
9.81
5.68
-0.14
-7.68
-16.45
-25.34
-32.77
-37.09
-36.98
-31.91
-22.46
-10.19
2.75
14.27
22.95
28.22
30.31
29.96
27.98
24.99
21.44
17.67
14.05
11.08
9.36
9.43
11.65
16.05
22.3
29.74
37.53
44.71
50.46
54.11
55.35
54.18
50.95
46.23
40.68
34.84
28.98
22.96
16.33
8.52
-0.86
-11.74
-23.44
-34.71
-43.97
-49.73
-51.01
-47.6
-40.18
-30.06
-18.84
-7.85
2.11
10.91
18.87
26.38
33.5
39.89
44.96
48.2
49.47
49.1
47.63
45.58
43.19
40.44
37.17
33.32
28.97
24.34
19.53
14.46
8.88
2.59
-4.37
-11.57
-18.21
-23.39
-26.42
-27.14
-26
-24.02
-22.44
-22.39
-24.46
-28.46
-33.37
-37.51
-39
-36.3
-28.74
-16.81
-2.04
13.51
27.75
39.22
47.25
51.93
53.74
53.31
51.18
47.92
44.15
40.66
38.23
37.44
38.39
40.65
43.34
45.51
46.37
45.61
43.32
39.89
35.76
31.31
26.79
22.35
18.08
13.94
9.79
5.37
0.41
-5.33
-12
-19.61
-28.08
-37.05
-45.86
-53.42
-58.43
-59.68
-56.58
-49.4
-39.21
-27.59
-16.05
-5.6
3.35
10.86
17.07
21.96
25.25
26.58
25.78
23.16
19.46
15.74
12.92
11.56
11.69
12.89
14.56
16.14
17.29
17.86
17.83
17.2
15.94
14.01
11.43
8.32
4.85
1.26
-2.26
-5.58
-8.67
-11.59
-14.5
-17.54
-20.87
-24.51
-28.33
-31.97
-34.8
-36.07
-35.04
-31.25
-24.73
-16.03
-6.07
4.12
13.72
22.26
29.59
35.67
40.37
43.39
44.38
43.22
40.26
36.37
32.73
30.46
30.17
31.78
34.59
37.6
39.9
40.95
40.62
39.11
36.7
33.6
29.87
25.57
20.84
16.02
11.55
7.8
4.82
2.33
-0.3
-3.75
-8.49
-14.56
-21.52
-28.5
-34.42
-38.22
-39.09
-36.8
-31.76
-24.97
-17.69
-11.08
-5.8
-1.93
0.9
3.09
4.85
6.03
6.29
5.39
3.42
0.9
-1.43
-2.79
-2.72
-1.16
1.52
4.8
8.15
11.18
13.72
15.64
16.82
17.07
16.21
14.25
11.41
8.21
5.23
3
1.74
1.27
1.11
0.59
-0.92
-3.82
-8.19
-13.82
-20.26
-26.82
-32.6
-36.53
-37.57
-35
-28.76
-19.63
-9.11
1.01
9.26
14.84
17.84
18.99
19.22
19.26
19.43
19.65
19.69
19.33
18.57
17.53
16.39
15.31
14.36
13.53
12.79
12.09
11.37
10.52
9.43
7.96
6.05
3.77
1.24
-1.37
-3.93
-6.38
-8.68
-10.77
-12.52
-13.85
-14.75
-15.38
-16.08
-17.29
-19.44
-22.79
-27.3
-32.61
-37.98
-42.4
-44.79
-44.23
-40.27
-33.08
-23.48
-12.71
-2.12
7.21
14.65
20.1
23.77
26.05
27.26
27.62
27.25
26.25
24.76
22.99
21.19
19.6
18.41
17.72
17.53
17.74
18.17
18.57
18.65
18.13
16.79
14.52
11.3
7.28
2.7
-2.05
-6.5
-10.17
-12.7
-13.89
-13.88
-13.11
-12.22
-11.83
-12.39
-13.99
-16.44
-19.28
-21.91
-23.66
-23.9
-22.05
-17.74
-10.92
-2.03
8.01
17.88
26.24
32.06
34.89
34.99
33.06
29.98
26.42
22.76
19.11
15.49
12.04
9.04
6.87
5.79
5.79
6.68
8.17
10.04
12.22
14.64
17.18
19.49
21.04
21.33
20.06
17.27
13.31
8.66
3.65
-1.56
-7.05
-12.99
-19.47
-26.4
-33.51
-40.34
-46.38
-51.09
-54.03
-54.98
-54.01
-51.49
-47.99
-44.16
-40.59
-37.61
-35.36
-33.76
-32.66
-31.93
-31.5
-31.4
-31.67
-32.33
-33.27
-34.22
-34.85
-34.86
-34.1
-32.7
-30.96
-29.2
-27.67
-26.37
-25.11
-23.68
-21.99
-20.18
-18.58
-17.51
-17.07
-17.1
-17.17
-16.82
-15.71
-13.83
-11.47
-9.15
-7.4
-6.58
-6.78
-7.7
-8.75
-9.13
-8.04
-4.9
0.49
7.88
16.68
26.02
35
42.79
48.76
52.58
54.24
54.11
52.79
51.06
49.62
49.03
49.54
51.24
54.05
57.85
62.45
67.65
73.14
78.66
84.01
89.18
94.25
99.29
104.05
107.9
109.9
109.16
105.28
98.69
90.55
82.43
75.71
71.09
68.48
67.11
65.94
64.03
60.79
56.12
50.37
44.24
38.57
34.12
31.21
29.69
28.86
27.75
25.38
21
14.18
4.86
-6.71
-19.95
-34
-47.8
-60.28
-70.59
-78.19
-82.97
-85.17
-85.31
-84.17
-82.59
-81.39
-81.04
-81.47
-82.09
-82.01
-80.43
-77.02
-72.06
-66.26
-60.5
-55.56
-51.99
-50.16
-50.36
-52.83
-57.67
-64.78
-73.74
-83.9
-94.44
-104.55
-113.35
-120.04
-123.99
-124.83
-122.61
-117.83
-111.29
-103.88
-96.27
-88.85
-81.76
-75.09
-68.98
-63.68
-59.41
-56.22
-53.9
-51.98
-50
-47.57
-44.5
-40.81
-36.52
-31.68
-26.3
-20.48
-14.46
-8.64
-3.47
0.74
3.97
6.45
8.57
10.64
12.74
14.67
16.09
16.7
16.41
15.36
13.94
12.59
11.77
11.86
13.08
15.49
18.88
22.8
26.57
29.51
31.15
31.4
30.59
29.28
28.08
27.32
27.04
27.02
27.02
26.95
26.95
27.28
28.11
29.38
30.74
31.68
31.81
30.99
29.52
27.89
26.6
25.92
25.82
26.04
26.35
26.59
26.74
26.73
26.31
25.04
22.49
18.56
13.65
8.66
4.74
2.86
3.49
6.46
11.12
16.56
21.94
26.66
30.48
33.46
35.87
38.04
40.2
42.41
44.55
46.39
47.66
48.1
47.53
45.93
43.42
40.36
37.27
34.73
33.23
32.95
33.73
35.11
36.57
37.69
38.3
38.49
38.42
38.19
37.71
36.66
34.66
31.35
26.58
20.52
13.68
6.88
1.15
-2.52
-3.44
-1.48
2.86
8.54
14.21
18.61
20.8
20.36
17.36
12.29
5.88
-0.99
-7.44
-12.72
-16.28
-17.9
-17.63
-15.85
-13.08
-9.99
-7.18
-5.15
-4.16
-4.18
-4.97
-6.23
-7.78
-9.65
-12.05
-15.2
-19.06
-23.25
-27.1
-30
-31.56
-31.86
-31.35
-30.68
-30.39
-30.76
-31.71
-32.87
-33.67
-33.53
-31.94
-28.63
-23.62
-17.29
-10.4
-3.99
0.82
3.05
2.08
-2.24
-9.57
-19.21
-30.18
-41.48
-52.12
-61.29
-68.44
-73.27
-75.78
-76.19
-74.86
-72.15
-68.4
-63.92
-59.01
-54
-49.22
-44.97
-41.42
-38.64
-36.53
-34.97
-33.81
-32.93
-32.32
-32.02
-32.1
-32.58
-33.41
-34.35
-35.04
-34.95
-33.56
-30.5
-25.69
-19.45
-12.39
-5.32
1.03
6.18
9.94
12.42
13.84
14.41
14.33
13.75
12.86
11.87
11.09
10.73
10.89
11.53
12.45
13.41
14.22
14.79
15.1
15.19
15.01
14.5
13.54
12.08
10.18
8.08
6.01
4.16
2.58
1.13
-0.47
-2.5
-5.17
-8.41
-11.86
-14.86
-16.66
-16.61
-14.46
-10.45
-5.22
0.35
5.49
9.66
12.74
14.81
16.09
16.8
17.09
17.1
16.96
16.84
16.87
17.1
17.58
18.25
19.09
20.06
21.09
22.14
23.14
24.05
24.8
25.3
25.44
25.05
23.98
22.21
19.87
17.24
14.63
12.27
10.21
8.3
6.22
3.63
0.31
-3.76
-8.29
-12.64
-15.9
-17.15
-15.79
-11.78
-5.76
1.17
7.86
13.44
17.6
20.55
22.8
24.84
26.96
29.17
31.31
33.12
34.4
34.98
34.77
33.78
32.15
30.17
28.2
26.58
25.4
24.54
23.63
22.23
20.03
16.94
13.13
8.89
4.47
0.06
-4.3
-8.59
-12.76
-16.68
-20.27
-23.55
-26.64
-29.79
-33.25
-37.17
-41.49
-45.86
-49.68
-52.16
-52.52
-50.17
-44.92
-37.12
-27.57
-17.35
-7.57
0.98
7.95
13.41
17.7
21.33
24.7
28.12
31.8
35.87
40.47
45.64
51.34
57.39
63.5
69.36
74.78
79.69
84.15
88.25
92.02
95.48
98.63
101.52
104.23
106.72
108.62
109.21
107.47
102.48
93.81
81.84
67.74
53.19
39.88
29.08
21.31
16.35
13.39
11.28
8.97
5.82
1.76
-2.64
-6.43
-8.68
-8.89
-7.25
-4.57
-2
-0.55
-0.74
-2.46
-5.04
-7.6
-9.34
-9.83
-9.1
-7.45
-5.24
-2.64
0.33
3.7
7.34
10.84
13.71
15.62
16.63
17.16
17.67
18.23
18.3
16.84
12.89
6.08
-2.99
-12.92
-22.09
-29.16
-33.53
-35.23
-34.66
-32.25
-28.33
-23.19
-17.32
-11.43
-6.39
-2.92
-1.38
-1.74
-3.64
-6.61
-10.27
-14.28
-18.39
-22.36
-25.95
-29.03
-31.56
-33.64
-35.53
-37.49
-39.77
-42.49
-45.62
-49.05
-52.58
-56.05
-59.26
-62
-64.02
-65.19
-65.66
-65.94
-66.99
-69.79
-74.94
-82.3
-90.89
-99.22
-105.79
-109.65
-110.63
-109.19
-106.14
-102.12
-97.44
-92.07
-85.87
-78.85
-71.29
-63.69
-56.57
-50.27
-44.81
-39.96
-35.36
-30.77
-26.09
-21.37
-16.75
-12.31
-8.13
-4.2
-0.56
2.72
5.53
7.74
9.24
9.97
9.96
9.31
8.22
6.87
5.34
3.56
1.38
-1.31
-4.4
-7.4
-9.5
-9.77
-7.5
-2.44
5.08
14.3
24.27
34.08
43.01
50.44
55.74
58.31
57.65
53.65
46.66
37.54
27.4
17.27
7.8
-0.85
-8.85
-16.44
-23.63
-30.1
-35.26
-38.58
-39.8
-39.08
-36.89
-33.83
-30.38
-26.77
-23.14
-19.62
-16.42
-13.86
-12.17
-11.42
-11.47
-12.09
-13.04
-14.12
-15.04
-15.35
-14.43
-11.61
-6.51
0.74
9.39
18.24
25.95
31.49
34.45
35.06
34.03
32.23
30.41
29
28.22
28.11
28.75
30.3
32.86
36.43
40.65
44.97
48.67
51.15
52.04
51.21
48.78
45.03
40.34
35.18
30.01
25.21
20.98
17.29
13.86
10.37
6.61
2.61
-1.31
-4.62
-6.73
-7.12
-5.46
-1.67
3.98
10.85
18.08
24.69
29.83
33.01
34.11
33.42
31.47
28.89
26.3
24.21
23
22.85
23.73
25.41
27.54
29.66
31.36
32.29
32.27
31.26
29.37
26.72
23.44
19.66
15.48
11.09
6.81
2.99
-0.14
-2.57
-4.6
-6.7
-9.32
-12.71
-16.76
-21.02
-24.77
-27.24
-27.74
-25.88
-21.73
-15.84
-9.19
-2.91
2.09
5.34
6.93
7.31
7.09
6.69
6.33
6.03
5.8
5.79
6.27
7.52
9.62
12.39
15.37
18.06
20.09
21.37
22.02
22.2
21.96
21.13
19.45
16.79
13.27
9.31
5.39
1.86
-1.25
-4.19
-7.33
-11.01
-15.33
-20.21
-25.37
-30.42
-34.8
-37.9
-39.07
-37.94
-34.53
-29.43
-23.63
-18.3
-14.38
-12.3
-11.92
-12.67
-13.81
-14.71
-14.95
-14.44
-13.33
-11.88
-10.35
-8.97
-7.87
-7.04
-6.44
-5.93
-5.37
-4.67
-3.78
-2.77
-1.78
-1.04
-0.78
-1.18
-2.33
-4.18
-6.55
-9.16
-11.62
-13.61
-14.91
-15.56
-15.83
-16.12
-16.79
-17.98
-19.49
-20.89
-21.52
-20.77
-18.16
-13.57
-7.29
0
7.35
13.76
18.46
21.15
21.99
21.52
20.41
19.2
18.2
17.52
17.14
17.09
17.36
17.93
18.66
19.29
19.6
19.49
19.08
18.62
18.38
18.39
18.41
18.02
16.82
14.64
11.61
8.13
4.66
1.61
-0.84
-2.77
-4.49
-6.48
-9.24
-13.2
-18.49
-24.84
-31.56
-37.56
-41.66
-42.88
-40.84
-35.81
-28.75
-21
-13.84
-8.24
-4.56
-2.64
-1.95
-1.93
-2.09
-2.14
-1.9
-1.2
0.12
2.21
5.07
8.53
12.21
15.67
18.49
20.42
21.41
21.57
21.09
20.17
19
17.73
16.47
15.27
14.13
12.92
11.52
9.74
7.44
4.53
0.99
-2.97
-7
-10.52
-12.92
-13.66
-12.49
-9.56
-5.38
-0.65
3.92
7.88
11.12
13.79
16.23
18.65
20.99
22.97
24.24
24.62
24.31
23.8
23.69
24.35
25.79
27.64
29.36
30.43
30.54
29.56
27.45
24.23
20.05
15.27
10.48
6.48
4
3.54
5.19
8.61
13.16
18.05
22.47
25.84
27.83
28.51
28.23
27.59
27.2
27.49
28.62
30.5
32.82
35.22
37.26
38.51
38.58
37.21
34.38
30.34
25.45
20.07
14.3
8.02
1
-6.83
-15.27
-23.81
-31.83
-38.81
-44.44
-48.68
-51.61
-53.38
-54.13
-54.07
-53.41
-52.4
-51.23
-49.99
-48.66
-47.16
-45.51
-43.81
-42.3
-41.28
-41
-41.52
-42.69
-44.06
-44.95
-44.67
-42.68
-38.79
-33.2
-26.45
-19.25
-12.25
-5.94
-0.56
3.84
7.33
10.07
12.19
13.84
15.16
16.29
17.39
18.68
20.33
22.45
25.06
28.07
31.3
34.59
37.82
40.94
43.89
46.58
48.81
50.34
50.99
50.73
49.78
48.56
47.53
47.07
47.4
48.5
50.23
52.35
54.63
56.84
58.77
60.18
60.94
60.98
60.37
59.23
57.67
55.68
53.15
49.88
45.66
40.42
34.22
27.23
19.71
11.91
3.96
-4.03
-11.98
-19.81
-27.32
-34.28
-40.48
-45.86
-50.5
-54.6
-58.35
-61.81
-64.91
-67.48
-69.37
-70.58
-71.27
-71.71
-72.07
-72.41
-72.57
-72.3
-71.43
-69.95
-68.04
-65.97
-63.91
-61.86
-59.59
-56.75
-52.97
-48.04
-41.94
-34.88
-27.24
-19.48
-12.1
-5.45
0.24
4.95
8.78
11.92
14.52
16.68
18.5
20.04
21.41
22.71
24.04
25.41
26.79
28.12
29.3
30.28
31.05
31.6
31.95
32.06
31.83
31.19
30.11
28.63
26.85
24.86
22.65
20.08
16.91
12.85
7.77
1.72
-4.95
-11.7
-17.91
-23
-26.63
-28.72
-29.5
-29.33
-28.6
-27.63
-26.51
-25.19
-23.54
-21.46
-18.97
-16.18
-13.3
-10.49
-7.85
-5.37
-3
-0.63
1.77
4.15
6.4
8.34
9.82
10.78
11.22
11.15
10.58
9.43
7.61
5.12
2.12
-1.05
-3.98
-6.33
-8.03
-9.25
-10.33
-11.6
-13.23
-15.19
-17.24
-19.03
-20.19
-20.4
-19.5
-17.51
-14.71
-11.53
-8.54
-6.19
-4.72
-4.1
-4.09
-4.41
-4.85
-5.37
-5.99
-6.76
-7.61
-8.42
-8.97
-9.12
-8.83
-8.16
-7.27
-6.34
-5.5
-4.82
-4.28
-3.85
-3.47
-3.2
-3.15
-3.46
-4.18
-5.25
-6.47
-7.62
-8.5
-9.08
-9.46
-9.87
-10.53
-11.65
-13.29
-15.39
-17.67
-19.7
-20.98
-21.07
-19.74
-17
-13.17
-8.75
-4.32
-0.33
2.94
5.46
7.35
8.76
9.82
10.55
10.9
10.8
10.33
9.63
8.96
8.55
8.51
8.82
9.35
9.95
10.53
11.03
11.46
11.8
12
11.95
11.54
10.67
9.35
7.67
5.8
3.93
2.2
0.71
-0.53
-1.58
-2.56
-3.64
-4.96
-6.57
-8.35
-9.94
-10.88
-10.71
-9.15
-6.24
-2.34
2.03
6.29
10.03
13.02
15.22
16.67
17.45
17.63
17.34
16.75
16.06
15.48
15.04
14.67
14.21
13.5
12.54
11.49
10.59
10.06
9.94
10.08
10.22
10.07
9.46
8.38
6.91
5.21
3.44
1.72
0.09
-1.42
-2.83
-4.23
-5.73
-7.43
-9.36
-11.46
-13.48
-15.04
-15.64
-14.89
-12.6
-8.94
-4.39
0.38
4.75
8.32
11.02
12.96
14.33
15.25
15.72
15.68
15.12
14.19
13.19
12.52
12.5
13.3
14.82
16.72
18.57
19.96
20.65
20.57
19.8
18.43
16.49
14.01
11.02
7.72
4.43
1.51
-0.74
-2.25
-3.09
-3.46
-3.58
-3.68
-3.97
-4.65
-5.88
-7.67
-9.82
-11.91
-13.42
-13.93
-13.24
-11.45
-8.84
-5.75
-2.48
0.79
3.91
6.73
9.07
10.75
11.67
11.84
11.37
10.38
8.96
7.18
5.08
2.75
0.32
-2.07
-4.29
-6.27
-8.01
-9.56
-11.01
-12.47
-14.06
-15.94
-18.22
-20.93
-24
-27.19
-30.18
-32.63
-34.25
-34.89
-34.58
-33.55
-32.06
-30.29
-28.23
-25.63
-22.11
-17.39
-11.44
-4.54
2.78
9.97
16.59
22.46
27.52
31.77
35.08
37.3
38.29
38.14
37.33
36.61
36.8
38.49
41.8
46.27
50.98
54.76
56.42
54.96
49.73
40.57
27.94
12.99
-2.69
-17.34
-29.51
-38.43
-44.04
-46.9
-47.78
-47.43
-46.4
-45.05
-43.56
-41.99
-40.25
-38.01
-34.83
-30.26
-24.09
-16.51
-8.13
0.17
7.47
13.13
16.85
18.71
19.04
18.24
16.67
14.68
12.61
10.8
9.57
9.11
9.47
10.5
11.94
13.47
14.86
15.94
16.62
16.86
16.67
16.08
15.1
13.72
11.93
9.77
7.33
4.76
2.24
-0.12
-2.3
-4.33
-6.2
-7.76
-8.64
-8.41
-6.66
-3.28
1.48
7.05
12.72
17.8
21.85
24.76
26.69
27.99
28.99
29.85
30.58
31.05
31.13
30.84
30.36
30.01
30.17
31.15
33.14
36.1
39.8
43.76
47.26
49.57
50.01
48.22
44.19
38.3
31.11
23.21
15.11
7.13
-0.54
-7.76
-14.4
-20.29
-25.24
-29.08
-31.68
-32.96
-32.91
-31.58
-29.08
-25.7
-21.85
-18.05
-14.82
-12.57
-11.45
-11.38
-12.09
-13.26
-14.64
-16.12
-17.71
-19.5
-21.59
-24.03
-26.81
-29.86
-32.98
-35.9
-38.35
-40.08
-40.99
-41.02
-40.2
-38.57
-36.1
-32.7
-28.39
-23.37
-18.15
-13.58
-10.68
-10.31
-12.85
-17.94
-24.42
-30.69
-35.12
-36.6
-34.79
-30.17
-23.68
-16.35
-9
-2.06
4.37
10.45
16.55
23.15
30.67
39.32
48.75
58.09
66.03
71.31
73.1
71.33
66.67
60.16
52.86
45.44
38.11
30.75
23.1
14.99
6.5
-2.17
-10.71
-18.86
-26.43
-33.25
-39.09
-43.63
-46.58
-47.86
-47.8
-47.1
-46.65
-47.16
-48.74
-50.84
-52.45
-52.56
-50.56
-46.5
-41.05
-35.11
-29.53
-24.77
-20.98
-18.03
-15.79
-14.22
-13.36
-13.24
-13.72
-14.52
-15.24
-15.49
-15.06
-13.97
-12.47
-10.87
-9.5
-8.5
-7.85
-7.43
-7.06
-6.65
-6.17
-5.7
-5.35
-5.18
-5.19
-5.32
-5.55
-5.87
-6.27
-6.72
-7.03
-6.83
-5.73
-3.51
-0.25
3.61
7.35
10.32
12.16
12.88
12.85
12.45
11.97
11.43
10.74
9.82
8.75
7.79
7.21
7.19
7.73
8.64
9.69
10.68
11.47
11.98
12.12
11.8
10.94
9.56
7.78
5.8
3.85
2.1
0.64
-0.55
-1.56
-2.51
-3.55
-4.73
-5.94
-6.89
-7.11
-6.16
-3.79
-0.08
4.49
9.24
13.42
16.47
18.19
18.74
18.63
18.52
18.94
20.14
21.95
23.84
25.17
25.46
24.6
22.92
20.98
19.33
18.25
17.72
17.47
17.24
16.9
16.51
16.24
16.18
16.33
16.53
16.58
16.34
15.73
14.74
13.22
10.97
7.74
3.42
-1.86
-7.74
-13.69
-19.24
-24.11
-28.24
-31.71
-34.62
-36.99
-38.72
-39.69
-39.73
-38.78
-36.84
-33.96
-30.28
-25.97
-21.23
-16.27
-11.22
-6.16
-1.16
3.78
8.62
13.33
17.79
21.86
25.32
27.98
29.75
30.72
31.17
31.45
31.87
32.57
33.48
34.41
35.05
35.18
34.6
33.19
30.96
28.12
25.13
22.65
21.41
21.97
24.62
29.22
35.36
42.38
49.54
56.17
61.71
65.87
68.62
70.15
70.73
70.51
69.44
67.26
63.65
58.41
51.58
43.38
34.16
24.23
13.84
3.22
-7.41
-17.8
-27.65
-36.7
-44.79
-51.89
-58.08
-63.55
-68.49
-73.08
-77.45
-81.59
-85.34
-88.37
-90.29
-90.73
-89.53
-86.85
-83.03
-78.54
-73.73
-68.73
-63.49
-57.94
-52.14
-46.33
-40.9
-36.2
-32.4
-29.42
-27.01
-24.88
-22.73
-20.37
-17.59
-14.23
-10.12
-5.26
0.19
5.86
11.21
15.76
19.13
21.2
22.05
21.84
20.68
18.67
15.83
12.29
8.25
3.98
-0.19
-3.98
-7.2
-9.72
-11.44
-12.29
-12.29
-11.57
-10.34
-8.88
-7.41
-6.02
-4.62
-3.02
-1
1.59
4.79
8.48
12.4
16.18
19.47
21.98
23.57
24.31
24.39
24.08
23.63
23.22
22.91
22.71
22.49
22.06
21.22
19.78
17.69
15.06
12.11
9.1
6.25
3.72
1.56
-0.24
-1.76
-3.13
-4.54
-6.15
-7.96
-9.77
-11.23
-11.93
-11.61
-10.26
-8.1
-5.51
-2.9
-0.58
1.22
2.39
2.89
2.75
2.1
1.09
-0.07
-1.2
-2.11
-2.66
-2.84
-2.7
-2.38
-2
-1.6
-1.08
-0.33
0.71
1.99
3.3
4.4
5.07
5.22
4.86
4.04
2.79
1.17
-0.75
-2.86
-5.02
-7.18
-9.37
-11.71
-14.24
-16.82
-19.09
-20.6
-20.96
-20.03
-18.04
-15.43
-12.72
-10.29
-8.29
-6.73
-5.59
-4.92
-4.83
-5.4
-6.54
-8.01
-9.44
-10.49
-10.95
-10.79
-10.15
-9.3
-8.54
-8.11
-8.19
-8.83
-9.95
-11.37
-12.86
-14.22
-15.32
-16.08
-16.48
-16.56
-16.45
-16.29
-16.23
-16.35
-16.49
-16.38
-15.64
-13.98
-11.32
-7.79
-3.7
0.61
4.87
8.86
12.47
15.55
18.03
19.9
21.17
21.97
22.34
22.32
21.95
21.26
20.39
19.52
18.84
18.4
18.15
17.92
17.54
16.9
15.99
14.93
13.84
12.86
12.02
11.24
10.38
9.28
7.78
5.8
3.36
0.55
-2.42
-5.32
-7.89
-9.88
-11.07
-11.39
-10.85
-9.66
-8.12
-6.58
-5.29
-4.35
-3.75
-3.35
-3
-2.61
-2.15
-1.63
-1.11
-0.6
-0.06
0.56
1.31
2.22
3.27
4.4
5.52
6.53
7.3
7.71
7.71
7.3
6.59
5.71
4.83
4.05
3.42
2.87
2.3
1.57
0.58
-0.75
-2.34
-4.01
-5.47
-6.36
-6.38
-5.35
-3.33
-0.58
2.51
5.53
8.21
10.46
12.35
14
15.58
17.18
18.83
20.52
22.2
23.83
25.39
26.87
28.27
29.54
30.64
31.5
32.02
32.14
31.84
31.13
30.04
28.58
26.74
24.46
21.7
18.51
15.04
11.53
8.25
5.36
2.89
0.64
-1.78
-4.78
-8.72
-13.69
-19.48
-25.55
-31.11
-35.33
-37.6
-37.71
-35.96
-33.05
-29.84
-27.06
-25.13
-24
-23.34
-22.68
-21.71
-20.36
-18.78
-17.24
-15.9
-14.74
-13.57
-12.17
-10.45
-8.52
-6.7
-5.3
-4.51
-4.31
-4.47
-4.67
-4.66
-4.39
-3.94
-3.5
-3.27
-3.39
-3.91
-4.79
-5.99
-7.44
-8.98
-10.42
-11.45
-11.72
-10.89
-8.83
-5.64
-1.72
2.37
6.05
8.88
10.69
11.49
11.49
10.91
9.96
8.77
7.47
6.15
4.96
3.99
3.32
2.97
2.89
3
3.21
3.37
3.35
3.06
2.49
1.74
0.95
0.3
-0.13
-0.38
-0.61
-1.04
-1.87
-3.2
-4.99
-7.07
-9.18
-11.01
-12.25
-12.65
-12.07
-10.52
-8.18
-5.34
-2.33
0.56
3.13
5.25
6.83
7.84
8.25
8.15
7.69
7.06
6.41
5.81
5.21
4.56
3.84
3.12
2.55
2.23
2.15
2.2
2.17
1.88
1.22
0.16
-1.21
-2.79
-4.45
-6.07
-7.61
-9.1
-10.66
-12.38
-14.34
-16.42
-18.31
-19.55
-19.72
-18.52
-15.95
-12.31
-8.08
-3.77
0.14
3.42
5.96
7.8
9.05
9.83
10.26
10.42
10.37
10.15
9.79
9.29
8.71
8.11
7.64
7.44
7.61
8.14
8.84
9.39
9.43
8.73
7.3
5.42
3.47
1.81
0.55
-0.45
-1.47
-2.77
-4.48
-6.55
-8.81
-11.02
-12.93
-14.29
-14.82
-14.36
-12.83
-10.4
-7.34
-4.1
-1.1
1.33
3.02
3.97
4.3
4.22
3.97
3.76
3.73
3.94
4.32
4.79
5.28
5.76
6.32
7.03
7.91
8.83
9.54
9.76
9.31
8.21
6.71
5.11
3.68
2.53
1.61
0.8
-0.02
-0.87
-1.68
-2.37
-2.87
-3.09
-2.95
-2.38
-1.28
0.41
2.73
5.6
8.94
12.59
16.34
19.9
22.98
25.36
26.93
27.8
28.18
28.32
28.37
28.28
27.92
27.09
25.62
23.46
20.6
17.1
13.08
8.76
4.5
0.71
-2.3
-4.45
-6.02
-7.58
-9.75
-12.91
-17.01
-21.47
-25.42
-28.07
-28.94
-28.04
-25.76
-22.56
-18.79
-14.48
-9.4
-3.24
4.18
12.72
21.96
31.2
39.73
46.9
52.28
55.67
57.12
56.9
55.37
52.96
50.09
47.15
44.42
42.17
40.66
40.1
40.64
42.21
44.58
47.36
50.17
52.76
55.09
57.25
59.38
61.55
63.73
65.91
68.2
70.91
74.52
79.56
86.44
95.36
106.24
118.86
132.91
148.06
164.05
180.54
197.03
212.79
226.84
238.05
245.25
247.3
243.12
231.79
212.63
185.55
151.35
111.94
70.26
29.86
-5.89
-34.55
-55.18
-68.39
-75.94
-80.12
-83.05
-86.14
-90
-94.5
-99.07
-103.13
-106.3
-108.51
-109.96
-110.89
-111.46
-111.69
-111.58
-111.36
-111.62
-113.22
-116.96
-123.15
-131.33
-140.29
-148.52
-154.74
-158.29
-159.3
-158.37
-156.16
-153.11
-149.3
-144.57
-138.88
-132.44
-125.71
-119.31
-113.71
-109.1
-105.32
-101.96
-98.49
-94.5
-89.77
-84.39
-78.58
-72.68
-66.95
-61.51
-56.4
-51.6
-47.19
-43.33
-40.21
-37.98
-36.63
-36.02
-35.94
-36.25
-36.97
-38.2
-39.92
-41.85
-43.42
-43.86
-42.55
-39.26
-34.29
-28.29
-22.04
-16.09
-10.61
-5.35
0.15
6.44
13.94
22.89
33.28
44.79
56.77
68.3
78.39
86.2
91.3
93.77
94.08
92.75
90.05
85.78
79.39
70.31
58.35
43.91
27.96
11.73
-3.64
-17.46
-29.47
-39.77
-48.44
-55.42
-60.37
-62.86
-62.66
-59.9
-55.21
-49.57
-44.01
-39.38
-36.16
-34.43
-34.03
-34.68
-36.13
-38.12
-40.35
-42.52
-44.28
-45.42
-45.83
-45.54
-44.73
-43.54
-42.18
-40.76
-39.42
-38.23
-37.22
-36.29
-35.28
-34.07
-32.61
-31.08
-29.78
-29.11
-29.21
-29.94
-30.77
-31.02
-30.08
-27.69
-23.99
-19.45
-14.69
-10.23
-6.39
-3.35
-1.14
0.23
0.76
0.55
-0.19
-1.1
-1.75
-1.76
-0.91
0.8
3.11
5.59
7.78
9.32
10.06
10.02
9.41
8.42
7.2
5.85
4.41
2.98
1.73
0.84
0.43
0.54
1.03
1.72
2.4
2.9
3.1
2.93
2.39
1.56
0.67
0.05
0.08
1.03
2.97
5.65
8.64
11.42
13.56
14.86
15.38
15.44
15.44
15.78
16.7
18.16
19.94
21.75
23.39
24.87
26.42
28.42
31.3
35.42
40.9
47.61
55.04
62.42
68.85
73.48
75.8
75.71
73.5
69.7
64.94
59.72
54.45
49.48
45.09
41.5
38.8
36.83
35.21
33.39
30.88
27.35
22.87
17.87
13.01
8.95
6.02
4.09
2.66
1.08
-1.01
-3.47
-5.57
-6.27
-4.64
-0.31
6.32
14.15
21.8
28.05
32.19
34.14
34.2
32.8
30.22
26.59
21.96
16.49
10.5
4.47
-1.08
-5.61
-8.65
-9.83
-8.94
-6.02
-1.38
4.42
10.7
16.86
22.49
27.36
31.36
34.32
35.98
36.03
34.15
30.17
24.19
16.63
8.18
-0.24
-7.74
-13.62
-17.56
-19.68
-20.38
-20.17
-19.49
-18.53
-17.33
-15.83
-14.1
-12.39
-11.08
-10.63
-11.34
-13.29
-16.36
-20.35
-25.11
-30.53
-36.39
-42.19
-47.03
-49.81
-49.69
-46.46
-40.75
-33.81
-27.02
-21.32
-16.93
-13.38
-9.93
-6.05
-1.67
2.72
6.36
8.61
9.15
8.23
6.52
4.94
4.35
5.38
8.21
12.54
17.54
21.96
24.38
23.56
18.96
11.1
1.65
-6.93
-12.11
-12.2
-6.85
2.9
15.08
27.5
38.23
45.81
49.11
47.06
38.77
23.91
3.21
-21.18
-45.96
-67.53
-83.05
-91.37
-93.11
-90.28
-85.15
-79.32
-73.25
-66.41
-57.89
-47.15
-34.45
-20.86
-7.96
2.62
9.55
12.11
10.38
5.21
-1.87
-9.03
-14.59
-17.5
-17.62
-15.75
-13.21
-11.4
-11.31
-13.33
-17.26
-22.46
-28.07
-33.13
-36.7
-37.97
-36.48
-32.28
-26.05
-19.05
-12.82
-8.74
-7.59
-9.17
-12.29
-15.04
-15.47
-12.3
-5.46
3.79
13.33
20.92
24.98
25.09
21.97
16.96
11.53
6.75
3.23
1.18
0.67
1.76
4.5
8.91
14.88
22.16
30.38
39.1
47.77
55.64
61.83
65.35
65.41
61.76
54.93
46.21
37.18
29.24
22.97
18.05
13.53
8.29
1.65
-6.42
-15.41
-24.57
-33.16
-40.46
-45.75
-48.05
-46.34
-39.78
-28.06
-11.72
7.78
28.26
47.09
61.65
69.83
70.6
64.27
52.67
38.64
25.2
14.67
7.97
4.61
3.21
2.27
0.77
-1.7
-5.16
-9.63
-15.34
-22.54
-31.1
-40.1
-47.87
-52.3
-51.55
-44.76
-32.37
-16.11
1.48
17.76
30.54
38.42
41.02
38.83
33.09
25.55
18.07
12.26
9.05
8.48
9.62
11.03
11.2
9.06
4.3
-2.54
-10.41
-18.04
-24.28
-28.26
-29.43
-27.52
-22.57
-15
-5.72
3.93
12.4
18.42
21.41
21.6
19.95
17.6
15.38
13.45
11.38
8.39
3.84
-2.46
-10.25
-18.88
-27.64
-35.9
-43.31
-49.7
-55.08
-59.52
-63.18
-66.26
-68.95
-71.26
-72.9
-73.2
-71.3
-66.4
-58.26
-47.32
-34.75
-21.99
-10.31
-0.48
7.3
13.16
17.25
19.57
20.11
19.05
16.94
14.65
13.08
12.83
13.98
16.16
18.82
21.47
23.89
26.06
28.03
29.68
30.71
30.74
29.43
26.61
22.35
16.94
10.79
4.42
-1.68
-7.06
-11.56
-15.3
-18.8
-22.65
-27.32
-32.78
-38.42
-43.17
-45.89
-45.72
-42.35
-36.07
-27.63
-17.99
-8.16
0.93
8.54
14.16
17.55
18.8
18.35
16.8
14.81
12.92
11.35
10.07
8.82
7.29
5.26
2.73
-0.09
-2.82
-5.08
-6.59
-7.23
-7.03
-6.11
-4.64
-2.83
-0.96
0.64
1.66
1.86
1.21
-0.22
-2.26
-4.82
-7.95
-11.66
-15.9
-20.34
-24.4
-27.34
-28.53
-27.66
-24.8
-20.37
-14.92
-8.99
-2.95
2.93
8.43
13.32
17.26
19.93
21.08
20.73
19.22
17.19
15.37
14.35
14.41
15.34
16.61
17.56
17.55
16.24
13.57
9.81
5.34
0.59
-4.07
-8.32
-11.85
-14.27
-15.2
-14.41
-12.03
-8.64
-5.09
-2.08
0.29
2.59
5.84
10.88
17.8
25.69
33.01
38.19
40.35
39.51
36.56
32.63
28.68
25.14
21.96
18.77
15.25
11.36
7.39
3.88
1.43
0.44
0.98
2.73
5.04
7.21
8.65
9.05
8.4
6.85
4.6
1.75
-1.64
-5.54
-9.84
-14.25
-18.47
-22.28
-25.68
-28.8
-31.7
-34.12
-35.35
-34.36
-30.3
-22.88
-12.61
-0.75
11.1
21.48
29.41
34.52
36.93
37.09
35.52
32.73
29.17
25.26
21.38
17.85
14.92
12.69
11.12
10.06
9.37
8.99
9
9.51
10.55
11.92
13.11
13.49
12.62
10.4
7.21
3.71
0.44
-2.38
-5.04
-8.13
-12.32
-17.97
-25
-32.84
-40.49
-46.8
-50.56
-50.78
-46.9
-39.03
-27.96
-15.04
-1.85
10.13
19.87
26.82
30.91
32.46
31.99
30.17
27.7
25.11
22.73
20.54
18.34
15.82
12.81
9.36
5.72
2.21
-0.9
-3.41
-5.17
-5.95
-5.54
-3.74
-0.63
3.35
7.4
10.62
12.28
12.07
10.11
6.83
2.6
-2.35
-7.89
-13.73
-19.22
-23.29
-24.82
-23.05
-17.92
-10.09
-0.74
8.8
17.41
24.3
29.08
31.56
31.86
30.2
27.01
22.82
18.19
13.67
9.7
6.65
4.71
3.93
4.07
4.71
5.34
5.5
5
3.94
2.73
1.84
1.63
2.1
2.93
3.5
3.1
1.25
-2.21
-6.98
-12.42
-17.68
-21.91
-24.42
-24.78
-22.9
-19.04
-13.71
-7.64
-1.63
3.67
7.79
10.54
11.93
12.13
11.33
9.62
7.02
3.46
-1.13
-6.68
-12.91
-19.27
-25.08
-29.71
-32.8
-34.44
-35.06
-35.29
-35.65
-36.31
-37.12
-37.7
-37.72
-37.08
-35.9
-34.52
-33.33
-32.69
-32.94
-34.27
-36.69
-39.92
-43.26
-45.74
-46.28
-44.13
-39.1
-31.69
-22.91
-13.92
-5.73
1.09
6.4
10.46
13.68
16.51
19.29
22.17
25.12
27.96
30.47
32.43
33.74
34.41
34.47
33.98
32.91
31.22
28.85
25.86
22.46
19.03
16.03
13.89
12.87
13.07
14.28
16.09
17.94
19.17
19.13
17.44
14.11
9.71
5.32
2.25
1.63
3.98
9.07
16
23.51
30.47
36.13
40.25
42.94
44.42
44.87
44.34
42.84
40.46
37.41
34.02
30.65
27.62
25.07
23.04
21.41
20.04
18.75
17.24
15.18
12.17
7.91
2.32
-4.33
-11.44
-18.33
-24.36
-29.21
-32.81
-35.37
-37.15
-38.37
-39.19
-39.61
-39.52
-38.59
-36.3
-31.97
-25.02
-15.1
-2.32
12.81
29.47
46.67
63.48
79.05
92.74
104.12
113.09
119.79
124.53
127.58
129.05
128.84
126.7
122.49
116.27
108.33
99.15
89.28
79.22
69.41
60.1
51.32
42.76
33.73
23.41
11.15
-3.09
-18.63
-34.15
-48.23
-59.88
-68.86
-75.74
-81.55
-87.26
-93.35
-99.69
-105.63
-110.36
-113.18
-113.71
-111.96
-108.28
-103.22
-97.45
-91.67
-86.49
-82.33
-79.36
-77.46
-76.24
-75.16
-73.66
-71.25
-67.58
-62.5
-56.01
-48.28
-39.64
-30.55
-21.51
-12.94
-5.15
1.73
7.73
12.94
17.45
21.4
24.93
28.31
31.87
35.99
40.87
46.37
52.04
57.38
62.1
66.53
71.55
78.22
87.24
98.45
110.77
122.46
131.71
137.08
137.81
133.66
124.81
111.83
95.73
78.02
60.54
44.98
32.35
22.59
14.71
7.27
-0.98
-10.64
-21.64
-33.47
-45.63
-57.83
-69.95
-81.8
-92.95
-102.77
-110.64
-116.2
-119.51
-120.96
-121
-120
-118.09
-115.31
-111.73
-107.52
-102.87
-97.82
-92.14
-85.4
-77.1
-67.03
-55.36
-42.71
-29.91
-17.8
-7.06
1.98
9.33
15.24
20.2
24.72
29.26
34.09
39.14
44.09
48.5
51.97
54.28
55.45
55.69
55.25
54.3
52.91
51.08
48.8
46.13
43.18
40.09
36.98
33.95
31.07
28.37
25.78
23.16
20.19
16.52
11.88
6.25
0
-6.06
-10.95
-13.71
-13.81
-11.24
-6.57
-0.65
5.62
11.58
16.83
21.21
24.64
27.07
28.44
28.86
28.58
28.02
27.68
27.94
28.92
30.4
31.97
33.19
33.84
34.02
34.1
34.59
35.92
38.23
41.24
44.24
46.17
45.76
41.86
33.74
21.4
5.71
-11.88
-29.68
-46.32
-61.11
-73.97
-85.14
-94.63
-101.95
-106.17
-106.32
-101.94
-93.44
-82.05
-69.45
-57.17
-46.11
-36.42
-27.68
-19.4
-11.29
-3.47
3.69
9.9
15.1
19.64
24.12
29.18
35.29
42.54
50.57
58.63
65.8
71.2
74.28
74.95
73.49
70.39
66.07
60.71
54.27
46.65
37.87
28.11
17.68
6.91
-3.93
-14.65
-24.99
-34.56
-42.82
-49.19
-53.16
-54.55
-53.54
-50.73
-47.03
-43.44
-40.74
-39.33
-39.06
-39.36
-39.5
-38.87
-37.3
-35.05
-32.67
-30.73
-29.48
-28.74
-28
-26.64
-24.26
-20.85
-16.72
-12.43
-8.49
-5.29
-2.97
-1.45
-0.52
0.15
0.88
1.84
2.97
3.92
4.19
3.37
1.44
-1.09
-3.24
-3.86
-1.92
3.02
10.7
20.17
30.01
38.76
45.18
48.62
49.04
46.94
43.14
38.61
34.16
30.41
27.69
26.07
25.42
25.4
25.57
25.45
24.61
22.76
19.77
15.69
10.71
5.07
-1.06
-7.62
-14.76
-22.75
-31.85
-42.12
-53.35
-64.99
-76.3
-86.49
-94.8
-100.66
-103.6
-103.33
-99.71
-92.86
-83.27
-71.79
-59.52
-47.52
-36.58
-27
-18.6
-10.9
-3.31
4.57
12.91
21.54
30.17
38.49
46.35
53.87
61.36
69.14
77.27
85.32
92.41
97.42
99.34
97.65
92.51
84.67
75.25
65.35
55.8
47
38.93
31.28
23.66
15.69
7.25
-1.56
-10.37
-18.59
-25.6
-30.91
-34.41
-36.36
-37.34
-38.06
-39.01
-40.32
-41.68
-42.63
-42.75
-41.96
-40.51
-38.9
-37.58
-36.78
-36.43
-36.23
-35.81
-34.88
-33.26
-30.94
-28.01
-24.62
-20.98
-17.39
-14.16
-11.58
-9.83
-8.93
-8.7
-8.87
-9.18
-9.49
-9.82
-10.39
-11.51
-13.43
-16.15
-19.35
-22.29
-24.07
-23.85
-21.17
-16.14
-9.42
-2.09
4.78
10.41
14.46
17.06
18.55
19.33
19.57
19.3
18.45
17.07
15.47
14.14
13.68
14.5
16.63
19.71
23.13
26.2
28.43
29.6
29.81
29.45
29.13
29.65
31.83
36.41
43.61
52.97
63.26
72.71
79.54
82.58
81.7
77.71
72.06
66.19
61.09
57.17
54.39
52.57
51.6
51.46
52.16
53.5
55.06
56.29
56.72
56.22
55.06
53.86
53.29
53.71
54.9
56.1
56.2
54.2
49.56
42.34
33.12
22.66
11.55
0.1
-11.68
-23.85
-36.33
-48.76
-60.52
-70.94
-79.44
-85.76
-90
-92.63
-94.3
-95.64
-97.09
-98.64
-99.8
-99.58
-96.79
-90.43
-80.11
-66.32
-50.31
-33.8
-18.38
-5.08
5.8
14.49
21.43
26.95
31.22
34.34
36.5
38.1
39.59
41.26
43.12
44.91
46.27
46.95
46.94
46.39
45.44
44.11
42.18
39.36
35.43
30.28
23.99
16.74
8.82
0.59
-7.49
-14.94
-21.35
-26.45
-30.27
-33.12
-35.47
-37.8
-40.41
-43.26
-45.95
-47.74
-47.82
-45.62
-41.01
-34.44
-26.78
-19.05
-12.01
-6.07
-1.29
2.41
5.02
6.46
6.62
5.57
3.63
1.32
-0.87
-2.68
-4.12
-5.44
-6.87
-8.41
-9.87
-10.96
-11.54
-11.79
-12.15
-13.2
-15.33
-18.53
-22.4
-26.19
-29.11
-30.52
-30.11
-28.01
-24.65
-20.83
-17.41
-15.18
-14.57
-15.56
-17.59
-19.67
-20.69
-19.71
-16.23
-10.35
-2.7
5.77
14.12
21.7
28.16
33.43
37.53
40.34
41.68
41.44
39.76
37.04
33.88
30.77
27.9
25.18
22.32
19.18
15.83
12.57
9.66
7.14
4.77
2.1
-1.31
-5.6
-10.61
-15.94
-21.02
-25.4
-28.75
-30.88
-31.79
-31.62
-30.69
-29.47
-28.47
-28.07
-28.35
-28.99
-29.4
-28.82
-26.66
-22.58
-16.63
-9.12
-0.6
8.29
16.87
24.52
30.73
35.23
37.95
39.07
38.84
37.55
35.42
32.65
29.4
25.78
21.89
17.76
13.38
8.71
3.77
-1.33
-6.41
-11.3
-15.92
-20.34
-24.82
-29.63
-34.9
-40.42
-45.67
-49.94
-52.68
-53.68
-53.18
-51.74
-49.95
-48.18
-46.54
-44.88
-43
-40.69
-37.78
-34.13
-29.62
-24.19
-17.97
-11.31
-4.66
1.49
6.83
11.28
14.92
17.95
20.57
22.96
25.3
27.75
30.38
33.14
35.81
38.12
39.82
40.8
41.07
40.76
39.9
38.41
36.07
32.65
28.04
22.29
15.7
8.62
1.49
-5.34
-11.64
-17.36
-22.67
-27.89
-33.39
-39.49
-46.32
-53.71
-61.14
-67.77
-72.52
-74.41
-72.74
-67.51
-59.42
-49.78
-40.14
-31.78
-25.43
-21.19
-18.71
-17.49
-17.19
-17.57
-18.52
-19.88
-21.35
-22.59
-23.27
-23.19
-22.3
-20.69
-18.45
-15.67
-12.44
-8.98
-5.62
-2.81
-0.96
-0.3
-0.74
-1.85
-3.08
-3.9
-4.08
-3.68
-3.04
-2.63
-2.85
-3.89
-5.74
-8.07
-10.4
-12.08
-12.5
-11.22
-8.15
-3.6
1.77
7.16
11.85
15.35
17.51
18.43
18.34
17.47
15.99
14.06
11.78
9.34
7.01
5.08
3.79
3.27
3.44
4.07
4.81
5.34
5.47
5.1
4.29
3.05
1.4
-0.67
-3.12
-5.78
-8.42
-10.82
-12.87
-14.75
-16.81
-19.41
-22.66
-26.24
-29.39
-31.16
-30.79
-27.94
-22.88
-16.37
-9.35
-2.7
3.02
7.54
10.87
13.14
14.49
15.01
14.79
13.94
12.61
11.03
9.48
8.2
7.39
7.14
7.47
8.3
9.5
10.85
12.08
12.86
12.91
12.07
10.38
8.06
5.48
2.99
0.8
-1.03
-2.67
-4.39
-6.52
-9.32
-12.8
-16.74
-20.6
-23.7
-25.32
-24.91
-22.24
-17.48
-11.21
-4.22
2.64
8.63
13.29
16.44
18.2
18.86
18.74
18.16
17.36
16.55
15.88
15.47
15.38
15.61
16.03
16.56
17.06
17.51
17.88
18.15
18.27
18.08
17.4
16.07
14.02
11.38
8.42
5.47
2.85
0.71
-1.02
-2.65
-4.6
-7.31
-11.05
-15.82
-21.21
-26.51
-30.72
-32.9
-32.29
-28.63
-22.23
-13.97
-5.03
3.42
10.47
15.69
19.1
21.01
21.84
21.9
21.37
20.38
19.07
17.67
16.47
15.74
15.58
15.87
16.35
16.76
16.93
16.93
16.9
17.02
17.27
17.48
17.32
16.5
14.93
12.81
10.57
8.69
7.49
7.01
7.01
7.12
6.99
6.42
5.39
4.07
2.83
2.27
3.09
6.02
11.57
19.82
30.31
42.1
54.07
65.18
74.73
82.44
88.36
92.76
96
98.38
100.08
101.1
101.28
100.33
97.93
93.96
88.54
82.02
74.88
67.55
60.33
53.4
46.86
40.89
35.7
31.45
28.07
25.24
22.42
19.11
15.05
10.35
5.39
0.54
-3.98
-8.19
-12.16
-15.8
-18.68
-20.1
-19.45
-16.44
-11.39
-5.14
1.27
6.93
11.33
14.37
16.26
17.26
17.52
17.04
15.78
13.72
10.96
7.7
4.22
0.75
-2.52
-5.49
-8.05
-10.15
-11.76
-12.89
-13.7
-14.41
-15.37
-16.89
-19.14
-22.02
-25.2
-28.18
-30.47
-31.85
-32.4
-32.51
-32.7
-33.38
-34.76
-36.7
-38.79
-40.4
-40.83
-39.49
-36.05
-30.62
-23.79
-16.49
-9.73
-4.3
-0.59
1.46
2.16
1.91
0.98
-0.42
-2.16
-4.05
-5.85
-7.32
-8.28
-8.71
-8.71
-8.47
-8.24
-8.23
-8.63
-9.57
-11.11
-13.24
-15.83
-18.68
-21.61
-24.5
-27.35
-30.23
-33.26
-36.52
-40.1
-44.15
-48.92
-54.57
-60.99
-67.55
-73.16
-76.58
-76.88
-73.96
-68.62
-62.26
-56.39
-52.05
-49.54
-48.5
-48.29
-48.34
-48.43
-48.59
-48.97
-49.56
-50.14
-50.27
-49.56
-47.81
-45.12
-41.84
-38.43
-35.17
-32.16
-29.27
-26.35
-23.33
-20.35
-17.7
-15.73
-14.66
-14.48
-14.99
-15.83
-16.67
-17.29
-17.69
-18.02
-18.55
-19.6
-21.38
-23.93
-26.96
-29.87
-31.74
-31.72
-29.15
-23.9
-16.39
-7.52
1.68
10.3
17.69
23.55
27.76
30.27
31.13
30.52
28.84
26.61
24.44
22.78
21.86
21.64
21.93
22.52
23.24
24.04
24.9
25.8
26.63
27.21
27.29
26.61
25.02
22.54
19.46
16.24
13.41
11.31
9.95
8.96
7.73
5.67
2.55
-1.34
-5.11
-7.55
-7.42
-3.87
3.2
13.17
24.75
36.37
46.62
54.6
60.12
63.57
65.71
67.23
68.62
70.03
71.33
72.26
72.49
71.8
70.15
67.81
65.32
63.39
62.61
63.16
64.71
66.5
67.76
67.99
67.11
65.41
63.18
60.51
57.25
53.15
48.11
42.22
35.71
28.75
21.47
14.03
6.83
0.58
-3.75
-5.29
-3.6
1.04
7.64
14.78
21.1
25.61
27.94
28.31
27.25
25.41
23.25
21.04
18.83
16.56
14.26
12.01
9.99
8.35
7.17
6.39
5.87
5.44
4.91
4.08
2.74
0.68
-2.28
-6.22
-11.01
-16.38
-22.01
-27.59
-32.96
-38.05
-42.86
-47.46
-51.98
-56.63
-61.7
-67.27
-73.01
-78.07
-81.18
-81.12
-77.27
-69.95
-60.34
-50.1
-40.62
-32.67
-26.26
-20.98
-16.48
-12.77
-10.2
-9.19
-9.82
-11.67
-13.92
-15.71
-16.48
-16.2
-15.25
-14.16
-13.31
-12.74
-12.23
-11.5
-10.46
-9.31
-8.46
-8.28
-8.92
-10.23
-11.77
-13.12
-14.03
-14.57
-15.06
-15.95
-17.59
-20.18
-23.71
-27.95
-32.44
-36.5
-39.24
-39.73
-37.25
-31.61
-23.26
-13.24
-2.91
6.43
13.93
19.26
22.59
24.32
24.84
24.52
23.65
22.52
21.49
20.94
21.09
22
23.51
25.3
27.13
28.84
30.49
32.21
34.13
36.2
38.13
39.46
39.69
38.48
35.78
31.83
27.08
21.98
16.82
11.62
6.25
0.5
-5.76
-12.51
-19.54
-26.42
-32.53
-37.09
-39.29
-38.53
-34.64
-28.04
-19.65
-10.7
-2.33
4.62
9.84
13.35
15.41
16.35
16.44
15.95
15.15
14.35
13.85
13.85
14.38
15.33
16.44
17.46
18.16
18.41
18.12
17.13
15.29
12.42
8.51
3.73
-1.52
-6.7
-11.31
-14.97
-17.58
-19.26
-20.35
-21.36
-22.83
-25.23
-28.76
-33.14
-37.64
-41.14
-42.48
-40.91
-36.31
-29.36
-21.32
-13.61
-7.45
-3.53
-1.98
-2.47
-4.49
-7.48
-10.99
-14.55
-17.71
-19.94
-20.81
-20.13
-18.06
-15.07
-11.75
-8.55
-5.62
-2.8
0.18
3.42
6.73
9.58
11.33
11.47
9.81
6.61
2.43
-2.02
-6.14
-9.6
-12.42
-14.94
-17.66
-21.11
-25.63
-31.26
-37.62
-43.86
-48.85
-51.43
-50.76
-46.65
-39.67
-31
-21.97
-13.69
-6.68
-0.95
3.81
7.88
11.36
14.17
16.25
17.71
18.89
20.23
22.15
24.75
27.82
30.88
33.33
34.74
34.99
34.27
32.94
31.31
29.43
27.06
23.79
19.35
13.8
7.62
1.61
-3.49
-7.2
-9.47
-10.72
-11.61
-12.86
-15
-18.25
-22.35
-26.63
-30.05
-31.44
-29.84
-24.73
-16.3
-5.35
6.86
18.92
29.66
38.26
44.38
48.01
49.43
49.03
47.32
44.82
41.99
39.18
36.56
34.19
32.06
30.12
28.36
26.75
25.21
23.67
22.05
20.33
18.57
16.81
15.06
13.18
10.93
8.16
4.81
1.04
-2.85
-6.48
-9.6
-12.19
-14.44
-16.66
-19.17
-22.17
-25.65
-29.42
-33.12
-36.21
-38.08
-38.06
-35.59
-30.47
-22.94
-13.77
-4.05
5.12
12.92
18.95
23.22
26.01
27.63
28.29
28.17
27.42
26.25
24.92
23.69
22.68
21.94
21.38
20.89
20.42
19.94
19.49
19.08
18.62
17.96
16.89
15.27
13.11
10.6
8.11
6.05
4.77
4.36
4.59
4.94
4.77
3.59
1.26
-1.89
-5.11
-7.43
-7.97
-6.24
-2.29
3.19
9.12
14.26
17.62
18.74
17.83
15.63
13.1
11.01
9.72
9.13
8.96
8.95
9.1
9.63
10.81
12.74
15.23
17.8
19.95
21.29
21.69
21.24
20.11
18.4
16.14
13.34
10.1
6.64
3.32
0.39
-2.14
-4.58
-7.49
-11.4
-16.53
-22.54
-28.5
-33.13
-35.21
-34.03
-29.61
-22.78
-14.85
-7.27
-1.21
2.66
4.19
3.7
1.69
-1.23
-4.5
-7.59
-10.1
-11.76
-12.47
-12.27
-11.36
-9.96
-8.28
-6.49
-4.68
-2.96
-1.48
-0.47
-0.21
-0.94
-2.75
-5.5
-8.85
-12.37
-15.76
-18.92
-22.11
-25.72
-30.16
-35.62
-41.93
-48.52
-54.5
-58.79
-60.36
-58.5
-53.06
-44.58
-34.22
-23.48
-13.8
-6.19
-0.99
2.02
3.39
3.69
3.32
2.5
1.32
-0.06
-1.4
-2.45
-3.05
-3.21
-3.07
-2.82
-2.59
-2.41
-2.25
-2.18
-2.37
-3.1
-4.65
-7.08
-10.23
-13.65
-16.86
-19.48
-21.41
-22.85
-24.26
-26.18
-29.07
-33.12
-38.2
-43.67
-48.5
-51.4
-51.21
-47.28
-39.78
-29.7
-18.61
-8.11
0.64
7.16
11.57
14.3
15.78
16.22
15.71
14.34
12.38
10.22
8.29
6.91
6.23
6.24
6.82
7.84
9.16
10.6
11.96
12.97
13.32
12.72
10.94
7.92
3.8
-1.02
-6
-10.58
-14.46
-17.64
-20.5
-23.64
-27.63
-32.81
-39.1
-45.92
-52.2
-56.57
-57.69
-54.65
-47.27
-36.32
-23.28
-10.03
1.74
10.9
17.01
20.24
21.06
19.98
17.49
14.09
10.33
6.83
4.2
2.83
2.81
3.87
5.56
7.43
9.11
10.42
11.25
11.44
10.81
9.14
6.35
2.61
-1.63
-5.77
-9.2
-11.49
-12.51
-12.49
-12
-11.82
-12.69
-14.97
-18.34
-21.72
-23.49
-22.06
-16.49
-6.89
5.58
19.13
31.93
42.68
50.74
56.07
58.95
59.71
58.7
56.24
52.81
49
45.44
42.69
41.07
40.57
40.91
41.65
42.34
42.59
42.14
40.79
38.38
34.82
30.1
24.44
18.28
12.15
6.59
1.9
-1.88
-4.97
-7.78
-10.76
-14.34
-18.7
-23.65
-28.47
-31.95
-32.72
-29.73
-22.73
-12.53
-0.81
10.41
19.45
25.5
28.64
29.61
29.24
28.09
26.31
23.86
20.8
17.45
14.44
12.37
11.5
11.73
12.54
13.39
13.87
13.91
13.69
13.36
12.93
12.14
10.56
7.84
3.93
-0.83
-5.83
-10.44
-14.25
-17.29
-20.01
-23.07
-27.13
-32.53
-39.11
-46.06
-52.09
-55.62
-55.26
-50.3
-41.01
-28.65
-15.15
-2.49
7.92
15.56
20.67
23.92
25.9
26.87
26.81
25.68
23.66
21.28
19.21
17.95
17.63
17.85
17.98
17.44
16.02
13.94
11.68
9.68
8.03
6.43
4.35
1.35
-2.6
-7.12
-11.52
-15.19
-17.86
-19.7
-21.2
-22.99
-25.53
-29.08
-33.63
-38.83
-44
-48.07
-49.75
-47.82
-41.62
-31.43
-18.44
-4.54
8.32
18.59
25.52
29.13
29.94
28.61
25.75
21.77
16.97
11.74
6.57
2.06
-1.22
-2.9
-2.99
-1.83
-0.01
1.84
3.23
3.88
3.76
2.91
1.45
-0.51
-2.86
-5.39
-7.83
-9.86
-11.24
-11.92
-12.14
-12.36
-13.2
-15.21
-18.67
-23.4
-28.65
-33.19
-35.52
-34.32
-28.84
-19.25
-6.65
7.3
20.82
32.6
41.98
48.9
53.54
56.02
56.23
53.95
49.07
41.86
32.96
23.3
13.76
5.01
-2.69
-9.36
-15.16
-20.1
-23.98
-26.45
-27.23
-26.3
-24
-20.92
-17.59
-14.23
-10.64
-6.39
-1.09
5.27
12.18
18.73
23.92
26.89
27.19
24.86
20.35
14.55
8.73
4.32
2.72
4.79
10.57
19.13
28.82
37.85
44.8
49.03
50.67
50.31
48.62
46.06
42.94
39.46
35.98
32.95
30.86
30.01
30.38
31.64
33.26
34.67
35.48
35.51
34.81
33.56
31.96
30.11
28
25.48
22.43
18.7
14.28
9.27
3.9
-1.56
-6.82
-11.68
-16.12
-20.37
-24.81
-29.83
-35.44
-41.06
-45.54
-47.39
-45.37
-38.95
-28.65
-15.87
-2.39
10.19
20.86
29.32
35.7
40.29
43.25
44.64
44.56
43.34
41.57
39.96
39.06
39.1
39.9
41
41.91
42.22
41.76
40.51
38.52
35.82
32.34
27.92
22.37
15.56
7.54
-1.39
-10.69
-19.68
-27.75
-34.58
-40.22
-45.06
-49.64
-54.51
-60.02
-66.1
-72.28
-77.63
-80.97
-81.16
-77.52
-70.13
-59.92
-48.48
-37.53
-28.45
-21.9
-17.79
-15.6
-14.68
-14.58
-15.09
-16.09
-17.36
-18.57
-19.26
-19.15
-18.14
-16.44
-14.43
-12.4
-10.5
-8.71
-7
-5.38
-4.04
-3.25
-3.28
-4.24
-6.07
-8.52
-11.29
-14.05
-16.62
-18.9
-20.98
-23.08
-25.53
-28.68
-32.72
-37.52
-42.48
-46.51
-48.32
-46.79
-41.46
-32.73
-21.91
-10.78
-1
6.34
10.96
13.27
13.95
13.58
12.4
10.41
7.6
4.15
0.56
-2.56
-4.62
-5.32
-4.74
-3.22
-1.25
0.72
2.29
3.17
3.08
1.78
-0.85
-4.72
-9.5
-14.65
-19.56
-23.82
-27.33
-30.35
-33.33
-36.7
-40.53
-44.33
-47.11
-47.61
-44.66
-37.74
-27.21
-14.31
-0.86
11.35
20.96
27.37
30.69
31.42
30.19
27.49
23.67
18.96
13.63
8
2.47
-2.51
-6.5
-9.13
-10.15
-9.53
-7.5
-4.61
-1.59
0.79
1.87
1.24
-1.23
-5.41
-10.93
-17.33
-24.12
-30.93
-37.61
-44.14
-50.53
-56.53
-61.47
-64.3
-63.88
-59.44
-50.94
-39.16
-25.54
-11.68
1.03
11.71
20.02
26.07
30.26
33.1
35.11
36.64
37.78
38.45
38.51
37.94
36.92
35.75
34.65
33.61
32.34
30.45
27.68
24.04
19.82
15.39
11
6.74
2.56
-1.61
-5.76
-9.82
-13.77
-17.72
-21.86
-26.25
-30.54
-33.93
-35.17
-33.07
-27.02
-17.32
-5.26
7.31
18.52
27.1
32.54
35.03
35.15
33.52
30.63
26.91
22.75
18.61
15
12.33
10.87
10.64
11.45
12.91
14.51
15.61
15.59
13.9
10.27
4.81
-1.98
-9.26
-16.17
-21.93
-26.15
-28.77
-30.11
-30.67
-31
-31.42
-31.9
-31.99
-30.91
-27.86
-22.32
-14.31
-4.44
6.28
16.73
25.88
33.02
37.77
40.03
40.04
38.25
35.3
31.91
28.73
26.27
24.82
24.52
25.33
27.08
29.47
32.06
34.37
35.94
36.43
35.67
33.63
30.36
25.92
20.32
13.65
6.04
-2.33
-11.22
-20.4
-29.56
-38.33
-46.1
-52.06
-55.3
-55.07
-51.12
-43.79
-34.13
-23.53
-13.52
-5.33
0.26
2.97
2.99
0.86
-2.64
-6.71
-10.58
-13.69
-15.69
-16.44
-15.96
-14.33
-11.72
-8.33
-4.42
-0.3
3.65
7.13
9.88
11.78
12.8
13.02
12.5
11.25
9.23
6.32
2.44
-2.43
-8.13
-14.24
-20.14
-25.03
-28.06
-28.44
-25.6
-19.42
-10.31
0.76
12.41
23.23
32.14
38.64
42.84
45.18
46.16
46.09
45.08
43.23
40.81
38.26
36.14
34.78
34.21
34.15
34.1
33.58
32.25
29.87
26.32
21.56
15.61
8.64
1.02
-6.76
-14.11
-20.54
-25.75
-29.76
-32.93
-35.96
-39.63
-44.59
-51.03
-58.43
-65.6
-71.01
-73.2
-71.3
-65.31
-56.09
-45.07
-33.82
-23.62
-15.22
-8.78
-4.02
-0.47
2.32
4.61
6.53
8.08
9.34
10.43
11.52
12.76
14.13
15.51
16.74
17.79
18.79
19.96
21.49
23.27
24.99
26.17
26.42
25.65
24.09
22.18
20.4
19.07
18.28
17.82
17.28
16.16
14.05
10.84
6.91
3.09
0.56
0.49
3.61
10.03
19.1
29.68
40.35
49.81
57.08
61.57
63.14
62.01
58.66
53.76
48.07
42.34
37.26
33.33
30.77
29.45
28.93
28.56
27.78
26.24
23.96
21.27
18.53
15.95
13.5
10.94
8.1
5.02
1.97
-0.69
-2.76
-4.32
-5.75
-7.5
-9.98
-13.34
-17.43
-21.79
-25.69
-28.3
-28.86
-26.98
-22.79
-16.97
-10.58
-4.71
-0.21
2.59
3.73
3.58
2.55
0.97
-0.93
-3
-5.05
-6.85
-8.14
-8.75
-8.62
-7.95
-7.03
-6.23
-5.78
-5.72
-5.96
-6.41
-7.11
-8.22
-9.95
-12.36
-15.29
-18.3
-20.92
-22.75
-23.69
-23.96
-23.99
-24.31
-25.27
-26.96
-29.11
-31.14
-32.26
-31.73
-29.01
-24.05
-17.2
-9.27
-1.17
6.33
12.74
17.91
21.93
24.94
27.04
28.26
28.66
28.43
27.9
27.52
27.66
28.48
29.83
31.38
32.6
33.07
32.56
31.14
29.14
27.02
25.2
23.86
22.91
22.05
20.87
19.03
16.39
13.02
9.17
5.16
1.32
-2.14
-5.13
-7.69
-10.02
-12.34
-14.82
-17.42
-19.84
-21.49
-21.67
-19.79
-15.58
-9.29
-1.55
6.75
14.74
21.73
27.3
31.28
33.58
34.22
33.31
31.11
28.01
24.49
21.04
18.03
15.67
14.06
13.16
12.87
13.02
13.42
13.83
14.05
13.9
13.22
11.87
9.65
6.42
2.15
-2.97
-8.43
-13.53
-17.5
-19.76
-20.1
-18.79
-16.47
-13.97
-12.01
-11.11
-11.39
-12.67
-14.49
-16.19
-17.07
-16.48
-14.1
-9.96
-4.61
1.16
6.49
10.76
13.78
15.77
17.14
18.21
19.06
19.49
19.18
17.86
15.51
12.34
8.73
5.06
1.66
-1.27
-3.66
-5.48
-6.79
-7.71
-8.41
-9.07
-9.88
-10.84
-11.86
-12.7
-13.15
-13.12
-12.71
-12.13
-11.66
-11.49
-11.65
-12.09
-12.75
-13.67
-14.99
-16.82
-19.02
-21.15
-22.54
-22.56
-20.87
-17.67
-13.46
-8.94
-4.67
-0.98
2.03
4.31
5.82
6.55
6.61
6.35
6.26
6.8
8.18
10.22
12.44
14.26
15.21
15.13
14.19
12.77
11.36
10.31
9.73
9.49
9.2
8.42
6.77
4.14
0.73
-2.98
-6.3
-8.63
-9.6
-9.23
-7.9
-6.21
-4.69
-3.64
-2.99
-2.44
-1.63
-0.41
1.09
2.57
3.66
4.1
3.78
2.73
1.09
-0.86
-2.74
-4.13
-4.62
-4
-2.28
0.4
3.82
7.82
12.23
16.84
21.29
25.19
28.2
30.26
31.65
32.85
34.39
36.52
39.1
41.57
43.04
42.47
38.92
31.88
21.41
8.19
-6.59
-21.51
-35.24
-46.67
-55.06
-60.04
-61.62
-60.23
-56.63
-51.88
-47.06
-43.08
-40.42
-39.07
-38.73
-38.92
-39.31
-39.73
-40.25
-40.99
-42.05
-43.35
-44.58
-45.28
-44.98
-43.32
-40.26
-36
-30.99
-25.78
-20.86
-16.68
-13.51
-11.47
-10.63
-10.97
-12.42
-14.85
-18
-21.5
-24.89
-27.83
-30.2
-32.16
-34.09
-36.35
-39.02
-41.77
-43.87
-44.36
-42.38
-37.47
-29.81
-20.17
-9.77
0.14
8.61
15.27
20.31
24.29
27.74
30.93
33.8
36.07
37.52
38.08
37.94
37.41
36.82
36.36
36.09
35.93
35.67
35.09
34.05
32.54
30.69
28.71
26.78
24.96
23.17
21.29
19.27
17.15
15
12.82
10.5
7.88
4.98
2.12
-0.13
-1.1
-0.38
2.01
5.6
9.63
13.39
16.37
18.36
19.4
19.67
19.37
18.8
18.22
17.94
18.14
18.93
20.29
22.13
24.32
26.69
28.98
30.9
32.17
32.6
32.2
31.19
29.98
28.95
28.33
28.13
28.11
28
27.62
26.98
26.18
25.36
24.58
23.81
23
22.19
21.52
21.18
21.33
22
23.01
24.02
24.53
23.89
21.37
16.27
8.15
-3.02
-16.75
-32.1
-47.91
-62.98
-76.21
-86.72
-93.92
-97.63
-98.3
-96.81
-94.32
-91.68
-89.15
-86.22
-81.96
-75.52
-66.65
-55.78
-43.82
-31.74
-20.18
-9.51
0.08
8.37
15.13
20.36
24.54
28.76
34.39
42.57
53.72
67.27
81.82
95.53
106.72
114.17
117.37
116.43
111.96
104.8
95.87
86.01
75.96
66.39
57.91
51
45.91
42.57
40.52
39.11
37.73
36.06
34.14
32.26
30.75
29.81
29.44
29.5
29.77
30
29.83
28.8
26.41
22.22
16.03
7.96
-1.5
-11.56
-21.25
-29.59
-35.78
-39.39
-40.45
-39.41
-36.98
-33.94
-30.96
-28.46
-26.66
-25.49
-24.71
-23.93
-22.77
-20.94
-18.23
-14.54
-9.84
-4.28
1.68
7.2
11.14
12.4
10.38
5.24
-2.1
-10.37
-18.42
-25.66
-32.03
-37.87
-43.55
-49.26
-55.01
-60.79
-66.7
-72.94
-79.66
-86.77
-93.7
-99.48
-102.89
-102.78
-98.48
-90.07
-78.46
-65.13
-51.76
-39.78
-30.05
-22.75
-17.55
-13.88
-11.21
-9.22
-7.85
-7.15
-7.17
-7.78
-8.64
-9.31
-9.34
-8.42
-6.44
-3.45
0.39
4.92
9.94
15.16
20.22
24.64
27.97
29.92
30.39
29.51
27.49
24.45
20.45
15.47
9.64
3.34
-2.75
-7.78
-10.98
-11.94
-10.75
-7.97
-4.34
-0.57
2.95
6.07
8.81
11.1
12.77
13.47
12.95
11.17
8.36
5.01
1.65
-1.36
-3.89
-6.08
-8.23
-10.61
-13.32
-16.25
-19.07
-21.43
-23.07
-23.94
-24.2
-24.22
-24.44
-25.32
-27.18
-30.19
-34.28
-39.24
-44.74
-50.36
-55.63
-60.04
-62.92
-63.59
-61.52
-56.5
-48.88
-39.48
-29.46
-19.93
-11.68
-4.98
0.37
4.92
9.32
14.1
19.49
25.27
30.83
35.3
37.91
38.32
36.81
34.22
31.6
29.72
28.77
28.24
27.24
24.88
20.58
14.24
6.21
-2.87
-12.24
-21.07
-28.53
-33.89
-36.62
-36.5
-33.82
-29.32
-24.06
-19.15
-15.42
-13.18
-12.17
-11.74
-11.18
-9.9
-7.56
-4.02
0.77
6.7
13.38
19.93
25.08
27.41
25.89
20.29
11.38
0.77
-9.51
-17.55
-22.06
-22.57
-19.54
-14.1
-7.66
-1.54
3.36
6.68
8.43
8.82
8.09
6.52
4.4
2.16
0.26
-0.96
-1.41
-1.41
-1.45
-2.12
-3.76
-6.41
-9.78
-13.38
-16.65
-19.06
-20.21
-19.83
-17.81
-14.23
-9.35
-3.61
2.45
8.26
13.38
17.47
20.36
22.01
22.49
22
20.81
19.23
17.57
16.07
14.82
13.86
13.1
12.38
11.5
10.28
8.57
6.3
3.53
0.38
-3.02
-6.6
-10.41
-14.5
-18.87
-23.36
-27.62
-31.28
-34.1
-36.1
-37.65
-39.23
-41.27
-43.84
-46.56
-48.65
-49.21
-47.55
-43.47
-37.3
-29.82
-21.95
-14.49
-7.94
-2.45
2.09
5.84
8.91
11.27
12.81
13.52
13.57
13.33
13.34
14.13
16.07
19.3
23.69
28.85
34.15
38.78
41.87
42.73
41.01
36.89
30.94
23.95
16.51
8.95
1.27
-6.69
-15.07
-23.88
-32.94
-41.88
-50.13
-56.99
-61.67
-63.55
-62.33
-58.19
-51.74
-43.84
-35.36
-27.06
-19.54
-13.2
-8.24
-4.67
-2.25
-0.62
0.59
1.63
2.55
3.31
3.89
4.38
5.03
6.18
8.15
11.13
15.1
19.78
24.6
28.8
31.61
32.46
31.13
27.85
23.14
17.61
11.77
5.94
0.3
-4.88
-9.16
-11.88
-12.4
-10.31
-5.66
1.06
9.01
17.24
24.88
31.26
35.93
38.64
39.29
37.93
34.73
29.91
23.73
16.52
8.69
0.8
-6.51
-12.56
-16.93
-19.46
-20.39
-20.14
-19.21
-17.98
-16.64
-15.2
-13.64
-11.92
-10.07
-8.19
-6.38
-4.72
-3.26
-1.99
-0.79
0.59
2.55
5.57
10.12
16.44
24.44
33.58
43.04
51.83
59.13
64.47
67.88
69.73
70.52
70.61
70.05
68.64
66.11
62.34
57.42
51.69
45.56
39.34
33.27
27.44
21.94
16.78
11.89
7.03
1.9
-3.77
-10.06
-16.74
-23.38
-29.53
-35
-39.9
-44.64
-49.75
-55.51
-61.91
-68.51
-74.62
-79.48
-82.48
-83.2
-81.48
-77.4
-71.23
-63.51
-54.95
-46.37
-38.54
-31.97
-26.84
-22.96
-19.97
-17.49
-15.26
-13.16
-11.14
-9.14
-7.05
-4.72
-2.11
0.71
3.55
6.17
8.38
10.09
11.27
11.92
12.05
11.63
10.7
9.42
8.06
6.9
6.2
5.98
6.06
6.07
5.62
4.51
2.86
1.15
0.16
0.68
3.24
7.91
14.24
21.39
28.43
34.57
39.31
42.43
43.95
44.13
43.41
42.42
41.86
42.3
44
46.81
50.25
53.74
56.82
59.2
60.74
61.32
60.8
59.07
56.21
52.49
48.38
44.36
40.74
37.59
34.71
31.66
27.9
22.97
16.61
8.87
0.07
-9.34
-18.92
-28.36
-37.38
-45.58
-52.28
-56.6
-57.83
-55.79
-51.07
-44.86
-38.46
-32.71
-27.74
-23.13
-18.38
-13.33
-8.46
-4.58
-2.42
-2.19
-3.43
-5.22
-6.68
-7.38
-7.48
-7.51
-7.95
-8.88
-9.85
-10.08
-8.89
-6.05
-1.95
2.69
7.11
10.97
14.53
18.46
23.44
29.77
37.01
44.18
50.04
53.7
55.11
55.19
55.65
58.42
65.07
76.31
91.66
109.31
126.15
138.27
141.82
134.24
115.39
87.98
56.94
27.77
4.75
-10.4
-18.5
-22
-23.46
-24.58
-25.92
-27.45
-29.14
-31.26
-34.12
-37.6
-40.82
-42.28
-40.42
-34.31
-24.18
-11.41
1.82
13.28
21.31
25.14
24.97
21.59
16.17
9.89
3.66
-2.04
-7.44
-13.41
-21.22
-31.93
-45.75
-61.59
