21.85
23.92
26.28
28.63
30.63
31.97
32.45
32.03
30.75
28.78
26.22
23.2
19.96
16.68
13.61
10.97
8.82
7.11
5.7
4.29
2.67
0.72
-1.7
-4.6
-7.91
-11.48
-15.14
-18.67
-22.04
-25.24
-28.35
-31.56
-35.02
-38.79
-42.76
-46.48
-49.24
-50.24
-48.72
-44.31
-37.22
-28.11
-17.96
-7.83
1.53
9.64
16.29
21.52
25.34
27.81
29.08
29.3
28.74
27.79
26.73
25.79
25.11
24.65
24.33
24.05
23.71
23.3
22.92
22.62
22.42
22.26
21.94
21.19
19.92
18.03
15.67
13.09
10.47
7.91
5.36
2.68
-0.3
-3.61
-7.21
-10.87
-14.31
-17.32
-19.83
-21.91
-23.81
-25.8
-28.17
-31.2
-35.04
-39.54
-44.22
-48.19
-50.34
-49.73
-45.85
-38.9
-29.77
-19.78
-10.14
-1.75
4.98
10.03
13.54
15.78
16.99
17.44
17.35
17.04
16.7
16.5
16.51
16.73
17.07
17.37
17.44
17.17
16.55
15.61
14.48
13.29
12.06
10.71
9.13
7.17
4.78
2.04
-0.94
-4.05
-7.15
-10.19
-13.19
-16.12
-19.06
-22.06
-25.25
-28.6
-32.15
-35.69
-38.88
-41.24
-42.1
-40.9
-37.26
-31.22
-23.14
-13.84
-4.3
4.53
11.9
17.48
21.17
23.21
23.91
23.63
22.68
21.3
19.85
18.59
17.92
17.98
18.77
20.09
21.56
22.82
23.55
23.69
23.16
22.01
20.24
17.85
15.03
11.93
8.86
5.93
3.21
0.58
-2.06
-4.74
-7.56
-10.46
-13.51
-16.74
-20.25
-24.06
-28.12
-32.37
-36.69
-41
-44.9
-47.78
-48.78
-47.05
-42.12
-34.21
-24.18
-13.33
-2.93
6.1
13.4
18.98
23.03
25.83
27.52
28.24
28.17
27.54
26.68
25.96
25.59
25.64
26.01
26.44
26.66
26.59
26.25
25.87
25.66
25.66
25.73
25.61
24.97
23.63
21.62
19.11
16.29
13.24
9.89
6.02
1.55
-3.53
-9.03
-14.53
-19.62
-23.93
-27.25
-29.54
-30.95
-31.75
-32.38
-33.32
-35.11
-38.01
-41.9
-46.18
-49.74
-51.36
-50.02
-45.26
-37.34
-27.21
-16.1
-5.21
4.47
12.45
18.56
22.88
25.63
27.14
27.7
27.6
27.13
26.5
25.92
25.57
25.54
25.88
26.56
27.48
28.51
29.5
30.33
30.96
31.24
31
30.14
28.57
26.36
23.72
20.93
18.21
15.75
13.51
11.32
9.07
6.72
4.33
2.05
-0.05
-2
-3.92
-5.97
-8.25
-10.83
-13.63
-16.56
-19.52
-22.51
-25.59
-28.92
-32.69
-37.05
-41.99
-47.18
-51.92
-55.19
-55.98
-53.51
-47.58
-38.6
-27.51
-15.52
-3.79
6.74
15.52
22.33
27.14
30.09
31.43
31.55
30.91
30.01
29.23
28.82
28.85
29.14
29.48
29.68
29.75
29.74
29.76
29.83
29.83
29.56
28.85
27.65
26.08
24.37
22.66
21.07
19.5
17.81
15.93
13.78
11.42
8.91
6.35
3.82
1.41
-0.87
-3.03
-5.12
-7.26
-9.47
-11.8
-14.15
-16.49
-18.8
-21.11
-23.49
-26.03
-28.79
-31.84
-35.32
-39.26
-43.51
-47.51
-50.39
-51.15
-48.98
-43.63
-35.43
-25.38
-14.72
-4.69
3.89
10.6
15.43
18.53
20.17
20.67
20.27
19.33
18.15
17.06
16.33
16.1
16.32
16.88
17.59
18.27
18.9
19.5
20.16
20.92
21.66
22.14
22.05
21.16
19.43
17.06
14.29
11.44
8.7
6.14
3.75
1.46
-0.72
-2.93
-5.18
-7.54
-10.04
-12.58
-15.13
-17.6
-20.03
-22.54
-25.34
-28.52
-32.14
-35.94
-39.36
-41.68
-42.05
-39.84
-34.93
-27.7
-18.98
-9.91
-1.45
5.71
11.29
15.36
18.08
19.65
20.21
19.89
18.85
17.25
15.44
13.79
12.68
12.34
12.76
13.76
15.01
16.21
17.21
17.99
18.51
18.75
18.47
17.46
15.68
13.24
10.45
7.64
4.99
2.47
-0.01
-2.62
-5.31
-7.93
-10.35
-12.46
-14.4
-16.48
-19.07
-22.49
-26.87
-32.04
-37.49
-42.44
-45.9
-46.92
-44.9
-39.7
-31.82
-22.22
-12.11
-2.52
5.74
12.36
17.2
20.29
21.73
21.69
20.46
18.49
16.32
14.47
13.31
12.94
13.26
14.12
15.26
16.54
17.83
18.99
19.87
20.33
20.2
19.43
18.08
16.2
14.03
11.73
9.53
7.5
5.62
3.83
1.95
-0.15
-2.57
-5.29
-8.33
-11.51
-14.75
-17.92
-20.86
-23.51
-25.95
-28.47
-31.36
-34.91
-38.99
-43.03
-46.1
-47.13
-45.41
-40.67
-33.44
-24.6
-15.27
-6.42
1.31
7.61
12.53
16.12
18.56
20.02
20.64
20.61
20.09
19.35
18.57
17.98
17.6
17.38
17.27
17.17
17.07
16.99
17.05
17.25
17.6
17.97
18.18
18.14
17.74
17.05
16.02
14.63
12.83
10.63
8.08
5.29
2.39
-0.61
-3.62
-6.68
-9.79
-12.87
-15.72
-18.14
-20.04
-21.43
-22.52
-23.5
-24.63
-26.21
-28.39
-31.26
-34.59
-37.88
-40.27
-40.93
-39.13
-34.65
-27.99
-19.98
-11.77
-4.29
1.91
6.63
9.92
11.99
13.12
13.55
13.65
13.62
13.66
13.91
14.38
15.02
15.79
16.66
17.53
18.41
19.22
19.86
20.36
20.66
20.69
20.41
19.78
18.81
17.62
16.24
14.72
13.11
11.37
9.59
7.87
6.39
5.1
3.88
2.4
0.39
-2.32
-5.65
-9.34
-13
-16.35
-19.28
-21.87
-24.33
-26.93
-29.93
-33.44
-37.39
-41.43
-44.93
-47.06
-47.03
-44.24
-38.61
-30.58
-20.99
-10.9
-1.36
6.9
13.43
18.04
20.82
21.92
21.63
20.31
18.4
16.29
14.37
12.95
12.18
12.18
12.92
14.31
16.2
18.3
20.31
22.03
23.29
23.97
24.02
23.32
21.84
19.66
16.88
13.73
10.56
7.56
4.78
2.2
-0.4
-3.19
-6.25
-9.56
-12.99
-16.29
-19.21
-21.53
-23
-23.59
-23.37
-22.67
-22.02
-21.96
-22.92
-25.01
-27.88
-30.64
-32.34
-32.09
-29.48
-24.69
-18.29
-11.11
-3.94
2.58
8.14
12.52
15.73
17.88
19.03
19.38
19.16
18.57
17.92
17.47
17.35
17.59
18.09
18.56
18.79
18.63
18.08
17.29
16.36
15.38
14.33
13.09
11.52
9.53
7.06
4.22
1.11
-2.14
-5.36
-8.46
-11.38
-14.09
-16.55
-18.82
-21.02
-23.3
-25.79
-28.52
-31.28
-33.69
-35.17
-35.03
-32.83
-28.41
-22.12
-14.62
-6.84
0.31
6.08
10.15
12.45
13.26
13.01
12.09
10.87
9.66
8.68
8.08
8.01
8.43
9.33
10.62
12.17
13.82
15.32
16.53
17.2
17.2
16.41
14.83
12.56
9.76
6.61
3.3
-0
-3.21
-6.2
-8.91
-11.27
-13.21
-14.77
-16.06
-17.29
-18.68
-20.43
-22.65
-25.34
-28.42
-31.61
-34.44
-36.31
-36.57
-34.71
-30.66
-24.73
-17.61
-10.21
-3.18
3.06
8.4
12.92
16.68
19.59
21.5
22.26
21.86
20.56
18.84
17.22
16.2
15.98
16.45
17.39
18.43
19.33
19.99
20.39
20.46
20.1
19.12
17.36
14.86
11.78
8.35
4.82
1.26
-2.39
-6.13
-9.92
-13.61
-16.98
-19.94
-22.53
-24.94
-27.43
-30.19
-33.23
-36.39
-39.26
-41.25
-41.72
-40.06
-35.99
-29.66
-21.61
-12.69
-3.85
4.13
10.81
16.01
19.8
22.39
23.98
24.77
24.97
24.76
24.36
24.02
23.84
23.89
24.1
24.34
24.5
24.49
24.3
23.87
23.17
22.1
20.58
18.56
16.13
13.48
10.79
8.13
5.43
2.51
-0.78
-4.42
-8.25
-11.97
-15.21
-17.85
-19.9
-21.62
-23.26
-25.19
-27.63
-30.61
-34.03
-37.48
-40.35
-41.87
-41.28
-38.08
-32.25
-24.3
-15.12
-5.84
2.59
9.58
14.95
18.82
21.43
22.98
23.65
23.61
23.04
22.22
21.4
20.81
20.63
20.88
21.58
22.66
24.05
25.55
27.03
28.26
29.01
29.08
28.21
26.27
23.25
19.35
14.97
10.55
6.5
2.9
-0.3
-3.36
-6.42
-9.4
-12.04
-14.08
-15.45
-16.35
-17.33
-18.9
-21.51
-25.23
-29.82
-34.75
-39.2
-42.34
-43.35
-41.72
-37.32
-30.49
-21.87
-12.35
-2.81
6.08
13.75
19.85
24.13
26.56
27.16
26.2
24.06
21.23
18.27
15.67
13.82
12.92
13.03
14.03
15.67
17.61
19.42
20.73
21.24
20.78
19.4
17.23
14.44
11.25
7.83
4.35
1.05
-1.87
-4.26
-6.1
-7.46
-8.53
-9.55
-10.71
-12.24
-14.25
-16.91
-20.26
-24.19
-28.18
-31.51
-33.23
-32.56
-29.19
-23.37
-15.89
-7.81
-0.11
6.61
12.08
16.32
19.38
21.29
22.04
21.7
20.49
18.74
16.94
15.46
14.59
14.41
14.74
15.39
16.13
16.75
17.1
17.06
16.57
15.64
14.41
12.95
11.28
9.38
7.14
4.49
1.53
-1.61
-4.68
-7.4
-9.77
-11.95
-14.22
-16.97
-20.45
-24.72
-29.67
-34.84
-39.49
-42.69
-43.59
-41.56
-36.55
-28.98
-19.71
-9.91
-0.6
7.46
13.88
18.58
21.69
23.36
23.81
23.36
22.28
21.07
20.12
19.67
19.79
20.35
21.07
21.79
22.46
23.08
23.73
24.24
24.3
23.55
21.76
18.89
15.19
11.14
7.24
3.95
1.43
-0.33
-1.6
-2.68
-3.88
-5.4
-7.26
-9.4
-11.71
-14.22
-16.98
-20.19
-24.12
-28.93
-34.58
-40.66
-46.4
-50.63
-52.18
-50.14
-44.25
-35.03
-23.68
-11.63
-0.2
9.62
17.41
23.06
26.72
28.59
28.93
28
26.2
24.05
22.05
20.63
19.98
20.14
20.91
22.08
23.4
24.75
26.07
27.34
28.51
29.45
30.03
30.07
29.39
27.89
25.55
22.48
18.94
15.25
11.62
8.18
4.94
1.77
-1.41
-4.71
-8.16
-11.74
-15.3
-18.79
-22.06
-25.05
-27.81
-30.45
-33.28
-36.52
-40.3
-44.4
-48.39
-51.41
-52.59
-51.11
-46.46
-38.83
-28.89
-17.83
-6.91
2.74
10.49
16.11
19.84
22.1
23.3
23.82
23.85
23.64
23.39
23.36
23.75
24.6
25.87
27.35
28.82
30
30.76
31
30.71
29.94
28.67
26.92
24.69
22.06
19.1
15.95
12.74
9.61
6.74
4.25
2.15
0.41
-1.11
-2.65
-4.38
-6.41
-8.72
-11.15
-13.55
-15.84
-17.99
-20.07
-22.21
-24.44
-26.92
-29.78
-33.15
-37.05
-41.15
-44.71
-46.76
-46.36
-42.92
-36.55
-28.02
-18.42
-8.93
-0.33
6.95
12.8
17.18
20.14
21.67
21.92
21.17
19.86
18.43
17.23
16.48
16.25
16.5
17.16
18.18
19.45
20.83
22.17
23.26
23.95
24.14
23.72
22.66
20.93
18.63
15.86
12.87
9.86
7.02
4.46
2.21
0.2
-1.64
-3.37
-5.07
-6.73
-8.41
-10.13
-11.9
-13.74
-15.7
-17.93
-20.54
-23.73
-27.57
-32.1
-37.06
-41.89
-45.75
-47.59
-46.58
-42.29
-34.9
-25.23
-14.51
-3.99
5.34
12.87
18.38
21.87
23.52
23.63
22.57
20.77
18.68
16.7
15.1
14.07
13.68
13.93
14.68
15.71
16.78
17.68
18.32
18.64
18.65
18.29
17.49
16.23
14.57
12.69
10.86
9.29
7.98
6.77
5.29
3.17
0.2
-3.63
-8.05
-12.55
-16.75
-20.31
-23.19
-25.62
-27.96
-30.54
-33.53
-36.89
-40.23
-42.96
-44.33
-43.59
-40.32
-34.5
-26.64
-17.58
-8.34
0.25
7.61
13.47
17.87
20.81
22.47
22.99
22.55
21.47
20.05
18.6
17.43
16.81
16.78
17.42
18.62
20.22
22.05
23.97
25.71
27.01
27.62
27.17
25.49
22.52
18.42
13.58
8.55
3.81
-0.3
-3.69
-6.52
-9.07
-11.56
-14.1
-16.51
-18.56
-19.99
-20.77
-21.06
-21.22
-21.72
-23.03
-25.59
-29.55
-34.81
-40.72
-46.23
-50.05
-51.04
-48.52
-42.68
-34.36
-24.78
-15.15
-6.33
1.29
7.7
13.01
17.41
20.96
23.6
25.3
26.06
26.01
25.4
24.54
23.75
23.2
23.03
23.2
23.62
24.24
24.91
25.52
25.95
26.09
25.8
25.07
23.86
22.15
19.95
17.32
14.4
11.36
8.33
5.4
2.57
-0.26
-3.21
-6.35
-9.67
-13.02
-16.25
-19.25
-21.99
-24.43
-26.67
-28.99
-31.56
-34.62
-38.26
-42.39
-46.65
-50.35
-52.65
-52.7
-50.03
-44.53
-36.72
-27.39
-17.53
-8.03
0.46
7.59
13.2
17.32
20.1
21.69
22.34
22.34
21.97
21.55
21.4
21.78
22.81
24.49
26.5
28.51
30.16
31.24
31.73
31.67
31.18
30.26
28.87
26.9
24.29
21.21
17.9
14.77
11.99
9.69
7.8
6.17
4.56
2.75
0.68
-1.73
-4.35
-7.11
-9.91
-12.65
-15.34
-18.05
-20.97
-24.17
-27.73
-31.7
-35.99
-40.46
-44.68
-48.06
-49.75
-49.01
-45.39
-39.06
-30.78
-21.64
-12.79
-5.02
1.31
6.34
10.41
13.87
16.84
19.3
21.15
22.29
22.84
22.95
22.92
22.98
23.17
23.46
23.72
23.96
24.16
24.45
24.87
25.4
25.85
26
25.7
24.87
23.56
21.83
19.75
17.34
14.71
11.89
8.98
6.06
3.18
0.26
-2.79
-6.03
-9.49
-13.04
-16.54
-19.89
-22.92
-25.63
-28.1
-30.52
-33.17
-36.34
-40.12
-44.26
-48.14
-50.7
-51.01
-48.28
-42.42
-34
-23.95
-13.43
-3.45
5.27
12.39
17.71
21.34
23.45
24.26
24.09
23.33
22.35
21.53
21.15
21.3
21.91
22.79
23.68
24.35
24.69
24.68
24.34
23.61
22.38
20.57
18.26
15.67
13.11
10.81
8.87
7.15
5.29
2.96
-0.08
-3.77
-7.89
-12.09
-16.07
-19.65
-22.78
-25.59
-28.26
-31.01
-34.05
-37.42
-40.93
-44.08
-46.05
-45.94
-42.99
-36.88
-27.93
-17.1
-5.62
5.23
14.54
21.87
27.2
30.78
32.91
33.81
33.59
32.45
30.59
28.38
26.22
24.46
23.35
23.05
23.5
24.54
25.93
27.35
28.47
29.08
29.01
28.25
26.81
24.76
22.13
19.01
15.52
11.85
8.35
5.3
2.79
0.69
-1.28
-3.55
-6.46
-10.11
-14.34
-18.76
-23
-26.82
-30.19
-33.24
-36.23
-39.43
-43.07
-47.22
-51.75
-56.24
-59.93
-61.79
-60.83
-56.39
-48.46
-37.75
-25.51
-13.09
-1.65
8.05
15.75
21.39
25.16
27.35
28.28
28.28
27.65
26.74
25.82
25.08
24.71
24.74
25.16
25.87
26.79
27.78
28.8
29.82
30.7
31.28
31.37
30.77
29.38
27.32
24.71
21.71
18.52
15.29
12.1
9.02
6.07
3.2
0.35
-2.62
-5.84
-9.45
-13.44
-17.63
-21.81
-25.74
-29.27
-32.36
-35.14
-37.82
-40.66
-43.93
-47.61
-51.42
-54.69
-56.48
-55.83
-52.08
-45.13
-35.55
-24.5
-13.22
-2.81
6.1
13.3
18.85
22.95
25.78
27.53
28.28
28.32
27.96
27.62
27.58
28
28.82
29.92
31.16
32.32
33.34
34.08
34.43
34.26
33.42
31.8
29.42
26.48
23.28
20.22
17.56
15.39
13.58
11.89
10.03
7.84
5.35
2.67
-0
-2.58
-5.1
-7.58
-10.13
-12.79
-15.54
-18.25
-20.85
-23.31
-25.75
-28.47
-31.75
-35.85
-40.81
-46.28
-51.5
-55.49
-57.24
-55.91
-51.17
-43.23
-32.91
-21.32
-9.65
1.1
10.15
17.15
22.09
25.13
26.57
26.71
25.93
24.65
23.24
22.05
21.38
21.41
22.16
23.5
25.21
27.02
28.8
30.41
31.75
32.76
33.3
33.21
32.37
30.81
28.63
26
23.1
20.04
16.9
13.68
10.42
7.22
4.22
1.54
-0.72
-2.56
-4.06
-5.38
-6.74
-8.32
-10.25
-12.55
-15.16
-17.99
-20.98
-24.11
-27.54
-31.53
-36.33
-41.97
-48.11
-53.81
-57.82
-58.85
-56.06
-49.32
-39.42
-27.63
-15.43
-4.07
5.69
13.49
19.25
23.06
25.1
25.55
24.76
23.13
21.19
19.49
18.46
18.31
19.06
20.5
22.29
24.13
25.79
27.17
28.28
29.07
29.39
29.01
27.7
25.32
21.98
18.02
13.85
9.9
6.42
3.5
1.09
-0.9
-2.71
-4.48
-6.4
-8.61
-11.09
-13.75
-16.36
-18.79
-21
-23.12
-25.31
-27.78
-30.78
-34.31
-38.21
-42.02
-45.07
-46.58
-45.84
-42.39
-36.21
-27.86
-18.2
-8.25
1.1
9.15
15.65
20.55
24.05
26.32
27.47
27.69
27.13
26.1
24.93
24.03
23.58
23.62
24.04
24.63
25.27
25.85
26.31
26.55
26.43
25.69
24.12
21.72
18.67
15.37
12.15
9.22
6.6
4.22
1.9
-0.44
-2.74
-4.92
-6.94
-8.87
-10.85
-13
-15.36
-17.84
-20.3
-22.56
-24.57
-26.37
-28.19
-30.38
-33.31
-37.22
-41.95
-46.9
-51.08
-53.4
-52.86
-49.06
-42.22
-33.19
-23.16
-13.24
-4.23
3.5
9.87
15.01
19.06
22.08
24.19
25.45
26.06
26.29
26.44
26.78
27.41
28.32
29.49
30.81
32.17
33.47
34.51
35.08
34.89
33.76
31.63
28.79
25.54
22.29
19.37
16.89
14.81
12.96
11.09
8.96
6.52
3.78
0.88
-1.98
-4.79
-7.66
-10.71
-14.05
-17.61
-21.08
-24.15
-26.55
-28.14
-29.2
-30.14
-31.55
-33.95
-37.7
-42.87
-49.01
-55.16
-59.94
-61.95
-60.04
-53.85
-43.9
-31.46
-18.23
-5.77
4.86
13.17
19.09
22.93
25.11
25.98
25.99
25.53
24.98
24.67
24.8
25.36
26.3
27.5
28.76
30.06
31.32
32.56
33.72
34.7
35.24
35.11
34.14
32.22
29.55
26.37
23.01
19.74
16.67
13.77
10.98
8.22
5.46
2.85
0.5
-1.56
-3.35
-5.05
-6.9
-9.08
-11.73
-14.82
-18.12
-21.41
-24.49
-27.22
-29.68
-31.98
-34.35
-37.07
-40.38
-44.28
-48.48
-52.25
-54.53
-54.27
-50.73
-43.9
-34.53
-23.81
-13.04
-3.27
4.93
11.47
16.47
20.09
22.53
23.87
24.33
24.13
23.61
23.1
22.91
23.21
23.99
25.16
26.49
27.84
29.05
30.05
30.77
31.11
30.98
30.37
29.34
27.93
26.26
24.36
22.26
19.99
17.59
15.05
12.46
9.89
7.33
4.82
2.3
-0.27
-2.91
-5.69
-8.63
-11.67
-14.74
-17.71
-20.45
-22.96
-25.29
-27.46
-29.67
-32.13
-35.07
-38.66
-42.81
-47.04
-50.58
-52.4
-51.52
-47.38
-40.09
-30.42
-19.59
-8.88
0.77
8.81
15.1
19.77
22.91
24.65
25.05
24.26
22.67
20.77
19.05
17.89
17.5
17.75
18.46
19.33
20.14
20.81
21.33
21.73
21.99
22.08
21.78
21
19.66
17.85
15.77
13.69
11.81
10.16
8.65
6.96
4.84
2.14
-1.2
-4.91
-8.72
-12.29
-15.4
-18.01
-20.32
-22.53
-24.97
-27.94
-31.51
-35.66
-39.98
-43.81
-46.27
-46.44
-43.67
-37.84
-29.49
-19.57
-9.29
0.28
8.46
14.96
19.82
23.18
25.14
25.73
25.05
23.29
20.84
18.2
15.9
14.34
13.62
13.62
14.09
14.81
15.53
16.17
16.64
16.77
16.47
15.53
13.93
11.8
9.34
6.7
3.97
1.11
-2
-5.35
-8.86
-12.29
-15.38
-18.01
-20.21
-22.22
-24.36
-27.01
-30.32
-34.22
-38.21
-41.6
-43.39
-42.78
-39.36
-33.33
-25.42
-16.6
-7.88
0.01
6.66
11.94
15.85
18.48
19.91
20.29
19.88
18.97
17.92
17.06
16.68
16.95
17.8
19.03
20.37
21.55
22.33
22.57
22.25
21.33
19.8
17.69
15.03
11.91
8.43
4.67
0.72
-3.33
-7.44
-11.52
-15.42
-19.07
-22.39
-25.35
-28.03
-30.57
-33.24
-36.32
-39.95
-43.93
-47.68
-50.31
-50.83
-48.41
-42.75
-34.24
-23.81
-12.69
-1.98
7.43
15.09
20.86
24.81
27.21
28.26
28.23
27.4
26.12
24.74
23.54
22.74
22.32
22.18
22.25
22.46
22.87
23.57
24.51
25.46
26.08
25.95
24.78
22.61
19.65
16.25
12.71
9.15
5.51
1.68
-2.5
-7.04
-11.75
-16.4
-20.64
-24.32
-27.35
-29.79
-31.83
-33.87
-36.36
-39.58
-43.58
-47.86
-51.48
-53.28
-52.19
-47.66
-39.97
-30.03
-19.16
-8.65
0.54
8.06
13.89
18.4
22.01
25.02
27.57
29.66
31.24
32.29
32.97
33.38
33.77
34.17
34.62
35.05
35.43
35.73
35.97
36.15
36.1
35.69
34.68
33.07
30.9
28.41
25.75
23.05
20.3
17.37
14.21
10.88
7.61
4.63
2.1
-0.01
-2.01
-4.23
-7
-10.38
-14.19
-18.03
-21.53
-24.56
-27.1
-29.48
-32.04
-35.17
-39.21
-44.33
-50.36
-56.79
-62.71
-66.81
-67.87
-64.95
-57.89
-47.31
-34.48
-20.87
-7.86
3.51
12.79
19.82
24.79
28.04
29.94
30.98
31.59
32.13
32.77
33.58
34.44
35.2
35.81
36.23
36.65
37.21
38.04
39.09
40.3
41.37
42.01
42.04
41.29
39.8
37.58
34.76
31.41
27.82
24.2
20.76
17.65
14.79
12.07
9.33
6.45
3.5
0.59
-2.09
-4.54
-6.88
-9.39
-12.27
-15.62
-19.28
-22.92
-26.23
-29.06
-31.5
-33.81
-36.4
-39.58
-43.58
-48.41
-53.83
-59.26
-63.81
-66.31
-65.66
-61.2
-52.96
-41.69
-28.67
-15.41
-3.1
7.47
16.02
22.62
27.55
31.07
33.46
34.94
35.66
35.88
35.85
35.85
36.1
36.67
37.42
38.23
38.87
39.19
39.22
39.02
38.65
38.11
37.21
35.79
33.82
31.33
28.47
25.54
22.8
20.41
18.53
16.96
15.54
13.96
12.03
9.63
6.93
4.19
1.65
-0.51
-2.42
-4.33
-6.58
-9.33
-12.6
-16.17
-19.81
-23.32
-26.48
-29.28
-31.72
-33.93
-36.12
-38.57
-41.53
-45.13
-49.18
-53.01
-55.65
-55.96
-53.05
-46.7
-37.33
-26.07
-14.23
-3.08
6.48
13.98
19.34
22.75
24.54
25.13
24.95
24.46
24.05
23.97
24.38
25.35
26.8
28.55
30.38
31.98
33.15
33.78
33.88
33.46
32.53
31.09
29.1
26.68
24.02
21.32
18.78
16.45
14.27
12.04
9.69
7.22
4.77
2.47
0.38
-1.58
-3.59
-5.76
-8.19
-10.75
-13.26
-15.55
-17.6
-19.37
-21.04
-22.76
-24.69
-27
-29.79
-33.11
-36.91
-40.87
-44.34
-46.44
-46.28
-43.27
-37.31
-28.95
-19.19
-9.13
0.32
8.51
15.19
20.31
23.88
25.92
26.56
26.04
24.71
23.06
21.53
20.43
19.97
20.2
21
22.24
23.66
25.01
26.1
26.77
26.96
26.56
25.63
24.11
22.12
19.73
17.17
14.57
12.09
9.85
7.81
5.96
4.26
2.74
1.31
-0.07
-1.55
-3.26
-5.3
-7.63
-10.19
-12.85
-15.43
-17.88
-20.18
-22.42
-24.88
-27.88
-31.7
-36.48
-42.09
-47.89
-52.87
-55.9
-56.05
-52.91
-46.74
-38.34
-28.76
-19.07
-10.04
-2.1
4.58
9.94
13.94
16.58
17.85
17.99
17.36
16.39
15.51
15.02
15.1
15.77
16.93
18.46
20.22
22.02
23.61
24.71
25.09
24.72
23.6
21.85
19.59
17.03
14.3
11.6
9.12
6.93
5.06
3.39
1.82
0.27
-1.2
-2.46
-3.31
-3.68
-3.77
-3.97
-4.7
-6.31
-8.87
-12.23
-16
-19.77
-23.17
-26
-28.2
-29.89
-31.34
-32.88
-34.83
-37.22
-39.79
-41.89
-42.69
-41.42
-37.72
-31.72
-24
-15.44
-6.91
0.86
7.45
12.69
16.57
19.22
20.86
21.68
21.88
21.67
21.24
20.75
20.35
20.16
20.13
20.23
20.33
20.4
20.51
20.81
21.41
22.29
23.19
23.72
23.55
22.39
20.31
17.6
14.57
11.54
8.67
5.86
3.03
0.11
-2.86
-5.72
-8.23
-10.25
-11.72
-12.67
-13.27
-13.7
-14.23
-15.08
-16.41
-18.21
-20.37
-22.68
-25
-27.31
-29.69
-32.31
-35.31
-38.67
-42.08
-45.09
-46.99
-47.1
-44.95
-40.35
-33.56
-25.23
-16.21
-7.32
0.73
7.54
12.91
16.83
19.33
20.49
20.54
19.74
18.41
16.9
15.53
14.53
14.09
14.2
14.79
15.74
16.99
18.43
20
21.64
23.17
24.37
24.92
24.6
23.29
21.18
18.54
15.69
12.86
10.11
7.41
4.72
2.02
-0.68
-3.27
-5.64
-7.76
-9.61
-11.25
-12.78
-14.28
-15.82
-17.45
-19.17
-20.86
-22.5
-24.05
-25.6
-27.25
-29.15
-31.42
-34.11
-37.12
-40.2
-42.89
-44.48
-44.29
-41.7
-36.59
-29.28
-20.55
-11.45
-2.93
4.31
9.98
14.04
16.69
18.12
18.51
18.04
16.96
15.55
14.07
12.79
11.8
11.15
10.8
10.73
10.92
11.44
12.32
13.5
14.82
16.06
17.02
17.55
17.62
17.2
16.3
14.91
13.02
10.74
8.28
5.86
3.67
1.77
0.05
-1.71
-3.65
-5.77
-7.95
-10.06
-11.95
-13.64
-15.14
-16.52
-17.89
-19.31
-20.88
-22.75
-25.22
-28.4
-32.21
-36.17
-39.41
-41.07
-40.39
-37.18
-31.71
-24.72
-17.06
-9.45
-2.39
3.91
9.23
13.53
16.66
18.64
19.58
19.63
19
17.9
16.54
15.08
13.77
12.78
12.32
12.44
13.08
14.07
15.18
16.25
17.06
17.42
17.19
16.28
14.7
12.61
10.26
7.82
5.5
3.32
1.22
-0.89
-3.1
-5.42
-7.8
-10.09
-12.23
-14.11
-15.73
-17.19
-18.61
-20.22
-22.21
-24.62
-27.48
-30.69
-33.9
-36.63
-38.32
-38.31
-36.24
-32.07
-26.1
-18.95
-11.38
-4.11
2.4
7.81
12.08
15.25
17.41
18.68
19.14
18.83
17.83
16.32
14.51
12.78
11.46
10.82
11.01
11.98
13.65
15.79
18.15
20.43
22.33
23.55
23.9
23.28
21.63
19.1
15.92
12.4
8.94
5.8
3.15
0.95
-1
-2.94
-5.1
-7.6
-10.44
-13.51
-16.65
-19.7
-22.5
-25.04
-27.36
-29.62
-32.02
-34.68
-37.51
-40.14
-41.99
-42.37
-40.71
-36.75
-30.63
-22.98
-14.7
-6.62
0.52
6.42
11.02
14.45
16.9
18.56
19.53
19.98
20.2
20.44
21
22
23.42
24.99
26.42
27.4
27.81
27.75
27.35
26.81
26.19
25.38
24.18
22.44
20.14
17.37
14.38
11.32
8.38
5.67
3.12
0.69
-1.77
-4.36
-7.04
-9.71
-12.24
-14.51
-16.5
-18.35
-20.2
-22.28
-24.76
-27.78
-31.51
-35.94
-40.87
-45.71
-49.59
-51.48
-50.6
-46.57
-39.68
-30.71
-20.75
-10.83
-1.7
6.19
12.76
17.92
21.71
24.2
25.44
25.65
25.15
24.25
23.26
22.47
22.03
22.07
22.64
23.63
24.92
26.32
27.53
28.38
28.8
28.67
28.01
26.79
25.03
22.82
20.33
17.73
15.27
13.19
11.54
10.23
9.01
7.52
5.4
2.47
-1.27
-5.51
-9.82
-13.8
-17.2
-19.93
-22.15
-24.15
-26.21
-28.73
-31.93
-35.94
-40.55
-45.18
-48.88
-50.65
-49.6
-45.41
-38.33
-29.15
-18.96
-8.85
0.32
7.95
13.85
18.11
21
22.83
23.88
24.4
24.57
24.54
24.41
24.36
24.49
24.98
25.8
26.94
28.29
29.63
30.81
31.6
31.92
31.73
31.11
30.02
28.45
26.4
23.84
20.96
17.93
15.01
12.35
9.97
7.79
5.64
3.44
1.04
-1.65
-4.76
-8.34
-12.33
-16.51
-20.49
-24
-26.86
-29.26
-31.56
-34.2
-37.43
-41.21
-45.15
-48.47
-50.33
-49.93
-46.8
-40.92
-32.72
-23.07
-12.95
-3.28
5.27
12.39
17.99
22.14
24.97
26.65
27.29
27.12
26.46
25.66
25.01
24.76
24.88
25.3
25.89
26.54
27.21
27.95
28.7
29.31
29.58
29.23
28.07
26.08
23.45
20.53
17.68
15.14
12.83
10.49
7.75
4.27
-0.06
-5.09
-10.43
-15.66
-20.41
-24.42
-27.69
-30.34
-32.71
-35.18
-38.06
-41.32
-44.47
-46.78
-47.25
-45.16
-40.22
-32.72
-23.36
-13.18
-3.17
5.86
13.34
18.98
22.8
25.01
25.9
25.87
25.2
24.14
22.97
21.95
21.36
21.39
22.07
23.26
24.7
26.12
27.36
28.31
28.81
28.7
27.81
25.93
23.24
20
16.73
13.96
12.02
10.92
10.44
10.06
9.19
7.5
4.89
1.5
-2.27
-6.07
-9.72
-13.08
-16.26
-19.56
-23.37
-28.14
-34.06
-40.81
-47.43
-52.53
-54.61
-52.75
-46.94
-38.1
-27.8
-17.65
-8.83
-1.95
2.91
6.07
7.95
9.01
9.63
10.01
10.28
10.53
10.76
11.02
11.46
12.15
13.12
14.31
15.5
16.6
17.57
18.39
19.06
19.44
19.3
18.36
16.56
13.93
10.79
7.55
4.61
2.2
0.37
-1.05
-2.39
-3.91
-5.87
-8.31
-11.08
-13.86
-16.43
-18.76
-21.07
-23.73
-27.12
-31.49
-36.75
-42.53
-48.01
-52.14
-53.88
-52.39
-47.28
-38.94
-28.26
-16.61
-5.31
4.68
12.92
19.34
24.14
27.5
29.54
30.42
30.3
29.53
28.49
27.6
27.18
27.38
28.14
29.41
31.06
32.93
34.85
36.58
37.86
38.5
38.36
37.35
35.53
32.98
29.79
26.12
22.22
18.3
14.61
11.31
8.41
5.83
3.38
0.87
-1.85
-4.84
-8.14
-11.64
-15.17
-18.57
-21.63
-24.33
-26.83
-29.45
-32.59
-36.61
-41.51
-46.89
-51.84
-55.13
-55.66
-52.75
-46.26
-36.72
-25.14
-12.76
-0.81
9.72
18.22
24.34
28.14
29.96
30.32
29.79
28.87
27.89
27.02
26.37
25.93
25.76
25.86
26.18
26.69
27.32
27.94
28.47
28.87
29.13
29.2
29.07
28.62
27.81
26.63
24.96
22.76
20.02
16.89
13.52
10.15
6.82
3.58
0.4
-2.85
-6.21
-9.6
-12.81
-15.6
-17.74
-19.29
-20.4
-21.37
-22.59
-24.35
-26.88
-30.35
-34.82
-40.15
-45.88
-51.1
-54.55
-55.01
-51.66
-44.46
-34.23
-22.32
-10.3
0.52
9.3
15.8
20.11
22.57
23.57
23.38
22.31
20.74
19.1
17.8
17.28
17.67
18.96
20.94
23.25
25.63
27.93
30.13
32.15
33.91
35.11
35.46
34.75
32.85
29.9
26.15
21.92
17.54
13.37
9.53
6.08
2.97
-0
-3.01
-6.21
-9.59
-13.03
-16.19
-18.88
-20.91
-22.26
-23.11
-23.73
-24.54
-25.95
-28.36
-31.84
-36.1
-40.41
-43.65
-44.77
-42.91
-37.89
-30.23
-20.99
-11.38
-2.44
5.2
11.31
15.84
18.92
20.57
20.92
20.2
18.78
17.24
16.03
15.49
15.71
16.67
18.17
20.05
22.14
24.29
26.25
27.72
28.4
28.01
26.39
23.56
19.71
15.23
10.53
5.94
1.65
-2.31
-5.99
-9.41
-12.49
-15.08
-17
-18.17
-18.67
-18.73
-18.7
-19.01
-20.08
-22.29
-25.77
-30.37
-35.47
-40.04
-42.81
-42.71
-39.33
-32.95
-24.51
-15.25
-6.31
1.53
7.92
12.88
16.45
18.7
19.79
19.91
19.44
18.76
18.18
17.97
18.17
18.76
19.62
20.73
21.96
23.2
24.33
25.2
25.73
25.86
25.55
24.73
23.43
21.62
19.34
16.77
14.15
11.66
9.4
7.29
5.06
2.5
-0.64
-4.39
-8.6
-13.05
-17.51
-21.79
-25.74
-29.37
-32.74
-35.97
-39.22
-42.63
-46.19
-49.71
-52.69
-54.34
-53.92
-50.81
-44.73
-36.03
-25.46
-14.14
-3.25
6.26
13.87
19.45
23.26
25.67
26.97
27.4
27.1
26.24
25.1
24
23.28
23.11
23.53
24.26
25.11
25.9
26.6
27.32
28.14
28.99
29.67
29.93
29.4
27.92
25.54
22.43
18.92
15.33
11.78
8.39
5.16
2.11
-0.72
-3.25
-5.56
-7.76
-10
-12.47
-15.19
-18.05
-20.85
-23.43
-25.71
-27.94
-30.41
-33.46
-37.38
-42.22
-47.67
-53.07
-57.48
-59.79
-59.15
-55.04
-47.53
-37.36
-25.62
-13.58
-2.39
7.16
14.65
19.99
23.38
25.21
25.8
25.62
24.99
24.15
23.34
22.7
22.29
22.22
22.56
23.24
24.22
25.4
26.64
27.8
28.75
29.29
29.22
28.42
26.84
24.64
22.12
19.52
17.04
14.63
12.18
9.6
6.88
4.13
1.52
-0.87
-3.24
-5.78
-8.77
-12.25
-16.07
-19.93
-23.54
-26.71
-29.45
-31.94
-34.37
-37.05
-40.17
-43.83
-47.74
-51.3
-53.53
-53.37
-50.01
-43.19
-33.37
-21.7
-9.58
1.61
10.97
18.04
22.82
25.65
26.92
27.06
26.42
25.37
24.13
22.97
22.07
21.56
21.49
21.81
22.37
22.99
23.53
23.87
24.03
24.05
24.02
24
23.97
23.91
23.66
23.11
22.11
20.54
18.33
15.5
12.21
8.69
5.2
1.87
-1.2
-4.06
-6.8
-9.56
-12.44
-15.47
-18.61
-21.72
-24.72
-27.48
-30.02
-32.45
-34.94
-37.69
-40.77
-44.07
-47.1
-49.22
-49.55
-47.42
-42.46
-34.76
-25.01
-14.25
-3.61
5.97
13.84
19.83
23.99
26.59
27.95
28.25
27.73
26.58
25.09
23.54
22.23
21.33
20.91
20.94
21.31
21.89
22.56
23.14
23.48
23.49
23.05
22.13
20.74
18.9
16.63
13.96
10.94
7.74
4.63
1.8
-0.61
-2.53
-4.07
-5.31
-6.46
-7.69
-9.12
-10.75
-12.5
-14.26
-15.88
-17.36
-18.81
-20.53
-22.89
-26.22
-30.59
-35.75
-41.03
-45.48
-48.07
-47.84
-44.35
-37.69
-28.6
-18.21
-7.8
1.56
9.13
14.53
17.82
19.21
19.12
17.99
16.32
14.55
13.12
12.34
12.31
13.05
14.34
15.93
17.55
18.99
20.11
20.83
21.06
20.68
19.6
17.86
15.55
12.85
9.94
6.99
4
1.01
-2.01
-5.09
-8.21
-11.32
-14.34
-17.07
-19.33
-21.03
-22.15
-22.93
-23.71
-24.96
-26.97
-29.76
-32.93
-35.7
-37.17
-36.45
-33.09
-27.17
-19.34
-10.62
-2.09
5.35
11.25
15.5
18.32
20
20.83
21.07
20.89
20.4
19.71
18.91
18.09
17.45
17.03
16.85
16.94
17.17
17.47
17.72
17.85
17.73
17.27
16.26
14.57
12.26
9.43
6.29
2.95
-0.54
-4.21
-8.03
-11.93
-15.71
-19.04
-21.73
-23.71
-25.18
-26.46
-27.91
-29.81
-32.32
-35.44
-38.89
-42.14
-44.39
-44.78
-42.58
-37.55
-29.99
-20.68
-10.69
-1.1
7.32
14.14
19.22
22.63
24.52
25.07
24.53
23.1
21.02
18.57
16.17
14.22
13.05
12.85
13.59
15.08
17.08
19.3
21.51
23.44
24.83
25.33
24.67
22.78
19.86
16.26
12.48
8.83
5.41
2.11
-1.26
-4.92
-8.89
-13.01
-17.04
-20.69
-23.8
-26.3
-28.28
-29.99
-31.85
-34.33
-37.74
-42
-46.6
-50.51
-52.54
-51.72
-47.61
-40.42
-30.95
-20.34
-9.61
0.38
9.13
16.35
21.93
25.91
28.5
30
30.7
30.9
30.78
30.49
30.09
29.66
29.36
29.26
29.43
29.78
30.21
30.57
30.78
30.73
30.32
29.53
28.27
26.57
24.51
22.16
19.57
16.78
13.81
10.77
7.86
5.19
2.85
0.89
-0.83
-2.51
-4.37
-6.58
-9.24
-12.31
-15.74
-19.41
-23.08
-26.62
-29.97
-33.23
-36.66
-40.57
-45.1
-50.07
-54.77
-58.14
-59.09
-56.8
-51.06
-42.35
-31.64
-20.14
-8.93
1.23
9.9
16.82
21.98
25.46
27.51
28.5
28.8
28.79
28.73
28.82
29.11
29.63
30.32
31.12
31.97
32.78
33.53
34.19
34.77
35.18
35.31
34.87
33.74
31.89
29.46
26.68
23.84
21.11
18.53
16
13.32
10.37
7.09
3.61
0.06
-3.34
-6.48
-9.25
-11.65
-13.78
-15.81
-17.94
-20.23
-22.66
-25.1
-27.43
-29.59
-31.64
-33.8
-36.37
-39.69
-43.88
-48.73
-53.62
-57.57
-59.4
-58.1
-53.19
-44.88
-34.12
-22.23
-10.52
-0
8.82
15.77
21.02
24.72
27.11
28.35
28.67
28.37
27.77
27.18
26.84
26.91
27.36
28.09
28.95
29.87
30.8
31.74
32.61
33.26
33.47
32.93
31.48
29.18
26.24
22.98
19.73
16.66
13.85
11.28
8.83
6.45
4.13
1.89
-0.18
-2.01
-3.59
-4.98
-6.3
-7.74
-9.39
-11.27
-13.33
-15.45
-17.54
-19.57
-21.7
-24.06
-26.94
-30.48
-34.78
-39.76
-45
-49.75
-53.03
-53.83
-51.37
-45.48
-36.59
-25.85
-14.56
-3.89
5.33
12.77
18.42
22.38
24.77
25.82
25.67
24.66
23.25
21.9
21.02
20.83
21.32
22.28
23.49
24.69
25.72
26.53
27.14
27.53
27.61
27.16
25.95
23.81
20.75
16.98
12.8
8.55
4.58
0.98
-2.23
-5.14
-7.87
-10.47
-12.9
-15.09
-17
-18.52
-19.77
-20.89
-22.17
-23.85
-26.17
-29.29
-33.22
-37.85
-42.68
-46.98
-49.74
-49.95
-46.83
-40.22
-30.66
-19.26
-7.47
3.47
12.63
19.53
24.1
26.46
26.92
25.88
23.8
21.17
18.51
16.29
14.87
14.44
14.97
16.36
18.34
20.55
22.68
24.49
25.83
26.69
27.02
26.67
25.52
23.47
20.6
17.18
13.58
10.15
7.1
4.44
2.03
-0.41
-3.05
-5.95
-9.05
-12.22
-15.33
-18.21
-20.82
-23.18
-25.39
-27.64
-30.17
-33.19
-36.97
-41.48
-46.31
-50.68
-53.4
-53.36
-49.84
-42.8
-32.91
-21.43
-9.74
0.99
9.98
16.94
21.87
25
26.61
27.02
26.58
25.65
24.64
23.82
23.46
23.6
24.21
25.19
26.39
27.7
29.02
30.3
31.36
32.06
32.17
31.58
30.29
28.47
26.32
24.06
21.78
19.37
16.73
13.77
10.51
7.09
3.73
0.53
-2.47
-5.34
-8.23
-11.27
-14.41
-17.63
-20.81
-23.81
-26.54
-28.93
-30.98
-32.86
-34.9
-37.5
-41.08
-45.69
-50.96
-56
-59.59
-60.5
-57.96
-51.89
-42.86
-31.94
-20.3
-9
1.16
9.79
16.68
21.77
25.28
27.42
28.59
29.2
29.58
29.86
30.17
30.47
30.67
30.78
30.77
30.77
30.83
31.07
31.38
31.69
31.78
31.46
30.62
29.25
27.47
25.43
23.37
21.39
19.51
17.61
15.55
13.13
10.2
6.84
3.23
-0.31
-3.52
-6.31
-8.71
-10.9
-13.05
-15.28
-17.59
-19.93
-22.21
-24.43
-26.74
-29.31
-32.39
-36.19
-40.82
-46.21
-51.99
-57.39
-61.33
-62.64
-60.41
-54.38
-44.96
-33.2
-20.57
-8.46
2.11
10.57
16.81
21.1
23.74
25.16
25.74
25.79
25.59
25.42
25.43
25.71
26.31
27.18
28.32
29.73
31.34
33.03
34.7
36.09
37.01
37.33
36.94
35.84
34.08
31.74
29.03
26.16
23.27
20.5
17.8
15.01
12.12
9.14
6.18
3.52
1.29
-0.55
-2.18
-3.96
-6.16
-8.93
-12.23
-15.92
-19.73
-23.38
-26.58
-29.18
-31.26
-33.19
-35.45
-38.52
-42.64
-47.6
-52.79
-57.15
-59.49
-58.84
-54.78
-47.45
-37.62
-26.41
-14.97
-4.4
4.54
11.54
16.54
19.7
21.44
22.2
22.44
22.43
22.27
21.96
21.6
21.33
21.34
21.78
22.66
23.86
25.18
26.4
27.39
28.12
28.53
28.53
28
26.8
24.91
22.44
19.58
16.51
13.44
10.47
7.67
5.11
2.7
0.39
-1.93
-4.37
-6.96
-9.67
-12.43
-15.17
-17.79
-20.34
-22.85
-25.48
-28.35
-31.73
-35.74
-40.32
-45.04
-49.08
-51.46
-51.27
-47.96
-41.63
-32.89
-22.74
-12.22
-2.24
6.69
14.18
20.02
24.2
26.71
27.76
27.68
26.93
25.78
24.58
23.45
22.5
21.87
21.59
21.68
22.03
22.45
22.64
22.4
21.53
20.05
18.02
15.57
12.83
10.01
7.24
4.61
2.2
-0.08
-2.28
-4.47
-6.82
-9.38
-12.12
-14.92
-17.63
-20.07
-22.27
-24.42
-26.84
-30.02
-34.18
-39.13
-44.2
-48.26
-50.01
-48.54
-43.54
-35.4
-25.14
-14.06
-3.34
6.16
13.96
19.95
24.1
26.45
27.2
26.64
25.2
23.41
21.72
20.44
19.71
19.48
19.59
20
20.67
21.59
22.73
23.99
25.14
25.88
25.9
24.97
23.1
20.43
17.27
13.92
10.56
7.21
3.81
0.23
-3.63
-7.7
-11.94
-16.19
-20.25
-23.99
-27.32
-30.22
-32.79
-35.36
-38.21
-41.68
-45.79
-50.15
-53.92
-55.96
-55.23
-50.98
-43.25
-32.67
-20.41
-7.88
3.67
13.37
20.77
25.78
28.63
29.66
29.34
28.15
26.59
25.11
24.1
23.78
24.18
25.2
26.59
28.08
29.38
30.32
30.81
30.79
30.27
29.24
27.73
25.74
23.32
20.55
17.57
14.6
11.79
9.25
6.92
4.67
2.24
-0.62
-4.05
-7.99
-12.23
-16.48
-20.35
-23.71
-26.48
-28.83
-31.11
-33.71
-36.98
-41.17
-46.3
-51.84
-57.05
-60.76
-61.8
-59.33
-53.09
-43.56
-31.85
-19.31
-7.11
3.8
12.99
20.35
25.87
29.74
32.11
33.17
33.21
32.57
31.58
30.54
29.81
29.48
29.74
30.53
31.65
32.88
33.96
34.72
35.06
35.06
34.63
33.83
32.54
30.61
27.97
24.61
20.64
16.34
12.03
7.91
4.14
0.76
-2.32
-5.15
-7.83
-10.42
-12.91
-15.28
-17.59
-19.9
-22.23
-24.68
-27.29
-30.19
-33.61
-37.71
-42.49
-47.62
-52.34
-55.52
-56.04
-53.03
-46.35
-36.62
-25.03
-13
-1.82
7.63
14.96
20.1
23.2
24.61
24.67
23.79
22.41
20.95
19.75
19.05
18.9
19.24
20.01
21.04
22.27
23.57
24.86
25.93
26.51
26.3
25.11
22.95
19.96
16.43
12.67
8.97
5.52
2.51
-0.03
-2.12
-3.81
-5.35
-6.95
-8.82
-11
-13.37
-15.66
-17.71
-19.57
-21.55
-24.1
-27.65
-32.25
-37.52
-42.56
-46.19
-47.28
-45.16
-39.78
-31.71
-22
-11.89
-2.51
5.41
11.51
15.87
18.71
20.35
21.02
20.94
20.33
19.46
18.66
18.18
18.25
18.87
19.97
21.3
22.58
23.64
24.31
24.53
24.24
23.45
22.19
20.52
18.46
16.01
13.17
9.95
6.38
2.54
-1.41
-5.29
-8.98
-12.38
-15.43
-18.11
-20.47
-22.65
-24.94
-27.63
-31.05
-35.25
-39.88
-44.15
-46.94
-47.24
-44.38
-38.38
-29.83
-19.8
-9.41
0.43
9.1
16.33
22.09
26.45
29.44
31.18
31.77
31.4
30.29
28.67
26.87
25.21
24.02
23.49
23.68
24.48
25.69
27.04
28.25
29.12
29.43
28.99
27.63
25.22
21.85
17.8
13.52
9.45
5.95
2.95
0.14
-2.83
-6.21
-9.96
-13.72
-17.05
-19.64
-21.42
-22.67
-23.81
-25.3
-27.54
-30.77
-35.09
-40.37
-46.08
-51.25
-54.64
-54.97
-51.43
-43.99
-33.45
-21.15
-8.66
2.76
12.33
19.72
25.05
28.55
30.52
31.28
31.15
30.53
29.78
29.24
29.13
29.56
30.54
31.97
33.72
35.66
37.69
39.62
41.18
42.06
41.87
40.41
37.66
33.87
29.48
25.03
20.95
17.51
14.75
12.57
10.74
9.04
7.34
5.56
3.78
2.07
0.54
-0.8
-2.11
-3.56
-5.37
-7.73
-10.64
-14.02
-17.71
-21.52
-25.31
-29.08
-32.88
-36.86
-41.24
-46.09
-51.46
-57
-62.05
-65.63
-66.72
-64.46
-58.53
-49.27
-37.58
-24.81
-12.23
-0.86
8.7
16.24
21.84
25.66
27.97
29.08
29.43
29.4
29.41
29.66
30.26
31.13
32.2
33.36
34.55
35.78
37.03
38.22
39.17
39.71
39.68
39.02
37.77
35.92
33.53
30.69
27.54
24.28
21.26
18.7
16.7
15.27
14.16
13.14
12.07
10.85
9.39
7.67
5.63
3.22
0.55
-2.35
-5.46
-8.85
-12.61
-16.82
-21.32
-25.84
-30.03
-33.48
-36.08
-37.94
-39.46
-41.12
-43.3
-46.17
-49.69
-53.42
-56.52
-57.99
-56.88
-52.56
-45.06
-34.98
-23.45
-11.73
-0.94
8.22
15.4
20.62
24.16
26.38
27.68
28.49
29.12
29.72
30.41
31.07
31.63
32
32.15
32.09
31.88
31.62
31.29
30.94
30.53
30.01
29.33
28.43
27.31
26.09
24.81
23.52
22.23
20.92
19.58
18.19
16.7
15.06
13.19
10.97
8.36
5.41
2.26
-0.85
-3.68
-6.1
-8.06
-9.7
-11.19
-12.77
-14.55
-16.6
-18.82
-21.12
-23.48
-25.91
-28.52
-31.34
-34.42
-37.74
-41.33
-45.09
-48.82
-52.05
-53.99
-53.92
-51.15
-45.54
-37.42
-27.64
-17.22
-7.17
1.77
9.21
15.01
19.17
21.79
23.04
23.11
22.28
20.84
19.12
17.44
15.98
14.86
14.03
13.44
13.04
12.89
13.11
13.79
14.9
16.21
17.44
18.31
18.61
18.35
17.66
16.69
15.56
14.36
13.08
11.71
10.25
8.69
6.99
5.23
3.39
1.44
-0.66
-3.04
-5.83
-9.12
-12.76
-16.57
-20.18
-23.26
-25.59
-27.14
-28.1
-28.85
-29.84
-31.38
-33.67
-36.49
-39.41
-41.66
-42.4
-40.94
-36.92
-30.41
-21.99
-12.62
-3.29
5.08
11.86
16.83
20
21.57
21.8
20.91
19.2
17.03
14.75
12.66
11
9.94
9.54
9.75
10.45
11.39
12.3
12.9
13.02
12.67
11.92
10.95
9.83
8.63
7.32
5.96
4.63
3.34
2.1
0.72
-0.97
-3.08
-5.6
-8.37
-11.16
-13.74
-15.96
-17.79
-19.26
-20.39
-21.21
-21.82
-22.48
-23.58
-25.54
-28.57
-32.58
-37.05
-41.07
-43.57
-43.64
-40.83
-35.19
-27.44
-18.47
-9.31
-0.74
6.66
12.69
17.27
20.47
22.4
23.16
23
22.21
21.16
20.1
19.28
18.75
18.47
18.36
18.24
18.04
17.64
17.06
16.26
15.25
14.03
12.66
11.13
9.46
7.67
5.77
3.86
2.12
0.64
-0.57
-1.64
-2.78
-4.32
-6.42
-9.1
-12.24
-15.54
-18.73
-21.62
-24.11
-26.19
-27.96
-29.58
-31.3
-33.37
-35.93
-38.82
-41.55
-43.36
-43.38
-40.98
-36.01
-28.92
-20.58
-12.09
-4.36
2.11
7.24
11.18
14.23
16.58
18.29
19.38
19.85
19.81
19.5
19.21
19.19
19.59
20.39
21.44
22.57
23.62
24.41
24.82
24.72
24.04
22.74
20.84
18.42
15.64
12.66
9.64
6.73
4.04
1.68
-0.29
-1.94
-3.44
-4.94
-6.62
-8.62
-10.96
-13.56
-16.28
-18.95
-21.43
-23.67
-25.63
-27.35
-29.03
-30.89
-33.17
-36.07
-39.5
-43.03
-45.91
-47.14
-45.88
-41.69
-34.74
-25.66
-15.52
-5.45
3.57
10.91
16.37
19.97
21.97
22.64
22.26
21.09
19.43
17.59
15.91
14.7
14.11
14.2
14.94
16.19
17.75
19.47
21.14
22.52
23.33
23.31
22.28
20.27
17.39
13.92
10.28
6.9
4.07
1.91
0.36
-0.73
-1.55
-2.3
-3.12
-4.11
-5.38
-7.01
-8.99
-11.26
-13.56
-15.72
-17.62
-19.19
-20.54
-21.83
-23.31
-25.22
-27.83
-31.23
-35.27
-39.4
-42.67
-44.05
-42.74
-38.42
-31.44
-22.63
-13.04
-3.64
4.82
11.93
17.47
21.44
23.93
25.13
25.3
24.79
23.89
22.85
21.87
21.02
20.36
19.91
19.69
19.68
19.92
20.42
21.17
22.12
23.16
24.15
24.95
25.35
25.2
24.39
22.92
20.82
18.21
15.21
11.96
8.6
5.26
2.13
-0.64
-2.93
-4.8
-6.35
-7.83
-9.4
-11.16
-13.09
-15.16
-17.3
-19.57
-22.12
-25.05
-28.58
-32.79
-37.56
-42.51
-46.94
-49.87
-50.45
-48.11
-42.82
-35.06
-25.75
-15.89
-6.43
1.94
8.82
13.99
17.42
19.21
19.65
19.13
18.15
17.13
16.48
16.41
16.97
18.01
19.39
20.91
22.42
23.83
25.04
26.04
26.8
27.21
27.25
26.77
25.67
23.82
21.25
18.08
14.51
10.96
7.65
4.85
2.54
0.54
-1.4
-3.41
-5.55
-7.77
-9.95
-12.1
-14.16
-16.23
-18.35
-20.63
-23.22
-26.33
-30.16
-34.68
-39.41
-43.41
-45.58
-44.92
-40.98
-34.06
-25.05
-15.17
-5.53
3.15
10.49
16.37
20.75
23.6
24.91
24.81
23.59
21.73
19.78
18.14
17.04
16.55
16.54
16.85
17.38
18.03
18.75
19.5
20.15
20.51
20.41
19.69
18.31
16.31
13.85
11.16
8.45
5.92
3.58
1.39
-0.82
-3.3
-6.18
-9.47
-12.98
-16.42
-19.54
-22.27
-24.68
-27.13
-29.94
-33.37
-37.44
-41.77
-45.72
-48.44
-49.07
-47.01
-42.11
-34.65
-25.42
-15.46
-5.73
2.98
10.27
16.02
20.26
23.12
24.77
25.37
25.1
24.25
23.15
22.15
21.58
21.56
22.02
22.8
23.7
24.54
25.3
25.99
26.69
27.39
27.94
28.07
27.61
26.45
24.66
22.39
19.79
17.02
14.11
10.95
7.41
3.35
-1.25
-6.27
-11.49
-16.54
-21.07
-24.81
-27.66
-29.61
-30.89
-31.91
-33.09
-34.92
-37.73
-41.51
-45.79
-49.68
-52.02
-51.79
-48.4
-41.89
-32.9
-22.44
-11.65
-1.5
7.42
14.79
20.48
24.54
27.06
28.26
28.4
27.85
26.97
26.23
25.87
25.98
26.53
27.29
28.12
28.9
29.6
30.19
30.64
30.81
30.55
29.76
28.46
26.77
24.89
22.94
20.98
18.93
16.66
14
10.99
7.69
4.28
0.9
-2.43
-5.7
-9.02
-12.41
-15.82
-19.12
-22.19
-24.95
-27.53
-30.16
-33.19
-36.95
-41.5
-46.55
-51.34
-54.82
-55.9
-53.77
-48.26
-39.85
-29.52
-18.4
-7.53
2.36
10.81
17.58
22.66
26.13
28.24
29.27
29.61
29.51
29.16
28.66
28.01
27.32
26.64
26.12
25.88
26.07
26.77
27.99
29.63
31.41
33.01
34.08
34.35
33.7
32.16
29.8
26.84
23.49
19.96
16.43
13.01
9.79
6.75
3.74
0.57
-2.95
-6.83
-10.94
-15.04
-18.86
-22.2
-24.98
-27.32
-29.35
-31.41
-33.84
-36.96
-41
-45.87
-51.11
-55.85
-59.05
-59.72
-57.32
-51.8
-43.56
-33.36
-22
-10.31
1.03
11.5
20.72
28.37
34.33
38.57
41.11
42.23
42.15
41.25
39.99
38.78
37.86
37.28
37.03
36.83
36.63
36.32
35.9
35.42
34.86
34.15
33.1
31.63
29.65
27.23
24.47
21.44
18.25
14.92
11.55
8.17
4.88
1.75
-1.1
-3.68
-6.11
-8.51
-11.05
-13.74
-16.54
-19.31
-22.01
-24.59
-27.2
-30.11
-33.54
-37.71
-42.62
-48.01
-53.22
-57.31
-59.18
-57.87
-53.02
-44.85
-34.29
-22.57
-10.97
-0.46
8.43
15.55
20.98
24.82
27.19
28.14
27.92
26.92
25.59
24.38
23.61
23.4
23.61
24.04
24.45
24.74
24.93
25.05
25.11
25.09
24.9
24.42
23.62
22.41
20.81
18.81
16.47
13.83
10.99
8.02
4.96
1.79
-1.54
-5.05
-8.66
-12.22
-15.56
-18.61
-21.39
-24.04
-26.73
-29.6
-32.79
-36.35
-40.19
-43.97
-47.07
-48.56
-47.56
-43.53
-36.43
-26.94
-16.21
-5.48
4.19
12.18
18.28
22.6
25.36
26.79
27.17
26.7
25.65
24.3
22.95
21.81
21.01
20.67
20.83
21.45
22.39
23.41
24.13
24.25
23.48
21.72
19.09
15.89
12.4
8.95
5.74
2.8
0.16
-2.24
-4.53
-6.81
-9.19
-11.71
-14.35
-17.06
-19.76
-22.49
-25.37
-28.71
-32.69
-37.31
-42.11
-46.24
-48.57
-48.06
-44.2
-37.13
-27.71
-17.08
-6.51
3.07
11.01
17.1
21.35
23.92
25.06
25.09
24.46
23.46
22.5
21.75
21.35
21.28
21.43
21.66
21.82
21.85
21.74
21.61
21.48
21.3
20.82
19.81
18.16
15.9
13.22
10.38
7.54
4.68
1.67
-1.66
-5.39
-9.39
-13.46
-17.34
-20.86
-23.91
-26.59
-29.06
-31.61
-34.62
-38.26
-42.49
-46.81
-50.29
-51.8
-50.34
-45.37
-37.1
-26.5
-14.92
-3.73
6.03
13.85
19.68
23.8
26.55
28.21
28.94
28.83
28.01
26.78
25.4
24.27
23.64
23.48
23.61
23.78
23.83
23.74
23.67
23.65
23.67
23.44
22.58
20.78
18.01
14.48
10.6
6.91
3.75
1.33
-0.44
-1.77
-2.93
-4.21
-5.86
-7.99
-10.55
-13.47
-16.57
-19.8
-23.14
-26.66
-30.55
-34.96
-40
-45.56
-51.32
-56.6
-60.49
-61.91
-59.96
-54.29
-45.25
-33.84
-21.42
-9.28
1.64
10.91
18.43
24.31
28.76
31.92
33.93
35
35.33
35.16
34.72
34.12
33.44
32.78
32.22
31.79
31.54
31.56
31.87
32.5
33.3
33.99
34.26
33.84
32.56
30.47
27.79
24.85
21.98
19.34
16.89
14.56
12.19
9.73
7.17
4.5
1.72
-1.23
-4.46
-8.03
-11.93
-16.12
-20.42
-24.58
-28.41
-31.73
-34.57
-37.11
-39.74
-42.94
-47.05
-52.03
-57.26
-61.7
-64.04
-63.13
-58.4
-49.98
-38.78
-26.15
-13.53
-2.06
7.53
15.02
20.48
24.21
26.61
28
28.67
28.88
28.86
28.82
28.93
29.23
29.67
30.14
30.45
30.51
30.29
29.88
29.45
29.11
28.89
28.68
28.37
27.89
27.25
26.61
26.05
25.69
25.42
25.04
24.32
23.08
21.25
18.95
16.46
13.97
11.62
9.29
6.65
3.36
-0.84
-5.96
-11.72
-17.66
-23.37
-28.51
-33.03
-37.03
-40.74
-44.42
-48.28
-52.28
-56.11
-59.15
-60.42
-59.01
-54.27
-46.24
-35.67
-23.78
-11.9
-1.16
7.76
14.71
19.8
23.33
25.54
26.6
26.72
26.18
25.25
24.21
23.34
22.76
22.54
22.69
23.19
24.07
25.3
26.84
28.51
30.08
31.18
31.53
30.95
29.39
27
23.94
20.5
16.94
13.46
10.07
6.78
3.58
0.5
-2.29
-4.67
-6.46
-7.69
-8.63
-9.62
-11.01
-13.01
-15.61
-18.62
-21.8
-24.98
-28.13
-31.33
-34.7
-38.34
-42.34
-46.63
-50.89
-54.5
-56.59
-56.26
-52.84
-46.1
-36.52
-25.14
-13.21
-1.98
7.68
15.38
21.05
24.85
27.04
27.89
27.61
26.61
25.19
23.77
22.67
22.07
21.95
22.1
22.27
22.22
21.86
21.21
20.4
19.61
18.92
18.32
17.71
16.9
15.77
14.29
12.49
10.51
8.49
6.46
4.4
2.15
-0.47
-3.59
-7.12
-10.86
-14.51
-17.67
-20.18
-21.95
-23.09
-23.9
-24.78
-26.08
-28.08
-30.83
-34.03
-37.01
-38.85
-38.62
-35.73
-30.2
-22.58
-13.9
-5.24
2.49
8.73
13.38
16.59
18.56
19.49
19.56
18.97
18.03
17.09
16.41
16.15
16.41
17.09
18.07
19.25
20.48
21.71
22.82
23.59
23.74
23.02
21.32
18.69
15.32
11.49
7.54
3.68
0.05
-3.41
-6.86
-10.34
-13.89
-17.45
-20.91
-24.09
-26.88
-29.27
-31.39
-33.5
-35.86
-38.71
-42
-45.36
-48
-48.91
-47.23
-42.48
-34.86
-25.1
-14.42
-4.02
5.18
12.65
18.26
22.07
24.28
25.07
24.75
23.63
22.2
20.95
20.26
20.3
21.04
22.19
23.43
24.49
25.17
25.48
25.37
24.85
23.77
22.01
19.46
16.11
12.09
7.78
3.48
-0.54
-4.15
-7.37
-10.3
-13.09
-15.8
-18.47
-20.97
-23.22
-25.16
-26.92
-28.7
-30.8
-33.61
-37.23
-41.48
-45.73
-48.99
-50.19
-48.48
-43.53
-35.61
-25.57
-14.57
-3.72
6.05
14.12
20.25
24.43
26.79
27.72
27.61
26.91
26.03
25.29
24.85
24.75
24.96
25.3
25.75
26.27
26.86
27.61
28.52
29.47
30.31
30.68
30.16
28.49
25.54
21.45
16.67
11.69
6.95
2.73
-0.99
-4.44
-7.83
-11.31
-14.88
-18.29
-21.41
-24.14
-26.55
-28.85
-31.36
-34.38
-38.24
-42.96
-48.27
-53.54
-57.69
-59.54
-58.07
-52.84
-44.04
-32.76
-20.36
-8.31
2.23
10.72
17.05
21.43
24.12
25.53
25.86
25.41
24.54
23.55
22.83
22.55
22.79
23.44
24.36
25.4
26.5
27.64
28.82
30
30.94
31.42
31.13
29.75
27.18
23.45
18.81
13.62
8.37
3.34
-1.26
-5.49
-9.49
-13.38
-17.17
-20.61
-23.46
-25.5
-26.79
-27.57
-28.23
-29.17
-30.63
-32.82
-35.8
-39.51
-43.67
-47.58
-50.14
-50.1
-46.57
-39.25
-28.89
-16.91
-5.02
5.35
13.43
19.15
22.85
25.04
26.19
26.56
26.31
25.65
24.83
24.17
23.95
24.32
25.26
26.59
28.03
29.24
30.06
30.38
30.27
29.89
29.32
28.64
27.83
26.79
25.34
23.42
20.96
18.03
14.83
11.5
8.2
4.95
1.75
-1.52
-4.82
-8.16
-11.39
-14.44
-17.3
-20
-22.64
-25.34
-28.22
-31.47
-35.3
-39.83
-45.02
-50.53
-55.52
-58.9
-59.57
-56.7
-50.18
-40.59
-29.07
-16.95
-5.46
4.6
12.86
19.18
23.7
26.57
28.04
28.4
27.99
27.19
26.45
26.1
26.33
27.13
28.18
29.17
29.83
30.02
29.91
29.71
29.5
29.23
28.62
27.28
25.07
22.09
18.56
14.88
11.35
8.17
5.36
2.86
0.46
-2.02
-4.73
-7.73
-10.93
-14.22
-17.39
-20.35
-23.04
-25.63
-28.36
-31.48
-35.25
-39.63
-44.35
-48.76
-51.91
-52.75
-50.51
-44.92
-36.31
-25.64
-14.05
-2.8
7.1
15.04
20.81
24.47
26.3
26.67
25.97
24.68
23.16
21.73
20.56
19.79
19.44
19.45
19.72
20.02
20.17
19.98
19.38
18.38
16.98
15.26
13.2
10.73
7.76
4.3
0.49
-3.38
-6.88
-9.72
-11.74
-13.06
-14
-14.97
-16.24
-17.98
-20.19
-22.84
-25.82
-28.94
-31.8
-33.71
-33.87
-31.51
-26.38
-18.77
-9.54
0.19
9.3
16.99
22.87
26.88
29.12
29.73
28.87
26.75
23.7
20.16
16.7
13.93
12.24
11.77
12.3
13.41
14.61
15.51
15.92
15.91
15.6
14.98
13.91
12.13
9.4
5.74
1.35
-3.34
-7.88
-11.95
-15.49
-18.6
-21.55
-24.65
-28.13
-32.21
-36.92
-42.07
-47.08
-51.13
-53.12
-52.18
-47.83
-40.22
-30.17
-18.9
-7.62
2.68
11.39
18.32
23.48
26.91
28.71
28.91
27.69
25.43
22.63
19.87
17.63
16.18
15.42
15.15
15.05
14.89
14.62
14.26
13.81
13.26
12.5
11.37
9.72
7.47
4.63
1.31
-2.32
-6.02
-9.56
-12.84
-15.91
-18.95
-22.2
-25.88
-30.09
-34.81
-39.75
-44.37
-47.93
-49.69
-48.93
-45.27
-38.77
-29.93
-19.68
-9.1
0.81
9.33
16.05
20.94
24.24
26.17
27.1
27.27
26.94
26.41
26.02
26.02
26.56
27.62
28.96
30.3
31.38
32.16
32.64
32.86
32.82
32.35
31.25
29.28
26.46
22.89
18.9
14.86
11.05
7.69
4.8
2.25
-0.26
-2.95
-6.08
-9.72
-13.75
-17.99
-22.19
-26.16
-29.88
-33.43
-37
-40.86
-45.21
-50.03
-54.95
-59.23
-61.79
-61.61
-57.94
-50.66
-40.32
-27.97
-14.94
-2.46
8.55
17.58
24.52
29.56
33.01
35.23
36.58
37.28
37.5
37.39
37.11
36.83
36.73
36.84
37.06
37.29
37.37
37.29
37.18
37.12
37.06
36.82
36.13
34.71
32.5
29.66
26.58
23.77
21.52
19.91
18.75
17.73
16.55
15.07
13.25
11.27
9.31
7.39
5.39
3.08
0.22
-3.35
-7.57
-12.36
-17.41
-22.41
-27.1
-31.32
-35.05
-38.52
-42.08
-45.99
-50.46
-55.29
-59.89
-63.31
-64.4
-62.24
-56.45
-47.39
-36.01
-23.66
-11.64
-0.93
7.99
15.07
20.52
24.67
27.74
30.02
31.63
32.83
33.82
34.7
35.62
36.54
37.39
38.02
38.37
38.4
38.3
38.3
38.49
38.89
39.28
39.33
38.75
37.38
35.27
32.67
29.87
27.04
24.31
21.71
19.28
17.07
15.15
13.46
11.88
10.24
8.45
6.53
4.52
2.49
0.42
-1.8
-4.35
-7.36
-10.85
-14.59
-18.28
-21.64
-24.45
-26.62
-28.24
-29.61
-31.11
-33.16
-36.04
-39.75
-43.95
-47.88
-50.53
-50.86
-48.14
-42.16
-33.36
-22.71
-11.47
-0.88
8.15
15.17
20.16
23.39
25.31
26.27
26.65
26.67
26.52
26.29
26.01
25.64
25.22
24.77
24.37
24.12
24.08
24.3
24.71
25.22
25.71
26.01
26.04
25.66
24.8
23.46
21.65
19.47
17.06
14.55
12.06
9.73
7.62
5.81
4.24
2.8
1.44
0.15
-1.02
-2.07
-3.04
-4.13
-5.55
-7.59
-10.25
-13.46
-16.92
-20.33
-23.45
-26.06
-28.09
-29.58
-30.72
-31.78
-33.02
-34.61
-36.54
-38.48
-39.89
-40.1
-38.56
-35.02
-29.62
-22.88
-15.57
-8.48
-2.26
2.76
6.46
8.92
10.29
10.81
10.73
10.3
9.82
9.44
9.3
9.46
9.97
10.85
12.09
13.66
15.45
17.33
19.11
20.67
21.84
22.56
22.64
21.95
20.46
18.25
15.62
12.97
10.59
8.54
6.69
4.79
2.58
-0.02
-2.83
-5.62
-8.1
-10.21
-11.91
-13.27
-14.34
-15.18
-15.85
-16.43
-16.95
-17.43
-17.92
-18.52
-19.41
-20.8
-22.9
-25.76
-29.13
-32.49
-35.1
-36.19
-35.29
-32.22
-27.25
-20.97
-14.12
-7.44
-1.59
3.05
6.36
8.39
9.37
9.53
9.1
8.28
7.27
6.29
5.61
5.43
5.87
6.96
8.49
10.15
11.65
12.78
13.44
13.66
13.49
12.96
12.1
10.91
9.35
7.49
5.42
3.33
1.37
-0.34
-1.83
-3.15
-4.44
-5.82
-7.36
-9.06
-10.84
-12.67
-14.43
-16.09
-17.61
-19.11
-20.71
-22.61
-24.97
-27.73
-30.7
-33.33
-34.99
-35.04
-33.1
-29.15
-23.57
-17.04
-10.34
-4.13
1.14
5.24
8.16
9.99
10.84
10.86
10.13
8.86
7.26
5.62
4.29
3.54
3.56
4.29
5.48
6.74
7.78
8.41
8.75
8.97
9.26
9.7
10.06
10.11
9.63
8.55
6.98
5.22
3.44
1.77
0.19
-1.47
-3.34
-5.43
-7.73
-10.07
-12.26
-14.15
-15.69
-16.92
-18.03
-19.22
-20.73
-22.65
-24.9
-27.19
-29.04
-29.94
-29.43
-27.35
-23.77
-19.13
-13.99
-8.92
-4.37
-0.69
2.07
3.99
5.13
5.74
5.95
5.94
5.88
6
6.46
7.41
8.85
10.55
12.31
13.84
14.98
15.63
15.82
15.59
15.02
14.17
13.1
11.82
10.31
8.53
6.53
4.41
2.36
0.53
-1.06
-2.56
-4.2
-6.21
-8.62
-11.24
-13.83
-16.12
-17.97
-19.37
-20.52
-21.57
-22.77
-24.43
-26.77
-29.88
-33.47
-36.88
-39.15
-39.34
-36.9
-31.84
-24.8
-16.77
-8.7
-1.29
5.1
10.38
14.59
17.82
20.04
21.34
21.78
21.5
20.74
19.73
18.65
17.66
16.83
16.12
15.5
15
14.66
14.57
14.75
15.16
15.64
16.03
16.11
15.77
14.9
13.54
11.64
9.34
6.74
4.04
1.44
-1.01
-3.27
-5.46
-7.63
-9.89
-12.22
-14.53
-16.79
-18.92
-20.92
-22.75
-24.44
-26.1
-27.95
-30.24
-33.07
-36.3
-39.47
-41.9
-42.84
-41.65
-38.14
-32.53
-25.4
-17.38
-9.28
-1.62
5.08
10.53
14.6
17.33
19.02
20.01
20.74
21.42
22.16
22.9
23.52
23.96
24.19
24.32
24.46
24.68
24.92
25.1
25.08
24.66
23.75
22.36
20.61
18.63
16.52
14.26
11.86
9.34
6.72
4.21
2
0.23
-1.18
-2.38
-3.62
-5
-6.61
-8.45
-10.53
-12.87
-15.44
-18.18
-20.92
-23.43
-25.64
-27.66
-29.82
-32.47
-35.83
-39.74
-43.55
-46.35
-47.16
-45.24
-40.37
-32.96
-23.83
-14.15
-5.02
2.79
8.92
13.47
16.64
18.83
20.25
21.13
21.59
21.84
22.11
22.56
23.32
24.2
25.01
25.51
25.57
25.21
24.6
23.89
23.13
22.33
21.45
20.55
19.73
19.07
18.62
18.33
18.1
17.71
16.98
15.84
14.28
12.33
9.96
7.25
4.16
0.72
-3.03
-6.98
-10.95
-14.65
-17.85
-20.45
-22.46
-24.12
-25.79
-27.83
-30.57
-34.18
-38.5
-43.1
-47.25
-49.99
-50.42
-47.96
-42.48
-34.54
-25.09
-15.28
-6
2.13
8.93
14.43
18.71
21.93
24.16
25.55
26.26
26.57
26.64
26.69
26.77
26.79
26.8
26.76
26.68
26.61
26.58
26.59
26.61
26.53
26.22
25.66
24.75
23.43
21.71
19.57
17.03
14.21
11.21
8.2
5.34
2.7
0.27
-2.04
-4.34
-6.73
-9.15
-11.55
-13.9
-16.19
-18.6
-21.35
-24.62
-28.51
-32.88
-37.42
-41.64
-45.01
-46.87
-46.64
-43.88
-38.39
-30.49
-20.87
-10.56
-0.71
7.8
14.5
19.23
22.19
23.63
23.84
23.02
21.44
19.42
17.33
15.63
14.58
14.35
14.86
15.95
17.35
18.9
20.53
22.14
23.57
24.64
25.06
24.55
23.01
20.54
17.42
14
10.52
7.04
3.54
0.05
-3.45
-6.88
-10.08
-12.91
-15.32
-17.37
-19.22
-21.14
-23.45
-26.41
-30.13
-34.35
-38.35
-41.1
-41.57
-39.06
-33.51
-25.49
-16.01
-6.23
2.91
10.81
17.18
21.93
25.08
26.65
26.75
25.61
23.52
20.95
18.35
16.13
14.62
14.03
14.3
15.27
16.6
17.95
18.99
19.5
19.43
18.78
17.68
16.1
14.02
11.34
8.06
4.29
0.25
-3.72
-7.42
-10.71
-13.65
-16.39
-19.11
-22.02
-25.31
-29.15
-33.56
-38.34
-42.91
-46.49
-48.08
-46.89
-42.53
-35.14
-25.45
-14.51
-3.52
6.6
15.16
21.86
26.7
29.78
31.36
31.59
30.78
29.25
27.45
25.81
24.6
23.99
23.88
24.11
24.4
24.61
24.72
24.74
24.64
24.34
23.77
22.84
21.56
19.95
17.97
15.55
12.56
8.87
4.55
-0.25
-5.24
-10.16
-14.82
-19.06
-22.81
-26.12
-28.98
-31.65
-34.46
-37.74
-41.6
-45.72
-49.21
-51
-50.01
-45.59
-37.89
-27.76
-16.43
-5.17
5.03
13.68
20.63
25.86
29.41
31.32
31.64
30.61
28.66
26.28
24.03
22.33
21.38
21.25
21.83
22.99
24.57
26.35
28.1
29.6
30.61
30.92
30.35
28.79
26.31
23.16
19.68
16.31
13.4
11.03
9.02
7.01
4.52
1.22
-2.83
-7.4
-12.06
-16.43
-20.38
-23.98
-27.38
-30.83
-34.64
-38.91
-43.71
-48.83
-53.77
-57.63
-59.32
-57.78
-52.46
-43.58
-32.05
-19.28
-6.77
4.3
13.26
19.95
24.64
27.77
29.79
31.01
31.67
31.94
32.05
32.12
32.29
32.64
33.15
33.78
34.43
35.05
35.57
35.97
36.13
35.93
35.26
34.11
32.5
30.58
28.52
26.4
24.29
22.13
19.82
17.27
14.49
11.49
8.38
5.21
1.92
-1.64
-5.62
-10.1
-14.92
-19.81
-24.28
-27.92
-30.53
-32.22
-33.32
-34.27
-35.61
-37.68
-40.71
-44.6
-48.8
-52.42
-54.36
-53.52
-49.28
-41.65
-31.33
-19.51
-7.55
3.42
12.66
19.82
24.98
28.33
30.14
30.71
30.35
29.43
28.35
27.52
27.23
27.6
28.42
29.42
30.24
30.64
30.62
30.31
29.9
29.51
29.12
28.56
27.69
26.45
24.83
22.99
21
18.9
16.67
14.26
11.6
8.75
5.69
2.45
-0.96
-4.51
-8.09
-11.59
-14.85
-17.75
-20.2
-22.27
-24.12
-25.97
-28.14
-30.93
-34.62
-39.29
-44.62
-49.85
-53.83
-55.29
-53.26
-47.35
-37.92
-26
-13.05
-0.51
10.49
19.28
25.65
29.65
31.46
31.42
29.91
27.41
24.47
21.64
19.37
17.9
17.22
17.17
17.52
18.13
18.93
19.9
20.99
22.08
22.98
23.42
23.19
22.18
20.42
18.19
15.77
13.32
10.91
8.43
5.65
2.4
-1.38
-5.66
-10.14
-14.51
-18.49
-21.93
-24.78
-27.17
-29.29
-31.39
-33.77
-36.43
-39.27
-41.83
-43.42
-43.18
-40.48
-35.05
-27.2
-17.85
-8.04
1.1
8.85
14.88
19.19
21.94
23.38
23.72
23.15
21.92
20.29
18.61
17.23
16.33
16.01
16.25
16.97
18.08
19.44
20.84
22.02
22.73
22.64
21.56
19.49
16.57
13.07
9.28
5.44
1.64
-2.12
-5.99
-9.96
-14.05
-18.03
-21.66
-24.67
-26.9
-28.37
-29.32
-30.13
-31.22
-33.03
-35.77
-39.24
-42.75
-45.26
-45.68
-43.23
-37.72
-29.65
-19.93
-9.75
-0.05
8.5
15.58
20.97
24.68
26.75
27.31
26.68
25.22
23.35
21.44
19.85
18.72
18.12
18
18.22
18.69
19.32
20.06
20.85
21.53
21.85
21.54
20.39
18.39
15.77
12.89
10.14
7.75
5.68
3.73
1.57
-1.05
-4.3
-8.1
-12.2
-16.26
-19.98
-23.25
-26.16
-28.96
-31.95
-35.49
-39.69
-44.31
-48.74
-51.99
-53.03
-51.05
-45.81
-37.74
-27.84
-17.38
-7.43
1.24
8.34
13.89
18.05
20.98
22.79
23.66
23.8
23.55
23.12
22.67
22.29
21.96
21.67
21.5
21.58
22.02
22.87
24.01
25.19
26.13
26.42
25.78
24
21.12
17.33
13.02
8.62
4.44
0.59
-3
-6.46
-9.9
-13.25
-16.35
-19
-21.05
-22.62
-23.98
-25.6
-27.87
-31.09
-35.22
-39.94
-44.43
-47.7
-48.77
-46.84
-41.76
-33.94
-24.3
-14.02
-4.2
4.41
11.51
17.04
21.12
23.86
25.36
25.79
25.43
24.64
23.79
23.18
22.93
23.02
23.36
23.83
24.36
24.92
25.51
26.07
26.58
26.93
27.01
26.53
25.29
23.12
20.05
16.35
12.36
8.46
4.84
1.52
-1.63
-4.75
-7.9
-10.97
-13.75
-16.09
-17.95
-19.43
-20.75
-22.15
-23.88
-26.21
-29.36
-33.45
-38.37
-43.59
-48.25
-51.22
-51.42
-48.15
-41.43
-31.97
-20.96
-9.74
0.63
9.49
16.65
22.23
26.45
29.48
31.36
32.26
32.38
32.19
32.16
32.65
33.81
35.51
37.52
39.52
41.34
42.93
44.34
45.62
46.74
47.62
48.11
48.14
47.7
46.93
45.93
44.84
43.85
43.06
42.65
42.83
43.82
45.71
48.29
50.88
52.58
52.5
49.97
44.84
37.4
28.25
18.08
7.44
-3.23
-13.57
-23.24
-32.05
-40.09
-47.72
-55.54
-64.17
-74.09
-85.47
-98.22
-111.99
-126.29
-140.41
-153.34
-163.92
-170.82
-172.87
-169.19
-159.48
-143.96
-123.44
-99.1
-72.49
-45.3
-19.21
4.42
24.65
41.03
53.54
62.46
68.33
71.61
72.83
72.41
70.78
68.24
65.07
61.53
57.96
54.79
52.39
50.94
50.37
50.23
49.93
48.81
46.37
42.25
36.26
28.48
19.17
8.96
-1.3
-10.59
-18.05
-23.09
-25.65
-26.15
-25.19
-23.48
-21.48
-19.48
-17.5
-15.59
-13.85
-12.54
-11.82
-11.66
-11.9
-12.09
-11.86
-10.89
-9.1
-6.7
-3.95
-1.17
1.48
3.83
5.77
7.23
8.05
8.14
7.45
6.02
3.87
1.16
-2.05
-5.67
-9.52
-13.41
-17.07
-20.25
-22.84
-24.96
-26.85
-28.86
-31.3
-34.34
-37.97
-41.87
-45.37
-47.62
-47.7
-44.92
-39.03
-30.44
-20.09
-9.19
1.08
9.92
16.85
21.88
25.12
26.79
27.19
26.57
25.33
23.86
22.5
21.43
20.72
20.33
20.2
20.35
20.81
21.65
22.77
24.02
25.15
25.88
26.05
25.53
24.33
22.47
20.15
17.48
14.59
11.51
8.13
4.34
0.07
-4.56
-9.32
-13.8
-17.68
-20.82
-23.26
-25.27
-27.25
-29.7
-33.09
-37.66
-43.37
-49.64
-55.42
-59.31
-59.99
-56.58
-49.03
-38.16
-25.37
-12.23
-0.08
10.31
18.7
25.16
29.96
33.28
35.31
36.22
36.24
35.65
34.78
33.92
33.26
32.9
32.86
33.09
33.44
33.83
34.18
34.47
34.57
34.38
33.73
32.48
30.63
28.16
25.23
22.03
18.78
15.63
12.67
9.8
6.84
3.69
0.21
-3.59
-7.65
-11.76
-15.73
-19.34
-22.49
-25.22
-27.55
-29.66
-31.73
-34.16
-37.25
-41.2
-45.82
-50.44
-54.05
-55.4
-53.56
-48.07
-39.33
-28.27
-16.18
-4.26
6.58
15.79
23.15
28.57
32.14
33.92
34.2
33.34
31.87
30.4
29.4
29.13
29.62
30.74
32.26
34.04
35.87
37.57
39.05
40.09
40.61
40.52
39.81
38.55
36.84
34.67
32.04
28.98
25.48
21.65
17.57
13.38
9.19
5.21
1.55
-1.65
-4.28
-6.45
-8.39
-10.44
-12.88
-15.84
-19.2
-22.7
-26.09
-29.18
-32.06
-34.95
-38.14
-41.86
-46.19
-50.87
-55.39
-58.84
-60.1
-58.26
-52.76
-43.77
-32.25
-19.6
-7.26
3.63
12.49
19.31
24.29
27.72
29.81
30.62
30.26
29.02
27.33
25.63
24.33
23.59
23.44
23.77
24.45
25.44
26.72
28.25
29.83
31.19
31.98
31.96
30.99
29.09
26.35
22.95
19.07
15
11.05
7.51
4.6
2.3
0.4
-1.45
-3.6
-6.19
-9.05
-11.86
-14.33
-16.2
-17.57
-18.71
-19.94
-21.7
-24.18
-27.54
-31.72
-36.46
-41.17
-44.97
-46.83
-45.85
-41.65
-34.36
-24.81
-14.11
-3.52
5.99
13.78
19.57
23.38
25.34
25.79
25.09
23.65
21.86
20.05
18.46
17.21
16.44
16.12
16.26
16.78
17.6
18.67
19.86
21.01
21.89
22.29
21.96
20.82
18.84
16.19
13.16
10
6.92
3.89
0.9
-2.22
-5.49
-8.84
-12.07
-14.93
-17.26
-19.11
-20.66
-22.21
-24.14
-26.72
-30.09
-34.1
-38.31
-41.97
-44.12
-43.83
-40.55
-34.39
-26.01
-16.49
-7
1.58
8.75
14.38
18.58
21.47
23.16
23.74
23.42
22.51
21.37
20.35
19.65
19.37
19.41
19.68
20.1
20.67
21.41
22.35
23.3
23.99
23.98
22.85
20.42
16.75
12.22
7.36
2.77
-1.2
-4.34
-6.73
-8.58
-10.12
-11.55
-13.09
-14.79
-16.73
-18.86
-21.11
-23.48
-25.99
-28.75
-31.91
-35.63
-39.77
-43.92
-47.29
-48.98
-48.13
-44.3
-37.57
-28.72
-18.84
-9.08
-0.32
6.98
12.77
17.3
20.78
23.35
24.94
25.49
25.07
23.91
22.41
21.07
20.26
20.16
20.66
21.57
22.6
23.63
24.57
25.35
25.93
26.14
25.78
24.65
22.63
19.71
16.1
12.1
8.02
4.12
0.47
-2.94
-6.18
-9.28
-12.17
-14.7
-16.76
-18.39
-19.75
-21.03
-22.38
-23.92
-25.73
-27.95
-30.89
-34.77
-39.64
-45.08
-50.16
-53.6
-54.18
-51.18
-44.55
-35.09
-23.99
-12.52
-1.68
7.85
15.69
21.7
25.82
28.15
28.8
28.14
26.61
24.69
22.82
21.28
20.2
19.59
19.35
19.26
19.25
19.26
19.33
19.58
20
20.44
20.61
20.13
18.73
16.43
13.42
10.07
6.8
3.87
1.41
-0.75
-2.83
-5.05
-7.49
-10.09
-12.67
-14.97
-16.89
-18.47
-19.97
-21.79
-24.36
-27.9
-32.41
-37.45
-42.14
-45.41
-46.13
-43.65
-37.85
-29.4
-19.38
-9.09
0.38
8.29
14.27
18.35
20.64
21.49
21.31
20.51
19.61
18.93
18.66
18.79
19.21
19.71
20.15
20.44
20.52
20.41
20.11
19.61
18.83
17.77
16.38
14.69
12.76
10.63
8.37
6.02
3.62
1.12
-1.5
-4.31
-7.29
-10.34
-13.36
-16.2
-18.79
-21.25
-23.78
-26.67
-30.16
-34.26
-38.61
-42.54
-45.09
-45.28
-42.47
-36.56
-28.08
-18.03
-7.55
2.41
11.17
18.39
23.91
27.65
29.58
29.79
28.48
26.07
23.22
20.58
18.74
18.07
18.68
20.46
23.1
26.09
28.93
31.29
32.89
33.69
33.79
33.36
32.62
31.64
30.42
28.84
26.91
24.64
22.23
20
18.18
17
16.43
16.26
16.13
15.72
14.84
13.64
12.79
13.16
15.95
22.05
31.63
44.09
58.02
71.63
83.22
91.65
96.36
97.47
95.56
91.39
85.87
79.76
73.38
66.41
57.98
47.05
33.32
17.66
2.12
-10.62
-18.36
-20.17
-16.62
-9.45
-0.82
7.54
14.45
19.21
21.43
20.86
17.42
11.57
4.06
-4.21
-12.56
-20.76
-29.08
-37.97
-47.77
-58.45
-69.51
-80.22
-89.77
-97.53
-103.15
-106.53
-107.77
-107.16
-105.04
-101.81
-97.92
-93.79
-89.73
-85.91
-82.22
-78.1
-72.85
-65.48
-55.17
-41.45
-24.38
-4.51
17.06
39.05
60.16
79.33
95.86
109.41
119.87
127.17
131.04
130.96
126.35
116.77
102.46
84.45
64.38
44.16
25.47
9.38
-3.84
-14.55
-23.46
-31.38
-38.92
-46.69
-55.18
-64.66
-75.12
-85.95
-96.12
-104.23
-108.99
-109.54
-105.91
-98.9
-89.87
-80.35
-71.5
-63.99
-58.04
-53.49
-50.06
-47.48
-45.52
-44.04
-42.95
-42.03
-41.05
-39.67
-37.7
-35.04
-31.7
-27.91
-23.88
-19.83
-15.79
-11.77
-7.71
-3.72
-0.07
2.92
4.76
5.19
4.01
1.38
-2.42
-6.85
-11.44
-15.8
-19.71
-23.15
-26.11
-28.73
-31.06
-33.16
-34.89
-36.12
-36.56
-35.82
-33.62
-29.7
-24.25
-17.75
-10.88
-4.38
1.17
5.5
8.59
10.6
11.78
12.25
12.11
11.44
10.34
8.99
7.72
6.87
6.68
7.27
8.44
9.87
11.19
12.11
12.51
12.5
12.2
11.61
10.74
9.38
7.47
5.14
2.64
0.34
-1.4
-2.44
-2.89
-3.07
-3.46
-4.48
-6.36
-9.13
-12.44
-15.72
-18.22
-19.2
-18.13
-14.79
-9.37
-2.47
5.02
12.23
18.39
22.98
25.82
27.02
26.81
25.49
23.3
20.45
17.24
13.99
10.97
8.49
6.72
5.65
5.13
4.98
4.99
5.12
5.38
5.76
6.21
6.6
6.69
6.21
4.94
2.81
-0.06
-3.4
-6.82
-10.01
-12.86
-15.47
-18.15
-21.32
-25.3
-30.08
-35.3
-40.28
-44.14
-45.99
-45.14
-41.26
-34.44
-25.27
-14.66
-3.63
6.8
15.92
23.29
28.79
32.46
34.51
35.09
34.38
32.72
30.42
28
25.8
24.13
23.13
22.78
22.98
23.55
24.35
25.2
26.02
26.56
26.61
25.94
24.43
22.09
19.08
15.69
12.08
8.35
4.43
0.18
-4.47
-9.37
-14.18
-18.55
-22.15
-24.97
-27.2
-29.21
-31.5
-34.39
-37.98
-41.95
-45.66
-48.16
-48.53
-46.08
-40.55
-32.35
-22.24
-11.35
-0.71
8.83
16.82
23.11
27.71
30.81
32.51
33
32.49
31.3
29.77
28.38
27.51
27.3
27.71
28.45
29.21
29.76
30
30.03
30
29.99
29.96
29.63
28.64
26.7
23.67
19.63
14.94
10.09
5.55
1.67
-1.49
-4.06
-6.31
-8.56
-10.92
-13.37
-15.71
-17.79
-19.57
-21.23
-23.05
-25.3
-28.18
-31.61
-35.45
-39.35
-42.81
-45.15
-45.61
-43.52
-38.51
-30.82
-21.11
-10.55
-0.24
8.96
16.69
22.91
27.73
31.27
33.57
34.77
35.05
34.69
34.04
33.38
32.86
32.47
32.11
31.64
31.07
30.39
29.67
28.89
28.08
27.22
26.29
25.22
23.99
22.7
21.37
20.02
18.56
16.83
14.77
12.3
9.56
6.7
3.91
1.17
-1.61
-4.65
-8.17
-12.24
-16.84
-21.75
-26.76
-31.58
-35.95
-39.58
-42.24
-43.99
-45.19
-46.39
-47.97
-49.85
-51.15
-50.36
-45.98
-37.32
-25.02
-10.67
3.85
17.33
29.56
41.11
52.73
64.91
77.76
91.33
105.99
122.2
140.01
158.51
175.73
189.29
197.23
198.91
195.08
187.41
177.44
166.01
153.07
137.91
119.69
97.99
73.15
46.27
18.89
-7.39
-31.27
-51.83
-68.78
-82.44
-93.79
-104.5
-116.63
-131.91
-150.75
-171.45
-190.05
-201.7
-202.39
-190.88
-169.57
-143.75
-119.67
-102.4
-94.23
-94.36
-99.94
-107.39
-113.48
-116
-113.66
-105.88
-92.7
-74.71
-53.12
-29.76
-6.58
14.7
33.11
48.7
62.33
75.1
87.74
99.91
110.15
116.4
116.78
110.37
97.78
80.81
61.78
42.77
25.01
8.83
-5.92
-19.45
-31.83
-42.71
-51.64
-58.32
-62.75
-65.27
-66.36
-66.39
-65.65
-64.26
-62.26
-59.75
-56.87
-53.86
-50.97
-48.35
-45.97
-43.82
-41.85
-39.97
-38.21
-36.37
-34.07
-30.76
-25.84
-18.89
-9.93
0.56
11.71
22.38
31.63
38.89
43.99
47.1
48.65
49.15
49.17
49.16
49.43
50.1
51.21
52.76
54.71
57.15
60.14
63.8
68.17
73.18
78.69
84.4
89.81
94.35
97.51
98.91
98.47
96.32
92.68
87.67
81.25
73.1
62.92
50.49
35.78
19.08
0.97
-17.83
-36.52
-54.41
-70.92
-85.69
-98.57
-109.61
-118.96
-126.62
-132.43
-136
-136.89
-134.67
-129.22
-120.8
-110.11
-98.14
-85.9
-74.33
-64.05
-55.41
-48.34
-42.63
-37.99
-34.1
-30.72
-27.61
-24.51
-21.15
-17.27
-12.72
-7.5
-1.86
3.92
9.55
14.77
19.49
23.68
27.35
30.43
32.85
34.49
35.33
35.43
34.87
33.84
32.52
31.03
29.39
27.58
25.53
23.22
20.7
18.04
15.32
12.58
9.85
7.1
4.29
1.41
-1.66
-5.07
-9.05
-13.66
-18.69
-23.49
-27.07
-28.45
-26.93
-22.45
-15.5
-7.07
1.76
10.09
17.29
23.08
27.32
30.04
31.31
31.31
30.34
28.78
27.13
25.78
25.03
24.93
25.39
26.14
26.95
27.62
28.07
28.34
28.47
28.4
27.99
27.21
25.95
24.29
22.36
20.32
18.32
16.4
14.52
12.6
10.65
8.66
6.74
4.93
3.2
1.47
-0.41
-2.48
-4.84
-7.42
-10.26
-13.28
-16.47
-19.83
-23.31
-26.92
-30.61
-34.41
-38.29
-42.09
-45.3
-47.22
-47.04
-44.14
-38.39
-30.15
-20.36
-10.09
-0.38
8.08
14.99
20.33
24.18
26.63
27.87
28.01
27.26
25.92
24.3
22.81
21.74
21.31
21.58
22.47
23.76
25.21
26.57
27.59
28.17
28.23
27.75
26.75
25.32
23.53
21.51
19.34
17.02
14.58
12.1
9.56
7.1
4.79
2.59
0.47
-1.67
-4.04
-6.66
-9.42
-12.2
-14.77
-17.04
-19.07
-21.06
-23.23
-25.84
-28.93
-32.44
-36.07
-39.27
-41.35
-41.59
-39.44
-34.77
-27.94
-19.69
-11.02
-2.89
4.08
9.62
13.78
16.78
18.84
20.12
20.75
20.88
20.73
20.6
20.82
21.52
22.64
23.94
25.1
25.81
25.91
25.35
24.22
22.54
20.34
17.65
14.56
11.23
7.87
4.77
2.18
0.32
-0.78
-1.27
-1.5
-1.87
-2.66
-4.04
-5.87
-7.87
-9.85
-11.71
-13.61
-15.84
-18.67
-22.24
-26.48
-30.98
-35.12
-38.12
-39.17
-37.68
-33.47
-26.81
-18.48
-9.52
-0.87
6.69
12.72
17.08
19.8
21.01
20.87
19.58
17.31
14.43
11.36
8.48
6.29
5.11
5.15
6.39
8.56
11.21
13.87
16.13
17.72
18.59
18.8
18.42
17.43
15.75
13.25
9.98
6.05
1.75
-2.63
-6.87
-10.79
-14.41
-17.76
-20.98
-24.18
-27.58
-31.26
-35.12
-38.82
-41.68
-42.9
-41.77
-37.95
-31.58
-23.36
-14.18
-4.95
3.57
10.92
16.81
21.12
23.68
24.5
23.7
21.68
18.99
16.2
13.88
12.31
11.63
11.76
12.47
13.52
14.7
15.78
16.53
16.83
16.48
15.32
13.22
10.1
6.09
1.51
-3.23
-7.7
-11.52
-14.58
-16.95
-18.83
-20.52
-22.35
-24.63
-27.5
-30.9
-34.32
-37.03
-38.06
-36.57
-32.2
-25.22
-16.38
-6.71
2.79
11.34
18.4
23.75
27.36
29.31
29.74
28.89
27.07
24.67
22.11
19.72
17.8
16.58
16.14
16.35
17.05
18.04
19.15
20.24
21.05
21.31
20.75
19.16
16.46
12.73
8.2
3.22
-1.77
-6.38
-10.34
-13.55
-16.1
-18.26
-20.38
-22.86
-26.02
-30.03
-34.73
-39.6
-43.78
-46.21
-45.96
-42.46
-35.82
-26.82
-16.57
-6.31
2.96
10.67
16.57
20.88
23.89
25.88
26.99
27.32
27.03
26.37
25.84
25.85
26.78
28.66
31.18
33.87
36.21
37.92
38.88
39.23
39.11
38.58
37.59
36.03
33.84
31.07
27.87
24.32
20.62
16.84
13.12
9.59
6.38
3.56
1.03
-1.39
-3.95
-6.84
-10.09
-13.62
-17.21
-20.68
-23.91
-26.97
-30.07
-33.45
-37.42
-42.17
-47.63
-53.32
-58.36
-61.52
-61.58
-57.78
-49.96
-38.87
-25.86
-12.47
-0.02
10.68
19.29
25.77
30.29
33.1
34.51
34.8
34.4
33.7
33.05
32.73
32.85
33.43
34.35
35.47
36.59
37.69
38.72
39.69
40.48
40.94
40.82
39.94
38.29
35.96
33.29
30.52
27.93
25.63
23.61
21.8
20.06
18.2
16.13
13.82
11.34
8.84
6.51
4.47
2.76
1.24
-0.35
-2.31
-4.8
-7.84
-11.23
-14.63
-17.77
-20.55
-23.15
-25.87
-29.13
-33.17
-38.08
-43.65
-49.38
-54.43
-57.74
-58.26
-55.15
-48.29
-38.18
-25.99
-13.1
-0.82
9.89
18.57
25.02
29.37
31.85
32.9
32.96
32.62
32.37
32.39
32.64
32.84
32.7
32.06
30.99
29.76
28.71
28.12
28.05
28.38
28.83
29.11
28.98
28.31
27.07
25.34
23.23
20.89
18.54
16.33
14.45
12.98
11.83
10.88
9.99
9.02
7.88
6.66
5.45
4.4
3.57
2.82
1.96
0.7
-1.25
-3.97
-7.35
-11.1
-14.85
-18.32
-21.38
-24.05
-26.43
-28.72
-31.11
-33.66
-36.4
-39.04
-41.21
-42.29
-41.68
-38.92
-33.89
-26.88
-18.54
-9.81
-1.53
5.53
10.94
14.62
16.67
17.38
17.08
16.06
14.55
12.85
11.14
9.69
8.76
8.46
8.84
9.78
11.08
12.51
13.95
15.35
16.71
18.03
19.17
20
20.33
20.04
19.05
17.47
15.49
13.29
11.06
8.85
6.75
4.77
2.91
1.1
-0.65
-2.36
-4.01
-5.59
-7.13
-8.55
-9.81
-10.83
-11.58
-11.96
-12.07
-12.06
-12.13
-12.54
-13.37
-14.66
-16.26
-17.97
-19.66
-21.28
-22.91
-24.66
-26.5
-28.29
-29.68
-30.19
-29.4
-27.1
-23.35
-18.59
-13.36
-8.32
-3.99
-0.69
1.57
2.91
3.56
3.77
3.69
3.48
3.2
2.89
2.72
2.78
3.14
3.65
4.14
4.31
4.11
3.55
2.8
2.2
1.92
2.01
2.31
2.69
2.97
3.21
3.53
3.97
4.58
5.13
5.33
4.89
3.69
1.72
-0.78
-3.52
-6.25
-8.71
-10.8
-12.39
-13.45
-13.96
-14.02
-13.72
-13.26
-12.87
-12.68
-12.76
-13.02
-13.41
-13.93
-14.69
-15.75
-17.16
-18.84
-20.46
-21.65
-21.98
-21.2
-19.35
-16.62
-13.32
-9.79
-6.44
-3.47
-1.06
0.7
1.91
2.62
2.99
3.11
2.99
2.6
2.01
1.22
0.4
-0.3
-0.79
-0.98
-0.91
-0.52
0.17
1.18
2.36
3.56
4.55
5.12
5.23
4.86
4.2
3.35
2.41
1.46
0.54
-0.21
-0.69
-0.78
-0.61
-0.37
-0.47
-1.26
-2.98
-5.61
-8.88
-12.39
-15.69
-18.53
-20.73
-22.25
-23.13
-23.37
-23.02
-22.14
-20.85
-19.31
-17.71
-16.06
-14.21
-12.03
-9.39
-6.4
-3.31
-0.51
1.76
3.39
4.5
5.35
6.03
6.66
7.1
7.29
7.07
6.4
5.32
3.96
2.47
1.08
0.15
-0.16
0.32
1.5
3.15
4.96
6.58
7.7
8.06
7.64
6.47
4.78
2.79
0.71
-1.25
-3.02
-4.54
-5.85
-6.95
-7.94
-8.8
-9.56
-10.17
-10.54
-10.68
-10.53
-10.19
-9.75
-9.36
-9.04
-8.87
-8.97
-9.44
-10.53
-12.34
-14.86
-17.84
-20.85
-23.28
-24.56
-24.26
-22.16
-18.45
-13.55
-8.12
-2.81
1.89
5.69
8.48
10.3
11.3
11.52
11.11
10.17
8.9
7.59
6.56
6.01
5.99
6.44
7.1
7.82
8.42
8.83
9.01
8.86
8.29
7.17
5.56
3.65
1.76
0.23
-0.81
-1.31
-1.45
-1.43
-1.46
-1.65
-1.99
-2.38
-2.73
-3.08
-3.47
-4.13
-5.17
-6.67
-8.5
-10.4
-12.07
-13.28
-14.02
-14.39
-14.61
-14.83
-15.21
-15.87
-16.93
-18.5
-20.48
-22.52
-24.07
-24.47
-23.24
-20.26
-15.88
-10.72
-5.47
-0.67
3.36
6.52
8.82
10.29
11.02
11.09
10.65
9.9
8.99
8.06
7.11
6.23
5.39
4.7
4.2
4.01
4.12
4.5
5.05
5.55
5.88
5.9
5.63
5.16
4.67
4.28
4.03
3.93
3.89
3.81
3.6
3.17
2.48
1.44
0.11
-1.46
-3.14
-4.86
-6.55
-8.19
-9.77
-11.2
-12.48
-13.54
-14.36
-14.96
-15.46
-16.02
-16.88
-18.21
-20.09
-22.35
-24.56
-26.19
-26.68
-25.75
-23.45
-20.2
-16.47
-12.7
-9.16
-5.83
-2.7
0.26
3.04
5.54
7.66
9.38
10.72
11.7
12.39
12.8
12.94
12.8
12.44
11.81
10.99
10.05
9.11
8.36
7.85
7.65
7.69
7.83
7.87
7.74
7.39
6.84
6.17
5.33
4.31
3.12
1.76
0.25
-1.35
-3.04
-4.82
-6.61
-8.45
-10.2
-11.77
-13.11
-14.29
-15.42
-16.66
-18.31
-20.46
-23.29
-26.68
-30.25
-33.4
-35.39
-35.58
-33.58
-29.57
-23.9
-17.37
-10.71
-4.5
0.89
5.36
8.89
11.56
13.35
14.36
14.57
14.14
13.25
12.1
11
10.16
9.76
9.85
10.47
11.52
12.96
14.63
16.24
17.5
18.12
17.94
16.88
15.11
12.88
10.48
8.19
6.05
4.01
1.9
-0.43
-3.1
-6.02
-9.05
-12.05
-14.89
-17.69
-20.56
-23.76
-27.45
-31.55
-35.71
-39.26
-41.42
-41.37
-38.59
-32.97
-25
-15.55
-5.68
3.63
11.72
18.16
22.94
26.02
27.55
27.57
26.31
24.11
21.44
18.8
16.55
14.99
14.17
14.07
14.59
15.59
16.93
18.39
19.7
20.58
20.81
20.28
18.96
16.96
14.43
11.61
8.66
5.7
2.8
-0.09
-2.94
-5.74
-8.39
-10.85
-13.02
-15.04
-17.09
-19.51
-22.65
-26.64
-31.45
-36.64
-41.45
-44.84
-45.87
-43.85
-38.61
-30.64
-20.92
-10.75
-1.24
6.86
13.24
17.97
21.25
23.32
24.31
24.44
23.93
23.23
22.8
22.98
23.92
25.51
27.53
29.59
31.45
32.98
34.16
35.06
35.63
35.81
35.43
34.28
32.18
29.15
25.4
21.24
17.08
13.21
9.78
6.67
3.66
0.47
-3
-6.71
-10.51
-14.13
-17.44
-20.31
-22.87
-25.26
-27.72
-30.51
-33.87
-37.96
-42.48
-46.83
-49.96
-50.75
-48.36
-42.51
-33.68
-22.9
-11.5
-0.6
9
17.01
23.45
28.45
32.07
34.3
35.11
34.69
33.42
31.87
30.67
30.31
30.93
32.4
34.35
36.43
38.39
40.11
41.51
42.48
42.85
42.39
41.03
38.78
35.87
32.61
29.29
26.08
23.06
20.17
17.35
14.62
12.07
9.81
7.89
6.19
4.53
2.59
0.07
-3.18
-7.06
-11.33
-15.66
-19.79
-23.62
-27.2
-30.74
-34.51
-38.81
-43.78
-49.29
-54.81
-59.4
-61.86
-61.08
-56.45
-48
-36.58
-23.6
-10.51
1.44
11.46
19.3
24.99
28.75
30.85
31.62
31.29
30.22
28.89
27.74
27.25
27.68
29.06
31.26
33.96
36.78
39.49
41.88
43.8
45.22
45.96
45.82
44.81
42.94
40.47
37.7
34.89
32.21
29.83
27.74
25.81
23.99
22.11
20.08
17.81
15.24
12.37
9.34
6.29
3.32
0.51
-2.26
-5.12
-8.18
-11.47
-14.9
-18.26
-21.34
-24.11
-26.67
-29.49
-32.96
-37.4
-43
-49.49
-56.23
-62.12
-65.94
-66.45
-62.94
-55.33
-44.26
-31.04
-17.18
-4.1
7.16
16.04
22.46
26.6
28.8
29.47
29.01
27.95
26.72
25.77
25.36
25.67
26.71
28.32
30.31
32.41
34.51
36.43
38.03
39.18
39.73
39.57
38.6
36.85
34.36
31.34
28.04
24.79
21.87
19.45
17.52
15.89
14.36
12.63
10.57
8.19
5.7
3.33
1.18
-0.75
-2.69
-4.75
-7.06
-9.65
-12.38
-15.15
-17.84
-20.41
-22.89
-25.36
-27.83
-30.46
-33.43
-37.04
-41.51
-46.68
-51.93
-56.14
-57.97
-56.33
-50.84
-41.88
-30.58
-18.46
-6.84
3.38
11.79
18.27
22.92
25.84
27.17
27.13
26.08
24.47
22.78
21.37
20.38
19.83
19.72
20.1
21.02
22.59
24.74
27.15
29.42
31.14
31.98
31.77
30.58
28.47
25.63
22.21
18.34
14.27
10.27
6.61
3.44
0.8
-1.43
-3.39
-5.32
-7.44
-9.79
-12.39
-15.11
-17.73
-20.01
-21.82
-23.2
-24.4
-25.8
-27.7
-30.41
-34.03
-38.28
-42.62
-46.26
-48.24
-47.73
-44.25
-37.75
-28.81
-18.42
-7.7
2.28
10.7
17.15
21.54
24.03
24.97
24.64
23.38
21.55
19.44
17.39
15.83
15.01
15.07
15.9
17.18
18.61
19.88
20.77
21.12
20.87
19.94
18.31
16
13.13
9.91
6.63
3.52
0.73
-1.67
-3.84
-5.94
-8.14
-10.52
-13.01
-15.49
-17.83
-19.94
-21.93
-24.07
-26.64
-29.91
-33.96
-38.57
-43.17
-46.82
-48.44
-47.2
-42.68
-35.13
-25.38
-14.61
-3.98
5.62
13.68
20.06
24.74
27.73
29.11
28.94
27.45
25.07
22.38
19.89
18.01
16.88
16.4
16.31
16.33
16.28
16.14
15.99
15.86
15.72
15.3
14.34
12.68
10.41
7.83
5.4
3.45
2.06
1.07
0.01
-1.52
-3.8
-6.83
-10.39
-14.09
-17.65
-20.86
-23.76
-26.56
-29.63
-33.28
-37.7
-42.8
-48.02
-52.46
-54.93
-54.42
-50.37
-42.92
-32.9
-21.59
-10.37
-0.34
7.8
13.86
18
20.52
21.83
22.33
22.3
22.02
21.67
21.41
21.37
21.62
22.2
23.03
23.91
24.69
25.19
25.34
25.17
24.74
24.04
22.98
21.41
19.21
16.43
13.34
10.21
7.35
4.93
2.9
1.15
-0.52
-2.42
-4.72
-7.54
-10.83
-14.42
-18.04
-21.42
-24.37
-26.83
-29
-31.14
-33.56
-36.47
-39.95
-43.79
-47.53
-50.41
-51.51
-50.12
-45.83
-38.82
-29.75
-19.69
-9.75
-0.81
6.64
12.5
16.84
19.91
21.87
22.94
23.3
23.24
23.08
23.11
23.51
24.32
25.57
27.07
28.73
30.48
32.17
33.73
34.9
35.49
35.26
34.07
31.82
28.62
24.69
20.38
16.1
12.1
8.63
5.76
3.52
1.81
0.54
-0.45
-1.34
-2.35
-3.76
-5.77
-8.48
-11.85
-15.73
-19.86
-23.93
-27.74
-31.11
-34.06
-36.81
-39.71
-43.15
-47.27
-51.82
-56.1
-59.01
-59.35
-56.29
-49.6
-39.85
-28.15
-15.86
-4.15
6.1
14.49
20.91
25.46
28.31
29.68
29.87
29.24
28.24
27.24
26.5
26.19
26.31
26.73
27.28
27.87
28.43
29.03
29.66
30.28
30.66
30.5
29.6
27.84
25.41
22.64
19.92
17.53
15.51
13.71
11.86
9.76
7.3
4.59
1.84
-0.68
-2.76
-4.4
-5.8
-7.31
-9.26
-11.85
-14.92
-18.15
-21.05
-23.28
-24.84
-26.01
-27.23
-28.98
-31.67
-35.38
-39.99
-44.99
-49.46
-52.37
-52.77
-49.99
-44.12
-35.86
-26.25
-16.45
-7.32
0.67
7.25
12.35
16.03
18.38
19.69
20.45
21.05
21.94
23.31
25.11
27.22
29.39
31.35
32.88
33.84
34.12
33.73
32.84
31.55
30.06
28.4
26.55
24.53
22.38
20.16
17.97
15.92
13.95
12
9.95
7.7
5.27
2.79
0.36
-1.83
-3.81
-5.65
-7.51
-9.61
-12.05
-14.81
-17.72
-20.56
-23.1
-25.27
-27.14
-28.94
-31.04
-33.84
-37.6
-42.28
-47.37
-51.86
-54.57
-54.36
-50.63
-43.54
-33.95
-23.14
-12.43
-2.77
5.36
11.82
16.69
20.07
21.98
22.51
21.8
20.26
18.34
16.54
15.24
14.63
14.81
15.71
17.19
19.04
21.14
23.28
25.33
27.07
28.3
28.84
28.48
27.13
24.81
21.72
18.14
14.47
11.03
8.03
5.43
3.05
0.65
-1.95
-4.77
-7.69
-10.44
-12.85
-14.9
-16.75
-18.67
-20.95
-23.8
-27.33
-31.59
-36.33
-41.06
-45.01
-47.17
-46.64
-42.83
-35.81
-26.27
-15.42
-4.51
5.34
13.47
19.61
23.73
25.92
26.25
24.94
22.3
18.81
15.03
11.59
8.96
7.35
6.77
7.09
8.13
9.75
11.82
14.11
16.31
18.11
19.2
19.4
18.66
17.16
15.12
12.75
10.21
7.45
4.4
1.01
-2.75
-6.8
-10.96
-15.03
-18.8
-22.1
-24.95
-27.47
-29.81
-32.2
-34.87
-37.9
-41.15
-44.11
-45.93
-45.7
-42.63
-36.42
-27.54
-16.98
-6.06
3.91
12.09
18.18
22.22
24.56
25.5
25.31
24.24
22.61
20.75
19.03
17.78
17.22
17.39
18.24
19.53
21.14
22.89
24.6
26.17
27.46
28.28
28.46
27.77
26.01
23.14
19.31
14.74
9.88
5.23
1.05
-2.51
-5.61
-8.56
-11.58
-14.73
-17.9
-20.78
-23.1
-24.79
-26.02
-27.12
-28.53
-30.69
-33.82
-37.92
-42.5
-46.7
-49.41
-49.57
-46.53
-40.33
-31.66
-21.61
-11.36
-1.82
6.44
13.16
18.32
22
24.33
25.61
26.14
26.25
26.19
26.08
25.92
25.72
25.54
25.43
25.54
26
26.79
27.87
29.06
30.14
30.95
31.37
31.22
30.39
28.79
26.34
23.07
19.14
14.81
10.38
6.17
2.28
-1.26
-4.53
-7.61
-10.6
-13.48
-16.16
-18.63
-20.93
-23.2
-25.56
-28.21
-31.28
-34.89
-39.04
-43.68
-48.5
-52.93
-56.07
-56.85
-54.47
-48.61
-39.61
-28.39
-16.27
-4.5
5.93
14.44
20.83
25.1
27.4
27.96
27.14
25.46
23.49
21.86
21
21.11
22.17
23.97
26.25
28.69
31.1
33.23
35.02
36.29
36.95
36.91
36.14
34.68
32.58
30.01
27.1
24.09
21.06
18.09
15.16
12.22
9.18
6.01
2.92
0.09
-2.28
-4.1
-5.53
-6.85
-8.41
-10.48
-13.12
-16.16
-19.35
-22.49
-25.44
-28.27
-31.11
-34.24
-37.82
-42
-46.64
-51.3
-55.14
-57.17
-56.46
-52.46
-45.2
-35.29
-23.82
-12
-0.94
8.62
16.25
21.84
25.49
27.49
28.15
27.81
26.82
25.46
24.08
22.93
22.22
22.02
22.33
23
23.95
25.11
26.42
27.82
29.11
30.11
30.54
30.26
29.22
27.45
25.11
22.32
19.24
15.97
12.6
9.19
5.72
2.21
-1.32
-4.73
-7.86
-10.49
-12.57
-14.16
-15.4
-16.45
-17.39
-18.22
-18.9
-19.53
-20.34
-21.75
-24.2
-28.04
-33.27
-39.45
-45.68
-50.66
-53.05
-51.89
-46.84
-38.4
-27.71
-16.23
-5.26
4.24
11.84
17.44
21.06
22.79
22.8
21.48
19.29
16.91
14.94
13.79
13.57
14.17
15.31
16.83
18.64
20.7
22.93
25.07
26.79
27.65
27.36
25.76
23.06
19.51
15.55
11.53
7.78
4.52
1.78
-0.49
-2.52
-4.52
-6.76
-9.33
-12.18
-15.04
-17.72
-20.02
-21.9
-23.55
-25.23
-27.25
-29.79
-32.8
-35.87
-38.34
-39.36
-38.14
-34.22
-27.7
-19.21
-9.8
-0.57
7.51
13.88
18.39
21.1
22.27
22.09
20.84
18.8
16.4
14.09
12.31
11.48
11.77
13.13
15.4
18.17
21.05
23.67
25.73
27.09
27.74
27.68
26.85
25.23
22.74
19.51
15.81
12.05
8.61
5.75
3.41
1.35
-0.77
-3.19
-5.95
-8.88
-11.74
-14.32
-16.5
-18.36
-20.17
-22.24
-24.93
