35.37
37.36
37.35
34.63
28.84
20.35
9.91
-1.56
-13.51
-25.71
-37.96
-49.57
-59.21
-65.23
-66.5
-62.89
-55.28
-44.88
-32.33
-17.4
0.31
20.25
39.96
55.31
61.94
57.18
41.41
18.09
-7.76
-31.47
-50.27
-63.65
-72.57
-78.29
-81.42
-81.76
-78.85
-72.83
-64.72
-56.17
-48.7
-43.06
-38.94
-35.53
-32.41
-30.04
-29.7
-32.49
-38.19
-44.6
-48.07
-45.1
-34.29
-17.74
-0.87
9.42
7.64
-7.95
-34.31
-64.89
-92.18
-110.61
-118.21
-116.54
-108.99
-98.75
-87.51
-75.51
-62.59
-49.31
-37.38
-28.88
-25.19
-26.01
-29.34
-32.27
-32.49
-29.27
-23.77
-18.24
-14.89
-14.68
-16.99
-20.11
-22.16
-22.1
-20.05
-17.05
-14.17
-11.95
-9.99
-7.23
-2.52
4.67
13.98
24.28
34.02
42
47.68
51.35
53.91
56.43
59.69
63.92
68.79
73.56
77.38
79.4
78.94
75.59
69.52
61.65
53.6
47.23
43.89
43.77
45.6
47.09
45.85
40.37
30.48
17.37
2.79
-11.73
-25.34
-37.98
-50
-61.69
-73.05
-83.79
-93.63
-102.44
-110.41
-117.82
-124.69
-130.48
-134.02
-133.83
-128.6
-117.84
-102.16
-83.22
-63.23
-44.32
-28.05
-15.24
-6.01
0.12
4.03
6.98
10.28
14.96
21.18
27.92
33.21
34.84
31.39
23
11.48
-0.31
-9.65
-15
-16.5
-15.67
-14.59
-14.8
-16.79
-19.87
-22.86
-24.62
-24.56
-22.72
-19.66
-16.4
-14.2
-14.25
-17.05
-21.7
-25.63
-25.07
-16.6
1.26
26.93
56.24
84.27
107.43
124.81
137.85
148.88
159.21
168.34
174.36
175.42
171.07
162.63
152.61
143.22
135.3
127.98
119.38
107.72
92.36
73.99
54.18
34.57
16.11
-1
-17.02
-32.04
-45.58
-56.59
-63.94
-67.06
-66.18
-62.54
-57.89
-53.99
-52.09
-52.53
-54.73
-57.39
-58.96
-58
-53.74
-46.13
-35.72
-23.49
-10.37
2.84
15.5
27.02
36.75
43.96
48.06
48.85
46.51
41.51
34.26
24.96
13.55
-0.14
-16.12
-34.03
-53.01
-71.78
-88.75
-102.41
-111.55
-115.48
-114.2
-108.39
-99.32
-88.7
-78.4
-70
-64.62
-62.69
-64
-67.85
-73.11
-78.36
-81.92
-82.02
-77.14
-66.45
-50.38
-30.77
-10.44
7.55
20.81
28.29
30.54
29.42
27.72
28.31
33.17
42.74
55.66
69.25
80.54
87.54
89.76
88.28
84.78
80.73
76.83
73.06
69.18
65.09
60.97
56.88
52.48
46.84
38.75
27.22
12.01
-6.11
-25.5
-44.03
-59.65
-70.84
-76.9
-77.93
-74.57
-67.86
-59.02
-49.35
-40.22
-32.83
-28.02
-26.02
-26.48
-28.63
-31.56
-34.55
-37.2
-39.45
-41.38
-43.02
-44.15
-44.36
-43.09
-39.9
-34.64
-27.6
-19.43
-11.02
-3.19
3.59
9.19
13.76
17.49
20.41
22.3
22.91
22.19
20.41
18.26
16.7
16.6
18.56
22.75
29.08
37.38
47.64
59.92
74.11
89.6
105.01
118.43
127.92
132.08
130.58
124.2
114.35
102.53
89.86
76.9
63.98
51.35
39.41
28.53
18.86
10.17
2.03
-5.9
-13.6
-20.54
-26.03
-29.47
-30.7
-30.08
-28.29
-26.17
-24.3
-23.09
-22.63
-22.8
-23.37
-24.03
-24.43
-24.39
-23.86
-22.97
-22.03
-21.34
-21.09
-21.27
-21.72
-22.07
-21.89
-20.75
-18.36
-14.64
-9.74
-4.04
2.04
8.15
14.15
20.06
25.92
31.66
36.94
41.37
44.61
46.6
47.54
47.78
47.64
47.26
46.66
45.71
44.41
42.83
41.23
39.84
38.8
38.06
37.28
35.96
33.63
30.03
25.2
19.54
13.48
7.35
1.27
-4.81
-10.85
-16.63
-21.72
-25.65
-28.12
-29.14
-29.01
-28.17
-27.09
-26.08
-25.31
-24.78
-24.35
-23.84
-22.99
-21.67
-19.82
-17.55
-15.04
-12.52
-10.2
-8.26
-6.89
-6.23
-6.45
-7.58
-9.53
-12.07
-14.8
-17.36
-19.4
-20.81
-21.63
-22.08
-22.4
-22.74
-23.18
-23.7
-24.31
-25.05
-26.02
-27.2
-28.47
-29.53
-29.94
-29.35
-27.58
-24.74
-21.18
-17.36
-13.66
-10.32
-7.45
-5.07
-3.31
-2.22
-1.9
-2.3
-3.24
-4.42
-5.5
-6.22
-6.48
-6.31
-5.74
-4.76
-3.34
-1.42
0.98
3.8
6.85
10.03
13.26
16.55
19.98
23.54
27.14
30.58
33.63
36.1
38.06
39.79
41.74
44.4
48.01
52.44
57.1
61.08
63.5
63.88
62.25
59.15
55.29
51.23
47.15
42.96
38.41
33.41
28.04
22.43
16.64
10.76
5.01
-0.09
-3.83
-5.59
-5.33
-3.77
-2.2
-1.86
-3.4
-6.48
-10.02
-12.86
-14.39
-14.89
-15.38
-17.04
-20.64
-26.17
-32.98
-40.11
-46.85
-52.94
-58.63
-64.36
-70.55
-77.36
-84.68
-92.05
-98.66
-103.41
-105.06
-102.39
-94.76
-82.44
-66.73
-49.78
-34.02
-21.39
-12.89
-8.35
-6.68
-6.29
-5.7
-3.86
-0.31
4.8
10.87
16.9
21.53
23.35
21.32
15.4
6.81
-2.07
-8.49
-10.17
-6.13
3.18
16.19
30.9
45.51
58.68
69.49
77.26
81.48
81.82
78.37
71.84
63.46
54.67
46.52
39.14
31.49
21.77
8.21
-9.9
-31.6
-54.27
-74.27
-87.84
-91.95
-85.03
-67.37
-41.21
-10.59
19.41
43.69
58.44
62.07
55.48
41.59
24.23
7.12
-6.92
-16.33
-20.69
-20.56
-17.17
-12.13
-7.05
-3.12
-0.78
0.28
0.89
2.09
4.57
8.44
13.12
17.56
20.54
21.07
18.79
14.2
8.86
5.08
5.3
11.18
22.73
37.94
53.39
65.35
71.17
70.06
63.21
52.91
41.48
30.53
20.71
12.16
4.94
-0.73
-4.51
-6.32
-6.53
-5.94
-5.49
-5.83
-7.18
-9.24
-11.58
-13.83
-15.91
-17.86
-19.68
-21.05
-21.37
-19.96
-16.38
-10.78
-3.91
3.01
8.74
12.45
14.02
13.94
12.95
11.59
9.86
7.18
2.66
-4.39
-14.07
-25.75
-38.21
-49.99
-59.78
-66.67
-70.15
-70.13
-66.95
-61.35
-54.45
-47.54
-41.82
-38.08
-36.55
-36.89
-38.32
-39.88
-40.73
-40.29
-38.29
-34.83
-30.22
-24.93
-19.51
-14.35
-9.72
-5.69
-2.18
0.95
3.73
6.03
7.58
8.07
7.29
5.3
2.46
-0.57
-3.01
-4.13
-3.54
-1.13
2.76
7.5
12.35
16.54
19.58
21.21
21.56
20.95
19.8
18.43
16.97
15.41
13.67
11.72
9.66
7.73
6.18
5.19
4.72
4.59
4.58
4.48
4.26
3.99
3.82
3.93
4.41
5.31
6.67
8.54
10.93
13.78
16.89
19.93
22.54
24.35
25.12
24.65
22.9
19.82
15.53
10.39
4.98
0.1
-3.45
-5.16
-4.92
-3.03
-0.04
3.43
6.88
9.97
12.55
14.6
16.28
17.74
19.09
20.13
20.4
19.25
16.17
11.08
4.41
-3.08
-10.72
-18.15
-25.45
-33
-40.99
-49.36
-57.65
-65.2
-71.32
-75.5
-77.44
-77.06
-74.54
-70.19
-64.44
-57.6
-49.88
-41.4
-32.46
-23.63
-15.8
-10
-7.02
-7.14
-9.99
-14.59
-19.45
-22.81
-22.87
-18.07
-7.71
7.8
26.87
47.14
66.12
81.78
92.86
98.79
99.56
95.59
87.72
77.2
65.64
54.85
46.47
41.67
40.9
43.8
49.27
55.64
61.05
63.87
63.15
58.83
51.65
42.82
33.48
24.34
15.59
6.96
-1.95
-11.37
-21.27
-31.34
-41.24
-50.64
-59.42
-67.46
-74.48
-80.05
-83.69
-85.18
-84.69
-82.82
-80.31
-77.71
-75.11
-72.25
-68.67
-63.95
-57.86
-50.34
-41.49
-31.56
-21.03
-10.58
-0.99
7.12
13.5
18.32
22.11
25.43
28.62
31.72
34.53
36.83
38.55
39.83
40.91
41.97
42.99
43.8
44.11
43.63
42.23
39.87
36.64
32.71
28.27
23.51
18.59
13.6
8.41
2.67
-4.11
-12.42
-22.42
-33.78
-45.57
-56.53
-65.4
-71.32
-74.04
-73.93
-71.74
-68.22
-63.94
-59.19
-54.01
-48.26
-41.76
-34.31
-25.75
-16.06
-5.44
5.59
16.31
25.9
33.63
39.09
42.2
43.2
42.57
40.92
38.84
36.89
35.49
34.88
35.05
35.78
36.64
37.15
36.93
35.81
33.96
31.78
29.78
28.37
27.72
27.73
28.11
28.55
28.76
28.67
28.32
27.77
27.08
26.24
25.12
23.6
21.58
19.2
16.84
15.12
14.47
14.85
15.52
15.15
12.4
6.61
-1.61
-10.41
-17.27
-19.98
-17.47
-10.16
0.25
11.62
22.12
30.66
36.86
40.71
42.25
41.46
38.45
33.61
27.67
21.47
15.63
10.37
5.55
0.93
-3.59
-7.89
-11.71
-14.79
-17.05
-18.61
-19.74
-20.62
-21.37
-21.81
-21.69
-20.68
-18.66
-15.77
-12.39
-8.93
-5.66
-2.67
-0.1
1.64
1.73
-0.68
-5.86
-12.96
-20.01
-24.67
-25.2
-21.37
-14.54
-7
-0.89
2.53
3.24
2
-0.19
-2.56
-4.73
-6.55
-7.93
-8.75
-8.93
-8.57
-7.93
-7.35
-7.02
-6.9
-6.72
-6.06
-4.62
-2.37
0.48
3.5
6.32
8.76
10.81
12.6
14.21
15.52
16.28
16.23
15.25
13.5
11.29
8.88
6.37
3.62
0.48
-3.11
-6.93
-10.59
-13.7
-16.04
-17.66
-18.85
-20.01
-21.48
-23.38
-25.66
-28.13
-30.44
-32.12
-32.72
-31.81
-29.19
-24.95
-19.48
-13.39
-7.28
-1.69
3.02
6.7
9.34
11.01
11.79
11.69
10.68
8.91
6.63
4.29
2.4
1.38
1.41
2.36
3.87
5.49
6.91
7.96
8.65
9.09
9.34
9.36
8.96
7.92
5.94
2.97
-0.86
-5.11
-9.16
-12.43
-14.56
-15.57
-15.83
-15.93
-16.44
-17.64
-19.46
-21.39
-22.69
-22.61
-20.61
-16.52
-10.72
-3.92
2.89
8.81
13.23
15.9
16.97
16.88
16.13
15.11
14.04
12.96
11.8
10.55
9.29
8.15
7.31
6.85
6.66
6.54
6.24
5.62
4.75
3.85
3.24
3.16
3.62
4.35
4.93
4.88
3.87
1.83
-0.94
-3.78
-5.85
-6.35
-4.81
-1.28
3.54
8.5
12.27
13.81
12.66
9.11
4.09
-1.15
-5.44
-7.98
-8.53
-7.4
-5.25
-2.9
-1.03
-0.09
-0.2
-1.23
-2.85
-4.57
-5.86
-6.29
-5.56
-3.7
-0.96
2.27
5.76
9.49
13.69
18.75
24.98
32.46
40.9
49.61
57.62
63.72
66.71
65.64
60.18
50.79
38.77
26.01
14.43
5.41
-0.6
-4.22
-6.87
-10.25
-15.79
-24.19
-35.25
-48
-61.02
-72.9
-82.43
-88.76
-91.34
-89.97
-84.73
-76.13
-65.09
-52.85
-40.67
-29.64
-20.42
-13.33
-8.43
-5.6
-4.57
-4.95
-6.2
-7.71
-9
-9.73
-9.69
-8.7
-6.5
-2.84
2.37
8.84
15.82
22.22
26.99
29.4
29.25
26.85
22.81
17.81
12.45
7.18
2.36
-1.74
-4.97
-7.35
-9.05
-10.4
-11.73
-13.24
-14.94
-16.67
-18.2
-19.4
-20.31
-21.07
-21.84
-22.58
-22.98
-22.53
-20.64
-16.97
-11.66
-5.3
1.2
6.94
11.41
14.56
16.76
18.53
20.19
21.76
22.93
23.46
23.24
22.54
21.78
21.34
21.38
21.75
22.14
22.28
22.05
21.53
20.95
20.49
20.21
20.05
19.87
19.58
19.22
18.98
19.13
19.88
21.26
22.93
24.19
24.18
22.19
17.94
11.89
5.03
-1.35
-6.16
-8.82
-9.37
-8.36
-6.5
-4.47
-2.7
-1.34
-0.35
0.43
1.22
2.15
3.23
4.37
5.26
5.6
5.18
4.07
2.57
1.14
0.17
-0.2
-0.08
0.24
0.54
0.8
1.3
2.35
4.12
6.42
8.77
10.6
11.49
11.33
10.22
8.3
5.53
1.62
-3.74
-10.65
-18.68
-26.92
-34.11
-39.02
-40.91
-39.67
-35.87
-30.5
-24.64
-19.08
-14.11
-9.51
-4.82
0.36
6.16
12.29
18.29
23.59
27.94
31.36
34.25
37.12
40.37
44.13
48.21
52.21
55.71
58.54
60.76
62.63
64.44
66.24
67.75
68.4
67.44
64.14
57.93
48.58
36.3
21.89
6.74
-7.42
-18.88
-26.58
-30.41
-31.34
-31.06
-31.39
-33.49
-37.65
-43.23
-49.16
-54.53
-58.92
-62.48
-65.57
-68.35
-70.56
-71.63
-71.04
-68.74
-65.4
-61.96
-59.3
-57.68
-56.56
-54.92
-51.88
-47.13
-41.22
-35.36
-30.81
-28.43
-28.32
-29.86
-32.1
-34.3
-36.22
-38.12
-40.38
-43.08
-45.71
-47.31
-46.79
-43.44
-37.24
-28.82
-19.08
-8.88
1.3
11.27
20.94
30.11
38.36
45.24
50.41
53.72
55.23
55.16
53.7
50.98
47.07
41.97
35.76
28.68
21.1
13.51
6.51
0.75
-3.29
-5.4
-5.8
-5.16
-4.41
-4.48
-5.86
-8.5
-11.65
-14.13
-14.71
-12.56
-7.56
-0.32
7.99
16.06
22.71
27.17
29.25
29.28
27.86
25.74
23.57
21.78
20.62
20.12
20.21
20.79
21.78
23.12
24.81
26.91
29.46
32.48
35.85
39.32
42.54
45.17
46.98
47.88
47.91
47.23
46.06
44.63
43.14
41.75
40.46
39.1
37.34
34.74
30.94
25.75
19.27
11.87
4.13
-3.33
-9.99
-15.57
-20.12
-23.91
-27.34
-30.74
-34.37
-38.34
-42.76
-47.63
-52.92
-58.32
-63.17
-66.56
-67.55
-65.57
-60.64
-53.44
-45.04
-36.53
-28.66
-21.69
-15.55
-10.04
-5.09
-0.71
2.98
5.92
8.13
9.79
11.21
12.73
14.62
16.96
19.61
22.23
24.39
25.71
26.01
25.36
23.95
22
19.62
16.81
13.58
9.99
6.22
2.41
-1.32
-5.12
-9.19
-13.68
-18.45
-22.96
-26.42
-28.1
-27.8
-25.98
-23.67
-22.04
-21.92
-23.47
-26.18
-29.02
-30.88
-30.91
-28.73
-24.5
-18.83
-12.55
-6.47
-1.25
2.79
5.59
7.31
8.2
8.51
8.36
7.81
6.86
5.48
3.76
1.94
0.44
-0.2
0.5
2.77
6.55
11.46
16.9
22.21
26.76
29.96
31.32
30.48
27.27
21.88
14.77
6.69
-1.6
-9.46
-16.48
-22.45
-27.27
-30.89
-33.3
-34.57
-34.87
-34.51
-33.93
-33.64
-34.16
-35.94
-39.13
-43.52
-48.43
-52.82
-55.53
-55.69
-52.98
-47.77
-40.86
-33.23
-25.61
-18.38
-11.53
-4.89
1.69
8.21
14.48
20.25
25.37
29.85
33.8
37.39
40.7
43.69
46.32
48.5
50.17
51.29
51.77
51.51
50.44
48.65
46.36
43.88
41.48
39.22
37.07
34.84
32.51
30.15
28
26.28
25.06
24.18
23.32
22.16
20.5
18.4
16.06
13.83
11.89
10.32
8.98
7.68
6.21
4.39
2.17
-0.53
-3.72
-7.26
-10.75
-13.49
-14.62
-13.47
-9.81
-4.01
3.13
10.66
17.74
23.93
29.04
32.91
35.28
35.73
33.89
29.71
23.62
16.54
9.57
3.71
-0.37
-2.45
-2.75
-1.75
-0.01
2.03
4.11
6.25
8.67
11.68
15.53
20.16
25.04
29.26
31.62
31.03
26.82
19.05
8.58
-3.18
-14.73
-24.83
-32.91
-39.01
-43.53
-46.95
-49.54
-51.34
-52.3
-52.51
-52.21
-51.77
-51.59
-51.89
-52.66
-53.67
-54.51
-54.6
-53.36
-50.29
-45.09
-37.92
-29.26
-19.98
-11.14
-3.83
1.14
3.38
3.12
1.14
-1.53
-3.97
-5.88
-7.57
-9.71
-12.67
-16.01
-18.39
-18.2
-14.4
-7.18
1.94
10.67
16.9
19.31
17.69
12.69
5.64
-1.83
-7.87
-10.84
-9.58
-3.72
6.01
18.09
30.64
41.97
50.73
56.1
57.59
55.12
49.01
40.03
29.44
18.6
8.73
0.53
-5.93
-11.13
-15.75
-20.44
-25.45
-30.52
-34.98
-37.93
-38.67
-36.93
-32.99
-27.6
-21.7
-16.15
-11.48
-7.93
-5.45
-3.85
-2.92
-2.45
-2.35
-2.5
-2.75
-2.95
-2.97
-2.68
-2.04
-1.08
0.12
1.38
2.56
3.53
4.24
4.73
5.19
5.95
7.44
10.07
14
19.11
24.88
30.53
35.28
38.51
39.9
39.43
37.31
33.89
29.59
24.87
20.14
15.74
11.84
8.42
5.24
1.98
-1.64
-5.71
-10.04
-14.18
-17.44
-19.17
-18.88
-16.4
-12
-6.34
-0.3
5.2
9.49
12.3
13.78
14.36
14.55
14.7
14.87
14.9
14.64
14.03
13.23
12.5
12.05
11.96
12.08
12.2
12.16
11.93
11.58
11.26
11.02
10.79
10.46
9.92
9.15
8.22
7.22
6.17
5.1
3.91
2.53
0.94
-0.81
-2.62
-4.37
-6.03
-7.65
-9.36
-11.37
-13.93
-17.13
-20.87
-24.73
-28.05
-30.07
-30.12
-27.92
-23.69
-18.11
-12.06
-6.37
-1.54
2.38
5.54
8.2
10.49
12.39
13.77
14.59
14.88
14.82
14.59
14.24
13.79
13.24
12.76
12.72
13.48
15.23
17.8
20.72
23.44
25.57
27.04
27.99
28.56
28.67
27.97
26.02
22.51
17.36
10.67
2.68
-6.39
-16.16
-26.09
-35.38
-43.15
-48.76
-52.03
-53.3
-53.17
-52.2
-50.66
-48.44
-45.31
-41.07
-35.69
-29.34
-22.27
-14.71
-6.84
1.23
9.42
17.57
25.38
32.38
37.97
41.56
42.8
41.72
38.64
34.16
28.83
23.11
17.4
12.09
7.58
4.2
2.04
0.82
-0.01
-1.07
-2.81
-5.42
-8.83
-12.91
-17.55
-22.7
-28.36
-34.51
-40.97
-47.57
-54.06
-60.33
-66.28
-71.83
-76.84
-81.01
-83.9
-84.93
-83.7
-79.96
-73.88
-65.98
-57.1
-48.21
-40.22
-33.72
-28.93
-25.65
-23.33
-21.34
-19.21
-16.85
-14.59
-12.99
-12.49
-13.22
-14.83
-16.64
-17.89
-18.07
-17
-14.94
-12.41
-10.01
-8.18
-7
-5.96
-3.99
0.35
8.59
21.77
39.98
62.02
85.45
106.94
123.02
131.02
129.87
120.47
105.44
88.17
71.63
57.52
46.07
36.6
28.44
21.55
16.66
14.59
15.64
19.24
24.17
29.24
33.81
37.83
41.42
44.26
45.42
43.8
38.64
30.16
19.38
7.63
-4.16
-15.9
-28.03
-40.9
-54.2
-66.93
-77.73
-85.64
-90.43
-92.62
-93
-92.18
-90.38
-87.57
-83.78
-79.22
-74.2
-68.92
-63.31
-57.1
-50
-41.92
-33.02
-23.66
-14.25
-5.24
2.96
9.96
15.48
19.41
21.88
23.19
23.64
23.45
22.67
21.29
19.41
17.3
15.38
14.01
13.36
13.24
13.22
12.74
11.47
9.37
6.76
4.13
1.89
0.22
-1.04
-2.23
-3.79
-6.06
-9.11
-12.72
-16.38
-19.35
-20.94
-20.55
-18.03
-13.69
-8.27
-2.7
2.28
6.23
9.29
11.83
14.44
17.54
21.23
25.32
29.38
32.96
35.74
37.59
38.57
38.94
38.99
39.01
39.16
39.45
39.67
39.39
38.06
35.12
30.25
23.44
15.1
6.04
-2.82
-10.61
-16.68
-20.8
-23.15
-24.26
-24.8
-25.44
-26.56
-28.2
-29.92
-30.96
-30.34
-27.21
-21
-11.65
0.37
14.16
28.47
42.01
53.67
62.72
68.83
72.02
72.24
69.23
62.42
51.31
36
17.67
-1.44
-18.56
-31.28
-38.37
-40.17
-38.14
-34.22
-29.97
-26.15
-22.87
-19.92
-17.25
-15.05
-13.61
-13.07
-13.22
-13.52
-13.44
-12.71
-11.48
-10.26
-9.67
-10.09
-11.44
-13.26
-14.87
-15.69
-15.52
-14.61
-13.43
-12.5
-12.05
-11.94
-11.88
-11.62
-11.29
-11.39
-12.53
-14.97
-18.3
-21.43
-22.87
-21.41
-16.62
-9.04
0.03
9.05
16.82
22.78
27.03
30.12
32.63
34.93
37.13
39.16
40.95
42.53
43.97
45.27
46.23
46.46
45.5
43.13
39.52
35.26
31.21
28.03
26.01
24.91
24.22
23.45
22.43
21.31
20.4
19.93
19.81
19.74
19.3
18.24
16.55
14.38
11.95
9.34
6.55
3.49
0.24
-3.04
-6.06
-8.58
-10.52
-11.99
-13.25
-14.57
-16.17
-18.12
-20.47
-23.26
-26.45
-29.86
-32.99
-35.09
-35.29
-33
-28.11
-21.26
-13.55
-6.24
-0.25
4.14
7.19
9.52
11.69
13.98
16.34
18.49
20.22
21.46
22.3
22.83
23.08
22.95
22.33
21.24
19.85
18.52
17.53
17.02
16.84
16.74
16.45
15.82
14.94
13.97
13.11
12.44
12.02
11.77
11.62
11.43
11.04
10.32
9.23
7.84
6.33
4.88
3.59
2.39
1.06
-0.61
-2.74
-5.28
-8.05
-10.85
-13.43
-15.69
-17.62
-19.33
-21.01
-22.88
-25.07
-27.51
-29.76
-31.18
-31.02
-28.78
-24.46
-18.59
-12.14
-6.09
-1.19
2.31
4.6
6.12
7.33
8.52
9.74
10.89
11.8
12.47
12.95
13.36
13.76
14.14
14.4
14.5
14.46
14.39
14.46
14.72
15.03
15.15
14.84
14.01
12.74
11.26
9.84
8.67
7.81
7.22
6.82
6.55
6.33
6.09
5.75
5.2
4.38
3.2
1.67
-0.18
-2.35
-4.77
-7.33
-9.84
-12.09
-13.84
-15.02
-15.68
-16.12
-16.72
-17.9
-19.82
-22.47
-25.48
-28.24
-29.99
-30.06
-28.08
-24.08
-18.55
-12.21
-5.84
-0.1
4.7
8.52
11.59
14.23
16.82
19.68
22.96
26.63
30.51
34.27
37.69
40.63
43
44.74
45.74
45.88
45.15
43.73
41.94
40.06
38.1
35.57
31.71
25.64
16.91
5.72
-7.09
-20.21
-32.35
-42.55
-50.35
-55.72
-58.91
-60.33
-60.44
-59.92
-59.55
-60.17
-62.28
-65.97
-70.78
-75.88
-80.45
-83.9
-85.98
-86.67
-86.09
-84.28
-81.33
-77.34
-72.55
-67.22
-61.5
-55.41
-48.8
-41.44
-33.16
-23.93
-13.94
-3.54
6.73
16.42
25.2
32.95
39.88
46.26
52.32
58.05
63.14
67.11
69.5
70.1
68.99
66.53
63.12
59.11
54.72
50.12
45.45
40.92
36.69
32.79
29.19
25.76
22.39
19.07
15.92
13.09
10.76
8.98
7.71
6.85
6.27
5.85
5.51
5.2
4.9
4.58
4.17
3.58
2.74
1.69
0.59
-0.36
-1.03
-1.4
-1.55
-1.5
-1.1
-0.02
2.07
5.29
9.38
13.63
17.15
19.23
19.58
18.49
16.63
14.79
13.5
12.87
12.61
12.23
11.29
9.72
7.82
6.21
5.57
6.37
8.64
12
15.68
18.77
20.45
20.19
17.82
13.67
8.49
3.25
-1.07
-3.83
-4.93
-4.88
-4.53
-4.85
-6.47
-9.56
-13.82
-18.74
-23.7
-28.28
-32.25
-35.51
-38.02
-39.73
-40.58
-40.65
-40.17
-39.46
-38.9
-38.72
-38.92
-39.28
-39.52
-39.47
-39.23
-39.03
-38.98
-38.88
-38.17
-36.17
-32.5
-27.28
-21.28
-15.41
-10.32
-5.87
-1.12
5.3
14.64
27.29
42.59
58.83
73.94
86.14
94.66
99.88
103.18
106.39
111.06
118.03
127.15
137.21
146.23
151.8
151.66
144.45
130.61
112.85
95.9
85.3
85.25
96.9
117.52
141.49
162.58
176.49
182.2
181.69
178.34
174.83
172.04
169.08
164.47
157.27
147.82
137.34
127.17
118.04
110
102.86
96.71
91.98
88.95
86.9
83.58
75.66
59.98
35.2
2.85
-33.02
-67.52
-96.85
-119.86
-138.04
-154.43
-171.88
-192.02
-214.84
-239.21
-263.61
-286.54
-306.56
-322.46
-333.38
-339.16
-340.67
-339.58
-337.78
-336.51
-335.76
-334.35
-330.67
-323.65
-313.36
-301.08
-288.61
-277.28
-267.19
-257.08
-245.01
-229.27
-209.19
-185.5
-159.86
-134.16
-109.84
-87.6
-67.49
-49.45
-33.64
-20.5
-10.57
-4.14
-0.9
0.12
0.23
0.8
2.85
6.81
12.57
19.67
27.43
35.26
42.64
49.18
54.48
58.22
60.21
60.45
59.27
57.19
54.91
53.05
52.01
51.89
52.51
53.47
54.21
54.16
52.89
50.29
46.58
42.33
38.17
34.61
31.78
29.49
27.3
24.78
21.66
17.92
13.75
9.42
5.2
1.24
-2.4
-5.82
-9.2
-12.75
-16.61
-20.76
-24.95
-28.67
-31.2
-31.78
-29.85
-25.23
-18.24
-9.63
-0.45
8.28
15.85
21.97
26.77
30.61
33.87
36.83
39.54
41.92
43.82
45.15
45.89
46.14
46.04
45.73
45.3
44.84
44.41
44.1
43.91
43.69
43.14
41.81
39.34
35.6
30.76
25.27
19.65
14.27
9.26
4.52
-0.1
-4.71
-9.24
-13.66
-17.93
-22.11
-26.44
-31.19
-36.65
-43.06
-50.41
-58.37
-66.22
-72.85
-77.06
-77.91
-75.07
-68.88
-60.27
-50.36
-40.1
-30.08
-20.48
-11.26
-2.29
6.58
15.49
24.62
34.19
44.26
54.72
65.17
74.99
83.44
89.87
93.89
95.41
94.78
92.58
89.57
86.48
83.67
81.19
78.66
75.53
71.35
66.06
59.99
53.72
47.78
42.43
37.53
32.68
27.45
21.44
14.49
6.54
-2.32
-11.86
-21.68
-31.23
-39.95
-47.41
-53.49
-58.38
-62.42
-65.84
-68.5
-69.81
-68.94
-65.13
-58.1
-48.22
-36.54
-24.43
-13.17
-3.53
4.34
10.87
16.71
22.4
28.1
33.57
38.3
41.88
44.14
45.3
45.8
46.11
46.52
47.08
47.69
48.29
48.85
49.44
50.05
50.51
50.5
49.68
47.87
45.16
41.87
38.48
35.38
32.77
30.62
28.71
26.77
24.54
21.86
18.73
15.29
11.72
8.25
5.01
2.01
-0.84
-3.66
-6.57
-9.66
-13.02
-16.77
-20.97
-25.55
-30.14
-34.12
-36.69
-37.13
-35.01
-30.41
-23.86
-16.18
-8.25
-0.78
5.77
11.3
15.93
19.91
23.5
26.82
29.77
32.18
33.8
34.52
34.39
33.66
32.6
31.45
30.28
29.04
27.65
25.99
24.05
21.81
19.26
16.32
12.94
9.07
4.74
0.12
-4.52
-8.79
-12.29
-14.68
-15.89
-16.08
-15.69
-15.27
-15.35
-16.35
-18.38
-21.32
-24.72
-27.86
-29.92
-30.15
-28.08
-23.73
-17.59
-10.48
-3.29
3.28
8.88
13.5
17.35
20.7
23.83
26.94
30.19
33.6
37.08
40.46
43.5
46
47.82
48.87
49.14
48.54
46.95
44.2
40.11
34.66
27.9
20.05
11.48
2.68
-5.71
-13.03
-18.66
-22.21
-23.58
-22.98
-20.97
-18.29
-15.71
-13.85
-13.11
-13.62
-15.25
-17.67
-20.46
-23.15
-25.21
-26.2
-25.73
-23.63
-19.95
-15.03
-9.35
-3.43
2.31
7.68
12.66
17.34
21.77
25.87
29.39
31.97
33.36
33.48
32.6
31.15
29.76
28.92
28.96
29.97
31.85
34.4
37.31
40.27
42.98
45.27
47.16
48.96
51.15
54.23
58.55
64.03
70.19
76.27
81.58
85.95
89.88
94.56
101.41
111.61
125.64
143.01
162.52
182.65
202.25
220.93
239.19
258.05
278.53
300.87
324.1
345.82
362.51
370.34
366.1
348.14
316.89
274.76
225.5
173.28
121.83
73.73
30.29
-8.34
-42.87
-74.45
-104.14
-132.5
-159.19
-182.84
-201.64
-213.98
-219.26
-218.33
-213.28
-206.64
-200.61
-196.34
-193.81
-192.22
-190.46
-187.58
-183.06
-176.79
-169.01
-160.2
-150.92
-141.66
-132.82
-124.57
-116.93
-109.84
-103.16
-96.87
-91.12
-86.32
-83.11
-82.15
-83.86
-88.15
-94.41
-101.61
-108.57
-114.39
-118.42
-120.36
-120.21
-118.06
-114.12
-108.66
-101.87
-93.86
-84.64
-74.09
-62.09
-48.71
-34.19
-19.04
-3.88
10.6
23.71
34.73
42.98
47.92
49.25
47.13
42.14
35.13
26.96
18.2
9.05
-0.54
-10.7
-21.35
-32.23
-42.85
-52.7
-61.34
-68.32
-73.29
-75.89
-75.93
-73.41
-68.58
-61.95
-54.13
-45.74
-37.29
-29.25
-21.96
-15.73
-10.77
-7.2
-5.05
-4.24
-4.56
-5.68
-7.12
-8.48
-9.61
-10.78
-12.61
-15.91
-21.18
-28.37
-36.78
-45.27
-52.68
-58.16
-61.38
-62.47
-61.88
-60.1
-57.61
-54.76
-51.86
-49.14
-46.75
-44.79
-43.24
-42.04
-41.1
-40.42
-40.03
-40.12
-40.89
-42.54
-45.18
-48.77
-53.17
-58.2
-63.68
-69.51
-75.68
-82.25
-89.35
-97.11
-105.56
-114.6
-123.91
-132.92
-140.85
-146.86
-150.17
-150.2
-146.72
-139.76
-129.7
-117.24
-103.33
-89.12
-75.81
-64.49
-55.76
-49.69
-45.69
-42.73
-39.72
-35.76
-30.37
-23.46
-15.09
-5.29
6.03
18.97
33.47
49.02
64.69
79.26
91.59
100.99
107.39
111.29
113.57
115.09
116.42
117.78
119.03
119.87
120
119.1
116.94
113.37
108.28
101.74
93.99
85.39
76.35
67.16
58.02
49.03
40.31
31.99
24.25
17.16
10.61
4.43
-1.7
-8.01
-14.65
-21.6
-28.63
-35.25
-40.77
-44.37
-45.3
-43.15
-38.02
-30.57
-21.82
-12.81
-4.28
3.45
10.46
17.09
23.58
29.87
35.57
40.04
42.79
43.78
43.55
43.21
44.04
47.03
52.58
60.45
69.91
80.07
90.09
99.32
107.3
113.84
118.93
122.87
126.11
129.09
132.06
135
137.56
139.25
139.56
138.09
134.69
129.47
122.84
115.36
107.65
100.15
92.94
85.9
78.78
71.51
64.31
57.82
52.97
50.67
51.3
54.35
58.32
61.07
60.49
55.25
45.19
31.41
15.59
-0.66
-16.54
-32.02
-47.34
-62.4
-76.46
-88.39
-97.35
-103.54
-108.42
-113.88
-120.85
-128.54
-134.2
-134.27
-126.32
-110.37
-88.8
-65.04
-41.99
-20.87
-1.7
15.61
30.36
40.95
45.66
43.67
36.55
26
14.48
4.08
-4.43
-11.82
-19.97
-30.97
-46.32
-66.64
-91.07
-116.84
-139.89
-155.85
-161.53
-156.42
-143.29
-125.39
-108.04
-95.69
-89.58
-87.66
-86.17
-81.89
-73.74
-62.93
-51.69
-41.99
-34.33
-27.76
-21.05
-13.58
-5.74
1.34
6.52
9.26
9.77
9.42
10.64
16
27.3
44.51
65.05
83.79
94.1
89.86
68.26
31.52
-13.36
-56.89
-90.34
-108.51
-110.65
-99.2
-77.54
-48
-11.43
31.62
79.51
128.82
174.82
212.89
239.62
253.15
252.85
238.75
211.24
170.99
118.97
56.38
-15.18
-93.02
-172.74
-247.84
-310.22
-352.08
-368.11
-357.28
-323.14
-272.73
-214.55
-156.66
-105.14
-63.51
-32.65
-11.02
4.7
18.71
34.95
56.05
82.71
113.85
147.2
180.1
210.01
234.7
252.31
261.65
262.65
256.8
247.18
237.91
232.98
234.8
242.8
253.18
259.93
257.07
240.98
211.97
174.1
133.38
95.46
63.78
39.15
20.46
5.98
-5.69
-15.3
-23.18
-29.65
-35.1
-39.91
-44.32
-48.43
-52.22
-55.6
-58.35
-60.21
-61.17
-61.47
-61.75
-62.74
-64.97
-68.4
-72.34
-75.71
-77.38
-76.55
-73.04
-67.37
-60.66
-54.38
-50.04
-48.72
-50.89
-56.18
-63.61
-71.88
-79.8
-86.58
-91.92
-95.89
-98.76
-100.87
-102.43
-103.54
-104.08
-103.91
-103.02
-101.68
-100.36
-99.64
-99.94
-101.37
-103.73
-106.6
-109.48
-111.74
-112.49
-110.54
-104.84
-94.84
-81.04
-64.93
-48.45
-33.13
-19.41
-6.64
6.38
20.34
34.63
47.34
56
58.97
56.39
50.48
44.6
41.71
42.91
46.98
51.2
52.8
50.55
45.08
38.36
32.38
28.3
26.57
27.65
32.49
42.2
56.88
74.51
90.91
101.05
101.24
90.99
73.69
55.31
41.94
37.4
41.75
51.43
60.44
62.58
53.52
32.3
1.73
-32.61
-64.12
-87.53
-100.02
-101.23
-92.15
-73.98
-47.87
-15.54
19.73
52.99
78.86
93.55
96.6
90.97
81.4
71.78
63.47
55.05
44.03
28.78
9.98
-9.58
-26.47
-38.26
-44.49
-46.15
-44.34
-38.81
-27.55
-7.81
21.72
58.78
97.07
127.63
142.01
135.4
108.58
67.51
20.95
-22.65
-57.61
-81.83
-96.06
-102.2
-101.76
-95.11
-81.95
-62.46
-38.41
-13.52
7.47
20.48
23.85
18.95
9.54
0.11
-5.96
-7.19
-3.85
2.78
11.19
19.82
26.83
29.99
27.15
17.06
0.3
-20.54
-41.6
-59.11
-70.52
-74.74
-71.62
-61.09
-42.84
-16.76
16.03
52.42
87.61
116.19
133.97
139.29
133.29
119.11
100.37
79.74
58.25
35.78
11.97
-12.72
-36.59
-57.27
-72.69
-82.14
-86.41
-86.99
-84.74
-79.02
-68.12
-50.7
-27.57
-2.32
19.62
33.29
36.49
30.84
20.95
12.29
8.8
11.79
20.11
31.44
43.82
56.21
67.97
77.98
84.01
83.09
72.92
53.5
27.76
1
-21.11
-34.57
-38.22
-33.48
-23.22
-10.34
2.99
15.22
25.04
31.15
32.47
28.8
21.28
12.41
5.53
3.72
8.76
20.4
36.34
52.93
66.33
73.65
73.56
66.22
52.59
33.84
11.1
-14.37
-40.75
-65.56
-86.24
-100.75
-108.13
-108.4
-102.05
-89.64
-71.88
-50.16
-26.87
-5.33
11.09
20.19
21.64
17.09
9.31
1.35
-4.28
-5.76
-2.07
6.89
19.89
34.23
46.04
51.51
48.23
36.32
18.51
-0.84
-17.24
-27.57
-30.92
-28.45
-22.7
-16.57
-12.39
-11.38
-13.45
-17.38
-21.18
-22.77
-20.57
-14.07
-4.07
7.64
18.84
27.68
33.35
36.32
38.15
40.78
45.92
54.42
66.2
80.29
95.22
109.19
120.31
126.59
126.33
118.44
102.87
80.82
54.51
26.63
-0.35
-24.77
-46
-64.28
-80.23
-94.44
-107.12
-117.92
-126.11
-130.74
-131.04
-126.73
-118.33
-107.14
-95.03
-83.93
-75.31
-69.82
-67.13
-65.97
-64.4
-60.27
-51.75
-38.04
-19.61
1.67
23.09
41.75
55.4
62.89
64.21
60.39
53.12
44.66
37.51
34.05
35.91
43.28
54.53
66.56
75.73
79.17
75.76
66.4
53.59
40.4
29.45
22.21
18.87
18.62
20.04
21.54
21.62
19.05
13.12
3.72
-8.55
-22.47
-36.47
-48.87
-58.29
-63.85
-65.32
-62.99
-57.56
-50.03
-41.56
-33.36
-26.52
-21.85
-19.76
-20.17
-22.55
-26
-29.3
-31.09
-30.26
-26.23
-19.27
-10.55
-1.69
5.78
11.1
14.49
16.96
19.7
23.49
28.56
34.64
41.48
49.05
57.62
67.42
78.23
89.05
98.34
104.37
105.81
102.02
93.12
79.7
62.49
41.98
18.44
-7.79
-35.97
-64.7
-91.91
-115.31
-132.85
-143.28
-146.33
-142.75
-134.01
-121.91
-108.38
-95.02
-82.86
-72.07
-61.88
-50.91
-37.82
-22.07
-4.36
13.53
29.32
41.07
47.87
49.95
48.45
44.94
40.95
37.52
35.05
33.25
31.31
28.46
24.55
20.45
18.09
19.65
26.55
38.59
53.93
69.64
82.91
91.92
96
95.3
90.24
81.1
68.04
51.49
32.38
12.09
-7.78
-25.93
-41.62
-54.66
-65.19
-73.42
-79.33
-82.69
-83.11
-80.21
-73.86
-64.35
-52.48
-39.58
-27.38
-17.7
-12.01
-10.97
-14.12
-19.76
-25.28
-27.87
-25.34
-16.93
-3.76
11.33
24.51
31.99
31.24
21.85
5.85
-12.79
-29.25
-39.42
-41.34
-36
-26.91
-18.77
-15.47
-18.38
-25.7
-33.16
-35.82
-30.18
-15.56
5.95
30.6
54.67
75.75
92.97
106.33
115.87
121.25
121.98
118.35
111.89
105.01
99.95
97.44
96.31
94.09
88.49
78.53
64.93
49.22
32.56
15.01
-4.22
-25.68
-48.76
-71.44
-91.11
-105.63
-114.27
-117.64
-116.99
-113.48
-107.68
-99.79
-90.1
-79.41
-69.23
-61.67
-59.04
-63.18
-74.86
-93.24
-115.78
-138.7
-158.04
-170.69
-175.26
-172.12
-162.72
-148.78
-131.45
-111.07
-87.61
-61.24
-32.94
-4.49
21.82
43.95
60.66
71.82
78.14
80.56
79.72
75.75
68.58
58.44
46.36
34.02
23.35
15.84
12.13
12.03
15.02
20.6
28.62
39.07
51.75
66
80.63
94.15
105.06
112.12
114.54
112.1
105.18
94.71
82.08
68.84
56.33
45.45
36.52
29.34
23.53
18.71
14.65
11.36
8.86
7.18
6.17
5.59
5.14
4.58
3.81
2.84
1.76
0.67
-0.34
-1.26
-2.1
-2.95
-3.95
-5.22
-6.89
-8.87
-10.89
-12.48
-13.03
-12.14
-9.68
-5.85
-1.19
3.65
8.06
11.63
14.17
15.76
16.59
16.95
17.03
17
16.93
16.86
16.82
16.89
17.2
17.85
18.88
20.22
21.76
23.35
24.8
25.93
26.54
26.46
25.6
23.96
21.5
18.12
13.74
8.37
2.29
-3.97
-9.79
-14.83
-19.3
-23.87
-29.43
-36.53
-45.19
-54.94
-65.26
-75.91
-87.08
-99.09
-111.97
-125.18
-137.47
-146.95
-151.23
-147.49
-132.85
-104.97
-63.07
-8.91
52.7
114.44
168.14
206.83
226.63
227.5
212.79
187.87
158.41
129.12
103.24
82.61
68.13
60.04
57.94
60.7
66.37
72.47
76.68
77.44
74.42
68.39
60.8
52.96
45.58
38.5
31
22.32
12.19
1.03
-10.14
-20.14
-28.02
-33.47
-36.85
-38.99
-40.88
-43.3
-46.63
-50.75
-55.15
-59.09
-61.92
-63.3
-63.31
-62.47
-61.51
-61.03
-61.29
-62.07
-62.85
-63.12
-62.65
-61.55
-60.2
-58.93
-57.83
-56.74
-55.43
-53.78
-51.88
-49.97
-48.16
-46.26
-43.78
-40.16
-35.09
-28.73
-21.75
-15.08
-9.57
-5.79
-3.79
-3.36
-4.01
-5.27
-6.58
-7.32
-6.89
-4.81
-1
3.99
9.05
12.83
14.26
13.02
9.64
5.18
0.74
-2.95
-5.73
-7.75
-9.14
-9.88
-9.74
-8.54
-6.36
-3.55
-0.65
1.86
3.71
4.97
6.03
7.47
9.95
13.97
19.72
26.95
35
43
50.09
55.63
59.36
61.25
61.45
60.13
57.42
53.46
48.39
42.46
35.99
29.27
22.57
16.07
9.87
4.04
-1.21
-5.53
-8.44
-9.53
-8.69
-6.28
-3.01
0.34
3.27
5.7
7.93
10.23
12.56
14.36
14.94
13.71
10.77
6.7
2.4
-1.31
-4.05
-5.86
-7.08
-8.03
-8.97
-10.09
-11.58
-13.72
-16.81
-20.91
-25.76
-30.76
-35.07
-38.05
-39.35
-39.03
-37.53
-35.41
-33.26
-31.44
-30.13
-29.29
-28.79
-28.47
-28.27
-28.32
-28.8
-29.96
-31.83
-34.24
-36.79
-39.06
-40.76
-41.84
-42.41
-42.48
-41.85
-40.04
-36.56
-31.14
-24.1
-16.27
-8.79
-2.79
0.94
2.03
0.46
-3.59
-9.84
-17.93
-27.28
-37.14
-46.71
-55.35
-62.84
-69.36
-75.22
-80.39
-84.11
-84.9
-81.05
-71.45
-56.25
-37.18
-16.97
1.59
16.58
27.59
35.4
41.36
46.49
50.89
53.8
54.03
50.66
43.53
33.31
21.18
8.42
-4.03
-15.66
-26.18
-35.39
-42.84
-47.96
-50.33
-49.86
-46.9
-42.03
-35.75
-28.23
-19.46
-9.43
1.37
11.79
20.27
25.34
26.27
23.39
18.07
12.08
6.95
3.44
1.46
0.38
-0.61
-1.96
-3.77
-5.8
-7.74
-9.33
-10.4
-10.76
-10.15
-8.3
-5.12
-0.94
3.38
6.65
7.72
6.12
2.26
-2.49
-6.38
-7.82
-5.88
-0.33
8.56
20.36
34.62
50.64
67.31
82.86
95.22
102.46
103.36
97.72
86.26
70.36
51.47
30.9
9.6
-11.61
-31.74
-49.63
-63.97
-73.67
-78.09
-77.24
-71.51
-61.6
-48.24
-32.3
-14.97
2.1
17.08
28.32
35.01
37.46
36.87
34.8
32.36
29.77
26.48
21.62
14.63
5.61
-4.54
-14.58
-23.31
-29.97
-34.31
-36.37
-36.32
-34.33
-30.69
-25.86
-20.54
-15.42
-10.84
-6.63
-2.21
2.95
8.89
14.98
20.16
23.38
24.09
22.43
19.05
14.77
10.4
6.58
4.03
3.44
5.36
9.87
16.28
23.13
28.61
31.14
29.97
25.44
18.85
11.91
6.17
2.44
0.81
0.86
2.09
4.17
7
10.49
14.34
17.98
20.66
21.75
21.05
18.79
15.39
11.21
6.32
0.46
-6.76
-15.59
-25.93
-37.31
-48.84
-59.54
-68.45
-74.84
-78.35
-78.98
-77.01
-72.87
-66.94
-59.53
-50.89
-41.29
-31.14
-20.88
-10.7
-0.48
10.25
21.98
34.72
47.77
59.75
69.13
74.84
76.58
74.9
70.66
64.66
57.4
49.27
40.9
33.28
27.53
24.36
23.69
24.65
26.05
26.93
27.04
26.72
26.46
26.3
25.71
23.78
19.83
13.82
6.44
-1.11
-7.34
-10.74
-10.01
-4.33
6.2
20.31
35.6
49.07
58.11
61.34
58.85
51.97
42.63
32.53
22.95
14.66
8.17
3.7
1.14
-0.09
-0.9
-2.09
-3.97
-6.12
-7.52
-7.06
-3.96
1.85
9.86
19.22
29.01
38.42
46.56
52.56
55.54
54.79
49.9
40.98
28.72
14.22
-1.1
-15.85
-28.98
-39.98
-48.82
-55.9
-61.57
-65.98
-68.96
-70.24
-69.65
-67.38
-63.93
-59.82
-55.36
-50.5
-45.11
-39.21
-33.06
-27.25
-22.38
-18.98
-17.3
-17.33
-18.79
-21.26
-24.28
-27.47
-30.71
-34.15
-38.02
-42.35
-46.72
-50.17
-51.5
-49.81
-44.94
-37.7
-29.48
-21.76
-15.53
-11.11
-8.22
-6.26
-4.64
-2.92
-0.94
1.32
3.79
6.25
8.49
10.39
11.93
13.27
14.63
16.1
17.59
18.84
19.62
19.8
19.47
18.78
17.9
16.87
15.67
14.3
12.88
11.57
10.51
9.61
8.63
7.26
5.29
2.77
-0.01
-2.73
-5.12
-7.1
-8.8
-10.38
-11.93
-13.45
-14.77
-15.59
-15.61
-14.54
-12.22
-8.74
-4.35
0.51
5.34
9.74
13.51
16.63
19.16
21.21
22.76
23.83
24.46
24.82
25.2
25.93
27.2
28.95
30.88
32.47
33.3
33.19
32.35
31.24
30.38
30.07
30.29
30.74
31.07
31.06
30.74
30.35
30.17
30.37
30.95
31.82
32.72
33.29
33.1
31.77
29.13
25.42
21.23
17.39
14.56
13.02
12.51
12.37
11.96
10.8
8.77
5.85
1.87
-3.61
-11.08
-20.57
-31.41
-42.11
-50.96
-56.74
-59.2
-59.13
-57.79
-56.18
-54.5
-52.12
-48.13
-41.96
-33.87
-24.88
-16.3
-9.27
-4.32
-1.46
-0.32
-0.5
-1.76
-3.96
-7.01
-10.63
-14.32
-17.46
-19.45
-19.91
-18.79
-16.34
-13.02
-9.42
-6.13
-3.73
-2.64
-3.06
-4.89
-7.75
-11.04
-14.2
-16.95
-19.33
-21.63
-24.05
-26.54
-28.74
-30.12
-30.35
-29.6
-28.6
-28.34
-29.58
-32.38
-35.83
-38.42
-38.52
-35.1
-28.26
-19.31
-10.21
-2.94
1.33
2.53
1.44
-0.88
-3.67
-6.9
-10.98
-16.37
-23.2
-31.28
-40.46
-50.6
-61.16
-70.32
-74.69
-70.04
-52.94
-22.47
18.96
66.43
114.3
158.16
196.01
227.71
253.97
275.21
291.15
301.34
305.74
304.88
299.51
290.02
276.03
256.81
231.93
202.12
169.6
137.74
110.13
89.11
74.76
64.81
55.53
43.14
25.1
0.85
-28.47
-60.52
-92.51
-121.55
-144.87
-160.29
-166.8
-165.17
-157.93
-148.71
-140.96
-136.66
-135.73
-136.34
-136.12
-133.38
-127.88
-120.67
-113.42
-107.48
-103.41
-100.88
-99.08
-97.27
-95.12
-92.65
-89.92
-86.69
-82.22
-75.58
-66.2
-54.34
-41.27
-28.97
-19.34
-13.64
-11.93
-13.1
-15.25
-16.15
-13.85
-7.08
4.19
18.46
32.72
43.17
46.32
40.25
25.42
4.4
-18.96
-40.92
-58.86
-71.63
-79.26
-82.43
-81.98
-78.56
-72.58
-64.2
-53.43
-40.46
-25.91
-11.05
2.32
12.37
17.86
18.47
14.81
8.01
-0.8
-10.58
-20.42
-29.26
-35.95
-39.5
-39.46
-36.21
-30.76
-24.43
-18.23
-12.7
-7.86
-3.42
0.8
4.75
8.22
10.95
12.81
13.91
14.42
14.49
14.16
13.31
11.71
9.12
5.43
0.63
-5.16
-11.73
-18.8
-25.98
-32.77
-38.66
-43.16
-45.89
-46.65
-45.53
-42.83
-39.06
-34.75
-30.3
-25.94
-21.67
-17.34
-12.85
-8.18
-3.45
1.07
5.1
8.47
11.14
13.24
14.98
16.5
17.78
18.64
18.73
17.83
15.96
13.54
11.27
9.86
9.77
11.03
13.27
15.88
18.25
19.81
20
18.46
15.17
10.91
7.35
6.66
10.73
20.15
33.67
48.5
61.47
70.22
74.16
74.33
72.65
71.03
70.85
73.03
78.34
87.58
101.17
118.66
138.43
158
174.87
187.26
194.45
196.42
193.29
184.84
170.64
150.67
125.87
98.33
70.68
45.19
23.09
4.17
-12.89
-29.95
-48.75
-70.52
-95.49
-122.78
-150.33
-175.21
-194.31
-205.21
-206.75
-199.44
-185.26
-167.07
-147.91
-130.27
-115.45
-103.39
-92.73
-81.44
-67.62
-50.51
-30.81
-10.5
7.99
22.63
32.33
36.94
36.98
33.11
26.15
17.09
7.26
-1.78
-8.65
-12.58
-13.67
-12.71
-10.85
-9.06
-7.76
-6.81
-5.73
-4.07
-1.7
1.13
3.89
6.02
7.2
7.4
6.92
6.11
5.27
4.47
3.62
2.57
1.27
-0.18
-1.55
-2.58
-3.17
-3.38
-3.39
-3.42
-3.63
-3.98
-4.28
-4.38
-4.17
-3.77
-3.46
-3.6
-4.42
-5.93
-7.94
-10.09
-12.1
-13.82
-15.31
-16.79
-18.49
-20.57
-23.01
-25.64
-28.14
-30.16
-31.23
-30.94
-29.02
-25.31
-20
-13.54
-6.64
-0.05
5.52
9.58
11.92
12.55
11.69
9.66
6.88
3.83
0.97
-1.31
-2.77
-3.38
-3.25
-2.6
-1.65
-0.55
0.64
1.92
3.27
4.68
6.12
7.56
9
10.39
11.69
12.85
13.81
14.54
15.03
15.25
15.17
14.76
13.96
12.74
11.12
9.12
6.78
4.15
1.26
-1.73
-4.48
-6.54
-7.41
-6.75
-4.5
-1
3.17
7.28
10.75
13.32
14.97
15.91
16.42
16.68
16.74
16.56
16.1
15.45
14.83
14.54
14.79
15.57
16.68
17.71
18.27
18.08
17.1
15.48
13.53
11.48
9.52
7.67
5.88
4.06
2.1
-0.02
-2.27
-4.56
-6.81
-8.97
-11.14
-13.46
-16.06
-18.99
-22.08
-24.93
-27.02
-27.83
-26.97
-24.36
-20.22
-14.96
-9.15
-3.33
2.03
6.56
10.03
12.37
13.65
14.07
13.89
13.39
12.79
12.28
11.99
12.06
12.54
13.43
14.56
15.65
16.4
16.61
16.27
15.5
14.53
13.46
12.25
10.77
8.93
6.74
4.42
2.22
0.32
-1.21
-2.52
-3.85
-5.42
-7.36
-9.73
-12.49
-15.49
-18.42
-20.77
-21.93
-21.37
-18.87
-14.65
-9.3
-3.71
1.36
5.39
8.22
9.98
10.99
11.57
11.94
12.22
12.4
12.43
12.27
11.96
11.58
11.27
11.15
11.21
11.38
11.53
11.55
11.39
11.05
10.55
9.92
9.14
8.2
7.07
5.78
4.4
3.06
1.87
0.93
0.23
-0.33
-0.94
-1.81
-3.13
-4.97
-7.15
-9.31
-10.9
-11.32
-10.09
-7.05
-2.4
3.31
9.3
14.9
19.73
23.81
27.45
31.01
34.68
38.32
41.58
44.07
45.63
46.4
46.81
47.35
48.41
50.15
52.42
54.8
56.59
57.06
55.57
51.8
45.93
38.79
31.71
26.14
23.06
22.52
23.58
24.85
25.13
24.09
22.28
20.6
19.48
18.55
16.73
13.02
7.17
-0.08
-7.39
-13.66
-18.51
-22.08
-24.16
-23.7
-19.17
-9.5
4.58
20.4
34.03
42.05
42.97
37.72
28.82
19.11
10.74
4.9
2.36
3.73
9.21
17.78
26.76
32.34
31.33
22.92
9.6
-3.69
-11.83
-12.08
-5.6
2.81
6.72
0.87
-16.3
-41.89
-69.73
-92.93
-106.83
-110.83
-108.1
-103.66
-101.67
-103.52
-107.65
-111.03
-111.21
-107.69
-101.8
-95.44
-89.55
-83.61
-76.07
-65.7
-52.65
-38.67
-26.32
-17.86
-14.12
-14.24
-16.06
-17.2
-16.08
-12.52
-7.6
-2.98
-0.08
0.63
-0.39
-2
-2.98
-2.59
-0.71
2.19
5.42
8.32
10.56
12.06
13.06
13.96
15.14
16.89
19.17
21.55
23.32
23.7
22.19
18.81
14.18
9.23
4.96
2.03
0.67
0.77
2.07
4.32
7.35
11.06
15.24
19.76
24.46
29.32
34.39
39.7
45.06
50.04
54.09
56.8
58.24
59.02
60.01
61.82
64.36
66.71
67.47
65.41
60.07
51.96
42.18
31.82
21.39
10.76
-0.49
-12.48
-24.66
-35.9
-44.82
-50.44
-52.54
-51.75
-49.36
-46.84
-45.34
-45.43
-46.98
-49.32
-51.57
-52.97
-53
-51.41
-48.25
-43.74
-38.25
-32.28
-26.3
-20.6
-15.14
-9.6
-3.62
2.87
9.55
15.81
21.09
25.17
28.3
30.98
33.48
35.53
36.41
35.26
31.7
26.15
19.72
13.8
9.45
7.01
6.06
5.87
5.77
5.54
5.36
5.53
6.23
7.31
8.4
9.12
9.36
9.23
9.01
8.98
9.23
9.73
10.44
11.36
12.67
14.57
17.21
20.6
24.54
28.65
32.55
35.86
38.23
39.45
39.37
37.99
35.48
32.2
28.61
25.17
22.2
19.8
17.94
16.42
15.11
13.96
13.01
12.31
11.78
11.23
10.35
8.9
6.77
4.01
0.86
-2.45
-5.67
-8.65
-11.34
-13.74
-15.92
-17.94
-19.89
-21.87
-23.96
-26.18
-28.42
-30.38
-31.67
-31.82
-30.48
-27.56
-23.27
-18.19
-13.08
-8.66
-5.36
-3.34
-2.38
-2.11
-2.2
-2.43
-2.74
-3.23
-3.96
-4.98
-6.23
-7.6
-8.96
-10.27
-11.43
-12.43
-13.22
-13.78
-14.17
-14.54
-15.13
-16.21
-18
-20.45
-23.3
-26.12
-28.5
-30.19
-31.27
-32.06
-32.93
-34.16
-35.73
-37.34
-38.48
-38.57
-37.13
-33.83
-28.59
-21.6
-13.26
-4.09
5.42
14.94
24.42
33.94
43.68
53.69
63.67
72.96
80.63
85.64
87.18
85.03
79.66
72.29
64.5
57.85
53.35
51.25
51.13
52.22
53.78
55.36
56.88
58.42
60.03
61.53
62.55
62.71
61.86
60.16
58.01
55.86
54
52.53
51.35
50.32
49.28
47.95
45.84
42.18
36.11
27.13
15.36
1.73
-12.24
-24.84
-34.7
-41.15
-44.38
-45.4
-45.75
-47.16
-51.05
-58.17
-68.31
-80.43
-92.9
-104.07
-112.7
-118.25
-120.8
-120.83
-118.92
-115.53
-110.83
-104.78
-97.28
-88.37
-78.45
-68.39
-59.35
-52.53
-48.77
-48.21
-50.28
-53.86
-57.74
-61
-63.34
-65.04
-66.74
-69.15
-72.63
-77.07
-81.9
-86.28
-89.33
-90.26
-88.33
-82.87
-73.42
-59.96
-43.26
-24.78
-6.4
10.22
24.19
35.54
44.9
52.91
59.82
65.49
69.67
72.51
74.59
76.81
79.86
84.07
89.4
95.68
102.77
110.53
118.65
126.51
133.34
138.45
141.49
142.42
141.32
138.1
132.42
123.96
112.62
98.89
83.77
68.5
54.24
41.8
31.6
23.78
18.23
14.64
12.34
10.31
7.17
1.56
-7.45
-19.97
-35.11
-51.23
-66.33
-78.51
-86.48
-89.67
-88.23
-83.01
-75.31
-66.7
-58.66
-52.29
-48.07
-45.91
-45.34
-45.69
-46.47
-47.35
-48.15
-48.82
-49.41
-50.18
-51.55
-53.93
-57.43
-61.68
-65.82
-68.82
-69.84
-68.42
-64.64
-58.82
-51.31
-42.32
-31.99
-20.57
-8.61
3.09
13.63
22.34
29
33.81
37.15
39.34
40.5
40.57
39.43
37.06
33.55
29.12
24.02
18.45
12.59
6.5
0.16
-6.58
-13.88
-21.78
-30.08
-38.31
-45.93
-52.51
-57.94
-62.45
-66.48
-70.36
-74.08
-77.24
-79.05
-78.49
-74.62
-66.87
-55.32
-40.86
-25.04
-9.64
3.81
14.52
22.61
28.91
34.45
40.09
46.2
52.8
59.68
66.62
73.32
79.43
84.38
87.48
88.05
85.82
81.04
74.51
67.36
60.64
54.98
50.42
46.53
42.7
38.47
33.75
28.78
24.01
19.79
16.23
13.02
9.66
5.49
0
-7.05
-15.47
-24.63
-33.45
-40.64
-45.08
-46.12
-43.98
-39.56
-34.22
-29.23
-25.46
-23.27
-22.62
-23.39
-25.5
-28.91
-33.44
-38.61
-43.65
-47.72
-50.17
-50.78
-49.76
-47.6
-44.85
-41.91
-38.93
-35.79
-32.19
-27.86
-22.55
-16.26
-9.16
-1.5
6.37
14.16
21.62
28.55
34.76
40.07
44.24
47.08
48.48
48.51
47.47
45.93
44.63
44.3
45.36
47.74
50.78
53.49
54.79
53.97
50.94
46.24
40.85
35.79
31.79
29.09
27.43
26.22
24.7
22.23
18.37
13.11
6.82
0.17
-6.19
-11.88
-17.04
-22.21
-28.11
-35.13
-43.07
-51.07
-57.89
-62.34
-63.71
-61.91
-57.32
-50.5
-42.03
-32.45
-22.3
-12.33
-3.28
4.21
9.94
14.16
17.4
20.09
22.23
23.4
22.9
20.32
15.71
9.77
3.47
-2.27
-6.83
-10.1
-12.29
-13.78
-14.97
-16.1
-17.21
-18.13
-18.52
-17.92
-15.96
-12.51
-7.73
-2.07
3.8
9.25
13.78
17.05
19.01
19.74
19.46
18.46
17.12
15.8
14.78
14.2
14.03
14.06
13.97
13.51
12.59
11.34
10.05
9.02
8.47
8.45
8.94
9.83
10.96
12.04
12.69
12.46
11
8.22
4.29
-0.32
-5.07
-9.48
-13.11
-15.63
-16.73
-16.19
-13.97
-10.39
-6.2
-2.34
0.26
1.03
-0.01
-2.17
-4.4
-5.59
-5.03
-2.63
1
4.81
7.69
8.74
7.56
4.18
-1.02
-7.47
-14.5
-21.43
-27.6
-32.43
-35.61
-37.1
-37.14
-36.12
-34.39
-32.18
-29.62
-26.71
-23.42
-19.74
-15.67
-11.27
-6.64
-1.96
2.56
6.66
10.12
12.8
14.67
15.86
16.61
17.28
18.31
20.08
22.8
26.38
30.48
34.52
37.87
40.04
40.85
40.48
39.47
38.57
38.47
39.64
42.14
45.55
49.09
51.78
52.67
51.1
46.86
40.23
31.98
23.19
14.96
8.17
3.28
0.24
-1.48
-2.59
-3.77
-5.41
-7.5
-9.8
-11.96
-13.84
-15.59
-17.6
-20.39
-24.38
-29.71
-36.25
-43.61
-51.21
-58.43
-64.68
-69.55
-72.86
-74.79
-75.79
-76.39
-76.93
-77.31
-76.92
-74.87
-70.2
-62.27
-51.02
-37
-21.21
-4.85
10.91
25.21
37.45
47.37
54.91
60.1
62.96
63.54
61.82
57.95
52.28
45.56
38.82
33.22
29.64
28.42
29.2
31.05
32.8
33.46
32.51
30
26.38
22.25
18.09
14.08
10.16
6.12
1.79
-2.83
-7.57
-12.08
-16.07
-19.36
-21.98
-24.05
-25.64
-26.69
-26.97
-26.23
-24.34
-21.41
-17.78
-13.97
-10.49
-7.73
-5.82
-4.7
-4.13
-3.84
-3.63
-3.36
-2.98
-2.52
-2.13
-2.09
-2.82
-4.68
-7.86
-12.14
-16.88
-21.3
-24.73
-27.03
-28.59
-30.28
-32.9
-36.87
-42
-47.58
-52.67
-56.43
-58.33
-58.24
-56.41
-53.33
-49.63
-45.87
-42.38
-39.14
-35.74
-31.53
-25.83
-18.26
-8.93
1.44
11.78
20.87
27.69
31.7
32.98
32.14
30.2
28.19
26.94
26.92
28.21
30.54
33.47
36.49
39.09
40.89
41.72
41.81
41.8
42.68
45.45
50.71
58.2
66.76
74.64
80.01
81.58
79.02
72.79
63.91
53.49
42.39
31.14
20.1
9.61
0.05
-8.21
-14.99
-20.41
-24.85
-28.79
-32.69
-36.8
-41.16
-45.66
-50.06
-54.08
-57.32
-59.32
-59.55
-57.65
-53.46
-47.3
-39.84
-31.91
-24.25
-17.36
-11.35
-6.1
-1.4
2.94
6.94
10.49
13.47
15.77
17.39
18.5
19.32
20.06
20.83
21.6
22.21
22.46
22.22
21.51
20.45
19.21
17.87
16.46
14.88
13.05
10.98
8.74
6.51
4.48
2.75
1.35
0.19
-0.86
-1.94
-3.1
-4.35
-5.55
-6.58
-7.34
-7.89
-8.48
-9.45
-11.12
-13.63
-16.84
-20.44
-24.01
-27.14
-29.46
-30.69
-30.59
-29.08
-26.29
-22.71
-19
-15.86
-13.67
-12.25
-11.02
-9.2
-6.37
-2.64
1.3
4.63
6.81
7.99
8.89
10.41
13.07
16.61
20.12
22.53
23.16
22.13
20.2
18.42
17.54
17.81
18.91
20.28
21.45
22.21
22.58
22.65
22.48
21.99
21.14
19.92
18.42
16.82
15.29
13.96
12.83
11.88
10.99
10.06
8.98
7.67
6
3.79
0.81
-3.16
-8.21
-14.19
-20.61
-26.68
-31.43
-33.96
-33.68
-30.46
-24.68
-17.13
-8.83
-0.73
6.36
11.95
15.92
18.41
19.78
20.52
21.16
22.17
23.81
26.04
28.53
30.81
32.45
33.18
33
32.04
30.41
28.2
25.39
22.12
18.64
15.29
12.35
9.92
7.83
5.85
3.78
1.57
-0.63
-2.67
-4.48
-6.08
-7.57
-9.07
-10.62
-12.17
-13.67
-15.04
-16.3
-17.51
-18.82
-20.31
-21.99
-23.66
-24.93
-25.38
-24.67
-22.69
-19.64
-15.89
-11.9
-8.06
-4.59
-1.58
0.95
3.05
4.69
5.84
6.53
6.8
6.84
6.87
7.15
7.77
8.75
9.87
10.89
11.53
11.64
11.17
10.25
9.12
8.06
7.41
7.41
8.22
9.85
12.19
15.05
18.11
20.94
23.09
24.08
23.62
21.73
18.79
15.44
12.33
9.92
8.32
7.29
6.37
5.07
2.98
-0.07
-4.04
-8.59
-13.13
-16.91
-19.22
-19.67
-18.37
-15.88
-13.04
-10.67
-9.3
-8.96
-9.23
-9.51
-9.34
-8.59
-7.64
-7.15
-7.79
-9.92
-13.38
-17.57
-21.68
-25.01
-27.22
-28.34
-28.58
-28.11
-27
-25.27
-23.01
-20.49
-18.11
-16.24
-15.08
-14.59
-14.53
-14.58
-14.43
-13.89
-12.88
-11.48
-9.86
-8.24
-6.8
-5.56
-4.38
-2.97
-1.13
1.12
3.43
5.14
5.53
4.01
0.41
-4.91
-11.09
-16.94
-21.21
-22.98
-21.84
-18.05
-12.38
-5.83
0.69
6.63
11.79
16.2
19.9
22.68
24.12
23.66
20.91
15.85
8.97
1.16
-6.51
-13.12
-18.26
-22.12
-25.48
-29.46
-35.09
-42.79
-52.17
-61.88
-70.02
-74.65
-74.44
-69.03
-59.17
-46.37
-32.48
-19.23
-8
0.25
5.06
6.47
5.1
2
-1.65
-4.85
-7.27
-9.15
-11.06
-13.43
-16.2
-18.78
-20.27
-20.02
-17.8
-14.02
-9.39
-4.7
-0.57
2.71
5.09
6.71
7.7
8.17
8.22
7.98
7.62
7.38
7.47
7.95
8.69
9.35
9.54
8.93
7.56
5.84
4.46
4.19
5.6
8.78
13.35
18.54
23.52
27.75
31.31
34.78
39.07
44.84
52.24
60.77
69.54
77.73
84.89
91.02
96.25
100.55
103.62
104.97
104.21
101.09
95.38
86.64
74.09
56.97
35.12
9.36
-18.4
-45.68
-70.19
-90.38
-105.49
-115.24
-119.27
-117.1
-108.33
-93.24
-73.12
-50.29
-27.59
-7.79
7.01
15.7
18.08
14.78
6.88
-4.21
-17.01
-30.07
-42.14
-52.26
-59.84
-64.63
-66.62
-65.94
-62.82
-57.52
-50.4
-42
-33.13
-24.74
-17.79
-12.9
-10.12
-8.7
-7.13
-3.41
4.34
17.2
34.89
55.65
76.84
95.88
111.28
123.1
132.62
141.32
149.9
157.72
163.22
164.77
161.53
153.89
143.04
130.3
116.46
101.77
86.33
70.62
55.69
42.87
33
25.88
20.07
13.49
4.27
-8.29
-23.48
-39.42
-53.94
-65.39
-73.1
-77.34
-78.83
-78.31
-76.24
-73.04
-69.14
-65.19
-61.86
-59.54
-58.16
-57.15
-55.78
-53.52
-50.28
-46.42
-42.62
-39.6
-37.87
-37.61
-38.62
-40.4
-42.21
-43.12
-42.23
-38.86
-32.9
-24.9
-16.26
-8.91
-4.81
-5.12
-9.5
-15.97
-21.24
-21.84
-15.27
-1
19.45
43.08
66.45
86.75
102.38
113.06
119.43
122.67
124
124.56
125.34
127.13
130.46
135.48
141.83
148.61
154.57
158.47
159.47
157.46
152.99
147.05
140.6
134.16
127.57
120.08
110.66
98.38
82.84
64.22
43.37
21.51
-0.12
-20.52
-39.17
-55.94
-71.07
-84.97
-98.17
-111.06
-123.82
-136.29
-147.95
-158.15
-166.23
-171.78
-174.64
-174.97
-173.06
-169.31
-164.28
-158.69
-153.44
-149.15
-145.86
-142.81
-138.58
-131.8
-121.78
-109.06
-95.28
-82.63
-72.93
-66.92
-64.09
-62.94
-61.58
-58.44
-52.68
-44.23
-33.67
-21.91
-9.92
1.42
11.51
20.07
27.21
33.33
39.08
45
51.46
58.39
65.46
72.19
78.15
83.04
86.74
89.23
90.52
90.58
89.35
86.7
82.46
76.34
68.12
57.78
45.62
32.26
18.43
4.8
-8.2
-20.25
-31.06
-40.24
-47.38
-52.28
-55.1
-56.35
-56.82
-57.35
-58.65
-61.3
-65.55
-71.3
-77.97
-84.68
-90.55
-95.16
-98.83
-102.4
-106.69
-111.74
-116.49
-119.09
-117.6
-110.77
-98.34
-80.7
-58.49
-32.44
-3.56
26.33
54.37
77.2
91.98
97.46
94.44
85.41
73.48
61.29
50.38
41.24
33.85
28.11
24
21.45
20.05
19.07
17.67
15.25
11.66
7.18
2.23
-2.87
-7.93
-12.9
-17.62
-21.76
-25
-27.18
-28.49
-29.39
-30.46
-32.1
-34.46
-37.42
-40.65
-43.86
-46.67
-48.64
-49.19
-47.73
-43.74
-37.05
-27.93
-17.06
-5.56
5.47
15.03
22.46
27.5
30.21
30.83
29.68
27.14
23.52
19.25
14.77
10.6
7.31
5.45
5.41
7.32
11.02
15.94
21.33
26.41
30.59
33.59
35.42
36.16
35.91
34.68
32.47
29.48
26.16
23.11
20.95
19.93
19.83
20.02
19.7
18.24
15.5
11.89
8.27
5.83
5.64
8.47
14.52
23.27
33.65
44.31
53.97
61.75
67.42
71.24
73.79
75.68
77.14
77.98
77.49
74.73
68.93
59.96
48.57
36.26
24.71
15.16
7.86
2.07
-3.48
-10.01
-18.1
-27.67
-38.09
-48.66
-58.85
-68.41
-77.24
-85.17
-91.94
-97.29
-101.1
-103.51
-105.04
-106.31
-107.82
-109.63
-111.22
-111.67
-109.93
-105.24
-97.4
-86.87
-74.55
-61.5
-48.64
-36.53
-25.41
-15.28
-6.1
2.08
9.16
15.11
20.1
24.51
28.96
33.93
39.71
46.22
53.14
60.08
66.79
73.21
79.26
84.81
89.45
92.71
94.15
93.68
91.59
88.44
84.85
81.28
78.02
75.13
72.6
70.31
67.97
64.98
60.46
53.45
43.25
29.85
14.11
-2.5
-18.24
-31.75
-42.36
-50.25
-56.14
-61.03
-65.72
-70.58
-75.35
-79.23
-81.22
-80.42
-76.51
-69.83
-61.37
-52.32
-43.69
-35.98
-29.24
-23.25
-17.86
-13.09
-9.07
-5.87
-3.27
-0.92
1.54
4.2
6.8
8.78
9.59
8.87
6.55
2.91
-1.61
-6.54
-11.46
-16.02
-19.88
-22.78
-24.58
-25.37
-25.6
-25.84
-26.68
-28.36
-30.62
-32.56
-32.92
-30.43
-24.3
-14.6
-2.3
10.97
23.45
33.72
41.08
45.54
47.57
47.78
46.61
44.26
40.88
36.71
32.17
27.82
24.13
21.37
19.59
18.66
18.48
19.14
20.86
23.91
28.37
33.99
40.19
46.26
51.6
56.05
59.83
63.45
67.39
71.78
76.22
79.88
81.66
80.54
75.8
67.2
54.98
39.87
22.94
5.4
-11.77
-27.89
-42.82
-56.74
-69.92
-82.44
-93.98
-103.93
-111.49
-116.04
-117.23
-115
-109.61
-101.47
-91.12
-79.11
-66.03
-52.43
-38.82
-25.63
-13.13
-1.52
9.06
18.46
26.48
32.89
37.52
40.35
41.65
41.91
41.74
41.69
42.04
42.73
43.36
43.4
42.38
40.2
37.08
33.55
30.32
28.05
27.15
27.74
29.59
32.1
34.49
35.84
35.38
32.71
27.98
21.79
15
8.38
2.37
-2.99
-7.93
-12.78
-17.76
-22.92
-28.08
-32.84
-36.73
-39.22
-39.71
-37.7
-32.72
-24.53
-13.21
0.89
17.15
34.76
52.82
70.39
86.43
99.9
109.69
114.85
114.83
109.79
100.66
89.04
76.76
65.4
55.83
48.07
41.41
34.84
27.4
18.57
8.29
-3.07
-14.89
-26.41
-36.9
-45.79
-52.84
-58.25
-62.56
-66.45
-70.44
-74.7
-79.03
-83.13
-86.66
-89.44
-91.26
-91.77
-90.44
-86.81
-80.69
-72.36
-62.6
-52.33
-42.19
-32.45
-22.81
-12.75
-1.82
9.98
22.1
33.49
42.97
49.63
53.09
53.44
51.01
45.99
38.35
27.96
14.98
0.24
-14.79
-28.47
-39.48
-47.42
-52.86
-56.93
-60.73
-64.91
-69.5
-74.12
-78.29
-81.64
-83.94
-85.03
-84.69
-82.62
-78.61
-72.64
-65.04
-56.48
-47.91
-40.39
-34.89
-32.02
-31.77
-33.5
-35.98
-37.94
-38.36
-36.86
-33.6
-29.15
-23.97
-18.3
-12.16
-5.58
1.11
7.29
12.15
15.13
16.12
15.72
15.05
15.4
17.8
22.62
29.31
36.57
42.75
46.59
47.78
47.16
46.35
47.07
50.24
55.55
61.53
66.13
67.54
64.84
58.29
49.14
39.27
30.49
24.17
20.8
20.04
20.87
22
22.35
21.21
18.45
14.29
9.17
3.67
-1.49
-5.49
-7.61
-7.39
-4.99
-1.09
3.15
6.58
8.45
8.59
7.41
5.65
4.02
2.96
2.43
1.98
0.85
-1.55
-5.4
-10.21
-14.81
-17.76
-17.85
-14.61
-8.56
-1.03
6.42
12.52
16.83
19.67
21.88
24.22
27.11
30.45
33.81
36.78
39.04
40.57
41.45
41.76
41.48
40.54
38.97
36.93
34.74
32.59
30.43
27.87
24.31
19.26
12.66
5.03
-2.82
-10
-15.98
-20.68
-24.42
-27.7
-30.92
-34.29
-37.79
-41.29
-44.54
-47.2
-48.98
-49.68
-49.36
-48.19
-46.46
-44.31
-41.65
-38.17
-33.44
-27.09
-19.01
-9.44
1.05
11.63
21.44
29.79
36.24
40.75
43.57
45.08
45.58
45.17
43.66
40.7
35.97
29.36
21.08
11.69
1.94
-7.52
-16.34
-24.61
-32.62
-40.61
-48.46
-55.69
-61.73
-66.31
-69.59
-72.3
-75.24
-78.98
-83.4
-87.77
-90.94
-91.72
-89.19
-82.88
-72.88
-59.84
-45.02
-30.08
-16.91
-7.11
-1.66
-0.72
-3.6
-9.05
-15.57
-21.66
-26.02
-27.7
-26.14
-21.21
-13.24
-2.83
9.38
22.93
37.54
52.92
68.52
83.47
96.64
107.01
113.96
117.45
117.85
115.65
111.32
105.16
97.5
88.78
79.59
70.61
62.36
55.2
49.2
44.23
39.99
36.21
32.59
28.78
24.33
18.51
10.43
-0.67
-14.95
-31.57
-48.62
-63.66
-74.5
-80
-80.37
-76.9
-71.23
-64.54
-57.32
-49.48
-40.96
-32.15
-23.95
-17.4
-13.17
-11.2
-10.66
-10.34
-9.12
-6.38
-2.1
3.18
8.7
13.77
17.84
20.59
21.81
21.45
19.54
16.23
11.86
6.82
1.59
-3.42
-7.81
-11.32
-13.75
-15.12
-15.66
-15.79
-16
-16.61
-17.65
-18.91
-20.11
-21.1
-21.95
-22.78
-23.51
-23.74
-22.83
-20.25
-15.92
-10.36
-4.51
0.75
4.92
8.03
10.46
12.66
14.79
16.69
18.07
18.65
18.43
17.64
16.73
16.09
15.93
16.17
16.51
16.63
16.4
16.03
15.94
16.61
18.31
20.96
24.23
27.75
31.36
35.19
39.59
44.85
51.11
58.3
66.28
74.87
83.75
92.36
99.81
105
107.04
105.51
100.73
93.58
85.14
76.34
67.73
59.5
51.55
43.77
36.13
28.84
22.41
17.62
15.33
16.16
20.19
26.81
34.87
42.77
48.78
51.32
49.27
42.18
30.68
16.42
1.76
-10.87
-19.84
-24.62
-25.71
-24.05
-20.46
-15.39
-9.16
-2.37
3.84
8
8.76
5.59
-1.1
-10.1
-19.96
-29.53
-38.24
-46.01
-53.01
-59.42
-65.26
-70.42
-74.75
-78.18
-80.68
-82.36
-83.31
-83.55
-83.06
-81.67
-79.22
-75.56
-70.71
-64.85
-58.31
-51.46
-44.58
-37.94
-31.72
-26.17
-21.58
-18.21
-16.14
-15.14
-14.61
-13.83
-12.15
-9.22
-5.13
-0.36
4.42
8.62
11.86
14.15
15.78
17.22
18.87
20.86
23.05
25.14
26.92
28.48
30.22
32.78
36.69
42.06
48.55
55.46
61.98
67.48
71.65
74.48
76.17
76.91
76.73
75.5
73.08
69.4
64.64
59.18
53.43
47.78
42.31
36.9
31.3
25.24
18.56
11.25
3.47
-4.62
-12.81
-20.91
-28.72
-36.06
-42.82
-48.91
-54.42
-59.55
-64.71
-70.26
-76.36
-82.63
-88.17
-91.73
-92.25
-89.26
-83.11
-74.81
-65.51
-56.04
-46.6
-36.91
-26.5
-15.09
-2.83
9.76
21.99
33.21
43.05
51.44
58.64
65.05
70.99
76.54
81.42
85.03
86.67
85.92
82.78
77.91
72.34
67.22
63.37
60.99
59.6
58.11
55.17
49.37
39.72
25.98
9
-9.27
-26.17
-39.17
-46.82
-49.32
-48.51
-46.96
-46.84
-49
-52.72
-56.36
-58.17
-57.11
-53.14
-46.98
-39.63
-32.08
-25.11
-19.32
-15.17
-12.91
-12.52
-13.68
-15.74
-17.94
-19.52
-19.97
-19.01
-16.71
-13.4
-9.64
-6.04
-3.03
-0.75
1.09
2.99
5.43
8.52
11.89
14.73
16.12
15.32
12.07
6.67
-0.28
-8.08
-16.27
-24.61
-33.04
-41.41
-49.39
-56.44
-61.87
-65.07
-65.66
-63.46
-58.51
-50.98
-41.29
-30.14
-18.66
-8.27
-0.37
4.06
4.82
2.55
-1.51
-5.91
-9.43
-11.37
-11.61
-10.45
-8.39
-5.88
-3.3
-0.93
1.02
2.33
2.78
2.24
0.8
-1.3
-3.72
-6.23
-8.8
-11.58
-14.7
-18.12
-21.48
-24.27
-26.02
-26.47
-25.72
-24.1
-22.03
-19.86
-17.79
-15.98
-14.61
-13.89
-14.07
-15.31
-17.62
-20.86
-24.78
-29.08
-33.5
-37.81
-41.65
-44.56
-45.9
-45.12
-41.89
-36.29
-28.81
-20.21
-11.22
-2.44
5.84
13.52
20.58
27.05
32.86
37.97
42.38
46.23
49.8
53.38
57.21
61.23
65.13
68.33
70.17
70.14
68.11
64.29
59.07
52.85
45.97
38.81
31.84
25.75
21.16
18.14
15.87
12.68
6.48
-4.49
-20.95
-42.37
-67.15
-93.25
-118.72
-141.99
-161.87
-177.45
-187.96
-192.98
-192.58
-187.43
-178.7
-167.77
-155.82
-143.52
-130.91
-117.48
-102.47
-85.28
-65.84
-44.76
-23.19
-2.55
15.93
31.41
43.59
52.68
59.23
63.9
67.41
70.31
72.88
75
76.28
76.22
74.5
71.29
67.27
63.42
60.64
59.41
59.63
60.69
61.78
62.2
61.57
59.92
57.59
54.98
52.41
50.04
47.83
45.71
43.56
41.37
39.17
37.01
34.87
32.66
30.23
27.4
24.13
20.55
16.95
13.6
10.58
7.65
4.3
0.05
-5.32
-11.61
-18.29
-24.82
-30.88
-36.43
-41.53
-45.99
-49.29
-50.71
-49.71
-46.2
-40.73
-34.12
-27.17
-20.27
-13.55
-7
-0.74
5
10.14
15.01
20.41
27.32
36.53
48.15
61.58
75.59
88.69
99.48
106.76
109.77
108.19
102.22
92.59
80.48
67.27
54.28
42.43
32.1
23.16
15.18
7.7
0.38
-6.85
-13.9
-20.58
-26.76
-32.39
-37.43
-41.81
-45.28
-47.5
-48.1
-46.84
-43.78
-39.35
-34.36
-29.81
-26.68
-25.68
-27.04
-30.6
-35.84
-42.12
-48.74
-55.04
-60.42
-64.38
-66.57
-66.82
-65.26
-62.19
-58.02
-53.14
-47.81
-42.1
-35.95
-29.16
-21.55
-13.13
-4.22
4.44
12
17.7
21.28
22.95
23.28
22.85
21.94
20.54
18.43
15.52
12
8.4
5.34
3.31
2.54
2.79
3.59
4.33
4.55
4.1
3.24
2.49
2.46
3.54
5.76
8.86
12.38
15.86
18.77
20.66
21.08
19.71
16.51
11.83
6.49
1.47
-2.22
-3.98
-3.67
-1.61
1.64
5.51
9.59
13.71
17.75
21.61
25.08
27.89
29.88
31.1
31.87
32.67
33.96
35.94
38.53
41.39
44.11
46.43
48.32
49.92
51.35
52.62
53.56
53.9
53.4
52
49.79
46.97
43.81
40.47
37.1
33.71
30.35
27.04
23.82
20.73
17.77
14.99
12.41
10.05
7.82
5.51
2.81
-0.68
-5.26
-11.05
-17.89
-25.35
-32.79
-39.51
-44.73
-47.73
-47.99
-45.3
-39.97
-32.79
-24.9
-17.36
-10.98
-5.99
-2.16
0.93
3.76
6.61
9.56
12.46
14.9
16.13
15.1
10.73
2.29
-10.07
-25.15
-40.81
-54.49
-63.97
-67.89
-66.07
-59.32
-49.06
-36.77
-23.69
-10.71
1.59
12.86
22.86
31.41
38.34
43.32
45.92
45.57
41.9
34.9
25.07
13.39
1.06
-10.64
-20.62
-28.08
-32.47
-33.62
-31.81
-27.76
-22.46
-16.99
-12.1
-8.13
-5.03
-2.52
-0.36
1.52
3.03
4
4.35
4.12
3.47
2.62
1.78
1.02
0.35
-0.37
-1.38
-2.92
-5.2
-8.27
-12.08
-16.53
-21.57
-27.23
-33.56
-40.46
-47.61
-54.41
-60.19
-64.42
-66.9
-67.79
-67.55
-66.68
-65.57
-64.22
-62.32
-59.21
-54.17
-46.57
-36.17
-23.34
-9.01
5.46
18.76
29.82
38.16
43.8
47.12
48.61
48.77
47.98
46.62
45.02
43.53
42.48
42.12
42.53
43.52
44.7
45.57
45.61
44.46
42
38.38
33.87
28.73
23.12
17.09
10.69
4.03
-2.68
-9.2
-15.31
-20.94
-26.23
-31.35
-36.47
-41.46
-45.79
-48.63
-49.1
-46.61
-41.21
-33.59
-24.92
-16.33
-8.59
-1.93
3.88
9.24
14.41
19.44
24.21
28.58
32.51
35.99
39.02
41.56
43.49
44.73
45.34
45.51
45.49
45.49
45.53
45.45
44.97
43.75
41.59
38.46
34.56
30.22
25.79
21.5
17.4
13.31
8.9
3.85
-2.02
-8.6
-15.3
-21.19
-25.18
-26.31
-24.15
-19
-11.74
-3.59
4.4
11.61
17.93
23.58
28.82
33.75
38.18
41.77
44.11
44.88
43.93
41.39
37.63
33.2
28.75
24.79
21.54
18.86
16.37
13.6
10.27
6.29
1.86
-2.69
-7.03
-10.87
-14.19
-17.08
-19.76
-22.54
-25.56
-28.81
-32.01
-34.68
-36.21
-36.15
-34.24
-30.53
-25.41
-19.41
-13.13
-7.1
-1.76
2.68
6.14
8.66
10.3
11.06
10.9
9.7
7.45
4.2
0.21
-4.13
-8.42
-12.33
-15.74
-18.72
-21.52
-24.41
-27.57
-31.07
-34.84
-38.79
-42.8
-46.87
-50.97
-55.09
-59.17
-63.15
-66.95
-70.52
-73.78
-76.44
-78.14
-78.42
-77.03
-74.18
-70.48
-66.74
-63.47
-60.49
-56.74
-50.61
-40.71
-26.59
-9.24
9.03
25.21
36.64
41.8
40.81
35.31
27.92
21.44
18.22
19.68
25.9
35.64
46.43
55.27
59.49
57.69
50.41
40.02
30.03
23.76
23.18
28.15
36.6
45.25
50.87
51.36
46.34
37
25.53
14.19
4.57
-2.69
-7.82
-11.41
-14.04
-16.09
-17.84
-19.66
-22.02
-25.43
-30.07
-35.69
-41.54
-46.64
-50.13
-51.52
-50.82
-48.43
-44.93
-40.81
-36.42
-31.84
-26.94
-21.61
-15.81
-9.67
-3.49
2.39
7.65
12.12
15.83
18.97
21.79
24.52
27.3
30.16
33.04
35.86
38.55
41.06
43.35
45.33
46.9
47.93
48.29
47.9
46.77
44.97
42.6
39.73
36.39
32.63
28.49
24.08
19.53
14.96
10.51
6.29
2.42
-0.93
-3.62
-5.6
-6.91
-7.78
-8.52
-9.41
-10.69
-12.51
-14.94
-18.02
-21.71
-25.82
-29.98
-33.73
-36.6
-38.33
-38.87
-38.39
-37.22
-35.72
-34.24
-33.08
-32.46
-32.42
-32.76
-33.09
-32.86
-31.54
-28.76
-24.43
-18.83
-12.51
-6.2
-0.68
3.48
6.14
7.67
8.9
10.82
14.27
19.57
26.59
34.84
43.75
52.89
61.94
70.57
78.31
84.57
88.8
90.65
90.12
87.46
83.14
77.63
71.32
64.56
57.58
50.44
42.98
34.95
26.08
16.32
5.9
-4.69
-14.8
-23.74
-30.86
-35.57
-37.45
-36.4
-32.78
-27.47
-21.65
-16.44
-12.42
-9.5
-6.94
-3.81
0.59
6.44
13.3
20.38
26.89
32.39
36.87
40.75
44.54
48.59
52.88
57.01
60.24
61.9
61.56
59.24
55.43
50.9
46.43
42.59
39.68
37.74
36.64
36.22
36.4
37.21
38.99
42.39
48.25
57.23
69.15
82.5
94.41
101.4
100.57
90.86
73.54
51.68
28.97
8.31
-9.05
-23.3
-35.4
-46.21
-56.03
-64.67
-71.9
-77.67
-82.07
-85.12
-86.59
-86.02
-83.11
-77.92
-71.05
-63.53
-56.38
-50.39
-45.9
-42.78
-40.72
-39.29
-38.08
-36.8
-35.33
-33.65
-31.89
-30.25
-28.89
-27.85
-27.02
-26.16
-24.98
-23.31
-21.12
-18.57
-15.94
-13.5
-11.39
-9.56
-7.87
-6.08
-4.02
-1.6
1.12
3.91
6.44
8.32
9.27
9.16
8.07
6.28
4.16
2
-0.07
-2.13
-4.45
-7.33
-10.96
-15.37
-20.34
-25.48
-30.27
-34.22
-36.81
-37.74
-36.85
-34.28
-30.36
-25.61
-20.53
-15.5
-10.81
-6.59
-2.97
-0.05
2.1
3.53
4.39
4.89
5.26
5.58
5.79
5.68
5.06
3.83
2.1
0.1
-1.87
-3.51
-4.7
-5.41
-5.84
-6.18
-6.62
-7.28
-8.11
-8.96
-9.59
-9.76
-9.25
-8.03
-6.15
-3.79
-1.27
1.09
2.97
4.16
4.58
4.39
3.9
3.47
3.35
3.58
4.06
4.54
4.86
4.95
4.87
4.61
4.1
3.19
1.74
-0.19
-2.34
-4.23
-5.34
-5.36
-4.25
-2.3
0.04
2.28
4.1
5.41
6.43
7.64
9.73
13.56
19.83
28.73
39.43
49.99
57.69
59.96
55.5
44.94
30.64
15.71
2.81
-6.82
-13.49
-18.45
-22.92
-27.35
-31.43
-34.41
-35.59
-34.36
-30.34
-23.51
-14.47
-4.49
4.79
11.88
15.74
16.06
13.23
8.09
1.57
-5.46
-11.9
-16.31
-17.05
-12.93
-3.52
10.78
28.78
48.21
65.48
75.85
74.42
57.74
25.02
-21.08
-73.95
-123.23
-157.69
-169.49
-157.29
-125.81
-82.35
-33.72
15.11
60.74
100.43
131.78
153.57
165.72
169.45
167.07
161.06
153.15
143.79
131.87
115.04
90.74
57.64
17.06
-25.46
-62.28
-86.32
-93.79
-85.57
-66.88
-45
-26.52
-15.2
-11.54
-14.16
-21.26
-31.5
-44.04
-57.87
-71.47
-83.01
-91
-95.01
-96.08
-96.17
-97.42
-101.04
-106.93
-113.8
-119.85
-123.43
-123.29
-118.79
-109.66
-95.87
-77.75
-56.05
-32.09
-7.4
16.7
39.54
61.2
82.2
103.02
123.66
143.6
161.79
177.07
188.37
194.85
195.85
190.84
179.44
161.59
137.83
109.43
78.31
46.68
16.54
-10.79
-34.98
-56.44
-76.01
-94.4
-111.92
-128.53
-144.01
-158.3
-171.55
-183.83
-194.62
-202.5
-205.3
-200.9
-188.19
-167.78
-142.05
-114.24
-87.45
-63.65
-43.57
-27
-13.53
-3.01
4.55
9.23
11.56
12.4
12.76
13.24
14
14.82
15.44
15.74
15.79
15.78
15.83
16.02
16.38
17.08
18.39
20.51
23.45
26.92
30.4
33.28
35.1
35.51
34.33
31.43
26.69
20.21
12.3
3.51
-5.47
-14.07
-22.05
-29.49
-36.67
-43.77
-50.47
-55.91
-58.78
-57.68
-51.64
-40.57
-25.41
-7.96
9.62
25.45
38.34
48.01
54.82
59.42
62.33
63.81
63.92
62.73
60.54
57.83
55.13
52.74
50.59
48.26
45.25
41.21
36.15
30.45
24.71
19.5
15.16
11.65
8.7
6
3.34
0.69
-1.75
-3.84
-5.53
-7.06
-8.76
-10.97
-13.89
-17.44
-21.48
-25.75
-30.11
-34.36
-38.26
-41.33
-43.02
-42.81
-40.46
-36.18
-30.55
-24.37
-18.34
-12.84
-7.89
-3.21
1.59
6.91
12.89
19.5
26.41
33.03
38.62
42.39
43.73
42.49
39
33.96
28.18
22.34
16.81
11.75
7.24
3.37
0.25
-2.09
-3.85
-5.44
-7.35
-9.91
-13.04
-16.35
-19.23
-21.23
-22.21
-22.47
-22.58
-22.99
-23.68
-23.9
-22.31
-17.57
-9.06
2.58
15.37
26.63
34.02
36.49
34.71
30.69
26.81
24.98
26.18
30.73
38.5
48.9
60.47
70.46
75.45
72.8
62.35
47.2
32.42
22.35
18.02
16.5
12.68
2.93
-11.83
-25.65
-30.26
-19.52
7.21
44.75
84.69
118.97
142.64
155.03
158.8
158.06
156.35
155.51
155.45
154.55
149.78
137.34
114
78.52
32.37
-21.05
-77.35
-132.38
-180.38
-214.02
-227.02
-216.95
-186.27
-140.9
-88.33
-35.26
13.36
55.13
89.96
119.11
144.67
168.84
193.14
217.13
240.42
260.72
275.78
283.86
283.89
275.49
258.92
235.06
204.07
166.44
122.95
75.13
24.9
-26.09
-77.01
-128.55
-176.16
-217.98
-253.42
-282.94
-307.7
-329.27
-349.03
-367.28
-382.51
-391.41
-390.94
-379.04
-355.99
-324.59
-289.1
-253.49
-219.93
-188.53
-158.12
-128.39
-99.93
-74.02
-51.68
-32.75
-15.92
0.46
17.17
33.52
47.1
55.38
57.04
52.65
44.4
35.07
26.88
20.83
16.83
14.14
12.31
11.64
12.94
16.97
23.86
32.75
42.1
50.17
55.56
57.58
56.38
52.54
46.85
39.96
32.32
24.23
15.98
7.96
0.66
-5.39
-9.7
-12.04
-12.41
-11.18
-8.98
-6.55
-4.58
-3.46
-3.25
-3.64
-4.23
-4.74
-5.19
-5.95
-7.57
-10.58
-15.26
-21.42
-28.39
-35.09
-40.28
-42.75
-41.74
-37.13
-29.59
-20.39
-10.98
-2.59
4.16
9.22
13.05
16.12
18.62
20.29
20.6
19.07
15.78
11.59
7.95
6.38
7.78
12.07
18.05
23.9
27.79
28.48
25.65
19.84
12.22
4.37
-1.89
-4.89
-3.54
2.36
12.05
24.14
37.27
50.55
63.61
76.25
88.14
98.81
108.14
116.82
126.36
138.2
152.36
166.45
175.82
175.38
161.69
134.78
98.22
57.91
20.09
-10.37
-30.86
-41.09
-42.51
-37.72
-29.83
-21.92
-16.39
-14.56
-16.45
-21.13
-27.21
-33.41
-38.78
-42.61
-44.47
-44.14
-41.95
-38.76
-35.89
-34.63
-35.77
-39.4
-44.92
-51.43
-58.1
-64.33
-69.66
-73.54
-75.32
-74.58
-71.59
-67.66
-65.06
-66.3
-73.08
-85.43
-101.42
-117.55
-129.64
-133.78
-127.15
-108.62
-79.21
-42.14
-2.34
34.59
63.85
82.73
91.07
90.96
85.48
77.53
69.04
60.88
53.31
46.45
40.38
35.01
29.9
24.18
16.95
7.73
-3.28
-15.14
-26.6
-36.47
-44.04
-49.05
-51.5
-51.32
-48.35
-42.42
-33.72
-22.93
-11.24
-0.04
9.5
16.76
21.72
24.9
26.97
28.59
30.18
31.84
33.37
34.37
34.54
33.75
32.18
30.28
28.61
27.67
27.75
28.92
30.93
33.32
35.49
36.79
36.71
34.9
31.32
26.2
19.94
13
5.77
-1.44
-8.37
-14.75
-20.36
-24.97
-28.56
-31.23
-33.24
-34.77
-35.73
-35.59
-33.51
-28.63
-20.46
-9.29
3.82
17.27
29.35
38.74
44.88
47.91
48.48
47.4
45.4
42.97
40.4
37.81
35.26
32.64
29.77
26.25
21.69
15.87
8.9
1.34
-6.08
-12.57
-17.65
-21.17
-23.28
-24.25
-24.29
-23.47
-21.71
-19.01
-15.39
-11.05
-6.34
-1.7
2.3
4.94
5.48
3.19
-2.45
-11.53
-23.53
-37.3
-51.15
-63.1
-71.31
-74.53
-72.28
-65.12
-54.42
-41.98
-29.63
-18.73
-9.96
-3.27
1.84
6.01
9.64
12.74
14.94
15.66
14.51
11.6
7.77
4.46
3.47
6.28
13.59
25
39.04
53.49
66.03
74.66
78.16
76.3
69.71
59.75
48.16
36.58
26.15
17.31
9.73
2.59
-4.93
-13.54
-23.58
-35.12
-48.02
-61.81
-75.63
-88.26
-98.26
-104.38
-105.92
-103.13
-97.05
-89.2
-81.13
-74.04
-68.61
-65.03
-62.98
-61.69
-59.74
-55.02
-44.96
-27.17
-0.43
34.46
74.43
114.71
150.35
177.97
196.98
209.62
219.84
231.56
247.01
265.91
285.7
302.54
312.47
312.38
300.41
276.03
239.97
194.11
141.02
83.76
25.43
-31.06
-83.03
-127.97
-163.71
-188.73
-202.67
-206.79
-203.63
-196.43
-188.16
-180.74
-174.72
-169.53
-163.86
-156.2
-145.29
-130.53
-112.4
-92.63
-73.86
-58.81
-49.29
-45.55
-46.37
-49.84
-54.21
-58.45
-62.2
-65.15
-66.59
-65.41
-60.64
-51.99
-40.26
-26.95
-13.73
-1.83
8.26
16.49
22.84
26.94
27.94
24.78
16.78
3.94
-12.75
-31.39
-49.42
-64.11
-73.09
-74.9
-69.52
-58.34
-43.99
-29.54
-17.59
-9.5
-5.1
-2.87
-0.81
2.66
7.99
14.23
19.5
21.75
19.52
12.4
1.24
-12.12
-25.03
-34.32
-36.68
-29.14
-9.71
21.62
62.64
109.17
156.03
198.49
233.36
259.28
276.35
285.16
285.88
278.06
261.01
234.61
200.15
160.61
120.1
82.85
51.94
28.52
11.87
0.02
-9.13
-17.05
-24.33
-31.19
-37.9
-45.19
-53.96
-64.57
-76.36
-87.64
-96.35
-101.05
-101.81
-100.1
-98.15
-97.75
-99.35
-101.9
-103.42
-101.99
-96.54
-87.15
-74.82
-60.95
-46.96
-33.97
-22.87
-14.3
-8.55
-5.45
-4.21
-3.63
-2.35
0.72
6.15
13.67
22.31
30.54
36.75
39.72
38.99
35.04
29.03
22.34
15.98
10.4
5.57
1.29
-2.41
-5.24
-6.81
-6.95
-5.92
-4.35
-2.98
-2.3
-2.45
-3.23
-4.38
-5.77
-7.47
-9.69
-12.62
-16.25
-20.48
-25.05
-29.73
-34.33
-38.76
-42.96
-46.86
-50.32
-53.24
-55.58
-57.47
-58.99
-60.02
-60.1
-58.52
-54.54
-47.83
-38.68
-28.06
-17.32
-7.76
-0.31
4.56
6.67
6.1
3.27
-0.75
-4.07
-4.28
0.87
12.44
29.81
50.49
71
87.92
98.84
102.65
99.46
90.11
75.9
58.44
39.59
21.32
5.32
-7.45
-16.91
-23.65
-28.49
-31.98
-34.24
-35.12
-34.52
-32.68
-30.18
-27.62
-25.29
-23
-20.23
-16.37
-11.14
-4.64
2.81
11
20.01
29.97
40.74
51.51
60.82
66.9
68.36
64.76
56.78
46.06
34.5
23.75
14.83
8.06
3.28
0.05
-2.06
-3.45
-4.34
-4.83
-4.89
-4.39
-3.14
-0.93
2.31
6.38
10.66
14.23
16.1
15.45
12.03
6.21
-1.08
-8.56
-15.07
-19.73
-22.16
-22.48
-21.23
-19.12
-16.86
-14.96
-13.55
-12.33
-10.66
-7.68
-2.73
4.39
13.13
22.33
30.42
36.07
38.6
38.24
36.03
33.34
31.42
30.95
31.97
34.04
36.6
39.2
41.66
44.13
46.88
50.17
53.97
57.92
61.27
63.09
62.53
59.05
52.53
43.25
31.84
19
5.45
-8.21
-21.54
-34.29
-46.32
-57.57
-68.01
-77.55
-86.06
-93.48
-99.85
-105.37
-110.32
-114.92
-119.16
-122.76
-125.1
-125.48
-123.27
-118.18
-110.43
-100.65
-89.75
-78.58
-67.68
-57.23
-47.37
-38.38
-31.01
-26.39
-25.65
-29.39
-37.22
-47.8
-59.16
-69.55
-77.98
-84.53
-90.23
-96.39
-104.16
-113.98
-125.49
-137.32
-147.15
-151.96
-148.62
-135.02
-110.94
-78.64
-42.36
-7.04
23.33
47.06
65.11
80.48
96.93
117.7
144.47
176.91
212.76
248.38
279.62
302.77
315.22
315.74
304.37
281.99
250.05
210.51
165.9
119.27
73.9
32.68
-2.39
-30.47
-51.7
-66.88
-76.96
-82.96
-85.8
-86.4
-85.65
-84.24
-82.72
-81.39
-80.31
-79.36
-78.21
-76.48
-73.9
-70.57
-66.96
-63.77
-61.57
-60.26
-58.96
-56.1
-49.99
-39.38
-24.03
-4.7
16.98
38.95
59.25
76.16
88.5
95.57
97.22
93.79
86.17
75.64
63.81
52.31
42.27
34.07
27.34
21.25
15.14
9.19
4.41
2.37
4.39
11.02
21.76
35.37
50.26
64.77
77.26
85.92
88.98
85.15
74.05
56.66
34.89
10.97
-13.2
-36.28
-57.23
-74.95
-88.15
-95.71
-97.18
-93.22
-85.48
-75.99
-66.49
-57.99
-50.81
-44.93
-40.32
-37.09
-35.34
-34.98
-35.62
-36.65
-37.41
-37.34
-36.11
-33.6
-29.98
-25.61
-21.02
-16.8
-13.49
-11.43
-10.68
-11.06
-12.23
-13.82
-15.56
-17.28
-18.88
-20.42
-22.05
-23.98
-26.49
-29.69
-33.48
-37.42
-40.67
-42.19
-41.01
-36.63
-29.2
-19.61
-9.17
0.71
8.89
14.83
18.53
20.49
21.35
21.75
22.07
22.48
22.96
23.41
23.67
23.68
23.39
22.76
21.79
20.42
18.66
16.55
14.28
12.05
9.98
7.98
5.66
2.42
-2.27
-8.58
-16.14
-24.05
-31.21
-36.75
-40.29
-41.99
-42.46
-42.46
-42.62
-43.39
-44.88
-46.88
-48.71
-49.23
-46.87
-40.07
-27.87
-10.42
10.81
33.25
54.05
70.88
82.63
89.53
92.83
94.03
94.36
94.37
94.05
93
90.69
86.73
80.97
73.68
65.56
57.63
51.05
46.89
45.86
48.14
53.29
60.19
67.08
71.82
72.37
67.29
56.37
40.75
22.63
4.57
-11.29
-23.82
-33.01
-39.65
-44.86
-49.57
-54.24
-58.78
-62.64
-65.16
-65.78
-64.32
-61.07
-56.62
-51.73
-46.96
-42.48
-37.92
-32.38
-24.78
-14.28
-0.74
14.97
31.03
45.11
54.92
58.86
56.31
47.75
34.54
18.54
1.86
-13.43
-25.46
-32.85
-35.05
-32.56
-26.89
-20.28
-14.92
-12.3
-12.68
-15.15
-18.18
-20.27
-20.49
-18.69
-15.3
-11
-6.57
-2.94
-1.02
-1.61
-5
-10.67
-17.23
-22.92
-26.38
-27.09
-25.49
-22.35
-18.16
-12.73
-5.37
4.47
16.61
29.83
42.27
52.1
58.19
60.38
59.36
56.14
51.62
46.35
40.56
34.33
27.89
21.58
15.73
10.55
5.92
1.28
-4.06
-10.62
-18.41
-26.69
-34.24
-39.64
-41.84
-40.39
-35.75
-29.07
-21.9
-15.74
-11.61
-9.84
-10.09
-11.61
-13.61
-15.53
-17.1
-18.27
-19.08
-19.64
-20.22
-21.35
-23.68
-27.62
-32.8
-37.79
-40.69
-39.95
-35.36
-28.43
-21.85
-18.21
-18.78
-23.07
-29.2
-35.09
-39.41
-41.84
-42.66
-41.98
-39.48
-34.6
-27.13
-17.62
-7.23
2.88
12.13
20.64
28.77
36.54
43.25
47.77
49.23
47.7
44.27
40.69
38.5
38.41
40.08
42.44
44.26
44.75
43.77
41.66
39.01
36.24
33.53
30.74
27.51
23.5
18.64
13.25
7.99
3.55
0.37
-1.72
-3.35
-5.37
-8.42
-12.57
-17.43
-22.39
-26.95
-30.92
-34.29
-36.95
-38.5
-38.3
-35.78
-30.92
-24.26
-16.89
-10.01
-4.45
-0.55
1.94
3.56
4.8
5.88
6.81
7.36
7.38
6.93
6.23
5.65
5.42
5.62
6.02
6.3
6.08
5.11
3.27
0.54
-2.98
-7.13
-11.66
-16.24
-20.5
-24.16
-27.08
-29.33
-31.28
-33.45
-36.3
-39.95
-43.95
-47.27
-48.64
-47.03
-42.01
-34
-24.05
-13.44
-3.23
6
14.17
21.43
27.92
33.52
37.85
40.5
41.24
40.26
38.24
36.12
34.74
34.42
34.82
34.98
33.84
30.55
24.73
16.54
6.63
-3.83
-13.08
-19.02
-19.87
-15.05
-5.9
4.39
11.8
13.12
7.31
-4
-17.05
-27.45
-31.48
-26.93
-13.34
8.25
35.54
65.13
92.86
114.26
125.38
123.76
109.07
83.26
50.05
13.91
-20.86
-50.85
-73.68
-87.86
-92.55
-87.62
-73.67
-52.28
-26
2.12
28.95
51.98
69.57
81.03
86.4
86.18
81.24
72.65
61.61
49.25
36.54
24.23
12.87
2.87
-5.6
-12.57
-18.37
-23.44
-28.18
-32.61
-36.33
-38.58
-38.51
-35.69
-30.36
-23.41
-16.16
-9.89
-5.32
-2.55
-1.1
-0.23
0.61
1.65
2.71
3.48
3.73
3.44
2.83
2.23
1.87
1.79
1.88
1.96
1.92
1.83
1.83
2.05
2.53
3.21
3.96
4.82
5.98
7.74
10.34
14
18.61
23.86
29.31
34.32
38.16
40.06
39.29
35.59
29.38
21.88
14.76
9.72
7.74
8.8
11.86
15.26
17.32
16.64
12.46
4.87
-5.14
-15.76
-24.7
-29.92
-30.27
-25.86
-17.93
-8.19
2.04
12.22
22.42
32.86
43.2
52.4
59.09
62.23
61.55
57.75
51.96
45.14
37.8
30.05
21.98
14.14
7.6
3.61
2.99
5.6
10.31
15.37
19.03
20.23
18.74
15.04
9.88
3.93
-2.48
-9.33
-16.77
-24.89
-33.62
-42.68
-51.64
-60.21
-68.34
-76.33
-84.73
-94.09
-104.63
-115.96
-127.1
-136.53
-142.62
-144.02
-140.11
-131.15
-118.24
-103.14
-87.85
-74.26
-63.74
-56.91
-53.6
-52.91
-53.5
-53.86
-52.58
-48.5
-40.9
-29.68
-15.5
0.25
15.7
28.95
38.59
44.01
45.55
44.2
41.25
37.72
34.26
30.92
27.37
23.19
18.06
12.01
5.4
-1.21
-7.25
-12.33
-16.39
-19.7
-22.85
-26.64
-32.05
-39.81
-50.06
-61.86
-73.06
-80.53
-80.94
-71.52
-50.91
-19.43
21.08
67.68
116.84
164.75
207.45
241.09
262.46
269.56
262.28
242.52
213.84
180.52
146.51
114.63
86.24
61.48
39.84
20.66
3.53
-11.66
-24.97
-36.51
-46.53
-55.38
-63.33
-70.4
-76.36
-80.74
-83.08
-83.2
-81.29
-78
-74.23
-70.86
-68.59
-67.76
-68.39
-70.3
-73.13
-76.28
-78.84
-79.55
-77.08
-70.53
-59.83
-46.07
-31.2
-17.4
-6.38
1.11
5.28
6.96
7.02
6.16
4.73
2.95
1.05
-0.71
-2.04
-2.84
-3.17
-3.23
-3.07
-2.63
-1.73
-0.24
1.64
3.41
4.36
3.89
1.81
-1.55
-5.49
-9.16
-11.89
-13.32
-13.49
-12.71
-11.55
-10.61
-10.47
-11.58
-14.08
-17.8
-22.28
-26.9
-31.08
-34.59
-37.52
-40.29
-43.56
-47.81
-53.06
-58.83
-64
-67.09
-66.75
-62.14
-53.38
-41.49
-28.13
-14.98
-3.33
6.33
14.22
20.96
27.12
32.95
38.27
42.69
45.83
47.51
47.84
47.09
45.56
43.54
41.21
38.75
36.36
34.15
32.18
30.35
28.52
26.51
24.26
21.78
19.13
16.39
13.58
10.67
7.62
4.4
0.97
-2.77
-6.87
-11.37
-16.17
-21.08
-25.83
-30.25
-34.33
-38.17
-41.78
-44.93
-46.96
-46.95
-44.06
-37.91
-28.91
-18.17
-7.14
2.83
10.92
16.9
21.05
23.85
25.71
26.86
27.43
27.49
27.22
26.89
26.81
27.22
28.18
29.52
30.88
31.81
31.87
30.81
28.65
25.6
22.04
18.29
14.57
10.93
7.34
3.7
-0
-3.63
-6.99
-9.84
-12.05
-13.66
-14.91
-16.18
-17.9
-20.44
-24.04
-28.74
-34.2
-39.72
-44.2
-46.42
-45.37
-40.59
-32.42
-21.89
-10.48
0.35
9.52
16.56
21.44
24.52
26.26
27.13
27.51
27.67
27.81
28.01
28.33
28.8
29.38
30
30.5
30.71
30.44
29.62
28.28
26.6
24.78
22.92
20.99
18.8
16.16
12.91
9.06
4.75
0.24
-4.19
-8.24
-11.73
-14.61
-16.88
-18.71
-20.37
-22.18
-24.46
-27.32
-30.48
-33.25
-34.61
-33.53
-29.3
-21.93
-12.06
-0.92
10.09
19.74
27.29
32.47
35.54
37.08
37.73
38.15
38.77
39.78
41.17
42.73
44.16
45.15
45.44
44.87
43.49
41.49
39.17
36.89
34.89
33.18
31.59
29.83
27.62
24.88
21.73
18.38
15.09
11.9
8.67
5.16
1.21
-3.19
-7.81
-12.3
-16.32
-19.7
-22.52
-25.07
-27.73
-30.88
-34.75
-39.34
-44.31
-48.87
-51.85
-52.04
-48.59
-41.35
-31.09
-19.23
-7.45
2.9
11.07
17.01
21.11
23.84
25.56
26.44
26.59
26.18
25.56
25.08
25.07
25.64
26.61
27.61
28.14
27.86
26.71
24.9
22.84
20.89
19.25
17.8
16.29
14.45
12.17
9.61
7.14
5.13
3.75
2.87
2.08
0.85
-1.19
-4.14
-7.73
-11.45
-14.84
-17.6
-19.73
-21.53
-23.4
-25.8
-29.09
-33.35
-38.3
-43.27
-47.12
-48.61
-46.77
-41.21
-32.42
-21.59
-10.27
0.1
8.56
14.81
19.03
21.66
23.18
23.96
24.23
24.13
23.84
23.56
23.51
23.86
24.58
25.47
26.21
26.51
26.27
25.57
24.65
23.72
22.78
21.7
20.24
18.19
15.54
12.51
9.37
6.46
3.95
1.83
-0.08
-2.06
-4.38
-7.19
-10.4
-13.8
-17
-19.76
-21.96
-23.67
-25.15
-26.74
-28.79
-31.57
-35.15
-39.19
-42.93
-45.24
-44.94
-41.23
-34.05
-24.26
-13.32
-2.9
5.77
12.06
16.09
18.35
19.47
19.89
19.86
19.53
19
18.44
18.04
18
18.37
19.13
20.13
21.18
22.13
22.88
23.45
23.94
24.4
24.77
24.79
24.1
22.44
19.79
16.5
13.13
10.31
8.43
7.43
6.85
5.99
4.27
1.43
-2.32
-6.44
-10.32
-13.56
-16.01
-17.84
-19.34
-20.82
-22.43
-24.1
-25.51
-26.03
-24.74
-20.57
-12.52
-0.12
16.34
35.69
56.06
75.29
91.37
102.94
109.54
111.69
110.65
108.15
105.7
104.25
103.91
104.13
104.04
102.79
99.57
93.43
83.14
67.34
45.1
16.75
-15.78
-49.19
-79.88
-105.12
-123.92
-136.92
-145.68
-151.66
-155.45
-156.81
-155.18
-150.31
-142.71
-133.61
-124.54
-116.83
-111.25
-107.97
-106.61
-106.5
-106.84
-106.79
-105.52
-102.13
-95.87
-86.26
-73.41
-58.16
-42.09
-27.01
-14.47
-5.17
1.14
5.41
8.66
11.38
13.4
14.26
13.93
13.26
13.88
17.44
24.76
35.3
47.28
58.46
66.94
71.78
72.98
70.97
66.25
59.15
49.94
39.18
27.87
17.45
9.41
4.77
3.63
5.02
7.08
7.75
5.49
0
-7.56
-14.97
-19.7
-19.77
-14.35
-3.94
9.87
24.86
38.77
49.8
56.95
60.11
59.94
57.56
54.15
50.67
47.75
45.77
44.84
44.95
45.94
47.43
48.94
49.93
50.08
49.32
47.8
45.71
43.22
40.26
36.64
32.13
26.54
19.86
12.36
4.45
-3.37
-10.74
-17.54
-23.86
-29.9
-35.69
-41.07
-45.69
-49.28
-51.85
-53.8
-55.63
-57.67
-59.7
-60.91
-60.2
-56.53
-49.43
-39.24
-27.11
-14.69
-3.78
4.24
8.62
9.5
7.71
4.5
1.22
-0.93
-0.97
1.78
7.69
16.66
27.98
40.35
52.09
61.48
67.33
69.09
66.92
61.36
53.08
42.64
30.65
17.93
5.6
-4.97
-12.65
-16.98
-18.38
-18.05
-17.55
-18.13
-20.31
-23.83
-27.96
-31.94
-35.24
-37.57
-38.6
-37.84
-34.66
-28.69
-20.19
-10.14
-0.04
8.77
15.57
20.42
23.84
26.26
27.65
27.35
24.6
18.97
10.7
0.8
-9.3
-18.06
-24.1
-26.35
-24.19
-17.52
-6.96
6.13
19.76
31.71
40.15
44.01
43.28
38.84
32.02
24.06
15.78
7.45
-1.08
-9.97
-19.28
-28.93
-38.88
-49.24
-60.41
-72.74
-86.37
-100.84
-115.1
-127.67
-137.03
-142.13
-142.51
-138.54
-131.17
-121.68
-111.3
-100.92
-90.97
-81.58
-72.71
-64.32
-56.47
-49.28
-42.83
-37.15
-32.1
-27.51
-23.18
-18.92
-14.53
-9.84
-4.6
1.6
9.23
18.81
30.66
44.64
59.92
75
87.88
96.72
100.28
98.35
91.79
82.27
71.61
61.19
51.61
42.61
33.51
23.73
13.16
2.4
-7.54
-15.56
-20.84
-23.03
-22.25
-18.91
-13.55
-6.75
0.89
8.63
15.68
21.28
24.94
26.49
26.17
24.48
22.03
19.44
17.16
15.52
14.67
14.56
14.89
15.2
15.07
14.17
12.59
10.62
8.64
6.86
5.09
2.76
-0.86
-6.48
-14.57
-25.1
-37.56
-50.98
-64.12
-75.73
-84.82
-90.94
-94.18
-95.22
-94.96
-94.22
-93.45
-92.41
-90.08
-84.86
-75.03
-59.39
-37.81
-11.45
17.45
46.2
72.41
94.5
111.86
124.57
132.89
137.09
137.31
133.77
126.95
117.71
107.21
96.62
86.79
78.14
70.51
63.38
56.13
48.26
39.66
30.6
21.57
13.06
5.41
-1.29
-7.07
-12
-16.1
-19.3
-21.64
-23.34
-24.88
-26.91
-30.02
-34.56
-40.53
-47.75
-55.95
-64.98
-74.84
-85.5
-96.78
-108.2
-119.03
-128.41
-135.61
-140.09
-141.52
-139.56
-133.64
-123.09
-107.3
-86.23
-60.79
-32.9
-5.08
20.18
41.17
57.41
69.44
78.36
85.23
90.69
94.93
98.02
100.3
102.43
105.31
109.56
115.08
120.93
125.57
127.39
125.41
119.63
110.91
100.57
89.76
79.02
68.22
56.9
44.63
31.4
17.66
4.24
-8.03
-18.52
-26.87
-33.11
-37.53
-40.62
-42.99
-45.25
-47.98
-51.59
-56.33
-62.32
-69.48
-77.76
-87.11
-97.38
-108.38
-119.65
-130.34
-139.22
-144.9
-146.14
-142.41
-134.13
-122.65
-109.9
-97.86
-87.87
-80.43
-75.05
-70.73
-66.22
-60.53
-53.17
-44.08
-33.64
-22.33
-10.72
0.73
11.63
21.75
30.96
39.33
47.1
54.61
