-65.46
-67.29
-68.32
-67.52
-64.1
-58.12
-50.72
-43.76
-39.08
-37.75
-39.63
-43.65
-48.22
-51.79
-53.43
-52.85
-50.41
-47.03
-43.94
-42.39
-43.3
-47.07
-53.39
-61.41
-69.97
-77.94
-84.45
-89.01
-91.43
-91.76
-90.19
-86.96
-82.37
-76.68
-70.07
-62.66
-54.54
-45.8
-36.8
-27.87
-19.3
-11.32
-3.98
2.73
8.78
14.07
18.41
21.4
22.71
22.13
19.62
15.46
10.21
4.67
-0.22
-3.67
-5.21
-4.75
-2.51
1.19
6.19
12.51
20.28
29.41
39.41
49.17
57.4
62.89
65.05
64.33
61.99
59.69
58.68
59.07
59.28
56.38
46.9
28.24
0.24
-34.35
-70.26
-101.1
-121.25
-127.25
-118.15
-95.4
-61.97
-21.7
20.94
61.2
94.54
117.48
128.35
127.68
117.72
101.42
81.59
60.21
38.52
17.5
-2.01
-19.1
-33.1
-43.74
-51.21
-55.87
-58.23
-58.74
-57.82
-56.13
-54.43
-53.56
-54.03
-55.84
-58.3
-60.31
-60.59
-58.07
-52.38
-43.94
-33.82
-23.45
-14.13
-6.6
-0.89
3.6
7.93
13.13
19.86
28.19
37.58
47.17
55.93
63.22
68.77
73.01
76.72
80.75
85.64
91.18
96.45
99.88
99.93
95.6
87.13
76.02
64.64
55.47
50.22
49.53
52.82
58.93
66.49
74.55
82.63
90.74
99.18
108.19
117.65
126.54
132.77
133.42
125.91
109.31
85.56
59.63
38.02
26.57
28.11
41.51
62.32
84.75
103.85
116.85
123.25
123.78
119.49
111.15
99.47
85.53
70.98
57.77
47.41
40.5
36.38
33.58
30.51
26.02
19.79
12.16
3.94
-4.03
-11.09
-17.05
-22.09
-26.86
-32.12
-38.48
-46.12
-54.61
-63.12
-70.79
-77.07
-81.84
-85.45
-88.38
-91.01
-93.48
-95.76
-97.7
-99.27
-100.56
-101.59
-102.16
-101.75
-99.55
-94.71
-86.82
-76.02
-63.19
-49.57
-36.36
-24.28
-13.35
-3.18
6.79
16.95
27.29
37.55
47.43
56.82
65.69
74.19
82.2
89.42
95.45
99.8
102.14
102.19
99.71
94.31
85.71
73.79
58.94
42.13
24.8
8.64
-5.07
-15.71
-23.5
-29.34
-34.42
-39.88
-46.43
-54.33
-63.29
-72.9
-82.61
-91.86
-100.03
-106.45
-110.46
-111.56
-109.65
-105.05
-98.53
-91.05
-83.41
-76.13
-69.45
-63.45
-58.31
-54.39
-51.98
-51.19
-51.72
-52.86
-53.89
-54.18
-53.44
-51.62
-48.76
-44.78
-39.47
-32.68
-24.37
-14.87
-4.68
5.53
15.1
23.46
30.09
34.6
36.67
36.34
33.89
29.98
25.48
21.22
17.81
15.44
14
13.17
12.6
12.08
11.53
11.01
10.56
10.28
10.29
10.76
11.88
13.7
16.09
18.7
21.05
22.56
22.85
21.78
19.52
16.52
13.28
10.25
7.67
5.55
3.76
2.15
0.69
-0.51
-1.16
-0.98
0.26
2.63
6.03
10.24
14.96
19.8
24.24
27.81
30.05
30.69
29.74
27.48
24.47
21.31
18.49
16.28
14.8
13.94
13.58
13.54
13.67
13.82
13.83
13.53
12.79
11.47
9.51
6.88
3.6
-0.16
-4.13
-7.91
-11.08
-13.36
-14.57
-14.77
-14.13
-12.88
-11.25
-9.29
-6.93
-3.99
-0.4
3.83
8.46
13.1
17.27
20.63
22.99
24.5
25.48
26.27
27.23
28.55
30.34
32.56
35.12
37.74
40.14
42.01
43.09
43.3
42.73
41.59
40.25
39
37.98
37.19
36.3
34.9
32.51
28.84
23.85
17.88
11.43
5.02
-0.96
-6.4
-11.49
-16.5
-21.8
-27.52
-33.51
-39.34
-44.35
-47.88
-49.41
-48.83
-46.39
-42.72
-38.49
-34.21
-30.16
-26.27
-22.38
-18.39
-14.33
-10.39
-6.77
-3.59
-0.86
1.49
3.5
5.07
6.03
6.18
5.4
3.67
1.17
-1.85
-5.12
-8.43
-11.66
-14.79
-17.83
-20.68
-23.24
-25.35
-26.8
-27.53
-27.5
-26.81
-25.7
-24.44
-23.35
-22.78
-22.84
-23.49
-24.46
-25.35
-25.81
-25.73
-25.29
-25.03
-25.64
-27.71
-31.46
-36.52
-41.95
-46.49
-48.98
-48.59
-45.05
-38.69
-30.25
-20.68
-11.07
-2.27
5.02
10.45
14.06
16.15
17.22
17.78
18.19
18.68
19.44
20.54
21.96
23.68
25.63
27.87
30.81
34.94
40.72
48.13
56.44
64.21
69.72
71.47
68.77
62.09
52.66
42.06
31.72
22.6
15.06
9.09
4.36
0.58
-2.46
-4.98
-7.13
-9.11
-11.12
-13.41
-16.2
-19.61
-23.58
-27.85
-32.05
-35.69
-38.27
-39.51
-39.29
-37.79
-35.35
-32.45
-29.51
-26.97
-25.01
-23.6
-22.6
-21.74
-20.77
-19.47
-17.75
-15.54
-12.86
-9.72
-6.1
-2.09
2.09
6.13
9.73
12.55
14.56
15.74
16.26
16.23
15.69
14.59
12.91
10.84
8.62
6.65
5.2
4.38
4.12
4.26
4.8
5.94
8.1
11.61
16.6
22.78
29.54
36.13
41.84
46.24
49.24
51.06
52.21
53.46
55.6
59.37
65.25
73.22
82.87
93.43
104
113.87
122.67
130.25
136.64
141.86
145.8
148.33
149.31
148.71
146.5
142.78
137.61
130.87
122.3
111.38
97.62
80.64
60.65
38.41
15.24
-7.42
-28.42
-47.21
-63.89
-78.81
-92.34
-104.69
-115.84
-125.84
-134.84
-143.1
-150.68
-157.44
-162.86
-166.37
-167.62
-166.71
-164.2
-160.91
-157.58
-154.54
-151.67
-148.27
-143.57
-136.96
-128.43
-118.59
-108.58
-99.61
-92.46
-87.13
-82.84
-78.4
-72.7
-65.08
-55.72
-45.33
-34.94
-25.57
-18.1
-13.05
-10.38
-9.24
-7.83
-3.8
5.06
19.91
40.2
63.63
86.84
106.54
120.36
127.34
127.73
122.49
112.9
100.24
85.67
70.35
55.34
41.38
28.83
17.66
7.46
-2.32
-12.13
-22.1
-31.88
-40.65
-47.45
-51.36
-52
-49.72
-45.5
-40.69
-36.47
-33.52
-31.92
-31.27
-30.86
-30.15
-29
-27.53
-26.05
-24.81
-23.74
-22.57
-20.94
-18.58
-15.52
-12.03
-8.36
-4.86
-1.66
1.17
3.53
5.27
6.19
6.09
4.99
3.14
0.87
-1.55
-4.08
-6.98
-10.74
-15.79
-22.31
-30
-38.14
-45.74
-51.72
-55.07
-55.07
-51.39
-44.22
-34.28
-22.78
-11.15
-0.66
7.82
13.99
18.02
20.47
21.84
22.48
22.56
22.1
21.08
19.51
17.4
14.84
11.95
8.95
6.13
3.75
2.03
1.04
0.61
0.43
0.1
-0.89
-2.8
-5.79
-9.75
-14.38
-19.23
-23.85
-27.88
-31.2
-34.05
-36.83
-40.1
-44.31
-49.56
-55.46
-61.16
-65.64
-67.92
-67.54
-64.68
-60.06
-54.78
-49.78
-45.75
-42.92
-41.21
-40.4
-40.32
-40.97
-42.5
-45.09
-48.79
-53.53
-59.02
-65
-71.22
-77.69
-84.61
-92.36
-101.38
-111.87
-123.66
-135.99
-147.44
-156.05
-159.79
-156.97
-146.92
-130.16
-108.3
-83.48
-57.77
-32.75
-9.48
11.27
28.82
42.61
52.38
58.47
61.9
64.07
66.27
69.39
73.63
78.69
84.15
89.7
95.19
100.63
105.93
110.82
114.9
117.77
119.21
119.24
118.2
116.48
114.52
112.56
110.68
108.76
106.55
103.81
100.37
96.1
90.89
84.61
77.19
68.64
59.22
49.5
40.19
31.96
25.06
19.25
14.01
8.71
2.96
-3.24
-9.59
-15.67
-21.19
-26.17
-30.94
-36.02
-42.13
-49.91
-59.54
-70.53
-81.57
-90.75
-96.33
-97.28
-93.75
-87.02
-78.89
-70.85
-63.74
-57.61
-51.97
-46.19
-39.74
-32.25
-23.55
-13.5
-1.97
10.88
24.75
39.09
53.17
66.31
77.93
87.69
95.72
102.43
108.37
114.02
119.61
124.91
129.6
133.28
135.65
136.61
135.99
133.67
129.84
125.18
120.69
117.35
115.37
113.66
110.02
101.84
87.43
66.93
42.33
16.45
-8.16
-30.17
-49.44
-66.28
-80.83
-92.56
-100.62
-104.44
-103.97
-99.51
-91.19
-78.79
-62.1
-42.09
-21.4
-4.13
5.57
5.39
-3.95
-18.85
-34.35
-45.96
-51.19
-49.66
-42.29
-30.2
-14.09
5.69
28.63
53.69
79.56
105.05
129.59
153.25
176.45
199.49
222.27
244.32
264.92
283.41
299.18
311.78
320.84
325.97
326.98
323.73
316.1
303.7
285.9
261.93
231.38
194.67
153.36
109.95
67.25
27.78
-6.88
-36.12
-60.14
-79.55
-95.03
-107.2
-116.62
-123.92
-129.85
-135.07
-140.03
-144.79
-149.12
-152.6
-154.79
-155.35
-154.14
-151.28
-146.86
-141.08
-134.14
-126.26
-117.71
-108.79
-99.89
-91.35
-83.47
-76.33
-69.96
-64.3
-59.34
-55.09
-51.57
-48.82
-46.74
-45.1
-43.59
-41.93
-39.92
-37.49
-34.71
-31.81
-29.04
-26.72
-25.15
-24.63
-25.48
-27.95
-32.1
-37.93
-45.21
-53.57
-62.47
-71.26
-79.13
-85.2
-88.6
-88.69
-85.23
-78.52
-69.29
-58.46
-47
-35.7
-25.06
-15.34
-6.74
0.66
6.77
11.64
15.37
18.25
20.54
22.53
24.35
25.96
27.28
28.26
28.9
29.15
29.08
28.63
27.75
26.38
24.53
22.23
19.68
17.02
14.41
12.02
10.02
8.56
7.65
7.14
6.7
5.93
4.49
2.32
-0.45
-3.49
-6.38
-8.83
-10.79
-12.39
-13.93
-15.75
-18.08
-20.98
-24.36
-27.82
-30.78
-32.53
-32.45
-30.21
-25.85
-19.93
-13.22
-6.67
-1.02
3.27
6.16
7.8
8.49
8.65
8.66
8.92
9.67
11.04
12.94
15.12
17.29
19.2
20.85
22.36
23.8
25.12
26.18
26.81
26.71
25.78
24.1
22.14
20.41
19.39
19.25
19.98
21.4
22.82
23.43
22.6
20.45
17.59
14.77
12.47
10.88
9.91
8.7
6.09
1.35
-5.25
-12.71
-20.05
-26.8
-32.98
-38.8
-45.18
-53.47
-64.7
-79.28
-97.26
-118.96
-144.55
-173.18
-197.09
-206.48
-195.32
-165.42
-124.1
-78.55
-32.65
12.43
55.75
95.7
129.4
152.91
164.65
167.42
167.27
170.43
180.32
196.75
213.45
224.32
224.75
213.61
193.41
168.58
143.33
120.42
101.06
85.28
72.62
61.99
52.68
44.81
39.23
36.7
37.04
38.94
40.27
39.31
35.17
28.56
21.27
15.04
10.51
6.79
2.19
-4.79
-14.39
-25.92
-37.93
-49.01
-58.47
-66.42
-73.69
-81.12
-89.23
-97.72
-105.96
-113.17
-118.82
-122.74
-125.07
-126.16
-126.21
-125.39
-123.74
-121.41
-118.59
-115.53
-112.34
-109
-105.46
-101.62
-97.55
-93.37
-89.32
-85.46
-81.64
-77.63
-73.11
-68.07
-62.66
-57.28
-52.28
-47.7
-43.21
-38.23
-32.1
-24.33
-14.88
-3.96
7.9
20.1
32.18
43.76
54.56
64.4
73.18
80.79
87.08
91.69
93.92
92.95
87.94
78.53
65.01
48.4
30
11.15
-7.01
-23.62
-37.83
-48.86
-55.92
-58.65
-57.29
-53.02
-47.64
-43.29
-41.98
-45.24
-54.17
-69.06
-89.15
-112.32
-135.18
-153.47
-163.26
-162.17
-150.01
-128.44
-99.76
-65.52
-26.15
18.38
67.01
116.33
160.47
192.63
207.2
201.83
178.12
140.8
96.11
50.07
7.38
-28.95
-57.45
-77.98
-91.5
-99.93
-105.9
-112.35
-121.73
-135.04
-150.87
-165.16
-172.07
-165.93
-143.37
-105.01
-55.37
-1.38
49.9
93.41
126.91
150.41
164.78
170.61
167.71
155.58
134.14
104.34
68.38
29.33
-9.54
-45.45
-76.6
-102.27
-122.74
-139.05
-152.75
-165.54
-178.6
-191.95
-203.69
-209.77
-204.59
-182.78
-141.32
-81.35
-8.53
68.33
139.57
197.38
237.52
259.86
267.53
265.4
258.53
250.87
244.58
240.16
236.81
233.22
228.17
220.99
211.54
200.28
188.1
176.17
165.81
158.01
152.96
149.64
145.95
139.21
127.04
108.19
82.85
52.61
19.87
-12.82
-43.44
-70.75
-94.54
-115.17
-133.32
-149.54
-163.92
-176.18
-185.63
-191.43
-192.84
-189.44
-181.41
-169.57
-155.38
-140.57
-126.83
-115.38
-106.67
-100.57
-96.41
-93.4
-90.84
-88.34
-85.75
-83.2
-80.99
-79.5
-78.9
-79.03
-79.24
-78.59
-76.04
-70.88
-63.12
-53.66
-44.06
-36.16
-31.49
-30.92
-34.43
-41.29
-50.3
-60.08
-69.36
-76.98
-81.98
-83.63
-81.6
-76.02
-67.55
-57.25
-46.29
-35.66
-25.92
-17.31
-9.63
-2.56
4.41
11.86
20.36
30.18
41.31
53.23
65.05
75.84
84.96
92.12
97.45
101.25
103.73
104.8
104.2
101.54
96.55
89.27
79.91
68.95
56.85
43.91
30.22
15.78
0.56
-15.41
-32.11
-49.66
-68.11
-87.46
-107.3
-126.72
-144.43
-159.19
-170.06
-176.74
-179.55
-179.13
-176.26
-171.63
-165.7
-158.83
-151.27
-143.03
-133.89
-123.22
-110.2
-93.84
-73.4
-48.46
-19.28
13.29
47.89
82.92
116.9
148.43
176.28
199.11
215.6
224.65
225.76
219.4
207.07
191.08
173.91
157.62
143.36
131.36
121.2
112.11
103.38
94.47
85.12
75.31
65.06
54.43
43.38
31.87
19.85
7.51
-4.68
-15.95
-25.31
-31.84
-35.01
-34.91
-32.2
-28.03
-23.73
-20.43
-19.04
-19.95
-23.13
-28.19
-34.48
-41.27
-47.93
-54.02
-59.27
-63.56
-66.48
-67.47
-65.88
-61.26
-53.68
-43.85
-32.91
-22.08
-12.29
-3.95
2.93
8.62
13.37
17.38
20.76
23.67
26.4
29.37
33.01
37.57
42.83
48.1
52.44
54.9
54.94
52.6
48.42
43.19
37.69
32.31
27.16
22.04
16.82
11.53
6.41
1.86
-1.81
-4.42
-6.01
-6.8
-7.1
-7.25
-7.62
-8.58
-10.43
-13.27
-16.82
-20.29
-22.57
-22.49
-19.37
-13.26
-4.95
4.33
13.42
21.61
28.76
35.05
40.66
45.52
49.33
51.86
53.13
53.49
53.46
53.44
53.46
53.28
52.47
50.88
48.67
46.23
43.96
42.08
40.55
38.99
36.94
34.05
30.51
26.87
23.86
22.04
21.64
22.39
23.57
24.29
23.83
22.37
20.57
19.22
18.84
19.49
20.75
21.93
22.39
21.76
21.25
22.3
26.12
33.4
44.51
59.55
77.81
97.33
114.78
128.56
137.39
140.69
138.74
132.91
125.59
119.07
114.68
112.99
117.61
131.08
153.03
179.53
204.76
223.61
233.26
233.09
224.44
214.18
208.22
209.5
218.1
233.5
256.45
288.14
327.35
343.38
314.1
234.24
119.8
-4.26
-117.72
-209.41
-276.03
-320.59
-351.99
-372.03
-380.78
-378.98
-369.79
-357.9
-348.14
-340.23
-335.13
-333
-329.28
-319.68
-302.13
-277.71
-249.54
-220.94
-194.39
-172.09
-154.8
-139.75
-124.11
-106.29
-86.81
-67.41
-49.81
-35.09
-24.02
-16.45
-10.42
-4.13
3.33
11.58
19.61
26.44
31.49
34.41
35.31
35.02
34.27
33.46
32.48
31.06
28.97
26.1
22.43
18.08
13.26
8.19
2.98
-2.25
-7.41
-12.42
-17.22
-21.71
-25.66
-28.68
-30.12
-29.36
-25.82
-19.36
-10.34
0.19
10.92
20.5
27.91
32.64
34.6
34.19
32.1
29.18
26.22
23.86
22.37
21.62
21.23
20.63
19.34
17.14
14.11
10.54
6.88
3.41
0.37
-2.17
-4.34
-6.31
-8.26
-10.39
-12.8
-15.48
-18.34
-21.15
-23.53
-25.2
-25.92
-25.69
-24.72
-23.38
-22
-20.81
-19.8
-18.76
-17.58
-16.15
-14.57
-13.16
-12.26
-12.11
-12.66
-13.52
-14.04
-13.61
-11.82
-8.69
-4.6
-0.14
4.2
8.08
11.51
14.64
17.56
20.28
22.68
24.55
25.9
26.79
27.35
27.74
27.98
28.02
27.71
26.97
25.75
24.15
22.22
20.07
17.75
15.29
12.71
10.05
7.36
4.72
2.23
-0.09
-2.12
-3.82
-5.14
-5.9
-5.96
-5.15
-3.35
-0.64
2.49
5.28
6.69
5.73
1.72
-5.54
-15.57
-27.24
-38.95
-48.89
-55.34
-57
-53.43
-45.07
-33.39
-20.3
-7.63
3.35
12.28
19.63
26.26
33.03
40.45
48.64
57.39
66.38
75.07
82.91
89.17
93.05
93.8
91.04
84.74
75.3
63.46
50.03
35.88
21.64
7.86
-5.08
-16.83
-27.24
-36.33
-44.18
-50.97
-56.83
-61.88
-66.13
-69.58
-72.22
-74.1
-75.25
-75.58
-74.92
-72.84
-68.94
-62.83
-54.42
-44.08
-32.51
-20.7
-9.62
-0.12
7.32
12.6
15.95
17.9
19.23
20.92
23.81
28.52
35.11
43.24
52.08
60.7
68.16
73.77
77.21
78.35
77.33
74.28
69.45
62.99
54.97
45.51
34.65
22.55
9.42
-4.35
-18.23
-31.56
-43.65
-54
-62.39
-69.03
-74.44
-79.16
-83.44
-87.07
-89.35
-89.36
-86.49
-80.57
-72.24
-62.59
-52.85
-44
-36.59
-30.77
-26.35
-23.1
-20.71
-18.98
-17.77
-16.86
-16.07
-15.27
-14.37
-13.39
-12.33
-11.12
-9.68
-7.88
-5.66
-3.14
-0.66
1.37
2.49
2.49
1.42
-0.39
-2.6
-4.84
-7.02
-9.18
-11.45
-14.04
-17.03
-20.33
-23.69
-26.65
-28.61
-28.99
-27.3
-23.36
-17.43
-10.2
-2.66
4.18
9.58
13.31
15.59
16.99
18.19
19.6
21.36
23.27
24.88
25.79
25.82
25.07
23.89
22.76
22.02
21.8
21.93
21.97
21.35
19.68
16.93
13.49
10.1
7.51
6.13
5.76
5.67
4.88
2.55
-1.66
-7.51
-14.23
-20.85
-26.57
-30.95
-34.23
-37.26
-41.44
-48.19
-58.53
-72.41
-88.62
-104.89
-118.51
-126.91
-128.16
-121.24
-105.98
-82.97
-53.34
-18.7
18.74
56.15
89.94
115.83
129.28
126.44
105.52
68.33
20.7
-28.52
-69.93
-96.36
-104.9
-96.83
-75.94
-46.07
-9.24
34.55
85.95
144.35
206.42
266.3
317.07
352.8
369.98
368.04
348.71
315.06
270.58
218.64
162.62
106.19
53.41
8.35
-25.45
-45.98
-53.1
-48.33
-34.04
-12.65
13.93
43.9
75.01
104.17
127.65
141.98
145.39
138.44
123.93
105.71
87.11
69.98
54.5
39.83
24.88
8.98
-8.35
-27.65
-49.67
-74.95
-103.16
-132.63
-160.45
-183.35
-198.92
-206.57
-207.87
-205.78
-203.3
-202.28
-202.71
-203.03
-200.99
-194.86
-184.18
-169.96
-154.15
-138.78
-125.2
-113.56
-102.71
-90.62
-75.22
-55.13
-30.5
-3.01
24.52
48.93
67.96
80.64
87.55
90.25
90.59
90.02
89.51
89.61
90.51
92.45
95.55
99.72
104.72
110.13
115.43
120.12
123.69
125.62
125.44
122.73
117.16
108.73
97.63
84.19
68.74
51.43
32.18
10.93
-12.37
-37.44
-63.6
-89.98
-115.6
-139.62
-161.41
-180.6
-196.75
-209.5
-218.55
-223.84
-225.77
-225.13
-222.88
-219.81
-216.4
-212.69
-208.72
-204.62
-200.81
-197.48
-194.07
-188.77
-178.8
-161.41
-135.42
-102.43
-66.77
-34.21
-9.69
4.63
9.95
9.87
8.46
8.4
10.35
13.49
16.79
19.98
23.56
28.2
34.01
40.14
45.29
48.51
49.84
50.4
51.86
55.65
62.19
70.75
79.66
86.95
91.01
91.03
87.01
79.74
70.23
59.33
47.61
35.33
22.67
10.1
-1.61
-11.51
-18.64
-22.55
-23.48
-22.24
-19.98
-17.81
-16.39
-15.96
-16.27
-16.72
-16.58
-15.12
-11.81
-6.44
0.87
9.83
20.11
31.38
43.52
56.35
69.7
83.25
96.49
108.83
119.67
128.46
134.74
138.27
139.03
137.42
134.11
129.89
125.51
121.34
117.22
112.36
105.46
95.03
79.91
59.74
35.21
8.04
-19.48
-45.3
-68.26
-88.4
-106.6
-123.86
-140.34
-155.07
-166.02
-170.87
-167.78
-156.04
-136.22
-109.96
-79.5
-47.26
-15.68
12.89
36.3
53.09
62.71
65.65
63.36
57.79
50.84
43.92
37.85
32.7
28.18
24.01
19.93
16.04
12.7
10.47
9.88
11.26
14.51
19.11
24.36
29.44
33.73
36.79
38.39
38.47
37.1
34.51
31.01
27.11
23.32
20.05
17.36
15.07
12.77
10.16
7.13
3.88
0.87
-1.36
-2.33
-1.84
0.04
3.01
6.62
10.33
13.61
16.05
17.26
17.07
15.41
12.38
8.26
3.51
-1.35
-5.81
-9.41
-11.81
-12.8
-12.3
-10.54
-8.06
-5.61
-3.84
-3.05
-2.91
-2.74
-1.62
1.04
5.29
10.58
16.1
21.05
24.92
27.66
29.3
30.01
29.83
28.58
26.04
22.11
16.89
10.72
4.31
-1.6
-6.25
-9.14
-10.21
-9.77
-8.29
-6.43
-4.7
-3.41
-2.74
-2.62
-2.89
-3.19
-2.98
-1.63
1.39
6.32
13
20.81
28.91
36.38
42.58
47.2
50.26
52.04
52.95
53.33
53.33
53.01
52.29
51.01
49.1
46.54
43.44
40.08
36.76
33.65
30.85
28.38
26.15
24.1
22.24
20.51
18.76
16.74
14.01
10.18
5.06
-1.23
-8.3
-15.6
-22.59
-28.89
-34.29
-38.72
-42.22
-44.87
-46.78
-47.97
-48.49
-48.3
-47.37
-45.7
-43.29
-40.05
-35.8
-30.26
-23.11
-14.21
-3.69
7.97
20
31.47
41.62
50
56.5
61.39
65.12
68.11
70.6
72.58
73.88
74.32
73.91
72.86
71.64
70.95
71.42
73.59
77.44
82.44
87.7
92.34
95.92
98.74
101.52
104.92
108.91
112.47
113.91
111.51
104.2
91.9
75.53
56.71
37.57
20.39
7.28
-0.5
-3.26
-3.33
-4.72
-11.83
-27.85
-53.33
-85.84
-120.65
-152.51
-177.22
-192.87
-199.81
-200.08
-196.51
-191.86
-188.26
-186.83
-187.51
-189
-189.22
-185.81
-177.18
-163.11
-144.87
-124.83
-105.49
-88.65
-75
-64.11
-55.07
-46.96
-39.17
-31.32
-23.1
-14.19
-4.41
6.08
16.65
26.2
33.61
38.17
39.86
39.29
37.38
34.93
32.23
29.18
25.37
20.49
14.57
8.05
1.66
-3.89
-8.09
-11.06
-13.36
-15.93
-19.59
-24.68
-30.91
-37.42
-43.24
-47.61
-50.24
-51.34
-51.4
-50.93
-50.29
-49.67
-48.97
-47.95
-46.31
-43.84
-40.62
-37.02
-33.72
-31.3
-30
-29.3
-27.91
-23.86
-15.17
-0.43
20.53
46.2
73.65
99.26
119.73
133.08
139.18
139.43
136.14
131.59
127.39
124.36
122.71
122.3
122.92
124.24
125.76
126.65
125.82
121.99
114.01
101.08
82.89
59.84
32.92
3.58
-26.39
-55.07
-80.56
-101.08
-115.31
-122.8
-124.01
-120.46
-114.25
-107.48
-101.69
-97.61
-95.14
-93.78
-93.03
-92.53
-92.23
-92.07
-91.88
-91.18
-89.27
-85.24
-78.18
-67.51
-53.07
-35.54
-16.4
2.12
17.56
27.83
31.92
30.2
24.21
16.2
8.24
1.68
-2.93
-5.76
-7.14
-7.28
-6.32
-4.39
-1.87
0.63
2.6
3.86
4.71
5.86
8.01
11.52
16.16
21.16
25.52
28.44
29.57
28.98
27.03
24.02
20.24
15.8
10.91
5.96
1.48
-2
-4.15
-5.06
-5.02
-4.36
-3.09
-0.99
2.34
7.16
13.26
19.98
26.3
31.2
34.09
34.91
33.95
31.66
28.4
24.28
19.36
13.76
7.89
2.3
-2.42
-6.01
-8.59
-10.61
-12.55
-14.57
-16.44
-17.47
-16.85
-13.83
-8.06
0.27
10.42
21.3
31.79
40.92
48.06
52.99
55.84
56.92
56.72
55.68
54.12
52.32
50.37
48.27
45.96
43.34
40.36
36.95
33.17
29.18
25.29
21.81
19.03
17
15.49
14.03
12.11
9.43
5.95
1.91
-2.39
-6.7
-11.03
-15.56
-20.41
-25.64
-31.09
-36.46
-41.42
-45.76
-49.39
-52.39
-54.86
-56.81
-58.14
-58.54
-57.59
-54.81
-49.87
-42.86
-34.32
-25.27
-16.88
-10.09
-5.17
-1.66
1.54
5.55
11
17.67
24.67
30.84
35.21
37.49
37.88
36.97
35.37
33.6
31.99
30.8
30.3
30.65
31.93
33.9
36.11
37.94
38.86
38.53
36.88
34.15
30.79
27.21
23.6
19.98
16.2
12.21
8.13
4.14
0.5
-2.67
-5.51
-8.37
-11.54
-15.13
-18.87
-22.19
-24.43
-25.04
-23.82
-20.99
-17.12
-12.96
-9.17
-6.25
-4.36
-3.44
-3.27
-3.61
-4.19
-4.69
-4.87
-4.6
-3.93
-3.19
-2.75
-2.9
-3.71
-4.9
-5.95
-6.36
-5.92
-4.7
-3.05
-1.42
-0.18
0.43
0.29
-0.6
-2.27
-4.7
-7.72
-11.06
-14.39
-17.44
-20.02
-22.14
-23.95
-25.64
-27.37
-29.26
-31.28
-33.28
-34.94
-35.85
-35.53
-33.67
-30.18
-25.33
-19.69
-13.95
-8.77
-4.58
-1.58
0.27
1.2
1.55
1.68
1.87
2.29
3
3.94
5.01
6.08
7.03
7.81
8.34
8.6
8.53
8.15
7.51
6.71
5.83
4.87
3.8
2.47
0.82
-1.17
-3.42
-5.74
-7.92
-9.83
-11.51
-13.06
-14.73
-16.69
-19.07
-21.72
-24.28
-26.17
-26.74
-25.54
-22.37
-17.51
-11.62
-5.51
0.05
4.56
7.85
10.15
11.75
12.96
13.94
14.7
15.21
15.48
15.72
16.2
17.28
19.05
21.38
23.81
25.81
27.07
27.51
27.5
27.56
28.18
29.45
31.11
32.57
33.24
32.76
31.17
28.95
26.77
25.27
24.74
25.01
25.52
25.47
24.28
21.74
18.01
13.31
7.63
0.71
-7.71
-17.19
-26.7
-35.02
-41.97
-48.92
-58.29
-71.74
-88.17
-103.12
-110.03
-103.44
-81.91
-49.26
-12.97
19.27
42.72
56.65
63.23
65.12
63.85
60.26
56.12
55.37
63.45
84.44
117.82
157.09
191.57
210.78
209.19
188.58
156.7
123.21
95.12
74.48
58.87
44.19
27.5
8.33
-11.87
-31.37
-49.61
-67.15
-84.82
-102.65
-119.39
-132.83
-140.66
-141.5
-135.08
-122.35
-104.97
-84.89
-63.88
-43.38
-24.28
-7.13
7.66
19.76
28.78
34.5
36.94
36.51
34.03
30.38
26.21
21.67
16.46
9.91
1.44
-9.31
-22.11
-35.99
-49.38
-60.31
-66.99
-68.53
-65.61
-60.42
-56
-55.06
-58.92
-66.95
-77.06
-86.57
-93.55
-97.56
-99.52
-101.19
-104.01
-108.61
-114.68
-121.35
-127.8
-133.55
-138.4
-142.1
-144.14
-143.86
-141.06
-136.36
-131.06
-126.3
-121.83
-115.45
-103.64
-83.37
-54.01
-18.32
18.4
50.78
75.8
94.28
110.1
128.27
152.35
183.19
219.03
256.85
293.91
328.59
360.3
388.68
412.76
430.42
438.4
433.12
411.93
374.14
321.78
259.42
193.1
128.77
71.03
22.35
-16.76
-46.85
-69.15
-85.08
-96.27
-104.4
-111.07
-117.15
-122.68
-126.79
-128.22
-126.05
-120.15
-111.25
-100.59
-89.43
-78.6
-68.53
-59.35
-51
-43.64
-37.45
-32.83
-30.27
-30.04
-31.85
-34.87
-37.8
-39.26
-38.6
-36.14
-33.1
-31.1
-31.36
-34.19
-39.16
-45.55
-52.72
-60.36
-68.11
-75.33
-81.14
-84.71
-85.8
-85.12
-84.03
-83.94
-85.77
-89.35
-93.81
-98.13
-101.61
-104.22
-106.44
-108.91
-112.25
-117.13
-124.3
-134.75
-149.31
-168.04
-189.51
-210.49
-226.46
-232.88
-226.92
-208.33
-179.47
-144.02
-105.49
-65.97
-25.84
15.87
60.9
111.18
168.51
233.91
306.83
383.91
458.55
521.55
563.01
574.96
553.31
499.12
418.16
319.84
215.27
115.46
29.35
-37.62
-84.1
-112.56
-127.73
-134.8
-138.02
-139.89
-141.38
-142.66
-143.74
-144.62
-145.33
-145.72
-145.63
-145.21
-144.89
-145.16
-146.12
-147.29
-147.61
-146.06
-142.1
-136.21
-129.79
-124.63
-122.2
-123
-126.4
-130.76
-134.19
-135.04
-132.57
-127.26
-120.38
-113.64
-108.48
-105.59
-104.84
-105.52
-106.52
-106.39
-103.39
-95.39
-80.43
-57.54
-27.53
6.74
40.97
70.84
93.46
108.21
116.44
120.46
122.33
123.1
123.04
122.23
121.2
120.97
122.82
127.3
133.78
140.42
144.78
144.7
139.15
128.56
114.51
99.12
84.19
70.81
59.19
49.16
40.51
33.25
27.43
22.95
19.25
15.43
10.61
4.28
-3.63
-12.59
-21.94
-31.17
-40.01
-48.44
-56.47
-63.92
-70.29
-75.05
-77.67
-77.94
-76.07
-72.53
-67.82
-62.39
-56.4
-49.79
-42.47
-34.45
-25.97
-17.41
-9.14
-1.41
5.69
12.32
18.63
24.77
30.85
36.85
42.72
48.43
54.02
59.43
64.54
69.05
72.56
74.69
75.29
74.5
72.72
70.59
68.69
67.46
66.99
67.12
67.57
67.99
68.15
67.97
67.53
67.02
66.57
66.23
65.99
65.88
66.13
67.27
70.12
75.65
84.65
97.48
113.79
132.44
151.67
169.3
183.16
191.33
192.55
186.45
173.75
156.22
136.41
117.16
100.84
88.74
80.58
74.83
69.41
62.74
54.22
44.18
33.13
20.92
6.44
-12.08
-36.17
-66.04
-100.09
-135.35
-168.41
-196.6
-218.81
-235.35
-247.35
-255.86
-261.3
-263.39
-261.76
-256.61
-249.07
-240.92
-233.62
-227.38
-220.71
-211.01
-195.68
-173.45
-145.05
-112.91
-80.24
-49.83
-23.35
-1.2
17
31.77
43.3
51.45
56.03
57.15
55.48
52.12
48.24
44.78
42.26
40.64
39.68
39.08
38.63
38.3
38.16
38.15
38.14
37.88
36.98
35.28
32.78
29.63
26.15
22.63
19.22
15.97
12.85
9.74
6.6
3.48
0.46
-2.21
-4.28
-5.56
-5.99
-5.75
-5.24
-4.95
-5.27
-6.49
-8.51
-10.95
-13.13
-14.21
-13.37
-10.11
-4.39
3.22
11.75
20.03
27.03
32.12
35.13
36.33
36.25
35.55
34.81
34.44
34.59
35.2
36.01
36.88
37.78
38.91
40.6
43.17
46.72
51.2
56.41
62.2
68.49
75.28
82.48
89.85
96.99
103.46
108.94
113.37
116.89
119.75
122.12
123.99
125.11
125.1
123.64
120.43
115.39
108.47
99.68
89.07
76.65
62.54
46.95
30.2
12.7
-5.08
-22.72
-39.76
-55.55
-69.35
-80.43
-88.29
-93.08
-95.74
-97.94
-101.61
-108.22
-118.2
-130.73
-144.05
-155.85
-164.22
-168.02
-167.17
-162.44
-155.16
-146.78
-138.82
-132.83
-130.24
-132.31
-139.35
-150.28
-162.5
-172.25
-175.67
-169.94
-154.04
-128.76
-96.13
-58.54
-18.2
22.95
63.04
100.04
131.9
156.81
173.74
182.56
184.06
179.73
171.24
160.14
147.43
133.49
118.28
101.69
83.89
65.51
47.63
31.27
17.24
5.77
-3.27
-9.96
-14.22
-15.67
-14.07
-9.45
-2.41
6.13
15.08
23.57
31
37.05
41.71
44.99
46.94
47.48
46.45
43.53
38.4
30.88
21.27
10.39
-0.48
-10.04
-17.32
-22.16
-25.17
-27.54
-30.35
-33.9
-37.41
-39.02
-36.44
-27.96
-13.03
7.42
31.18
55.38
77.05
93.57
102.98
104.52
99.16
90.05
82.1
80.18
86.87
100.59
115.66
124.58
121.28
103.79
74.79
39.76
4.18
-28.73
-58.37
-85.4
-110.01
-131.23
-147.46
-157.86
-163.28
-166
-168.48
-172.14
-176.52
-179.79
-179.8
-175.24
-166.3
-154.57
-142.28
-131.3
-122.57
-115.76
-109.73
-103.07
-94.81
-84.72
-73.37
-61.87
-51.27
-42.34
-35.34
-30.08
-26.1
-22.81
-19.7
-16.42
-12.89
-9.26
-5.87
-3.15
-1.48
-1.03
-1.6
-2.78
-4.01
-4.9
-5.31
-5.46
-5.81
-6.85
-8.93
-12.05
-15.98
-20.17
-24
-26.78
-27.85
-26.75
-23.28
-17.6
-10.31
-2.32
5.45
12.21
17.49
21.22
23.55
24.76
25.15
24.93
24.24
23.19
21.93
20.56
19.21
17.96
16.95
16.26
15.98
16.12
16.62
17.39
18.2
18.85
19.14
18.98
18.41
17.49
16.37
15.14
13.9
12.66
11.4
10.04
8.53
6.84
4.92
2.8
0.45
-2.19
-5.24
-8.83
-13
-17.64
-22.28
-26.3
-28.96
-29.67
-28.2
-24.76
-19.94
-14.56
-9.47
-5.25
-2.08
0.27
2.27
4.45
7.11
10.28
13.75
17.15
20.22
22.91
25.31
27.58
29.91
32.24
34.4
36.04
36.8
36.33
34.34
30.74
25.55
19.15
12.03
4.81
-1.97
-7.88
-12.75
-16.58
-19.5
-21.75
-23.56
-25.24
-26.95
-28.82
-30.76
-32.61
-34.12
-35.11
-35.4
-34.76
-32.88
-29.29
-23.63
-15.77
-6.08
4.65
15.39
25.09
32.99
38.73
42.31
44.02
44.26
43.54
42.46
41.59
41.36
41.96
43.24
44.83
46.42
47.85
49.3
51.1
53.56
56.67
59.96
62.65
63.85
62.97
59.9
55.23
49.87
44.78
40.39
36.49
32.06
25.78
16.55
3.64
-13.15
-33.78
-58.22
-86.49
-118.47
-153.94
-192.57
-234.06
-278.09
-323.46
-366.97
-402.75
-422.49
-417.45
-381.37
-313.19
-218.14
-106.8
7.85
113.6
201.49
267.03
310.06
333.99
344.48
348.09
350.62
355.88
364.81
375.58
384.66
387.76
380.93
361.44
328.64
284.62
234.46
185.43
145.09
118.76
107.47
107.4
111.47
112.2
104.42
86.64
60.64
29.89
-2.25
-33.56
-62.98
-90.08
-114.4
-135.29
-152.13
-164.63
-173.1
-178.19
-180.45
-179.97
-176.28
-168.78
-157.28
-142.56
-126.28
-110.65
-97.68
-88.52
-83.19
-80.7
-79.57
-78.38
-76.16
-72.48
-67.39
-61.11
-53.9
-45.89
-37.18
-27.91
-18.35
-8.78
0.53
9.24
17.07
23.76
29.18
33.24
35.94
37.27
37.23
35.76
32.96
29.11
24.67
20.22
16.18
12.71
9.57
6.31
2.3
-2.82
-9.15
-16.47
-24.39
-32.27
-39.33
-44.72
-47.65
-47.64
-44.61
-39.06
-32.05
-24.99
-19.26
-15.81
-14.96
-16.32
-18.97
-21.74
-23.65
-24.18
-23.27
-21.23
-18.53
-15.5
-12.31
-9.04
-5.79
-2.84
-0.66
0.44
0.43
-0.4
-1.51
-2.26
-2.31
-1.74
-1.02
-0.8
-1.51
-3.22
-5.63
-8.33
-11.06
-13.96
-17.48
-22.06
-27.93
-34.83
-42.15
-49.03
-54.72
-58.67
-60.64
-60.71
-59.2
-56.67
-53.97
-52.1
-52.03
-54.42
-59.39
-66.5
-75.07
-84.57
-94.93
-106.41
-119.03
-131.77
-141.88
-145.2
-137.06
-114.06
-75.31
-22.98
38.32
102.86
165.19
221.17
268.07
304.41
329.5
343.39
346.83
341.16
328.02
308.83
284.54
255.61
222.45
185.68
146.52
106.61
67.64
31.25
-1.37
-29.44
-52.66
-71.11
-85.13
-95.24
-101.83
-105.11
-104.95
-101.13
-93.65
-82.91
-69.68
-54.95
-39.75
-25.09
-11.82
-0.63
7.94
13.64
16.56
17.16
16
13.72
10.73
7.27
3.55
-0.27
-3.97
-7.29
-9.98
-11.93
-13.15
-13.76
-14.04
-14.24
-14.58
-15.13
-15.85
-16.56
-17.06
-17.26
-17.23
-17.28
-17.76
-19.02
-21.23
-24.38
-28.24
-32.48
-36.77
-40.82
-44.67
-48.5
-52.62
-57.28
-62.42
-67.61
-71.97
-74.44
-74.02
-70.13
-62.73
-52.29
-39.54
-25.29
-10.26
4.93
19.67
33.39
45.45
55.32
62.65
67.37
69.59
69.54
67.52
63.84
59.02
53.63
48.33
43.62
39.78
36.66
33.88
31.04
27.82
24.16
20.08
15.64
10.95
6.14
1.44
-2.79
-6.19
-8.66
-10.35
-11.78
-13.45
-15.66
-18.43
-21.53
-24.7
-27.82
-31.04
-34.48
-38.2
-41.91
-45.07
-47.22
-48.12
-47.95
-47.17
-46.35
-45.8
-45.59
-45.55
-45.37
-44.97
-44.3
-43.47
-42.58
-41.65
-40.64
-39.58
-38.62
-38.04
-38.33
-39.85
-42.88
-47.41
-53.04
-59.15
-64.91
-69.53
-72.28
-72.77
-70.7
-66.14
-59.42
-51.1
-41.86
-32.23
-22.32
-11.67
0.36
14.3
29.89
45.82
60.02
70.29
74.97
73.58
66.84
56.29
43.88
31.46
20.53
12.09
6.22
1.63
-4.23
-14.44
-31.36
-55.26
-83.52
-110.94
-130.97
-137.69
-127.47
-99.94
-57.86
-6.22
49.18
102.88
150.53
189.14
216.92
233.1
237.91
232.68
219.76
202.49
184.24
167.64
153.93
142.93
133.69
125.38
117.83
111.38
106.65
103.66
101.68
99.31
95.14
88.24
78.63
67.16
55.21
44.14
34.63
26.24
17.39
5.99
-9.74
-30.33
-54.49
-79.34
-101.22
-117.04
-125.16
-125.84
-120.64
-111.68
-100.78
-88.98
-76.6
-63.51
-49.53
-34.63
-19.06
-3.27
12.06
26.18
38.55
48.88
57.3
64.04
69.22
72.56
73.45
71.5
67.03
61.62
57.7
58.09
64.83
78.44
97.71
119.99
141.7
158.92
168.13
166.75
154.34
133.24
108.65
87.17
74.14
70.86
73.39
73.86
63.88
38.65
-0.97
-48.86
-96.68
-137.62
-168.79
-191.26
-208.08
-222.02
-234.09
-243.63
-249.58
-251.55
-250.47
-247.73
-244.28
-239.93
-233.37
-222.85
-207.29
-187.16
-164.44
-141.99
-122.29
-106.48
-94.09
-83.51
-72.81
-60.78
-47.34
-33.47
-20.58
-9.65
-0.9
6.28
12.99
20.18
28.29
37.08
45.74
53.29
59.04
62.77
64.73
65.58
65.93
66.26
66.69
66.81
65.89
63.11
57.83
49.9
39.8
28.34
16.61
5.57
-4.04
-11.55
-16.36
-17.84
-15.47
-9.14
0.49
12.11
23.92
34.15
41.68
46.1
47.62
46.89
44.44
40.47
35.03
28.13
19.95
11.02
1.91
-6.92
-15.13
-22.65
-29.43
-35.3
-39.93
-42.97
-44.21
-43.84
-42.35
-40.32
-38.28
-36.51
-35
-33.6
-32.09
-30.22
-27.95
-25.24
-22.1
-18.63
-14.87
-10.98
-7.16
-3.67
-0.69
1.63
3.36
4.62
5.53
6.24
6.89
7.54
8.16
8.55
8.36
7.15
4.59
0.51
-4.79
-10.71
-16.48
-21.46
-25.28
-28.09
-30.52
-33.37
-37.49
-43.46
-51.44
-61.1
-71.67
-82.04
-91.02
-97.63
-101.25
-101.82
-99.69
-95.46
-89.47
-81.6
-71.27
-57.87
-41.19
-21.81
-1.24
18.43
35.06
47.16
54.21
56.62
55.25
50.96
44.28
35.31
23.92
10.23
-5.21
-21.15
-35.85
-47.34
-53.8
-53.77
-46.37
-31.36
-9.08
19.56
53.17
90.08
128.49
166.46
202.3
234.33
261.06
281.07
293.05
295.92
289.14
272.96
248.33
216.98
180.99
142.55
103.67
66.02
30.77
-1.3
-29.89
-55.11
-77.37
-97.1
-114.42
-128.97
-140.11
-147.26
-150.21
-149.17
-144.62
-136.77
-125.46
-110.22
-90.68
-67.11
-40.66
-13.15
13.47
37.54
58.27
75.54
89.75
101.23
109.88
115.06
115.83
111.33
101.27
86.24
67.52
46.75
25.37
4.09
-16.98
-38.23
-59.84
-81.48
-102.06
-119.96
-133.52
-141.29
-142.5
-136.76
-124.2
-105.24
-80.87
-52.66
-22.78
6.28
32.32
53.74
69.99
81.24
88.03
90.82
89.9
85.52
78.31
69.4
60.26
52.54
47.37
45.11
45.38
47.12
49.11
50.36
50.52
49.93
49.75
51.57
56.87
66.56
80.26
96.34
112.09
124.6
131.48
131.46
124.49
111.28
93
70.67
45.29
17.91
-10.14
-37.33
-62.02
-82.7
-98.12
-107.18
-109.12
-103.57
-90.91
-72.71
-51.85
-32.07
-17.17
-10.02
-11.63
-21.13
-35.9
-52.28
-66.62
-75.88
-78.25
-73.29
-61.89
-45.81
-27.23
-8.1
10.29
27.19
42.3
55.2
65.13
71
71.93
67.67
58.9
47.26
34.72
23.29
14.6
9.98
10.45
16.82
29.25
46.87
67.49
87.72
103.81
112.45
111.73
101.38
82.71
57.94
29.55
-0.11
-29.12
-55.97
-79.7
-99.86
-116.56
-130.38
-142.07
-152.29
-161.27
-168.9
-174.69
-178.13
-178.7
-176.03
-169.88
-160.29
-147.9
-134.05
-120.76
-109.81
-101.97
-96.45
-91.34
-84.67
-75.72
-65.74
-57.3
-53.16
-54.69
-61.18
-70.24
-79.14
-86.02
-90.49
-93.23
-95.03
-96
-95.29
-91.37
-82.53
-67.2
-43.94
-11.33
32.06
87.05
152.7
224.89
295.96
355.89
395.04
407.61
393.95
360.56
317.61
274.96
238.63
209.55
184.82
161.03
137.33
116.41
103.4
103.14
117.73
145.45
181.47
219.24
251.95
273.62
279.88
268.89
241.86
202.88
157.66
111.65
68.29
28.42
-9.14
-45.99
-82.9
-119.24
-153.74
-185.2
-213.06
-237.18
-257.3
-272.6
-282.07
-284.84
-280.72
-270.36
-254.94
-235.9
-214.54
-191.75
-167.77
-142.54
-115.98
-88.5
-61.23
-35.98
-14.98
-0.37
6.27
4.37
-5.52
-21.76
-42.18
-64.57
-87.09
-108.31
-127.05
-141.95
-151.73
-155.73
-154.67
-150.96
-148.26
-150.01
-158.14
-172.38
-190.4
-208.77
-223.95
-232.95
-233.56
-224.49
-205.37
-176.91
-140.78
-99.38
-55.62
-12.79
25.47
55.46
74.19
80.46
75.39
62.4
45.94
29.91
16.81
7.72
3.14
3.78
10.62
24.27
43.97
67.33
90.65
110.26
123.8
130.95
133.61
135.08
138.79
146.82
158.7
171.18
179.29
178.38
166.46
145.21
119.28
94.26
74.03
59.43
48.65
39.08
29.23
19.8
13.22
12.15
18.26
31.95
52.78
80.33
113.85
151.54
189.55
222.56
245.17
254.13
249.6
234.81
214.3
191.67
168.11
142.52
112.99
78.31
39.07
-2.65
-44.07
-82.63
-116.55
-144.67
-166.26
-181.06
-189.3
-191.78
-189.93
-185.53
-180.43
-176.03
-172.77
-170.06
-166.6
-161.02
-152.53
-141.25
-128.18
-114.66
-101.94
-90.7
-81.06
-72.78
-65.56
-59.22
-53.91
-50.1
-48.39
-49.44
-53.67
-61.05
-70.95
-82.11
-92.75
-100.96
-105.18
-104.39
-98.43
-87.78
-73.51
-56.99
-39.65
-22.79
-7.4
5.75
16.33
24.23
29.68
33.06
34.86
35.65
35.89
35.91
35.78
35.45
34.85
34.03
33.32
33.22
34.25
36.63
40.22
44.43
48.35
50.93
51.2
48.71
43.55
36.59
29.17
22.84
18.96
18.37
21.38
27.74
36.96
48.21
60.45
72.23
81.81
87.4
87.5
81.43
69.26
52.02
31.2
8.61
-13.86
-34.44
-51.43
-63.52
-69.93
-70.79
-67.21
-61.08
-54.53
-49.23
-45.94
-44.42
-43.81
-43.14
-41.85
-39.92
-37.61
-35.21
-32.6
-29.48
-25.42
-20.31
-14.41
-8.22
-2.33
2.97
7.55
11.51
14.82
17.24
18.38
17.94
15.86
12.49
8.53
4.61
1.2
-1.65
-4.16
-6.64
-9.37
-12.59
-16.49
-21.22
-26.76
-32.8
-38.51
-42.7
-44.08
-41.79
-35.81
-26.9
-16.43
-5.88
3.65
11.67
18.26
23.86
28.91
33.66
38.11
42.05
45.15
47.17
47.98
47.56
46.07
43.71
40.84
37.78
34.84
32.25
30.1
28.35
26.73
24.82
22.15
18.35
13.29
7.29
1.01
-4.72
-9.21
-12.2
-13.99
-15.25
-16.86
-19.49
-23.36
-28.18
-33.17
-37.19
-39.11
-38
-33.44
-25.74
-15.81
-4.95
5.6
14.93
22.78
29.27
34.8
39.71
44.03
47.59
50.08
51.28
51.24
50.24
48.59
46.62
44.41
41.84
38.78
35.2
31.14
26.9
22.71
18.74
15
11.33
7.48
3.37
-0.91
-5.1
-8.72
-11.31
-12.6
-12.57
-11.58
-10.34
-9.65
-10.32
-12.87
-17.27
-22.88
-28.5
-32.62
-33.88
-31.48
-25.41
-16.44
-5.84
5.03
15.1
23.69
30.63
35.99
39.96
42.66
44.17
44.54
43.85
42.24
39.96
37.37
34.87
32.89
31.72
31.48
32.14
33.5
35.27
37.13
38.81
40.09
40.85
41.11
41.03
40.88
40.96
41.41
42.14
42.9
43.33
43.13
42.26
40.91
39.55
38.64
38.67
39.73
41.67
43.97
46.05
47.4
48.05
48.58
50.12
54.05
61.34
72.18
85.58
99.53
111.44
118.93
120.36
115.3
104.52
89.73
73.24
57.61
45.25
37.98
36.63
40.58
47.89
55.73
61.26
62.52
59.14
52.3
44.06
36.39
30.3
25.37
20.11
12.42
0.39
-17.32
-41.31
-71.16
-105.13
-139.8
-170.33
-191.23
-198.1
-189.36
-167.04
-136.34
-103.71
-74.56
-51.79
-35.56
-24.31
-16.31
-10.56
-6.92
-5.64
-6.58
-8.9
-11.34
-12.64
-11.83
-8.4
-2.25
6.63
18
31.51
46.69
62.74
78.48
92.67
104.11
112.12
116.8
118.88
119.45
119.51
119.4
118.76
116.69
112.08
104.23
93.15
79.5
64.32
48.76
33.6
19.25
5.84
-6.65
-17.98
-27.57
-34.58
-38.19
-37.91
-33.88
-27.08
-19.17
-12.34
-8.79
-10.14
-17.26
-30
-47.56
-68.76
-92.41
-117.43
-142.7
-166.91
-188.53
-206.07
-218.32
-224.63
-224.91
-219.37
-208.43
-192.58
-172.62
-149.82
-126.05
-103.47
-83.99
-68.79
-58
-50.75
-45.63
-41.25
-36.57
-31.12
-24.98
-18.43
-11.82
-5.42
0.6
6.12
10.93
14.82
17.57
19.11
19.62
19.49
19.26
19.42
20.18
21.45
22.91
24.16
24.99
25.36
25.42
25.3
25.08
24.55
23.49
21.81
19.63
17.32
15.32
13.9
12.96
12.19
11.1
9.38
7.03
4.29
1.48
-1.13
-3.41
-5.16
-6.03
-5.68
-3.86
-0.73
3.05
6.58
9.07
10.12
9.91
8.91
7.63
6.35
5.06
3.63
2.1
0.66
-0.44
-0.94
-0.81
-0.12
1.01
2.53
4.44
6.84
9.68
12.71
15.64
18.19
20.34
22.32
24.56
27.31
30.63
34.27
37.85
41.05
43.52
44.9
44.8
42.82
38.74
32.82
25.86
19.15
14.03
11.49
11.85
14.87
19.93
26.2
32.87
38.96
43.26
44.38
41.01
32.34
18.51
0.75
-18.96
-38.29
-55.31
-68.8
-78.26
-83.77
-85.48
-83.41
-77.45
-67.66
-54.45
-38.78
-22.05
-5.72
8.85
20.68
28.98
33.2
32.77
27.49
17.54
3.48
-13.82
-33.54
-55.04
-77.76
-100.99
-123.68
-144.38
-161.64
-174.54
-182.98
-187.78
-190.11
-191.03
-190.95
-189.68
-186.7
-181.71
-174.67
-165.8
-155.4
-143.73
-131.25
-118.95
-108.55
-102.13
-101.29
-105.88
-113.3
-118.95
-117.55
-104.91
-79.36
-42.12
3.5
53.18
102.62
148.03
186.22
214.7
232.19
239.09
237.7
231.55
223.98
216.51
208.17
195.95
176.5
148.02
111.66
71.18
31.5
-3.41
-31.96
-55.12
-75.24
-94.35
-112.96
-129.8
-142.61
-149.19
-148.24
-139.39
-122.88
-99.33
-69.82
-36.27
-1.62
30.58
57.01
75.48
85.63
88.93
88.07
86.03
85.32
87.28
91.94
98.27
104.47
108.68
109.61
106.96
101.47
94.65
87.96
82.15
77.08
71.69
64.51
54.27
40.52
23.64
4.77
-14.71
-33.48
-50.44
-64.7
-75.65
-83.01
-86.89
-87.64
-85.31
-79.18
-67.8
-49.64
-24.42
5.92
37.12
63.86
81.59
88.04
83.71
70.9
52.23
29.53
3.88
-23.69
-51.22
-75.32
-91.67
-96.18
-86.4
-62.4
-27.02
14.72
56.92
94.26
123.39
143.41
155.54
161.92
164.44
164.03
160.76
154.64
146.22
136.84
128.06
120.92
115.32
110.12
103.65
94.5
82.02
66.24
47.66
27.07
5.62
-15.07
-33.04
-46.4
-54.13
-56.49
-55.01
-51.79
-48.63
-46.24
-44.18
-41.22
-36.09
-28.08
-17.31
-4.55
9.08
22.4
34.33
43.95
50.59
53.94
54.04
51.29
46.55
41
35.94
32.49
31.27
32.16
34.54
37.4
39.81
41.3
41.79
41.65
41.32
41.07
40.93
40.81
40.49
39.77
38.44
36.14
32.32
26.34
17.66
6.09
-7.98
-23.63
-39.51
-54.15
-66.26
-74.86
-79.31
-79.38
-75.12
-66.96
-55.64
-42.19
-27.7
-13.13
0.73
13.32
23.89
31.55
35.17
33.88
27.4
16.3
1.93
-13.98
-29.74
-44.21
-56.93
-68.09
-78.33
-88.5
-99.41
-111.43
-124.32
-137.19
-148.78
-157.87
-163.6
-165.58
-163.81
-158.49
-149.96
-138.72
-125.7
-112.31
-100.19
-90.77
-84.96
-82.78
-83.45
-85.68
-88.03
-89.16
-88.1
-84.34
-77.96
-69.79
-61.26
-54.22
-50.7
-52.12
-58.79
-69.49
-81.56
-91.56
-96.1
-92.96
-81.22
-61.49
-35.29
-4.72
27.75
59.4
87.34
108.98
122.54
127.57
124.93
116.51
104.54
91.04
77.72
65.88
56.58
50.58
48.14
48.99
52.46
57.76
64.06
70.61
76.39
80.16
80.67
77.05
69.23
57.95
44.79
31.45
19.46
9.67
2.27
-3.24
-7.78
-12.34
-17.66
-23.83
-30.24
-35.64
-38.79
-38.87
-35.79
-30.15
-22.95
-15.22
-7.74
-1.03
4.64
9.16
12.51
14.93
16.76
18.41
20.21
22.43
25.22
28.87
33.77
40.35
48.84
59.07
70.29
81.36
91.11
98.47
102.77
103.62
101
95.16
86.68
76.41
65.48
54.99
45.71
37.88
31.19
25.05
19.03
13.24
8.51
6.14
7.53
13.76
25.41
42.45
64.09
88.66
113.75
136.35
153.55
163.22
164.49
158.02
145.64
129.58
111.9
94.07
76.78
60.32
44.78
30.35
17.41
6.49
-2.06
-8.09
-11.91
-14.29
-16.17
-18.48
-21.86
-26.77
-33.44
-42.02
-52.41
-64.18
-76.4
-87.81
-97.11
-103.33
-106.18
-105.97
-103.49
-99.59
-94.96
-90.01
-84.89
-79.61
-74.17
-68.5
-62.65
-56.75
-51.06
-45.91
-41.52
-37.98
-35.2
-32.97
-31.14
-29.7
-28.74
-28.4
-28.69
-29.29
-29.8
-29.8
-29.13
-27.94
-26.61
-25.59
-25.21
-25.58
-26.45
-27.33
-27.57
-26.54
-23.74
-19.1
-13
-6.23
0.16
5.27
8.54
9.88
9.49
7.74
4.93
1.22
-3.27
-8.35
-13.68
-18.83
-23.3
-26.71
-28.77
-29.35
-28.51
-26.58
-24.18
-22.14
-21.26
-22
-24.32
-27.68
-31.18
-33.94
-35.45
-35.74
-35.15
-34.24
-33.27
-32.22
-30.83
-28.69
-25.6
-21.61
-17.07
-12.47
-8.34
-4.99
-2.46
-0.59
0.94
2.32
3.55
4.32
4.12
2.41
-1.16
-6.54
-13.36
-20.95
-28.55
-35.17
-39.66
-40.69
-37.07
-27.98
-13.15
7.23
32.86
63.48
98.84
138.17
179.89
221.58
260.68
295.18
323.98
346.65
362.45
369.92
366.8
350.75
320.44
276.09
219.36
152.78
79.34
2.51
-73.28
-142.43
-198.84
-237.31
-255.29
-253.76
-237.04
-211.17
-182.09
-154.12
-129.36
-108.06
-89.51
-72.9
-57.75
-44.07
-32.24
-23.05
-17.55
-16.59
-19.97
-26.1
-32.22
-35.54
-34.69
-30.64
-26.35
-25.54
-30.91
-43
-60.12
-79.3
-97.32
-111.4
-119.4
-119.73
-111.62
-95.61
-73.9
-50.14
-28.48
-12.18
-2.53
1.38
1.95
1.9
2.95
5.12
6.78
5.49
-0.59
-11.51
-24.89
-36.29
-40.53
-33.5
-13.6
17.64
55.92
95.51
130.7
157.02
172
175.18
167.75
152.02
130.77
106.72
82.28
59.31
39.1
22.42
9.55
0.19
-6.46
-11.49
-16.18
-21.47
-27.79
-34.92
-42.16
-48.58
-53.64
-57.25
-59.8
-61.92
-63.98
-66
-67.63
-68.41
-68.08
-66.75
-64.72
-62.31
-59.56
-56.26
-52.16
-47.19
-41.64
-36.22
-31.82
-29.11
-28.32
-29.03
-30.24
-30.8
-29.74
-26.6
-21.6
-15.55
-9.36
-3.8
0.71
4.23
6.97
9.2
11.04
12.54
13.58
14.09
14.04
13.35
12.04
10.07
7.55
4.61
1.54
-1.3
-3.5
-4.71
-4.76
-3.69
-1.82
0.37
2.44
4.09
5.23
5.87
6.03
5.63
4.64
3.06
0.95
-1.43
-3.87
-6.19
-8.37
-10.44
-12.51
-14.62
-16.79
-19.12
-21.65
-24.44
-27.28
-29.65
-30.79
-30
-26.92
-21.76
-15.36
-8.73
-2.94
1.38
4.11
5.46
5.86
5.86
5.91
6.33
7.36
9.06
11.21
13.59
15.89
17.89
19.53
20.83
21.78
22.3
22.28
21.55
20.13
18.12
15.86
13.8
12.26
11.4
11.14
11.23
11.26
10.98
10.16
8.73
6.71
4.16
1.14
-2.21
-5.74
-9.33
-12.86
-16.36
-19.99
-23.78
-27.6
-30.92
-32.94
-32.87
-30.29
-25.3
-18.63
-11.33
-4.43
1.43
6.15
9.99
13.32
16.36
19.14
21.42
23.09
24.12
24.75
25.32
26.08
27.04
27.97
28.41
27.86
26.05
22.92
18.69
13.78
8.59
3.53
-1.13
-5.24
-8.75
-11.62
-13.88
-15.5
-16.51
-17.04
-17.24
-17.46
-18.03
-19.23
-21.05
-23.19
-25.03
-25.84
-25.05
-22.37
-17.95
-12.36
-6.27
-0.44
4.57
8.4
10.93
12.17
12.31
11.64
10.5
9.31
8.43
8.16
8.63
9.83
11.6
13.66
15.63
17.13
17.95
17.97
17.34
16.33
15.27
14.44
13.94
13.73
13.54
13.18
12.43
11.22
9.58
7.53
5.16
2.52
-0.38
-3.61
-7.2
-11.15
-15.32
-19.29
-22.51
-24.31
-24.22
-22.14
-18.38
-13.63
-8.61
-3.95
0.06
3.38
6.15
8.5
10.52
12.27
13.79
15.15
16.41
17.65
18.84
19.82
20.46
20.69
20.53
20.16
19.75
19.57
19.76
20.35
21.11
21.78
22
21.56
20.41
18.65
16.54
14.18
11.56
8.48
4.71
0.07
-5.43
-11.65
-18.32
-25.02
-31.16
-36.01
-38.9
-39.26
-37.02
-32.46
-26.25
-19.19
-12.08
-5.45
0.34
5.13
8.84
11.47
13.01
13.69
13.69
13.26
12.62
11.89
11.17
10.53
10.11
10.02
10.44
11.39
12.77
14.25
15.4
15.77
15.01
12.93
9.52
5.07
-0.03
-5.27
-10.26
-14.7
-18.5
-21.73
-24.62
-27.41
-30.18
-32.82
-35.02
-36.26
-36.09
-34.14
-30.45
-25.43
-19.69
-13.83
-8.24
-3.01
2.09
7.36
12.99
18.9
24.78
30.27
35.16
39.36
43
46.22
49.09
51.52
53.34
54.44
54.89
55.06
55.49
56.8
59.42
63.35
68.24
73.49
78.45
82.78
86.47
89.81
93.17
96.67
99.91
102.05
101.97
98.39
90.19
76.45
56.53
30.4
-1.14
-36.39
-72.8
-107.63
-138.56
-164
-182.9
-194.34
-196.94
-189.14
-169.75
-139.06
-99.58
-55.97
-13.89
21.55
47.14
62.28
68.55
68.63
65.15
59.73
52.92
44.62
34.79
23.85
12.95
3.44
-3.65
-7.9
-9.54
-9.01
-6.57
-2.02
5
14.85
27.3
41.45
55.84
68.98
79.76
87.69
92.89
95.76
96.71
95.86
93.05
88.13
81.07
71.9
60.45
46.16
28.12
5.58
-21.46
-51.82
-83.14
-112.69
-138.37
-159.43
-176.4
-190.48
-202.49
-212.33
-218.94
-220.93
-217.18
-207.28
-191.34
-169.49
-141.79
-108.39
-69.9
-28.04
14.45
54.21
88.1
113.98
131.02
139.66
141.17
137.31
129.92
120.65
110.64
100.25
89.15
76.53
61.61
44.29
25.61
7.85
-5.72
-11.75
-7.8
6.72
29.99
57.59
83.54
101.61
106.98
97.49
73.92
39.23
-2.72
-48.25
-94.32
-137.76
-174.44
-198.89
-205.45
-190.55
-154.69
-103.14
-44.49
12.22
60.5
97.37
122.46
135.95
137.07
124.49
98.6
63.72
28.53
3.77
-2.26
12.23
41.11
72.26
92.4
92.18
69.16
27.84
-23.3
-75.53
-122.9
-162.61
-193.99
-216.58
-229.28
-230.95
-221.67
-203.79
-181.62
-160.12
-142.79
-130.64
-122.12
-114.25
-104.3
-90.99
-74.67
-56.88
-39.45
-23.66
-9.96
2.02
13.37
25.55
40.11
58.32
80.43
105.23
130.11
151.58
166.7
174.27
175.47
173.23
170.81
169.95
170.09
168.87
163.37
151.79
134.3
112.71
89.35
66.12
43.84
22.83
3.63
-12.73
-24.86
-31.64
-33.06
-30.28
-25.15
-19.57
-14.73
-10.89
-7.9
-5.53
-3.74
-2.97
-3.62
-6.01
-10.31
-16.55
-24.52
-33.9
-43.99
-53.79
-62.32
-68.82
-72.97
-74.91
-75.08
-73.98
-72.08
-69.69
-67.13
-64.78
-62.98
-62.05
-62.24
-63.7
-66.51
-70.59
-75.6
-80.92
-85.93
-90.18
-93.66
-96.74
-99.78
-102.79
-105.11
-105.39
-102.08
-94
-80.51
-61.68
-38.12
-10.9
18.4
47.62
74.23
95.7
110.01
116.29
114.99
108.01
98.46
90.24
87.37
93.03
108.77
134.07
166.5
202.15
236.44
264.69
282.59
286.94
276.41
252.66
220.73
188.05
161.91
146.79
142.26
143.27
142.66
134.22
115.16
86.21
50.16
9.82
-32.98
-77.11
-121
-161.81
-195.74
-219.3
-230.82
-231.18
-223.14
-209.97
-194.1
-176.65
-157.61
-136.81
-114.42
-91.32
-68.93
-48.67
-31.58
-18.08
-7.99
-0.64
4.76
8.95
12.51
15.71
18.67
21.35
23.71
25.66
27.04
27.65
27.26
25.65
22.76
18.67
13.58
7.78
1.5
-5.09
-11.87
-18.64
-25.16
-31.13
-36.31
-40.53
-43.77
-46.08
-47.56
-48.31
-48.45
-48.17
-47.72
-47.39
-47.3
-47.32
-46.93
-45.45
-42.18
-36.65
-28.8
-19.09
-8.35
2.37
12.14
20.34
26.64
31
33.52
34.37
33.83
32.14
29.51
26.31
22.92
19.68
16.85
14.57
12.94
11.89
11.23
10.44
9.03
6.53
2.19
-4.52
-13.61
-24.36
-35.58
-45.84
-54.36
-60.7
-64.71
-67.46
-70.18
-73.43
-76.72
-79.2
-79.88
-79.23
-77.89
-76.06
-74.72
-74.15
-73.31
-70.05
-62.89
-51.34
-38.3
-27.43
-21.7
-24.67
-38.32
-62.18
-93.55
-129.47
-166.96
-205.93
-246.37
-274.91
-280.02
-258.67
-218.33
-169.09
-123.33
-73.83
-13.4
60.4
144.73
229.24
299.52
344.71
362.05
356.66
338.92
317.02
295.89
276.84
257.4
235
209.6
183.92
161.14
143.64
130.07
117.84
105.01
90.22
73.75
57.5
44.09
35.32
31.69
31.22
31.4
30.48
27.45
22.36
16.3
10.72
6.64
4.48
3.52
2.83
1.88
0.46
-1.37
-3.25
-4.91
-6.34
-7.7
-9.44
-12.02
-15.67
-20.34
-25.83
-31.83
-37.99
-44.01
-49.62
-54.43
-58.11
-60.29
-60.55
-58.59
-54.21
-47.54
-38.97
-29
-18.29
-7.45
2.98
12.5
20.7
27.25
31.91
34.48
34.94
33.25
29.5
23.93
16.96
9.21
1.48
-5.53
-11.33
-15.64
-18.45
-19.85
-19.89
-18.69
-16.51
-13.61
-10.34
-6.93
-3.3
0.75
5.43
10.74
16.23
21.28
25.24
27.66
28.42
27.71
25.74
22.71
18.81
14.06
8.58
2.58
-3.74
-10.13
-16.4
-22.48
-28.3
-33.68
-38.4
-42.01
-44.04
-44.17
-42.35
-38.85
-34.33
-29.41
-24.56
-20.04
-15.86
-11.95
-8.39
-5.36
-3.03
-1.56
-0.9
-0.79
-0.99
-1.27
-1.56
-2.12
-3.18
-5.04
-7.74
-11.07
-14.6
-18
-21.21
-24.73
-29.61
-36.99
-47.78
-61.95
-78.42
-95.26
-110.44
-122.57
-131.46
-138.1
-143.78
-149.2
-153.62
-154.95
-150.91
-140.19
-123.1
-101.25
-76.67
-51.38
-27.56
-8.16
3.25
3.4
-8.63
-29.95
-53.97
-72.48
-78.91
-70.88
-50.63
-23.16
6.52
35.56
63.46
90.7
116.97
140.38
158.01
167.48
168.35
162.61
153.78
145.18
138.22
131.82
123.17
109.3
88.79
62.43
33.04
4.09
-21.53
-42.27
-57.76
-68.15
-73.44
-73.29
-67.51
-56.57
-42
-26.33
-12.32
-2.05
3.64
5.31
4.49
3.07
2.64
4.31
8.62
15.68
25.2
36.39
48.06
58.69
66.83
71.44
72.13
69.14
63.14
54.84
44.91
34.09
23.07
12.62
3.25
-5.08
-12.87
-20.86
-29.76
-39.95
-51.21
-63.05
-74.82
-85.85
-95.61
-103.76
-110.23
-115.44
-120.23
-125.33
-130.91
-136.02
-138.54
-135.78
-125.44
-106.62
-80.42
-49.75
-18.5
9.75
32.85
50.89
66
81.69
101.28
126.5
156.42
187.3
213.7
230.25
233.64
223.52
202.6
175.23
145.68
116.63
88.58
60.41
30.52
-1.97
-36.6
-71.19
-102.27
-125.55
-137.02
-134.06
-116.53
-87
-50.21
-11.59
24.28
54.6
78.57
96.6
109.32
117.04
119.76
117.59
111.08
101.41
89.97
78.05
66.56
55.86
45.87
36.2
26.46
16.41
6.28
-3.49
-12.41
-20.13
-26.79
-32.75
-38.38
-43.64
-48.03
-50.74
-51.14
-49.18
-45.36
-40.88
-37
-34.87
-35.3
-38.68
-45.13
-54.47
-66.11
-78.85
-91.13
-101.06
-106.78
-106.98
-101.13
-89.85
-74.79
-58.28
-42.83
-30.58
-22.44
-17.88
-14.96
-10.93
-3.47
8.5
24.3
41.71
57.82
69.88
76.05
75.54
68.85
57.4
43.21
28.87
16.76
8.78
5.87
7.84
13.55
21.53
30.34
38.83
46.33
52.24
56.2
57.98
57.62
55.3
51.35
46.05
39.69
32.83
26.11
20.56
17.23
17.01
20.31
27.04
36.6
48.04
60.27
71.81
81.17
86.91
88.03
84.39
76.78
66.67
55.67
45.06
35.27
26.17
17.35
8.45
-0.52
-9.3
-17.54
-25.04
-31.74
-37.81
-43.37
-48.44
-53
-56.75
-59.48
-61
-61.37
-60.88
-59.91
-58.8
-57.72
-56.8
-55.9
-54.97
-53.92
-52.66
-51.15
-49.32
-47.22
-45.14
-43.58
-43.01
-43.87
-46.18
-49.59
-53.5
-57.24
-60.32
-62.53
-63.89
-64.51
-64.55
-64.01
-62.87
-61.12
-58.92
-56.58
-54.52
-53.07
-52.4
-52.32
-52.4
-52.06
-50.88
-48.64
-45.43
-41.54
-37.22
-32.52
-27.02
-19.95
-10.38
2.22
17.54
34.21
50.03
62.58
70.13
72.53
71.32
69.35
69.73
74.52
83.89
96.01
107.34
113.78
112.09
101.24
83.22
63.03
47.21
41.78
49.98
70.78
98.72
125.4
142.15
142.82
126.15
95.98
60.03
27.1
4.11
-5.91
-4.14
5.46
18.24
30.85
41.91
51.45
59.83
66.86
71.91
74.48
74.82
73.91
72.95
72.42
71.8
69.59
63.96
53.63
38.58
20.08
0.45
-17.42
-30.83
-37.8
-37.5
-30.39
-18.12
-3.1
11.99
24.81
34.01
39.14
40.74
39.75
37.1
33.34
28.79
23.71
18.56
13.85
9.73
5.41
-0.9
-11.58
-28.36
-51.42
-79.02
-107.98
-134.64
-155.61
-168.05
-169.78
-159.61
-137.72
-106.3
-69.52
-32.65
-0.53
23.94
40.47
51.01
58.36
64.87
71.46
77.69
82.47
84.78
84.13
80.59
74.5
66.14
55.44
42.25
26.69
9.58
-7.58
-22.98
-35.1
-43.27
-47.68
-49.1
-48.42
-46.18
-42.48
-37.26
-30.45
-22.37
-13.73
-5.57
0.91
4.64
4.99
2.04
-3.62
-10.96
-19.04
-27.35
-35.84
-44.81
-54.49
-64.81
-75.43
-85.96
-96.12
-105.85
-115.25
-124.15
-132.04
-138
-141.06
-140.71
-137.17
-131.33
-124.42
-117.63
-111.53
-106.21
-101.34
-96.46
-91.08
-84.35
-74.69
-59.77
-37.28
-6.04
33.06
77.04
121.85
163.85
200.94
232.6
259.06
279.9
293.65
298.31
292.7
277.54
255.3
229.08
201.13
172.02
140.97
106.91
69.56
29.89
-10.17
-48.64
-84.14
-116.11
-144.47
-169.18
-189.86
-205.92
-216.8
-222.19
-222.23
-217.62
-209.6
-199.75
-189.71
-180.62
-172.95
-166.43
-160.25
-153.65
-146.11
-137.64
-128.48
-118.85
-108.68
-97.75
-85.84
-72.93
-59.36
-45.78
-32.95
-21.53
-11.98
-4.36
1.46
5.78
8.96
11.32
13.12
14.39
14.94
14.36
12.36
8.87
4.29
-0.65
-5.15
-8.6
-10.93
-12.55
-14.11
-16.22
-19.19
-22.93
-27.18
-31.48
-35.28
-38.02
-39.1
-38.02
-34.52
-28.73
-21.17
-12.76
-4.48
2.79
8.46
12.4
14.76
15.93
16.33
16.25
15.95
15.61
15.44
15.65
16.44
17.8
19.53
21.31
22.77
23.61
23.72
23.15
21.96
20.25
18.05
15.3
12.04
8.37
4.48
0.62
-2.99
-6.26
-9.24
-12.15
-15.27
-18.84
-22.98
-27.54
-32.02
-35.65
-37.5
-36.79
-33.19
-26.96
-19
-10.48
-2.56
4.06
9.11
12.89
15.85
18.29
20.34
21.88
22.84
23.28
23.53
24
25.04
26.71
28.76
30.77
32.41
33.57
34.36
35.05
35.77
36.43
36.74
36.35
35.03
32.76
29.8
26.46
23.21
20.27
17.65
15.16
12.4
9
4.58
-0.89
-7.16
-13.46
-18.71
-21.71
-21.46
-17.56
-10.38
-1.09
8.79
17.79
24.92
29.81
32.74
34.33
35.24
36.03
36.95
38.11
39.47
41.04
42.85
44.99
47.51
50.29
53.05
55.48
57.34
58.62
59.49
60.23
60.99
61.73
62.25
62.29
61.72
60.53
58.79
56.51
53.62
50.06
45.84
41.15
36.28
31.38
26.44
21.23
15.33
8.31
-0.07
-9.89
-20.91
-32.6
-44.2
-54.82
-63.71
-70.72
-76.43
-82.13
-89.44
-99.62
-113.08
-129.15
-146.18
-162.11
-174.99
-183.47
-186.98
-185.86
-180.82
-172.56
-161.23
-146.24
-126.6
-101.64
-71.65
-38.23
-4.04
28.27
56.68
80.07
98.03
110.24
116.1
115.06
107.22
93.85
77.59
61.58
48.44
39.38
34.23
32.02
31.96
34.1
39.1
47.63
59.4
72.8
85.38
94.67
99.32
99.5
96.62
92.38
88.11
84.23
80.42
76.11
70.72
64.07
56.17
47.27
37.77
28.41
20.26
14.53
12.39
14.39
20.19
28.63
38.06
46.82
53.87
58.9
62.32
64.99
67.88
71.66
76.69
82.87
89.7
96.49
102.58
107.61
111.65
115.21
118.98
123.6
129.35
135.99
142.87
149.07
153.74
156.31
156.56
154.68
151.08
146.28
140.46
133.24
123.44
109.23
88.89
61.54
28
-8.96
-45.03
-75.65
-97.26
-108.49
-110.29
-105.37
-96.97
-87.82
-79.51
-72.38
-66.2
-60.6
-55.4
-50.34
-45.02
-38.77
-31.07
-22.13
-13.17
-6.11
-2.8
-3.98
-8.73
-14.85
-19.87
-22.19
-21.75
-19.86
-18.28
-18.21
-19.71
-21.85
-23.25
-22.85
-20.3
-15.95
-10.5
-4.62
1.27
6.94
11.99
15.93
18.16
18.3
16.37
13
9.23
6.29
5.26
6.77
10.92
17.24
24.75
32.14
38.2
42.05
43.57
43.32
42.18
40.89
39.61
37.76
34.43
28.85
20.78
10.65
-0.74
-12.54
-24.15
-35.24
-45.72
-55.6
-65.05
-74.42
-84.07
-94.09
-103.96
-112.53
-118.3
-120.13
-117.65
-111.43
-102.66
-92.54
-81.97
-71.48
-61.45
-52.12
-43.49
-34.93
-25.35
-13.58
1.13
19.02
40.24
65.26
94.64
127.94
162.63
193.72
215.08
221.71
212
188.45
156.26
121.01
86.29
53.17
21.04
-10.49
-40.65
-67.51
-89.04
-104.23
-113.56
-118.63
-121.36
-123.24
-124.83
-125.83
-125.53
-123.3
-119.12
-113.64
-108.01
-103.35
-100.33
-98.81
-97.76
-95.62
-90.71
-81.94
-69.11
-52.99
-35.05
-16.89
0.24
15.78
29.6
41.72
51.92
59.79
65.01
67.63
68.05
66.9
64.77
62.16
59.88
59.06
61.02
66.55
75.02
84.04
90.05
89.64
80.88
64.16
41.77
16.73
-8.36
-31.94
-53.42
-72.49
-88.64
-101.06
-108.82
-111.59
-110.03
-105.75
-100.92
-97.44
-96.38
-97.71
-100.44
-103.24
-105.02
-105.35
-104.49
-103.13
-101.94
-101.27
-101.19
-101.53
-102.15
-103
-104.08
-105.39
-106.84
-108.16
-108.88
-108.41
-106.12
-101.5
-94.34
-84.84
-73.66
-61.81
-50.35
-40.13
-31.53
-24.45
-18.51
-13.14
-7.88
-2.51
3.01
8.63
14.29
20.11
26.26
32.87
39.94
47.26
54.44
61.09
66.99
72.15
76.72
80.84
84.44
87.27
88.98
89.36
88.46
86.63
84.29
81.88
79.64
77.57
75.48
72.97
69.53
64.68
58.1
49.74
39.94
29.38
18.77
8.74
-0.53
-9.21
-17.75
-26.62
-36.09
-46.04
-55.83
-64.49
-70.81
-73.86
-73.24
-69.24
-62.79
-55.16
-47.55
-40.73
-35.09
-30.64
-27.38
-25.26
-24.3
-24.39
-25.22
-26.44
-27.63
-28.57
-29.13
-29.32
-29.1
-28.33
-26.89
-24.65
-21.72
-18.35
-14.91
-11.74
-9.07
-6.91
-5.21
-3.81
-2.56
-1.45
-0.47
0.35
1.08
1.78
2.5
3.31
4.12
4.77
5.08
4.96
4.45
3.82
3.39
3.39
3.72
3.92
3.27
1.14
-2.49
-6.9
-10.78
-12.47
-10.77
-5.36
2.98
12.56
21.23
27.01
28.56
25.36
18.05
8.09
-2.54
-11.88
-18.6
-22.54
-24.88
-27.67
-33.02
-42.08
-54.23
-66.98
-76.56
-79.19
-72.17
-54.9
-28.85
2.96
36.81
69.25
97.82
121.41
140.13
155.11
167.66
178.8
188.78
197.14
202.94
205.28
203.8
198.61
190.22
179.13
165.59
149.56
130.81
109.13
84.41
56.84
26.95
-4.36
-35.85
-66.07
-93.46
-116.59
-134.31
-145.94
-151.33
-150.91
-145.69
-137.16
-127.1
-117.22
-108.88
-102.67
-98.43
-95.19
-91.52
-85.9
-77.1
-64.57
-48.35
-28.99
-7.24
15.97
39.7
62.86
84.22
102.77
117.94
129.74
138.5
144.21
145.88
141.89
130.81
112.66
89.66
65.65
44.61
28.97
18.83
12.49
7.9
4.05
1.25
0.56
2.59
6.79
11.68
15.65
17.86
18.41
18.08
17.48
16.76
15.57
13.46
10.31
6.35
2.05
-2.29
-6.59
-11.16
-16.33
-22.43
-29.51
-37.31
-45.23
-52.53
-58.47
-62.34
-63.83
-62.95
-60.16
-56.17
-51.57
-46.77
-41.76
-36.27
-29.94
-22.6
-14.4
-5.92
1.93
8.09
11.67
12.13
9.48
4.26
-2.74
-10.66
-18.84
-26.97
-35.05
-43.21
-51.71
-60.62
-69.98
-79.8
-90.18
-101.32
-113.47
-126.66
-140.47
-153.8
-164.75
-170.85
-169.63
-159.29
-139.54
-111.95
-79.92
-47.82
-19.89
0.83
13.3
18.21
17.38
12.69
5.43
-3.88
-15.16
-28.45
-43.68
-60.35
-77.55
-93.59
-105.99
-111.71
-108
-93.55
-69.16
-37.76
-3.25
30.9
62.93
92.89
122.01
151.59
182.06
212.79
242.33
268.92
290.88
306.88
316.05
317.96
312.61
300.26
281.29
256.12
225.33
189.96
151.53
111.7
71.61
31.39
-9.86
-53.27
-99.06
-145.66
-189.67
-226.72
-253.04
-266.84
-268.65
-260.93
-246.92
-229.56
-210.99
-192.52
-174.99
-159.03
-145.17
-133.43
-123.25
-113.46
-102.69
-89.91
-74.92
-58.31
-41.14
-24.51
-9.19
4.53
16.82
27.97
38.23
47.61
55.81
62.33
66.53
67.8
65.71
60.38
52.45
43.07
33.42
24.5
16.78
10.35
5.21
1.47
-0.46
0.02
3.49
10.18
19.91
31.99
45.42
58.93
71.22
81.35
89.29
96.14
103.98
115.03
130.73
150.83
173.2
194.26
210.02
217.17
214.02
200.84
179.59
153.3
124.98
96.95
70.37
45.41
21.82
-0.43
-20.75
-38.31
-52.52
-63.54
-72.17
-79.47
-85.94
-91.3
-94.79
-95.64
-93.82
-90.1
-85.82
-82.22
-79.95
-78.84
-78.16
-77.13
-75.26
-72.61
-69.58
-66.75
-64.48
-62.72
-61.16
-59.28
-56.68
-53.21
-49.04
-44.64
-40.66
-37.74
-36.29
-36.34
-37.4
-38.62
-38.95
-37.5
-33.77
-27.77
-19.97
-11.14
-2.11
6.41
13.92
20.1
24.8
28
29.82
30.46
30.25
29.59
28.89
28.5
28.58
29.14
30.01
30.98
31.86
32.52
32.98
33.31
33.54
33.63
33.5
33
32.05
30.73
29.18
27.63
26.38
25.54
25.11
24.88
24.61
24.06
23.23
22.25
21.36
20.79
20.67
20.86
21.06
20.91
20.14
18.71
16.95
15.46
15.09
16.66
20.67
27.05
35.14
43.84
52.01
58.82
64.01
67.94
71.35
75.07
79.7
85.45
91.98
98.67
104.73
109.34
111.88
111.84
108.9
102.9
93.97
82.47
69.05
54.54
39.66
24.98
10.86
-2.59
-15.27
-27.07
-37.85
-47.51
-56.06
-63.65
-70.45
-76.59
-82.06
-86.71
-90.28
-92.5
-93.04
-91.84
-89.05
-85.07
-80.5
-75.97
-72.01
-68.92
-66.76
-65.19
-63.64
-61.39
-57.69
-52.01
-44.18
-34.56
-23.93
-13.33
-3.71
4.3
10.58
15.4
19.24
22.47
25.21
27.3
28.44
28.32
26.8
23.88
19.7
14.34
8
0.95
-6.28
-13.01
-18.59
-22.47
-24.45
-24.65
-23.38
-21.02
-17.84
-13.94
-9.41
-4.5
0.35
4.5
7.26
8.22
7.34
4.95
1.72
-1.64
-4.57
-6.86
-8.52
-9.79
-10.9
-12.09
-13.51
-15.25
-17.2
-19.04
-20.25
-20.3
-18.86
-16.05
-12.43
-8.82
-5.99
-4.39
-3.94
-4.2
-4.58
-4.66
-4.3
-3.57
-2.62
-1.54
-0.35
0.97
2.38
3.72
4.74
5.18
5.03
4.42
3.68
3.07
2.78
2.74
2.74
2.56
1.99
1.11
0.05
-0.93
-1.68
-2.19
-2.61
-3.14
-3.91
-4.99
-6.21
-7.46
-8.54
-9.38
-10.04
-10.71
-11.63
-13.04
-15.15
-17.9
-21.11
-24.32
-27.01
-28.56
-28.54
-26.76
-23.29
-18.49
-12.86
-6.99
-1.35
3.7
7.95
11.36
13.93
15.77
16.86
17.27
16.97
16.08
14.78
13.36
12.16
11.37
11.11
11.21
11.5
11.7
11.64
11.27
10.62
9.74
8.63
7.33
5.8
4.1
2.24
0.23
-1.93
-4.24
-6.65
-9.05
-11.27
-13.24
-14.89
-16.32
-17.62
-18.96
-20.48
-22.29
-24.38
-26.58
-28.46
-29.36
-28.6
-25.78
-20.92
-14.61
-7.75
-1.27
4.13
8.17
10.99
12.97
14.5
15.96
17.52
19.25
21.15
23.16
25.17
27.06
28.78
30.34
31.9
33.55
35.46
37.63
39.89
41.93
43.36
43.92
43.58
42.64
41.54
40.63
39.88
38.72
36.16
31.02
22.51
10.66
-3.71
-19.18
-34.3
-48.06
-60.12
-70.5
-79.25
-85.92
-89.52
-88.88
-83.08
-71.66
-54.42
-31.26
-2.24
31.83
68.89
105.79
139.29
167.58
191.13
212.24
233.16
253.93
271.26
279.25
271.85
245.57
201.26
143.9
80.91
19.93
-32.82
-73.23
-99.12
-110.04
-106.92
-92.12
-69.39
-43.33
-18.77
0.32
11.44
13.96
8.47
-3.72
-21.4
-43.61
-69.23
-96.56
-123.04
-145.68
-161.76
-169.69
-169.48
-162.55
-151.13
-137.57
-123.8
-111.13
-100.36
-91.82
-85.53
-81.32
-78.74
-77.16
-75.68
-73.31
-69.24
-63.11
-55.21
-46.36
-37.69
-30.28
-24.92
-21.7
-20.32
-20.25
-21.01
-22.36
-24.24
-26.66
-29.55
-32.77
-35.77
-38.01
-39.37
-40.15
-40.88
-42.06
-44.17
-47.4
-51.71
-56.71
-62.01
-67.87
-74.79
-83.09
-92.75
-103.66
-115.8
-129.4
-144.28
-159.93
-175.8
-190.32
-200.64
-203.14
-194.88
-174.57
-142.98
-101.82
-53.6
-1.95
49.77
98.92
143.79
182.98
215.96
238.16
245.54
241.19
228.54
209.22
182.04
147.25
106.5
62.79
19.93
-17.8
-47.26
-68.15
-82.41
-93.2
-103.71
-116.43
-132.03
-148.69
-162.04
-166.97
-160.16
-140.84
-110.63
-72.57
-30.27
13.11
55.33
94.92
130.55
160.13
181.45
193.2
195.57
190.13
179.16
165
149.47
133.54
117.26
100.35
82.94
65.85
50.33
37.62
28.43
22.58
19.02
16.11
12.06
5.68
-3.39
-14.61
-26.68
-37.91
-46.77
-52.38
-54.65
-54.34
-52.42
-49.87
-47.33
-45.22
-44.01
-44.47
-47.62
-54.15
-63.91
-75.37
-85.98
-92.73
-93.2
-85.97
-71.01
-49.39
-22.83
6.62
37.01
66.67
94.33
119.17
140.9
159.4
174.46
185.45
190.94
188.98
177.73
156.55
127.08
93.57
61.93
37.81
24.59
21.66
24.77
27.71
24.9
13.61
-5.29
-28
-49.71
-66.35
-76.03
-78.92
-76.51
-70.34
-61.04
-48.15
-30.66
-8.08
18.62
46.68
72.41
92.68
106.02
113.2
116.48
118.17
119.41
119.56
116.86
109.71
97.89
82.72
66.55
51.51
38.44
26.76
15.02
2.05
-12.32
-27.05
-40.48
-50.96
-57.55
-60.24
-59.75
-57.22
-53.79
-50.42
-47.81
-46.31
-45.85
-45.88
-45.74
-44.76
-42.71
-39.8
-36.63
-33.8
-31.71
-30.42
-29.79
-29.74
-30.36
-31.82
-34.17
-37.09
-39.81
-41.37
-40.96
-38.21
-33.27
-26.78
-19.53
-12.24
-5.44
0.58
5.71
9.83
12.94
15.06
16.29
16.8
16.89
16.85
16.9
17.19
17.65
18.19
18.66
18.98
19.2
19.35
19.43
19.39
19.11
18.51
17.73
16.98
16.54
16.51
16.67
16.56
15.7
13.78
10.89
7.52
4.36
1.9
0.33
-0.67
-1.68
-3.22
-5.61
-8.8
-12.37
-15.6
-17.73
-18.06
-16.1
-11.75
-5.29
2.55
10.82
18.5
24.83
29.39
32.15
33.4
33.61
33.33
33.16
33.69
35.38
38.49
42.92
48.18
53.55
58.29
61.94
64.52
66.62
69.05
72.68
78.12
85.71
95.54
107.49
121.26
136.16
150.99
163.96
173.1
176.7
173.64
163.46
145.88
120.46
86.51
43.83
-6.5
-61.45
-116.44
-166.51
-207.9
-238.99
-260.23
-273.01
-278.45
-276.61
-266.83
-248.76
-223.44
-193.41
-162.11
-132.63
-106.84
-85.11
-67
-51.79
-39.29
-29.76
-23.47
-20.21
-19.13
-18.95
-18.43
-16.86
-14.05
-10.25
-5.8
-0.94
4.16
9.22
13.91
17.86
20.76
22.59
23.52
23.81
23.62
22.92
21.48
19.06
15.59
11.24
6.33
1.37
-3.22
-6.97
-9.47
-10.34
-9.31
-6.39
-1.87
3.6
9.3
14.58
19.16
23.02
26.46
29.79
33.22
36.82
40.51
44.09
47.38
50.34
52.95
55.4
57.92
60.69
63.78
67.1
70.45
73.57
76.22
78.21
79.45
79.97
79.86
79.35
78.7
78.29
78.47
79.4
81.16
83.74
87
90.69
94.37
97.27
98.34
96.44
90.54
79.95
64.56
44.8
21.58
-3.71
-29.36
-53.5
-74.31
-90.37
-100.94
-106.04
-106.37
-102.94
-96.72
-88.48
-78.81
-68.26
-57.58
-47.76
-39.85
-34.7
-32.57
-33.01
-35.03
-37.31
-38.77
-38.88
-37.74
-35.86
-33.93
-32.41
-31.35
-30.55
-29.59
-28.12
-25.97
-23.14
-19.77
-16.09
-12.43
-9.12
-6.53
-4.91
-4.49
-5.39
-7.66
-11.3
-16.2
-22.23
-29.03
-36.24
-43.41
-50.21
-56.42
-61.81
-66.12
-68.88
-69.56
-67.61
-62.96
-56.11
-48.04
-40.02
-33.11
-27.9
-24.31
-21.81
-19.64
-17.22
-14.25
-10.62
-6.48
-2.05
2.35
6.45
10.03
13.08
15.73
18.25
20.9
23.74
26.69
29.51
32.02
34.05
35.62
36.84
37.82
38.64
39.21
39.35
38.81
37.29
34.6
30.72
25.84
20.25
14.26
8
1.47
-5.57
-13.4
-22.18
-31.85
-42.1
-52.53
-62.83
-73
-83.31
-94.29
-106.46
-120.24
-135.96
-153.85
-174.08
-196.56
-220.76
-245.44
-268.89
-289.14
-304.6
-314.22
-317.36
-313.29
-300.84
-278.58
-245.35
-201.11
-147.44
-87.22
-23.85
39.64
101.31
160.3
216.5
269.92
320.19
366.34
406.85
439.84
463.35
475.79
476.18
464.33
440.83
406.85
364.12
314.99
262.43
209.7
159.7
114.21
73.48
36.52
1.94
-31.18
-62.77
-92.16
-118.92
-143.33
-166.5
-189.54
-212.83
-235.54
-256
-272.34
-283.06
-287.07
-283.28
-270.41
-247.22
-213.32
-169.93
-120.15
-68.33
-18.91
24.72
60.99
90.13
113.5
132.7
148.91
162.51
173.16
180.18
182.94
181.33
175.8
167.15
156.23
143.61
129.47
113.69
96.06
76.48
55.12
32.37
8.91
-14.4
-36.46
-56.08
-71.97
-83.02
-88.47
-88.25
-83.16
-74.66
-64.52
-54.09
-43.97
-33.72
-22.15
-7.91
10
31.82
57.01
84.54
113.15
141.36
167.5
189.7
205.86
214.06
212.97
202.28
182.91
156.9
127.03
96.09
66.3
38.65
12.82
-12.48
-38.51
-65.37
-91.22
-112.19
-123.52
-121.18
-103.76
-73.49
-35.95
1.43
31.63
49.69
53.81
45.01
26.37
1.89
-24.19
-48.05
-66.8
-78.63
-82.9
-79.63
-68.83
-50.02
-22.68
12.52
52.24
89.68
115.99
123.38
109.2
78.12
41.48
12.94
2.76
13.49
38.89
67.12
86.08
88.35
73.32
45.85
12.83
-20.33
-51.17
-79.59
-105.81
-129.12
-147.73
-159.97
-165.74
-166.95
-166.74
-167.82
-171.02
-174.81
-176.17
-172.23
-161.61
-145.14
-125.46
-105.85
-88.99
-76.2
-67.17
-60.46
-54.32
-47.29
-38.82
-29.22
-19.47
-10.56
-3.23
2.47
7.01
11.14
15.43
20.04
24.63
28.56
31.19
32.14
31.45
29.6
27.25
25.04
23.4
22.45
22.16
22.26
22.44
22.47
22.12
21.18
19.44
16.77
13.02
8.33
2.98
-2.59
-7.87
-12.54
-16.54
-20.02
-23.24
-26.55
-30.14
-34.02
-38.1
-42.11
-45.74
-48.6
-50.19
-49.97
-47.54
-42.72
-35.63
-26.79
-16.87
-6.62
3.34
12.6
20.96
28.32
34.71
40.15
44.66
48.43
51.65
54.43
56.89
58.99
60.64
61.73
62.15
61.86
60.93
59.54
57.83
55.95
53.89
51.31
47.41
40.8
29.89
13.51
-8.23
-33.44
-58.61
-79.61
-93.12
-97.9
-95.27
-88.26
-80.08
-72.52
-65.34
-56.88
-45.38
-30.25
-12.22
7.19
26.59
44.93
61.28
74.11
81.4
81.54
74.84
64.54
56.14
55.46
65.9
86.8
113.53
139.22
157.43
164.22
158.98
143.82
122.16
97.1
70.75
44.13
17.84
-7.13
-29.03
-45.68
-55.21
-57.16
-52.85
-44.92
-36.42
-29.55
-24.92
-21.63
-18.04
-12.64
-4.6
6.22
19.85
36.51
56.59
80.12
105.96
131.65
154.08
170.87
181.21
185.97
186.58
183.54
175.41
159.06
131.25
90.56
38.72
-19.73
-78.77
-132.82
-178.12
-213.04
-237.6
-252.46
-258.33
-255.75
-245.48
-228.97
-208.37
-186.38
-165.44
-147.08
-131.52
-117.94
-105.09
-92.1
-78.98
-66.55
-56.02
-48.15
-42.79
-39
-35.31
-30.45
-23.79
-15.56
-6.61
1.86
8.84
13.84
16.73
17.91
17.96
17.54
17.23
17.45
18.37
20.01
22.27
24.91
27.81
30.82
33.84
36.79
39.66
42.45
45.24
48.1
50.86
53.06
53.82
52.02
46.83
38.04
26.43
13.66
1.72
-7.69
-13.7
-16.45
-16.83
-15.86
-14.35
-12.71
-11.11
-9.85
-9.51
-10.72
-13.93
-19.04
-25.27
-31.53
-36.82
-40.62
-43.15
-45.14
-47.49
-50.94
-55.94
-62.46
-70.27
-78.74
-87.06
-94.36
-99.96
-103.59
-105.6
-106.71
-107.77
-109.4
-111.66
-114.14
-116.11
-116.82
-115.72
-112.62
-107.6
-101.02
-93.48
-85.65
-78.16
-71.41
-65.38
-59.6
-53.26
-45.46
-35.54
-23.33
-9.25
5.77
20.6
34.23
45.94
55.54
63.21
69.27
74.08
77.83
80.57
82.21
82.67
81.8
79.55
76
71.23
65.51
59.08
52.28
45.43
38.77
32.42
26.36
20.52
14.6
8.37
1.62
-5.47
-12.36
-18.18
-21.91
-22.73
-20.4
-15.42
-8.83
-1.98
3.97
8.31
10.89
12.21
13.09
14.35
16.56
19.88
24.16
29.05
34.31
39.83
45.8
52.43
59.77
67.65
75.49
82.5
87.79
90.74
90.92
88.41
83.57
77.08
69.76
62.3
55.21
48.49
41.76
34.37
25.83
16.2
6.28
-2.61
-9.27
-13.08
-14.42
-14.45
-14.61
-16.12
-19.61
-25.2
-32.67
-41.81
-52.21
-63.04
-72.88
-79.75
-81.78
-77.81
-68.01
-53.78
-37.48
-21.55
-7.89
2.58
9.95
14.82
18.07
20.43
22.41
24.23
25.94
27.43
28.66
29.63
30.29
30.65
30.65
30.26
29.52
28.61
27.76
27.24
27.16
27.31
27.27
26.44
24.33
20.73
15.81
10.03
3.96
-1.91
-7.33
-12.31
-17.1
-22.04
-27.35
-32.9
-38.17
-42.2
-44
-42.79
-38.4
-31.32
-22.63
-13.66
-5.58
0.89
5.63
8.99
11.52
13.79
16.05
18.27
20.17
21.49
22.09
22.12
21.84
21.56
21.47
21.53
21.67
21.68
21.48
21.08
20.55
19.94
19.23
18.47
17.62
16.8
16.1
15.57
15.22
14.88
14.31
13.26
11.6
9.33
6.64
3.74
0.7
-2.5
-6.03
-10.05
-14.72
-20.05
-25.87
-31.78
-37.16
-41.34
-43.59
-43.42
-40.7
-35.83
-29.64
-23.11
-17.06
-11.89
-7.66
-4.1
-0.89
2.22
5.29
8.23
10.94
13.32
15.41
17.3
19.15
21.04
22.89
24.53
25.61
25.78
24.82
22.77
19.85
16.46
13.01
9.89
7.56
6.3
6.35
7.81
10.63
14.51
18.99
23.39
26.95
29.02
29.17
27.29
23.72
19.12
14.27
9.97
6.84
5.27
5.5
7.49
10.93
15.24
19.54
22.91
24.62
24.33
22.25
19.06
15.66
12.87
11.21
10.72
11.15
12.07
13.03
13.74
14.21
14.58
15.05
15.71
16.37
16.75
16.62
15.85
14.58
13.2
12.18
11.88
12.53
14.05
16.16
18.52
20.65
22.14
22.63
21.96
20.05
17.03
13.01
8.11
2.48
-3.71
-10.16
-16.49
-22.43
-27.68
-32.08
-35.62
-38.42
-40.64
-42.56
-44.41
-46.26
-48.05
-49.37
-49.56
-47.98
-44.37
-38.81
-31.96
-24.73
-17.93
-12.07
-7.3
-3.32
0.28
3.84
7.59
11.42
15.04
18.08
20.27
21.55
22.13
22.46
23.06
24.38
26.62
29.61
33.01
36.21
38.73
40.21
40.53
39.84
38.49
36.84
35.23
33.97
33.2
32.95
33.09
33.19
32.67
31.03
27.94
23.48
18.13
12.58
7.57
3.73
1.36
0.51
0.96
2.19
3.56
4.36
4.01
2.28
-0.53
-3.75
-6.48
-8.13
-8.55
-8.2
-7.86
-8.3
-9.71
-11.51
-12.71
-12.2
-9.43
-4.48
2.13
9.88
18.68
28.9
41.08
55.12
70.1
84.09
94.71
99.76
97.8
88.6
73.12
53.08
30.47
7.1
-15.65
-36.77
-55.4
-70.86
-82.64
-90.7
-95.48
-97.57
-96.81
-91.85
-80.27
-59.83
-30.77
2.63
32.12
47.98
42.68
14.42
-31.89
-86.31
-137.44
-176.3
-198.4
-203.79
-195.18
-176.06
-149.56
-118.34
-84.98
-52.1
-22.02
3.92
25.61
43.96
60.15
74.97
88.45
100.19
109.67
116.54
120.82
122.7
122.48
120.61
117.87
115.14
113.23
112.39
111.85
109.83
104.13
93.01
75.96
53.9
28.56
1.65
-25.78
-53.44
-81.37
-109.26
-135.96
-159.73
-178.91
-192.58
-200.76
-203.97
-202.53
-196.21
-184.63
-167.93
-147.18
-124.03
-99.8
-74.52
-46.86
-15.33
20.06
56.67
89.5
113.02
123.71
121.57
110.11
94.6
79.9
68.77
61.85
58.81
59.76
65.9
78.94
99.36
124.92
150.37
168.53
172.67
158.81
127.02
81.27
28.16
-24.8
-70.93
-105.1
-124.25
-127.36
-115.32
-90.48
-56.14
-16
26.24
67.13
103.63
133.32
154.81
167.85
173.23
172.19
165.64
153.53
134.98
109.06
75.64
36.23
-5.84
-46.19
-80.4
-105.25
-119.51
-123.99
-121.08
-113.86
-105.13
-96.82
-89.91
-84.57
-80.58
-77.64
-75.52
-74.09
-73.31
-73.25
-74.14
-76.32
-79.99
-84.88
-90.2
-94.85
-97.92
-99.09
-98.71
-97.68
-96.99
-97.29
-98.69
-100.78
-102.95
-104.65
-105.63
-105.92
-105.7
-105.01
-103.47
-100.1
-93.29
-81.19
-62.25
-35.94
-3.31
32.98
69.11
100.97
125.05
139.32
143.5
138.93
128.05
113.64
98.31
84.08
72.21
63.12
56.66
52.23
48.94
45.92
42.34
37.72
31.96
25.41
18.61
12.18
6.53
1.68
-2.63
-6.8
-11.1
-15.46
-19.56
-22.93
-25.28
-26.52
-26.88
-26.67
-26.24
-25.77
-25.35
-24.91
-24.33
-23.45
-22.11
-20.26
-17.84
-14.86
-11.24
-6.73
-1.02
6.15
14.62
23.81
32.68
40.07
44.95
46.78
45.61
41.93
36.64
30.62
24.61
19.1
14.27
10.13
6.61
3.76
1.57
0.11
-0.74
-1.23
-1.69
-2.48
-3.81
-5.66
-7.75
-9.76
-11.36
-12.35
-12.77
-12.73
-12.43
-12
-11.55
-11.09
-10.66
-10.37
-10.42
-10.98
-12.12
-13.85
-16.07
-18.74
-21.79
-25.09
-28.39
-31.2
-32.91
-32.92
-30.96
-27.16
-22.05
-16.42
-11
-6.33
-2.69
-0.17
1.31
1.86
1.68
1
0.05
-0.95
-1.81
-2.4
-2.68
-2.7
-2.57
-2.3
-1.99
-1.63
-1.2
-0.66
-0.04
0.54
0.77
0.27
-1.21
-3.83
-7.48
-11.8
-16.36
-20.79
-24.8
-28.39
-31.72
-35.03
-38.52
-42.11
-45.41
-47.73
-48.2
-45.97
-40.55
-31.98
-20.84
-8.22
4.63
16.53
26.66
34.65
40.62
44.93
47.98
50.07
51.2
51.16
49.73
46.8
42.5
37.21
31.45
25.75
20.48
15.77
11.63
8
4.83
2.14
-0.12
-2.16
-4.33
-7.13
-10.98
-15.94
-21.68
-27.5
-32.54
-36.09
-37.83
-37.84
-36.41
-33.87
-30.44
-26.17
-21.03
-14.82
-7.17
2.36
14.13
28.12
43.59
59.01
72.24
81.14
84.25
81.38
73.53
62.54
50.42
38.75
28.49
20.03
13.45
8.71
5.75
4.42
4.41
5.34
6.86
8.66
10.61
12.56
14.26
15.41
15.74
15.13
13.75
11.94
10.06
8.32
6.77
5.37
4.03
2.83
1.86
1.2
0.66
-0.22
-1.97
-5.07
-9.64
-15.29
-21.18
-26.16
-29.03
-28.92
-25.49
-18.95
-10.18
-0.45
8.97
16.99
23.09
27.23
29.83
31.55
33.1
34.92
37.11
39.41
41.36
42.5
42.6
41.82
40.63
39.68
39.4
39.93
41.04
42.28
43.27
43.79
43.88
43.65
43.19
42.43
41.18
39.17
36.29
32.61
28.34
23.72
18.91
13.89
8.66
3.3
-2.08
-7.23
-11.94
-16.16
-19.86
-23.02
-25.55
-27.28
-28.13
-28.26
-28.06
-28.02
-28.75
-30.63
-33.74
-37.98
-42.93
-47.9
-52.14
-54.74
-54.93
-52.33
-46.99
-39.44
-30.62
-21.48
-12.82
-5.21
1.17
6.34
10.46
13.76
16.38
18.34
19.71
20.58
21.07
21.42
21.88
22.57
23.42
24.21
24.53
24.14
22.91
20.88
18.22
15.14
11.79
8.34
4.97
1.78
-1.07
-3.55
-5.59
-7.14
-8.24
-8.93
-9.3
-9.48
-9.64
-9.87
-10.19
-10.58
-10.94
-11.32
-11.8
-12.51
-13.59
-15.21
-17.44
-20.33
-23.95
-28.21
-32.88
-37.37
-40.9
-42.59
-41.84
-38.55
-33.21
-26.83
-20.52
-15.28
-11.57
-9.39
-8.33
-7.82
-7.35
-6.65
-5.7
-4.75
-4.14
-4.14
-4.79
-5.99
-7.53
-9.19
-10.84
-12.42
-13.83
-14.89
-15.35
-15.03
-13.99
-12.47
-10.98
-10.02
-9.9
-10.68
-12.09
-13.75
-15.28
-16.44
-17.05
-17.05
-16.38
-14.93
-12.57
-9.22
-4.96
-0.01
5.32
10.71
15.96
21
25.91
30.66
35.08
38.73
41.08
41.48
39.45
34.81
27.77
19
9.53
0.65
-6.51
-11.01
-12.52
-11.27
-7.84
-2.94
2.83
9.05
15.55
22.17
28.77
35.16
41.12
46.55
51.35
55.58
59.27
62.45
65.06
66.96
68.11
68.5
68.3
67.73
66.95
66.03
64.84
63.18
60.95
58.32
55.69
53.7
52.81
53.12
54.4
56.09
57.69
58.86
59.54
59.71
59.21
57.55
54.02
48.02
39.37
28.64
16.84
5.17
-5.51
-14.86
-23.01
-30.28
-36.96
-43.18
-49.01
-54.55
-59.65
-63.78
-65.84
-64.45
-58.68
-48.85
-36.92
-25.96
-19.1
-18.13
-22.83
-31.18
-40.28
-47.69
-52.22
-54.06
-54.05
-53.07
-51.47
-49.15
-45.92
-41.74
-36.86
-31.7
-26.45
-20.98
-14.81
-7.49
1.1
10.44
19.61
27.34
32.61
34.94
34.57
32.2
28.81
25.23
21.92
19.09
16.76
14.82
13.22
11.88
10.63
9.33
7.84
5.98
3.71
1.08
-1.85
-4.95
-8.05
-10.9
-13.22
-14.79
-15.57
-15.71
-15.52
-15.32
-15.33
-15.66
-16.28
-17.09
-17.96
-18.81
-19.5
-19.83
-19.71
-19.08
-18.14
-17.29
-16.87
-17.16
-18.24
-19.92
-21.92
-23.98
-25.91
-27.65
-29.31
-30.98
-32.68
-34.36
-35.89
-37.13
-37.97
-38.28
-37.92
-36.75
-34.68
-31.65
-27.72
-23.15
-18.33
-13.76
-9.86
-6.88
-4.78
-3.31
-2.06
-0.62
1.19
3.3
5.39
7.07
8.13
8.62
8.78
8.94
9.27
9.81
10.51
11.32
12.17
12.96
13.46
13.32
12.15
9.72
6.07
1.61
-3.14
-7.72
-11.79
-15.38
-18.59
-21.65
-24.67
-27.71
-30.55
-32.89
-34.4
-34.73
-33.87
-32.01
-29.59
-27.19
-25.4
-24.53
-24.64
-25.48
-26.54
-27.29
-27.27
-26.23
-24.34
-22.09
-20.17
-19.16
-19.39
-20.69
-22.66
-24.85
-27
-29.27
-32.1
-36.07
-41.65
-49
-57.92
-68.02
-78.82
-90.1
-102.01
-115.12
-130.28
-148.19
-168.9
-191.35
-213.41
-232.23
-244.92
-249.4
-244.7
-231.15
-209.98
-182.86
-151.39
-116.87
-80.07
-41.27
-0.29
43.26
89.42
137.54
185.95
232.38
274.63
311.49
343.1
370.56
394.76
415.14
429.21
432.95
422.5
395.94
354.49
302.53
246.16
191.38
142.65
102.48
71.92
51.51
41.74
42.76
53.68
71.85
93.07
112.61
126.43
132.15
129.32
118.87
102.35
81.39
57.34
31.33
4.38
-22.43
-48.07
-71.29
-90.78
-105.25
-113.66
-115.66
-111.81
-103.45
-92.35
-80.25
-68.29
-57.04
-46.64
-37.16
-28.9
-22.43
-18.35
-17.11
-18.78
-22.96
-29.03
-36.29
-44.07
-51.85
-59.16
-65.44
-70.08
-72.49
-72.31
-69.62
-64.91
-59.04
-52.9
-47.28
-42.62
-39.07
-36.58
-34.97
-34.22
-34.3
-35.2
-36.88
-39.23
-42.12
-45.5
-49.33
-53.58
-58.23
-63.12
-68.07
-72.8
-76.98
-80.07
-81.56
-80.93
-77.83
-72.42
-65.21
-57.15
-49.18
-42.09
-36.2
-31.45
-27.5
-23.88
-20.36
-16.77
-13.32
-10.22
-7.7
-5.79
-4.3
-2.97
-1.49
0.17
2.04
3.97
5.99
8.15
10.54
13.1
15.41
17.01
17.38
16.4
14.21
11.16
7.75
4.42
1.79
0.74
2.59
8.73
20.15
36.73
56.84
77.74
96.08
108.91
114.36
111.89
102.03
86.03
65.41
41.81
16.96
-7.27
-28.87
-45.97
-57.09
-61.53
-59.38
-51.43
-38.88
-22.78
-3.93
17.38
40.77
65.42
89.95
112.64
132.19
148.07
160.61
170.07
175.91
176.21
168.16
149.38
119.34
79.88
34.84
-11.26
-54.61
-92.74
-124.47
-149.37
-167.23
-178.03
-182.28
-181.21
-176.79
-171.29
-166.75
-164.6
-165.54
-169.57
-176.33
-185.17
-195.45
-206.59
-218.23
-230.33
-243.02
-256.4
-270.17
-283.15
-293.28
-297.7
-293.49
-278.48
-252
-215.19
-170.59
-121.61
-71.54
-22.98
22.49
64.32
102.92
139.62
176.18
213.8
251.86
287.18
314.49
328.2
325.14
306.25
276.87
244.79
217.25
198.39
188.71
186.21
188.3
193.47
201.22
211.23
222.18
231.45
235.77
232.45
220.45
200.4
174.44
145.15
114.86
85.16
56.82
30.17
5.23
-17.76
-38.33
-55.76
-69.46
-79.35
-85.92
-90.19
-93.04
-94.91
-95.48
-94.02
-89.76
-82.62
-73.28
-63.04
-53.53
-46.06
-41.41
-39.49
-39.59
-40.52
-41.22
-40.98
-39.69
-37.91
-36.61
-36.91
-39.51
-44.33
-50.41
-56.19
-60.12
-61.26
-59.82
-57.09
-54.98
-55.3
-59.14
-66.52
-76.43
-86.8
-94.57
-95.94
-87.3
-66.68
-35.08
3.06
40.83
71.29
90.23
97.64
97.24
94.15
92.27
92.68
94.33
96.03
98.39
104.12
116.48
136.64
162.07
186.63
202.78
204.62
190.21
162.13
126.06
88.41
53.88
24.51
-0.36
-22.85
-45.19
-68.7
-93.31
-117.66
-139.4
-155.76
-163.93
-161.75
-148.64
-126.64
-100.8
-78.29
-66.03
-67.68
-81.67
-101.44
-118.14
-124.63
-118.54
-102.94
-84.08
-67.94
-57.49
-51.94
-48.21
-42.89
-33.9
-20.6
-3.23
17.59
40.59
63.28
81.99
92.54
91.84
79.13
56.44
27.66
-2.95
-32.11
-57.88
-79.27
-95.46
-105.36
-107.61
-101.12
-85.7
-62.37
-33.51
-2.28
27.82
53.52
72.18
82.07
82.55
73.97
57.73
36.02
11.56
-12.76
-34.31
-51.08
-61.94
-66.82
-66.49
-62.34
-55.89
-48.49
-41.04
-33.99
-27.55
-21.88
-17.3
-14.32
-13.38
-14.57
-17.37
-20.67
-22.86
-22.14
-16.91
-6.11
10.45
31.88
56.02
79.69
99.26
111.67
115.37
110.9
100.72
88.47
77.77
71.25
70.18
74.53
83.59
96.55
112.94
132.86
156.8
185.07
217.13
250.98
282.99
308.49
322.99
323.59
309.96
284.23
249.98
210.75
169.07
126.24
83.01
40.36
-0.06
-36.3
-66.8
-91.12
-110.04
-125.07
-137.91
-149.78
-161.32
-172.61
-183.51
-193.65
-202.56
-209.66
-214.4
-216.45
-215.73
-212.27
-205.99
-196.65
-183.92
-167.74
-148.56
-127.42
-105.82
-85.22
-66.7
-50.76
-37.36
-26.22
-17.02
-9.5
-3.3
1.97
6.85
11.85
17.28
23.11
28.94
34.15
38.08
40.48
41.5
41.74
42.02
43.03
45.02
47.73
50.49
52.56
53.57
53.7
53.7
54.51
56.83
60.71
65.46
69.78
72.26
71.83
67.96
60.82
51.04
39.41
26.61
12.97
-1.64
-17.69
-35.73
-56.07
-78.2
-100.69
-121.18
-136.8
-144.98
-144.34
-135.23
-119.61
-100.26
-79.73
-59.49
-39.67
-19.61
1.23
22.54
42.9
60.52
74.2
84.04
91.39
98.09
105.35
113.14
120.38
125.57
127.67
126.67
123.38
119.01
114.47
110.05
105.47
100.3
94.22
87.27
79.87
72.49
65.52
59.09
52.96
46.69
39.82
32.09
23.69
15.11
6.86
-0.75
-7.77
-14.63
-21.69
-29.07
-36.41
-42.96
-48.13
-51.69
-53.87
-55.16
-55.9
-55.98
-54.98
-52.33
-47.74
-41.41
-33.99
-26.28
-19.04
-12.71
-7.38
-3.04
0.35
2.76
4.1
4.38
3.62
1.85
-0.88
-4.55
-9.15
-14.69
-21.01
-27.88
-35.01
-42.2
-49.33
-56.33
-63.13
-69.57
-75.53
-81.01
-86.27
-91.79
-98.16
-105.74
-114.45
-123.51
-131.36
-135.96
-135.13
-127.21
-111.61
-89.09
-61.77
-32.72
-5.23
18.08
35.6
47.01
53.1
55.39
55.78
56.01
57.4
60.59
65.43
71.04
75.99
78.72
77.87
72.66
62.93
49.14
32.28
13.56
-5.73
-24.36
-41.37
-56.1
-68.06
-76.98
-82.66
-84.97
-83.71
-78.89
-70.55
-58.96
-44.62
-28.1
-9.8
10.21
32.37
57.36
85.55
116.34
147.58
175.76
196.82
207.3
205.32
190.92
165.66
131.93
92.26
48.97
4.37
-39.17
-79.35
-114.29
-142.88
-165.01
-181.22
-192.05
-197.92
-198.79
-194.55
-185.44
-172.19
-156.01
-138.35
-120.59
-103.64
-88.15
-74.3
-62.08
-51.34
-41.82
-33.19
-25.26
-18.01
-11.59
-6.35
-2.47
0.06
1.49
2.35
3.16
4.23
5.58
6.97
7.94
8.19
7.6
6.25
4.5
2.61
0.78
-0.95
-2.76
-4.94
-7.78
-11.43
-15.86
-20.69
-25.3
-28.83
-30.35
-29.24
-25.32
-18.99
-11.09
-2.68
5.26
12.1
17.52
21.6
24.6
26.79
28.42
29.61
30.42
30.93
31.19
31.32
31.46
31.72
32.02
32.16
31.77
30.6
28.47
25.47
21.82
17.77
13.41
8.73
3.76
-1.3
-5.88
-9.31
-11
-10.88
-9.39
-7.4
-5.83
-5.2
-5.59
-6.67
-8.04
-9.5
-11.12
-13.19
-15.97
-19.48
-23.46
-27.38
-30.61
-32.39
-32.11
-29.4
-24.17
-16.78
-7.89
1.64
10.96
19.52
27.03
33.39
38.58
42.53
45.23
46.8
47.56
48.06
48.88
50.38
52.45
54.68
56.45
57.34
57.28
56.59
55.83
55.49
55.67
55.95
55.56
53.56
49.11
41.82
31.93
20.09
7.37
-5.16
-16.64
-26.48
-34.4
-40.42
-44.66
-47.24
-48.47
-48.77
-48.72
-48.95
-49.94
-51.83
-54.32
-56.63
-57.69
-56.47
-52.23
-44.72
-34.38
-22.15
-9.34
2.77
13.32
21.85
28.41
33.28
36.89
39.47
41.26
42.37
43.02
43.5
44.07
44.83
45.74
46.63
47.23
47.35
46.87
45.74
43.97
41.53
38.44
34.8
30.76
26.53
22.34
18.24
14.15
9.96
5.5
0.77
-4.04
-8.74
-13.05
-16.72
-19.63
-21.87
-23.6
-25.25
-27.25
-29.92
-33.39
-37.28
-40.79
-42.9
-42.73
-39.79
-34.19
-26.57
-17.89
-9.14
-1.14
5.61
10.85
14.56
16.85
17.98
18.34
18.37
18.37
18.57
18.97
19.43
19.76
19.84
19.57
19
18.26
17.46
16.7
15.96
15.15
14.01
12.23
9.45
5.51
0.54
-4.99
-10.45
-15.27
-19.11
-22.05
-24.45
-26.92
-29.92
-33.7
-38.02
-42.32
-45.83
-47.63
-47.04
-43.76
-37.98
-30.38
-21.87
-13.42
-5.68
0.93
6.34
10.67
14.11
16.92
19.32
21.5
23.45
25.17
26.51
27.41
27.76
27.64
27.18
26.63
26.36
26.85
28.62
31.93
36.74
42.42
48.1
52.94
56.44
58.62
