28.28
26.26
23.3
18.97
13.23
6.56
-0.12
-5.6
-8.81
-9.14
-6.66
-2.16
3.08
7.66
10.51
11.11
9.58
6.43
2.36
-2.01
-6.3
-10.31
-14.01
-17.57
-21.3
-25.68
-31.17
-37.98
-45.81
-53.74
-60.39
-64.32
-64.58
-61.11
-54.88
-47.66
-41.47
-38.04
-38.37
-42.56
-49.9
-59.24
-69.25
-78.77
-86.85
-92.8
-96.05
-96.08
-92.49
-85.05
-73.93
-59.76
-43.72
-27.27
-11.78
1.73
12.79
21.45
27.99
32.68
35.72
37.24
37.52
37.14
36.84
37.35
39.02
41.63
44.43
46.48
46.94
45.38
41.89
36.91
31.1
25.09
19.34
14.08
9.33
4.99
0.81
-3.5
-8.15
-13.25
-18.6
-23.69
-27.72
-29.79
-29.16
-25.54
-19.25
-11.17
-2.51
5.61
12.47
17.83
21.85
24.76
26.67
27.54
27.32
26.14
24.39
22.6
21.3
20.73
20.8
21.18
21.45
21.24
20.38
18.85
16.82
14.52
12.18
9.94
7.73
5.29
2.28
-1.55
-6.26
-11.7
-17.43
-22.82
-27.11
-29.46
-29.16
-25.87
-19.77
-11.6
-2.53
6.21
13.66
19.36
23.28
25.66
26.77
26.77
25.78
23.98
21.75
19.55
17.79
16.65
16
15.47
14.66
13.34
11.54
9.48
7.38
5.36
3.34
1.09
-1.58
-4.8
-8.6
-12.94
-17.76
-22.91
-28.03
-32.55
-35.66
-36.56
-34.73
-30.11
-23.21
-14.98
-6.51
1.18
7.45
11.98
14.77
15.99
15.87
14.67
12.7
10.38
8.15
6.46
5.64
5.77
6.58
7.6
8.3
8.33
7.7
6.73
5.89
5.51
5.58
5.73
5.35
3.93
1.28
-2.36
-6.41
-10.12
-12.74
-13.63
-12.34
-8.69
-2.77
4.94
13.67
22.48
30.51
37.14
42.13
45.61
47.87
49.25
50.04
50.4
50.47
50.34
50.09
49.7
49.11
48.04
46.05
42.64
37.39
30.25
21.63
12.35
3.53
-3.9
-9.41
-13.03
-15.06
-15.93
-15.79
-14.52
-11.95
-7.91
-2.49
3.96
11.02
18.33
25.54
32.43
38.77
44.21
48.56
51.78
54.04
55.71
57.14
58.26
58.94
58.93
57.96
56.24
54.39
53.07
52.72
53.28
53.89
53.85
52.8
50.73
48.27
46.27
45.38
46.01
48.41
52.41
58.42
67.06
76.35
84.62
90.76
94.55
96.83
101.79
109.72
119.11
127.65
133.1
132.92
126.73
115.66
101.75
87.01
72.25
57.59
42.33
25.21
5.17
-18.29
-45.11
-74.45
-104.65
-133.56
-158.32
-176.36
-186.35
-188.55
-184.56
-176.76
-167.33
-157.58
-148.07
-138.6
-128.84
-118.75
-108.55
-98.41
-88.44
-78.66
-69.18
-60.35
-52.54
-45.98
-40.65
-36.16
-31.82
-26.96
-21.19
-14.48
-7.23
0.08
7.14
14.03
21.37
30.15
41.3
55.18
71.19
87.63
102.1
112.26
116.83
116.29
113.02
110.55
112.5
121.21
136.82
157.01
177.6
193.74
201.35
198.27
184.74
162.96
136.21
107.61
79.27
52.11
25.9
-0.21
-27.33
-56.38
-87.66
-120.45
-152.72
-181.37
-203.07
-215.34
-217.57
-211.24
-199.35
-185.27
-171.65
-159.97
-150.61
-143.38
-137.98
-134.16
-131.5
-129.36
-126.93
-123.57
-119.2
-114.37
-110.17
-107.68
-107.51
-109.43
-112.5
-115.42
-117.14
-117.32
-116.49
-115.83
-116.64
-119.86
-125.77
-133.92
-143.51
-153.57
-163.37
-172.52
-181.15
-189.89
-199.79
-212.13
-227.82
-246.81
-267.53
-286.83
-300.64
-305.08
-297.79
-278.83
-250.67
-217.34
-183.12
-151.26
-123.47
-100.08
-80.7
-64.97
-52.86
-44.59
-40.1
-38.75
-39.12
-39.43
-37.96
-33.74
-26.7
-17.65
-7.71
2.26
12.18
22.86
35.65
51.89
72.42
97.29
125.89
156.94
188.6
218.42
243.53
261.18
269.5
268.13
258.43
242.97
224.53
204.94
184.56
162.56
138
110.98
83.25
57.84
37.9
25.35
20.16
20.56
24.09
28.88
34.35
41.05
49.66
59.85
69.89
77.23
79.81
77.15
70.83
64.17
61
64.29
75.18
92.5
113
132.18
145.62
150.44
146.26
135.28
121.24
107.71
96.59
87.48
78.52
67.78
54.75
40.68
27.8
18.06
12.15
9.45
8.64
8.71
9.52
11.61
15.6
21.45
28.42
35.17
40.31
43.03
43.36
42.08
40.36
39.29
39.36
40.29
41.16
40.83
38.47
33.93
27.73
20.82
14.09
8.06
2.77
-2.07
-6.88
-11.93
-17.28
-22.73
-27.98
-32.58
-36.06
-37.88
-37.54
-34.73
-29.43
-21.94
-12.92
-3.2
6.36
15.03
22.31
27.94
31.98
34.73
36.67
38.33
40.17
42.42
45.12
48.19
51.52
55.03
58.7
62.5
66.26
69.71
72.48
74.22
74.73
74.09
72.76
71.65
71.96
74.87
81
89.98
100.19
109.1
113.92
112.48
103.87
88.75
69.13
47.86
28.01
12.18
2.07
-1.79
-0.02
5.79
13.52
20.97
26.28
28.28
26.6
21.65
14.45
6.33
-1.38
-7.7
-12.22
-15.19
-17.32
-19.52
-22.53
-26.72
-31.93
-37.52
-42.57
-46.2
-47.86
-47.55
-45.85
-43.69
-42.1
-41.8
-43.01
-45.36
-48.17
-50.68
-52.53
-53.94
-55.71
-58.92
-64.39
-72.23
-81.65
-91.21
-99.43
-105.5
-109.72
-113.46
-118.62
-126.83
-138.94
-154.61
-172.52
-190.75
-207.08
-219.27
-225.51
-225.02
-218.52
-208.4
-197.81
-189.1
-182.23
-174.33
-160.8
-137.67
-104.04
-63.13
-21.22
14.93
40.78
55.62
62.08
64.33
66.04
69.12
73.83
79.64
86.07
93.17
101.25
110.28
119.35
126.81
130.89
130.55
126.08
119.2
112.4
107.92
106.86
108.81
112.21
115.11
116.09
114.69
111.32
106.81
101.87
96.8
91.5
85.82
79.73
73.42
67.18
61.25
55.75
50.66
45.95
41.64
37.73
34.2
30.97
27.79
24.41
20.52
15.91
10.49
4.3
-2.41
-9.23
-15.62
-21.05
-25.22
-28.17
-30.34
-32.45
-35.32
-39.57
-45.45
-52.78
-61.07
-69.61
-77.85
-85.47
-92.41
-98.72
-104.39
-109.01
-111.73
-111.58
-108.06
-101.88
-94.96
-89.69
-87.83
-89.65
-93.91
-98.72
-102.58
-104.93
-105.74
-104.64
-100.44
-91.65
-77.7
-59.95
-41.58
-26.19
-15.9
-10.22
-6.37
-0.98
8.08
20.93
35.9
50.76
63.88
74.74
83.59
90.89
96.7
100.67
102.34
101.51
98.51
94.17
89.56
85.54
82.5
80.26
78.23
75.64
71.97
67.04
61.13
54.77
48.54
42.75
37.36
32.01
26.2
19.53
11.89
3.55
-4.87
-12.54
-18.56
-22.19
-23
-20.99
-16.6
-10.58
-3.71
3.39
10.37
17.02
23.12
28.37
32.43
35.05
36.24
36.26
35.54
34.45
33.22
31.93
30.59
29.2
27.76
26.21
24.48
22.44
20
17.19
14.1
10.82
7.42
3.84
-0.04
-4.39
-9.3
-14.79
-20.7
-26.71
-32.28
-36.76
-39.5
-39.92
-37.74
-33
-26.11
-17.75
-8.71
0.26
8.62
16.06
22.46
27.78
31.93
34.83
36.48
37.06
36.94
36.57
36.25
36.07
35.81
35.11
33.67
31.25
27.65
22.63
15.97
7.59
-2.15
-12.44
-22.15
-30.28
-36.32
-40.49
-43.54
-46.39
-49.64
-53.28
-56.79
-59.41
-60.55
-60.02
-58
-54.82
-50.7
-45.57
-39.09
-30.87
-20.79
-9.07
3.65
16.61
29.07
40.46
50.29
58.13
63.62
66.63
67.55
67.25
66.89
67.33
68.59
69.73
69.21
65.65
58.58
48.75
37.73
27.19
18.23
11.01
4.98
-0.64
-6.45
-12.69
-19.26
-25.94
-32.41
-38.22
-42.89
-45.81
-46.6
-45.17
-41.84
-37.19
-31.85
-26.27
-20.73
-15.37
-10.32
-5.74
-1.79
1.46
4.1
6.35
8.5
10.72
13.02
15.23
17.07
18.23
18.52
17.91
16.52
14.55
12.25
9.82
7.38
4.92
2.3
-0.69
-4.32
-8.81
-14.23
-20.39
-26.79
-32.71
-37.3
-39.89
-40.08
-37.87
-33.61
-27.78
-20.85
-13.23
-5.28
2.59
9.95
16.41
21.77
26.05
29.46
32.23
34.48
36.29
37.71
38.9
40.08
41.35
42.52
43.23
43.11
42.15
40.76
39.59
39.11
39.24
39.3
38.31
35.49
30.6
23.99
16.43
8.78
1.81
-3.84
-7.65
-9.29
-8.63
-5.89
-1.61
3.51
8.8
13.73
17.98
21.28
23.42
24.22
23.69
22.05
19.75
17.38
15.42
14.14
13.56
13.44
13.48
13.37
12.9
11.99
10.6
8.71
6.29
3.3
-0.21
-4.06
-8.01
-11.82
-15.38
-18.79
-22.25
-25.83
-29.36
-32.35
-34.11
-34.05
-31.93
-27.97
-22.78
-17.08
-11.5
-6.46
-2.16
1.3
3.82
5.24
5.49
4.67
3.1
1.29
-0.27
-1.31
-1.88
-2.28
-2.9
-3.99
-5.61
-7.55
-9.55
-11.46
-13.32
-15.34
-17.74
-20.63
-23.93
-27.47
-31.02
-34.32
-37.12
-39.1
-39.92
-39.3
-37.13
-33.53
-28.86
-23.63
-18.34
-13.46
-9.37
-6.37
-4.68
-4.34
-5.24
-7.04
-9.21
-11.16
-12.41
-12.76
-12.37
-11.77
-11.56
-12.12
-13.39
-14.81
-15.57
-15.02
-13
-10.04
-7.22
-5.76
-6.64
-10.2
-16.08
-23.33
-30.66
-36.78
-40.7
-41.98
-40.72
-37.48
-33.08
-28.37
-24.12
-20.91
-19.07
-18.63
-19.35
-20.69
-21.98
-22.58
-22.16
-20.76
-18.83
-16.99
-15.82
-15.61
-16.26
-17.36
-18.43
-19.07
-19.19
-18.97
-18.87
-19.41
-20.96
-23.64
-27.14
-30.71
-33.33
-33.96
-31.85
-26.85
-19.41
-10.48
-1.13
7.71
15.48
21.92
26.92
30.45
32.48
33.11
32.64
31.51
30.24
29.18
28.41
27.8
27.16
26.41
25.63
24.96
24.41
23.83
22.84
21.06
18.23
14.29
9.4
3.86
-1.96
-7.61
-12.49
-15.9
-17.17
-15.83
-11.88
-5.78
1.62
9.35
16.57
22.68
27.34
30.34
31.59
31.03
28.77
25.12
20.66
16.06
11.93
8.63
6.19
4.3
2.49
0.28
-2.67
-6.4
-10.62
-14.79
-18.28
-20.68
-22
-22.65
-23.29
-24.44
-26.15
-27.89
-28.75
-27.82
-24.63
-19.36
-12.78
-5.92
0.34
5.44
9.15
11.46
12.42
12.04
10.39
7.69
4.35
0.95
-1.94
-3.93
-4.98
-5.33
-5.36
-5.43
-5.73
-6.25
-6.87
-7.44
-7.91
-8.37
-9.03
-10.17
-11.99
-14.49
-17.3
-19.69
-20.67
-19.3
-14.99
-7.71
1.95
13.02
24.44
35.34
45.15
53.59
60.55
66.08
70.36
73.74
76.79
80.14
84.43
90.09
97.32
105.98
115.68
125.94
136.33
146.59
156.63
166.32
175.35
182.99
188.21
189.82
186.96
179.35
167.49
152.49
135.83
118.94
102.9
88.27
75.2
63.47
52.71
42.53
32.56
22.53
12.23
1.62
-9.12
-19.61
-29.3
-37.66
-44.38
-49.52
-53.45
-56.7
-59.77
-62.91
-66.09
-69.15
-71.97
-74.57
-77.13
-79.96
-83.28
-87.15
-91.39
-95.57
-99.05
-101.06
-100.86
-97.93
-92.17
-84.04
-74.4
-64.34
-54.81
-46.47
-39.58
-34.17
-30.13
-27.36
-25.72
-25
-24.84
-24.86
-24.78
-24.51
-24.18
-23.97
-24.05
-24.39
-24.85
-25.28
-25.64
-26.07
-26.86
-28.33
-30.72
-34.12
-38.36
-42.97
-47.2
-50.12
-50.88
-48.96
-44.45
-38
-30.68
-23.6
-17.6
-13.11
-10.22
-8.82
-8.78
-9.94
-12.09
-14.85
-17.77
-20.38
-22.41
-23.9
-25.13
-26.5
-28.36
-30.86
-33.94
-37.44
-41.16
-44.99
-48.94
-53.15
-57.87
-63.34
-69.63
-76.49
-83.28
-89.09
-93
-94.39
-93.28
-90.26
-86.37
-82.7
-80.14
-79.05
-79.44
-81
-83.36
-86.11
-88.74
-90.65
-91.14
-89.58
-85.62
-79.42
-71.6
-63.12
-54.96
-47.79
-41.9
-37.16
-33.28
-29.93
-26.88
-23.98
-21.12
-18.33
-15.79
-13.79
-12.65
-12.43
-12.77
-12.77
-11.29
-7.36
-0.57
8.67
19.31
30.1
40.02
48.59
55.86
62.05
67.2
71.01
72.94
72.58
69.96
65.63
60.49
55.42
50.95
47.15
43.77
40.53
37.32
34.29
31.57
29.15
26.76
23.96
20.45
16.21
11.53
6.81
2.3
-2.04
-6.46
-11.1
-15.74
-19.68
-21.93
-21.6
-18.29
-12.26
-4.36
4.36
12.92
20.65
27.23
32.54
36.57
39.26
40.66
40.84
40.08
38.76
37.25
35.86
34.67
33.58
32.35
30.69
28.38
25.4
21.88
18.1
14.35
10.83
7.61
4.62
1.75
-1.16
-4.21
-7.42
-10.7
-13.83
-16.42
-17.96
-18.01
-16.3
-12.88
-8.14
-2.68
2.78
7.68
11.57
14.25
15.69
16.02
15.54
14.71
14.05
14
14.78
16.26
18.05
19.62
20.57
20.78
20.36
19.62
18.86
18.27
17.89
17.61
17.25
16.54
15.25
13.23
10.58
7.79
5.65
4.99
6.37
9.76
14.53
19.7
24.24
27.46
29.07
29.07
27.66
25
21.28
16.77
11.93
7.37
3.67
1.24
0.1
-0.05
0.3
0.63
0.6
0.1
-0.87
-2.23
-3.9
-5.82
-7.85
-9.84
-11.66
-13.24
-14.66
-16.04
-17.38
-18.5
-18.99
-18.38
-16.33
-12.8
-8.05
-2.58
3
8.18
12.56
15.98
18.51
20.33
21.73
22.88
23.77
24.17
23.8
22.41
20.04
16.95
13.57
10.32
7.46
5.04
2.95
1.09
-0.63
-2.22
-3.74
-5.39
-7.44
-10.09
-13.19
-16.17
-18.12
-18.13
-15.69
-10.94
-4.63
2.19
8.63
14.19
18.75
22.4
25.17
26.87
27.23
26.04
23.37
19.61
15.31
11.03
7.13
3.76
0.86
-1.69
-3.99
-6.08
-7.99
-9.7
-11.24
-12.66
-14.1
-15.77
-17.92
-20.72
-24.14
-27.82
-31.05
-32.99
-32.88
-30.34
-25.41
-18.61
-10.63
-2.21
6.05
13.7
20.44
26.01
30.23
32.99
34.32
34.46
33.72
32.47
30.96
29.31
27.5
25.46
23.2
20.82
18.42
16.15
14.05
12.09
10.22
8.36
6.39
4.12
1.32
-2.2
-6.4
-10.96
-15.21
-18.34
-19.61
-18.64
-15.51
-10.77
-5.19
0.48
5.7
10.23
14.04
17.15
19.58
21.33
22.54
23.54
24.78
26.65
29.32
32.63
36.14
39.33
41.79
43.36
44.09
44.13
43.59
42.47
40.72
38.24
34.96
30.79
25.53
18.89
10.64
0.79
-10.19
-21.31
-31.27
-38.84
-43.25
-44.43
-43
-39.96
-36.37
-33.05
-30.46
-28.79
-27.96
-27.78
-27.94
-28.1
-27.83
-26.83
-24.95
-22.27
-19.09
-15.84
-12.9
-10.51
-8.68
-7.34
-6.37
-5.73
-5.46
-5.58
-6
-6.48
-6.77
-6.7
-6.37
-6.02
-6
-6.44
-7.24
-8
-8.21
-7.45
-5.43
-2.15
2.24
7.45
13.08
18.63
23.47
26.93
28.47
27.81
25.09
20.8
15.68
10.43
5.63
1.59
-1.54
-3.71
-4.97
-5.41
-5.18
-4.49
-3.5
-2.35
-1.1
0.19
1.44
2.46
3.05
2.97
2.09
0.43
-1.83
-4.31
-6.52
-7.91
-8.02
-6.61
-3.73
0.22
4.62
8.77
12.04
13.99
14.42
13.35
10.98
7.6
3.58
-0.71
-4.92
-8.75
-12.02
-14.68
-16.79
-18.5
-19.93
-21.16
-22.23
-23.15
-23.99
-24.83
-25.76
-26.83
-28.05
-29.4
-30.91
-32.65
-34.67
-36.95
-39.25
-41.14
-42.01
-41.32
-38.72
-34.21
-28.19
-21.35
-14.47
-8.23
-3.03
1.02
4.1
6.45
8.27
9.65
10.6
11.14
11.43
11.7
12.16
12.89
13.72
14.39
14.6
14.3
13.64
12.95
12.5
12.38
12.4
12.24
11.59
10.28
8.33
5.94
3.43
1.15
-0.47
-1.04
-0.24
2.09
5.82
10.61
15.95
21.32
26.29
30.55
33.95
36.42
37.99
38.8
39.03
38.86
38.35
37.4
35.81
33.34
29.88
25.55
20.66
15.63
10.83
6.47
2.57
-0.99
-4.33
-7.56
-10.71
-13.83
-16.98
-20.28
-23.75
-27.19
-30.11
-31.82
-31.65
-29.2
-24.53
-18.16
-10.89
-3.57
3.06
8.45
12.28
14.39
14.79
13.73
11.65
9.15
6.79
5.03
4.01
3.58
3.36
2.89
1.8
-0.05
-2.58
-5.49
-8.42
-11.12
-13.48
-15.59
-17.61
-19.73
-21.98
-24.21
-26.1
-27.18
-27.04
-25.37
-22.19
-17.84
-12.95
-8.3
-4.54
-2.05
-0.83
-0.54
-0.7
-0.85
-0.67
0.02
1.23
2.93
5.02
7.35
9.71
11.82
13.48
14.57
15.16
15.45
15.68
16
16.43
16.81
16.95
16.65
15.79
14.36
12.46
10.29
8.21
6.67
6.08
6.73
8.62
11.41
14.51
17.27
19.17
19.94
19.59
18.31
16.35
13.98
11.45
8.96
6.69
4.69
2.87
0.99
-1.25
-4.08
-7.48
-11.21
-14.78
-17.74
-19.76
-20.82
-21.17
-21.23
-21.42
-22.04
-23.23
-24.84
-26.5
-27.61
-27.49
-25.57
-21.68
-16.17
-9.79
-3.48
2.02
6.35
9.53
11.8
13.42
14.54
15.28
15.81
16.43
17.47
19.14
21.44
24.05
26.49
28.2
28.77
27.93
25.56
21.7
16.44
10.04
2.82
-4.81
-12.42
-19.6
-26.01
-31.28
-35.06
-36.99
-36.84
-34.66
-30.83
-25.99
-20.88
-16.11
-12.03
-8.7
-6
-3.74
-1.8
-0.08
1.46
2.93
4.46
6.18
8.17
10.42
12.86
15.33
17.69
19.8
21.58
22.98
23.91
24.28
23.96
22.85
21.01
18.73
16.45
14.74
14.05
14.61
16.31
18.73
21.29
23.36
24.42
24.11
22.28
19
14.53
9.29
3.74
-1.66
-6.6
-10.89
-14.47
-17.39
-19.75
-21.68
-23.41
-25.12
-26.97
-29.03
-31.23
-33.52
-35.84
-38.23
-40.76
-43.3
-45.56
-47
-47.03
-45.28
-41.78
-36.96
-31.49
-26.05
-21.16
-17.08
-13.89
-11.6
-10.23
-9.74
-10.02
-10.84
-11.9
-12.88
-13.59
-14.02
-14.33
-14.76
-15.5
-16.56
-17.79
-18.94
-19.79
-20.35
-20.83
-21.56
-22.83
-24.69
-26.91
-28.99
-30.4
-30.63
-29.46
-26.88
-23.16
-18.69
-13.95
-9.34
-5.16
-1.58
1.31
3.49
5
5.92
6.43
6.76
7.16
7.76
8.62
9.59
10.48
11.08
11.28
11.1
10.69
10.24
9.85
9.42
8.57
6.8
3.63
-1.1
-7.03
-13.38
-19.07
-23.04
-24.52
-23.18
-19.12
-12.79
-4.89
3.85
12.6
20.66
27.39
32.43
35.64
37.21
37.57
37.23
36.71
36.37
36.4
36.86
37.64
38.59
39.48
40.02
39.9
38.85
36.7
33.48
29.36
24.65
19.65
14.6
9.57
4.54
-0.61
-5.93
-11.22
-15.93
-19.2
-20
-17.51
-11.37
-1.82
10.39
24.29
38.86
53.2
66.42
77.65
86.05
90.94
92.04
89.53
84.05
76.48
67.74
58.54
49.39
40.65
32.57
25.31
18.97
13.44
8.51
3.84
-0.87
-5.81
-10.95
-16.09
-20.96
-25.33
-29.13
-32.37
-35.23
-37.87
-40.53
-43.48
-46.94
-51.03
-55.56
-59.99
-63.46
-65.04
-64.03
-60.24
-53.98
-46
-37.2
-28.39
-20.19
-12.97
-6.98
-2.33
1
3.1
4.24
4.75
4.94
5.01
5.02
4.91
4.57
3.96
3.13
2.19
1.3
0.52
-0.25
-1.22
-2.63
-4.65
-7.24
-10.18
-13.17
-16
-18.6
-21.2
-24.13
-27.73
-32.1
-36.99
-41.76
-45.45
-47.07
-45.9
-41.74
-35.02
-26.68
-17.95
-9.99
-3.65
0.68
3.1
4.12
4.43
4.73
5.5
6.79
8.3
9.48
9.81
9
7.1
4.41
1.33
-1.84
-4.9
-7.73
-10.23
-12.26
-13.71
-14.56
-14.95
-15.14
-15.41
-15.96
-16.86
-18.1
-19.71
-21.82
-24.61
-28.1
-31.93
-35.32
-37.19
-36.56
-32.92
-26.39
-17.75
-8.06
1.67
10.7
18.59
25.13
30.15
33.53
35.27
35.56
34.8
33.51
32.17
31.05
30.18
29.45
28.68
27.73
26.63
25.44
24.24
23.03
21.65
19.89
17.56
14.61
11.2
7.57
4.02
0.69
-2.42
-5.47
-8.74
-12.5
-16.9
-21.87
-26.98
-31.49
-34.38
-34.7
-31.9
-26.04
-17.82
-8.39
1.04
9.54
16.6
22.11
26.14
28.82
30.26
30.61
30.12
29.11
27.97
26.99
26.34
26.03
25.93
25.86
25.65
25.13
24.24
22.96
21.3
19.32
17.04
14.49
11.69
8.72
5.65
2.6
-0.34
-3.18
-6.01
-9.06
-12.56
-16.66
-21.29
-26.02
-30.09
-32.56
-32.61
-29.82
-24.43
-17.21
-9.23
-1.49
5.37
11.08
15.71
19.39
22.22
24.17
25.23
25.38
24.76
23.55
21.99
20.29
18.57
16.88
15.22
13.5
11.61
9.41
6.81
3.74
0.25
-3.55
-7.46
-11.23
-14.6
-17.36
-19.48
-21.15
-22.81
-25.04
-28.35
-32.95
-38.68
-44.95
-50.87
-55.48
-57.91
-57.63
-54.47
-48.78
-41.29
-33
-24.9
-17.71
-11.66
-6.54
-1.92
2.61
7.18
11.62
15.65
19.08
22.01
24.7
27.46
30.4
33.39
36.09
38.11
39.22
39.37
38.79
37.81
36.77
35.8
34.86
33.69
32.01
29.75
27.07
24.42
22.21
20.65
19.56
18.5
16.93
14.5
11.2
7.31
3.3
-0.35
-3.18
-4.78
-4.85
-3.27
-0.28
3.54
7.35
10.28
11.69
11.38
9.59
6.84
3.73
0.79
-1.6
-3.17
-3.68
-2.9
-0.7
2.88
7.56
12.87
18.19
22.9
26.47
28.56
29.05
28.05
25.91
23.07
19.91
16.66
13.37
9.96
6.39
2.75
-0.81
-4.19
-7.47
-10.87
-14.5
-18.15
-21.06
-22.16
-20.35
-15.05
-6.4
4.7
16.93
28.97
39.82
48.94
56.18
61.64
65.5
67.96
69.2
69.44
68.92
67.93
66.75
65.58
64.47
63.3
61.8
59.67
56.73
53.06
48.9
44.53
40.06
35.34
30.01
23.7
16.25
7.81
-1.2
-10.39
-19.44
-28.18
-36.38
-43.6
-49.13
-52.24
-52.49
-49.98
-45.37
-39.64
-33.71
-28.2
-23.35
-19.16
-15.59
-12.65
-10.38
-8.71
-7.46
-6.37
-5.23
-4
-2.82
-1.91
-1.45
-1.47
-1.86
-2.41
-2.93
-3.3
-3.54
-3.75
-4.12
-4.81
-5.99
-7.73
-10.06
-12.92
-16.18
-19.67
-23.1
-26.12
-28.29
-29.21
-28.59
-26.36
-22.77
-18.26
-13.4
-8.73
-4.75
-1.8
-0.08
0.34
-0.42
-2.05
-4.13
-6.18
-7.81
-8.81
-9.17
-9.04
-8.67
-8.34
-8.29
-8.65
-9.39
-10.42
-11.57
-12.79
-14.13
-15.76
-17.88
-20.67
-24.18
-28.36
-33.01
-37.79
-42.21
-45.68
-47.61
-47.63
-45.81
-42.64
-38.94
-35.59
-33.18
-31.89
-31.52
-31.69
-32.07
-32.58
-33.33
-34.54
-36.35
-38.8
-41.79
-45.16
-48.73
-52.31
-55.62
-58.29
-59.99
-60.43
-59.59
-57.59
-54.74
-51.41
-47.91
-44.45
-41.16
-38.12
-35.36
-32.94
-30.83
-28.97
-27.14
-25.01
-22.15
-18.2
-13.01
-6.72
0.14
6.88
12.8
17.46
20.74
22.76
23.78
23.96
23.41
22.17
20.34
18.18
15.99
14.11
12.75
11.95
11.56
11.35
11.09
10.61
9.86
8.89
7.79
6.68
5.67
4.74
3.84
2.82
1.52
-0.15
-2.23
-4.65
-7.17
-9.42
-10.87
-10.98
-9.34
-5.89
-0.93
4.95
11.02
16.6
21.24
24.67
26.79
27.64
27.31
25.94
23.72
20.78
17.3
13.39
9.2
4.92
0.74
-3.16
-6.69
-9.85
-12.65
-15.12
-17.18
-18.77
-19.82
-20.36
-20.4
-19.86
-18.53
-16.2
-12.84
-8.81
-4.89
-1.94
-0.46
-0.21
-0.1
1.42
5.81
13.82
25.23
38.98
53.44
66.82
77.4
83.79
85.04
80.92
72.13
60.19
47.17
35.14
25.54
18.88
14.73
12.12
10.06
7.88
5.38
2.75
0.28
-1.91
-3.88
-5.89
-8.13
-10.68
-13.38
-16.02
-18.42
-20.66
-23.02
-25.92
-29.73
-34.59
-40.32
-46.45
-52.26
-56.97
-59.83
-60.28
-58.07
-53.33
-46.56
-38.56
-30.3
-22.66
-16.28
-11.51
-8.35
-6.58
-5.91
-6.01
-6.59
-7.34
-7.94
-8.07
-7.46
-5.98
-3.71
-0.9
2.03
4.6
6.41
7.19
6.87
5.57
3.55
1.12
-1.42
-3.88
-6.22
-8.55
-11.12
-14.26
-18.27
-23.22
-28.79
-34.15
-38.07
-39.16
-36.38
-29.38
-18.67
-5.51
8.56
22.1
34.21
44.52
53.14
60.35
66.43
71.61
76.1
80.2
84.29
88.75
93.78
99.3
104.94
110.04
113.9
115.9
115.72
113.34
109.07
103.39
96.89
90.02
83.12
76.34
69.73
63.32
57.13
51.23
45.61
40.14
34.56
28.54
21.88
14.73
7.68
1.76
-1.95
-2.67
-0.29
4.57
10.72
16.89
22.08
25.85
28.25
29.57
30.1
29.98
29.21
27.78
25.81
23.58
21.4
19.51
17.91
16.46
14.92
13.11
11.02
8.8
6.68
4.87
3.42
2.21
0.99
-0.5
-2.42
-4.78
-7.43
-10.17
-12.87
-15.5
-18.11
-20.73
-23.3
-25.61
-27.41
-28.52
-28.96
-28.95
-28.78
-28.74
-28.94
-29.39
-30.02
-30.81
-31.87
-33.41
-35.66
-38.73
-42.5
-46.68
-50.81
-54.47
-57.44
-59.85
-62.17
-65.09
-69.25
-74.99
-82.07
-89.72
-96.73
-101.83
-103.92
-102.38
-97.14
-88.63
-77.69
-65.45
-53.14
-41.94
-32.63
-25.45
-20.05
-15.9
-12.61
-10.36
-9.86
-11.82
-16.35
-22.66
-29.17
-34.26
-37.09
-37.88
-37.76
-38
-39.35
-41.67
-44.17
-45.85
-46
-44.34
-40.99
-36.35
-30.89
-25.17
-19.71
-15.04
-11.54
-9.44
-8.75
-9.35
-10.96
-13.23
-15.83
-18.61
-21.65
-25.12
-29.01
-32.85
-35.62
-36.03
-33.08
-26.49
-16.97
-5.95
4.95
14.48
22.02
27.53
31.24
33.38
34.04
33.22
31.09
28.1
24.89
22.09
20
18.4
16.64
13.95
9.84
4.37
-1.87
-8.13
-13.87
-19.03
-24.02
-29.49
-36.02
-43.97
-53.45
-64.27
-76.01
-87.86
-98.64
-106.94
-111.47
-111.44
-106.87
-98.62
-88.02
-76.49
-65.11
-54.45
-44.7
-35.84
-28.03
-21.52
-16.66
-13.57
-12
-11.31
-10.68
-9.48
-7.46
-4.86
-2.24
-0.16
0.99
1.19
0.63
-0.31
-1.32
-2.19
-2.93
-3.69
-4.77
-6.52
-9.24
-13.11
-18
-23.33
-28.08
-30.92
-30.61
-26.41
-18.49
-7.87
3.85
15.08
24.71
32.31
37.98
42.03
44.66
45.95
45.98
45.01
43.6
42.4
41.95
42.45
43.71
45.3
46.66
47.37
47.19
46.1
44.31
42.06
39.66
37.28
34.92
32.39
29.36
25.47
20.42
14.15
6.89
-0.74
-7.78
-13.08
-15.62
-14.84
-10.91
-4.69
2.56
9.56
15.38
19.61
22.19
23.26
22.96
21.48
19.15
16.53
14.34
13.18
13.27
14.32
15.67
16.62
16.75
16.06
14.91
13.74
12.78
11.93
10.81
8.9
5.76
1.14
-4.83
-11.64
-18.34
-23.68
-26.33
-25.33
-20.43
-12.31
-2.42
7.51
16.08
22.59
27.11
30.14
32.2
33.53
34.05
33.65
32.44
30.86
29.49
28.73
28.54
28.4
27.67
25.86
22.97
19.47
15.98
12.97
10.5
8.21
5.49
1.82
-3.07
-9.03
-15.61
-22.05
-27.42
-30.76
-31.25
-28.43
-22.4
-13.85
-3.91
6.22
15.55
23.56
30.08
35.15
38.79
40.9
41.43
40.49
38.53
36.18
34.11
32.75
32.15
32
31.83
31.18
29.77
27.55
24.65
21.33
17.83
14.36
11.03
7.82
4.56
1
-3.16
-8.11
-13.81
-19.83
-25.34
-29.23
-30.45
-28.35
-22.92
-14.84
-5.21
4.84
14.42
23
30.32
36.15
40.23
42.35
42.5
41.06
38.76
36.49
34.97
34.48
34.82
35.4
35.62
35.11
33.83
32.09
30.23
28.45
26.67
24.55
21.73
18.01
13.54
8.72
4.04
-0.15
-3.78
-7.07
-10.39
-14.13
-18.54
-23.69
-29.44
-35.4
-40.89
-45.02
-46.86
-45.7
-41.37
-34.28
-25.39
-15.89
-6.79
1.26
8.02
13.52
17.81
20.92
22.82
23.53
23.29
22.53
21.73
21.3
21.42
21.92
22.48
22.68
22.26
21.22
19.78
18.28
17.02
16.09
15.33
14.4
12.91
10.59
7.44
3.71
-0.18
-3.79
-6.84
-9.31
-11.38
-13.34
-15.46
-17.88
-20.62
-23.56
-26.49
-29
-30.57
-30.54
-28.37
-23.83
-17.15
-8.98
-0.22
8.25
15.84
22.24
27.35
31.13
33.54
34.61
34.53
33.77
32.94
32.68
33.42
35.27
37.94
40.98
43.9
46.37
48.28
49.69
50.75
51.6
52.31
52.9
53.31
53.41
53.04
52.02
50.27
47.87
45.03
42.03
39.01
35.95
32.71
29.17
25.43
21.77
18.57
16.09
14.39
13.43
13.23
13.98
16.02
19.66
24.92
31.43
38.45
45.15
50.79
54.96
57.63
59.07
59.72
60.03
60.28
60.53
60.6
60.21
59.11
57.28
54.92
52.45
50.25
48.59
47.44
46.58
45.73
44.74
43.73
43.04
43.02
43.83
45.29
46.97
48.43
49.39
49.81
49.83
49.6
49.32
49.27
49.9
51.76
55.3
60.46
66.63
72.73
77.65
80.66
81.52
80.44
77.68
73.38
67.55
60.2
51.62
42.44
33.46
25.32
18.34
12.38
6.97
1.6
-4.1
-10.22
-16.6
-22.98
-29.12
-34.93
-40.41
-45.64
-50.63
-55.33
-59.62
-63.46
-66.85
-69.92
-72.75
-75.33
-77.44
-78.73
-78.89
-77.69
-75.19
-71.64
-67.44
-63.06
-58.85
-55.11
-52.04
-49.79
-48.42
-47.93
-48.22
-49.04
-50.11
-51.12
-51.9
-52.37
-52.6
-52.73
-52.85
-52.98
-53.1
-53.17
-53.15
-53.09
-53.04
-53.07
-53.2
-53.44
-53.79
-54.22
-54.74
-55.28
-55.83
-56.3
-56.54
-56.35
-55.43
-53.57
-50.69
-47.05
-43.15
-39.6
-36.93
-35.38
-34.89
-35.22
-36.11
-37.38
-38.96
-40.88
-43.11
-45.59
-48.21
-50.86
-53.4
-55.75
-57.86
-59.79
-61.7
-63.86
-66.54
-69.96
-74.16
-79.02
-84.29
-89.76
-95.32
-100.98
-106.86
-113.06
-119.58
-126.21
-132.49
-137.78
-141.35
-142.56
-141
-136.53
-129.26
-119.46
-107.56
-94.13
-79.92
-65.84
-52.8
-41.5
-32.24
-24.88
-19
-14.14
-10.03
-6.6
-3.95
-2.16
-1.25
-1.12
-1.63
-2.7
-4.25
-6.22
-8.49
-10.96
-13.56
-16.37
-19.65
-23.76
-28.99
-35.38
-42.47
-49.35
-54.77
-57.53
-56.91
-52.97
-46.55
-38.9
-31.23
-24.31
-18.27
-12.91
-8
-3.62
-0.25
1.48
1.05
-1.5
-5.55
-9.94
-13.32
-14.47
-12.6
-7.53
0.3
9.9
19.79
28.28
33.72
34.99
31.76
24.71
15.28
5.24
-3.91
-11.37
-17.15
-21.83
-26.06
-30.06
-33.38
-35.12
-34.26
-30.17
-22.88
-13.06
-1.78
9.9
21.15
31.47
40.55
48.09
53.82
57.53
59.25
59.34
58.44
57.24
56.33
56.02
56.3
56.93
57.57
57.86
57.56
56.58
54.98
52.92
50.55
47.91
44.87
41.24
36.88
31.79
26.13
20.09
13.76
7.08
-0.03
-7.32
-14.05
-18.93
-20.5
-17.66
-10.19
1.07
14.45
28.04
40.28
50.26
57.82
63.22
66.84
68.94
69.61
68.93
67.03
64.25
61.1
58.1
55.65
53.88
52.63
51.49
50.02
47.89
44.99
41.47
37.58
33.54
29.39
25.1
20.54
15.71
10.69
5.58
0.36
-5.18
-11.3
-18.03
-24.86
-30.63
-33.73
-32.69
-26.73
-16.2
-2.55
12.17
25.95
37.35
45.8
51.42
54.68
56.1
56.07
54.91
52.93
50.48
47.94
45.62
43.61
41.83
40.01
37.91
35.34
32.26
28.72
24.81
20.58
16.1
11.38
6.46
1.46
-3.47
-8.2
-12.73
-17.21
-21.97
-27.38
-33.58
-40.25
-46.45
-50.81
-51.83
-48.48
-40.63
-29.15
-15.7
-2.14
10.02
19.91
27.37
32.6
35.86
37.33
37.15
35.61
33.25
30.73
28.71
27.51
27.1
27.16
27.33
27.32
27.02
26.37
25.29
23.69
21.49
18.72
15.53
12.13
8.7
5.3
1.87
-1.72
-5.62
-9.97
-14.85
-20.18
-25.59
-30.31
-33.24
-33.2
-29.37
-21.63
-10.72
1.92
14.62
25.92
34.94
41.4
45.43
47.37
47.58
46.39
44.17
41.37
38.49
35.91
33.83
32.22
30.83
29.37
27.62
25.49
23
20.27
17.36
14.34
11.21
7.99
4.69
1.34
-1.99
-5.24
-8.41
-11.56
-14.88
-18.63
-23
-27.9
-32.82
-36.72
-38.35
-36.59
-31
-22
-10.87
0.72
11.23
19.67
25.77
29.73
31.96
32.83
32.57
31.37
29.5
27.38
25.45
24.04
23.26
22.95
22.83
22.55
21.9
20.77
19.2
17.25
14.96
12.35
9.41
6.18
2.8
-0.57
-3.75
-6.71
-9.61
-12.79
-16.61
-21.21
-26.27
-30.97
-34.13
-34.66
-31.94
-26.09
-17.96
-8.8
0.13
7.9
14.03
18.42
21.18
22.51
22.67
22
20.9
19.76
18.87
18.32
18.03
17.83
17.51
16.92
15.93
14.46
12.47
9.97
7.03
3.75
0.21
-3.51
-7.36
-11.29
-15.13
-18.75
-22.02
-24.97
-27.8
-30.78
-34.07
-37.51
-40.52
-42.22
-41.78
-38.78
-33.4
-26.44
-18.97
-11.95
-5.93
-1.01
2.99
6.28
8.91
10.84
12.03
12.63
12.99
13.52
14.52
16.01
17.77
19.41
20.62
21.26
21.38
21.19
20.88
20.61
20.45
20.41
20.49
20.66
20.81
20.79
20.38
19.41
17.87
15.97
14.12
12.93
13
14.82
18.55
23.98
30.47
37.16
43.2
48.02
51.53
54.09
56.33
58.83
61.89
65.45
69.18
72.7
75.76
78.24
80.09
81.24
81.56
80.93
79.27
76.67
73.35
69.56
65.5
61.31
57.02
52.68
48.33
44.04
39.87
35.84
31.86
27.79
23.46
18.83
14.07
9.51
5.61
2.73
0.9
-0.21
-1.39
-3.64
-7.96
-15.06
-25.28
-38.42
-53.83
-70.41
-86.78
-101.35
-112.67
-119.66
-121.86
-119.48
-113.32
-104.45
-93.91
-82.57
-71.02
-59.73
-49.12
-39.61
-31.56
-25.13
-20.28
-16.81
-14.52
-13.25
-12.94
-13.54
-14.88
-16.6
-18.23
-19.27
-19.32
-18.25
-16.14
-13.3
-10.06
-6.76
-3.6
-0.72
1.82
3.94
5.58
6.68
7.21
7.18
6.65
5.68
4.36
2.68
0.6
-1.96
-5.01
-8.41
-11.82
-14.78
-16.95
-18.29
-19.11
-20.04
-21.75
-24.61
-28.59
-33.23
-37.84
-41.67
-44.18
-45.01
-44.08
-41.53
-37.73
-33.25
-28.72
-24.71
-21.58
-19.38
-17.97
-17.14
-16.72
-16.65
-16.91
-17.43
-17.99
-18.27
-18.01
-17.11
-15.77
-14.4
-13.49
-13.36
-14.03
-15.25
-16.58
-17.64
-18.25
-18.51
-18.73
-19.23
-20.2
-21.62
-23.24
-24.73
-25.72
-25.93
-25.17
-23.29
-20.24
-16.1
-11.12
-5.72
-0.42
4.34
8.32
11.52
14.17
16.58
18.98
21.41
23.8
25.95
27.67
28.84
29.42
29.4
28.84
27.77
26.23
24.25
21.88
19.18
16.23
13.1
9.85
6.48
2.94
-0.87
-5.03
-9.59
-14.55
-19.83
-25.36
-31.03
-36.75
-42.38
-47.63
-52.12
-55.45
-57.33
-57.74
-57
-55.64
-54.16
-52.86
-51.66
-50.29
-48.43
-45.92
-42.91
-39.71
-36.71
-34.13
-32.04
-30.33
-28.88
-27.61
-26.51
-25.61
-24.9
-24.25
-23.49
-22.42
-20.91
-19.01
-16.86
-14.75
-12.94
-11.65
-10.96
-10.78
-10.92
-11.14
-11.28
-11.35
-11.54
-12.14
-13.39
-15.25
-17.3
-18.86
-19.17
-17.73
-14.51
-9.88
-4.47
1.11
6.39
11.12
15.23
18.64
21.34
23.36
24.78
25.71
26.25
26.38
26.03
25.19
23.88
22.21
20.16
17.57
14.05
9.28
3.18
-3.92
-11.36
-18.36
-24.22
-28.38
-30.47
-30.3
-28.09
-24.67
-21.53
-20.51
-23.26
-30.46
-41.58
-54.93
-68.25
-79.44
-87.02
-90.22
-88.84
-83.15
-73.72
-61.57
-48.07
-34.79
-23.15
-14.1
-7.96
-4.42
-2.87
-2.48
-2.3
-1.11
2.44
9.45
20.17
33.61
47.6
59.51
67.17
69.74
67.83
63.19
57.69
52.66
48.51
44.92
41.38
37.52
33.35
29.06
24.85
20.71
16.43
11.68
6.19
-0.02
-6.49
-12.38
-16.64
-18.34
-16.96
-12.57
-5.82
2.2
10.3
17.48
23.11
27.04
29.53
30.96
31.65
31.72
31.07
29.58
27.3
24.54
21.81
19.62
18.22
17.54
17.15
16.51
15.23
13.2
10.64
7.97
5.59
3.68
2.12
0.58
-1.38
-4.11
-7.76
-12.29
-17.45
-22.78
-27.64
-31.19
-32.52
-30.88
-25.97
-18.14
-8.4
1.9
11.45
19.42
25.5
29.85
32.77
34.43
34.89
34.16
32.43
30.13
27.89
26.25
25.48
25.43
25.6
25.38
24.27
22.12
19.1
15.62
12.09
8.8
5.8
2.94
-0.04
-3.4
-7.32
-11.89
-17.02
-22.36
-27.27
-30.85
-32.15
-30.46
-25.62
-18.11
-8.91
0.76
9.81
17.47
23.42
27.65
30.32
31.59
31.63
30.6
28.77
26.54
24.42
22.83
22
21.81
21.84
21.56
20.55
18.67
16.17
13.44
10.89
8.72
6.85
4.96
2.63
-0.51
-4.65
-9.74
-15.38
-20.86
-25.18
-27.26
-26.3
-22.02
-14.86
-5.86
3.64
12.4
19.63
25.05
28.77
31.08
32.21
32.28
31.41
29.74
27.58
25.3
23.23
21.57
20.25
19.05
17.68
15.94
13.83
11.49
9.19
7.12
5.31
3.56
1.57
-1.03
-4.49
-8.9
-14.13
-19.78
-25.24
-29.73
-32.39
-32.56
-29.92
-24.65
-17.43
-9.27
-1.19
6.03
12.03
16.79
20.4
22.93
24.29
24.39
23.28
21.29
18.99
17.05
15.94
15.72
16.12
16.57
16.59
15.88
14.48
12.66
10.75
9
7.41
5.82
3.93
1.51
-1.51
-4.96
-8.51
-11.65
-13.79
-14.34
-12.81
-8.97
-2.93
4.75
13.29
21.76
29.41
35.77
40.66
44.06
45.99
46.48
45.53
43.29
40.09
36.42
32.76
29.5
26.77
24.42
22.07
19.21
15.39
10.36
4.2
-2.7
-9.71
-16.28
-22.08
-27.07
-31.48
-35.56
-39.46
-43.16
-46.59
-49.67
-52.37
-54.6
-56.06
-56.3
-54.82
-51.33
-45.92
-39.1
-31.65
-24.3
-17.61
-11.8
-6.89
-2.77
0.67
3.48
5.69
7.35
8.57
9.51
10.34
11.17
12.03
12.88
13.61
14.07
14.18
13.84
13.05
11.83
10.26
8.45
6.46
4.31
1.96
-0.62
-3.45
-6.5
-9.71
-13.05
-16.51
-20.04
-23.39
-26.12
-27.65
-27.49
-25.48
-21.96
-17.59
-13.15
-9.12
-5.6
-2.4
0.71
3.8
6.64
8.9
10.4
11.22
11.66
12.1
12.71
13.4
13.9
13.94
13.4
12.43
11.3
10.34
9.7
9.39
9.24
9.03
8.59
7.83
6.81
5.6
4.32
3.01
1.65
0.12
-1.68
-3.84
-6.28
-8.82
-11.17
-13.01
-14.12
-14.4
-13.94
-12.91
-11.48
-9.72
-7.59
-4.87
-1.4
2.79
7.32
11.46
14.39
15.65
15.42
14.64
14.63
16.58
20.9
26.97
33.29
38.05
39.74
37.61
31.86
23.56
14.39
6.18
0.52
-1.67
-0.46
3.08
7.17
9.87
9.75
6.36
0.28
-7.04
-13.9
-18.92
-21.4
-21.39
-19.47
-16.3
-12.33
-7.65
-2.05
4.68
12.48
20.99
29.64
37.85
45.2
51.46
56.53
60.29
62.65
63.53
63.01
61.37
59.07
56.67
54.72
53.64
53.68
54.82
56.82
59.2
61.39
62.86
63.22
62.31
60.22
57.17
53.37
48.98
44.06
38.56
32.51
26.01
19.29
12.63
6.24
0.16
-5.78
-11.9
-18.48
-25.54
-32.71
-39.29
-44.4
-47.36
-47.94
-46.47
-43.77
-40.86
-38.55
-37.25
-36.9
-37.13
-37.52
-37.76
-37.72
-37.42
-36.81
-35.84
-34.37
-32.41
-30.11
-27.85
-26.04
-24.93
-24.53
-24.59
-24.8
-25.04
-25.42
-26.29
-27.96
-30.52
-33.74
-37.18
-40.41
-43.17
-45.45
-47.41
-49.22
-50.97
-52.69
-54.38
-56.02
-57.59
-58.89
-59.6
-59.29
-57.66
-54.67
-50.64
-46.11
-41.68
-37.77
-34.47
-31.65
-29.09
-26.61
-24.17
-21.81
-19.54
-17.3
-14.95
-12.35
-9.51
-6.56
-3.82
-1.58
-0.06
0.74
1.01
1.04
1.07
1.18
1.33
1.37
1.15
0.66
-0.07
-0.98
-2.07
-3.45
-5.31
-7.79
-10.86
-14.22
-17.35
-19.68
-20.78
-20.53
-19.18
-17.21
-15.09
-13.11
-11.27
-9.38
-7.3
-5.04
-2.87
-1.14
-0.15
0.07
-0.26
-0.76
-1.11
-1.15
-0.94
-0.64
-0.41
-0.32
-0.33
-0.42
-0.53
-0.68
-0.87
-1.13
-1.51
-2.07
-2.86
-3.91
-5.25
-6.91
-8.87
-11.07
-13.27
-14.98
-15.52
-14.19
-10.6
-4.88
2.31
9.99
17.32
23.83
29.58
34.87
40.02
45.11
49.91
54.01
56.96
58.4
58.15
56.26
52.98
48.74
43.99
39.09
34.18
29.15
23.78
17.9
11.48
4.65
-2.42
-9.69
-17.3
-25.44
-34.22
-43.57
-53.17
-62.67
-71.68
-79.84
-86.7
-91.64
-93.91
-92.86
-88.24
-80.41
-70.35
-59.32
-48.51
-38.72
-30.28
-23.16
-17.2
-12.24
-8.23
-5.05
-2.54
-0.43
1.62
3.87
6.5
9.51
12.78
16.07
19.04
21.4
22.96
23.69
23.76
23.39
22.75
21.9
20.75
19.17
17.05
14.32
10.92
6.76
1.85
-3.66
-9.17
-13.71
-16.12
-15.52
-11.63
-5.01
3.12
11.31
18.35
23.58
26.91
28.63
29.16
28.86
28.01
26.84
25.64
24.7
24.29
24.54
25.42
26.79
28.42
30.1
31.62
32.82
33.53
33.62
33.05
31.9
30.43
28.95
27.75
26.93
26.45
26.08
25.54
24.53
22.75
20
16.31
12.14
8.49
6.78
8.46
14.48
24.85
38.53
53.7
68.48
81.41
91.81
99.73
105.59
109.81
112.64
114.22
114.65
114.1
112.8
110.93
108.51
105.42
101.53
96.72
90.98
84.3
76.58
67.57
56.97
44.61
30.62
15.54
0.2
-14.51
-27.92
-39.71
-50.06
-59.48
-68.64
-78.17
-88.44
-99.39
-110.42
-120.44
-127.99
-131.68
-130.6
-124.67
-114.72
-102.29
-89.19
-76.93
-66.5
-58.19
-51.84
-47.08
-43.54
-40.92
-38.97
-37.42
-35.94
-34.21
-32.07
-29.52
-26.78
-24.16
-22.02
-20.58
-19.99
-20.29
-21.44
-23.31
-25.76
-28.57
-31.58
-34.71
-38.02
-41.66
-45.75
-50.41
-55.58
-60.99
-66.08
-70
-71.68
-70.14
-64.78
-55.77
-44.09
-31.35
-19.21
-8.89
-0.9
4.88
8.85
11.27
12.22
11.68
9.82
7.15
4.48
2.6
2.04
2.79
4.37
6.05
7.08
6.93
5.34
2.39
-1.57
-6.02
-10.41
-14.27
-17.32
-19.56
-21.23
-22.8
-24.81
-27.88
-32.45
-38.58
-45.63
-52.15
-56.11
-55.48
-48.98
-36.7
-20.15
-1.76
15.95
31.2
43.33
52.62
59.73
65.2
69.21
71.64
72.41
71.56
69.38
66.14
62.01
56.98
50.95
43.9
35.97
27.5
18.95
10.75
3.21
-3.5
-9.4
-14.63
-19.39
-23.86
-28.18
-32.42
-36.64
-40.93
-45.35
-49.85
-54.02
-57.05
-57.86
-55.42
-49.22
-39.47
-27.21
-13.93
-1.16
9.93
18.72
25.11
29.33
31.77
32.88
33.08
32.76
32.17
31.4
30.4
29.03
27.23
25.01
22.54
19.97
17.39
14.81
12.14
9.29
6.2
2.89
-0.6
-4.27
-8.15
-12.26
-16.58
-21.12
-25.87
-30.91
-36.42
-42.49
-49
-55.4
-60.69
-63.67
-63.27
-59.03
-51.22
-40.77
-28.92
-16.8
-5.16
5.61
15.26
23.49
29.93
34.21
36.26
36.41
35.3
33.64
31.91
30.21
28.38
26.2
23.64
20.88
18.28
16.12
14.45
13.08
11.67
9.96
7.82
5.3
2.54
-0.35
-3.33
-6.37
-9.49
-12.67
-15.93
-19.33
-22.91
-26.47
-29.49
-31.1
-30.33
-26.49
-19.56
-10.23
0.24
10.48
19.47
26.76
32.4
36.71
39.95
42.19
43.39
43.59
43.02
42.13
41.36
40.94
40.79
40.59
39.99
38.81
37.2
35.46
33.88
32.61
31.57
30.55
29.43
28.22
27.13
26.36
26.03
26
25.94
25.38
23.88
21.11
16.98
11.67
5.7
-0.14
-4.83
-7.4
-7.17
-4.04
1.45
8.23
15.11
21.12
25.77
29.07
31.33
32.77
33.48
33.3
32.12
30.02
27.37
24.74
22.64
21.31
20.75
20.67
20.77
20.82
20.67
20.29
19.62
18.6
17.15
15.24
12.93
10.4
7.89
5.54
3.45
1.56
-0.23
-2.11
-4.28
-6.92
-10.11
-13.65
-16.98
-19.22
-19.35
-16.67
-11.03
-3.02
6.24
15.48
23.73
30.52
35.83
39.91
43.01
45.28
46.79
47.57
47.71
47.35
46.63
45.7
44.66
43.51
42.18
40.51
38.32
35.46
31.9
27.69
22.99
18.02
13.13
8.8
5.63
4.09
4.32
5.85
7.67
8.51
7.29
3.6
-2.09
-8.59
-14.41
-18.26
-19.51
-18.33
-15.53
-12.25
-9.54
-8.07
-8.01
-9.18
-11.2
-13.71
-16.42
-19.06
-21.35
-23.02
-23.87
-23.92
-23.46
-22.93
-22.82
-23.36
-24.5
-25.91
-27.09
-27.65
-27.39
-26.42
-25.05
-23.71
-22.71
-22.17
-22.01
-22
-21.95
-21.78
-21.56
-21.42
-21.4
-21.32
-20.81
-19.35
-16.49
-12
-6.01
0.96
8.15
14.73
20.03
23.72
25.78
26.48
26.14
25.05
23.36
21.19
18.61
15.77
12.84
9.92
7.02
4.05
0.85
-2.7
-6.64
-10.93
-15.4
-19.83
-23.96
-27.55
-30.46
-32.67
-34.36
-35.77
-37.15
-38.72
-40.54
-42.6
-44.81
-46.98
-48.82
-49.87
-49.59
-47.52
-43.46
-37.69
-30.87
-23.94
-17.73
-12.8
-9.28
-7.03
-5.74
-5.14
-5.02
-5.18
-5.38
-5.38
-4.92
-3.82
-2.1
0.05
2.3
4.24
5.56
6.14
6.12
5.85
5.78
6.19
7.11
8.23
9.09
9.25
8.52
7.07
5.38
4.08
3.78
4.88
7.51
11.45
16.3
21.54
26.78
31.79
36.58
41.22
45.71
49.89
53.52
56.39
58.56
60.39
62.51
65.51
69.73
75.02
80.7
85.65
88.62
88.51
84.66
77.13
66.81
55.41
45.09
37.92
35.17
36.85
41.64
47.37
51.81
53.43
51.87
47.84
42.54
36.99
31.68
26.55
21.38
16.22
11.56
8.07
6.17
5.69
5.85
5.61
4.22
1.52
-1.94
-5.31
-7.83
-9.24
-9.82
-10.22
-11.18
-13.22
-16.53
-20.95
-26.11
-31.5
-36.72
-41.52
-45.85
-49.81
-53.57
-57.25
-60.87
-64.33
-67.46
-70.03
-71.83
-72.76
-72.82
-72.13
-70.82
-68.99
-66.69
-63.94
-60.8
-57.48
-54.29
-51.53
-49.34
-47.66
-46.18
-44.59
-42.65
-40.38
-38.04
-35.94
-34.34
-33.26
-32.49
-31.67
-30.51
-28.92
-27.03
-25.1
-23.33
-21.79
-20.44
-19.27
-18.32
-17.7
-17.51
-17.64
-17.98
-18.44
-19.2
-20.61
-22.92
-26
-29.21
-31.57
-32.18
-30.7
-27.57
-23.82
-20.68
-19.08
-19.37
-21.34
-24.37
-27.74
-30.91
-33.67
-36.14
-38.64
-41.42
-44.48
-47.6
-50.45
-52.91
-55.18
-57.75
-61.07
-65.29
-70.09
-74.85
-78.96
-82.12
-84.49
-86.38
-88.09
-89.68
-91.05
-92.04
-92.51
-92.21
-90.63
-86.9
-80
-69.32
-55.17
-39.07
-23.45
-10.93
-3.37
-1.29
-3.81
-9.12
-15.2
-20.34
-23.49
-24.18
-22.36
-18.23
-12.09
-4.35
4.4
13.41
21.96
29.6
36.2
41.98
47.15
51.53
54.52
55.24
53.07
48.13
41.4
34.38
28.46
24.27
21.47
19.08
16
11.57
5.68
-1.39
-9.2
-17.33
-25.36
-32.73
-38.78
-42.78
-44.18
-42.67
-38.29
-31.34
-22.33
-11.92
-0.8
10.37
21
30.6
38.75
45.08
49.33
51.4
51.47
50.05
47.88
45.71
44.11
43.31
43.21
43.49
43.83
43.95
43.67
42.85
41.42
39.36
36.74
33.72
30.5
27.31
24.23
21.28
18.34
15.33
12.19
8.97
5.77
2.71
-0.21
-3.18
-6.49
-10.43
-15.06
-20
-24.46
-27.44
-28.07
-25.88
-20.96
-13.84
-5.25
4.08
13.58
22.73
31.05
38.07
43.37
46.77
48.39
48.65
48.16
47.51
47.14
47.26
47.82
48.68
49.59
50.28
50.51
50.07
48.83
46.79
44.11
40.99
37.68
34.32
30.95
27.53
24.04
20.49
17
13.69
10.62
7.69
4.78
1.74
-1.53
-5.07
-8.94
-13.2
-17.86
-22.72
-27.28
-30.69
-32.02
-30.5
-25.96
-18.84
-10.09
-0.79
8.22
16.54
24.13
31.04
37.22
42.41
46.31
48.79
50.05
50.55
50.89
51.51
52.59
54.02
55.55
56.88
57.81
58.19
58
57.29
56.19
54.8
53.15
51.11
48.45
44.91
40.41
35.07
29.19
23.15
17.21
11.52
6.15
1.09
-3.68
-8.26
-12.81
-17.51
-22.32
-26.87
-30.42
-32.11
-31.25
-27.65
-21.67
-14.07
-5.73
2.63
10.46
17.45
23.33
27.9
31.04
32.8
33.4
33.21
32.55
31.65
30.48
28.85
26.53
23.42
19.69
15.74
12.14
9.36
7.63
6.81
6.51
6.29
5.9
5.33
4.56
3.29
0.65
-4.62
-13.77
-27.37
-44.78
-64.22
-83.21
-99.34
-110.85
-116.85
-117.15
-112.17
-102.91
-91.11
-79.08
-69.25
-63.36
-61.78
-63.28
-65.6
-66.48
-64.57
-59.86
-53.37
-46.39
-39.84
-33.94
-28.46
-23.11
-17.82
-12.73
-8.06
-3.92
-0.13
3.63
7.64
11.95
16.23
19.96
22.53
23.62
23.26
21.88
20.07
18.33
16.92
15.71
14.36
12.48
9.85
6.43
2.4
-1.99
-6.47
-10.67
-14.09
-16.16
-16.34
-14.35
-10.34
-4.87
1.21
7.06
12.15
16.24
19.38
21.64
22.99
23.36
22.84
21.84
21.09
21.49
23.64
27.67
33.03
38.92
44.51
49.3
53.16
56.14
58.32
59.67
60.19
60.05
59.65
59.43
59.6
60.02
60.15
59.4
57.41
54.29
50.54
46.79
43.52
40.89
38.8
37.08
35.66
34.66
34.24
34.48
35.23
36.11
36.64
36.46
35.4
33.55
31.15
28.48
25.75
23.07
20.48
17.94
15.37
12.7
9.81
6.61
3.03
-0.91
-5.15
-9.55
-13.95
-18.19
-22.21
-26.05
-29.92
-34.11
-38.87
-44.31
-50.22
-56.12
-61.2
-64.63
-65.72
-64.2
-60.36
-54.96
-49.02
-43.46
-38.81
-35.16
-32.32
-30
-28.12
-26.8
-26.26
-26.62
-27.66
-28.9
-29.76
-29.78
-28.84
-27.22
-25.42
-23.98
-23.22
-23.17
-23.47
-23.58
-22.9
-20.97
-17.6
-12.96
-7.6
-2.34
1.87
4.28
4.5
2.77
-0.16
-3.25
-5.55
-6.49
-6.02
-4.49
-2.39
-0.16
1.91
3.55
4.34
3.63
0.61
-5.34
-14.32
-25.75
-38.42
-50.71
-60.78
-66.84
-67.44
-61.84
-50.47
-35.08
-18.58
-4.36
4.61
6.74
2.12
-7.63
-20.16
-33.1
-44.72
-54.13
-61.13
-65.96
-68.94
-70.37
-70.36
-68.88
-65.87
-61.25
-54.99
-47.09
-37.59
-26.67
-14.7
-2.26
9.94
21.21
31.1
39.39
46.15
51.52
55.68
58.74
60.71
61.6
61.37
60
57.5
54.04
49.83
45.16
40.21
35.01
29.44
23.36
16.84
10.18
3.84
-1.79
-6.52
-10.36
-13.38
-15.54
-16.61
-16.23
-14.08
-10.09
-4.43
2.56
10.52
19.14
28.13
37.14
45.65
52.99
58.55
61.89
62.92
61.92
59.43
56.06
52.3
48.47
44.67
40.91
37.22
33.66
30.33
27.25
24.36
21.49
18.46
15.18
11.74
8.32
5.1
2.19
-0.4
-2.8
-5.12
-7.45
-9.85
-12.36
-15.01
-17.77
-20.43
-22.57
-23.61
-22.96
-20.31
-15.75
-9.81
-3.32
2.87
8.14
12.2
15.07
16.97
18.13
18.71
18.8
18.45
17.82
17.08
16.49
16.19
16.19
16.31
16.34
16.08
15.45
14.5
13.27
11.82
10.08
7.98
5.47
2.6
-0.47
-3.59
-6.67
-9.81
-13.22
-17.14
-21.65
-26.52
-31.16
-34.77
-36.53
-35.89
-32.77
-27.6
-21.16
-14.36
-8.03
-2.71
1.38
4.23
6
6.86
6.99
6.53
5.65
4.52
3.42
2.64
2.41
2.76
3.5
4.28
4.68
4.44
3.51
2
0.13
-1.89
-3.97
-6.05
-8.14
-10.27
-12.55
-15.22
-18.52
-22.62
-27.33
-32.13
-36.14
-38.43
-38.31
-35.54
-30.45
-23.77
-16.41
-9.24
-2.92
2.2
6.01
8.57
10
10.47
10.1
9
7.35
5.38
3.42
1.76
0.63
0.02
-0.28
-0.6
-1.29
-2.58
-4.53
-7.03
-9.85
-12.71
-15.36
-17.56
-19.21
-20.31
-21.06
-21.8
-22.91
-24.66
-27.03
-29.65
-31.83
-32.73
-31.62
-28.08
-22.18
-14.42
-5.64
3.23
11.43
18.45
24.16
28.64
32.12
34.84
36.98
38.65
39.91
40.78
41.31
41.54
41.54
41.39
41.13
40.75
40.18
39.32
38.06
36.34
34.14
31.52
28.62
25.61
22.73
20.14
17.97
16.16
14.5
12.65
10.21
6.97
3.05
-0.98
-4.19
-5.48
-3.95
0.77
8.37
17.96
28.36
38.53
47.85
56.19
63.69
70.53
76.65
81.83
85.83
88.72
90.95
93.12
95.65
98.41
100.68
101.48
100.1
96.43
90.95
84.39
77.16
69.14
59.83
48.86
36.28
22.71
8.97
-4.32
-16.92
-28.83
-39.97
-49.95
-58.23
-64.38
-68.44
-70.96
-72.72
-74.22
-75.42
-75.7
-74.25
-70.46
-64.28
-56.22
-47.22
-38.21
-29.94
-22.78
-16.89
-12.3
-9.03
-7.14
-6.58
-7.14
-8.36
-9.62
-10.36
-10.24
-9.31
-7.95
-6.72
-6.12
-6.4
-7.5
-9.04
-10.46
-11.2
-10.96
-9.79
-8.16
-6.74
-6.16
-6.72
-8.33
-10.55
-12.79
-14.63
-15.99
-17.07
-18.28
-19.99
-22.44
-25.67
-29.47
-33.42
-36.91
-39.24
-39.81
-38.32
-34.89
-30
-24.3
-18.42
-12.9
-8.15
-4.52
-2.31
-1.59
-2.06
-3.16
-4.21
-4.77
-4.81
-4.61
-4.5
-4.52
-4.46
-4.11
-3.66
-3.77
-5.35
-9.02
-14.64
-21.24
-27.42
-32
-34.48
-35.15
-34.78
-34.12
-33.61
-33.27
-32.99
-32.75
-32.72
-33.17
-34.2
-35.52
-36.45
-36.1
-33.77
-29.29
-23.17
-16.43
-10.25
-5.52
-2.57
-1.16
-0.72
-0.69
-0.83
-1.21
-2.09
-3.62
-5.75
-8.19
-10.52
-12.4
-13.55
-13.85
-13.25
-11.73
-9.38
-6.37
-3.04
0.13
2.69
4.29
4.86
4.61
3.96
3.36
3.08
3.13
3.27
3.11
2.38
0.99
-0.96
-3.21
-5.45
-7.36
-8.59
-8.82
-7.81
-5.53
-2.26
1.44
4.97
7.87
9.94
11.28
12.13
12.67
12.97
12.97
12.58
11.75
10.52
9.01
7.37
5.72
4.14
2.61
1.08
-0.52
-2.16
-3.79
-5.25
-6.46
-7.45
-8.39
-9.55
-11.12
-13.2
-15.7
-18.42
-21.12
-23.67
-26.02
-28.24
-30.4
-32.46
-34.16
-35.08
-34.74
-32.82
-29.37
-24.83
-19.89
-15.27
-11.49
-8.73
-6.9
-5.73
-4.9
-4.13
-3.2
-2.01
-0.61
0.84
2.09
2.88
3.08
2.69
1.85
0.73
-0.47
-1.57
-2.41
-2.89
-3.06
-3.09
-3.27
-3.88
-5.04
-6.69
-8.62
-10.66
-12.83
-15.32
-18.35
-21.85
-25.42
-28.22
-29.37
-28.17
-24.5
-18.81
-12.03
-5.21
0.71
5.15
7.93
9.18
9.24
8.55
7.51
6.4
5.22
3.78
1.63
-1.55
-5.75
-10.38
-14.28
-16.08
-14.65
-9.65
-1.69
7.8
17.04
24.51
29.36
31.45
31.15
28.93
25.11
19.82
13.15
5.38
-2.88
-10.7
-17.11
-21.3
-22.8
-21.58
-17.95
-12.54
-6.11
0.49
6.49
11.36
14.82
16.93
18
18.56
19.26
20.75
23.47
27.35
31.68
35.06
35.86
32.78
25.61
15.39
4.27
-5.31
-11.42
-13.26
-11.21
-6.51
-0.58
5.42
10.79
15.24
18.73
21.25
22.94
24.21
25.73
28.39
32.98
39.85
48.69
58.57
68.24
76.52
82.74
86.78
89
89.89
89.76
88.66
86.53
83.38
79.53
75.58
72.19
69.79
68.32
67.16
65.37
62.03
56.55
48.89
39.47
29.05
18.42
8.21
-1.19
-9.59
-17.01
-23.6
-29.58
-35.27
-40.94
-46.73
-52.49
-57.75
-61.77
-63.86
-63.62
-61.15
-57.08
-52.35
-47.84
-44.17
-41.5
-39.71
-38.55
-37.8
-37.34
-37.08
-36.88
-36.48
-35.63
-34.18
-32.23
-30.11
-28.31
-27.18
-26.86
-27.2
-27.85
-28.48
-28.84
-28.93
-28.89
-28.95
-29.29
-30
-31.11
-32.56
-34.19
-35.69
-36.53
-36.1
-33.82
-29.4
-23
-15.21
-6.92
0.94
7.66
12.87
16.5
18.62
19.34
18.76
17.02
14.39
11.37
8.52
6.35
5.05
4.42
3.97
3.08
1.3
-1.57
-5.42
-10.01
-15.11
-20.63
-26.57
-33.07
-40.3
-48.49
-57.84
-68.45
-80.12
-92.22
-103.71
-113.31
-119.88
-122.72
-121.81
-117.71
-111.31
-103.52
-95.08
-86.48
-78.08
-70.17
-62.97
-56.63
-51.06
-45.93
-40.77
-35.17
-28.92
-22.1
-15.1
-8.39
-2.42
2.59
6.7
10.16
13.33
16.44
19.5
22.32
24.5
25.64
25.49
24.04
21.67
19.1
17.37
17.62
20.82
27.44
37.27
49.38
62.44
75.04
86.07
94.85
101.05
104.56
105.29
103.22
98.49
91.52
82.99
73.6
63.97
54.33
44.57
34.35
23.32
11.26
-1.83
-15.73
-30.15
-44.8
-59.48
-74.04
-88.34
-102.17
-115.2
-127.03
-137.24
-145.5
-151.49
-154.79
-154.73
-150.4
-140.91
-125.85
-105.63
-81.63
-55.79
-30.08
-5.94
15.93
35.36
52.29
66.44
77.38
84.75
88.63
89.71
89.09
87.88
86.87
86.31
85.95
85.38
84.21
82.3
79.74
76.75
73.53
70.14
66.39
62.02
56.75
50.53
43.64
36.63
30.11
24.53
19.97
16.21
12.79
9.25
5.23
0.47
-5.14
-11.46
-17.93
-23.57
-27.1
-27.38
-23.94
-17.18
-8.31
1.26
10.53
19.25
27.83
36.89
46.7
56.87
66.46
74.43
80.04
83.16
84.15
83.66
82.24
80.19
77.62
74.49
70.83
66.75
62.35
57.54
52.05
45.55
37.91
29.43
20.82
12.99
6.65
2.01
-1.37
-4.28
-7.54
-11.67
-16.75
-22.56
-28.79
-35.11
-41.26
-46.89
-51.58
-54.91
-56.63
-56.61
-54.84
-51.17
-45.28
-36.87
-25.91
-12.91
1.07
14.81
27.46
38.76
49.08
58.92
68.5
77.58
85.66
92.3
97.47
101.54
104.98
108.06
110.68
112.4
112.71
111.25
108.03
103.34
97.67
91.4
84.79
77.89
70.7
63.2
55.5
47.79
40.24
33.02
26.16
19.61
13.32
7.22
1.32
-4.36
-9.81
-15.07
-20.25
-25.48
-30.86
-36.31
-41.49
-45.75
-48.24
-48.2
-45.21
-39.47
-31.77
-23.27
-15.16
-8.33
-3.15
0.47
2.95
4.8
6.43
8.08
9.81
11.53
13.08
14.21
14.71
14.45
13.5
12.27
11.46
11.99
14.6
19.36
25.43
31.08
34.15
32.9
26.68
16.3
3.81
-8.18
-17.41
-22.54
-23.38
-20.62
-15.42
-9.02
-2.47
3.31
7.58
9.84
9.97
8.31
5.66
3.04
1.35
1.09
2.2
4.16
6.22
7.63
7.9
6.78
4.34
0.84
-3.3
-7.59
-11.57
-14.93
-17.51
-19.38
-20.69
-21.68
-22.49
-23.21
-23.92
-24.64
-25.46
-26.47
-27.72
-29.22
-30.9
-32.64
-34.31
-35.9
-37.47
-39.2
-41.24
-43.57
-45.96
-47.91
-48.81
-48.17
-45.75
-41.71
-36.55
-30.95
-25.52
-20.74
-16.82
-13.76
-11.43
-9.63
-8.18
-6.99
-6.06
-5.42
-5.11
-5.1
-5.25
-5.4
-5.48
-5.52
-5.64
-5.94
-6.45
-7.08
-7.72
-8.29
-8.87
-9.61
-10.68
-12.19
-14.11
-16.32
-18.7
-21.13
-23.5
-25.63
-27.23
-27.9
-27.18
-24.69
-20.25
-13.93
-6.06
2.83
12.09
21.09
29.29
36.32
41.93
45.91
47.98
47.75
44.85
39.13
30.92
21.11
10.96
1.76
-5.58
-10.7
-13.71
-14.97
-14.92
-14.05
-13.03
-12.75
-14.19
-18.03
-24.3
-32.23
-40.51
-47.78
-53.13
-56.34
-57.79
-58.04
-57.48
-56.16
-53.84
-50.28
-45.44
-39.66
-33.51
-27.62
-22.43
-18.08
-14.45
-11.33
-8.58
-6.24
-4.45
-3.36
-2.96
-3.07
-3.41
-3.76
-4.07
-4.42
-4.94
-5.72
-6.69
-7.71
-8.63
-9.42
-10.23
-11.27
-12.79
-14.92
-17.6
-20.66
-23.84
-26.95
-29.89
-32.68
-35.48
-38.46
-41.79
-45.51
-49.46
-53.21
-56.05
-57.14
-55.73
-51.4
-44.27
-35.07
-25.05
-15.78
-8.78
-5.13
-5.25
-8.74
-14.32
-20.19
-24.41
-25.29
-21.79
-13.62
-1.37
13.66
29.57
44.2
55.61
62.57
64.92
63.58
60.09
56.01
52.33
49.31
46.66
43.96
40.95
37.72
34.48
31.38
28.34
25.1
21.39
17.08
12.23
7.16
2.32
-1.79
-4.73
-6.24
-6.34
-5.3
-3.56
-1.53
0.59
2.8
5.25
8.07
11.28
14.71
18.09
21.17
23.8
26
27.87
29.44
30.6
31.13
30.79
29.52
27.52
25.24
23.21
21.81
21.13
20.94
20.81
20.34
19.3
17.64
15.48
13.01
10.41
7.85
5.46
3.32
1.41
-0.42
-2.41
-4.8
-7.69
-10.9
-14.01
-16.44
-17.7
-17.57
-16.2
-13.99
-11.49
-9.13
-7.13
-5.49
-4.1
-2.87
-1.8
-0.94
-0.37
-0.08
0.06
0.2
0.53
1.14
2.04
3.19
4.45
5.7
6.8
7.67
8.33
8.84
9.27
9.66
9.94
9.95
9.58
8.76
7.58
6.22
4.83
3.45
1.91
-0.06
-2.66
-5.87
-9.33
-12.44
-14.59
-15.41
-14.91
-13.53
-11.88
-10.59
-10.1
-10.65
-12.27
-14.87
-18.28
-22.23
-26.36
-30.27
-33.59
-36.03
-37.44
-37.81
-37.23
-35.88
-33.98
-31.83
-29.76
-28.01
-26.73
-25.86
-25.27
-24.78
-24.29
-23.83
-23.52
-23.46
-23.73
-24.33
-25.23
-26.45
-27.95
-29.64
-31.23
-32.21
-32
-30.12
-26.5
-21.48
-15.73
-9.97
-4.73
-0.19
3.74
7.23
10.37
13.08
15.2
16.63
17.4
17.69
17.7
17.59
17.4
17.12
16.75
16.39
16.28
16.61
17.52
18.98
20.88
23.14
25.86
29.33
33.9
39.78
46.82
54.54
62.23
69.26
75.26
80.34
84.89
89.4
94.16
99.08
103.8
107.87
110.98
113.13
114.57
115.68
116.79
117.96
119
119.51
118.99
116.99
113.25
107.82
101.03
93.39
85.39
77.29
69.01
60.19
50.41
39.39
27.2
14.15
0.7
-12.75
-25.93
-38.7
-50.93
-62.5
-73.27
-83.09
-91.88
-99.55
-105.92
-110.78
-113.83
-114.92
-114.14
-111.83
-108.54
-104.83
-101.11
-97.56
-94.22
-91.16
-88.53
-86.57
-85.5
-85.4
-86.08
-87.07
-87.76
-87.56
-86.07
-83.2
-79.23
-74.68
-70.07
-65.75
-61.66
-57.36
-52.15
-45.49
-37.24
-27.98
-18.87
-11.42
-7.01
-6.45
-9.61
-15.41
-22.11
-27.72
-30.59
-29.75
-24.95
-16.6
-5.62
6.66
18.53
28.1
33.65
34.15
29.67
21.52
11.76
2.61
-4.34
-8.5
-10.23
-10.4
-9.85
-9.13
-8.33
-7.29
-5.84
-3.99
-2.02
-0.37
0.5
0.31
-0.91
-2.91
-5.32
-7.83
-10.33
-12.88
-15.68
-18.96
-22.88
-27.48
-32.59
-37.79
-42.39
-45.5
-46.24
-44.04
-38.85
-31.21
-22.15
-12.85
-4.31
2.85
8.48
12.72
15.86
18.18
19.88
21.09
21.9
22.37
22.59
22.64
22.66
22.87
23.54
24.94
27.24
30.51
34.72
39.77
45.55
51.85
58.35
64.55
69.95
74.06
76.56
77.29
76.17
73.05
67.78
60.38
51.31
41.64
32.91
26.76
24.33
25.82
30.38
36.47
42.33
46.63
48.7
48.57
46.62
43.25
38.7
33.03
26.36
19.03
11.64
4.87
-0.77
-5.09
-8.23
-10.52
-12.2
-13.39
-14.06
-14.24
-14.15
-14.15
-14.63
-15.78
-17.45
-19.17
-20.45
-21.03
-21.04
-21.04
-21.76
-23.86
-27.64
-32.92
-39.04
-44.94
-49.46
-51.58
-50.74
-47.09
-41.41
-34.91
-28.76
-23.73
-19.94
-17.05
-14.51
-12.06
-9.8
-8.23
-7.82
-8.7
-10.41
-12
-12.4
-10.87
-7.4
-2.69
2.15
6.1
8.73
10.39
12.1
15.11
20.48
28.75
39.91
53.58
69.05
85.09
99.76
110.5
114.74
110.92
99.29
81.95
62.09
42.7
25.59
11.16
-0.96
-11.03
-18.69
-23.25
-24.44
-22.99
-20.54
-18.95
-19.33
-21.65
-24.93
-28.01
-30.12
-31.21
-31.63
-31.85
-32.1
-32.32
-32.35
-32.08
-31.54
-30.9
-30.26
-29.68
-29.16
-28.68
-28.19
-27.66
-27.06
-26.42
-25.82
-25.44
-25.47
-25.98
-26.87
-27.84
-28.57
-28.88
-28.88
-28.95
-29.54
-30.93
-32.94
-34.88
-35.73
-34.52
-30.74
-24.55
-16.75
-8.41
-0.5
6.44
12.32
17.26
21.33
24.45
26.45
27.27
27.12
26.45
25.82
25.6
25.96
26.75
27.74
28.78
29.8
30.85
31.91
32.83
33.33
33.15
32.14
30.31
27.81
24.8
21.42
17.74
13.85
9.9
6.05
2.44
-0.97
-4.41
-8.15
-12.29
-16.58
-20.38
-22.82
-23.15
-21.03
-16.72
-10.93
-4.61
1.48
6.88
11.49
15.35
18.44
20.58
21.47
20.93
19.09
16.46
13.76
11.71
10.71
10.82
11.71
12.93
14.02
14.72
14.98
14.85
14.47
13.93
13.2
12.19
10.77
8.88
6.54
3.87
0.99
-2.03
-5.23
-8.63
-12.25
-15.94
-19.42
-22.29
-24.16
-24.68
-23.72
-21.28
-17.57
-12.94
-7.81
-2.6
2.29
6.54
9.91
12.3
13.76
14.44
14.63
14.65
14.74
15.07
15.67
16.47
17.36
18.18
18.82
19.18
19.21
18.89
18.17
16.96
15.17
12.71
9.64
6.23
2.84
-0.15
-2.51
-4.32
-5.95
-7.91
-10.7
-14.55
-19.33
-24.54
-29.42
-33.14
-35.07
-34.93
-32.85
-29.26
-24.76
-19.96
-15.31
-11.2
-7.91
-5.63
-4.39
-4.06
-4.28
-4.62
-4.71
-4.38
-3.68
-2.82
-2.02
-1.37
-0.84
-0.35
0.25
1
1.84
2.64
3.22
3.41
3.14
2.36
1.08
-0.68
-2.92
-5.69
-8.95
-12.65
-16.67
-20.89
-25.15
-29.3
-33.04
-35.94
-37.42
-36.96
-34.35
-29.83
-24.07
-17.99
-12.41
-7.86
-4.46
-2.1
-0.51
0.5
1.08
1.34
1.39
1.37
1.43
1.67
2.17
2.92
3.93
5.12
6.39
7.58
8.5
8.99
8.95
8.36
7.23
5.64
3.74
1.7
-0.28
-2.11
-3.85
-5.75
-8.12
-11.23
-15.05
-19.25
-23.16
-26.03
-27.17
-26.28
-23.47
-19.3
-14.56
-10.04
-6.35
-3.73
-2.11
-1.22
-0.67
-0.21
0.32
0.97
1.76
2.7
3.86
5.21
6.68
8.08
9.19
9.88
10.13
10.1
10.01
9.96
9.92
9.73
9.12
7.92
6.06
3.57
0.45
-3.33
-7.78
-12.81
-18.11
-23.15
-27.29
-29.94
-30.8
-29.85
-27.46
-24.11
-20.33
-16.49
-12.75
-9.17
-5.72
-2.38
0.87
4.06
7.26
10.54
13.88
17.07
19.57
20.62
19.43
15.42
8.46
-0.95
-11.73
-22.39
-31.33
-37.09
-38.69
-35.89
-29.21
-19.79
-9.02
1.98
12.68
23.05
33.37
43.8
54.06
63.38
70.6
74.49
74.1
69.15
60.26
48.95
37.27
27.21
19.95
15.52
12.94
10.82
8.22
5.04
1.93
-0.33
-1.4
-1.62
-1.7
-2.31
-3.63
-5.37
-7.04
-8.22
-8.92
-9.45
-10.24
-11.66
-13.87
-16.84
-20.51
-24.8
-29.61
-34.63
-39.31
-42.76
-44.08
-42.6
-38.3
-31.76
-24
-16.03
-8.45
-1.34
5.5
12.22
18.65
24.34
28.81
31.79
33.36
33.83
33.52
32.59
30.97
28.5
24.98
20.3
14.53
7.87
0.73
-6.3
-12.67
-18.01
-22.31
-25.92
-29.43
-33.41
-38.18
-43.69
-49.48
-54.76
-58.49
-59.66
-57.52
-51.95
-43.49
-33.23
-22.47
-12.27
-3.29
4.25
10.35
15.01
18.17
19.84
20.23
19.81
19.23
19.02
19.51
20.63
22.04
23.29
24.02
23.98
23.15
21.65
19.67
17.45
15.12
12.69
10.02
6.9
3.07
-1.69
-7.51
-14.24
-21.42
-28.18
-33.38
-35.89
-34.89
-30.24
-22.55
-13.04
-3.17
5.79
13.08
18.48
22.21
24.67
26.21
27.07
27.33
27.05
26.34
25.37
24.4
23.61
23.09
22.73
22.33
21.65
20.48
18.75
16.5
13.85
10.91
7.79
4.56
1.26
-2.14
-5.73
-9.68
-14.25
-19.69
-25.99
-32.76
-39.02
-43.45
-44.72
-41.98
-35.29
-25.63
-14.56
-3.68
5.9
13.74
19.92
24.69
28.12
30.05
30.24
28.7
25.9
22.64
19.85
18.18
17.75
18.18
18.76
18.75
17.6
15.14
11.54
7.26
2.94
-0.82
-3.68
-5.73
-7.72
-10.98
-17.07
-27.22
-41.82
-59.89
-79.27
-96.94
-109.89
-115.89
-114.04
-104.92
-90.27
-72.43
-53.61
-35.54
-19.21
-5.12
6.51
15.53
21.89
25.76
27.72
28.73
29.85
31.87
35.06
39.07
43.21
46.76
49.3
50.84
51.69
52.26
52.83
53.4
53.69
53.11
50.93
46.49
39.46
30.14
19.5
9.09
0.63
-4.49
-5.46
-2.3
4.3
13.26
23.34
33.39
42.52
50.07
55.72
59.43
61.35
61.81
61.15
59.76
57.94
55.94
53.91
51.95
50.07
48.26
46.56
45.06
43.86
43.03
42.48
41.95
41.03
39.28
36.36
32.11
26.56
19.85
12.16
3.65
-5.6
-15.47
-25.83
-36.36
-46.53
-55.58
-62.57
-66.63
-67.21
-64.3
-58.5
-50.84
-42.45
-34.23
-26.69
-19.96
-14.04
-8.96
-4.87
-1.96
-0.25
0.53
0.96
1.63
2.93
4.83
6.96
8.78
9.95
10.37
10.09
9.13
7.37
4.61
0.9
-3.3
-7.19
-10.01
-11.45
-11.88
-12.13
-13.03
-15.02
-17.98
-21.44
-24.9
-27.95
-30.23
-31.25
-30.42
-27.22
-21.61
-14.23
-6.24
0.98
6.46
9.85
11.46
11.96
12.04
12.19
12.62
13.3
14.09
14.78
15.21
15.3
15.11
14.78
14.52
14.39
14.36
14.2
13.71
12.76
11.39
9.76
8.01
6.23
4.38
2.38
0.2
-2.16
-4.65
-7.3
-10.14
-13.28
-16.7
-20.24
-23.49
-25.86
-26.69
-25.51
-22.21
-17.17
-11.14
-5.04
0.36
4.66
7.84
10.15
11.91
13.28
14.34
15.08
15.55
15.86
16.18
16.63
17.17
17.66
17.88
17.73
17.24
16.56
15.9
15.39
14.96
14.41
13.49
11.99
9.86
7.25
4.44
1.72
-0.76
-3
-5.19
-7.59
-10.43
-13.78
-17.54
-21.36
-24.77
-27.26
-28.41
-28.02
-26.23
-23.47
-20.36
-17.49
-15.22
-13.57
-12.27
-10.96
-9.47
-7.82
-6.25
-4.95
-3.94
-3.05
-2.03
-0.77
0.6
1.75
2.34
2.23
1.62
0.9
0.45
0.4
0.55
0.5
-0.08
-1.34
-3.09
-5.03
-6.81
-8.19
-9.04
-9.33
-9.09
-8.46
-7.71
-7.13
-6.99
-7.24
-7.55
-7.38
-6.19
-3.74
-0.2
3.97
8.24
12.21
15.64
18.44
20.56
21.94
22.55
22.49
22.01
21.48
21.24
21.43
21.97
22.57
22.94
22.87
22.36
21.63
21.01
20.84
21.33
22.54
24.2
25.73
26.3
25.03
21.32
15.06
6.72
-2.73
-12.17
-20.62
-27.48
-32.57
-36.03
-38.13
-39.02
-38.72
-37.09
-33.96
-29.3
-23.34
-16.62
-9.81
-3.56
1.7
5.85
9.01
11.42
13.28
14.61
15.34
15.36
14.67
13.41
11.84
10.25
8.81
7.55
6.37
5.04
3.38
1.3
-1.21
-4.09
-7.34
-11.02
-15.17
-19.69
-24.33
-28.73
-32.54
-35.59
-37.89
-39.66
-41.11
-42.33
-43.17
-43.25
-42.11
-39.34
-34.7
-28.25
-20.27
-11.31
-2.07
6.71
14.37
20.46
24.84
27.62
29.13
29.71
29.66
29.18
28.39
27.35
26.07
24.54
22.78
20.91
19.16
17.83
17.13
17.1
17.57
18.16
18.52
18.3
17.33
15.59
13.2
10.46
7.81
5.75
4.67
4.7
5.54
6.54
7.02
6.5
4.98
2.91
0.99
-0.17
-0.23
0.79
2.59
4.71
6.7
8.22
9.03
9.01
8.13
6.49
4.25
1.64
-1.04
-3.53
-5.56
-6.99
-7.79
-8.09
-8.15
-8.27
-8.61
-9.17
-9.82
-10.41
-10.95
-11.57
-12.48
-13.85
-15.62
-17.6
-19.5
-21.09
-22.28
-23.19
-24.06
-25.13
-26.51
-28.1
-29.49
-30.12
-29.44
-27.11
-23.21
-18.17
-12.68
-7.47
-3.03
0.41
2.86
4.45
5.28
5.38
4.76
3.48
1.74
-0.19
-1.98
-3.37
-4.29
-4.81
-5.16
-5.55
-6.16
-7.04
-8.17
-9.43
-10.75
-12.03
-13.21
-14.33
-15.46
-16.74
-18.36
-20.46
-23.08
-26.09
-29.11
-31.61
-32.99
-32.77
-30.81
-27.26
-22.65
-17.59
-12.68
-8.33
-4.73
-1.95
-0.04
0.95
0.98
0.08
-1.54
-3.52
-5.42
-6.86
-7.62
-7.67
-7.16
-6.38
-5.66
-5.3
-5.5
-6.31
-7.62
-9.27
-11.05
-12.85
-14.72
-16.81
-19.32
-22.42
-26.09
-30.09
-33.95
-37.02
-38.65
-38.34
-35.9
-31.55
-25.84
-19.48
-13.21
-7.58
-2.97
0.43
2.49
3.2
2.63
0.98
-1.4
-4.03
-6.4
-8.05
-8.75
-8.55
-7.81
-7.08
-6.96
-7.8
-9.64
-12.22
-15.12
-18.01
-20.81
-23.75
-27.24
-31.72
-37.48
-44.56
-52.62
-60.9
-68.32
-73.61
-75.66
-73.87
-68.29
-59.66
-49.14
-37.96
-27.12
-17.28
-8.78
-1.84
3.38
6.72
8.23
8.18
7.19
6.01
5.36
5.63
6.82
8.49
9.99
10.7
10.28
8.79
6.59
4.22
2.06
0.22
-1.6
-3.97
-7.55
-12.82
-19.75
-27.78
-35.68
-41.94
-45.07
-44.03
-38.58
-29.4
-17.92
-5.88
5.22
14.49
21.79
27.56
32.33
36.37
39.61
41.71
42.47
42.02
40.9
39.81
39.21
39.18
39.32
39.05
37.89
35.74
32.83
29.58
26.37
23.36
20.4
17.1
13.03
7.87
1.46
-6.07
-14.32
-22.58
-29.77
-34.64
-36.02
-33.14
-25.97
-15.3
-2.59
10.47
22.42
32.35
39.95
45.38
49
51.14
52.09
52.06
51.32
50.17
48.96
47.97
47.38
47.17
47.13
46.95
46.29
44.93
42.81
40.06
36.92
33.6
30.24
26.78
23.05
18.82
13.91
8.27
1.94
-4.96
-12.26
-19.57
-26.23
-31.22
-33.42
-31.98
-26.68
-18.13
-7.56
3.51
13.8
22.59
29.72
35.33
39.64
42.71
44.57
45.3
45.2
44.73
44.37
44.34
44.61
44.85
44.71
44
42.78
41.35
39.94
38.57
36.94
34.58
31.11
26.5
21.07
15.44
10.2
5.7
1.89
-1.57
-5.21
-9.49
-14.72
-20.9
-27.72
-34.47
-40.09
-43.4
-43.32
-39.31
-31.62
-21.24
-9.61
1.78
11.88
20.2
26.75
31.75
35.4
37.79
38.99
39.16
38.6
37.78
37.14
36.88
36.95
37.05
36.83
36.1
34.84
33.27
31.66
30.16
28.69
26.95
24.56
21.22
16.99
12.22
7.49
3.31
-0.07
-2.86
-5.57
-8.85
-13.16
-18.59
-24.84
-31.18
-36.72
-40.47
-41.57
-39.49
-34.2
-26.2
-16.53
-6.43
2.93
10.78
16.77
20.92
23.44
24.53
24.44
23.49
22.12
20.87
20.17
20.23
20.87
21.71
22.33
22.52
22.3
21.9
21.52
21.17
20.66
19.61
17.75
15.01
11.57
7.85
4.29
1.19
-1.38
-3.62
-5.88
-8.52
-11.83
-15.89
-20.51
-25.23
-29.37
-32.15
-32.89
-31.18
-27.07
-21.12
-14.21
-7.31
-1.21
3.68
7.32
9.87
11.53
12.43
12.65
12.31
11.65
10.98
10.59
10.64
11.08
11.72
12.29
12.55
12.38
11.78
10.8
9.52
8.01
6.28
4.34
2.19
-0.11
-2.46
-4.69
-6.69
-8.45
-10.14
-12.07
-14.58
-17.89
-22.01
-26.6
-31.13
-34.89
-37.26
-37.79
-36.34
-33.13
-28.69
-23.72
-18.92
-14.9
-12.04
-10.44
-9.95
-10.2
-10.75
-11.19
-11.25
-10.88
-10.17
-9.32
-8.47
-7.64
-6.75
-5.65
-4.19
-2.36
-0.22
2.08
4.32
6.33
8.03
9.48
10.87
12.49
14.55
17.16
20.19
23.34
26.13
28.09
28.82
28.24
26.72
25.08
24.41
25.72
29.5
35.44
42.48
49.24
54.57
57.92
59.46
59.76
59.43
58.77
57.76
56.19
53.93
51.1
47.98
44.94
42.17
39.6
36.93
33.8
29.93
25.31
20.18
14.95
10.02
5.61
1.71
-1.84
-5.14
-8.18
-10.87
-13.08
-14.91
-16.58
-18.36
-20.32
-22.25
-23.63
-23.93
-22.79
-20.29
-16.87
-13.19
-9.83
-7.12
-5.1
-3.62
-2.49
-1.67
-1.27
-1.54
-2.7
-4.83
-7.77
-11.16
-14.52
-17.43
-19.67
-21.25
-22.44
-23.61
-25.12
-27.18
-29.75
-32.62
-35.43
-37.9
-39.89
-41.43
-42.68
-43.81
-44.92
-46.01
-46.92
-47.4
-47.06
-45.47
-42.27
-37.33
-30.91
-23.63
-16.41
-10.05
-5.08
-1.49
1.12
3.28
5.39
7.57
9.76
11.84
13.81
15.72
17.53
19.04
20.02
20.29
19.98
19.46
19.06
18.86
18.51
17.41
15.11
11.58
7.28
2.91
-0.98
-4.34
-7.59
-11.29
-15.81
-21.01
-26.24
-30.64
-33.5
-34.51
-33.9
-32.25
-30.24
-28.36
-26.8
-25.46
-24.11
-22.55
-20.75
-18.84
-17.09
-15.77
-15.08
-15
-15.32
-15.75
-15.98
-15.87
-15.51
-15.15
-15.1
-15.55
-16.51
-17.78
-19.15
-20.47
-21.76
-23.19
-24.89
-26.92
-29.26
-31.79
-34.44
-37.17
-39.85
-42.22
-43.84
-44.18
-42.86
-39.87
-35.61
-30.8
-26.21
-22.39
-19.53
-17.58
-16.32
-15.6
-15.33
-15.48
-16.04
-16.92
-17.89
-18.74
-19.3
-19.55
-19.59
-19.67
-19.99
-20.67
-21.63
-22.63
-23.37
-23.61
-23.3
-22.61
-21.86
-21.41
-21.59
-22.6
-24.47
-27
-29.79
-32.19
-33.46
-32.94
-30.26
-25.56
-19.47
-12.86
-6.6
-1.2
3.19
6.72
9.58
11.82
13.31
13.91
13.59
12.57
11.26
10.06
9.24
8.81
8.57
8.17
7.3
5.81
3.7
1.19
-1.41
-3.85
-6.01
-8.01
-10.17
-12.93
-16.66
-21.51
-27.31
-33.52
-39.25
-43.47
-45.23
-43.98
-39.75
-33.16
-25.19
-16.88
-8.98
-1.87
4.36
9.72
14.06
17.09
18.45
17.93
15.61
11.98
7.85
4.24
2.05
1.84
3.55
6.58
10
12.93
14.9
15.91
16.17
15.78
14.45
11.49
6.12
-2.16
-13.36
-26.89
-41.78
-56.81
-70.51
-81.38
-87.94
-89.17
-84.79
-75.47
-62.7
-48.4
-34.36
-21.83
-11.36
-2.92
3.83
9.29
13.81
17.69
21.23
24.71
28.37
32.37
36.68
41.2
45.76
50.24
54.47
58.24
61.3
63.41
64.56
65.08
65.56
66.6
68.46
70.77
72.54
72.57
69.95
64.55
57.14
49.24
42.56
38.52
37.9
40.73
46.45
54.14
62.79
71.4
79.09
85.14
89.08
90.72
90.19
87.91
84.52
80.68
76.96
73.72
71.07
68.92
67.01
65.02
62.6
59.42
55.25
49.96
43.55
36.18
28.07
19.51
10.8
2.17
-6.27
-14.54
-22.89
-31.76
-41.61
-52.68
-64.69
-76.7
-87.31
-95.03
-98.85
-98.57
-94.74
-88.43
-80.77
-72.54
-64.17
-55.79
-47.46
-39.32
-31.59
-24.53
-18.31
-13.01
-8.59
-4.94
-1.91
0.74
3.35
6.29
9.95
14.56
20.05
26.03
31.86
36.89
40.78
43.6
45.84
48.19
51.22
55.2
59.95
64.88
68.95
70.79
68.92
62.09
49.79
32.57
12.14
-9.06
-28.42
-43.86
-54.24
-59.37
-59.73
-56.08
-49.23
-40.09
-29.69
-19.26
-10.03
-2.87
1.99
5.14
7.72
10.93
15.46
21.15
27.05
31.83
34.41
34.34
31.95
28.06
23.58
19.15
15
11.02
6.96
2.67
-1.82
-6.35
-10.89
-15.53
-20.58
-26.28
-32.58
-38.79
-43.68
-45.75
-43.8
-37.46
-27.38
-15.1
-2.47
8.9
18.12
25.07
30.1
33.65
36
37.14
37.04
35.73
33.45
30.62
27.65
24.84
22.31
20.04
17.9
15.7
13.28
10.42
7
3
-1.41
-5.94
-10.25
-14.12
-17.61
-20.97
-24.61
-28.88
-33.91
-39.49
-45.08
-49.89
-52.99
-53.55
-51.04
-45.47
-37.41
-27.94
-18.29
-9.55
-2.41
2.99
6.87
9.6
11.47
12.65
13.2
13.23
12.99
12.81
13.03
13.82
15.07
16.42
17.42
17.65
17
15.64
13.98
12.4
11.13
10.1
9.1
7.84
6.14
3.94
1.2
-2.18
-6.27
-10.93
-15.63
-19.43
-21.16
-19.95
-15.58
-8.7
-0.55
7.48
14.39
19.73
23.57
26.21
27.9
28.72
28.68
27.88
26.51
24.88
23.21
21.56
19.84
17.89
15.61
12.98
10.07
6.91
3.52
-0.14
-4.05
-8.13
-12.22
-16.13
-19.75
-23.02
-25.98
-28.74
-31.46
-34.31
-37.45
-40.83
-44.08
-46.51
-47.14
-45.09
-39.93
-32.01
-22.4
-12.54
-3.81
2.98
7.68
10.72
12.66
13.9
14.56
14.48
13.51
11.71
9.38
6.95
4.85
3.31
2.33
1.76
1.43
1.26
1.18
1.13
0.95
0.38
-0.79
-2.66
-5.09
-7.79
-10.42
-12.75
-14.7
-16.34
-17.84
-19.36
-20.97
-22.52
-23.6
-23.56
-21.72
-17.6
-11.23
-3.18
5.56
13.93
21.1
26.62
30.37
32.39
32.71
31.45
28.86
25.49
22.02
19.12
17.14
16.04
15.42
14.79
13.81
12.39
10.66
8.82
6.97
5.06
2.99
0.66
-1.96
-4.8
-7.76
-10.73
-13.62
-16.38
-18.96
-21.36
-23.6
-25.76
-27.89
-29.91
-31.48
-32.03
-30.85
-27.4
-21.53
-13.63
-4.61
4.37
12.24
18.34
22.42
24.67
25.38
24.85
23.28
20.88
17.95
14.85
11.97
9.55
7.57
5.82
4.03
2.01
-0.26
-2.64
-4.97
-7.15
-9.12
-10.87
-12.34
-13.49
-14.31
-14.89
-15.4
-16.06
-17.07
-18.51
-20.37
-22.53
-24.65
-26.23
-26.67
-25.39
-22.07
-16.82
-10.19
-3.04
3.71
9.42
13.72
16.59
18.15
18.52
17.8
16.13
13.76
11.09
8.63
6.79
5.81
5.6
5.82
6.05
5.96
5.45
4.59
3.6
2.62
1.7
0.74
-0.43
-1.96
-4.01
-6.68
-10.02
-13.96
-18.2
-22.2
-25.19
-26.42
-25.31
-21.76
-16.15
-9.22
-1.87
5.14
11.3
16.33
20.15
22.74
24.13
24.36
23.61
22.17
20.44
18.76
17.42
16.48
15.85
15.33
14.69
13.76
12.5
10.91
9.03
6.89
4.46
1.72
-1.3
-4.54
-7.92
-11.43
-15.11
-19.01
-22.96
-26.57
-29.11
-29.83
-28.15
-24.02
-17.94
-10.83
-3.74
2.54
7.55
11.21
13.61
14.87
15.08
14.36
12.92
11.13
9.5
8.42
8.1
8.45
9.12
9.65
9.63
8.85
7.28
5.15
2.75
0.35
-1.89
-4
-6.14
-8.52
-11.32
-14.6
-18.28
-22.18
-25.95
-29.12
-31.11
-31.32
-29.34
-25.15
-19.24
-12.49
-5.91
-0.28
4.06
7.17
9.4
11.09
12.38
13.27
13.67
13.57
13.13
12.62
12.3
12.27
12.44
12.59
12.45
11.87
10.82
9.41
7.8
6.1
4.36
2.6
0.82
-0.95
-2.71
-4.51
-6.52
-8.91
-11.7
-14.59
-16.94
-17.93
-16.83
-13.34
-7.75
-0.88
6.19
12.48
17.39
20.76
22.79
23.8
24.05
23.73
22.94
21.83
20.57
19.37
18.37
17.63
17.09
16.65
16.23
15.79
15.28
14.62
13.68
12.27
10.29
7.72
4.69
1.43
-1.86
-5.04
-8.09
-11.15
-14.35
-17.78
-21.31
-24.49
-26.65
-27.06
-25.2
-21.04
-15.14
-8.42
-1.91
3.7
8.12
11.46
13.91
15.52
16.19
15.79
14.41
12.5
10.66
9.44
8.98
9.06
9.16
8.81
7.87
6.49
5.07
3.95
3.23
2.74
2.13
1.06
-0.67
-2.96
-5.56
-8.05
-10.13
-11.67
-12.87
-14.14
-15.97
-18.67
-22.04
-25.38
-27.65
-27.83
-25.36
-20.31
-13.3
-5.19
3.23
11.44
19.08
25.85
31.37
35.34
37.66
38.72
39.29
40.25
42.25
45.42
49.4
53.5
56.96
59.12
59.46
57.42
52.46
44.23
32.9
19.41
5.44
-6.99
-16.13
-21.16
-22.46
-21.42
-19.83
-19.24
-20.43
-23.35
-27.23
-31.06
-33.8
-34.73
-33.5
-30.14
-25.1
-19.1
-13
-7.56
-3.34
-0.54
0.86
1.06
0.32
-1.05
-2.65
-4.04
-4.83
-4.87
-4.27
-3.46
-3
-3.29
-4.45
-6.29
-8.38
-10.3
-11.72
-12.57
-12.97
-13.16
-13.41
-13.96
-14.97
-16.55
-18.74
-21.44
-24.41
-27.2
-29.2
-29.73
-28.36
-25.03
-20.21
-14.7
-9.43
-5.05
-1.86
0.28
1.69
2.73
3.59
4.35
5.03
5.74
6.63
7.89
9.62
11.75
14.05
16.18
17.88
18.96
19.42
19.41
19.11
18.68
18.17
17.56
16.75
15.61
13.96
11.61
8.38
4.12
-1.13
-7.1
-13.24
-18.82
-23.08
-25.48
-25.77
-24.1
-20.91
-16.83
-12.51
-8.51
-5.2
-2.73
-1.02
0.1
0.8
1.16
1.12
0.59
-0.5
-2.09
-4.01
-5.91
-7.44
-8.22
-7.92
-6.3
-3.37
0.58
4.93
8.87
11.72
13.08
13.06
12.13
10.84
9.62
8.6
7.71
6.81
5.95
5.42
5.74
7.52
11.35
17.67
26.6
37.83
50.5
63.37
75.12
84.74
91.79
96.45
99.21
100.63
101.07
100.82
100.26
99.92
100.35
101.8
104.02
106.33
108
108.7
108.59
108.23
108.06
108.03
107.5
105.46
100.91
93.26
82.36
68.52
52.37
34.78
16.73
-0.77
-16.92
-31.46
-44.72
-57.57
-70.97
-85.41
-100.45
-114.73
-126.33
-133.54
-135.54
-132.72
-126.49
-118.6
-110.57
-103.16
-96.48
-90.25
-84.28
-78.63
-73.57
-69.34
-66
-63.38
-61.21
-59.3
-57.69
-56.56
-56.14
-56.58
-57.9
-59.97
-62.62
-65.68
-69.07
-72.76
-76.77
-81.11
-85.72
-90.54
-95.49
-100.58
-105.88
-111.46
-117.28
-123.09
-128.29
-132.01
-133.33
-131.49
-126.19
-117.72
-106.86
-94.7
-82.3
-70.46
-59.66
-50.05
-41.62
-34.23
-27.69
-21.7
-15.89
-9.94
-3.66
2.89
9.46
15.66
21.2
25.94
29.89
33.18
35.87
37.94
39.3
39.82
39.44
38.21
36.26
33.76
30.84
27.59
24.08
20.46
17
14.11
12.14
11.3
11.55
12.72
14.72
17.62
21.65
26.86
32.91
38.98
44.02
47.16
48.18
47.47
45.86
44.11
42.58
41.31
40.13
39.12
38.63
39.09
40.71
43.18
45.7
47.26
47.11
45.04
41.58
37.69
34.56
33.07
33.56
35.57
37.89
38.78
36.45
29.72
18.5
3.99
-11.67
-26.1
-37.5
-45.18
-49.52
-51.63
-52.71
-53.68
-55
-56.7
-58.55
-60.11
-60.85
-60.36
-58.48
-55.44
-51.71
-47.75
-43.69
-39.37
-34.53
-29.22
-23.97
-19.57
-16.64
-15.26
-14.83
-14.48
-13.53
-11.91
-10.09
-8.85
-8.83
-10.25
-12.95
-16.45
-20.13
-23.27
-25.07
-24.76
-21.77
-15.98
-7.78
1.9
11.95
21.32
29.21
35.18
39.05
40.83
40.71
39
36.22
32.99
29.96
27.6
26.11
25.39
25.14
24.92
24.4
23.39
21.89
20.02
17.93
15.7
13.36
10.82
7.97
4.6
0.53
-4.33
-9.78
-15.27
-19.82
-22.32
-21.85
-18.05
-11.33
-2.66
6.72
15.75
23.83
30.77
36.59
41.27
44.66
46.5
46.67
45.32
42.88
40
37.25
34.91
32.91
30.89
28.43
25.28
21.52
17.44
13.45
9.81
6.52
3.32
-0.17
-4.29
-9.22
-14.96
-21.39
-28.14
-34.65
-40.03
-43.25
-43.36
-39.9
-33.13
-24.06
-14.14
-4.7
3.39
9.9
15.02
19
21.89
23.53
23.72
22.55
20.53
18.4
16.86
16.25
16.43
16.87
16.99
16.38
14.97
12.93
10.54
7.98
5.3
2.43
-0.76
-4.31
-8.28
-12.69
-17.67
-23.38
-29.89
-37
-44.08
-49.99
-53.41
-53.22
-48.94
-41
-30.64
-19.44
-8.88
0.16
7.5
13.39
18.23
22.24
25.38
27.45
28.31
28.11
27.18
25.99
24.94
24.25
24.03
24.34
25.21
26.62
28.33
29.74
29.91
27.83
22.92
15.36
6.15
-3.2
-11.2
-16.98
-20.49
-22.32
-23.34
-24.19
-25.06
-25.66
-25.5
-23.98
-20.56
-14.92
-6.88
3.41
15.49
28.63
41.97
54.64
65.96
75.4
82.55
87.06
88.65
87.23
83.03
76.54
68.56
59.87
51.16
42.94
35.55
29.22
24.07
20.09
17.06
14.57
12.06
8.96
4.85
-0.45
-6.88
-14.09
-21.58
-28.79
-35.26
-40.74
-45.24
-49.13
-52.94
-57.23
-62.32
-68.15
-74.17
-79.39
-82.62
-82.79
-79.29
-72.2
-62.25
-50.59
-38.46
-26.79
-16.15
-6.78
1.18
7.57
12.23
15.14
16.56
17.08
17.48
18.52
20.67
23.99
28.1
32.39
36.19
39
40.53
40.72
39.62
37.37
34.1
30.05
25.54
21.01
16.95
13.74
11.56
10.31
9.68
9.16
8.2
6.33
3.24
-1.04
-6.05
-10.93
-14.68
-16.38
-15.53
-12.2
-6.9
-0.52
5.97
11.59
15.48
17
15.96
12.78
8.47
4.4
1.78
1.27
2.74
5.41
8.31
10.68
12.27
13.22
13.84
14.35
14.88
15.4
15.95
16.59
17.37
18.24
19.06
19.63
19.8
19.6
19.13
18.49
17.65
16.44
14.66
12.22
9.27
6.18
3.52
1.86
1.66
3.13
6.14
10.21
14.7
18.91
22.28
24.58
25.8
26.14
25.79
24.83
23.27
21.19
18.88
16.92
15.97
16.54
18.75
22.15
25.85
28.8
30.17
29.59
27.23
23.6
19.34
14.94
10.7
6.76
3.2
0.1
-2.49
-4.64
-6.58
-8.65
-11.17
-14.32
-18
-21.82
-25.18
-27.44
-28.07
-26.84
-23.91
-19.78
-15.18
-10.83
-7.2
-4.44
-2.4
-0.79
0.56
1.63
2.22
2.13
1.37
0.15
-1.1
-1.99
-2.38
-2.36
-2.26
-2.42
-3.05
-4.15
-5.6
-7.23
-8.91
-10.55
-12.07
-13.36
-14.36
-15.08
-15.68
-16.32
-17.15
-18.18
-19.25
-20.07
-20.45
-20.36
-19.96
-19.51
-19.17
-18.9
-18.43
-17.45
-15.79
-13.56
-11.11
-8.87
-7.13
-5.91
-5
-4.17
-3.32
-2.55
-2.04
-1.89
-1.94
-1.86
-1.28
-0.03
1.77
3.73
5.38
6.34
6.54
6.11
5.35
4.62
4.25
4.49
5.41
6.96
8.99
11.31
13.81
16.4
19.03
21.46
23.28
23.91
22.91
20.19
16.14
11.55
7.23
3.69
0.93
-1.46
-3.98
-6.89
-10.06
-13.02
-15.3
-16.72
-17.48
-18.08
-18.98
-20.38
-22.09
-23.75
-25
-25.75
-26.21
-26.75
-27.75
-29.38
-31.56
-33.95
-36.08
-37.42
-37.53
-36.13
-33.24
-29.19
-24.54
-19.87
-15.64
-12.04
-9.07
-6.62
-4.66
-3.21
-2.38
-2.15
-2.4
-2.91
-3.41
-3.69
-3.69
-3.49
-3.21
-2.95
-2.71
-2.37
-1.86
-1.17
-0.44
0.02
-0.14
-1.21
-3.4
-6.79
-11.38
-17.01
-23.28
-29.51
-34.86
-38.49
-39.89
-39.01
-36.18
-31.92
-26.7
-20.76
-14.29
-7.56
-1.03
4.72
9.2
12.25
13.98
14.65
14.44
13.37
11.45
9.04
6.97
6.34
8.14
12.63
19.13
26.2
32.19
35.84
36.68
35.01
31.58
27.16
22.22
16.93
11.24
5.11
-1.43
-8.2
-14.95
-21.37
-27.1
-31.78
-35.07
-36.72
-36.67
-35.03
-32.14
-28.48
-24.6
-21.02
-18.12
-16.12
-15.07
-14.83
-15.15
-15.75
-16.4
-16.91
-17.14
-17.02
-16.47
-15.5
-14.15
-12.6
-11.06
-9.73
-8.74
-8.16
-7.94
-8.05
-8.48
-9.22
-10.3
-11.64
-13.17
-14.8
-16.5
-18.31
-20.25
-22.26
-24.03
-25.01
-24.6
-22.27
-17.89
-11.79
-4.71
2.48
8.97
14.32
18.43
21.45
23.58
24.99
25.7
25.67
24.92
23.59
21.96
20.36
19.06
18.19
17.65
17.19
16.51
15.42
13.88
12.05
10.13
8.27
6.48
4.65
2.64
0.43
-1.93
-4.28
-6.53
-8.73
-11.03
-13.62
-16.5
-19.37
-21.64
-22.59
-21.6
-18.46
-13.41
-7.06
-0.19
6.51
12.46
17.26
20.58
22.16
21.9
19.96
16.91
13.68
11.24
10.31
11
12.74
14.53
15.31
14.46
11.99
8.47
4.69
1.27
-1.56
-3.98
-6.25
-8.54
-10.77
-12.74
-14.35
-15.73
-17.28
-19.46
-22.61
-26.75
-31.56
-36.41
-40.57
-43.29
-43.95
-42.19
-37.9
-31.26
-22.63
-12.51
-1.44
9.99
21.15
31.42
40.25
47.27
52.36
55.68
57.61
58.63
59.16
59.48
59.66
59.61
59.11
57.95
55.95
53.03
49.18
44.42
38.86
32.69
26.2
19.73
13.62
8.08
3.12
-1.42
-5.86
-10.57
-15.83
-21.71
-27.98
-33.97
-38.71
-41.18
-40.61
-36.85
-30.45
-22.47
-14.18
-6.71
-0.85
3
4.81
4.84
3.58
1.72
-0.11
-1.44
-2.15
-2.41
-2.49
-2.51
-2.39
-1.91
-0.92
0.49
2.03
3.3
4.09
4.41
4.49
4.58
4.83
5.24
5.68
6.08
6.33
6.27
5.63
4.06
1.25
-2.82
-7.75
-12.71
-16.63
-18.5
-17.66
-14
-7.89
-0.09
8.5
17.02
24.8
31.38
36.52
40.22
42.57
43.83
44.31
44.38
44.33
44.3
44.25
43.98
43.25
41.91
40.05
37.91
35.79
33.84
31.91
29.64
26.58
22.47
17.36
11.58
5.59
-0.22
-5.66
-10.75
-15.67
-20.67
-26.01
-31.76
-37.74
-43.46
-48.15
-50.97
-51.34
-49.19
-45.04
-39.87
-34.77
-30.55
-27.47
-25.2
-22.96
-19.88
-15.34
-9.21
-2
5.38
11.95
17.03
20.57
23
25
27.01
29.05
30.72
31.5
31.11
29.7
27.76
25.79
24.05
22.39
20.41
17.71
14.14
9.87
5.24
0.67
-3.57
-7.27
-10.31
-12.5
-13.66
-13.66
-12.49
-10.27
-7.23
-3.65
0.17
3.92
7.27
9.86
11.41
11.8
11.15
9.8
8.15
6.54
5.14
3.92
2.81
1.74
0.71
-0.26
-1.2
-2.21
-3.45
-5.02
-6.9
-8.96
-11.06
-13.18
-15.4
-17.89
-20.79
-24
-27.15
-29.64
-30.77
-29.99
-27.06
-22.14
-15.77
-8.73
-1.86
4.2
9.12
12.92
15.8
17.98
19.58
20.56
20.83
20.39
19.41
18.23
17.23
16.64
16.46
16.42
16.1
15.12
13.35
10.96
8.35
5.99
4.17
2.93
2.07
1.16
-0.21
-2.36
-5.38
-9.04
-12.87
-16.18
-18.27
-18.58
-17
-13.92
-10.22
-7.01
-5.27
-5.46
-7.31
-9.93
-12.12
-12.8
-11.43
-8.25
-4.15
-0.43
1.69
1.44
-1.27
-5.84
-11.25
-16.46
-20.74
-23.94
-26.33
-28.36
-30.34
-32.21
-33.67
-34.37
-34.18
-33.26
-31.97
-30.62
-29.33
-28.04
-26.67
-25.17
-23.58
-21.76
-19.36
-15.87
-10.83
-4.25
3.3
10.8
17.24
22.01
25.05
26.71
27.43
27.54
27.4
27.66
29.34
33.65
41.32
52.11
64.53
76.36
85.51
90.89
92.7
92.11
90.43
88.42
85.98
82.54
77.53
70.93
63.23
55.21
47.47
40.23
33.32
26.46
19.44
12.15
4.56
-3.42
-11.88
-20.81
-29.97
-38.83
-46.73
-53.01
-57.2
-59.03
-58.48
-55.7
-51.1
-45.3
-39.18
-33.61
-29.3
-26.52
-25.07
-24.47
-24.14
-23.71
-23.11
-22.45
-21.91
-21.51
-21.08
-20.28
-18.73
-16.15
-12.47
-7.83
-2.51
3.13
8.77
14.2
19.3
24.02
28.29
32
35.04
37.31
38.74
39.31
39.04
37.96
36.09
33.49
30.33
26.87
23.46
20.42
17.98
16.14
14.64
13.09
11.08
8.34
4.83
0.79
-3.36
-7.22
-10.54
-13.19
-15.19
-16.55
-17.29
-17.46
-17.2
-16.8
-16.59
-16.82
-17.51
-18.45
-19.25
-19.61
-19.44
-18.88
-18.29
-17.94
-17.95
-18.17
-18.3
-18.06
-17.26
-15.95
-14.35
-12.74
-11.33
-10.22
-9.33
-8.51
-7.61
-6.49
-5.13
-3.54
-1.8
0.01
1.79
3.48
5.03
6.42
7.63
8.59
9.2
9.31
8.8
7.62
5.89
3.86
1.87
0.23
-0.96
-1.72
-2.24
-2.69
-3.13
-3.48
-3.55
-3.24
-2.54
-1.55
-0.45
0.6
1.49
2.09
2.3
2
1.13
-0.26
-2.08
-4.21
-6.61
-9.27
-12.03
-14.58
-16.41
-17.04
-16.19
-14
-10.94
-7.63
-4.53
-1.8
0.61
2.87
5.02
6.92
8.31
8.99
8.93
8.3
7.42
6.56
5.93
5.51
5.13
4.53
3.56
2.19
0.57
-1.07
-2.55
-3.8
-4.93
-6.11
-7.58
-9.47
-11.82
-14.6
-17.67
-20.85
-23.82
-26.25
-27.74
-28.04
-27.07
-25.01
-22.28
-19.36
-16.65
-14.36
-12.48
-10.96
-9.79
-9.15
-9.33
-10.52
-12.63
-15.25
-17.77
-19.69
-20.8
-21.32
-21.72
-22.42
-23.61
-25.13
-26.57
-27.46
-27.46
-26.42
-24.49
-22.01
-19.55
-17.81
-17.48
-19.06
-22.62
-27.68
-33.32
-38.4
-42
-43.68
-43.59
-42.35
-40.71
-39.24
-38.06
-36.97
-35.54
-33.44
-30.64
-27.4
-24.25
-21.62
-19.69
-18.14
-16.35
-13.64
-9.73
-4.88
0.18
4.61
7.93
10.24
12.13
14.26
16.98
20.17
23.3
25.8
27.36
28.04
28.13
28.01
28.07
28.77
30.64
34.33
40.31
48.66
58.95
70.26
81.49
91.75
100.5
107.67
113.44
118.11
121.93
125.02
127.37
128.87
129.38
128.72
126.72
123.12
117.51
109.32
97.94
82.99
64.56
43.33
20.28
-3.56
-27.5
-51.23
-74.56
-97.11
-118.13
-136.65
-151.87
-163.55
-172.07
-178.12
-182.18
-184.16
-183.37
-178.9
-170.19
-157.38
-141.42
-123.73
-105.76
-88.54
-72.53
-57.79
-44.23
-31.9
-21.06
-12.08
-5.2
-0.29
3.05
5.44
7.36
9.05
10.44
11.36
11.69
11.59
11.38
11.42
11.87
12.62
13.36
13.74
13.52
12.71
11.43
9.93
8.34
6.73
4.97
2.79
-0.12
-4.08
-9.24
-15.47
-22.27
-28.78
-33.97
-36.87
-36.98
-34.33
-29.56
-23.67
-17.66
-12.24
-7.66
-3.81
-0.45
2.54
5.09
7
8.24
9.05
9.98
11.58
14.17
17.6
21.34
24.71
27.15
28.52
29
28.95
28.73
28.49
28.18
27.57
26.42
24.53
21.86
18.53
14.78
10.9
7.1
3.42
-0.22
-4.05
-8.29
-13.1
-18.51
-24.36
-30.22
-35.36
-38.78
-39.53
-36.96
-31.08
-22.58
-12.64
-2.54
6.81
15
22.02
27.98
32.83
36.34
38.25
38.58
37.73
36.4
35.33
34.95
35.26
35.84
36.15
35.77
