5.97
5.68
4.24
1.97
-0.53
-2.61
-3.76
-3.89
-3.25
-2.33
-1.59
-1.25
-1.31
-1.6
-1.92
-2.21
-2.55
-3.16
-4.3
-6.13
-8.74
-12.02
-15.78
-19.61
-23
-25.31
-25.9
-24.36
-20.64
-15.22
-8.95
-2.82
2.39
6.26
8.79
10.14
10.44
9.64
7.72
4.83
1.45
-1.72
-4.03
-5.19
-5.44
-5.36
-5.6
-6.55
-8.26
-10.47
-12.87
-15.22
-17.43
-19.54
-21.68
-24.1
-27.06
-30.81
-35.4
-40.47
-45.28
-48.77
-49.95
-48.23
-43.68
-36.98
-29.18
-21.34
-14.22
-8.16
-3.11
1.19
4.98
8.48
11.75
14.82
17.69
20.46
23.23
26.1
29.06
31.99
34.6
36.58
37.72
37.93
37.32
36.06
34.29
31.96
28.87
24.78
19.47
12.93
5.32
-2.92
-11.16
-18.59
-24.32
-27.56
-27.84
-25.12
-19.88
-12.86
-4.93
3.22
11.15
18.58
25.31
31.03
35.4
38.12
39.07
38.42
36.59
34.1
31.46
29.02
26.85
24.88
22.88
20.64
18.07
15.18
12.08
8.9
5.69
2.41
-1.05
-4.83
-9.11
-14.02
-19.56
-25.53
-31.4
-36.35
-39.42
-39.81
-37.15
-31.73
-24.37
-16.17
-8.13
-0.91
5.19
10.11
13.84
16.34
17.53
17.49
16.52
15.13
13.89
13.21
13.25
13.83
14.63
15.27
15.55
15.44
15.02
14.5
13.98
13.52
13
12.29
11.21
9.58
7.29
4.33
0.83
-2.8
-5.96
-7.9
-7.92
-5.58
-0.87
5.72
13.35
21.07
28.04
33.79
38.13
41.11
42.8
43.21
42.38
40.42
37.73
34.91
32.66
31.45
31.38
32.07
32.93
33.4
33.19
32.36
31.23
30.1
29.13
28.28
27.36
26.16
24.55
22.41
19.74
16.62
13.27
10.18
7.98
7.23
8.24
10.85
14.56
18.63
22.41
25.46
27.55
28.6
28.54
27.43
25.45
23
20.6
18.77
17.83
17.77
18.35
19.16
19.84
20.18
20.18
20.01
19.93
20.22
20.99
22.16
23.42
24.33
24.44
23.4
21.08
17.6
13.38
9
5.18
2.53
1.36
1.62
2.92
4.7
6.41
7.66
8.22
8.01
7.03
5.42
3.42
1.4
-0.26
-1.28
-1.65
-1.52
-1.12
-0.61
-0.02
0.72
1.72
3.03
4.63
6.37
8.03
9.34
10.06
10.07
9.47
8.6
7.91
7.77
8.28
9.2
10.03
10.21
9.4
7.58
4.99
2.04
-0.86
-3.37
-5.23
-6.26
-6.39
-5.72
-4.58
-3.45
-2.84
-3.11
-4.36
-6.43
-8.95
-11.53
-14.01
-16.51
-19.51
-23.82
-30.26
-39.39
-51.17
-64.71
-78.3
-89.75
-96.78
-97.68
-91.62
-78.89
-60.82
-39.44
-17.08
4.13
22.75
38.27
51.14
62.52
73.85
86.36
100.75
116.99
134.37
151.59
166.9
178.23
183.6
181.77
172.9
159.03
143.86
131.74
126.16
128.28
136.32
146.08
152.55
151.76
142.24
125.31
104.27
83
64.52
50.29
40.26
33.46
28.68
24.99
21.71
18.27
14.03
8.25
0.42
-9.48
-20.72
-32.05
-42.12
-50.03
-55.76
-60.05
-64.05
-68.71
-74.42
-80.91
-87.57
-93.8
-99.26
-103.86
-107.55
-110.19
-111.45
-111.06
-108.95
-105.4
-100.92
-96.1
-91.35
-86.89
-82.68
-78.58
-74.26
-69.38
-63.48
-56.28
-47.92
-39.19
-31.49
-26.41
-25.21
-28.25
-34.96
-44.07
-54.2
-64.25
-73.48
-81.33
-87.1
-89.95
-89.11
-84.16
-75.12
-62.27
-46.03
-26.86
-5.55
16.56
37.51
55.19
67.88
74.94
76.96
75.45
72.38
69.67
68.97
71.49
77.88
87.77
99.47
109.86
114.98
111.23
96.66
71.96
40.31
6.43
-25.02
-50.95
-70.4
-84.21
-93.9
-100.7
-105.05
-106.88
-106.29
-104.04
-101.52
-100.13
-100.57
-102.47
-104.66
-105.84
-105.33
-103.39
-100.99
-99.22
-98.7
-99.28
-100.18
-100.47
-99.59
-97.68
-95.5
-94.05
-94.07
-95.72
-98.53
-101.81
-105.11
-108.52
-112.62
-118.12
-125.35
-134.04
-143.32
-152.09
-159.44
-164.83
-168.29
-170.27
-171.59
-173.23
-176.06
-180.56
-186.57
-193.24
-199.3
-203.38
-204.28
-201.25
-193.99
-182.58
-167.45
-149.11
-128.01
-104.48
-78.83
-51.56
-23.71
3.18
27.37
47.69
64
77.22
88.67
99.16
108.41
115.28
118.68
118.46
115.8
112.72
111.22
112.25
115.39
119.06
121.21
120.01
114.3
103.77
89.07
71.7
53.86
38
26.12
19.28
17.28
18.88
22.35
26.14
29.3
31.55
33
33.87
34.31
34.4
34.26
34.22
34.75
36.25
38.83
42.18
45.52
47.77
47.72
44.49
37.81
28.19
16.81
5.13
-5.67
-15.07
-23.28
-30.89
-38.35
-45.48
-51.3
-54.39
-53.4
-47.77
-38.01
-25.64
-12.53
-0
11.76
23.74
37.41
53.69
72.22
91.18
108.06
120.65
127.93
130.22
128.69
124.63
118.81
111.46
102.59
92.36
81.31
70.14
59.44
49.4
39.85
30.46
21.06
11.87
3.45
-3.46
-8.38
-11.28
-12.7
-13.56
-14.85
-17.34
-21.31
-26.56
-32.43
-37.98
-42.23
-44.37
-43.89
-40.71
-35.11
-27.71
-19.29
-10.66
-2.49
4.72
10.75
15.54
19.13
21.55
22.81
22.92
22.03
20.48
18.81
17.62
17.29
17.86
18.95
20
20.42
19.81
17.96
14.77
10.21
4.36
-2.42
-9.4
-15.5
-19.61
-20.91
-19.28
-15.28
-9.92
-4.28
0.89
5.25
8.89
11.97
14.59
16.59
17.73
17.82
16.87
15.18
13.14
11.16
9.46
8.1
7.01
6.17
5.67
5.63
6.08
6.84
7.45
7.34
6.03
3.29
-0.7
-5.34
-9.79
-13.12
-14.55
-13.63
-10.36
-5.13
1.34
8.22
14.66
20
23.8
25.88
26.25
25.12
22.87
19.98
16.97
14.28
12.19
10.79
9.96
9.44
8.95
8.22
7.09
5.5
3.38
0.7
-2.61
-6.54
-10.85
-15.06
-18.48
-20.38
-20.2
-17.76
-13.29
-7.33
-0.54
6.41
13.01
18.83
23.54
26.9
28.8
29.34
28.79
27.53
25.9
24.13
22.28
20.39
18.53
16.85
15.55
14.67
14.07
13.37
12.08
9.83
6.52
2.32
-2.41
-7.23
-11.68
-15.25
-17.45
-17.78
-15.94
-12.03
-6.55
-0.4
5.47
10.29
13.63
15.51
16.15
15.87
14.93
13.48
11.56
9.2
6.39
3.17
-0.39
-4.17
-7.97
-11.6
-14.87
-17.68
-20.04
-22.03
-23.75
-25.25
-26.6
-27.82
-28.92
-29.74
-29.88
-28.67
-25.4
-19.63
-11.45
-1.63
8.65
18.2
26.23
32.51
37.22
40.65
42.95
44.07
43.9
42.48
40.05
36.98
33.69
30.51
27.59
24.87
22.03
18.57
14.04
8.36
1.92
-4.41
-9.74
-13.51
-15.74
-16.88
-17.24
-16.62
-14.3
-9.43
-1.78
7.88
17.91
26.45
32.24
35.06
35.5
34.45
32.52
29.83
26.22
21.62
16.41
11.31
7.11
4.18
2.4
1.32
0.52
-0.2
-0.73
-0.92
-0.88
-1.03
-1.93
-3.9
-6.74
-9.59
-11.31
-10.9
-7.94
-2.75
3.75
10.46
16.54
21.57
25.58
28.81
31.39
33.25
34.1
33.63
31.69
28.46
24.35
19.82
15.16
10.45
5.57
0.43
-4.79
-9.64
-13.52
-15.98
-17.01
-17.18
-17.37
-18.38
-20.41
-22.93
-24.78
-24.7
-21.86
-16.21
-8.44
0.28
8.76
16.12
21.87
25.81
27.9
28.16
26.76
24.08
20.66
17.13
14.02
11.59
9.84
8.56
7.47
6.33
5
3.45
1.7
-0.2
-2.3
-4.71
-7.63
-11.16
-15.11
-18.92
-21.68
-22.41
-20.45
-15.81
-9.16
-1.64
5.51
11.36
15.44
17.68
18.3
17.67
16.2
14.29
12.28
10.35
8.54
6.76
4.94
3.06
1.17
-0.64
-2.42
-4.24
-6.3
-8.74
-11.63
-14.96
-18.58
-22.19
-25.35
-27.47
-27.92
-26.22
-22.2
-16.22
-9.08
-1.85
4.43
9.09
11.93
13.16
13.21
12.48
11.23
9.62
7.74
5.74
3.86
2.26
1.06
0.18
-0.55
-1.37
-2.48
-4.07
-6.26
-9.17
-12.79
-16.94
-21.18
-24.79
-26.94
-26.9
-24.24
-19.09
-12.13
-4.42
2.89
8.89
13.08
15.41
16.16
15.69
14.32
12.34
9.96
7.45
5.1
3.21
1.92
1.23
0.94
0.74
0.36
-0.43
-1.76
-3.75
-6.46
-9.93
-14.02
-18.25
-21.85
-23.83
-23.32
-19.92
-13.89
-6.14
2.02
9.36
14.99
18.53
20.07
19.99
18.72
16.7
14.31
11.88
9.71
7.99
6.77
5.93
5.25
4.45
3.33
1.81
-0.08
-2.27
-4.79
-7.74
-11.27
-15.34
-19.58
-23.17
-25.08
-24.35
-20.53
-13.95
-5.61
3.1
10.91
16.98
21
23.09
23.53
22.61
20.61
17.86
14.79
11.9
9.58
8.02
7.1
6.48
5.78
4.71
3.11
0.93
-1.88
-5.38
-9.61
-14.48
-19.57
-24.16
-27.33
-28.2
-26.29
-21.68
-15.08
-7.51
-0.1
6.27
11.07
14.09
15.37
15.04
13.32
10.5
6.96
3.18
-0.39
-3.37
-5.59
-7.04
-7.94
-8.64
-9.54
-11.02
-13.37
-16.7
-20.98
-25.93
-30.99
-35.36
-38.06
-38.26
-35.54
-30.11
-22.83
-14.95
-7.64
-1.69
2.65
5.5
7.16
7.78
7.38
5.92
3.55
0.64
-2.24
-4.57
-6.1
-6.94
-7.53
-8.44
-10.14
-12.92
-16.78
-21.62
-27.2
-33.21
-39.11
-44.12
-47.19
-47.32
-43.84
-36.78
-26.95
-15.75
-4.74
4.82
12.25
17.49
20.88
22.86
23.82
24.02
23.69
23.18
22.92
23.35
24.76
27.15
30.19
33.32
35.85
37.14
36.68
34.13
29.41
22.8
15.02
7.28
0.99
-2.56
-2.64
0.67
6.61
13.99
21.64
28.66
34.55
39.02
41.85
42.84
41.83
38.89
34.4
29.04
23.64
18.91
15.27
12.76
11.05
9.62
7.89
5.39
1.82
-2.9
-8.71
-15.26
-21.93
-27.76
-31.66
-32.64
-30.16
-24.37
-16.06
-6.46
3.17
11.82
18.86
24.04
27.3
28.67
28.22
26.2
23.01
19.27
15.66
12.68
10.5
8.92
7.5
5.75
3.32
0.08
-3.93
-8.64
-13.9
-19.45
-24.73
-28.91
-30.99
-30.18
-26.21
-19.48
-10.94
-1.75
7.08
14.89
21.33
26.22
29.39
30.7
30.1
27.82
24.38
20.39
16.45
12.89
9.77
6.98
4.36
1.81
-0.7
-3.21
-5.87
-8.92
-12.68
-17.33
-22.69
-28.13
-32.57
-34.8
-33.84
-29.3
-21.56
-11.56
-0.55
10.32
20.26
28.81
35.72
40.79
43.88
44.99
44.4
42.7
40.62
38.76
37.4
36.4
35.37
33.89
31.75
29.01
25.97
22.94
20.1
17.41
14.61
11.35
7.33
2.32
-3.79
-10.87
-18.47
-25.79
-31.7
-35.07
-35.07
-31.56
-25.16
-17.05
-8.51
-0.52
6.39
12.1
16.59
19.76
21.42
21.45
20.03
17.71
15.19
13.13
11.81
11.11
10.62
9.88
8.58
6.65
4.29
1.78
-0.62
-2.76
-4.69
-6.6
-8.79
-11.6
-15.26
-19.84
-25.09
-30.45
-35.04
-37.9
-38.21
-35.56
-30.12
-22.64
-14.19
-5.83
1.63
7.8
12.54
15.83
17.62
17.92
16.8
14.57
11.78
9.01
6.77
5.24
4.34
3.73
3.07
2.07
0.67
-1.02
-2.79
-4.38
-5.61
-6.5
-7.26
-8.25
-9.8
-12.19
-15.42
-19.24
-23.1
-26.24
-27.84
-27.25
-24.17
-18.76
-11.62
-3.6
4.41
11.78
18.15
23.45
27.72
30.95
33.1
34.18
34.36
33.99
33.53
33.3
33.37
33.51
33.36
32.57
30.99
28.74
26.07
23.19
20.2
17.05
13.63
9.88
5.79
1.43
-3.13
-7.79
-12.33
-16.33
-19.25
-20.55
-19.87
-17.23
-13.1
-8.18
-3.24
1.13
4.63
7.18
8.83
9.66
9.73
9.11
7.98
6.57
5.14
3.95
3.07
2.43
1.84
1.07
-0.03
-1.51
-3.27
-5.13
-6.91
-8.49
-9.89
-11.25
-12.8
-14.75
-17.2
-19.98
-22.67
-24.63
-25.25
-24.16
-21.35
-17.18
-12.19
-6.99
-2.06
2.22
5.57
7.81
8.87
8.84
7.98
6.69
5.38
4.32
3.6
3.09
2.57
1.85
0.85
-0.38
-1.68
-2.89
-3.89
-4.72
-5.55
-6.59
-8.06
-10.06
-12.53
-15.31
-18.05
-20.34
-21.74
-21.89
-20.6
-17.98
-14.36
-10.28
-6.24
-2.65
0.21
2.26
3.48
3.94
3.78
3.24
2.61
2.18
2.2
2.75
3.75
5.01
6.27
7.28
7.89
8.09
7.93
7.51
6.91
6.11
5.02
3.49
1.48
-0.92
-3.41
-5.54
-6.83
-6.91
-5.72
-3.43
-0.48
2.66
5.57
7.94
9.61
10.54
10.78
10.41
9.62
8.59
7.58
6.8
6.41
6.46
6.91
7.65
8.54
9.49
10.43
11.37
12.31
13.27
14.21
15.1
15.88
16.48
16.91
17.19
17.41
17.76
18.49
19.83
21.87
24.47
27.28
29.8
31.59
32.39
32.2
31.17
29.59
27.65
25.49
23.14
20.57
17.76
14.76
11.66
8.56
5.59
2.77
0.07
-2.58
-5.26
-7.99
-10.75
-13.46
-16.07
-18.62
-21.12
-23.59
-25.94
-27.91
-29.17
-29.41
-28.48
-26.52
-23.9
-21.14
-18.73
-16.99
-15.99
-15.6
-15.62
-15.84
-16.14
-16.42
-16.64
-16.71
-16.55
-16.08
-15.32
-14.38
-13.44
-12.68
-12.18
-11.9
-11.81
-11.87
-12.19
-12.89
-14.03
-15.42
-16.63
-17.11
-16.39
-14.32
-11.13
-7.37
-3.69
-0.59
1.69
3.2
4.1
4.65
4.99
5.26
5.52
5.8
6.1
6.39
6.56
6.52
6.2
5.58
4.77
3.85
2.87
1.77
0.38
-1.49
-3.94
-6.86
-9.97
-12.79
-14.86
-15.86
-15.69
-14.58
-12.91
-11.15
-9.65
-8.62
-8.03
-7.79
-7.77
-7.93
-8.33
-9.08
-10.21
-11.66
-13.21
-14.58
-15.52
-15.91
-15.82
-15.44
-14.96
-14.57
-14.35
-14.35
-14.62
-15.19
-15.99
-16.77
-17.08
-16.39
-14.32
-10.78
-6.11
-0.9
4.12
8.38
11.61
13.83
15.29
16.3
17.06
17.66
18.03
18.1
17.81
17.17
16.24
15.1
13.8
12.36
10.78
9.07
7.23
5.2
2.83
-0.05
-3.49
-7.3
-11
-13.93
-15.52
-15.49
-14
-11.57
-8.84
-6.4
-4.58
-3.46
-2.92
-2.8
-2.98
-3.37
-3.93
-4.63
-5.43
-6.23
-6.92
-7.39
-7.61
-7.59
-7.49
-7.45
-7.59
-7.94
-8.51
-9.26
-10.14
-11.12
-12.04
-12.61
-12.47
-11.25
-8.78
-5.17
-0.84
3.63
7.64
10.79
12.95
14.17
14.66
14.62
14.16
13.29
12.03
10.37
8.44
6.4
4.38
2.43
0.46
-1.69
-4.18
-7.09
-10.4
-14.05
-17.93
-21.96
-25.98
-29.66
-32.58
-34.25
-34.32
-32.72
-29.7
-25.76
-21.51
-17.51
-14.1
-11.42
-9.47
-8.19
-7.56
-7.56
-8.18
-9.28
-10.63
-11.95
-12.98
-13.61
-13.87
-13.94
-14
-14.16
-14.39
-14.61
-14.79
-15.01
-15.47
-16.3
-17.49
-18.7
-19.38
-18.91
-16.89
-13.32
-8.63
-3.53
1.24
5.2
8.16
10.18
11.37
11.82
11.54
10.57
9.07
7.33
5.73
4.59
4.02
3.9
3.97
3.92
3.55
2.81
1.73
0.38
-1.29
-3.39
-6.03
-9.15
-12.33
-14.84
-15.84
-14.75
-11.47
-6.51
-0.79
4.73
9.29
12.57
14.58
15.51
15.58
15.01
14.06
12.99
12.1
11.57
11.44
11.61
11.87
12.07
12.17
12.18
12.21
12.27
12.36
12.35
12.06
11.33
10.14
8.63
7.18
6.27
6.41
7.89
10.67
14.37
18.31
21.82
24.36
25.66
25.71
24.69
22.79
20.25
17.27
14.09
11
8.26
6.03
4.28
2.81
1.34
-0.36
-2.34
-4.48
-6.61
-8.66
-10.74
-13.03
-15.62
-18.3
-20.49
-21.44
-20.49
-17.39
-12.49
-6.59
-0.67
4.45
8.31
10.83
12.16
12.48
11.91
10.53
8.5
6.09
3.67
1.61
0.12
-0.76
-1.21
-1.45
-1.68
-2.04
-2.6
-3.45
-4.71
-6.5
-8.81
-11.4
-13.74
-15.11
-14.81
-12.4
-7.93
-1.95
4.68
11.05
16.45
20.51
23.19
24.67
25.16
24.85
23.85
22.31
20.39
18.3
16.28
14.48
13
11.8
10.73
9.62
8.32
6.74
4.86
2.65
0.12
-2.65
-5.44
-7.77
-9.01
-8.55
-6.05
-1.67
3.9
9.71
14.76
18.39
20.3
20.53
19.31
16.93
13.67
9.82
5.73
1.76
-1.77
-4.66
-6.89
-8.57
-9.9
-11.12
-12.44
-14.01
-15.92
-18.19
-20.73
-23.34
-25.64
-27.18
-27.44
-26
-22.67
-17.64
-11.44
-4.83
1.42
6.66
10.55
12.95
13.94
13.67
12.37
10.34
8
5.74
3.93
2.77
2.25
2.2
2.32
2.3
1.84
0.71
-1.25
-4.12
-7.8
-12.06
-16.39
-20.14
-22.6
-23.18
-21.67
-18.28
-13.65
-8.59
-3.87
0.05
3
5.02
6.2
6.51
5.93
4.45
2.27
-0.25
-2.58
-4.23
-4.89
-4.53
-3.37
-1.81
-0.3
0.81
1.29
1.02
0.04
-1.55
-3.46
-5.2
-6.14
-5.7
-3.52
0.3
5.29
10.75
16.03
20.75
24.82
28.22
30.91
32.68
33.26
32.54
30.67
28.07
25.28
22.7
20.49
18.55
16.63
14.51
12.06
9.31
6.38
3.43
0.6
-2
-4.19
-5.72
-6.32
-5.74
-4.02
-1.48
1.32
3.78
5.47
6.29
6.38
5.91
4.95
3.39
1.04
-2.17
-6.04
-10.19
-14.2
-17.76
-20.75
-23.2
-25.16
-26.63
-27.62
-28.21
-28.65
-29.24
-30.26
-31.69
-33.16
-34.04
-33.68
-31.75
-28.39
-24.15
-19.72
-15.58
-11.88
-8.52
-5.38
-2.59
-0.48
0.51
0.2
-1.2
-3.09
-4.83
-5.99
-6.5
-6.68
-6.91
-7.44
-8.25
-9.11
-9.74
-10.01
-10.08
-10.32
-11.12
-12.65
-14.67
-16.53
-17.41
-16.64
-13.98
-9.76
-4.73
0.23
4.4
7.44
9.39
10.46
10.91
10.86
10.32
9.31
7.93
6.36
4.9
3.78
3.13
2.89
2.84
2.68
2.2
1.24
-0.18
-2.01
-4.13
-6.38
-8.47
-10.05
-10.66
-9.95
-7.76
-4.25
0.08
4.55
8.48
11.41
13.19
13.97
14.08
13.79
13.26
12.49
11.4
10.02
8.47
7.01
5.93
5.31
5.07
4.94
4.57
3.7
2.2
0.07
-2.56
-5.45
-8.27
-10.65
-12.11
-12.32
-11.06
-8.42
-4.76
-0.62
3.38
6.75
9.19
10.67
11.31
11.36
11.07
10.61
10.08
9.51
8.91
8.28
7.62
6.93
6.2
5.39
4.44
3.34
2.07
0.66
-0.89
-2.62
-4.59
-6.82
-9.17
-11.24
-12.48
-12.39
-10.7
-7.55
-3.47
0.83
4.72
7.82
10.05
11.51
12.33
12.6
12.38
11.69
10.64
9.36
8.01
6.73
5.6
4.71
4.06
3.63
3.34
3.02
2.49
1.59
0.22
-1.63
-3.94
-6.58
-9.26
-11.58
-13.02
-13.12
-11.66
-8.76
-4.94
-0.85
2.9
5.95
8.21
9.77
10.73
11.16
11.04
10.41
9.41
8.3
7.3
6.57
6.08
5.7
5.27
4.68
3.91
3
1.93
0.7
-0.77
-2.49
-4.41
-6.49
-8.66
-10.93
-13.21
-15.35
-16.99
-17.73
-17.2
-15.33
-12.38
-8.86
-5.43
-2.62
-0.72
0.18
0.22
-0.48
-1.75
-3.48
-5.5
-7.63
-9.59
-11.15
-12.1
-12.36
-12.01
-11.22
-10.27
-9.35
-8.57
-7.95
-7.43
-7
-6.68
-6.54
-6.64
-6.96
-7.36
-7.57
-7.22
-5.97
-3.59
-0.1
4.23
8.91
13.42
17.32
20.41
22.68
24.25
25.21
25.58
25.31
24.41
22.96
21.19
19.35
17.69
16.3
15.15
14.07
12.9
11.48
9.75
7.77
5.62
3.42
1.24
-0.95
-3.26
-5.82
-8.67
-11.69
-14.56
-16.82
-17.98
-17.74
-16.06
-13.21
-9.67
-6
-2.6
0.29
2.65
4.54
5.98
6.93
7.27
6.97
6.13
4.94
3.64
2.36
1.07
-0.4
-2.22
-4.46
-6.9
-9.16
-10.73
-11.23
-10.5
-8.68
-6.16
-3.44
-0.97
0.96
2.27
3.05
3.51
3.81
4.03
4.13
4
3.6
3.02
2.47
2.21
2.44
3.19
4.35
5.74
7.28
8.97
10.82
12.79
14.67
16.2
17.12
17.39
17.21
16.88
16.67
16.64
16.68
16.6
16.27
15.7
15.07
14.49
14.02
13.57
12.98
12.16
11.19
10.3
9.71
9.56
9.77
10.03
9.97
9.29
7.87
5.8
3.29
0.55
-2.28
-5.14
-8
-10.76
-13.26
-15.29
-16.72
-17.56
-17.99
-18.29
-18.7
-19.36
-20.24
-21.3
-22.42
-23.59
-24.84
-26.26
-27.9
-29.76
-31.66
-33.29
-34.24
-34.11
-32.62
-29.77
-25.81
-21.13
-16.19
-11.36
-6.9
-2.97
0.28
2.76
4.42
5.37
5.81
6.03
6.23
6.5
6.75
6.84
6.68
6.29
5.78
5.3
4.97
4.77
4.61
4.38
3.9
3.07
1.76
-0.06
-2.3
-4.67
-6.72
-7.92
-7.84
-6.32
-3.55
0.01
3.76
7.14
9.82
11.65
12.71
13.15
13.12
12.78
12.21
11.47
10.62
9.71
8.75
7.77
6.78
5.78
4.75
3.7
2.61
1.49
0.3
-0.98
-2.45
-4.18
-6.29
-8.78
-11.53
-14.2
-16.32
-17.36
-16.91
-14.84
-11.36
-6.95
-2.22
2.23
5.94
8.64
10.2
10.64
10.11
8.83
7.12
5.31
3.7
2.45
1.55
0.83
0.12
-0.72
-1.68
-2.65
-3.49
-4.12
-4.64
-5.25
-6.24
-7.84
-10.12
-13.03
-16.32
-19.59
-22.31
-23.94
-23.99
-22.2
-18.64
-13.78
-8.35
-3.16
1.12
4.15
5.91
6.59
6.48
5.85
4.97
4.05
3.24
2.62
2.11
1.58
0.91
0.07
-0.85
-1.69
-2.41
-3.09
-3.94
-5.19
-6.94
-9.19
-11.86
-14.85
-18.07
-21.33
-24.24
-26.22
-26.65
-25.07
-21.47
-16.26
-10.21
-4.14
1.27
5.64
8.85
10.92
11.97
12.09
11.43
10.17
8.56
6.87
5.3
3.96
2.84
1.85
0.86
-0.23
-1.47
-2.9
-4.52
-6.34
-8.41
-10.85
-13.79
-17.34
-21.36
-25.42
-28.78
-30.6
-30.18
-27.26
-22.09
-15.37
-8.03
-0.94
5.24
10.11
13.49
15.38
15.9
15.29
13.86
11.98
10.02
8.26
6.82
5.68
4.65
3.51
2.1
0.41
-1.43
-3.25
-4.95
-6.67
-8.75
-11.62
-15.52
-20.33
-25.43
-29.86
-32.56
-32.73
-30.08
-24.89
-17.9
-10.1
-2.4
4.46
10
13.95
16.17
16.71
15.77
13.74
11.18
8.57
6.26
4.35
2.7
1.07
-0.8
-2.99
-5.45
-8.05
-10.73
-13.5
-16.52
-19.96
-23.92
-28.29
-32.68
-36.42
-38.62
-38.38
-35.04
-28.36
-18.68
-6.81
6.09
18.86
30.5
40.38
48.17
53.79
57.29
58.84
58.73
57.32
55.01
52.12
48.78
44.99
40.65
35.72
30.26
24.49
18.66
13
7.61
2.46
-2.66
-8
-13.77
-19.95
-26.18
-31.61
-35.18
-35.85
-33.04
-26.88
-18.26
-8.5
0.95
8.94
14.83
18.45
20.04
20
18.76
16.69
14.08
11.19
8.25
5.51
3.19
1.39
0.04
-1.04
-2.13
-3.44
-5.08
-7.08
-9.5
-12.49
-16.24
-20.81
-25.88
-30.7
-34.11
-34.94
-32.35
-26.17
-17.06
-6.3
4.58
14.14
21.42
26.04
28.18
28.31
27.04
24.92
22.36
19.66
17.01
14.56
12.37
10.45
8.76
7.23
5.85
4.59
3.42
2.26
0.89
-1.01
-3.8
-7.72
-12.73
-18.35
-23.64
-27.37
-28.34
-25.77
-19.63
-10.68
-0.28
10.01
18.84
25.35
29.24
30.66
30.04
27.91
24.85
21.36
17.89
14.73
11.99
9.64
7.55
5.54
3.44
1.16
-1.33
-4.03
-6.94
-10.16
-13.92
-18.55
-24.32
-31.2
-38.61
-45.34
-49.8
-50.44
-46.33
-37.5
-25.03
-10.73
3.44
15.88
25.64
32.44
36.53
38.41
38.66
37.81
36.31
34.44
32.35
30.05
27.49
24.64
21.51
18.13
14.57
10.83
6.88
2.71
-1.76
-6.61
-12.01
-18.09
-24.78
-31.63
-37.67
-41.56
-41.99
-38.21
-30.39
-19.65
-7.77
3.45
12.62
19.08
22.76
24.03
23.4
21.41
18.63
15.66
13.05
11.21
10.21
9.79
9.49
8.86
7.7
6.12
4.42
2.89
1.58
0.22
-1.68
-4.6
-8.8
-14.11
-19.87
-25.02
-28.27
-28.44
-24.84
-17.46
-7.12
4.8
16.66
27.04
35.02
40.23
42.78
43
41.38
38.4
34.61
30.64
27.07
24.31
22.49
21.38
20.48
19.31
17.49
15
12.02
8.89
5.87
3.01
0.14
-3.13
-7.24
-12.51
-18.84
-25.57
-31.45
-34.93
-34.67
-30.05
-21.51
-10.42
1.3
11.85
19.97
25.15
27.53
27.61
25.97
23.17
19.71
16.06
12.61
9.69
7.45
5.9
4.86
4.06
3.22
2.14
0.76
-0.85
-2.6
-4.54
-6.92
-10.12
-14.38
-19.53
-24.78
-28.8
-30.18
-27.9
-21.78
-12.6
-1.87
8.66
17.5
23.78
27.28
28.27
27.27
24.83
21.51
17.75
13.96
10.44
7.36
4.74
2.49
0.49
-1.41
-3.32
-5.36
-7.67
-10.45
-13.92
-18.33
-23.83
-30.32
-37.28
-43.73
-48.35
-49.84
-47.39
-41
-31.57
-20.6
-9.71
-0.19
7.27
12.52
15.77
17.33
17.47
16.45
14.6
12.33
10.06
8.14
6.72
5.77
5.16
4.74
4.39
4
3.44
2.49
0.88
-1.63
-5.23
-9.81
-14.96
-19.84
-23.31
-24.23
-21.72
-15.61
-6.47
4.43
15.57
25.56
33.5
39.06
42.31
43.54
43.1
41.31
38.49
35.03
31.36
27.84
24.73
22.1
19.87
17.81
15.73
13.45
10.9
8.05
4.85
1.19
-3.13
-8.28
-14.22
-20.46
-26.06
-29.78
-30.5
-27.64
-21.43
-12.86
-3.28
5.96
13.99
20.43
25.22
28.42
30.06
30.1
28.62
25.98
22.73
19.49
16.75
14.69
13.16
11.81
10.31
8.43
6.21
3.78
1.35
-1.01
-3.36
-5.87
-8.78
-12.27
-16.41
-21.08
-25.92
-30.32
-33.43
-34.37
-32.52
-27.74
-20.48
-11.66
-2.35
6.5
14.33
20.94
26.29
30.37
33.07
34.25
33.91
32.27
29.85
27.32
25.31
24.17
23.84
23.93
23.87
23.14
21.48
18.91
15.66
12.03
8.24
4.4
0.6
-3.12
-6.73
-10.24
-13.8
-17.65
-22.06
-27.12
-32.56
-37.7
-41.55
-43.12
-41.79
-37.54
-30.93
-22.96
-14.63
-6.72
0.31
6.26
11.02
14.43
16.32
16.66
15.65
13.77
11.61
9.68
8.26
7.32
6.66
6
5.2
4.22
3.08
1.79
0.25
-1.69
-4.17
-7.2
-10.62
-14.12
-17.39
-20.27
-22.77
-25.06
-27.38
-29.88
-32.62
-35.5
-38.25
-40.41
-41.33
-40.38
-37.11
-31.46
-23.8
-14.81
-5.25
4.33
13.66
22.64
31.22
39.22
46.36
52.3
56.83
59.87
61.46
61.74
60.91
59.2
56.87
54.15
51.15
47.87
44.14
39.82
34.81
29.2
23.2
17.08
11.09
5.41
0.1
-4.79
-9.29
-13.45
-17.46
-21.53
-25.9
-30.56
-35.17
-39.02
-41.27
-41.25
-38.81
-34.38
-28.81
-23.04
-17.75
-13.22
-9.43
-6.2
-3.42
-1.13
0.62
1.81
2.53
2.96
3.28
3.58
3.87
4.1
4.26
4.36
4.47
4.67
4.99
5.35
5.62
5.68
5.44
4.89
4.11
3.19
2.15
0.93
-0.55
-2.4
-4.66
-7.29
-10.17
-13.05
-15.56
-17.29
-17.8
-16.86
-14.51
-11.1
-7.22
-3.48
-0.35
1.96
3.47
4.33
4.68
4.64
4.25
3.61
2.87
2.25
1.94
2.03
2.47
3.09
3.65
4.01
4.08
3.92
3.61
3.21
2.77
2.24
1.57
0.72
-0.3
-1.47
-2.78
-4.27
-6.04
-8.14
-10.62
-13.41
-16.33
-19.05
-21.17
-22.28
-22.09
-20.52
-17.75
-14.22
-10.48
-7.09
-4.39
-2.51
-1.38
-0.85
-0.76
-1.03
-1.57
-2.25
-2.89
-3.28
-3.27
-2.82
-2.05
-1.18
-0.43
0.03
0.19
0.1
-0.14
-0.47
-0.9
-1.47
-2.28
-3.36
-4.72
-6.29
-7.96
-9.64
-11.31
-13.02
-14.82
-16.72
-18.53
-19.88
-20.35
-19.56
-17.41
-14.11
-10.19
-6.25
-2.84
-0.23
1.53
2.57
3.08
3.21
3.08
2.78
2.41
2.09
1.92
1.96
2.22
2.66
3.15
3.56
3.71
3.45
2.74
1.6
0.21
-1.27
-2.7
-4.06
-5.42
-6.95
-8.79
-11.01
-13.6
-16.41
-19.23
-21.76
-23.64
-24.5
-24.07
-22.27
-19.2
-15.21
-10.74
-6.25
-2.17
1.22
3.73
5.32
6.04
6.07
5.61
4.94
4.3
3.92
3.93
4.36
5.12
6.02
6.83
7.36
7.51
7.32
6.91
6.39
5.84
5.22
4.42
3.34
1.94
0.2
-1.86
-4.18
-6.61
-8.91
-10.7
-11.55
-11.15
-9.41
-6.59
-3.23
0.06
2.75
4.58
5.55
5.77
5.4
4.49
3.08
1.26
-0.74
-2.63
-4.15
-5.23
-6.04
-6.91
-8.1
-9.71
-11.6
-13.49
-15.13
-16.4
-17.32
-18.07
-18.83
-19.76
-20.97
-22.48
-24.21
-25.93
-27.27
-27.75
-26.95
-24.61
-20.77
-15.76
-10.11
-4.45
0.68
4.9
8.04
10.09
11.11
11.21
10.53
9.31
7.86
6.54
5.64
5.22
5.13
5.02
4.54
3.48
1.93
0.16
-1.49
-2.81
-3.83
-4.84
-6.2
-8.25
-11.17
-14.87
-19.02
-23.08
-26.38
-28.2
-28.04
-25.71
-21.48
-16.01
-10.15
-4.66
-0.07
3.5
6.13
7.99
9.16
9.59
9.25
8.26
6.87
5.46
4.32
3.56
3.02
2.45
1.57
0.33
-1.14
-2.61
-3.88
-4.91
-5.89
-7.07
-8.73
-11.01
-13.92
-17.32
-20.9
-24.15
-26.4
-26.89
-25.05
-20.7
-14.18
-6.32
1.88
9.53
16.05
21.24
25.06
27.55
28.67
28.45
27.04
24.85
22.44
20.38
19
18.32
18.04
17.77
17.2
16.12
14.52
12.42
9.89
7
3.82
0.46
-2.98
-6.51
-10.24
-14.34
-18.84
-23.5
-27.72
-30.64
-31.37
-29.32
-24.39
-17
-7.97
1.76
11.39
20.39
28.51
35.69
41.89
47
50.84
53.23
54.11
53.62
52.18
50.35
48.69
47.59
47.09
46.87
46.4
45.11
42.61
38.81
33.92
28.33
22.5
16.79
11.44
6.52
1.91
-2.64
-7.49
-12.96
-19.14
-25.77
-32.21
-37.51
-40.76
-41.31
-39.05
-34.39
-28.11
-21.09
-14.07
-7.49
-1.58
3.62
8.11
11.88
14.91
17.19
18.75
19.62
19.84
19.49
18.61
17.27
15.52
13.4
10.91
8.1
4.98
1.63
-1.84
-5.29
-8.53
-11.44
-13.94
-16.05
-17.86
-19.59
-21.46
-23.73
-26.55
-29.92
-33.59
-37.06
-39.57
-40.36
-38.87
-34.93
-28.91
-21.59
-13.87
-6.52
0.01
5.63
10.39
14.31
17.31
19.29
20.28
20.51
20.38
20.28
20.39
20.7
21.04
21.23
21.17
20.86
20.29
19.36
17.93
15.9
13.25
10.14
6.84
3.59
0.57
-2.18
-4.73
-7.23
-9.89
-12.88
-16.34
-20.22
-24.27
-27.95
-30.56
-31.36
-29.84
-25.89
-19.89
-12.54
-4.65
3.11
10.37
16.98
22.92
28.17
32.58
35.98
38.26
39.46
39.8
39.61
39.2
38.75
38.29
37.66
36.63
35
32.68
29.78
26.53
23.17
19.87
16.6
13.25
9.72
6.04
2.42
-0.84
-3.54
-5.71
-7.66
-9.8
-12.53
-15.96
-19.94
-24.04
-27.65
-30.18
-31.17
-30.38
-27.9
-24.13
-19.6
-14.87
-10.34
-6.18
-2.4
1.01
4
6.43
8.11
9.03
9.33
9.25
9.07
8.92
8.8
8.58
8.13
7.38
6.4
5.33
4.34
3.49
2.71
1.82
0.62
-1.01
-3.03
-5.27
-7.5
-9.59
-11.49
-13.3
-15.12
-17.05
-19.11
-21.33
-23.71
-26.24
-28.76
-30.91
-32.21
-32.18
-30.59
-27.6
-23.69
-19.47
-15.43
-11.79
-8.53
-5.57
-2.91
-0.7
0.88
1.75
2.03
1.99
1.9
1.86
1.78
1.52
0.95
0.13
-0.8
-1.66
-2.41
-3.13
-4.03
-5.28
-7.01
-9.18
-11.69
-14.37
-17.08
-19.7
-22.1
-24.18
-25.79
-26.91
-27.57
-27.97
-28.31
-28.74
-29.18
-29.29
-28.63
-26.84
-23.88
-20.08
-15.98
-12.05
-8.52
-5.3
-2.16
1.08
4.43
7.7
10.64
13.12
15.15
16.9
18.52
20.06
21.48
22.68
23.62
24.4
25.15
26
26.99
28.02
28.87
29.32
29.25
28.66
27.67
26.45
25.1
23.63
21.94
19.83
17.07
13.52
9.16
4.23
-0.77
-5.2
-8.44
-10.12
-10.3
-9.36
-7.92
-6.52
-5.49
-4.85
-4.5
-4.27
-4.11
-4.07
-4.2
-4.54
-5
-5.43
-5.65
-5.53
-5.05
-4.28
-3.4
-2.59
-2.05
-1.83
-1.9
-2.16
-2.51
-2.91
-3.41
-4.09
-5
-6.09
-7.25
-8.4
-9.54
-10.74
-12.17
-13.86
-15.66
-17.2
-17.96
-17.49
-15.56
-12.37
-8.42
-4.39
-0.9
1.71
3.45
4.57
5.41
6.2
6.95
7.57
7.89
7.9
7.66
7.4
7.31
7.54
8.05
8.73
9.38
9.83
9.97
9.77
9.3
8.67
8
7.39
6.88
6.46
6.08
5.67
5.17
4.48
3.56
2.48
1.47
0.86
1.05
2.29
4.57
7.57
10.75
13.63
15.83
17.28
18.07
18.34
18.16
17.52
16.36
14.74
12.85
10.96
9.39
8.31
7.72
7.41
7.09
6.45
5.27
3.53
1.39
-0.85
-2.89
-4.57
-5.96
-7.33
-9.05
-11.37
-14.31
-17.64
-20.89
-23.55
-25.16
-25.45
-24.37
-22.02
-18.75
-14.97
-11.14
-7.68
-4.91
-2.99
-1.95
-1.71
-2.11
-2.89
-3.76
-4.46
-4.85
-4.96
-4.92
-4.96
-5.24
-5.83
-6.68
-7.7
-8.81
-9.93
-11.07
-12.22
-13.46
-14.9
-16.72
-19.12
-22.15
-25.63
-29.12
-31.93
-33.41
-33.14
-31.09
-27.59
-23.19
-18.47
-13.84
-9.52
-5.69
-2.52
-0.23
0.97
1.03
0.15
-1.2
-2.47
-3.21
-3.23
-2.71
-2.07
-1.78
-2.16
-3.25
-4.84
-6.63
-8.37
-10.01
-11.72
-13.81
-16.58
-20.22
-24.65
-29.54
-34.28
-38.11
-40.28
-40.26
-37.92
-33.56
-27.79
-21.34
-14.82
-8.62
-2.97
1.98
6
8.87
10.45
10.84
10.44
9.82
9.53
9.91
10.98
12.5
14.09
15.39
16.19
16.44
16.25
15.75
15.05
14.12
12.83
10.99
8.42
5.01
0.78
-4.07
-9.11
-13.72
-17.19
-18.83
-18.2
-15.27
-10.44
-4.4
2.08
8.32
13.83
18.29
21.44
23.06
23.09
21.7
19.36
16.76
14.58
13.3
13
13.41
14.05
14.42
14.22
13.41
12.13
10.57
8.87
7
4.87
2.37
-0.57
-3.93
-7.69
-11.81
-16.28
-20.91
-25.32
-28.8
-30.5
-29.65
-25.88
-19.39
-10.96
-1.67
7.4
15.42
21.95
26.95
30.55
32.98
34.43
35.08
35.06
34.58
33.88
33.21
32.81
32.76
33.02
33.34
33.42
32.94
31.64
29.42
26.32
22.49
18.13
13.48
8.72
4.04
-0.43
-4.66
-8.76
-12.95
-17.48
-22.39
-27.37
-31.67
-34.24
-34.15
-30.89
-24.67
-16.34
-7.08
1.98
10.05
16.71
21.86
25.5
27.72
28.67
28.58
27.84
26.86
25.97
25.3
24.83
24.44
24.01
23.48
22.81
21.94
20.83
19.42
17.73
15.82
13.81
11.8
9.86
8
6.2
4.37
2.4
0.16
-2.52
-5.72
-9.34
-12.98
-16.01
-17.64
-17.2
-14.38
-9.33
-2.7
4.65
11.8
18.07
23.1
26.76
29.15
30.37
30.58
29.93
28.64
27.08
25.64
24.66
24.34
24.63
25.31
26.07
26.64
26.89
26.79
26.33
25.49
24.18
22.25
19.64
16.38
12.63
8.65
4.68
0.92
-2.55
-5.74
-8.65
-11.22
-13.19
-14.12
-13.5
-10.94
-6.33
0.02
7.51
15.35
22.77
29.15
34.06
37.26
38.6
38.16
36.17
33.04
29.31
25.48
21.89
18.67
15.74
12.88
9.9
6.7
3.3
-0.13
-3.39
-6.27
-8.7
-10.73
-12.54
-14.41
-16.62
-19.35
-22.59
-26.12
-29.5
-32.17
-33.61
-33.43
-31.51
-28.01
-23.33
-18.07
-12.84
-8.18
-4.41
-1.63
0.25
1.43
2.13
2.47
2.58
2.5
2.35
2.2
2.07
1.9
1.59
1.05
0.27
-0.65
-1.58
-2.47
-3.37
-4.47
-5.97
-8.05
-10.75
-13.97
-17.44
-20.8
-23.55
-25.22
-25.4
-23.95
-21.05
-17.16
-12.87
-8.67
-4.91
-1.68
1.04
3.2
4.72
5.45
5.36
4.59
3.46
2.34
1.49
0.99
0.7
0.44
0.1
-0.35
-0.83
-1.29
-1.74
-2.31
-3.14
-4.31
-5.85
-7.72
-9.91
-12.36
-14.98
-17.51
-19.56
-20.65
-20.43
-18.83
-16.07
-12.64
-9.05
-5.7
-2.83
-0.52
1.18
2.22
2.53
2.13
1.12
-0.24
-1.67
-2.92
-3.88
-4.5
-4.84
-4.97
-4.93
-4.73
-4.38
-3.89
-3.26
-2.55
-1.83
-1.19
-0.76
-0.62
-0.86
-1.49
-2.42
-3.49
-4.45
-5.03
-4.92
-3.91
-1.89
1.01
4.46
8.06
11.39
14.14
16.16
17.45
18.05
18.01
17.37
16.22
14.7
13.02
11.41
10.04
9.02
8.37
8.09
8.08
8.22
8.29
8.06
7.39
6.31
5.02
3.82
2.9
2.27
1.71
0.91
-0.37
-2.18
-4.42
-6.87
-9.31
-11.55
-13.39
-14.59
-14.86
-14.03
-12.09
-9.32
-6.16
-3.08
-0.4
1.75
3.41
4.65
5.53
6.04
6.18
6.02
5.74
5.57
5.66
6.05
6.58
7.07
7.3
7.21
6.87
6.44
6.03
5.72
5.43
5.05
4.46
3.64
2.58
1.29
-0.27
-2.18
-4.5
-7.2
-10.11
-12.91
-15.25
-16.83
-17.5
-17.29
-16.36
-14.97
-13.41
-12
-10.96
-10.45
-10.47
-10.93
-11.63
-12.38
-13.04
-13.57
-13.98
-14.24
-14.34
-14.22
-13.89
-13.38
-12.8
-12.29
-11.92
-11.75
-11.76
-11.9
-12.16
-12.56
-13.14
-13.92
-14.91
-16.01
-17.13
-18.14
-19.03
-19.87
-20.79
-21.88
-23.06
-24.06
-24.5
-24.04
-22.58
-20.32
-17.62
-14.89
-12.43
-10.3
-8.46
-6.79
-5.21
-3.79
-2.58
-1.66
-0.99
-0.46
0.07
0.74
1.55
2.41
3.16
3.61
3.67
3.37
2.9
2.48
2.34
2.55
2.99
3.42
3.61
3.43
2.89
2.11
1.25
0.39
-0.43
-1.13
-1.51
-1.24
0
2.34
5.53
8.98
11.98
13.99
14.83
14.74
14.13
13.35
12.5
11.42
9.86
7.75
5.24
2.7
0.47
-1.27
-2.6
-3.76
-4.94
-6.22
-7.51
-8.67
-9.6
-10.35
-11.01
-11.68
-12.36
-13.02
-13.64
-14.21
-14.87
-15.73
-16.83
-18.08
-19.2
-19.81
-19.5
-17.98
-15.21
-11.43
-7.08
-2.74
1.08
4.1
6.26
7.7
8.63
9.24
9.59
9.72
9.63
9.37
9.05
8.8
8.74
8.91
9.26
9.7
10.11
10.38
10.48
10.39
10.15
9.78
9.29
8.69
7.97
7.09
6.08
4.93
3.69
2.39
1.12
0.06
-0.57
-0.54
0.38
2.21
4.78
7.75
10.63
12.99
14.54
15.18
15.02
14.23
12.98
11.36
9.45
7.33
5.15
3.13
1.45
0.25
-0.5
-0.98
-1.42
-2.07
-3.04
-4.28
-5.62
-6.86
-7.84
-8.61
-9.33
-10.29
-11.77
-13.87
-16.46
-19.16
-21.43
-22.74
-22.69
-21.12
-18.1
-13.96
-9.13
-4.12
0.6
4.6
7.64
9.63
10.67
11.02
10.93
10.62
10.26
9.93
9.73
9.75
10
10.43
10.86
11.05
10.83
10.22
9.36
8.44
7.58
6.72
5.69
4.26
2.27
-0.32
-3.38
-6.67
-9.86
-12.53
-14.3
-14.82
-13.95
-11.79
-8.69
-5.13
-1.57
1.63
4.31
6.39
7.75
8.19
7.45
5.37
2.03
-2.16
-6.55
-10.41
-13.26
-14.96
-15.75
-16.05
-16.28
-16.63
-17.14
-17.69
-18.18
-18.57
-18.9
-19.26
-19.73
-20.43
-21.44
-22.81
-24.46
-26.19
-27.61
-28.29
-27.87
-26.18
-23.32
-19.56
-15.31
-10.94
-6.79
-3.14
-0.15
2.09
3.63
4.62
5.23
5.67
6.08
6.52
6.97
7.42
7.84
8.25
8.68
9.18
9.79
10.46
11.12
11.64
11.86
11.59
10.64
8.84
6.1
2.47
-1.77
-6.1
-9.8
-12.13
-12.55
-10.91
-7.55
-3.13
1.52
5.73
9.15
11.74
13.67
15.13
16.19
16.76
16.78
16.24
15.28
14.18
13.16
12.35
11.73
11.14
10.44
9.52
8.38
7.12
5.82
4.49
3.08
1.46
-0.47
-2.77
-5.45
-8.45
-11.71
-15.09
-18.34
-21.06
-22.73
-22.87
-21.17
-17.7
-12.91
-7.47
-2.08
2.73
6.71
9.82
12.09
13.57
14.26
14.18
13.45
12.31
11.07
10.02
9.36
9.09
9.06
9.02
8.7
7.89
6.49
4.6
2.39
0.1
-2.06
-4
-5.77
-7.49
-9.28
-11.25
-13.43
-15.81
-18.3
-20.64
-22.43
-23.13
-22.25
-19.57
-15.21
-9.68
-3.65
2.22
7.54
12.14
16.04
19.26
21.78
23.56
24.58
24.99
24.99
24.88
24.86
25.01
25.24
25.35
25.1
24.35
23.11
21.49
19.69
17.78
15.73
13.38
10.58
7.3
3.65
-0.15
-3.94
-7.68
-11.35
-14.83
-17.79
-19.65
-19.84
-18.08
-14.58
-9.99
-5.14
-0.73
2.88
5.66
7.72
9.14
9.89
9.91
9.22
8.05
6.75
5.7
5.1
4.95
5.08
5.26
5.33
5.19
4.79
4.12
3.18
1.96
0.51
-1.11
-2.84
-4.65
-6.6
-8.83
-11.47
-14.53
-17.74
-20.64
-22.6
-23.1
-21.88
-19.03
-14.96
-10.22
-5.34
-0.71
3.41
6.85
9.55
11.48
12.71
13.38
13.71
13.91
14.12
14.44
14.91
15.55
16.29
16.98
17.46
17.56
17.23
16.53
15.61
14.64
13.68
12.73
11.69
10.52
9.2
7.74
6.16
4.47
2.66
0.86
-0.68
-1.58
-1.44
0
2.73
6.45
10.66
14.84
18.6
21.72
24.17
26
27.28
28.05
28.28
28
27.25
26.19
24.99
23.85
22.89
22.07
21.21
20.05
18.34
15.94
12.88
9.37
5.73
2.24
-0.91
-3.67
-6.13
-8.47
-10.87
-13.47
-16.31
-19.29
-22.12
-24.47
-25.96
-26.35
-25.6
-23.87
-21.48
-18.82
-16.23
-13.91
-11.97
-10.41
-9.21
-8.38
-7.87
-7.62
-7.51
-7.35
-6.98
-6.31
-5.4
-4.36
-3.36
-2.5
-1.83
-1.3
-0.84
-0.37
0.13
0.69
1.28
1.87
2.33
2.53
2.31
1.55
0.31
-1.2
-2.62
-3.53
-3.68
-2.98
-1.62
0.06
1.7
3.06
4.05
4.76
5.28
5.61
5.68
5.39
4.7
3.77
2.86
2.21
1.95
2.02
2.2
2.24
1.95
1.31
0.4
-0.65
-1.72
-2.79
-3.89
-5.12
-6.59
-8.43
-10.7
-13.37
-16.26
-18.99
-21.12
-22.29
-22.29
-21.23
-19.38
-17.11
-14.66
-12.12
-9.46
-6.61
-3.62
-0.68
1.98
4.14
5.73
6.84
7.66
8.43
9.31
10.38
11.57
12.72
13.64
14.14
14.11
13.54
12.53
11.23
9.78
8.28
6.74
5.11
3.29
1.14
-1.43
-4.43
-7.69
-10.86
-13.5
-15.21
-15.79
-15.28
-13.95
-12.13
-10.15
-8.18
-6.35
-4.71
-3.38
-2.49
-2.12
-2.25
-2.67
-3.11
-3.34
-3.25
-2.89
-2.48
-2.21
-2.23
-2.54
-3.08
-3.71
-4.32
-4.84
-5.29
-5.71
-6.14
-6.65
-7.25
-7.99
-8.89
-10
-11.35
-12.89
-14.45
-15.73
-16.34
-15.94
-14.33
-11.59
-8
-4.03
-0.16
3.23
5.84
7.52
8.21
7.98
7.02
5.61
4.11
2.82
1.93
1.47
1.37
1.48
1.66
1.8
1.82
1.62
1.11
0.24
-0.95
-2.33
-3.73
-5.04
-6.23
-7.38
-8.65
-10.17
-11.97
-13.99
-16
-17.67
-18.57
-18.36
-16.81
-14.01
-10.31
-6.29
-2.53
0.59
3.01
4.9
6.52
8.04
9.47
10.68
11.57
12.14
12.5
12.83
13.28
13.87
14.55
15.23
15.85
16.36
16.75
17.01
17.09
16.93
16.47
15.64
14.39
12.69
10.54
7.96
4.99
1.68
-1.91
-5.63
-9.26
-12.42
-14.73
-15.82
-15.52
-13.92
-11.32
-8.18
-4.95
-2.03
0.35
2.09
3.24
3.9
4.23
4.39
4.52
4.75
5.21
6
7.12
8.5
9.89
10.98
11.56
11.49
10.9
10.03
9.21
8.64
8.42
8.42
8.49
8.42
8.1
7.51
6.71
5.86
5.18
4.98
5.56
7.17
9.91
13.66
18.08
22.71
27.05
30.7
33.46
35.34
36.55
37.34
37.92
38.45
38.94
39.39
39.78
40.1
40.36
40.53
40.55
40.28
39.65
38.65
37.4
36.08
34.82
33.61
32.33
30.78
28.75
26.14
22.93
19.21
15.08
10.71
6.29
2.07
-1.67
-4.63
-6.59
-7.52
-7.56
-6.97
-6.08
-5.13
-4.31
-3.78
-3.71
-4.32
-5.78
-8.16
-11.29
-14.83
-18.35
-21.48
-24.11
-26.31
-28.3
-30.28
-32.34
-34.45
-36.56
-38.62
-40.64
-42.58
-44.35
-45.68
-46.31
-46
-44.75
-42.7
-40.08
-37.05
-33.56
-29.4
-24.35
-18.38
-11.72
-4.85
1.7
7.57
12.58
16.73
20.12
22.79
24.79
26.2
27.22
28.1
29.01
29.96
30.7
30.86
30.07
28.14
25.12
21.22
16.76
12.05
7.38
2.96
-1.1
-4.88
-8.54
-12.31
-16.24
-20.14
-23.56
-25.96
-26.93
-26.37
-24.51
-21.82
-18.77
-15.74
-12.95
-10.53
-8.57
-7.16
-6.34
-6.05
-6.14
-6.39
-6.62
-6.73
-6.73
-6.72
-6.8
-7.09
-7.57
-8.21
-8.91
-9.56
-10.13
-10.65
-11.26
-12.23
-13.79
-16.06
-18.94
-22.02
-24.69
-26.29
-26.26
-24.39
-20.81
-15.98
-10.5
-5.01
-0.04
4.05
7.06
8.97
9.88
10.05
9.78
9.41
9.13
9.01
8.96
8.79
8.33
7.52
6.42
5.18
3.98
2.9
1.93
0.91
-0.31
-1.86
-3.82
-6.17
-8.84
-11.67
-14.4
-16.68
-18.1
-18.29
-17.05
-14.44
-10.78
-6.55
-2.27
1.65
4.99
7.66
9.69
11.12
11.98
12.27
12.01
11.26
10.16
8.94
7.88
7.15
6.83
6.76
6.68
6.29
5.42
4.1
2.5
0.81
-0.84
-2.53
-4.43
-6.7
-9.4
-12.45
-15.7
-18.95
-22.01
-24.62
-26.43
-27.04
-26.14
-23.62
-19.69
-14.82
-9.59
-4.52
0.05
3.93
7.02
9.26
10.63
11.15
10.94
10.21
9.23
8.21
7.3
6.53
5.81
4.96
3.8
2.2
0.16
-2.25
-4.9
-7.67
-10.48
-13.23
-15.81
-18.1
-19.98
-21.41
-22.46
-23.28
-24.09
-25.07
-26.32
-27.85
-29.51
-30.97
-31.76
-31.36
-29.36
-25.65
-20.49
-14.37
-7.87
-1.44
4.6
10.11
14.91
18.83
21.68
23.35
23.95
23.72
22.98
21.99
20.94
19.93
19.01
18.16
17.34
16.44
15.33
13.95
12.32
10.57
8.81
7.07
5.22
3.09
0.6
-2.18
-4.98
-7.49
-9.48
-11
-12.29
-13.71
-15.52
-17.83
-20.62
-23.76
-27.12
-30.45
-33.36
-35.31
-35.64
-33.91
-30.04
-24.43
-17.86
-11.17
-4.99
0.45
5.18
9.39
13.11
16.29
18.78
20.52
21.63
22.38
23.09
24.02
25.21
26.52
27.73
28.62
29.07
29.1
28.77
28.19
27.43
26.55
25.59
24.61
23.65
22.69
21.73
20.74
19.7
18.67
17.67
16.71
15.76
14.67
13.29
11.45
9.04
6.03
2.56
-1
-4.09
-6.07
-6.35
-4.67
-1.16
3.63
8.92
13.94
18.12
21.2
23.18
24.18
24.36
23.87
22.77
21.16
19.16
16.98
14.87
13.04
11.63
10.61
9.85
9.14
8.28
7.15
5.72
4.01
2.1
0.06
-2.06
-4.16
-6.12
-7.83
-9.26
-10.49
-11.72
-13.23
-15.22
-17.74
-20.55
-23.19
-25.09
-25.68
-24.6
-21.78
-17.51
-12.34
-6.97
-2.08
1.85
4.65
6.4
7.31
7.55
7.2
6.27
4.82
3.03
1.21
-0.36
-1.58
-2.61
-3.77
-5.45
-7.81
-10.77
-13.99
-17.07
-19.63
-21.48
-22.63
-23.24
-23.56
-23.83
-24.23
-24.9
-25.91
-27.29
-28.93
-30.53
-31.54
-31.27
-29.07
-24.67
-18.29
-10.71
-2.94
4.05
9.74
14.12
17.52
20.43
23.13
25.67
27.84
29.37
30.03
29.83
28.94
27.69
26.39
25.22
24.19
23.15
21.88
20.2
18.04
15.47
12.61
9.58
6.47
3.26
-0.08
-3.63
-7.43
-11.49
-15.69
-19.74
-23.19
-25.45
-25.99
-24.52
-21.17
-16.48
-11.22
-6.18
-1.86
1.61
4.37
6.69
8.69
10.34
11.47
11.96
11.8
11.24
10.59
10.16
10.06
10.17
10.23
9.97
9.21
7.97
6.44
4.85
3.36
1.98
0.57
-1.05
-3.07
-5.56
-8.5
-11.79
-15.28
-18.8
-22.04
-24.55
-25.83
-25.43
-23.2
-19.32
-14.31
-8.86
-3.6
1.09
5.03
8.23
10.7
12.4
13.29
13.36
12.8
11.9
11.01
10.37
10.03
9.84
9.51
8.8
7.6
5.96
4.08
2.15
0.32
-1.37
-2.98
-4.6
-6.33
-8.26
-10.45
-12.93
-15.74
-18.9
-22.39
-26.04
-29.5
-32.26
-33.75
-33.51
-31.36
-27.47
-22.32
-16.56
-10.83
-5.62
-1.19
2.36
5.03
6.85
7.81
7.96
7.4
6.38
5.19
4.16
3.53
3.45
3.93
4.89
6.27
7.97
9.89
11.86
13.65
15.03
15.85
16.08
15.85
15.34
14.76
14.14
13.35
12.01
9.63
5.82
0.51
-5.89
-12.49
-18.18
-21.98
-23.33
-22.25
-19.18
-14.72
-9.49
-3.93
1.57
6.67
11.03
14.43
16.83
18.45
19.65
20.79
22.01
23.27
24.33
24.94
24.98
24.5
23.66
22.67
21.68
20.72
19.72
18.6
17.28
15.76
14.08
12.3
10.43
8.43
6.18
3.55
0.45
-3.18
-7.37
-12.06
-17.12
-22.17
-26.55
-29.45
-30.1
-28.11
-23.69
-17.61
-10.99
-4.79
0.43
4.6
7.92
10.58
12.53
13.52
13.28
11.78
9.26
6.14
2.9
-0.13
-2.75
-4.87
-6.44
-7.37
-7.66
-7.35
-6.63
-5.84
-5.32
-5.38
-6.19
-7.75
-9.91
-12.4
-14.94
-17.32
-19.48
-21.48
-23.51
-25.77
-28.52
-31.92
-35.95
-40.34
-44.44
-47.39
-48.26
-46.44
-41.84
-34.98
-26.79
-18.31
-10.39
-3.53
2.07
6.42
9.57
11.6
12.6
12.79
12.5
12.1
11.83
11.78
11.88
11.97
11.9
11.64
11.21
10.66
9.98
9.05
7.7
5.77
3.28
0.36
-2.7
-5.6
-8.12
-10.2
-11.99
-13.76
-15.83
-18.46
-21.79
-25.76
-30
-33.93
-36.69
-37.45
-35.57
-30.93
-23.96
-15.59
-6.93
1.02
7.68
12.94
17
20.2
22.72
24.63
25.86
26.37
26.29
25.87
25.43
25.19
25.2
25.32
25.27
24.73
23.42
21.17
17.96
13.9
9.27
4.53
0.15
-3.42
-5.99
-7.64
-8.76
-9.94
-11.72
-14.46
-18.19
-22.54
-26.85
-30.2
-31.78
-31
-27.77
-22.52
-16.04
-9.25
-2.91
2.45
6.6
9.43
10.91
11.1
10.16
8.47
6.55
4.92
3.91
3.56
3.65
3.85
3.95
3.84
3.57
3.22
2.76
2.12
1.16
-0.18
-1.85
-3.69
-5.56
-7.42
-9.31
-11.3
-13.31
-14.98
-15.76
-15.05
-12.52
-8.28
-2.91
2.73
7.74
11.4
13.35
13.52
12.04
9.14
5.12
0.41
-4.44
-8.74
-11.79
-13.09
-12.47
-10.25
-7.07
-3.76
-1.01
0.79
1.6
1.69
1.46
1.29
1.48
2.15
3.17
4.22
4.81
4.52
3.19
1.1
-1.05
-2.33
-1.95
0.5
4.81
10.32
16.13
21.44
25.78
29.06
31.45
33.24
34.57
35.43
35.72
35.39
34.6
33.69
33.07
33.1
33.92
35.43
37.33
39.25
40.83
41.79
42.02
41.53
40.48
39.05
37.34
35.26
32.6
29.13
24.87
20.27
16.12
13.45
13.05
15.21
19.54
25.02
30.36
34.33
36.08
35.35
32.4
27.84
22.34
16.52
10.76
5.27
0.11
-4.73
-9.28
-13.58
-17.67
-21.49
-24.89
-27.55
-29.13
-29.3
-27.89
-24.97
-20.81
-15.89
-10.82
-6.26
-2.83
-0.95
-0.69
-1.68
-3.1
-3.94
-3.3
-0.78
3.41
8.53
13.6
17.81
20.75
22.42
23.01
22.69
21.47
19.23
15.96
11.84
7.25
2.59
-1.9
-6.26
-10.68
-15.32
-20.05
-24.4
-27.78
-29.67
-29.95
-28.95
-27.37
-26
-25.47
-26.17
-28.15
-31.21
-34.94
-38.73
-41.85
-43.61
-43.54
-41.62
-38.3
-34.3
-30.29
-26.6
-23.15
-19.65
-15.89
-11.96
-8.24
-5.2
-3.14
-1.98
-1.35
-0.73
0.29
1.85
3.78
5.77
7.49
8.81
9.81
10.66
11.53
12.36
12.85
12.55
11.06
8.16
3.92
-1.37
-7.27
-13.21
-18.51
-22.43
-24.26
-23.54
-20.34
-15.2
-9.03
-2.73
3.08
8.23
12.87
17.14
21.04
24.33
26.71
28.01
28.36
28.12
27.68
27.23
26.7
25.8
24.27
22.01
19.18
16.05
12.86
9.67
6.39
2.9
-0.8
-4.59
-8.29
-11.86
-15.48
-19.45
-23.98
-29
-34
-38.17
-40.58
-40.61
-38.1
-33.42
-27.33
-20.71
-14.29
-8.49
-3.49
0.72
4.17
6.81
8.6
9.54
9.72
9.38
8.85
8.4
8.25
8.49
9.05
9.8
10.52
10.98
11.04
10.6
9.66
8.26
6.52
4.57
2.62
0.86
-0.59
-1.76
-2.86
-4.28
-6.42
-9.57
-13.73
-18.55
-23.35
-27.25
-29.38
-29.17
-26.48
-21.7
-15.61
-9.11
-2.92
2.61
7.45
11.74
15.54
18.74
21.16
22.66
23.33
23.49
23.52
23.64
23.79
23.7
23.05
21.69
19.72
17.46
15.27
13.4
11.88
10.56
9.19
7.47
5.23
2.42
-0.82
-4.25
-7.59
-10.64
-13.33
-15.74
-17.99
-20.22
-22.54
-24.97
-27.53
-30.09
-32.32
-33.66
-33.48
-31.28
-26.96
-20.93
-13.91
-6.69
0.19
6.46
12.1
17.05
21.16
24.23
26.12
26.93
26.94
26.53
25.94
25.23
24.29
23.03
21.46
19.71
17.99
16.47
15.17
13.98
12.68
11.02
8.81
5.95
2.47
-1.46
-5.57
-9.49
-12.92
-15.71
-17.98
-20.14
-22.69
-26.09
-30.45
-35.44
-40.25
-43.86
-45.31
-44.08
-40.18
-34.18
-26.95
-19.37
-12.14
-5.7
-0.27
4.07
7.23
9.2
10.08
10.07
9.51
8.76
8.1
7.7
7.57
7.68
8.01
8.55
9.31
10.24
11.2
11.97
12.32
12.1
11.3
10.02
8.46
6.77
5.04
3.22
1.23
-1.08
-3.87
-7.3
-11.51
-16.48
-21.88
-27.03
-30.97
-32.75
-31.77
-28.01
-22.11
-15.1
-7.97
-1.42
4.29
9.19
13.32
16.65
19.01
20.34
20.76
20.61
20.29
20.04
19.91
19.8
19.59
19.28
18.97
18.7
18.41
17.86
16.81
15.16
13.03
10.67
8.34
6.1
3.81
1.24
-1.81
-5.39
-9.44
-13.89
-18.62
-23.5
-28.2
-32.09
-34.33
-34.08
-30.89
-24.91
-16.99
-8.32
-0.09
6.92
12.45
16.62
19.73
22
23.53
24.36
24.56
24.31
23.82
23.32
22.9
22.6
22.35
22.08
21.71
21.17
20.38
19.31
17.95
16.3
14.38
12.2
9.73
6.94
3.8
0.31
-3.55
-7.81
-12.52
-17.59
-22.67
-27.13
-30.12
-30.84
-28.84
-24.22
-17.7
-10.34
-3.25
2.79
7.41
10.6
12.52
13.29
12.97
11.65
9.58
7.22
5.15
3.87
3.65
4.38
5.65
6.92
7.7
7.71
6.9
5.43
3.58
1.56
-0.47
-2.53
-4.74
-7.28
-10.32
-13.99
-18.3
-23.06
-27.85
-32
-34.69
-35.15
-32.95
-28.16
-21.38
-13.53
-5.55
1.9
8.44
13.92
18.2
21.11
22.52
22.42
21.11
19.11
17.05
15.39
14.37
13.9
13.74
13.58
13.16
12.31
10.94
9.08
6.85
4.41
1.89
-0.71
-3.54
-6.84
-10.81
-15.55
-20.92
-26.54
-31.77
-35.85
-37.98
-37.56
-34.37
-28.69
-21.24
-12.97
-4.82
2.54
8.83
14.01
18.13
21.21
23.15
23.86
23.46
22.28
20.85
19.72
19.27
19.52
20.17
20.73
20.71
19.82
18.02
15.48
12.5
9.35
6.26
3.32
0.51
-2.32
-5.39
-8.98
-13.31
-18.43
-24.09
-29.72
-34.43
-37.28
-37.44
-34.55
-28.87
-21.23
-12.8
-4.73
2.22
7.76
12.02
15.26
17.65
19.22
19.92
19.78
19.05
18.08
17.23
16.68
16.35
16.04
15.5
14.59
13.33
11.82
10.16
8.43
6.63
4.69
2.51
0.06
-2.63
-5.48
-8.36
-11.26
-14.28
-17.65
-21.5
-25.7
-29.67
-32.47
-33.12
-30.99
-26.12
-19.21
-11.42
-3.9
2.6
7.77
11.69
14.51
16.37
17.3
17.36
16.77
15.85
14.98
14.35
13.96
13.58
12.94
11.9
10.48
8.9
7.36
5.96
4.69
3.4
1.92
0.16
-1.85
-4.01
-6.1
-7.97
-9.51
-10.79
-11.97
-13.35
-15.17
-17.47
-19.95
-21.94
-22.63
-21.33
-17.8
-12.45
-6.13
0.1
5.41
9.42
12.17
13.93
14.95
15.39
15.21
14.4
13.08
11.46
9.88
8.59
7.72
7.2
6.88
6.58
6.16
5.55
4.77
3.84
2.79
1.61
0.29
-1.18
-2.8
-4.52
-6.26
-7.96
-9.62
-11.32
-13.24
-15.59
-18.49
-21.85
-25.26
-28.05
-29.43
-28.78
-25.88
-21.02
-14.89
-8.38
-2.27
2.93
7.02
10
11.94
12.92
12.99
12.26
10.96
9.39
7.82
6.43
5.21
4.04
2.78
1.41
-0.03
-1.46
-2.82
-4.13
-5.4
-6.64
-7.72
-8.44
-8.62
-8.21
-7.3
-6.08
-4.74
-3.48
-2.4
-1.65
-1.36
-1.59
-2.21
-2.8
-2.74
-1.37
1.68
6.32
11.97
17.77
22.93
26.99
29.85
31.72
32.85
33.39
33.35
32.73
31.6
30.15
28.71
27.56
26.86
26.62
26.68
26.83
26.87
26.69
26.24
25.49
24.36
22.75
20.51
17.59
14.06
10.11
5.98
1.88
-2.12
-6.06
-9.96
-13.67
-16.84
-19
-19.68
-18.66
-16
-12.04
-7.31
-2.33
2.38
6.38
9.29
10.77
10.69
9.12
6.39
3.04
-0.35
-3.32
-5.67
-7.42
-8.81
-10.11
-11.53
-13.17
-15
-16.89
-18.72
-20.39
-21.84
-23.12
-24.35
-25.69
-27.33
-29.41
-31.94
-34.7
-37.25
-39
-39.35
-37.93
-34.65
-29.83
-24.04
-17.96
-12.2
-7.18
-3.15
-0.16
1.8
2.83
3.05
2.72
2.14
1.66
1.59
2.04
2.95
4.09
5.16
5.89
6.14
5.88
5.17
4.05
2.52
0.49
-2.15
-5.52
-9.65
-14.4
-19.47
-24.35
-28.36
-30.89
-31.5
-30.14
-27.16
-23.25
-19.15
-15.48
-12.54
-10.33
-8.72
-7.51
-6.59
-5.93
-5.45
-5.1
-4.74
-4.23
-3.47
-2.48
-1.39
-0.35
0.42
0.82
0.76
0.3
-0.44
-1.28
-2.16
-3.1
-4.32
-6.11
-8.67
-12
-15.79
-19.44
-22.23
-23.52
-22.97
-20.66
-17
-12.56
-7.94
-3.53
0.48
4.09
7.3
10.08
12.26
13.66
14.15
13.8
12.88
11.79
10.9
10.41
10.34
10.47
10.52
10.22
9.47
8.31
6.88
5.38
3.88
2.37
0.7
-1.34
-3.89
-7.04
-10.7
-14.61
-18.33
-21.26
-22.72
-22.17
-19.38
-14.58
-8.41
-1.69
4.81
10.66
15.68
19.94
23.51
26.35
28.35
29.46
29.75
29.44
28.82
28.12
27.38
26.51
25.38
23.87
21.99
19.86
17.7
15.68
13.91
12.32
10.71
8.79
6.35
3.35
-0.03
-3.49
-6.71
-9.48
-11.81
-13.87
-15.98
-18.4
-21.32
-24.81
-28.76
-32.86
-36.56
-39.17
-40.03
-38.73
-35.27
-30.04
-23.71
-16.98
-10.34
-4.01
1.98
7.63
12.86
17.45
21.17
23.87
25.62
26.67
27.38
28.08
28.94
29.91
30.81
31.38
31.46
31.03
30.2
29.05
27.62
25.84
23.6
20.83
17.55
13.88
9.99
6.02
2.07
-1.74
-5.32
-8.6
-11.57
-14.26
-16.81
-19.35
-22.02
-24.97
-28.18
-31.54
-34.67
-36.99
-37.85
-36.75
-33.53
-28.48
-22.27
-15.65
-9.25
-3.44
1.67
6.02
9.56
12.27
14.13
15.26
15.91
16.38
16.89
17.58
18.45
19.41
20.31
21
21.33
21.21
20.67
19.89
19.16
18.72
18.66
18.81
18.86
18.45
17.38
15.68
13.58
11.35
9.15
6.95
4.61
1.91
-1.24
-4.88
-8.97
-13.46
-18.29
-23.24
-27.85
-31.46
-33.38
-33.14
-30.73
-26.67
-21.8
-16.95
-12.64
-9.07
-6.1
-3.59
-1.48
0.18
1.34
2.08
2.63
3.28
4.24
5.54
7.04
8.51
9.79
10.83
11.68
12.42
13.08
13.59
13.88
13.86
13.51
12.86
11.96
10.83
9.48
7.92
6.15
4.19
2.03
-0.38
-3.16
-6.44
-10.23
-14.41
-18.58
-22.16
-24.46
-25
-23.64
-20.65
-16.66
-12.35
-8.32
-4.82
-1.84
0.76
3.1
5.14
6.76
7.82
8.32
8.42
8.32
8.23
8.24
8.37
8.53
8.67
8.7
8.58
8.27
7.79
7.17
6.42
5.51
4.37
2.9
1.06
-1.05
-3.22
-5.22
-6.92
-8.45
-10.07
-12.16
-14.94
-18.4
-22.24
-25.95
-28.88
-30.5
-30.48
-28.81
-25.81
-21.96
-17.8
-13.74
-9.95
-6.45
-3.21
-0.28
2.22
4.15
5.51
6.41
7.11
7.83
8.7
9.68
10.57
11.18
11.41
11.32
11.07
10.84
10.66
10.43
9.97
9.1
7.8
6.15
4.31
2.35
0.31
-1.85
-4.1
-6.33
-8.43
-10.39
-12.36
-14.58
-17.15
-19.88
-22.2
-23.4
-22.9
-20.53
-16.58
-11.68
-6.52
-1.58
2.91
6.92
10.45
13.47
15.8
17.33
18.03
18.09
17.81
17.54
17.49
17.67
17.93
18.06
17.94
17.5
16.8
15.89
14.79
13.47
11.86
9.92
7.65
5.13
2.48
-0.15
-2.65
-4.95
-7.11
-9.28
-11.7
-14.51
-17.67
-20.86
-23.5
-24.96
-24.74
-22.65
-18.89
-13.95
-8.47
-3.03
1.94
6.22
9.72
12.46
14.49
15.91
16.86
17.46
17.86
18.1
18.16
17.94
17.34
16.3
14.82
12.95
10.76
8.32
5.66
2.79
-0.32
-3.68
-7.32
-11.18
-15.12
-18.94
-22.39
-25.36
-27.85
-30.1
-32.41
-35.01
-37.88
-40.62
-42.61
-43.08
-41.5
-37.75
-32.18
-25.52
-18.61
-12.15
-6.57
-2
1.62
4.42
6.53
8.05
9.11
9.86
10.47
11.08
11.75
12.51
13.33
14.21
15.11
15.98
16.72
17.22
17.34
16.99
16.18
15
13.6
12.16
10.84
9.73
8.8
7.91
6.85
5.44
3.65
1.73
0.19
-0.33
0.75
3.72
8.43
14.37
20.82
27.06
32.54
36.97
40.26
42.45
43.62
43.82
43.19
41.94
40.36
38.77
37.39
36.3
35.36
34.33
32.92
30.96
28.42
25.42
22.12
18.7
15.25
11.8
8.31
4.77
1.13
-2.64
-6.57
-10.69
-14.92
-19.03
-22.6
-25.06
-25.82
-24.53
-21.25
-16.48
-11.03
-5.81
-1.51
1.52
3.23
3.76
3.31
2.12
0.42
-1.45
-3.19
-4.48
-5.2
-5.39
-5.25
-5.04
-5.02
-5.34
-6.03
-7.07
-8.35
-9.78
-11.28
-12.85
-14.61
-16.73
-19.43
-22.75
-26.49
-30.14
-32.97
-34.25
-33.49
-30.6
-25.95
-20.22
-14.2
-8.53
-3.62
0.31
3.21
5.01
5.74
5.57
4.81
3.98
3.5
3.61
4.2
4.93
5.33
5.09
4.14
2.7
1.11
-0.31
-1.46
-2.44
-3.52
-4.97
-7.01
-9.74
-13.06
-16.72
-20.31
-23.27
-24.99
-24.97
-23.02
-19.34
-14.52
-9.3
-4.41
-0.31
2.84
5.07
6.45
7.05
6.9
6.04
4.65
2.92
1.09
-0.7
-2.39
-3.99
-5.49
-6.82
-7.96
-8.86
-9.61
-10.38
-11.38
-12.81
-14.83
-17.48
-20.76
-24.5
-28.34
-31.7
-33.84
-34.05
-31.97
-27.67
-21.72
-14.96
-8.2
-1.96
3.56
8.4
12.58
16
18.45
19.77
19.95
19.25
18.08
16.85
15.81
15
14.27
13.41
12.26
10.8
9.14
7.46
5.86
4.31
2.62
0.46
-2.56
-6.71
-11.94
-17.8
-23.41
-27.66
-29.55
-28.52
-24.7
-18.8
-11.86
-4.83
1.67
7.45
12.53
16.92
20.43
22.76
23.64
23.01
21.12
18.42
15.41
12.51
9.96
7.82
5.93
4.01
1.69
-1.4
-5.45
-10.31
-15.51
-20.36
-24.2
-26.7
-27.99
-28.67
-29.49
-31.08
-33.63
-36.84
-40
-42.24
-42.74
-40.9
-36.48
-29.57
-20.61
-10.3
0.63
11.58
22.29
32.87
43.61
54.64
65.66
75.7
83.4
87.39
86.9
82.1
74.11
64.7
55.7
48.39
43.31
40.28
38.78
38.19
38.04
37.97
37.64
36.71
34.96
32.4
29.34
26.36
24.07
22.95
23.09
24.16
25.5
26.26
25.67
23.31
19.19
13.77
7.79
1.98
-3.2
-7.76
-12.08
-16.81
-22.49
-29.35
-37.04
-44.6
-50.74
-54.2
-54.28
-51.1
-45.57
-38.98
-32.48
-26.6
-21.28
-16.1
-10.73
-5.25
-0.12
4.11
7.12
9.04
10.28
11.37
12.6
13.96
15.23
16.18
16.74
16.99
17.12
17.25
17.36
17.27
16.75
15.64
13.94
11.81
9.5
7.27
5.27
3.52
1.91
0.29
-1.46
-3.35
-5.37
-7.47
-9.66
-12.04
-14.73
-17.87
-21.48
-25.42
-29.31
-32.56
-34.48
-34.51
-32.37
-28.23
-22.59
-16.17
-9.63
-3.41
2.33
7.6
12.45
16.85
20.71
23.92
26.43
28.28
29.56
30.33
30.62
30.44
29.83
28.88
27.7
26.4
25.03
23.5
21.65
19.33
16.39
12.83
8.78
4.49
0.22
-3.76
-7.31
-10.45
-13.27
-15.92
-18.53
-21.18
-23.86
-26.52
-29.06
-31.39
-33.48
-35.38
-37.22
-39.19
-41.47
-44.04
-46.64
-48.75
-49.76
-49.12
-46.57
-42.2
-36.4
-29.66
-22.37
-14.77
-7
0.74
8.15
14.79
20.21
24.08
26.32
27.09
26.77
25.91
25.11
24.93
25.79
27.79
30.78
34.41
38.3
42.06
45.35
47.8
49.04
48.76
46.87
43.61
39.47
35.08
30.9
27.19
23.98
21.23
18.97
17.23
16
15.05
13.9
11.96
8.7
3.9
-2.23
-9.08
-15.77
-21.37
-25.22
-27.06
-27.14
-26.11
-24.8
-23.96
-24
-24.87
-26.19
-27.4
-28.05
-27.98
-27.36
-26.56
-25.94
-25.68
-25.74
-25.92
-25.97
-25.73
-25.11
-24.08
-22.6
-20.66
-18.3
-15.65
-12.99
-10.68
-9.01
-8.15
-8.09
-8.68
-9.68
-10.83
-11.9
-12.74
-13.23
-13.38
-13.28
-13.14
-13.2
-13.64
-14.6
-16.07
-17.87
-19.7
-21.16
-21.77
-21.18
-19.19
-15.84
-11.45
-6.58
-1.81
2.28
5.27
6.99
7.48
7.08
6.25
5.47
5.11
5.28
5.87
6.53
6.91
6.8
6.18
5.24
4.22
3.32
2.64
2.18
1.98
2.09
2.58
3.44
4.58
5.74
6.65
7.05
6.77
5.74
3.91
1.22
-2.35
-6.63
-11.17
-15.17
-17.65
-17.74
-15.04
-9.82
-2.99
4.2
10.64
15.7
19.42
22.33
25.08
28.06
31.19
33.96
35.74
36.08
34.93
32.64
29.72
26.6
23.48
20.26
16.77
12.89
8.81
4.93
1.71
-0.57
-2.04
-3.18
-4.68
-7.1
-10.62
-14.99
-19.64
-23.86
-26.97
-28.47
-27.98
-25.33
-20.54
-13.89
-5.93
2.67
11.28
19.4
26.69
32.95
37.97
41.58
43.77
44.8
45.14
45.32
45.66
46.04
45.98
44.85
42.19
37.9
32.28
25.84
19.1
12.38
5.75
-0.87
-7.66
-14.8
-22.41
-30.57
-39.23
-48.14
-56.81
-64.49
-70.31
-73.56
-73.86
-71.43
-66.94
-61.35
-55.56
-50.15
-45.36
-41.15
-37.43
-34.12
-31.22
-28.69
-26.38
-24.06
-21.53
-18.79
-16.03
-13.6
-11.75
-10.5
-9.61
-8.7
-7.44
-5.76
-3.91
-2.31
-1.37
-1.32
-2.13
-3.6
-5.41
-7.23
-8.67
-9.26
-8.42
-5.68
-0.81
5.94
13.85
21.96
29.36
35.52
40.29
43.8
46.21
47.59
47.92
47.25
45.88
44.3
43.06
42.47
42.48
42.64
42.24
40.49
36.68
30.39
21.46
10.08
-3.26
-17.91
-33.16
-48.37
-63.19
-77.5
-91.4
-104.89
-117.66
-128.9
-137.36
-141.74
-141.07
-135.18
-124.71
-110.86
-94.91
-77.89
-60.43
-43.03
-26.43
-11.7
-0.11
7.38
10.48
9.72
6.26
1.42
-3.69
-8.42
-12.54
-16.04
-18.99
-21.43
-23.37
-24.85
-26.03
-27.1
-28.36
-30.12
-32.65
-36.15
-40.51
-45.31
-49.68
-52.51
-52.68
-49.45
-42.66
-32.75
-20.51
-6.82
7.62
22.37
37.13
51.59
65.4
78.15
89.44
98.96
106.48
111.86
115.09
116.3
115.77
113.91
111.19
108.01
104.7
101.38
98.07
94.54
90.35
84.88
77.45
67.64
55.61
42.2
28.91
17.49
9.5
5.81
6.44
10.58
16.97
24.29
31.52
38.09
43.76
48.41
51.92
54.11
54.85
54.2
52.45
49.99
47.14
44.02
40.53
36.57
32.17
27.6
23.2
19.24
15.73
12.33
8.59
4.08
-1.42
-7.95
-15.43
-23.73
-32.64
-41.69
-50.08
-56.71
-60.44
-60.51
-56.81
-50.02
-41.35
-32.14
-23.52
-16.14
-10.21
-5.72
-2.53
-0.54
0.36
0.39
-0.12
-0.73
-1.09
-0.98
-0.42
0.46
1.48
2.58
3.78
5.17
6.72
8.21
9.28
9.43
8.21
5.36
0.87
-4.94
-11.39
-17.47
-22.08
-24.13
-22.96
-18.42
-11.02
-1.76
8.06
17.19
24.68
29.94
32.75
33.16
31.38
27.77
22.84
17.21
11.56
6.49
2.37
-0.74
-3.13
-5.26
-7.6
-10.44
-13.81
-17.52
-21.29
-25
-28.7
-32.63
-37.06
-42.12
-47.59
-52.81
-56.79
-58.47
-57.09
-52.52
-45.41
-36.99
-28.56
-21.11
-14.92
-9.64
-4.64
0.54
5.95
11.25
15.98
19.87
22.98
25.6
28.02
30.31
32.35
33.89
34.79
35.09
34.99
34.7
34.29
33.67
32.58
30.63
27.45
22.73
16.43
8.9
0.99
-6.02
-10.78
-12.23
-9.99
-4.47
3.3
12.01
20.44
27.72
33.31
36.94
38.48
37.96
35.57
31.63
26.6
20.93
15
9
2.94
-3.36
-10.08
-17.29
-24.8
-32.16
-38.73
-44
-47.73
-50.1
-51.58
-52.74
-54.04
-55.66
-57.47
-59.02
-59.58
-58.26
-54.19
-46.74
-35.82
-22.07
-6.71
8.71
22.8
34.61
43.77
50.42
54.99
58
60.01
61.49
62.86
64.36
66.07
67.85
69.43
70.48
70.78
70.26
68.98
67.06
64.59
61.53
57.75
53.05
47.26
40.3
32.33
23.8
15.45
8.24
3.12
0.76
1.28
4.21
8.61
13.4
17.7
21.03
23.27
24.48
24.68
23.81
21.74
18.45
14.19
9.43
4.73
0.6
-2.71
-5.25
-7.32
-9.32
-11.59
-14.2
-17.08
-20.05
-23.06
-26.29
-30.16
-35.14
-41.52
-49.19
-57.58
-65.73
-72.47
-76.71
-77.63
-74.92
-68.78
-59.93
-49.4
-38.35
-27.87
-18.8
-11.66
-6.68
-3.78
-2.63
-2.7
-3.39
-4.1
-4.42
-4.15
-3.32
-2.16
-0.94
0.13
0.95
1.54
1.98
2.32
2.55
2.52
2.02
0.72
-1.62
-5.07
-9.33
-13.74
-17.33
-19.12
-18.42
-15.05
-9.41
-2.34
5.12
12
17.59
21.46
23.47
23.7
22.41
20
16.95
13.81
11.04
8.99
7.77
7.28
7.14
6.94
6.27
4.94
2.98
0.57
-2.12
-5.05
-8.4
-12.44
-17.46
-23.57
-30.53
-37.75
-44.35
-49.3
-51.69
-50.99
-47.24
-41.05
-33.42
-25.44
-18.03
-11.79
-6.93
-3.48
-1.4
-0.61
-1.01
-2.34
-4.16
-5.95
-7.3
-8.06
-8.37
-8.63
-9.24
-10.46
-12.27
-14.46
-16.74
-18.9
-20.81
-22.49
-23.97
-25.35
-26.76
-28.26
-29.78
-30.9
-30.9
-28.87
-24.13
-16.48
-6.41
5.03
16.57
27.1
35.88
42.62
47.34
50.25
51.57
51.64
50.81
49.54
48.25
47.19
46.34
45.39
43.88
41.35
37.58
32.69
27.1
21.25
15.44
9.69
3.73
-2.75
-9.98
-17.9
-26.14
-34.01
-40.64
-45.12
-46.75
-45.23
-40.78
-34.08
-26.1
-17.77
-9.88
-2.9
2.9
7.32
10.23
11.53
11.33
9.95
7.95
5.95
4.49
3.81
3.81
4.1
4.2
3.74
2.58
0.84
-1.22
-3.36
-5.46
-7.58
-9.91
-12.68
-16.08
-20.18
-24.76
-29.32
-33.01
-34.9
-34.2
-30.59
-24.46
-16.71
-8.52
-0.94
5.34
10.08
13.31
15.14
15.63
14.85
13.01
10.55
8.08
6.26
5.5
5.81
6.78
7.77
8.16
7.67
6.39
4.75
3.19
2
1.07
0.03
-1.62
-4.3
-8.1
-12.75
-17.61
-21.81
-24.45
-24.8
-22.55
-17.88
-11.43
-4.12
3.13
9.54
14.65
18.27
20.4
21.12
20.59
19.05
16.91
14.69
12.92
11.95
11.81
12.16
12.4
12.02
10.73
8.66
6.18
3.74
1.62
-0.12
-1.68
-3.35
-5.47
-8.36
-12.19
-16.97
-22.3
-27.41
-31.24
-32.7
-31.14
-26.54
-19.61
-11.48
-3.37
3.8
9.59
13.96
17.07
19.06
19.98
19.82
18.68
16.84
14.79
13.07
12.05
11.76
11.9
11.91
11.32
9.89
7.74
5.19
2.63
0.25
-1.97
-4.24
-6.76
-9.64
-12.83
-16.25
-19.83
-23.55
-27.25
-30.54
-32.69
-32.89
-30.53
-25.52
-18.46
-10.42
-2.59
4.14
9.34
13.06
15.52
16.95
17.49
17.24
16.44
15.47
14.82
14.89
15.82
17.44
19.29
20.83
21.63
21.47
20.36
18.5
16.11
13.4
10.56
7.65
4.71
1.7
-1.47
-4.98
-8.99
-13.58
-18.57
-23.46
-27.46
-29.69
-29.44
-26.46
-21.11
-14.25
-6.99
-0.34
5.04
8.93
11.45
12.83
13.33
13.14
12.47
11.58
10.79
10.34
10.36
10.7
11.07
11.11
10.56
9.4
7.83
6.15
4.63
3.39
2.39
1.45
0.41
-0.9
-2.51
-4.44
-6.7
-9.33
-12.37
-15.82
-19.49
-22.92
-25.44
-26.25
-24.75
-20.77
-14.7
-7.38
0.16
7.03
12.8
17.41
21.06
23.99
26.29
27.95
28.87
29.03
28.52
27.54
26.32
25.14
24.17
23.49
23.04
22.62
21.97
20.89
19.3
17.28
15.01
12.63
10.19
7.62
4.79
1.6
-2.04
-6.07
-10.38
-14.71
-18.65
-21.66
-23.15
-22.67
-20.07
-15.65
-10.11
-4.32
0.91
5.03
7.83
9.4
9.94
9.67
8.73
7.3
5.61
3.97
2.72
2.02
1.83
1.81
1.53
0.67
-0.8
-2.59
-4.3
-5.63
-6.58
-7.44
-8.58
-10.33
-12.79
-15.88
-19.36
-22.9
-26.03
-28.16
-28.67
-27.1
-23.41
-18.03
-11.76
-5.53
-0.05
4.34
7.62
9.93
11.42
12.15
12.18
11.57
10.52
9.34
8.31
7.65
7.34
7.18
6.86
6.1
4.78
3
1.04
-0.79
-2.29
-3.55
-4.81
-6.44
-8.69
-11.63
-15.04
-18.48
-21.33
-22.95
-22.86
-20.84
-17.07
-12.03
-6.41
-0.87
4.14
8.37
11.81
14.51
16.44
17.57
17.88
17.46
16.55
15.44
14.29
13.12
11.78
10.01
7.65
4.72
1.42
-1.97
-5.18
-8.1
-10.76
-13.32
-15.95
-18.79
-21.93
-25.46
-29.39
-33.57
-37.64
-40.9
-42.53
-41.81
-38.43
-32.66
-25.31
-17.44
-10.01
-3.59
1.66
5.88
9.25
11.85
13.64
14.55
14.63
14.11
13.36
12.76
12.62
12.97
13.63
14.23
14.37
13.84
12.62
10.91
9
7.12
5.36
3.64
1.77
-0.48
-3.25
-6.6
-10.49
-14.73
-18.98
-22.73
-25.35
-26.26
-25.08
-21.81
-16.86
-10.99
-5.05
0.26
4.52
7.63
9.74
11.06
11.79
12.06
11.99
11.65
11.13
10.43
9.51
8.31
6.82
5.18
3.57
2.19
1.09
0.18
-0.75
-1.9
-3.38
-5.18
-7.23
-9.46
-11.86
-14.43
-17.14
-20
-23.04
-26.34
-30.05
-34.14
-38.23
-41.56
-43.14
-42.14
-38.22
-31.72
-23.53
-14.8
-6.46
0.89
7.08
12.13
16.08
18.94
20.74
21.63
21.9
21.98
22.17
22.59
23.1
23.37
23.06
21.99
20.19
17.88
15.35
12.78
10.19
7.41
4.28
0.72
-3.15
-7.08
-10.74
-13.92
-16.61
-18.99
-21.4
-24.24
-27.81
-32.25
-37.34
-42.49
-46.74
-49
-48.37
-44.48
-37.62
-28.71
-19.02
-9.72
-1.64
4.84
9.72
13.15
15.39
16.66
17.27
17.52
17.71
18.07
18.67
19.44
20.26
21.02
21.69
22.24
22.64
22.8
22.57
21.82
20.43
18.37
15.64
12.34
8.61
4.67
0.78
-2.86
-6.16
-9.27
-12.53
-16.36
-21.06
-26.58
-32.48
-37.86
-41.64
-42.78
-40.66
-35.27
-27.23
-17.68
-7.94
0.83
7.87
12.92
16.12
17.85
18.56
18.69
18.6
18.58
18.83
19.4
20.22
21.1
21.81
22.23
22.34
22.22
21.95
21.54
20.84
19.57
17.52
14.59
10.87
6.61
2.17
-2.15
-6.15
-9.85
-13.43
-17.21
-21.55
-26.68
-32.56
-38.67
-44.01
-47.33
-47.42
-43.58
-35.9
-25.26
-13.1
-0.99
9.81
18.55
25.01
29.45
32.26
33.89
34.67
34.83
34.5
33.75
32.68
31.42
30.08
28.72
27.28
25.59
23.45
20.66
17.18
13.05
8.42
3.5
-1.56
-6.56
-11.37
-15.85
-19.98
-23.86
-27.79
-32.17
-37.3
-43.13
-49.03
-53.84
-56.11
-54.65
-48.93
-39.39
-27.28
-14.3
-2
8.57
17.03
23.42
28.02
31.08
32.77
33.29
32.92
32.1
31.25
30.65
30.41
30.38
30.28
29.84
28.81
27.04
24.49
21.23
17.44
13.35
9.23
5.23
1.38
-2.44
-6.44
-10.86
-15.88
-21.58
-27.79
-34
-39.24
-42.26
-41.85
-37.31
-28.81
-17.45
-4.98
6.79
16.5
23.51
27.83
29.86
30.06
28.82
26.46
23.34
19.98
16.95
14.75
13.61
13.41
13.82
14.32
14.5
14.05
12.85
10.95
8.49
5.68
2.7
-0.28
-3.22
-6.19
-9.38
-13.04
-17.45
-22.74
-28.76
-34.9
-40.12
-43.12
-42.71
-38.26
-29.96
-18.89
-6.59
5.37
15.85
24.3
30.64
35
37.49
38.2
37.27
35
31.93
28.72
26.03
24.26
23.51
23.48
23.64
23.39
22.27
20.12
17.13
13.75
10.47
7.6
5.16
2.9
0.43
-2.58
-6.37
-11.01
-16.45
-22.39
-28.16
-32.67
-34.62
-32.82
-26.71
-16.74
-4.34
8.53
19.96
28.68
34.27
37
37.54
36.49
34.32
31.35
27.94
24.55
21.64
19.59
18.48
18.09
18.02
17.85
17.29
16.27
14.92
13.43
11.96
10.6
9.32
8.02
6.55
4.73
2.35
-0.77
-4.77
-9.7
-15.38
-21.28
-26.47
-29.76
-30
-26.54
-19.54
-10.11
0.07
9.28
16.36
20.9
23.22
23.89
23.4
22.02
19.88
17.17
14.35
11.98
10.53
10.14
10.53
11.14
11.36
10.77
9.26
6.99
4.31
1.59
-0.92
-3.15
-5.27
-7.59
-10.46
-14.2
-18.88
-24.29
-29.85
-34.66
-37.65
-37.89
-34.86
-28.7
-20.17
-10.5
-0.95
7.46
14.18
19.06
22.17
23.66
23.73
22.64
20.8
18.75
17.08
16.24
16.4
17.41
18.88
20.22
20.91
20.64
19.38
17.4
15.14
13.04
11.38
10.18
9.21
8.1
6.45
3.97
0.54
-3.7
-8.41
-12.91
-16.37
-17.86
-16.69
-12.62
-6.03
2.11
10.5
17.95
23.66
27.4
29.36
29.97
29.57
28.35
26.4
23.87
21.08
18.52
16.68
15.84
15.94
16.59
17.26
17.43
16.85
15.56
13.8
11.84
9.83
7.68
5.19
2.17
-1.5
-5.75
-10.46
-15.5
-20.66
-25.61
-29.78
-32.38
-32.7
-30.33
-25.44
-18.78
-11.43
-4.39
1.64
6.48
10.29
13.34
15.82
17.76
19.07
19.69
19.72
19.42
19.07
18.89
18.86
18.73
18.13
16.77
14.61
11.93
9.17
6.77
4.9
3.35
1.65
-0.76
-4.27
-8.93
-14.47
-20.29
-25.68
-29.87
-32.2
-32.2
-29.71
-24.99
-18.7
-11.79
-5.21
0.35
4.67
7.9
10.33
12.15
13.35
13.78
13.33
12.14
10.59
9.17
8.22
7.83
7.74
7.56
6.9
5.62
3.8
1.71
-0.38
-2.31
-4.14
-6.07
-8.42
-11.49
-15.48
-20.37
-25.94
-31.68
-36.85
-40.63
-42.27
-41.35
-37.95
-32.62
-26.23
-19.7
-13.7
-8.55
-4.3
-0.84
1.88
3.84
5.03
5.53
5.57
5.5
5.63
6.08
6.76
7.43
7.8
7.67
6.97
5.74
4.09
2.16
0.07
-2.04
-4.07
-6.01
-7.91
-9.9
-12.15
-14.84
-18.05
-21.67
-25.37
-28.54
-30.48
-30.53
-28.33
-23.98
-18
-11.18
-4.33
1.93
7.24
11.48
14.65
16.83
18.11
18.66
18.67
18.37
17.94
17.56
17.34
17.31
17.46
17.69
17.86
17.81
17.4
16.59
15.42
14.01
12.43
10.69
8.75
6.59
4.28
1.93
-0.33
-2.49
-4.71
-7.23
-10.3
-14.01
-18.29
-22.89
-27.46
-31.47
-34.34
-35.45
-34.4
-31.14
-26.15
-20.24
-14.27
-8.88
-4.24
-0.23
3.34
6.51
9.09
10.77
11.39
11.02
9.92
8.48
6.99
5.64
4.52
3.62
2.88
2.19
1.37
0.3
-1.06
-2.64
-4.24
-5.69
-6.96
-8.13
-9.38
-10.81
-12.43
-14.09
-15.54
-16.62
-17.24
-17.41
-17.23
-16.83
-16.37
-16.1
-16.34
-17.41
-19.46
-22.31
-25.34
-27.62
-28.17
-26.35
-22.11
-16.04
-9.19
-2.64
2.82
6.88
9.69
11.61
13.02
14.09
14.87
15.33
15.49
15.46
15.42
15.54
15.86
16.33
16.79
17.08
17.07
16.76
16.23
15.57
14.83
13.99
12.96
11.6
9.82
7.65
5.19
2.61
0.13
-2.11
-4.03
-5.66
-7.14
-8.65
-10.39
-12.54
-15.23
-18.53
-22.39
-26.55
-30.49
-33.53
-34.93
-34.24
-31.47
-27.17
-22.24
-17.6
-13.81
-11
-8.92
-7.23
-5.72
-4.4
-3.38
-2.7
-2.26
-1.85
-1.25
-0.38
0.7
1.82
2.83
3.6
4.11
4.39
4.5
4.52
4.5
4.39
4.06
3.31
2.03
0.21
-1.92
-4.02
-5.8
-7.14
-8.19
-9.22
-10.56
-12.41
-14.82
-17.73
-20.95
-24.2
-27.04
-28.92
-29.26
-27.68
-24.19
-19.24
-13.61
-8.16
-3.49
0.16
2.87
4.84
6.25
7.14
7.51
7.43
7.08
6.75
6.69
7.01
7.6
8.24
8.68
8.8
8.66
8.41
8.22
8.16
8.13
7.91
7.25
6.01
4.21
2.07
-0.09
-1.99
-3.54
-4.87
-6.24
-7.99
-10.37
-13.47
-17.11
-20.91
-24.25
-26.52
-27.18
-25.98
-23.07
-18.92
-14.26
-9.78
-6
-3.08
-0.92
0.69
1.9
2.72
3.09
2.97
2.48
1.87
1.48
1.54
2.08
2.91
3.71
4.17
4.15
3.67
2.87
1.91
0.89
-0.2
-1.41
-2.79
-4.31
-5.86
-7.34
-8.65
-9.87
-11.18
-12.87
-15.22
-18.39
-22.27
-26.4
-30.01
-32.19
-32.19
-29.66
-24.84
-18.45
-11.44
-4.72
1.12
5.8
9.32
11.77
13.29
14.03
14.17
13.99
13.73
13.58
13.62
13.77
13.94
13.97
13.72
13.1
12.06
10.58
8.69
6.46
3.95
1.21
-1.72
-4.83
-8.08
-11.43
-14.84
-18.3
-21.9
-25.72
-29.87
-34.3
-38.77
-42.7
-45.26
-45.58
-43.02
-37.51
-29.63
-20.47
-11.25
-2.93
4.08
9.84
14.6
18.62
21.89
24.3
25.78
26.49
26.76
26.99
27.46
28.16
28.84
29.22
29.02
28.11
26.49
24.26
21.55
18.52
15.33
12.12
8.95
5.8
2.59
-0.86
-4.76
-9.29
-14.55
-20.43
-26.53
-32.13
-36.29
-38.05
-36.77
-32.33
-25.27
-16.69
-7.85
0.11
6.49
11.09
14.14
15.98
16.97
17.38
17.39
17.2
17.11
17.42
18.34
19.86
21.75
23.62
25.04
25.71
25.49
24.46
22.77
20.62
18.2
15.64
13
10.29
7.4
4.24
0.63
-3.59
-8.52
-14.11
-19.98
-25.4
-29.32
-30.68
-28.73
-23.42
-15.43
-6.03
3.29
11.36
17.5
21.61
23.96
24.91
24.81
23.94
22.58
21.02
19.62
18.64
18.18
18.16
18.31
18.31
17.93
17.04
15.67
13.95
12.01
9.91
7.68
5.28
2.68
-0.17
-3.24
-6.54
-10.07
-13.92
-18.17
-22.8
-27.58
-31.95
-35.05
-35.94
-33.95
-28.94
-21.49
-12.75
-4.09
3.3
8.74
12.1
13.62
13.7
12.7
10.92
8.69
6.37
4.44
3.28
3.1
3.85
5.23
6.82
8.21
9.13
9.47
9.28
8.65
7.72
6.54
5.14
3.52
1.7
-0.26
-2.3
-4.46
-6.9
-9.88
-13.52
-17.61
-21.52
-24.22
-24.65
-22.04
-16.29
-8.06
1.44
10.86
19.04
25.3
29.46
31.71
32.42
31.98
30.75
29.09
27.37
25.96
25.08
24.79
24.95
25.24
25.29
24.76
23.5
21.52
19.03
16.35
13.77
11.44
9.35
7.33
5.21
2.83
0.15
-2.85
-6.18
-9.83
-13.69
-17.41
-20.36
-21.74
-20.87
-17.43
-11.66
-4.28
3.71
11.35
17.99
23.38
27.58
30.82
33.32
35.22
36.54
37.29
37.58
37.62
37.74
38.25
39.32
40.92
42.78
44.5
45.7
46.12
45.7
44.51
42.66
40.2
37.19
33.65
29.63
25.21
20.44
15.28
9.65
3.52
-2.93
-9.16
-14.32
-17.48
-17.93
-15.49
-10.6
-4.21
2.6
8.85
13.9
17.43
19.32
19.62
18.43
16
12.7
9.03
5.5
2.51
0.29
-1.22
-2.28
-3.28
-4.61
-6.52
-9.03
-11.92
-14.87
-17.53
-19.75
-21.55
-23.12
-24.65
-26.33
-28.23
-30.32
-32.45
-34.26
-35.2
-34.62
-32.01
-27.21
-20.57
-12.88
-5.03
2.26
8.61
13.97
18.34
21.68
23.83
24.73
24.53
23.69
22.82
22.38
22.55
23.05
23.4
23.04
21.68
19.32
16.25
12.91
9.7
6.81
4.19
1.62
-1.24
-4.66
-8.84
-13.75
-19.16
-24.53
-29.12
-32.11
-32.89
-31.29
-27.72
-23.03
-18.25
-14.2
-11.27
-9.44
-8.46
-8.11
-8.36
-9.34
-11.15
-13.71
-16.66
-19.53
-21.87
-23.41
-24.12
-24.12
-23.59
-22.59
-21.14
-19.17
-16.73
-13.95
-11.11
-8.56
-6.67
-5.73
-5.91
-7.19
-9.42
-12.25
-15.19
-17.6
-18.87
-18.51
-16.31
-12.49
-7.6
-2.41
2.34
6.17
8.88
10.58
11.5
11.9
11.97
11.79
11.4
10.85
10.23
9.65
9.23
9
8.89
8.73
8.32
7.52
6.35
4.97
3.61
2.45
1.52
0.72
-0.14
-1.2
-2.51
-4.03
-5.73
-7.65
-9.83
-12.34
-15.08
-17.73
-19.82
-20.76
-20.11
-17.73
-13.95
-9.39
-4.83
-0.94
1.97
3.94
5.27
6.28
7.16
7.93
8.5
8.76
8.75
8.6
8.45
8.36
8.3
8.17
7.87
7.41
6.86
6.3
5.72
5
3.96
2.46
0.5
-1.77
-4.09
-6.22
-8.02
-9.52
-10.91
-12.45
-14.37
-16.77
-19.59
-22.5
-25.02
-26.56
-26.68
-25.18
-22.26
-18.36
-14.09
-9.97
-6.28
-3.14
-0.49
1.72
3.51
4.86
5.78
6.38
6.81
7.29
7.96
8.85
9.87
10.82
11.55
11.94
12.01
11.85
11.55
11.15
10.56
9.67
8.42
6.85
5.11
3.4
1.86
0.53
-0.69
-1.96
-3.49
-5.42
-7.84
-10.72
-13.81
-16.73
-18.98
-20.11
-19.89
-18.34
-15.77
-12.64
-9.43
-6.51
-4.12
-2.36
-1.21
-0.62
-0.46
-0.59
-0.83
-1.03
-1.08
-0.95
-0.67
-0.33
-0.09
-0.11
-0.49
-1.23
-2.15
-3.01
-3.56
-3.69
-3.42
-2.97
-2.54
-2.31
-2.27
-2.28
-2.13
-1.69
-0.91
0.14
1.25
2.19
2.69
2.55
1.68
0.22
-1.44
-2.72
-3.06
-2.07
0.29
3.69
7.65
11.64
15.35
18.67
21.58
24.13
26.28
28
29.28
30.29
31.27
32.45
33.97
35.7
37.37
38.63
39.24
39.11
38.36
37.24
36
34.83
33.76
32.69
31.42
29.72
27.42
24.48
20.99
17.16
13.23
9.34
5.48
1.54
-2.68
-7.22
-11.93
-16.4
-20.06
-22.35
-22.93
-21.86
-19.59
-16.8
-14.21
-12.23
-10.99
-10.26
-9.75
-9.22
-8.67
-8.23
-8.04
-8.11
-8.3
-8.36
-8.09
-7.43
-6.51
-5.6
-4.96
-4.8
-5.17
-5.94
-6.91
-7.86
-8.67
-9.37
-10.11
-11.06
-12.36
-14.09
-16.24
-18.81
-21.72
-24.82
-27.81
-30.19
-31.37
-30.9
-28.68
-25.06
-20.76
-16.66
-13.4
-11.22
-9.95
-9.17
-8.51
-7.84
-7.24
-6.92
-6.99
-7.4
-7.93
-8.33
-8.42
-8.2
-7.74
-7.26
-6.95
-6.97
-7.35
-8.07
-9.01
-10.05
-11.14
-12.31
-13.7
-15.47
-17.65
-20.2
-22.93
-25.65
-28.1
-30.02
-31.05
-30.81
-29.02
-25.64
-21
-15.68
-10.32
-5.46
-1.32
2.06
4.76
6.79
8.12
8.7
8.58
7.96
7.1
6.3
5.7
5.3
4.92
4.33
3.32
1.82
-0.08
-2.13
-4.03
-5.56
-6.66
-7.39
-7.93
-8.46
-9.13
-10.08
-11.48
-13.52
-16.34
-19.83
-23.53
-26.63
-28.22
-27.56
-24.46
-19.36
-13.2
-7.07
-1.77
2.36
5.44
7.84
9.89
11.68
13.12
14.02
14.31
14.08
13.61
13.21
13.1
13.34
13.84
14.43
14.91
15.14
15.05
14.64
13.98
13.14
12.11
10.89
9.43
7.69
5.66
3.33
0.65
-2.39
-5.67
-8.81
-11.16
-11.93
-10.52
-6.79
-1.25
5.08
10.99
15.5
18.13
18.89
18.11
16.19
13.41
9.92
5.88
1.56
-2.66
-6.31
-9.03
-10.67
-11.34
-11.39
-11.2
-11.14
-11.4
-12
-12.83
-13.82
-14.87
-15.98
-17.18
-18.51
-20
-21.76
-23.87
-26.4
-29.24
-32.01
-34.04
-34.5
-32.62
-28.02
-20.85
-11.77
-1.79
8.02
16.84
24.19
29.96
34.23
37.17
38.89
39.49
39.08
37.88
36.16
34.23
32.29
30.39
28.42
26.23
23.73
20.88
17.77
14.49
11.08
7.56
3.9
0.1
-3.82
-7.83
-11.95
-16.31
-21.07
-26.42
-32.39
-38.72
-44.82
-49.78
-52.62
-52.56
-49.32
-43.18
-34.98
-25.76
-16.52
-7.92
-0.28
6.32
11.9
16.49
20.1
22.81
24.81
26.33
27.59
28.66
29.48
29.93
29.9
29.43
28.65
27.72
26.7
25.49
23.89
21.7
18.86
15.49
11.87
8.26
4.82
1.52
-1.8
-5.35
-9.33
-13.88
-19.03
-24.63
-30.28
-35.24
-38.55
-39.23
-36.64
-30.8
-22.41
-12.68
-2.9
5.94
13.38
19.39
24.16
27.84
30.44
31.93
32.38
32.05
31.39
30.85
30.7
30.97
31.45
31.8
31.75
31.15
30.03
28.56
26.96
25.37
23.8
22.12
20.08
17.46
14.22
10.49
6.58
2.84
-0.5
-3.38
-5.94
-8.46
-11.19
-14.36
-18.13
-22.56
-27.55
-32.75
-37.53
-41
-42.22
-40.47
-35.59
-28.08
-18.96
-9.51
-0.8
6.54
12.42
17.14
21.07
24.41
27.07
28.81
29.45
29.08
28.09
26.99
26.25
26
26.06
26.03
25.53
24.38
22.64
20.53
18.28
16.05
13.88
11.72
9.51
7.22
4.88
2.52
0.13
-2.32
-4.92
-7.76
-10.85
-14.17
-17.69
-21.42
-25.39
-29.62
-33.89
-37.73
-40.39
-41.1
-39.29
-34.92
-28.46
-20.75
-12.68
-4.98
1.95
7.9
12.79
16.57
19.2
20.72
21.28
21.19
20.8
20.49
20.49
20.86
21.46
22.04
22.33
22.15
21.52
20.58
19.54
18.5
17.4
16.05
14.24
11.87
9.06
6.03
3.07
0.33
-2.18
-4.62
-7.19
-10.09
-13.43
-17.25
-21.45
-25.85
-30.05
-33.45
-35.38
-35.27
-32.91
-28.54
-22.84
-16.69
-10.85
-5.76
-1.5
2.07
5.14
7.72
9.72
11.04
11.76
12.11
12.41
12.88
13.56
14.27
14.8
15.02
14.99
14.88
14.83
14.86
14.79
14.33
13.29
11.61
9.48
7.17
4.98
3.05
1.36
-0.28
-2.09
-4.32
-7.14
-10.62
-14.62
-18.8
-22.55
-25.11
-25.8
-24.27
-20.67
-15.57
-9.88
-4.48
-0.02
3.22
5.28
6.37
6.74
6.66
6.31
5.86
5.46
5.19
5.11
5.23
5.49
5.83
6.11
6.23
6.1
5.73
5.15
4.45
3.64
2.67
1.43
-0.15
-2.03
-4.01
-5.83
-7.29
-8.4
-9.37
-10.59
-12.41
-14.97
-18.09
-21.29
-23.9
-25.24
-24.85
-22.57
-18.66
-13.67
-8.36
-3.46
0.46
3.15
4.63
5.2
5.25
5.11
4.98
4.89
4.8
4.64
4.42
4.2
4.05
4.01
4.06
4.13
4.16
4.09
3.84
3.38
2.63
1.56
0.23
-1.28
-2.82
-4.32
-5.82
-7.5
-9.56
-12.16
-15.37
-19.08
-22.98
-26.6
-29.33
-30.57
-29.85
-27.08
-22.57
-17.05
-11.42
-6.47
-2.61
0.13
2.05
3.51
4.75
5.89
6.89
7.7
8.34
8.84
9.24
9.52
9.62
9.5
9.16
8.68
8.13
7.55
6.91
6.1
5.05
3.75
2.26
0.71
-0.8
-2.23
-3.64
-5.17
-6.96
-9.09
-11.56
-14.2
-16.7
-18.64
-19.59
-19.19
-17.3
-14.11
-10.1
-5.9
-2.12
0.84
2.82
3.96
4.47
4.58
4.41
3.99
3.31
2.38
1.31
0.27
-0.56
-1.05
-1.2
-1.13
-1.01
-0.99
-1.1
-1.32
-1.54
-1.72
-1.83
-1.92
-2.04
-2.2
-2.43
-2.85
-3.63
-5
-7.08
-9.81
-12.77
-15.37
-16.94
-17.04
-15.57
-12.82
-9.37
-5.8
-2.61
-0.03
1.92
3.34
4.34
4.98
5.3
5.36
5.26
5.16
5.24
5.59
6.17
6.86
7.44
7.72
7.58
7.03
6.19
5.2
4.2
3.26
2.36
1.41
0.27
-1.15
-2.95
-5.19
-7.89
-11.05
-14.53
-18.06
-21.14
-23.17
-23.68
-22.41
-19.58
-15.71
-11.48
-7.42
-3.81
-0.65
2.16
4.59
6.45
7.5
7.58
6.89
5.88
5.15
5.14
5.94
7.22
8.44
9.09
8.91
7.96
6.57
5.11
3.82
2.78
1.87
0.96
-0.1
-1.38
-2.95
-4.92
-7.42
-10.53
-14.1
-17.62
-20.33
-21.39
-20.21
-16.8
-11.75
-6.09
-0.9
3.08
5.64
7.04
7.74
8.15
8.43
8.51
8.3
7.8
7.16
6.63
6.38
6.43
6.64
6.75
6.6
6.11
5.37
4.49
3.56
2.59
1.52
0.29
-1.11
-2.66
-4.32
-6.11
-8.09
-10.29
-12.68
-15.02
-16.84
-17.51
-16.42
-13.21
-7.94
-1.14
6.38
13.74
20.25
25.57
29.62
32.5
34.31
35.14
35.08
34.27
32.99
31.58
30.37
29.56
29.18
29.08
29.07
28.92
28.53
27.85
26.97
25.95
24.83
23.62
22.25
20.65
18.77
16.6
14.17
11.49
8.52
5.16
1.43
-2.46
-6.01
-8.48
-9.14
-7.62
-4.09
0.67
5.58
9.61
12.14
13.1
12.83
11.86
10.57
9.1
7.42
5.47
3.31
1.16
-0.66
-1.97
-2.78
-3.3
-3.84
-4.67
-5.89
-7.42
-9.07
-10.63
-11.97
-13.09
-14.04
-15.01
-16.19
-17.79
-19.97
-22.67
-25.57
-28.12
-29.65
-29.54
-27.48
-23.47
-17.86
-11.2
-4.09
2.88
9.21
14.45
18.31
20.6
21.35
20.76
19.18
17.05
14.78
12.75
11.17
10.06
9.2
8.26
6.89
4.96
2.61
0.12
-2.2
-4.25
-6.19
-8.31
-10.85
-13.92
-17.43
-21.18
-24.88
-28.12
-30.41
-31.14
-29.83
-26.24
-20.6
-13.52
-5.82
1.71
8.5
14.23
18.72
21.9
23.77
24.42
24.09
23.14
22
21.11
20.76
21.02
21.69
22.35
22.49
21.77
20.13
17.8
15.22
12.69
10.3
7.83
4.93
1.33
-3.01
-7.88
-12.89
-17.57
-21.34
-23.63
-23.99
-22.18
-18.37
-13.1
-7.18
-1.37
3.81
8.16
11.72
14.53
16.57
17.75
17.97
17.28
15.95
14.34
12.84
11.69
10.99
10.62
10.34
9.93
9.19
8.06
6.6
4.94
3.14
1.18
-1.07
-3.77
-6.99
-10.78
-15.03
-19.54
-23.97
-27.8
-30.4
-31.15
-29.7
-26.13
-20.98
-15.11
-9.34
-4.2
0.12
3.75
6.82
9.41
11.43
12.76
13.42
13.61
13.65
13.89
14.48
15.35
16.21
16.72
16.62
15.82
14.46
12.75
10.91
9.07
7.2
5.15
2.78
-0.04
-3.33
-7.07
-11.2
-15.6
-20.09
-24.31
-27.76
-29.82
-29.95
-27.93
-23.96
-18.66
-12.86
-7.3
-2.44
1.64
5.08
8.07
10.69
12.89
14.61
15.82
16.62
17.16
17.57
17.86
17.97
17.77
17.21
16.31
15.17
13.82
12.22
10.27
7.86
5.01
1.86
-1.32
-4.25
-6.78
-8.91
-10.83
-12.84
-15.2
-18.09
-21.49
-25.13
-28.5
-30.93
-31.72
-30.38
-26.84
-21.55
-15.3
-9
-3.38
1.24
4.92
7.94
10.52
12.71
14.39
15.41
15.78
15.71
15.49
15.34
15.33
15.33
15.15
14.69
13.98
13.11
12.23
11.38
10.51
9.51
8.25
6.65
4.75
2.64
0.5
-1.53
-3.36
-5.03
-6.73
-8.69
-11.14
-14.17
-17.63
-21.09
-23.93
-25.47
-25.2
-22.97
-19.03
-14.01
-8.64
-3.57
0.88
4.64
7.8
10.4
12.38
13.63
14.11
14.02
13.75
13.75
14.34
15.52
17.06
18.57
19.71
20.32
20.41
20.06
19.34
18.26
16.73
14.7
12.18
9.28
6.22
3.18
0.31
-2.34
-4.84
-7.32
-9.91
-12.72
-15.81
-19.18
-22.74
-26.24
-29.28
-31.29
-31.72
-30.21
-26.8
-21.96
-16.44
-11.03
-6.27
-2.37
0.74
3.24
5.25
6.73
7.65
8.03
8.06
8.07
8.36
9.06
10.1
11.22
12.11
12.61
12.73
12.62
12.45
12.25
11.89
11.13
9.74
7.67
5.09
2.36
-0.16
-2.25
-3.95
-5.53
-7.34
-9.64
-12.5
-15.77
-19.21
-22.47
-25.16
-26.87
-27.24
-25.99
-23.15
-19.06
-14.38
-9.85
-6.06
-3.25
-1.29
0.16
1.4
2.55
3.54
4.23
4.59
4.73
4.88
5.29
6.03
