7.53
5.74
3.96
2.24
0.63
-0.77
-1.87
-2.59
-2.98
-3.23
-3.59
-4.39
-5.9
-8.21
-11.18
-14.43
-17.36
-19.33
-19.86
-18.68
-15.89
-11.9
-7.28
-2.67
1.46
4.77
7.17
8.73
9.59
9.95
9.98
9.84
9.63
9.42
9.23
9.09
9
8.98
9
9.04
9.07
9.07
9.06
9.03
8.93
8.65
8
6.79
4.99
2.75
0.41
-1.69
-3.28
-4.34
-5.08
-5.84
-6.93
-8.56
-10.77
-13.5
-16.56
-19.68
-22.45
-24.4
-25.01
-23.94
-21.08
-16.69
-11.28
-5.53
-0.1
4.56
8.17
10.7
12.25
12.97
13.02
12.6
11.91
11.15
10.52
10.11
9.98
10.15
10.52
11
11.42
11.65
11.62
11.31
10.77
10.01
9.01
7.66
5.91
3.79
1.42
-0.97
-3.22
-5.28
-7.24
-9.28
-11.58
-14.24
-17.28
-20.63
-24.13
-27.44
-30.05
-31.35
-30.78
-28.07
-23.42
-17.41
-10.91
-4.71
0.66
5.03
8.48
11.13
13.05
14.22
14.65
14.49
14.06
13.75
13.87
14.48
15.34
16.08
16.32
15.88
14.87
13.58
12.39
11.52
11
10.59
9.95
8.78
6.97
4.68
2.18
-0.26
-2.49
-4.54
-6.59
-8.85
-11.45
-14.42
-17.73
-21.26
-24.8
-27.98
-30.23
-30.95
-29.63
-26.12
-20.72
-14.07
-7.01
-0.3
5.55
10.31
13.94
16.51
18.1
18.78
18.64
17.89
16.79
15.72
14.97
14.73
15.01
15.64
16.34
16.87
17.1
17.01
16.69
16.19
15.49
14.47
13.02
11.04
8.6
5.9
3.18
0.65
-1.63
-3.75
-5.9
-8.27
-10.96
-13.99
-17.37
-21.11
-25.16
-29.34
-33.21
-36.11
-37.29
-36.19
-32.72
-27.23
-20.46
-13.24
-6.29
-0.05
5.25
9.5
12.64
14.64
15.57
15.66
15.28
14.82
14.57
14.69
15.14
15.78
16.42
16.92
17.18
17.2
17.05
16.77
16.37
15.79
14.87
13.45
11.43
8.82
5.78
2.63
-0.31
-2.82
-4.85
-6.58
-8.34
-10.5
-13.31
-16.85
-20.92
-25.08
-28.68
-31.01
-31.43
-29.57
-25.42
-19.39
-12.23
-4.82
2.02
7.74
12.13
15.23
17.26
18.44
18.94
18.89
18.43
17.74
17.07
16.64
16.55
16.76
17.11
17.41
17.54
17.49
17.31
17.02
16.57
15.8
14.55
12.71
10.36
7.72
5.11
2.73
0.65
-1.26
-3.3
-5.74
-8.79
-12.46
-16.55
-20.62
-24.08
-26.27
-26.59
-24.69
-20.62
-14.86
-8.19
-1.51
4.47
9.33
12.98
15.5
16.99
17.54
17.22
16.16
14.67
13.16
12.05
11.63
11.89
12.59
13.37
13.88
13.93
13.51
12.74
11.81
10.84
9.87
8.85
7.63
6.1
4.18
1.93
-0.51
-2.96
-5.27
-7.39
-9.41
-11.56
-14.1
-17.2
-20.82
-24.62
-27.92
-29.97
-30.13
-28.08
-23.98
-18.37
-12.02
-5.68
0.08
4.93
8.72
11.42
13.06
13.8
13.87
13.61
13.39
13.44
13.85
14.54
15.25
15.78
15.93
15.68
15.09
14.3
13.45
12.63
11.85
11.07
10.15
8.93
7.25
5.07
2.5
-0.21
-2.75
-4.9
-6.61
-8.09
-9.71
-11.88
-14.82
-18.48
-22.44
-26.08
-28.66
-29.57
-28.47
-25.38
-20.66
-14.96
-8.98
-3.32
1.63
5.76
9.14
11.89
14.11
15.82
17.01
17.71
18.01
18.08
18.06
18.05
18.08
18.15
18.24
18.34
18.43
18.47
18.35
17.95
17.17
15.97
14.41
12.6
10.65
8.66
6.61
4.47
2.24
-0.07
-2.36
-4.57
-6.65
-8.65
-10.62
-12.66
-14.83
-17.21
-19.84
-22.69
-25.55
-28
-29.47
-29.38
-27.41
-23.6
-18.39
-12.52
-6.7
-1.52
2.77
6.12
8.67
10.53
11.78
12.48
12.68
12.5
12.14
11.82
11.73
11.95
12.39
12.9
13.28
13.39
13.21
12.79
12.26
11.71
11.17
10.62
9.93
9.02
7.77
6.19
4.35
2.37
0.38
-1.53
-3.36
-5.11
-6.83
-8.53
-10.23
-12.01
-13.94
-16.11
-18.49
-20.87
-22.86
-23.99
-23.83
-22.18
-19.08
-14.86
-10.02
-5.07
-0.45
3.55
6.8
9.26
10.97
12.02
12.56
12.76
12.79
12.76
12.76
12.79
12.86
12.96
13.09
13.21
13.25
13.11
12.75
12.18
11.45
10.63
9.77
8.82
7.73
6.41
4.84
3.03
1.09
-0.84
-2.57
-4
-5.15
-6.16
-7.28
-8.76
-10.72
-13.12
-15.78
-18.42
-20.71
-22.37
-23.1
-22.62
-20.78
-17.59
-13.36
-8.62
-3.95
0.14
3.43
5.92
7.79
9.23
10.33
11.04
11.31
11.14
10.65
10.04
9.57
9.35
9.35
9.44
9.42
9.18
8.7
8.09
7.44
6.82
6.19
5.49
4.64
3.65
2.6
1.56
0.57
-0.42
-1.53
-2.82
-4.3
-5.87
-7.44
-8.96
-10.46
-12.01
-13.71
-15.62
-17.74
-19.98
-22.14
-23.92
-24.94
-24.86
-23.5
-20.92
-17.45
-13.56
-9.72
-6.27
-3.33
-0.87
1.22
3.04
4.62
5.92
6.88
7.46
7.68
7.63
7.46
7.35
7.39
7.63
8.04
8.51
8.97
9.36
9.65
9.84
9.87
9.68
9.2
8.39
7.31
6.01
4.6
3.15
1.68
0.15
-1.47
-3.24
-5.14
-7.1
-9.03
-10.84
-12.53
-14.2
-15.99
-18.06
-20.44
-22.95
-25.2
-26.66
-26.84
-25.5
-22.66
-18.67
-14.05
-9.35
-5.01
-1.31
1.61
3.76
5.22
6.09
6.52
6.69
6.75
6.8
6.89
6.97
7.01
6.96
6.88
6.82
6.86
7.02
7.25
7.42
7.39
7.05
6.37
5.38
4.17
2.87
1.61
0.47
-0.48
-1.3
-2.04
-2.77
-3.56
-4.46
-5.48
-6.65
-8.01
-9.63
-11.6
-13.98
-16.77
-19.86
-22.96
-25.61
-27.25
-27.36
-25.66
-22.27
-17.62
-12.41
-7.32
-2.85
0.79
3.57
5.59
6.92
7.61
7.72
7.4
6.87
6.37
6.1
6.1
6.37
6.82
7.4
8.09
8.83
9.53
10.07
10.26
10.02
9.29
8.16
6.74
5.18
3.57
2.02
0.58
-0.77
-2.08
-3.51
-5.2
-7.28
-9.78
-12.62
-15.61
-18.46
-20.79
-22.2
-22.29
-20.82
-17.8
-13.56
-8.66
-3.76
0.59
4.1
6.69
8.47
9.57
10.13
10.21
9.97
9.57
9.23
9.09
9.23
9.57
9.92
10.14
10.12
9.87
9.44
8.9
8.28
7.53
6.57
5.28
3.63
1.64
-0.6
-2.93
-5.2
-7.36
-9.46
-11.64
-14.1
-16.93
-20.06
-23.13
-25.64
-26.99
-26.7
-24.59
-20.77
-15.7
-9.99
-4.3
0.83
5.08
8.33
10.59
11.99
12.69
12.86
12.68
12.32
11.92
11.57
11.26
10.94
10.52
9.98
9.32
8.6
7.84
7.02
6.05
4.83
3.31
1.46
-0.63
-2.88
-5.17
-7.45
-9.75
-12.18
-14.91
-18.06
-21.66
-25.52
-29.2
-32.08
-33.48
-32.91
-30.17
-25.52
-19.54
-13.01
-6.68
-1.07
3.53
7.06
9.57
11.12
11.82
11.84
11.39
10.75
10.15
9.7
9.4
9.17
8.93
8.62
8.27
7.89
7.46
6.9
6.07
4.84
3.11
0.89
-1.7
-4.47
-7.25
-9.95
-12.58
-15.27
-18.22
-21.6
-25.52
-29.8
-34
-37.38
-39.06
-38.28
-34.66
-28.42
-20.33
-11.54
-3.16
3.97
9.52
13.57
16.42
18.34
19.55
20.14
20.21
19.94
19.58
19.37
19.45
19.77
20.19
20.48
20.47
20.08
19.32
18.27
16.99
15.49
13.69
11.52
8.94
6
2.84
-0.37
-3.51
-6.63
-9.93
-13.67
-17.99
-22.74
-27.34
-30.88
-32.38
-31.03
-26.56
-19.33
-10.27
-0.59
8.48
16.07
21.78
25.66
28.01
29.26
29.74
29.71
29.35
28.82
28.31
27.95
27.82
27.85
27.83
27.56
26.87
25.76
24.37
22.87
21.35
19.73
17.79
15.3
12.17
8.53
4.67
0.95
-2.44
-5.53
-8.61
-12.1
-16.31
-21.23
-26.45
-31.15
-34.28
-34.93
-32.56
-27.24
-19.64
-10.84
-1.95
6.17
13.03
18.52
22.68
25.56
27.2
27.67
27.19
26.17
25.15
24.62
24.82
25.71
26.93
28.01
28.54
28.36
27.53
26.32
24.99
23.69
22.37
20.85
18.9
16.35
13.2
9.6
5.79
2.02
-1.52
-4.76
-7.74
-10.58
-13.52
-16.85
-20.78
-25.36
-30.32
-35
-38.52
-39.96
-38.69
-34.54
-27.92
-19.69
-10.86
-2.44
4.88
10.75
15.2
18.45
20.82
22.59
23.92
24.9
25.5
25.72
25.61
25.28
24.86
24.52
24.36
24.42
24.66
24.96
25.11
24.92
24.24
23.06
21.45
19.59
17.58
15.46
13.18
10.69
7.94
4.95
1.79
-1.5
-4.89
-8.36
-11.89
-15.45
-19.01
-22.6
-26.31
-30.19
-34.15
-37.82
-40.57
-41.67
-40.55
-37.04
-31.47
-24.53
-17.07
-9.84
-3.31
2.31
6.97
10.75
13.66
15.72
16.94
17.45
17.43
17.18
16.98
17.06
17.52
18.29
19.12
19.78
20.06
19.93
19.46
18.82
18.08
17.26
16.24
14.93
13.27
11.31
9.17
7.01
4.91
2.89
0.89
-1.16
-3.31
-5.57
-7.99
-10.59
-13.49
-16.72
-20.16
-23.45
-26
-27.16
-26.46
-23.79
-19.49
-14.18
-8.59
-3.33
1.18
4.76
7.37
9.05
9.91
10.11
9.88
9.48
9.14
9.05
9.26
9.73
10.33
10.89
11.26
11.34
11.18
10.92
10.73
10.71
10.84
10.91
10.64
9.82
8.36
6.41
4.23
2.13
0.28
-1.32
-2.82
-4.38
-6.15
-8.18
-10.48
-12.98
-15.6
-18.06
-20
-20.96
-20.56
-18.69
-15.57
-11.72
-7.7
-3.93
-0.59
2.31
4.85
7.02
8.73
9.86
10.39
10.41
10.11
9.7
9.35
9.16
9.15
9.27
9.42
9.47
9.26
8.73
7.87
6.8
5.66
4.53
3.45
2.33
1.12
-0.21
-1.6
-2.96
-4.24
-5.45
-6.66
-7.93
-9.32
-10.83
-12.48
-14.29
-16.31
-18.52
-20.75
-22.58
-23.49
-22.97
-20.81
-17.15
-12.55
-7.79
-3.57
-0.34
1.81
3.07
3.8
4.27
4.62
4.88
4.98
4.92
4.76
4.62
4.58
4.66
4.82
4.98
5.06
5.03
4.87
4.55
4.06
3.4
2.65
1.93
1.29
0.76
0.18
-0.64
-1.87
-3.53
-5.49
-7.52
-9.4
-11.04
-12.46
-13.82
-15.28
-16.95
-18.83
-20.79
-22.62
-23.98
-24.53
-24.04
-22.43
-19.83
-16.57
-13.04
-9.61
-6.57
-4.03
-2
-0.4
0.86
1.87
2.7
3.43
4.1
4.75
5.34
5.78
5.97
5.84
5.44
4.91
4.47
4.31
4.43
4.72
4.94
4.88
4.44
3.6
2.46
1.08
-0.44
-2.01
-3.54
-4.94
-6.13
-7.12
-8
-8.89
-9.95
-11.26
-12.82
-14.51
-16.07
-17.18
-17.46
-16.68
-14.78
-11.97
-8.6
-5.12
-1.88
0.92
3.25
5.17
6.71
7.85
8.51
8.62
8.21
7.37
6.35
5.4
4.76
4.54
4.76
5.25
5.8
6.16
6.23
5.99
5.56
5.1
4.69
4.27
3.76
3
1.98
0.73
-0.61
-1.94
-3.23
-4.53
-5.94
-7.51
-9.3
-11.24
-13.22
-14.99
-16.26
-16.71
-16.12
-14.51
-12.08
-9.21
-6.28
-3.53
-1.08
1.11
3.01
4.54
5.57
6.01
5.87
5.38
4.83
4.54
4.69
5.24
6.03
6.8
7.31
7.42
7.15
6.64
6.06
5.53
5.09
4.6
3.87
2.71
1.09
-0.86
-2.87
-4.64
-6.01
-7.01
-7.84
-8.83
-10.27
-12.3
-14.9
-17.78
-20.54
-22.7
-23.83
-23.65
-22.1
-19.32
-15.65
-11.5
-7.29
-3.39
-0.07
2.49
4.23
5.19
5.46
5.25
4.81
4.38
4.13
4.13
4.35
4.73
5.21
5.75
6.3
6.79
7.16
7.36
7.36
7.14
6.69
5.93
4.76
3.15
1.19
-0.92
-2.91
-4.57
-5.9
-7.02
-8.19
-9.68
-11.68
-14.24
-17.22
-20.26
-22.86
-24.44
-24.54
-22.98
-19.94
-15.91
-11.51
-7.3
-3.61
-0.57
1.89
3.85
5.39
6.49
7.13
7.31
7.14
6.83
6.56
6.46
6.53
6.68
6.78
6.78
6.71
6.62
6.56
6.45
6.21
5.67
4.75
3.44
1.81
-0.04
-1.96
-3.85
-5.66
-7.46
-9.33
-11.44
-13.91
-16.79
-19.96
-23.1
-25.71
-27.23
-27.18
-25.29
-21.64
-16.66
-11.04
-5.46
-0.47
3.68
6.98
9.51
11.34
12.46
12.83
12.51
11.69
10.64
9.68
9.02
8.72
8.73
8.88
9.06
9.17
9.13
8.92
8.5
7.81
6.83
5.53
3.94
2.12
0.16
-1.86
-3.9
-6.03
-8.41
-11.18
-14.36
-17.76
-20.9
-23.21
-24.1
-23.17
-20.33
-15.81
-10.08
-3.75
2.51
8.13
12.7
15.96
17.88
18.58
18.29
17.33
16.02
14.66
13.5
12.62
12.07
11.81
11.71
11.69
11.6
11.31
10.69
9.68
8.32
6.71
5.01
3.33
1.69
0
-1.93
-4.29
-7.23
-10.84
-15.09
-19.76
-24.37
-28.21
-30.44
-30.37
-27.7
-22.65
-15.95
-8.58
-1.48
4.67
9.56
13.18
15.64
17.1
17.66
17.47
16.72
15.68
14.63
13.77
13.2
12.86
12.65
12.43
12.15
11.75
11.2
10.43
9.32
7.8
5.83
3.49
0.92
-1.72
-4.33
-6.96
-9.74
-12.87
-16.55
-20.77
-25.25
-29.41
-32.44
-33.48
-31.95
-27.73
-21.22
-13.23
-4.75
3.33
10.41
16.17
20.49
23.42
25.04
25.48
24.96
23.76
22.2
20.57
19.06
17.73
16.59
15.6
14.72
13.95
13.24
12.49
11.52
10.14
8.29
6
3.44
0.79
-1.86
-4.55
-7.4
-10.52
-14.02
-17.93
-22.27
-26.93
-31.59
-35.66
-38.3
-38.65
-36.15
-30.8
-23.19
-14.38
-5.53
2.41
8.91
13.8
17.15
19.19
20.17
20.34
19.99
19.37
18.66
17.96
17.32
16.72
16.13
15.57
15.05
14.59
14.16
13.69
13.09
12.27
11.13
9.64
7.77
5.56
3.05
0.34
-2.5
-5.52
-8.82
-12.6
-16.96
-21.75
-26.51
-30.38
-32.41
-31.82
-28.25
-22
-13.9
-5.03
3.51
10.92
16.78
21
23.66
24.96
25.08
24.28
22.89
21.3
19.88
18.93
18.56
18.7
19.14
19.66
20.04
20.1
19.73
18.81
17.33
15.34
13.02
10.56
8.14
5.82
3.49
0.96
-2.01
-5.58
-9.79
-14.45
-19.1
-23.06
-25.54
-25.78
-23.37
-18.37
-11.38
-3.37
4.62
11.76
17.54
21.8
24.59
26.02
26.21
25.29
23.51
21.2
18.75
16.51
14.76
13.61
12.99
12.72
12.54
12.2
11.51
10.43
9.01
7.37
5.6
3.72
1.69
-0.53
-2.96
-5.6
-8.4
-11.44
-14.82
-18.63
-22.79
-26.92
-30.32
-32.18
-31.77
-28.72
-23.17
-15.73
-7.32
1.07
8.58
14.63
18.98
21.65
22.85
22.9
22.16
20.96
19.56
18.18
16.95
15.95
15.21
14.74
14.46
14.31
14.16
13.85
13.25
12.25
10.81
8.94
6.69
4.11
1.24
-1.86
-5.1
-8.36
-11.55
-14.65
-17.76
-21
-24.43
-27.81
-30.59
-31.97
-31.22
-28.01
-22.53
-15.53
-8
-0.86
5.27
10.16
13.87
16.53
18.23
19.02
18.94
18.16
17.03
15.96
15.31
15.2
15.52
15.92
16.05
15.71
14.93
13.93
12.94
12.07
11.23
10.18
8.65
6.48
3.75
0.68
-2.42
-5.35
-8.07
-10.7
-13.41
-16.39
-19.68
-23.2
-26.62
-29.47
-31.17
-31.2
-29.26
-25.39
-19.97
-13.65
-7.13
-1
4.33
8.63
11.83
13.88
14.83
14.81
14.08
12.97
11.81
10.89
10.38
10.31
10.57
11
11.39
11.6
11.58
11.33
10.88
10.26
9.4
8.2
6.6
4.58
2.26
-0.18
-2.56
-4.75
-6.71
-8.51
-10.27
-12.15
-14.31
-16.86
-19.7
-22.55
-24.86
-25.93
-25.2
-22.37
-17.66
-11.65
-5.22
0.79
5.77
9.49
11.95
13.33
13.84
13.66
12.98
12.04
11.12
10.43
10.14
10.23
10.54
10.85
10.96
10.79
10.4
9.92
9.49
9.12
8.71
8.08
7.09
5.69
3.99
2.16
0.34
-1.4
-3.14
-4.99
-7.14
-9.68
-12.63
-15.82
-18.89
-21.35
-22.66
-22.38
-20.37
-16.79
-12.14
-7.04
-2.11
2.23
5.76
8.46
10.37
11.59
12.17
12.17
11.69
10.89
10.02
9.3
8.87
8.73
8.7
8.56
8.18
7.57
6.9
6.36
6.05
5.89
5.64
5.02
3.86
2.18
0.1
-2.13
-4.29
-6.23
-7.91
-9.39
-10.84
-12.46
-14.47
-16.96
-19.8
-22.61
-24.83
-25.82
-25.12
-22.59
-18.53
-13.5
-8.23
-3.32
0.91
4.39
7.19
9.37
10.9
11.65
11.55
10.73
9.53
8.38
7.65
7.46
7.68
8.01
8.17
8.02
7.62
7.15
6.78
6.53
6.32
5.97
5.32
4.24
2.73
0.88
-1.16
-3.23
-5.19
-6.97
-8.56
-10.02
-11.46
-13.03
-14.87
-17
-19.31
-21.47
-23.02
-23.48
-22.5
-19.97
-16.12
-11.41
-6.44
-1.72
2.33
5.52
7.81
9.26
9.99
10.14
9.85
9.22
8.39
7.47
6.65
6.13
6
6.27
6.79
7.31
7.56
7.41
6.88
6.07
5.12
4.09
2.89
1.39
-0.48
-2.64
-4.89
-6.93
-8.58
-9.81
-10.83
-11.91
-13.27
-14.99
-17
-19.19
-21.47
-23.79
-26.03
-27.87
-28.85
-28.42
-26.26
-22.42
-17.37
-11.86
-6.65
-2.34
0.83
2.86
3.93
4.28
4.16
3.79
3.39
3.11
3.04
3.17
3.38
3.58
3.71
3.78
3.84
3.93
4.07
4.24
4.38
4.42
4.32
3.96
3.28
2.24
0.87
-0.69
-2.27
-3.73
-5.04
-6.33
-7.74
-9.43
-11.4
-13.53
-15.5
-16.96
-17.52
-16.85
-14.8
-11.42
-7.03
-2.12
2.72
6.97
10.28
12.52
13.73
14.06
13.71
12.88
11.78
10.63
9.64
8.94
8.55
8.39
8.32
8.19
7.97
7.72
7.48
7.28
7.03
6.58
5.77
4.56
3.05
1.42
-0.17
-1.65
-3.07
-4.59
-6.4
-8.65
-11.44
-14.69
-18.15
-21.34
-23.65
-24.44
-23.31
-20.28
-15.73
-10.34
-4.85
0.2
4.47
7.83
10.28
11.79
12.41
12.23
11.41
10.19
8.8
7.43
6.15
5
3.99
3.14
2.49
2.07
1.85
1.76
1.67
1.39
0.76
-0.33
-1.91
-3.89
-6.08
-8.26
-10.23
-11.97
-13.54
-15.14
-16.99
-19.24
-21.96
-25.01
-28.03
-30.5
-31.8
-31.36
-28.9
-24.45
-18.44
-11.58
-4.63
1.71
6.98
10.93
13.54
14.95
15.4
15.18
14.56
13.75
12.93
12.2
11.68
11.45
11.51
11.78
12.08
12.24
12.13
11.69
10.9
9.75
8.19
6.19
3.78
1.12
-1.57
-4.07
-6.35
-8.58
-11.05
-14.08
-17.81
-22.19
-26.89
-31.42
-35.17
-37.51
-37.93
-36.1
-32.03
-26.07
-18.86
-11.17
-3.75
2.83
8.21
12.25
15
16.59
17.2
17.06
16.39
15.36
14.16
12.98
11.99
11.36
11.12
11.24
11.57
11.92
12.09
11.94
11.38
10.34
8.76
6.62
3.98
1.03
-2.04
-4.97
-7.66
-10.18
-12.77
-15.77
-19.5
-24.1
-29.33
-34.62
-39.02
-41.49
-41.16
-37.69
-31.34
-23
-13.8
-4.84
3.1
9.65
14.73
18.4
20.73
21.79
21.72
20.85
19.61
18.49
17.84
17.74
18.08
18.6
19.06
19.29
19.24
18.93
18.35
17.45
16.15
14.32
11.94
9.09
5.95
2.75
-0.38
-3.43
-6.63
-10.29
-14.7
-19.93
-25.69
-31.28
-35.7
-37.84
-36.86
-32.44
-24.92
-15.27
-4.85
5.03
13.43
19.87
24.32
26.99
28.13
27.98
26.79
24.94
22.91
21.14
19.93
19.28
19.03
18.92
18.8
18.62
18.38
18.02
17.3
15.94
13.74
10.71
7.14
3.44
-0.05
-3.19
-6.12
-9.16
-12.7
-17.01
-22.18
-28.02
-34.01
-39.29
-42.84
-43.63
-41.02
-34.92
-25.96
-15.29
-4.3
5.76
14.05
20.2
24.24
26.44
27.16
26.75
25.56
23.9
22.09
20.36
18.94
17.98
17.53
17.58
17.97
18.48
18.83
18.78
18.11
16.71
14.55
11.66
8.18
4.29
0.25
-3.73
-7.53
-11.22
-15.03
-19.32
-24.4
-30.27
-36.55
-42.37
-46.54
-47.81
-45.3
-38.76
-28.78
-16.64
-4
7.6
17.09
23.96
28.27
30.39
30.77
29.89
28.21
26.23
24.44
23.23
22.79
23.03
23.59
24.03
24.01
23.43
22.44
21.3
20.18
18.97
17.39
15.08
11.86
7.82
3.33
-1.11
-5.17
-8.76
-12.12
-15.62
-19.69
-24.6
-30.43
-36.96
-43.58
-49.27
-52.81
-53.04
-49.25
-41.51
-30.68
-18.14
-5.43
6.2
16
23.66
29.19
32.72
34.39
34.43
33.19
31.21
29.07
27.3
26.22
25.82
25.85
25.93
25.74
25.14
24.22
23.18
22.14
21.08
19.77
17.87
15.15
11.63
7.61
3.54
-0.13
-3.19
-5.72
-8.08
-10.78
-14.26
-18.81
-24.42
-30.7
-36.9
-41.95
-44.69
-44.12
-39.78
-31.92
-21.52
-9.96
1.32
11.22
19.15
24.95
28.71
30.56
30.68
29.32
26.94
24.18
21.75
20.19
19.73
20.18
21.08
21.91
22.34
22.31
21.98
21.63
21.37
21.09
20.45
19.03
16.58
13.11
8.96
4.58
0.39
-3.44
-6.97
-10.45
-14.21
-18.48
-23.38
-28.75
-34.09
-38.6
-41.27
-41.12
-37.56
-30.61
-20.95
-9.79
1.52
11.79
20.24
26.5
30.53
32.48
32.59
31.25
28.94
26.26
23.82
22.15
21.49
21.77
22.62
23.51
24
23.84
23.02
21.69
20.09
18.31
16.31
13.98
11.18
7.88
4.21
0.39
-3.36
-6.91
-10.28
-13.66
-17.35
-21.62
-26.65
-32.34
-38.27
-43.6
-47.26
-48.19
-45.74
-39.84
-31.18
-20.88
-10.25
-0.3
8.34
15.47
21.1
25.25
27.92
29.14
29.04
27.94
26.3
24.61
23.25
22.42
22.1
22.15
22.32
22.37
22.13
21.56
20.73
19.75
18.67
17.44
15.88
13.81
11.1
7.8
4.12
0.38
-3.15
-6.37
-9.32
-12.15
-15.02
-18.08
-21.51
-25.48
-30.11
-35.31
-40.58
-45
-47.41
-46.8
-42.71
-35.48
-26.14
-16.04
-6.36
2.13
9.18
14.76
18.93
21.63
22.82
22.65
21.52
20.03
18.77
18.11
18.09
18.44
18.84
19.02
18.89
18.49
17.93
17.23
16.39
15.35
14.06
12.46
10.54
8.24
5.56
2.55
-0.6
-3.68
-6.45
-8.83
-10.9
-12.91
-15.22
-18.1
-21.69
-25.89
-30.37
-34.59
-37.83
-39.4
-38.71
-35.56
-30.1
-22.91
-14.79
-6.59
1.01
7.48
12.54
16.05
17.98
18.49
17.86
16.56
15.11
13.99
13.5
13.69
14.38
15.23
15.94
16.34
16.39
16.2
15.85
15.39
14.72
13.68
12.09
9.87
7.06
3.86
0.57
-2.57
-5.38
-7.88
-10.21
-12.59
-15.25
-18.37
-21.93
-25.7
-29.16
-31.56
-32.18
-30.51
-26.5
-20.61
-13.61
-6.4
0.33
6.13
10.8
14.24
16.39
17.24
16.97
15.92
14.58
13.4
12.64
12.29
12.16
11.99
11.62
11.05
10.47
10.07
9.98
10.14
10.34
10.27
9.66
8.39
6.52
4.25
1.86
-0.43
-2.49
-4.38
-6.28
-8.53
-11.45
-15.19
-19.55
-23.89
-27.28
-28.79
-27.84
-24.46
-19.26
-13.14
-6.98
-1.41
3.3
7.09
9.96
11.89
12.86
12.94
12.3
11.26
10.2
9.43
9.13
9.29
9.69
10.04
10.06
9.62
8.81
7.9
7.15
6.68
6.35
5.86
4.89
3.24
1.01
-1.5
-3.92
-5.97
-7.64
-9.12
-10.77
-12.95
-15.89
-19.63
-23.95
-28.41
-32.4
-35.23
-36.3
-35.24
-32.03
-27.05
-20.99
-14.64
-8.7
-3.55
0.69
4.14
6.94
9.08
10.45
10.94
10.56
9.6
8.55
7.92
7.97
8.66
9.61
10.35
10.52
10.06
9.17
8.19
7.39
6.82
6.31
5.56
4.3
2.48
0.26
-2.12
-4.35
-6.32
-8.04
-9.69
-11.49
-13.6
-16.17
-19.21
-22.65
-26.28
-29.67
-32.26
-33.45
-32.82
-30.25
-25.99
-20.58
-14.61
-8.6
-2.92
2.19
6.51
9.83
12.03
13.09
13.18
12.64
11.85
11.14
10.67
10.47
10.46
10.54
10.6
10.61
10.58
10.56
10.58
10.65
10.73
10.66
10.27
9.39
7.95
6.04
3.85
1.6
-0.57
-2.6
-4.57
-6.62
-8.89
-11.49
-14.49
-17.85
-21.38
-24.66
-27.09
-27.99
-26.82
-23.42
-18.12
-11.64
-4.93
1.23
6.32
10.22
13.05
15
16.16
16.6
16.37
15.65
14.77
14.05
13.71
13.71
13.82
13.77
13.36
12.66
11.88
11.28
10.98
10.9
10.71
10.07
8.73
6.67
4.1
1.33
-1.3
-3.59
-5.52
-7.19
-8.82
-10.66
-12.89
-15.63
-18.84
-22.3
-25.56
-27.99
-28.95
-27.94
-24.85
-19.97
-13.93
-7.53
-1.5
3.66
7.68
10.53
12.29
13.14
13.25
12.9
12.35
11.87
11.63
11.72
12.07
12.57
13.11
13.6
14
14.29
14.4
14.24
13.7
12.76
11.44
9.82
7.99
5.97
3.75
1.31
-1.31
-4.02
-6.69
-9.19
-11.49
-13.61
-15.62
-17.63
-19.79
-22.22
-24.99
-28.04
-31.02
-33.39
-34.45
-33.66
-30.82
-26.15
-20.24
-13.82
-7.57
-1.94
2.86
6.73
9.66
11.65
12.75
13.08
12.86
12.39
11.93
11.68
11.73
12.06
12.57
13.1
13.48
13.59
13.39
12.93
12.31
11.66
11
10.26
9.26
7.86
6
3.8
1.45
-0.82
-2.94
-4.91
-6.85
-8.85
-11.02
-13.35
-15.86
-18.58
-21.56
-24.81
-28.22
-31.47
-34.09
-35.52
-35.27
-33.07
-28.96
-23.31
-16.73
-9.96
-3.64
1.78
6.09
9.29
11.48
12.77
13.3
13.21
12.73
12.15
11.76
11.79
12.27
13.05
13.82
14.28
14.25
13.75
12.91
11.95
10.98
10.01
8.92
7.56
5.87
3.88
1.76
-0.3
-2.19
-3.85
-5.36
-6.8
-8.32
-9.99
-11.92
-14.21
-16.95
-20.09
-23.35
-26.16
-27.79
-27.61
-25.28
-20.95
-15.22
-8.86
-2.61
3.06
7.89
11.8
14.71
16.54
17.26
16.99
16.03
14.81
13.72
13.01
12.73
12.76
12.89
12.93
12.77
12.42
11.97
11.55
11.25
11.06
10.84
10.35
9.34
7.69
5.5
3.06
0.73
-1.24
-2.83
-4.26
-5.92
-8.14
-11.13
-14.79
-18.84
-22.79
-26.09
-28.17
-28.56
-26.97
-23.4
-18.22
-12.01
-5.49
0.75
6.3
10.96
14.62
17.23
18.73
19.13
18.61
17.51
16.26
15.24
14.65
14.45
14.44
14.36
13.98
13.24
12.15
10.87
9.56
8.39
7.41
6.57
5.67
4.48
2.77
0.46
-2.34
-5.38
-8.35
-11.03
-13.41
-15.71
-18.23
-21.29
-25.05
-29.43
-34.04
-38.24
-41.26
-42.38
-41.18
-37.61
-32.05
-25.16
-17.73
-10.43
-3.73
2.09
6.89
10.62
13.3
14.97
15.75
15.83
15.48
14.99
14.61
14.56
14.92
15.64
16.51
17.3
17.79
17.91
17.68
17.2
16.53
15.63
14.39
12.68
10.46
7.78
4.78
1.58
-1.74
-5.13
-8.58
-12.06
-15.52
-18.95
-22.42
-26.01
-29.69
-33.21
-36.01
-37.39
-36.72
-33.64
-28.28
-21.21
-13.22
-5.18
2.18
8.37
13.19
16.57
18.66
19.64
19.77
19.34
18.61
17.85
17.22
16.85
16.74
16.8
16.86
16.74
16.34
15.67
14.84
13.96
13.07
12.06
10.74
8.89
6.43
3.45
0.22
-2.88
-5.61
-7.97
-10.22
-12.82
-16.17
-20.42
-25.29
-30.12
-34.07
-36.27
-36.13
-33.43
-28.38
-21.5
-13.54
-5.32
2.41
9.11
14.49
18.45
21.07
22.46
22.77
22.2
21.03
19.64
18.42
17.65
17.41
17.57
17.81
17.87
17.65
17.22
16.7
16.18
15.56
14.61
13.09
10.87
8
4.68
1.19
-2.25
-5.5
-8.55
-11.47
-14.42
-17.65
-21.44
-25.97
-31.16
-36.52
-41.19
-44.08
-44.22
-41.13
-34.99
-26.61
-17.19
-7.9
0.38
7.26
12.73
16.95
20.12
22.3
23.48
23.77
23.4
22.77
22.31
22.32
22.83
23.61
24.32
24.62
24.41
23.77
22.94
22.15
21.47
20.76
19.77
18.24
16.04
13.19
9.87
6.35
2.86
-0.46
-3.56
-6.49
-9.32
-12.19
-15.22
-18.65
-22.67
-27.32
-32.4
-37.27
-41.02
-42.65
-41.42
-37.1
-30.09
-21.27
-11.7
-2.38
6.04
13.22
19.04
23.51
26.69
28.67
29.63
29.79
29.44
28.87
28.28
27.84
27.61
27.61
27.78
28.03
28.26
28.34
28.12
27.46
26.25
24.46
22.18
19.59
16.89
14.26
11.75
9.29
6.73
3.96
0.98
-2.1
-5.15
-8.04
-10.76
-13.4
-16.07
-18.92
-22.13
-25.85
-30.16
-34.89
-39.56
-43.33
-45.2
-44.35
-40.41
-33.66
-24.88
-15.18
-5.64
2.93
10.06
15.6
19.64
22.38
24.06
24.98
25.41
25.57
25.61
25.61
25.61
25.61
25.59
25.55
25.48
25.33
25.09
24.69
24.11
23.36
22.46
21.39
20.07
18.39
16.23
13.58
10.55
7.33
4.1
0.97
-2.08
-5.13
-8.29
-11.6
-14.98
-18.36
-21.67
-24.99
-28.48
-32.32
-36.5
-40.71
-44.31
-46.43
-46.27
-43.32
-37.62
-29.74
-20.66
-11.48
-3.13
3.8
9.13
12.99
15.69
17.51
18.63
19.16
19.18
18.85
18.4
18.06
17.97
18.14
18.46
18.82
19.15
19.45
19.71
19.87
19.76
19.2
18.06
16.31
14.08
11.58
9.01
6.48
4.01
1.49
-1.17
-4.04
-7.06
-10.1
-12.98
-15.54
-17.73
-19.67
-21.57
-23.75
-26.49
-29.96
-34.06
-38.41
-42.33
-45
-45.66
-43.87
-39.62
-33.38
-25.94
-18.19
-10.86
-4.41
0.95
5.24
8.55
11.04
12.86
14.22
15.36
16.47
17.7
19.1
20.61
22.13
23.57
24.85
25.92
26.75
27.33
27.63
27.59
27.11
26.05
24.28
21.8
18.69
15.17
11.51
7.92
4.49
1.19
-2.09
-5.47
-9.01
-12.71
-16.52
-20.42
-24.45
-28.58
-32.69
-36.4
-39.14
-40.32
-39.54
-36.81
-32.59
-27.58
-22.51
-17.8
-13.56
-9.71
-6.19
-3.11
-0.78
0.44
0.34
-0.97
-3.04
-5.23
-6.91
-7.66
-7.38
-6.27
-4.63
-2.75
-0.78
1.22
3.18
4.91
6.07
6.31
5.46
3.63
1.24
-1.13
-3
-4.15
-4.7
-4.99
-5.4
-6.24
-7.6
-9.46
-11.7
-14.13
-16.38
-17.94
-18.17
-16.5
-12.7
-7.02
-0.15
6.97
13.46
18.74
22.59
25.07
26.33
26.54
25.87
24.53
22.84
21.15
19.79
18.96
18.71
18.9
19.34
19.81
20.17
20.34
20.31
20.09
19.7
19.16
18.5
17.72
16.84
15.85
14.73
13.47
12.08
10.58
9.03
7.42
5.66
3.58
0.95
-2.39
-6.45
-10.94
-15.3
-18.8
-20.73
-20.59
-18.35
-14.38
-9.41
-4.24
0.49
4.4
7.4
9.56
10.99
11.75
11.92
11.63
11.08
10.49
10.01
9.67
9.41
9.12
8.7
8.12
7.41
6.59
5.73
4.86
4.03
3.26
2.54
1.82
0.98
-0.1
-1.48
-3.12
-4.87
-6.51
-7.88
-8.92
-9.79
-10.76
-12.17
-14.26
-17.09
-20.47
-24.02
-27.27
-29.76
-31.1
-31
-29.31
-26.09
-21.56
-16.13
-10.31
-4.64
0.4
4.5
7.47
9.28
10.01
9.92
9.3
8.53
7.92
7.73
8.11
9.06
10.49
12.18
13.81
15.02
15.56
15.32
14.44
13.27
12.19
11.43
10.96
10.52
9.71
8.26
6.11
3.46
0.6
-2.21
-4.81
-7.19
-9.35
-11.34
-13.21
-15.1
-17.2
-19.71
-22.66
-25.78
-28.5
-30.1
-29.98
-27.88
-24.01
-18.95
-13.48
-8.3
-3.88
-0.38
2.27
4.26
5.78
6.9
7.63
7.98
8.04
7.97
8.02
8.36
9.03
9.92
10.85
11.64
12.22
12.6
12.83
12.93
12.79
12.27
11.22
9.58
7.43
4.96
2.45
0.12
-1.86
-3.51
-4.97
-6.49
-8.28
-10.52
-13.18
-16.05
-18.72
-20.68
-21.46
-20.76
-18.6
-15.25
-11.22
-7.04
-3.18
0.07
2.56
4.28
5.25
5.56
5.33
4.76
4.05
3.4
2.95
2.78
2.9
3.27
3.84
4.53
5.31
6.11
6.91
7.63
8.21
8.57
8.63
8.3
7.53
6.33
4.81
3.14
1.45
-0.15
-1.71
-3.4
-5.44
-8.01
-11.1
-14.55
-18.02
-21.05
-23.21
-24.06
-23.31
-20.81
-16.7
-11.42
-5.64
-0.12
4.54
8
10.25
11.44
11.72
11.2
9.95
8.12
6.06
4.25
3.15
3
3.71
4.93
6.24
7.41
8.45
9.58
11.04
12.86
14.79
16.38
17.2
16.97
15.76
13.85
11.67
9.66
8.06
6.91
5.99
4.93
3.34
0.9
-2.45
-6.5
-10.79
-14.71
-17.63
-19.14
-19.09
-17.63
-15.1
-11.96
-8.65
-5.53
-2.84
-0.65
1.03
2.27
3.09
3.47
3.39
2.91
2.15
1.37
0.86
0.84
1.35
2.26
3.32
4.28
5.02
5.53
5.89
6.12
6.15
5.8
4.89
3.36
1.4
-0.64
-2.3
-3.27
-3.5
-3.21
-2.81
-2.66
-3.01
-3.89
-5.2
-6.89
-8.92
-11.27
-13.76
-16.03
-17.53
-17.78
-16.5
-13.78
-10.04
-5.89
-1.91
1.48
4.1
5.93
7.05
7.54
7.48
6.92
5.99
4.86
3.77
2.95
2.59
2.74
3.33
4.2
5.11
5.92
6.56
7.05
7.47
7.87
8.18
8.28
7.95
6.98
5.33
3.03
0.33
-2.51
-5.23
-7.71
-9.95
-12.09
-14.32
-16.82
-19.78
-23.28
-27.24
-31.32
-34.97
-37.47
-38.15
-36.66
-33.09
-27.97
-22.11
-16.27
-10.98
-6.43
-2.51
1.01
4.36
7.67
10.98
14.25
17.44
20.5
23.39
26.03
28.31
30.06
31.15
31.48
31.09
30.15
28.92
27.59
26.26
24.83
23.12
20.95
18.2
14.91
11.22
7.4
3.67
0.26
-2.76
-5.46
-8.02
-10.74
-13.92
-17.64
-21.76
-25.8
-29.07
-30.82
-30.49
-27.87
-23.17
-17.05
-10.31
-3.76
2.03
6.8
10.54
13.34
15.29
16.37
16.6
16.06
14.98
13.74
12.68
12.05
11.9
12.1
12.38
12.5
12.33
11.89
11.35
10.86
10.45
9.97
9.12
7.6
5.26
2.2
-1.18
-4.42
-7.13
-9.2
-10.85
-12.54
-14.79
-17.9
-21.93
-26.56
-31.23
-35.21
-37.81
-38.43
-36.75
-32.76
-26.8
-19.55
-11.82
-4.47
1.88
6.93
10.71
13.44
15.37
16.66
17.4
17.65
17.56
17.36
17.3
17.53
17.99
18.45
18.62
18.28
17.44
16.29
15.05
13.94
13
12.1
11.05
9.67
7.84
5.63
3.17
0.64
-1.8
-4.06
-6.11
-8.02
-9.91
-11.87
-14.04
-16.55
-19.53
-23.03
-26.93
-30.82
-34.01
-35.65
-35.03
-31.84
-26.31
-19.19
-11.46
-4.01
2.54
7.95
12.24
15.52
17.89
19.43
20.21
20.42
20.31
20.17
20.22
20.55
21.07
21.61
21.96
21.98
21.66
21.06
20.29
19.43
18.49
17.4
16.03
14.29
12.12
9.59
6.84
4.04
1.32
-1.33
-3.99
-6.77
-9.67
-12.6
-15.38
-17.88
-20.18
-22.55
-25.36
-28.82
-32.81
-36.78
-39.92
-41.35
-40.48
-37.17
-31.72
-24.8
-17.18
-9.59
-2.58
3.49
8.44
12.19
14.78
16.37
17.14
17.35
17.21
16.92
16.62
16.46
16.54
16.92
17.54
18.25
18.88
19.26
19.33
19.13
18.67
17.96
16.92
15.48
13.63
11.47
9.14
6.76
4.36
1.88
-0.69
-3.34
-5.97
-8.46
-10.8
-13.11
-15.61
-18.55
-21.96
-25.64
-29.05
-31.51
-32.34
-31.1
-27.74
-22.57
-16.21
-9.35
-2.59
3.58
8.85
12.99
15.82
17.28
17.42
16.55
15.13
13.67
12.59
12.06
11.95
11.96
11.82
11.4
10.8
10.25
9.92
9.86
9.87
9.68
9.03
7.84
6.18
4.22
2.12
-0.01
-2.11
-4.19
-6.28
-8.42
-10.77
-13.47
-16.61
-20.14
-23.79
-26.99
-29.04
-29.3
-27.36
-23.23
-17.35
-10.41
-3.21
3.6
9.55
14.4
18.01
20.31
21.31
21.12
20
18.39
16.72
15.33
14.4
13.91
13.74
13.74
13.79
13.8
13.72
13.49
13.02
12.25
11.1
9.5
7.39
4.77
1.74
-1.5
-4.66
-7.48
-9.81
-11.69
-13.39
-15.3
-17.84
-21.18
-25.24
-29.52
-33.24
-35.5
-35.55
-33
-27.95
-20.99
-13.04
-5.08
2.03
7.75
11.89
14.58
16.12
16.83
17.02
16.85
16.45
15.93
15.42
15.04
14.85
14.81
14.82
14.72
14.43
13.95
13.36
12.74
12.11
11.38
10.39
8.96
6.97
4.45
1.58
-1.39
-4.18
-6.67
-8.88
-10.97
-13.19
-15.79
-18.88
-22.45
-26.37
-30.34
-33.93
-36.56
-37.64
-36.68
-33.46
-28.17
-21.41
-14.04
-6.95
-0.82
3.99
7.44
9.75
11.17
11.98
12.41
12.69
12.99
13.49
14.29
15.4
16.75
18.24
19.73
21.1
22.22
22.97
23.29
23.16
22.68
21.96
21.1
20.15
19
17.53
15.59
13.17
10.36
7.38
4.45
1.75
-0.68
-2.93
-5.27
-8.02
-11.47
-15.71
-20.44
-24.96
-28.35
-29.69
-28.44
-24.66
-19.02
-12.54
-6.27
-1.02
2.81
5.17
6.17
6.02
4.93
3.15
1.03
-1.08
-2.8
-3.9
-4.29
-4.03
-3.28
-2.2
-1.01
0.12
1.04
1.64
1.94
2
1.94
1.81
1.56
1.08
0.2
-1.14
-2.87
-4.81
-6.74
-8.53
-10.13
-11.64
-13.22
-15.04
-17.22
-19.8
-22.75
-25.89
-28.85
-31.12
-32.15
-31.51
-28.98
-24.69
-19.05
-12.6
-5.98
0.27
5.71
10.06
13.21
15.19
16.15
16.35
16.03
15.45
14.83
14.35
14.14
14.27
14.71
15.37
16.1
16.76
17.2
17.34
17.09
16.41
15.26
13.63
11.53
9.06
6.29
3.38
0.51
-2.17
-4.56
-6.69
-8.77
-11.11
-14.05
-17.73
-22.01
-26.35
-29.96
-31.98
-31.76
-29.08
-24.19
-17.74
-10.53
-3.39
3.06
8.42
12.49
15.23
16.69
17.09
16.72
15.96
15.19
14.7
14.58
14.78
15.1
15.37
15.44
15.32
15.07
14.78
14.5
14.17
13.67
12.74
11.18
8.89
5.92
2.55
-0.88
-4.02
-6.75
-9.18
-11.59
-14.34
-17.63
-21.42
-25.32
-28.72
-30.87
-31.16
-29.29
-25.3
-19.64
-12.99
-6.09
0.43
6.15
10.84
14.4
16.77
17.94
18.01
17.22
15.91
14.55
13.47
12.89
12.82
13.06
13.39
13.58
13.53
13.25
12.79
12.2
11.48
10.55
9.23
7.45
5.17
2.51
-0.29
-2.96
-5.35
-7.47
-9.48
-11.68
-14.4
-17.83
-21.97
-26.54
-30.96
-34.49
-36.34
-35.91
-33
-27.84
-21.06
-13.5
-5.97
0.93
6.86
11.68
15.37
17.88
19.26
19.62
19.19
18.33
17.43
16.79
16.55
16.63
16.87
17.05
17.04
16.8
16.36
15.74
14.97
14.01
12.83
11.39
9.65
7.6
5.24
2.68
0.06
-2.46
-4.76
-6.84
-8.87
-11.12
-13.83
-17.18
-21.17
-25.62
-30.11
-34.05
-36.73
-37.49
-35.93
-32.01
-26.15
-19.06
-11.56
-4.38
2.05
7.52
11.98
15.5
18.11
19.87
20.87
21.27
21.25
21.04
20.83
20.72
20.75
20.88
21.02
21.13
21.15
21.05
20.76
20.19
19.24
17.85
16.03
13.87
11.51
9.09
6.69
4.32
1.9
-0.64
-3.39
-6.3
-9.25
-12.09
-14.71
-17.09
-19.39
-21.86
-24.77
-28.29
-32.4
-36.76
-40.75
-43.55
-44.36
-42.58
-38.12
-31.37
-23.19
-14.57
-6.43
0.68
6.55
11.23
14.84
17.49
19.23
20.15
20.47
20.48
20.53
20.83
21.39
22.04
22.52
22.62
22.33
21.78
21.19
20.7
20.31
19.84
19.09
17.9
16.25
14.26
12.07
9.8
7.46
5.02
2.47
-0.13
-2.61
-4.82
-6.7
-8.35
-10.03
-12.06
-14.74
-18.15
-22.14
-26.25
-29.8
-32.02
-32.24
-30.1
-25.68
-19.49
-12.34
-5.09
1.51
7.02
11.25
14.23
16.09
17
17.18
16.87
16.35
15.88
15.65
15.76
16.2
16.81
17.43
17.87
18.03
17.84
17.35
16.62
15.7
14.59
13.23
11.52
9.4
6.86
3.99
0.95
-2.05
-4.77
-7.07
-8.93
-10.5
-12.07
-14.02
-16.6
-19.86
-23.59
-27.29
-30.27
-31.85
-31.49
-28.94
-24.28
-17.98
-10.71
-3.31
3.48
9.14
13.45
16.43
18.27
19.2
19.49
19.36
19.01
18.63
18.29
18.06
17.92
17.88
17.95
18.14
18.41
18.58
18.43
17.71
16.37
14.55
12.54
10.61
8.85
7.14
5.26
3.01
0.37
-2.54
-5.47
-8.22
-10.7
-12.92
-14.98
-16.98
-19.06
-21.4
-24.2
-27.54
-31.25
-34.83
-37.51
-38.46
-37.09
-33.25
-27.33
-20.06
-12.37
-5.05
1.34
6.53
10.45
13.22
14.97
15.91
16.25
16.25
16.17
16.24
16.58
17.19
17.9
18.51
18.87
18.92
18.69
18.26
17.65
16.8
15.65
14.14
12.35
10.41
8.46
6.59
4.79
2.95
0.94
-1.32
-3.84
-6.54
-9.28
-11.93
-14.4
-16.77
-19.2
-21.89
-25.01
-28.53
-32.16
-35.38
-37.53
-37.99
-36.32
-32.43
-26.6
-19.46
-11.86
-4.63
1.61
6.51
10.11
12.63
14.38
15.62
16.48
16.99
17.2
17.22
17.18
17.19
17.3
17.42
17.41
17.23
16.92
16.64
16.48
16.39
16.18
15.52
14.22
12.26
9.83
7.27
4.86
2.77
0.91
-0.87
-2.8
-5.02
-7.49
-10.09
-12.56
-14.73
-16.5
-18
-19.48
-21.3
-23.74
-26.86
-30.38
-33.72
-36.1
-36.73
-35.13
-31.25
-25.54
-18.8
-11.92
-5.58
-0.18
4.18
7.55
9.94
11.4
11.99
11.88
11.38
10.81
10.46
10.42
10.68
11.12
11.62
12.06
12.34
12.39
12.18
11.78
11.31
10.93
10.71
10.55
10.23
9.47
8.13
6.26
4.06
1.81
-0.27
-2.12
-3.81
-5.47
-7.28
-9.36
-11.84
-14.85
-18.48
-22.63
-26.9
-30.68
-33.14
-33.57
-31.58
-27.28
-21.19
-14.13
-6.92
-0.2
5.63
10.41
14.06
16.56
17.96
18.43
18.25
17.8
17.45
17.48
17.96
18.77
19.67
20.37
20.6
20.19
19.11
17.47
15.49
13.42
11.46
9.66
7.93
6.06
3.91
1.46
-1.08
-3.47
-5.45
-7.03
-8.45
-10.12
-12.44
-15.62
-19.55
-23.8
-27.76
-30.76
-32.23
-31.76
-29.2
-24.65
-18.5
-11.38
-4.01
2.92
8.89
13.58
16.89
18.84
19.54
19.18
18.01
16.35
14.56
13
11.92
11.38
11.31
11.49
11.62
11.49
11.01
10.28
9.55
9.07
8.97
9.12
9.15
8.64
7.24
4.89
1.83
-1.54
-4.84
-7.83
-10.55
-13.2
-16.07
-19.37
-23.18
-27.39
-31.73
-35.73
-38.84
-40.42
-39.94
-37.13
-32.11
-25.39
-17.78
-10.15
-3.24
2.5
6.96
10.25
12.56
14.07
14.92
15.25
15.22
15.08
15.05
15.29
15.88
16.73
17.67
18.52
19.13
19.44
19.46
19.24
18.79
18.05
16.87
15.12
12.74
9.79
6.47
3.05
-0.22
-3.2
-5.82
-8.12
-10.15
-11.99
-13.72
-15.5
-17.54
-20.08
-23.28
-27.1
-31.25
-35.07
-37.71
-38.38
-36.57
-32.29
-26.08
-18.85
-11.51
-4.75
1.08
6
10.12
13.58
16.37
18.39
19.58
20.03
19.97
19.74
19.65
19.8
20.16
20.47
20.52
20.14
19.32
18.23
17.06
15.98
15.01
14.08
12.96
11.46
9.46
6.99
4.25
1.45
-1.2
-3.64
-5.96
-8.32
-10.87
-13.68
-16.78
-20.13
-23.65
-27.14
-30.24
-32.44
-33.14
-31.83
-28.28
-22.63
-15.39
-7.35
0.67
7.9
13.87
18.35
21.34
22.98
23.41
22.81
21.38
19.43
17.37
15.65
14.58
14.19
14.18
14.16
13.79
13
12
11.09
10.47
10.06
9.58
8.65
7.06
4.75
1.86
-1.38
-4.81
-8.37
-12.07
-15.88
-19.73
-23.56
-27.33
-31.16
-35.25
-39.78
-44.7
-49.63
-53.83
-56.36
-56.36
-53.39
-47.57
-39.61
-30.58
-21.64
-13.71
-7.35
-2.75
0.16
1.6
1.88
1.35
0.38
-0.64
-1.34
-1.47
-0.89
0.42
2.37
4.82
7.55
10.26
12.66
14.49
15.62
16.1
16.13
15.91
15.62
15.31
15
14.65
14.23
13.67
12.88
11.73
10.11
8.01
5.48
2.58
-0.71
-4.52
-9
-14.12
-19.5
-24.32
-27.56
-28.28
-26.01
-20.9
-13.67
-5.38
2.9
10.33
16.42
21.01
24.19
26.14
27.1
27.26
26.84
26.05
25.09
24.16
23.43
22.98
22.8
22.78
22.77
22.61
22.19
21.51
20.62
19.63
18.6
17.59
16.59
15.56
14.45
13.21
11.82
10.28
8.66
7.02
5.42
3.84
2.19
0.34
-1.89
-4.61
-7.94
-11.82
-16.1
-20.41
-24.18
-26.71
-27.31
-25.57
-21.47
-15.46
-8.36
-1.09
5.58
11.15
15.49
18.69
20.9
22.24
22.77
22.58
21.81
20.74
19.71
19.04
18.87
19.18
19.73
20.23
20.42
20.17
19.5
18.5
17.3
15.97
14.55
13.03
11.42
9.73
8.02
6.34
4.73
3.15
1.51
-0.28
-2.27
-4.47
-6.83
-9.32
-12
-15
-18.45
-22.35
-26.41
-30.02
-32.43
-32.92
-31.08
-26.93
-20.93
-13.86
-6.57
0.17
5.88
10.35
13.62
15.82
17.11
17.63
17.52
16.95
16.17
15.44
14.92
14.62
14.39
14.07
13.56
13
12.58
12.53
12.87
13.43
13.92
14.06
13.61
12.5
10.74
8.42
5.68
2.77
-0.09
-2.7
-4.96
-6.98
-9.07
-11.64
-15
-19.22
-23.93
-28.41
-31.69
-32.91
-31.56
-27.69
-21.81
-14.75
-7.39
-0.45
5.6
10.51
14.23
16.86
18.56
19.47
19.69
19.28
18.36
17.16
16.01
15.24
15.08
15.48
16.16
16.78
17.06
16.89
16.4
15.75
15.05
14.31
13.43
12.31
10.89
9.2
7.33
5.38
3.38
1.31
-0.91
-3.38
-6.15
-9.25
-12.66
-16.39
-20.4
-24.62
-28.78
-32.44
-34.98
-35.74
-34.32
-30.66
-25.16
-18.56
-11.72
-5.4
-0.04
4.22
7.53
10.11
12.14
13.71
14.79
15.37
15.52
15.41
15.25
15.21
15.36
15.66
16
16.26
16.38
16.36
16.22
15.96
15.55
14.91
13.9
12.42
10.38
7.8
4.82
1.7
-1.28
-3.87
-5.95
-7.57
-8.88
-10.07
-11.32
-12.77
-14.51
-16.56
-18.89
-21.36
-23.68
-25.38
-25.97
-25.04
-22.51
-18.64
-14.02
-9.35
-5.19
-1.79
0.92
3.23
5.41
7.6
9.73
11.63
13.13
14.24
15.08
15.9
16.86
18
19.19
20.2
20.76
20.69
19.94
18.6
16.88
15.01
13.23
11.68
10.44
9.48
8.74
8.12
7.53
6.86
6
4.89
3.45
1.72
-0.2
-2.15
-3.97
-5.66
-7.39
-9.45
-12.14
-15.55
-19.4
-23.02
-25.54
-26.14
-24.39
-20.35
-14.57
-7.84
-0.97
5.45
11.08
15.79
19.55
22.34
24.18
25.09
25.22
24.74
23.93
23.11
22.53
22.41
22.83
23.69
24.67
25.27
24.96
23.29
20.09
15.54
10.11
4.39
-1.09
-6.03
-10.36
-14.14
-17.44
-20.29
-22.64
-24.43
-25.66
-26.38
-26.66
-26.64
-26.47
-26.32
-26.41
-26.89
-27.87
-29.22
-30.59
-31.44
-31.22
-29.52
-26.22
-21.56
-16.1
-10.53
-5.44
-1.22
2.04
4.4
6.05
7.11
7.66
7.75
7.54
7.27
7.22
7.58
8.32
9.19
9.81
9.86
9.24
8.14
6.91
5.9
5.28
4.91
4.46
3.56
1.95
-0.37
-3.21
-6.27
-9.26
-11.97
-14.36
-16.44
-18.31
-20.11
-22.01
-24.18
-26.7
-29.46
-32.12
-34.08
-34.69
-33.49
-30.33
-25.49
-19.63
-13.54
-7.94
-3.29
0.29
2.94
4.95
6.54
7.88
9.05
10.12
11.17
12.35
13.75
15.4
17.21
19.03
20.72
22.18
23.44
24.59
25.69
26.74
27.65
28.25
28.33
27.73
26.37
24.28
21.53
18.25
14.55
10.54
6.25
1.7
-3.11
-8.21
-13.58
-19.15
-24.72
-29.93
-34.31
-37.33
-38.58
-37.88
-35.32
-31.27
-26.24
-20.78
-15.42
-10.53
-6.34
-2.94
-0.27
1.8
3.44
4.74
5.73
6.41
6.78
6.92
6.98
7.08
7.24
7.34
7.18
6.61
5.6
4.34
3.09
2.1
1.43
0.94
0.33
-0.71
-2.35
-4.57
-7.13
-9.77
-12.25
-14.48
-16.46
-18.29
-20.07
-21.84
-23.69
-25.73
-28.08
-30.8
-33.75
-36.48
-38.34
-38.63
-36.89
-33.1
-27.7
-21.43
-15.04
-9.12
-3.91
0.56
4.32
7.42
9.79
11.43
12.44
13.07
13.65
14.48
15.68
17.12
18.52
19.59
20.12
20.08
19.55
18.65
17.46
16
14.25
12.21
9.88
7.35
4.68
1.96
-0.75
-3.39
-5.9
-8.29
-10.55
-12.77
-15.04
-17.45
-20.12
-23.09
-26.24
-29.33
-31.91
-33.45
-33.45
-31.65
-28.09
-23.18
-17.5
-11.69
-6.23
-1.41
2.68
6
8.56
10.35
11.33
11.59
11.34
10.88
10.58
10.71
11.36
12.41
13.62
14.67
15.39
15.71
15.67
15.38
14.84
13.97
12.64
10.83
8.61
6.22
3.95
1.96
0.24
-1.39
-3.24
-5.57
-8.5
-11.96
-15.7
-19.32
-22.35
-24.31
-24.79
-23.49
-20.32
-15.46
-9.35
-2.61
4.07
10.08
14.98
18.57
20.81
21.77
21.57
20.39
18.5
16.23
13.99
12.12
10.8
9.97
9.43
8.89
8.24
7.48
6.78
6.23
5.83
5.35
4.53
3.1
1.02
-1.53
-4.25
-6.85
-9.17
-11.24
-13.28
-15.62
-18.51
-22.08
-26.19
-30.41
-34.08
-36.39
-36.68
-34.59
-30.23
-24.13
-17.09
-9.89
-3.15
2.79
7.82
11.95
15.18
17.52
18.98
19.63
19.64
19.25
18.78
18.46
18.44
18.71
19.07
19.32
19.27
18.88
18.28
17.59
16.93
16.21
15.26
13.83
11.77
9.09
5.95
2.62
-0.66
-3.7
-6.51
-9.19
-12
-15.22
-19.1
-23.75
-29.05
-34.6
-39.75
-43.73
-45.71
-45.1
-41.62
-35.48
-27.38
-18.27
-9.22
-1.07
5.7
11.03
15.14
18.33
20.81
22.65
23.88
24.52
24.71
24.62
24.44
24.2
23.89
23.43
22.83
22.11
21.36
20.63
19.93
19.2
18.39
17.5
16.53
15.47
14.25
12.77
10.96
8.84
6.49
4.05
1.64
-0.76
-3.23
-5.93
-8.99
-12.52
-16.6
-21.29
-26.55
-32.14
-37.5
-41.79
-44.04
-43.51
-39.98
-33.81
-25.87
-17.24
-8.85
-1.31
5.13
10.45
14.74
18.05
20.44
21.94
22.66
22.78
22.53
22.19
22
22.15
22.7
23.56
24.54
25.42
25.95
25.99
25.5
24.51
23.11
21.41
19.46
17.29
14.86
12.1
9.02
5.67
2.17
-1.36
-4.85
-8.27
-11.61
-14.93
-18.26
-21.71
-25.45
-29.62
-34.19
-38.77
-42.61
-44.7
-44.11
-40.33
-33.5
-24.38
-14.14
-4.01
5.04
12.42
18
21.9
24.35
25.56
25.73
25.11
23.99
22.78
21.87
21.52
21.78
22.46
23.27
23.92
24.26
24.28
24.07
23.71
23.17
22.35
21.12
19.37
17.08
14.34
11.27
8.04
4.77
1.56
-1.54
-4.49
-7.28
-9.9
-12.49
-15.27
-18.54
-22.51
-27.13
-31.94
-36.09
-38.57
-38.45
-35.28
-29.24
-21.08
-11.9
-2.8
5.37
12.12
17.31
21.01
23.34
24.46
24.55
23.88
22.8
21.7
20.93
20.69
20.94
21.53
22.17
22.65
22.8
22.6
22.07
21.26
20.21
18.96
17.54
15.94
14.14
12.05
9.55
6.57
3.09
-0.73
-4.63
-8.38
-11.83
-15.03
-18.15
-21.46
-25.15
-29.29
-33.84
-38.52
-42.87
-46.23
-47.86
-47.09
-43.52
-37.27
-28.93
-19.43
-9.81
-0.94
6.63
12.68
17.22
20.36
22.29
23.22
23.38
23.06
22.52
22.06
21.85
21.99
22.43
23
23.48
23.66
23.4
22.66
21.51
20.03
18.31
16.41
14.38
12.22
9.97
7.63
5.19
2.62
-0.1
-2.95
-5.89
-8.84
-11.77
-14.64
-17.46
-20.31
-23.28
-26.52
-30.1
-33.94
-37.66
-40.6
-41.92
-40.85
-37.03
-30.61
-22.3
-13.15
-4.24
3.55
9.75
14.27
17.33
19.25
20.33
20.73
20.53
19.76
18.55
17.15
15.93
15.18
15.05
15.48
16.22
16.95
17.4
17.42
16.98
16.11
14.85
13.25
11.38
9.28
7
4.58
2.04
-0.59
-3.25
-5.87
-8.39
-10.8
-13.16
-15.59
-18.22
-21.21
-24.64
-28.5
-32.63
-36.61
-39.78
-41.4
-40.83
-37.81
-32.54
-25.67
-18.05
-10.53
-3.69
2.16
6.94
10.65
13.32
14.92
15.51
15.22
14.33
13.21
12.19
11.46
11.01
10.67
10.24
9.62
8.84
8.04
7.38
6.88
6.39
5.64
4.3
2.2
-0.7
-4.24
-8.12
-11.97
-15.41
-18.12
-19.9
-20.76
-20.93
-20.83
-20.94
-21.7
-23.29
-25.52
-27.83
-29.4
-29.39
-27.25
-22.85
-16.54
-9
-1.05
6.61
13.46
19.29
23.99
27.51
29.86
31.06
31.18
30.36
28.77
26.64
24.18
21.64
19.28
17.32
15.86
14.93
14.38
14.02
13.65
13.04
12.07
10.62
8.67
6.28
3.6
0.88
-1.66
-3.88
-5.79
-7.54
-9.42
-11.66
-14.5
-17.98
-21.93
-25.92
-29.28
-31.22
-31.08
-28.52
-23.71
-17.27
-10.11
-3.15
2.94
7.85
11.59
14.26
15.96
16.68
16.46
15.44
13.93
12.39
11.21
10.6
10.52
10.74
10.98
11.04
10.85
10.5
10.04
9.49
8.75
7.63
5.97
3.75
1.09
-1.75
-4.5
-6.96
-9.09
-11.08
-13.21
-15.84
-19.21
-23.29
-27.74
-31.84
-34.73
-35.62
-34.03
-30
-24.03
-16.92
-9.54
-2.59
3.54
8.66
12.8
16.02
18.39
19.93
20.68
20.77
20.42
19.9
19.49
19.36
19.47
19.65
19.67
19.38
18.8
18.06
17.35
16.77
16.27
15.66
14.7
13.2
11.11
8.57
5.81
3.06
0.46
-2.04
-4.61
-7.48
-10.84
-14.74
-19.04
-23.43
-27.4
-30.35
-31.74
-31.19
-28.65
-24.39
-18.97
-13.02
-7.09
-1.57
3.29
7.38
10.6
12.87
14.21
14.75
14.75
14.56
14.46
14.64
15.11
15.7
16.24
16.56
16.63
16.5
16.26
15.97
15.58
14.97
14.06
12.8
11.21
9.37
7.3
5
2.48
-0.24
-3.08
-5.89
-8.6
-11.2
-13.78
-16.48
-19.43
-22.71
-26.37
-30.35
-34.4
-38.06
-40.69
-41.57
-40.21
-36.44
-30.6
-23.4
-15.67
-8.17
-1.4
4.35
8.96
12.38
14.63
15.85
16.3
16.33
16.22
16.13
16.1
16.07
16
15.9
15.81
15.77
15.8
15.87
15.9
15.87
15.74
15.45
14.92
14.02
12.71
11.02
9.05
6.97
4.89
2.84
0.76
-1.45
-3.85
-6.41
-9.02
-11.56
-13.97
-16.36
-18.97
-22.06
-25.73
-29.74
-33.51
-36.21
-37.07
-35.58
-31.73
-25.94
-18.95
-11.56
-4.42
2.01
7.49
11.91
15.25
17.51
18.71
18.98
18.54
17.67
16.72
15.97
15.57
15.54
15.74
16.03
16.26
16.35
16.29
16.08
15.74
15.24
14.48
13.36
11.8
9.79
7.41
4.86
2.37
0.14
-1.73
-3.31
-4.77
-6.34
-8.25
-10.63
-13.55
-16.94
-20.59
-24.12
-26.96
-28.5
-28.18
-25.74
-21.29
-15.31
-8.58
-1.88
4.18
9.24
13.22
16.17
18.15
19.26
19.57
19.23
18.49
17.64
16.98
16.72
16.92
17.48
18.19
18.77
18.99
18.68
17.79
16.45
14.82
13.11
11.44
9.79
8.05
6.07
3.76
1.11
-1.74
-4.64
-7.43
-10.07
-12.58
-15.06
-17.62
-20.38
-23.44
-26.79
-30.34
-33.72
-36.42
-37.76
-37.21
-34.49
-29.71
-23.36
-16.07
-8.53
-1.3
5.12
10.38
14.2
16.5
17.42
17.29
16.59
15.76
15.07
14.62
14.38
14.28
14.27
14.34
14.44
14.49
14.39
14.02
13.39
12.54
11.59
10.6
9.5
8.13
6.32
4.01
1.3
-1.53
-4.21
-6.57
-8.64
-10.62
-12.76
-15.24
-18.14
-21.38
-24.83
-28.24
-31.28
-33.52
-34.44
-33.62
-30.84
-26.21
-20.18
-13.4
-6.56
-0.21
5.29
9.8
13.27
15.75
17.26
17.86
17.67
16.9
15.9
14.99
14.43
14.34
14.62
15.08
15.48
15.61
15.41
14.87
14.08
13.11
12.04
10.85
9.52
8
6.26
4.33
2.28
0.24
-1.68
-3.41
-4.99
-6.57
-8.29
-10.32
-12.76
-15.7
-19.2
-23.25
-27.67
-32.08
-35.84
-38.23
-38.6
-36.67
-32.6
-26.94
-20.45
-13.82
-7.61
-2.14
2.4
5.92
8.35
9.77
10.34
10.34
10.08
9.81
9.7
9.85
10.29
11.08
12.26
13.79
15.51
17.22
18.7
19.77
20.35
20.42
19.96
18.92
17.3
15.1
12.42
9.4
6.18
2.87
-0.48
-3.87
-7.3
-10.75
-14.16
-17.47
-20.69
-23.96
-27.49
-31.4
-35.6
-39.59
-42.58
-43.65
-42.07
-37.66
-30.82
-22.39
-13.41
-4.77
2.99
9.56
14.83
18.7
21.08
21.96
21.5
20.07
18.2
16.42
15.07
14.25
13.82
13.51
13.13
12.64
12.14
11.81
11.76
11.94
12.15
12.12
11.69
10.81
9.58
8.13
6.56
4.89
3.04
0.93
-1.55
-4.48
-7.94
-12.01
-16.69
-21.83
-27.04
-31.68
-34.94
-36.08
-34.67
-30.7
-24.66
-17.37
-9.78
-2.67
3.43
8.3
11.94
14.39
15.72
15.99
15.37
14.18
12.84
11.8
11.38
11.63
12.34
13.14
13.65
13.69
13.3
12.72
12.18
11.79
11.39
10.67
9.28
7.11
4.26
1.11
-1.96
-4.68
-7.04
-9.23
-11.51
-14.05
-16.97
-20.29
-24.02
-28.05
-32.07
-35.53
-37.62
-37.55
-34.83
-29.5
-22.18
-13.82
-5.45
2.13
8.52
13.58
17.35
19.89
21.28
21.6
21.07
20.08
19.06
18.42
18.38
18.9
19.69
20.38
20.64
20.36
19.67
18.83
18.09
17.49
16.85
15.84
14.16
11.68
8.49
4.81
0.95
-2.89
-6.59
-10.12
-13.49
-16.78
-20.1
-23.62
-27.51
-31.8
-36.26
-40.36
-43.28
-44.19
-42.48
-37.98
-31.1
-22.73
-13.98
-5.93
0.7
5.65
9.11
11.49
13.24
14.64
15.78
16.61
17.1
17.33
17.55
18.05
19.04
20.51
22.27
23.99
25.34
26.1
26.24
25.84
25.03
23.9
22.46
20.62
18.31
15.54
12.4
9.09
5.79
2.6
-0.49
-3.61
-6.86
-10.29
-13.88
-17.58
-21.4
-25.44
-29.78
-34.39
-38.9
-42.59
-44.57
-44
-40.42
-33.96
-25.3
-15.51
-5.73
3.13
10.53
16.33
20.62
23.66
25.68
26.9
27.5
27.65
27.59
27.51
27.56
27.75
27.96
28.06
27.9
27.47
26.84
26.11
25.33
24.44
23.28
21.69
19.58
16.96
13.97
10.72
7.32
3.81
0.14
-3.7
-7.69
-11.74
-15.74
-19.6
-23.33
-27.03
-30.9
-35.06
-39.53
-44.13
-48.39
-51.67
-53.23
-52.42
-48.9
-42.77
-34.58
-25.23
-15.69
-6.8
0.93
7.29
12.31
16.05
18.56
19.92
20.29
20.02
19.58
19.44
19.89
20.95
22.41
23.89
25.03
25.61
25.55
24.94
23.93
22.66
21.26
19.79
18.27
16.67
14.93
12.99
10.87
8.6
6.3
4.09
2.03
0.12
-1.72
-3.64
-5.84
-8.51
-11.76
-15.46
-19.2
-22.27
-23.77
-22.91
-19.33
-13.19
-5.25
3.48
11.94
19.35
25.25
29.47
32.02
32.95
32.41
30.62
27.95
24.87
21.84
19.19
17.07
15.46
14.18
13.05
11.88
10.54
8.94
7.06
4.92
2.61
0.21
-2.14
-4.36
-6.39
-8.21
-9.8
-11.17
-12.33
-13.26
-13.95
-14.39
-14.57
-14.52
-14.27
-13.92
-13.59
-13.44
-13.7
-14.57
-16.06
-17.93
-19.6
-20.25
-19.04
-15.48
-9.6
-1.99
6.4
14.55
21.68
27.36
31.48
34.09
35.33
35.33
34.27
32.42
30.09
27.63
25.32
23.32
21.71
20.48
19.62
19.08
18.8
18.64
18.42
17.97
17.18
16.05
14.68
13.18
11.62
9.98
8.2
6.21
4.01
1.63
-0.86
-3.42
-6.07
-8.84
-11.8
-14.96
-18.35
-21.97
-25.86
-30.06
-34.59
-39.37
-44.1
-48.27
-51.2
-52.19
-50.74
-46.72
-40.49
-32.77
-24.49
-16.5
-9.42
-3.54
1.12
4.67
7.22
8.86
9.69
9.86
9.62
9.28
9.09
9.22
9.63
10.19
10.73
11.1
11.29
11.33
11.25
11.07
10.74
10.17
9.32
8.18
6.8
5.25
3.59
1.82
-0.12
-2.31
-4.69
-7.12
-9.41
-11.36
-12.93
-14.26
-15.59
-17.21
-19.35
-22.11
-25.43
-29.07
-32.6
-35.43
-36.86
-36.29
-33.44
-28.45
-21.95
-14.79
-7.83
-1.64
3.58
7.84
11.3
14.05
16.08
17.36
17.94
17.99
17.79
17.66
17.81
18.29
18.98
19.66
20.15
20.35
20.24
19.91
19.42
18.82
18.09
17.17
15.98
14.46
12.55
10.27
7.65
4.82
1.95
-0.75
-3.14
-5.17
-6.95
-8.72
-10.76
-13.37
-16.64
-20.45
-24.4
-27.84
-30.05
-30.4
-28.57
-24.62
-19.03
-12.51
-5.82
0.38
5.66
9.79
12.68
14.37
14.99
14.75
13.94
12.85
11.78
10.98
10.57
10.57
10.89
11.32
11.7
11.94
12.05
12.14
12.31
12.58
12.91
13.16
13.21
13.01
12.51
11.72
10.63
9.18
7.3
4.89
1.94
-1.49
-5.29
-9.31
-13.52
-17.95
-22.69
-27.66
-32.53
-36.64
-39.18
-39.49
-37.31
-32.91
-26.98
-20.42
-13.97
-8.12
-3.07
1.16
4.61
7.28
9.18
10.39
11.02
11.31
11.49
11.75
12.22
12.86
13.59
14.29
14.84
15.22
15.42
15.47
15.39
15.13
14.63
13.79
12.57
10.94
8.94
6.64
4.12
1.45
-1.29
-4.09
-6.91
-9.72
-12.5
-15.28
-18.16
-21.34
-25.06
-29.38
-34.13
-38.75
-42.44
-44.41
-44.11
-41.45
-36.84
-30.97
-24.6
-18.41
-12.8
-7.93
-3.86
-0.54
2.03
3.87
5.03
5.62
5.85
5.99
6.23
6.7
7.37
8.14
8.9
9.62
10.36
11.27
12.43
13.82
15.22
16.35
16.94
16.89
16.24
15.2
13.96
12.64
11.26
9.73
7.96
5.95
3.78
1.6
-0.46
-2.36
-4.19
-6.15
-8.43
-11.2
-14.4
-17.73
-20.63
-22.45
-22.61
-20.82
-17.18
-12.17
-6.51
-0.95
3.97
7.94
10.91
12.98
14.29
14.96
15.1
14.88
14.49
14.14
13.99
14.08
14.29
14.44
14.37
14
13.42
12.75
12.14
11.64
11.15
10.55
9.67
8.42
6.77
4.79
2.59
0.29
-2.04
-4.34
-6.65
-8.99
-11.37
-13.77
-16.16
-18.56
-21.03
-23.76
-26.9
-30.52
-34.46
-38.32
-41.47
-43.26
-43.14
-40.84
-36.45
-30.35
-23.17
-15.62
-8.39
-2.02
3.13
6.94
9.52
11.08
11.89
12.16
12.08
11.81
11.55
11.52
11.94
12.8
13.86
14.7
14.81
13.95
12.2
9.99
7.85
6.17
5.02
4.13
3.08
1.51
-0.7
-3.44
-6.38
-9.18
-11.6
-13.64
-15.46
-17.37
-19.68
-22.57
-26
-29.7
-33.23
-36.03
-37.53
-37.25
-34.88
-30.37
-24.05
-16.55
-8.75
-1.54
4.4
8.78
11.7
13.48
14.54
15.2
15.64
15.93
16.15
16.43
16.93
17.82
19.18
20.89
22.68
24.24
25.28
25.72
25.6
25.12
24.42
23.57
22.5
21.07
19.18
16.87
14.25
11.5
8.74
5.98
3.21
0.42
-2.37
-5.11
-7.91
-11
-14.74
-19.33
-24.69
-30.24
-35.08
-38.23
-38.96
-36.96
-32.45
-26
-18.4
-10.44
-2.83
3.88
9.35
13.43
16.19
17.88
18.82
19.3
19.55
19.69
19.77
19.84
19.98
20.3
20.84
21.54
22.17
22.42
22.03
20.93
19.29
17.41
15.56
13.89
12.34
10.75
8.98
6.95
4.72
2.38
0.04
-2.23
-4.39
-6.45
-8.46
-10.5
-12.72
-15.3
-18.4
-22.02
-25.95
-29.68
-32.51
-33.68
-32.64
-29.21
-23.66
-16.59
-8.75
-0.82
6.66
13.32
18.98
23.48
26.75
28.79
29.72
29.72
29.06
28
26.79
25.6
24.53
23.62
22.87
22.3
21.93
21.78
21.82
21.84
21.59
20.77
19.25
17.12
14.65
12.19
9.98
8.02
6.13
4.06
1.62
-1.23
-4.33
-7.49
-10.49
-13.2
-15.62
-17.8
-19.87
-22.03
-24.53
-27.6
-31.33
-35.49
-39.46
-42.33
-43.18
-41.34
-36.7
-29.73
-21.33
-12.56
-4.29
2.92
8.79
13.32
16.57
18.69
19.86
20.35
20.43
20.39
20.46
20.77
21.36
22.15
23
23.74
24.25
24.47
24.41
24.1
23.61
22.89
21.87
20.48
18.67
16.45
13.92
11.15
8.24
5.29
2.36
-0.46
-3.16
-5.77
-8.39
-11.13
-14.14
-17.56
-21.5
-25.92
-30.58
-34.92
-38.16
-39.45
-38.2
-34.27
-28.09
-20.5
-12.45
-4.77
2.08
7.87
12.56
16.12
18.48
19.59
19.54
18.6
17.25
16
15.29
15.27
15.82
16.57
17.12
17.17
16.67
15.82
14.88
14.07
13.4
12.71
11.74
10.29
8.34
6.01
3.56
1.21
-0.89
-2.76
-4.51
-6.37
-8.53
-11.15
-14.29
-17.92
-21.91
-25.99
-29.68
-32.39
-33.39
-32.09
-28.24
-22.09
-14.4
-6.21
1.44
7.83
12.71
16.2
18.58
20.11
20.95
21.14
20.76
20
19.12
18.43
18.13
18.25
18.66
19.11
19.36
19.24
18.73
17.94
17
16.01
14.97
13.77
12.25
10.26
7.74
4.77
1.58
-1.61
-4.59
-7.26
-9.63
-11.83
-13.98
-16.23
-18.65
-21.32
-24.31
-27.65
-31.26
-34.88
-38.01
-40
-40.26
-38.46
-34.61
-29.12
-22.6
-15.73
-9.07
-3.02
2.14
6.28
9.38
11.52
12.88
13.71
14.28
14.82
15.48
16.36
17.49
18.89
20.53
22.33
24.2
25.99
27.54
28.71
29.41
29.62
29.35
28.63
27.46
25.81
23.68
21.08
18.11
14.93
11.73
8.62
5.63
2.66
-0.47
-3.96
-8
-12.67
-18
-23.86
-29.98
-35.93
-41.12
-44.91
-46.79
-46.44
-43.88
-39.46
-33.69
-27.18
-20.44
-13.89
-7.83
-2.49
1.98
5.48
8.01
9.65
10.58
11.04
11.28
11.58
12.15
13.05
14.25
15.56
16.72
17.48
17.68
17.27
16.32
14.95
13.28
11.42
9.46
7.5
5.62
3.86
2.23
0.63
-1.06
-2.93
-5
-7.18
-9.32
-11.32
-13.2
-15.15
-17.41
-20.1
-23.04
-25.71
-27.39
-27.37
-25.2
-20.9
-14.9
-7.9
-0.64
6.25
12.38
17.53
21.6
24.55
26.42
27.29
27.31
26.71
25.75
24.71
23.81
23.15
22.61
21.93
20.82
19.11
16.87
14.41
12.11
10.23
8.8
7.58
6.26
4.63
2.7
0.65
-1.35
-3.22
-5.07
-7.11
-9.5
-12.34
-15.62
-19.26
-23.11
-26.94
-30.41
-33.1
-34.57
-34.46
-32.62
-29.16
-24.42
-18.93
-13.24
-7.87
-3.16
0.71
3.71
5.88
7.3
8.03
8.17
7.88
7.4
6.98
6.81
6.92
7.18
7.38
7.37
7.11
6.7
6.27
5.91
5.61
5.33
4.99
4.59
4.12
3.6
3
2.25
1.27
0.08
-1.21
-2.44
-3.45
-4.22
-4.86
-5.61
-6.82
-8.81
-11.8
-15.73
-20.27
-24.76
-28.34
-30.19
-29.75
-26.9
-22.02
-15.86
-9.29
-3.07
2.25
6.46
9.58
11.79
13.32
14.35
15.02
15.37
15.42
15.21
14.82
14.36
13.99
13.85
13.98
14.33
14.77
15.16
15.41
15.5
15.47
15.34
15.08
14.59
13.73
12.43
10.69
8.6
6.3
3.91
1.5
-0.94
-3.48
-6.17
-9.03
-12.07
-15.26
-18.59
-22.01
-25.38
-28.44
-30.82
-32.07
-31.84
-29.99
-26.64
-22.1
-16.81
-11.23
-5.73
-0.6
3.98
7.9
11.1
13.55
15.25
16.18
16.35
15.89
14.99
13.97
13.09
12.5
12.22
12.13
12.1
12.06
11.98
11.81
11.42
10.6
9.23
7.3
5.07
2.87
1.01
-0.33
-1.28
-2.07
-2.96
-4.07
-5.4
-6.87
-8.43
-10.15
-12.22
-14.84
-18.14
-22.06
-26.3
-30.33
-33.52
-35.26
-35.14
-33.07
-29.25
-24.18
-18.45
-12.63
-7.14
-2.23
1.97
5.36
7.86
9.4
10.04
9.95
9.5
9.06
8.95
9.26
9.93
10.74
11.48
12.08
12.57
13.06
13.59
14.1
14.42
14.36
13.75
12.51
10.65
8.26
5.48
2.53
-0.41
-3.2
-5.74
-8.04
-10.15
-12.17
-14.2
-16.4
-18.84
-21.51
-24.15
-26.3
-27.35
-26.77
-24.29
-20.12
-14.84
-9.17
-3.75
1.04
5.11
8.49
11.19
13.16
14.28
14.55
14.11
13.29
12.45
11.89
11.74
11.93
12.25
12.46
12.39
11.96
11.17
10.09
8.79
7.35
5.84
4.34
2.91
1.58
0.35
-0.87
-2.11
-3.42
-4.81
-6.27
-7.86
-9.71
-11.95
-14.7
-17.93
-21.55
-25.33
-29.01
-32.21
-34.47
-35.26
-34.12
-30.85
-25.67
-19.18
-12.22
-5.61
0.13
4.76
8.34
11.05
13.01
14.29
14.94
15.03
14.72
14.26
13.85
13.67
13.82
14.31
15.02
15.82
16.51
16.94
17
16.65
15.88
14.72
13.22
11.46
9.5
7.41
5.23
2.98
0.64
-1.77
-4.22
-6.63
-8.94
-11.1
-13.16
-15.21
-17.4
-19.9
-22.86
-26.35
-30.22
-34.12
-37.46
-39.51
-39.63
-37.44
-33.05
-26.96
-19.98
-12.92
-6.38
-0.65
4.2
8.24
11.47
13.86
15.31
15.82
15.56
14.8
13.91
13.14
12.6
12.3
12.13
12.06
12.08
12.22
12.43
12.63
12.68
12.45
11.87
10.92
9.61
7.94
5.93
3.63
1.11
-1.52
-4.2
-6.87
-9.54
-12.25
-15.03
-17.9
-20.9
-24.01
-27.19
-30.23
-32.78
-34.36
-34.45
-32.75
-29.2
-24.1
-17.95
-11.36
-4.92
0.93
5.87
9.73
12.45
14.03
14.61
14.45
13.93
13.51
13.6
14.38
15.85
17.78
19.82
21.64
23
23.83
24.12
23.95
23.38
22.42
21.05
19.18
16.75
13.72
10.2
6.36
2.46
-1.3
-4.78
-7.97
-10.9
-13.6
-16.13
-18.58
-21.1
-23.76
-26.54
-29.15
-31.08
-31.68
-30.43
-27.08
-21.83
-15.25
-8.05
-1.02
5.29
10.52
14.5
17.22
18.78
19.33
19.09
18.32
17.3
16.35
15.74
15.68
16.22
17.24
18.49
19.7
20.64
21.21
21.4
21.2
20.58
19.39
17.48
14.77
11.33
7.4
3.29
-0.69
-4.33
-7.56
-10.4
-12.96
-15.42
-18.03
-21.04
-24.62
-28.79
-33.28
-37.52
-40.71
-41.97
-40.67
-36.6
-30.03
-21.68
-12.55
-3.61
4.31
10.74
15.48
18.61
20.37
21.08
21.07
20.6
19.92
19.23
18.76
18.67
19.1
19.98
21.1
22.15
22.85
23.08
22.9
22.5
21.99
21.33
20.33
18.74
16.38
13.27
9.62
5.68
1.69
-2.24
-6.09
-9.86
-13.53
-17.05
-20.37
-23.58
-26.9
-30.64
-34.96
-39.71
-44.29
-47.73
-48.97
-47.19
-42.17
-34.33
-24.65
-14.31
-4.43
4.24
11.37
16.93
21.05
23.83
25.37
25.76
25.24
24.14
22.88
21.82
21.13
20.84
20.89
21.24
21.92
22.98
24.32
25.65
26.56
26.67
25.78
24.01
21.64
18.99
16.23
13.33
10.19
6.7
2.9
-1.06
-4.98
-8.7
-12.17
-15.42
-18.55
-21.63
-24.79
-28.16
-31.8
-35.66
-39.41
-42.42
-43.91
-43.15
-39.69
-33.61
-25.47
-16.18
-6.76
1.94
9.29
14.98
18.98
21.46
22.72
23.14
23.07
22.8
22.49
22.25
22.15
22.26
22.63
23.3
24.19
25.14
25.94
26.42
26.49
26.12
25.34
24.15
22.48
20.27
17.43
13.96
9.94
5.56
1.03
-3.37
-7.41
-10.93
-13.87
-16.36
-18.62
-20.95
-23.64
-26.87
-30.62
-34.67
-38.53
-41.52
-42.85
-41.84
-38.14
-31.87
-23.63
-14.4
-5.24
2.96
9.75
15.02
18.96
21.75
23.48
24.16
23.83
22.73
21.3
20.11
19.57
19.77
20.46
21.13
21.33
20.83
19.76
18.42
17.16
16.09
15.11
13.91
12.21
9.87
7.02
3.94
0.96
-1.66
-3.87
-5.79
-7.67
-9.82
-12.5
-15.9
-20.03
-24.69
-29.39
-33.42
-35.97
-36.38
-34.28
-29.76
-23.3
-15.62
-7.52
0.29
7.3
13.2
17.86
21.29
23.59
24.9
25.42
25.4
25.07
24.7
24.49
24.54
24.8
25.09
25.13
24.68
23.66
22.11
20.22
18.17
16.06
13.82
11.3
8.33
4.87
1.03
-2.9
-6.6
-9.79
-12.31
-14.21
-15.71
-17.14
-18.9
-21.26
-24.36
-28.05
-31.89
-35.22
-37.31
-37.49
-35.38
-30.98
-24.73
-17.36
-9.72
-2.62
3.4
8.09
11.49
13.8
15.21
15.89
15.92
15.43
14.6
13.72
13.09
12.93
13.29
14.07
15.06
16.05
16.83
17.27
17.25
16.75
15.78
14.43
12.77
10.85
8.69
6.29
3.67
0.96
-1.71
-4.21
-6.52
-8.78
-11.21
-14.03
-17.43
-21.44
-25.98
-30.8
-35.52
-39.56
-42.21
-42.78
-40.79
-36.17
-29.33
-21.1
-12.46
-4.3
2.77
8.52
12.96
16.24
18.45
19.65
19.93
19.46
18.6
17.74
17.23
17.24
17.69
18.36
19
19.42
19.55
19.39
18.96
18.25
17.23
15.86
14.14
12.07
9.68
7.02
4.17
1.22
-1.72
-4.57
-7.29
-9.91
-12.53
-15.22
-18.1
-21.24
-24.7
-28.48
-32.44
-36.24
-39.31
-40.98
-40.61
-37.81
-32.64
-25.62
-17.6
-9.53
-2.22
3.88
8.61
12.06
14.37
15.69
16.09
15.74
14.88
13.82
12.91
12.39
12.34
12.67
13.22
13.78
14.18
14.38
14.38
14.23
13.97
13.56
12.89
11.81
10.16
7.9
5.13
2.07
-1
-3.84
-6.33
-8.5
-10.5
-12.56
-14.92
-17.8
-21.2
-24.86
-28.25
-30.58
-31.09
-29.28
-25.12
-19.06
-11.92
-4.58
2.24
8.08
12.75
16.19
18.37
19.3
19.08
17.99
16.43
14.88
13.76
13.26
13.36
13.84
14.38
14.74
14.82
14.65
14.37
14.02
13.59
12.91
11.81
10.14
7.9
5.23
2.38
-0.4
-2.93
-5.13
-7.09
-9
-11.16
-13.83
-17.16
-21.09
-25.23
-28.93
-31.38
-31.85
-29.96
-25.79
-19.85
-12.99
-6.07
0.23
5.49
9.6
12.62
14.7
15.97
16.51
16.4
15.73
14.68
13.49
12.48
11.94
12.01
12.66
13.66
14.67
15.36
15.53
15.17
14.36
13.19
11.68
9.77
7.41
4.65
1.71
-1.12
-3.56
-5.5
-7.01
-8.27
-9.48
-10.8
-12.35
-14.27
-16.71
-19.79
-23.46
-27.39
-30.98
-33.43
-33.99
-32.21
-28.09
-22.09
-15.02
-7.74
-1
4.77
9.43
13.02
15.62
17.27
18.01
17.95
17.34
16.53
15.86
15.54
15.64
16.07
16.71
17.43
18.11
18.63
18.83
18.57
17.82
16.67
15.29
13.82
12.3
10.64
8.69
6.31
3.49
0.3
-3.04
-6.35
-9.42
-12.14
-14.48
-16.55
-18.59
-20.93
-23.88
-27.55
-31.73
-35.85
-39.06
-40.55
-39.72
-36.42
-30.93
-23.89
-16.09
-8.25
-1
5.21
10.11
13.58
15.66
16.57
16.64
16.24
15.71
15.28
15.04
14.99
15.09
15.29
15.53
15.78
15.94
15.91
15.63
15.11
14.41
13.59
12.66
11.54
10.09
8.15
5.67
2.78
-0.28
-3.22
-5.82
-8.05
-10.04
-12.05
-14.33
-17.02
-20.14
-23.58
-27.13
-30.48
-33.21
-34.76
-34.6
-32.34
-27.94
-21.76
-14.48
-6.91
0.27
6.55
11.66
15.45
17.92
19.19
19.49
19.16
18.53
17.86
17.3
16.87
16.59
16.46
16.49
16.66
16.89
17.06
16.98
16.51
15.58
14.15
12.28
10.06
7.59
4.99
2.33
-0.32
-2.9
-5.32
-7.49
-9.36
-11.03
-12.71
-14.71
-17.33
-20.65
-24.39
-27.94
-30.5
-31.27
-29.78
-26.03
-20.48
-13.88
-7.07
-0.67
4.96
9.7
13.54
16.43
18.25
18.9
18.43
17.11
15.37
13.7
12.39
11.54
11.05
10.7
10.37
9.98
9.49
8.84
7.93
6.68
5.09
3.25
1.3
-0.66
-2.62
-4.66
-6.82
-9.11
-11.44
-13.64
-15.65
-17.46
-19.18
-20.97
-22.98
-25.33
-28.05
-31.01
-33.86
-36.07
-36.98
-36.02
-32.91
-27.79
-21.19
-13.86
-6.59
0.04
5.7
10.34
14.03
16.88
18.94
20.2
20.67
20.45
19.77
18.99
18.41
18.26
18.56
19.16
19.84
20.41
20.74
20.8
20.59
20.09
19.27
18.15
16.72
15.06
13.17
11.04
8.57
5.71
2.45
-1.06
-4.62
-8
-11.1
-13.97
-16.86
-20.07
-23.82
-28.08
-32.55
-36.59
-39.46
-40.41
-38.99
-35.14
-29.17
-21.76
-13.75
-5.99
0.85
6.41
10.65
13.75
16.02
17.75
19.1
20.1
20.69
20.84
20.6
20.13
19.62
19.26
19.11
19.15
19.29
19.41
19.4
19.15
18.54
17.49
15.99
14.08
11.85
9.43
6.88
4.21
1.42
-1.52
-4.59
-7.7
-10.76
-13.68
-16.42
-18.98
-21.42
-23.8
-26.23
-28.79
-31.44
-33.96
-35.88
-36.59
-35.5
-32.23
-26.87
-19.96
-12.38
-5.06
1.29
6.37
10.25
13.18
15.4
16.95
17.79
17.89
17.4
16.66
16.09
16
16.44
17.19
17.93
18.41
18.54
18.44
18.24
18.08
17.91
17.6
16.97
15.94
14.48
12.68
10.61
8.36
5.99
3.58
1.24
-0.91
-2.83
-4.57
-6.34
-8.49
-11.34
-15.03
-19.36
-23.71
-27.21
-28.96
-28.31
-25.09
-19.66
-12.75
-5.25
2.05
8.63
14.18
18.59
21.79
23.77
24.55
24.32
23.39
22.18
21.06
20.24
19.79
19.56
19.4
19.18
18.86
18.43
17.86
17.12
16.15
14.94
13.49
11.86
10.03
7.93
5.44
2.53
-0.73
-4.12
-7.4
-10.41
-13.18
-15.86
-18.71
-21.95
-25.68
-29.87
-34.3
-38.52
-41.91
-43.79
-43.57
-40.93
-35.96
-29.13
-21.14
-12.81
-4.84
2.17
7.86
12.07
14.8
16.24
16.63
16.27
15.43
14.43
13.56
13.14
13.38
14.32
15.71
17.16
18.21
18.6
18.28
17.45
16.35
15.17
13.94
12.56
10.91
8.95
6.71
4.31
1.8
-0.81
-3.6
-6.63
-9.85
-13.11
-16.27
-19.25
-22.22
-25.51
-29.39
-33.95
-38.79
-43.11
-45.87
-46.14
-43.44
-37.88
-30.14
-21.2
-12.09
-3.61
3.73
9.72
14.33
17.65
19.79
20.93
21.24
20.96
20.36
19.69
19.19
19.04
19.27
19.83
20.54
21.16
21.52
21.51
21.13
20.38
19.27
17.8
15.96
13.79
11.35
8.73
5.98
3.11
0.09
-3.02
-6.13
-9.07
-11.74
-14.13
-16.38
-18.72
-21.39
-24.55
-28.23
-32.29
-36.42
-40.09
-42.65
-43.41
-41.83
-37.72
-31.3
-23.23
-14.4
-5.79
1.89
8.22
13.15
16.81
19.37
20.97
21.67
21.57
20.87
19.92
19.09
18.69
18.82
19.32
19.94
20.35
20.34
19.82
18.85
17.53
16.02
14.45
12.9
11.37
9.78
8
5.91
3.45
0.72
-2.09
-4.76
-7.12
-9.13
-10.89
-12.64
-14.64
-17.16
-20.36
-24.16
-28.18
-31.73
-33.92
-33.94
-31.3
-26.07
-18.83
-10.55
-2.22
5.33
11.57
16.27
19.38
21.03
21.46
21
20.04
18.97
18.05
17.4
17.05
16.96
17.08
17.35
17.66
17.86
17.79
17.36
16.59
15.59
14.47
13.2
11.67
9.7
7.15
4.08
0.73
-2.56
-5.5
-7.95
-10.03
-12.04
-14.38
-17.4
-21.23
-25.69
-30.29
-34.23
-36.65
-36.8
-34.33
-29.36
-22.49
-14.58
-6.53
0.98
7.54
12.97
17.21
20.21
21.91
22.32
21.64
20.25
18.69
17.45
16.79
16.76
17.16
17.72
18.23
18.58
18.72
18.63
18.23
17.42
16.16
14.52
12.59
10.49
8.25
5.83
3.18
0.29
-2.76
-5.87
-8.98
-12.1
-15.3
-18.64
-22.17
-25.93
-29.92
-34.02
-37.89
-40.94
-42.41
-41.61
-38.16
-32.2
-24.4
-15.7
-7.05
0.81
7.46
12.76
16.69
19.35
20.83
21.31
21.04
20.34
19.54
18.93
18.68
18.81
19.19
19.6
19.84
19.8
19.51
19.06
18.53
17.89
17.04
15.8
14.09
11.91
9.38
6.62
3.76
0.88
-1.99
-4.79
-7.49
-10.06
-12.56
-15.14
-17.97
-21.21
-24.94
-29.14
-33.59
-37.88
-41.42
-43.46
-43.33
-40.57
-35.2
-27.71
-19
-10.13
-2.04
4.63
9.6
12.93
14.88
15.76
15.87
15.47
14.8
14.07
13.52
13.32
13.55
14.15
14.94
15.7
16.27
16.62
16.8
16.89
16.86
16.64
16.09
15.13
13.78
12.13
10.27
8.24
6.06
3.71
1.23
-1.3
-3.8
-6.22
-8.57
-10.93
-13.43
-16.24
-19.46
-23.13
-27.06
-30.81
-33.71
-35.01
-34.1
-30.76
-25.24
-18.23
-10.62
-3.21
3.46
9.14
13.79
17.38
19.88
21.22
21.46
20.83
19.73
18.63
17.89
17.68
17.94
18.46
19.01
19.41
19.58
19.47
19.09
18.4
17.38
16.02
14.31
12.28
9.96
7.4
4.69
1.98
-0.55
-2.79
-4.67
-6.3
-7.9
-9.75
-12.12
-15.16
-18.77
-22.63
-26.2
-28.83
-29.87
-28.85
-25.63
-20.41
-13.77
-6.46
0.73
7.15
12.41
16.35
18.97
20.39
20.77
20.32
19.31
18.06
16.88
16.04
15.63
15.63
15.88
16.16
16.28
16.11
15.61
14.81
13.78
12.61
11.33
9.96
8.51
6.91
5.11
3.02
0.62
-2.06
-4.88
-7.6
-10.04
-12.1
-13.88
-15.68
-17.87
-20.72
-24.34
-28.58
-33.05
-37.13
-40.09
-41.21
-39.93
-36.1
-30
-22.35
-14.08
-6.04
1.11
7.11
11.88
15.5
18.04
19.59
20.26
20.26
19.87
19.39
19.02
18.87
18.89
19
19.07
19.08
19.06
19.06
19.1
19.11
18.91
18.34
17.3
15.82
14.02
12.01
9.86
7.51
4.9
2
-1.12
-4.31
-7.41
-10.33
-13.05
-15.62
-18.16
-20.8
-23.7
-27
-30.66
-34.47
-37.91
-40.3
-40.95
-39.37
-35.47
-29.56
-22.3
-14.48
-6.86
-0.02
5.66
10.07
13.22
15.25
16.34
16.72
16.64
16.29
15.85
15.38
14.94
14.55
14.23
14.07
14.13
14.41
14.82
15.17
15.24
14.88
14.05
12.84
11.37
9.77
8.07
6.26
4.3
2.15
-0.16
-2.56
-4.96
-7.25
-9.31
-11.13
-12.79
-14.46
-16.38
-18.82
-21.94
-25.69
-29.74
-33.48
-36.17
-37.05
-35.61
-31.74
-25.78
-18.48
-10.77
-3.51
2.66
7.47
10.93
13.27
14.72
15.48
15.68
15.43
14.85
14.14
13.53
13.22
13.24
13.53
13.89
14.14
14.19
14.03
13.74
13.38
12.92
12.27
11.27
9.83
7.91
5.63
3.17
0.79
-1.33
-3.16
-4.78
-6.41
-8.29
-10.6
-13.42
-16.72
-20.35
-24.09
-27.65
-30.59
-32.41
-32.61
-30.86
-27.06
-21.46
-14.6
-7.22
-0.03
6.36
11.6
15.54
18.26
19.88
20.54
20.36
19.48
18.14
16.7
15.56
15
15.07
15.55
16.09
16.36
16.26
15.83
15.25
14.61
13.9
12.98
11.7
9.98
7.88
5.5
2.97
0.4
-2.15
-4.62
-6.98
-9.28
-11.68
-14.38
-17.56
-21.3
-25.46
-29.75
-33.68
-36.71
-38.28
-37.93
-35.4
-30.7
-24.19
-16.51
-8.47
-0.9
5.59
10.62
14.15
16.3
17.32
17.47
16.97
16.06
14.97
13.94
13.24
12.98
13.15
13.57
13.98
14.19
14.09
13.73
13.22
12.63
11.96
11.12
10.03
8.65
6.97
5.06
2.95
0.65
-1.84
-4.5
-7.32
-10.22
-13.16
-16.11
-19.09
-22.17
-25.47
-29.05
-32.84
-36.58
-39.72
-41.52
-41.26
-38.49
-33.24
-26.04
-17.83
-9.61
-2.19
4.02
8.96
12.8
15.73
17.85
19.16
19.66
19.45
18.72
17.8
17.03
16.6
16.58
16.86
17.27
17.62
17.79
17.73
17.41
16.82
15.98
14.91
13.61
12.04
10.13
7.77
4.94
1.71
-1.72
-5.05
-8.02
-10.49
-12.52
-14.33
-16.23
-18.52
-21.44
-25.09
-29.39
-34
-38.32
-41.57
-42.93
-41.83
-38.15
-32.32
-25.15
-17.63
-10.63
-4.63
0.28
4.25
7.47
10.04
11.94
13.08
13.5
13.38
13.04
12.81
12.89
13.35
14.08
14.9
15.61
16.1
16.33
16.36
16.29
16.18
15.98
15.51
14.53
12.84
10.42
7.45
4.27
1.21
-1.53
-3.92
-6.1
-8.27
-10.6
-13.25
-16.34
-19.96
-24.06
-28.31
-32.07
-34.48
-34.74
-32.4
-27.51
-20.68
-12.82
-4.86
2.52
8.95
14.33
18.61
21.74
23.6
24.17
23.6
22.27
20.73
19.44
18.69
18.49
18.62
18.81
18.87
18.76
18.54
18.25
17.87
17.26
16.26
14.76
12.71
10.16
7.23
4.06
0.82
-2.32
-5.19
-7.77
-10.16
-12.65
-15.55
-19.09
-23.22
-27.54
-31.37
-33.86
-34.29
-32.22
-27.62
-20.93
-12.93
-4.54
3.36
10.16
15.53
19.46
22.06
23.53
24.09
23.92
23.26
22.36
21.49
20.84
20.52
20.5
20.61
20.68
20.54
20.16
19.57
18.91
18.27
17.61
16.78
15.52
13.61
10.91
7.51
3.66
-0.29
-4.04
-7.35
-10.19
-12.68
-15.1
-17.81
-21.12
-25.21
-30.03
-35.22
-40.08
-43.7
-45.18
-43.9
-39.75
-33.18
-25.14
-16.72
-8.85
-2.11
3.34
7.59
10.81
13.14
14.6
15.21
15.06
14.35
13.37
12.4
11.58
10.9
10.23
9.36
8.18
6.74
5.15
3.58
2.09
0.63
-0.89
-2.5
-4.04
-5.26
-5.88
-5.81
-5.19
-4.36
-3.65
-3.3
-3.34
-3.73
-4.41
-5.43
-6.98
-9.24
-12.37
-16.27
-20.62
-24.86
-28.24
-30.02
-29.61
-26.77
-21.7
-15.04
-7.65
-0.39
6.11
11.56
15.91
19.25
21.68
23.29
24.19
24.5
24.41
24.1
23.71
23.35
23.1
23.02
23.18
23.54
23.99
24.31
24.3
23.84
22.98
21.92
20.87
19.95
19.14
18.22
17.02
15.37
13.29
10.88
8.27
5.6
2.94
0.3
-2.34
-5.05
-7.91
-11.08
-14.65
-18.68
-23.01
-27.27
-30.89
-33.21
-33.65
-31.92
-28.12
-22.7
-16.33
-9.71
-3.43
2.17
6.94
10.84
13.88
16.05
17.41
18.09
18.32
18.39
18.53
18.89
19.44
20.04
20.57
20.95
21.19
21.34
21.42
21.39
21.08
20.36
19.09
17.29
15.04
12.54
9.97
7.5
5.24
3.25
1.45
-0.27
-2.14
-4.32
-6.95
-10.07
-13.59
-17.26
-20.74
-23.52
-25.09
-25
-23.05
-19.35
-14.31
-8.55
-2.7
2.76
7.52
11.45
14.49
16.62
17.8
18.04
17.46
16.29
14.86
13.51
12.51
11.95
11.81
11.91
12.04
12.05
11.82
11.39
10.78
10.05
9.21
8.26
7.15
5.89
4.5
3.02
1.5
-0.06
-1.65
-3.28
-4.88
-6.39
-7.71
-8.82
-9.79
-10.77
-11.96
-13.57
-15.69
-18.26
-21.05
-23.65
-25.52
-26.15
-25.15
-22.42
-18.17
-12.83
-7
-1.26
3.96
8.37
11.83
14.3
15.84
16.62
16.9
17.01
17.24
17.77
18.63
19.75
20.98
22.19
23.27
24.15
24.73
24.95
24.77
24.15
23.07
21.48
19.3
16.47
13.04
9.2
5.28
1.66
-1.44
-3.97
-6.1
-8.1
-10.14
-12.25
-14.29
-16.06
-17.41
-18.35
-19
-19.55
-20.2
-21.13
-22.41
-24.1
-26.13
-28.29
-30.22
-31.45
-31.53
-30.11
-27.15
-22.91
-17.91
-12.74
-7.91
-3.72
-0.26
2.52
4.68
6.21
7.08
7.32
7.06
6.57
6.12
5.88
5.88
5.96
5.95
5.73
5.32
4.8
4.28
3.83
3.46
3.12
2.74
2.25
1.57
0.62
-0.61
-2.06
-3.61
-5.11
-6.41
-7.45
-8.3
-9.09
-10
-11.18
-12.67
-14.41
-16.26
-18.07
-19.81
-21.53
-23.3
-25.14
-26.82
-28
-28.28
-27.35
-25.14
-21.81
-17.67
-13.14
-8.59
-4.39
-0.77
2.12
4.29
5.84
6.94
7.76
8.39
8.87
9.32
9.86
10.72
12.05
13.86
15.99
18.11
19.9
21.15
21.83
22.13
22.24
22.31
22.3
22.05
21.38
20.18
18.46
16.33
13.88
11.13
8.04
4.59
0.82
-3.16
-7.21
-11.24
-15.28
-19.42
-23.6
-27.58
-30.92
-33.04
-33.52
-32.21
-29.3
-25.28
-20.75
-16.21
-12.03
-8.39
-5.35
-2.93
-1.12
0.07
0.75
1.05
1.16
1.23
1.36
1.6
1.95
2.39
2.92
3.54
4.26
5.06
5.89
6.72
7.45
7.98
8.21
8.04
7.43
6.39
5.01
3.48
1.93
0.48
-0.83
-2.04
-3.18
-4.3
-5.48
-6.8
-8.38
-10.29
-12.42
-14.43
-15.84
-16.13
-14.96
-12.34
-8.58
-4.22
0.2
4.31
7.89
10.84
13.07
14.47
14.93
14.38
12.88
10.66
8.04
5.4
3.08
1.33
0.23
-0.3
-0.44
-0.4
-0.32
-0.26
-0.2
-0.12
0.01
0.18
0.35
0.49
0.54
0.45
0.18
-0.32
-1.03
-1.91
-2.87
-3.84
-4.84
-5.94
-7.3
-9.06
-11.34
-14.2
-17.61
-21.41
-25.28
-28.78
-31.32
-32.38
-31.61
-28.96
-24.74
-19.47
-13.8
-8.28
-3.3
0.97
4.49
7.33
9.53
11.13
12.21
12.86
13.26
13.57
13.94
14.4
14.91
15.35
15.62
15.64
15.4
14.89
14.16
13.26
12.27
11.24
10.21
9.16
7.98
6.55
4.8
2.71
0.37
-2.14
-4.74
-7.42
-10.21
-13.12
-16.17
-19.38
-22.77
-26.4
-30.25
-34.19
-37.85
-40.72
-42.22
-41.91
-39.6
-35.42
-29.77
-23.21
-16.35
-9.75
-3.85
1.04
4.76
7.34
8.91
9.72
10.07
10.26
10.53
11.05
11.89
13.06
14.48
16.02
17.56
18.98
20.21
21.24
22.07
22.71
23.12
23.21
22.84
21.81
20.01
17.38
14.06
10.26
6.29
2.45
-1.08
-4.27
-7.28
-10.39
-13.96
-18.27
-23.41
-29.17
-35.07
-40.36
-44.18
-45.83
-44.87
-41.26
-35.41
-28
-19.84
-11.73
-4.24
2.23
7.53
11.65
14.68
16.72
17.93
18.52
18.72
18.78
18.91
19.21
19.64
20.07
20.37
20.44
20.3
20.03
19.67
19.24
18.64
17.71
16.31
14.39
11.99
9.24
6.27
3.2
0.09
-3.05
-6.29
-9.8
-13.79
-18.45
-23.76
-29.45
-34.85
-39.09
-41.22
-40.51
-36.69
-30.01
-21.17
-11.16
-1.03
8.34
16.27
22.36
26.46
28.65
29.23
28.69
27.62
26.62
26.17
26.47
27.44
28.75
29.95
30.63
30.59
29.86
28.64
27.16
25.5
23.55
21.07
17.8
13.67
8.88
3.82
-1.07
-5.42
-9.08
-12.12
-14.81
-17.48
-20.5
-24.16
-28.62
-33.77
-39.13
-43.9
-47.03
-47.55
-44.84
-38.9
-30.38
-20.42
-10.25
-0.89
7.09
13.52
18.51
22.23
24.83
26.42
27.16
27.3
27.22
27.23
27.55
28.21
28.98
29.55
29.64
29.12
28.07
26.72
25.37
24.16
23.01
21.67
19.8
17.21
13.87
10.04
6.06
2.25
-1.23
-4.43
-7.5
-10.69
-14.16
-18.09
-22.59
-27.76
-33.61
-39.88
-45.99
-50.97
-53.66
-53.08
-48.74
-40.89
-30.47
-18.78
-7.12
3.58
12.8
20.41
26.42
30.88
33.87
35.47
35.95
35.63
34.91
34.09
33.33
32.67
32.07
31.47
30.84
30.23
29.63
29.01
28.25
27.21
25.76
23.87
21.58
19.02
16.3
13.52
10.65
7.6
4.27
0.62
-3.25
-7.16
-10.9
-14.33
-17.51
-20.63
-23.99
-27.9
-32.49
-37.63
-42.86
-47.43
-50.39
-50.81
-48.06
-42.04
-33.25
-22.71
-11.65
-1.21
7.82
15.06
20.5
24.29
26.66
27.84
28.09
27.73
27.11
26.57
26.34
26.46
26.87
27.43
28
28.51
28.95
29.26
29.38
29.15
28.43
27.12
25.27
23.02
20.53
17.91
15.15
12.14
8.78
5.04
1.02
-3.07
-7
-10.63
-13.94
-17.04
-20.12
-23.41
-27.07
-31.16
-35.61
-40.12
-44.15
-47.03
-48.01
-46.52
-42.29
-35.5
-26.79
-17.08
-7.35
1.5
8.89
14.47
18.21
20.24
20.85
20.46
19.57
18.64
18.04
17.96
18.38
19.1
19.83
20.33
20.46
20.18
19.59
18.8
17.9
16.94
15.88
14.66
13.18
11.37
9.16
6.6
3.77
0.8
-2.17
-5.02
-7.69
-10.21
-12.67
-15.26
-18.17
-21.55
-25.33
-29.14
-32.32
-34.05
-33.64
-30.74
-25.56
-18.76
-11.25
-3.9
2.69
8.24
12.64
15.91
18.01
18.92
18.71
17.65
16.2
14.87
14.09
14.07
14.7
15.67
16.63
17.25
17.4
17.16
16.64
16.02
15.38
14.71
13.87
12.69
11.03
8.85
6.18
3.15
-0.1
-3.44
-6.8
-10.12
-13.34
-16.42
-19.34
-22.19
-25.09
-28.12
-31.13
-33.76
-35.4
-35.39
-33.32
-29.17
-23.38
-16.68
-9.85
-3.49
2.04
6.65
10.36
13.21
15.24
16.55
17.28
17.71
18.08
18.53
19.05
19.42
19.42
18.91
17.93
16.71
15.5
14.45
13.54
12.58
11.42
9.96
8.27
6.51
4.79
3.13
1.47
-0.29
-2.18
-4.17
-6.14
-8
-9.67
-11.21
-12.69
-14.25
-16.03
-18.11
-20.5
-23.06
-25.52
-27.44
-28.3
-27.65
-25.28
-21.23
-15.84
-9.67
-3.31
2.69
7.91
12.12
15.25
17.36
18.58
19.09
19.09
18.78
18.3
17.73
17.13
16.49
15.84
15.22
14.66
14.16
13.72
13.26
12.71
12.01
11.15
10.18
9.12
7.92
6.47
4.69
2.58
0.28
-2.02
-4.18
-6.23
-8.35
-10.81
-13.69
-16.84
-19.92
-22.62
-24.83
-26.77
-28.81
-31.21
-33.9
-36.39
-37.97
-37.97
-36.1
-32.46
-27.54
-21.95
-16.25
-10.84
-5.92
-1.62
2.03
4.99
7.24
8.78
9.66
10.01
9.99
9.78
9.57
9.46
9.51
9.67
9.85
9.87
9.63
9.06
8.22
7.23
6.29
5.48
4.79
4.08
3.15
1.88
0.26
-1.57
-3.39
-5.04
-6.48
-7.77
-9.08
-10.58
-12.38
-14.52
-16.97
-19.62
-22.25
-24.58
-26.2
-26.7
-25.77
-23.29
-19.41
-14.5
-9.08
-3.65
1.43
5.92
9.72
12.75
14.94
16.21
16.58
16.19
15.31
14.27
13.37
12.76
12.46
12.39
12.43
12.48
12.5
12.44
12.29
12.02
11.55
10.79
9.62
7.99
5.91
3.53
1.06
-1.28
-3.36
-5.19
-6.84
-8.42
-10.05
-11.87
-14.02
-16.61
-19.59
-22.69
-25.37
-26.95
-26.87
-24.84
-20.99
-15.83
-10.03
-4.29
0.87
5.16
8.48
10.9
12.5
13.36
13.53
13.04
12.04
10.77
9.55
8.67
8.29
8.34
8.62
8.86
8.89
8.66
8.24
7.71
7.06
6.23
5.15
3.75
2.01
-0.02
-2.28
-4.71
-7.21
-9.72
-12.13
-14.37
-16.44
-18.4
-20.38
-22.59
-25.18
-28.21
-31.54
-34.85
-37.57
-39.07
-38.82
-36.55
-32.4
-26.84
-20.58
-14.31
-8.56
-3.65
0.35
3.42
5.64
7.08
7.83
8.09
8.13
8.3
8.93
10.18
12.06
14.37
16.83
19.14
21.17
22.86
24.3
25.52
26.54
27.3
27.74
27.8
27.45
26.55
24.95
22.46
18.96
14.49
9.27
3.65
-2.05
-7.62
-12.97
-18.15
-23.23
-28.28
-33.18
-37.68
-41.39
-43.82
-44.53
-43.23
-39.89
-34.78
-28.41
-21.39
-14.36
-7.81
-2.1
2.53
5.93
8.09
9.13
9.28
8.92
8.48
8.31
8.56
9.2
9.99
10.68
11.13
11.31
11.31
11.19
10.92
10.44
9.67
8.61
7.35
6
4.61
3.13
1.44
-0.6
-3.03
-5.8
-8.78
-11.79
-14.72
-17.49
-20.09
-22.53
-24.89
-27.28
-29.84
-32.7
-35.87
-39.09
-41.88
-43.52
-43.32
-40.84
-36.06
-29.43
-21.69
-13.69
-6.08
0.68
6.39
10.94
14.23
16.2
16.89
16.52
15.51
14.39
13.62
13.49
13.99
14.97
16.13
17.23
18.11
18.74
19.15
19.41
19.53
19.5
19.21
18.56
17.44
15.8
13.66
11.11
8.28
5.31
2.35
-0.56
-3.44
-6.47
-9.85
-13.74
-18.07
-22.47
-26.29
-28.76
-29.19
-27.2
-22.78
-16.34
-8.55
-0.2
7.95
15.3
21.45
26.21
29.5
31.37
31.93
31.42
30.18
28.7
27.44
26.74
26.66
27
27.32
27.22
26.46
25.12
23.46
21.79
20.26
18.81
17.2
15.2
12.68
9.71
6.51
3.33
0.29
-2.58
-5.42
-8.38
-11.63
-15.31
-19.5
-24.22
-29.28
-34.28
-38.53
-41.18
-41.5
-39.06
-33.97
-26.83
-18.53
-10.06
-2.2
4.54
9.93
13.95
16.7
18.34
19.08
19.14
18.77
18.2
17.64
17.24
17.08
17.15
17.3
17.35
17.14
16.6
15.76
14.71
13.48
12.01
10.14
7.66
4.44
0.5
-4
-8.76
-13.41
-17.66
-21.31
-24.36
-27
-29.52
-32.25
-35.39
-38.96
-42.72
-46.17
-48.57
-49.07
-46.9
-41.64
-33.4
-22.88
-11.24
0.26
10.61
19.25
26.09
31.38
35.41
38.37
40.31
41.19
41.04
40.04
38.49
36.78
35.23
34.05
33.25
32.72
32.23
31.56
30.56
29.16
27.4
25.35
23.05
20.55
17.88
15.02
12.01
8.9
5.83
2.9
0.25
-2.13
-4.27
-6.29
-8.35
-10.63
-13.36
-16.8
-21.15
-26.31
-31.76
-36.52
-39.38
-39.31
-35.83
-29.24
-20.51
-10.91
-1.63
6.56
13.38
18.84
23.06
26.12
28.06
28.94
29.01
28.59
28.05
27.64
27.45
27.4
27.39
27.33
27.25
27.21
27.23
27.2
26.89
