16.09
15.62
15.24
14.9
14.48
13.83
12.95
11.86
10.66
9.44
8.2
6.89
5.44
3.82
2
0.03
-2.04
-4.18
-6.42
-8.79
-11.34
-14.16
-17.39
-21.15
-25.49
-30.26
-35.09
-39.48
-42.83
-44.66
-44.62
-42.56
-38.51
-32.68
-25.47
-17.42
-9.23
-1.62
4.84
9.83
13.38
15.75
17.32
18.33
18.87
18.93
18.46
17.48
16.12
14.59
13.09
11.74
10.52
9.29
7.92
6.26
4.26
1.94
-0.61
-3.32
-6.15
-9.15
-12.47
-16.31
-20.87
-26.18
-32.1
-38.28
-44.21
-49.22
-52.51
-53.27
-50.85
-45
-36.03
-24.8
-12.55
-0.57
10.14
19.05
26.04
31.24
34.84
36.98
37.81
37.45
36.22
34.4
32.35
30.23
28.11
25.87
23.29
20.2
16.48
12.2
7.55
2.8
-1.82
-6.2
-10.42
-14.74
-19.43
-24.79
-30.94
-37.77
-44.86
-51.41
-56.33
-58.43
-56.76
-50.85
-41.02
-28.25
-13.96
0.41
13.71
25.27
34.82
42.36
47.99
51.84
54.07
54.91
54.69
53.77
52.53
51.21
49.92
48.58
47.05
45.21
43.01
40.53
37.82
34.79
31.13
26.37
19.96
11.52
1
-11.22
-24.37
-37.3
-48.67
-57.05
-61.29
-60.81
-55.83
-47.39
-37.09
-26.63
-17.34
-9.87
-4.23
-0.03
3.13
5.47
6.95
7.52
7.2
6.26
5.09
4.04
3.25
2.55
1.68
0.35
-1.55
-3.98
-6.77
-9.69
-12.57
-15.32
-18.01
-20.87
-24.31
-28.71
-34.36
-41.12
-48.39
-55.14
-60.02
-61.8
-59.61
-53.21
-43
-29.96
-15.4
-0.73
12.84
24.45
33.6
40.09
43.92
45.32
44.76
42.88
40.41
38.01
35.96
34.13
32.05
29.17
25.17
20.1
14.42
8.66
3.25
-1.72
-6.48
-11.39
-16.87
-23.25
-30.68
-39.16
-48.35
-57.45
-65.13
-69.66
-69.38
-63.22
-51.3
-34.93
-16.34
2.05
18.29
31.38
41.2
48.14
52.72
55.26
55.88
54.64
51.8
47.91
43.7
39.83
36.61
33.91
31.25
28.02
23.8
18.54
12.55
6.4
0.62
-4.52
-9.14
-13.67
-18.73
-24.86
-32.38
-41.28
-51.17
-61.21
-70.05
-75.98
-77.2
-72.4
-61.22
-44.62
-24.68
-4.06
14.8
30.32
41.99
50.14
55.49
58.71
60.26
60.39
59.34
57.41
54.91
52.06
48.99
45.68
42.11
38.3
34.26
29.97
25.36
20.31
14.77
8.82
2.66
-3.45
-9.41
-15.26
-21.27
-27.86
-35.37
-44.03
-53.77
-64.16
-74.25
-82.58
-87.26
-86.46
-79
-64.83
-45.32
-22.89
-0.38
19.81
36.2
48.4
56.82
62.15
65.08
66.12
65.75
64.48
62.8
61.11
59.52
57.9
55.89
53.18
49.62
45.34
40.71
36.14
31.89
27.93
23.94
19.39
13.85
7.16
-0.44
-8.35
-15.91
-22.69
-28.7
-34.42
-40.61
-47.99
-56.96
-67.3
-78.02
-87.46
-93.48
-94.02
-87.67
-74.22
-54.91
-32.16
-8.9
12.25
29.53
42.35
50.97
56.2
58.87
59.71
59.31
58.14
56.62
55.04
53.46
51.74
49.6
46.81
43.33
39.43
35.51
31.96
28.89
26.13
23.26
19.82
15.55
10.44
4.71
-1.3
-7.37
-13.43
-19.7
-26.49
-34.14
-42.73
-51.91
-60.73
-67.74
-71.18
-69.56
-62.14
-49.27
-32.43
-13.8
4.3
20.02
32.3
40.98
46.44
49.36
50.42
50.1
48.77
46.68
44.06
41.14
38.12
35.19
32.45
29.91
27.44
24.82
21.81
18.29
14.28
9.95
5.52
1.16
-3.11
-7.46
-12.18
-17.61
-24
-31.46
-39.91
-49
-58
-65.74
-70.71
-71.38
-66.62
-56.21
-41.05
-23.04
-4.52
12.32
26.07
36.23
43.06
47.17
49.14
49.41
48.31
46.2
43.5
40.63
37.86
35.28
32.78
30.21
27.49
24.65
21.76
18.91
16.04
13.02
9.71
5.99
1.8
-2.79
-7.69
-12.83
-18.2
-24.01
-30.56
-38.19
-47.08
-57.05
-67.33
-76.55
-82.91
-84.59
-80.32
-69.88
-54.28
-35.5
-16
1.99
16.99
28.47
36.62
42.07
45.45
47.27
47.8
47.25
45.83
43.78
41.32
38.64
35.83
32.92
29.9
26.78
23.49
20.04
16.38
12.44
8.17
3.55
-1.37
-6.48
-11.62
-16.72
-21.81
-27.18
-33.14
-40.03
-47.91
-56.41
-64.54
-70.74
-73.27
-70.62
-62.17
-48.46
-31.17
-12.66
4.71
19.18
29.97
37.2
41.54
43.8
44.6
44.28
43.05
41.08
38.61
35.89
33.11
30.42
27.83
25.28
22.65
19.8
16.6
12.95
8.81
4.29
-0.45
-5.2
-9.91
-14.69
-19.86
-25.75
-32.64
-40.52
-49.04
-57.42
-64.48
-68.77
-68.83
-63.57
-52.74
-37.16
-18.61
0.66
18.48
33.34
44.64
52.44
57.26
59.61
59.91
58.46
55.58
51.74
47.49
43.3
39.45
35.87
32.18
28.01
23.15
17.72
12.19
7.12
2.88
-0.51
-3.41
-6.44
-10.18
-14.98
-20.91
-27.68
-34.78
-41.44
-46.72
-49.62
-49.21
-44.93
-36.85
-25.71
-12.82
0.19
11.89
21.23
27.78
31.6
33.05
32.6
30.72
27.85
24.37
20.74
17.3
14.3
11.77
9.5
7.21
4.58
1.53
-1.93
-5.51
-8.96
-12.1
-14.97
-17.83
-21.08
-25.18
-30.39
-36.75
-43.92
-51.28
-57.86
-62.43
-63.72
-60.67
-52.88
-40.78
-25.67
-9.35
6.35
20.04
31
39.05
44.34
47.05
47.37
45.54
42.01
37.46
32.61
28.09
24.21
20.95
18.03
15.1
11.91
8.38
4.65
0.94
-2.53
-5.72
-8.83
-12.23
-16.4
-21.63
-27.99
-35.27
-42.96
-50.42
-56.83
-61.2
-62.44
-59.58
-52.08
-40.18
-24.99
-8.32
7.81
21.73
32.49
39.9
44.3
46.16
45.94
43.95
40.57
36.35
31.98
28.08
24.98
22.6
20.47
17.98
14.68
10.56
5.95
1.4
-2.68
-6.23
-9.63
-13.52
-18.49
-24.82
-32.37
-40.56
-48.45
-54.89
-58.64
-58.56
-53.96
-44.83
-32.02
-17.09
-1.92
11.8
23.02
31.33
36.9
40.06
41.15
40.38
38.05
34.58
30.62
26.81
23.59
21
18.67
15.98
12.34
7.51
1.66
-4.64
-10.68
-15.92
-20.26
-24.1
-28.23
-33.47
-40.36
-48.93
-58.52
-67.89
-75.27
-78.73
-76.61
-68.07
-53.52
-34.64
-14.03
5.58
22.1
34.56
43.1
48.41
51.23
51.97
50.73
47.65
43.14
38.01
33.14
29.16
26.21
23.85
21.35
18.01
13.41
7.61
1.08
-5.54
-11.68
-17.12
-22.05
-27.04
-32.8
-39.91
-48.67
-58.88
-69.76
-79.86
-87.16
-89.44
-84.85
-72.67
-53.75
-30.49
-6.17
15.99
33.77
46.34
54.12
58.2
59.7
59.47
58.05
55.85
53.25
50.62
48.2
45.94
43.62
40.97
37.85
34.36
30.75
27.26
23.92
20.41
16.23
10.91
4.32
-3.27
-11.23
-18.9
-25.94
-32.45
-39.02
-46.43
-55.4
-66.21
-78.36
-90.41
-100.01
-104.34
-100.92
-88.63
-68.29
-42.68
-15.72
8.83
28.52
42.67
52.04
58
61.68
63.63
63.95
62.75
60.52
58.04
56.12
55.15
54.94
54.79
53.85
51.53
47.71
42.87
37.74
33.03
29.11
25.91
22.89
19.38
14.78
8.84
1.83
-5.67
-12.88
-19.22
-24.5
-29.07
-33.69
-39.23
-46.46
-55.72
-66.81
-78.82
-90.1
-98.36
-101.12
-96.37
-83.41
-63.29
-38.66
-13.09
10.11
28.77
42.27
51.22
56.83
60.11
61.64
61.65
60.33
58.12
55.71
53.73
52.48
51.69
50.76
48.98
45.99
41.96
37.5
33.35
30.01
27.5
25.41
23.08
19.9
15.52
10.01
3.72
-2.83
-9.13
-14.83
-19.91
-24.68
-29.63
-35.31
-42.08
-50.02
-58.84
-67.88
-76.12
-82.19
-84.55
-81.8
-73.15
-58.86
-40.25
-19.59
0.61
18.25
32.05
41.7
47.56
50.34
50.77
49.51
47.18
44.35
41.55
39.12
37.18
35.56
33.96
32.07
29.75
27.04
24.14
21.23
18.37
15.44
12.2
8.4
3.95
-1.02
-6.2
-11.23
-15.97
-20.53
-25.26
-30.6
-36.89
-44.1
-51.76
-58.93
-64.3
-66.42
-64.12
-56.89
-45.12
-30.13
-13.82
1.83
15.28
25.71
33.03
37.61
39.96
40.58
39.85
38.1
35.69
32.92
30.04
27.24
24.59
22.04
19.55
17.03
14.35
11.39
8
4.11
-0.24
-4.95
-9.86
-14.87
-20.01
-25.42
-31.35
-38.1
-45.81
-54.47
-63.68
-72.56
-79.69
-83.28
-81.63
-73.71
-59.69
-41.1
-20.5
-0.7
16.07
28.69
37.14
42.18
44.78
45.65
45.17
43.53
40.93
37.71
34.24
30.88
27.76
24.87
22.06
19.16
16.01
12.48
8.51
4.06
-0.84
-6.03
-11.32
-16.58
-21.76
-27.09
-32.93
-39.76
-47.96
-57.65
-68.45
-79.36
-88.66
-94.09
-93.43
-85.18
-69.33
-47.57
-22.97
0.92
21.15
36.13
45.81
51.21
53.71
54.42
53.95
52.49
50.16
47.21
43.98
40.87
38.09
35.66
33.4
31.07
28.46
25.42
21.89
17.8
13.12
7.89
2.24
-3.55
-9.27
-14.76
-20.14
-25.76
-32.16
-39.9
-49.37
-60.46
-72.27
-82.96
-89.89
-90.37
-82.57
-66.38
-43.78
-18.21
6.42
27.12
42.5
52.82
59.27
63.14
65.2
65.73
64.83
62.81
60.35
58.22
56.93
56.45
56.18
55.31
53.13
49.45
44.67
39.6
35.08
31.57
28.93
26.5
23.37
18.81
12.57
4.96
-3.27
-11.25
-18.36
-24.44
-29.82
-35.19
-41.35
-48.95
-58.3
-69.19
-80.75
-91.44
-99.09
-101.35
-96.37
-83.53
-63.85
-39.86
-14.94
7.77
26.1
39.31
47.75
52.38
54.22
54.06
52.49
50.14
47.67
45.72
44.64
44.34
44.33
43.9
42.5
39.99
36.7
33.24
30.09
27.33
24.52
20.95
16.05
9.73
2.5
-4.75
-11.17
-16.42
-20.78
-25.07
-30.24
-37.08
-45.86
-56.11
-66.67
-75.59
-80.56
-79.4
-70.89
-55.36
-34.83
-12.49
8.32
25.17
37.13
44.57
48.63
50.39
50.51
49.27
46.86
43.75
40.61
38.09
36.45
35.47
34.46
32.72
29.9
26.2
22.3
18.94
16.55
14.9
13.17
10.37
5.72
-0.86
-8.77
-17.04
-24.67
-31.17
-36.62
-41.68
-47.31
-54.44
-63.65
-74.93
-87.32
-98.84
-106.68
-107.91
-100.47
-84.07
-60.56
-33.46
-6.85
15.95
33.28
45.17
52.76
57.4
59.97
60.82
60.09
58.07
55.45
53.05
51.52
50.94
50.87
50.5
49.13
46.46
42.74
38.59
34.69
31.43
28.76
26.22
23.09
18.75
12.89
5.65
-2.43
-10.6
-18.16
-24.73
-30.39
-35.71
-41.47
-48.45
-57.08
-67.41
-78.86
-90.22
-99.55
-104.43
-102.51
-92.31
-73.92
-49.36
-22.07
4.09
26.05
42.31
53.01
59.33
62.69
64.16
64.26
63.25
61.45
59.29
57.31
55.85
54.94
54.29
53.45
52.08
50.08
47.57
44.78
41.92
39.02
36.02
32.79
29.24
25.3
20.94
16.04
10.47
4.14
-2.86
-10.22
-17.45
-24.1
-29.93
-35.09
-40.08
-45.59
-52.29
-60.58
-70.36
-80.78
-90.17
-96.2
-96.41
-89.04
-73.85
-52.44
-27.93
-3.95
16.49
31.82
42
47.99
50.96
51.77
50.88
48.65
45.59
42.45
39.92
38.32
37.45
36.73
35.52
33.5
30.78
27.87
25.33
23.47
22.17
20.87
18.83
15.43
10.5
4.37
-2.23
-8.53
-14.06
-18.9
-23.61
-29.01
-35.85
-44.41
-54.3
-64.34
-72.69
-77.15
-75.81
-67.69
-53.16
-34.09
-13.23
6.54
23.06
35.39
43.62
48.51
50.88
51.34
50.3
48.17
45.43
42.63
40.19
38.18
36.36
34.3
31.68
28.43
24.83
21.31
18.2
15.54
12.99
9.98
6.03
0.99
-4.88
-11.05
-17.04
-22.7
-28.34
-34.64
-42.24
-51.56
-62.44
-74.07
-84.99
-93.15
-96.31
-92.68
-81.56
-63.84
-41.95
-19.16
1.37
17.52
28.67
35.42
38.98
40.53
40.82
40.28
39.16
37.75
36.35
35.12
33.96
32.59
30.73
28.3
25.51
22.8
20.55
18.83
17.29
15.22
11.9
6.95
0.56
-6.61
-13.68
-20
-25.48
-30.61
-36.31
-43.54
-52.9
-64.31
-76.68
-87.91
-95.18
-95.71
-87.72
-71.23
-48.31
-22.58
2.02
22.45
37.33
46.97
52.66
55.88
57.56
58.09
57.54
56.06
54.09
52.2
50.85
50.08
49.53
48.57
46.66
43.64
39.79
35.77
32.23
29.6
27.78
26.19
24.01
20.42
15
7.82
-0.49
-9.02
-16.88
-23.63
-29.33
-34.55
-40.13
-46.77
-54.92
-64.55
-75.15
-85.63
-94.26
-98.83
-97.15
-87.85
-71.06
-48.7
-24
-0.46
19.18
33.65
43.08
48.47
50.98
51.51
50.64
48.86
46.7
44.73
43.28
42.33
41.48
40.15
37.9
34.7
30.93
27.19
24.04
21.66
19.72
17.51
14.21
9.3
2.84
-4.54
-11.9
-18.38
-23.61
-27.88
-32.04
-37.09
-43.85
-52.53
-62.44
-71.98
-78.9
-80.79
-75.92
-63.88
-45.88
-24.55
-3.07
15.74
30.24
40.14
46.16
49.43
50.88
51.04
50.15
48.44
46.31
44.28
42.75
41.79
41.09
40.08
38.26
35.37
31.63
27.56
23.81
20.81
18.55
16.52
13.9
9.93
4.2
-3.11
-11.3
-19.44
-26.72
-32.78
-37.81
-42.45
-47.53
-53.83
-61.82
-71.53
-82.42
-93.14
-101.56
-105.18
-101.72
-90.05
-70.8
-46.4
-20.42
3.59
23.13
37.29
46.54
52.04
55
56.21
56.15
55.23
53.94
52.87
52.44
52.65
53.14
53.29
52.61
50.91
48.37
45.39
42.37
39.5
36.73
33.83
30.56
26.76
22.41
17.55
12.19
6.32
-0.11
-7
-14.09
-20.98
-27.25
-32.72
-37.5
-42.06
-47.07
-53.19
-60.94
-70.49
-81.46
-92.7
-102.25
-107.47
-105.82
-95.73
-77.4
-53.03
-26.22
-0.8
20.32
35.88
46.14
52.26
55.51
56.82
56.76
55.76
54.34
53.02
52.18
51.84
51.73
51.37
50.47
48.98
47.15
45.36
43.89
42.76
41.68
40.2
37.84
34.36
29.88
24.78
19.62
14.8
10.45
6.33
1.96
-3.09
-8.99
-15.5
-22.13
-28.33
-33.78
-38.55
-43.1
-48.14
-54.43
-62.48
-72.26
-82.91
-92.61
-98.92
-99.34
-92.22
-77.42
-56.66
-32.93
-9.68
10.34
25.68
36.25
42.84
46.5
48.06
48
46.73
44.73
42.64
41.08
40.39
40.46
40.73
40.51
39.27
36.9
33.76
30.5
27.77
25.9
24.77
23.78
22.09
18.98
14.13
7.8
0.74
-6.13
-12.08
-16.87
-20.84
-24.75
-29.44
-35.55
-43.29
-52.35
-61.79
-70.13
-75.44
-75.85
-70.05
-57.96
-40.88
-21.29
-2.04
14.51
27.1
35.71
41.12
44.29
45.88
46.18
45.26
43.33
40.9
38.61
36.98
36.21
36
35.77
34.91
33.11
30.43
27.3
24.22
21.55
19.31
17.23
14.9
11.91
7.99
3.08
-2.7
-9.05
-15.52
-21.66
-27.13
-31.87
-36.15
-40.48
-45.52
-51.78
-59.53
-68.62
-78.37
-87.52
-94.17
-96.14
-91.59
-79.73
-61.38
-38.97
-15.86
4.75
20.76
31.69
38.31
42.01
43.99
44.9
44.91
44.09
42.73
41.34
40.46
40.32
40.7
41
40.58
39.03
36.38
33.06
29.66
26.65
24.17
22.03
19.78
16.9
13.01
7.97
1.94
-4.65
-11.28
-17.46
-22.93
-27.73
-32.21
-36.87
-42.23
-48.68
-56.38
-65.12
-74.18
-82.24
-87.42
-87.66
-81.46
-68.49
-49.96
-28.42
-6.95
11.81
26.34
36.42
42.78
46.41
48.18
48.63
48.12
47.04
45.8
44.8
44.22
43.98
43.79
43.36
42.5
41.2
39.58
37.77
35.81
33.71
31.37
28.71
25.67
22.23
18.38
14.14
9.5
4.39
-1.18
-7.16
-13.35
-19.48
-25.23
-30.47
-35.3
-40.05
-45.21
-51.26
-58.46
-66.69
-75.19
-82.54
-86.78
-85.9
-78.54
-64.65
-45.73
-24.51
-4.02
13.33
26.35
35.11
40.41
43.19
44.13
43.56
41.84
39.5
37.24
35.67
34.99
34.87
34.64
33.6
31.44
28.35
24.97
22
19.84
18.41
17.15
15.34
12.43
8.28
3.15
-2.38
-7.75
-12.56
-16.76
-20.61
-24.55
-29.09
-34.63
-41.3
-48.86
-56.58
-63.17
-66.96
-66.3
-60.12
-48.44
-32.55
-14.71
2.58
17.32
28.48
36.09
40.77
43.25
44.05
43.41
41.61
39.09
36.48
34.38
32.99
32.12
31.19
29.66
27.2
24
20.52
17.33
14.74
12.58
10.33
7.25
2.86
-2.87
-9.42
-15.93
-21.61
-26.1
-29.67
-33.12
-37.44
-43.33
-51.03
-60.1
-69.47
-77.56
-82.47
-82.38
-76.08
-63.51
-46
-25.99
-6.34
10.6
23.56
32.5
38.12
41.32
42.72
42.64
41.34
39.25
37.01
35.25
34.29
33.94
33.65
32.75
30.88
28.09
24.88
21.89
19.58
18.02
16.74
15.01
12.06
7.5
1.44
-5.5
-12.5
-18.85
-24.27
-29.02
-33.76
-39.3
-46.32
-55.07
-65.13
-75.31
-83.7
-87.96
-86
-76.66
-60.38
-39.24
-16.42
4.81
22.09
34.54
42.62
47.48
50.3
51.77
52.13
51.49
50.09
48.42
46.99
46.08
45.61
45.13
44.1
42.15
39.22
35.63
31.91
28.54
25.8
23.62
21.66
19.39
16.29
12.05
6.67
0.42
-6.19
-12.61
-18.45
-23.53
-28.01
-32.31
-36.94
-42.43
-49.13
-57.1
-65.99
-74.88
-82.19
-85.9
-84.01
-75.33
-60.04
-39.92
-17.91
2.84
19.96
32.39
40.43
45.14
47.66
48.74
48.77
47.93
46.47
44.78
43.28
42.22
41.54
40.97
40.15
38.83
36.95
34.63
32.15
29.79
27.75
26.07
24.51
22.65
19.96
16.11
11.01
4.98
-1.44
-7.64
-13.19
-17.97
-22.21
-26.35
-30.93
-36.39
-43
-50.8
-59.47
-68.16
-75.54
-79.87
-79.42
-73.06
-60.79
-43.89
-24.69
-5.81
10.57
23.25
32.12
37.77
40.98
42.36
42.22
40.79
38.4
35.62
33.05
31.14
29.91
29.04
28.03
26.49
24.4
22.07
19.98
18.46
17.49
16.64
15.2
12.6
8.57
3.4
-2.3
-7.82
-12.68
-16.87
-20.84
-25.36
-31.12
-38.51
-47.27
-56.44
-64.42
-69.31
-69.41
-63.71
-52.41
-36.85
-19.29
-2.18
12.55
23.87
31.72
36.65
39.35
40.35
40
38.56
36.46
34.25
32.5
31.55
31.35
31.55
31.6
31.05
29.7
27.65
25.23
22.83
20.67
18.76
16.78
14.27
10.75
5.98
0.02
-6.64
-13.36
-19.54
-24.89
-29.53
-33.95
-38.78
-44.6
-51.72
-60.1
-69.36
-78.63
-86.53
-91.2
-90.72
-83.69
-69.89
-50.64
-28.49
-6.53
12.56
27.3
37.54
44.04
47.92
50.02
50.8
50.5
49.38
47.86
46.47
45.61
45.38
45.53
45.56
44.93
43.34
40.81
37.62
34.24
31.04
28.23
25.7
23.1
19.99
15.99
10.95
5.04
-1.34
-7.71
-13.65
-18.97
-23.77
-28.35
-33.15
-38.61
-45.05
-52.62
-61.2
-70.25
-78.67
-84.74
-86.48
-82.18
-71.16
-54.23
-33.65
-12.48
6.42
21.32
31.87
38.84
43.41
46.48
48.4
49.16
48.77
47.5
45.95
44.71
44.1
43.99
43.91
43.31
41.83
39.5
36.65
33.77
31.25
29.2
27.44
25.49
22.78
18.85
13.53
7.05
-0.06
-7.15
-13.68
-19.4
-24.4
-29.01
-33.7
-38.83
-44.67
-51.31
-58.61
-66.04
-72.56
-76.65
-76.59
-71.06
-59.78
-43.74
-25.09
-6.4
10.06
22.96
32.01
37.67
40.69
41.74
41.32
39.89
37.98
36.11
34.67
33.7
32.87
31.71
29.83
27.16
23.99
20.82
18.08
15.94
14.19
12.4
10
6.66
2.37
-2.48
-7.34
-11.77
-15.67
-19.35
-23.39
-28.37
-34.65
-42.15
-50.3
-58.04
-63.96
-66.53
-64.48
-57.21
-45.11
-29.6
-12.74
3.32
16.95
27.38
34.62
39.16
41.62
42.54
42.3
41.28
39.84
38.35
37.05
35.97
34.95
33.61
31.65
28.93
25.57
21.97
18.61
15.87
13.7
11.68
9.08
5.26
-0.04
-6.55
-13.53
-20.18
-25.96
-30.82
-35.22
-39.9
-45.59
-52.81
-61.57
-71.24
-80.47
-87.25
-89.41
-85.15
-73.9
-56.62
-35.66
-14.05
5.47
21.2
32.7
40.5
45.45
48.27
49.4
49.17
47.97
46.34
44.86
43.9
43.49
43.38
43.08
42.13
40.24
37.39
33.86
30.17
26.86
24.27
22.34
20.6
18.3
14.78
9.69
3.21
-4.09
-11.47
-18.28
-24.2
-29.27
-33.89
-38.64
-44.16
-50.89
-58.99
-68.14
-77.33
-84.96
-89
-87.5
-79.31
-64.61
-45.05
-23.34
-2.46
15.29
28.8
38.19
44.32
48.2
50.55
51.75
52.04
51.76
51.38
51.38
51.92
52.81
53.5
53.42
52.21
49.99
47.21
44.48
42.17
40.3
38.51
36.25
33.12
29.06
24.32
19.33
14.42
9.67
4.91
-0.15
-5.68
-11.64
-17.73
-23.54
-28.76
-33.35
-37.6
-42.03
-47.23
-53.61
-61.25
-69.78
-78.32
-85.48
-89.55
-88.84
-82.23
-69.62
-52.21
-32.2
-12.22
5.48
19.58
29.88
36.9
41.47
44.23
45.52
45.55
44.58
43.04
41.4
40.01
38.93
37.98
36.84
35.26
33.22
30.87
28.48
26.31
24.42
22.7
20.82
18.39
15.08
10.74
5.51
-0.21
-5.93
-11.19
-15.86
-20.15
-24.56
-29.63
-35.66
-42.58
-49.83
-56.53
-61.61
-63.99
-62.68
-57.15
-47.41
-34.25
-19.06
-3.54
10.71
22.58
31.57
37.7
41.24
42.57
42.1
40.28
37.66
34.84
32.33
30.38
28.87
27.47
25.79
23.62
21.03
18.3
15.76
13.58
11.65
9.59
6.97
3.46
-0.93
-5.9
-11.02
-15.89
-20.33
-24.51
-28.8
-33.67
-39.48
-46.37
-54.11
-62.06
-69.12
-73.8
-74.52
-70.06
-60.1
-45.45
-28
-10.08
6.15
19.35
29.14
35.85
40.15
42.64
43.8
43.96
43.53
42.94
42.54
42.44
42.42
42.01
40.7
38.11
34.2
29.3
24.02
18.96
14.51
10.63
6.85
2.57
-2.64
-8.77
-15.33
-21.62
-27.07
-31.55
-35.45
-39.47
-44.33
-50.51
-58.03
-66.45
-74.86
-81.87
-85.77
-84.88
-78.07
-65.28
-47.74
-27.7
-7.82
9.66
23.46
33.38
39.95
43.96
46.07
46.68
46.15
44.91
43.5
42.43
41.95
41.92
41.86
41.25
39.72
37.31
34.37
31.41
28.82
26.62
24.47
21.8
18.03
12.86
6.43
-0.73
-7.9
-14.5
-20.25
-25.3
-30.15
-35.46
-41.74
-49.23
-57.76
-66.58
-74.4
-79.49
-80.01
-74.65
-63.14
-46.55
-27.12
-7.59
9.68
23.26
32.89
39.13
42.86
44.75
45.2
44.44
42.72
40.53
38.4
36.74
35.64
34.83
33.88
32.4
30.25
27.62
24.8
22.07
19.45
16.66
13.34
9.22
4.29
-1.13
-6.59
-11.7
-16.43
-21.09
-26.22
-32.31
-39.57
-47.75
-56.03
-63.09
-67.32
-67.17
-61.63
-50.64
-35.3
-17.7
-0.32
14.67
25.97
33.34
37.39
39.09
39.38
38.91
38.03
36.89
35.55
34
32.2
30.08
27.62
24.89
22.04
19.24
16.54
13.87
10.99
7.67
3.71
-0.89
-5.96
-11.23
-16.46
-21.52
-26.54
-31.84
-37.86
-45.02
-53.51
-62.98
-72.4
-80.05
-83.8
-81.77
-73.01
-57.98
-38.55
-17.52
2.29
18.76
30.89
38.76
43.06
44.71
44.49
43.08
41.01
38.78
36.74
35.06
33.64
32.21
30.48
28.3
25.79
23.24
20.93
18.97
17.12
14.87
11.62
6.97
0.99
-5.83
-12.73
-19.02
-24.45
-29.3
-34.28
-40.31
-48.14
-58
-69.33
-80.59
-89.4
-93.05
-89.33
-77.38
-58.25
-34.7
-10.34
11.49
28.74
40.95
48.9
53.79
56.62
57.88
57.71
56.29
54.12
51.87
50.14
49.14
48.61
47.96
46.56
44.16
40.88
37.22
33.76
30.96
28.91
27.31
25.6
23.11
19.36
14.18
7.79
0.77
-6.25
-12.76
-18.57
-23.88
-29.16
-35.02
-42.02
-50.53
-60.58
-71.67
-82.52
-91.11
-94.92
-91.7
-80.36
-61.6
-37.91
-12.87
10.01
28.37
41.42
49.72
54.47
56.79
57.38
56.67
55.1
53.24
51.77
51.09
51.2
51.61
51.75
51.17
49.88
48.24
46.62
45.25
43.98
42.41
40.14
37.02
33.18
28.98
24.75
20.62
16.49
12.08
7.06
1.26
-5.19
-11.98
-18.65
-24.81
-30.31
-35.31
-40.31
-45.94
-52.76
-61.06
-70.51
-80.05
-87.88
-91.73
-89.48
-80.03
-63.79
-42.79
-20.14
0.93
18.09
30.38
38.1
42.34
44.18
44.44
43.55
41.86
39.86
38.09
37.05
36.8
37
36.97
36.07
34.04
31.1
27.89
25.08
23.08
21.76
20.5
18.44
14.86
9.51
2.74
-4.6
-11.57
-17.48
-22.21
-26.27
-30.56
-36.06
-43.42
-52.74
-63.38
-73.98
-82.6
-87.1
-85.65
-77.41
-62.96
-44.38
-24.7
-7
6.49
14.91
18.72
19.13
17.46
14.57
10.83
6.33
1.09
-4.66
-10.62
-16.51
-22.19
-27.71
-33.26
-38.99
-44.93
-50.94
-56.74
-62.01
-66.63
-70.69
-74.55
-78.77
-83.95
-90.46
-98.42
-107.5
-117.05
-126.16
-133.9
-139.53
-142.66
-143.45
-142.63
-141.42
-141.32
-143.69
-149.24
-157.37
-166
-171.72
-170.69
-159.88
-138.17
-106.96
-69.82
-31.35
4.15
33.85
56.76
73.45
85.27
93.73
100.02
105.04
109.49
113.97
118.92
124.53
130.61
136.67
142.04
146.21
148.96
150.39
150.72
150.14
148.69
146.27
142.83
138.53
133.73
128.9
124.39
120.26
116.36
112.42
108.3
104.03
99.89
96.23
93.29
91.08
89.37
87.76
85.75
82.95
79.23
75.03
71.58
70.78
74.81
85.24
102.37
124.89
150.18
175.24
197.65
216.15
230.52
241.05
247.74
250.07
247.12
238.16
223.19
203.17
179.85
155.19
130.89
107.96
86.78
67.21
48.96
31.84
15.86
1.07
-12.55
-25.2
-37.21
-48.88
-60.25
-71.06
-80.82
-89.15
-95.96
-101.52
-106.31
-110.77
-115.06
-118.96
-121.94
-123.36
-122.77
-120.07
-115.61
-110.01
-104.04
-98.25
-92.85
-87.69
-82.44
-76.82
-70.81
-64.63
-58.69
-53.36
-48.78
-44.83
-41.25
-37.71
-34.03
-30.16
-26.17
-22.2
-18.35
-14.72
-11.41
-8.46
-5.97
-4.05
-2.77
-2.15
-2.14
-2.68
-3.69
-5.12
-6.96
-9.07
-11.22
-13.05
-14.15
-14.24
-13.27
-11.37
-8.85
-6.06
-3.27
-0.71
1.46
3.06
3.94
4.03
3.32
1.96
0.15
-1.88
-3.95
-5.92
-7.73
-9.4
-10.93
-12.37
-13.7
-14.88
-15.88
-16.66
-17.26
-17.74
-18.2
-18.7
-19.27
-19.96
-20.9
-22.24
-24.03
-26.12
-28.08
-29.32
-29.32
-27.84
-25.04
-21.35
-17.34
-13.44
-9.88
-6.7
-3.91
-1.59
0.07
0.84
0.6
-0.6
-2.44
-4.5
-6.33
-7.62
-8.32
-8.64
-8.94
-9.5
-10.39
-11.5
-12.62
-13.57
-14.4
-15.27
-16.39
-17.9
-19.78
-21.91
-24.14
-26.39
-28.54
-30.41
-31.69
-31.98
-30.91
-28.33
-24.38
-19.46
-14.17
-9.03
-4.42
-0.46
2.84
5.58
7.82
9.52
10.67
11.23
11.27
10.91
10.3
9.59
8.88
8.19
7.5
6.75
5.92
4.94
3.83
2.55
1.15
-0.37
-2.01
-3.78
-5.7
-7.82
-10.18
-12.85
-15.88
-19.21
-22.64
-25.75
-28
-28.88
-28.04
-25.51
-21.64
-17
-12.17
-7.61
-3.57
-0.18
2.49
4.34
5.35
5.6
5.32
4.84
4.46
4.3
4.31
4.3
4.1
3.65
3.01
2.34
1.73
1.2
0.66
0.04
-0.7
-1.53
-2.4
-3.31
-4.26
-5.29
-6.42
-7.63
-8.86
-10.13
-11.51
-13.16
-15.18
-17.59
-20.2
-22.6
-24.32
-24.91
-24.08
-21.82
-18.38
-14.17
-9.67
-5.3
-1.35
2.02
4.72
6.67
7.8
8.08
7.58
6.52
5.21
3.96
3.02
2.44
2.18
2.04
1.86
1.55
1.08
0.49
-0.2
-0.92
-1.66
-2.36
-3.01
-3.56
-4.11
-4.85
-6.03
-7.91
-10.56
-13.77
-17
-19.6
-20.93
-20.59
-18.62
-15.32
-11.21
-6.81
-2.58
1.18
4.24
6.47
7.81
8.25
7.9
6.9
5.49
3.95
2.56
1.52
0.9
0.6
0.41
0.12
-0.36
-0.95
-1.5
-1.89
-2.19
-2.55
-3.24
-4.4
-6
-7.93
-10.07
-12.43
-15.09
-18.09
-21.16
-23.78
-25.25
-24.92
-22.57
-18.4
-13.06
-7.35
-1.97
2.64
6.38
9.31
11.61
13.4
14.69
15.43
15.54
15
13.86
12.25
10.33
8.29
6.24
4.32
2.62
1.28
0.37
-0.12
-0.33
-0.53
-0.99
-1.99
-3.59
-5.73
-8.25
-11.02
-14.02
-17.28
-20.76
-24.19
-27.06
-28.72
-28.59
-26.42
-22.32
-16.83
-10.59
-4.29
1.6
6.75
11.04
14.4
16.79
18.22
18.75
18.49
17.62
16.41
15.14
14.03
13.21
12.66
12.21
11.67
10.91
9.92
8.79
7.62
6.44
5.15
3.61
1.71
-0.5
-2.95
-5.51
-8.17
-11
-14.05
-17.3
-20.46
-23.05
-24.51
-24.42
-22.64
-19.31
-14.85
-9.74
-4.52
0.42
4.82
8.54
11.53
13.82
15.43
16.38
16.71
16.51
15.97
15.35
14.9
14.77
14.9
15.11
15.14
14.83
14.17
13.28
12.29
11.25
10.1
8.75
7.14
5.29
3.33
1.4
-0.44
-2.22
-4.07
-6.09
-8.33
-10.72
-13.12
-15.39
-17.54
-19.68
-21.97
-24.46
-26.96
-29.08
-30.21
-29.87
-27.76
-23.95
-18.76
-12.7
-6.27
0.02
5.73
10.45
13.86
15.79
16.38
15.99
15.13
14.24
13.55
13.06
12.64
12.19
11.7
11.25
10.89
10.52
9.99
9.14
7.94
6.5
4.98
3.49
2.05
0.59
-0.94
-2.52
-4.08
-5.6
-7.12
-8.84
-10.94
-13.46
-16.22
-18.74
-20.5
-21
-19.99
-17.52
-13.92
-9.61
-5
-0.44
3.82
7.57
10.62
12.78
13.97
14.24
13.8
12.92
11.86
10.81
9.89
9.15
8.63
8.33
8.26
8.34
8.48
8.5
8.25
7.55
6.3
4.51
2.25
-0.33
-3
-5.54
-7.83
-9.84
-11.65
-13.49
-15.58
-18.12
-21.17
-24.57
-27.94
-30.71
-32.27
-32.15
-30.16
-26.43
-21.38
-15.59
-9.62
-3.92
1.24
5.77
9.62
12.77
15.21
16.91
17.9
18.31
18.28
17.98
17.49
16.82
15.9
14.76
13.49
12.29
11.31
10.58
9.95
9.15
7.9
6.05
3.64
0.9
-1.82
-4.23
-6.18
-7.75
-9.18
-10.79
-12.89
-15.57
-18.74
-22.08
-25.14
-27.4
-28.35
-27.63
-25.08
-20.79
-15.11
-8.59
-1.85
4.54
10.09
14.51
17.68
19.65
20.58
20.75
20.47
19.97
19.41
18.78
18.02
17.08
15.95
14.74
13.55
12.52
11.68
10.99
10.36
9.64
8.62
7.12
5.03
2.32
-0.83
-4.13
-7.21
-9.75
-11.56
-12.62
-13.11
-13.34
-13.73
-14.69
-16.48
-19.07
-22.09
-24.87
-26.67
-26.86
-25.13
-21.61
-16.69
-10.97
-5.01
0.75
5.97
10.42
13.92
16.34
17.65
17.95
17.48
16.6
15.71
15.1
14.89
14.96
15.02
14.81
14.21
13.33
12.43
11.75
11.41
11.23
10.85
9.93
8.25
5.85
2.99
0.02
-2.72
-5.08
-7.07
-8.79
-10.41
-12.04
-13.71
-15.42
-17.13
-18.77
-20.18
-21.08
-21.11
-19.88
-17.2
-13.13
-8.05
-2.6
2.56
6.92
10.2
12.38
13.56
13.9
13.56
12.73
11.56
10.32
9.14
8.17
7.4
6.8
6.32
5.93
5.67
5.56
5.58
5.64
5.5
4.93
3.85
2.32
0.6
-1.05
-2.51
-3.89
-5.44
-7.42
-9.96
-12.93
-16.03
-18.88
-21.13
-22.37
-22.32
-20.71
-17.46
-12.81
-7.22
-1.38
4.06
8.64
12.13
14.49
15.78
16.12
15.66
14.61
13.21
11.69
10.24
8.94
7.82
6.92
6.21
5.71
5.37
5.08
4.63
3.86
2.65
0.97
-1.07
-3.29
-5.44
-7.3
-8.78
-9.92
-10.93
-12.13
-13.78
-16.01
-18.82
-21.9
-24.79
-26.94
-27.86
-27.18
-24.85
-21.04
-16.13
-10.58
-4.84
0.72
5.81
10.19
13.72
16.32
18.01
18.88
19.09
18.8
18.16
17.35
16.5
15.7
15
14.33
13.63
12.78
11.8
10.72
9.58
8.39
7.09
5.58
3.76
1.67
-0.58
-2.84
-4.98
-6.98
-8.95
-11.13
-13.72
-16.83
-20.36
-23.99
-27.24
-29.56
-30.47
-29.68
-27.13
-22.95
-17.49
-11.21
-4.64
1.69
7.31
11.93
15.48
18.03
19.81
21.01
21.78
22.15
22.12
21.77
21.21
20.62
20.09
19.63
19.14
18.47
17.51
16.26
14.78
13.17
11.5
9.75
7.84
5.68
3.23
0.58
-2.13
-4.66
-6.81
-8.5
-9.83
-10.99
-12.34
-14.22
-16.8
-20.05
-23.74
-27.35
-30.32
-32.07
-32.18
-30.47
-27.07
-22.38
-16.92
-11.33
-6.1
-1.6
2.05
4.89
7
8.51
9.51
10.05
10.23
10.19
10.07
10.1
10.43
11.14
12.19
13.45
14.68
15.66
16.23
16.26
15.71
14.62
13.06
11.15
8.98
6.69
4.42
2.27
0.29
-1.58
-3.54
-5.8
-8.52
-11.63
-14.78
-17.45
-19.06
-19.19
-17.66
-14.61
-10.41
-5.53
-0.5
4.2
8.12
11.01
12.77
13.52
13.47
12.87
11.94
10.77
9.47
8.14
6.93
6.03
5.55
5.54
5.92
6.52
7.09
7.43
7.41
6.99
6.18
5.08
3.76
2.27
0.59
-1.35
-3.68
-6.52
-9.94
-13.87
-18.05
-22.03
-25.25
-27.19
-27.46
-25.93
-22.77
-18.29
-12.91
-7.07
-1.19
4.35
9.16
12.96
15.56
16.98
17.36
17.01
16.17
15.06
13.82
12.54
11.32
10.33
9.69
9.4
9.35
9.31
9.05
8.43
7.42
6.06
4.44
2.62
0.62
-1.51
-3.73
-5.9
-7.91
-9.75
-11.6
-13.67
-16.21
-19.29
-22.68
-25.97
-28.59
-30
-29.8
-27.91
-24.43
-19.67
-14.04
-7.94
-1.78
4.09
9.36
13.83
17.35
19.88
21.44
22.09
22.07
21.62
21.02
20.49
20.12
19.86
19.51
18.9
17.92
16.65
15.28
14
12.9
11.88
10.73
9.26
7.41
5.25
2.95
0.73
-1.3
-3.1
-4.67
-6.07
-7.36
-8.62
-9.93
-11.38
-13.02
-14.95
-17.15
-19.58
-22.03
-24.16
-25.54
-25.77
-24.63
-22.08
-18.26
-13.49
-8.14
-2.65
2.53
7.02
10.56
13.08
14.67
15.59
16.03
16.13
15.86
15.27
14.44
13.58
12.94
12.67
12.77
13.03
13.19
13.04
12.54
11.79
11.02
10.36
9.78
9.14
8.27
7.08
5.61
4.02
2.41
0.82
-0.87
-2.75
-4.86
-7.1
-9.25
-11.15
-12.8
-14.42
-16.24
-18.4
-20.79
-23.01
-24.49
-24.68
-23.27
-20.24
-15.88
-10.67
-5.19
0.03
4.57
8.19
10.83
12.52
13.39
13.6
13.27
12.58
11.69
10.81
10.11
9.65
9.4
9.27
9.12
8.89
8.6
8.26
7.95
7.63
7.16
6.44
5.37
3.91
2.11
0.09
-2.03
-4.1
-5.98
-7.61
-9.01
-10.31
-11.66
-13.21
-14.92
-16.59
-17.79
-17.98
-16.81
-14.14
-10.16
-5.37
-0.31
4.49
8.72
12.23
14.88
16.54
17.11
16.55
15.09
13.16
11.26
9.81
8.96
8.59
8.4
8.14
7.67
7.01
6.27
5.52
4.79
4.03
3.21
2.28
1.23
0.07
-1.24
-2.71
-4.34
-6.1
-7.94
-9.88
-11.97
-14.35
-17.07
-20.04
-23.01
-25.56
-27.27
-27.73
-26.73
-24.21
-20.34
-15.46
-9.99
-4.42
0.81
5.38
9.03
11.63
13.15
13.68
13.43
12.67
11.7
10.75
9.92
9.25
8.7
8.32
8.21
8.45
9.06
9.88
10.67
11.17
11.21
10.71
9.73
8.31
6.48
4.3
1.86
-0.69
-3.22
-5.66
-8.03
-10.46
-13.1
-15.99
-19.04
-21.9
-24.14
-25.31
-25.04
-23.18
-19.8
-15.23
-9.95
-4.52
0.53
4.82
8.16
10.55
12.13
13.06
13.5
13.54
13.31
12.88
12.36
11.85
11.39
10.97
10.58
10.19
9.81
9.48
9.2
8.95
8.61
8.06
7.14
5.82
4.12
2.13
-0
-2.19
-4.32
-6.33
-8.18
-9.89
-11.55
-13.26
-15.2
-17.35
-19.54
-21.36
-22.3
-21.82
-19.66
-15.87
-10.74
-4.91
0.97
6.23
10.36
13.12
14.54
14.86
14.45
13.74
12.98
12.34
11.82
11.37
10.94
10.44
9.86
9.18
8.41
7.63
6.9
6.27
5.74
5.22
4.59
3.78
2.75
1.58
0.38
-0.75
-1.82
-2.94
-4.29
-6.08
-8.38
-11.07
-13.87
-16.32
-17.95
-18.37
-17.37
-14.96
-11.4
-7.09
-2.59
1.61
5.11
7.62
9.1
9.63
9.36
8.52
7.37
6.16
5.07
4.26
3.82
3.76
4.08
4.75
5.66
6.68
7.58
8.13
8.17
7.63
6.62
5.29
3.77
2.14
0.38
-1.55
-3.64
-5.85
-8.16
-10.57
-13.14
-15.88
-18.62
-21.01
-22.53
-22.71
-21.31
-18.37
-14.21
-9.31
-4.16
0.77
5.21
8.87
11.57
13.26
13.94
13.79
13.09
12.1
11.11
10.27
9.66
9.29
9.1
9.03
9.01
8.96
8.83
8.52
7.98
7.12
5.89
4.29
2.37
0.33
-1.65
-3.38
-4.83
-6.15
-7.62
-9.61
-12.32
-15.7
-19.38
-22.73
-25.11
-26.02
-25.26
-22.97
-19.46
-15.13
-10.4
-5.66
-1.25
2.54
5.58
7.89
9.61
10.95
12.06
12.94
13.57
13.92
14.06
14.15
14.3
14.51
14.67
14.65
14.37
13.88
13.33
12.82
12.38
11.89
11.09
9.78
7.87
5.44
2.73
0.07
-2.21
-4
-5.36
-6.61
-8.15
-10.26
-13.09
-16.49
-20.08
-23.36
-25.8
-26.93
-26.49
-24.37
-20.76
-16.05
-10.8
-5.6
-0.92
2.95
5.93
8.13
9.75
10.94
11.84
12.52
13.03
13.41
13.69
13.93
14.12
14.24
14.26
14.15
13.97
13.76
13.59
13.38
13
12.31
11.27
9.94
8.53
7.2
5.97
4.77
3.45
1.94
0.26
-1.41
-2.96
-4.31
-5.58
-6.95
-8.59
-10.59
-12.94
-15.55
-18.26
-20.85
-23.03
-24.41
-24.62
-23.38
-20.57
-16.34
-11.06
-5.27
0.42
5.44
9.37
11.99
13.3
13.51
12.96
11.96
10.8
9.74
8.95
8.54
8.54
8.87
9.33
9.67
9.7
9.33
8.64
7.85
7.2
6.84
6.75
6.74
6.53
5.89
4.7
3.04
1.14
-0.7
-2.27
-3.54
-4.63
-5.81
-7.32
-9.31
-11.75
-14.5
-17.2
-19.5
-21
-21.36
-20.36
-17.94
-14.18
-9.37
-3.96
1.48
6.37
10.25
12.91
14.41
14.96
14.91
14.54
14.02
13.43
12.79
12.12
11.5
11
10.69
10.62
10.82
11.22
11.72
12.12
12.21
11.83
10.93
9.59
7.98
6.26
4.58
2.99
1.43
-0.11
-1.7
-3.34
-5.04
-6.67
-8.18
-9.51
-10.65
-11.77
-13.19
-15.2
-17.98
-21.42
-25.02
-28.09
-29.84
-29.7
-27.49
-23.48
-18.2
-12.3
-6.38
-0.83
4.06
8.13
11.26
13.35
14.42
14.62
14.21
13.52
12.8
12.23
11.85
11.6
11.4
11.25
11.12
11.08
11.14
11.31
11.51
11.62
11.51
11.13
10.47
9.64
8.74
7.86
6.97
5.99
4.83
3.5
2.04
0.56
-0.91
-2.44
-4.16
-6.2
-8.58
-11.23
-13.99
-16.77
-19.63
-22.7
-26.09
-29.7
-33.12
-35.76
-37.01
-36.52
-34.37
-30.98
-27
-23
-19.41
-16.43
-14.21
-12.89
-12.62
-13.47
-15.34
-17.92
-20.77
-23.52
-26
-28.3
-30.74
-33.67
-37.44
-42.29
-48.34
-55.49
-63.49
-71.66
-79.08
-84.84
-88.3
-89.47
-89.03
-88.04
-87.61
-88.42
-90.6
-93.82
-97.62
-101.59
-105.52
-109.35
-113.15
-117.1
-121.52
-126.77
-133.08
-140.43
-148.27
-155.61
-161.07
-163.04
-159.84
-149.92
-132.23
-106.37
-72.78
-32.66
12.54
61.4
112.75
165.35
217.51
266.84
310.58
346.18
372.2
388.6
396.55
397.76
393.77
385.55
373.59
358.34
340.54
321.31
301.9
283.19
265.49
248.33
230.77
211.71
190.33
166.46
140.57
113.74
87.23
62.23
39.59
19.72
2.7
-11.68
-23.67
-33.58
-41.68
-48.24
-53.55
-57.83
-61.26
-63.91
-65.71
-66.56
-66.37
-65.15
-63.11
-60.61
-58.09
-55.96
-54.45
-53.51
-52.8
-51.82
-50
-46.94
-42.54
-37
-30.77
-24.4
-18.44
-13.38
-9.65
-7.52
-6.99
-7.67
-8.75
-9.22
-8.27
-5.77
-2.4
0.51
1.57
-0.1
-4.49
-10.87
-18.14
-25.36
-32.01
-37.89
-43.01
-47.31
-50.72
-53.18
-54.76
-55.65
-56.08
-56.25
-56.26
-56.19
-56.09
-56.04
-56.11
-56.3
-56.58
-56.94
-57.42
-58.18
-59.43
-61.33
-63.87
-66.82
-69.76
-72.16
-73.61
-73.89
-73.1
-71.58
-69.71
-67.79
-65.93
-64.07
-62.05
-59.73
-57.04
-53.92
-50.43
-46.72
-43.04
-39.82
-37.5
-36.51
-37.11
-39.26
-42.57
-46.45
-50.15
-52.97
-54.34
-53.91
-51.59
-47.48
-41.77
-34.58
-26.03
-16.26
-5.51
5.86
17.53
29.36
41.45
53.92
66.69
79.18
90.34
99.02
104.38
106.26
105.23
102.19
97.98
93.01
87.25
80.53
72.92
64.92
57.4
51.29
47.18
45.07
44.3
43.84
42.58
39.66
34.72
27.73
19.06
9.19
-1.33
-12
-22.44
-32.39
-41.84
-50.92
-59.83
-68.71
-77.43
-85.48
-92.07
-96.16
-96.77
-93.3
-85.77
-74.94
-62.25
-49.42
-37.96
-28.83
-22.22
-17.65
-14.31
-11.49
-8.69
-5.75
-2.66
0.49
3.63
6.65
9.37
11.54
12.99
13.67
13.79
13.71
13.81
14.28
15.1
16.01
16.68
16.83
16.39
15.43
14.14
12.67
11.13
9.62
8.23
7.1
6.32
5.92
5.69
5.33
4.48
2.88
0.49
-2.48
-5.63
-8.53
-10.77
-12.03
-12.17
-11.17
-9.13
-6.25
-2.81
0.91
4.53
7.7
10.09
11.5
11.93
11.54
10.65
9.59
8.62
7.88
7.38
7.1
7.02
7.14
7.45
7.89
8.3
8.47
8.2
7.44
6.29
4.97
3.73
2.74
1.98
1.32
0.56
-0.46
-1.85
-3.62
-5.78
-8.22
-10.71
-12.93
-14.43
-14.87
-14.05
-12.03
-9.08
-5.57
-1.9
1.66
4.9
7.68
9.86
11.42
12.34
12.71
12.66
12.28
11.69
10.97
10.23
9.56
9.03
8.71
8.57
8.52
8.43
8.14
7.56
6.7
5.62
4.34
2.97
1.51
-0.02
-1.61
-3.21
-4.81
-6.45
-8.23
-10.33
-12.89
-15.85
-18.92
-21.53
-23.06
-22.99
-21.13
-17.72
-13.23
-8.31
-3.46
0.99
4.89
8.18
10.8
12.69
13.86
14.42
14.57
14.55
14.48
14.43
14.35
14.16
13.82
13.37
12.87
12.43
12.09
11.84
11.56
11.08
10.23
8.94
7.28
5.41
3.53
1.83
0.3
-1.15
-2.69
-4.43
-6.43
-8.66
-11.07
-13.6
-16.09
-18.26
-19.72
-20.08
-19.1
-16.72
-13.21
-8.97
-4.45
-0.02
4.04
7.56
10.41
12.46
13.69
14.13
13.94
13.4
12.79
12.35
12.21
12.37
12.74
13.24
13.7
14.06
14.24
14.25
14.08
13.75
13.22
12.39
11.19
9.57
7.63
5.54
3.51
1.65
-0.06
-1.76
-3.64
-5.8
-8.26
-10.93
-13.71
-16.48
-19.1
-21.3
-22.75
-23.08
-21.99
-19.45
-15.68
-11.13
-6.31
-1.65
2.55
6.19
9.23
11.68
13.52
14.75
15.42
15.62
15.5
15.2
14.85
14.44
14.02
13.57
13.2
12.97
13.02
13.42
14.08
14.89
15.64
16.08
16.01
15.32
13.96
12.05
9.77
7.36
5.01
2.82
0.78
-1.22
-3.33
-5.71
-8.39
-11.31
-14.25
-16.83
-18.63
-19.26
-18.54
-16.49
-13.34
-9.53
-5.5
-1.68
1.61
4.15
5.92
6.95
7.38
7.35
6.97
6.36
5.61
4.87
4.3
4.05
4.23
4.77
5.47
6.07
6.33
6.16
5.63
4.86
3.97
2.99
1.9
0.64
-0.77
-2.26
-3.8
-5.4
-7.21
-9.4
-12.07
-15.1
-18.14
-20.67
-22.1
-21.97
-20.15
-16.8
-12.42
-7.63
-3.02
0.99
4.3
6.94
9.03
10.62
11.67
12.1
11.96
11.4
10.73
10.18
9.81
9.51
9.05
8.33
7.41
6.56
6.07
6.04
6.31
6.53
6.29
5.45
4.05
2.35
0.61
-1.05
-2.73
-4.65
-7.03
-9.93
-13.29
-16.79
-20.03
-22.51
-23.84
-23.78
-22.28
-19.51
-15.8
-11.54
-7.18
-3.05
0.59
3.64
6.06
7.93
9.33
10.36
11.12
11.66
12.03
12.19
12.12
11.81
11.27
10.55
9.74
8.9
8.02
7.06
5.9
4.48
2.83
1.06
-0.64
-2.06
-3.1
-3.83
-4.45
-5.33
-6.84
-9.16
-12.18
-15.4
-18.07
-19.43
-19.03
-16.8
-13.09
-8.48
-3.59
1.09
5.23
8.65
11.19
12.79
13.48
13.38
12.71
11.68
10.49
9.3
8.26
7.52
7.17
7.23
7.51
7.77
7.78
7.4
6.65
5.7
4.67
3.63
2.53
1.28
-0.25
-2.16
-4.51
-7.34
-10.58
-14.01
-17.18
-19.55
-20.53
-19.79
-17.28
-13.37
-8.64
-3.71
0.95
5.08
8.58
11.42
13.57
14.99
15.65
15.62
15.05
14.15
13.15
12.21
11.39
10.7
10.09
9.49
8.81
8.08
7.28
6.42
5.49
4.44
3.2
1.68
-0.15
-2.34
-4.89
-7.74
-10.69
-13.37
-15.31
-16.03
-15.24
-12.9
-9.27
-4.72
0.36
5.65
10.87
15.64
19.52
21.99
22.63
21.28
18.14
13.76
8.89
4.24
0.36
-2.5
-4.35
-5.33
-5.65
-5.37
-4.55
-3.22
-1.57
0.07
1.27
1.64
1.06
-0.37
-2.37
-4.72
-7.33
-10.34
-13.91
-17.99
-22.26
-26.12
-28.82
-29.74
-28.59
-25.44
-20.63
-14.74
-8.34
-2.02
3.72
8.48
12
14.22
15.27
15.46
15.11
14.56
13.94
13.28
12.52
11.65
10.74
9.95
9.44
9.31
9.51
9.88
10.13
10.01
9.36
8.12
6.39
4.34
2.18
0.08
-1.92
-3.88
-5.96
-8.4
-11.31
-14.69
-18.29
-21.65
-24.25
-25.56
-25.28
-23.36
-20
-15.57
-10.55
-5.42
-0.59
3.59
6.88
9.21
10.62
11.29
11.43
11.24
10.88
10.4
9.88
9.36
8.94
8.67
8.54
8.48
8.33
7.97
7.34
6.43
5.29
3.88
2.18
0.18
-2.13
-4.66
-7.35
-10.11
-12.93
-15.8
-18.64
-21.18
-23.03
-23.72
-22.9
-20.44
-16.52
-11.54
-6.01
-0.4
4.94
9.73
13.81
17.04
19.3
20.53
20.72
20.03
18.72
17.11
15.56
14.31
13.44
12.88
12.43
11.8
10.78
9.24
7.23
4.88
2.44
0.15
-1.83
-3.44
-4.8
-6.06
-7.44
-9.07
-11.05
-13.41
-16.16
-19.26
-22.5
-25.52
-27.78
-28.72
-27.93
-25.38
-21.36
-16.4
-11.05
-5.68
-0.45
4.55
9.24
13.37
16.65
18.82
19.84
19.88
19.26
18.38
17.47
16.63
15.82
14.93
13.93
12.85
11.76
10.68
9.67
8.74
7.94
7.25
6.63
5.94
5.01
3.68
1.88
-0.29
-2.66
-4.95
-7.02
-8.84
-10.58
-12.45
-14.69
-17.39
-20.47
-23.66
-26.48
-28.37
-28.81
-27.49
-24.37
-19.67
-13.9
-7.65
-1.49
4.07
8.7
12.21
14.61
16.08
16.85
17.15
17.13
16.82
16.2
15.3
14.23
13.21
12.44
12.03
11.92
11.94
11.91
11.75
11.5
11.25
11.05
10.81
10.37
9.52
8.21
6.5
4.48
2.33
0.09
-2.22
-4.56
-6.85
-8.97
-10.78
-12.26
-13.54
-14.85
-16.45
-18.49
-20.97
-23.7
-26.33
-28.39
-29.38
-28.94
-26.82
-23.11
-18.12
-12.38
-6.5
-1
3.75
7.63
10.6
12.73
14.13
14.91
15.25
15.31
15.3
15.3
15.33
15.31
15.24
15.12
15.01
14.97
14.94
14.84
14.51
13.88
12.94
11.78
10.45
9
7.4
5.66
3.85
2.06
0.33
-1.36
-3.07
-4.83
-6.57
-8.2
-9.67
-11.16
-12.94
-15.23
-17.98
-20.76
-22.91
-23.75
-22.9
-20.39
-16.59
-12.05
-7.26
-2.54
1.91
5.87
9.18
11.66
13.21
13.85
13.74
13.1
12.2
11.26
10.4
9.62
8.89
8.16
7.42
6.75
6.29
6.17
6.41
6.91
7.47
7.81
7.68
6.93
5.55
3.67
1.48
-0.81
-3.03
-5.09
-7.04
-9.04
-11.28
-13.95
-17.13
-20.64
-24.09
-26.89
-28.49
-28.47
-26.72
-23.34
-18.72
-13.34
-7.74
-2.49
1.97
5.3
7.46
8.59
9.01
9.06
9.08
9.27
9.71
10.35
11.06
11.68
11.99
11.88
11.36
10.61
9.85
9.23
8.79
8.38
7.79
6.81
5.41
3.66
1.69
-0.38
-2.47
-4.53
-6.56
-8.56
-10.56
-12.7
-15.13
-17.89
-20.82
-23.42
-25.07
-25.19
-23.51
-20.18
-15.66
-10.55
-5.3
-0.24
4.46
8.62
11.99
14.35
15.56
15.69
15
13.83
12.51
11.25
10.17
9.27
8.52
7.86
7.27
6.74
6.31
6.01
5.85
5.76
5.6
5.22
4.45
3.27
1.72
-0.02
-1.78
-3.48
-5.12
-6.8
-8.65
-10.83
-13.38
-16.25
-19.19
-21.82
-23.73
-24.49
-23.83
-21.66
-18.13
-13.55
-8.39
-3.1
1.82
5.97
9.06
11.01
11.91
12.04
11.73
11.31
10.93
10.59
10.18
9.59
8.85
8.06
7.47
7.23
7.4
7.88
8.45
8.91
9.1
8.94
8.4
7.51
6.28
4.75
2.97
1.03
-1.01
-3.13
-5.41
-8.01
-11.02
-14.45
-18.06
-21.4
-23.9
-25.03
-24.47
-22.23
-18.59
-13.97
-8.83
-3.55
1.5
6.02
9.71
12.32
13.78
14.18
13.82
13.03
12.16
11.46
11.01
10.83
10.84
10.97
11.09
11.09
10.85
10.3
9.42
8.25
6.85
5.34
3.83
2.41
1.16
0.01
-1.17
-2.56
-4.3
-6.45
-8.99
-11.78
-14.63
-17.33
-19.52
-20.87
-21.03
-19.81
-17.24
-13.62
-9.42
-5.13
-1.15
2.29
5.13
7.35
8.97
9.99
10.41
10.32
9.91
9.41
9.02
8.81
8.79
8.88
9.01
9.19
9.42
9.69
9.87
9.81
9.29
8.17
6.49
4.38
2.12
-0.06
-1.97
-3.62
-5.12
-6.68
-8.59
-11.07
-14.22
-17.89
-21.66
-24.88
-26.92
-27.29
-25.82
-22.76
-18.58
-13.87
-9.08
-4.48
-0.2
3.65
6.94
9.55
11.37
12.44
12.91
13.06
13.12
13.25
13.48
13.8
14.13
14.43
14.67
14.8
14.78
14.58
14.13
13.38
12.31
10.93
9.26
7.35
5.21
2.9
0.46
-2.04
-4.54
-6.98
-9.35
-11.75
-14.26
-16.99
-19.97
-23.05
-25.96
-28.28
-29.54
-29.33
-27.5
-24.11
-19.5
-14.16
-8.56
-3.13
1.8
6.05
9.49
12.1
13.96
15.32
16.46
17.66
19.03
20.51
21.86
22.83
23.23
23.03
22.39
21.49
20.54
19.66
18.85
18.03
17.06
15.84
14.33
12.62
10.84
9.13
7.58
6.14
4.71
3.1
1.26
-0.84
-3.13
-5.47
-7.71
-9.69
-11.41
-12.88
-14.3
-15.95
-18.14
-21.09
-24.81
-28.99
-33.04
-36.26
-37.98
-37.78
-35.57
-31.56
-26.22
-20.12
-13.83
-7.84
-2.49
2.09
5.94
9.15
11.87
14.17
16.06
17.52
18.56
19.28
19.81
20.33
20.89
21.5
22.09
22.59
22.92
23.02
22.88
22.5
21.88
21.08
20.1
18.96
17.57
15.86
13.75
11.2
8.29
5.16
2.01
-0.97
-3.62
-5.85
-7.61
-8.99
-10.09
-11.14
-12.38
-14.02
-16.17
-18.75
-21.45
-23.79
-25.25
-25.42
-24.16
-21.61
-18.14
-14.2
-10.18
-6.27
-2.55
0.96
4.13
6.78
8.69
9.78
10.12
10.04
9.89
9.96
10.4
11.08
11.81
12.37
12.64
12.63
12.4
12.06
11.66
11.23
10.73
10.13
9.31
8.22
6.84
5.22
3.48
1.76
0.11
-1.48
-3.1
-4.9
-6.97
-9.4
-12.17
-15.27
-18.59
-21.9
-24.83
-26.83
-27.46
-26.38
-23.62
-19.48
-14.55
-9.41
-4.59
-0.35
3.23
6.2
8.68
10.72
12.34
13.49
14.2
14.51
14.54
14.44
14.3
14.11
13.79
13.29
12.65
11.97
11.41
10.98
10.61
10.06
9.13
7.7
5.84
3.72
1.53
-0.58
-2.53
-4.26
-5.79
-7.18
-8.59
-10.31
-12.63
-15.74
-19.57
-23.7
-27.44
-30.08
-31.09
-30.28
-27.75
-23.85
-19.03
-13.67
-8.13
-2.73
2.24
6.45
9.7
11.87
13.04
13.46
13.44
13.28
13.16
13.13
13.09
12.92
12.53
11.94
11.29
10.76
10.47
10.43
10.57
10.73
10.7
10.33
9.51
8.18
6.41
4.3
2.01
-0.34
-2.67
-5
-7.39
-9.94
-12.74
-15.88
-19.31
-22.83
-26.1
-28.66
-30.03
-29.88
-28.11
-24.9
-20.61
-15.68
-10.55
-5.57
-0.99
3.02
6.38
9.13
11.3
13.02
14.39
15.51
16.44
17.19
17.75
18.09
18.2
18.17
18.13
18.17
18.3
18.41
18.23
17.51
16.05
13.84
11.02
7.88
4.66
1.58
-1.24
-3.82
-6.21
-8.51
-10.9
-13.47
-16.28
-19.3
-22.3
-24.96
-26.84
-27.61
-26.95
-24.72
-21.02
-16.13
-10.55
-4.81
0.52
5.02
8.47
10.84
12.24
12.86
12.92
12.62
12.18
11.77
11.54
11.55
11.78
12.1
12.35
12.44
12.26
11.81
11.09
10.11
8.84
7.29
5.47
3.47
1.44
-0.5
-2.31
-4.17
-6.29
-8.97
-12.33
-16.29
-20.45
-24.24
-27.06
-28.44
-28.2
-26.38
-23.27
-19.22
-14.6
-9.68
-4.7
0.14
4.66
8.67
12.04
14.71
16.7
18.15
19.16
19.83
20.23
20.41
20.37
20.15
19.76
19.14
18.3
17.16
15.73
14.01
12.06
9.99
7.88
5.78
3.67
1.46
-0.95
-3.61
-6.44
-9.28
-12
-14.55
-17.08
-19.87
-23.21
-27.2
-31.64
-35.98
-39.52
-41.56
-41.63
-39.6
-35.69
-30.32
-23.97
-17.14
-10.24
-3.65
2.32
7.38
11.41
14.45
16.67
18.34
19.7
20.89
21.89
22.68
23.27
23.71
24.11
24.55
24.98
25.23
25.09
24.39
23.07
21.19
18.93
16.46
13.92
11.42
9
6.75
4.63
2.6
0.51
-1.75
-4.18
-6.69
-9.13
-11.44
-13.65
-15.93
-18.5
-21.46
-24.8
-28.31
-31.69
-34.58
-36.62
-37.42
-36.67
-34.21
-30.14
-24.78
-18.63
-12.22
-5.97
-0.16
5.14
9.86
13.94
17.29
19.82
21.51
22.44
22.78
22.79
22.78
22.95
23.42
24.15
24.98
25.77
26.34
26.58
26.44
25.87
24.89
23.46
21.68
19.61
17.36
15.05
12.74
10.47
8.2
5.9
3.49
1.01
-1.53
-3.98
-6.19
-8.08
-9.65
-11.04
-12.44
-14.09
-16.16
-18.76
-21.86
-25.31
-28.8
-31.87
-33.98
-34.63
-33.51
-30.58
-26.13
-20.63
-14.6
-8.51
-2.7
2.61
7.23
10.96
13.7
15.41
16.2
16.3
16.02
15.68
15.45
15.43
15.55
15.69
15.77
15.7
15.51
15.24
14.89
14.43
13.74
12.76
11.47
9.92
8.22
6.43
4.59
2.68
0.72
-1.21
-3.01
-4.64
-6.17
-7.83
-9.93
-12.71
-16.1
-19.75
-23.04
-25.32
-26.09
-25.13
-22.6
-18.85
-14.34
-9.46
-4.53
0.16
4.39
7.98
10.84
12.97
14.45
15.41
15.96
16.2
16.21
16.11
16.03
16.09
16.31
16.68
17.1
17.46
17.62
17.5
17.02
16.16
14.9
13.33
11.53
9.62
7.65
5.62
3.49
1.2
-1.22
-3.75
-6.33
-8.92
-11.49
-14.02
-16.54
-19.07
-21.68
-24.42
-27.33
-30.31
-33.1
-35.24
-36.2
-35.53
-33.02
-28.81
-23.38
-17.33
-11.25
-5.53
-0.37
4.19
8.2
11.67
14.59
16.99
18.94
20.55
21.93
23.11
24.03
24.57
24.67
24.31
23.69
22.95
22.3
21.79
21.32
20.7
19.68
18.14
16.17
13.9
11.57
9.37
7.33
5.32
3.23
0.94
-1.52
-4.01
-6.39
-8.52
-10.42
-12.19
-14
-15.99
-18.3
-20.99
-24.03
-27.29
-30.43
-33.01
-34.51
-34.53
-32.89
-29.7
-25.32
-20.18
-14.73
-9.33
-4.26
0.25
4.05
7.05
9.28
10.84
11.97
12.84
13.6
14.28
14.82
15.1
15.1
14.83
14.46
14.19
14.15
14.33
14.57
14.61
14.22
13.35
12.11
10.72
9.39
8.12
6.74
5.07
3.01
0.68
-1.62
-3.56
-4.94
-5.84
-6.51
-7.24
-8.22
-9.53
-11.17
-13.13
-15.49
-18.27
-21.35
-24.42
-26.95
-28.35
-28.21
-26.32
-22.85
-18.23
-13.04
-7.84
-3.11
0.91
4.15
6.73
8.8
10.45
11.72
12.57
13.02
13.08
12.89
12.55
12.18
11.81
11.49
11.24
11.08
10.96
10.85
10.65
10.28
9.64
8.71
7.51
6.08
4.47
2.76
1.03
-0.63
-2.2
-3.74
-5.41
-7.42
-10
-13.18
-16.75
-20.3
-23.19
-24.85
-24.89
-23.21
-20.04
-15.79
-10.94
-5.9
-1.05
3.32
6.96
9.73
11.6
12.67
13.11
13.15
12.94
12.59
12.16
11.68
11.17
10.69
10.27
9.97
9.75
9.54
9.24
8.75
7.97
6.9
5.59
4.09
2.48
0.73
-1.22
-3.44
-5.93
-8.62
-11.39
-14.14
-16.85
-19.54
-22.23
-24.81
-27
-28.33
-28.35
-26.69
-23.29
-18.43
-12.63
-6.56
-0.79
4.23
8.27
11.26
13.25
14.38
14.79
14.75
14.47
14.17
13.93
13.73
13.46
13
12.32
11.45
10.53
9.7
9.08
8.71
8.52
8.38
8.04
7.33
6.07
4.33
2.22
-0.04
-2.35
-4.65
-7.01
-9.49
-12.18
-15.09
-18.22
-21.45
-24.57
-27.26
-29.12
-29.83
-29.22
-27.28
-24.17
-20.1
-15.32
-10.12
-4.93
-0.24
3.5
6.09
7.63
8.44
8.92
9.33
9.79
10.31
10.87
11.56
12.43
13.45
14.47
15.28
15.7
15.73
15.52
15.29
15.12
14.97
14.6
13.77
12.3
10.25
7.81
5.25
2.83
0.7
-1.2
-2.99
-4.88
-7.09
-9.81
-13.07
-16.77
-20.61
-24.17
-26.94
-28.48
-28.46
-26.77
-23.53
-19.02
-13.7
-8.09
-2.72
2.04
5.98
9.1
11.54
13.47
15.03
16.25
17.11
17.56
17.6
17.26
16.65
15.88
15.05
14.19
13.29
12.33
11.24
10.01
8.62
7.13
5.58
3.97
2.24
0.34
-1.76
-4.04
-6.37
-8.68
-10.92
-13.17
-15.59
-18.26
-21.05
-23.55
-25.2
-25.42
-23.94
-20.84
-16.54
-11.62
-6.61
-1.81
2.67
6.82
10.57
13.69
15.95
17.19
17.43
16.86
15.8
14.54
13.25
12.03
10.95
10.08
9.55
9.34
9.38
9.51
9.49
9.21
8.62
7.76
6.69
5.47
4.12
2.66
1.1
-0.58
-2.44
-4.59
-7.16
-10.25
-13.83
-17.65
-21.31
-24.31
-26.23
-26.76
-25.89
-23.75
-20.61
-16.7
-12.25
-7.47
-2.61
2.01
6.05
9.24
11.49
12.91
13.79
14.41
14.96
15.47
15.82
15.92
15.75
15.41
15.05
14.83
14.83
15
15.24
15.42
15.39
15.03
14.26
13.07
11.51
9.72
7.87
6.09
4.39
2.66
0.8
-1.28
-3.54
-5.89
-8.23
-10.5
-12.76
-15.08
-17.58
-20.34
-23.33
-26.41
-29.32
-31.64
-32.92
-32.74
-30.89
-27.46
-22.78
-17.4
-11.85
-6.63
-2
1.88
5.05
7.64
9.84
11.83
13.75
15.59
17.22
18.49
19.21
19.38
19.11
18.65
18.26
18.13
18.33
18.76
19.23
19.58
19.59
19.21
18.43
17.31
15.96
14.5
13.01
11.51
10.02
8.46
6.79
4.97
3
0.91
-1.26
-3.47
-5.7
-7.9
-10
-11.87
-13.4
-14.49
-15.2
-15.74
-16.41
-17.5
-19.2
-21.51
-24.18
-26.77
-28.75
-29.65
-29.12
-27.05
-23.55
-18.94
-13.63
-8.15
-2.98
1.45
4.9
7.33
8.91
9.94
10.75
11.56
12.41
13.23
13.9
14.36
14.65
14.88
15.15
15.5
15.85
16.08
16.04
15.67
14.94
13.91
12.63
11.21
9.77
8.37
7.1
5.94
4.79
3.5
1.94
0.05
-2
-4.01
-5.72
-7.04
-8.08
-9.12
-10.48
-12.43
-14.99
-17.99
-21.04
-23.75
-25.66
-26.44
-25.91
-23.98
-20.82
-16.68
-11.99
-7.21
-2.73
1.16
4.36
6.85
8.7
10.01
10.88
11.36
11.49
11.31
10.88
10.29
9.67
9.15
8.75
8.48
8.26
8.02
7.76
7.49
7.19
6.81
6.29
5.53
4.53
3.35
2.08
0.83
-0.38
-1.61
-3.04
-4.83
-7.16
-10.03
-13.24
-16.44
-19.17
-20.99
-21.66
-21.15
-19.56
-17.06
-13.79
-9.87
-5.54
-1.1
2.99
6.37
8.8
10.26
10.9
10.94
10.62
10.1
9.48
8.88
8.4
8.08
7.97
7.99
8.05
8.07
7.96
7.7
7.2
6.4
5.23
3.68
1.84
-0.19
-2.22
-4.15
-5.94
-7.64
-9.38
-11.34
-13.69
-16.51
-19.76
-23.11
-26.11
-28.2
-28.88
-27.88
-25.26
-21.34
-16.6
-11.58
-6.65
-2.14
1.84
5.23
8.04
10.32
12.1
13.44
14.35
14.93
15.26
15.44
15.56
15.61
15.54
15.26
14.73
13.93
12.95
11.87
10.72
9.53
8.23
6.79
5.16
3.35
1.37
-0.66
-2.64
-4.51
-6.23
-7.91
-9.73
-11.93
-14.69
-17.99
-21.55
-24.88
-27.41
-28.7
-28.48
-26.76
-23.72
-19.69
-15.01
-10.05
-5.14
-0.57
3.42
6.67
9.18
11.07
12.5
13.66
14.71
15.67
16.56
17.29
17.81
18.09
18.22
18.27
18.33
18.41
18.41
18.22
17.68
16.79
15.63
14.3
12.89
11.39
9.72
7.81
5.68
3.51
1.52
-0.15
-1.49
-2.62
-3.73
-4.97
-6.42
-8.08
-10.02
-12.35
-15.2
-18.59
-22.28
-25.76
-28.35
-29.44
-28.68
-26.17
-22.33
-17.74
-12.96
-8.33
-4.04
-0.17
3.19
5.92
7.91
9.17
9.87
10.27
10.67
11.2
11.88
12.56
13.17
13.68
14.26
15.04
16.06
17.21
18.22
18.77
18.69
17.93
16.63
14.95
13.04
10.98
8.84
6.63
4.4
2.12
-0.19
-2.55
-4.91
-7.21
-9.49
-11.88
-14.58
-17.69
-21.1
-24.33
-26.73
-27.68
-26.86
-24.4
-20.69
-16.26
-11.49
-6.64
-1.86
2.63
6.45
9.24
10.77
11.09
10.56
9.69
8.97
8.66
8.79
9.17
9.61
9.89
10
9.96
9.89
9.84
9.8
9.66
9.27
8.51
7.34
5.83
4.11
2.32
0.56
-1.12
-2.73
-4.33
-5.97
-7.72
-9.67
-11.9
-14.44
-17.26
-20.15
-22.76
-24.66
-25.42
-24.76
-22.6
-19.15
-14.8
-10.04
-5.32
-0.96
2.86
6.12
8.85
11.1
12.89
14.17
14.92
15.19
15.12
14.95
14.87
15.01
15.32
15.68
15.97
16.13
16.19
16.18
16.08
15.72
14.94
13.56
11.59
9.18
6.55
3.87
1.25
-1.31
-3.77
-6.03
-7.91
-9.27
-10.12
-10.75
-11.65
-13.29
-15.91
-19.37
-23.08
-26.3
-28.37
-28.93
-27.94
-25.64
-22.34
-18.36
-13.95
-9.37
-4.88
-0.72
2.91
5.92
8.29
10.09
11.41
12.39
13.16
13.83
14.46
15.05
15.52
15.82
15.95
15.94
15.92
15.95
16.05
16.11
16.01
15.57
14.69
13.29
11.41
9.1
6.5
3.81
1.21
-1.15
-3.22
-5.11
-7.05
-9.28
-12
-15.23
-18.76
-22.19
-25.03
-26.76
-27.08
-25.88
-23.36
-19.83
-15.71
-11.35
-7.03
-2.97
0.64
3.69
6.11
7.9
9.19
10.14
10.9
11.55
12.04
12.36
12.47
12.45
12.4
12.44
12.65
13.03
13.44
13.7
13.63
13.13
12.19
10.95
9.54
8.1
6.65
5.17
3.55
1.75
-0.27
-2.53
-5.04
-7.81
-10.89
-14.22
-17.65
-20.84
-23.37
-24.8
-24.84
-23.36
-20.54
-16.75
-12.47
-8.14
-4.08
-0.44
2.74
5.45
7.64
9.25
10.24
10.7
10.85
10.96
11.24
11.73
12.3
12.72
12.78
12.45
11.9
11.33
10.9
10.59
10.22
9.58
8.5
6.96
5.03
2.81
0.4
-2.14
-4.71
-7.28
-9.84
-12.48
-15.37
-18.61
-22.09
-25.38
-27.87
-28.9
-28.08
-25.42
-21.3
-16.28
-10.9
-5.54
-0.46
4.2
8.28
11.59
14.04
15.63
16.51
16.88
17
17.1
17.33
17.74
18.28
18.82
19.19
19.21
18.78
17.93
16.74
15.38
13.88
12.25
10.42
8.29
5.87
3.24
0.57
-2
-4.34
-6.45
-8.45
-10.45
-12.69
-15.33
-18.48
-22.11
-26.01
-29.78
-32.95
-35.03
-35.67
-34.67
-32.05
-28.02
-22.97
-17.38
-11.75
-6.46
-1.76
2.34
5.97
9.26
12.28
14.96
17.2
18.89
20.09
20.94
21.61
22.26
22.88
23.39
23.7
23.73
23.5
23.09
22.58
21.99
21.22
20.13
18.55
16.45
13.89
11.07
8.23
5.55
3.07
0.71
-1.66
-4.15
-6.78
-9.48
-12.11
-14.57
-16.75
-18.68
-20.47
-22.32
-24.47
-27.07
-30.04
-33.03
-35.44
-36.64
-36.13
-33.74
-29.66
-24.36
-18.35
-12.12
-6.04
-0.38
4.64
8.86
12.22
14.76
16.66
18.12
19.31
20.31
21.07
21.53
21.65
21.49
21.19
20.92
20.77
20.72
20.67
20.48
20.06
19.4
18.45
17.2
15.57
13.6
11.33
8.93
6.58
4.38
2.32
0.33
-1.68
-3.74
-5.82
-7.85
-9.82
-11.82
-14.02
-16.59
-19.61
-22.98
-26.32
-29.12
-30.82
-30.94
-29.31
-26.04
-21.52
-16.26
-10.68
-5.11
0.27
5.3
9.79
13.49
16.2
17.77
18.26
17.9
17.04
16.05
15.23
14.77
14.69
14.91
15.21
15.41
15.37
15.09
14.67
14.2
13.7
13.03
12.01
10.52
8.54
6.22
3.73
1.26
-1.15
-3.53
-5.9
-8.24
-10.59
-13.04
-15.8
-19.08
-22.87
-26.86
-30.45
-32.9
-33.68
-32.6
-29.81
-25.68
-20.65
-15.05
-9.16
-3.28
2.31
7.32
11.53
14.88
17.37
19.06
20.01
20.3
20.01
19.32
18.46
17.68
17.16
17.01
17.25
17.79
18.49
19.12
19.42
19.21
18.39
17.01
15.18
13.01
10.56
7.9
5.09
2.25
-0.45
-2.84
-4.9
-6.65
-8.25
-9.82
-11.37
-12.97
-14.71
-16.78
-19.38
-22.54
-26.07
-29.52
-32.28
-33.81
-33.76
-32.05
-28.85
-24.47
-19.27
-13.63
-7.96
-2.63
2.1
6.08
9.31
11.84
13.78
15.23
16.29
17.11
17.79
18.39
18.88
19.18
19.27
19.17
19.04
19.05
19.28
19.65
19.95
19.95
19.44
18.38
16.79
14.77
12.45
10.02
7.64
5.47
3.6
1.95
0.34
-1.44
-3.5
-5.79
-8.16
-10.42
-12.49
-14.4
-16.31
-18.37
-20.69
-23.28
-26.07
-28.83
-31.24
-32.9
-33.36
-32.31
-29.63
-25.53
-20.43
-14.84
-9.19
-3.79
1.19
5.62
9.32
12.17
14.06
15.11
15.56
15.8
16.14
16.7
17.46
18.2
18.74
18.96
18.85
18.46
17.88
17.17
16.38
15.49
14.48
13.3
11.91
10.29
8.46
6.48
4.36
2.11
-0.26
-2.73
-5.2
-7.54
-9.6
-11.34
-12.88
-14.45
-16.33
-18.61
-21.19
-23.72
-25.73
-26.79
-26.63
-25.19
-22.55
-18.91
-14.52
-9.65
-4.64
0.17
4.45
7.94
10.48
12.09
12.9
13.12
13.01
12.8
12.61
12.44
12.24
11.97
11.67
11.36
11.1
10.85
10.47
9.84
8.91
7.71
6.4
5.08
3.79
2.49
1.17
-0.23
-1.65
-3.1
-4.64
-6.44
-8.65
-11.34
-14.43
-17.69
-20.75
-23.24
-24.84
-25.37
-24.78
-23.09
-20.41
-16.82
-12.46
-7.53
-2.37
2.62
6.99
10.39
12.69
14
14.59
14.84
15
15.21
15.48
15.78
16.12
16.5
16.92
17.29
17.46
17.23
16.52
15.32
13.77
12.11
10.53
9.08
7.74
6.31
4.65
2.64
0.36
-2.12
-4.63
-7.09
-9.47
-11.77
-14.02
-16.28
-18.64
-21.21
-24.1
-27.22
-30.29
-32.82
-34.29
-34.26
-32.56
-29.29
-24.72
-19.23
-13.25
-7.23
-1.63
3.14
6.86
9.54
11.41
12.78
13.91
14.85
15.61
16.15
16.55
16.9
17.23
17.42
17.28
16.66
15.62
14.44
13.43
12.82
12.53
12.29
11.7
10.53
8.76
6.61
4.4
2.3
0.38
-1.44
-3.25
-5.05
-6.79
-8.4
-9.96
-11.69
-13.89
-16.75
-20.14
-23.57
-26.37
-27.82
-27.58
-25.63
-22.36
-18.3
-13.92
-9.51
-5.16
-0.89
3.26
7.16
10.57
13.3
15.27
16.57
17.41
17.99
18.42
18.67
18.66
18.33
17.76
17.13
16.62
16.32
16.11
15.79
15.16
14.11
12.67
10.95
9.04
6.96
4.7
2.27
-0.2
-2.56
-4.62
-6.33
-7.78
-9.21
-10.91
-13.08
-15.79
-18.91
-22.19
-25.23
-27.62
-28.94
-28.88
-27.33
-24.38
-20.29
-15.41
-10.16
-4.9
0.03
4.33
7.78
10.27
11.79
12.5
12.59
12.32
11.9
11.43
10.99
10.62
10.36
10.28
10.46
10.88
11.48
12.11
12.57
12.69
12.34
11.53
10.32
8.8
7
4.93
2.63
0.2
-2.24
-4.65
-7.09
-9.73
-12.76
-16.23
-19.84
-23.06
-25.22
-25.8
-24.6
-21.79
-17.78
-13.06
-8.02
-2.93
2
6.52
10.42
13.48
15.61
16.82
17.2
16.89
16.05
14.84
13.48
12.21
11.23
10.63
10.29
10.08
9.82
9.53
9.27
9.14
9.15
9.12
8.78
7.87
6.31
4.19
1.75
-0.69
-2.93
-4.92
-6.79
-8.73
-11.02
-13.8
-17.1
-20.81
-24.69
-28.37
-31.44
-33.43
-33.9
-32.64
-29.64
-25.2
-19.88
-14.23
-8.78
-3.83
0.52
4.28
7.46
10.08
12.09
13.51
14.46
15.07
15.5
15.89
16.27
16.62
16.88
17.01
16.94
16.7
16.3
15.8
15.27
14.78
14.33
13.82
13.11
12.02
10.44
8.4
6.01
3.45
0.91
-1.48
-3.67
-5.68
-7.56
-9.42
-11.42
-13.72
-16.47
-19.65
-23.06
-26.33
-28.93
-30.39
-30.39
-28.81
-25.75
-21.42
-16.14
-10.31
-4.44
0.99
5.6
9.22
11.94
13.97
15.52
16.7
17.51
17.93
17.97
17.75
17.41
17.12
16.88
16.62
16.28
15.85
15.38
14.96
14.61
14.28
13.83
13.14
12.12
10.8
9.2
7.36
5.34
3.16
0.9
-1.36
-3.55
-5.66
-7.77
-10.03
-12.64
-15.76
-19.33
-23.16
-26.84
-29.84
-31.65
-31.86
-30.31
-27.09
-22.53
-17.1
-11.37
-5.81
-0.79
3.45
6.81
9.32
11.12
12.34
13.11
13.51
13.6
13.43
13.11
12.75
12.49
12.46
12.71
13.18
13.81
14.43
14.84
14.84
14.26
12.98
11.01
8.48
5.64
2.77
0.09
-2.29
-4.36
-6.2
-7.95
-9.8
-12.03
-14.83
-18.23
-21.89
-25.19
-27.4
-27.9
-26.48
-23.31
-18.92
-13.82
-8.4
-2.96
2.27
6.97
10.82
13.53
15.07
15.64
15.61
15.3
14.89
14.4
13.76
12.97
12.15
11.46
11.04
10.9
10.94
11.02
11.02
10.89
10.59
10.11
9.4
8.44
7.19
5.68
3.95
2.04
-0.01
-2.18
-4.51
-7.08
-10
-13.4
-17.32
-21.64
-25.96
-29.66
-32.05
-32.59
-31.1
-27.79
-23.22
-18
-12.68
-7.61
-2.97
1.17
4.75
7.71
9.99
11.57
12.49
12.85
12.82
12.62
12.47
12.54
12.88
13.38
13.87
14.15
14.13
13.86
13.46
13.08
12.71
12.2
11.33
9.97
8.07
5.78
3.3
0.82
-1.53
-3.79
-5.96
-8.1
-10.23
-12.42
-14.78
-17.44
-20.49
-23.8
-27.06
-29.74
-31.31
-31.42
-29.97
-27.09
-22.99
-18.01
-12.46
-6.74
-1.25
3.62
7.61
10.64
12.78
14.18
15.03
15.5
15.7
15.75
15.72
15.66
15.63
15.61
15.65
15.72
15.76
15.64
15.25
14.5
13.42
12.2
10.95
9.73
8.43
6.93
5.11
2.99
0.64
-1.81
-4.29
-6.78
-9.3
-11.82
-14.33
-16.81
-19.2
-21.45
-23.49
-25.11
-26.09
-26.15
-25.06
-22.73
-19.2
-14.7
-9.64
-4.52
0.19
4.11
7.13
9.3
10.81
11.83
12.46
12.75
12.73
12.49
12.18
11.98
11.99
12.24
12.56
12.75
12.67
12.22
11.48
10.56
9.54
8.46
7.25
5.82
4.07
2.01
-0.29
-2.75
-5.33
-8.06
-11.03
-14.28
-17.7
-20.97
-23.61
-25.16
-25.24
-23.81
-21.09
-17.47
-13.31
-8.89
-4.31
0.28
4.68
8.6
11.69
13.72
14.65
14.66
14.04
13.13
12.14
11.24
10.47
9.85
9.36
9
8.71
8.45
8.19
7.88
7.46
6.92
6.17
5.15
3.77
2.06
0.02
-2.3
-4.91
-7.84
-11.14
-14.76
-18.45
-21.76
-24.16
-25.17
-24.6
-22.5
-19.22
-15.14
-10.66
-6.02
-1.42
2.97
6.94
10.26
12.75
14.37
15.22
15.49
15.37
14.99
14.39
13.54
12.47
11.27
10.07
9.02
8.19
7.46
6.62
5.48
3.89
1.89
-0.34
-2.63
-4.83
-6.91
-8.97
-11.16
-13.65
-16.62
-20.09
-23.95
-27.85
-31.2
-33.37
-33.83
-32.33
-29
-24.36
-19.04
-13.67
-8.6
-3.99
0.24
4.17
7.82
11.09
13.77
15.71
16.94
17.64
18.04
18.34
18.57
18.61
18.27
17.48
16.3
14.89
13.43
11.96
10.4
8.63
6.63
4.43
2.15
-0.07
-2.23
-4.44
-6.89
-9.86
-13.49
-17.73
-22.31
-26.62
-30
-31.83
-31.81
-29.95
-26.6
-22.25
-17.32
-12.17
-6.98
-1.95
2.76
6.98
10.61
13.66
16.19
18.25
19.85
20.9
21.42
21.47
21.29
21.15
21.31
21.89
22.81
23.84
24.73
25.23
25.25
24.75
23.78
22.42
20.73
18.76
16.57
14.2
11.6
8.63
5.12
0.82
-4.28
-10.04
-16
-21.52
-25.88
-28.52
-29.11
-27.71
-24.66
-20.5
-15.81
-11.05
-6.49
-2.32
1.36
4.49
7.01
8.91
10.24
11.13
11.68
11.95
11.94
11.65
11.1
10.41
9.7
9.07
8.54
7.98
7.21
6.09
4.58
2.82
1.01
-0.66
-2.14
-3.56
-5.21
-7.36
-10.18
-13.65
-17.54
-21.47
-24.94
-27.45
-28.55
-27.94
-25.57
-21.67
-16.72
-11.35
-6.15
-1.52
2.37
5.58
8.21
10.38
12.07
13.23
13.79
13.81
13.48
13.06
12.71
12.54
12.51
12.49
12.35
12.05
11.55
10.82
9.85
8.66
7.27
5.69
3.89
1.77
-0.74
-3.66
-6.85
-10.05
-13.1
-15.96
-18.86
-22.17
-26.15
-30.8
-35.75
-40.31
-43.73
-45.34
-44.73
-41.77
-36.59
-29.52
-21.12
-12.07
-3.12
5.05
11.99
17.53
21.74
24.79
26.84
27.97
28.28
27.96
27.28
26.59
26.12
25.95
25.93
25.82
25.43
24.68
23.74
22.74
21.84
20.96
19.93
18.52
16.53
13.86
10.57
6.79
2.72
-1.42
-5.44
-9.23
-12.79
-16.27
-19.92
-23.97
-28.45
-33.12
-37.46
-40.74
-42.21
-41.3
-37.72
-31.58
-23.41
-14.08
-4.58
4.14
11.43
16.99
20.92
23.53
25.2
26.28
27.02
27.67
28.46
29.56
31.03
32.71
34.32
35.53
36.12
36.04
35.48
34.74
34.05
33.51
32.97
32.19
30.82
28.64
25.55
21.65
17.18
12.54
8.12
4.25
1.07
-1.51
-3.79
-6.18
-8.99
-12.38
-16.21
-20.16
-23.78
-26.6
-28.24
-28.45
-27.12
-24.36
-20.48
-15.95
-11.28
-6.95
-3.3
-0.46
1.57
2.85
3.54
3.71
3.43
2.72
1.62
0.18
-1.5
-3.33
-5.13
-6.74
-8.04
-8.98
-9.67
-10.38
-11.53
-13.5
-16.5
-20.49
-25.05
-29.54
-33.22
-35.5
-36.08
-35.07
-32.91
-30.25
-27.72
-25.82
-24.74
-24.39
-24.43
-24.34
-23.59
-21.7
-18.37
-13.53
-7.39
-0.39
6.93
13.96
20.17
25.18
28.78
30.96
31.95
32.07
31.75
31.3
30.89
30.49
29.93
29.11
27.97
26.63
25.25
23.93
22.65
21.26
19.62
17.6
15.17
12.37
9.27
5.98
2.59
-0.77
-3.97
-6.9
-9.62
-12.33
-15.32
-18.85
-22.98
-27.46
-31.73
-35.05
-36.75
-36.41
-33.94
-29.67
-24.04
-17.57
-10.71
-3.81
2.83
8.87
13.96
17.79
20.22
21.39
21.65
21.47
21.23
21.14
21.16
21.13
20.89
20.38
19.67
18.93
18.28
17.72
17.1
16.23
14.89
13
10.61
7.87
4.95
2.01
-0.87
-3.63
-6.26
-8.75
-11.19
-13.75
-16.64
-20.02
-23.87
-27.91
-31.59
-34.26
-35.3
-34.34
-31.3
-26.42
-20.15
-13.08
-5.81
1.12
7.28
12.4
16.38
19.27
21.21
22.39
22.99
23.13
22.95
22.57
22.11
21.69
21.33
21.03
20.67
20.15
19.39
18.34
16.98
15.3
13.31
11.02
8.47
5.72
2.88
0.08
-2.56
-4.93
-6.99
-8.75
-10.34
-11.93
-13.81
-16.16
-19.09
-22.48
-25.93
-28.93
-30.91
-31.47
-30.47
-28.04
-24.44
-20.02
-15.11
-9.98
-4.91
-0.17
3.98
7.38
9.92
11.65
12.67
13.15
13.27
13.23
13.23
13.41
13.82
14.45
15.16
15.83
16.31
16.52
16.35
15.71
14.48
12.64
10.26
7.56
4.87
2.45
0.38
-1.44
-3.23
-5.22
-7.54
-10.19
-13.03
-15.91
-18.6
-20.81
-22.13
-22.21
-20.78
-17.89
-13.8
-9.05
-4.12
0.58
4.83
8.47
11.39
13.49
14.7
15.07
14.75
14
13.03
12.01
11
10.04
9.19
8.49
8.01
7.72
7.54
7.31
6.88
6.18
5.19
3.99
2.66
1.25
-0.21
-1.74
-3.31
-5.05
-7.07
-9.54
-12.57
-16.05
-19.62
-22.77
-24.93
-25.69
-24.89
-22.63
-19.12
-14.67
-9.59
-4.29
0.75
5.06
8.34
10.54
11.87
12.67
13.22
13.6
13.75
13.57
13.06
12.38
11.76
11.41
11.36
11.45
11.41
10.93
9.86
8.25
6.28
4.26
2.39
0.72
-0.86
-2.5
-4.3
-6.27
-8.35
-10.61
-13.19
-16.29
-19.95
-23.87
-27.41
-29.76
-30.27
-28.65
-25.13
-20.34
-15
-9.73
-4.94
-0.8
2.72
5.68
8.17
10.23
11.88
13.11
13.86
14.07
13.78
13.13
12.31
11.58
11.07
10.78
10.55
10.15
9.43
8.28
6.78
4.99
3.04
0.95
-1.27
-3.59
-6.02
-8.53
-11.18
-14.03
-17.15
-20.43
-23.61
-26.19
-27.61
-27.43
-25.51
-22.05
-17.52
-12.45
-7.32
-2.47
1.89
5.67
8.77
11.14
12.73
13.6
13.86
13.68
13.27
12.79
12.29
11.78
11.21
10.52
9.7
8.72
7.6
6.38
5.05
3.63
2.06
0.27
-1.79
-4.17
-6.92
-10
-13.31
-16.59
-19.48
-21.6
-22.59
-22.26
-20.64
-17.95
-14.46
-10.48
-6.24
-1.93
2.29
6.19
9.52
12.04
13.6
14.2
13.96
13.17
12.15
11.15
10.28
9.54
8.8
8
7.18
6.43
5.87
5.53
5.33
5.09
4.63
3.82
2.57
0.82
-1.47
-4.23
-7.27
-10.24
-12.67
-14.12
-14.25
-12.93
-10.19
-6.26
-1.5
3.71
8.95
13.94
18.51
22.56
25.97
28.47
29.73
29.43
27.48
24.12
19.94
15.68
12.01
9.26
7.46
6.34
5.59
5
4.5
4.12
3.86
3.54
2.85
1.36
-1.23
-4.98
-9.74
-15.12
-20.63
-25.75
-29.99
-32.87
-33.98
-33.15
-30.51
-26.54
-21.98
-17.59
-13.94
-11.27
-9.55
-8.57
-8.15
-8.17
-8.54
-9.2
-9.99
-10.73
-11.29
-11.65
-11.86
-11.97
-12
-11.86
-11.47
-10.79
-9.91
-8.97
-8.15
-7.51
-7.05
-6.82
-6.97
-7.78
-9.56
-12.45
-16.21
-20.24
-23.63
-25.47
-25.17
-22.59
-18.06
-12.24
-5.82
0.63
6.74
12.34
17.27
21.37
24.51
26.59
27.65
27.82
27.32
26.33
25.05
23.59
22.05
20.49
18.88
17.13
15.15
12.89
10.38
7.77
5.21
2.76
0.31
-2.36
-5.5
-9.24
-13.56
-18.28
-23.07
-27.54
-31.28
-33.86
-34.96
-34.4
-32.22
-28.65
-24.01
-18.64
-12.83
-6.87
-0.95
4.69
9.83
14.24
17.86
20.68
22.76
24.17
24.95
25.13
24.81
24.14
23.34
22.59
21.98
21.43
20.79
19.82
18.37
16.35
13.78
10.72
7.27
3.58
-0.22
-4.01
-7.75
-11.52
-15.47
-19.74
-24.24
-28.64
-32.35
-34.65
-34.88
-32.74
-28.26
-21.87
-14.26
-6.17
1.68
8.73
14.54
18.89
21.74
23.31
23.98
24.15
24.13
24.12
24.11
24.03
23.83
23.49
23.1
22.68
22.22
21.57
20.61
19.26
17.49
15.41
13.07
10.51
7.73
4.75
1.63
-1.49
-4.5
-7.35
-10.17
-13.16
-16.58
-20.5
-24.76
-28.96
-32.5
-34.78
-35.29
-33.74
-30.12
-24.73
-18.1
-10.92
-3.85
2.55
7.96
12.23
15.37
17.49
18.76
19.37
19.53
19.43
19.22
18.95
18.62
18.11
17.42
16.55
15.58
14.62
13.73
12.93
12.16
11.3
10.24
8.89
7.26
5.38
3.35
1.2
-1.02
-3.3
-5.67
-8.21
-11.01
-14.07
-17.29
-20.37
-22.91
-24.41
-24.5
-23
-20.03
-15.9
-11.02
-5.82
-0.65
4.14
8.24
11.38
13.42
14.4
14.56
14.24
13.83
13.61
13.69
14.04
14.52
14.95
15.2
15.2
14.93
14.4
13.64
12.65
11.42
9.96
8.27
6.34
4.15
1.7
-0.99
-3.76
-6.45
-8.9
-11.11
-13.19
-15.49
-18.28
-21.71
-25.6
-29.52
-32.89
-35.22
-36.19
-35.7
-33.83
-30.77
-26.77
-22.17
-17.41
-12.93
-9.16
-6.39
-4.65
-3.84
-3.63
-3.61
-3.35
-2.41
-0.49
2.46
6.22
10.28
14.05
17.15
19.48
21.31
23.13
25.42
28.38
31.87
35.48
38.69
41.1
42.51
42.84
41.95
39.62
35.6
29.71
22.14
13.48
4.68
-3.2
-9.22
-12.82
-13.89
-12.8
-10.28
-7.23
-4.45
-2.47
-1.47
-1.25
-1.53
-2.04
-2.7
-3.56
-4.63
-5.85
-6.95
-7.64
-7.69
-7.05
-5.92
-4.64
-3.57
-2.96
-2.91
-3.35
-4.14
-5.14
-6.29
-7.64
-9.24
-11.16
-13.4
-15.84
-18.26
-20.41
-22.05
-22.93
-22.89
-21.76
-19.49
-16.07
-11.66
-6.58
-1.27
3.68
7.75
10.58
12.05
12.29
11.62
10.43
9.09
7.83
6.78
5.97
5.34
4.84
4.38
3.92
3.48
3.08
2.78
2.58
2.46
2.21
1.57
0.2
-2.14
-5.47
-9.51
-13.75
-17.56
-20.33
-21.69
-21.49
-19.81
-16.91
-13.14
-8.86
-4.48
-0.37
3.16
5.86
7.66
8.56
8.72
8.38
7.83
7.31
6.92
6.65
6.39
5.99
5.38
4.57
3.66
2.73
1.81
0.83
-0.35
-1.87
-3.89
-6.51
-9.77
-13.6
-17.75
-21.82
-25.24
-27.44
-27.94
-26.52
-23.26
-18.55
-12.94
-7.03
-1.4
3.53
7.56
10.61
12.78
14.2
14.98
15.14
14.7
13.66
12.18
10.47
8.76
7.26
6.02
5
4.1
3.28
2.45
1.57
0.58
-0.65
-2.27
-4.43
-7.19
-10.52
-14.14
-17.66
-20.59
-22.49
-23.05
-22.17
-19.93
-16.48
-12.08
-7
-1.62
3.61
8.25
11.95
14.55
16.16
17.02
17.44
17.67
17.82
17.9
17.88
17.68
17.31
16.79
16.22
15.71
15.27
14.86
14.29
13.37
11.95
9.97
7.52
4.78
1.93
-0.89
-3.66
-6.42
-9.34
-12.52
-16.03
-19.72
-23.28
-26.21
-27.95
-28.06
-26.34
-22.93
-18.25
-12.86
-7.29
-1.9
3.13
7.66
11.6
14.76
16.99
18.32
18.96
19.26
19.57
20.04
20.54
20.74
20.31
19.18
17.59
15.93
14.59
13.67
12.99
12.16
10.82
8.83
6.29
3.47
0.67
-1.95
-4.3
-6.43
-8.41
-10.35
-12.38
-14.69
-17.41
-20.56
-23.89
-26.9
-28.96
-29.54
-28.33
-25.46
-21.34
-16.52
-11.45
-6.47
-1.68
2.77
6.71
9.92
12.22
13.53
13.94
13.65
12.91
11.98
11.05
10.32
9.88
9.74
9.8
9.86
9.69
9.1
8.09
6.7
5.1
3.34
1.44
-0.66
-2.96
-5.43
-7.93
-10.38
-12.76
-15.12
-17.49
-19.74
-21.58
-22.55
-22.25
-20.44
-17.19
-12.86
-7.93
-2.9
1.86
6.1
9.72
12.65
14.83
16.22
16.84
16.84
16.41
15.75
15.02
14.26
13.47
12.62
11.73
10.87
10.1
9.42
8.72
7.81
6.53
4.77
2.54
-0.05
-2.82
-5.59
-8.28
-10.91
-13.62
-16.61
-19.98
-23.65
-27.35
-30.63
-32.92
-33.81
-33.01
-30.45
-26.29
-20.83
-14.5
-7.85
-1.44
4.23
8.87
12.4
15.01
16.93
18.38
19.48
20.24
20.63
20.64
20.32
19.72
18.92
17.93
16.79
15.49
14.07
12.57
10.97
9.26
7.35
5.27
3.03
0.79
-1.37
-3.45
-5.58
-8.05
-11.16
-15.07
-19.66
-24.51
-28.89
-32.06
-33.4
-32.63
-29.8
-25.24
-19.48
-13.05
-6.49
-0.2
5.47
10.26
14.05
16.78
18.54
19.46
19.7
19.45
18.91
18.26
17.61
17.01
16.46
15.96
15.47
15.03
14.66
14.4
14.16
13.82
13.2
12.16
10.66
8.78
6.61
4.27
1.8
-0.78
-3.49
-6.25
-9.06
-11.92
-14.95
-18.33
-22.1
-26.12
-29.9
-32.77
-34.07
-33.38
-30.62
-26.06
-20.14
-13.43
-6.44
0.38
6.63
11.98
16.14
19.01
20.65
21.3
21.36
21.23
21.15
21.26
21.42
21.43
21.1
20.39
19.47
18.6
18.01
17.7
17.48
16.99
15.9
14.01
11.37
8.23
4.89
1.62
-1.45
-4.27
-6.81
-9.11
-11.15
-13.1
-15.19
-17.69
-20.7
-24.02
-27.09
-29.22
-29.8
-28.53
-25.57
-21.3
-16.25
-10.8
-5.26
0.18
5.19
9.37
12.35
13.88
14.05
13.21
11.91
10.66
9.79
9.37
9.29
9.4
9.55
9.69
9.78
9.71
9.34
8.51
7.2
5.54
3.78
2.1
0.56
-1
-2.89
-5.4
-8.67
-12.6
-16.88
-20.97
-24.35
-26.51
-27.08
-25.91
-22.99
-18.58
-13.07
-7
-0.93
4.57
9.13
12.55
14.81
16.13
16.73
16.84
16.59
16.08
15.39
14.61
13.87
13.22
12.71
12.3
11.93
11.56
11.1
10.49
9.64
8.45
6.74
4.45
1.54
-1.85
-5.5
-9.14
-12.59
-15.83
-19.03
-22.48
-26.39
-30.71
-35.02
-38.64
-40.83
-40.99
-38.89
-34.61
-28.54
-21.18
-13.12
-4.96
2.76
9.51
14.96
18.95
21.57
23.06
23.76
23.92
23.81
23.59
23.37
23.15
22.88
22.45
21.72
20.66
19.32
17.82
16.33
14.9
13.46
11.85
9.88
7.44
4.58
1.48
-1.64
-4.64
-7.56
-10.62
-14.15
-18.41
-23.39
-28.78
-33.9
-37.98
-40.27
-40.31
-37.93
-33.24
-26.62
-18.64
-10.03
-1.57
6.02
12.25
16.92
20.12
22.12
23.2
23.67
23.69
23.47
23.14
22.89
22.8
22.83
22.85
22.69
22.21
21.42
20.45
19.47
18.61
17.86
17.05
15.93
14.25
11.92
8.98
5.62
2.06
-1.5
-4.94
-8.21
-11.26
-14.04
-16.58
-19.03
-21.65
-24.73
-28.31
-32.05
-35.35
-37.44
-37.68
-35.73
-31.66
-25.83
-18.82
-11.23
-3.7
3.21
9.07
13.57
16.67
18.52
19.42
19.72
19.74
19.7
19.68
19.66
19.51
19.17
18.62
17.98
17.36
16.79
16.18
15.29
13.87
11.82
9.2
6.23
3.17
0.23
-2.52
-5.06
-7.45
-9.74
-12.08
-14.65
-17.59
-20.9
-24.33
-27.42
-29.57
-30.27
-29.21
-26.37
-21.91
-16.16
-9.57
-2.63
4.06
9.92
14.47
17.52
19.16
19.68
19.47
18.8
17.82
16.63
15.34
14.15
13.29
12.88
12.86
13.03
13.1
12.84
12.16
11.11
9.67
7.8
5.44
2.48
-0.98
-4.7
-8.36
-11.72
-14.82
-17.95
-21.51
-25.77
-30.57
-35.33
-39.24
-41.58
-41.86
-40
-36.15
-30.58
-23.66
-15.8
-7.53
0.48
7.6
13.33
17.43
20.01
21.41
21.99
22.1
21.93
21.63
21.19
20.66
20.11
19.59
19.16
18.86
18.65
18.4
17.99
17.27
16.12
14.53
12.5
10.12
7.43
4.49
1.32
-2.03
-5.55
-9.21
-13.03
-17.07
-21.43
-26.15
-31.1
-36
-40.27
-43.19
-44.05
-42.29
-37.76
-30.76
-22.05
-12.69
-3.67
4.2
10.55
15.41
19
21.62
23.47
24.64
25.22
25.3
25.06
24.69
24.32
24
23.69
23.3
22.71
21.88
20.77
19.39
17.76
15.92
13.9
11.72
9.4
6.94
4.35
1.65
-1.16
-4.09
-7.23
-10.72
-14.7
-19.28
-24.35
-29.51
-34.06
-37.24
-38.27
-36.72
-32.61
-26.39
-18.8
-10.79
-3.22
3.26
8.3
11.83
14.07
15.35
16.08
16.55
16.92
17.2
17.31
17.2
16.84
16.32
15.71
15.09
14.5
13.87
13.1
12.1
10.82
9.26
7.48
5.55
3.54
1.46
-0.75
-3.19
-6.05
-9.48
-13.43
-17.6
-21.48
-24.42
-25.83
-25.37
-23.01
-19.07
-14.03
-8.51
-3.01
1.97
6.1
9.16
11.08
11.95
11.92
11.22
10.03
8.57
7.07
5.73
4.78
4.33
4.31
4.48
4.56
4.21
3.33
1.98
0.44
-1.01
-2.24
-3.33
-4.59
-6.36
-8.93
-12.26
-16.02
-19.66
-22.56
-24.17
-24.09
-22.15
-18.38
-13.05
-6.62
0.21
6.72
12.26
16.42
19.08
20.41
20.68
20.19
19.23
18.03
16.81
15.78
15.01
14.45
13.94
13.26
12.27
10.93
9.3
7.46
5.48
3.33
0.89
-1.97
-5.47
-9.71
-14.68
-20.13
-25.58
-30.29
-33.49
-34.46
-32.78
-28.42
-21.8
-13.73
-5.23
2.71
9.34
14.28
17.56
19.5
20.53
20.98
21.07
20.9
20.5
19.92
19.22
18.45
17.65
16.78
15.78
14.53
12.96
11.05
8.86
6.47
3.92
1.12
-2.14
-6.09
-10.92
-16.52
-22.51
-28.24
-32.9
-35.72
-36.18
-34.1
-29.73
-23.6
-16.48
-9.15
-2.24
3.79
8.67
12.29
14.65
15.85
16.14
15.84
15.26
14.63
14.07
13.56
13.15
12.81
12.63
12.58
12.62
12.58
12.31
11.71
10.74
9.4
7.73
5.72
3.37
0.67
-2.27
-5.38
-8.5
-11.53
-14.42
-17.23
-20.1
-23.19
-26.63
-30.31
-33.97
-37.09
-39.11
-39.49
-37.91
-34.3
-28.81
-21.85
-13.94
-5.77
1.99
8.68
13.85
17.34
19.31
20.12
20.24
20.04
19.78
19.62
19.63
19.87
20.33
20.93
21.43
21.56
21.04
19.83
18.11
16.18
14.32
12.68
11.12
9.43
7.35
4.79
1.82
-1.36
-4.55
-7.65
-10.72
-13.92
-17.43
-21.28
-25.29
-29.07
-32.13
-33.93
-34.05
-32.22
-28.39
-22.7
-15.62
-7.78
0.03
7
12.45
16.05
17.86
18.28
17.87
17.16
16.48
15.97
15.6
15.29
14.93
14.5
13.94
13.22
12.33
11.33
10.23
9.1
7.87
6.47
4.77
2.71
0.25
-2.54
-5.62
-9.04
-12.87
-17.11
-21.6
-25.92
-29.49
-31.65
-31.84
-29.78
-25.52
-19.41
-12.07
-4.27
3.23
9.75
14.83
18.29
20.27
21.05
21.02
20.5
19.67
18.64
17.48
16.28
15.11
14.04
13.06
12.09
11.04
9.86
8.6
7.33
6.1
4.85
3.42
1.66
-0.47
-2.92
-5.54
-8.19
-10.89
-13.79
-17.11
-21.01
-25.45
-30.03
-34.21
-37.26
-38.59
-37.82
-34.84
-29.85
-23.27
-15.68
-7.73
-0.08
6.67
12.14
16.09
18.58
19.83
20.26
20.26
20.16
20.16
20.26
20.4
20.43
20.28
19.95
19.52
19.09
18.75
18.48
18.19
17.77
17.03
15.87
14.2
12.03
9.38
6.31
2.97
-0.44
-3.74
-6.8
-9.65
-12.54
-15.78
-19.65
-24.2
-29.18
-34.02
-37.89
-40.06
-39.93
-37.32
-32.4
-25.72
-18.01
-10.05
-2.48
4.22
9.83
14.33
17.79
20.35
22.07
23.09
23.53
23.64
23.66
23.79
24.1
24.53
24.91
25.02
24.77
24.18
23.38
22.49
21.52
20.35
18.82
16.82
14.41
11.73
8.99
6.28
3.64
0.97
-1.78
-4.61
-7.48
-10.33
-13.16
-16.11
-19.31
-22.8
-26.39
-29.7
-32.25
-33.55
-33.31
-31.41
-27.94
-23.13
-17.29
-10.78
-4.11
2.24
7.76
12.14
15.22
17.1
17.98
18.11
17.77
17.17
16.55
16.05
15.74
15.56
15.32
14.84
13.95
12.63
10.97
9.19
7.47
5.9
4.5
3.16
1.73
0.11
-1.8
-4.01
-6.53
-9.39
-12.6
-16.07
-19.63
-22.91
-25.42
-26.64
-26.26
-24.24
-20.83
-16.44
-11.47
-6.23
-0.92
4.27
9.04
13.03
15.84
17.23
17.25
16.24
14.71
13.16
11.9
10.99
10.3
9.68
9.05
8.45
7.95
7.56
7.16
6.54
5.45
3.81
1.68
-0.73
-3.21
-5.62
-7.98
-10.41
-13.08
-16.18
-19.8
-23.94
-28.39
-32.7
-36.34
-38.66
-39.19
-37.71
-34.32
-29.39
-23.41
-16.86
-10.12
-3.47
2.84
8.58
13.51
17.44
20.24
21.9
22.53
22.33
21.54
20.39
19.08
17.77
16.56
15.55
14.79
14.27
13.94
13.66
13.19
12.32
10.88
8.84
6.28
3.42
0.5
-2.3
-4.91
-7.4
-9.9
-12.62
-15.76
-19.39
-23.41
-27.53
-31.21
-33.92
-35.18
-34.69
-32.44
-28.61
-23.43
-17.18
-10.21
-2.94
4.07
10.21
14.99
18.2
19.96
20.65
20.7
20.49
20.22
19.94
19.69
19.43
19.18
18.97
18.81
18.63
18.36
17.86
17.02
15.78
14.14
12.22
10.14
8
5.82
3.54
1.12
-1.47
-4.16
-6.86
-9.51
-12.13
-14.87
-17.88
-21.25
-24.94
-28.67
-31.91
-34.05
-34.56
-33.14
-29.79
-24.8
-18.62
-11.77
-4.73
2.04
8.09
13.04
16.61
18.76
19.66
19.74
19.43
19.04
18.68
18.28
17.73
17
16.21
15.58
15.29
15.38
15.7
15.89
15.63
14.7
13.07
10.9
8.45
5.97
3.62
1.49
-0.49
-2.51
-4.77
-7.48
-10.71
-14.32
-17.93
-20.99
-22.93
-23.33
-22.02
-19.09
-14.85
-9.7
-4.1
1.52
6.79
11.36
14.95
17.4
18.67
18.9
18.36
17.37
16.24
15.15
14.19
13.34
12.57
11.9
11.35
10.93
10.56
10.05
9.22
7.93
6.14
3.89
1.27
-1.61
-4.67
-7.76
-10.83
-13.72
-16.5
-19.29
-22.32
-25.78
-29.67
-33.71
-37.36
-39.88
-40.65
-39.31
-35.97
-31.14
-25.6
-20.1
-15.17
-11.06
-7.76
-5.17
-3.17
-1.62
-0.33
1.02
2.8
5.35
8.73
12.7
16.71
20.18
22.63
23.9
24.06
23.36
22.02
20.18
17.87
15.16
12.15
9.03
6
3.19
0.56
-1.95
-4.46
-6.99
-9.54
-12.07
-14.69
-17.62
-21.1
-25.3
-30.06
-34.92
-39.15
-41.99
-42.8
-41.29
-37.47
-31.61
-24.17
-15.69
-6.79
1.89
9.67
15.99
20.51
23.24
24.49
24.74
24.5
24.12
23.71
23.26
22.69
22.02
21.26
20.48
19.67
18.71
17.46
15.83
13.86
11.73
9.61
7.6
5.63
3.51
1.11
-1.55
-4.3
-6.89
-9.22
-11.4
-13.74
-16.57
-20.09
-24.23
-28.66
-32.86
-36.23
-38.16
-38.07
-35.57
-30.51
-23.18
-14.27
-4.74
4.36
12.17
18.22
22.45
25.09
26.54
27.13
27.11
26.63
25.79
24.75
23.67
22.73
22.04
21.57
21.17
20.59
19.62
18.14
16.18
13.9
11.44
8.91
6.29
3.54
0.62
-2.42
-5.5
-8.54
-11.6
-14.84
-18.53
-22.77
-27.38
-31.83
-35.32
-36.99
-36.13
-32.41
-26.02
-17.61
-8.18
1.17
9.49
16.17
20.99
24.13
25.92
26.74
26.9
26.61
25.99
25.14
24.13
23.07
22.02
20.99
19.98
18.95
17.86
16.74
15.55
14.31
12.95
11.38
9.49
7.18
4.47
1.47
-1.66
-4.83
-8.01
-11.32
-14.8
-18.33
-21.52
-23.71
-24.18
-22.31
-17.76
-10.6
-1.27
9.41
20.42
30.58
38.81
44.21
46.38
45.37
41.76
36.37
30.05
23.48
17.07
11.02
5.4
0.27
-4.27
-8.1
-11.19
-13.64
-15.65
-17.51
-19.48
-21.7
-24.2
-26.9
-29.69
-32.49
-35.21
-37.8
-40.16
-42.2
-43.83
-45.07
-46.09
-47.14
-48.48
-50.11
-51.74
-52.85
-52.82
-51.18
-47.71
-42.48
-35.73
-27.82
-19.13
-10.12
-1.35
6.64
13.36
18.57
22.32
24.88
26.63
27.86
28.77
29.4
29.75
29.83
29.7
29.43
29.09
28.67
28.18
27.56
26.83
26.02
25.16
24.28
23.27
22.03
20.36
18.18
15.47
12.33
8.89
5.27
1.55
-2.25
-6.12
-10.03
-13.89
-17.52
-20.66
-22.94
-23.94
-23.29
-20.79
-16.59
-11.2
-5.33
0.24
4.93
8.39
10.6
11.74
12.09
11.96
11.58
11.13
10.63
10.05
9.33
8.44
7.49
6.67
6.19
6.15
6.45
6.8
6.85
6.31
5.15
3.52
1.77
0.18
-1.12
-2.21
-3.33
-4.8
-6.9
-9.79
-13.45
-17.6
-21.78
-25.36
-27.65
-28.09
-26.38
-22.63
-17.27
-11
-4.54
1.52
6.74
10.94
14.06
16.14
17.28
17.63
17.42
16.88
16.28
15.78
15.47
15.31
15.23
15.13
14.92
14.55
13.93
13.03
11.82
10.33
8.61
6.72
4.71
2.57
0.25
-2.35
-5.28
-8.59
-12.37
-16.67
-21.51
-26.69
-31.78
-36.02
-38.55
-38.65
-35.98
-30.77
-23.68
-15.66
-7.59
-0.14
6.37
11.84
16.25
19.62
21.97
23.38
24.03
24.19
24.11
23.98
23.82
23.55
23.04
22.23
21.23
20.17
19.25
18.51
17.81
16.84
15.28
12.93
9.85
6.32
2.69
-0.7
-3.71
-6.42
-9.07
-12
-15.49
-19.71
-24.62
-29.9
-34.98
-39.12
-41.56
-41.71
-39.32
-34.49
-27.73
-19.74
-11.31
-3.17
4.16
10.33
15.21
18.86
21.43
23.11
24.1
24.56
24.66
24.54
24.27
23.88
23.39
22.8
22.18
21.64
21.25
21.04
20.95
20.84
20.53
19.97
