-11.99
-10.19
-7.83
-4.88
-1.42
2.32
5.86
8.58
9.97
9.87
8.46
6.24
3.77
1.44
-0.59
-2.32
-3.79
-5
-5.81
-6.15
-5.97
-5.42
-4.77
-4.32
-4.27
-4.69
-5.52
-6.61
-7.84
-9.14
-10.42
-11.5
-12.11
-11.87
-10.44
-7.73
-3.96
0.34
4.5
7.94
10.34
11.64
12.03
11.69
10.77
9.38
7.59
5.62
3.71
2.15
1.12
0.59
0.32
-0.04
-0.76
-1.9
-3.32
-4.76
-5.94
-6.74
-7.2
-7.56
-8.05
-8.88
-10.08
-11.46
-12.6
-12.94
-11.99
-9.46
-5.49
-0.61
4.4
8.8
12.07
14.02
14.75
14.5
13.5
11.97
10.07
8.05
6.14
4.59
3.5
2.82
2.33
1.79
1.02
0
-1.12
-2.15
-2.91
-3.37
-3.65
-4.01
-4.71
-5.89
-7.43
-8.92
-9.7
-9.09
-6.75
-2.8
2.09
6.94
10.81
13.12
13.8
13.2
11.84
10.19
8.53
6.92
5.33
3.72
2.13
0.6
-0.75
-1.81
-2.51
-2.81
-2.81
-2.61
-2.36
-2.16
-2.07
-2.16
-2.51
-3.22
-4.21
-5.17
-5.43
-4.25
-1.07
4.11
10.66
17.48
23.39
27.59
29.84
30.43
29.96
29.04
28.01
27.02
26.06
25.07
24.11
23.23
22.45
21.8
21.27
20.86
20.59
20.44
20.32
20.08
19.49
18.27
16.33
13.79
11.05
8.76
7.57
7.92
9.88
13.07
16.83
20.4
23.18
24.91
25.65
25.74
25.55
25.37
25.29
25.12
24.57
23.33
21.19
18.11
14.17
9.54
4.51
-0.5
-4.93
-8.24
-10.12
-10.75
-10.84
-11.48
-13.68
-17.94
-24.04
-31.12
-38
-43.63
-47.4
-49.18
-49.26
-48.14
-46.38
-44.47
-42.77
-41.46
-40.52
-39.82
-39.11
-38.22
-37.11
-36.02
-35.41
-35.84
-37.73
-41.1
-45.43
-49.76
-52.96
-54.14
-52.94
-49.64
-45.04
-40.06
-35.44
-31.56
-28.31
-25.29
-21.99
-17.97
-13.09
-7.49
-1.59
4.05
8.91
12.61
15.01
16.15
16.24
15.51
14.23
12.7
11.22
10.02
9.21
8.73
8.43
8.07
7.54
6.8
5.96
5.14
4.39
3.67
2.81
1.63
0.03
-1.92
-3.93
-5.56
-6.29
-5.75
-3.74
-0.43
3.67
7.86
11.35
13.51
14.02
12.95
10.66
7.73
4.74
2.18
0.33
-0.73
-1.14
-1.19
-1.21
-1.49
-2.14
-3.08
-4.05
-4.74
-4.94
-4.63
-4.07
-3.62
-3.77
-4.8
-6.7
-9.02
-10.96
-11.59
-10.21
-6.64
-1.4
4.48
9.77
13.46
15.11
14.84
13.16
10.71
8
5.34
2.82
0.46
-1.68
-3.5
-4.85
-5.61
-5.79
-5.53
-5.07
-4.66
-4.49
-4.64
-5.1
-5.86
-7.01
-8.62
-10.67
-12.79
-14.33
-14.42
-12.28
-7.66
-0.93
6.92
14.59
20.91
25.25
27.61
28.53
28.76
28.89
29.14
29.36
29.16
28.27
26.7
24.77
23.05
22.06
22.03
22.85
24.08
25.21
25.84
25.77
25.03
23.78
22.34
21.12
20.73
21.84
24.88
29.82
36.02
42.28
47.22
49.72
49.3
46.25
41.32
35.49
29.51
23.73
18.12
12.45
6.49
0.16
-6.39
-12.9
-19.05
-24.59
-29.39
-33.43
-36.77
-39.44
-41.57
-43.3
-44.87
-46.46
-48.08
-49.43
-49.98
-49.03
-45.99
-40.67
-33.28
-24.43
-14.93
-5.63
2.75
9.62
14.57
17.45
18.37
17.8
16.36
14.68
13.16
11.85
10.54
9
7.08
4.85
2.51
0.29
-1.69
-3.44
-5.06
-6.65
-8.3
-9.99
-11.6
-12.94
-13.76
-13.84
-13.07
-11.48
-9.22
-6.54
-3.66
-0.81
1.86
4.1
5.64
6.18
5.56
3.89
1.52
-0.97
-3.07
-4.41
-4.93
-4.83
-4.52
-4.49
-5.25
-7.16
-10.28
-14.19
-18.11
-21.1
-22.45
-22.03
-20.34
-18.28
-16.73
-16.18
-16.65
-17.81
-19.26
-20.61
-21.61
-21.98
-21.36
-19.43
-16
-11.17
-5.4
0.56
5.86
9.8
11.94
12.2
10.85
8.44
5.57
2.77
0.36
-1.49
-2.86
-3.84
-4.58
-5.29
-6.22
-7.59
-9.39
-11.33
-12.75
-12.89
-11.16
-7.51
-2.48
2.92
7.6
10.8
12.31
12.39
11.5
10.07
8.34
6.4
4.33
2.25
0.34
-1.27
-2.6
-3.77
-5
-6.42
-8.05
-9.74
-11.3
-12.55
-13.48
-14.23
-15.07
-16.25
-17.87
-19.63
-20.93
-20.94
-18.95
-14.67
-8.44
-1.12
6.16
12.35
16.81
19.33
20.08
19.42
17.73
15.4
12.81
10.28
8.04
6.2
4.69
3.38
2.16
0.98
-0.07
-0.85
-1.33
-1.57
-1.8
-2.29
-3.26
-4.83
-7
-9.63
-12.48
-15.14
-17.01
-17.44
-15.79
-11.76
-5.62
1.8
9.26
15.52
19.8
21.89
22.1
20.97
18.97
16.37
13.39
10.26
7.36
5.13
3.79
3.23
2.98
2.47
1.28
-0.6
-2.82
-4.86
-6.35
-7.21
-7.71
-8.3
-9.42
-11.38
-14.18
-17.52
-20.76
-23.06
-23.56
-21.62
-17.03
-10.22
-2.12
6.1
13.31
18.75
22.12
23.47
23.09
21.3
18.46
14.99
11.41
8.23
5.79
4.2
3.21
2.37
1.31
-0.12
-1.77
-3.32
-4.46
-5.11
-5.4
-5.66
-6.27
-7.55
-9.72
-12.74
-16.24
-19.39
-21.07
-20.15
-16.05
-9.01
-0.19
8.78
16.32
21.44
23.93
24.19
22.83
20.39
17.22
13.63
9.96
6.6
3.9
1.94
0.56
-0.65
-2.04
-3.79
-5.8
-7.78
-9.42
-10.58
-11.34
-12.01
-13.01
-14.71
-17.26
-20.5
-23.83
-26.33
-27.01
-25.09
-20.34
-13.28
-4.99
3.2
10.18
15.29
18.36
19.6
19.24
17.49
14.53
10.58
6.04
1.41
-2.88
-6.61
-9.86
-12.91
-16.07
-19.57
-23.45
-27.66
-32.12
-36.78
-41.68
-46.88
-52.51
-58.72
-65.63
-73.15
-80.9
-88.07
-93.47
-95.76
-93.87
-87.41
-76.91
-63.81
-50.24
-38.59
-31.08
-29.32
-33.91
-44.3
-58.77
-74.81
-89.65
-100.97
-107.56
-109.66
-108.81
-107.22
-107
-109.28
-113.69
-118.47
-120.97
-118.6
-109.85
-94.75
-74.88
-52.66
-30.46
-9.88
8.58
25.18
40.47
54.85
68.4
80.88
91.84
100.72
106.64
108.53
105.17
95.74
80.29
60.08
37.41
15.14
-4.14
-18.79
-28.34
-33.38
-35.06
-34.52
-32.47
-29.2
-24.76
-19.14
-12.61
-5.59
1.46
8.22
14.66
20.99
27.61
34.97
43.48
53.3
64.34
76.1
87.77
98.42
107.22
113.68
117.76
119.72
119.98
118.85
116.54
113.12
108.77
103.8
98.71
94.02
90.14
87.08
84.62
82.29
79.62
76.45
72.76
68.43
63.06
56.05
47.22
37.16
27.24
18.87
12.61
7.67
2.31
-5.04
-14.68
-25.33
-34.98
-42.28
-47.61
-53.07
-61.31
-74.02
-91.05
-110.53
-129.96
-147.44
-162.34
-175.35
-187.97
-202.22
-219.89
-242.19
-269.28
-299.79
-330.65
-357.5
-375.76
-381.9
-374.67
-355.25
-326.81
-293.29
-258.19
-223.86
-191.44
-161.34
-133.64
-108.33
-85.21
-63.81
-43.38
-23.13
-2.64
18.07
38.63
58.72
78.49
98.47
119.13
140.18
160.17
176.56
186.47
187.62
179.18
162
138.43
111.87
86.26
65.55
53.15
51.18
59.82
77.08
99.22
121.79
140.94
154.37
161.6
163.46
161.32
156.4
149.37
140.55
130.14
118.5
106.25
94.14
82.8
72.61
63.57
55.38
47.64
39.93
31.78
22.64
11.88
-0.97
-15.64
-30.71
-43.55
-50.91
-49.99
-39.62
-20.85
3.33
29.01
52.58
71.7
85.55
94.41
99.1
100.39
98.84
94.88
89.01
81.85
74.04
66.18
58.67
51.72
45.36
39.51
34.07
28.91
23.86
18.58
12.58
5.16
-4.23
-15.63
-28.03
-39.28
-46.53
-47.07
-39.38
-23.76
-2.36
21.56
44.67
64.44
79.51
89.59
95.01
96.41
94.51
90.17
84.37
78.06
72
66.56
61.66
56.99
52.23
47.21
42.06
37
32.27
27.84
23.38
18.22
11.57
2.77
-8.28
-20.72
-32.71
-41.7
-45.19
-41.55
-30.68
-14.04
5.81
26.06
44.41
59.41
70.49
77.56
80.78
80.46
77.13
71.6
64.95
58.27
52.33
47.4
43.23
39.21
34.75
29.65
24.11
18.66
13.81
9.7
6
1.95
-3.37
-10.65
-19.96
-30.54
-40.79
-48.54
-51.61
-48.46
-38.78
-23.61
-5.15
13.96
31.37
45.5
55.69
61.95
64.59
64.03
60.76
55.44
48.9
42.04
35.59
29.97
25.23
21.16
17.47
13.94
10.46
7.04
3.68
0.25
-3.62
-8.48
-14.94
-23.24
-32.92
-42.55
-49.95
-52.77
-49.37
-39.45
-24.26
-6.19
12.02
28.03
40.4
48.6
52.75
53.33
50.98
46.43
40.51
34.11
27.98
22.63
18.19
14.53
11.33
8.29
5.19
1.98
-1.38
-4.9
-8.75
-13.24
-18.85
-25.95
-34.53
-43.86
-52.44
-58.2
-59.07
-53.71
-42.04
-25.42
-6.27
12.64
29
41.46
49.71
54.19
55.64
54.79
52.16
48.17
43.2
37.69
32.03
26.55
21.4
16.59
12.08
7.81
3.78
-0.02
-3.7
-7.51
-11.95
-17.58
-24.87
-33.84
-43.69
-52.76
-58.83
-59.74
-54.23
-42.47
-26.02
-7.35
10.95
26.91
39.44
48.24
53.51
55.65
55.12
52.54
48.63
44.17
39.79
35.81
32.18
28.59
24.72
20.42
15.76
11
6.45
2.28
-1.58
-5.48
-10.03
-15.94
-23.69
-33.21
-43.49
-52.62
-58.26
-58.35
-51.9
-39.45
-22.89
-4.79
12.39
26.97
38.19
45.95
50.44
51.88
50.55
46.93
41.88
36.46
31.65
27.94
25.22
22.87
20.2
16.77
12.64
8.29
4.29
0.97
-1.75
-4.38
-7.64
-12.29
-18.84
-27.33
-37.14
-46.91
-54.67
-58.32
-56.3
-48.13
-34.71
-18.03
-0.56
15.49
28.63
38.22
44.24
46.99
46.83
44.2
39.64
33.86
27.7
21.91
16.96
12.95
9.66
6.72
3.82
0.83
-2.19
-5.12
-7.9
-10.78
-14.27
-19.03
-25.52
-33.64
-42.4
-50.01
-54.29
-53.34
-46.32
-33.77
-17.55
-0.22
15.75
28.53
37.33
42.16
43.5
42.05
38.47
33.42
27.54
21.5
15.8
10.79
6.58
3.07
0.09
-2.56
-5.05
-7.49
-10.03
-12.87
-16.37
-20.95
-27.05
-34.73
-43.41
-51.69
-57.54
-58.89
-54.37
-43.86
-28.69
-11.2
6.03
20.87
32.14
39.54
43.36
44.11
42.36
38.74
33.94
28.72
23.75
19.36
15.53
11.93
8.2
4.22
0.17
-3.61
-6.82
-9.51
-12.12
-15.36
-19.99
-26.54
-35
-44.68
-54.15
-61.45
-64.54
-61.94
-53.27
-39.46
-22.53
-4.89
11.34
24.89
35.33
42.8
47.57
49.78
49.53
47.03
42.9
38.03
33.43
29.78
27.22
25.3
23.28
20.49
16.69
12.16
7.52
3.35
-0.11
-3.13
-6.34
-10.49
-16.19
-23.68
-32.76
-42.69
-52.18
-59.52
-62.92
-60.99
-53.29
-40.55
-24.49
-7.32
8.93
22.83
33.77
41.7
46.87
49.58
50.11
48.77
46.01
42.38
38.52
34.97
32.11
30.06
28.7
27.74
26.77
25.37
23.27
20.31
16.51
12.01
6.97
1.6
-3.9
-9.34
-14.57
-19.55
-24.44
-29.66
-35.79
-43.29
-52.07
-61.15
-68.67
-72.32
-70.1
-61.21
-46.47
-28.2
-9.45
6.99
19.44
27.65
32.48
35.26
37.06
38.34
38.89
38.21
35.95
32.27
27.87
23.81
21.14
20.42
21.54
23.81
26.14
27.44
26.86
23.99
18.99
12.83
7.5
5.76
10.44
23.19
43.47
68.21
92.74
112.56
125.21
131.21
133.6
136.36
142.48
152.66
165.23
176.98
184.47
185.17
178.12
163.82
143.95
120.7
96.29
72.56
50.87
32.09
16.73
4.95
-3.54
-9.52
-14.19
-18.93
-24.79
-32.17
-40.65
-49.29
-57.01
-63.12
-67.53
-70.63
-72.96
-74.79
-75.9
-75.75
-73.75
-69.74
-64.07
-57.4
-50.24
-42.51
-33.44
-21.9
-6.98
11.37
32.25
54.03
74.85
93.24
108.33
119.88
128.06
133.3
136.15
137.23
137.16
136.37
134.93
132.4
128.01
120.87
110.34
96.34
79.42
60.62
41.09
21.84
3.42
-13.95
-30.26
-45.4
-59.03
-70.56
-79.4
-85.23
-88.05
-88.26
-86.47
-83.28
-79.24
-74.77
-70.22
-65.86
-61.87
-58.31
-55.08
-52.01
-48.9
-45.68
-42.45
-39.43
-36.83
-34.82
-33.4
-32.5
-32.06
-32.11
-32.76
-34.11
-36.19
-38.87
-41.95
-45.18
-48.41
-51.57
-54.63
-57.6
-60.4
-62.92
-65.09
-66.88
-68.38
-69.69
-70.91
-72.06
-73.07
-73.82
-74.24
-74.31
-74.1
-73.72
-73.28
-72.82
-72.37
-71.9
-71.41
-70.87
-70.23
-69.36
-68.07
-66.22
-63.81
-60.98
-58.03
-55.28
-52.95
-51.16
-49.92
-49.21
-49.13
-49.89
-51.78
-55.03
-59.78
-65.93
-73.23
-81.24
-89.63
-98.22
-107.19
-117.1
-128.73
-142.86
-159.88
-179.58
-201.02
-222.75
-243.15
-260.84
-274.99
-285.43
-292.59
-297.23
-300.08
-301.41
-300.7
-296.61
-287.34
-271.19
-247.22
-215.81
-178.7
-138.72
-99.19
-63.19
-32.92
-9.5
7.09
17.73
23.72
26.5
27.47
28
29.47
33.22
40.2
50.43
62.69
74.61
83.31
86.38
82.63
72.54
58.05
41.99
27.33
16.58
11.38
12.46
19.59
31.75
47.36
64.53
81.46
96.72
109.46
119.4
126.65
131.47
134.09
134.69
133.45
130.64
126.7
122.18
117.57
113.16
108.95
104.74
100.23
95.15
89.34
82.77
75.47
67.58
59.28
50.78
42.28
33.87
25.51
16.9
7.61
-2.74
-14.12
-25.75
-36.1
-43.14
-44.94
-40.4
-29.71
-14.27
3.76
22.14
39.17
53.89
65.97
75.4
82.24
86.57
88.57
88.6
87.27
85.23
83.05
81
79.04
76.91
74.32
71.15
67.52
63.74
60.1
56.7
53.34
49.61
45.04
39.34
32.58
25.1
17.42
10.02
3.19
-3.09
-9.09
-15.31
-22.31
-30.52
-39.92
-49.8
-58.74
-64.89
-66.47
-62.41
-52.69
-38.45
-21.62
-4.28
11.8
25.57
36.64
45.09
51.21
55.25
57.42
57.95
57.15
55.39
53.05
50.43
47.7
44.9
42.08
39.36
36.88
34.72
32.8
30.84
28.43
25.22
21.03
15.92
10.19
4.21
-1.65
-7.15
-12.26
-17.17
-22.36
-28.36
-35.53
-43.63
-51.62
-57.79
-60.18
-57.36
-48.95
-35.88
-20.08
-3.85
10.84
22.83
31.78
38.01
42.06
44.42
45.42
45.26
44.08
42.09
39.58
36.91
34.39
32.2
30.35
28.7
27
25.03
22.62
19.68
16.23
12.29
7.95
3.33
-1.38
-6.02
-10.49
-14.91
-19.55
-24.85
-31.15
-38.46
-46.24
-53.37
-58.31
-59.53
-55.99
-47.55
-35.08
-20.21
-4.81
9.5
21.72
31.47
38.92
44.35
48.08
50.3
51.19
50.93
49.79
48.02
45.83
43.35
40.59
37.56
34.34
31.1
28.06
25.38
23.08
20.9
18.45
15.25
10.98
5.54
-0.84
-7.72
-14.56
-20.89
-26.54
-31.71
-36.9
-42.75
-49.66
-57.39
-64.96
-70.71
-72.84
-70.03
-61.94
-49.35
-33.93
-17.65
-2.23
11.23
22.21
30.67
36.75
40.62
42.49
42.65
41.5
39.61
37.5
35.56
33.91
32.38
30.68
28.54
25.99
23.28
20.79
18.76
17.08
15.29
12.83
9.29
4.7
-0.53
-5.81
-10.71
-15.07
-19.13
-23.29
-28
-33.58
-40.13
-47.38
-54.57
-60.45
-63.47
-62.22
-55.9
-44.71
-29.9
-13.38
2.89
17.45
29.62
39.41
47.13
53.15
57.63
60.59
62.1
62.45
62.13
61.76
61.87
62.72
64.27
66.23
68.32
70.4
72.56
74.96
77.78
80.92
84.1
86.95
89.21
90.95
92.59
94.68
97.64
101.61
106.35
111.43
116.48
121.33
126.05
130.81
135.67
140.48
144.86
148.26
150.05
149.58
146.31
139.95
130.68
119.23
106.74
94.5
83.51
74.17
66.29
59.27
52.54
45.83
39.24
33.19
28.12
24.34
21.91
20.61
19.91
19.03
17.04
13.04
6.39
-3.18
-15.56
-30.3
-46.8
-64.41
-82.5
-100.36
-117.28
-132.5
-145.42
-155.85
-164.04
-170.76
-176.98
-183.58
-190.98
-199.07
-207.28
-214.85
-221.18
-226.03
-229.52
-232.08
-234.29
-236.63
-239.38
-242.46
-245.38
-247.33
-247.38
-244.78
-239.13
-230.46
-218.98
-204.85
-188.13
-168.83
-147.21
-124.02
-100.55
-78.34
-58.88
-43.23
-31.76
-24.27
-20.08
-18.32
-18.17
-19.04
-20.66
-23.12
-26.82
-32.24
-39.64
-48.71
-58.3
-66.57
-71.31
-70.68
-63.85
-51.35
-34.91
-16.94
0.29
15.21
27.18
36.25
42.78
47.01
49.05
48.88
46.6
42.63
37.63
32.43
27.69
23.76
20.5
17.44
14
9.81
4.92
-0.2
-4.87
-8.49
-10.77
-11.83
-12.05
-11.94
-11.81
-11.74
-11.45
-10.35
-7.64
-2.33
6.56
19.72
37.31
58.76
82.78
107.57
131.18
151.97
168.89
181.52
189.94
194.33
194.78
191.19
183.52
172.16
158.15
143.07
128.61
115.97
105.56
97
89.57
82.69
76.2
70.14
64.45
58.61
51.67
42.6
30.73
16.1
-0.41
-17.27
-32.63
-44.76
-52.61
-56.15
-56.5
-55.68
-55.9
-58.6
-63.92
-70.6
-76.77
-81.01
-83.18
-84.59
-87.29
-92.95
-101.85
-112.39
-121.52
-125.59
-121.33
-106.53
-80.47
-44.09
-0.18
46.7
90.73
125.91
147.54
153.54
144.87
125.05
98.75
70.38
43.18
19.04
-1.11
-16.88
-28.27
-35.8
-40.61
-44.22
-48.01
-52.73
-58.28
-63.94
-68.77
-71.87
-72.59
-70.48
-65.27
-56.95
-45.95
-33.17
-19.84
-7.08
4.48
14.95
25.18
36.28
49.14
63.82
79.16
92.91
102.21
104.56
98.62
84.88
65.74
45
26.91
15.04
11.29
15.25
24.4
34.92
43.06
46.29
44.01
37.26
27.74
16.69
4.18
-10.83
-29.82
-53.82
-82.81
-115.58
-149.86
-182.56
-210.17
-229.34
-237.61
-234.14
-219.88
-197.19
-168.89
-137.42
-104.68
-72.49
-43.22
-19.89
-5.41
-1.34
-6.96
-19.36
-34.61
-49.11
-60.46
-67.28
-68.51
-63.1
-50.39
-31.09
-7.78
15.62
35.41
49.75
59.26
66.26
73.06
80.61
88.11
93.9
96.65
96.19
93.42
89.55
85.28
80.49
74.6
67.01
57.49
46.23
33.45
19.36
4.44
-10.06
-21.63
-26.67
-21.42
-3.32
27.67
68.34
112.75
153.65
184.36
200.32
199.86
184
155.74
119.18
78.82
39.13
4.27
-22.12
-37.21
-39.22
-27.52
-2.75
33.33
77.9
127.19
176.67
221.4
256.85
279.77
288.99
285.72
273.05
255.09
235.87
218.53
204.93
195.55
189.65
185.37
180.16
171.31
156.84
136.29
111.17
84.67
60.81
43.19
33.93
33.27
39.75
50.98
64.56
78.81
92.97
107.1
121.6
136.7
152.24
167.6
181.91
194.29
203.95
210.17
212.31
209.91
202.84
191.56
177.17
161.17
145.12
130.14
116.71
104.6
93.17
81.72
69.84
57.5
44.97
32.66
20.82
9.44
-1.78
-13.3
-25.52
-38.6
-52.33
-66.21
-79.68
-92.4
-104.47
-116.47
-129.31
-143.88
-160.73
-179.86
-200.77
-222.64
-244.69
-266.4
-287.65
-308.82
-330.65
-354.08
-379.77
-407.49
-435.55
-460.72
-478.77
-485.59
-478.53
-457.18
-423.6
-381.59
-335.6
-289.6
-246.33
-207.18
-172.44
-141.85
-115.11
-92.1
-72.87
-57.37
-45.12
-35.19
-26.49
-18.41
-11.36
-6.81
-6.63
-12.12
-23.08
-37.6
-52.71
-65.6
-74.85
-81.12
-86.81
-95.03
-108.23
-127.17
-150.49
-174.98
-196.22
-209.38
-209.93
-194.57
-162.22
-115.19
-59.44
-3.76
42.55
72.73
84.91
82.69
73.46
65.31
63.89
70.76
83.6
97.89
108.91
113.13
108.73
95.52
74.7
48.54
20.12
-7.47
-31.8
-51.67
-67.2
-79.41
-89.59
-98.88
-108.08
-117.75
-128.19
-139.38
-150.87
-161.97
-172.16
-181.35
-189.75
-197.33
-203.05
-204.73
-199.71
-186.03
-163.86
-135.87
-106.47
-80.2
-59.96
-46.07
-36.48
-27.95
-17.51
-3.64
13.51
32.42
50.99
67.17
79.31
86.18
86.88
81.1
69.4
53.62
36.82
22.56
13.92
12.37
17.17
25.85
35.36
43.41
49.53
54.97
61.79
71.59
84.56
99.36
113.83
126.06
135.19
141.37
145.16
146.96
147.1
146.16
145.4
146.2
149.12
152.71
153.62
147.92
133.29
110.87
85.22
62.57
48.03
43.49
47.34
55.98
66.08
76.19
86.73
98.75
112.46
126.63
139.19
148.37
153.97
157.5
161.2
166.52
173.02
178.33
179.2
173.22
160.01
141.5
120.98
101.66
85.48
72.64
62.05
52.16
41.76
30.34
18.07
5.55
-6.4
-16.81
-24.62
-28.78
-28.45
-23.33
-13.72
-0.47
15.26
32.18
48.98
64.24
76.63
85.04
88.98
88.73
85.22
79.68
73.27
66.71
60.47
54.9
50.36
47.14
45.26
44.29
43.37
41.56
38.09
32.68
25.55
17.26
8.54
0.18
-7.11
-12.85
-16.98
-20.01
-22.93
-26.95
-32.98
-41.36
-51.75
-63.43
-75.73
-88.39
-101.67
-116.09
-132.14
-149.97
-169.25
-189.43
-210.03
-230.81
-252.03
-274.24
-298.2
-324.55
-353.71
-385.55
-419.05
-451.8
-479.83
-497.89
-500.63
-484.11
-447.13
-391.63
-321.89
-243.17
-160.43
-77.95
0.36
70.36
127.83
169.33
193.52
201.98
198.81
189.19
177.49
166.11
155.37
144.48
132.63
119.76
106.57
93.87
82.05
70.76
59.14
46.23
31.42
14.72
-3.39
-22.03
-40.16
-56.66
-70.41
-80.47
-86.31
-87.98
-86.18
-82.13
-77.25
-72.85
-69.88
-68.89
-70.07
-73.23
-77.94
-83.56
-89.49
-95.27
-100.86
-106.6
-112.93
-120.14
-127.98
-135.66
-142.09
-146.49
-148.87
-150.18
-151.95
-155.48
-161.2
-168.32
-175.02
-179.03
-178.13
-170.37
-154.16
-128.54
-93.84
-52.49
-9.18
30.12
60.28
79.15
88.69
94.31
102.51
118.24
143.31
176.62
215.68
258.22
302.83
348.31
392.55
431.86
461.53
477.5
478
464.48
441.11
413.32
385.92
361.83
341.72
324.64
308.94
293.09
276.16
257.72
237.8
216.66
194.96
173.68
154.18
137.79
125.32
116.64
110.58
105.25
98.61
89.05
75.87
59.39
40.74
21.55
3.48
-12.22
-24.91
-34.7
-42.19
-48.28
-53.81
-59.44
-65.56
-72.43
-80.15
-88.7
-97.81
-106.96
-115.42
-122.44
-127.45
-130.22
-130.81
-129.43
-126.3
-121.57
-115.43
-108.26
-100.7
-93.63
-87.97
-84.33
-82.81
-82.96
-83.88
-84.51
-83.92
-81.4
-76.64
-69.63
-60.65
-50.21
-39
-27.79
-17.4
-8.53
-1.65
3.14
6.14
8.01
9.56
11.51
14.22
17.53
20.93
23.73
25.48
26.2
26.45
27.07
28.68
31.3
34.23
36.3
36.44
34.24
30.22
25.66
22.19
21.16
23.31
28.61
36.2
44.63
52.03
56.43
56.12
50.16
38.62
22.61
4
-15.27
-33.65
-50.4
-65.55
-79.65
-93.18
-106.17
-117.82
-126.62
-130.75
-128.8
-120.48
-106.94
-90.54
-73.99
-59.24
-46.85
-35.9
-24.78
-12.1
2.54
18.55
34.85
50.49
65.08
78.83
92.27
105.9
119.92
134.09
147.69
159.51
167.84
170.78
166.57
154.23
133.97
107.24
76.57
44.95
15.15
-10.77
-31.8
-48
-60.25
-69.76
-77.72
-84.95
-91.91
-98.72
-105.31
-111.45
-116.72
-120.48
-122
-120.63
-116.08
-108.59
-98.8
-87.49
-75.08
-61.63
-46.89
-30.75
-13.59
3.58
19.38
32.6
42.62
49.65
54.61
58.75
63.26
68.92
75.88
83.63
90.97
96.28
98.03
95.35
88.39
78.35
66.96
55.7
45.21
35.09
24.21
11.41
-3.92
-21.52
-40.26
-58.51
-74.46
-86.49
-93.52
-95.28
-92.5
-86.79
-80.19
-74.63
-71.18
-69.93
-70.01
-70.08
-68.91
-65.86
-61.05
-55.24
-49.48
-44.66
-41.16
-38.68
-36.38
-33.25
-28.59
-22.17
-14.27
-5.44
3.83
13.19
22.54
31.89
41.41
51.4
62.34
74.66
88.4
102.6
115.18
123.24
124.11
116.47
101.09
80.81
59.47
40.63
26.37
16.88
10.91
6.72
3.01
-0.64
-3.97
-6.55
-8.4
-10.21
-13.27
-18.94
-28.1
-40.68
-55.45
-70.2
-82.41
-89.97
-91.86
-88.35
-80.8
-71.17
-61.47
-53.4
-48.14
-46.25
-47.51
-50.79
-54.2
-55.53
-53
-45.91
-34.78
-21.07
-6.56
7.3
19.63
30.04
38.41
44.77
49.36
52.74
55.67
58.9
62.84
67.37
71.95
75.93
78.85
80.69
81.7
82.12
81.88
80.47
77.09
71.14
62.56
52.12
41.11
30.82
22.06
14.85
8.65
2.79
-3.14
-9.26
-15.63
-22.45
-30.1
-38.8
-48.38
-58.22
-67.55
-75.83
-83.02
-89.46
-95.52
-101.38
-106.84
-111.46
-114.74
-116.19
-115.29
-111.54
-104.61
-94.69
-82.6
-69.76
-57.67
-47.5
-39.68
-34.03
-30.04
-27.16
-25.06
-23.6
-22.71
-22.31
-22.22
-22.23
-22.23
-22.25
-22.49
-23.24
-24.71
-26.92
-29.63
-32.36
-34.54
-35.67
-35.5
-34.1
-31.87
-29.43
-27.48
-26.68
-27.51
-30.21
-34.7
-40.54
-46.95
-52.97
-57.72
-60.67
-61.84
-61.8
-61.34
-61.12
-61.4
-62.01
-62.6
-62.96
-63.13
-63.36
-63.86
-64.59
-65.32
-65.89
-66.45
-67.36
-68.99
-71.22
-73.28
-73.89
-71.6
-65.17
-53.9
-37.7
-17.19
6.27
30.61
53.36
72.18
85.58
93.33
96.51
96.95
96.51
96.42
97.13
98.4
99.59
99.92
98.51
94.57
87.57
77.58
65.43
52.59
40.86
31.87
26.58
25.12
26.92
30.91
35.93
40.87
44.89
47.38
48.08
47.09
44.84
41.95
38.96
36.06
33.03
29.34
24.57
18.88
13.33
9.68
9.76
14.59
23.74
35.26
46.36
54.4
57.75
56.22
50.74
42.63
33.08
22.84
12.37
2.24
-6.71
-13.57
-17.79
-19.57
-19.93
-20.32
-22.07
-25.89
-31.56
-37.94
-43.28
-45.78
-44.29
-39.04
-31.92
-26.23
-25.59
-32.61
-47.65
-68.65
-91.94
-113.75
-131.73
-145.47
-156.08
-164.77
-171.69
-175.41
-173.55
-163.91
-145.72
-120.11
-89.64
-57.35
-25.8
3.38
29.39
51.87
70.8
86.52
99.92
112.35
125.13
138.83
152.85
165.58
175.08
179.96
179.83
175.27
167.25
156.7
144.21
130.33
115.75
101.48
88.59
77.81
69.23
62.36
56.38
50.61
44.74
38.86
33.27
28.13
23.33
18.39
12.69
5.65
-2.9
-12.6
-22.65
-31.92
-39.44
-44.67
-47.68
-49.1
-49.93
-51.2
-53.57
-57.11
-61.1
-64.08
-64.15
-59.51
-49.13
-33.2
-13.28
8.22
28.72
46.33
60.26
70.71
78.36
83.88
87.57
89.38
89.13
86.78
82.49
76.64
69.62
61.84
53.57
45.05
36.4
27.68
18.87
9.97
1
-7.9
-16.6
-25.08
-33.44
-41.92
-50.61
-59.3
-67.46
-74.46
-79.95
-84.14
-87.87
-92.29
-98.39
-106.57
-116.59
-127.74
-139.19
-150.39
-161.26
-172.13
-183.63
-196.47
-211.1
-227.33
-244.02
-258.98
-269.38
-272.5
-266.68
-251.97
-230.26
-204.86
-179.68
-158.17
-142.49
-132.97
-128.07
-124.85
-119.9
-110.36
-94.79
-73.36
-47.55
-19.38
9.2
36.49
60.78
80
91.61
93.14
83.09
61.78
31.77
-2.42
-35.2
-61.09
-75.97
-77.81
-66.85
-45.17
-15.89
17.68
52.59
86.43
117.26
143.42
163.74
177.69
185.8
189.67
191.62
193.95
198.24
204.97
213.57
222.95
231.97
239.72
245.42
248.06
246.17
237.86
221.33
195.46
160.41
117.72
70.02
20.41
-28.21
-73.64
-114.36
-149.44
-178.24
-200.29
-215.42
-223.96
-226.91
-225.9
-222.85
-219.62
-217.42
-216.62
-216.7
-216.55
-214.95
-210.92
-204.03
-194.36
-182.32
-168.52
-153.66
-138.64
-124.56
-112.55
-103.28
-96.43
-90.39
-82.68
-70.81
-53.31
-30.42
-3.96
23.43
49.32
72.18
91.59
107.73
120.85
130.94
137.67
140.77
140.34
137
131.78
125.78
119.83
114.29
109.07
103.79
98.05
91.59
84.21
75.7
65.72
54.01
40.79
27.3
15.87
9.48
10.83
21.19
39.89
64.4
91.28
117.3
140.31
159.55
175.27
188.1
198.62
207.25
214.48
220.98
227.68
235.49
244.86
255.57
266.73
277.07
285.47
291.35
294.86
296.69
297.61
298.1
298.05
296.78
293.32
286.82
276.89
263.9
248.78
232.79
216.97
201.8
187.04
172.15
156.73
140.96
125.49
111.05
97.88
85.48
72.88
59.16
43.94
27.46
10.21
-7.52
-25.96
-45.87
-68.05
-92.98
-120.19
-148.18
-174.41
-195.71
-208.97
-211.94
-203.86
-185.79
-160.36
-131.1
-101.62
-74.8
-52.45
-35.28
-23.31
-16.23
-13.75
-15.56
-21.17
-29.5
-38.95
-47.64
-54.07
-57.61
-58.53
-57.56
-55.25
-51.66
-46.57
-40.01
-32.64
-25.71
-20.47
-17.58
-16.78
-17.06
-17.24
-16.45
-14.52
-11.94
-9.74
-9.3
-12.06
-19.06
-30.44
-45.03
-60.23
-72.57
-78.62
-76.17
-65.04
-47.35
-26.97
-8.39
4.52
9.52
6.38
-3.39
-17.26
-32.45
-46.61
-58.02
-65.73
-69.39
-69.18
-65.67
-59.57
-51.5
-41.77
-30.5
-17.89
-4.56
8.27
18.95
25.82
27.67
24.11
15.58
3.29
-11.1
-25.73
-38.9
-49.28
-56.16
-59.53
-59.89
-58.04
-54.74
-50.54
-45.7
-40.33
-34.47
-28.21
-21.8
-15.65
-10.32
-6.35
-4.13
-3.77
-4.97
-7.18
-9.7
-11.86
-13.23
-13.62
-13.09
-11.86
-10.24
-8.52
-6.89
-5.41
-3.93
-2.23
-0.03
2.81
6.3
10.29
14.51
18.71
22.76
26.77
31.11
36.24
42.42
49.4
56.28
61.59
63.67
61.13
53.51
41.37
26.35
10.63
-3.69
-15.14
-23.1
-27.79
-29.89
-30.12
-29.09
-27.23
-24.95
-22.78
-21.29
-20.96
-21.89
-23.78
-26.05
-28.1
-29.51
-30.18
-30.24
-29.94
-29.54
-29.14
-28.71
-28.16
-27.34
-26.2
-24.73
-23.03
-21.15
-19.08
-16.72
-13.97
-10.84
-7.53
-4.36
-1.62
0.52
2.11
3.28
4.13
4.64
4.75
4.43
3.77
3
2.38
2.12
2.31
2.92
3.93
5.28
6.93
8.72
10.33
11.39
11.52
10.51
8.39
5.41
1.91
-1.78
-5.45
-9.08
-12.69
-16.3
-19.83
-23.17
-26.23
-29.12
-32.1
-35.56
-39.93
-45.47
-52.23
-59.97
-68.15
-76.07
-82.91
-87.92
-90.58
-90.77
-88.94
-86.3
-84.61
-85.86
-91.66
-102.54
-117.66
-134.94
-151.71
-165.74
-175.8
-181.79
-184.14
-183
-177.96
-168.16
-153.17
-133.65
-111.52
-89.41
-69.68
-53.5
-40.65
-29.94
-19.99
-9.83
0.76
11.43
21.55
30.62
38.27
44.45
49.36
53.37
56.91
60.34
63.96
67.86
71.99
76.07
79.62
81.85
81.7
78.09
70.32
58.74
45.01
32.14
23.8
23.16
31.8
49.06
72.16
97.1
119.9
137.55
148.57
152.85
151.18
144.77
134.97
123.16
110.67
98.6
87.62
77.79
68.75
59.85
50.57
40.69
30.5
20.72
12.48
7.05
5.41
7.78
13.36
20.45
26.98
31.24
32.51
31.11
28.1
24.6
21.3
18.21
15.1
11.86
8.83
6.61
5.67
5.91
6.47
6.11
3.73
-1.03
-7.56
-14.41
-19.8
-22.3
-21.39
-17.76
-13.02
-9.12
-7.71
-9.41
-13.76
-19.43
-24.91
-29.11
-31.68
-32.77
-32.67
-31.43
-28.95
-25.19
-20.52
-15.82
-12.13
-10.18
-10.11
-11.46
-13.25
-14.31
-13.44
-9.67
-2.54
7.56
19.2
30.17
38.1
41.32
39.52
33.86
26.39
19.19
13.63
10.1
8.24
7.39
6.87
6.11
4.57
1.75
-2.53
-7.93
-13.44
-17.57
-18.86
-16.52
-10.86
-3.28
4.26
9.86
12.24
11.02
6.62
-0.08
-8.07
-16.46
-24.48
-31.52
-37.02
-40.46
-41.29
-38.91
-32.75
-22.44
-7.99
9.89
29.71
49.5
67.17
81.05
90.18
94.29
93.55
88.16
78.21
63.75
45.28
24.11
2.48
-16.82
-31.22
-39.22
-40.88
-37.69
-31.84
-25.36
-19.28
-13.58
-7.54
-0.45
7.73
16.27
23.96
29.69
32.92
33.91
33.4
32.18
30.72
28.94
26.48
23.06
18.91
14.86
12.2
12.01
14.73
19.85
26.1
31.89
35.87
37.23
35.72
31.54
25.13
17.21
8.88
1.42
-3.85
-6.11
-5.35
-2.37
1.56
5.35
8.54
11.4
14.6
18.69
23.72
29.13
34.03
37.54
39.17
38.87
36.97
33.98
30.39
26.59
22.9
19.56
16.81
14.82
13.68
13.28
13.36
13.55
13.53
13.21
12.78
12.7
13.52
15.57
18.79
22.68
26.43
29.05
29.78
28.2
24.44
19.01
12.51
5.49
-1.79
-9.12
-16.23
-22.53
-27.29
-29.87
-30.11
-28.53
-26.24
-24.5
-24.21
-25.65
-28.37
-31.55
-34.37
-36.29
-37.16
-37.06
-36.22
-34.81
-32.91
-30.5
-27.58
-24.24
-20.69
-17.32
-14.5
-12.53
-11.44
-10.93
-10.42
-9.16
-6.47
-1.94
4.44
12.41
21.4
30.71
39.53
47.14
53.04
57.24
60.37
63.51
67.81
73.77
80.72
86.82
89.68
87.42
79.57
67.35
53.13
39.47
28.15
19.82
14.2
10.55
8.27
7.11
7.08
8.08
9.52
10.03
7.59
0.09
-13.85
-33.95
-57.92
-82
-102.02
-114.8
-119.07
-115.36
-105.43
-91.53
-76.09
-61.75
-51.25
-46.74
-48.7
-55.21
-62.44
-66.17
-63.84
-55.68
-44.41
-33.59
-25.87
-21.98
-21.19
-22.34
-24.86
-28.96
-34.93
-42.42
-50.19
-56.72
-61
-63.3
-64.99
-67.96
-73.89
-83.49
-96.3
-110.54
-123.3
-131.3
-132
-124.59
-110.53
-92.86
-74.87
-58.64
-44.4
-31.06
-17.62
-4.32
7.18
14.79
17.45
16.1
13.35
12.24
14.63
20.35
27.57
33.91
37.67
38.42
37.11
35.3
34.4
35.11
37.29
40.3
43.49
46.43
49.13
51.75
54.4
56.89
58.83
59.73
59.41
58.08
56.38
55.09
54.78
55.41
56.28
56.33
54.56
50.71
45.39
40.08
36.72
37.09
42.24
52.05
65.11
78.8
89.83
94.99
91.97
80.01
60.17
34.93
7.4
-19.5
-43.63
-63.72
-79.13
-89.57
-95.03
-95.94
-93.4
-89.21
-85.52
-84.32
-86.92
-93.69
-104.24
-117.47
-131.41
-142.92
-147.89
-142.3
-124.1
-94.92
-60.3
-28.02
-4.97
5.72
5.73
0.17
-5.26
-7.07
-4.96
-0.85
3.12
6.11
8.84
12.51
17.49
22.85
26.83
27.89
25.63
21.03
16
12.5
11.75
13.85
17.95
22.62
26.45
28.52
28.55
26.86
24.11
20.87
17.45
13.72
9.33
3.98
-2.33
-9.07
-15.4
-20.34
-23.25
-23.98
-22.87
-20.57
-17.7
-14.67
-11.6
-8.43
-5.19
-2.15
0.16
1.09
0.19
-2.61
-6.93
-12.09
-17.43
-22.54
-27.43
-32.46
-38.11
-44.66
-52.01
-59.59
-66.52
-71.91
-75.16
-76.19
-75.52
-74.15
-73.41
-74.52
-78.33
-85.09
-94.36
-105.07
-115.79
-125.03
-131.61
-134.82
-134.5
-130.9
-124.46
-115.6
-104.46
-90.93
-74.8
-56.07
-35.2
-13.15
8.73
29.11
47.03
62
74
83.21
89.79
93.85
95.53
95.26
93.75
91.91
90.52
89.94
90
90.16
89.79
88.39
85.75
81.89
76.96
71.19
64.94
58.78
53.45
49.76
48.36
49.41
52.65
57.38
62.73
67.96
72.47
75.84
77.78
78.12
76.85
74.21
70.6
66.47
62.13
57.69
53
47.85
42.16
36.06
29.97
24.44
20.01
16.95
15.06
13.67
11.81
8.63
3.79
-2.36
-8.89
-14.66
-18.68
-20.36
-19.48
-16.14
-10.6
-3.34
4.87
13.09
20.38
26.06
29.99
32.4
33.64
33.93
33.22
31.32
28.12
23.74
18.52
12.91
7.29
1.9
-3.13
-7.76
-11.97
-15.75
-19.17
-22.34
-25.37
-28.27
-30.95
-33.18
-34.76
-35.58
-35.69
-35.3
-34.67
-34.06
-33.62
-33.44
-33.52
-33.85
-34.42
-35.21
-36.2
-37.3
-38.39
-39.27
-39.74
-39.72
-39.28
-38.77
-38.72
-39.72
-42.23
-46.33
-51.76
-58.01
-64.56
-71.06
-77.36
-83.42
-89.19
-94.67
-100.38
-107.48
-117.69
-132.57
-152.57
-176.52
-201.82
-225.41
-244.9
-259
-267.26
-269.13
-263.49
-248.78
-223.94
-189.35
-147.08
-100.27
-52.04
-4.79
39.83
80.48
115.7
144.11
165.06
179.01
187.39
191.88
193.57
192.68
188.85
182
172.9
163.13
154.66
149.1
147.33
149.36
154.53
161.64
169.13
175.29
178.6
178.24
174.43
168.46
162.14
157.05
153.76
151.65
149.2
144.77
137.33
126.84
114.18
100.59
87.12
74.36
62.51
51.7
42.3
34.87
29.89
27.45
26.97
27.39
27.53
26.54
24.29
21.22
18.09
15.51
13.74
12.61
11.78
11.01
10.24
9.45
8.47
6.95
4.54
1.25
-2.42
-5.64
-7.73
-8.65
-8.98
-9.57
-10.95
-13.04
-15.21
-16.85
-17.69
-17.96
-18.18
-18.64
-19.41
-20.29
-21.17
-22.09
-23.22
-24.58
-25.92
-26.76
-26.66
-25.51
-23.64
-21.74
-20.5
-20.33
-21.16
-22.46
-23.45
-23.34
-21.66
-18.3
-13.46
-7.51
-0.84
6.18
13.06
19.17
23.68
25.72
24.69
20.45
13.38
4.27
-5.96
-16.52
-26.86
-36.65
-45.65
-53.56
-59.95
-64.32
-66.23
-65.57
-62.68
-58.42
-53.98
-50.44
-48.46
-47.99
-48.28
-48.22
-46.76
-43.41
-38.26
-31.9
-24.97
-18.01
-11.28
-5
0.59
5.1
8.14
9.53
9.32
7.79
5.2
1.63
-3.05
-8.95
-15.97
-23.77
-31.76
-39.28
-45.72
-50.52
-53.33
-54.23
-54.11
-54.78
-58.72
-68.31
-84.77
-107.2
-132.3
-154.96
-169.59
-171.77
-159.45
-133.51
-97.21
-55.24
-12.51
26.74
59.48
84.13
100.39
109.16
112.31
112.31
111.84
113.15
117.64
125.47
135.56
145.94
154.29
158.67
158.02
152.48
143.18
131.81
119.86
108.17
96.86
85.66
74.3
62.93
52.06
42.28
34.01
27.25
21.65
16.8
12.43
8.51
5.21
2.62
0.63
-1.11
-3.16
-6.03
-9.98
-14.99
-20.69
-26.49
-31.74
-35.96
-39
-41.07
-42.68
-44.42
-46.7
-49.51
-52.41
-54.68
-55.7
-55.32
-54.04
-52.85
-52.87
-54.84
-58.68
-63.38
-67.26
-68.46
-65.59
-58.25
-47.3
-34.8
-23.34
-15.23
-11.61
-11.96
-14.23
-15.71
-14.18
-8.87
-0.75
7.86
14.24
16.3
13.3
6.05
-3.39
-12.21
-17.63
-17.5
-11.12
0.46
14.41
26.94
34.56
35.34
29.64
19.96
9.82
2.29
-1.17
-1.15
0.3
0.67
-2.04
-8.84
-19.8
-34.4
-51.65
-70.13
-87.91
-102.85
-113.2
-118.2
-118.31
-114.86
-109.28
-102.48
-94.75
-86.22
-77.55
-70.19
-65.99
-66.4
-71.8
-81.5
-94.39
-109.55
-126.61
-145.34
-165
-183.92
-199.55
-209.2
-211.05
-204.92
-192.54
-177.22
-162.88
-152.64
-147.65
-146.69
-146.66
-144.2
-137.48
-126.87
-114.44
-102.41
-92.02
-83.4
-76.48
-72
-71.49
-76.09
-85.01
-94.94
-101.02
-99.05
-87.48
-67.94
-43.99
-19.05
5.09
28.45
51.57
74.25
94.96
111.42
121.92
126.26
125.88
123.34
121.14
120.75
122.33
125.08
128.01
130.54
132.73
134.93
137.35
139.57
140.6
139.26
134.55
126.15
114.39
100.1
84.28
67.9
51.72
36.3
22
8.95
-2.96
-13.95
-24.09
-32.96
-39.49
-42.15
-39.53
-30.91
-16.86
0.76
19.29
36.08
49.3
58.31
63.59
66.26
67.54
68.37
69.27
70.49
72.09
74.06
76.28
78.37
79.62
79.11
75.96
69.83
61.14
51.05
41.04
32.35
25.52
20.21
15.58
10.73
5.22
-0.77
-6.58
-11.52
-15.22
-17.95
-20.56
-24.3
-30.38
-39.44
-51.09
-63.7
-74.48
-80.3
-78.58
-68.21
-49.95
-26.16
-0.05
25.31
47.7
66.08
80.43
91.34
99.61
105.87
110.52
113.75
115.72
116.62
116.83
116.79
116.85
117.16
117.54
117.64
117.11
115.81
113.91
111.81
109.93
108.55
107.7
107.15
106.56
105.61
104.12
102.21
100.45
99.97
102.46
110.1
125.03
148.6
180.71
219.48
261.52
302.8
339.49
368.7
388.72
398.76
398.71
388.97
370.47
344.79
314.1
280.94
247.8
216.72
188.96
164.79
143.35
122.74
100.42
73.89
41.55
3.33
-39.21
-83.23
-125.2
-161.71
-190.08
-208.88
-218.37
-220.61
-219.1
-217.85
-220.06
-226.8
-236.53
-245.65
-249.79
-245.55
-231.59
-208.83
-179.77
-147.27
-113.65
-80.36
-48.23
-17.97
9.5
33.12
52.11
66.48
77.21
85.89
94.18
103.03
112.36
121.04
127.5
130.36
128.96
123.47
114.66
103.48
90.8
77.24
63.27
49.2
35.19
21.09
6.45
-9.45
-27.2
-46.99
-68.46
-90.89
-113.48
-135.71
-157.35
-178.36
-198.56
-217.5
-234.57
-249.13
-260.82
-269.55
-275.27
-277.76
-276.34
-270.17
-258.53
-241.36
-219.43
-194.32
-168.13
-143.08
-121.21
-104.14
-93.1
-88.82
-91.5
-100.72
-115.37
-133.65
-153.23
-171.62
-186.64
-196.96
-202.42
-203.97
-203.22
-201.65
-199.84
-197.23
-192.31
-183.37
-169.2
-149.62
-125.54
-98.67
-71.01
-44.41
-20.23
0.76
18.51
33.46
46.42
58.22
69.51
80.59
91.33
101.42
110.56
118.64
125.92
132.89
140.15
148.05
156.6
165.22
173
178.96
182.65
184.6
186.52
191.05
201.03
218.42
243.45
274.16
306.6
335.72
356.71
366.07
362.38
346.25
319.83
286
247.71
207.63
167.89
129.97
94.49
61.28
29.54
-1.67
-32.84
-63.65
-92.86
-118.77
-139.81
-155.03
-164.11
-167.06
-163.85
-154.32
-138.59
-117.62
-93.53
-69.28
-47.84
-31.01
-18.9
-10.1
-2.67
4.73
12.12
18.38
22.23
23.3
22.59
22.13
23.96
29.13
37.26
46.91
56.45
64.79
71.76
77.74
82.97
87.01
88.78
87.09
81.52
72.93
63.45
55.61
51.28
50.66
52.04
52.3
47.97
36.59
17.56
-7.59
-35.71
-63.09
-86.62
-104.55
-116.67
-123.8
-127.15
-127.82
-126.72
-124.44
-121.27
-116.81
-109.82
-98.5
-81.47
-59.11
-34.22
-11.44
4.8
12.74
14.73
16.58
24.93
43.92
73.14
107.83
141.38
168.43
186.93
198.16
204.96
209.47
211.79
210.33
203.3
190.31
173.01
154.58
138.3
126.28
118.89
115.12
113.46
112.76
112.62
113.19
114.73
117.06
119.39
120.49
119.17
114.77
107.46
98.12
87.92
77.97
68.83
60.55
52.65
44.49
35.43
24.99
12.9
-0.82
-15.91
-31.9
-48.17
-64.12
-79.35
-93.6
-106.65
-118.12
-127.46
-134.02
-137.38
-137.64
-135.57
-132.44
-129.52
-127.58
-126.57
-125.7
-123.86
-120.28
-114.84
-108.06
-100.76
-93.69
-87.48
-82.71
-79.95
-79.44
-80.69
-82.1
-81.26
-75.85
-64.88
-49.43
-32.42
-17.37
-6.99
-2.27
-2.67
-7.04
-14.53
-24.77
-37.43
-51.46
-64.86
-75.19
-80.68
-81.04
-77.69
-73.12
-69.7
-68.91
-70.91
-74.85
-79.31
-82.93
-84.63
-83.86
-80.65
-75.48
-69.24
-62.94
-57.66
-54.45
-54.2
-57.63
-65.21
-76.97
-92
-108.15
-122.04
-129.98
-129.3
-119.58
-102.94
-83.25
-64.48
-49.18
-37.79
-29.15
-21.7
-14.57
-7.94
-2.6
0.96
2.97
4.28
5.69
7.46
9.18
10.19
10.09
8.83
6.88
4.85
3.19
2.08
1.32
0.58
-0.44
-1.87
-3.53
-5.05
-5.94
-5.82
-4.49
-2.08
1
4.17
6.88
8.72
9.61
9.78
9.78
10.4
12.46
16.68
23.36
32.29
42.66
53.28
62.85
70.32
75.15
77.41
77.6
76.38
74.25
71.37
67.5
62.13
54.9
45.81
35.44
24.93
15.6
8.58
4.44
2.92
2.96
2.72
-0.3
-8.79
-25.15
-50.57
-84.3
-123.47
-163.57
-199.69
-227.89
-246.11
-254.2
-253.22
-244.43
-228.74
-206.68
-178.99
-147.13
-113.3
-79.92
-48.96
-21.33
3.04
24.73
44.2
61.43
75.99
87.42
95.76
101.72
106.44
111.1
116.35
122.1
127.75
132.43
135.51
136.78
136.47
135.07
133.06
130.76
128.28
125.54
122.37
118.57
114.01
108.67
102.65
96.19
89.52
82.85
76.3
69.93
63.83
58.13
53.02
48.56
44.66
40.98
37.03
32.29
26.41
19.28
11.1
2.35
-6.2
-13.53
-18.49
-20.07
-17.77
-11.81
-3.23
6.41
15.5
22.71
27.29
28.96
27.71
23.67
17.09
8.48
-1.34
-11.28
-20.24
-27.44
-32.69
-36.31
-38.89
-40.98
-42.89
-44.57
-45.82
-46.45
-46.43
-45.96
-45.4
-45.03
-45.06
-45.51
-46.24
-47.08
-47.88
-48.52
-48.95
-49.15
-49.04
-48.53
-47.58
-46.23
-44.69
-43.19
-41.96
-41.14
-40.71
-40.62
-40.9
-41.64
-42.98
-44.99
-47.48
-50
-51.96
-52.91
-52.79
-52.08
-51.61
-52.21
-54.35
-57.86
-62
-65.78
-68.52
-70.21
-71.62
-73.98
-78.26
-84.82
-93.08
-101.96
-110.38
-117.79
-124.36
-130.7
-137.35
-144.42
-151.3
-156.78
-159.13
-156.17
-145.62
-125.69
-95.99
-58.45
-17.55
20.5
49.49
65.43
68.09
61.25
51.28
44.74
45.96
55.82
71.97
90.46
107.68
121.68
132.32
140.38
146.4
150
150.17
146.24
138.74
129.55
121.03
114.88
111.22
108.72
105.37
99.64
91.05
80.18
68.03
55.5
43.19
31.64
21.55
13.74
8.82
6.86
7.3
9.22
11.81
14.64
17.57
20.4
22.62
23.33
21.58
16.83
9.25
-0.33
-10.81
-21.21
-31.06
-40.32
-49.12
-57.4
-64.71
-70.17
-72.86
-72.27
-68.65
-63.1
-57.22
-52.55
-50.07
-49.93
-51.46
-53.6
-55.23
-55.5
-54.01
-50.79
-46.25
-40.97
-35.58
-30.58
-26.26
-22.82
-20.35
-18.92
-18.5
-18.81
-19.34
-19.43
-18.56
-16.58
-13.81
-10.84
-8.15
-5.8
-3.35
-0.09
4.46
10.17
16.38
22.09
26.48
29.27
30.69
31.3
31.67
32.31
33.59
35.81
39.11
43.3
47.76
51.57
53.9
54.44
53.55
52.03
50.65
49.65
48.62
46.87
43.85
39.56
34.54
29.48
24.78
20.24
15.24
9.16
1.9
-6.03
-13.57
-19.65
-23.58
-25.2
-24.72
-22.42
-18.58
-13.47
-7.72
-2.44
1.07
1.88
0.01
-3.31
-6.02
-6.12
-2.56
4.34
13.14
22.05
29.62
35.03
37.9
37.9
34.49
27.09
15.55
0.51
-16.48
-33.37
-48.21
-59.63
-67
-70.29
-69.85
-66.34
-60.86
-55.17
-51.61
-52.58
-59.62
-72.55
-89.01
-104.84
-115.39
-116.88
-107.76
-89
-63.57
-35.16
-6.95
19.16
42.46
62.88
80.31
94.17
103.7
108.42
108.59
105.37
100.4
95.28
91.02
87.81
85.16
82.47
79.3
75.7
72.08
68.92
66.46
64.55
62.7
60.23
56.59
51.56
45.26
38.1
30.53
22.94
15.62
8.77
2.54
-2.87
-7.18
-10.1
-11.33
-10.61
-7.83
-3.16
2.77
8.97
14.24
17.51
18.19
16.28
12.26
6.87
0.75
-5.72
-12.43
-19.42
-26.77
-34.51
-42.68
-51.25
-60.09
-68.83
-76.84
-83.23
-87.23
-88.47
-87.22
-84.38
-81.18
-78.65
-77.13
-76.06
-74.11
-69.62
-61.31
-48.81
-33.02
-15.92
0.04
12.75
21.13
25.48
27.17
28.05
29.6
32.51
36.52
40.83
44.51
46.87
47.52
46.29
43.06
37.78
30.52
21.64
11.82
1.9
-7.27
-15.07
-21.21
-25.66
-28.55
-30.12
-30.57
-30.04
-28.67
-26.56
-23.82
-20.63
-17.26
-14.11
-11.57
-9.91
-9.1
-8.85
-8.65
-7.96
-6.39
-3.79
-0.26
3.93
8.43
12.85
16.82
19.98
22.07
22.98
22.78
21.86
20.86
20.51
21.45
23.89
27.5
31.43
34.56
35.92
35.03
31.95
27.17
21.18
14.21
6.01
-3.95
-16.23
-31.01
-48.04
-66.67
-86.03
-105.33
-123.87
-141.08
-156.43
-169.35
-179.29
-185.79
-188.68
-188.17
-184.74
-179.05
-171.75
-163.19
-153.4
-141.97
-128.29
-111.72
-91.87
-68.78
-42.9
-15.08
13.6
41.83
68.22
91.27
109.59
122.2
128.8
129.88
126.65
120.73
113.68
106.68
100.35
94.84
89.95
85.19
79.84
72.96
63.63
51.42
37.09
22.87
12.23
8.92
15.55
32.52
57.66
87.08
116.42
142.42
163.55
179.84
192.06
200.86
206.23
207.69
204.77
197.46
186.41
172.75
157.73
142.34
127.13
112.26
97.68
83.29
69.12
55.3
41.98
29.31
17.33
6.05
-4.51
-14.27
-23.05
-30.6
-36.74
-41.38
-44.68
-46.92
-48.45
-49.57
-50.45
-51.17
-51.77
-52.4
-53.27
-54.62
-56.55
-59.06
-62.11
-65.8
-70.45
-76.5
-84.24
-93.59
-103.98
-114.54
-124.35
-132.72
-139.26
-143.94
-146.92
-148.55
-149.31
-149.75
-150.43
-151.77
-153.98
-157.04
-160.82
-165.15
-169.88
-174.9
-179.99
-184.69
-188.2
-189.45
-187.36
-181.11
-170.54
-156.2
-139.21
-120.88
-102.27
-84.04
-66.52
-49.97
-34.77
-21.4
-10.25
-1.35
5.66
11.36
16.51
21.99
28.93
38.8
53.06
72.61
97.15
125.01
153.63
180.47
204
224
241.23
256.52
269.95
280.58
286.75
286.98
280.67
268.44
251.86
232.86
212.99
193.11
173.38
153.67
134.01
115
97.75
83.49
73.08
66.62
63.48
62.64
63.22
64.82
67.43
71.12
75.62
80.11
83.32
84.01
81.43
75.53
66.97
56.87
46.38
36.46
27.68
20.21
13.96
8.65
3.98
-0.35
-4.55
-8.84
-13.37
-18.11
-22.85
-27.17
-30.62
-33.02
-34.68
-36.24
-38.36
-41.39
-45.16
-49
-51.93
-52.92
-51.13
-46.13
-38.24
-28.67
-19.55
-13.46
-12.56
-17.84
-28.63
-42.89
-57.96
-71.54
-82.34
-90.14
-95.49
-99.18
-101.89
-104.04
-105.74
-106.92
-107.46
-107.34
-106.6
-105.33
-103.67
-101.65
-99.21
-96.15
-92.23
-87.29
-81.37
-74.82
-68.28
-62.45
-57.72
-53.91
-50.15
-45.22
-38.03
-28.19
-16.14
-2.91
10.31
22.51
32.88
40.62
44.7
44.13
38.58
29.15
18.44
9.87
6.21
8.12
13.68
19.16
20.73
16.32
6.45
-6.21
-18.29
-27.26
-32.3
-34.08
-33.77
-32.05
-28.61
-22.62
-13.45
-1.41
12.21
25.52
36.73
44.73
49.13
49.95
47.34
41.42
32.5
21.42
9.66
-0.88
-8.56
-12.57
-13.25
-11.79
-9.64
-7.79
-6.43
-5.15
-3.33
-0.59
2.97
6.92
10.71
13.95
16.38
17.8
17.97
16.6
13.54
8.88
2.96
-3.81
-11.09
-18.71
-26.54
-34.28
-41.31
-46.75
-49.85
-50.28
-48.45
-45.38
-42.33
-40.23
-39.35
-39.19
-38.76
-36.94
-32.87
-26.19
-17.16
-6.6
4.19
13.7
20.63
24.32
25
23.7
21.67
19.71
17.66
14.48
8.86
0.17
-10.92
-22.39
-31.56
-36.19
-35.45
-30.39
-23.64
-18.48
-17.65
-22.49
-32.64
-46.38
-61.35
-75.14
-85.75
-91.58
-91.42
-84.43
-70.49
-50.32
-25.57
1.52
28.68
54.02
76.16
94.22
107.62
116.18
120.25
120.87
119.48
117.49
115.66
113.7
110.53
104.91
96.09
84.41
71.25
58.59
48.3
41.48
37.99
36.59
35.38
32.59
27.23
19.4
10.09
0.69
-7.71
-14.53
-19.76
-23.55
-26
-27.07
-26.72
-25.2
-23.03
-20.97
-19.66
-19.31
-19.74
-20.48
-21.15
-21.67
-22.32
-23.61
-25.97
-29.57
-34.28
-39.69
-45.24
-50.4
-54.71
-57.82
-59.54
-59.88
-58.94
-56.96
-54.23
-50.93
-47.18
-43.08
-38.77
-34.53
-30.79
-27.97
-26.33
-25.72
-25.51
-24.64
-22.06
-17.01
-9.42
0.1
10.49
20.67
29.8
37.44
43.42
47.76
50.52
51.94
52.49
52.81
53.5
54.87
56.74
58.46
59.25
58.45
55.8
51.54
46.25
40.68
35.47
30.96
27.12
23.59
19.85
15.43
10.08
3.85
-3
-10.05
-16.77
-22.55
-26.75
-28.8
-28.46
-25.9
-21.8
-17.16
-13.09
-10.36
-9.33
-9.77
-11.11
-12.64
-13.82
-14.46
-14.81
-15.31
-16.35
-18
-19.95
-21.72
-22.95
-23.63
-24.12
-24.96
-26.69
-29.63
-33.99
-39.78
-46.76
-54.14
-60.55
-64.23
-63.56
-57.8
-47.43
-34.08
-19.84
-6.57
4.67
13.58
20.34
25.2
28.3
29.77
29.85
28.99
27.7
26.31
24.85
23.12
20.89
18.07
14.82
11.4
8.06
4.82
1.52
-2.24
-6.97
-13.16
-21.08
-30.39
-39.96
-47.84
-51.69
-49.57
-40.79
-26.27
-8.29
10.37
27.42
41.74
53.25
62.44
69.68
74.85
77.6
77.7
75.45
71.69
67.44
63.51
60.22
57.36
54.47
51.11
47.08
42.39
37.27
32.02
27
22.45
18.43
14.69
10.7
5.68
-1.02
-9.61
-19.51
-29.36
-37.32
-41.61
-41.2
-36.09
-27.37
-16.71
-5.82
4.13
12.71
20.08
26.72
32.94
38.72
43.64
47.19
49.02
49.17
48.05
46.29
44.38
42.41
39.97
36.43
31.22
24.31
16.3
8.3
1.55
-3.11
-5.6
-6.73
-8.05
-11.49
-18.82
-31.03
-48
-68.46
-90.4
-111.81
-131.33
-148.63
-164.34
-179.57
-195.4
-212.13
-228.95
-243.69
-253.11
-253.6
-242.09
-217.23
-180.04
-134.01
-84.23
-35.98
6.67
41.67
69.06
90.18
106.66
119.79
130.32
138.7
145.41
151.04
156.06
160.34
162.99
162.47
157.36
147.2
133.14
117.81
104.42
95.35
90.89
88.92
85.73
77.62
62.54
41.01
15.92
-8.8
-29.66
-44.65
-53.39
-56.42
-54.29
-47.13
-34.8
-17.45
3.86
27.11
49.84
69.98
86.52
99.71
110.62
120.5
130.03
139.12
146.96
152.47
154.65
152.92
147.33
138.73
128.71
119.32
112.42
109.05
108.75
109.68
109.22
105.07
96.28
83.79
69.98
57.71
49.19
45.2
45.01
46.95
49.16
50.22
49.4
46.62
42.23
36.89
31.39
26.58
23.18
21.41
20.86
20.55
19.2
15.71
9.43
0.33
-11.16
-24.27
-38.03
-51.32
-63.05
-72.36
-78.84
-82.68
-84.52
-85.16
-85.11
-84.35
-82.32
-78.2
-71.38
-61.76
-49.92
-37
-24.33
-13.12
-4.14
2.34
6.48
8.63
9.32
8.98
8.05
6.87
5.71
4.7
3.89
3.2
2.48
1.52
0.16
-1.64
-3.62
-5.15
-5.39
-3.54
0.75
7.06
14.34
21.25
26.74
30.38
32.45
33.59
34.43
35.35
36.35
37.23
37.6
37.05
35.26
32.06
27.68
22.74
18.19
15.02
13.91
15
17.77
21.31
24.57
26.78
27.59
27.04
25.52
23.53
21.53
19.88
18.66
17.74
16.66
14.84
11.71
7.05
1.17
-5.07
-10.4
-13.53
-13.62
-10.55
-5.02
1.57
7.56
11.55
12.87
11.75
9.22
6.71
5.55
6.5
9.57
13.99
18.54
21.86
22.94
21.3
17.11
10.89
3.23
-5.55
-15.47
-26.76
-39.65
-54.08
-69.67
-85.71
-101.37
-115.75
-128.16
-138.12
-145.51
-150.57
-153.82
-155.83
-157.09
-157.89
-158.36
-158.61
-158.83
-159.2
-159.76
-160.22
-159.79
-157.24
-151.07
-140.07
-123.81
-103.12
-80.08
-57.51
-38.14
-23.77
-14.67
-9.77
-7.15
-4.84
-1.45
3.54
9.87
16.81
23.43
28.92
32.59
33.93
32.61
28.51
21.74
12.79
2.47
-8.2
-18.37
-27.6
-36.01
-44.16
-52.56
-61.22
-69.24
-74.99
-76.6
-72.73
-63.3
-49.72
-34.58
-20.77
-10.54
-4.89
-3.43
-4.8
-7.38
-9.82
-11.48
-12.32
-12.66
-12.93
-13.45
-14.35
-15.51
-16.57
-17.04
-16.44
-14.48
-11.22
-7.01
-2.43
2.07
6.17
9.82
13.05
15.97
18.8
21.98
26.07
31.57
38.41
45.7
51.92
55.61
56.18
54.39
51.8
49.78
48.39
46.25
41.3
32.23
19.6
5.85
-5.8
-12.86
-14.88
-13.85
-13.64
-18.49
-31.15
-51.43
-75.74
-97.97
-111.57
-111.9
-97.76
-71.53
-37.96
-2.39
30.53
57.5
76.53
86.98
89.65
86.61
80.63
73.92
67.02
58.55
46.09
27.86
4.05
-23.04
-49.77
-72.6
-89.04
-97.88
-98.85
-92.27
-78.95
-60.37
-38.72
-16.6
3.59
20.28
33.07
42.66
50.4
57.73
65.76
74.98
85.23
95.8
105.6
113.51
118.69
120.88
120.42
118.07
114.67
110.82
106.69
102.07
96.51
89.54
80.81
70.21
57.89
44.34
30.32
16.72
4.36
-6.23
-14.92
-22.01
-28.01
-33.49
-38.73
-43.63
-47.66
-50.03
-50.01
-47.23
-41.85
-34.48
-25.86
-16.69
-7.46
1.31
8.9
14.23
16.08
13.52
6.41
-4.32
-16.81
-28.8
-38.26
-44
-45.87
-44.64
-41.59
-38.06
-35.03
-33.01
-32.15
-32.37
-33.57
-35.77
-39.05
-43.44
-48.8
-54.68
-60.4
-65.2
-68.59
-70.57
-71.78
-73.28
-76.06
-80.55
-86.27
-91.96
-95.91
-96.56
-92.89
-84.71
-72.61
-58.03
-43.33
-31.57
-25.71
-27.3
-35.34
-45.94
-53.51
-53.05
-42.42
-23.48
-1.38
17.69
29.02
30.77
23.86
10.69
-6.3
-25.43
-45.6
-65.81
-84.84
-101.47
-114.89
-124.9
-131.52
-134.52
-133.05
-125.74
-111.34
-89.62
-61.85
-30.69
0.59
29.01
52.72
71.21
85.21
96.19
105.85
115.76
126.94
139.77
153.86
168.2
181.53
192.74
201.24
207.02
210.46
211.84
211.1
207.81
201.5
191.96
179.48
164.65
148.05
130.04
110.73
90.21
68.72
46.72
24.74
3.36
-16.85
-35.14
-50.56
-62.2
-69.7
-73.65
-75.62
-77.6
-81.18
-87.03
-94.77
-103.55
-112.59
-121.63
-130.8
-140.15
-149.34
-157.52
-163.73
-167.35
-168.34
-167.26
-164.8
-161.36
-156.86
-150.82
-142.68
-132.32
-120.28
-107.8
-96.44
-87.65
-82.17
-79.7
-78.78
-77.02
-71.68
-60.39
-41.83
-16.18
14.98
49.13
83.57
116.1
145.36
170.76
192.02
208.86
220.89
227.78
229.63
227.09
221.28
213.49
204.62
195.12
184.93
173.76
161.41
147.87
133.36
118.18
102.67
87.12
71.83
57.11
43.23
30.4
18.66
7.94
-1.85
-10.75
-18.67
-25.49
-31.14
-35.73
-39.47
-42.63
-45.28
-47.32
-48.48
-48.53
-47.46
-45.63
-43.64
-42.19
-41.73
-42.32
-43.64
-45.13
-46.33
-47.02
-47.29
-47.45
-47.82
-48.53
-49.5
-50.5
-51.26
-51.65
-51.64
-51.36
-50.99
-50.72
-50.74
-51.16
-52.06
-53.42
-54.93
-55.9
-55.14
-51.08
-42.18
-27.45
-7.05
17.37
42.81
65.67
82.73
92.05
93.38
87.95
77.68
64.34
49.12
32.57
15.09
-2.7
-19.99
-36.3
-51.95
-67.94
-85.3
-104.03
-122.78
-139.25
-151.51
-159.16
-163.68
-167.7
-173.34
-180.8
-187.84
-190.59
-185.16
-169.25
-143.09
-109.19
-71.42
-33.63
1.38
32.41
59.49
83.26
104
121.26
134.06
141.65
144.2
143.03
140.3
138.1
137.77
139.49
142.59
145.97
148.68
150.03
149.61
147.06
141.99
134.05
122.95
108.45
90.25
67.92
41.07
9.61
-25.9
-64.1
-102.85
-139.3
-170.05
-191.39
-199.87
-193.05
-170.31
-133.35
-86.17
-34.39
15.79
58.68
89.96
107.19
109.96
99.74
79.54
53.26
24.93
-2.05
-25.51
-44.66
-59.82
-72.03
-82.52
-92.2
-101.5
-110.32
-118.38
-125.59
-132.34
-139.42
-147.57
-156.73
-165.71
-172.18
-173.42
-167.39
-153.49
-132.93
-108.29
-82.65
-58.63
-37.81
-20.7
-7.14
3.24
10.77
15.8
18.94
21.25
24.06
28.58
35.44
44.42
54.55
64.54
73.3
80.29
85.54
89.42
92.27
94.16
94.89
94.19
91.91
88.19
83.33
77.64
71.22
63.9
55.38
45.44
34.06
21.48
8.21
-5.02
-17.06
-26.38
-31.24
-30.12
-22.37
-8.64
9.17
28.57
47.33
64.17
78.96
92.25
104.62
116.09
126.12
133.96
139.21
142.05
143.18
143.48
143.55
143.61
143.45
142.6
140.52
136.73
130.92
122.97
112.98
101.17
87.75
72.76
56.12
37.8
18.07
-2.33
-22.21
-40.25
-55.3
-66.67
-74.24
-78.43
-80.12
-80.55
-81.02
-82.49
-85.12
-87.97
-89.12
-86.34
-77.96
-63.55
-44.14
-21.69
1.65
24.18
44.95
63.5
79.39
92.01
100.59
104.62
104.21
100.22
94.11
87.41
81.35
76.5
72.81
69.8
66.88
63.57
59.62
54.92
49.43
43.04
35.67
27.36
18.48
9.76
2.23
-3.2
-6.03
-6.54
-5.71
-5.03
-6.05
-10.06
-17.92
-30.1
-46.56
-66.57
-88.39
-109.23
-125.68
-134.61
-134.21
-124.67
-108.09
-87.65
-66.37
-46.27
-28.06
-11.51
3.79
17.9
30.43
40.81
48.76
54.5
58.7
62.14
65.4
68.63
71.57
73.9
75.42
76.31
77.03
78.13
79.94
82.35
84.88
86.77
87.42
86.63
84.79
82.75
81.52
81.91
84.18
87.94
92.34
96.21
98.44
98.11
94.83
88.99
81.88
75.63
72.63
74.7
82.26
94.09
107.66
120.07
129.01
133.32
132.82
127.82
118.51
104.71
86.16
62.86
35.55
5.69
-24.69
-53.65
-79.76
-102.59
-122.69
-141.32
-159.89
-179.27
-199.42
-219.33
-237.34
-251.74
-261.2
-265.07
-263.3
-256.31
-244.75
-229.41
-211.04
-190.24
-167.19
-141.6
-112.81
-80.14
-43.48
-3.6
37.77
78.35
115.95
149.11
177.35
201.06
220.94
237.53
250.86
260.51
265.89
266.68
263.04
255.59
245.19
232.65
218.71
204.05
189.63
176.65
166.3
159.16
154.73
151.37
146.74
138.88
127.02
111.99
95.82
80.84
68.97
61.27
58.11
59.48
65.05
73.96
84.65
94.91
102.46
105.77
104.68
100.32
94.4
88.23
82.05
75.1
66.13
54.18
39.01
21.12
1.47
-18.75
-38.42
-56.5
-72.2
-85.01
-94.84
-101.82
-106.22
-108.31
-108.27
-106.34
-102.99
-98.94
-95.05
-92.08
-90.49
-90.45
-91.94
-94.91
-99.36
-105.28
-112.44
-120.29
-128.01
-134.68
-139.57
-142.37
-143.31
-142.94
-141.85
-140.29
-138.08
-134.64
-129.45
-122.35
-113.75
-104.45
-95.3
-86.83
-79.05
-71.61
-64.13
-56.5
-49.01
-42.17
-36.45
-31.99
-28.52
-25.41
-22.05
-18.15
-13.93
-10.15
-7.79
-7.71
-10.27
-15.28
-22.05
-29.69
-37.24
-43.97
-49.31
-53.02
-55.08
-55.88
-56.1
-56.64
-58.39
-61.98
-67.56
-74.82
-83.03
-91.33
-98.86
-104.98
-109.13
-110.91
-110.02
-106.38
-100.22
-92.25
-83.57
-75.49
-69.18
-65.51
-64.96
-67.85
-74.45
-85.05
-99.8
-118.42
-140.08
-163.3
-186.25
-207.06
-224.07
-236.19
-242.99
-244.82
-242.87
-238.7
-233.74
-228.47
-222.03
-212.42
-197.42
-175.66
-147.51
-115.01
-81.06
-48.22
-17.86
9.98
35.83
59.97
81.76
99.9
113.19
121.41
125.66
128.03
130.64
134.77
140.3
146.02
150.31
152
150.81
147.32
142.47
137.02
131.22
124.71
116.78
106.38
92.35
73.63
49.69
21.04
-10.52
-42.18
-70.83
-94.05
-110.83
-121.85
-129.09
-135.07
-141.95
-150.82
-161.43
-172.28
-181.02
-185.08
-182.26
-171.25
-151.89
-125.08
-92.58
-56.57
-19.37
16.9
50.6
80.91
108.03
132.97
157.33
182.55
209.37
237.53
265.75
292.15
314.84
332.33
343.8
349.04
348.29
342.08
331.17
316.57
299.54
281.47
263.54
246.44
230.3
214.65
198.73
181.79
163.28
143.12
121.6
99.28
76.77
54.62
33.1
12.23
-8.05
-27.9
-47.43
-66.83
-86.47
-106.98
-129.04
-153.04
-178.61
-204.53
-228.9
-249.87
-266.32
-278.25
-286.69
-293.1
-298.65
-303.57
-307.06
-307.5
-303.07
-292.4
-275.04
-251.78
-224.42
-195.35
-166.9
-140.73
-117.49
-96.93
-78.37
-61.24
-45.48
-31.63
-20.58
-13.11
-9.48
-9.07
-10.23
-10.57
-7.44
1.27
16.44
37.34
61.86
87.13
110.48
129.96
144.71
154.73
160.53
162.77
162.12
159.16
154.48
148.67
142.3
135.85
129.69
124.04
118.93
114.2
109.54
104.53
98.79
92.04
84.18
75.35
65.92
56.42
47.42
39.38
32.5
26.65
21.47
16.41
10.96
4.66
-2.69
-10.86
-19.01
-25.69
-29.2
-28.2
-22.33
-12.58
-0.99
10.11
19.06
25.34
29.49
32.37
34.42
35.23
33.75
29.03
20.93
10.47
-0.45
-9.76
-15.98
-18.69
-18.56
-16.92
-15.21
-14.42
-14.93
-16.55
-18.74
-20.96
-22.8
-24.02
-24.54
-24.47
-24.17
-24.23
-25.18
-27.14
-29.54
-31.18
-30.74
-27.52
-21.96
-15.63
-10.61
-8.53
-9.86
-13.84
-18.92
-23.63
-27.15
-29.5
-31.26
-33.02
-35.01
-37.09
-38.99
-40.73
-42.87
-46.42
-52.41
-61.32
-72.7
-85.04
-96.21
-104.16
-107.58
-106.25
-100.92
-92.93
-83.65
-74.23
-65.47
-57.93
-51.79
-46.6
-40.86
-32.14
-17.77
4.17
33.69
68.64
105.57
140.99
172.44
198.52
218.3
230.56
233.83
227.32
212.08
191.4
169.84
151.39
137.59
127.05
116.47
102.68
84.36
62.5
39.55
17.92
-1.13
-17.72
-32.55
-45.95
-57.24
-65.02
-67.81
-65.08
-57.78
-48.03
-38.33
-30.74
-26.28
-24.91
-25.83
-27.77
-29.3
-28.95
-25.45
-18.08
-6.98
6.75
21.31
34.81
45.83
53.72
58.52
60.55
60.04
57.15
52.21
46.16
40.68
37.83
39.16
44.97
53.97
63.68
71.48
75.66
75.97
73.44
69.61
65.66
61.92
57.87
52.55
45.05
34.86
22.01
6.9
-9.78
-27.25
-44.71
-61.34
-76.27
-88.62
-97.63
-102.97
-104.91
-104.24
-101.78
-97.82
-91.91
-83.09
-70.59
-54.64
-36.66
-18.96
-3.86
7.09
13.51
15.8
14.7
10.71
3.93
-5.75
-18.22
-32.85
-48.53
-63.8
-77.16
-87.27
-93.17
-94.29
-90.45
-81.79
-68.77
-52.08
-32.59
-11.34
10.58
32.09
52.19
70
84.67
95.2
100.39
98.95
89.9
73.02
49.09
19.75
-13.02
-47.5
-82.5
-117.13
-150.27
-180.11
-204.15
-219.76
-224.96
-218.99
-202.54
-177.38
-145.8
-110.03
-71.97
-33.09
5.49
42.92
78.65
112.29
143.45
171.49
195.3
213.33
224.03
226.44
220.76
208.69
193.03
176.9
162.68
151.22
141.76
132.39
120.95
105.84
86.52
63.55
38.2
11.96
-13.91
-38.58
-61.72
-83.38
-103.86
-123.61
-142.85
-161.25
-177.88
-191.23
-199.49
-200.9
-194.07
-178.33
-154.01
-122.54
-86.36
-48.54
-12.13
20.44
47.81
69.69
86.58
99.26
108.5
114.95
119.21
121.91
123.66
124.72
124.85
123.28
118.96
111.09
99.49
84.94
69.17
54.21
41.66
31.99
24.25
16.49
6.5
-7.39
-25.9
-48.74
-74.74
-101.86
-127.19
-147.21
-158.47
-158.59
-147.15
-125.95
-98.31
-68.02
-38.12
-10.34
14.7
36.97
56.32
72.32
84.39
92.18
95.8
96
93.96
91.1
88.66
87.54
88.08
90.06
92.93
95.98
98.56
100.26
101.02
101.1
100.96
101.06
101.6
102.3
102.41
100.87
96.63
89.04
78.23
65.26
52.11
41.33
35.37
35.82
42.69
54.2
67.29
78.61
85.76
88.03
86.52
83.46
81.17
81.18
83.81
88.39
93.8
98.97
103.15
105.86
106.74
105.45
101.77
95.77
87.96
79.16
70.2
61.61
53.37
45.02
36
26.01
15.26
4.33
-6.17
-16
-25.48
-35.44
-46.78
-60.09
-75.35
-91.93
-108.87
-125.26
-140.46
-154.12
-166.2
-176.82
-186.32
-195.29
-204.5
-214.72
-226.36
-239.2
-252.38
-264.79
-275.66
-285.12
-294.27
-304.76
-318.05
-334.7
-354.08
-374.77
-395.16
-414.08
-430.95
-445.43
-456.84
-463.77
-464.2
-456.32
-439.39
-414.4
-384.07
-351.93
-321.11
-293.15
-267.58
-242.35
-214.87
-183.22
-146.86
-106.54
-63.72
-19.82
24.12
67.23
108.3
145.51
176.65
199.93
214.81
222.41
225.19
225.94
226.71
228.16
229.54
229.29
225.71
217.59
204.45
186.55
164.88
140.83
116.04
92.01
69.72
49.51
31.03
13.7
-3.04
-19.29
-34.61
-48.14
-58.69
-64.89
-65.46
-59.48
-46.87
-28.65
-6.94
15.51
36.18
53.44
66.94
77.32
85.62
92.61
98.52
103.15
106.17
107.54
107.51
106.54
105.02
103.14
100.8
97.84
94.19
90
85.64
81.51
77.81
74.37
70.64
65.8
59.02
49.8
38.34
25.71
13.8
5.08
1.85
5.65
16.65
33.62
54.3
76.06
96.68
114.82
130.15
143.1
154.5
165.13
175.5
185.7
195.56
204.79
213.17
220.73
227.73
234.56
241.65
249.41
258.23
268.41
279.77
291.17
300.3
303.91
298.75
282.66
255.35
218.5
174.96
127.59
78.35
27.9
-23.99
-77.57
-132.16
-185.59
-234.37
-274.43
-302.25
-315.88
-315.6
-303.77
-284.09
-260.56
-236.5
-214.13
-194.49
-177.58
-162.66
-148.44
-133.49
-116.56
-97.1
-75.46
-52.83
-30.86
-11.26
4.5
15.37
20.82
20.83
15.93
7.06
-4.54
-17.33
-29.43
-38.5
-41.78
-36.43
-20.47
6.5
42.71
84.47
127.05
165.83
197.37
219.91
233.28
238.5
237.27
231.57
223.33
214.14
204.98
196.05
186.63
175.39
160.84
141.99
118.95
93.11
66.8
42.52
21.97
5.5
-7.82
-19.61
-31.28
-43.52
-56.28
-69.04
-81.14
-91.79
-100.26
-106.11
-109.79
-112.99
-118.42
-128.71
-145.13
-166.78
-191.06
-214.79
-235.22
-250.03
-256.95
-253.53
-237.87
-210.2
-174.07
-136.07
-103.68
-82.27
-73.02
-73.02
-77.31
-81.59
-83.94
-84.83
-85.79
-87.93
-91.15
-94.47
-96.77
-97.49
-96.82
-95.53
-94.53
-94.35
-94.8
-95.02
-93.87
-90.61
-85.45
-79.6
-74.84
-72.73
-73.89
-77.77
-83.02
-88.03
-91.44
-92.17
-89.31
-81.99
-69.49
-51.71
-29.48
-4.7
20.19
42.93
62.09
77.28
88.88
97.61
104.09
108.74
111.93
114.16
116.12
118.59
122.21
127.22
133.33
139.84
145.83
150.51
153.42
154.39
153.39
150.24
144.48
135.5
122.9
106.9
88.57
69.58
51.71
36.17
23.27
12.46
2.71
-6.97
-17.14
-27.94
-39.18
-50.61
-61.94
-72.64
-81.73
-87.79
-89.25
-85.13
-75.5
-61.72
-46.09
-31.01
-18.24
-8.41
-1.18
4.3
8.76
12.46
15.31
17.1
17.86
17.97
17.98
18.38
19.37
20.76
22.09
22.88
22.83
21.98
20.65
19.28
18.15
17.32
16.53
15.34
13.31
10.19
6.02
1.1
-4.16
-9.42
-14.58
-19.74
-25.15
-30.98
-37.26
-43.93
-50.88
-57.97
-64.88
-70.9
-74.92
-75.65
-72.17
-64.39
-53.28
-40.6
-28.29
-17.78
-9.7
-3.91
0.16
3.03
5.03
6.21
6.58
6.24
5.49
4.65
4.04
3.8
3.92
4.2
4.36
4.1
3.23
1.76
-0.09
-1.92
-3.27
-3.76
-3.31
-2.1
-0.65
0.4
0.41
-1.09
-4.22
-8.63
-13.45
-17.25
-18.37
-15.29
-7.3
5.25
20.89
37.55
53.24
66.59
77.23
85.42
91.76
96.58
99.9
101.43
101.01
98.77
95.29
91.36
87.62
84.28
81.02
77.14
72
65.39
57.61
49.34
41.24
33.5
25.77
17.23
6.98
-5.65
-21
-39.01
-59.26
-81.01
-103.16
-124.44
-143.76
-160.65
-175.54
-189.67
-204.49
-220.79
-238.09
-254.62
-267.86
-275.56
-276.46
-270.57
-258.88
-242.77
-223.49
-202.06
-179.39
-156.57
-134.87
-115.61
-99.69
-87.32
-77.95
-70.52
-63.97
-57.73
-52.02
-47.93
-47.05
-50.98
-60.61
-75.47
-93.44
-110.95
-123.83
-128.39
-122.54
-106.28
-81.45
-50.88
-17.23
17.7
53.15
89.02
125.12
160.79
194.88
226.25
254.28
279.15
301.54
321.95
340.01
354.09
361.53
359.53
346.17
321.23
286.35
244.61
199.81
155.67
115.34
81.23
54.96
37.62
29.93
32.43
45.56
69.37
102.82
143.07
184.94
221.15
243.68
245.96
225.17
183.64
128.53
69.74
16.64
-24.75
-53.32
-72.17
-86.53
-101.06
-118.23
-138.04
-159.03
-179.51
-198.15
-213.82
-225.02
-229.7
-225.85
-212.56
-190.89
-163.82
-135.34
-109.09
-87.3
-70.5
-57.83
-47.55
-37.36
-24.62
-6.59
18.77
51.81
90.34
129.67
163.8
187.42
197.78
195.52
184.09
168.04
151.13
135.17
120.05
104.63
87.97
70.1
51.96
34.81
19.29
5.12
-8.75
-23.28
-38.63
-53.62
-66.05
-73.53
-74.43
-68.72
-58.12
-45.63
-34.58
-27.66
-26.21
-29.96
-37.18
-45.06
-50.31
-49.92
-42.02
-26.48
-5.1
19.03
42.69
63.62
81.35
96.97
112.4
129.54
149.78
173.75
201.36
231.52
261.78
288.28
306.32
311.67
302.04
278
242.93
202.02
160.88
124.43
96.14
77.64
68.65
67.18
70.05
73.7
74.96
71.4
61.45
44.28
19.9
-10.3
-43.3
-74.87
-100.77
-118.23
-126.85
-128.33
-125.08
-118.82
-110.03
-98.53
-84.91
-71.21
-60.6
-55.95
-58.42
-66.6
-77.12
-86.15
-90.93
-90.66
-86.41
-80.4
-75.01
-71.96
-72
-74.93
-79.98
-86.15
-92.58
-98.62
-103.91
-108.35
-112.19
-115.88
-120.03
-125.01
-130.63
-135.8
-138.6
-136.69
-128.02
-111.64
-88.3
-60.57
-32.4
-8.06
8.82
16.22
14
3.62
-12.51
-31.76
-51.77
-70.54
-86.41
-98.12
-104.93
-106.94
-105.15
-101.19
-96.82
-93.51
-92.19
-93.31
-96.94
-102.85
-110.44
-118.64
-126.06
-131.31
-133.4
-132
-127.4
-120.2
-110.91
-99.8
-86.98
-72.56
-56.87
-40.44
-23.97
-8.15
6.39
19.18
29.83
38.09
43.85
47.11
48
46.64
43.1
37.42
29.76
20.78
11.91
5.39
3.84
9.47
23.19
44.14
69.88
97.16
123.03
145.7
164.7
180.42
193.4
203.59
210.13
211.65
206.84
194.99
176.33
151.91
123.32
92.21
60.01
27.78
-3.6
-33.31
-60.4
-83.9
-102.99
-117.26
-126.8
-132.11
-133.88
-132.78
-129.41
-124.35
-118.37
-112.57
-108.47
-107.75
-111.87
-121.58
-136.43
-154.6
-172.99
-187.73
-194.92
-191.43
-175.63
-147.86
-110.45
-67.27
-22.82
18.83
54.81
83.66
105.09
119.44
127.33
129.58
127.35
122.24
116.09
110.51
106.32
103.4
100.88
97.67
93.01
86.63
78.62
69.1
58.11
45.72
32.36
19.04
7.4
-0.53
-2.84
1.78
13.54
31.24
52.2
72.61
88.31
96.14
95.25
87.72
78.08
71.61
72.06
80
92.5
104.56
111.53
111.26
104.89
95.96
88.33
84.25
83.36
83.04
79.77
70.55
53.85
29.95
0.91
-29.56
-56.39
-73.86
-76.88
-62.71
-32.36
9.19
54.25
94.98
125.84
144.99
153.71
154.55
149.1
136.86
115.73
83.87
41.85
-6.17
-53.08
-90.87
-113.24
-117.43
-104.59
-78.64
-44.47
-6.39
32.46
69.91
104.11
133.18
155.37
169.63
176.19
176.64
173.46
169.2
165.72
163.61
162.23
160
155.1
146.23
133.08
116.4
97.62
78.22
59.16
40.63
22.18
3.2
-16.42
-36.09
-54.71
-71.2
-85.11
-96.84
-107.4
-117.69
-128.07
-138.24
-147.63
-156.03
-163.93
-172.42
-182.7
-195.5
-210.76
-227.39
-243.19
-255.08
-259.62
-254.09
-237.79
-212.87
-184.15
-157.64
-138.39
-128.75
-127.91
-132.88
-140.2
-147.47
-153.88
-159.76
-165.71
-172.05
-178.76
-185.75
-192.96
-200.21
-206.88
-211.81
-213.41
-210.29
-201.92
-188.95
-173.09
-156.29
-139.78
-123.47
-105.93
-85.22
-59.88
-29.82
3.57
37.92
70.71
100.02
124.8
144.71
159.89
170.64
177.5
181.34
183.37
184.97
187.18
190.44
194.36
197.98
200.05
199.51
195.78
188.85
179.15
167.29
153.88
139.36
124.08
108.44
93
78.49
65.69
55.33
47.98
44.11
43.98
47.62
54.77
64.76
76.69
89.43
101.75
112.26
119.34
121.23
116.33
103.72
83.79
58.4
30.62
3.87
-19.16
-37.17
-50.46
-60.46
-68.88
-77.07
-85.59
-94.35
-103.01
-111.3
-119.24
-127.02
-134.77
-142.51
-150.13
-157.55
-164.86
-172.13
-179.08
-184.83
-187.82
-186.29
-179
-165.94
-148.57
-129.42
-111.2
-95.95
-84.45
-76.4
-70.88
-67.02
-64.39
-62.9
-62.5
-62.86
-63.29
-62.96
-61.26
-57.98
-53.31
-47.64
-41.25
-34.23
-26.56
-18.34
-10.01
-2.34
3.6
6.84
6.84
3.96
-0.29
-3.35
-2.19
5.76
21.63
44.68
72.46
101.72
129.56
154.17
175.14
193.01
208.56
222.34
234.51
245.09
254.28
262.66
271.11
280.41
290.94
302.44
314.2
325.49
336.11
346.57
357.78
370.18
382.82
393.11
397.23
391.41
373.17
342.07
299.71
249.1
193.81
137.36
82.79
32.36
-12.66
-52.25
-87.54
-120.33
-152.4
-184.71
-217.26
-249.26
-279.71
-307.83
-333.28
-356.19
-376.91
-395.91
-413.62
-430.26
-445.73
-459.55
-470.96
-479.17
-483.63
-484.21
-481.13
-474.9
-466.1
-455.3
-442.88
-428.82
-412.5
-392.56
-367.14
-334.45
-293.48
-244.66
-190.05
-132.92
-76.95
-25.31
19.89
57.72
88.16
111.68
128.82
140.14
146.21
147.72
145.55
140.66
134.01
126.35
118.17
109.62
100.69
91.26
81.18
70.33
58.5
45.32
30.49
14.12
-2.71
-17.76
-28.01
-30.63
-24.12
-9.07
11.92
35.12
57.05
75.51
89.89
100.81
109.23
115.84
120.8
123.92
125.13
124.72
123.36
121.86
120.77
120.22
119.77
118.74
116.57
113.17
109.01
104.87
101.45
98.89
96.59
93.38
87.86
78.85
65.76
48.91
29.7
10.67
-4.93
-13.91
-14.18
-5.56
10.04
29.2
48.28
64.45
76.41
84.14
88.3
89.48
87.98
83.91
77.61
69.87
61.9
54.98
50.11
47.65
47.29
48.2
49.4
50.08
49.92
49.11
48.17
47.67
47.85
48.52
49.15
49.18
48.34
46.83
45.2
44.14
44.19
45.56
48.16
51.7
55.8
59.95
63.5
65.7
66.09
65.04
64.2
66.55
75.62
94.37
124.01
163.29
208.52
254.38
295.02
325.02
340.19
337.99
317.83
281.26
231.89
174.95
116.35
61.51
14.36
-23.14
-50.98
-70.52
-83.8
-92.92
-99.61
-105.08
-109.98
-114.5
-118.45
-121.48
-123.32
-123.96
-123.65
-122.84
-121.98
-121.29
-120.77
-120.25
-119.47
-118.34
-116.86
-115.22
-113.82
-113.18
-114
-116.79
-121.63
-127.7
-133.19
-135.66
-132.84
-123.5
-108.08
-88.6
-67.9
-48.64
-32.45
-19.71
-9.82
-1.92
4.63
9.92
13.73
15.75
15.88
14.39
11.75
8.58
5.35
2.34
-0.5
-3.38
-6.55
-10.15
-14.1
-18.18
-22.12
-25.76
-29.14
-32.47
-36.06
-40.26
-45.4
-51.69
-59.19
-67.64
-76.3
-83.91
-88.77
-89.17
-83.96
-73.05
-57.53
-39.43
-21.08
-4.47
9.28
19.88
27.54
32.62
35.25
35.45
33.32
29.33
24.33
19.32
15.15
12.06
9.72
7.37
4.3
0.22
-4.51
-9.1
-12.74
-15.13
-16.67
-18.24
-20.88
-25.38
-32.01
-40.5
-49.98
-58.95
-65.39
-67.09
-62.25
-50.22
-32.05
-10.32
11.55
30.47
44.51
53.35
57.89
59.52
59.38
58.01
55.4
51.35
45.8
38.98
31.35
23.36
15.16
6.66
-2.41
-12.06
-21.95
-31.43
-39.9
-47.14
-53.58
-60.16
-68
-77.95
-90.29
-104.59
-119.82
-134.64
-147.72
-158.03
-165.02
-168.49
-168.32
-164.11
-155.04
-140.34
-119.92
-94.92
-67.68
-41.01
-17.23
2.36
17.36
27.52
32.04
29.56
18.86
0.05
-24.77
-51.71
-76.25
-94.79
-105.61
-109.18
-107.53
-103.29
-98.92
-96.16
-95.9
-98.17
-102.3
-107.22
-111.71
-114.79
-115.95
-115.34
-113.79
-112.58
-113.2
-116.72
-123.16
-131.03
-137.29
-138.06
-129.87
-110.95
-82.09
-46.43
-8.48
27.43
58.26
82.8
101.33
114.86
124.49
130.97
134.77
136.27
136.04
134.83
133.49
132.61
132.36
132.41
132.05
130.52
127.38
122.76
117.3
111.85
106.97
102.65
98.18
92.54
84.86
74.87
63.11
50.69
38.83
28.35
19.33
11.21
3.02
-6.2
-17.2
-30.36
-45.52
-61.8
-77.36
-89.43
-94.81
-90.9
-76.71
-53.56
-24.85
5.07
32.31
54.55
71.37
83.68
92.82
99.74
104.77
107.85
108.95
108.32
106.43
103.78
100.64
97.1
93.11
88.74
84.19
79.79
75.87
72.66
70.16
68.2
66.44
64.42
61.73
58.05
53.25
47.41
40.74
33.52
26
18.32
10.53
2.64
-5.38
-13.61
-22.27
-31.79
-42.86
-56.21
-72.1
-89.75
-106.99
-120.44
-126.4
-122.11
-106.92
-82.56
-52.7
-21.62
7.06
31.23
50.31
64.69
75.04
81.86
85.51
86.41
85.28
83.09
80.74
78.89
77.7
76.9
76.1
74.91
73.14
70.7
67.51
63.43
58.27
51.89
44.38
35.96
27.1
18.26
9.85
2.04
-5.37
-12.93
-21.5
-31.79
-43.92
-56.93
-68.71
-76.48
-77.79
-71.47
-58.24
-40.46
-21.28
-3.52
11.1
22.14
29.98
35.21
38.16
38.86
37.33
33.95
29.57
25.42
22.68
22.08
23.66
26.8
30.51
33.78
35.95
36.95
37.16
37.18
37.48
38.09
38.56
38.1
35.93
31.59
25.46
18.85
14.06
13.86
20.78
36.24
60.02
90.24
123.94
158.03
190.16
219.16
244.92
267.93
288.71
307.57
324.66
340.17
354.53
368.29
381.78
394.74
405.99
413.63
415.56
410.3
397.54
378.26
354.26
327.42
298.96
269.25
238.07
205.12
170.53
135
99.55
65.24
32.77
2.48
-25.61
-51.71
-76.15
-99.43
-122.25
-145.45
-169.84
-195.72
-222.4
-247.98
-269.57
-284.09
-289.43
-285.34
-273.72
-258.07
-242.28
-229.4
-220.87
-216.47
-215.01
-215.08
-215.58
-215.87
-215.57
-214.27
-211.56
-207.15
-201.14
-194.05
-186.78
-180.17
-174.7
-170.28
-166.3
-161.88
-156.22
-148.76
-139.36
-128.24
-115.79
-102.52
-88.9
-75.35
-62.27
-50.12
-39.47
-30.82
-24.55
-20.69
-18.94
-18.69
-19.23
-19.9
-20.18
-19.76
-18.51
-16.45
-13.66
-10.33
-6.65
-2.8
1.1
4.95
8.63
11.96
14.62
16.19
16.25
14.63
11.4
6.91
1.64
-3.99
-9.74
-15.51
-21.19
-26.56
-31.19
-34.53
-36.06
-35.37
-32.38
-27.29
-20.62
-13.19
-6
0.03
4.23
6.29
6.34
4.73
1.78
-2.49
-8.39
-16.41
-26.81
-39.29
-52.71
-65.25
-74.89
-80.09
-80.4
-76.61
-70.49
-64.03
-58.89
-55.95
-55.41
-56.91
-59.69
-62.64
-64.28
-62.85
-56.74
-45.1
-28.23
-7.78
13.68
33.38
49.11
59.65
64.93
65.7
63.11
58.41
52.63
46.47
40.31
34.28
28.28
22.21
15.89
9.26
2.24
-5.2
-13.07
-21.25
-29.49
-37.39
-44.5
-50.45
-55.07
-58.27
-59.92
-59.79
-57.63
-53.45
-47.7
-41.29
-35.21
-30.16
-26.24
-23.11
-20.28
-17.61
-15.39
-14.18
-14.32
-15.67
-17.55
-19.07
-19.61
-19.09
-17.97
-17.04
-17.05
-18.49
-21.44
-25.56
-30.05
-33.75
-35.3
-33.56
-27.93
-18.71
-7.1
5.01
15.55
22.76
25.57
23.82
18.16
9.77
0.03
-9.85
-19.03
-26.96
-33.27
-37.53
-39.16
-37.66
-32.91
-25.48
-16.61
-7.81
-0.35
5.23
9.11
11.91
14.12
15.76
16.34
15.23
12.07
7.09
1.06
-5.01
-10.27
-14.22
-16.74
-17.98
-18.14
-17.43
-16.08
-14.49
-13.18
-12.72
-13.63
-16.19
-20.39
-25.98
-32.52
-39.42
-46.03
-51.67
-55.69
-57.64
-57.28
-54.72
-50.22
-43.91
-35.51
-24.18
-8.69
11.98
38.01
68.22
100.07
130.21
155.54
174.03
185.1
189.32
187.68
181.08
170.33
156.42
140.88
125.79
113.14
104.01
97.96
93.24
87.59
79.34
68.31
55.68
43.37
32.95
25.02
19.04
13.84
8.35
2.08
-4.83
-11.94
-18.99
-26.09
-33.56
-41.5
-49.6
-57.02
-62.78
-66.26
-67.47
-67.06
-66.08
-65.51
-66
-67.77
-70.72
-74.57
-78.91
-83.29
-87.15
-89.92
-91.03
-90.1
-87.08
-82.33
-76.59
-70.74
-65.6
-61.67
-59.03
-57.41
-56.31
-55.27
-53.95
-52.28
-50.3
-47.98
-45.18
-41.56
-36.76
-30.52
-22.87
-14.11
-4.72
4.82
14.07
22.7
30.42
36.97
42.22
46.15
48.93
50.84
52.2
53.25
54.15
54.97
55.78
56.66
57.59
58.33
58.36
57.01
53.62
47.77
39.44
28.98
17.03
4.25
-8.69
-21.29
-33.1
-43.77
-53.04
-60.67
-66.45
-70.09
-71.15
-69.13
-63.71
-54.95
-43.55
-30.69
-17.73
-5.79
4.64
13.64
21.6
28.86
35.4
40.93
45.15
48.07
50.14
52.1
54.59
57.82
61.53
65.13
68.15
70.39
72.1
73.71
75.58
77.88
80.46
83.1
85.53
87.57
88.96
89.23
87.69
83.61
76.63
67.11
56.17
45.46
36.55
30.4
27.1
25.99
26.14
26.7
27.14
27.18
26.6
25.1
22.33
18.08
12.3
5.1
-3.54
-13.83
-25.95
-39.64
-53.71
-66.06
-74.29
-76.56
-72.34
-62.63
-49.5
-35.23
-21.57
-9.39
1.15
10.13
17.5
23.04
26.56
28.11
28.07
26.91
24.94
22.08
17.92
12.04
4.4
-4.35
-12.99
-20.14
-24.91
-27.26
-28.11
-28.87
-30.7
-33.97
-38.12
-41.96
-44.33
-44.58
-42.77
-39.46
-35.25
-30.57
-25.57
-20.29
-14.92
-9.89
-5.79
-3.12
-2.15
-2.85
-5.05
-8.47
-12.86
-17.88
-23.09
-27.98
-32.08
-35.2
-37.53
-39.59
-41.86
-44.49
-47.01
-48.53
-48.16
-45.57
-41.22
-36.19
-31.6
-28.06
-25.45
-23.26
-21.08
-19.01
-17.7
-17.88
-19.88
-23.34
-27.36
-31
-33.66
-35.34
-36.41
-37.3
-38.15
-38.78
-38.85
-38.04
-36.4
-34.25
-32.19
-30.78
-30.43
-31.1
-32.36
-33.51
-33.89
-33.11
-31.24
-28.81
-26.62
-25.54
-26.28
-29.28
-34.66
-42.15
-51.13
-60.7
-69.86
-77.86
-84.51
-90.1
-95.22
-100.2
-104.78
-107.99
-108.42
-104.75
-96.31
-83.34
-67.02
-49.04
-31.23
-15.04
-1.32
9.71
18.4
25.24
30.67
34.98
38.46
41.66
45.43
50.77
58.4
68.26
79.38
90.14
98.88
104.52
106.9
106.66
104.78
101.99
98.51
94.1
88.49
81.7
74.29
67.17
61.21
56.85
53.93
51.85
49.82
47.27
44.04
40.29
36.42
32.76
29.4
26.24
23.04
19.6
15.76
11.44
6.59
1.25
-4.43
-10.04
-14.87
-18.15
-19.16
-17.51
-13.27
-7.01
0.44
8.08
14.99
20.46
24.01
25.53
25.32
23.98
22.31
21.09
20.9
21.99
24.29
27.41
30.79
33.89
36.34
38.07
39.29
40.43
41.91
43.93
46.36
48.78
50.58
51.3
50.81
49.49
48.17
47.86
49.36
52.89
58
63.66
68.83
72.81
75.55
77.56
79.56
82.06
85.04
87.95
89.72
89.18
85.36
77.73
66.3
51.55
34.28
15.49
-3.69
-22.02
-38.13
-50.6
-58.32
-60.74
-58.3
-52.45
-45.41
-39.65
-37.24
-39.42
-46.48
-57.76
-71.94
-87.2
-101.55
-113.13
-120.57
-123.29
-121.58
-116.46
-109.27
-101.26
-93.34
-85.95
-79.23
-73.21
-67.88
-63.13
-58.69
-54.16
-49.19
-43.63
-37.73
-31.91
-26.65
-22.14
-18.24
-14.62
-10.91
-6.97
-2.95
0.83
4
6.39
8.01
9.03
9.59
9.73
9.4
8.52
7.16
5.46
3.66
1.86
-0.06
-2.45
-5.72
-10.08
-15.42
-21.28
-27
-31.98
-35.91
-38.77
-40.86
-42.54
-44.07
-45.46
-46.47
-46.64
-45.47
-42.68
-38.38
-33.06
-27.5
-22.45
-18.42
-15.49
-13.28
-11.17
-8.52
-5
-0.75
3.56
6.92
8.46
7.79
5.29
2.05
-0.56
-1.3
0.43
4.48
10.13
16.41
22.43
27.56
31.4
33.72
34.43
33.72
32.15
30.62
30.12
31.34
34.35
38.46
42.53
45.41
46.41
45.49
43.22
40.38
37.6
35.16
32.93
30.63
28.01
25.01
21.72
18.31
14.83
11.13
6.78
1.26
-5.89
-14.76
-24.94
-35.44
-44.78
-51.01
-52
-45.8
-31.22
-8.32
21.41
55.5
91.15
125.95
158.06
185.98
208.02
222.1
226.21
219.34
202.25
177.55
148.96
119.86
92.17
66.14
41.03
16.16
-8.18
-30.7
-49.73
-63.98
-73.11
-77.61
-78.45
-76.66
-73.09
-68.42
-63.24
-57.95
-52.6
-46.77
-39.8
-31.28
-21.5
-11.62
-3.32
1.98
3.8
2.92
0.98
-0.18
0.63
3.52
7.58
11.41
13.83
14.37
13.33
11.53
9.72
8.27
7.08
5.81
4.27
2.58
1.19
0.57
0.91
2.06
3.6
5.04
6.02
6.44
6.28
5.58
4.46
3.13
1.97
1.36
1.61
2.71
4.34
6.01
7.25
7.79
7.59
6.8
5.6
4.23
3
2.25
2.41
3.69
5.92
8.56
10.74
11.67
10.91
8.52
4.91
0.61
-4.03
-8.84
-13.7
-18.28
-22.04
-24.36
-24.93
-23.96
-22.29
-21.06
-21.19
-23
-26.04
-29.37
-32.04
-33.58
-34.19
-34.53
-35.38
-37.15
-39.72
-42.53
-44.84
-46.15
-46.29
-45.43
-43.86
-41.79
-39.27
-36.25
-32.73
-28.87
-25.03
-21.68
-19.25
-17.92
-17.59
-17.91
-18.35
-18.39
-17.64
-15.91
-13.16
-9.57
-5.4
-1.07
2.97
6.28
8.51
9.64
9.89
9.77
9.9
10.8
12.84
16.12
20.54
25.83
31.65
37.58
43.14
47.8
50.99
52.18
50.93
47.06
40.71
32.44
23.02
13.34
4.14
-4.18
-11.66
-18.57
-25.19
-31.52
-37.17
-41.59
-44.36
-45.54
-45.69
-45.61
-45.93
-46.73
-47.49
-47.33
-45.53
-41.92
-36.98
-31.63
-26.77
-22.96
-20.32
-18.62
-17.57
-16.99
-16.86
-17.28
-18.31
-19.93
-22.07
-24.63
-27.57
-30.91
-34.71
-39.08
-44.13
-50
-56.78
-64.44
-72.77
-81.43
-89.93
-97.84
-104.77
-110.55
-115.2
-118.94
-122.08
-124.93
-127.77
-130.68
-133.57
-136.26
-138.52
-140.28
-141.62
-142.86
-144.32
-146.18
-148.22
-149.77
-149.72
-146.78
-139.81
-128.28
-112.48
-93.51
-73.08
-53.09
-35.15
-20.28
-8.75
-0.28
5.71
9.82
12.34
13.28
12.39
9.34
3.95
-3.57
-12.49
-21.38
-28.22
-30.74
-27.08
-16.4
0.63
21.94
44.73
66.3
84.88
99.84
111.41
120.09
126.25
129.93
131.1
129.97
127.15
123.45
119.51
115.54
111.27
106.26
100.23
93.39
86.3
79.68
73.94
68.98
64.21
58.86
52.4
44.74
36.26
27.57
19.3
11.71
4.74
-2.06
-9.39
-18.02
-28.53
-40.91
-54.18
-66.3
-74.5
-76.07
-69.4
-54.7
-34.03
-10.69
11.94
31.44
46.81
58.3
66.8
73.13
77.64
80.36
81.25
80.56
78.86
76.78
74.72
72.61
69.99
66.33
61.41
55.58
49.61
44.38
40.42
37.59
35.16
32.14
27.77
21.87
14.86
7.52
0.68
-5.16
-9.96
-14.19
-18.64
-24.27
-31.93
-42.03
-54.23
-67.07
-78.1
-84.26
-82.96
-72.96
-55
-31.66
-6.53
16.95
36.44
51.08
61.26
68.02
72.47
75.37
77.16
78.06
78.17
77.54
76.17
74.03
71.08
67.41
63.22
58.83
54.58
50.67
47.09
43.63
39.94
35.63
30.58
24.84
18.71
12.61
6.84
1.48
-3.73
-9.33
-16.03
-24.39
-34.52
-45.65
-56.1
-63.42
-65.15
-59.72
-47.2
-29.44
-9.54
9.23
24.53
35.53
42.8
47.63
51.19
54.12
56.51
58.23
59.24
59.75
60.05
60.29
60.36
59.95
58.72
56.54
53.61
50.41
47.51
45.37
44.17
43.75
43.63
43.14
41.61
38.52
33.68
27.31
19.94
12.34
5.29
-0.5
-4.52
-6.47
-6.33
-4.34
-1.04
2.85
6.61
9.72
12.02
13.73
15.17
16.52
17.66
18.16
17.65
16.03
13.66
11.16
9.11
7.69
6.55
5.08
2.7
-0.74
-4.95
-9.32
-13.33
-16.78
-19.88
-23.1
-26.95
-31.75
-37.66
-44.62
-52.25
-59.8
-65.95
-69.05
-67.48
-60.34
-47.93
-31.81
-14.32
2.23
16.25
27.21
35.42
41.49
45.86
48.59
49.5
48.53
45.92
42.26
38.23
34.34
30.75
27.22
23.31
18.59
12.94
6.62
0.3
-5.28
-9.6
-12.64
-14.94
-17.42
-20.96
-26.14
-33.14
-41.71
-51.21
-60.54
-68.13
-72.11
-70.74
-63.17
-49.9
-32.85
-14.79
1.65
14.87
24.64
31.76
37.36
42.16
46.19
49.04
50.3
49.95
48.39
46.27
44.16
42.39
40.9
39.44
37.74
35.57
32.88
29.7
26.17
22.45
18.66
14.8
10.73
6.21
0.94
-5.25
-12.47
-20.73
-29.98
-39.94
-49.7
-57.66
-61.56
-59.18
-49.27
-32.28
-10.45
12.88
34.45
52.22
65.79
76.06
84.32
91.43
97.55
102.31
105.38
106.85
107.24
107.29
107.54
108.23
109.32
110.74
112.6
115.2
118.89
123.84
129.84
136.38
142.8
148.63
153.82
158.82
164.37
171.35
180.37
191.58
204.5
217.92
230.13
239.29
244.02
243.87
239.45
231.99
222.69
211.96
199.06
182.44
160.39
131.93
97.32
58.22
17.3
-22.38
-58.02
-87.73
-110.88
-128.19
-141.49
-153.03
-164.76
-177.71
-191.84
-206.26
-219.88
-231.89
-241.89
-249.83
-255.71
-259.5
-261.26
-261.37
-260.61
-260.05
-260.52
-262.32
-264.99
-267.57
-269.12
-269.15
-267.85
-265.92
-264.24
-263.45
-263.79
-265.17
-267.24
-269.55
-271.43
-271.9
-269.46
-262.28
-248.64
-227.63
-199.63
-166.39
-130.43
-94.11
-58.85
-24.99
7.62
38.75
67.17
90.95
108.25
118.34
122.02
121.19
117.9
113.46
108.12
101.56
93.76
85.51
78.35
73.92
73.24
76.22
81.88
88.99
96.61
104.4
112.26
119.77
125.86
128.98
127.79
121.85
111.85
99.21
85.29
70.77
55.84
40.78
26.77
15.87
10.26
10.98
17.1
25.87
33.81
38.22
38.16
34.55
29.38
24.7
21.94
21.69
24.07
29.04
36.55
46.43
58.16
70.78
83.05
93.74
101.92
107.14
109.45
109.24
107.13
103.88
100.31
97.21
95.12
94.16
94.06
94.27
94.25
93.66
92.24
89.7
85.54
79.17
70.21
58.93
46.31
33.77
22.63
13.53
6.35
0.48
-4.63
-9.1
-12.7
-15.16
-16.56
-17.56
-19.14
-22.13
-26.79
-32.64
-38.66
-43.69
-46.77
-47.39
-45.54
-41.56
-36.1
-29.92
-23.81
-18.44
-14.19
-11.11
-8.93
-7.26
-5.85
-4.71
-4.33
-5.42
-8.65
-14.31
-21.97
-30.55
-38.53
-44.41
-47.12
-46.41
-42.74
-37.11
-30.72
-24.66
-19.71
-16.22
-14.06
-12.69
-11.26
-8.91
-5.12
0.04
5.78
10.89
14.12
14.78
12.93
9.4
5.42
2.05
-0.16
-1.23
-1.61
-1.66
-1.42
-0.52
1.43
4.59
8.49
12.13
14.32
14.21
11.67
7.26
1.92
-3.54
-8.81
-14.09
-19.84
-26.27
-33.06
-39.34
-44.1
-46.65
-47.07
-46.23
-45.49
-46.09
-48.63
-52.81
-57.58
-61.54
-63.45
-62.6
-58.92
-53.05
-46.34
-40.67
-38.08
-40.1
-47.14
-58.11
-70.78
-82.57
-91.66
-97.6
-101.35
-104.42
-107.98
-112.23
-116.49
-119.82
-121.74
-122.68
-123.75
-126.36
-131.67
-140.08
-150.87
-161.95
-169.91
-170.57
-159.92
-135.26
-96.38
-45.99
10.6
66.59
115.33
151.69
172.91
178.64
170.63
152.02
126.77
99.09
72.83
51.03
35.37
25.96
21.41
19.28
16.95
12.44
5.06
-4.55
-14.89
-24.24
-31.44
-36.29
-39.55
-42.61
-46.96
-53.53
-62.43
-72.79
-82.96
-90.98
-94.99
-93.71
-86.71
-74.52
-58.44
-40.23
-21.7
-4.36
10.74
23.01
32.19
38.21
41.21
41.63
40.27
38.29
36.95
37.26
39.53
43.28
47.44
50.9
53.03
53.96
54.36
54.99
56.13
57.32
57.53
55.63
50.93
43.44
33.82
23.07
12.28
2.42
-5.49
-10.48
-11.63
-8.36
-0.77
10.38
23.76
37.92
51.7
64.47
76.11
86.69
96.26
104.74
111.97
117.8
122.15
124.95
126.03
125.08
121.82
116.22
108.63
99.89
90.97
82.68
75.37
68.92
62.96
57.12
51.26
45.44
39.87
34.75
30.21
26.29
22.92
19.91
16.98
13.81
10.22
6.3
2.39
-1.09
-3.84
-5.87
-7.51
-9.24
-11.48
-14.33
-17.65
-21.13
-24.52
-27.68
-30.72
-33.79
-36.94
-40.08
-42.96
-45.35
-47.18
-48.59
-49.87
-51.28
-52.86
-54.42
-55.65
-56.29
-56.33
-55.97
-55.48
-55.06
-54.7
-54.26
-53.54
-52.41
-50.84
-48.95
-46.84
-44.6
-42.25
-39.74
-37.03
-34.18
-31.43
-29.13
-27.66
-27.23
-27.78
-28.9
-30.04
-30.72
-30.79
-30.45
-30.12
-30.13
-30.54
-31.1
-31.47
-31.5
-31.35
-31.47
-32.23
-33.71
-35.57
-37.39
-38.94
-40.36
-42
-43.92
-45.61
-46.02
-44.09
-39.37
-32.46
-24.78
-17.93
-12.91
-9.71
-7.54
-5.44
-3
-0.61
0.82
0.53
-1.58
-4.77
-7.85
-9.8
-10.22
-9.44
-8.23
-7.38
-7.35
-8.27
-10.02
-12.28
-14.74
-16.92
-18.39
-18.91
-18.58
-17.81
-17.09
-16.61
-16.12
-15.06
-12.95
-9.8
-6.12
-2.72
-0.24
1.18
1.85
2.16
2.28
1.92
0.62
-1.97
-5.8
-10.44
-15.38
-20.33
-25.37
-30.79
-36.73
-42.99
-48.89
-53.51
-56.02
-55.87
-52.93
-47.37
-39.72
-30.77
-21.52
-13
-6.18
-1.63
0.43
0.14
-2.09
-5.6
-9.6
-13.17
-15.42
-15.74
-14
-10.67
-6.53
-2.42
1.14
4.03
6.41
8.53
10.6
12.73
15.01
17.52
20.29
23.09
25.3
25.89
23.74
18.23
9.7
-0.27
-9.28
-14.94
-15.85
-12.12
-5.28
2.58
9.79
15.77
21.06
26.63
33.16
40.6
48.23
55.15
60.82
65.21
68.68
71.56
73.95
75.54
75.88
74.66
71.87
67.89
63.41
59.22
56.02
54.23
53.86
54.49
55.39
55.66
54.46
51.23
45.88
38.85
31.14
24.08
19.17
17.71
20.44
27.28
37.19
48.37
58.79
66.79
71.54
73.22
72.83
71.64
70.67
70.35
70.43
70.21
68.84
65.68
60.44
53.25
44.56
35.17
26.03
18.07
11.95
7.87
5.57
4.41
3.61
2.45
0.46
-2.56
-6.61
-11.54
-17.05
-22.76
-28.12
-32.67
-36.13
-38.54
-40.24
-41.68
-43.07
-44.32
-45.02
-44.76
-43.4
-41.16
-38.57
-36.1
-34
-32.17
-30.36
-28.39
-26.27
-24.14
-22.14
-20.27
-18.36
-16.21
-13.7
-10.91
-8.03
-5.29
-2.82
-0.65
1.3
3.09
4.7
6.03
6.93
7.25
6.95
6.03
4.57
2.66
0.31
-2.53
-5.88
-9.71
-13.86
-18.1
-22.25
-26.27
-30.25
-34.31
-38.5
-42.75
-46.79
-50.32
-53.04
-54.72
-55.22
-54.43
-52.32
-48.94
-44.47
-39.19
-33.46
-27.58
-21.88
-16.57
-11.74
-7.38
-3.4
0.33
3.82
7
9.75
11.98
13.67
14.81
15.37
15.19
14.13
12.05
9.07
5.57
2.08
-0.85
-2.84
-3.73
-3.61
-2.82
-2
-1.96
-3.49
-7.05
-12.43
-18.72
-24.5
-28.42
-29.59
-27.86
-23.67
-17.64
-10.33
-2.03
6.98
16.26
25.03
32.39
37.58
40.3
40.79
39.64
37.52
34.88
31.88
28.47
24.63
20.38
15.82
10.97
5.76
0.09
