-34.77
-44.22
-49.17
-50.64
-50.61
-51.16
-53.77
-58.81
-65.68
-73.23
-80.23
-85.54
-88.09
-86.83
-80.84
-69.66
-53.75
-34.56
-14.27
4.88
21.37
34.72
45.46
54.55
62.79
70.44
77.18
82.4
85.58
86.48
85.27
82.49
79.04
76.16
75.27
77.78
84.53
95.45
109.34
124.17
137.74
148.4
155.53
159.63
162.02
164.21
167.42
172.06
177.59
182.51
184.6
181.42
170.84
151.71
124.35
90.58
53.4
16.31
-17.54
-46.05
-68.44
-85.21
-97.74
-107.73
-116.71
-125.73
-135.23
-145.1
-154.74
-163.1
-168.94
-171.05
-168.69
-161.88
-151.45
-138.8
-125.42
-112.41
-100.2
-88.68
-77.54
-66.63
-56.18
-46.64
-38.33
-31.23
-24.89
-18.63
-12.05
-5.16
1.56
7.4
11.83
14.72
16.3
16.94
16.9
16.2
14.58
11.71
7.27
1.07
-6.89
-16.24
-26.18
-35.37
-42.22
-45.33
-44.09
-39.07
-31.82
-24.33
-18.25
-14.3
-12.14
-10.78
-9.23
-6.95
-4.09
-1.21
1.1
2.55
3.25
3.5
3.59
3.55
3.14
2
-0.23
-3.69
-8.35
-14.07
-20.72
-28.26
-36.69
-45.94
-55.78
-65.91
-76.03
-86.09
-96.26
-106.84
-117.93
-129.36
-140.56
-150.79
-159.2
-164.86
-166.56
-162.88
-152.5
-134.82
-110.46
-81.28
-49.75
-18.1
12.31
40.81
66.66
88.24
102.9
107.83
101.52
84.88
61.47
36.49
15.29
1.83
-1.89
4.04
17.85
36.48
55.95
72.02
81.01
80.91
72.04
56.94
39.41
23.1
10.3
1.48
-4.25
-8.25
-11.44
-14
-15.7
-16.4
-16.56
-17.19
-19.33
-23.23
-27.82
-30.73
-29.04
-20.43
-4.19
18.43
44.57
70.77
93.95
112.12
124.51
131.18
132.6
129.38
122.18
111.9
99.81
87.52
76.61
68.21
62.52
58.8
55.63
51.63
46.1
39.42
32.84
27.84
25.34
25.25
26.59
27.98
28.26
26.98
24.35
21.02
17.65
14.7
12.25
10.09
7.67
4.23
-1
-8.52
-18.19
-28.91
-38.79
-45.6
-47.52
-43.8
-35.02
-22.86
-9.52
3.01
13.4
21.08
26.19
29.23
30.8
31.43
31.52
31.25
30.64
29.57
27.91
25.55
22.39
18.35
13.45
7.81
1.83
-3.89
-8.56
-11.55
-12.62
-12.09
-10.79
-9.73
-9.85
-11.64
-15.11
-19.88
-25.46
-31.47
-37.81
-44.69
-52.43
-61.29
-71.28
-82.1
-93.06
-103.15
-111.12
-115.71
-115.86
-111.15
-101.93
-89.37
-75.07
-60.59
-47.04
-34.88
-24.11
-14.54
-6.11
1.07
6.84
11.19
14.31
16.57
18.38
20.14
22.13
24.54
27.19
29.53
30.72
29.91
26.73
21.55
15.48
9.98
6.18
4.5
4.54
5.47
6.48
7.2
7.69
8.19
8.84
9.33
9.03
7.17
3.2
-2.78
-9.71
-15.62
-18.07
-14.89
-4.95
11.38
32.34
55.41
78.19
99.1
117.66
134.3
149.85
165.04
180.23
195.24
209.54
222.27
232.52
239.63
243.31
243.82
241.78
237.97
233
227.06
219.82
210.52
198.25
182.16
161.9
137.75
110.74
82.39
54.39
28.05
4.07
-17.44
-36.76
-54.09
-69.49
-82.77
-93.81
-102.67
-109.66
-115.22
-119.7
-123.24
-125.78
-127.3
-127.89
-127.8
-127.38
-126.93
-126.67
-126.61
-126.65
-126.58
-126.22
-125.46
-124.3
-122.85
-121.23
-119.54
-117.8
-115.93
-113.74
-110.96
-107.27
-102.39
-96.3
-89.19
-81.56
-73.96
-66.86
-60.36
-54.29
-48.34
-42.37
-36.58
-31.47
-27.66
-25.66
-25.62
-27.32
-30.31
-34.07
-38.05
-41.87
-45.21
-47.95
-50.02
-51.48
-52.4
-52.87
-52.93
-52.6
-51.93
-51.05
-50.18
-49.56
-49.28
-49.22
-49.09
-48.57
-47.47
-45.93
-44.25
-42.79
-41.73
-41.07
-40.61
-40.22
-39.91
-39.79
-39.99
-40.51
-41.17
-41.78
-42.13
-42.13
-41.66
-40.63
-38.94
-36.66
-33.98
-31.21
-28.52
-25.88
-23.03
-19.7
-15.9
-11.97
-8.5
-6.03
-4.77
-4.51
-4.79
-5.1
-5.1
-4.63
-3.7
-2.43
-0.99
0.28
1.01
0.85
-0.39
-2.56
-5.23
-7.88
-10.01
-11.4
-12.09
-12.34
-12.4
-12.44
-12.45
-12.3
-11.82
-11
-9.97
-9
-8.4
-8.32
-8.67
-9.16
-9.46
-9.35
-8.84
-8.15
-7.57
-7.27
-7.24
-7.31
-7.3
-7.15
-6.98
-6.97
-7.28
-7.82
-8.34
-8.53
-8.17
-7.22
-5.89
-4.48
-3.31
-2.56
-2.31
-2.49
-2.99
-3.66
-4.36
-4.93
-5.26
-5.3
-5.08
-4.66
-4.16
-3.65
-3.15
-2.69
-2.32
-2.11
-2.16
-2.58
-3.35
-4.33
-5.27
-5.94
-6.17
-5.93
-5.33
-4.49
-3.54
-2.54
-1.6
-0.87
-0.52
-0.65
-1.2
-1.91
-2.48
-2.69
-2.59
-2.44
-2.49
-2.83
-3.31
-3.58
-3.38
-2.75
-1.98
-1.45
-1.42
-1.82
-2.35
-2.67
-2.56
-2.09
-1.49
-1.06
-0.98
-1.24
-1.65
-1.96
-1.95
-1.52
-0.71
0.35
1.56
2.79
3.99
5.1
6.04
6.67
6.79
6.27
5.13
3.56
1.86
0.35
-0.73
-1.31
-1.41
-1.1
-0.48
0.36
1.24
1.95
2.21
1.84
0.82
-0.76
-2.65
-4.67
-6.71
-8.76
-10.79
-12.66
-14.22
-15.35
-16.1
-16.69
-17.43
-18.53
-19.99
-21.67
-23.44
-25.3
-27.4
-29.93
-32.95
-36.34
-39.91
-43.54
-47.27
-51.32
-55.87
-60.99
-66.54
-72.27
-78.09
-84.03
-90.32
-97.29
-105.25
-114.37
-124.72
-136.12
-148.22
-160.6
-172.86
-184.97
-197.31
-210.66
-225.78
-242.91
-261.32
-279.1
-293.56
-301.92
-302.23
-294.07
-278.77
-259.1
-238.48
-219.99
-205.46
-195.1
-187.5
-180.18
-170.42
-155.96
-135.55
-109.11
-77.51
-42.14
-4.42
34.6
74.43
115.06
156.5
198.1
238.17
273.9
302.09
320.26
327.73
325.93
317.89
307.08
296.12
286.25
277.55
269.69
262.59
256.56
251.92
248.49
245.44
241.58
235.91
228.01
217.99
206.2
193.05
179.05
165.13
152.96
144.59
141.92
145.86
155.88
170.17
186.22
201.5
213.92
222.05
224.98
222.44
214.95
203.97
191.81
181.08
173.88
170.97
171.52
173.27
173.23
168.58
157.38
139.15
114.85
86.61
57.13
29.03
4.19
-16.49
-33.14
-46.6
-57.93
-67.95
-77.05
-85.24
-92.24
-97.9
-102.25
-105.53
-108.07
-110.04
-111.46
-112.23
-112.34
-111.9
-111.14
-110.26
-109.36
-108.37
-107.3
-106.3
-105.81
-106.49
-108.98
-113.72
-120.69
-129.42
-139.15
-149.09
-158.79
-168.41
-178.67
-190.61
-204.98
-221.78
-240.02
-258.04
-274.15
-287.18
-296.92
-303.96
-309.33
-314.14
-319.24
-325.06
-331.44
-337.34
-340.8
-339.38
-331.04
-315.15
-293.03
-267.52
-241.7
-217.41
-194.55
-171.32
-145.5
-115.71
-82.02
-45.52
-7.54
30.75
68.09
102.47
130.95
150.39
158.82
156.7
147.06
134.3
122.31
112.76
104.79
95.84
83.36
66.31
45.6
23.61
3.22
-13.1
-23.57
-27.12
-23.21
-11.93
5.94
28.7
53.94
78.89
100.97
118.32
130.02
136.13
137.59
135.89
132.76
129.7
127.46
125.9
124.1
120.89
115.58
108.3
99.95
91.64
84.03
77.03
70
62.29
53.8
45.16
37.44
31.6
27.99
26.1
24.75
22.51
18.2
11.32
2.38
-6.91
-13.81
-15.04
-7.79
9.29
35.34
67.43
101.5
133.77
161.83
185.03
203.98
219.62
232.44
242.33
248.88
251.84
251.46
248.28
242.86
235.47
226.02
214.33
200.29
184.09
166.16
147.03
127.14
106.7
85.7
63.94
41.24
17.54
-6.93
-31.65
-55.85
-78.77
-99.91
-119.22
-137.04
-153.7
-169.03
-181.91
-190.3
-191.9
-185.08
-169.74
-147.65
-121.82
-95.47
-71.03
-49.66
-31.56
-16.65
-5.13
2.4
5.41
4
-0.81
-7.25
-13.22
-16.9
-17.14
-13.72
-7.38
0.36
7.64
12.79
14.9
14.12
11.56
8.69
6.68
5.98
6.26
6.79
6.81
5.86
3.69
0.31
-3.96
-8.26
-11.04
-10.34
-4.35
7.75
25.36
46.36
67.89
87.15
102.18
112.16
117.15
117.61
113.99
106.61
95.79
82.07
66.41
50.15
34.74
21.52
11.4
4.82
1.83
2.23
5.63
11.51
19.02
27.02
34.2
39.32
41.52
40.46
36.32
29.61
21.11
11.85
3.24
-3.05
-5.34
-2.48
5.63
17.92
32.44
46.99
59.88
70.26
78.18
84.17
88.83
92.47
95.11
96.53
96.5
94.81
91.38
86.25
79.56
71.58
62.69
53.37
44.08
35.28
27.3
20.3
14.14
8.34
2.2
-5.19
-14.52
-26.15
-39.79
-54.43
-68.51
-80.23
-88.01
-90.99
-89.2
-83.53
-75.36
-66.11
-56.78
-47.89
-39.55
-31.72
-24.4
-17.65
-11.5
-5.88
-0.56
4.6
9.59
14.19
18.09
21.16
23.52
25.57
27.69
30.02
32.26
33.78
33.8
31.73
27.31
20.7
12.48
3.6
-4.63
-10.69
-13.28
-11.69
-6.21
1.92
10.93
19.13
25.52
29.85
32.43
33.59
33.32
31.17
26.66
19.55
10.09
-0.98
-12.82
-24.8
-36.54
-47.88
-58.64
-68.43
-76.68
-82.8
-86.44
-87.7
-87.11
-85.46
-83.62
-82.27
-81.7
-81.71
-81.53
-79.87
-75.29
-66.59
-53.32
-36.12
-16.52
3.47
22.05
38.12
51.5
62.63
72.16
80.6
87.95
93.94
98.18
100.52
101.17
100.71
99.84
99.07
98.57
98.09
97.09
95.09
91.83
87.42
82.17
76.48
70.6
64.67
58.68
52.63
46.5
40.2
33.58
26.43
18.6
10.27
2.08
-4.97
-9.72
-11.36
-9.78
-5.61
-0.05
5.59
10.34
13.76
15.87
16.91
17.05
16.18
14.01
10.21
4.58
-2.88
-12.03
-22.7
-34.81
-48.28
-63.02
-78.72
-94.74
-110.18
-123.98
-135.26
-143.54
-148.82
-151.53
-152.24
-151.42
-149.24
-145.67
-140.54
-133.86
-125.82
-116.79
-107.18
-97.42
-87.88
-78.8
-70.13
-61.37
-51.44
-38.86
-22.28
-1.17
23.72
50.37
76.18
98.87
117.26
131.47
142.53
151.76
160.07
167.81
174.83
180.85
185.75
189.59
192.36
193.83
193.39
190.23
183.53
172.68
157.27
137.04
111.68
80.81
44.07
1.62
-45.43
-94.7
-142.7
-185.61
-220.34
-245.42
-261.35
-270.1
-274.05
-274.99
-273.58
-269.52
-262.12
-250.92
-235.89
-217.43
-196.11
-172.68
-148.12
-123.72
-100.93
-80.85
-63.81
-49.14
-35.49
-21.6
-7.02
7.58
20.65
30.49
36.04
37.31
35.34
31.73
27.96
24.97
23.1
22.16
21.77
21.39
20.5
18.59
15.48
11.52
7.63
5.18
5.44
9.09
15.85
24.56
33.52
41.01
45.69
46.97
45.04
40.87
36.05
32.32
31.18
33.4
38.83
46.41
54.64
62.1
67.95
72.08
74.93
76.99
78.43
78.8
77.4
73.64
67.68
60.58
54.11
50.02
49.36
51.94
56.51
61.25
64.59
65.75
64.92
62.84
60.33
57.83
55.31
52.46
49.05
45.01
40.48
35.51
29.96
23.51
15.93
7.22
-2.3
-12.14
-22.02
-31.91
-42.02
-52.31
-62.22
-70.53
-75.67
-76.38
-72.24
-63.89
-52.77
-40.58
-28.66
-17.7
-7.79
1.25
9.52
16.85
22.81
27.01
29.35
30.15
30.06
29.82
30.02
30.89
32.23
33.56
34.31
34.02
32.57
30.26
27.72
25.74
24.97
25.62
27.25
28.85
29.09
26.73
21.15
12.57
2.04
-8.9
-18.91
-27.36
-34.67
-42.2
-51.6
-64.03
-79.34
-95.77
-110.15
-118.78
-118.52
-107.92
-87.72
-60.71
-30.9
-2.36
21.85
40.17
52.42
59.26
61.51
59.86
55.01
47.89
39.89
32.61
27.37
24.6
23.69
23.23
21.73
18.3
12.95
6.46
-0.12
-6.04
-11.11
-15.66
-20.3
-25.53
-31.54
-38.14
-44.88
-51.24
-56.94
-62
-66.86
-72.17
-78.55
-86.3
-95.2
-104.37
-112.38
-117.41
-117.59
-111.52
-98.71
-79.89
-57
-32.7
-9.62
10.36
26.52
39.18
49.21
57.43
64.25
69.68
73.58
75.94
77.03
77.23
76.78
75.64
73.51
70.12
65.44
59.85
53.99
48.49
43.55
38.85
33.61
26.99
18.53
8.45
-2.36
-12.58
-21.01
-26.91
-30.27
-31.78
-32.51
-33.58
-35.85
-39.66
-44.76
-50.27
-54.87
-57.11
-55.78
-50.37
-41.29
-29.75
-17.37
-5.65
4.42
12.49
18.69
23.29
26.56
28.62
29.58
29.64
29.07
28.19
27.18
26.09
24.78
23.15
21.15
18.94
16.81
15.06
13.81
12.95
12.12
10.89
8.87
5.97
2.35
-1.57
-5.31
-8.5
-11.04
-13.08
-15.04
-17.48
-20.95
-25.76
-31.72
-38.01
-43.27
-45.87
-44.54
-38.84
-29.4
-17.76
-5.83
4.81
13.25
19.4
23.71
26.74
28.87
30.17
30.6
30.17
29.06
27.56
25.99
24.51
23.11
21.61
19.87
17.83
15.54
13.11
10.66
8.16
5.58
2.82
-0.2
-3.5
-7.03
-10.75
-14.6
-18.54
-22.63
-27.02
-31.94
-37.52
-43.6
-49.47
-53.91
-55.43
-52.84
-45.73
-34.77
-21.57
-8.17
3.58
12.58
18.63
22.19
24.03
24.79
24.83
24.27
23.18
21.7
20.06
18.56
17.4
16.67
16.3
16.15
16.09
16.03
15.87
15.45
14.57
13.04
10.8
7.96
4.76
1.55
-1.43
-4.08
-6.49
-8.84
-11.35
-14.2
-17.45
-20.87
-23.86
-25.43
-24.38
-19.68
-10.91
1.4
15.87
30.56
43.69
54.12
61.62
66.69
70.09
72.41
73.78
74.06
73.13
71.18
68.84
66.94
66.15
66.56
67.67
68.56
68.28
66.26
62.22
55.97
47.2
35.33
19.95
1.29
-19.43
-40.12
-58.49
-72.91
-82.85
-88.84
-91.69
-91.79
-88.62
-81.01
-67.77
-48.47
-23.83
4.17
32.62
58.35
78.62
91.84
98.01
98.53
95.64
91.5
87.51
84.13
81.21
78.63
76.63
75.83
76.89
79.93
84.36
88.84
91.69
91.37
87.13
79.47
70.32
62.44
58.33
58.97
63.16
67.88
69.58
65.63
55.27
39.59
20.61
0.34
-19.91
-39.39
-57.45
-72.99
-84.23
-89.2
-86.33
-75.37
-57.84
-36.95
-16.96
-2.06
4.77
2.49
-8.09
-24.91
-45.58
-68.1
-91.04
-113.35
-133.96
-151.64
-165.15
-173.59
-176.72
-175.08
-169.75
-161.9
-152.56
-142.45
-132.06
-121.79
-111.87
-102.19
-92.2
-80.98
-67.65
-51.89
-34.27
-16.17
0.8
15.36
26.96
35.66
41.82
45.74
47.62
47.83
47.19
46.92
48.3
52.09
58.1
65.27
72.1
77.22
79.8
79.62
76.73
71.23
63.13
52.45
39.43
24.7
9.18
-6.14
-20.37
-33.03
-43.93
-53.12
-60.7
-66.7
-70.92
-73
-72.59
-69.52
-64.05
-56.74
-48.25
-39.14
-29.68
-19.92
-9.83
0.54
10.98
21.06
30.24
38
43.97
48.03
50.29
51.09
50.76
49.6
47.63
44.7
40.47
34.64
27.15
18.3
8.76
-0.71
-9.53
-17.86
-26.67
-37.36
-51.03
-67.59
-85.39
-101.49
-112.76
-116.95
-113.55
-103.77
-89.88
-74.27
-58.72
-44.17
-30.99
-19.34
-9.41
-1.49
4.28
8.07
10.39
11.95
13.36
14.86
16.31
17.31
17.51
16.82
15.48
13.82
12.12
10.35
8.29
5.63
2.17
-2.08
-6.88
-11.83
-16.58
-20.84
-24.61
-28.21
-32.19
-37.14
-43.38
-50.72
-58.36
-65.11
-69.77
-71.61
-70.62
-67.46
-63.2
-58.87
-55.19
-52.49
-50.86
-50.34
-51.05
-53.26
-57.17
-62.79
-69.82
-77.66
-85.6
-93.06
-99.73
-105.61
-110.89
-115.73
-120.16
-123.99
-126.88
-128.47
-128.45
-126.49
-122.25
-115.35
-105.46
-92.43
-76.2
-56.84
-34.37
-8.84
19.32
48.78
76.94
100.21
114.85
118.3
110.32
93.38
72.15
52.02
37.58
31.55
34.54
45.66
63.21
85.17
109.35
133.29
154.33
170.15
179.34
181.88
179.1
173.1
165.93
158.98
152.7
146.83
140.88
134.31
126.57
116.99
104.83
89.64
71.57
51.56
31.07
11.67
-5.54
-20.23
-32.73
-43.66
-53.43
-61.91
-68.5
-72.5
-73.51
-71.76
-68
-63.29
-58.65
-54.78
-51.99
-50.1
-48.48
-46.03
-41.37
-33.1
-20.38
-3.45
16.2
36.04
53.32
66.09
73.76
77.21
78.24
78.8
80.21
82.87
86.27
89.26
90.5
88.85
83.71
75.12
63.71
50.42
36.27
22.14
8.68
-3.56
-14.23
-23.15
-30.47
-36.68
-42.51
-48.63
-55.4
-62.61
-69.66
-75.83
-80.68
-84.28
-87.25
-90.48
-94.67
-99.91
-105.4
-109.5
-110.19
-105.82
-95.67
-80.4
-61.8
-42.19
-23.63
-7.4
6.12
17.17
26.15
33.33
38.77
42.47
44.55
45.35
45.28
44.72
43.85
42.68
41.12
39.19
37.01
34.76
32.54
30.31
27.8
24.71
20.76
15.96
10.56
4.97
-0.41
-5.36
-9.89
-14.27
-19.02
-24.74
-31.82
-40.16
-48.87
-56.25
-60.25
-59.11
-52.15
-40.12
-25.02
-9.39
4.55
15.53
23.35
28.56
31.89
33.87
34.71
34.4
33.01
30.73
27.93
25.01
22.25
19.84
17.86
16.37
15.37
14.81
14.49
14.07
13.13
11.32
8.47
4.69
0.32
-4.23
-8.61
-12.65
-16.43
-20.24
-24.52
-29.65
-35.7
-42.17
-47.87
-51.2
-50.6
-45.23
-35.3
-22.18
-7.9
5.51
16.64
24.99
30.8
34.69
37.24
38.78
39.4
39.08
37.88
35.94
33.53
30.95
28.51
26.36
24.52
22.82
21
18.79
16.03
12.74
9.11
5.38
1.76
-1.74
-5.24
-8.96
-13.15
-17.98
-23.54
-29.72
-36.13
-41.99
-46.19
-47.43
-44.71
-37.69
-26.99
-14.05
-0.68
11.46
21.38
28.82
34.07
37.59
39.81
40.94
41.12
40.49
39.23
37.55
35.61
33.53
31.41
29.32
27.37
25.59
23.9
22.05
19.81
16.97
13.51
9.56
5.36
1.13
-2.99
-6.99
-11.03
-15.39
-20.41
-26.4
-33.41
-41.06
-48.32
-53.71
-55.59
-52.87
-45.39
-34.22
-21.24
-8.62
1.91
9.49
14.11
16.31
16.77
16.02
14.32
11.74
8.34
4.23
-0.41
-5.37
-10.42
-15.43
-20.35
-25.23
-30.12
-35.06
-39.98
-44.74
-49.2
-53.19
-56.69
-59.69
-62.18
-64.14
-65.48
-66.12
-66.05
-65.38
-64.24
-62.62
-60.15
-55.99
-48.91
-37.64
-21.45
-0.42
24.33
50.94
77.28
101.47
122.2
138.71
150.77
158.4
161.83
161.47
157.98
152.24
145.27
138.02
131.28
125.54
120.88
116.91
112.76
107.19
98.97
87.22
71.79
53.24
32.7
11.43
-9.51
-29.37
-47.56
-63.44
-76.36
-85.79
-91.62
-94.3
-94.65
-93.51
-91.28
-87.86
-82.84
-75.99
-67.66
-58.89
-51.08
-45.41
-42.41
-41.74
-42.48
-43.64
-44.59
-45.28
-46.1
-47.47
-49.42
-51.53
-53.08
-53.43
-52.42
-50.48
-48.47
-47.35
-47.77
-49.78
-52.81
-55.81
-57.58
-57.11
-53.91
-48.18
-40.83
-33.28
-27.16
-23.85
-24.04
-27.41
-32.58
-37.45
-39.78
-37.93
-31.33
-20.64
-7.29
7.02
20.98
33.86
45.48
55.94
65.25
73.27
79.73
84.51
87.7
89.74
91.31
93.2
96.13
100.66
106.96
114.82
123.53
132.02
139.11
143.85
145.69
144.56
140.6
133.98
124.72
112.73
97.88
80.14
59.65
36.94
13.11
-10.03
-30.11
-44.84
-52.8
-54.14
-50.54
-44.66
-39.03
-35.31
-34.06
-35.25
-38.77
-44.75
-53.26
-63.8
-75.03
-85.07
-92.14
-95.39
-95.23
-93.04
-90.52
-88.92
-88.62
-89.08
-89.27
-88.15
-85.11
-80.16
-73.92
-67.37
-61.57
-57.33
-55.02
-54.38
-54.51
-54.07
-51.73
-46.53
-38.33
-27.8
-16.15
-4.62
5.93
15.25
23.53
31.1
38.05
44.17
48.99
52.11
53.37
52.97
51.42
49.31
47.14
45.18
43.44
41.74
39.85
37.63
35.13
32.55
30.17
28.13
26.36
24.55
22.36
19.52
15.89
11.44
6.24
0.46
-5.44
-10.62
-13.95
-14.34
-11.19
-4.76
3.76
12.69
20.38
25.75
28.48
28.87
27.45
24.73
21.04
16.59
11.67
6.64
1.97
-1.91
-4.72
-6.42
-7.2
-7.37
-7.32
-7.3
-7.44
-7.75
-8.23
-8.95
-10.05
-11.7
-13.99
-16.87
-20.19
-23.91
-28.13
-33.15
-39.17
-46
-52.83
-58.28
-60.77
-59.07
-52.87
-42.94
-30.89
-18.56
-7.45
1.7
8.95
14.81
19.79
24.15
27.8
30.5
32.08
32.61
32.33
31.55
30.44
29
27.16
24.88
22.32
19.72
17.32
15.26
13.47
11.8
10.17
8.54
6.91
5.17
2.97
-0.14
-4.67
-10.87
-18.6
-27.19
-35.56
-42.32
-46.15
-46.14
-42.1
-34.68
-25.25
-15.4
-6.53
0.56
5.72
9.25
11.62
13.16
13.99
14.09
13.44
12.2
10.64
9.15
8.01
7.33
7.01
6.75
6.21
5.19
3.67
1.87
0.15
-1.14
-1.81
-2.01
-2.17
-2.9
-4.76
-8.04
-12.54
-17.72
-22.84
-27.22
-30.33
-31.8
-31.2
-27.98
-21.61
-11.92
0.62
14.81
28.96
41.47
51.23
57.97
62.06
64.13
64.72
64.11
62.39
59.62
55.94
51.53
46.53
40.95
34.77
28.09
21.25
14.85
9.52
5.67
3.28
1.97
1.11
0.12
-1.3
-3.17
-5.24
-7.2
-8.85
-10.23
-11.59
-13.37
-16.03
-19.88
-24.92
-30.7
-36.3
-40.5
-42.15
-40.46
-35.45
-27.92
-19.23
-10.88
-4.02
0.85
3.87
5.56
6.48
6.9
6.77
5.88
4.09
1.49
-1.48
-4.21
-6.09
-6.83
-6.49
-5.46
-4.3
-3.52
-3.35
-3.78
-4.58
-5.53
-6.41
-7.19
-7.98
-8.99
-10.47
-12.75
-16.1
-20.61
-26.07
-31.76
-36.49
-38.88
-37.77
-32.74
-24.32
-13.85
-3.08
6.47
13.93
19.24
22.88
25.53
27.67
29.48
30.91
31.82
32.12
31.73
30.62
28.74
26.1
22.75
18.81
14.47
9.93
5.36
0.87
-3.41
-7.35
-10.82
-13.7
-15.99
-17.78
-19.34
-21.01
-23.09
-25.67
-28.41
-30.5
-30.83
-28.44
-22.94
-14.79
-5.14
4.6
13.27
20.38
26.01
30.59
34.45
37.61
39.82
40.81
40.46
39
36.89
34.67
32.71
31.16
29.86
28.51
26.78
24.48
21.6
18.34
14.93
11.62
8.49
5.5
2.53
-0.6
-4.01
-7.86
-12.29
-17.44
-23.33
-29.62
-35.55
-39.93
-41.51
-39.37
-33.42
-24.5
-14.16
-4.1
4.37
10.71
15.11
18.25
20.84
23.33
25.8
28.05
29.73
30.61
30.61
29.88
28.68
27.24
25.64
23.84
21.69
19.18
16.45
13.75
11.3
9.11
6.94
4.47
1.43
-2.2
-6.2
-10.3
-14.38
-18.57
-23.23
-28.64
-34.72
-40.76
-45.51
-47.56
-45.82
-40.01
-30.79
-19.64
-8.36
1.49
8.91
13.63
15.94
16.36
15.43
13.54
10.99
8.04
5.01
2.19
-0.13
-1.84
-2.97
-3.77
-4.55
-5.61
-7.1
-9.04
-11.3
-13.77
-16.39
-19.27
-22.56
-26.43
-30.89
-35.79
-40.8
-45.62
-50.04
-53.95
-57.25
-59.63
-60.49
-59.1
-54.84
-47.52
-37.56
-25.91
-13.8
-2.29
7.91
16.5
23.42
28.72
32.48
34.77
35.8
35.86
35.34
34.61
33.92
33.34
32.8
32.1
31.03
29.41
27.26
24.73
22.09
19.6
17.34
15.17
12.72
9.54
5.31
0.01
-5.97
-11.83
-16.53
-18.99
-18.48
-14.82
-8.52
-0.6
7.68
15.19
21.24
25.66
28.59
30.31
31
30.68
29.34
27.08
24.23
21.22
18.49
16.3
14.57
13.07
11.51
9.71
7.66
5.44
3.02
0.26
-3.16
-7.55
-13.16
-20.04
-28.04
-36.76
-45.51
-53.29
-58.91
-61.27
-59.74
-54.48
-46.41
-36.95
-27.55
-19.23
-12.41
-7
-2.7
0.73
3.37
5.18
6.21
6.71
7.08
7.68
8.72
10.01
11.13
11.56
10.93
9.16
6.48
3.34
0.15
-2.82
-5.62
-8.44
-11.57
-15.16
-19.05
-22.74
-25.45
-26.28
-24.57
-20.13
-13.41
-5.44
2.54
9.41
14.5
17.71
19.33
19.83
19.54
18.61
17.02
14.69
11.74
8.4
5
1.82
-0.99
-3.44
-5.6
-7.58
-9.47
-11.32
-13.23
-15.36
-17.93
-21.14
-25.14
-29.83
-34.86
-39.53
-42.88
-44
-42.2
-37.31
-29.72
-20.28
-10.09
-0.15
8.79
16.32
22.3
26.71
29.58
30.96
31.03
30.12
28.72
27.3
26.15
25.18
24.09
22.48
20.25
17.64
15.16
13.24
11.85
10.46
8.18
4.27
-1.53
-8.8
-16.53
-23.51
-28.68
-31.35
-31.36
-28.95
-24.62
-18.95
-12.4
-5.26
2.36
10.42
18.8
27.16
34.99
41.69
46.86
50.4
52.54
53.67
54.22
54.38
54.12
53.25
51.6
49.12
45.87
42.03
37.76
33.2
28.44
23.56
18.61
13.51
8.09
2.13
-4.37
-10.94
-16.64
-20.18
-20.47
-17.08
-10.44
-1.76
7.44
15.84
22.6
27.35
30.1
30.92
29.9
27.23
23.24
18.5
13.66
9.32
5.87
3.41
1.79
0.7
-0.25
-1.48
-3.28
-5.77
-8.83
-12.15
-15.32
-18.06
-20.27
-22.05
-23.65
-25.37
-27.44
-30.03
-33.18
-36.66
-39.95
-42.2
-42.44
-39.88
-34.3
-26.16
-16.47
-6.49
2.73
10.55
16.83
21.7
25.41
28.14
29.98
30.92
30.94
30.04
28.31
25.94
23.26
20.67
18.48
16.8
15.52
14.37
13.05
11.39
9.39
7.12
4.69
2.12
-0.63
-3.58
-6.7
-9.98
-13.45
-17.32
-21.85
-27.21
-33.24
-39.25
-44.06
-46.46
-45.54
-41.17
-34.04
-25.4
-16.57
-8.55
-1.79
3.7
8.1
11.51
13.94
15.3
15.66
15.25
14.5
13.78
13.32
13.09
12.91
12.59
12.06
11.44
10.99
10.93
11.32
11.96
12.45
12.35
11.3
9.17
6.13
2.51
-1.2
-4.4
-6.49
-6.97
-5.59
-2.43
2
6.99
11.76
15.71
18.57
20.28
20.9
20.47
18.97
16.42
13.04
9.25
5.52
2.17
-0.77
-3.53
-6.45
-9.68
-13.01
-15.93
-17.92
-18.73
-18.57
-18.11
-18.18
-19.49
-22.4
-26.84
-32.37
-38.29
-43.8
-47.99
-50.15
-49.81
-46.99
-42.23
-36.44
-30.52
-25.09
-20.32
-15.96
-11.83
-8.21
-6
-6.54
-10.98
-19.5
-30.99
-43.3
-53.99
-61.47
-65.57
-67.51
-69.19
-72.25
-77.33
-84.11
-91.72
-99.38
-106.76
-113.85
-120.6
-126.56
-130.76
-131.97
-129.03
-121.25
-108.57
-91.65
-71.63
-49.97
-28.16
-7.46
11.28
27.64
41.54
53
62.03
68.52
72.33
73.49
72.34
69.54
65.99
62.65
60.32
59.46
60.12
61.92
64.2
66.25
67.48
67.67
67.03
66.19
65.89
66.75
68.9
71.92
74.81
76.33
75.36
71.18
63.73
53.55
41.7
29.51
18.38
9.55
3.97
2.04
3.51
7.43
12.36
16.72
19.26
19.4
17.35
13.92
10.16
6.95
4.71
3.44
2.85
2.71
3.04
4.2
6.6
10.42
15.35
20.62
25.25
28.44
29.84
29.55
27.87
25.08
21.28
16.54
11.12
5.51
0.38
-3.84
-7.07
-9.56
-11.47
-12.48
-11.71
-8.09
-0.99
9.14
20.83
32.03
40.99
46.83
49.71
50.47
50.06
49.07
47.67
45.78
43.35
40.45
37.26
33.9
30.42
26.85
23.26
19.83
16.73
14.09
11.83
9.71
7.37
4.54
1.18
-2.47
-6.03
-9.13
-11.7
-13.93
-16.32
-19.32
-23.19
-27.78
-32.53
-36.52
-38.63
-37.75
-33.01
-24.07
-11.36
3.9
19.93
34.88
47.31
56.63
63.07
67.42
70.48
72.74
74.12
74.13
72.2
67.96
61.51
53.34
44.15
34.58
24.99
15.33
5.16
-6.27
-19.96
-36.79
-57.26
-81.15
-107.31
-133.8
-158.34
-178.87
-194.13
-203.78
-208.26
-208.41
-204.97
-198.42
-188.88
-176.37
-160.94
-142.83
-122.59
-100.99
-79
-57.67
-37.96
-20.52
-5.68
6.57
16.5
24.5
30.9
35.97
39.91
42.88
45.13
47.01
48.92
51.23
54.08
57.31
60.5
63
64.26
63.95
62.04
58.81
54.64
49.88
44.71
39.23
33.48
27.49
21.26
14.81
8.15
1.4
-5.01
-10.36
-13.75
-14.43
-12.07
-6.96
0.11
8.17
16.37
24.1
31.04
37.01
41.79
45.26
47.37
48.25
48.21
47.62
46.79
45.89
44.91
43.69
42.04
39.76
36.73
33.01
28.78
24.33
19.89
15.53
11.07
6.18
0.42
-6.49
-14.61
-23.58
-32.64
-40.71
-46.66
-49.7
-49.6
-46.81
-42.23
-36.9
-31.63
-26.86
-22.69
-19.1
-16.09
-13.71
-11.98
-10.81
-9.97
-9.24
-8.5
-7.8
-7.32
-7.21
-7.51
-8.15
-8.98
-9.83
-10.61
-11.31
-11.98
-12.71
-13.7
-15.19
-17.5
-20.92
-25.49
-30.86
-36.24
-40.44
-42.34
-41.21
-37.06
-30.61
-22.94
-14.97
-7.13
0.68
8.81
17.4
26.15
34.3
41
45.72
48.53
49.95
50.7
51.31
51.82
51.97
51.31
49.57
46.83
43.47
40.07
37.05
34.47
31.92
28.64
23.8
16.91
7.95
-2.53
-13.54
-23.91
-32.51
-38.42
-41.05
-40.26
-36.48
-30.62
-23.9
-17.44
-11.82
-6.95
-2.19
3.18
9.45
16.39
23.3
29.45
34.46
38.37
41.5
44.15
46.41
48.18
49.32
49.84
49.94
49.9
49.77
49.33
48.05
45.35
40.88
34.72
27.37
19.55
11.95
5.01
-1.16
-6.71
-11.96
-17.31
-23.14
-29.84
-37.64
-46.34
-55.24
-63.05
-68.24
-69.52
-66.33
-59.05
-48.83
-37.2
-25.44
-14.35
-4.18
5.05
13.24
20.13
25.28
28.41
29.57
29.16
27.8
26.04
24.18
22.29
20.22
17.86
15.25
12.59
10.25
8.57
7.75
7.73
8.14
8.52
8.45
7.82
6.87
6.08
6
6.93
8.87
11.51
14.36
16.95
18.81
19.62
19.12
17.34
14.65
11.77
9.67
9.2
10.83
14.46
19.52
25.21
30.79
35.74
39.7
42.44
43.79
43.65
42.14
39.6
36.54
33.43
30.47
27.54
24.28
20.31
15.52
10.24
5.15
1.02
-1.61
-2.74
-2.9
-2.95
-3.69
-5.38
-7.64
-9.55
-10.1
-8.69
-5.62
-2.11
-0.02
-1.29
-7.47
-19.26
-36.33
-57.24
-79.48
-99.77
-114.57
-120.99
-117.7
-105.51
-87.34
-67.3
-49.28
-35.77
-27.27
-22.65
-20.22
-18.63
-17.44
-16.85
-17.14
-18.14
-19.18
-19.43
-18.4
-16.36
-14.17
-12.81
-12.88
-14.24
-16.12
-17.59
-18.02
-17.52
-16.88
-17.17
-19.14
-22.84
-27.49
-31.83
-34.7
-35.64
-35.15
-34.55
-35.48
-39.19
-46
-55.09
-64.65
-72.55
-77.06
-77.39
-73.95
-68.04
-61.31
-55.12
-50.19
-46.52
-43.63
-40.9
-37.86
-34.4
-30.71
-27.2
-24.23
-21.95
-20.15
-18.24
-15.47
-11.22
-5.34
1.77
9.32
16.45
22.62
27.68
31.88
35.5
38.79
41.93
45.25
49.37
55.03
62.75
72.31
82.7
92.35
99.87
104.65
107.05
108.07
108.66
109.2
109.32
108.38
105.96
102.28
98.09
94.25
91.22
88.89
86.68
83.99
80.53
76.42
72.06
67.84
63.83
59.83
55.47
50.56
45.19
39.78
34.78
30.46
26.73
23.17
19.26
14.55
8.85
2.31
-4.71
-11.64
-17.82
-22.61
-25.47
-26.13
-24.7
-21.72
-18.02
-14.53
-12
-10.82
-10.97
-12.13
-13.88
-15.86
-17.91
-20.04
-22.32
-24.72
-27.12
-29.24
-30.78
-31.53
-31.41
-30.45
-28.77
-26.54
-23.98
-21.4
-19.21
-17.84
-17.61
-18.56
-20.31
-22.09
-22.88
-21.72
-18.14
-12.26
-4.9
2.76
9.62
14.97
18.71
21.23
23.15
25
27.07
29.38
31.82
34.22
36.52
38.75
41.04
43.55
46.41
49.75
53.63
58.08
63.12
68.72
74.77
81.01
87.1
92.55
96.87
99.69
100.79
100.18
98.01
94.56
90.06
84.72
78.67
71.99
64.77
57.06
48.8
39.71
29.21
16.53
1.05
-17.37
-38.09
-59.77
-80.65
-99.17
-114.46
-126.66
-136.76
-146.21
-156.26
-167.34
-178.88
-189.53
-197.78
-202.82
-205.13
-206.36
-208.53
-212.75
-218.18
-221.97
-220.22
-209.67
-189.23
-160.56
-127.38
-93.96
-63.63
-37.92
-16.95
-0.26
12.11
19.4
20.5
14.93
3.54
-11.42
-26.91
-40.16
-49.63
-55.32
-58.43
-60.51
-62.58
-64.74
-66.25
-66.06
-63.37
-57.9
-49.89
-39.79
-28.19
-15.79
-3.45
7.8
16.98
23.55
27.63
30.04
31.85
34.05
37.08
40.93
45.27
49.77
54.12
58
61.02
62.74
62.93
61.83
60.34
59.77
61.44
66.13
73.73
83.3
93.42
102.7
110.02
114.71
116.45
115.33
111.86
107.05
102.3
98.99
98.06
99.5
102.32
104.94
105.77
103.86
99.14
92.16
83.61
73.79
62.41
48.94
33.13
15.52
-2.41
-18.63
-31.47
-40.39
-46.3
-51.09
-56.64
-63.95
-72.91
-82.68
-92.58
-102.42
-112.19
-121.02
-126.63
-125.74
-115.64
-95.93
-69.26
-40.51
-14.78
4.66
17.28
24.59
28.68
30.87
31.42
30.3
27.94
25.67
25.18
27.56
32.69
39.22
45.25
49.21
50.42
49.13
46.23
42.83
39.56
36.41
32.65
27.17
18.97
7.64
-6.3
-21.44
-35.87
-47.7
-55.54
-58.8
-57.74
-53.4
-47.23
-40.84
-35.63
-32.64
-32.39
-34.93
-39.87
-46.5
-53.97
-61.39
-68.05
-73.59
-78.11
-82
-85.46
-87.95
-87.95
-83.43
-72.88
-56.48
-36.56
-17.1
-2.38
4.62
3.2
-5.13
-17.5
-30.99
-43.37
-53.35
-60.32
-63.9
-63.88
-60.31
-53.74
-45.4
-37.07
-30.8
-28.39
-30.88
-38.22
-49.19
-61.73
-73.61
-83.25
-90.21
-95.33
-100.21
-106.44
-114.8
-124.83
-134.69
-141.52
-141.84
-132.33
-110.72
-76.8
-33.14
14.9
60.06
95.18
115.2
118.81
108.68
90.44
70.62
54.68
45.88
45.18
51.94
64.77
82.06
102.12
123.07
142.94
159.82
172.37
180.07
183.36
183.4
181.75
179.93
179.09
179.57
180.72
181.03
178.51
171.61
159.78
143.49
123.73
101.28
76.61
50.32
23.99
0.35
-17.37
-26.85
-27.99
-23.16
-16.22
-10.81
-8.87
-10.4
-14.18
-19.12
-25.07
-32.66
-42.5
-54.23
-66.34
-76.63
-83.18
-84.97
-82.18
-75.93
-67.86
-59.57
-52.53
-47.95
-46.85
-50.08
-58.05
-70.44
-85.71
-101.25
-113.76
-120.33
-119.34
-111.06
-97.47
-81.33
-64.97
-49.32
-33.76
-16.8
2.73
24.88
48.31
70.77
90.07
104.78
114.57
120.09
122.52
123.02
122.22
120.08
116.09
109.69
100.71
89.56
77.16
64.59
52.74
42.15
33.07
25.65
20.05
16.38
14.45
13.68
13.07
11.73
9.23
6.11
3.71
3.73
7.41
14.94
25.24
36.32
45.98
52.65
55.87
56.32
55.34
54.26
53.7
53.37
52.15
48.68
41.95
31.81
18.98
4.83
-9.17
-22.05
-33.64
-44.63
-56.2
-69.67
-85.96
-105.34
-127.37
-151.15
-175.65
-200.02
-223.74
-246.59
-268.3
-288.21
-304.86
-315.74
-317.56
-307.03
-282.1
-243.19
-193.64
-139.14
-86.01
-39.31
-1.44
27.95
50.88
69.55
85.07
97.42
106.12
111.11
113.25
113.88
114.17
114.39
113.84
111.41
106.28
98.45
88.75
78.47
68.93
61.01
55.11
51.26
49.3
49
50.06
52.07
54.54
57
59.02
60.32
60.72
60.15
58.6
56.15
53.01
49.42
45.61
41.72
37.73
33.55
29.16
24.56
19.95
15.5
11.39
7.65
4.15
0.69
-2.98
-7.08
-11.78
-17.13
-23
-29.04
-34.67
-39.14
-41.67
-41.6
-38.62
-32.86
-25.01
-16.09
-7.2
0.82
7.6
13.12
17.31
19.77
19.71
16.61
11.14
5.37
2.19
3.72
9.94
18.39
25.51
28.75
28.02
25.59
24.29
25.51
28.21
29.59
26.94
19.41
8.26
-4.04
-15.56
-25.89
-36.02
-47.1
-59.11
-70.31
-77.77
-78.56
-71.14
-55.99
-35.44
-12.6
9.75
29.92
47.47
62.51
75.21
85.43
93.1
98.57
102.8
106.92
111.44
115.7
117.96
116.15
108.92
96.36
80.01
62.3
45.61
31.54
20.81
13.37
8.73
6.1
4.61
3.45
2.22
1.18
1.07
2.66
5.97
10
13.04
13.61
11.38
7.4
3.6
1.73
2.42
5.13
8.7
12.31
15.96
20.33
26.05
33.15
40.94
48.43
54.8
59.67
62.91
64.32
63.51
60.12
54.25
46.64
38.45
30.73
23.85
17.38
10.36
1.97
-8.04
-19.24
-30.89
-42.37
-53.44
-64.16
-74.62
-84.66
-93.85
-101.61
-107.39
-110.91
-112.12
-111.1
-108.07
-103.25
-96.95
-89.6
-81.85
-74.42
-67.99
-63.01
-59.5
-57.12
-55.29
-53.41
-51
-47.77
-43.65
-38.74
-33.17
-26.97
-20.04
-12.13
-3.05
7.04
17.46
27.02
34.4
38.57
39.22
36.83
32.45
27.29
22.36
18.33
15.57
14.26
14.39
15.85
18.31
21.38
24.73
28.18
31.65
35
37.74
39
37.79
33.45
26.05
16.54
6.56
-2.07
-7.93
-10.43
-9.94
-7.64
-5.07
-3.6
-3.94
-5.92
-8.59
-10.61
-10.85
-8.75
-4.51
1.16
7.35
13.38
18.89
23.87
28.46
32.76
36.72
40.13
42.7
44.1
44.03
42.2
38.44
32.67
24.98
15.63
5.12
-5.91
-16.75
-26.75
-35.44
-42.64
-48.37
-52.89
-56.49
-59.47
-62.01
-64.16
-65.88
-67.02
-67.48
-67.25
-66.46
-65.34
-64.06
-62.64
-60.91
-58.6
-55.55
-51.89
-48.04
-44.6
-42.03
-40.44
-39.52
-38.67
-37.26
-34.92
-31.6
-27.6
-23.43
-19.62
-16.56
-14.38
-12.92
-11.89
-10.92
-9.8
-8.52
-7.22
-6.01
-4.89
-3.77
-2.46
-0.99
0.51
1.74
2.5
2.73
2.6
2.25
1.75
1.01
-0.06
-1.33
-2.37
-2.55
-1.28
1.64
5.86
10.57
14.92
18.27
20.49
21.79
22.59
23.22
23.81
24.37
24.88
25.42
26.04
26.79
27.57
28.17
28.43
28.26
27.75
27.01
26.15
25.14
23.92
22.44
20.78
19.16
17.93
17.44
17.87
19.28
21.51
24.34
27.5
30.72
33.79
36.46
38.47
39.59
39.69
38.77
36.97
34.56
31.8
28.86
25.77
22.52
19.11
15.57
11.93
8.14
4.05
-0.67
-6.31
-13.02
-20.6
-28.56
-36.21
-42.9
-48.25
-52.19
-54.98
-56.9
-58.13
-58.6
-58.19
-56.87
-54.92
-52.86
-51.27
-50.48
-50.46
-50.8
-50.99
-50.62
-49.49
-47.63
-45.12
-41.99
-38.25
-33.97
-29.38
-24.81
-20.66
-17.17
-14.33
-11.85
-9.2
-5.8
-1.2
4.83
12.09
20.08
27.99
35.01
40.45
43.98
45.62
45.66
44.47
42.29
39.31
35.63
31.49
27.19
23.07
19.36
15.96
12.66
9.13
5.29
1.3
-2.51
-5.79
-8.4
-10.39
-11.93
-13.15
-14.06
-14.58
-14.54
-13.84
-12.41
-10.22
-7.32
-3.85
-0.14
3.41
6.38
8.51
9.73
10.28
10.52
10.85
11.57
12.75
14.23
15.69
16.75
17.17
16.9
16.02
14.72
13.08
11.07
8.71
6.18
3.91
2.5
2.54
4.31
7.67
12.12
16.91
21.41
25.14
27.9
29.69
30.63
30.86
30.54
29.82
28.8
27.66
26.53
25.47
24.52
23.66
22.79
21.88
20.91
19.9
18.85
17.61
15.99
13.75
10.77
7.08
2.87
-1.58
-6.04
-10.34
-14.4
-18.18
-21.59
-24.55
-27.05
-29.14
-30.96
-32.59
-34.05
-35.13
-35.49
-34.78
-32.75
-29.39
-25
-20.09
-15.3
-11.18
-8.09
-6.16
-5.34
-5.49
-6.43
-7.92
-9.61
-10.97
-11.39
-10.35
-7.71
-3.78
0.67
4.75
7.74
9.36
9.76
9.27
8.18
6.55
4.39
1.69
-1.28
-4.12
-6.39
-7.85
-8.6
-8.93
-9.26
-9.85
-10.84
-12.15
-13.62
-15.01
-16.03
-16.35
-15.64
-13.7
-10.47
-6.17
-1.21
3.92
8.71
12.87
16.26
18.9
20.77
21.86
22.1
21.5
20.24
18.65
17.19
16.19
15.73
15.66
15.63
15.34
14.6
13.45
11.97
10.26
8.37
6.38
4.43
2.8
1.84
1.87
3.05
5.29
8.35
11.89
15.61
19.31
22.84
26.01
28.59
30.22
30.61
29.6
27.26
23.86
19.75
15.25
10.58
5.84
1.08
-3.65
-8.24
-12.55
-16.53
-20.27
-23.99
-27.93
-32.11
-36.2
-39.55
-41.37
-41.07
-38.49
-34.01
-28.4
-22.48
-16.89
-11.89
-7.41
-3.24
0.74
4.48
7.79
10.41
12.18
13.12
13.43
13.44
13.37
13.3
13.13
12.65
11.74
10.39
8.71
6.88
4.92
2.71
0.03
-3.34
-7.46
-12.14
-16.93
-21.23
-24.44
-26.04
-25.8
-23.81
-20.5
-16.5
-12.46
-8.83
-5.77
-3.21
-1
0.97
2.67
4.01
4.95
5.56
5.98
6.41
6.9
7.4
7.74
7.76
7.45
6.92
6.39
6.09
6.14
6.47
6.92
7.16
6.93
6.04
4.45
2.36
0.11
-1.86
-3.08
-3.21
-2.14
-0.04
2.69
5.58
8.21
10.34
11.96
13.2
14.16
14.95
15.52
15.84
15.86
15.62
15.26
14.91
14.66
14.49
14.3
13.95
13.4
12.68
11.89
11.08
10.16
8.87
6.86
3.82
-0.44
-5.81
-11.9
-18.08
-23.55
-27.62
-29.8
-29.96
-28.34
-25.47
-21.95
-18.29
-14.87
-11.87
-9.37
-7.45
-6.13
-5.43
-5.2
-5.23
-5.23
-4.93
-4.21
-3.05
-1.59
-0.08
1.23
2.08
2.33
2.01
1.22
0.16
-1.07
-2.51
-4.34
-6.77
-9.84
-13.21
-16.26
-18.19
-18.34
-16.5
-12.96
-8.38
-3.5
1.13
5.26
8.89
12.05
14.69
16.64
17.71
17.82
17.19
16.14
15.06
14.21
13.6
13.1
12.46
11.48
10.1
8.38
6.53
4.78
3.33
2.2
1.25
0.19
-1.26
-3.29
-5.8
-8.43
-10.61
-11.74
-11.45
-9.68
-6.74
-3.18
0.49
3.87
6.79
9.21
11.14
12.51
13.26
13.4
13.09
12.67
12.38
12.32
12.36
12.21
11.65
10.6
9.18
7.53
5.84
4.18
2.6
1.12
-0.22
-1.44
-2.73
-4.38
-6.68
-9.71
-13.17
-16.38
-18.51
-18.88
-17.24
-13.91
-9.6
-5.18
-1.3
1.81
4.29
6.4
8.32
9.98
11.13
11.59
11.38
10.77
10.19
9.98
10.24
10.82
11.39
11.67
11.52
10.93
10.07
9.07
8.03
6.99
5.89
4.65
3.19
1.49
-0.47
-2.65
-5.06
-7.77
-10.79
-13.97
-16.93
-19.07
-19.79
-18.7
-15.88
-11.86
-7.41
-3.25
0.23
2.94
5.04
6.7
7.93
8.58
8.5
7.63
6.18
4.52
3.13
2.34
2.22
2.52
2.8
2.57
1.57
-0.15
-2.26
-4.29
-5.9
-6.97
-7.68
-8.42
-9.59
-11.43
-13.94
-16.89
-19.87
-22.38
-23.88
-23.93
-22.27
-18.99
-14.47
-9.3
-4.08
0.71
4.92
8.51
11.57
14.07
15.89
16.89
17.01
16.41
15.37
14.21
13.13
12.12
11
9.6
7.87
5.93
4.03
2.43
1.22
0.34
-0.44
-1.37
-2.65
-4.37
-6.53
-9.04
-11.74
-14.29
-16.25
-17.12
-16.51
-14.29
-10.66
-6.1
-1.15
3.68
8.15
12.18
15.79
18.9
21.32
22.75
22.98
22.07
20.34
18.31
16.43
14.89
13.6
12.32
10.79
8.9
6.75
4.54
2.49
0.78
-0.52
-1.46
-2.2
-3.01
-4.19
-5.94
-8.34
-11.31
-14.64
-17.99
-20.93
-22.97
-23.6
-22.44
-19.46
-15.01
-9.81
-4.74
-0.52
2.47
4.21
4.93
4.88
4.27
3.21
1.79
0.18
-1.37
-2.58
-3.24
-3.34
-3.05
-2.75
-2.8
-3.48
-4.83
-6.68
-8.71
-10.62
-12.19
-13.36
-14.18
-14.71
-15.06
-15.29
-15.46
-15.57
-15.52
-15.15
-14.17
-12.36
-9.61
-5.97
-1.68
2.91
7.37
11.35
14.57
16.89
18.29
18.85
18.72
18.09
17.15
16.12
15.17
14.45
13.98
13.62
13.16
12.35
11.07
9.37
7.45
5.64
4.19
3.17
2.46
1.77
0.82
-0.6
-2.45
-4.55
-6.58
-8.22
-9.26
-9.57
-9.11
-7.88
-5.95
-3.47
-0.67
2.17
4.77
6.96
8.62
9.76
10.37
10.48
10.17
9.54
8.8
8.14
7.72
7.57
7.58
7.58
7.35
6.79
5.87
4.69
3.41
2.18
1.06
0
-1.12
-2.48
-4.16
-6.12
-8.19
-10.11
-11.58
-12.31
-12.11
-10.89
-8.73
-5.77
-2.33
1.26
4.68
7.7
10.15
11.92
12.93
13.11
12.57
11.58
10.51
9.73
9.37
9.31
9.13
8.47
7.14
5.34
3.49
2.03
1.17
0.8
0.52
-0.1
-1.4
-3.46
-6.12
-8.99
-11.57
-13.28
-13.61
-12.26
-9.34
-5.3
-0.85
3.34
6.72
9.01
10.15
10.16
9.17
7.41
5.2
2.94
0.98
-0.5
-1.55
-2.42
-3.37
-4.56
-6
-7.55
-9.07
-10.44
-11.67
-12.81
-14
-15.39
-17.13
-19.28
-21.81
-24.51
-27
-28.76
-29.28
-28.17
-25.34
-21.06
-15.87
-10.42
-5.26
-0.76
2.97
5.91
8.04
9.32
9.72
9.33
8.37
7.17
6.02
5.05
4.17
3.16
1.83
0.05
-2.05
-4.22
-6.17
-7.73
-8.92
-9.99
-11.33
-13.31
-16.09
-19.47
-22.93
-25.68
-27.01
-26.44
-23.9
-19.64
-14.19
-8.04
-1.61
4.81
11.01
16.74
21.67
25.43
27.73
28.53
28.09
26.89
25.4
23.89
22.27
20.22
17.39
13.67
9.34
4.89
0.83
-2.6
-5.5
-8.18
-10.95
-13.97
-17.21
-20.49
-23.63
-26.39
-28.49
-29.52
-29.04
-26.73
-22.57
-16.98
-10.65
-4.37
1.27
5.93
9.51
12.04
13.56
14.16
14.06
13.61
13.26
13.37
14.05
15.09
16.07
16.5
16.1
14.84
12.96
10.78
8.6
6.62
4.83
3.03
0.93
-1.86
-5.58
-10.1
-14.81
-18.66
-20.48
-19.43
-15.33
-8.82
-1.06
6.67
13.41
18.64
22.26
24.37
25.09
24.56
23.01
20.85
18.6
16.72
15.5
14.94
14.75
14.55
14
12.95
11.41
9.59
7.71
5.91
4.18
2.4
0.36
-2.12
-5.07
-8.34
-11.51
-13.96
-14.97
-14.04
-11.02
-6.26
-0.55
5.16
10.05
13.69
16.09
17.51
18.29
18.66
18.67
18.33
17.62
16.61
15.43
14.22
13.04
11.9
10.76
9.6
8.48
7.53
6.9
6.65
6.7
6.71
6.23
4.8
2.22
-1.32
-5.12
-8.22
-9.7
-8.99
-6.07
-1.41
4.15
9.78
14.82
18.93
22
23.99
24.9
24.73
23.62
21.81
19.68
17.62
15.88
14.48
13.22
11.84
10.09
7.89
5.28
2.4
-0.66
-3.81
-7.05
-10.39
-13.88
-17.58
-21.49
-25.49
-29.28
-32.38
-34.24
-34.42
-32.79
-29.57
-25.28
-20.55
-15.94
-11.85
-8.46
-5.84
-4
-2.95
-2.63
-2.91
-3.59
-4.38
-5.01
-5.34
-5.38
-5.28
-5.3
-5.61
-6.23
-7
-7.64
-7.95
-7.95
-7.85
-8.02
-8.73
-10.09
-11.9
-13.86
-15.59
-16.81
-17.23
-16.61
-14.77
-11.62
-7.28
-2.15
3.2
8.21
12.42
15.58
17.62
18.58
18.57
17.76
16.39
14.75
13.16
11.87
10.97
10.41
10.05
9.74
9.33
8.73
7.86
6.65
5.03
3.03
0.67
-1.95
-4.71
-7.5
-10.12
-12.28
-13.59
-13.56
-11.83
-8.32
-3.32
2.59
8.72
14.5
19.61
23.88
27.22
29.48
30.48
30.17
28.72
26.46
23.85
21.21
18.63
15.98
13.09
9.88
6.44
3.03
-0.16
-3
-5.59
-8.13
-10.85
-13.94
-17.39
-20.99
-24.34
-26.91
-28.16
-27.73
-25.55
-21.79
-16.89
-11.35
-5.68
-0.29
4.55
8.61
11.7
13.64
14.28
13.62
11.83
9.34
6.72
4.53
3.12
2.5
2.36
2.23
1.76
0.83
-0.38
-1.59
-2.6
-3.41
-4.2
-5.29
-6.89
-9.09
-11.73
-14.48
-16.85
-18.33
-18.53
-17.33
-14.86
-11.51
-7.81
-4.18
-0.86
2.07
4.63
6.77
8.34
9.1
8.84
7.54
5.41
2.87
0.4
-1.61
-3.04
-4
-4.79
-5.76
-7.17
-9.09
-11.39
-13.81
-16.09
-18.06
-19.78
-21.44
-23.3
-25.6
-28.38
-31.47
-34.5
-37
-38.47
-38.41
-36.42
-32.33
-26.29
-18.84
-10.87
-3.33
3.04
8
11.82
15.08
18.4
22.18
26.46
31
35.41
39.28
42.31
44.31
45.24
45.13
44.05
42.05
39.14
35.37
30.84
25.83
20.67
15.72
11.32
7.73
5.19
3.88
3.93
5.25
7.53
10.15
12.48
14
14.5
14.1
13.14
11.95
10.66
9.22
7.43
5.11
2.25
-1.03
-4.42
-7.65
-10.53
-13.02
-15.15
-17.03
-18.71
-20.31
-21.95
-23.82
-26.06
-28.63
-31.21
-33.21
-33.9
-32.73
-29.6
-24.93
-19.49
-14.12
-9.42
-5.65
-2.71
-0.39
1.48
2.94
3.9
4.28
4.08
3.44
2.62
1.84
1.26
0.91
0.71
0.53
0.22
-0.34
-1.27
-2.64
-4.49
-6.8
-9.38
-11.88
-13.76
-14.43
-13.42
-10.51
-5.89
-0.17
5.82
11.23
15.44
18.18
19.55
19.84
19.38
18.42
17.13
15.61
13.98
12.36
10.85
9.47
8.14
6.76
5.24
3.57
1.85
0.15
-1.52
-3.23
-5.14
-7.34
-9.84
-12.42
-14.64
-15.97
-15.9
-14.1
-10.58
-5.66
0.12
6.08
11.66
16.39
20.05
22.52
23.87
24.25
23.83
22.88
21.63
20.3
19.02
17.85
16.7
15.44
13.92
12.14
10.2
8.32
6.78
5.73
5.1
4.63
3.91
2.53
0.29
-2.78
-6.34
-9.79
-12.47
-13.76
-13.25
-10.9
-7.01
-2.18
2.87
7.47
11.16
13.74
15.2
15.62
15.14
13.93
12.24
10.42
8.84
7.83
7.48
7.65
8.05
8.28
8.12
7.47
6.42
5.1
3.58
1.84
-0.17
-2.5
-5.16
-8.13
-11.45
-15.17
-19.26
-23.53
-27.56
-30.76
-32.55
-32.59
-30.84
-27.66
-23.6
-19.22
-15
-11.29
-8.26
-6.02
-4.59
-3.9
-3.87
-4.41
-5.45
-6.88
-8.49
-10
-11.1
-11.56
-11.34
-10.59
-9.56
-8.54
-7.69
-7.05
-6.56
-6.16
-5.79
-5.5
-5.39
-5.63
-6.36
-7.61
-9.21
-10.76
-11.76
-11.76
-10.49
-7.99
-4.51
-0.45
3.76
7.75
11.21
13.91
15.68
16.44
16.25
15.31
13.91
12.44
11.21
10.43
10.12
10.09
9.99
9.51
8.44
6.84
4.98
3.27
2.1
1.62
1.7
1.96
1.88
1.07
-0.59
-2.92
-5.43
-7.48
-8.51
-8.12
-6.21
-2.97
1.15
5.53
9.53
12.65
14.62
15.49
15.59
15.34
15.17
15.42
16.26
17.73
19.65
21.71
23.46
24.43
24.27
22.86
20.34
17.09
13.58
10.28
7.46
5.22
3.46
1.91
0.25
-1.86
-4.59
-7.88
-11.33
-14.34
-16.19
-16.29
-14.37
-10.58
-5.47
0.18
5.55
9.92
12.77
13.88
13.28
11.25
8.17
4.58
0.9
-2.55
-5.67
-8.61
-11.63
-14.93
-18.56
-22.34
-25.93
-28.93
-31.14
-32.57
-33.51
-34.38
-35.62
-37.51
-40.04
-42.84
-45.2
-46.25
-45.15
-41.42
-35.18
-27.04
-18.09
-9.38
-1.74
4.36
8.78
11.6
12.92
12.93
11.95
10.37
8.66
7.16
5.98
5
3.99
2.75
1.22
-0.48
-2.12
-3.53
-4.66
-5.6
-6.65
-8.15
-10.41
-13.48
-16.97
-20.09
-21.74
-20.96
-17.28
-10.97
-3
5.33
12.76
18.49
22.23
24.11
24.46
23.63
21.88
19.45
16.58
13.52
10.57
7.94
5.79
4.13
2.85
1.72
0.52
-0.93
-2.66
-4.6
-6.66
-8.89
-11.45
-14.54
-18.14
-21.71
-24.29
-24.78
-22.39
-17.12
-9.8
-1.79
5.53
11.33
15.51
18.47
20.75
22.64
24.08
24.77
24.55
23.5
22.03
20.59
19.44
18.5
17.45
15.89
13.63
10.77
7.64
4.59
1.78
-0.88
-3.72
-7.06
-10.97
-15.17
-19.05
-21.84
-22.83
-21.69
-18.53
-13.85
-8.37
-2.79
2.38
6.91
10.72
13.87
16.34
18.1
19.11
19.48
19.43
19.32
19.42
19.85
20.42
20.77
20.53
19.52
17.86
15.9
14.04
12.58
11.46
10.39
8.86
6.41
2.79
-1.94
-7.36
-12.83
-17.55
-20.8
-22.12
-21.43
-19.1
-15.74
-12.09
-8.71
-5.87
-3.56
-1.69
-0.21
0.72
0.87
0.16
-1.25
-2.94
-4.36
-5.13
-5.16
-4.67
-4.02
-3.56
-3.42
-3.57
-3.82
-3.99
-3.97
-3.76
-3.49
-3.43
-3.93
-5.29
-7.72
-11.1
-14.98
-18.6
-21.04
-21.54
-19.77
-15.91
-10.57
-4.62
1.19
6.32
10.52
13.72
15.85
16.8
16.5
15.08
12.89
10.5
8.46
7.06
6.35
6.04
5.73
5.03
3.69
1.7
-0.83
-3.7
-6.74
-9.87
-13.18
-16.81
-20.84
-25.23
-29.64
-33.54
-36.18
-36.9
-35.17
-30.87
-24.25
-15.99
-7.05
1.53
8.85
14.41
18.1
20.21
21.19
21.51
21.49
21.3
21.04
20.72
20.41
20.08
19.67
19.04
18.06
16.65
14.86
12.89
10.95
9.17
7.46
5.53
3.02
-0.38
-4.82
-10.17
-15.98
-21.55
-26.04
-28.61
-28.74
-26.32
-21.84
-16.21
-10.49
-5.55
-1.86
0.56
2.03
2.92
3.56
4.13
4.75
5.55
6.72
8.41
10.63
13.25
15.91
18.24
19.92
20.82
21.02
20.75
20.29
19.83
19.42
18.92
18.08
16.62
14.39
11.47
8.14
4.94
2.39
0.97
0.84
1.93
3.97
6.59
9.45
12.29
14.94
17.27
19.09
20.21
20.44
19.68
17.99
15.63
13.02
10.71
9.18
8.75
9.4
10.79
12.42
13.78
14.57
14.73
14.41
13.75
12.84
11.6
9.96
7.89
5.5
3.02
0.58
-1.73
-3.95
-6.07
-7.97
-9.38
-9.95
-9.47
-7.93
-5.58
-2.89
-0.34
1.71
3.07
3.64
3.39
2.22
0.06
-3.08
-6.97
-11.21
-15.41
-19.26
-22.72
-25.93
-29.08
-32.34
-35.72
-39.12
-42.44
-45.59
-48.56
-51.37
-54.05
-56.66
-59.28
-62.02
-64.94
-67.93
-70.66
-72.51
-72.78
-70.76
-66.08
-58.79
-49.42
-38.8
-27.87
-17.45
-8
0.24
7.21
12.78
16.74
18.87
19.08
17.63
15.12
12.31
9.79
7.75
5.94
3.72
0.54
-3.91
-9.48
-15.58
-21.48
-26.41
-29.86
-31.54
-31.53
-30.2
-28.31
-26.76
-26.23
-26.74
-27.33
-26.17
-21.14
-10.73
5.28
25.59
47.77
69.08
87.28
101.07
110.03
114.29
114.18
110.15
102.87
93.38
83.02
73.14
64.73
58.14
53.05
48.75
44.47
39.68
34.26
28.46
22.64
17.14
12.11
7.52
3.14
-1.32
-6.11
-11.36
-16.93
-22.49
-27.48
-31.37
-33.78
-34.62
-34.18
-32.92
-31.32
-29.7
-28.12
-26.4
-24.38
-22.08
-19.77
-18
-17.35
-18.21
-20.61
-24.14
-28.02
-31.44
-33.76
-34.71
-34.43
-33.23
-31.47
-29.36
-26.98
-24.33
-21.42
-18.35
-15.29
-12.48
-10.14
-8.6
-8.14
-8.95
-10.86
-13.14
-14.58
-13.79
-9.76
-2.23
8.05
19.64
30.93
40.65
48.25
53.75
57.54
59.96
61.11
60.91
59.28
56.43
52.83
49.14
45.91
43.39
41.37
39.41
37
33.86
30.01
25.69
21.22
16.74
12.23
7.49
2.24
-3.74
-10.6
-18.37
-26.97
-36.09
-45.2
-53.57
-60.38
-64.9
-66.79
-66.14
-63.45
-59.42
-54.73
-49.82
-44.92
-40.08
-35.47
-31.35
-28.07
-25.77
-24.25
-22.93
-21.09
-18.19
-14.2
-9.67
-5.41
-2.24
-0.57
-0.35
-1.15
-2.47
-3.99
-5.67
-7.67
-10.22
-13.39
-17.09
-21.08
-24.88
-27.84
-29.18
-28.1
-23.99
-16.72
-6.75
4.98
17.31
29.23
40.08
49.55
57.5
63.68
67.75
69.39
68.56
65.66
61.44
56.82
52.45
48.62
45.17
41.71
37.86
33.5
28.83
24.28
20.29
17.14
14.79
12.92
11.06
8.79
5.8
2.01
-2.42
-7.18
-11.76
-15.52
-17.85
-18.33
-16.84
-13.68
-9.4
-4.66
0
4.2
7.71
10.35
11.9
12.13
10.84
8.07
4.05
-0.7
-5.47
-9.57
-12.42
-13.81
-13.88
-13.16
-12.27
-11.77
-11.85
-12.33
-12.79
-12.84
-12.34
-11.49
-10.79
-10.76
-11.84
-14.13
-17.32
-20.77
-23.54
-24.7
-23.61
-20.16
-14.85
-8.57
-2.29
3.34
8.12
12.18
15.67
18.58
20.61
21.38
20.66
18.58
15.6
12.35
9.32
6.74
4.5
2.21
-0.56
-4.09
-8.4
-13.22
-18.16
-22.83
-27.06
-30.95
-34.81
-39.06
-44
-49.88
-56.77
-64.55
-72.86
-81
-87.92
-92.45
-93.53
-90.67
-84.21
-75.18
-65.02
-54.96
-45.63
-36.9
-28.21
-19.05
-9.4
0.12
8.46
14.7
18.5
20.27
20.95
21.56
22.7
24.42
26.35
28.09
29.54
30.91
32.54
34.56
36.75
38.61
39.61
39.48
38.26
36.1
33.08
29
23.47
16.28
7.68
-1.33
-9.11
-13.77
-13.73
-8.33
2.01
15.91
31.49
46.94
60.93
72.6
81.38
86.77
88.38
86.07
80.28
72.13
63.16
54.77
47.87
42.54
38.22
34.18
29.87
25.2
20.51
16.29
12.9
10.42
8.6
6.97
5
2.26
-1.36
-5.61
-9.81
-13.08
-14.58
-13.79
-10.74
-5.91
-0.09
5.91
11.52
16.46
20.69
24.23
26.99
28.84
29.6
29.23
27.9
25.92
23.67
21.48
19.58
18
16.67
15.47
14.25
12.97
11.65
10.36
9.15
8.07
7.09
6.13
5.07
3.79
2.15
0.05
-2.59
-5.63
-8.77
-11.44
-12.96
-12.78
-10.68
-6.88
-2.03
3.08
7.69
11.31
13.83
15.36
16.09
16.17
15.59
14.23
11.94
8.69
4.63
0.05
-4.76
-9.59
-14.48
-19.62
-25.18
-31.13
-37.13
-42.59
-46.88
-49.69
-51.11
-51.59
-51.74
-52.05
-52.78
-53.89
-55.09
-55.89
-55.63
-53.54
-48.87
-41.24
-30.81
-18.44
-5.41
6.87
17.33
25.45
31.2
34.89
36.88
37.5
37
35.7
33.92
32.04
30.35
28.98
27.93
27.01
26.02
24.76
23.17
21.33
19.38
17.47
15.59
13.57
11.07
7.73
3.35
-1.91
-7.53
-12.73
-16.62
-18.48
-17.95
-15.11
-10.42
-4.63
1.5
7.3
12.32
16.35
19.31
21.15
21.87
21.48
20.16
18.2
16.01
13.96
12.21
10.69
9.14
7.26
4.91
2.18
-0.64
-3.19
-5.26
-6.88
-8.36
-10.19
-12.83
-16.57
-21.31
-26.49
-31.16
-34.25
-34.85
-32.6
-27.76
-21.1
-13.67
-6.38
0.19
5.82
10.55
14.48
17.65
20.06
21.71
22.61
22.88
22.59
21.84
20.62
18.9
16.64
13.86
10.77
7.66
4.91
2.8
1.44
0.61
-0.1
-1.22
-3.21
-6.28
-10.39
-15.23
-20.27
-24.86
-28.36
-30.31
-30.62
-29.64
-28.03
-26.49
-25.34
-24.4
-23.03
-20.47
-16.35
-10.91
-4.92
0.66
5.08
8.08
9.84
10.72
11.04
10.85
10.06
8.61
6.63
4.42
2.33
0.57
-0.88
-2.29
-4.02
-6.43
-9.61
-13.38
-17.21
-20.3
-21.75
-20.95
-17.71
-12.45
-6.01
0.62
6.62
11.55
15.33
18.06
19.79
20.47
20.02
18.5
16.22
13.7
11.42
9.71
8.54
7.52
6.19
4.17
1.39
-1.88
-5.16
-7.93
-9.89
-11.03
-11.7
-12.43
-13.77
-16.1
-19.5
-23.62
-27.74
-30.93
-32.29
-31.25
-27.76
-22.35
-15.92
-9.44
-3.64
1.12
4.88
7.83
10.08
11.59
12.15
11.58
9.93
7.54
4.96
2.74
1.24
0.45
0.05
-0.43
-1.39
-2.98
-5.11
-7.56
-10.06
-12.46
-14.73
-16.99
-19.43
-22.33
-25.93
-30.45
-35.84
-41.71
-47.22
-51.18
-52.39
-50.01
-44.02
-35.24
-25.22
-15.64
-7.8
-2.25
1.19
3.06
3.82
3.59
2.1
-0.96
-5.62
-11.47
-17.77
-23.7
-28.8
-33.04
-36.81
-40.61
-44.83
-49.55
-54.52
-59.38
-63.66
-67.04
-69.44
-71.04
-72.34
-74.02
-76.84
-81.25
-87.21
-93.98
-100.16
-103.89
-103.35
-97.18
-84.9
-67.04
-45
-20.76
3.66
26.5
46.54
63.06
75.71
84.5
89.62
91.61
91.25
89.54
87.41
85.51
84.02
82.65
80.84
78.06
74.08
69.02
63.25
57.21
51.12
44.91
38.2
30.56
21.62
11.28
-0.11
-11.69
-21.95
-29.09
-31.38
-27.8
-18.47
-4.77
11.12
26.95
41.02
52.56
61.56
68.4
73.38
76.65
78.28
78.5
77.79
76.74
75.73
74.71
73.27
70.76
66.75
61.19
54.52
47.34
40.13
33.03
25.81
18.03
9.37
-0.21
-10.42
-20.7
-30.37
-38.73
-45.12
-48.94
-49.68
-47.05
-41.05
-32.05
-20.73
-8.03
5.05
17.56
28.63
37.53
43.65
46.53
46.01
42.19
35.57
26.88
16.96
6.69
-3.26
-12.4
-20.48
-27.49
-33.56
-38.94
-43.89
-48.6
-53.2
-57.76
-62.34
-67.06
-71.95
-76.9
-81.52
-85.17
-87.15
-86.78
-83.59
-77.39
-68.26
-56.57
-42.98
-28.38
-13.75
-0.05
12.12
22.43
30.88
37.61
42.72
46.32
48.51
49.6
49.98
50.13
50.31
50.5
50.38
49.45
47.25
43.45
37.94
30.76
22
11.82
0.48
-11.57
-23.6
-34.68
-43.9
-50.58
-54.58
-56.3
-56.5
-56.08
-55.74
-55.85
-56.45
-57.35
-58.18
-58.56
-58.05
-56.23
-52.72
-47.37
-40.33
-32.11
-23.54
-15.52
-8.86
-4.02
-1.02
0.51
1.12
1.27
1.11
0.4
-1.37
-4.78
-10.27
-18.07
-28.12
-40.05
-53.04
-65.73
-76.29
-82.72
-83.45
-77.83
-66.42
-50.84
-33.16
-15.27
1.56
16.71
30.01
41.38
50.65
57.66
62.37
64.97
65.92
65.67
64.6
62.92
60.69
57.99
54.98
51.88
48.86
46.02
43.31
40.63
37.81
34.65
30.87
26.1
19.97
12.39
3.76
-4.82
-11.8
-15.56
-15.02
-10.17
-2.01
7.77
17.44
25.78
32.09
36.11
37.72
36.78
33.4
28.19
22.34
17.41
14.72
14.79
17.1
20.39
23.17
24.42
23.82
21.69
18.61
14.97
10.78
5.6
-1.2
-10.07
-20.96
-33.01
-44.55
-53.42
-57.57
-55.75
-47.94
-35.43
-20.35
-5
8.8
20.01
28.32
33.81
36.68
37.13
35.39
31.88
27.1
21.52
15.33
8.45
0.71
-7.97
-17.21
-26.36
-34.62
-41.5
-47.04
-51.79
-56.63
-62.27
-68.96
-76.23
-82.99
-87.67
-88.65
-84.63
-74.94
-59.77
-40.06
-17.12
7.97
34.78
63.54
94.65
127.87
161.59
192.85
218.08
234.39
240.85
238.91
231.98
224
217.83
214.05
210.7
204.22
191
169.18
139.58
105.6
72
43.09
21.29
6.51
-3.35
-11.31
-20.2
-31.89
-46.92
-64.6
-83.03
-99.54
-111.18
-115.52
-111.4
-99.34
-81.3
-60.13
-38.75
-19.63
-4.6
5.21
9.36
8.19
2.9
-4.66
-12.44
-18.72
-22.48
-23.56
-22.41
-19.91
-17.06
-14.84
-14.05
-15.13
-18.19
-22.97
-29.06
-36.02
-43.53
-51.34
-59.21
-66.91
-74.13
-80.58
-85.86
-89.41
-90.4
-87.79
-80.56
-68.12
-50.64
-29.16
-5.45
18.33
39.95
57.5
69.48
75.04
74.07
67.35
56.47
43.52
30.73
20.02
12.71
9.44
10.27
14.81
22.32
31.69
41.42
49.69
54.52
54.18
47.52
34.3
15.33
-7.7
-32.41
-56.18
-76.48
-91.18
-98.76
-98.54
-90.78
-76.72
-58.59
-39.14
-21.14
-6.66
3.35
9.22
12.26
14.15
16.49
20.38
26.29
34.05
42.88
51.45
58.05
60.87
58.47
50.3
36.83
19.59
0.67
-17.71
-33.71
-46.04
-54.09
-57.83
-57.79
-54.96
-50.71
-46.49
-43.52
-42.37
-42.78
-43.77
-44.06
-42.72
-39.52
-35.04
-30.32
-26.4
-23.87
-22.75
-22.6
-22.74
-22.53
-21.37
-18.76
-14.36
-8.11
-0.39
7.92
15.62
21.44
24.42
24.11
20.89
15.94
11.25
9.15
11.64
19.61
32.29
47.34
61.57
72.11
77.31
77.19
73.06
66.89
60.6
55.66
53.06
53.31
56.49
62.07
68.99
75.9
81.74
86.18
89.79
93.69
98.86
105.6
113.17
120.04
124.47
125.03
121.06
112.63
100.36
85.03
67.44
48.29
28.32
8.26
-11.23
-29.74
-47.26
-64.22
-81.31
-99.2
-118.12
-137.68
-156.64
-173.04
-184.42
-188.36
-183.11
-168.31
-145.29
-116.98
-87.2
-59.64
-36.88
-19.9
-8.21
-0.47
4.66
8.01
9.7
9.43
6.87
2.08
-4.46
-11.88
-19.12
-25.17
-29.13
-30.24
-28.01
-22.39
-14.11
-4.79
3.1
6.87
4.49
-4.4
-18.15
-33.32
-45.8
-52.08
-50.28
-40.4
-23.85
-2.72
20.94
45.29
68.65
89.28
105.44
115.7
119.28
116.27
107.49
94.19
77.58
58.69
38.36
17.44
-3.01
-21.71
-37.33
-48.94
-56.33
-60.26
-62.29
-64.3
-67.79
-73.28
-80.04
-86.28
-89.75
-88.48
-81.47
-68.97
-52.41
-33.92
-15.64
0.75
14.4
25.2
33.5
39.72
44.16
46.89
47.83
46.89
44.12
39.71
34.13
27.97
21.89
16.47
12.02
8.46
5.37
2.11
-2.13
-8.11
-16.46
-27.45
-40.65
-54.74
-67.52
-76.34
-78.93
-74.13
-62.34
-45.38
-25.72
-5.73
13.08
30.06
45.16
58.4
69.62
78.47
84.66
88.18
89.32
88.46
85.73
80.87
73.42
63.06
50.07
35.5
20.99
8.28
-1.47
-8.05
-12.25
-15.48
-19.05
-23.55
-28.49
-32.53
-34
-31.72
-25.54
-16.45
-6.17
3.39
10.82
15.46
17.35
16.94
14.78
11.28
6.69
1.22
-4.84
-11.04
-16.82
-21.67
-25.27
-27.54
-28.64
-28.78
-28.08
-26.51
-23.96
-20.48
-16.41
-12.29
-8.72
-5.93
-3.63
-0.99
2.97
8.97
17.03
26.3
35.29
42.31
45.97
45.63
41.5
34.51
25.99
17.2
8.98
1.64
-4.98
-11.33
-17.83
-24.74
-32.18
-40.1
-48.38
-56.83
-65.16
-72.98
-79.84
-85.41
-89.66
-93.02
-96.13
-99.51
-103.03
-105.65
-105.66
-101.29
-91.52
-76.69
-58.57
-39.69
-22.58
-8.85
1.13
8.01
12.92
16.83
20.2
22.93
24.64
24.95
23.74
21.19
17.73
13.84
9.98
6.43
3.36
0.77
-1.45
-3.53
-5.81
-8.77
-12.86
-18.31
-24.89
-31.67
-37.21
-39.9
-38.63
-33.26
-24.76
-14.9
-5.61
1.68
6.32
8.37
8.26
6.46
3.39
-0.41
-4.19
-6.93
-7.65
-5.8
-1.49
4.48
10.97
16.88
21.59
24.89
26.91
27.69
26.99
24.29
19.19
11.72
2.55
-7.18
-16.2
-23.55
-28.7
-31.45
-31.62
-28.98
-23.33
-14.94
-4.73
5.69
14.58
20.65
23.55
23.79
22.37
20.25
18.09
16.3
15.27
15.51
17.42
20.99
25.57
29.94
32.77
33.24
31.41
28.21
24.93
22.57
21.39
20.79
19.66
16.93
11.97
4.9
-3.4
-11.55
-18.06
-21.65
-21.68
-18.16
-11.73
-3.42
5.62
14.37
21.98
27.8
31.34
32.31
30.73
27.11
22.46
18.02
14.84
13.35
13.12
13.01
11.6
7.84
1.52
-6.45
-14.23
-19.48
-20.04
-14.61
-3.28
12.14
28.29
40.9
45.83
40.42
24.54
0.82
-25.99
-50.47
-68.21
-76.85
-76.36
-68.4
-55.32
-39.54
-23.19
-8.23
3.57
10.8
12.87
10.37
4.99
-0.93
-5.3
-6.89
-5.65
-2.56
0.86
3.21
3.69
2.29
-0.28
-2.91
-4.55
-4.63
-3.4
-1.81
-1.14
-2.34
-5.35
-8.81
-10.28
-6.89
3.66
22.37
48.61
80.31
114.39
147.36
175.82
196.78
208.09
208.73
198.88
179.85
153.64
122.54
88.95
55.38
24.41
-1.41
-20.12
-30.87
-34.31
-32.44
-27.98
-23.65
-21.49
-22.68
-27.68
-36.54
-49.11
-64.92
-82.95
-101.41
-117.84
-129.51
-134.22
-130.93
-120.12
-103.58
-83.84
-63.35
-43.94
-26.63
-11.9
0.08
9.15
15.24
18.58
19.71
19.46
18.63
17.77
17.02
16.18
14.96
13.15
10.76
7.99
5.1
2.31
-0.21
-2.43
-4.45
-6.64
-9.6
-14.16
-21.01
-30.31
-41.31
-52.4
-61.44
-66.49
-66.57
-61.9
-53.8
-44.15
-34.72
-26.83
-21.21
-18.24
-18.09
-20.7
-25.68
-32.09
-38.39
-42.85
-44
-41.25
-35.2
-27.39
-19.67
-13.35
-8.64
-4.58
0.42
7.7
17.66
29.44
41.23
50.85
56.38
56.53
50.78
39.46
23.75
5.67
-12.03
-26.34
-34.54
-34.88
-27.06
-12.35
6.72
26.99
45.4
59.64
68.52
71.91
70.52
65.57
58.44
50.57
43.22
37.39
33.49
31.26
29.71
27.56
23.7
17.57
9.34
-0.39
-10.99
-22.06
-33.4
-44.71
-55.21
-63.5
-67.79
-66.42
-58.51
-44.36
-25.48
-4.25
16.66
34.98
49.29
59.13
64.84
67.21
67.12
65.34
62.59
59.6
57.14
55.91
56.28
58.14
60.86
63.51
65.23
65.43
63.86
60.48
55.4
48.84
41.31
33.74
27.26
22.91
21.15
21.7
23.91
27.35
32.57
41.22
55.53
77.35
106.99
142.62
180.33
214.94
241.13
254.61
252.97
236.02
205.7
165.5
119.8
73.08
29.48
-7.59
-35.54
-53.03
-60.22
-59.01
-52.85
-46
-42.46
-44.93
-54.46
-70.52
-91.76
-116.48
-142.89
-168.95
-192.06
-209.23
-217.49
-214.86
-200.99
-177.5
-147.51
-114.89
-83.27
-55.36
-32.7
-15.82
-4.59
1.55
3.48
2.43
-0.09
-2.62
-3.99
-3.68
-1.83
0.87
3.49
5.05
4.61
1.34
-5.33
-15.34
-27.77
-40.65
-51.26
-56.74
-54.96
-45.17
-28.33
-6.94
15.55
35.39
49.38
55.35
52.56
41.74
24.78
4.32
-16.82
-36.09
-51.57
-62
-66.89
-66.4
-61.45
-53.62
-44.97
-37.67
-33.33
-32.58
-34.93
-39.04
-43.32
-46.46
-47.65
-46.55
-43.08
-37.16
-28.85
-18.37
-6.39
6.13
18.08
28.57
37.04
43.22
46.97
48.13
46.54
42.21
35.47
27.13
18.25
9.94
3.02
-2.15
-5.7
-8.11
-10.02
-11.95
-14.23
-17.01
-20.24
-23.7
-26.97
-29.37
-30.02
-28.13
-23.21
-15.43
-5.59
5.04
15.13
23.71
30.44
35.49
39.31
42.2
44.21
45.05
44.38
41.96
37.89
32.55
26.57
20.67
15.44
11.33
8.52
6.91
6.13
5.58
4.5
2.16
-1.96
-7.89
-15.02
-22.13
-27.68
-30.33
-29.34
-24.89
-18
-10.14
-2.81
2.94
6.56
7.95
7.21
4.5
-0.02
-6.05
-13.08
-20.37
-27.17
-32.82
-36.97
-39.57
-40.84
-41.07
-40.56
-39.56
-38.31
-37.16
-36.54
-36.87
-38.33
-40.62
-42.87
-43.79
-42.01
-36.55
-27.18
-14.61
-0.31
13.91
26.34
35.85
42.03
45.22
46.19
45.79
44.64
42.98
40.67
37.39
32.84
26.89
19.59
11.08
1.42
-9.27
-20.75
-32.41
-43.33
-52.51
-59.29
-63.69
-66.51
-68.92
-71.76
-75.06
-77.85
-78.61
-75.96
-69.39
-59.39
-47.18
-34.18
-21.48
-9.71
0.8
9.78
16.88
21.76
24.33
24.86
23.94
22.25
20.4
18.84
17.9
17.88
19.06
21.56
25.19
29.39
33.36
36.18
37.12
35.68
31.65
25.07
16.27
5.99
-4.53
-13.58
-19.39
-20.63
-16.8
-8.45
3.01
15.86
28.36
39.18
47.42
52.64
54.79
54.16
51.34
46.98
41.72
36.08
30.51
25.45
21.4
18.77
17.72
17.9
18.61
18.88
17.91
15.28
10.95
5.18
-1.74
-9.55
-17.88
-26.1
-33.18
-37.87
-38.97
-35.81
-28.53
-18.11
-6.16
5.58
15.77
23.72
29.4
33.23
35.63
36.81
36.58
34.5
30.15
23.36
14.5
4.35
-5.95
-15.32
-22.95
-28.5
-32.13
-34.34
-35.78
-37.04
-38.57
-40.68
-43.64
-47.59
-52.38
-57.35
-61.27
-62.5
-59.59
-51.89
-39.95
-25.47
-10.71
2.29
12.32
19.21
23.49
25.91
26.99
26.92
25.68
23.3
20.01
16.21
12.38
8.93
6.11
4.01
2.5
1.31
0.04
-1.72
-4.32
-7.92
-12.56
-18.11
-24.31
-30.62
-36.12
-39.55
-39.53
-34.99
-25.7
-12.49
2.87
18.19
31.55
41.72
48.36
51.78
52.55
51.18
48.05
43.44
37.68
31.19
24.45
17.89
11.78
6.24
1.24
-3.28
-7.41
-11.26
-15.04
-19.13
-24.03
-30.2
-37.8
-46.35
-54.71
-61.24
-64.27
-62.72
-56.46
-46.34
-33.86
-20.6
-7.88
3.49
13.07
20.61
25.99
29.2
30.49
30.32
29.29
27.97
26.78
25.97
25.7
25.99
26.76
27.75
28.5
28.44
26.97
23.63
18.18
10.69
1.7
-7.73
-16.1
-21.81
-23.58
-21.09
-15.06
-7.13
0.78
7.18
11.28
13.04
12.78
10.88
7.61
3.18
-2.01
-7.44
-12.49
-16.74
-20.06
-22.63
-24.8
-27.01
-29.59
-32.79
-36.71
-41.28
-46.28
-51.46
-56.62
-61.7
-66.71
-71.47
-75.37
-77.39
-76.27
-71
-61.27
-47.73
-31.79
-15.25
0.26
13.64
24.38
32.46
38.03
41.37
42.69
42.23
40.36
37.49
34.17
30.89
28.07
25.89
24.34
23.16
21.92
20.18
17.52
13.76
8.89
3.04
-3.5
-10.33
-16.77
-21.88
-24.55
-23.88
-19.54
-12.15
-3.05
6.08
13.93
19.92
24.18
27.13
29.03
29.8
29.21
27.33
24.76
22.57
21.81
23.04
26.04
29.91
33.5
35.86
36.45
35.23
32.44
28.43
23.58
18.17
12.36
6.14
-0.63
-8.11
-16.23
-24.44
-31.64
-36.44
-37.6
-34.48
-27.38
-17.39
-6.01
5.37
15.76
24.72
32.09
37.85
41.9
44.19
44.84
44.18
42.72
40.94
39.16
37.43
35.62
33.57
31.15
28.39
25.4
22.38
19.5
16.88
14.55
12.38
10.14
7.54
4.29
0.16
-4.97
-11.1
-18.11
-25.61
-32.91
-38.94
-42.45
-42.32
-37.98
-29.66
-18.4
-5.78
6.65
17.69
26.79
33.92
39.29
43.09
45.25
45.49
43.52
39.28
33.06
25.54
17.56
9.82
2.69
-3.91
-10.38
-17.13
-24.33
-31.72
-38.8
-45.04
-50.24
-54.62
-58.72
-63.15
-68.31
-74.25
-80.8
-87.66
-94.45
-100.68
-105.49
-107.77
-106.29
-100.28
-89.85
-76.13
-61
-46.43
-33.82
-23.66
-15.58
-8.8
-2.58
3.53
9.76
16.38
23.9
33.04
44.46
58.34
74.17
90.7
106.26
119.21
128.3
132.95
133.19
129.62
123.21
115.25
107.1
99.97
94.61
91.06
88.64
86.13
82.34
76.51
68.68
59.62
50.54
42.6
36.6
32.78
30.82
29.94
29.12
27.37
24
18.88
12.52
5.96
0.37
-3.39
-5.1
-5.31
-5.03
-5.36
-7.06
-10.35
-14.9
-20.04
-24.99
-29.17
-32.28
-34.43
-36
-37.55
-39.57
-42.41
-46.14
-50.65
-55.73
-61.12
-66.57
-71.85
-76.8
-81.38
-85.71
-90.12
-94.9
-100.1
-105.16
-108.95
-109.87
-106.38
-97.57
-83.6
-65.65
-45.65
-25.63
-7.17
8.91
22.45
33.71
43
50.47
56.07
59.78
61.72
62.29
62
61.27
60.21
58.55
55.82
51.6
45.86
38.94
31.46
24.06
17.12
10.7
4.63
-1.35
-7.51
-14.09
-21.31
-29.39
-38.32
-47.65
-56.4
-63.07
-66.12
-64.35
-57.4
-45.82
-31.01
-14.82
0.86
14.47
24.97
31.88
35.24
35.45
33.14
28.99
23.63
17.55
11.09
4.55
-1.8
-7.7
-12.93
-17.45
-21.38
-24.97
-28.48
-31.98
-35.31
-38.19
-40.4
-41.95
-43.1
-44.23
-45.64
-47.38
-49.4
-51.63
-54.21
-57.42
-61.4
-65.72
-69.25
-70.4
-67.66
-60.31
-48.69
-34.11
-18.37
-3.05
10.81
22.78
32.93
41.34
48.04
52.9
55.69
56.29
54.79
51.68
47.74
43.94
41.15
39.81
39.86
40.78
41.88
42.69
43.02
42.95
42.59
41.92
40.72
38.8
35.99
32.29
27.73
22.29
15.97
8.99
1.9
-4.31
-8.57
-10.1
-8.71
-4.93
0.16
5.23
9.14
11.07
10.63
7.84
3.02
-3.25
-10.21
-17.01
-22.83
-27.07
-29.45
-30.08
-29.34
-27.77
-25.84
-23.82
-21.79
-19.65
-17.34
-14.89
-12.43
-10.1
-8.01
-6.25
-4.96
-4.4
-4.88
-6.65
-9.59
-13.07
-15.95
-16.97
-15.14
-10.14
-2.5
6.54
15.38
22.58
27.3
29.42
29.46
28.33
26.95
25.94
25.57
25.73
26.13
26.37
26.09
24.94
22.67
19.11
14.26
8.32
1.77
-4.74
-10.51
-15.01
-18.05
-19.83
-20.97
-22.18
-24.03
-26.74
-30.16
-34.03
-38.1
-42.25
-46.25
-49.5
-50.9
-49.11
-43.14
-32.84
-19.12
-3.48
12.62
28.36
43.58
58.32
72.19
84.17
92.87
97.35
97.77
95.47
92.38
90.21
89.71
90.56
91.73
92
90.32
85.92
78.32
67.29
53.1
36.59
19.15
2.33
-12.66
-25.28
-35.69
-44.55
-52.59
-60.3
-67.79
-74.75
-80.58
-84.49
-85.78
-84.13
-79.77
-73.44
-66.12
-58.69
-51.6
-44.94
-38.55
-32.33
-26.37
-20.92
-16.22
-12.38
-9.36
-6.94
-4.81
-2.64
-0.12
2.94
6.54
10.46
14.36
17.87
20.75
22.81
23.83
23.46
21.1
16.11
8.05
-2.94
-15.95
-29.32
-40.91
-48.53
-50.53
-46.25
-36.19
-21.93
-5.64
10.51
24.93
36.85
46.31
53.81
59.9
64.96
69.19
72.74
75.85
78.9
82.31
86.41
91.36
97.09
103.36
109.76
115.82
121.02
124.93
127.16
127.42
125.36
120.56
112.51
100.89
85.77
67.88
48.45
29.01
11.03
-4.37
-16.43
-24.76
-29.21
-30
-27.66
-23.14
-17.59
-12.1
-7.46
-4.09
-2.2
-1.99
-3.73
-7.68
-13.89
-22.05
-31.45
-41.3
-50.94
-60.03
-68.56
-76.65
-84.42
-91.89
-99.08
-106.08
-113.13
-120.5
-128.32
-136.44
-144.29
-151
-155.52
-156.84
-154.03
-146.48
-133.88
-116.48
-95.19
-71.54
-47.48
-24.9
-5.2
10.99
23.81
33.82
41.56
47.18
50.45
50.98
48.63
43.81
37.46
30.84
25.1
20.94
18.47
17.23
16.46
15.41
13.6
10.9
7.54
3.87
0.18
-3.39
-6.94
-10.68
-14.82
-19.47
-24.64
-30.24
-36.05
-41.61
-46.13
-48.46
-47.3
-41.71
-31.5
-17.47
-1.25
15.16
30.11
42.65
52.6
60.31
66.19
70.51
73.24
74.35
73.92
72.31
70.09
67.91
66.28
65.41
65.15
65.03
64.38
62.51
58.96
53.61
46.73
38.82
30.45
22
13.61
5.18
-3.58
-12.98
-23.33
-34.62
-46.4
-57.6
-66.61
-71.65
-71.37
-65.44
-54.75
-41.18
-27.03
-14.28
-4.19
2.85
7.03
8.86
8.9
7.72
5.84
3.75
1.77
0.04
-1.54
-3.22
-5.3
-7.99
-11.3
-14.98
-18.59
-21.63
-23.83
-25.25
-26.36
-27.87
-30.51
-34.7
-40.42
-47.13
-53.78
-59.04
-61.58
-60.44
-55.34
-46.84
-36.21
-25.03
-14.72
-6.22
0.05
4.04
5.86
5.67
3.78
0.78
-2.48
-5.09
-6.34
-5.99
-4.32
-1.95
0.36
2.03
2.71
2.33
0.97
-1.26
-4.41
-8.72
-14.63
-22.52
-32.37
-43.37
-53.85
-61.55
-64.3
-60.77
-51.1
-36.86
-20.66
-5.24
7.28
15.94
20.94
23.34
24.52
25.79
28.08
31.89
37.19
43.41
49.47
53.87
54.98
51.52
42.94
29.78
13.58
-3.47
-19.15
-31.83
-40.95
-47.08
-51.52
-55.65
-60.21
-64.88
-68.4
-69.12
-65.72
-57.85
-46.23
-32.34
-17.87
-4.12
8.12
18.56
27.06
33.51
37.72
39.7
39.64
38.08
35.7
33.2
31.07
29.55
28.62
28.07
27.69
27.29
26.8
26.17
25.33
24.07
22.02
18.72
13.74
6.85
-1.8
-11.48
-20.88
-28.26
-31.83
-30.26
-23.09
-11.05
4.08
19.82
33.61
43.36
47.94
47.25
42.09
33.8
23.87
13.59
3.96
-4.36
-10.91
-15.46
-18.04
-19.1
-19.53
-20.41
-22.67
-26.65
-31.94
-37.59
-42.49
-45.91
-47.73
-48.4
-48.65
-49.21
-50.61
-53.2
-57.02
-61.73
-66.36
-69.32
-68.66
-62.78
-51.1
-34.44
-14.8
5.33
23.85
39.67
52.67
63.29
71.93
78.55
82.69
83.9
82
77.38
70.93
63.76
56.93
51.23
47.02
44.21
42.35
40.84
39.06
36.71
33.76
30.43
26.98
23.54
19.96
15.92
11.09
5.23
-1.69
-9.49
-17.72
-25.56
-31.79
-34.89
-33.49
-26.87
-15.42
-0.67
15.04
29.41
40.81
48.64
53.16
55.01
54.65
52.16
47.38
40.31
31.34
21.2
10.66
0.19
-10.18
-20.66
-31.36
-42.01
-51.97
-60.44
-66.8
-70.82
-72.68
-72.85
-71.98
-70.81
-70.1
-70.52
-72.5
-76.1
-80.98
-86.52
-91.91
-96.17
-98.14
-96.64
-90.7
-79.98
-65.11
-47.69
-29.88
-13.76
-0.64
9.26
16.54
22.23
27.24
31.99
36.46
40.39
43.49
45.56
46.57
46.61
45.9
44.79
43.79
43.53
44.56
47.15
51.17
56.04
60.97
65.14
67.94
69.08
68.52
66.3
62.45
56.86
49.42
40.18
29.65
18.93
9.75
4.06
3.45
8.54
18.58
31.66
45.37
57.59
67.11
73.65
77.39
78.49
76.67
71.48
62.65
50.56
36.38
21.8
8.45
-2.53
-10.72
-16.32
-19.86
-21.97
-23.19
-23.96
-24.63
-25.43
-26.56
-28.15
-30.34
-33.29
-37.18
-42.12
-48.03
-54.46
-60.54
-65.07
-66.76
-64.55
-58.01
-47.43
-33.77
-18.43
-2.85
11.73
24.39
34.52
41.71
45.75
46.69
44.87
40.98
35.87
30.39
25.09
20.17
15.52
10.88
6.01
0.8
-4.77
-10.54
-16.27
-21.61
-26.2
-29.79
-32.5
-34.86
-37.78
-42.29
-49.14
-58.51
-69.89
-82.13
-93.68
-102.93
-108.58
-109.96
-107.18
-101.05
-92.73
-83.36
-73.63
-63.78
-53.82
-43.86
-34.33
-25.88
-19.1
-14.17
-10.73
-8.04
-5.32
-1.98
2.43
8.31
16.29
27.06
41.12
58.3
77.52
96.94
114.41
128.16
137.24
141.8
142.74
141.28
138.39
134.44
129.34
122.89
115.38
107.93
102.4
100.81
104.6
114.01
127.95
144.32
160.39
173.26
180.08
178.45
166.82
145.14
115.17
80.27
44.44
11.12
-17.69
-41.59
-61.15
-77.05
-89.52
-98.39
-103.68
-106.06
-106.9
-107.9
-110.34
-114.76
-120.92
-128.17
-135.71
-142.65
-147.94
-150.29
-148.36
-141.17
-128.63
-111.75
-92.36
-72.58
-54.19
-38.24
-25.03
-14.37
-6.01
0.29
4.77
7.68
9.41
10.28
10.45
9.81
8.18
5.41
1.64
-2.71
-7.06
-10.88
-13.92
-16.25
-18.23
-20.41
-23.39
-27.69
-33.69
-41.43
-50.51
-60
-68.56
-74.71
-77.2
-75.3
-69.09
-59.33
-47.36
-34.68
-22.69
-12.51
-4.86
-0.19
1.37
-0.03
-3.89
-9.42
-15.62
-21.52
-26.48
-30.32
-33.26
-35.58
-37.3
-38.01
-37.04
-33.8
-28.19
-20.81
-12.69
-4.82
2.37
9.23
16.7
25.8
37.22
51.09
67.17
85.02
104.09
123.55
142.08
157.95
169.45
175.6
176.51
173.34
167.56
160.16
151.22
140.18
126.57
110.59
93.22
75.75
59.06
43.27
27.84
12.2
-3.77
-19.56
-34.29
-47.26
-58.28
-67.78
-76.48
-84.93
-93.04
-99.98
-104.23
-104.22
-98.88
-88.3
-73.8
-57.55
-41.75
-27.81
-15.93
-5.4
4.8
15.16
25.36
34.4
41.12
44.88
45.77
44.49
41.87
38.53
34.64
30.12
24.96
19.44
14.1
9.52
6.01
3.43
1.27
-1.13
-4.27
-8.28
-12.91
-17.59
-21.61
-24.3
-25.18
-24.12
-21.31
-17.24
-12.46
-7.42
-2.37
2.53
6.99
10.57
12.67
12.85
11.02
7.57
3.17
-1.48
-5.92
-9.97
-13.52
-16.38
-18.23
-18.74
-17.84
-15.81
-13.26
-10.89
-9.34
-8.98
-9.97
-12.18
-15.12
-17.88
-19.24
-17.92
-13.07
-4.78
5.91
17.29
27.55
35.36
40.16
42
41.35
38.79
34.98
30.66
26.74
24.04
23.11
23.98
26.12
28.68
30.73
31.49
30.37
26.96
20.97
12.37
1.57
-10.57
-22.83
-33.98
-43.2
-50.2
-55.12
-58.16
-59.24
-57.96
-53.85
-46.83
-37.46
-26.93
-16.66
-7.8
-0.97
3.85
7.04
9.03
10.08
10.3
9.76
8.62
7.12
5.5
3.91
2.41
0.92
-0.63
-2.27
-3.93
-5.51
-6.91
-8.1
-9.24
-10.6
-12.61
-15.66
-19.89
-25.02
-30.27
-34.43
-36.24
-34.77
-29.73
-21.63
-11.54
-0.82
9.33
18.04
24.89
29.75
32.61
33.52
32.63
30.22
26.79
22.93
19.17
15.79
12.68
9.49
5.73
1.1
-4.38
-10.33
-16.25
-21.71
-26.52
-30.79
-34.83
-38.98
-43.53
-48.54
-53.82
-58.79
-62.51
-63.78
-61.5
-55.11
-44.92
-32.11
-18.42
-5.57
5.27
13.6
19.51
23.27
25.11
25.22
23.79
21.27
18.25
15.41
13.16
11.56
10.29
8.85
6.76
3.78
0
-4.25
-8.47
-12.25
-15.43
-18.17
-20.95
-24.31
-28.53
-33.28
-37.52
-39.7
-38.35
-32.53
-22.31
-8.75
6.55
21.98
36.32
48.98
59.73
68.52
75.15
79.37
80.91
79.73
75.99
70.03
62.23
52.87
42.29
30.89
19.34
8.42
-1.06
-8.54
-13.95
-17.65
-20.35
-22.82
-25.65
-29.05
-32.71
-35.83
-37.26
-35.78
-30.43
-20.92
-7.77
7.64
23.45
37.77
49.21
57.14
61.74
63.73
64.03
63.42
62.42
61.17
59.58
57.38
54.23
49.78
43.86
36.51
28.11
19.19
10.28
1.56
-7.2
-16.51
-26.86
-38.42
-50.8
-63.24
-74.79
-84.58
-92.08
-97.11
-99.74
-100.34
-99.42
-97.45
-94.8
-91.46
-87.15
-81.45
-74.13
-65.39
-55.96
-46.89
-39.21
-33.57
-30.1
-28.49
-28.24
-28.9
-30.23
-32.16
-34.69
-37.66
-40.79
-43.71
-46.1
-47.94
-49.55
-51.5
-54.38
-58.43
-63.29
-67.92
-70.8
-70.43
-65.85
-57.04
-44.9
-30.91
-16.61
-3.05
9.38
20.82
31.63
42.06
52.02
61.29
69.59
76.77
82.64
86.82
88.52
86.67
80.3
69.08
53.83
36.51
19.83
6.4
-2.23
-5.95
-6.1
-4.79
-4.19
-5.74
-9.92
-16.23
-23.41
-29.92
-34.2
-35.12
-32.15
-25.59
-16.35
-5.7
5.12
15.21
23.99
31.09
36.22
39.13
39.75
38.39
35.72
32.63
29.84
27.61
25.68
23.44
20.19
15.51
9.38
2.12
-5.69
-13.41
-20.42
-26.23
-30.5
-33.07
-33.93
-33.19
-30.95
-27.23
-21.87
-14.58
-5.06
6.84
20.93
36.69
53.27
69.62
84.69
97.57
107.6
114.52
118.39
119.44
117.96
114.17
108.23
100.47
91.56
82.46
74.21
67.45
62.11
57.43
52.29
45.81
37.62
27.91
17.16
5.76
-6.07
-18.13
-29.94
-40.56
-48.7
-53.11
-53.02
-48.46
-40.26
-29.8
-18.55
-7.65
2.26
11.04
18.87
25.89
32
36.74
39.49
39.76
37.45
32.94
26.96
20.33
13.67
7.19
0.73
-6.11
-13.71
-22.15
-31.04
-39.5
-46.38
-50.55
-51.37
-48.96
-44.29
-38.9
-34.45
-32.06
-31.89
-33.09
-34.11
-33.38
-29.83
-23.32
-14.57
-4.82
4.63
12.79
19.14
23.57
26.23
27.45
27.56
26.97
26.12
25.47
25.45
26.32
28.12
30.58
33.17
35.24
36.27
36.01
34.53
32.09
28.86
24.79
19.5
12.54
3.5
-7.87
-21.55
-37.43
-55.11
-73.73
-91.74
-107.03
-117.35
-121.03
-117.54
-107.67
-93.15
-76.07
-58.33
-41.48
-26.7
-15.04
-7.26
-3.63
-3.73
-6.49
-10.56
-14.76
-18.48
-21.64
-24.52
-27.34
-30.15
-32.69
-34.7
-36.03
-36.79
-37.4
-38.44
-40.5
-43.94
-48.73
-54.26
-59.39
-62.63
-62.54
-58.18
-49.48
-37.29
-23.14
-8.77
4.34
15.29
23.69
29.6
33.2
34.8
34.75
33.52
31.69
29.81
28.24
27.1
26.23
25.38
24.3
22.85
21.01
18.84
16.43
13.83
10.95
7.64
3.59
-1.46
-7.63
-14.69
-21.99
-28.39
-32.61
-33.54
-30.61
-24.06
-14.79
-4.1
6.79
16.99
26.1
34.11
41.14
47.28
52.56
57.03
60.79
63.93
66.41
68.03
68.46
67.36
64.57
60.15
54.32
47.39
39.65
31.33
22.67
13.9
5.18
-3.36
-11.57
-19.11
-25.39
-29.55
-30.78
-28.72
-23.8
-17.19
-10.44
-4.92
-1.29
0.56
1.34
1.81
2.35
2.79
2.53
0.96
-2.24
-6.86
-12.17
-17.2
-20.96
-22.76
-22.36
-20.06
-16.61
-13.04
-10.44
-9.65
-11.15
-15.02
-21.04
-28.79
-37.68
-46.85
-55.11
-60.93
-62.82
-59.77
-51.66
-39.45
-24.83
-9.66
4.58
17.18
28.05
37.47
45.8
53.37
60.63
68.09
76.3
85.43
95.07
104.24
111.74
116.69
118.88
118.73
116.94
114.07
110.31
105.62
99.91
93.38
86.42
79.46
72.73
66.14
59.47
52.55
45.49
38.77
33.06
28.92
26.57
25.69
25.45
24.83
22.95
19.44
14.56
9.1
3.93
-0.36
-3.67
-6.28
-8.58
-10.77
-12.73
-14.08
-14.52
-14.06
-13.11
-12.28
-12.15
-12.93
-14.45
-16.24
-17.85
-19.14
-20.33
-21.99
-24.74
-28.97
-34.65
-41.18
-47.47
-52.22
-54.19
-52.55
-47.24
-38.95
-29.1
-19.4
-11.39
-6.06
-3.65
-3.7
-5.35
-7.74
-10.27
-12.74
-15.28
-18.15
-21.61
-25.83
-30.96
-37.06
-44.16
-52.11
-60.45
-68.47
-75.29
-80.16
-82.71
-82.98
-81.37
-78.43
-74.75
-70.92
-67.43
-64.65
-62.51
-60.44
-57.42
-52.36
-44.64
-34.44
-22.79
-11.11
-0.62
8.08
15.09
20.85
25.72
29.73
32.59
33.99
33.84
32.43
30.27
27.84
25.47
23.22
20.92
18.36
15.41
12.08
8.55
5.11
2.06
-0.45
-2.54
-4.59
-7.16
-10.76
-15.54
-21.24
-27.16
-32.39
-36.07
-37.6
-36.68
-33.35
-27.89
-20.8
-12.75
-4.54
3.07
9.49
14.44
17.95
20.27
21.74
22.69
23.4
24.14
25.12
26.48
28.17
29.99
31.64
32.86
33.55
33.74
33.49
32.71
31.19
28.65
24.97
20.31
15.21
10.49
7.07
5.83
7.44
12.25
20.24
30.93
43.44
56.54
68.85
79.16
86.62
90.84
91.79
89.52
84.02
75.26
63.24
48.3
31.22
13.06
-5.05
-22.32
-38.42
-53.34
-67.13
-79.53
-90
-97.87
-102.76
-104.9
-105.14
-104.7
-104.7
-105.73
-107.64
-109.55
-110.24
-108.46
-103.38
-94.76
-83.02
-69.08
-54.12
-39.22
-25.16
-12.37
-1.03
8.67
16.37
21.51
23.59
22.51
18.82
13.67
8.52
4.65
2.79
2.98
4.73
7.29
10.03
12.56
14.68
16.34
17.44
17.85
17.42
16
13.48
9.82
4.97
-1
-7.81
-14.87
-21.19
-25.57
-26.91
-24.53
-18.44
-9.39
1.39
12.51
22.79
31.42
37.93
42.1
43.8
42.98
39.78
34.63
28.34
21.9
16.3
12.15
9.49
7.79
6.25
4.14
1.17
-2.46
-6.23
-9.65
-12.61
-15.45
-18.76
-23.14
-28.84
-35.7
-43.12
-50.17
-55.71
-58.45
-57.21
-51.06
-39.71
-23.69
-4.34
16.44
36.53
53.97
67.15
74.99
77.09
73.78
66.28
56.46
46.35
37.53
30.63
25.16
19.92
13.63
5.5
-4.44
-15.46
-26.49
-36.51
-44.88
-51.44
-56.52
-60.87
-65.45
-71.06
-77.95
-85.56
-92.43
-96.65
-96.42
-90.76
-79.87
-65.11
-48.55
-32.35
-18.13
-6.71
1.86
7.96
12.07
14.58
15.94
16.89
18.5
22.01
28.34
37.59
48.89
60.74
71.62
80.66
87.82
93.51
98.04
101.09
101.86
99.54
94
86.1
77.47
69.97
65.1
63.75
66.19
72.2
81.09
91.64
102.05
110.19
114.2
113.25
107.79
99.25
89.19
78.59
67.61
56.06
44.22
33.24
24.84
20.3
19.54
20.88
21.67
19.64
14.04
5.9
-2.57
-9.23
-13.05
-14.39
-14.56
-15.06
-16.86
-20.21
-24.71
-29.66
-34.27
-37.82
-39.7
-39.54
-37.4
-33.76
-29.53
-25.71
-23.07
-21.97
-22.37
-24.01
-26.7
-30.43
-35.26
-41.2
-47.92
-54.84
-61.3
-66.76
-71.05
-74.29
-76.67
-78.21
-78.66
-77.61
-74.9
-70.94
-66.86
-64.23
-64.56
-68.7
-76.42
-86.34
-96.35
-104.16
-107.94
-106.71
-100.5
-90.15
-76.96
-62.4
-47.91
-34.76
-23.96
-16.22
-11.78
-10.32
-10.95
-12.38
-13.19
-12.16
-8.59
-2.4
5.84
15.1
24.13
31.81
37.38
40.53
41.38
40.29
37.62
33.7
28.87
23.59
18.52
14.44
12.03
11.71
13.48
17.09
22.16
28.3
35.11
42.03
48.26
52.88
55.04
54.35
51.03
45.85
39.77
33.49
27.21
20.67
13.52
5.71
-2.27
-9.52
-15.17
-18.74
-20.46
-21.14
-21.86
-23.52
-26.57
-31.01
-36.5
-42.55
-48.56
-53.81
-57.43
-58.49
-56.29
-50.55
-41.44
-29.53
-15.42
0.33
17.27
34.79
52.04
67.91
81.47
92.31
100.78
107.75
114.05
119.82
124.22
125.58
122.07
112.42
96.58
75.74
52.07
28.08
6.02
-12.58
-27.15
-37.96
-45.92
-52.22
-57.91
-63.57
-69.17
-74.03
-77.17
-77.61
-74.84
-68.96
-60.65
-50.9
-40.58
-30.3
-20.35
-11
-2.62
4.23
9.11
12
13.62
15.32
18.7
24.96
34.37
46.02
58.02
68.09
74.26
75.41
71.51
63.59
53.23
42.12
31.5
21.93
13.3
5.09
-3.21
-11.79
-20.23
-27.58
-32.55
-34
-31.35
-24.91
-15.9
-6.15
2.3
7.74
9.1
6.12
-0.75
-10.47
-21.57
-32.44
-41.59
-47.98
-51.27
-51.9
-50.89
-49.45
-48.52
-48.49
-49.23
-50.28
-51.06
-51.12
-50.2
-48.23
-45.39
-42.03
-38.6
-35.49
-32.78
-30.08
-26.57
-21.15
-12.81
-1
14.1
31.59
50.04
67.83
83.56
96.44
106.39
113.98
120.03
125.22
129.85
133.8
136.8
138.62
139.26
138.93
137.84
136.1
133.68
130.57
126.87
122.82
118.69
114.56
110.12
104.67
97.31
87.23
74.03
58
40.22
22.26
5.91
-7.45
-17.2
-23.71
-28.07
-31.72
-35.87
-41.23
-47.9
-55.59
-63.77
-71.9
-79.54
-86.31
-92.01
-96.61
-100.28
-103.34
-106.12
-108.86
-111.58
-114.11
-116.1
-117.12
-116.69
-114.47
-110.44
-104.96
-98.83
-93.08
-88.7
-86.19
-85.4
-85.44
-84.9
-82.32
-76.66
-67.66
-55.88
-42.53
-29.03
-16.59
-5.96
2.59
9.08
13.57
16.08
16.64
15.46
13.06
10.2
7.58
5.6
4.16
2.76
0.84
-1.95
-5.53
-9.5
-13.37
-16.83
-19.95
-23.09
-26.67
-30.99
-36.05
-41.52
-46.74
-50.79
-52.63
-51.29
-46.16
-37.14
-24.76
-10.02
5.83
21.59
36.28
49.22
59.97
68.3
74.18
77.76
79.41
79.59
78.74
77.11
74.73
71.5
67.25
61.89
55.46
48.15
40.21
31.89
23.4
14.78
5.96
-3.25
-13.06
-23.57
-34.63
-45.6
-55.33
-62.32
-65.11
-62.7
-54.97
-42.75
-27.61
-11.41
4.23
18.18
29.8
38.85
45.27
49.12
50.63
50.29
48.81
47
45.5
44.66
44.43
44.46
44.19
43.06
40.61
36.62
31.19
24.69
17.68
10.74
4.3
-1.48
-6.73
-11.66
-16.3
-20.33
-22.96
-23.14
-19.95
-12.86
-2
12
28.23
45.76
63.69
81.02
96.57
108.98
117.1
120.36
119.13
114.6
108.33
101.7
95.52
89.96
84.8
79.71
74.3
68.17
60.81
51.62
40.19
26.51
11
-5.65
-22.9
-40.54
-58.65
-77.14
-95.23
-111.12
-122.32
-126.42
-122.19
-110.3
-93.35
-75.08
-59.17
-48.01
-42.12
-40.35
-40.67
-41.13
-40.5
-38.45
-35.29
-31.54
-27.57
-23.56
-19.64
-16
-13.08
-11.39
-11.41
-13.35
-17.13
-22.39
-28.79
-36.18
-44.71
-54.65
-66.02
-78.09
-89.16
-96.85
-98.75
-93.39
-80.87
-62.91
-42.25
-21.66
-3.06
12.77
25.92
36.78
45.44
51.57
54.63
54.31
50.86
45.18
38.48
31.91
26.17
21.45
17.48
13.77
9.98
5.92
1.53
-3.29
-8.67
-14.69
-21.19
-27.49
-32.47
-34.86
-33.71
-28.86
-21.11
-11.93
-2.97
4.46
9.77
13
14.59
15.03
14.65
13.58
11.82
9.41
6.38
2.89
-0.88
-4.62
-7.98
-10.52
-11.85
-11.82
-10.55
-8.46
-6.15
-4.22
-3.16
-3.21
-4.31
-6.1
-7.92
-8.92
-8.31
-5.61
-0.9
5.19
11.64
17.45
21.96
24.96
26.64
27.4
27.6
27.51
27.3
27.11
27.06
27.19
27.4
27.43
26.94
25.7
23.7
21.22
18.74
16.82
15.85
15.91
16.66
17.37
17.09
14.91
10.27
3.24
-5.47
-14.62
-22.85
-28.98
-32.38
-33.02
-31.36
-28.1
-23.9
-19.3
-14.72
-10.57
-7.28
-5.22
-4.54
-5.04
-6.17
-7.27
-7.84
-7.79
-7.41
-7.2
-7.52
-8.43
-9.66
-10.8
-11.65
-12.33
-13.27
-15.07
-18.22
-22.86
-28.63
-34.66
-39.66
-42.25
-41.38
-36.65
-28.53
-18.22
-7.27
2.88
11.31
17.65
21.91
24.3
24.97
24.05
21.72
18.35
14.48
10.71
7.52
5.15
3.57
2.55
1.81
1.07
0.19
-0.91
-2.28
-4.04
-6.45
-9.81
-14.32
-19.78
-25.46
-30.15
-32.48
-31.41
-26.62
-18.69
-8.93
1.06
9.85
16.56
20.91
23.1
23.55
22.73
21.02
18.73
16.08
13.27
10.4
7.55
4.72
1.87
-0.99
-3.87
-6.67
-9.32
-11.83
-14.36
-17.22
-20.77
-25.29
-30.72
-36.54
-41.74
-45.09
-45.48
-42.33
-35.8
-26.85
-16.81
-7.08
1.28
7.77
12.33
15.18
16.56
16.67
15.62
13.53
10.58
7
3.07
-0.86
-4.48
-7.39
-9.24
-9.76
-8.92
-6.93
-4.29
-1.67
0.28
1.04
0.36
-1.61
-4.27
-6.54
-7.03
-4.41
2.1
12.35
25.2
38.81
51.23
60.98
67.38
70.51
70.96
69.35
66.11
61.41
55.31
47.98
39.77
31.33
23.38
16.56
11.22
7.3
4.42
2.01
-0.38
-3.05
-6.06
-9.47
-13.41
-18.1
-23.75
-30.24
-36.89
-42.44
-45.39
-44.52
-39.4
-30.65
-19.73
-8.45
1.74
10.09
16.62
21.75
25.94
29.29
31.63
32.79
32.84
32.21
31.48
31.08
31.03
30.94
30.22
28.36
25.16
20.82
15.75
10.41
5.1
-0.14
-5.55
-11.49
-18.24
-25.69
-33.18
-39.57
-43.46
-43.77
-40.16
-33.26
-24.5
-15.63
-8.15
-2.93
-0.09
0.79
0.35
-0.84
-2.4
-4.31
-6.81
-10.34
-15.43
-22.47
-31.47
-42.01
-53.21
-63.84
-72.63
-78.56
-81.1
-80.39
-77.27
-73.1
-69.38
-67.3
-67.12
-68.09
-68.6
-66.79
-61.35
-51.97
-39.5
-25.5
-11.65
0.76
11.05
18.98
24.53
27.7
28.61
27.57
25.23
22.45
19.97
18.1
16.63
15.02
12.7
9.41
5.35
1.04
-2.91
-6.11
