26.93
24.43
21.74
19.27
17.41
16.48
16.56
17.51
19
20.65
22.12
23.16
23.63
23.39
22.28
20.15
16.89
12.54
7.44
2.22
-2.3
-5.32
-6.29
-5.1
-2.09
2.04
6.48
10.53
13.86
16.45
18.48
20.11
21.39
22.23
22.51
22.24
21.58
20.77
19.98
19.26
18.48
17.46
16.11
14.51
12.9
11.56
10.7
10.37
10.39
10.45
10.21
9.4
7.92
5.85
3.45
1.07
-0.91
-2.15
-2.46
-1.81
-0.36
1.61
3.73
5.72
7.4
8.74
9.79
10.64
11.35
11.92
12.34
12.65
12.97
13.46
14.27
15.47
17.02
18.74
20.43
21.9
23.07
23.94
24.64
25.33
26.09
26.9
27.56
27.86
27.64
27.08
26.66
27.11
29.07
32.9
38.44
45.15
52.31
59.21
65.28
70.03
72.94
73.64
72.12
69.04
65.74
63.78
64.31
67.35
71.72
75.41
76.5
73.94
67.99
59.84
50.92
42.15
33.55
24.37
13.39
-0.59
-18.43
-40.29
-65.55
-92.71
-119.51
-143.35
-161.79
-173.06
-176.48
-172.54
-162.76
-149.25
-134.35
-120.1
-107.92
-98.47
-91.63
-86.72
-82.87
-79.38
-75.93
-72.68
-69.98
-68.24
-67.59
-67.69
-67.7
-66.47
-62.82
-55.98
-45.85
-33.22
-19.63
-6.96
3.07
9.44
12.12
12
10.6
9.48
9.77
11.9
15.66
20.48
25.7
30.83
35.57
39.77
43.34
46.24
48.43
49.93
50.8
51.13
51.02
50.62
50.18
49.96
50.24
51.2
52.79
54.73
56.5
57.54
57.36
55.69
52.55
48.18
43.08
37.97
33.78
31.51
31.98
35.35
40.93
47.18
52.14
54.06
51.9
45.53
35.63
23.19
9.22
-5.46
-20.15
-34.13
-46.59
-56.69
-63.81
-67.71
-68.53
-66.75
-63.07
-58.26
-53.02
-47.95
-43.45
-39.73
-36.76
-34.48
-32.83
-31.94
-32.09
-33.59
-36.56
-40.71
-45.38
-49.66
-52.78
-54.34
-54.44
-53.57
-52.29
-50.94
-49.5
-47.71
-45.29
-42.17
-38.68
-35.38
-32.94
-31.73
-31.79
-32.71
-33.93
-34.89
-35.22
-34.7
-33.2
-30.55
-26.61
-21.35
-14.99
-8.02
-0.94
5.89
12.61
19.78
28.12
38
49.11
60.34
70.08
76.82
79.69
78.73
74.79
69.08
62.75
56.58
50.95
45.97
41.7
38.22
35.62
33.83
32.65
31.72
30.72
29.4
27.66
25.46
22.76
19.46
15.52
11.07
6.53
2.64
0.3
0.28
2.86
7.68
13.64
19.29
23.16
24.17
22.02
17.14
10.61
3.78
-2.11
-6.34
-8.78
-9.85
-10.15
-10.23
-10.4
-10.77
-11.4
-12.46
-14.22
-16.9
-20.5
-24.72
-29.03
-32.98
-36.31
-38.97
-40.97
-42.18
-42.29
-40.99
-38.29
-34.76
-31.46
-29.53
-29.68
-31.85
-35.11
-37.98
-38.87
-36.56
-30.35
-20.07
-6
11.22
30.58
50.66
69.71
85.86
97.46
103.5
103.86
99.41
91.74
82.79
74.29
67.43
62.74
60.06
58.85
58.26
57.35
55.23
51.29
45.48
38.43
31.29
25.27
21.04
18.25
15.65
11.56
4.74
-5.03
-16.69
-28.27
-37.63
-43.13
-44.13
-41.07
-35.31
-28.69
-23.04
-19.7
-19.22
-21.28
-25.02
-29.36
-33.48
-36.87
-39.34
-40.71
-40.69
-39
-35.55
-30.65
-25.07
-19.74
-15.39
-12.28
-10.13
-8.42
-6.63
-4.6
-2.6
-1.14
-0.72
-1.58
-3.54
-6.16
-8.87
-11.21
-12.92
-13.9
-14.07
-13.36
-11.67
-8.96
-5.31
-1.01
3.59
8.11
12.21
15.59
17.93
18.91
18.32
16.19
12.87
9
5.26
2.17
-0.07
-1.61
-2.69
-3.45
-3.92
-3.99
-3.65
-3.1
-2.71
-2.88
-3.82
-5.54
-7.89
-10.69
-13.73
-16.84
-19.74
-21.98
-23.1
-22.76
-20.89
-17.75
-13.77
-9.43
-5.1
-1.04
2.6
5.63
7.92
9.43
10.22
10.55
10.68
10.82
10.92
10.76
10.02
8.47
6.1
3.17
0.01
-3.06
-5.93
-8.65
-11.43
-14.46
-17.86
-21.66
-25.8
-30.05
-34.02
-37.23
-39.12
-39.27
-37.59
-34.33
-29.96
-24.98
-19.72
-14.35
-8.93
-3.56
1.54
6.01
9.57
12.08
13.6
14.37
14.66
14.68
14.5
14.14
13.57
12.78
11.76
10.5
9.04
7.41
5.66
3.78
1.67
-0.89
-4.08
-7.92
-12.09
-16
-18.87
-20.07
-19.32
-16.79
-13.01
-8.61
-4.09
0.31
4.55
8.62
12.4
15.65
18.11
19.64
20.39
20.69
20.88
21.14
21.37
21.3
20.71
19.58
18.18
16.93
16.15
15.9
15.91
15.73
14.93
13.26
10.81
7.9
5.08
2.93
2
2.62
4.89
8.62
13.5
19.19
25.48
32.28
39.51
46.96
54.14
60.37
65.1
68.12
69.64
70.17
70.1
69.41
67.74
64.62
59.81
53.61
46.65
39.68
33.27
27.76
23.39
20.34
18.58
17.31
14.71
8.24
-4.38
-23.85
-48.49
-74.39
-96.77
-111.73
-117.69
-115.68
-108.59
-99.71
-91.51
-85.15
-80.6
-77.23
-74.15
-70.35
-64.51
-55.01
-40.11
-18.41
10.48
45.44
83.67
121.06
153.16
176.26
188.37
189.59
181.87
168.06
150.92
132.38
113.26
93.61
73.24
52.06
30.26
8.2
-13.72
-35.12
-55.62
-74.75
-92.03
-106.88
-118.67
-126.72
-130.3
-128.82
-122.11
-110.69
-95.79
-79.09
-62.18
-46.09
-31.11
-17.01
-3.49
9.39
21.1
30.83
37.88
41.87
42.77
40.57
35.18
26.39
14.16
-0.92
-17.38
-32.97
-45.23
-52.24
-53.19
-48.73
-40.67
-31.52
-23.72
-19.04
-18.29
-21.19
-26.58
-32.66
-37.47
-39.26
-37.06
-30.95
-22.15
-12.73
-4.93
-0.38
0.34
-2.13
-6.39
-10.93
-14.7
-17.32
-18.93
-19.8
-20.05
-19.64
-18.55
-16.96
-15.35
-14.22
-13.93
-14.51
-15.67
-17.03
-18.3
-19.36
-20.2
-20.75
-20.86
-20.39
-19.36
-18.02
-16.87
-16.35
-16.61
-17.4
-18.14
-18.18
-17.12
-15.04
-12.39
-9.85
-7.98
-7.05
-6.96
-7.45
-8.24
-9.29
-10.77
-12.89
-15.69
-18.73
-21.18
-22.07
-20.66
-16.85
-11.13
-4.41
2.45
8.92
14.87
20.39
25.4
29.51
32.11
32.61
30.81
27.08
22.22
17.19
12.81
9.45
7.03
5.04
2.76
-0.49
-5.08
-10.98
-17.8
-24.98
-31.99
-38.47
-44.09
-48.52
-51.24
-51.78
-49.96
-46.11
-40.95
-35.34
-29.88
-24.76
-19.9
-15.25
-11.04
-7.73
-5.73
-5.07
-5.35
-5.91
-6.19
-6.07
-5.82
-5.84
-6.41
-7.43
-8.44
-8.89
-8.38
-6.91
-4.91
-3.05
-1.88
-1.52
-1.53
-1.05
0.95
5.22
12.06
21.21
32.02
43.56
54.87
65.09
73.56
79.89
83.94
85.81
85.67
83.77
80.32
75.59
69.96
63.93
58.02
52.67
48.08
44.25
40.95
37.9
34.88
31.76
28.49
25
21.22
17.1
12.75
8.53
5.05
3.02
2.92
4.74
7.96
11.73
15.24
18.08
20.28
22.14
23.89
25.37
26.08
25.45
23.16
19.35
14.63
9.78
5.45
2.02
-0.47
-2.2
-3.45
-4.51
-5.7
-7.24
-9.27
-11.8
-14.66
-17.64
-20.57
-23.3
-25.73
-27.65
-28.73
-28.65
-27.18
-24.34
-20.4
-15.77
-10.86
-5.91
-1.1
3.4
7.31
10.32
12.22
13.08
13.26
13.26
13.5
14.11
14.89
15.38
15.06
13.58
10.92
7.45
3.89
1.07
-0.36
-0.26
0.84
1.91
1.76
-0.34
-4.32
-9.23
-13.58
-15.96
-15.49
-12.11
-6.43
0.59
7.88
14.57
20.04
23.95
26.24
27.11
26.94
26.15
25.05
23.77
22.27
20.42
18.17
15.53
12.64
9.67
6.88
4.54
2.87
2.02
1.84
1.84
1.26
-0.71
-4.61
-10.38
-17.29
-24.06
-29.22
-31.62
-30.75
-26.95
-21.15
-14.46
-7.78
-1.54
4.11
9.05
12.96
15.4
16.05
15.01
12.97
10.89
9.61
9.41
9.94
10.42
10.06
8.44
5.48
1.44
-3.31
-8.36
-13.31
-17.77
-21.45
-24.31
-26.61
-28.91
-31.69
-35.13
-38.84
-41.99
-43.64
-43.06
-40.04
-34.85
-28.04
-20.2
-11.84
-3.36
4.77
12.03
17.82
21.66
23.43
23.44
22.39
21.11
20.27
20.1
20.36
20.52
20
18.53
16.24
13.63
11.25
9.45
8.23
7.19
5.76
3.42
-0.09
-4.66
-9.78
-14.69
-18.49
-20.43
-20.11
-17.52
-13.11
-7.54
-1.57
4.19
9.29
13.45
16.52
18.43
19.29
19.35
18.93
18.39
17.94
17.63
17.34
16.89
16.1
14.9
13.34
11.62
10.01
8.76
7.92
7.33
6.55
5.03
2.39
-1.51
-6.37
-11.51
-16.09
-19.29
-20.59
-19.84
-17.31
-13.56
-9.25
-4.96
-1.11
2.06
4.42
5.92
6.56
6.48
5.98
5.45
5.29
5.77
6.85
8.24
9.51
10.2
10.03
8.91
7
4.61
2.16
-0.08
-1.92
-3.47
-5.04
-7
-9.57
-12.67
-15.83
-18.25
-19.17
-18.07
-14.92
-10.2
-4.71
0.76
5.67
9.78
13.17
15.97
18.23
19.84
20.69
20.77
20.27
19.49
18.74
18.16
17.66
17.03
16.04
14.58
12.69
10.56
8.34
6.06
3.61
0.76
-2.73
-6.99
-11.94
-17.25
-22.35
-26.51
-29.1
-29.75
-28.5
-25.74
-22.06
-18.05
-14.1
-10.38
-6.98
-4.05
-1.83
-0.56
-0.35
-1
-2.11
-3.24
-4.2
-5.22
-6.81
-9.5
-13.54
-18.74
-24.44
-29.8
-34.02
-36.56
-37.2
-35.91
-32.84
-28.24
-22.45
-15.82
-8.65
-1.08
6.95
15.58
24.83
34.53
44.24
53.53
62.14
70.19
78
85.78
93.46
100.5
106.25
110.22
112.45
113.49
114.15
115.19
117.1
119.92
123.4
126.85
129.24
129.18
125.19
116.2
102.07
83.8
63.32
42.76
23.7
6.68
-8.68
-23.07
-36.85
-49.64
-60.4
-67.94
-71.52
-71.16
-67.72
-62.53
-57.04
-52.45
-49.53
-48.56
-49.4
-51.56
-54.41
-57.2
-59.25
-60.08
-59.48
-57.57
-54.81
-51.69
-48.62
-45.67
-42.62
-39.1
-34.86
-29.95
-24.67
-19.48
-14.87
-11.28
-9.11
-8.68
-10.1
-13.03
-16.64
-19.81
-21.51
-21.31
-19.53
-17.1
-15.13
-14.35
-14.95
-16.63
-18.88
-21.24
-23.41
-25.19
-26.47
-27.23
-27.65
-28.08
-28.97
-30.6
-32.89
-35.35
-37.35
-38.47
-38.83
-39.06
-39.99
-42.18
-45.5
-49.14
-51.95
-52.94
-51.67
-48.41
-43.84
-38.8
-33.91
-29.49
-25.55
-21.89
-18.16
-13.97
-8.99
-3.06
3.66
10.63
16.99
21.81
24.36
24.33
21.86
17.36
11.31
4.03
-4.26
-13.35
-22.72
-31.58
-38.87
-43.69
-45.66
-45.05
-42.79
-39.91
-37.19
-34.87
-32.71
-30.25
-27.28
-23.89
-20.42
-17.15
-14.12
-11.15
-7.97
-4.6
-1.31
1.42
3.19
3.86
3.51
2.3
0.3
-2.52
-6.21
-10.66
-15.57
-20.59
-25.48
-30.26
-35.12
-40.21
-45.52
-50.8
-55.66
-59.66
-62.51
-63.99
-63.98
-62.44
-59.42
-55.04
-49.47
-42.86
-35.29
-26.8
-17.4
-7.19
3.62
14.69
25.69
36.37
46.58
56.21
65.13
73.11
79.88
85.12
88.5
89.6
87.95
83.15
75.15
64.4
51.97
39.28
27.66
17.99
10.51
4.92
0.75
-2.33
-4.41
-5.44
-5.47
-4.71
-3.47
-2
-0.25
2.08
5.39
9.86
15.28
20.93
25.74
28.66
29.01
26.79
22.66
17.66
12.83
8.85
5.78
3.21
0.54
-2.73
-6.82
-11.64
-16.95
-22.54
-28.36
-34.54
-41.29
-48.73
-56.71
-64.72
-71.99
-77.64
-80.88
-81.26
-78.78
-73.83
-67.03
-59
-50.06
-40.18
-29.14
-16.73
-3.19
10.7
23.74
34.72
42.86
48.08
50.91
52.09
52.1
50.91
48.06
43.09
35.97
27.32
18.21
9.79
2.85
-2.34
-6.04
-8.64
-10.47
-11.71
-12.42
-12.77
-13.04
-13.61
-14.77
-16.59
-18.81
-20.89
-22.23
-22.24
-20.62
-17.32
-12.58
-6.75
-0.24
6.63
13.63
20.58
27.3
33.49
38.85
43.1
46.14
48.08
49.16
49.61
49.57
49.09
48.13
46.79
45.29
43.92
42.95
42.38
42.01
41.4
40.19
38.07
34.91
30.69
25.47
19.52
13.35
7.78
3.77
2.09
3.03
6.24
10.85
15.89
20.57
24.52
27.75
30.35
32.36
33.6
33.91
33.22
31.85
30.31
29.17
28.78
29.04
29.47
29.41
28.36
26.15
23.04
19.49
15.95
12.65
9.53
6.33
2.82
-1.12
-5.48
-10.18
-15.17
-20.46
-26
-31.58
-36.71
-40.65
-42.65
-42.17
-39.12
-33.91
-27.27
-19.99
-12.75
-5.92
0.32
5.88
10.57
14.21
16.66
17.94
18.37
18.42
18.58
19.16
20.21
21.5
22.68
23.42
23.56
23.07
22.08
20.72
19
16.9
14.36
11.34
7.92
4.22
0.29
-3.9
-8.51
-13.61
-19.09
-24.51
-29.12
-32.03
-32.54
-30.32
-25.6
-19.09
-11.69
-4.31
2.5
8.55
13.95
18.97
23.8
28.44
32.65
36.1
38.43
39.36
38.79
36.72
33.27
28.67
23.27
17.55
12.09
7.55
4.46
3.07
3.18
4.1
4.85
4.52
2.58
-0.81
-5
-9.25
-13.11
-16.71
-20.53
-24.98
-29.98
-34.76
-38.25
-39.57
-38.56
-35.8
-32.23
-28.59
-25
-20.94
-15.62
-8.57
0.02
9.29
18
25.04
29.77
32.23
32.87
32.25
30.78
28.58
25.59
21.75
17.18
12.27
7.62
3.85
1.42
0.59
1.33
3.43
6.6
10.47
14.57
18.29
20.82
21.32
19.2
14.42
7.68
0.21
-6.61
-11.84
-15.27
-17.42
-19.09
-20.88
-22.84
-24.5
-25.17
-24.38
-22.13
-18.84
-15.14
-11.55
-8.35
-5.61
-3.31
-1.57
-0.72
-1.26
-3.61
-7.89
-13.68
-20.04
-25.69
-29.44
-30.55
-29.03
-25.54
-21.19
-17.01
-13.57
-10.8
-8.07
-4.56
0.43
7.24
15.79
25.68
36.26
46.63
55.67
62.19
65.24
64.35
59.78
52.47
43.71
34.8
26.66
19.86
14.65
11.25
9.83
10.41
12.54
15.12
16.62
15.5
10.8
2.64
-7.8
-18.76
-28.56
-36.11
-41.19
-44.15
-45.51
-45.73
-45.05
-43.73
-42.09
-40.42
-38.65
-36.17
-31.76
-24.04
-12.1
3.97
22.92
42.7
61.02
75.93
86.07
90.68
89.41
82.45
70.58
55.31
38.73
22.96
9.5
-1.18
-9.66
-16.99
-24.13
-31.44
-38.72
-45.54
-51.63
-57.08
-62.21
-67.27
-72.26
-76.75
-80.11
-81.7
-81.18
-78.6
-74.43
-69.4
-64.23
-59.44
-55.28
-51.77
-48.85
-46.39
-44.33
-42.5
-40.67
-38.52
-35.67
-31.91
-27.22
-21.89
-16.45
-11.58
-7.97
-6.06
-5.98
-7.4
-9.58
-11.68
-12.97
-13.1
-12.09
-10.22
-7.73
-4.72
-1.11
3.2
8.1
13.24
18.05
22.04
24.99
27.09
28.73
30.3
31.91
33.37
34.23
34.12
32.89
30.79
28.26
25.81
23.78
22.2
20.91
19.68
18.25
16.57
14.63
12.51
10.25
7.84
5.28
2.6
-0.06
-2.45
-4.22
-5.02
-4.57
-2.77
0.29
4.29
8.78
13.27
17.38
20.95
23.98
26.62
29.03
31.25
33.25
34.87
35.94
36.32
36.04
35.27
34.36
33.69
33.54
33.82
34.1
33.72
32.11
29.06
24.86
20.04
15.13
10.31
5.51
0.59
-4.22
-8.25
-10.6
-10.53
-7.86
-3.09
2.92
9.38
15.8
22.02
27.79
32.5
35.14
34.75
30.95
24.36
16.47
9.11
3.59
0.14
-2.1
-4.62
-8.63
-14.54
-21.74
-29.01
-35.19
-39.71
-42.75
-44.99
-47.05
-49.13
-50.8
-51.2
-49.38
-44.74
-37.26
-27.51
-16.58
-5.71
3.92
11.51
16.79
20
21.72
22.67
23.48
24.5
25.86
27.32
28.41
28.5
26.97
23.47
18.1
11.53
4.79
-0.96
-4.85
-6.61
-6.69
-6.05
-5.91
-7.31
-10.73
-16.01
-22.27
-28.23
-32.55
-34.14
-32.53
-27.93
-21.23
-13.78
-7.07
-2.37
-0.44
-1.33
-4.39
-8.54
-12.61
-15.75
-17.63
-18.52
-19.1
-20.21
-22.5
-26.11
-30.63
-35.27
-39.14
-41.79
-43.33
-44.5
-46.38
-49.94
-55.68
-63.52
-72.73
-82.03
-89.74
-93.99
-93.27
-86.89
-75.46
-60.7
-44.95
-30.17
-17.27
-6.05
4.25
14.06
22.85
29.18
31.42
28.71
21.5
11.48
0.9
-8.21
-14.61
-17.91
-18.38
-16.48
-12.58
-7
-0.13
7.41
14.74
20.91
25.18
27.33
27.77
27.45
27.49
28.71
31.32
34.8
38.22
40.67
41.77
41.76
41.39
41.52
42.78
45.4
49.21
53.83
58.78
63.49
67.28
69.42
69.36
66.92
62.43
56.6
50.22
43.81
37.49
31.08
24.4
17.48
10.7
4.49
-0.98
-5.96
-11.15
-17.3
-24.73
-32.95
-40.71
-46.37
-48.48
-46.4
-40.49
-32.03
-22.71
-14.03
-6.98
-1.84
1.62
3.93
5.71
7.62
10.21
13.87
18.55
23.79
28.67
32.19
33.77
33.51
32.3
31.35
31.6
33.05
34.71
34.92
32.08
25.38
14.93
1.63
-13.29
-28.68
-43.51
-56.69
-67
-73.19
-74.39
-70.6
-62.91
-53.22
-43.65
-35.85
-30.52
-27.51
-26.1
-25.52
-25.34
-25.53
-26.38
-28.15
-30.95
-34.65
-38.96
-43.53
-47.98
-51.88
-54.64
-55.64
-54.38
-50.8
-45.5
-39.65
-34.59
-31.17
-29.35
-28.01
-25.46
-20.28
-11.9
-0.86
11.52
23.92
35.53
46.33
56.7
66.93
76.79
85.49
92.03
95.73
96.49
94.78
91.31
86.7
81.27
75.16
68.57
61.9
55.79
50.85
47.38
45.12
43.4
41.4
38.51
34.5
29.58
24.07
18.23
12.12
5.69
-0.99
-7.55
-13.35
-17.66
-19.91
-19.9
-17.81
-14.14
-9.54
-4.64
0.03
4.04
7.14
9.27
10.57
11.38
12.16
13.4
15.49
18.64
22.75
27.22
30.93
32.36
30.03
23.13
12.05
-1.59
-15.3
-26.53
-33.41
-35.18
-32.1
-25.1
-15.28
-3.76
8.32
19.57
28.42
33.39
33.46
28.51
19.45
8.02
-3.6
-13.42
-20.04
-22.93
-22.48
-19.73
-16.06
-12.71
-10.6
-10.11
-11.23
-13.72
-17.31
-21.8
-27.02
-32.75
-38.7
-44.52
-49.97
-55.06
-60.07
-65.46
-71.5
-77.92
-83.86
-87.95
-88.95
-86.32
-80.55
-73.01
-65.14
-57.58
-49.63
-39.57
-25.5
-6.56
16.41
41.2
64.95
85.36
101.09
111.67
116.91
116.59
110.63
99.56
84.85
68.72
53.39
40.22
29.43
20.33
12.09
4.39
-2.5
-8.02
-11.93
-14.48
-16.3
-17.95
-19.62
-21.19
-22.46
-23.53
-24.67
-26.22
-28.14
-29.96
-30.92
-30.35
-28.04
-24.43
-20.52
-17.54
-16.6
-18.41
-23.02
-29.71
-37.1
-43.32
-46.5
-45.21
-38.83
-27.79
-13.43
2.26
16.99
28.68
35.73
37.28
33.25
24.4
12.24
-1.08
-13.16
-21.94
-26.2
-26.1
-23.08
-19.44
-17.39
-18.29
-22.2
-28
-34.01
-38.69
-41.17
-41.33
-39.75
-37.36
-35.2
-34.23
-34.96
-37.08
-39.17
-38.88
-33.56
-21.37
-2.29
21.52
46.27
67.91
83.48
92.02
94.53
93.17
90.32
87.88
87.06
88.37
91.63
95.91
99.59
100.63
97.3
88.74
75.34
58.57
40.46
23.08
8.09
-3.43
-10.96
-14.64
-15.31
-14.36
-13.42
-13.87
-16.33
-20.55
-25.68
-30.77
-35.25
-39.14
-42.72
-46.2
-49.28
-51.17
-50.94
-48.03
-42.62
-35.6
-28.22
-21.54
-16.16
-12.21
-9.63
-8.43
-8.86
-11.19
-15.52
-21.59
-28.79
-36.32
-43.51
-49.88
-55.26
-59.6
-62.93
-65.28
-66.71
-67.38
-67.63
-67.95
-68.77
-70.21
-71.83
-72.58
-71.15
-66.49
-58.27
-47.1
-34.35
-21.69
-10.56
-1.83
4.25
7.94
9.82
10.64
11.18
12.22
14.31
17.67
22.12
27.13
32.04
36.23
39.25
40.95
41.36
40.71
39.23
36.99
33.9
29.78
24.55
18.51
12.41
7.37
4.54
4.69
7.85
13.32
19.86
26.13
31.08
34.24
35.62
35.6
34.64
33.18
31.5
29.81
28.25
26.97
26.02
25.34
24.75
23.96
22.74
20.96
18.68
16
12.98
9.5
5.26
0.03
-6.23
-13.08
-19.65
-24.8
-27.56
-27.41
-24.52
-19.61
-13.72
-7.84
-2.68
1.45
4.52
6.65
8
8.65
8.67
8.12
7.09
5.75
4.36
3.19
2.49
2.33
2.6
3.01
3.22
2.94
2.05
0.5
-1.73
-4.65
-8.21
-12.13
-15.84
-18.52
-19.37
-17.89
-14.08
-8.53
-2.12
4.27
10
14.8
18.65
21.69
23.98
25.55
26.4
26.56
26.12
25.25
24.11
22.8
21.36
19.74
17.85
15.64
13.13
10.44
7.7
4.99
2.27
-0.63
-3.93
-7.72
-11.74
-15.42
-17.94
-18.57
-16.91
-13.11
-7.78
-1.75
4.22
9.63
14.26
18.12
21.23
23.6
25.2
26.05
26.21
25.78
24.8
23.27
21.11
18.28
14.85
10.99
6.92
2.97
-0.65
-3.82
-6.55
-9.06
-11.72
-14.93
-18.9
-23.53
-28.27
-32.21
-34.34
-33.93
-30.75
-25.2
-18.12
-10.53
-3.32
2.92
7.93
11.71
14.38
16.13
17.22
17.9
18.38
18.69
18.64
17.83
15.86
12.56
8.18
3.38
-1.06
-4.56
-6.95
-8.49
-9.77
-11.43
-13.89
-17.26
-21.23
-25.15
-28.2
-29.56
-28.7
-25.58
-20.64
-14.72
-8.72
-3.33
1.13
4.64
7.35
9.38
10.75
11.51
11.78
11.85
12.02
12.46
13.11
13.69
13.83
13.3
12.12
10.58
9.04
7.76
6.78
5.86
4.65
2.73
-0.19
-4.19
-9.07
-14.31
-19.11
-22.62
-24.12
-23.31
-20.36
-15.87
-10.58
-5.15
0.01
4.64
8.6
11.7
13.82
14.97
15.42
15.68
16.27
17.48
19.22
20.99
22.13
22.1
20.73
18.23
15.13
11.99
9.21
6.88
4.81
2.57
-0.16
-3.5
-7.16
-10.5
-12.68
-12.97
-10.99
-6.84
-1.11
5.43
11.98
17.99
23.07
26.97
29.52
30.63
30.37
29.1
27.43
25.98
25.19
25.12
25.48
25.86
25.94
25.57
24.73
23.44
21.64
19.23
16.19
12.6
8.55
4.07
-0.89
-6.33
-11.99
-17.16
-20.85
-22.1
-20.47
-16.27
-10.51
-4.43
1
5.34
8.68
11.34
13.51
15
15.37
14.19
11.31
7.02
1.93
-3.28
-8.1
-12.35
-16.09
-19.42
-22.31
-24.64
-26.27
-27.24
-27.88
-28.69
-30.13
-32.51
-35.79
-39.62
-43.36
-46.26
-47.52
-46.57
-43.2
-37.7
-30.78
-23.42
-16.51
-10.62
-5.89
-2.16
0.82
3.23
5.07
6.29
6.89
6.95
6.64
6.13
5.52
4.85
4.15
3.49
2.92
2.46
1.95
1.14
-0.34
-2.77
-6.26
-10.66
-15.61
-20.6
-25.03
-28.32
-30
-29.8
-27.79
-24.29
-19.85
-14.97
-10
-5.08
-0.35
3.98
7.45
9.48
9.7
8.22
5.73
3.21
1.57
1.17
1.74
2.55
2.86
2.19
0.58
-1.6
-3.85
-5.75
-7.02
-7.55
-7.28
-6.21
-4.41
-1.91
1.29
5.31
10.41
16.8
24.34
32.16
38.71
42.08
40.76
34.42
24.34
13.08
3.6
-1.84
-2.44
1.04
6.86
13.14
18.53
22.41
24.71
25.5
24.8
22.54
18.7
13.44
7.1
0.14
-6.97
-13.88
-20.24
-25.66
-29.67
-31.75
-31.47
-28.73
-23.84
-17.52
-10.73
-4.34
1.06
5.27
8.31
10.33
11.44
11.74
11.45
10.84
10.3
10.04
10.08
10.19
10.09
9.56
8.5
6.98
5.01
2.55
-0.42
-3.92
-7.84
-12.05
-16.41
-20.81
-24.91
-28.17
-29.72
-28.74
-24.75
-17.98
-9.4
-0.43
7.59
13.73
17.68
19.59
19.89
18.91
16.92
14.04
10.49
6.67
3.15
0.45
-1.1
-1.71
-1.98
-2.73
-4.52
-7.32
-10.44
-12.99
-14.37
-14.66
-14.68
-15.44
-17.48
-20.54
-23.63
-25.52
-25.44
-23.34
-19.89
-16.02
-12.43
-9.38
-6.75
-4.24
-1.68
0.94
3.54
6.08
8.6
11.29
14.39
18.09
22.49
27.49
32.7
37.46
40.92
42.28
41.04
37.14
31.06
23.61
15.74
8.27
1.66
-4.07
-9.22
-14.15
-18.95
-23.31
-26.68
-28.72
-29.65
-30.42
-32.33
-36.35
-42.55
-49.94
-56.87
-61.69
-63.38
-61.68
-56.92
-49.67
-40.55
-30.32
-19.95
-10.67
-3.7
0.12
0.57
-1.86
-6.28
-11.69
-17.27
-22.47
-27
-30.61
-32.99
-33.76
-32.46
-28.83
-22.94
-15.33
-6.89
1.32
8.36
13.67
17.13
18.98
19.59
19.38
18.68
17.75
16.78
15.95
15.35
14.93
14.53
13.93
12.95
11.55
9.85
8.06
6.42
5.06
3.95
2.92
1.65
-0.24
-3
-6.64
-10.76
-14.6
-17.23
-17.88
-16.25
-12.62
-7.7
-2.34
2.8
7.38
11.32
14.58
17.06
18.55
18.93
18.31
17.06
15.76
14.87
14.61
14.81
15.06
14.94
14.2
12.9
11.32
9.78
8.46
7.35
6.2
4.68
2.56
-0.24
-3.55
-7
-10.08
-12.21
-12.93
-11.98
-9.43
-5.64
-1.19
3.31
7.41
10.89
13.67
15.81
17.37
18.32
18.63
18.33
17.54
16.51
15.49
14.68
14.06
13.48
12.68
11.49
9.9
8.02
6.08
4.16
2.22
0.02
-2.72
-6.23
-10.61
-15.71
-21.19
-26.46
-30.83
-33.7
-34.64
-33.65
-31.07
-27.5
-23.5
-19.49
-15.62
-11.94
-8.45
-5.27
-2.56
-0.4
1.34
2.99
4.99
7.64
10.96
14.61
18
20.52
21.74
21.59
20.4
18.67
16.93
15.47
14.24
12.89
10.93
7.99
3.99
-0.73
-5.59
-9.86
-12.95
-14.42
-14.1
-12.04
-8.4
-3.54
2.11
7.97
13.48
18.19
21.87
24.56
26.52
28.06
29.51
31.13
33.18
35.93
39.53
43.91
48.73
53.4
57.36
60.25
62.07
63
63.19
62.56
60.77
57.47
52.65
46.77
40.77
35.67
32.16
30.31
29.68
29.56
29.37
28.83
27.85
26.4
24.28
21.08
16.55
10.74
4.16
-2.25
-7.46
-10.74
-11.8
-10.88
-8.64
-5.87
-3.29
-1.42
-0.57
-0.85
-2.28
-4.8
-8.22
-12.09
-15.59
-17.62
-17.1
-13.4
-6.6
2.4
12.29
21.79
30.08
36.96
42.62
47.31
51.09
53.72
54.8
53.97
51.19
46.77
41.47
36.32
32.31
30.21
30.36
32.63
36.6
41.59
46.73
50.91
52.73
50.74
44.06
32.95
19.11
5.29
-5.68
-12.09
-14.09
-13.66
-13.77
-17.12
-25.22
-37.94
-53.74
-70.38
-85.66
-98.13
-107.36
-113.9
-118.86
-123.41
-128.37
-134.03
-140.12
-146
-150.73
-153.05
-151.41
-144.19
-130.44
-110.56
-86.79
-62.9
-43.22
-31.14
-27.99
-32.57
-41.64
-51.06
-56.96
-56.78
-49.66
-36.33
-18.63
1.14
20.67
38.07
51.96
61.58
66.68
67.55
64.97
60.21
54.81
50.3
47.83
47.86
50.1
53.62
57.22
59.81
60.59
59.19
55.54
49.83
42.39
33.63
24.04
14.12
4.39
-4.69
-12.69
-19.22
-23.91
-26.5
-26.86
-25.1
-21.6
-16.91
-11.59
-6.09
-0.67
4.44
9
12.64
14.87
15.23
13.36
9.05
2.33
-6.47
-16.59
-26.84
-35.7
-41.65
-43.61
-41.39
-35.88
-28.92
-22.72
-19.24
-19.55
-23.63
-30.4
-38.18
-45.1
-49.56
-50.45
-47.25
-40.01
-29.28
-16
-1.35
13.46
27.39
39.8
50.34
58.88
65.26
69.3
70.82
69.91
67.12
63.41
59.95
57.72
57.19
58.2
60.06
61.77
62.35
60.9
56.78
49.65
39.55
27.05
13.28
-0.18
-11.68
-19.87
-24.12
-24.59
-22.09
-17.73
-12.52
-7.16
-1.96
3.03
7.97
13.16
18.89
25.24
31.77
37.31
40.2
38.84
32.54
22.2
10.24
-0.08
-5.83
-5.54
0.39
10
20.7
30.28
37.61
42.62
45.93
48.21
49.81
50.55
50
47.73
43.53
37.59
30.26
22
13.23
4.31
-4.24
-11.82
-17.75
-21.55
-23.27
-23.53
-23.42
-24.06
-26.16
-29.75
-34.26
-38.8
-42.55
-45.09
-46.35
-46.53
-45.85
-44.58
-43.03
-41.67
-41.13
-42
-44.49
-48.26
-52.45
-55.98
-58.02
-58.23
-56.87
-54.52
-51.82
-49.26
-47.2
-45.89
-45.55
-46.21
-47.67
-49.5
-51.2
-52.44
-53.06
-52.94
-51.8
-49.08
-44.2
-37
-28.07
-18.77
-10.76
-5.37
-3.11
-3.48
-5.35
-7.37
-8.47
-8.15
-6.5
-4.21
-2.29
-1.82
-3.6
-7.82
-14.02
-21.25
-28.49
-35
-40.52
-45.08
-48.85
-51.87
-54.12
-55.55
-56.21
-56.14
-55.32
-53.5
-50.35
-45.67
-39.63
-32.92
-26.6
-21.82
-19.42
-19.79
-22.87
-28.22
-35.22
-43.11
-51.18
-58.72
-65.13
-69.66
-71.53
-69.85
-63.94
-53.75
-40.18
-25.03
-10.34
2.41
13.08
22.8
33.18
45.18
58.27
70.55
79.59
83.78
83
78.69
72.98
67.71
63.82
61.31
59.8
58.91
58.59
58.88
59.67
60.56
61.01
60.56
59.04
56.68
53.85
50.95
48.19
45.57
42.98
40.11
36.61
32.14
26.55
20.05
13.28
7.17
2.52
-0.33
-1.74
-2.52
-3.7
-6
-9.65
-14.5
-20.19
-26.41
-32.83
-38.99
-44.14
-47.38
-47.91
-45.49
-40.58
-34.24
-27.66
-21.61
-16.25
-11.24
-6.21
-1.21
3.25
6.5
8.12
8.29
7.66
6.95
6.54
6.34
6.06
5.5
4.79
4.35
4.57
5.6
7.34
9.61
12.27
15.25
18.35
21.04
22.37
21.27
16.93
9.2
-1.27
-13.16
-24.82
-34.63
-41.41
-44.5
-43.82
-39.81
-33.21
-24.97
-16.08
-7.54
-0.22
5.11
8.05
8.61
7.32
5.04
2.79
1.38
1.23
2.26
4.06
6.04
7.66
8.52
8.39
7.25
5.17
2.38
-0.86
-4.36
-8.03
-11.82
-15.6
-18.96
-21.25
-21.74
-19.95
-15.91
-10.22
-3.79
2.52
8.18
13.05
17.18
20.56
23.05
24.43
24.62
23.88
22.74
21.81
21.46
21.73
22.28
22.69
22.68
22.28
21.77
21.41
21.26
21.06
20.33
18.64
15.78
11.91
7.43
2.86
-1.29
-4.6
-6.76
-7.53
-6.79
-4.59
-1.16
3.09
7.67
12.07
15.91
18.92
21
22.15
22.48
22.21
21.54
20.68
19.8
19.02
18.37
17.79
17.15
16.25
14.92
13.01
10.47
7.38
3.83
-0.09
-4.27
-8.58
-12.82
-16.6
-19.47
-20.93
-20.69
-18.76
-15.52
-11.48
-7.16
-2.88
1.3
5.4
9.36
13.01
16.01
18.12
19.29
19.65
19.49
19
18.25
17.18
15.7
13.88
11.94
10.17
8.77
7.75
6.87
5.77
4.1
1.59
-1.77
-5.84
-10.23
-14.31
-17.36
-18.64
-17.64
-14.34
-9.24
-3.27
2.56
7.53
11.43
14.51
17.23
19.87
22.37
24.39
25.57
25.78
25.2
24.25
23.29
22.46
21.64
20.59
19.14
17.28
15.15
12.9
10.6
8.19
5.5
2.34
-1.41
-5.73
-10.35
-14.77
-18.31
-20.32
-20.44
-18.72
-15.67
-12.01
-8.39
-5.12
-2.16
0.84
4.14
7.77
11.43
14.64
16.94
18.12
18.25
17.63
16.65
15.59
14.59
13.57
12.39
10.92
9.09
6.97
4.71
2.49
0.38
-1.67
-3.87
-6.52
-9.85
-13.89
-18.36
-22.76
-26.49
-29
-29.91
-29.05
-26.52
-22.55
-17.51
-11.83
-5.96
-0.26
5.03
9.79
14
17.6
20.47
22.44
23.44
23.52
22.91
21.95
20.94
20.02
19.18
18.25
17.02
15.4
13.43
11.23
8.97
6.72
4.48
2.18
-0.31
-3.01
-5.93
-9.02
-12.19
-15.4
-18.64
-21.83
-24.76
-27.03
-28.13
-27.62
-25.28
-21.25
-16.04
-10.27
-4.57
0.74
5.56
9.97
14
17.52
20.3
22.1
22.86
22.73
22.01
21.05
20.09
19.25
18.51
17.88
17.33
16.85
16.34
15.61
14.47
12.75
10.42
7.57
4.39
1.11
-2.05
-4.94
-7.48
-9.72
-11.84
-14.07
-16.68
-19.84
-23.43
-27
-29.9
-31.38
-30.91
-28.38
-24.11
-18.73
-12.98
-7.43
-2.33
2.25
6.39
10.1
13.27
15.79
17.55
18.61
19.2
19.6
20
20.48
20.94
21.17
20.99
20.37
19.4
18.24
17.03
15.82
14.47
12.87
10.88
8.57
6.07
3.61
1.33
-0.73
-2.69
-4.8
-7.28
-10.34
-13.98
-17.97
-21.79
-24.77
-26.28
-25.88
-23.53
-19.59
-14.73
-9.66
-4.93
-0.8
2.73
5.84
8.65
11.12
13.11
14.43
15.03
15.03
14.72
14.41
14.36
14.63
15.09
15.51
15.72
15.61
15.2
14.54
13.64
12.49
11.04
9.32
7.45
5.6
3.88
2.23
0.39
-1.99
-5.2
-9.27
-13.99
-18.85
-23.21
-26.46
-28.13
-28.02
-26.26
-23.32
-19.86
-16.49
-13.58
-11.08
-8.66
-5.91
-2.64
0.95
4.41
7.24
9.1
9.99
10.18
10.02
9.77
9.52
9.22
8.8
8.2
7.41
6.43
5.24
3.79
2.03
0.01
-2.15
-4.26
-6.11
-7.58
-8.69
-9.63
-10.73
-12.35
-14.7
-17.76
-21.22
-24.5
-26.91
-27.87
-27.07
-24.58
-20.84
-16.46
-12.1
-8.15
-4.8
-1.98
0.44
2.56
4.34
5.64
6.37
6.58
6.48
6.4
6.59
7.14
7.9
8.56
8.82
8.48
7.53
6.11
4.42
2.7
1.09
-0.35
-1.65
-2.96
-4.42
-6.18
-8.35
-10.95
-14
-17.44
-21.11
-24.63
-27.52
-29.18
-29.18
-27.44
-24.25
-20.19
-15.88
-11.74
-7.9
-4.31
-0.87
2.38
5.26
7.64
9.46
10.85
12.02
13.12
14.17
15.08
15.67
15.79
15.4
14.52
13.26
11.76
10.13
8.43
6.63
4.61
2.21
-0.67
-4.03
-7.75
-11.6
-15.38
-18.95
-22.23
-25.07
-27.2
-28.2
-27.68
-25.44
-21.64
-16.79
-11.58
-6.65
-2.33
1.32
4.5
7.38
10.03
12.32
14.09
15.26
15.9
16.21
16.43
16.68
16.92
16.95
16.61
15.81
14.59
13.16
11.69
10.29
8.92
7.45
5.69
3.58
1.12
-1.6
-4.47
-7.43
-10.48
-13.64
-16.79
-19.73
-22.06
-23.37
-23.31
-21.75
-18.83
-14.95
-10.64
-6.44
-2.67
0.56
3.3
5.7
7.85
9.72
11.18
12.1
12.49
12.43
12.1
11.7
11.36
11.13
10.99
10.85
10.61
10.1
9.15
7.68
5.66
3.24
0.65
-1.83
-4.03
-5.9
-7.54
-9.22
-11.22
-13.77
-16.9
-20.34
-23.55
-25.81
-26.51
-25.3
-22.28
-17.93
-12.92
-7.94
-3.48
0.26
3.3
5.78
7.8
9.38
10.44
10.87
10.69
10.1
9.45
9.09
9.22
9.78
10.43
10.75
10.48
9.58
8.25
6.79
5.43
4.2
2.99
1.62
-0.07
-2.12
-4.54
-7.31
-10.44
-13.94
-17.65
-21.24
-24.12
-25.67
-25.43
-23.3
-19.61
-14.95
-10
-5.24
-0.94
2.84
6.1
8.76
10.72
11.89
12.31
12.19
11.85
11.57
11.54
11.74
12.02
12.15
11.94
11.31
10.3
9
7.55
5.99
4.3
2.4
0.18
-2.45
-5.52
-9.02
-12.84
-16.73
-20.3
-23.01
-24.34
-23.88
-21.59
-17.78
-13.06
-8.12
-3.57
0.22
3.09
5.02
6.11
6.49
6.41
6.18
6.08
6.28
6.68
6.98
6.81
5.91
4.31
2.33
0.43
-0.95
-1.61
-1.61
-1.26
-1.04
-1.45
-2.9
-5.52
-9.09
-12.99
-16.39
-18.44
-18.66
-16.99
-13.77
-9.6
-4.92
-0.06
4.92
9.98
15.1
20.17
25.03
29.45
33.08
35.56
36.64
36.54
36.05
36.36
38.5
42.7
48.09
52.91
55.32
54.18
49.62
42.79
35.26
28.18
21.91
16.09
10.08
3.45
-3.78
-11.11
-17.8
-23.12
-26.52
-27.74
-26.84
-24.17
-20.25
-15.73
-11.15
-6.89
-3.14
0.05
2.67
4.67
5.99
6.65
6.86
6.99
7.46
8.57
10.38
12.62
14.91
16.89
18.41
19.55
20.37
20.87
20.87
20.2
18.86
17.18
15.65
14.71
14.42
14.46
14.31
13.56
12.16
10.4
8.75
7.54
6.9
6.76
7.02
7.6
8.44
9.3
9.62
8.58
5.33
-0.6
-8.93
-18.58
-27.9
-35.13
-38.97
-38.88
-35.1
-28.32
-19.35
-8.82
2.73
14.64
25.97
35.56
42.25
45.23
44.03
38.43
28.3
13.69
-4.81
-25.84
-47.15
-66.13
-80.57
-89.44
-93.13
-93.12
-91.23
-88.86
-86.61
-84.38
-81.84
-78.79
-75.37
-71.89
-68.61
-65.46
-62.08
-57.94
-52.67
-46.27
-39.15
-32.01
-25.62
-20.55
-17.07
-15.17
-14.57
-14.92
-15.83
-17.04
-18.42
-20.06
-22.16
-24.9
-28.26
-31.95
-35.33
-37.53
-37.51
-34.25
-26.96
-15.33
0.17
18.19
36.66
53.28
66.25
74.74
79.08
80.44
80.18
79.33
78.27
76.91
74.95
72.26
68.88
64.99
60.74
56.16
51.2
45.91
40.5
35.36
30.87
27.27
24.53
22.37
20.34
18
15.08
11.55
7.61
3.54
-0.41
-4.2
-7.97
-11.95
-16.2
-20.47
-24.14
-26.44
-26.68
-24.57
-20.32
-14.6
-8.28
-2.1
3.56
8.64
13.33
17.72
21.68
24.77
26.44
26.35
24.63
21.9
19.09
17.04
16.18
16.43
17.31
18.27
18.91
19.05
18.68
17.74
16.18
13.91
11.02
7.72
4.38
1.24
-1.72
-4.75
-8.22
-12.42
-17.31
-22.54
-27.47
-31.39
-33.71
-34.14
-32.82
-30.26
-27.07
-23.81
-20.72
-17.74
-14.61
-11.15
-7.45
-3.84
-0.73
1.61
3.18
4.22
5.04
5.81
6.56
7.24
7.78
8.14
8.38
8.5
8.43
8.05
7.29
6.09
4.48
2.55
0.41
-1.82
-4.02
-6.06
-7.94
-9.84
-12.08
-15.01
-18.78
-23.1
-27.19
-30.01
-30.61
-28.54
-24.01
-17.83
-11.07
-4.73
0.54
4.51
7.3
9.21
10.6
11.73
12.76
13.71
14.48
14.92
14.93
14.52
13.88
13.25
12.8
12.46
11.96
10.95
9.18
6.64
3.64
0.64
-1.97
-4.01
-5.62
-7.13
-8.94
-11.32
-14.42
-18.2
-22.49
-26.96
-31.1
-34.19
-35.47
-34.38
-30.78
-25.06
-18.15
-11.15
-4.99
-0.15
3.41
6.04
8.17
10.09
11.87
13.44
14.76
15.81
16.64
17.29
17.71
17.85
17.65
17.14
16.36
15.34
14
12.3
10.21
7.81
5.27
2.69
0.11
-2.54
-5.42
-8.68
-12.45
-16.68
-21.2
-25.61
-29.39
-31.92
-32.68
-31.36
-27.96
-22.75
-16.16
-8.76
-1.1
6.21
12.64
17.76
21.37
23.6
24.82
25.59
26.39
27.52
29.03
30.8
32.68
34.59
36.6
38.84
41.39
44.22
47.09
49.59
51.39
52.34
52.56
52.21
51.32
49.6
46.49
41.54
34.7
26.37
17.11
7.16
-3.73
-16.09
-29.92
-44.19
-56.88
-65.84
-70
-70.3
-69.51
-71.06
-77.41
-88.72
-102.62
-115.22
-122.51
-121.92
-112.97
-97.31
-78.01
-58.75
-42.97
-33.23
-30.72
-35.06
-44.26
-54.98
-63.22
-65.17
-58.27
-41.84
-17.42
11.71
41.47
68.04
88.81
102.74
110.29
113
112.77
111.45
110.44
110.66
112.37
115.18
118.16
120.22
120.48
118.56
114.45
108.12
99.26
87.34
72.2
54.78
37.39
23.05
14.23
11.73
14.21
19
23.48
26.16
27.01
26.72
25.76
23.96
20.79
16.07
10.52
5.53
2.48
1.98
3.52
5.82
7.56
8.05
7.49
6.85
7.4
10.25
15.95
24.22
33.91
43.05
49.28
50.55
45.87
35.88
22.66
9.13
-2.07
-9.41
-12.9
-13.79
-13.94
-15
-18.06
-23.6
-31.67
-42.11
-54.47
-67.84
-80.79
-91.59
-98.79
-101.81
-101.2
-98.43
-95.25
-92.97
-92.04
-92.13
-92.53
-92.63
-92.2
-91.33
-90.12
-88.55
-86.37
-83.27
-79.16
-74.18
-68.72
-63.14
-57.66
-52.36
-47.29
-42.66
-38.88
-36.48
-35.81
-36.73
-38.59
-40.29
-40.65
-38.82
-34.6
-28.48
-21.45
-14.62
-8.92
-4.96
-2.98
-3.02
-4.91
-8.35
-12.87
-17.87
-22.76
-27.07
-30.56
-33.13
-34.74
-35.29
-34.61
-32.58
-29.28
-25.02
-20.19
-15.09
-9.75
-3.92
2.7
10.19
18.33
26.51
34.01
40.19
44.66
47.34
48.36
47.95
46.37
43.88
40.74
37.19
33.44
29.67
26.01
22.57
19.38
16.39
13.43
10.2
6.39
1.76
-3.72
-9.83
-16.09
-21.8
-26.2
-28.62
-28.64
-26.26
-21.92
-16.41
-10.65
-5.39
-1.01
2.46
5.18
7.36
9.14
10.6
11.88
13.13
14.46
15.78
16.81
17.13
16.51
14.99
12.98
10.94
9.19
7.67
6.06
3.97
1.23
-2.06
-5.62
-9.22
-12.84
-16.54
-20.26
-23.68
-26.17
-27.03
-25.8
-22.44
-17.32
-11.08
-4.36
2.38
8.84
14.82
20.05
24.21
26.93
28.02
27.6
26.11
24.21
22.51
21.36
20.73
20.33
19.79
18.93
17.77
16.41
14.89
13.03
10.43
6.74
1.81
-4.16
-10.67
-17.09
-22.74
-26.96
-29.16
-28.9
-26.05
-20.9
-14.2
-7.01
-0.32
5.23
9.56
12.97
15.89
18.54
20.83
22.5
23.44
23.86
24.26
25.09
26.48
28.05
29.15
29.21
28.03
25.98
23.7
21.77
20.35
19.08
17.27
14.24
9.71
3.85
-2.65
-8.88
-13.92
-17.16
-18.39
-17.83
-15.91
-13.05
-9.47
-5.23
-0.36
4.86
9.94
14.24
17.22
18.74
19.1
18.88
18.66
18.82
19.31
19.84
20.01
19.57
18.51
17.05
15.59
14.45
13.75
13.33
12.79
11.68
9.62
6.43
2.08
-3.27
-9.29
-15.45
-21.04
-25.23
-27.28
-26.82
-23.97
-19.32
-13.66
-7.8
-2.3
2.55
6.57
9.75
12.04
13.51
14.29
14.62
14.78
15.05
15.58
16.43
17.5
18.54
19.19
19.01
17.74
15.37
12.22
8.85
5.78
3.35
1.54
0.11
-1.33
-3.09
-5.37
-8.24
-11.67
-15.43
-19.05
-21.89
-23.18
-22.42
-19.54
-14.99
-9.56
-4.02
1.12
5.71
9.9
13.82
17.52
20.84
23.6
25.66
27.09
28.06
28.8
29.46
30.08
30.57
30.78
30.5
29.55
27.76
25.1
21.65
17.69
13.6
9.77
6.46
3.7
1.3
-1.04
-3.73
-7.11
-11.34
-16.35
-21.69
-26.59
-30.14
-31.49
-30.25
-26.59
-21.16
-14.88
-8.59
-2.8
2.27
6.64
10.31
13.31
15.65
17.41
18.76
19.94
21.15
22.47
23.83
25.08
25.99
26.27
25.65
23.9
20.95
16.96
12.31
7.54
3.14
-0.6
-3.66
-6.24
-8.62
-10.98
-13.44
-16.07
-18.99
-22.37
-26.28
-30.48
-34.35
-36.96
-37.48
-35.51
-31.36
-25.88
-20.19
-15.13
-11.05
-7.81
-4.97
-2.18
0.69
3.45
5.77
7.35
8.1
8.19
7.94
7.75
7.93
8.58
9.61
10.73
11.62
12.05
11.91
11.28
10.35
9.26
8.11
6.9
5.52
3.83
1.68
-1.11
-4.63
-8.94
-13.93
-19.24
-24.22
-28.04
-29.9
-29.32
-26.32
-21.48
-15.74
-10.05
-5.05
-0.94
2.41
5.21
7.53
9.26
10.22
10.38
9.95
9.38
9.1
9.34
10.09
11.07
11.98
12.6
12.83
12.67
12.1
11.05
9.45
7.27
4.62
1.73
-1.11
-3.65
-5.8
-7.64
-9.48
-11.63
-14.28
-17.31
-20.18
-21.99
-21.68
-18.39
-11.77
-2.17
9.32
21.08
31.34
38.6
41.94
41.24
37.16
30.89
23.87
17.36
12.17
8.51
6.16
4.65
3.62
2.94
2.71
3.15
4.28
5.92
7.73
9.49
11.28
13.5
16.59
20.71
25.43
29.84
32.89
33.86
32.64
29.63
25.52
21
16.75
13.51
12.12
13.34
17.34
23.33
29.56
33.87
34.61
31.33
24.98
17.41
10.4
4.98
1.06
-2.13
-5.44
-9.29
-13.49
-17.58
-21.18
-24.33
-27.4
-30.87
-35.03
-39.82
-44.9
-49.9
-54.56
-58.9
-63.13
-67.57
-72.43
-77.63
-82.81
-87.4
-90.93
-93.34
-95.18
-97.33
-100.6
-105.13
-110.05
-113.72
-114.39
-110.98
-103.58
-93.28
-81.68
-70.11
-59.26
-49.36
-40.5
-32.75
-25.84
-18.7
-9.29
4.72
24.75
50.1
77.67
102.95
121.77
131.99
134.03
130.26
123.55
116.05
108.77
102
96
91.21
88.04
86.26
84.9
82.59
78.26
71.69
63.44
54.24
44.12
32.15
16.8
-3.14
-27.86
-56.2
-85.82
-113.84
-137.43
-154.23
-162.75
-162.7
-155.14
-142.24
-126.56
-110.12
-93.75
-77.01
-58.87
-38.54
-16.13
7.32
30.23
51.02
68.49
81.83
90.47
94.09
92.6
86.29
75.95
62.81
48.39
34.28
21.74
11.55
3.74
-2.32
-7.63
-13.2
-19.58
-26.55
-33.21
-38.18
-40.17
-38.43
-33.13
-25.32
-16.54
-8.27
-1.43
3.85
8.08
11.94
15.81
19.55
22.68
24.67
25.49
25.66
26.17
28.05
31.92
37.6
44.08
49.82
53.22
53.22
49.78
43.89
37.32
32.03
29.59
30.73
35.15
41.73
48.81
54.67
57.98
58.11
55.36
50.82
46.03
42.4
40.76
41.08
42.63
44.38
45.48
45.5
44.28
41.66
37.12
29.98
19.87
7.2
-6.64
-19.76
-30.64
-38.88
-45.29
-51.35
-58.12
-65.69
-73.15
-79.45
-84.3
-88.61
-94.04
-101.9
-112.21
-123.29
-132.26
-136.09
-132.74
-121.77
-104.41
-82.86
-59.41
-35.83
-13.13
8.24
27.95
45.46
60.07
71.22
78.93
83.84
86.92
88.84
89.45
87.89
83.02
74.3
62.3
48.72
35.73
25.15
17.74
13.08
9.97
7.18
4.03
0.59
-2.59
-5.02
-6.76
-8.46
-11.22
-15.98
-23.06
-31.95
-41.38
-49.79
-55.7
-58.13
-56.75
-51.88
-44.33
-35.12
-25.21
-15.31
-5.7
3.63
12.89
22.28
31.88
41.62
51.14
59.8
66.74
71.03
72.08
70.03
65.89
61.36
58.21
57.55
59.28
62.05
63.81
62.63
57.4
48.21
36.2
23
10.11
-1.63
-12.07
-21.5
-30.19
-38.03
-44.45
-48.76
-50.61
-50.23
-48.31
-45.63
-42.58
-39.04
-34.55
-28.81
-22.07
-15.18
-9.35
-5.51
-4.04
-4.56
-6.23
-8.13
-9.61
-10.45
-10.78
-10.87
-10.93
-11.01
-11.05
-11.01
-10.99
-11.33
-12.42
-14.52
-17.5
-20.79
-23.42
-24.39
-22.98
-19.07
-13.15
-6.16
0.88
7.13
12.21
16.13
19.14
21.49
23.31
24.61
25.39
25.79
26.06
26.53
27.38
28.52
29.66
30.44
30.71
30.57
30.33
30.24
30.4
30.72
31.1
31.59
32.42
33.73
35.41
36.86
37.26
35.88
32.53
27.72
22.51
18.2
15.91
16.38
19.95
26.59
35.82
46.63
57.44
66.33
71.6
72.4
69.09
63.07
56.04
49.26
42.99
36.66
29.52
21.39
13.03
5.85
1.04
-1.12
-1.54
-1.95
-4.06
-8.8
-16.03
-24.81
-33.91
-42.34
-49.57
-55.45
-59.99
-63.27
-65.26
-65.97
-65.52
-64.12
-62.12
-59.91
-57.87
-56.4
-55.79
-56.14
-57.3
-58.81
-60.03
-60.36
-59.41
-57.18
-54.08
-50.77
-47.99
-46.27
-45.86
-46.64
-48.26
-50.27
-52.15
-53.46
-53.84
-53.2
-51.7
-49.83
-48.17
-47.13
-46.69
-46.33
-45.18
-42.41
-37.62
-30.92
-22.94
-14.44
-6.04
1.86
9.05
15.33
20.44
24.06
26
26.34
25.55
24.33
23.39
23.18
23.7
24.58
25.19
24.99
23.69
21.3
18.06
14.23
10.02
5.58
1.06
-3.2
-6.81
-9.48
-11.26
-12.64
-14.42
-17.28
-21.39
-26.15
-30.38
-32.72
-32.22
-28.66
-22.58
-15.01
-6.99
0.67
7.51
13.32
17.96
21.3
23.26
23.94
23.71
23.14
22.87
23.28
24.48
26.19
27.95
29.36
30.16
30.33
29.96
29.15
27.86
25.92
23.16
19.52
15.26
10.81
6.61
2.88
-0.57
-4.15
-8.23
-12.74
-17
-19.9
-20.34
-17.84
-12.81
-6.4
-0.04
5.24
9.12
11.99
14.52
17.19
20.03
22.61
24.37
24.91
24.24
22.73
20.88
19.15
17.74
16.56
15.33
13.71
11.36
8.15
4.14
-0.29
-4.65
-8.41
-11.25
-13.19
-14.58
-16.04
-18.2
-21.55
-26.26
-32.14
-38.55
-44.55
-48.99
-50.9
-49.75
-45.69
-39.56
-32.57
-25.9
-20.31
-15.98
-12.63
-9.8
-7.07
-4.27
-1.45
1.12
3.1
4.16
4.15
3.11
1.3
-0.86
-2.97
-4.78
-6.14
-7.01
-7.41
-7.32
-6.8
-6.03
-5.34
-5.12
-5.71
-7.23
-9.64
-12.79
-16.58
-20.94
-25.76
-30.69
-35.03
-37.83
-38.2
-35.63
-30.22
-22.73
-14.22
-5.73
2.01
8.68
14.24
18.7
22
24.07
25.03
25.19
25.11
25.33
26.09
27.22
28.2
28.42
27.46
25.33
22.38
19.19
16.3
13.95
12.08
10.41
8.53
6.1
2.87
-1.26
-6.28
-12
-18.06
-23.88
-28.72
-31.83
-32.7
-31.25
-27.89
-23.44
-18.77
-14.54
-10.96
-7.85
-4.87
-1.77
1.4
4.34
6.71
8.35
9.41
10.28
11.35
12.8
14.43
15.76
16.24
15.53
13.71
11.26
8.87
7.06
6.03
5.45
4.74
3.29
0.72
-3.04
-7.75
-13.02
-18.34
-23.08
-26.51
-27.94
-26.99
-23.7
-18.73
-13.08
-7.68
-3.06
0.82
4.35
7.95
11.7
15.35
18.46
20.71
22.08
22.8
23.16
23.24
22.84
21.63
19.36
16.17
12.61
9.45
7.37
6.66
7.05
7.84
8.2
7.41
5.09
1.27
-3.73
-9.34
-14.9
-19.69
-23.06
-24.55
-24.02
-21.73
-18.21
-14.09
-9.88
-5.77
-1.73
2.36
6.45
10.3
13.43
15.49
16.35
16.22
15.54
14.72
14.06
13.59
13.17
12.62
11.82
10.85
9.84
8.95
8.27
7.75
7.15
6.19
4.53
1.95
-1.58
-5.84
-10.36
-14.49
-17.5
-18.76
-17.91
-14.94
-10.26
-4.58
1.31
6.63
10.89
13.88
15.64
16.4
16.51
16.35
16.27
16.56
17.3
18.4
19.53
20.24
20.16
19.06
17.02
14.34
11.43
8.64
6.09
3.63
0.92
-2.51
-6.97
-12.52
-18.78
-24.89
-29.75
-32.28
-31.83
-28.45
-22.8
-15.96
-8.92
-2.26
3.94
9.89
15.73
21.3
26.17
29.84
32.04
32.95
33.09
33.07
33.28
33.76
34.19
34.12
33.18
31.27
28.57
25.43
22.16
18.95
15.81
12.51
8.72
4.1
-1.55
-8.18
-15.33
-22.19
-27.72
-30.97
-31.39
-29
-24.36
-18.37
-11.94
-5.69
0
5.03
9.32
12.72
15.07
16.26
16.38
15.73
14.8
14.05
13.76
13.96
14.4
14.73
14.64
14.01
12.93
11.67
10.45
9.35
8.26
6.87
4.84
1.93
-1.93
-6.57
-11.63
-16.61
-20.83
-23.6
-24.42
-23.05
-19.69
-14.9
-9.4
-3.82
1.5
6.45
11.1
15.41
19.2
22.17
24.04
24.79
24.68
24.18
23.77
23.77
24.18
24.78
25.22
25.15
24.39
22.87
20.64
17.72
14.2
10.14
5.72
1.08
-3.61
-8.23
-12.7
-16.94
-20.7
-23.65
-25.34
-25.39
-23.68
-20.39
-15.99
-11.02
-5.93
-1.03
3.46
7.33
10.31
12.15
12.76
12.33
11.36
10.49
10.27
10.9
12.16
13.51
14.32
14.15
12.92
10.95
8.74
6.77
5.28
4.12
2.95
1.31
-1.12
-4.49
-8.75
-13.63
-18.73
-23.42
-26.97
-28.67
-28.07
-25.15
-20.36
-14.46
-8.16
-1.96
3.93
9.49
14.61
19.09
22.63
25.09
26.61
27.66
28.83
30.53
32.77
35.09
36.71
36.93
35.37
32.13
27.79
23.05
18.52
14.58
11.28
8.49
6.07
3.9
1.96
0.27
-1.15
-2.15
-2.49
-1.84
0.11
3.47
8.03
13.29
18.58
23.37
27.38
30.56
32.97
34.61
35.33
34.93
33.32
30.7
27.55
24.39
21.58
19.12
16.66
13.77
10.15
5.84
1.22
-3.14
-6.72
-9.21
-10.6
-11.19
-11.45
-11.93
-13.11
-15.31
-18.53
-22.51
-26.68
-30.36
-32.94
-34.01
-33.5
-31.68
-29.12
-26.41
-24.11
-22.5
-21.65
-21.47
-21.9
-22.93
-24.6
-26.9
-29.6
-32.27
-34.46
-35.9
-36.65
-37.08
-37.62
-38.53
-39.73
-40.86
-41.41
-41.01
-39.49
-36.86
-33.24
-28.77
-23.63
-18.17
-12.98
-8.8
-6.3
-5.68
-6.53
-7.73
-7.95
-6.1
-1.78
4.47
11.49
17.91
22.65
25.11
25.24
23.34
19.92
15.71
11.59
8.5
7.14
7.67
9.59
11.87
13.38
13.41
11.98
9.75
7.75
6.9
7.64
9.8
12.73
15.48
17.21
17.42
16.08
13.67
10.85
8.39
6.79
6.25
6.67
7.74
9.19
10.86
12.73
14.84
17.1
19.26
20.82
21.29
20.29
17.73
13.76
8.68
2.68
-4.21
-12.04
-20.82
-30.4
-40.44
-50.58
-60.56
-70.18
-79.13
-86.61
-91.36
-91.94
-87.24
-77.04
-62.23
-44.54
-26.13
-9.03
5.13
15.33
21.2
22.96
21.5
18.23
14.77
12.63
12.89
16.05
22.08
30.48
40.23
49.79
57.24
60.81
59.5
53.48
44.1
33.23
22.41
12.23
2.29
-8.28
-20.08
-32.91
-45.85
-57.76
-67.97
-76.62
-84.51
-92.48
-100.73
-108.37
-113.5
-113.9
-107.96
-95.34
-77.13
-55.44
-32.45
-9.81
11.71
31.83
50.16
65.71
76.98
82.56
82.04
76.42
67.89
58.95
51.33
45.32
40
33.95
26.23
16.96
7.26
-1.32
-7.59
-11.14
-12.5
-12.71
-12.78
-13.32
-14.34
-15.32
-15.59
-14.69
-12.63
-9.88
-7.13
-4.86
-3.1
-1.38
0.99
4.51
9.2
14.5
19.49
23.29
25.3
25.39
23.82
21.08
17.68
14.04
10.57
7.63
5.55
4.53
4.5
5.13
5.8
5.75
4.2
0.6
-5.31
-13.4
-23.19
-33.83
-44.14
-52.65
-57.94
-59
-55.6
-48.5
-39.16
-29.4
-20.84
-14.49
-10.56
-8.58
-7.63
-6.73
-5.18
-2.74
0.4
3.72
6.7
9.01
10.65
11.81
12.7
13.43
13.98
14.42
15.02
16.27
18.56
21.92
25.78
29.14
30.98
30.84
29.19
27.26
26.72
28.83
34.1
42.08
51.6
60.94
68.02
70.46
66.04
53.51
33.48
8.94
-15.33
-34.35
-44.76
-46.05
-40.35
-31.01
-20.94
-11.59
-3.13
4.69
11.64
17.05
20.29
21.36
20.89
19.45
16.9
12.12
3.74
-8.87
-24.75
-41.46
-55.93
-65.61
-69.29
-67.24
-60.68
-51.29
-40.73
-30.53
-22
-16.05
-12.94
-12.17
-12.52
-12.57
-11.16
-7.84
-2.98
2.49
7.46
11.05
12.92
13.28
12.81
12.24
12.12
12.53
13.04
12.97
11.66
8.83
4.68
-0.11
-4.7
-8.28
-10.41
-11.05
-10.54
-9.38
-8.03
-6.81
-5.78
-4.86
-3.9
-2.73
-1.29
0.44
2.48
4.88
7.82
11.58
16.44
22.45
29.16
35.55
40.22
41.87
39.85
34.54
27.32
20.06
14.4
11.17
10.04
9.68
8.42
4.87
-1.44
-9.8
-18.61
-25.88
-29.91
-29.69
-25.19
-17.22
-7.22
3.14
12.23
18.78
22.06
22.11
19.67
16.01
12.48
10.14
9.49
10.45
12.46
14.71
16.42
16.97
16.05
13.67
10.13
5.85
1.26
-3.37
-7.9
-12.28
-16.47
-20.31
-23.45
-25.4
-25.63
-23.79
-19.92
-14.49
-8.33
-2.29
3.07
7.56
11.35
14.61
17.37
19.46
20.7
21.08
20.9
20.65
20.78
21.51
22.75
24.23
25.68
26.84
27.51
27.41
26.29
23.98
20.51
16.14
11.31
6.41
1.65
-2.95
-7.49
-12.01
-16.42
-20.49
-23.91
-26.35
-27.47
-26.95
-24.54
-20.21
-14.27
-7.42
-0.64
5.03
8.76
10.09
9.09
6.3
2.73
-0.33
-1.59
-0.21
3.88
9.81
16
20.71
22.7
21.68
18.39
14.3
11.04
9.87
11.28
14.84
19.29
22.71
22.98
18.23
7.53
-8.55
-27.78
-46.66
-61.41
-69.12
-68.66
-60.93
-48.34
-33.76
-19.55
-6.92
4.04
13.78
22.7
30.64
37.01
41.09
42.69
42.26
40.82
39.45
38.72
38.48
38.04
36.59
33.75
29.63
24.64
19.15
13.29
7.04
0.42
-6.33
-12.87
-18.93
-24.48
-29.72
-34.87
-40.01
-45.01
-49.58
-53.35
-56
-57.19
-56.6
-54.03
-49.49
-43.35
-36.28
-29.08
-22.45
-16.74
-12.01
-8.11
-4.82
-1.91
0.74
3.21
5.56
7.77
9.8
11.59
13.13
14.44
15.59
16.58
17.32
17.58
17.09
15.68
13.39
10.51
7.51
4.89
2.9
1.53
0.52
-0.57
-2.11
-4.33
-7.33
-11.05
-15.4
-20.14
-24.93
-29.19
-32.16
-33.14
-31.72
-28
-22.64
-16.58
-10.7
-5.52
-1.11
2.78
6.42
9.89
13.01
15.52
17.18
17.98
18.12
17.86
17.48
17.11
16.73
16.25
15.54
14.54
13.25
11.74
10.07
8.29
6.41
4.52
2.75
1.38
0.68
0.86
1.91
3.56
5.35
6.71
7.15
6.4
4.59
2.29
0.42
0.01
1.75
5.73
11.27
17.13
21.92
24.58
24.61
22.05
17.25
10.69
2.87
-5.59
-13.85
-20.96
-26.09
-28.74
-28.99
-27.41
-24.82
-21.98
-19.34
-17.06
-15.05
-13.18
-11.42
-9.85
-8.62
-7.89
-7.74
-8.22
-9.33
-11.12
-13.71
-17.18
-21.58
-26.76
-32.42
-38.13
-43.42
-47.83
-51
-52.57
-52.26
-49.93
-45.66
-39.86
-33.2
-26.5
-20.42
-15.26
-10.94
-7.13
-3.54
-0.13
2.86
5.11
6.59
7.73
9.5
13.06
19.3
28.42
39.87
52.47
64.96
76.23
85.62
92.67
96.92
97.88
95.12
88.64
79.05
67.48
55.18
43.04
31.31
19.71
7.84
-4.46
-16.9
-28.84
-39.49
-48.09
-53.97
-56.58
-55.58
-51.06
-43.65
-34.52
-25.06
-16.46
-9.42
-4.1
-0.38
1.97
3.06
2.99
1.96
0.36
-1.28
-2.5
-3.1
-3.18
-3.05
-2.98
-3.06
-3.14
-2.97
-2.36
-1.3
-0.02
1.13
1.85
2
1.66
1.06
0.49
0.2
0.25
0.55
0.71
0.19
-1.58
-4.99
-9.98
-15.97
-21.9
-26.56
-28.88
-28.31
-24.92
-19.4
-12.85
-6.43
-1.07
2.8
5.33
7.11
8.84
11.08
13.98
17.3
20.52
23.12
24.78
25.42
25.16
24.12
22.41
20.07
17.18
13.96
10.77
8.01
5.95
4.65
3.91
3.34
2.56
1.31
-0.47
-2.66
-5.19
-8.12
-11.74
-16.42
-22.35
-29.24
-36.26
-42.14
-45.68
-46.23
-43.84
-39.27
-33.51
-27.39
-21.34
-15.44
-9.59
-3.72
2.11
7.86
13.52
19.09
24.5
29.41
33.27
35.51
35.84
34.43
31.95
29.26
27.23
26.52
27.52
30.43
35.28
41.85
49.53
57.33
63.93
67.88
67.98
63.52
54.42
41.32
25.51
8.8
-6.74
-19.17
-27.17
-30.37
-29.4
-25.71
-20.99
-16.68
-13.54
-11.6
-10.3
-8.92
-6.93
-4.22
-1.19
1.47
2.96
2.72
0.63
-2.97
-7.24
-11.1
-13.65
-14.43
-13.75
-12.58
-12.17
-13.49
-16.67
-20.83
-24.38
-25.73
-24.06
-19.66
-13.92
-8.62
-5.33
-4.89
-7.36
-12.22
-18.69
-25.88
-32.82
-38.39
-41.4
-40.83
-36.08
-27.3
-15.44
-2.14
10.54
20.65
26.67
27.97
24.88
18.5
10.52
2.64
-3.74
-7.78
-9.3
-8.8
-7.25
-5.86
-5.68
-6.99
-9.03
-10.18
-8.48
-2.63
7.37
20.04
32.88
43.2
48.98
49.24
44.04
34.15
20.79
5.48
-10
-23.69
-33.87
-39.5
-40.57
-38.05
-33.43
-28.11
-22.85
-17.78
-12.62
-7.13
-1.42
4.04
8.69
12.16
14.41
15.67
16.26
16.4
16.12
15.29
13.71
11.23
7.87
3.8
-0.59
-4.85
-8.6
-11.66
-14.17
-16.48
-19
-22.03
-25.65
-29.63
-33.51
-36.74
-38.66
-38.74
-36.67
-32.5
-26.73
-20.16
-13.71
-8.01
-3.26
0.77
4.61
8.78
13.47
18.48
23.23
26.99
29.14
29.44
28.18
26.13
24.41
24.15
26.22
30.89
37.74
45.75
53.55
59.82
63.49
63.93
60.87
54.37
44.85
33.07
20.09
7.14
-4.69
-14.62
-22.28
-27.57
-30.48
-31.07
-29.54
-26.35
-22.24
-18.1
-14.59
-11.94
-9.9
-8.01
-5.89
-3.42
-0.73
1.97
4.61
7.33
10.39
14
18.12
22.39
26.22
28.88
29.8
28.7
25.66
21.1
15.67
10.06
4.87
0.51
-2.77
-4.9
-5.86
-5.72
-4.65
-2.97
-1.14
0.33
1.1
1.06
0.4
-0.48
-1.22
-1.54
-1.25
-0.13
2.18
6.02
11.4
17.77
23.94
28.45
30.12
28.7
24.93
20.37
16.63
14.82
15.11
16.82
18.8
19.93
19.5
17.44
14.17
10.39
6.85
4.06
2.16
0.87
-0.43
-2.45
-5.73
-10.41
-16.16
-22.21
-27.6
-31.47
-33.29
-32.99
-30.94
-27.74
-24.1
-20.63
-17.7
-15.5
-14
-13
-12.13
-10.97
-9.14
-6.52
-3.28
0.13
3.11
5.19
6.11
5.83
4.45
2.03
-1.4
-5.74
-10.7
-15.74
-20.14
-23.3
-24.98
-25.49
-25.6
-26.23
-28.06
-31.18
-35.02
-38.54
-40.6
-40.47
-38.07
-33.97
-29.06
-24.05
-19.21
-14.34
-8.99
-2.97
3.44
9.49
14.33
17.37
18.6
18.58
18.16
18.11
18.82
20.22
21.83
23.02
23.25
22.16
19.7
16.05
11.54
6.59
1.57
-3.3
-7.89
-12.25
-16.46
-20.65
-24.95
-29.37
-33.87
-38.21
-42
-44.79
-46.12
-45.74
-43.68
-40.28
-36
-31.27
-26.27
-20.95
-15.19
-9.05
-2.86
2.82
7.48
10.89
13.17
14.69
15.76
16.34
16.06
14.39
11.01
6.11
0.43
-5
-9.2
-11.64
-12.34
-11.82
-10.81
-9.94
-9.58
-9.76
-10.34
-11.19
-12.36
-14.15
-16.8
-20.3
-24.1
-27.19
-28.36
-26.79
-22.41
-16.16
-9.68
-4.77
-2.7
-3.55
-6.2
-8.72
-9.23
-6.76
-1.79
3.8
7.49
7.14
1.83
-7.78
-19.7
-31.31
-39.99
-43.69
-41.19
-32.24
-17.85
-0.43
16.5
29.14
34.66
32.21
23.24
10.85
-1.61
-11.82
-19.17
-24.49
-28.91
-32.75
-35.03
-33.83
-27.31
-14.94
1.96
20.53
37.37
49.8
56.73
58.82
57.72
55.09
51.73
47.43
41.42
33.17
22.97
12.01
1.95
-5.81
-10.64
-12.87
-13.49
-13.51
-13.46
-13.14
-11.89
-9.06
-4.58
0.98
6.53
11.06
14.09
15.88
17.15
18.62
20.54
22.5
23.75
23.57
21.68
18.44
14.68
11.43
9.57
9.59
11.42
14.62
18.5
22.4
25.92
28.87
31.3
33.34
35.11
36.65
37.89
38.67
38.78
38.1
36.71
34.85
32.93
31.4
30.53
30.32
30.49
30.57
30.09
28.69
26.18
22.53
17.75
12.01
5.58
-1.07
-7.33
-12.55
-16.23
-18.13
-18.32
-17.14
-15.05
-12.56
-10.08
-7.9
-6.18
-4.94
-4.12
-3.58
-3.2
-2.87
-2.5
-2.01
-1.33
-0.33
1.06
2.88
5.04
7.3
9.38
10.98
11.91
12.12
11.75
11
10.09
9.16
8.22
7.17
5.81
4
1.69
-0.98
-3.77
-6.33
-8.35
-9.62
-10.09
-9.84
-9.06
-8
-6.9
-5.94
-5.26
-4.96
-5.07
-5.6
-6.38
-7.15
-7.53
-7.15
-5.91
-4.04
-2.04
-0.49
0.21
0
-0.89
-2.15
-3.58
-5.17
-7.05
-9.3
-11.88
-14.66
-17.53
-20.47
-23.51
-26.59
-29.58
-32.11
-33.82
-34.37
-33.63
-31.64
-28.54
-24.57
-20.01
-15.22
-10.54
-6.32
-2.77
0.03
2.16
3.8
5.09
6.15
7.06
7.83
8.47
8.91
9.02
8.59
7.46
5.57
3.05
0.19
-2.74
-5.52
-8.1
-10.51
-12.84
-15.05
-17
-18.38
-18.85
-18.09
-15.97
-12.53
-8.03
-2.76
3.03
9.25
15.88
22.89
29.96
36.55
41.93
45.54
47.17
47.03
45.64
43.59
41.33
39.1
36.95
34.86
32.86
31.05
29.5
28.22
27.11
25.99
24.61
22.8
20.45
17.62
14.46
11.19
8.05
5.2
2.68
0.46
-1.58
-3.53
-5.44
-7.25
-8.82
-10.01
-10.71
-10.9
-10.64
-9.97
-9.03
-7.95
-6.89
-6.07
-5.66
-5.77
-6.36
-7.24
-8.16
-8.9
-9.34
-9.41
-9.13
-8.54
-7.71
-6.77
-5.94
-5.44
-5.41
-5.87
-6.71
-7.77
-8.94
-10.25
-11.8
-13.59
-15.49
-17.11
-18.04
-17.93
-16.7
-14.59
-12
-9.37
-7.02
-5.12
-3.7
-2.69
-2
-1.52
-1.12
-0.69
-0.12
0.58
1.3
1.9
2.23
2.22
1.91
1.38
0.72
-0.02
-0.82
-1.69
-2.66
-3.7
-4.86
-6.15
-7.59
-9.08
-10.43
-11.39
-11.74
-11.42
-10.58
-9.52
-8.47
-7.5
-6.4
-4.77
-2.23
1.47
6.23
11.71
17.33
22.52
26.75
29.62
30.87
30.4
28.28
24.77
20.32
15.47
10.71
6.38
2.68
-0.32
-2.58
-4.05
-4.77
-4.93
-4.87
-4.99
-5.6
-6.7
-8.09
-9.44
-10.51
-11.31
-11.99
-12.7
-13.38
-13.77
-13.47
-12.24
-10.09
-7.35
-4.47
-1.86
0.31
2.06
3.5
4.75
5.83
6.71
7.41
7.97
8.53
9.24
10.17
11.25
12.31
13.15
13.55
13.43
12.81
11.86
10.76
9.67
8.69
7.8
6.91
5.87
4.6
3.03
1.2
-0.78
-2.72
-4.4
-5.55
-5.97
-5.57
-4.4
-2.59
-0.32
2.22
4.85
7.39
9.61
11.35
12.53
13.2
13.54
13.7
13.84
14.04
14.32
14.7
15.18
15.72
16.17
16.33
15.98
15.06
13.69
12.05
10.33
8.53
6.54
4.23
1.56
-1.38
-4.37
-7.23
-9.83
-12.11
-14.06
-15.62
-16.7
-17.22
-17.21
-16.81
-16.29
-15.92
-15.95
-16.46
-17.41
-18.63
-19.93
-21.1
-21.97
-22.38
-22.19
-21.29
-19.64
-17.27
-14.34
-11.06
-7.71
-4.57
-1.89
0.11
1.21
1.31
0.37
-1.48
-4.01
-6.92
-9.9
-12.68
-15.06
-16.9
-18.06
-18.49
-18.16
-17.11
-15.47
-13.42
-11.22
-9.08
-7.17
-5.61
-4.45
-3.74
-3.51
-3.76
-4.45
-5.43
-6.51
-7.48
-8.21
-8.67
-8.92
-9.05
-9.09
-9.06
-8.98
-8.94
-9.04
-9.43
-10.15
-11.15
-12.29
-13.46
-14.6
-15.75
-16.95
-18.12
-19.03
-19.32
-18.69
-16.94
-14.11
-10.47
-6.29
-1.85
2.74
7.38
11.95
16.23
19.91
22.73
24.62
25.7
26.27
26.6
26.86
27.01
26.9
26.35
25.28
23.72
21.81
19.75
17.77
16.03
14.64
13.62
12.95
12.52
12.22
11.93
11.52
10.8
9.57
7.73
5.42
3.05
1.21
0.48
1.15
3.08
5.77
8.51
10.71
12.02
12.38
11.97
11.06
9.93
8.77
7.71
6.84
6.15
5.62
5.15
4.6
3.74
2.3
0.01
-3.27
-7.42
-12.04
-16.54
-20.26
-22.71
-23.72
-23.43
-22.23
-20.63
-19.1
-17.93
-17.22
-16.87
-16.68
-16.42
-15.89
-15.06
-13.96
-12.68
-11.28
-9.74
-8.02
-6.05
-3.88
-1.63
0.42
2.01
2.94
3.15
2.82
2.27
1.86
1.88
2.34
3.03
3.55
3.46
2.46
0.53
-2.14
-5.12
-7.9
-10
-11.02
-10.73
-9.17
-6.6
-3.5
-0.39
2.31
4.48
6.27
8.02
10.03
12.39
14.98
17.51
19.66
21.26
22.23
22.55
22.2
21.12
19.3
16.83
13.97
11.06
8.45
6.38
4.91
3.93
3.14
2.17
0.69
-1.43
-4.09
-6.91
-9.37
-11.02
-11.64
-11.25
-10.08
-8.38
-6.32
-3.97
-1.34
1.45
4.19
6.57
8.28
9.12
9.08
8.25
6.81
4.93
2.68
0.03
-3.05
-6.54
-10.34
-14.3
-18.32
-22.37
-26.52
-30.75
-34.89
-38.57
-41.39
-43.08
-43.58
-43.02
-41.49
-38.98
-35.37
-30.65
-25.13
-19.4
-14.16
-9.86
-6.57
-3.98
-1.75
0.25
1.83
2.62
2.41
1.3
-0.24
-1.6
-2.25
-2
-0.99
0.35
1.54
2.19
2.18
1.7
1.13
0.96
1.54
2.95
4.92
6.94
8.48
9.22
9.19
8.72
8.3
8.35
9.07
10.4
12.13
14.13
16.36
18.93
21.91
25.14
28.2
30.54
31.72
31.53
30.18
28.13
25.94
24.07
22.75
22.06
21.9
22.16
22.6
22.93
22.78
21.77
19.69
16.5
12.43
7.78
2.94
-1.82
-6.39
-10.78
-14.99
-18.95
-22.45
-25.18
-26.88
-27.38
-26.77
-25.24
-23.07
-20.46
-17.54
-14.38
-11.08
-7.83
-4.86
-2.35
-0.36
1.17
2.34
3.23
3.75
3.79
3.21
2.07
0.56
-0.97
-2.19
-2.93
-3.27
-3.48
-3.87
-4.66
-5.92
-7.52
-9.33
-11.24
-13.17
-15.01
-16.53
-17.36
-17.13
-15.67
-13.04
-9.63
-5.93
-2.37
0.73
3.25
5.13
6.34
6.91
6.92
6.64
6.45
6.72
7.64
9.17
11.05
12.91
14.48
15.68
16.57
17.37
18.25
19.32
20.57
21.88
23.08
23.99
24.55
24.8
24.98
25.3
25.93
26.85
27.84
28.61
28.94
28.78
28.31
27.83
27.67
28.01
28.84
29.83
30.41
29.84
27.35
22.51
15.38
6.62
-2.75
-11.65
-19.34
-25.58
-30.53
-34.57
-37.98
-40.88
-43.29
-45.24
-46.91
-48.54
-50.24
-51.94
-53.31
-53.97
-53.65
-52.31
-50.15
-47.46
-44.41
-41
-37.12
-32.65
-27.6
-22.16
-16.68
-11.49
-6.87
-2.92
0.37
3.14
5.58
7.85
10
11.99
13.63
14.73
15.17
15.02
14.56
14.11
13.92
13.95
13.92
13.4
12.09
10.03
7.6
5.4
3.99
3.69
4.44
5.95
7.85
9.89
11.95
14.05
16.2
18.29
20.13
21.5
22.29
22.56
22.51
22.42
22.45
22.69
23.14
23.72
24.36
25.01
25.58
25.94
25.96
25.48
24.48
23.02
21.25
19.27
17.06
14.49
11.37
7.64
3.38
-1.07
-5.25
-8.67
-11.01
-12.2
-12.4
-11.95
-11.19
-10.31
-9.34
-8.2
-6.74
-4.98
-3.07
-1.3
0.03
0.72
0.75
0.24
-0.67
-1.86
-3.29
-4.93
-6.7
-8.4
-9.79
-10.66
-10.96
-10.78
-10.33
-9.81
-9.33
-8.87
-8.38
-7.84
-7.34
-7.07
-7.16
-7.58
-8.08
-8.22
-7.56
-5.81
-2.85
1.25
6.33
12.21
18.63
25.2
31.35
36.41
39.77
41.09
40.31
37.63
33.31
27.59
20.74
13.18
5.49
-1.65
-7.67
-12.32
-15.72
-18.23
-20.27
-22.07
-23.65
-24.84
-25.44
-25.38
-24.66
-23.42
-21.87
-20.27
-18.89
-17.97
-17.69
-18.04
-18.85
-19.77
-20.39
-20.36
-19.45
-17.6
-14.94
-11.68
-8.1
-4.52
-1.22
1.52
3.54
4.77
5.31
5.32
4.97
4.44
3.9
3.46
3.25
3.34
3.75
4.33
4.84
4.96
4.47
3.27
1.48
-0.62
-2.68
-4.46
-5.88
-7.06
-8.24
-9.65
-11.35
-13.28
-15.2
-16.85
-18.01
-18.53
-18.31
-17.35
-15.66
-13.36
-10.71
-7.98
-5.51
-3.49
-1.98
-0.89
-0.02
0.89
2.04
3.56
5.45
7.6
9.86
12.11
14.32
16.5
18.68
20.78
22.59
23.86
24.38
24.1
23.19
21.91
20.53
19.23
18.07
16.97
15.89
14.74
13.45
11.91
9.96
7.5
4.55
1.33
-1.73
-4.12
-5.47
-5.65
-4.87
-3.6
-2.33
-1.37
-0.71
-0.13
0.65
1.69
2.79
3.55
3.57
2.71
1.2
-0.5
-1.89
-2.68
-2.83
-2.56
-2.21
-2.08
-2.34
-3.02
-3.99
-5.01
-5.82
-6.21
-6.11
-5.67
-5.14
-4.83
-4.9
-5.27
-5.62
-5.55
-4.76
-3.23
-1.32
0.38
1.25
0.95
-0.34
-1.94
-2.85
-2.21
0.4
4.65
9.6
13.94
16.38
16.1
12.99
7.82
2.34
-0.95
0.7
9.31
25.24
46.52
69.01
87.62
97.87
97.49
87.02
69.42
48.71
28.56
11.25
-2.56
-13.39
-22.37
-30.6
-38.95
-47.88
-57.38
-66.96
-75.63
-82.17
-85.42
-84.71
-80.1
-72.48
-63.28
-54.05
-46.07
-40.02
-35.95
-33.43
-31.77
-30.28
-28.42
-25.93
-22.78
-19.19
-15.55
-12.29
-9.76
-8.05
-6.91
-5.83
-4.25
-1.8
1.54
5.4
9.23
12.54
15.09
16.92
18.27
19.39
20.4
21.24
21.76
21.69
20.82
19.01
16.25
12.75
8.84
4.93
1.39
-1.6
-4
-5.84
-7.12
-7.75
-7.62
-6.75
-5.4
-4.04
-3.15
-3.01
-3.53
-4.37
-5.05
-5.19
-4.73
-3.83
-2.88
-2.2
-2.04
-2.43
-3.25
-4.35
-5.54
-6.72
-7.8
-8.75
-9.51
-10.06
-10.39
-10.5
-10.45
-10.29
-10.1
-9.93
-9.82
-9.73
-9.69
-9.71
-9.87
-10.27
-10.96
-11.88
-12.75
-13.18
-12.75
-11.21
-8.61
-5.21
-1.5
2.16
5.53
8.58
11.35
13.84
15.98
17.65
18.8
19.45
19.76
19.87
19.9
19.92
19.91
19.89
19.74
19.34
18.54
17.19
15.23
12.72
9.83
6.78
3.76
0.88
-1.77
-4.15
-6.2
-7.85
-9.04
-9.75
-9.96
-9.73
-9.13
-8.23
-7.11
-5.76
-4.07
-1.85
1.13
4.97
9.57
14.54
19.32
23.44
26.69
29.28
31.71
34.44
37.65
41.1
44.31
46.79
48.37
49.22
49.76
50.32
51.01
51.68
52.03
51.8
50.71
48.45
44.63
38.86
30.96
21.18
10.21
-1.09
-11.97
-22.14
-31.75
-41.1
-50.33
-59.05
-66.47
-71.69
-74.21
-74.22
-72.54
-70.21
-67.97
-65.87
-63.3
-59.4
-53.7
-46.5
-38.84
-32.04
-27.03
-23.94
-22.13
-20.6
-18.53
-15.74
-12.63
-9.89
-8.05
-7.22
-7.09
-7.13
-6.98
-6.54
-6.06
-5.91
-6.4
-7.62
-9.31
-11.02
-12.28
-12.79
-12.55
-11.8
-10.91
-10.18
-9.66
-9.09
-8.01
-5.99
-2.88
1.05
5.17
8.8
11.47
13.16
14.22
15.18
16.42
18.01
19.74
21.29
22.41
23.03
23.2
23.01
22.48
21.64
20.57
19.52
18.85
18.95
20.03
22.02
24.53
26.99
28.89
29.93
30.15
29.81
29.22
28.55
27.72
26.54
24.87
22.85
20.88
19.52
19.15
19.77
20.86
21.61
21.26
19.38
16.06
11.78
7.21
2.9
-0.87
-4.04
-6.69
-8.85
-10.55
-11.81
-12.73
-13.48
-14.32
-15.4
-16.73
-18.15
-19.37
-20.1
-20.15
-19.5
-18.24
-16.52
-14.52
-12.4
-10.33
-8.46
-6.91
-5.74
-4.9
-4.34
-3.99
-3.86
-4.02
-4.49
-5.18
-5.87
-6.23
-6
-5.16
-3.94
-2.73
-1.95
-1.89
-2.61
-3.98
-5.72
-7.45
-8.81
-9.5
-9.34
-8.29
-6.49
-4.17
-1.59
1.04
3.63
6.14
8.57
10.81
12.59
13.54
13.32
11.82
9.26
6.13
2.98
0.22
-2.05
-3.95
-5.69
-7.43
-9.21
-10.99
-12.72
-14.44
-16.2
-18.01
-19.83
-21.59
-23.17
-24.53
-25.56
-26.2
-26.32
-25.81
-24.55
-22.4
-19.21
-14.86
-9.33
-2.81
4.27
11.33
17.78
23.15
27.21
29.93
31.42
31.9
31.63
30.9
30.01
29.21
28.64
28.32
28.19
28.18
28.15
28
27.61
26.85
25.58
23.66
20.95
17.38
12.99
7.98
2.83
-1.87
-5.47
-7.52
-7.96
-7.15
-5.69
-4.28
-3.43
-3.32
-3.84
-4.66
-5.37
-5.58
-5.03
-3.66
-1.57
0.93
3.5
5.83
7.79
9.42
10.86
12.3
13.85
15.53
17.24
18.84
20.14
20.91
20.9
19.85
17.63
14.31
10.25
6.04
2.38
-0.16
-1.28
-1.02
0.3
2.18
4.09
5.58
6.26
5.85
4.24
1.55
-1.77
-5.11
-7.78
-9.28
-9.46
-8.54
-6.97
-5.24
-3.72
-2.51
-1.59
-0.81
-0.12
0.44
0.63
0.11
-1.48
-4.37
-8.54
-13.71
-19.36
-24.96
-30.08
-34.59
-38.49
-41.84
-44.57
-46.44
-47.14
-46.53
-44.7
-42.03
-39.02
-36
-33.07
-30.05
-26.64
-22.63
-18.08
-13.24
-8.51
-4.23
-0.64
2.27
4.58
6.43
7.9
8.98
9.62
9.77
9.53
9.05
8.51
7.98
7.39
6.55
5.26
3.5
1.41
-0.69
-2.45
-3.55
-3.77
-3.02
-1.35
1.1
4.07
7.16
9.94
12.02
13.19
13.43
12.87
11.8
10.5
9.26
8.31
7.76
7.55
7.49
7.27
6.65
5.6
4.32
3.2
2.61
2.71
3.41
4.4
5.26
5.64
5.29
4.02
1.79
-1.35
-5.11
-8.97
-12.22
-14.18
-14.49
-13.21
-10.84
-8.1
-5.63
-3.73
-2.42
-1.46
-0.63
0.22
1.15
2.21
3.44
4.89
6.46
7.92
8.85
8.88
7.8
5.71
2.97
0.12
-2.32
-3.98
-4.76
-4.79
-4.4
-3.96
-3.77
-3.94
-4.48
-5.29
-6.27
-7.38
-8.55
-9.65
-10.49
-10.81
-10.45
-9.4
-7.84
-6.11
-4.56
-3.44
-2.79
-2.49
-2.3
-1.95
-1.27
-0.17
1.35
3.21
5.37
7.76
10.34
13.02
15.72
18.31
20.7
22.8
24.55
25.95
26.93
27.37
27.12
26.06
24.19
21.62
18.57
15.24
11.73
8.02
4.01
-0.34
-4.9
-9.41
-13.55
-17.02
-19.67
-21.42
-22.25
-22.1
-20.88
-18.58
-15.32
-11.43
-7.33
-3.4
0.17
3.39
6.39
9.27
11.99
14.32
16.03
16.9
16.95
16.33
15.28
14
12.57
10.94
8.98
6.58
3.71
0.37
-3.34
-7.28
-11.27
-15.07
-18.41
-21.14
-23.29
-25.17
-27.28
-30.18
-34.18
-39.2
-44.72
-49.9
-53.85
-55.87
-55.64
-53.3
-49.42
-44.86
-40.53
-37.18
-35.17
-34.34
-34.03
-33.34
-31.32
-27.34
-21.15
-12.98
-3.46
6.54
16.08
24.34
30.87
35.59
38.81
41.01
42.7
44.1
45.22
45.82
45.63
44.46
42.35
39.53
36.32
33.09
30.14
27.7
25.85
24.5
23.36
22.07
20.26
17.69
14.32
10.35
6.15
2.14
-1.25
-3.77
-5.37
-6.13
-6.28
-6.07
-5.66
-5.12
-4.34
-3.16
-1.46
0.79
3.46
6.25
8.89
11.16
13.03
14.62
16.15
17.87
19.92
22.27
24.73
26.97
28.65
29.6
29.89
29.87
30.08
31.04
33.01
35.88
39.22
42.42
44.89
46.14
45.89
43.88
39.97
34.06
26.27
16.96
6.72
-3.76
-13.78
-22.84
-30.62
-36.98
-41.96
-45.73
-48.51
-50.53
-51.98
-52.95
-53.45
-53.52
-53.22
-52.7
-52.11
-51.48
-50.73
-49.65
-48.08
-45.93
-43.34
-40.52
-37.6
-34.58
-31.26
-27.42
-22.97
-18.11
-13.28
-8.95
-5.47
-2.88
-0.94
0.62
1.91
2.77
2.88
1.88
-0.32
-3.47
-7.06
-10.41
-12.94
-14.35
-14.63
-14.05
-12.97
-11.62
-10
-7.82
-4.7
-0.29
5.41
11.99
18.69
24.65
29.1
31.53
31.79
30
26.54
21.95
16.94
12.29
8.68
6.52
5.8
6.05
6.49
6.38
5.22
3.06
0.32
-2.33
-4.34
-5.45
-5.76
-5.58
-5.27
-5.07
-5.02
-5.08
-5.14
-5.15
-5.08
-4.93
-4.65
-4.17
-3.44
-2.44
-1.23
-0.01
0.99
1.47
1.24
0.27
-1.24
-2.89
-4.18
-4.63
-3.93
-2
0.93
4.44
7.98
11.02
13.22
14.45
14.82
14.54
13.79
12.58
10.8
8.18
4.52
-0.25
-5.93
-12.13
-18.24
-23.65
-27.83
-30.45
-31.36
-30.67
-28.55
-25.2
-20.83
-15.65
-9.93
-4.03
1.65
6.72
10.85
13.86
15.68
16.43
16.37
15.91
15.55
15.78
16.83
18.55
20.42
21.72
21.8
20.41
17.82
14.72
11.95
10.19
9.75
10.58
12.35
14.65
17.08
19.32
21.11
22.26
22.65
22.26
21.25
19.97
18.92
18.63
19.52
21.7
24.93
28.65
32.12
34.6
35.57
34.83
32.59
29.37
26
23.36
22.04
22.05
22.64
22.4
19.88
14.13
5.22
-5.71
-16.92
-26.76
-34.3
-39.49
-43.04
-45.82
-48.47
-51.13
-53.58
-55.52
-56.76
-57.37
-57.54
-57.38
-56.79
-55.43
-52.85
-48.71
-43.02
-36.22
-28.94
-21.88
-15.54
-10.16
-5.76
-2.23
0.51
2.57
4.03
5.08
5.95
6.82
7.79
8.83
9.81
10.6
11.06
11.17
10.92
10.38
9.64
8.81
8.01
7.35
6.87
6.53
6.17
5.52
4.26
2.18
-0.75
-4.22
-7.7
-10.53
-12.23
-12.6
-11.83
-10.34
-8.61
-6.93
-5.37
-3.76
-1.91
0.35
3
5.92
8.91
11.78
14.46
16.95
19.25
21.28
22.85
23.71
23.61
22.52
20.65
18.41
16.29
14.61
13.42
12.48
11.42
9.86
7.61
4.67
1.23
-2.42
-5.96
-9.07
-11.47
-12.9
-13.23
-12.44
-10.74
-8.48
-6.08
-3.92
-2.21
-0.98
-0.14
0.47
0.97
1.35
1.61
1.7
1.68
1.62
1.67
1.85
2.07
2.12
1.75
0.82
-0.57
-2.11
-3.37
-3.95
-3.7
-2.67
-1.1
0.7
2.53
4.28
5.87
7.22
8.22
8.79
9.02
9.15
9.54
10.51
12.23
14.63
17.5
20.55
23.59
26.49
29.27
32.01
34.86
37.98
41.49
45.39
49.54
53.66
57.46
60.84
63.91
66.95
70.13
73.37
76.29
78.4
79.44
79.59
79.51
80.02
81.77
84.84
88.86
93.18
97.29
101.04
104.62
108.23
111.75
114.61
115.92
114.82
110.75
103.46
92.84
78.71
60.7
38.72
13.49
-13.09
-38.34
-59.79
-76.41
-89.33
-101.4
-115.72
-133.81
-154.66
-175.19
-191.87
-202.69
-207.84
-208.99
-207.31
-202.05
-190.76
-171.01
-142.91
-110.45
-80.55
-60.45
-54.61
-63.07
-81.7
-104.36
-125.1
-139.61
-145.38
-141.27
-127.29
-104.8
-76.6
-46.78
-19.72
1.3
15.07
22.57
26.05
27.75
28.81
29.21
28.37
26.03
22.79
19.98
19.01
20.28
22.69
23.69
20.37
10.99
-3.9
-21.24
-36.68
-46.36
-48.52
-43.97
-35.45
-26.29
-19.06
-14.87
-13.38
-13.32
-13.08
-11.14
-6.21
2.48
14.99
30.43
47.11
62.91
75.78
84.24
87.54
85.83
80.1
72.12
64.16
58.43
56.38
58.13
62.36
66.8
69.24
68.41
64.51
59.08
54.14
51.15
50.32
50.56
50.05
47.34
41.99
34.93
27.95
23
21.38
23.45
28.65
35.64
42.42
45.98
42.58
28.81
3.58
-29.89
-64.05
-89.17
-97.55
-87.28
-63.56
-36.38
-15.82
-7.42
-10.43
-19.67
-29.28
-36.11
-40.52
-44.76
-50.27
-56.16
-59.73
-58.4
-51.59
-40.96
-29.2
-17.98
-6.8
6.73
25.15
49.06
76.26
102.26
122.05
131.85
130.13
117.64
96.55
69.62
39.73
9.73
-17.65
-39.91
-55.63
-64.82
-68.87
-70.14
-71.04
-73.21
-77.17
-82.54
-88.4
-93.85
-98.13
-100.65
-100.89
-98.26
-92.11
-81.9
-67.5
-49.41
-29
-8.24
10.59
25.4
34.9
38.86
38.24
34.89
31.17
29.4
31.4
37.98
48.57
61.21
72.98
80.88
82.86
78.52
69.28
57.75
46.83
38.81
34.85
34.88
37.9
42.36
46.54
48.81
47.94
43.37
35.42
25.2
14.4
4.73
-2.45
-6.46
-7.3
-5.45
-1.72
2.95
7.56
11.14
12.9
12.43
9.82
5.7
1.11
-2.87
-5.38
-6.03
-4.94
-2.6
0.3
3.24
6
8.75
11.95
16.08
21.34
27.55
34.12
40.2
44.89
47.42
47.27
44.37
39.31
33.39
28.43
26.18
27.55
32.07
37.85
42.14
42.58
38.14
29.48
18.39
6.71
-4.68
-16.18
-28.79
-43.06
-58.2
-72.17
-82.63
-88.18
-89.33
-88.22
-87.59
-89.36
-93.78
-99.53
-104.73
-107.95
-108.7
-107.21
-103.72
-97.94
-89.03
-76.31
-59.95
-41.46
-23.44
-8.71
0.55
3.45
0.54
-6.56
-15.77
-25.11
-33.07
-38.95
-42.79
-45.29
-47.3
-49.48
-51.85
-53.68
-53.84
-51.16
-44.92
-35.1
-22.25
-7.24
8.96
25.44
41.26
55.41
66.85
74.73
78.53
78.24
74.28
67.4
58.45
48.25
37.54
26.9
16.78
7.38
-1.31
-9.41
-17.05
-24.05
-29.91
-33.79
-34.79
-32.35
-26.52
-18.09
-8.33
1.3
9.68
16.19
20.81
23.9
25.89
27.2
28.1
28.76
29.27
29.76
30.31
30.94
31.59
32.05
32.03
31.16
29.2
26.2
22.58
19.1
16.52
15.38
15.67
16.91
18.37
19.4
19.62
18.98
17.64
15.74
13.3
10.19
6.3
1.62
-3.71
-9.43
-15.33
-21.2
-26.81
-31.8
-35.7
-37.95
-38.12
-36.03
-31.83
-25.93
-18.84
-11.07
-3.05
4.82
12.16
18.54
23.64
27.29
29.6
30.92
31.7
32.33
33.03
33.8
34.42
34.55
33.9
32.36
30.06
27.29
24.34
21.33
18.13
14.47
10.11
5.06
-0.41
-5.85
-10.83
-15.06
-18.38
-20.75
-22.06
-22.13
-20.79
-18.04
-14.06
-9.23
-3.85
1.94
8.2
15
22.32
29.8
36.84
42.85
47.46
50.73
53.14
55.35
57.94
61.11
64.57
67.66
69.59
69.7
67.62
63.47
57.73
51.1
44.21
37.48
31.03
24.79
18.64
12.57
6.73
1.27
-3.66
-8.07
-11.99
-15.39
-18.07
-19.69
-19.93
-18.72
-16.31
-13.2
-9.93
-6.84
-3.98
-1.13
1.92
5.2
8.42
11.02
12.41
12.2
10.33
7.14
3.26
-0.56
-3.78
-6.26
-8.28
-10.48
-13.57
-18.07
-24.06
-31.15
-38.61
-45.64
-51.64
-56.27
-59.53
-61.49
-62.26
-61.93
-60.63
-58.71
-56.69
-55.13
-54.41
-54.4
-54.55
-53.98
-51.89
-47.9
-42.06
-34.81
-26.64
-17.84
-8.53
1.26
11.29
20.94
29.3
35.43
38.75
39.26
37.63
34.87
32.05
29.95
28.94
28.95
29.65
30.54
31.13
31.03
30.03
28.19
25.82
23.37
21.31
20.03
19.64
20.07
21.03
22.04
22.52
21.91
19.86
16.41
12.07
7.67
4.22
2.52
3.03
5.83
10.62
16.86
23.89
31.02
37.68
43.58
48.76
53.44
57.82
61.78
64.8
66.19
65.35
62.19
57.11
50.96
44.63
38.82
33.93
30.06
27.13
24.85
22.75
20.18
16.52
11.41
4.98
-2.22
-9.4
-15.92
-21.6
-26.69
-31.76
-37.35
-43.63
-50.28
-56.45
-61.1
-63.28
-62.54
-59.04
-53.47
-46.8
-39.94
-33.47
-27.66
-22.54
-18.11
-14.39
-11.49
-9.48
-8.31
-7.82
-7.74
-7.72
-7.42
-6.57
-5.01
-2.74
0.07
3.1
6.01
8.53
10.48
11.8
12.48
12.48
11.78
10.28
8
5.06
1.67
-1.9
-5.47
-8.97
-12.56
-16.45
-20.88
-25.94
-31.52
-37.34
-43.03
-48.28
-52.93
-56.95
-60.41
-63.4
-66.05
-68.42
-70.62
-72.69
-74.57
-76.04
-76.66
-75.92
-73.4
-69.02
-63.14
-56.53
-50.08
-44.51
-40.15
-36.86
-34.2
-31.71
-29.04
-26.1
-22.92
-19.59
-16.19
-12.77
-9.42
-6.22
-3.2
-0.26
2.82
6.26
10.07
13.94
17.25
19.32
19.67
18.25
15.43
11.92
8.46
5.76
4.29
4.27
5.73
8.39
11.81
15.53
19.16
22.59
25.94
29.49
33.49
37.98
42.75
47.48
51.75
55.24
57.77
59.37
60.28
60.94
61.81
63.17
64.95
66.68
67.68
67.24
64.92
60.67
54.69
47.37
39.1
30.26
21.12
11.96
2.97
-5.68
-13.84
-21.38
-28.14
-34.03
-38.98
-42.97
-45.95
-47.84
-48.51
-47.91
-46.16
-43.58
-40.67
-37.92
-35.69
-34.14
-33.31
-33.17
-33.68
-34.78
-36.31
-38.04
-39.72
-41.16
-42.3
-43.21
-44.06
-44.93
-45.78
-46.41
-46.52
-45.88
-44.56
-42.92
-41.56
-41.14
-42.02
-44.17
-47.14
-50.33
-53.23
-55.65
-57.6
-59.2
-60.46
-61.16
-60.99
-59.67
-57.13
-53.47
-48.96
-43.88
-38.44
-32.78
-26.96
-21.07
-15.22
-9.5
-3.89
1.76
7.74
14.38
21.82
29.99
38.47
46.61
53.7
59.23
62.97
65.09
66.01
66.2
66.04
65.76
65.42
65
64.45
63.66
62.46
60.6
57.78
53.87
48.99
43.5
37.96
32.81
28.22
24.05
19.89
15.33
10.14
4.37
-1.63
-7.31
-12.07
-15.41
-17.08
-17.08
-15.71
-13.48
-11.04
-8.99
-7.78
-7.58
-8.38
-10
-12.26
-15.07
-18.44
-22.36
-26.68
-31.01
-34.78
-37.5
-38.9
-39.2
-38.89
-38.56
-38.61
-39.07
-39.61
-39.64
-38.52
-35.75
-31.15
-24.97
-17.97
-11.23
-5.89
-2.8
-2.16
-3.47
-5.63
-7.41
-7.84
-6.48
-3.5
0.55
5.03
9.46
13.66
17.72
21.78
25.86
29.66
32.74
34.65
35.21
34.61
33.28
31.65
29.87
27.73
24.83
20.9
16.12
11.11
6.69
3.55
1.88
1.35
1.27
0.97
0.1
-1.34
-3.06
-4.72
-6.15
-7.39
-8.59
-9.87
-11.23
-12.43
-13.11
-12.94
-11.7
-9.35
-6.01
-1.9
2.63
7.23
11.57
15.43
18.84
22.09
25.62
29.73
34.39
39.16
43.26
45.98
46.9
46.06
43.94
41.13
38.09
35.06
32.06
29.14
26.46
24.35
23.11
22.77
23.04
23.44
23.51
23.08
22.33
21.68
21.53
22.04
22.97
23.79
23.88
22.8
20.42
17.05
13.29
9.84
7.28
5.81
5.26
5.23
5.3
5.24
5.05
4.82
4.54
3.95
2.72
0.53
-2.59
-6.29
-9.96
-13.01
-15.16
-16.42
-17.04
-17.3
-17.33
-17.11
-16.53
-15.56
-14.35
-13.22
-12.46
-12.27
-12.65
-13.4
-14.3
-15.17
-15.95
-16.62
-17.16
-17.47
-17.5
-17.21
-16.68
-16.06
-15.49
-15.05
-14.74
-14.52
-14.28
-13.93
-13.27
-12.08
-10.12
-7.27
-3.65
0.39
4.26
7.4
9.38
10.22
10.26
10.14
10.48
11.64
13.62
16.03
18.3
19.94
20.72
20.65
19.97
18.92
17.62
16.03
14.07
11.73
9.08
6.32
3.63
1.15
-1.11
-3.26
-5.42
-7.63
-9.7
-11.22
-11.59
-10.31
-7.25
-2.75
2.44
7.45
11.62
14.76
17.1
19.1
21.12
23.23
25.18
26.59
27.05
26.4
24.72
22.23
19.29
16.16
12.96
9.66
6.08
2.06
-2.51
-7.65
-13.27
-19.15
-24.93
-30.1
-34.09
-36.38
-36.74
-35.43
-33.12
-30.78
-29.21
-28.76
-29.14
-29.48
-28.63
-25.56
-19.67
-10.97
-0.1
12
24.28
35.81
45.96
54.35
60.83
65.34
67.99
68.98
68.71
67.72
66.6
65.66
64.82
63.53
60.99
56.59
50.18
42.26
33.77
25.74
18.81
13.07
8.13
3.41
-1.5
-6.73
-12.18
-17.7
-23.28
-28.98
-34.93
-41.09
-47.18
-52.68
-57.01
-59.73
-60.64
-59.95
-58.07
-55.53
-52.72
-49.78
-46.61
-42.92
-38.48
-33.21
-27.33
-21.25
-15.47
-10.4
-6.27
-3.08
-0.64
1.23
2.7
3.83
4.59
4.94
4.84
4.33
3.52
2.51
1.42
0.36
-0.66
-1.68
-2.79
-4.12
-5.79
-7.9
-10.46
-13.46
-16.74
-20.04
-23.04
-25.41
-26.88
-27.38
-26.99
-25.97
-24.65
-23.28
-22.02
-20.87
-19.72
-18.49
-17.14
-15.78
-14.56
-13.66
-13.16
-12.95
-12.81
-12.45
-11.72
-10.64
-9.41
-8.33
-7.62
-7.32
-7.31
-7.37
-7.28
-6.98
-6.57
-6.24
-6.17
-6.5
-7.29
-8.5
-10.05
-11.79
-13.55
-15.08
-16.11
-16.38
-15.77
-14.33
-12.33
-10.12
-7.99
-6.1
-4.4
-2.76
-1.09
0.55
1.96
2.93
3.32
3.16
2.57
1.71
0.61
-0.77
-2.48
-4.52
-6.75
-9
-11.16
-13.24
-15.33
-17.57
-20.01
-22.64
-25.43
-28.4
-31.58
-35.01
-38.65
-42.24
-45.39
-47.67
-48.69
-48.27
-46.38
-43.1
-38.59
-32.99
-26.46
-19.24
-11.68
-4.17
2.9
9.26
14.8
19.57
23.76
27.52
30.95
34.01
36.5
38.17
38.87
38.57
37.52
36.09
34.72
33.69
33.05
32.61
31.99
30.86
28.96
26.25
22.88
19.08
15.2
11.6
8.65
6.69
6.02
6.82
9.08
12.57
16.84
21.32
25.44
28.77
31.07
32.3
32.51
31.77
30.13
27.62
24.33
20.46
16.35
12.4
9.03
6.52
5.02
4.4
4.39
4.65
4.88
4.89
4.64
4.15
3.5
2.74
1.91
0.93
-0.29
-1.93
-4.2
-7.25
-11.2
-15.98
-21.32
-26.71
-31.54
-35.26
-37.49
-38.17
-37.52
-35.94
-33.81
-31.39
-28.75
-25.86
-22.62
-19.06
-15.38
-11.86
-8.89
-6.76
-5.6
-5.32
-5.66
-6.28
-6.92
-7.46
-7.92
-8.34
-8.68
-8.78
-8.46
-7.63
-6.35
-4.81
-3.21
-1.58
0.16
2.09
4.18
6.09
7.32
7.37
6
3.26
-0.42
-4.44
-8.19
-11.12
-12.86
-13.24
-12.35
-10.47
-7.99
-5.29
-2.58
0.08
2.75
5.47
8.25
11.01
13.63
16.03
18.23
20.26
22.12
23.79
25.16
26.13
26.68
26.86
26.84
26.78
26.73
26.62
26.23
25.31
23.78
21.69
19.33
17.02
15.05
13.49
12.27
11.21
10.16
9.04
7.8
6.42
4.92
3.3
1.72
0.45
-0.2
0.01
1.06
2.7
4.54
6.23
7.57
8.64
9.7
11.02
12.83
15.25
18.21
21.59
25.22
28.88
32.39
35.6
38.47
41.02
43.37
45.61
47.77
49.75
51.37
52.42
52.72
52.17
50.76
48.5
45.37
41.33
36.41
30.73
24.6
18.37
12.51
7.36
3.17
0.07
-1.99
-3.13
-3.6
-3.72
-3.83
-4.23
-5.14
-6.62
-8.57
-10.78
-12.96
-14.82
-16.12
-16.73
-16.65
-15.98
-14.99
-13.94
-13.06
-12.53
-12.39
-12.58
-12.95
-13.35
-13.71
-14.07
-14.56
-15.38
-16.64
-18.36
-20.39
-22.43
-24.17
-25.29
-25.59
-25.01
-23.7
-21.93
-20.09
-18.44
-17.12
-16.04
-14.99
-13.74
-12.15
-10.24
-8.16
-6.14
-4.5
-3.6
-3.73
-5.06
-7.57
-11.01
-14.96
-19.05
-23.02
-26.84
-30.6
-34.3
-37.68
-40.14
-40.73
-38.56
-33.1
-24.6
-14.06
-2.98
7.07
14.95
20.2
22.94
23.64
22.84
21.06
18.81
16.65
15.18
14.79
15.53
17.03
18.67
19.77
19.95
19.15
17.7
16.13
14.99
14.68
15.31
16.65
18.24
19.53
20.05
19.64
18.42
16.72
14.93
13.24
11.59
9.74
7.36
4.33
0.82
-2.69
-5.66
-7.69
-8.75
-9.15
-9.4
-9.91
-10.82
-12
-13.1
-13.8
-13.93
-13.43
-12.34
-10.75
-8.73
-6.43
-4.06
-1.9
-0.2
0.87
1.27
1.05
0.39
-0.51
-1.41
-2.04
-2.18
-1.69
-0.59
0.96
2.62
4.04
4.92
5.09
4.56
3.43
1.84
-0.03
-1.98
-3.74
-5.05
-5.65
-5.42
-4.47
-3.1
-1.81
-1.18
-1.65
-3.52
-6.69
-10.83
-15.22
-19.07
-21.57
-22.23
-20.96
-18.09
-14.3
-10.34
-6.81
-4.06
-2.14
-0.93
-0.27
-0.07
-0.24
-0.66
-1.06
-1.07
-0.32
1.42
4.11
7.48
11.08
14.5
17.35
19.43
20.58
20.68
19.66
17.43
14.03
9.56
4.31
-1.32
-6.78
-11.44
-14.75
-16.42
-16.52
-15.52
-14.18
-13.22
-13.13
-14
-15.55
-17.36
-19.06
-20.45
-21.52
-22.36
-23.09
-23.81
-24.58
-25.34
-25.88
-25.81
-24.73
-22.43
-18.98
-14.81
-10.38
-5.97
-1.49
3.39
8.84
14.63
20.08
24.42
27.27
28.88
30.05
31.63
34
36.88
39.57
41.37
42.01
41.8
41.43
41.46
42.11
43.15
44.11
44.56
44.28
43.29
41.72
39.64
37.05
33.88
30.17
26.13
22.12
18.49
15.44
12.87
10.49
8.02
5.4
2.81
0.62
-0.82
-1.39
-1.19
-0.47
0.55
1.71
2.96
4.15
5.07
5.44
5.06
3.98
2.54
1.18
0.26
-0.13
-0.29
-0.71
-1.89
-4.08
-7.15
-10.75
-14.47
-18.16
-21.99
-26.33
-31.42
-37.14
-42.91
-47.95
-51.58
-53.51
-53.92
-53.25
-51.93
-50.23
-48.23
-45.97
-43.54
-41.18
-39.07
-37.25
-35.57
-33.71
-31.38
-28.45
-25.03
-21.44
-18.08
-15.3
-13.21
-11.75
-10.7
-9.92
-9.41
-9.31
-9.88
-11.31
-13.55
-16.3
-19.14
-21.67
-23.67
-25.19
-26.44
-27.66
-29.01
-30.52
-32.07
-33.55
-34.78
-35.64
-36.04
-35.94
-35.38
-34.49
-33.49
-32.55
-31.68
-30.74
-29.51
-27.85
-25.85
-23.78
-21.93
-20.44
-19.1
-17.51
-15.2
-11.93
-7.75
-2.94
2.13
7.12
11.79
15.96
19.49
22.26
24.23
25.44
26.03
26.22
26.21
26.15
26.05
25.75
24.87
23.03
19.98
15.86
11.23
6.98
3.97
2.79
3.52
5.78
8.93
12.23
15.05
16.87
17.38
16.45
14.21
11.08
7.71
4.81
2.99
2.55
3.41
5.15
7.18
8.97
10.19
10.86
11.25
11.71
12.52
13.64
14.82
15.65
15.81
15.22
14.07
12.74
11.66
11.21
11.62
12.99
15.27
18.18
21.23
23.82
25.36
25.55
24.42
22.3
19.65
16.82
14.07
11.51
9.26
7.46
6.25
5.65
5.6
5.94
6.57
7.52
8.91
10.88
13.45
16.55
20.03
23.77
27.75
31.98
36.41
40.83
44.84
47.86
49.34
48.9
46.46
42.35
37.15
31.57
26.14
21.18
16.69
12.49
8.4
4.33
0.36
-3.15
-5.67
-6.6
-5.51
-2.3
2.52
8.03
13.06
16.64
18.3
18.25
17.25
16.27
16.2
17.62
20.65
25
30.06
35.13
39.56
42.95
45.29
46.88
48.2
49.74
51.78
54.3
56.89
58.75
58.87
56.32
50.64
42.05
31.46
20.16
9.33
-0.28
-8.46
-15.34
-21.1
-25.74
-29.13
-31.16
-31.93
-31.71
-30.92
-29.92
-28.95
-28.17
-27.62
-27.31
-27.17
-27.12
-26.99
-26.68
-26.19
-25.59
-25.04
-24.66
-24.5
-24.49
-24.57
-24.73
-25.02
-25.58
-26.51
-27.81
-29.36
-30.97
-32.43
-33.59
-34.3
-34.47
-33.99
-32.86
-31.25
-29.48
-27.94
-26.94
-26.62
-26.87
-27.49
-28.24
-28.91
-29.36
-29.46
-29.15
-28.48
-27.65
-26.98
-26.78
-27.16
-27.87
-28.37
-28
-26.23
-22.83
-18.01
-12.23
-6.12
-0.28
4.79
8.74
11.37
12.64
12.65
11.62
9.87
7.72
5.52
3.5
1.76
0.23
-1.28
-3.11
-5.52
-8.64
-12.36
-16.3
-19.9
-22.55
-23.79
-23.4
-21.6
-18.84
-15.72
-12.69
-9.99
-7.54
-5.14
-2.52
0.51
4.07
8.22
12.84
17.59
21.87
24.96
26.37
26.1
24.71
23.11
22.16
22.32
23.48
25.22
26.98
28.41
29.34
29.71
29.49
28.59
26.93
24.52
21.51
18.15
14.66
11.22
7.92
4.79
1.79
-1.1
-3.87
-6.53
-9.04
-11.32
-13.34
-15.02
-16.3
-17.14
-17.54
-17.54
-17.25
-16.8
-16.39
-16.19
-16.33
-16.84
-17.65
-18.67
-19.81
-21.06
-22.58
-24.57
-27.18
-30.38
-33.96
-37.51
