90.06
85.23
79.47
73.11
66.64
60.38
54.21
47.83
40.97
33.71
26.42
19.65
13.74
8.68
4.16
-0.15
-4.35
-8.14
-10.96
-12.27
-11.82
-9.82
-6.89
-3.79
-1.09
0.86
2.05
2.67
2.93
2.99
2.9
2.65
2.23
1.65
1.01
0.44
0.06
-0.04
0.1
0.4
0.72
0.98
1.16
1.26
1.28
1.13
0.7
-0.22
-1.76
-4.01
-6.97
-10.51
-14.34
-17.96
-20.7
-21.87
-21
-18
-13.27
-7.63
-2.01
2.78
6.22
8.22
8.97
8.83
8.16
7.21
6.13
5.05
4.09
3.41
3.15
3.35
3.87
4.44
4.74
4.53
3.8
2.67
1.39
0.11
-1.15
-2.52
-4.23
-6.44
-9.15
-12.19
-15.14
-17.46
-18.57
-18.08
-15.88
-12.3
-7.97
-3.65
-0
2.63
4.26
5.11
5.49
5.55
5.29
4.62
3.52
2.14
0.86
0.12
0.33
1.61
3.78
6.32
8.62
10.05
10.27
9.26
7.29
4.87
2.44
0.34
-1.34
-2.75
-4.12
-5.71
-7.69
-10.05
-12.61
-15
-16.79
-17.49
-16.8
-14.65
-11.31
-7.27
-3.12
0.65
3.76
6.16
7.96
9.22
10.02
10.42
10.61
10.81
11.27
12.1
13.25
14.49
15.55
16.27
16.59
16.59
16.33
15.82
14.99
13.79
12.16
10.12
7.77
5.16
2.35
-0.61
-3.77
-7.11
-10.6
-14.06
-17.1
-19.17
-19.77
-18.62
-15.79
-11.79
-7.32
-3.05
0.56
3.38
5.43
6.78
7.41
7.33
6.62
5.58
4.69
4.45
5.07
6.39
7.84
8.64
8.08
5.81
1.98
-2.8
-7.72
-11.95
-15.03
-16.92
-17.99
-18.82
-20
-21.92
-24.73
-28.27
-32.18
-35.92
-38.9
-40.53
-40.37
-38.24
-34.27
-28.89
-22.71
-16.32
-10.19
-4.59
0.35
4.59
8.11
10.89
12.99
14.52
15.69
16.74
17.92
19.29
20.79
22.18
23.27
23.85
23.93
23.61
23.06
22.42
21.74
20.98
20.07
18.95
17.57
15.86
13.82
11.44
8.85
6.29
4.1
2.57
1.86
1.94
2.62
3.7
4.95
6.27
7.6
8.83
9.83
10.46
10.6
10.3
9.71
9.05
8.48
8.09
7.87
7.77
7.72
7.7
7.63
7.48
7.14
6.56
5.72
4.71
3.63
2.63
1.72
0.85
-0.09
-1.21
-2.56
-4.15
-5.89
-7.59
-8.98
-9.76
-9.7
-8.82
-7.32
-5.61
-4.08
-2.95
-2.24
-1.74
-1.27
-0.71
-0.13
0.35
0.59
0.58
0.47
0.48
0.83
1.67
2.97
4.57
6.17
7.43
8.03
7.77
6.62
4.74
2.4
-0.13
-2.6
-4.93
-7.12
-9.26
-11.4
-13.51
-15.47
-17.08
-18.14
-18.54
-18.26
-17.37
-15.92
-13.99
-11.61
-8.83
-5.75
-2.53
0.56
3.28
5.43
6.92
7.79
8.18
8.26
8.13
7.89
7.55
7.13
6.71
6.37
6.21
6.31
6.7
7.35
8.17
8.93
9.41
9.34
8.54
6.99
4.84
2.4
0.04
-1.86
-3.04
-3.35
-2.79
-1.5
0.31
2.3
4.23
5.88
7.14
8.02
8.57
8.87
9
9.03
9.03
9.04
9.03
8.94
8.71
8.31
7.76
7.11
6.44
5.76
5.05
4.24
3.33
2.33
1.3
0.28
-0.76
-1.89
-3.2
-4.74
-6.49
-8.39
-10.29
-12.01
-13.31
-13.95
-13.74
-12.64
-10.75
-8.38
-5.88
-3.6
-1.79
-0.46
0.48
1.23
1.93
2.63
3.28
3.81
4.15
4.3
4.27
4.09
3.75
3.17
2.32
1.2
-0.06
-1.25
-2.21
-2.83
-3.12
-3.2
-3.22
-3.3
-3.5
-3.87
-4.44
-5.21
-6.15
-7.15
-8.06
-8.74
-9.04
-8.88
-8.24
-7.16
-5.73
-4.13
-2.56
-1.18
-0.03
0.95
1.91
2.95
4.06
5.09
5.91
6.5
6.99
7.6
8.52
9.7
10.92
11.85
12.2
11.9
11.07
9.96
8.8
7.76
6.84
5.95
4.88
3.36
1.05
-2.38
-7.05
-12.68
-18.52
-23.44
-26.23
-26.08
-22.87
-17.33
-10.75
-4.5
0.38
3.49
5.14
6.03
6.93
8.37
10.47
13
15.45
17.31
18.15
17.83
16.51
14.5
12.23
10.03
8.07
6.38
4.89
3.51
2.14
0.64
-1.16
-3.41
-6.16
-9.24
-12.27
-14.71
-16.16
-16.51
-15.95
-14.92
-13.8
-12.78
-11.87
-10.93
-9.84
-8.57
-7.15
-5.65
-4.07
-2.37
-0.5
1.55
3.65
5.58
7.06
7.85
7.92
7.37
6.45
5.4
4.44
3.66
3.03
2.5
1.96
1.36
0.65
-0.15
-0.94
-1.6
-2.08
-2.39
-2.7
-3.23
-4.14
-5.46
-7.01
-8.5
-9.6
-10.14
-10.07
-9.52
-8.67
-7.64
-6.45
-5.06
-3.39
-1.46
0.61
2.63
4.37
5.69
6.52
6.94
7.09
7.14
7.21
7.35
7.55
7.72
7.76
7.64
7.4
7.15
6.97
6.91
6.93
6.91
6.75
6.38
5.81
5.09
4.26
3.36
2.42
1.46
0.6
-0.08
-0.41
-0.28
0.38
1.55
3.12
4.89
6.68
8.27
9.52
10.29
10.41
9.76
8.3
6.2
3.88
1.83
0.54
0.22
0.73
1.65
2.45
2.72
2.26
1.11
-0.58
-2.6
-4.79
-7.04
-9.32
-11.72
-14.39
-17.52
-21.2
-25.35
-29.66
-33.61
-36.66
-38.43
-38.75
-37.68
-35.43
-32.21
-28.23
-23.66
-18.72
-13.7
-8.86
-4.41
-0.46
3.06
6.25
9.18
11.8
13.97
15.51
16.29
16.33
15.7
14.57
13.06
11.32
9.45
7.66
6.21
5.35
5.2
5.58
6.04
6.02
5.11
3.2
0.66
-1.92
-3.93
-5
-5.12
-4.6
-3.85
-3.2
-2.77
-2.48
-2.14
-1.52
-0.48
0.98
2.75
4.66
6.52
8.22
9.68
10.82
11.58
11.83
11.53
10.67
9.32
7.57
5.54
3.31
1
-1.23
-3.08
-4.22
-4.38
-3.52
-1.94
-0.15
1.28
2.01
1.96
1.41
0.74
0.31
0.26
0.59
1.21
2.07
3.25
4.8
6.71
8.83
10.87
12.55
13.69
14.29
14.49
14.53
14.55
14.63
14.72
14.72
14.52
14.04
13.24
12.11
10.69
9.01
7.14
5.14
3.1
1.14
-0.61
-2.1
-3.32
-4.39
-5.49
-6.77
-8.31
-10.03
-11.74
-13.17
-14.12
-14.49
-14.28
-13.55
-12.36
-10.77
-8.8
-6.54
-4.17
-1.91
-0.05
1.24
1.94
2.19
2.24
2.31
2.52
2.81
3.02
2.96
2.6
2
1.31
0.65
0.08
-0.43
-0.91
-1.39
-1.87
-2.4
-3.09
-4.06
-5.39
-7.12
-9.12
-11.18
-13.08
-14.6
-15.51
-15.68
-14.96
-13.33
-10.96
-8.12
-5.23
-2.64
-0.55
1.02
2.23
3.29
4.33
5.41
6.47
7.39
8.04
8.32
8.11
7.37
6.12
4.5
2.73
1.09
-0.2
-1.03
-1.38
-1.34
-1.03
-0.61
-0.23
-0.11
-0.47
-1.47
-3.14
-5.34
-7.75
-9.9
-11.39
-11.92
-11.48
-10.29
-8.7
-7.05
-5.54
-4.17
-2.85
-1.47
-0.03
1.38
2.59
3.42
3.78
3.75
3.47
3.17
3.04
3.15
3.45
3.73
3.77
3.39
2.52
1.24
-0.35
-2.18
-4.18
-6.31
-8.46
-10.44
-12.12
-13.45
-14.59
-15.84
-17.46
-19.51
-21.75
-23.72
-24.87
-24.79
-23.35
-20.76
-17.42
-13.84
-10.39
-7.24
-4.27
-1.15
2.47
6.74
11.47
16.13
20.02
22.55
23.49
23.04
21.78
20.37
19.32
18.82
18.74
18.83
18.78
18.41
17.62
16.39
14.74
12.71
10.4
7.97
5.56
3.24
1.01
-1.21
-3.45
-5.67
-7.7
-9.36
-10.46
-10.92
-10.75
-10.01
-8.81
-7.23
-5.38
-3.4
-1.41
0.44
2.03
3.17
3.78
3.82
3.38
2.64
1.86
1.24
0.87
0.72
0.67
0.62
0.5
0.32
0.13
-0.02
-0.13
-0.22
-0.36
-0.62
-1.06
-1.7
-2.52
-3.46
-4.42
-5.32
-6.05
-6.5
-6.59
-6.27
-5.5
-4.3
-2.72
-0.82
1.32
3.62
5.98
8.2
10.12
11.61
12.65
13.32
13.76
14.08
14.33
14.43
14.28
13.87
13.21
12.4
11.49
10.49
9.39
8.18
6.98
5.97
5.36
5.18
5.28
5.3
4.83
3.55
1.37
-1.59
-5.01
-8.46
-11.46
-13.49
-14.18
-13.34
-11.13
-8
-4.53
-1.28
1.46
3.66
5.51
7.15
8.58
9.69
10.32
10.42
10.11
9.6
9.05
8.53
7.98
7.26
6.34
5.27
4.23
3.4
2.93
2.77
2.77
2.69
2.32
1.56
0.44
-0.9
-2.39
-4.01
-5.84
-7.91
-10.1
-12.1
-13.48
-13.92
-13.29
-11.79
-9.8
-7.71
-5.81
-4.21
-2.89
-1.81
-0.95
-0.3
0.2
0.67
1.25
2.04
3
3.98
4.79
5.28
5.45
5.44
5.41
5.5
5.73
6
6.17
6.09
5.76
5.2
4.54
3.85
3.18
2.49
1.76
1.02
0.37
0.01
0.12
0.8
2.02
3.64
5.45
7.23
8.82
10.05
10.82
11.04
10.68
9.72
8.29
6.51
4.57
2.65
0.86
-0.7
-2.01
-3.1
-4.07
-5.02
-6.02
-7.07
-8.13
-9.13
-10.09
-11.14
-12.43
-14.05
-15.98
-18.04
-20.03
-21.76
-23.16
-24.25
-25.09
-25.59
-25.58
-24.83
-23.16
-20.64
-17.54
-14.28
-11.24
-8.66
-6.61
-5.03
-3.82
-2.9
-2.24
-1.71
-1.15
-0.32
0.93
2.46
3.9
4.69
4.39
2.83
0.34
-2.39
-4.63
-5.83
-5.82
-4.8
-3.18
-1.33
0.48
2.11
3.48
4.51
5.09
5.2
4.91
4.46
4.17
4.3
5.01
6.27
7.83
9.42
10.73
11.56
11.83
11.54
10.75
9.5
7.84
5.84
3.62
1.36
-0.76
-2.6
-4.11
-5.33
-6.34
-7.22
-7.97
-8.57
-9.02
-9.3
-9.51
-9.8
-10.37
-11.34
-12.77
-14.55
-16.43
-18.07
-19.11
-19.29
-18.5
-16.82
-14.47
-11.74
-8.85
-5.96
-3.15
-0.46
2.05
4.32
6.26
7.82
8.98
9.74
10.12
10.18
10.02
9.75
9.49
9.33
9.28
9.19
8.86
8.1
6.78
4.93
2.76
0.55
-1.43
-3.09
-4.5
-5.91
-7.62
-9.8
-12.49
-15.48
-18.45
-21
-22.74
-23.38
-22.77
-20.92
-18
-14.32
-10.29
-6.32
-2.76
0.18
2.45
4.05
5.11
5.8
6.32
6.85
7.53
8.37
9.3
10.12
10.65
10.74
10.4
9.71
8.85
8
7.24
6.54
5.81
4.88
3.6
1.87
-0.28
-2.67
-4.97
-6.69
-7.35
-6.63
-4.44
-1
3.22
7.71
12.04
15.95
19.37
22.28
24.64
26.37
27.39
27.73
27.44
26.66
25.53
24.09
22.41
20.53
18.66
17.04
15.94
15.52
15.71
16.23
16.65
16.58
15.79
14.21
11.93
9.13
6.01
2.73
-0.53
-3.53
-5.93
-7.37
-7.61
-6.63
-4.68
-2.22
0.19
2.09
3.21
3.49
2.98
1.86
0.36
-1.27
-2.73
-3.8
-4.35
-4.52
-4.58
-4.86
-5.58
-6.67
-7.84
-8.62
-8.67
-7.86
-6.45
-4.96
-3.99
-4.03
-5.3
-7.69
-10.78
-13.96
-16.53
-17.83
-17.39
-15.06
-11.09
-6.06
-0.76
4.07
7.85
10.27
11.29
11.04
9.76
7.77
5.43
3.11
1.11
-0.4
-1.43
-2.08
-2.51
-2.85
-3.14
-3.41
-3.65
-3.94
-4.38
-5.06
-6.04
-7.29
-8.67
-10.02
-11.24
-12.36
-13.54
-15
-16.88
-19.11
-21.37
-23.16
-23.97
-23.48
-21.65
-18.72
-15.08
-11.1
-7.07
-3.18
0.42
3.5
5.76
6.91
6.87
5.87
4.36
2.88
1.84
1.36
1.31
1.4
1.41
1.29
1.15
1.22
1.7
2.71
4.26
6.26
8.48
10.54
12
12.39
11.37
8.9
5.22
0.83
-3.67
-7.69
-10.78
-12.69
-13.37
-12.95
-11.7
-9.99
-8.15
-6.34
-4.61
-2.83
-0.9
1.16
3.19
4.99
6.42
7.53
8.51
9.56
10.73
11.83
12.53
12.46
11.47
9.65
7.3
4.8
2.4
0.23
-1.76
-3.67
-5.6
-7.56
-9.57
-11.62
-13.67
-15.64
-17.3
-18.34
-18.45
-17.36
-15.06
-11.68
-7.44
-2.57
2.71
8.16
13.45
18.14
21.74
23.92
24.61
24.06
22.77
21.3
20.13
19.55
19.64
20.34
21.48
22.82
24.04
24.85
24.96
24.2
22.53
20.06
17.08
13.95
11.03
8.57
6.57
4.82
2.97
0.69
-2.11
-5.19
-8.02
-9.94
-10.48
-9.52
-7.32
-4.49
-1.69
0.59
2.18
3.26
4.2
5.43
7.28
9.85
12.92
15.92
17.96
18
15.2
9.25
0.61
-9.59
-19.81
-28.61
-34.99
-38.56
-39.44
-37.99
-34.76
-30.36
-25.58
-21.36
-18.54
-17.64
-18.61
-20.78
-23.13
-24.56
-24.27
-21.99
-17.87
-12.39
-6.12
0.35
6.55
12.09
16.63
20
22.11
23.04
23.01
22.27
21.06
19.62
18.15
16.85
15.89
15.31
14.98
14.65
13.98
12.78
11.06
8.99
6.87
4.88
3.08
1.35
-0.41
-2.29
-4.27
-6.3
-8.38
-10.48
-12.53
-14.37
-15.69
-16.2
-15.75
-14.37
-12.3
-9.88
-7.42
-5.04
-2.82
-0.76
1.09
2.59
3.59
4
3.85
3.39
2.93
2.79
3.16
3.99
5
5.76
5.89
5.16
3.59
1.44
-0.99
-3.42
-5.7
-7.78
-9.75
-11.77
-14.03
-16.76
-20.12
-24.06
-28.27
-32.15
-34.97
-36.08
-35.12
-32.13
-27.49
-21.77
-15.57
-9.38
-3.58
1.58
5.88
9.11
11.05
11.6
10.85
9.23
7.41
6.14
5.91
6.79
8.38
9.96
10.84
10.67
9.48
7.64
5.54
3.41
1.24
-1.09
-3.7
-6.58
-9.7
-13.03
-16.6
-20.38
-24.14
-27.34
-29.23
-29.08
-26.61
-22.09
-16.27
-10.12
-4.4
0.52
4.65
8.19
11.32
13.99
16.07
17.46
18.27
18.73
19.21
19.97
21.13
22.63
24.27
25.81
26.97
27.52
27.28
26.18
24.23
21.52
18.25
14.61
10.79
6.9
2.98
-1.04
-5.3
-9.92
-14.87
-19.76
-23.86
-26.32
-26.39
-23.83
-19.01
-12.82
-6.3
-0.32
4.74
8.92
12.53
15.81
18.76
21.22
22.93
23.79
23.96
23.79
23.73
24.1
24.96
26.06
27.02
27.42
26.99
25.66
23.55
20.83
17.66
14.11
10.18
5.92
1.4
-3.3
-8.16
-13.25
-18.68
-24.4
-30.01
-34.76
-37.62
-37.72
-34.72
-28.94
-21.37
-13.24
-5.62
0.88
6.08
10.11
13.12
15.17
16.31
16.64
16.5
16.33
16.55
17.32
18.5
19.73
20.62
20.94
20.69
20.07
19.33
18.68
18.16
17.75
17.39
16.99
16.5
15.82
14.78
13.17
10.83
7.78
4.31
0.98
-1.57
-2.79
-2.43
-0.64
2.07
5.06
7.71
9.6
10.56
10.65
10.07
8.98
7.6
6.11
4.72
3.62
2.99
2.89
3.27
3.97
4.76
5.44
5.84
5.87
5.46
4.56
3.16
1.3
-0.9
-3.22
-5.52
-7.7
-9.85
-12.13
-14.7
-17.53
-20.42
-22.99
-24.82
-25.63
-25.31
-23.91
-21.62
-18.6
-14.99
-10.96
-6.72
-2.59
1.12
4.1
6.24
7.58
8.35
8.82
9.27
9.85
10.62
11.46
12.2
12.68
12.75
12.35
11.53
10.39
9.02
7.53
5.91
4.21
2.44
0.64
-1.21
-3.17
-5.39
-7.95
-10.79
-13.6
-15.86
-17.06
-16.82
-15.12
-12.28
-8.78
-5.1
-1.61
1.52
4.22
6.45
8.18
9.42
10.25
10.8
11.2
11.56
11.91
12.21
12.37
12.27
11.79
10.82
9.34
7.41
5.21
2.99
0.94
-0.85
-2.4
-3.86
-5.41
-7.18
-9.27
-11.74
-14.64
-17.99
-21.64
-25.25
-28.26
-30.03
-30.06
-28.23
-24.82
-20.44
-15.82
-11.48
-7.67
-4.38
-1.44
1.24
3.66
5.71
7.3
8.39
9.09
9.54
9.93
10.35
10.8
11.18
11.25
10.8
9.69
7.91
5.63
3.07
0.49
-1.97
-4.29
-6.52
-8.77
-11.13
-13.67
-16.4
-19.32
-22.26
-24.96
-27
-27.91
-27.33
-25.16
-21.56
-17
-12.08
-7.34
-3.14
0.37
3.2
5.42
7.11
8.31
9.1
9.67
10.21
10.91
11.78
12.66
13.25
13.24
12.46
10.95
8.94
6.77
4.67
2.73
0.82
-1.28
-3.75
-6.67
-9.94
-13.36
-16.71
-19.86
-22.65
-24.88
-26.19
-26.15
-24.4
-20.92
-16.06
-10.52
-5.11
-0.4
3.38
6.35
8.82
11.04
13.02
14.6
15.57
15.86
15.64
15.31
15.23
15.59
16.21
16.7
16.58
15.57
13.67
11.18
8.54
6.09
3.99
2.19
0.48
-1.33
-3.43
-5.97
-9.08
-12.78
-16.91
-20.99
-24.29
-26.03
-25.59
-22.81
-18.12
-12.35
-6.44
-1.13
3.25
6.75
9.58
11.96
13.89
15.3
16.1
16.38
16.34
16.26
16.37
16.74
17.24
17.58
17.51
16.83
15.53
13.71
11.55
9.26
6.94
4.6
2.2
-0.33
-3
-5.82
-8.83
-12.06
-15.55
-19.22
-22.75
-25.55
-26.94
-26.35
-23.6
-18.99
-13.26
-7.27
-1.78
2.8
6.38
9.12
11.22
12.79
13.87
14.44
14.61
14.53
14.46
14.57
14.94
15.49
16.01
16.21
15.84
14.8
13.16
11.16
9.05
7.06
5.21
3.37
1.33
-1.04
-3.74
-6.64
-9.62
-12.7
-15.99
-19.51
-23.03
-25.96
-27.47
-26.9
-24.02
-19.24
-13.41
-7.55
-2.39
1.73
4.87
7.29
9.18
10.63
11.62
12.19
12.44
12.6
12.88
13.39
14.09
14.78
15.26
15.3
14.78
13.72
12.16
10.24
8.08
5.8
3.44
1.06
-1.29
-3.59
-5.78
-7.92
-10.13
-12.61
-15.5
-18.8
-22.17
-25.03
-26.63
-26.34
-23.87
-19.4
-13.64
-7.51
-1.92
2.5
5.58
7.53
8.71
9.51
10.11
10.56
10.83
10.94
10.98
11.09
11.36
11.77
12.17
12.33
12.06
11.3
10.06
8.42
6.48
4.29
1.91
-0.57
-3.06
-5.46
-7.71
-9.88
-12.14
-14.73
-17.79
-21.28
-24.78
-27.56
-28.83
-27.96
-24.83
-19.86
-13.92
-7.97
-2.73
1.48
4.73
7.24
9.26
10.89
12.13
12.95
13.42
13.67
13.88
14.18
14.59
15.04
15.35
15.33
14.82
13.72
12.02
9.81
7.29
4.64
2.07
-0.37
-2.7
-5.06
-7.65
-10.69
-14.31
-18.53
-23.18
-27.86
-31.98
-34.82
-35.69
-34.19
-30.38
-24.74
-18.14
-11.46
-5.41
-0.36
3.61
6.58
8.62
9.76
10.05
9.69
9.02
8.5
8.57
9.4
10.86
12.58
14.07
14.96
15.08
14.54
13.57
12.44
11.35
10.32
9.35
8.33
7.22
5.96
4.57
3
1.13
-1.17
-4.04
-7.45
-11.22
-14.89
-17.91
-19.68
-19.78
-18.06
-14.7
-10.17
-5.09
-0.09
4.35
7.99
10.79
12.87
14.4
15.48
16.17
16.5
16.5
16.25
15.88
15.5
15.2
14.93
14.57
13.95
12.88
11.3
9.24
6.9
4.47
2.19
0.18
-1.55
-3.08
-4.57
-6.13
-7.87
-9.81
-11.89
-13.97
-15.74
-16.82
-16.78
-15.31
-12.36
-8.15
-3.2
1.84
6.33
9.79
12.03
13.08
13.22
12.86
12.38
12.14
12.28
12.77
13.49
14.24
14.89
15.27
15.23
14.59
13.2
11.01
8.18
4.99
1.82
-1.06
-3.53
-5.61
-7.44
-9.12
-10.79
-12.54
-14.47
-16.65
-19.06
-21.48
-23.56
-24.86
-25.01
-23.84
-21.41
-18
-14.01
-9.85
-5.93
-2.57
0
1.66
2.42
2.45
2
1.33
0.62
-0.07
-0.71
-1.31
-1.81
-2.16
-2.42
-2.75
-3.4
-4.62
-6.46
-8.81
-11.38
-13.9
-16.17
-18.27
-20.43
-22.95
-26.13
-30.06
-34.61
-39.39
-43.77
-46.95
-48.21
-47.05
-43.47
-37.89
-31.16
-24.17
-17.66
-12.04
-7.36
-3.47
-0.19
2.59
4.82
6.49
7.58
8.27
8.82
9.57
10.78
12.54
14.72
16.94
18.74
19.72
19.72
18.78
17.15
15.09
12.83
10.53
8.34
6.4
4.8
3.45
2.11
0.38
-2
-4.96
-7.98
-10.24
-10.93
-9.57
-6.25
-1.53
3.74
8.76
13.01
16.24
18.42
19.62
19.92
19.41
18.23
16.6
14.82
13.16
11.87
11.02
10.53
10.22
9.87
9.29
8.37
7.09
5.52
3.76
1.95
0.2
-1.55
-3.42
-5.61
-8.29
-11.48
-15.09
-18.86
-22.47
-25.6
-27.86
-28.85
-28.26
-25.93
-22.05
-17.09
-11.72
-6.59
-2.1
1.62
4.64
7.06
8.94
10.3
11.16
11.64
11.97
12.34
12.93
13.78
14.77
15.69
16.26
16.22
15.37
13.69
11.3
8.49
5.58
2.86
0.49
-1.54
-3.37
-5.27
-7.5
-10.29
-13.62
-17.24
-20.61
-23.01
-23.81
-22.64
-19.58
-15.09
-9.93
-4.85
-0.35
3.31
6.15
8.24
9.67
10.47
10.7
10.49
10.12
9.94
10.23
11.12
12.41
13.78
14.8
15.14
14.69
13.53
11.89
10.01
8.07
6.13
4.1
1.85
-0.71
-3.68
-7.1
-10.95
-15.11
-19.25
-22.89
-25.34
-26
-24.52
-21
-16
-10.31
-4.73
0.25
4.43
7.87
10.63
12.68
13.91
14.23
13.79
12.93
12.09
11.69
11.91
12.65
13.62
14.4
14.62
14.08
12.73
10.75
8.43
6.05
3.83
1.84
-0.07
-2.15
-4.72
-8
-12.05
-16.6
-21.15
-24.99
-27.35
-27.7
-25.85
-22.04
-16.84
-10.94
-4.97
0.61
5.54
9.66
12.87
15.13
16.49
17.1
17.2
17.12
17.11
17.34
17.86
18.53
19.08
19.19
18.55
17.03
14.72
11.96
9.16
6.69
4.68
3.02
1.38
-0.61
-3.24
-6.62
-10.68
-15.18
-19.67
-23.57
-26.2
-26.9
-25.26
-21.3
-15.57
-8.95
-2.48
3.11
7.47
10.67
13
14.71
15.92
16.64
16.92
16.93
17
17.44
18.4
19.75
21.14
22.08
22.2
21.31
19.46
16.94
14.11
11.34
8.87
6.72
4.73
2.64
0.17
-2.88
-6.57
-10.79
-15.28
-19.59
-23.17
-25.38
-25.69
-23.79
-19.82
-14.27
-7.93
-1.69
3.76
8
11.02
12.99
14.25
15.04
15.49
15.67
15.61
15.41
15.22
15.21
15.43
15.8
16.06
15.92
15.13
13.66
11.63
9.33
6.99
4.79
2.7
0.61
-1.61
-4.06
-6.78
-9.79
-13.08
-16.67
-20.45
-24.1
-27.03
-28.54
-28.06
-25.42
-20.99
-15.52
-9.84
-4.58
0.01
3.98
7.46
10.45
12.82
14.34
14.96
14.87
14.54
14.46
14.98
16.06
17.39
18.44
18.74
18.04
16.4
14.08
11.48
8.89
6.46
4.19
2.03
-0.11
-2.28
-4.55
-7.05
-9.94
-13.28
-16.92
-20.36
-22.85
-23.63
-22.26
-18.82
-13.91
-8.41
-3.15
1.4
5.12
8.15
10.68
12.75
14.28
15.16
15.44
15.32
15.1
15.06
15.31
15.78
16.26
16.49
16.25
15.45
14.07
12.21
10.05
7.75
5.46
3.24
1.03
-1.27
-3.8
-6.64
-9.87
-13.53
-17.59
-21.85
-25.86
-28.95
-30.37
-29.6
-26.53
-21.62
-15.7
-9.67
-4.2
0.37
4.08
7.11
9.63
11.71
13.32
14.43
15.06
15.31
15.32
15.23
15.13
15.08
15.06
15.01
14.86
14.49
13.76
12.56
10.83
8.61
6.08
3.47
0.97
-1.31
-3.43
-5.62
-8.17
-11.27
-14.97
-18.99
-22.8
-25.74
-27.13
-26.6
-24.12
-20.08
-15.12
-9.96
-5.18
-1.08
2.24
4.88
6.95
8.57
9.86
10.95
12.02
13.15
14.33
15.35
15.98
15.97
15.26
14.02
12.52
10.98
9.48
7.94
6.16
4.02
1.47
-1.34
-4.2
-6.88
-9.22
-11.21
-12.93
-14.59
-16.44
-18.71
-21.5
-24.61
-27.52
-29.44
-29.53
-27.25
-22.62
-16.26
-9.24
-2.64
2.81
6.95
10.15
12.95
15.75
18.59
21.22
23.33
24.8
25.77
26.53
27.33
28.18
28.9
29.18
28.81
27.77
26.27
24.57
22.85
21.18
19.48
17.66
15.67
13.5
11.23
8.95
6.72
4.58
2.6
0.8
-0.74
-1.97
-2.79
-3.09
-2.82
-1.98
-0.69
0.83
2.33
3.65
4.74
5.63
6.35
6.82
6.83
6.18
4.79
2.8
0.58
-1.4
-2.77
-3.42
-3.56
-3.66
-4.28
-5.85
-8.57
-12.28
-16.55
-20.83
-24.62
-27.65
-29.89
-31.52
-32.77
-33.82
-34.76
-35.57
-36.16
-36.43
-36.21
-35.36
-33.74
-31.26
-27.97
-24.1
-19.98
-15.97
-12.34
-9.19
-6.54
-4.37
-2.71
-1.67
-1.24
-1.32
-1.67
-1.96
-1.97
-1.68
-1.22
-0.85
-0.75
-0.98
-1.46
-2.06
-2.66
-3.18
-3.64
-4.13
-4.79
-5.82
-7.4
-9.63
-12.41
-15.47
-18.31
-20.44
-21.33
-20.68
-18.39
-14.68
-10.04
-5.1
-0.4
3.68
7.08
9.93
12.4
14.59
16.47
17.97
19.11
20.05
21.03
22.23
23.62
24.97
25.94
26.25
25.81
24.63
22.78
20.33
17.29
13.72
9.73
5.57
1.46
-2.44
-6.16
-9.86
-13.71
-17.7
-21.54
-24.72
-26.64
-26.83
-25.16
-21.86
-17.45
-12.58
-7.87
-3.74
-0.46
1.9
3.33
3.91
3.76
3.08
2.11
1.16
0.6
0.75
1.84
3.85
6.49
9.3
11.76
13.47
14.28
14.29
13.72
12.76
11.47
9.81
7.74
5.38
3
1.07
0.04
0.16
1.4
3.43
5.8
8.04
9.87
11.24
12.32
13.3
14.41
15.78
17.42
19.25
21.13
22.81
24.01
24.42
23.83
22.21
19.79
16.93
14.06
11.55
9.62
8.35
7.73
7.61
7.73
7.68
7
5.26
2.28
-1.83
-6.69
-11.75
-16.49
-20.52
-23.59
-25.54
-26.29
-25.79
-24.14
-21.57
-18.43
-15.12
-11.9
-8.86
-5.94
-3
-0.01
2.87
5.3
6.86
7.23
6.26
4.16
1.4
-1.36
-3.47
-4.48
-4.25
-3.03
-1.26
0.54
1.97
2.81
3.02
2.6
1.62
0.13
-1.72
-3.73
-5.66
-7.31
-8.61
-9.66
-10.63
-11.71
-12.99
-14.39
-15.69
-16.57
-16.71
-15.92
-14.13
-11.43
-8
-4.11
-0.06
3.8
7.2
9.96
12.03
13.55
14.77
15.98
17.41
19.1
20.95
22.68
23.97
24.49
24.02
22.46
19.92
16.72
13.3
10.12
7.52
5.64
4.43
3.68
3.07
2.25
0.82
-1.58
-5.24
-10.19
-16.17
-22.58
-28.55
-33.27
-36.1
-36.8
-35.53
-32.74
-28.97
-24.73
-20.38
-16.12
-12.04
-8.2
-4.67
-1.53
1.12
3.24
4.86
6.14
7.32
8.65
10.28
12.15
14.04
15.59
16.46
16.48
15.77
14.71
13.74
13.25
13.34
13.8
14.17
13.85
12.33
9.33
4.92
-0.49
-6.19
-11.39
-15.38
-17.79
-18.62
-18.27
-17.41
-16.71
-16.76
-17.78
-19.66
-21.93
-23.92
-24.92
-24.41
-22.19
-18.39
-13.45
-7.86
-2.12
3.33
8.14
12.04
14.83
16.5
17.26
17.46
17.56
17.85
18.38
18.99
19.4
19.38
18.91
18.07
17.03
15.93
14.81
13.6
12.23
10.64
8.9
7.09
5.37
3.81
2.49
1.33
0.18
-1.11
-2.63
-4.4
-6.28
-8.08
-9.71
-11.22
-12.75
-14.43
-16.23
-17.85
-18.86
-18.82
-17.48
-14.91
-11.45
-7.6
-3.85
-0.61
1.9
3.61
4.54
4.94
5.15
5.56
6.45
7.77
9.09
9.7
8.96
6.65
3.18
-0.55
-3.54
-5.08
-5.1
-4.1
-2.82
-1.84
-1.44
-1.5
-1.8
-2.2
-2.72
-3.5
-4.65
-6.16
-7.87
-9.54
-10.95
-11.97
-12.54
-12.65
-12.27
-11.4
-10.03
-8.19
-6.04
-3.75
-1.48
0.74
3.02
5.56
8.48
11.77
15.19
18.4
21.09
23.08
24.42
25.21
25.53
25.39
24.69
23.27
21.13
18.38
15.3
12.22
9.43
7.03
4.96
2.98
0.8
-1.77
-4.78
-8.11
-11.45
-14.42
-16.67
-17.99
-18.37
-18.07
-17.52
-17.2
-17.38
-17.99
-18.65
-18.84
-18.15
-16.44
-13.85
-10.67
-7.11
-3.27
0.84
5.2
9.69
14.07
18.11
21.63
24.6
27.09
29.17
30.84
32.02
32.51
32.05
30.45
27.63
23.75
19.1
14.12
9.24
4.81
1.05
-1.96
-4.27
-6.05
-7.54
-8.92
-10.25
-11.51
-12.63
-13.61
-14.6
-15.84
-17.48
-19.45
-21.35
-22.64
-22.84
-21.79
-19.66
-16.93
-14.18
-11.86
-10.2
-9.16
-8.41
-7.43
-5.57
-2.23
2.92
9.78
17.78
25.92
33.04
38.16
40.65
40.5
38.2
34.61
30.63
26.91
23.72
20.89
18.01
14.62
10.48
5.6
0.3
-4.95
-9.69
-13.52
-16.19
-17.62
-17.87
-17.13
-15.61
-13.53
-11.11
-8.52
-5.93
-3.53
-1.56
-0.25
0.24
-0.2
-1.53
-3.54
-5.83
-7.92
-9.34
-9.77
-9.1
-7.46
-5.22
-2.83
-0.74
0.64
1.05
0.43
-1.06
-3.11
-5.3
-7.35
-9.18
-10.89
-12.69
-14.67
-16.7
-18.42
-19.41
-19.35
-18.18
-16.08
-13.33
-10.3
-7.22
-4.31
-1.71
0.4
1.92
2.86
3.3
3.44
3.39
3.23
2.89
2.28
1.37
0.31
-0.65
-1.24
-1.33
-1.03
-0.68
-0.73
-1.53
-3.16
-5.36
-7.55
-9.19
-9.86
-9.58
-8.7
-7.83
-7.49
-7.97
-9.25
-11.02
-12.88
-14.46
-15.49
-15.77
-15.19
-13.66
-11.22
-8.08
-4.69
-1.73
0.13
0.43
-0.9
-3.45
-6.47
-9.13
-10.76
-11.01
-9.96
-7.94
-5.48
-3.08
-1.13
0.18
0.8
0.85
0.46
-0.26
-1.26
-2.51
-3.98
-5.6
-7.23
-8.74
-9.99
-10.85
-11.22
-11.01
-10.11
-8.47
-6.12
-3.27
-0.24
2.51
4.54
5.53
5.4
4.34
2.77
1.19
0.05
-0.4
-0.14
0.65
1.71
2.75
3.6
4.16
4.39
4.28
3.8
2.99
1.87
0.53
-0.95
-2.54
-4.19
-5.98
-7.96
-10.15
-12.46
-14.64
-16.31
-17.11
-16.81
-15.47
-13.4
-11.07
-8.92
-7.22
-6.05
-5.32
-4.85
-4.44
-3.86
-2.9
-1.43
0.58
2.94
5.28
7.17
8.28
8.51
7.98
7
5.9
4.95
4.28
3.86
3.56
3.17
2.44
1.3
-0.26
-2.04
-3.81
-5.34
-6.48
-7.15
-7.31
-6.85
-5.67
-3.68
-0.92
2.34
5.78
8.95
11.55
13.38
14.43
14.81
14.69
14.26
13.68
13.12
12.65
12.28
11.94
11.49
10.8
9.76
8.4
6.89
5.48
4.47
4.06
4.2
4.6
4.7
3.93
1.83
-1.72
-6.47
-11.83
-17.07
-21.47
-24.55
-26.08
-26.09
-24.83
-22.7
-20.1
-17.42
-14.91
-12.67
-10.64
-8.56
-6.15
-3.18
0.39
4.28
8
10.93
12.63
12.93
12.06
10.52
8.86
7.51
6.67
6.31
6.31
6.62
7.17
7.91
8.72
9.37
9.59
9.17
8.01
6.2
3.94
1.46
-1.01
-3.27
-5.07
-6.22
-6.56
-6.06
-4.82
-3.07
-1.09
0.81
2.38
3.5
4.17
4.49
4.57
4.48
4.16
3.43
2.09
0.01
-2.76
-6.01
-9.4
-12.66
-15.56
-18
-19.89
-21.13
-21.65
-21.4
-20.57
-19.49
-18.62
-18.34
-18.84
-19.95
-21.29
-22.45
-23.18
-23.47
-23.49
-23.46
-23.48
-23.51
-23.41
-23.05
-22.33
-21.2
-19.6
-17.44
-14.6
-11.03
-6.74
-1.84
3.54
9.27
15.21
21.21
27.03
32.31
36.63
39.65
41.18
41.39
40.64
39.5
38.47
37.83
37.58
37.51
37.3
36.73
35.69
34.13
32.04
29.33
25.92
21.81
17.19
12.47
8.15
4.65
2.25
0.96
0.63
0.97
1.74
2.76
3.95
5.34
6.94
8.7
10.44
11.86
12.66
12.61
11.72
10.2
8.39
6.66
5.3
4.45
4.18
4.47
5.32
6.62
8.17
9.63
10.64
10.9
10.3
8.98
7.22
5.38
3.73
2.34
1.15
-0.04
-1.45
-3.22
-5.36
-7.78
-10.26
-12.59
-14.52
-15.89
-16.59
-16.62
-16.08
-15.1
-13.81
-12.25
-10.29
-7.72
-4.33
-0.13
4.54
9.03
12.63
14.71
15.09
13.93
11.72
9
6.19
3.52
1.04
-1.2
-3.16
-4.7
-5.71
-6.22
-6.44
-6.71
-7.35
-8.49
-10
-11.57
-12.83
-13.6
-13.94
-14.15
-14.57
-15.39
-16.54
-17.74
-18.55
-18.61
-17.74
-15.97
-13.5
-10.62
-7.6
-4.66
-1.98
0.32
2.16
3.51
4.4
4.93
5.24
5.38
5.43
5.42
5.43
5.56
5.95
6.61
7.45
8.27
8.89
9.23
9.41
9.57
9.8
9.97
9.85
9.19
7.9
6.15
4.2
2.23
0.26
-1.91
-4.5
-7.5
-10.63
-13.34
-15.13
-15.64
-14.91
-13.25
-11.1
-8.89
-6.85
-5.05
-3.39
-1.77
-0.1
1.6
3.2
4.56
5.59
6.24
6.53
6.52
6.27
5.85
5.33
4.83
4.41
4.1
3.84
3.51
3.03
2.35
1.45
0.31
-1.08
-2.69
-4.39
-5.91
-7.02
-7.58
-7.69
-7.65
-7.86
-8.56
-9.77
-11.27
-12.65
-13.53
-13.57
-12.66
-10.84
-8.32
-5.39
-2.33
0.6
3.21
5.37
7.02
8.13
8.78
9.13
9.39
9.71
10.16
10.71
11.25
11.63
11.77
11.61
11.19
10.52
9.71
8.81
7.94
7.11
6.33
5.51
4.6
3.55
2.41
1.27
0.19
-0.86
-1.97
-3.29
-4.91
-6.79
-8.76
-10.51
-11.71
-12.08
-11.52
-10.1
-8.07
-5.72
-3.36
-1.2
0.65
2.2
3.49
4.54
5.37
5.94
6.22
6.23
6.07
5.88
5.8
5.9
6.13
6.39
6.55
6.55
6.37
6.04
5.54
4.82
3.84
2.6
1.2
-0.23
-1.55
-2.74
-3.88
-5.07
-6.41
-7.91
-9.51
-11.15
-12.76
-14.33
-15.74
-16.82
-17.31
-17
-15.86
-14.02
-11.77
-9.44
-7.2
-5.12
-3.17
-1.34
0.29
1.56
2.32
2.56
2.41
2.15
2.1
2.45
3.3
4.59
6.2
7.99
9.82
11.53
12.91
13.73
13.74
12.78
10.84
8.14
5.04
2.04
-0.48
-2.34
-3.56
-4.38
-5.07
-5.92
-7.14
-8.9
-11.27
-14.22
-17.49
-20.59
-22.88
-23.7
-22.72
-19.98
-15.9
-11.07
-5.98
-0.91
4.01
8.72
13.12
17.01
20.2
22.66
24.52
26.07
27.58
29.22
30.96
32.57
33.73
34.14
33.6
32.04
29.6
26.43
22.81
19.06
15.42
12.18
9.54
7.54
6.11
5.06
4.07
2.91
1.41
-0.43
-2.55
-4.86
-7.2
-9.36
-11.06
-11.97
-11.85
-10.59
-8.39
-5.62
-2.8
-0.39
1.36
2.4
2.88
3.03
3.02
2.86
2.55
2.06
1.4
0.69
0.07
-0.31
-0.36
-0.15
0.2
0.47
0.51
0.15
-0.68
-1.97
-3.6
-5.36
-7
-8.3
-9.18
-9.73
-10.18
-10.79
-11.79
-13.25
-15.06
-16.97
-18.7
-19.94
-20.56
-20.54
-19.98
-19.01
-17.78
-16.37
-14.79
-13.07
-11.25
-9.43
-7.74
-6.28
-5.12
-4.25
-3.61
-3.13
-2.72
-2.35
-2.01
-1.7
-1.49
-1.45
-1.62
-1.99
-2.45
-2.87
-3.11
-3.11
-2.92
-2.67
-2.49
-2.48
-2.66
-3.02
-3.51
-4.1
-4.69
-5.18
-5.41
-5.26
-4.72
-3.85
-2.85
-1.88
-1.07
-0.43
0.07
0.56
1.12
1.83
2.73
3.83
5.08
6.41
7.72
8.92
10.01
11
11.89
12.67
13.33
13.87
14.33
14.75
15.13
15.38
15.32
14.79
13.8
12.5
11.2
10.19
9.65
9.54
9.67
9.83
9.87
9.68
9.13
8.06
6.27
3.74
0.62
-2.71
-5.78
-8.27
-10.08
-11.33
-12.22
-12.8
-12.96
-12.45
-11.09
-8.92
-6.18
-3.23
-0.39
2.18
4.46
6.56
8.59
10.6
12.52
14.12
15.17
15.45
14.93
13.81
12.46
11.29
10.51
10
9.31
7.83
5.04
0.62
-5.42
-12.86
-21.27
-30.06
-38.38
-45.18
-49.39
-50.21
-47.49
-41.84
-34.57
-27.23
-21.07
-16.74
-14.1
-12.51
-11.19
-9.51
-7.23
-4.47
-1.53
1.25
3.62
5.41
6.46
6.73
6.19
5.03
3.62
2.51
2.31
3.42
5.95
9.57
13.57
17.09
19.34
19.87
18.64
16
12.52
8.86
5.57
3.02
1.4
0.75
1.04
2.08
3.65
5.41
7.01
8.15
8.7
8.66
8.22
7.62
7.08
6.75
6.6
6.57
6.55
6.48
6.4
6.36
6.4
6.47
6.47
6.23
5.61
4.56
3.12
1.39
-0.55
-2.64
-4.87
-7.19
-9.54
-11.78
-13.73
-15.24
-16.19
-16.6
-16.53
-16.09
-15.33
-14.22
-12.65
-10.43
-7.42
-3.64
0.7
5.23
9.43
12.85
15.22
16.46
16.68
16.02
14.65
12.63
10.05
7.06
3.93
1.02
-1.36
-3.05
-4.04
-4.5
-4.67
-4.77
-4.95
-5.36
-6.05
-7.08
-8.45
-10.03
-11.6
-12.84
-13.42
-13.11
-11.8
-9.55
-6.57
-3.11
0.52
4.06
7.31
10.14
12.49
14.4
15.99
17.4
18.81
20.31
21.89
23.4
24.64
25.39
25.5
24.93
23.7
21.87
19.48
16.55
13.13
9.36
5.5
1.87
-1.18
-3.48
-5.02
-6.02
-6.84
-7.78
-9.05
-10.65
-12.35
-13.84
-14.77
-14.93
-14.26
-12.8
-10.68
-8.04
-5.03
-1.87
1.21
3.92
6.1
7.66
8.71
9.44
10.04
10.6
11.11
11.55
11.9
12.17
12.37
12.47
12.4
12.07
11.42
10.46
9.31
8.12
7.05
6.18
5.52
4.96
4.32
3.39
2.02
0.12
-2.23
-4.8
-7.19
-8.85
-9.22
-7.92
-5.02
-1.18
2.37
4.14
2.97
-1.55
-8.79
-17.28
-25.22
-31.04
-33.85
-33.54
-30.6
-25.76
-19.79
-13.39
-7.13
-1.52
3.02
6.3
8.38
9.55
10.22
10.77
11.35
11.93
12.25
12.03
11.06
9.33
7.01
4.37
1.63
-1.1
-3.77
-6.32
-8.56
-10.18
-10.88
-10.47
-8.98
-6.65
-3.82
-0.81
2.14
4.85
7.14
8.87
9.88
10.07
9.46
8.22
6.6
4.96
3.61
2.88
2.93
3.73
5.02
6.34
7.14
7
5.72
3.37
0.28
-3.15
-6.55
-9.62
-12.25
-14.39
-16.11
-17.49
-18.64
-19.6
-20.43
-21.05
-21.34
-21.15
-20.44
-19.29
-17.88
-16.44
-15.06
-13.68
-12.1
-10.12
-7.64
-4.72
-1.57
1.61
4.69
7.65
10.45
12.99
15.06
16.45
17.03
16.82
16
14.77
13.3
11.63
9.77
7.78
5.78
3.87
2.12
0.48
-1.22
-3.12
-5.32
-7.74
-10.15
-12.22
-13.62
-14.11
-13.56
-12.05
-9.78
-7.04
-4.16
-1.38
1.19
3.54
5.7
7.71
9.51
11.03
12.2
13.01
13.57
14.05
14.62
15.39
16.33
17.33
18.25
18.9
19.16
18.97
18.38
17.5
16.53
15.63
14.84
13.92
12.35
9.56
5.09
-1.12
-8.69
-16.97
-25.19
-32.68
-38.85
-43.23
-45.35
-44.94
-42.04
-37.14
-31.22
-25.34
-20.39
-16.71
-14.17
-12.32
-10.72
-9.11
-7.41
-5.67
-3.89
-2.02
0.02
2.24
4.6
6.92
9.01
10.7
11.87
12.47
12.5
12.03
11.2
10.2
9.24
8.58
8.35
8.6
9.15
9.71
9.91
9.51
8.56
7.45
6.76
7.01
8.4
10.67
13.28
15.66
17.45
18.58
19.22
19.52
19.55
19.24
18.56
17.57
16.48
15.51
14.81
14.38
14.1
13.73
13.05
11.83
9.94
7.38
4.37
1.36
-1.13
-2.58
-2.78
-1.91
-0.57
0.47
0.48
-0.95
-3.8
-7.65
-11.78
-15.43
-17.99
-19.18
-19.04
-17.86
-15.97
-13.61
-10.87
-7.73
-4.25
-0.65
2.63
5.18
6.72
7.25
7.08
6.6
6.14
5.85
5.74
5.71
5.7
5.69
5.78
6.09
6.61
7.16
7.35
6.7
4.75
1.26
-3.69
-9.64
-15.88
-21.59
-26
-28.57
-29.01
-27.31
-23.72
-18.69
-12.8
-6.66
-0.85
4.16
8.01
10.52
11.72
11.83
11.19
10.19
9.09
8.04
7.05
6.13
5.35
4.95
5.12
5.95
7.32
8.88
10.22
10.97
10.98
10.29
9.06
7.41
5.39
2.98
0.12
-3.16
-6.69
-10.2
-13.3
-15.55
-16.52
-15.88
-13.55
-9.75
-5.02
-0.09
4.31
7.61
9.63
10.47
10.53
10.28
10.18
10.53
11.41
12.77
14.44
16.25
18.04
19.74
21.32
22.78
24.14
25.41
26.52
27.34
27.57
26.78
24.53
20.56
14.87
7.83
0.05
-7.75
-14.96
-21.11
-25.9
-29.1
-30.54
-30.23
-28.35
-25.43
-22.2
-19.45
-17.73
-17.12
-17.25
-17.48
-17.16
-15.96
-13.95
-11.49
-8.99
-6.74
-4.79
-3.04
-1.41
0.03
1.1
1.58
1.34
0.5
-0.64
-1.7
-2.24
-1.99
-0.83
1.05
3.27
5.25
6.45
6.5
5.43
3.71
2.2
1.89
3.67
7.95
14.5
22.4
30.16
36.08
38.73
37.32
31.92
23.37
12.98
2.17
-7.86
-16.29
-22.68
-26.86
-28.9
-29.09
-27.9
-26.01
-24.23
-23.23
-23.51
-25.11
-27.72
-30.73
-33.5
-35.62
-37.04
-38.02
-38.86
-39.73
-40.49
-40.73
-39.98
-37.93
-34.59
-30.19
-25.1
-19.66
-14.11
-8.56
-3.15
1.93
6.41
9.97
12.34
13.39
13.22
12.15
10.76
9.67
9.42
10.34
12.4
15.22
18.24
20.9
22.84
23.93
24.24
23.87
22.85
21.11
18.53
15.08
10.86
6.12
1.25
-3.32
-7.21
-10.09
-11.77
-12.2
-11.43
-9.71
-7.37
-4.8
-2.35
-0.33
1.1
1.85
1.97
1.54
0.67
-0.46
-1.62
-2.56
-3.01
-2.78
-1.78
-0.08
2.14
4.59
7.01
9.17
10.89
12.1
12.72
12.65
11.8
10.09
7.52
4.22
0.45
-3.42
-7.04
-10.08
-12.3
-13.52
-13.64
-12.67
-10.74
-8.09
-5.09
-2.09
0.57
2.7
4.17
5.01
5.28
5.14
4.79
4.46
4.3
4.3
4.32
4.12
3.52
2.53
1.36
0.36
-0.15
0
0.71
1.61
2.2
2.02
0.7
-1.89
-5.62
-10.15
-14.96
-19.47
-23.09
-25.35
-25.99
-25
-22.63
-19.28
-15.48
-11.66
-8.09
-4.89
-2.02
0.54
2.76
4.5
5.6
6.01
5.82
5.29
4.72
4.34
4.22
4.29
4.37
4.24
3.75
2.83
1.43
-0.41
-2.65
-5.21
-8
-10.99
-14.21
-17.77
-21.78
-26.2
-30.76
-34.96
-38.18
-39.88
-39.8
-37.99
-34.71
-30.32
-25.08
-19.22
-12.9
-6.4
-0.03
5.81
10.82
14.85
17.9
20.12
21.69
22.75
23.36
23.47
23.01
21.94
20.28
18.17
15.77
13.21
10.51
7.59
4.39
0.86
-2.89
-6.75
-10.53
-14.17
-17.57
-20.56
-22.87
-24.02
-23.53
-21.09
-16.7
-10.74
-3.82
3.37
10.29
16.55
21.89
26.17
29.31
31.35
32.5
33.12
33.59
34.24
35.15
36.18
37
37.21
36.48
34.63
31.7
27.9
23.67
19.49
15.77
12.7
10.17
7.8
5.19
2.06
-1.57
-5.37
-8.86
-11.54
-13.06
-13.25
-12.15
-9.94
-6.92
-3.43
0.16
3.55
6.57
9.15
11.29
12.98
14.24
15.02
15.37
15.34
15.05
14.6
14
13.16
11.93
10.17
7.85
5.02
1.88
-1.36
-4.51
-7.46
-10.23
-13.02
-16.13
-19.86
-24.4
-29.67
-35.27
-40.59
-44.87
-47.52
-48.17
-46.83
-43.79
-39.53
-34.55
-29.28
-24.02
-18.94
-14.17
-9.84
-6.06
-2.91
-0.34
1.84
4.07
6.86
10.61
15.51
21.33
27.46
33.02
37.06
38.81
37.81
34.13
28.3
21.28
14.18
7.99
3.36
0.36
-1.47
-2.86
-4.5
-6.66
-8.99
-10.67
-10.67
-8.25
-3.26
3.83
12.01
20.16
27.34
33.03
37.12
39.75
41.18
41.62
41.25
40.29
39
37.72
36.73
36.1
35.68
35.08
33.88
31.78
28.78
25.11
21.19
17.37
13.8
10.4
6.95
3.23
-0.89
-5.39
-10.25
-15.45
-21.03
-26.93
-32.87
-38.22
-42.05
-43.46
-41.84
-37.16
-30.04
-21.5
-12.6
-4.2
3.22
9.48
14.53
18.34
20.86
22.15
22.44
22.1
21.63
21.42
21.63
22.2
22.86
23.28
23.21
22.51
21.16
19.24
16.83
14.08
11.11
8.03
4.89
1.71
-1.55
-4.88
-8.33
-11.9
-15.55
-19.2
-22.63
-25.44
-27.11
-27.14
-25.18
-21.28
-15.9
-9.76
-3.65
1.81
6.28
9.72
12.25
14.05
15.3
16.15
16.75
17.25
17.73
18.22
18.67
18.94
18.88
18.35
17.27
15.65
13.59
11.28
8.89
6.51
4.12
1.56
-1.34
-4.7
-8.52
-12.71
-17.13
-21.6
-25.88
-29.59
-32.19
-33.04
-31.7
-28.01
-22.38
-15.62
-8.75
-2.69
2.03
5.28
7.28
8.37
8.83
8.82
8.44
7.82
7.2
6.86
6.95
7.39
7.79
7.63
6.49
4.28
1.29
-2.01
-5.14
-7.91
-10.39
-12.85
-15.47
-18.21
-20.79
-22.85
-24.15
-24.61
-24.32
-23.3
-21.46
-18.62
-14.62
-9.61
-4.02
1.48
6.34
10.27
13.28
15.6
17.35
18.51
18.92
18.55
17.63
16.76
16.58
17.49
19.4
21.74
23.63
24.29
23.31
20.71
16.91
12.5
8.03
3.9
0.36
-2.53
-4.85
-6.85
-8.88
-11.3
-14.36
-18.05
-22.02
-25.63
-28.11
-28.82
-27.42
-24.03
-19.13
-13.45
-7.66
-2.21
2.66
6.9
10.48
13.28
15.16
16.06
16.1
15.59
14.89
14.29
13.83
13.44
12.99
12.44
11.81
11.16
10.47
9.61
8.38
6.64
4.36
1.59
-1.6
-5.15
-9.04
-13.26
-17.72
-22.3
-26.83
-31.11
-34.8
-37.42
-38.35
-37.03
-33.18
-27.02
-19.25
-10.83
-2.71
4.53
10.7
15.9
20.21
23.61
25.95
27.06
26.95
25.89
24.36
22.87
21.82
21.29
21.12
20.95
20.5
19.56
18.12
16.21
13.89
11.14
7.93
4.31
0.36
-3.76
-7.98
-12.3
-16.75
-21.26
-25.5
-28.88
-30.78
-30.71
-28.59
-24.78
-19.93
-14.77
-9.88
-5.57
-1.93
1.1
3.59
5.56
6.96
7.78
8.12
8.19
8.25
8.55
9.16
10.02
10.96
11.75
12.19
12.13
11.47
10.12
8.1
5.48
2.38
-1.05
-4.81
-8.94
-13.56
-18.72
-24.21
-29.52
-33.91
-36.55
-36.8
-34.44
-29.76
-23.47
-16.5
-9.76
-3.89
0.8
4.26
6.55
7.74
7.91
7.25
6.1
4.92
4.18
4.09
4.62
5.48
6.25
6.6
6.34
5.41
3.86
1.8
-0.61
-3.19
-5.73
-8.09
-10.26
-12.37
-14.69
-17.45
-20.68
-24.12
-27.23
-29.25
-29.5
-27.61
-23.67
-18.23
-12.13
-6.16
-0.91
3.41
6.85
9.53
11.57
12.98
13.77
14.06
14.09
14.14
14.44
15.06
15.81
16.42
16.51
15.87
14.43
12.36
9.89
7.3
4.7
2.08
-0.65
-3.66
-7.03
-10.76
-14.78
-18.99
-23.23
-27.24
-30.62
-32.81
-33.23
-31.53
-27.77
-22.47
-16.47
-10.65
-5.65
-1.75
1.07
2.91
3.87
3.99
3.4
2.42
1.55
1.35
2.16
4.01
6.52
9.15
11.39
12.89
13.59
13.59
13.06
12.04
10.57
8.62
6.25
3.57
0.73
-2.24
-5.45
-9.11
-13.39
-18.1
-22.65
-26.11
-27.57
-26.49
-23
-17.86
-12.11
-6.7
-2.16
1.44
4.29
6.56
8.26
9.26
9.48
9.09
8.5
8.28
8.83
10.21
12.1
14
15.43
16.12
16.07
15.48
14.58
13.48
12.26
10.89
9.36
7.7
5.98
4.17
2.17
-0.26
-3.36
-7.23
-11.66
-16.08
-19.63
-21.46
-21.01
-18.2
-13.5
-7.72
-1.73
3.78
8.46
12.22
15.14
17.29
18.68
19.23
18.9
17.73
15.95
13.91
11.98
10.44
9.29
8.33
7.2
5.61
3.44
0.78
-2.15
-5.13
-8.07
-11.02
-14.12
-17.51
-21.31
-25.53
-30.09
-34.83
-39.32
-42.94
-44.9
-44.47
-41.29
-35.63
-28.32
-20.57
-13.53
-7.94
-3.97
-1.36
0.32
1.44
2.18
2.65
3.05
3.77
5.26
7.82
11.43
15.64
19.78
23.21
25.56
26.83
27.26
27.18
26.74
25.9
24.47
22.19
18.95
14.76
9.83
4.42
-1.15
-6.57
-11.45
-15.34
-17.71
-18.1
-16.22
-12.17
-6.45
0.11
6.58
12.13
16.24
18.73
19.69
19.42
18.34
16.92
15.67
14.99
15.08
15.86
16.9
17.67
17.63
16.5
14.41
11.7
8.86
6.31
4.18
2.38
0.63
-1.42
-4.1
-7.61
-11.97
-16.9
-21.81
-25.9
-28.34
-28.5
-26.22
-21.91
-16.37
-10.55
-5.23
-0.82
2.69
5.51
7.91
10.03
11.84
13.24
14.13
14.56
14.74
14.9
15.25
15.79
16.34
16.65
16.52
15.9
14.93
13.87
12.87
11.97
11
9.61
7.48
4.39
0.31
-4.57
-9.97
-15.54
-20.85
-25.39
-28.62
-30
-29.21
-26.29
-21.69
-16.13
-10.39
-5.08
-0.56
3.05
5.72
7.48
8.36
8.44
8
7.43
7.17
7.49
8.39
9.59
10.63
11.09
10.78
9.77
8.33
6.77
5.27
3.83
2.26
0.39
-1.92
-4.67
-7.78
-11.18
-14.79
-18.46
-21.94
-24.75
-26.31
-26.09
-23.78
-19.52
-13.85
-7.58
-1.54
3.7
7.9
11.17
13.72
15.71
17.18
18.07
18.39
18.3
18.11
18.12
18.43
18.87
19.06
18.61
17.29
15.12
12.42
9.55
6.88
4.56
2.52
0.56
-1.55
-4.02
-6.94
-10.34
-14.09
-17.93
-21.42
-23.96
-24.95
-23.93
-20.83
-15.95
-10.01
-3.85
1.78
6.42
9.92
12.35
13.82
14.41
14.22
13.44
12.39
11.52
11.22
11.66
12.7
13.87
14.59
14.42
13.21
11.12
8.53
5.87
3.42
1.26
-0.73
-2.77
-5.12
-7.96
-11.34
-15.12
-18.97
-22.38
-24.72
-25.47
-24.31
-21.27
-16.72
-11.25
-5.55
-0.24
4.28
7.75
10.14
11.52
12.04
11.94
11.45
10.86
10.47
10.49
11.01
11.89
12.79
13.25
12.92
11.65
9.57
7
4.29
1.67
-0.8
-3.23
-5.79
-8.61
-11.77
-15.3
-19.1
-22.92
-26.31
-28.61
-29.15
-27.52
-23.74
-18.34
-12.15
-6.05
-0.62
3.88
7.53
10.48
12.8
14.43
15.27
15.33
14.83
14.18
13.8
13.96
14.61
15.39
15.8
15.39
13.97
11.64
8.74
5.67
2.78
0.21
-2.11
-4.32
-6.6
-9.11
-11.95
-15.19
-18.77
-22.44
-25.69
-27.83
-28.16
-26.31
-22.37
-16.94
-10.94
-5.23
-0.38
3.48
6.53
9.03
11.11
12.73
13.77
14.21
14.22
14.11
14.23
14.72
15.48
16.18
16.46
16.05
14.94
13.29
11.35
9.34
7.36
5.43
3.46
1.42
-0.75
-3.16
-5.94
-9.25
-13.12
-17.31
-21.23
-24.09
-25.08
-23.76
-20.21
-15.06
-9.24
-3.67
1.06
4.73
7.45
9.42
10.8
11.65
12
11.94
11.68
11.52
11.74
12.45
13.6
14.86
15.83
16.1
15.4
13.71
11.28
8.53
5.88
3.61
1.76
0.19
-1.45
-3.5
-6.27
-9.86
-14.19
-18.82
-23.07
-26.13
-27.26
-26.09
-22.75
-17.82
-12.14
-6.56
-1.62
2.44
5.66
8.14
9.91
10.89
10.98
10.24
8.92
7.45
6.28
5.68
5.58
5.68
5.53
4.83
3.53
1.83
0.11
-1.36
-2.54
-3.62
-4.92
-6.73
-9.18
-12.19
-15.59
-19.09
-22.35
-24.95
-26.42
-26.35
-24.53
-21.08
-16.48
-11.35
-6.27
-1.58
2.59
6.24
9.32
11.68
13.14
13.65
13.38
12.72
12.08
11.75
11.77
11.98
12.13
11.95
11.29
10.08
8.35
6.2
3.78
1.24
-1.28
-3.72
-6.13
-8.59
-11.26
-14.24
-17.5
-20.85
-23.9
-26.11
-26.92
-25.86
-22.83
-18.09
-12.33
-6.35
-0.89
3.57
6.94
9.33
10.93
11.9
12.28
12.11
11.58
10.97
10.62
10.76
11.33
12.1
12.64
12.59
11.81
10.35
8.46
6.41
4.41
2.56
0.82
-0.93
-2.87
-5.18
-8.01
-11.42
-15.29
-19.24
-22.7
-24.96
-25.4
-23.72
-20.02
-14.85
-9.04
-3.39
1.54
5.53
8.68
11.12
12.95
14.15
14.67
14.59
14.13
13.61
13.31
13.35
13.66
14.01
14.11
13.8
13.02
11.79
10.22
8.41
6.47
4.46
2.42
0.38
-1.69
-3.86
-6.26
-8.98
-12.07
-15.35
-18.4
-20.6
-21.28
-20.03
-16.86
-12.24
-6.96
-1.8
2.7
6.38
9.33
11.72
13.65
15.06
15.88
16.16
16.14
16.13
16.42
17.07
17.94
18.68
18.97
18.55
17.35
15.46
13.07
10.47
7.91
5.54
3.35
1.19
-1.22
-4.16
-7.81
-12.16
-17.02
-21.95
-26.3
-29.35
-30.46
-29.27
-25.96
-21.16
-15.83
-10.91
-7.05
-4.44
-2.89
-1.98
-1.34
-0.66
0.22
1.36
2.84
4.66
6.74
8.93
11
12.62
13.49
13.39
12.25
10.24
7.72
5.19
3.08
1.6
0.63
-0.25
-1.57
-3.75
-6.91
-10.87
-15.15
-19.1
-22.04
-23.36
-22.7
-20.01
-15.57
-9.99
-3.93
2.05
7.63
12.79
17.6
22.11
26.16
29.4
31.39
31.79
30.44
27.4
23
17.67
11.95
6.3
1.08
-3.51
-7.41
-10.66
-13.29
-15.37
-16.94
-18.14
-19.2
-20.44
-22.18
-24.64
-27.77
-31.28
-34.57
-36.93
-37.72
-36.54
-33.46
-28.86
-23.39
-17.7
-12.23
-7.17
-2.61
1.41
4.76
7.24
8.74
9.31
9.27
9.1
9.27
10.01
11.23
12.55
13.48
13.63
12.86
11.3
9.29
7.21
5.35
3.81
2.48
1.16
-0.35
-2.29
-4.82
-8.03
-11.89
-16.18
-20.39
-23.8
-25.59
-25.19
-22.39
-17.54
-11.37
-4.76
1.49
6.9
11.27
14.62
17.07
18.77
19.9
20.71
21.43
22.32
23.53
25.05
26.64
27.88
28.24
27.27
24.76
20.83
16.01
10.96
6.23
2.15
-1.27
-4.23
-6.95
-9.58
-12.16
-14.81
-17.68
-20.93
-24.52
-28.08
-30.85
-31.93
-30.7
-27.05
-21.51
-14.99
-8.5
-2.8
1.74
5.11
7.51
9.17
10.29
11.04
11.54
11.93
12.32
12.82
13.41
14.07
14.65
14.95
14.79
14.03
12.67
10.87
8.9
7.07
5.56
4.41
3.44
2.37
0.94
-1.02
-3.56
-6.56
-9.78
-12.89
-15.41
-16.81
-16.66
-14.73
-11.11
-6.28
-0.92
4.27
8.8
12.43
15.12
16.92
17.84
17.96
17.42
16.47
15.48
14.71
14.27
14.05
13.86
13.44
12.69
11.64
10.41
9.18
8.04
6.99
5.87
4.46
2.51
-0.18
-3.69
-7.94
-12.72
-17.7
-22.43
-26.42
-29.1
-30.01
-28.89
-25.75
-20.99
-15.22
-9.18
-3.39
1.76
6.13
9.66
12.3
14
14.82
14.97
14.74
14.48
14.41
14.62
15.05
15.61
16.2
16.71
17.04
17.03
16.5
15.26
13.25
10.52
7.25
3.67
0.03
-3.43
-6.65
-9.64
-12.62
-15.89
-19.61
-23.71
-27.67
-30.64
-31.62
-29.74
-24.67
-16.76
-7
3.26
12.72
20.43
25.97
29.41
31.07
31.33
30.54
28.97
26.89
24.59
22.4
20.62
19.45
18.91
18.89
19.15
19.39
19.31
18.7
17.45
15.64
13.42
10.93
8.22
5.16
1.48
-3.14
-8.94
-15.89
-23.77
-32.12
-40.3
-47.51
-52.84
-55.26
-53.97
-48.68
-39.89
-28.87
-17.42
-7.26
0.42
5.24
7.49
7.84
6.92
5.21
3.02
0.62
-1.69
-3.6
-4.91
-5.61
-5.82
-5.61
-5
-3.83
-1.91
0.88
4.46
8.6
12.95
17.12
20.72
23.41
24.95
25.18
24.06
21.64
17.96
13.09
7.17
0.48
-6.38
-12.58
-17.21
-19.6
-19.57
-17.51
-14.17
-10.39
-6.75
-3.52
-0.66
1.91
4.15
5.96
7.19
7.76
7.71
7.23
6.51
5.71
4.94
4.23
3.58
2.96
2.35
1.69
0.92
-0.01
-1.18
-2.63
-4.37
-6.34
-8.38
-10.21
-11.65
-12.72
-13.73
-15.16
-17.38
-20.28
-23.22
-25.12
-24.96
-22.22
-17.1
-10.54
-3.72
2.33
7.08
10.44
12.61
13.82
14.24
14.01
13.33
12.53
11.94
11.77
12.02
12.47
12.78
12.67
12.02
10.88
9.41
7.8
6.16
4.45
2.53
0.21
-2.76
-6.5
-10.94
-15.73
-20.33
-24.1
-26.74
-28.43
-30.05
-32.82
-37.88
-45.73
-55.85
-66.71
-76.12
-81.79
-81.93
-75.65
-63.23
-46.05
-26.24
-6.29
11.52
25.59
35.22
40.6
42.61
42.41
41.2
39.89
39.06
38.8
38.84
38.62
37.63
35.51
32.31
28.39
24.31
20.58
17.49
15.09
13.11
11.1
8.54
5.02
0.44
-4.92
-10.4
-15.16
-18.37
-19.53
-18.48
-15.57
-11.45
-6.94
-2.81
0.41
2.57
3.87
4.69
5.45
6.34
7.34
8.3
9.05
9.6
10.08
10.73
11.71
13
14.41
15.65
16.43
16.58
16.11
15.12
13.82
12.38
10.89
9.35
7.73
5.96
3.99
1.82
-0.47
-2.73
-4.7
-6.03
-6.39
-5.53
-3.34
0
4.12
8.47
12.43
15.5
17.37
18.08
17.85
17.12
16.26
15.53
14.97
14.55
14.15
13.75
13.36
13
12.62
12.09
11.29
10.13
8.74
7.38
6.36
5.87
5.73
5.36
3.88
0.42
-5.51
-13.78
-23.58
-33.74
-43.07
-50.6
-55.66
-57.83
-56.81
-52.48
-45.05
-35.21
-24.15
-13.27
-3.81
3.45
8.31
11.02
12.11
12.1
11.5
10.7
10.05
9.78
9.97
10.49
11.07
11.4
11.24
10.54
9.37
7.9
6.28
4.58
2.81
0.93
-1.05
-3.09
-5.14
-7.19
-9.26
-11.42
-13.69
-15.95
-17.88
-19.01
-18.96
-17.59
-15.09
-11.94
-8.7
-5.72
-3.14
-0.94
0.88
2.08
2.24
0.98
-1.83
-5.8
-10.18
-14.08
-16.86
-18.32
-18.71
-18.55
-18.3
-18.28
-18.63
-19.48
-21.04
-23.56
-27.1
-31.31
-35.4
-38.32
-39.2
-37.7
-34.28
-29.9
-25.69
-22.38
-20.11
-18.44
-16.6
-13.94
-10.09
-5.08
0.8
7.09
13.32
19.07
23.99
27.8
30.28
31.39
31.21
30.04
28.28
26.34
24.45
22.61
20.6
18.14
15.07
11.5
7.77
4.38
1.72
-0.06
-1.2
-2.29
-4.04
-7.09
-11.74
-17.9
-25.06
-32.42
-39.05
-44
-46.5
-46.05
-42.58
-36.45
-28.46
-19.65
-10.97
-3.14
3.49
8.93
13.39
17.07
20.13
22.65
24.65
26.15
27.13
27.62
27.67
27.35
26.76
25.98
25.03
23.85
22.41
20.7
18.8
16.78
14.69
12.49
10
7.02
3.38
-1
-6.08
-11.7
-17.56
-23.18
-27.94
-31.18
-32.34
-31.19
-27.96
-23.29
-18.02
-12.95
-8.6
-5.11
-2.3
0.1
2.23
4.07
5.46
6.29
6.63
6.77
7.14
8.07
9.69
11.71
13.66
14.95
15.12
13.95
11.47
7.96
3.79
-0.61
-4.77
-8.31
-10.95
-12.57
-13.31
-13.49
-13.58
-13.98
-14.88
-16.04
-16.93
-16.82
-15.14
-11.62
-6.44
-0.12
6.66
13.22
19.07
23.83
27.31
29.48
30.52
30.74
30.57
30.45
30.67
31.33
32.3
33.34
34.2
34.63
34.47
33.67
32.3
30.56
28.67
26.81
24.91
22.57
19.18
14.11
6.98
-2.14
-12.74
-24.06
-35.37
-46.1
-55.79
-63.99
-70.1
-73.48
-73.71
-70.83
-65.43
-58.45
-50.82
-43.12
-35.44
-27.55
-19.26
-10.58
-1.88
6.3
13.51
19.53
24.4
28.32
31.5
33.99
35.72
36.6
36.61
35.95
34.92
33.87
33.02
32.38
31.71
30.69
29.04
26.59
23.37
19.52
15.24
10.8
6.59
3.06
0.69
-0.18
0.56
2.67
5.63
8.77
11.36
12.91
13.2
12.4
10.9
9.25
7.91
7.15
6.97
7.22
7.76
8.51
9.52
10.78
12.16
13.33
13.97
13.94
13.33
12.48
11.75
11.33
11.09
10.69
9.78
8.12
5.78
2.99
0.09
-2.62
-4.88
-6.51
-7.33
-7.21
-6.11
-4.17
-1.77
0.65
2.71
4.23
5.29
6.11
6.92
7.78
8.59
9.19
9.44
9.35
9.01
8.55
8.04
7.44
6.63
5.54
4.17
2.67
1.25
0.12
-0.66
-1.2
-1.75
-2.58
-3.93
-5.89
-8.39
-11.22
-14.09
-16.67
-18.6
-19.59
-19.43
-18.13
-15.89
-13.13
-10.38
-8.06
-6.38
-5.34
-4.77
-4.47
-4.29
-4.15
-3.98
-3.68
-3.12
-2.16
-0.76
0.95
2.77
4.45
5.78
6.68
7.16
7.29
7.14
6.78
6.22
5.48
4.56
3.46
2.16
0.64
-1.12
-3.08
-5.09
-6.89
-8.18
-8.68
-8.24
-6.92
-4.93
-2.64
-0.41
1.45
2.82
3.72
4.27
4.6
4.77
4.75
4.48
3.96
3.29
2.63
2.18
2.05
2.21
2.53
2.79
2.82
2.5
1.84
0.9
-0.2
-1.35
-2.48
-3.59
-4.72
-5.92
-7.27
-8.78
-10.39
-11.98
-13.38
-14.34
-14.64
-14.08
-12.55
-10.15
-7.14
-3.91
-0.89
1.61
3.41
4.55
5.21
5.57
5.83
6.1
6.43
6.84
7.31
7.81
8.22
8.41
8.23
7.67
6.8
5.83
4.92
4.13
3.44
2.72
1.87
0.83
-0.37
-1.73
-3.23
-4.89
-6.66
-8.35
-9.67
-10.28
-9.98
-8.78
-6.94
-4.83
-2.74
-0.86
0.81
2.3
3.63
4.76
5.58
6.03
6.12
5.94
5.62
5.29
5.03
4.86
4.7
4.48
4.11
3.55
2.84
2.06
1.33
0.72
0.25
-0.2
-0.74
-1.57
-2.76
-4.33
-6.19
-8.13
-9.89
-11.23
-11.92
-11.85
-11.02
-9.54
-7.54
-5.21
-2.67
-0.06
2.5
4.92
7.09
8.86
10.16
10.95
11.25
11.2
10.98
10.79
10.78
11.01
11.4
11.78
11.95
11.75
11.11
10.09
8.84
7.49
6.14
4.81
3.44
1.99
0.42
-1.28
-3.13
-5.18
-7.42
-9.74
-11.85
-13.35
-13.83
-13.08
-11.14
-8.4
-5.37
-2.56
-0.24
1.53
2.86
3.91
4.76
5.41
5.82
6
6.06
6.16
6.43
6.95
7.61
8.23
8.56
8.4
7.72
6.59
5.23
3.86
2.65
1.68
0.89
0.16
-0.62
-1.55
-2.66
-3.93
-5.31
-6.76
-8.19
-9.45
-10.33
-10.6
-10.11
-8.83
-6.91
-4.6
-2.23
-0.04
1.81
3.28
4.41
5.3
6.02
6.65
7.23
7.8
8.34
8.83
9.24
9.55
9.71
9.71
9.53
9.16
8.61
7.88
6.94
5.84
4.61
3.33
2.08
0.88
-0.32
-1.58
-3.04
-4.75
-6.68
-8.68
-10.5
-11.84
-12.41
-12.05
-10.74
-8.69
-6.22
-3.74
-1.52
0.26
1.53
2.33
2.71
2.75
2.56
2.27
2
1.84
1.78
1.75
1.69
1.55
1.31
1.01
0.69
0.37
0.06
-0.23
-0.46
-0.63
-0.77
-0.99
-1.43
-2.21
-3.4
-4.94
-6.6
-8.15
-9.29
-9.8
-9.54
-8.48
-6.63
-4.12
-1.14
1.98
4.9
7.28
8.93
9.82
10.12
10.06
9.83
9.52
9.15
8.7
8.21
7.79
7.53
7.43
7.37
7.16
6.63
5.73
4.5
3.09
1.62
0.14
-1.39
-2.99
-4.66
-6.39
-8.12
-9.9
-11.73
-13.59
-15.33
-16.69
-17.32
-17
-15.72
-13.68
-11.23
-8.68
-6.24
-3.95
-1.77
0.32
2.23
3.85
5.04
5.77
6.17
6.45
6.82
7.43
8.23
9.08
9.78
10.18
10.25
10.06
9.71
9.26
8.7
7.98
7.06
5.92
4.59
3.07
1.31
-0.74
-3.02
-5.31
-7.24
-8.41
-8.54
-7.59
-5.76
-3.41
-0.95
1.28
3.06
4.24
4.82
4.93
4.78
4.6
4.58
4.78
5.1
5.38
5.47
5.3
4.91
4.4
3.82
3.19
2.47
1.61
0.63
-0.45
-1.6
-2.88
-4.41
-6.3
-8.58
-11.16
-13.82
-16.25
-18.2
-19.49
-20.03
-19.8
-18.85
-17.27
-15.23
-12.95
-10.65
-8.49
-6.49
-4.6
-2.76
-0.96
0.69
2.04
2.96
3.46
3.67
3.81
4.05
4.51
5.13
5.78
6.29
6.51
6.37
5.83
4.93
3.75
2.41
1
-0.35
-1.62
-2.84
-4.12
-5.62
-7.46
-9.59
-11.79
-13.66
-14.78
-14.81
-13.7
-11.65
-9.08
-6.4
-3.88
-1.63
0.44
2.41
4.3
6.02
7.44
8.5
9.21
9.7
10.06
10.37
10.6
10.74
10.72
10.57
10.31
9.98
9.56
9.02
8.34
7.48
6.46
5.25
3.87
2.32
0.66
-1.04
-2.75
-4.46
-6.23
-8.09
-10.02
-11.84
-13.25
-13.95
-13.72
-12.52
-10.49
-7.93
-5.16
-2.47
-0.05
1.98
3.55
4.7
5.5
6.08
6.57
7.12
7.76
8.48
9.23
9.88
10.38
10.68
10.76
10.61
10.25
9.69
8.89
7.87
6.67
5.36
4.05
2.85
1.85
1.05
0.33
-0.49
-1.6
-3.14
-5.08
-7.32
-9.58
-11.63
-13.2
-14.17
-14.45
-14.02
-12.94
-11.28
-9.19
-6.89
-4.59
-2.48
-0.67
0.78
1.9
2.74
3.41
4.04
4.76
5.67
6.74
7.87
8.93
9.77
10.31
10.53
10.41
9.92
9.07
7.88
6.49
5.09
3.89
2.96
2.25
1.59
0.84
-0.13
-1.31
-2.7
-4.31
-6.24
-8.52
-11.06
-13.59
-15.69
-16.91
-16.96
-15.79
-13.58
-10.74
-7.69
-4.83
-2.41
-0.56
0.77
1.68
2.37
2.98
3.65
4.4
5.22
6.02
6.73
7.3
7.67
7.85
7.84
7.69
7.47
7.24
7
6.75
6.38
5.84
5.03
3.98
2.77
1.54
0.43
-0.48
-1.24
-1.99
-2.92
-4.17
-5.78
-7.6
-9.33
-10.59
-11.06
-10.6
-9.21
-7.12
-4.61
-1.99
0.49
2.65
4.38
5.65
6.49
6.99
7.23
7.36
7.45
7.58
7.78
8.09
8.52
9.01
9.43
9.61
9.39
8.68
7.56
6.22
4.88
3.74
2.87
2.19
1.55
0.82
-0.04
-1.07
-2.26
-3.7
-5.48
-7.62
-9.97
-12.15
-13.66
-14.06
-13.19
-11.21
-8.58
-5.82
-3.34
-1.37
0.08
1.07
1.66
1.96
2.04
2.06
2.14
2.41
2.87
3.47
4.07
4.51
4.73
4.73
4.57
4.34
4.05
3.64
3.02
2.09
0.88
-0.5
-1.88
-3.15
-4.32
-5.55
-7.03
-8.86
-10.94
-12.98
-14.6
-15.5
-15.58
-14.89
-13.65
-12.07
-10.3
-8.44
-6.57
-4.81
-3.35
-2.35
-1.89
-1.88
-2.08
-2.23
-2.14
-1.79
-1.29
-0.88
-0.7
-0.83
-1.18
-1.63
-2.06
-2.45
-2.83
-3.24
-3.67
-4.08
-4.44
-4.79
-5.21
-5.88
-6.87
-8.23
-9.85
-11.57
-13.16
-14.4
-15.05
-14.97
-14.11
-12.56
-10.49
-8.13
-5.64
-3.18
-0.83
1.32
3.17
4.6
5.57
6.14
6.46
6.69
6.93
7.24
7.61
8.01
8.39
8.67
8.75
8.57
8.12
7.46
6.73
6.05
5.44
4.79
3.85
2.39
0.26
-2.46
-5.45
-8.25
-10.38
-11.52
-11.62
-10.79
-9.27
-7.33
-5.14
-2.89
-0.71
1.31
3.3
5.53
8.32
11.76
15.5
18.74
20.51
20.09
17.39
13
7.89
3.04
-0.98
-4.09
-6.47
-8.35
-9.79
-10.71
-11.04
-10.92
-10.69
-10.86
-11.79
-13.58
-15.93
-18.29
-20.05
-20.84
-20.55
-19.34
-17.45
-15.04
-12.14
-8.79
-5.14
-1.55
1.49
3.54
4.4
4.22
3.39
2.39
1.67
1.45
1.81
2.63
3.76
4.98
6.08
6.88
7.22
7.08
6.49
5.56
4.43
3.19
1.93
0.68
-0.54
-1.71
-2.75
-3.51
-3.8
-3.46
-2.38
-0.6
1.75
4.48
7.33
10.08
12.5
14.39
15.63
16.17
16.09
15.58
14.85
14.14
13.59
13.24
13.06
12.95
12.78
12.39
11.73
10.76
9.55
8.23
6.91
5.63
4.36
2.96
1.27
-0.82
-3.32
-6.04
-8.66
-10.73
-11.93
-12.03
-11.1
-9.4
-7.27
-5.06
-2.97
-1.15
0.38
1.58
2.44
2.95
3.18
3.28
3.43
3.81
4.45
5.23
5.89
6.12
5.67
4.46
2.71
0.82
-0.85
-2.08
-2.95
-3.75
-4.81
-6.32
-8.26
-10.44
-12.6
-14.5
-15.96
-16.75
-16.7
-15.64
-13.6
-10.83
-7.75
-4.84
-2.48
-0.8
0.26
0.82
1
0.86
0.48
-0.01
-0.41
-0.55
-0.37
0.03
0.4
0.51
0.25
-0.34
-1.06
-1.67
-1.94
-1.74
-1.08
-0.06
1.1
2.18
2.99
3.49
3.84
4.32
5.28
6.94
9.35
12.32
15.55
18.73
21.6
24.01
25.85
27.04
27.5
27.22
26.3
24.91
23.25
21.49
19.77
18.22
16.95
16.02
15.29
14.42
12.87
10.14
6.02
0.77
-4.97
-10.45
-15.07
-18.66
-21.39
-23.64
-25.76
-27.96
-30.24
-32.51
-34.63
-36.36
-37.39
-37.32
-35.82
-32.73
-28.17
-22.57
-16.49
-10.57
-5.27
-0.87
2.5
4.88
6.44
7.39
8
8.55
9.21
10.06
10.95
11.68
11.98
11.65
10.64
9.06
7.14
5.09
3.05
1.04
-1.03
-3.27
-5.76
-8.54
-11.66
-15.06
-18.64
-22.09
-24.94
-26.62
-26.61
-24.7
-21.08
-16.25
-10.87
-5.56
-0.68
3.61
7.33
10.49
13.07
14.99
16.2
16.76
16.84
16.77
16.86
17.26
17.94
18.66
19.06
18.86
17.9
16.25
14.14
11.85
9.59
7.45
5.4
3.35
1.22
-1.04
-3.47
-6.16
-9.24
-12.78
-16.67
-20.49
-23.55
-25.04
-24.37
-21.38
-16.46
-10.39
-4.13
1.53
6.13
9.56
11.96
13.57
14.63
15.3
15.74
16.04
16.34
16.73
17.24
17.79
18.23
18.38
18.09
17.33
16.15
14.63
12.86
10.89
8.78
6.55
4.25
1.86
-0.67
-3.44
-6.5
-9.89
-13.59
-17.48
-21.33
-24.75
-27.16
-27.93
-26.61
-23.04
-17.62
-11.08
-4.34
1.82
6.93
10.88
13.77
15.72
16.86
17.24
16.97
16.29
15.52
15.06
15.13
15.72
16.55
17.17
17.14
16.22
14.43
11.99
9.23
6.42
3.76
1.3
-0.96
-3.11
-5.31
-7.77
-10.72
-14.31
-18.5
-22.97
-27.08
-30.03
-31.05
-29.68
-25.95
-20.36
-13.79
-7.14
-1.17
3.71
7.39
10
11.76
12.89
13.6
14.06
14.36
14.56
14.69
14.82
15.03
15.34
15.65
15.74
15.35
14.25
12.43
10.13
7.67
5.37
3.29
1.32
-0.8
-3.27
-6.17
-9.52
-13.23
-17.22
-21.29
-25.02
-27.79
-28.9
-27.9
-24.72
-19.83
-14.03
-8.17
-2.87
1.6
5.25
8.18
10.42
11.93
12.69
12.74
12.33
11.78
11.42
11.51
12.12
13.12
14.23
15.06
15.27
14.68
13.34
11.51
9.52
7.61
5.78
3.9
1.74
-0.84
-3.83
-7.16
-10.73
-14.43
-18.13
-21.46
-23.85
-24.63
-23.3
-19.81
-14.65
-8.68
-2.79
2.37
6.55
9.9
12.62
14.84
16.51
17.52
17.82
17.56
17.03
16.58
16.46
16.7
17.15
17.49
17.42
16.72
15.29
13.18
10.58
7.71
4.78
1.92
-0.82
-3.44
-6.01
-8.59
-11.29
-14.24
-17.54
-21.2
-24.88
-27.99
-29.75
-29.49
-26.91
-22.28
-16.36
-10.06
-4.19
0.8
4.82
7.98
10.41
12.17
13.34
13.99
14.33
14.58
14.91
15.42
16.02
16.52
16.69
16.36
15.43
13.94
12.07
10.04
8.11
6.39
4.82
3.18
1.21
-1.29
-4.3
-7.7
-11.36
-15.16
-19.07
-22.86
-26.09
-28.06
-28.08
-25.84
-21.56
-16.06
-10.34
-5.32
-1.34
1.69
4.14
6.33
8.3
9.93
11.01
11.52
11.63
11.67
11.9
12.44
13.18
13.88
14.27
14.08
13.21
11.67
9.63
7.36
5.09
2.99
1.05
-0.84
-2.85
-5.15
-7.86
-11.01
-14.54
-18.22
-21.6
-24.07
-24.99
-23.9
-20.79
-16.11
-10.67
-5.32
-0.67
3.04
5.86
7.99
9.54
10.55
11.01
11.02
10.83
10.75
11.04
11.74
12.64
13.36
13.53
12.93
11.55
9.59
7.33
5.05
2.92
0.96
-0.91
-2.9
-5.2
-8.03
-11.48
-15.51
-19.83
-23.95
-27.18
-28.84
-28.47
-25.98
-21.7
-16.29
-10.54
-5.12
-0.42
3.41
6.36
8.4
9.57
9.84
9.37
8.45
7.54
7.01
7.08
7.63
8.28
8.58
8.19
7.08
5.52
3.93
2.66
1.83
1.26
0.58
-0.58
-2.56
-5.44
-9.18
-13.52
-18.06
-22.24
-25.42
-26.99
-26.55
-24.07
-19.89
-14.64
-9.11
-3.95
0.47
4.07
6.95
9.23
10.96
12.14
12.74
12.84
12.65
12.43
12.43
12.78
13.39
14.04
14.39
14.14
13.1
11.29
8.9
6.24
3.59
1.13
-1.2
-3.6
-6.37
-9.76
-13.84
-18.38
-22.91
-26.7
-28.97
-29.1
-26.83
-22.41
-16.53
-10.13
-4.15
0.73
4.23
6.4
7.47
7.8
7.7
7.51
7.51
7.97
9.04
10.76
12.97
15.38
17.56
19.05
19.51
18.77
16.92
14.3
11.37
8.52
5.94
3.57
1.18
-1.53
-4.74
-8.48
-12.6
-16.86
-20.86
-24.14
-26.15
-26.42
-24.7
-21.09
-16.08
-10.37
-4.72
0.31
4.48
7.79
10.35
12.22
13.38
13.8
13.52
12.77
11.88
11.2
10.94
11.07
11.39
11.61
11.45
10.77
9.6
8.08
6.38
4.69
3.06
1.5
-0.06
-1.76
-3.76
-6.24
-9.35
-13.11
-17.26
-21.24
-24.21
-25.34
-24.05
-20.33
-14.79
-8.41
-2.25
2.98
6.98
9.89
11.99
13.5
14.47
14.85
14.66
14.1
13.53
13.34
13.72
14.54
15.4
15.85
15.53
14.41
12.68
10.66
8.59
6.58
4.57
2.49
0.26
-2.12
-4.71
-7.58
-10.85
-14.52
-18.33
-21.8
-24.23
-24.99
-23.75
-20.57
-15.91
-10.52
-5.13
-0.3
3.62
6.53
8.44
9.47
9.76
9.51
8.99
8.48
8.27
8.58
9.45
10.67
11.88
12.65
12.6
11.62
9.87
7.73
5.59
3.7
2.06
0.43
-1.5
-3.92
-6.96
-10.57
-14.57
-18.68
-22.45
-25.32
-26.64
-25.96
-23.18
-18.65
-13.06
-7.24
-1.91
2.53
5.94
8.33
9.78
10.33
10.09
9.29
8.31
7.6
7.53
8.18
9.3
10.4
10.98
10.73
9.65
7.98
6.06
4.16
2.33
0.5
-1.48
-3.71
-6.27
-9.2
-12.59
-16.51
-20.85
-25.29
-29.14
-31.56
-31.82
-29.56
-25
-18.94
-12.4
-6.36
-1.42
2.28
4.9
6.7
7.83
8.31
8.16
7.54
6.8
6.39
6.68
7.73
9.19
10.51
11.08
10.62
9.24
7.35
5.51
4.07
3.07
2.27
1.33
-0.05
-1.99
-4.48
-7.43
-10.73
-14.17
-17.33
-19.65
-20.51
-19.52
-16.67
-12.36
-7.26
-2.04
2.81
7.07
10.68
13.62
15.82
17.21
17.81
17.8
17.47
17.19
17.18
17.55
18.1
18.56
18.54
17.81
16.26
14.02
11.38
8.65
6.05
3.67
1.42
-0.84
-3.28
-6.09
-9.43
-13.44
-18.12
-23.15
-27.84
-31.19
-32.27
-30.54
-26.15
-19.93
-13.02
-6.52
-1.09
3.07
6.06
8
8.95
8.96
8.18
7.04
6.09
5.83
6.45
7.79
9.35
10.59
11.07
10.63
9.34
7.44
5.25
2.98
0.81
-1.27
-3.35
-5.59
-8.14
-11.13
-14.62
-18.44
-22.29
-25.59
-27.67
-27.98
-26.23
-22.63
-17.73
-12.34
-7.17
-2.68
0.99
3.86
6
7.45
8.21
8.34
8.03
7.61
7.41
7.69
8.48
9.58
10.63
11.2
11.01
10.01
8.42
6.61
4.89
3.39
2
0.41
-1.7
-4.53
-8.06
-12.11
-16.31
-20.2
-23.24
-24.88
-24.72
-22.64
-18.89
-14
-8.64
-3.43
1.21
5.08
8.07
10.1
11.13
11.17
10.46
9.42
8.57
8.27
8.62
9.44
10.32
10.93
11.02
10.56
9.64
8.37
6.85
5.1
3.1
0.8
-1.89
-5.11
-8.98
-13.42
-18.14
-22.54
-25.87
-27.45
-26.94
-24.38
-20.22
-15.14
-9.8
-4.76
-0.38
3.14
5.7
7.27
7.89
7.7
6.98
6.12
5.58
5.66
6.48
7.83
9.26
10.27
10.43
9.63
8.03
6.01
3.95
2.05
0.25
-1.71
-4.09
-7.13
-10.93
-15.39
-20.2
-24.8
-28.41
-30.2
-29.47
-25.97
-20.1
-12.8
-5.29
1.37
6.58
10.36
13.1
15.33
17.37
19.26
20.88
22.12
23.04
23.89
24.89
26.12
27.35
28.15
28.01
26.64
24.1
20.75
17.08
13.53
10.23
7.1
3.85
0.18
-4.08
-8.93
-14.15
-19.36
-24
-27.48
-29.24
-28.98
-26.74
-22.96
-18.33
-13.53
-9.01
-4.86
-1
2.65
5.93
8.47
9.91
10.09
9.33
8.24
7.48
7.42
7.96
8.65
8.96
8.56
7.45
5.85
4.04
2.14
0.08
-2.27
-5
-8.01
-11.08
-14.06
-16.89
-19.7
-22.61
-25.48
-27.87
-29.03
-28.31
-25.37
-20.42
-14.13
-7.37
-0.84
5.16
10.66
15.82
20.64
24.96
28.55
31.35
33.54
35.55
37.68
39.98
42.13
43.54
43.67
42.22
39.23
35.01
30.04
24.87
19.96
15.7
12.31
9.76
7.78
5.9
3.59
0.42
-3.78
-8.92
-14.54
-19.95
-24.27
-26.73
-26.77
-24.4
-20.11
-14.8
-9.51
-4.97
-1.57
0.74
2.21
3.07
3.44
3.34
2.77
1.9
1.05
0.57
0.68
1.41
2.54
3.72
4.6
4.92
4.6
3.69
2.34
0.74
-0.98
-2.72
-4.49
-6.33
-8.32
-10.56
-13.18
-16.25
-19.73
-23.33
-26.52
-28.58
-28.86
-27.01
-23.07
-17.58
-11.31
-5.08
0.53
5.17
8.78
11.45
13.27
14.41
15.01
15.26
15.35
15.5
15.84
16.42
17.17
17.89
18.31
18.15
17.21
15.47
13.06
10.31
7.59
5.25
3.5
2.32
1.48
0.59
-0.76
-2.87
-5.69
-8.77
-11.33
-12.44
-11.33
-7.77
-2.17
4.44
10.79
15.77
18.8
19.87
19.43
18.07
16.23
14.18
12.12
10.27
9
8.66
9.47
11.3
13.66
15.83
17.13
17.15
15.84
13.45
10.44
7.23
4.11
1.22
-1.49
-4.19
-7.07
-10.31
-14.02
-18.13
-22.41
-26.48
-29.76
-31.64
-31.59
-29.38
-25.15
-19.45
-13.03
-6.64
-0.84
4.12
8.24
11.59
14.2
16.01
16.97
17.17
16.89
16.51
16.47
16.95
17.87
18.98
19.93
20.46
20.52
20.19
19.59
18.82
17.83
16.53
14.85
12.83
10.56
8.2
5.83
3.49
1.12
-1.34
-3.86
-6.29
-8.35
-9.7
-10.03
-9.18
-7.21
-4.38
-1.14
2
4.64
6.5
7.5
7.72
7.35
6.6
5.72
4.94
4.44
4.3
4.52
4.91
5.27
5.33
4.92
3.99
2.66
1.1
-0.49
-1.97
-3.29
-4.43
-5.45
-6.47
-7.6
-8.98
-10.72
-12.86
-15.34
-17.96
-20.46
-22.5
-23.8
-24.14
-23.49
-21.96
-19.77
-17.19
-14.42
-11.61
-8.88
-6.37
-4.26
-2.71
-1.81
-1.51
-1.57
-1.74
-1.76
-1.52
-1
-0.31
0.4
1
1.33
1.28
0.75
-0.23
-1.56
-3.05
-4.55
-5.99
-7.37
-8.78
-10.39
-12.3
-14.55
-17
-19.35
-21.15
-21.98
-21.56
-19.84
-17.09
-13.74
-10.2
-6.78
-3.64
-0.86
1.48
3.22
4.24
4.55
4.33
3.95
3.76
3.93
4.44
5.04
5.4
5.35
4.89
4.16
3.28
2.35
1.37
0.35
-0.66
-1.58
-2.35
-3.09
-4.03
-5.42
-7.41
-9.88
-12.46
-14.62
-15.92
-16.06
-15.01
-12.93
-10.07
-6.74
-3.26
0.06
2.96
5.28
6.93
7.98
8.55
8.81
8.91
9
9.21
9.63
10.2
10.78
11.13
10.97
10.15
8.68
6.78
4.72
2.75
0.93
-0.83
-2.74
-4.98
-7.61
-10.56
-13.63
-16.56
-19.05
-20.83
-21.58
-21.11
-19.36
-16.5
-12.87
-8.95
-5.18
-1.89
0.76
2.69
3.94
4.54
4.63
4.35
3.97
3.75
3.84
4.24
4.71
4.95
4.67
3.74
2.23
0.33
-1.74
-3.82
-5.84
-7.79
-9.75
-11.79
-14.06
-16.73
-19.96
-23.78
-28.04
-32.38
-36.28
-39.14
-40.46
-39.89
-37.35
-33.03
-27.37
-21.03
-14.63
-8.71
-3.53
0.78
4.28
7.03
9.09
10.53
11.48
12.16
12.84
13.66
14.56
15.31
15.53
14.97
13.57
11.56
9.28
7.06
5
2.96
0.67
-2.14
-5.58
-9.58
-14.01
-18.64
-23.16
-27.07
-29.71
-30.33
-28.44
-24.07
-17.79
-10.62
-3.61
2.51
7.48
11.41
14.61
17.23
19.32
20.77
21.6
21.98
22.2
22.58
23.26
24.19
25.13
25.77
25.82
25.12
23.68
21.64
19.22
16.64
14.06
11.54
9.04
6.43
3.51
0.07
-4.01
-8.7
-13.7
-18.38
-21.92
-23.47
-22.53
-19.11
-13.83
-7.63
-1.47
4
8.55
12.25
15.27
17.64
19.33
20.25
20.46
20.26
20.06
20.3
21.14
22.47
23.82
24.67
24.57
23.37
21.25
18.57
15.79
13.18
10.78
8.38
5.7
2.47
-1.45
-6.04
-11.13
-16.43
-21.44
-25.52
-27.95
-28.18
-25.98
-21.63
-15.78
-9.29
-2.94
2.73
7.45
11.09
13.61
14.97
15.29
14.84
14.1
13.55
13.58
14.25
15.29
16.22
16.52
15.87
14.18
11.72
8.89
6.16
3.8
1.87
0.08
-2.01
-4.88
-8.86
-13.91
-19.63
-25.2
-29.6
-31.89
-31.48
-28.3
-22.86
-16.05
-8.87
-2.11
3.76
8.59
12.42
15.33
17.27
18.23
18.29
17.74
17.02
16.59
16.72
17.33
18.04
18.29
17.65
16.02
13.62
10.88
8.22
5.86
3.74
1.63
-0.78
-3.71
-7.29
-11.57
-16.42
-21.48
-26.08
-29.37
-30.49
-28.99
-24.99
-19.21
-12.69
-6.32
-0.65
4.23
8.52
12.36
15.66
18.15
19.57
19.86
19.32
18.49
17.95
18.03
18.71
19.59
20.09
19.73
18.3
15.98
13.16
10.3
7.69
5.32
2.96
0.31
-2.9
-6.74
-11.13
-15.86
-20.61
-24.93
-28.27
-29.97
-29.52
-26.77
-21.99
-15.87
-9.31
-3.09
2.32
6.85
10.65
13.88
16.6
18.74
20.2
21
21.35
21.55
21.83
22.23
22.57
22.55
21.92
20.57
18.59
16.23
13.72
11.25
8.91
6.68
4.49
2.23
-0.2
-2.95
-6.1
-9.73
-13.81
-18.17
-22.44
-26.08
-28.44
-28.96
-27.32
-23.59
-18.25
-12.01
-5.66
0.18
5.15
9.12
12.14
14.33
15.81
16.72
17.22
17.46
17.61
17.78
18.04
18.36
18.66
18.78
18.53
17.76
16.41
14.56
12.34
9.94
7.5
5.08
2.65
0.21
-2.29
-4.87
-7.62
-10.71
-14.32
-18.43
-22.76
-26.68
-29.37
-30.12
-28.55
-24.81
-19.47
-13.37
-7.3
-1.8
2.89
6.8
10.03
12.67
14.73
16.19
17.04
17.34
17.3
17.1
16.92
16.81
16.73
16.56
16.19
15.53
14.57
13.29
11.67
9.67
7.3
4.62
1.83
-0.87
-3.29
-5.37
-7.22
-9.14
-11.45
-14.41
-18.02
-21.98
-25.66
-28.25
-29.01
-27.5
-23.72
-18.17
-11.71
-5.25
0.46
5.06
8.48
10.94
12.64
13.77
14.46
14.78
14.87
14.92
15.08
15.41
15.82
16.12
16.11
15.7
14.87
13.69
12.25
10.6
8.74
6.68
4.46
2.14
-0.21
-2.55
-4.87
-7.22
-9.68
-12.32
-15.23
-18.39
-21.63
-24.5
-26.4
-26.72
-25.1
-21.66
-16.97
-11.86
-7.11
-3.22
-0.26
1.93
3.58
4.86
5.77
6.31
6.52
6.54
6.58
6.8
7.19
7.62
7.84
7.65
6.93
5.68
4
2.01
-0.16
-2.38
-4.58
-6.66
-8.61
-10.47
-12.39
-14.59
-17.31
-20.64
-24.42
-28.18
-31.22
-32.85
-32.58
-30.2
-25.93
-20.28
-13.89
-7.44
-1.48
3.62
7.66
10.59
12.47
13.45
13.71
13.5
13.11
12.83
12.91
13.42
14.26
15.18
15.87
16.08
15.71
14.79
13.39
11.61
9.56
7.3
4.93
2.5
0.05
-2.44
-5.05
-7.9
-11.12
-14.78
-18.72
-22.57
-25.69
-27.34
-26.88
-24.06
-19.18
-12.99
-6.49
-0.54
4.36
8.13
10.99
13.18
14.89
16.12
16.89
17.29
17.53
17.84
18.38
19.18
20.01
20.59
20.63
19.97
18.6
16.68
14.38
11.86
9.24
6.54
3.78
0.97
-1.87
-4.75
-7.72
-10.94
-14.5
-18.39
-22.34
-25.82
-28.14
-28.72
-27.26
-23.88
-19.11
-13.7
-8.39
-3.72
0.07
3.03
5.31
7.08
8.39
9.25
9.67
9.72
9.58
9.46
9.52
9.79
10.19
10.52
10.58
10.24
9.42
8.2
6.64
4.88
3.01
1.09
-0.87
-2.91
-5.09
-7.49
-10.19
-13.24
-16.68
-20.42
-24.17
-27.39
-29.45
-29.75
-28
-24.38
-19.46
-14.04
-8.83
-4.25
-0.44
2.71
5.31
7.39
8.88
9.75
10.06
10.01
9.82
9.73
9.86
10.24
10.84
11.58
12.31
12.8
12.73
11.84
9.98
7.15
3.62
-0.25
-4.04
-7.47
-10.39
-12.86
-15.04
-17.17
-19.47
-22.01
-24.69
-27.11
-28.73
-28.94
-27.35
-23.94
-19.09
-13.45
-7.75
-2.53
1.88
5.41
8.13
10.13
11.48
12.22
12.48
12.48
12.45
12.6
13.03
13.69
14.42
15.03
15.32
15.17
14.48
13.22
11.42
9.18
6.64
4.03
1.53
-0.72
-2.66
-4.39
-6.09
-7.99
-10.34
-13.31
-16.84
-20.63
-24.12
-26.63
-27.54
-26.53
-23.66
-19.36
-14.28
-9.07
-4.22
-0.04
3.34
5.89
7.6
8.55
8.84
8.65
8.25
7.94
7.98
8.55
9.62
10.95
12.13
12.74
12.49
11.32
9.38
6.96
4.36
1.82
-0.5
-2.58
-4.45
-6.3
-8.4
-11.04
-14.37
-18.23
-22.12
-25.25
-26.88
-26.52
-24.15
-20.15
-15.22
-10.04
-5.17
-0.91
2.63
5.46
7.51
8.74
9.11
8.73
7.91
7.04
6.55
6.67
7.36
8.36
9.27
9.75
9.58
8.77
7.48
5.92
4.29
2.7
1.11
-0.58
-2.61
-5.13
-8.27
-12.03
-16.27
-20.65
-24.67
-27.72
-29.21
-28.72
-26.21
-21.96
-16.65
-11.04
-5.84
-1.48
1.91
4.45
6.32
7.68
8.59
9.07
9.19
9.14
9.14
9.45
10.19
11.27
12.45
13.42
13.9
13.78
13.05
11.79
10.11
8.12
5.91
3.63
1.34
-0.89
-3.09
-5.36
-7.81
-10.49
-13.24
-15.67
-17.26
-17.46
-15.89
-12.59
-7.98
-2.8
2.16
6.3
9.36
11.45
12.84
13.8
14.43
14.69
14.45
13.7
12.58
11.37
10.38
9.76
9.42
9.13
8.61
7.66
6.3
4.71
3.15
1.79
0.64
-0.45
-1.71
-3.37
-5.56
-8.35
-11.69
-15.35
-18.98
-22.08
-24.09
-24.57
-23.3
-20.4
-16.28
-11.56
-6.86
-2.66
0.83
3.54
5.52
6.86
7.59
7.81
7.65
7.34
7.17
7.38
8.09
9.22
10.49
11.55
12.09
11.95
11.15
9.86
8.29
6.59
4.81
2.87
0.68
-1.85
-4.78
-8.12
-11.84
-15.79
-19.61
-22.76
-24.62
-24.67
-22.75
-19.07
-14.24
-9
-4.05
0.15
3.37
5.58
6.87
7.38
7.33
6.98
6.63
6.57
6.97
7.85
9.01
10.11
10.76
10.67
9.79
8.32
6.62
5.02
3.7
2.52
1.24
-0.43
-2.65
-5.4
-8.57
-11.98
-15.42
-18.61
-21.09
-22.33
-21.85
-19.41
-15.24
-9.97
-4.4
0.7
4.91
8.13
10.5
12.18
13.23
13.63
13.39
12.65
11.78
11.19
11.23
11.92
13.04
14.07
14.51
14.02
12.55
10.36
7.83
5.37
3.22
1.4
-0.25
-2.01
-4.16
-6.88
-10.22
-13.97
-17.71
-20.87
-22.83
-23.13
-21.54
-18.23
-13.66
-8.49
-3.36
1.25
5.13
8.21
10.56
12.23
13.28
13.76
13.83
13.7
13.65
13.9
14.5
15.31
16.03
16.34
15.99
14.98
13.45
11.66
9.85
8.14
6.47
4.7
2.66
0.22
-2.61
-5.82
-9.3
-12.91
-16.4
-19.36
-21.26
-21.6
-20.05
-16.65
-11.87
-6.43
-1.09
3.59
7.36
10.24
12.37
13.86
14.81
15.26
15.33
15.22
15.16
15.34
15.77
16.35
16.87
17.11
16.96
16.38
15.45
14.25
12.88
11.41
9.85
8.16
6.26
4.06
1.48
-1.54
-4.96
-8.75
-12.74
-16.59
-19.76
-21.56
-21.45
-19.16
-14.98
-9.64
-4.04
1.06
5.29
8.66
11.36
13.51
15.05
15.8
15.69
14.88
13.81
13.03
12.88
13.4
14.24
14.94
15.05
14.43
13.13
11.38
9.4
7.31
5.15
2.95
0.7
-1.57
-3.92
-6.53
-9.6
-13.24
-17.3
-21.36
-24.74
-26.74
-26.88
-25.08
-21.66
-17.25
-12.55
-8.15
-4.4
-1.41
0.8
2.26
2.97
2.96
2.38
1.55
0.86
0.65
1.04
1.92
2.95
3.77
4.09
3.79
2.87
1.42
-0.42
-2.52
-4.72
-6.88
-8.96
-10.96
-13.03
-15.38
-18.12
-21.23
-24.4
-27.08
-28.64
-28.51
-26.41
-22.5
-17.35
-11.72
-6.35
-1.7
2.08
5.06
7.41
9.21
10.46
11.15
11.4
11.46
11.65
12.21
13.18
14.28
15.1
15.24
14.5
12.98
10.97
8.87
6.97
5.36
3.95
2.45
0.6
-1.91
-5.27
-9.55
-14.51
-19.61
-24.05
-26.93
-27.58
-25.81
-22.01
-17
-11.7
-6.84
-2.74
0.66
3.57
6.15
8.41
10.22
11.47
12.19
12.58
12.89
13.33
13.96
14.66
15.2
15.34
14.94
14.01
12.65
10.99
9.17
7.31
5.42
3.48
1.4
-0.95
-3.69
-6.91
-10.57
-14.52
-18.38
-21.59
-23.53
-23.73
-22.03
-18.64
-14.14
-9.21
-4.46
-0.21
3.47
6.66
9.38
11.51
12.87
13.32
13.01
12.34
11.79
11.78
12.39
13.4
14.34
14.82
14.59
13.66
12.25
10.62
8.96
7.38
5.84
4.27
2.55
0.54
-1.87
-4.78
-8.18
-11.97
-15.82
-19.27
-21.71
-22.6
-21.56
-18.6
-14.1
-8.74
-3.32
1.54
5.51
8.55
10.83
12.58
13.92
14.88
15.45
15.67
15.71
15.77
16
16.42
16.88
17.13
16.9
16.05
14.57
12.64
10.46
8.27
6.21
4.36
2.65
0.98
-0.82
-2.94
-5.53
-8.65
-12.23
-15.99
-19.43
-21.93
-22.88
-21.89
-18.96
-14.53
-9.35
-4.21
0.29
3.92
6.75
8.99
10.8
12.17
13
13.22
12.9
12.28
11.69
11.37
11.4
11.66
11.96
12.07
11.85
11.25
10.25
8.86
7.18
5.27
3.26
1.26
-0.67
-2.56
-4.54
-6.83
-9.63
-12.99
-16.78
-20.53
-23.6
-25.28
-25.1
-22.97
-19.24
-14.59
-9.72
-5.2
-1.29
2.02
4.85
7.28
9.3
10.81
11.75
12.2
12.41
12.68
13.22
14.12
15.28
16.42
17.27
17.62
17.31
16.31
14.67
12.5
9.94
7.2
4.48
1.97
-0.22
-2.14
-3.95
-5.99
-8.59
-11.97
-16.08
-20.53
-24.64
-27.58
-28.67
-27.57
-24.38
-19.65
-14.13
-8.57
-3.57
0.59
3.84
6.32
8.19
9.63
10.78
11.77
12.73
13.76
14.89
16.06
17.1
17.83
18.06
17.74
16.96
15.88
14.65
13.39
12.04
10.52
8.72
6.62
4.29
1.87
-0.5
-2.74
-4.82
-6.85
-8.98
-11.41
-14.18
-17.21
-20.14
-22.42
-23.49
-22.92
-20.64
-16.91
-12.3
-7.43
-2.84
1.12
4.33
6.81
8.64
9.95
10.88
11.59
12.21
12.85
13.59
14.37
15.09
15.59
15.75
15.53
14.95
14.09
13.02
11.79
10.37
8.77
6.99
5.1
3.13
1.11
-0.94
-3.1
-5.41
-7.94
-10.72
-13.77
-17.02
-20.23
-23
-24.74
-24.89
-23.18
-19.75
-15.15
-10.19
-5.56
-1.67
1.49
4.1
6.35
8.28
9.79
10.74
11.1
11.06
10.93
10.98
11.32
11.86
12.38
12.65
12.54
12.03
11.15
9.97
8.55
6.92
5.15
3.3
1.48
-0.24
-1.83
-3.37
-5.03
-6.99
-9.41
-12.31
-15.51
-18.6
-21
-22.07
-21.43
-19.02
-15.22
-10.7
-6.24
-2.45
0.42
2.45
3.93
5.18
6.33
7.31
7.94
8.13
7.92
7.56
7.36
7.5
7.92
8.39
8.59
8.3
7.51
6.41
5.17
3.86
2.42
0.71
-1.34
-3.69
-6.17
-8.66
-11.08
-13.54
-16.18
-19.05
-22.01
-24.64
-26.34
-26.57
-25.05
-21.89
-17.59
-12.84
-8.32
-4.45
-1.36
1.03
2.9
4.33
5.37
6.04
6.4
6.61
6.83
7.17
7.59
8
8.29
8.43
8.49
8.54
8.62
8.67
8.54
8.07
7.13
5.68
3.74
1.35
-1.42
-4.46
-7.64
-10.86
-14.08
-17.33
-20.64
-23.84
-26.56
-28.23
-28.3
-26.51
-23.02
-18.39
-13.37
-8.58
-4.34
-0.68
2.52
5.35
7.78
9.68
10.99
11.75
12.12
12.36
12.7
13.25
14.01
14.82
15.47
15.74
15.48
14.59
13.13
11.21
9.01
6.71
4.41
2.15
-0.06
-2.28
-4.56
-6.99
-9.63
-12.57
-15.8
-19.21
-22.51
-25.25
-26.94
-27.17
-25.77
-22.85
-18.85
-14.27
-9.67
-5.39
-1.6
1.68
4.51
6.91
8.89
10.45
11.61
12.43
13.02
13.49
13.92
14.32
14.68
14.92
14.96
14.72
14.13
13.22
12
10.53
8.86
7.05
5.16
3.24
1.35
-0.53
-2.46
-4.56
-6.97
-9.76
-12.9
-16.23
-19.45
-22.14
-23.88
-24.31
-23.22
-20.64
-16.82
-12.23
-7.37
-2.68
1.54
5.16
8.18
10.69
12.71
14.28
15.42
16.14
16.53
16.73
16.88
17.11
17.42
17.73
17.87
17.67
17
15.86
14.28
12.38
10.23
7.88
5.39
2.87
0.46
-1.65
-3.37
-4.77
-6.06
-7.61
-9.71
-12.45
-15.59
-18.61
-20.8
-21.49
-20.29
-17.21
-12.73
-7.67
-2.86
1.03
3.73
5.37
6.31
6.95
7.56
8.21
8.83
9.35
9.76
10.13
10.53
11
11.45
11.73
11.65
11.14
10.19
8.89
7.4
5.84
4.26
2.66
0.97
-0.86
-2.83
-4.92
-7.13
-9.47
-12
-14.71
-17.46
-19.94
-21.67
-22.19
-21.16
-18.62
-14.89
-10.55
-6.22
-2.39
0.69
2.99
4.66
5.88
6.74
7.29
7.54
7.53
7.4
7.32
7.48
7.92
8.52
9.08
9.35
9.16
8.44
7.24
5.65
3.78
1.75
-0.34
-2.38
-4.3
-6.09
-7.87
-9.78
-12
-14.6
-17.59
-20.71
-23.51
-25.39
-25.77
-24.31
-21.05
-16.47
-11.34
-6.43
-2.29
0.95
3.42
5.41
7.15
8.66
9.85
10.59
10.88
10.86
10.78
10.85
11.14
11.57
11.91
11.92
11.46
10.51
9.18
7.62
5.92
4.11
2.16
0.07
-2.13
-4.38
-6.67
-9.08
-11.76
-14.77
-17.99
-21.04
-23.32
-24.21
-23.31
-20.62
-16.54
-11.7
-6.78
-2.32
1.42
4.35
6.53
8.05
8.99
9.47
9.62
9.67
9.82
10.21
10.88
11.7
12.49
13.05
13.18
12.8
11.87
10.4
8.53
6.46
4.42
2.63
1.15
-0.12
-1.36
-2.8
-4.65
-6.98
-9.81
-12.97
-16.21
-19.08
-21.09
-21.72
-20.72
-18.14
-14.37
-10
-5.62
-1.66
1.69
4.4
6.54
8.13
9.2
9.8
10.03
10.09
10.23
10.62
11.33
12.3
13.28
14.01
14.24
13.79
12.66
11.01
9.06
7.07
5.22
3.58
2.09
0.6
-1.06
-3.01
-5.35
-8.12
-11.23
-14.43
-17.29
-19.26
-19.76
-18.48
-15.46
-11.17
-6.35
-1.72
2.19
5.21
7.45
9.13
10.39
11.25
11.64
11.56
11.19
10.8
10.67
10.92
11.46
12.02
12.27
12.04
11.27
10.1
8.73
7.3
5.87
4.41
2.84
1.01
-1.15
-3.73
-6.75
-10.17
-13.78
-17.28
-20.24
-22.14
-22.52
-21.13
-18
-13.52
-8.36
-3.26
1.16
4.55
6.86
8.23
8.85
8.91
8.55
7.91
7.23
6.8
6.9
7.6
8.76
9.95
10.71
10.69
9.8
8.21
6.25
4.2
2.21
0.24
-1.83
-4.14
-6.73
-9.6
-12.73
-16.03
-19.37
-22.47
-24.9
-26.11
-25.68
-23.41
-19.5
-14.5
-9.09
-3.9
0.69
4.54
7.66
10.11
11.89
12.94
13.3
13.13
12.74
12.49
12.6
13.11
13.8
14.3
14.29
13.6
12.26
10.45
8.42
6.34
4.31
2.33
0.39
-1.59
-3.69
-6.02
-8.69
-11.83
-15.42
-19.23
-22.73
-25.23
-26.01
-24.7
-21.36
-16.53
-11.04
-5.69
-1.03
2.73
5.67
7.93
9.63
10.8
11.51
11.84
12
12.2
12.62
13.28
14.09
14.88
15.41
15.49
15.01
13.98
12.53
10.88
9.19
7.53
5.84
3.98
1.81
-0.75
-3.7
-7.03
-10.69
-14.62
-18.6
-22.21
-24.8
-25.72
-24.55
-21.3
-16.42
-10.7
-4.97
0.11
4.22
7.24
9.3
10.56
11.27
11.63
11.86
12.15
12.58
13.16
13.8
14.45
15.01
15.43
15.58
15.34
14.63
13.42
11.81
10
8.2
6.55
5.03
3.53
1.81
-0.31
-3.01
-6.33
-10.18
-14.24
-18.03
-20.93
-22.35
-21.9
-19.53
-15.55
-10.56
-5.24
-0.17
4.25
7.84
10.55
12.35
13.3
13.5
13.15
12.52
11.88
11.46
11.36
11.59
12.04
12.56
12.91
12.88
12.24
10.86
8.76
6.11
3.27
0.59
-1.59
-3.13
-4.12
-4.85
-5.74
-7.25
-9.67
-13.03
-16.98
-20.85
-23.78
-24.99
-24.04
-20.99
-16.35
-10.9
-5.4
-0.41
3.77
7.05
9.42
10.9
11.55
11.52
11.12
10.79
10.91
11.69
13.07
14.76
16.35
17.48
17.97
17.79
17.04
15.83
14.29
12.53
10.6
8.51
6.23
3.73
0.9
-2.32
-5.93
-9.8
-13.61
-16.93
-19.21
-20.01
-19.11
-16.59
-12.88
-8.51
-4.03
0.16
3.87
7.03
9.58
11.44
12.54
12.83
12.44
11.61
10.67
9.95
9.64
9.77
10.2
10.67
10.87
10.55
9.61
8.08
6.15
4.04
1.92
-0.15
-2.25
-4.58
-7.3
-10.52
-14.21
-18.17
-22
-25.23
-27.31
-27.85
-26.65
-23.83
-19.79
-15.04
-10.12
-5.37
-1.03
2.78
5.96
8.37
9.88
10.47
10.32
9.74
9.13
8.86
9.09
9.8
10.75
11.57
11.95
11.7
10.79
9.32
7.46
5.37
3.11
0.73
-1.74
-4.26
-6.84
