3.72
5.94
7.87
9.32
10.31
10.98
11.53
12.26
13.37
14.95
16.95
19.16
21.34
23.31
25.02
26.52
27.93
29.31
30.63
31.82
32.78
33.5
34.01
34.25
34.11
33.4
32.02
30.07
27.84
25.68
23.78
22.06
20.17
17.7
14.35
10.08
5.13
-0.11
-5.21
-9.76
-13.46
-16.12
-17.68
-18.26
-18.13
-17.64
-17.18
-17.08
-17.58
-18.76
-20.56
-22.74
-24.96
-26.85
-28.08
-28.45
-27.94
-26.69
-25.01
-23.27
-21.79
-20.75
-20.07
-19.53
-18.84
-17.75
-16.18
-14.21
-11.98
-9.67
-7.4
-5.26
-3.38
-1.89
-0.92
-0.48
-0.41
-0.5
-0.49
-0.26
0.18
0.68
1.03
1.11
0.89
0.45
-0.06
-0.52
-0.87
-1.13
-1.4
-1.75
-2.25
-2.87
-3.56
-4.23
-4.83
-5.36
-5.94
-6.7
-7.85
-9.48
-11.61
-14.02
-16.36
-18.21
-19.23
-19.41
-19.03
-18.54
-18.37
-18.62
-19.01
-19
-18.07
-15.96
-12.72
-8.74
-4.56
-0.72
2.4
4.65
6.21
7.53
9.28
12.14
16.43
22.06
28.44
34.68
39.91
43.52
45.34
45.62
44.9
43.71
42.3
40.45
37.54
32.82
25.82
16.67
6.14
-4.54
-14.11
-21.58
-26.46
-28.61
-28.17
-25.43
-20.99
-15.82
-11.34
-9.06
-10.03
-14.21
-20.19
-25.57
-27.8
-25.33
-18.18
-7.78
3.97
15.79
27.71
41.11
57.93
79.64
106.15
135.19
162.38
182.13
189.27
180.77
157.02
121.95
81.95
43.86
13
-8.13
-20.24
-26.81
-32.91
-43.44
-61.2
-85.57
-112.4
-135.57
-149.84
-153.47
-149.2
-142.79
-139.95
-143.32
-151.27
-158.99
-161.06
-154.16
-138.17
-115.67
-90.29
-65
-41.41
-19.87
-0.41
16.47
29.38
36.56
36.91
30.88
20.83
10.43
3.48
2.51
7.73
16.88
26
31.02
29.4
21.21
9.24
-1.95
-7.99
-6.43
2.21
14.83
27.15
35.64
38.91
37.96
35.41
33.99
35.42
39.94
46.67
54.39
62.13
69.55
76.54
83.12
88.87
93.06
94.91
93.94
90.05
83.6
75.22
65.37
54.83
44.09
33.65
24.17
16.41
11.03
8.15
7.01
5.47
1.58
-7.09
-22.05
-43.3
-68.98
-95.56
-118.28
-132.04
-133.3
-119.63
-93.23
-60.28
-29.41
-8.72
-2.63
-10.18
-25.82
-42.72
-53.4
-54.57
-46.19
-30.11
-8.49
16.75
43.2
72.45
92.28
98.95
89.99
66.83
34.66
0.56
-29.01
-50.16
-62.1
-67.05
-66.2
-61.3
-53.44
-43.33
-31.8
-19.89
-8.75
0.6
6.71
9.59
8.6
3.46
-5.53
-17.25
-30.11
-42.55
-53.5
-62.93
-70.32
-75.64
-78.59
-78.86
-76.45
-72.14
-67.42
-63.92
-63.04
-64.73
-68.22
-72.23
-75.59
-77.7
-78.53
-78.38
-77.41
-75.57
-72.51
-68.19
-63.05
-57.87
-53.32
-49.45
-45.57
-40.63
-33.96
-25.68
-16.71
-7.98
0.12
8.09
16.77
26.5
36.54
45.15
50.41
51.25
48.12
42.81
37.69
34.78
35.05
38.34
43.73
50.12
56.63
62.84
68.59
73.84
78.46
82.12
84.54
85.7
86.02
86.29
87.32
89.5
92.63
95.92
98.41
99.32
98.28
95.3
90.56
84.29
76.78
68.44
59.86
51.69
44.46
38.32
33.07
28.17
23.01
17.14
10.37
2.93
-4.67
-11.68
-17.43
-21.47
-23.8
-24.91
-25.62
-26.95
-29.79
-34.74
-41.84
-50.53
-59.52
-67.11
-71.67
-72.2
-68.85
-62.89
-56.21
-50.59
-47.03
-45.43
-44.92
-44.42
-43.23
-41.29
-39.01
-36.95
-35.37
-34.09
-32.66
-30.55
-27.48
-23.48
-18.83
-13.89
-8.85
-3.72
1.63
7.31
13.25
19.1
24.38
28.57
31.36
32.8
33.21
33.11
32.92
32.85
32.79
32.47
31.54
29.82
27.36
24.41
21.31
18.34
15.6
12.93
9.99
6.4
1.97
-3.13
-8.36
-12.88
-15.92
-16.98
-16.04
-13.49
-9.97
-6.09
-2.2
1.6
5.34
9.04
12.53
15.46
17.45
18.32
18.21
17.57
16.99
16.89
17.36
18.1
18.61
18.48
17.56
16.07
14.4
12.91
11.67
10.44
8.85
6.54
3.37
-0.56
-4.93
-9.26
-13
-15.63
-16.76
-16.21
-14.13
-10.88
-7
-2.96
0.92
4.55
7.94
11.06
13.79
15.9
17.19
17.59
17.29
16.65
16.05
15.84
16.12
16.76
17.45
17.8
17.48
16.35
14.51
12.24
9.85
7.56
5.41
3.22
0.73
-2.26
-5.78
-9.54
-12.97
-15.41
-16.24
-15.19
-12.43
-8.49
-4.13
0.04
3.65
6.66
9.25
11.61
13.75
15.49
16.59
16.88
16.44
15.57
14.68
14.12
14.01
14.22
14.38
14.13
13.24
11.74
9.89
8.05
6.41
4.99
3.56
1.81
-0.54
-3.54
-7.03
-10.63
-13.83
-16.13
-17.12
-16.62
-14.71
-11.72
-8.2
-4.65
-1.4
1.43
3.96
6.34
8.57
10.48
11.72
11.96
11.03
8.98
6.18
3.1
0.24
-2.05
-3.68
-4.84
-5.95
-7.46
-9.64
-12.41
-15.33
-17.72
-18.9
-18.51
-16.63
-13.79
-10.73
-8.21
-6.68
-6.23
-6.52
-6.97
-6.94
-5.93
-3.76
-0.59
3.16
7.02
10.61
13.83
16.79
19.66
22.54
25.31
27.72
29.48
30.49
30.88
30.95
31.03
31.28
31.59
31.69
31.21
29.9
27.75
25
22.15
19.67
17.97
17.19
17.1
17.18
16.84
15.63
13.45
10.64
7.94
6.17
5.99
7.64
10.82
14.89
19.12
22.98
26.36
29.54
32.95
37.04
42.05
47.98
54.47
60.75
65.61
67.73
66.09
60.67
52.73
44.73
39.44
38.8
43.09
50.76
59.07
65.35
68.18
67.88
65.92
63.61
60.73
55.15
43.62
23.67
-4.75
-38.74
-73.3
-103.41
-125.87
-139.93
-146.75
-147.96
-144.59
-136.89
-124.93
-109.47
-92.29
-75.78
-62.04
-52.23
-46.39
-43.63
-42.73
-42.58
-42.53
-42.4
-42.46
-43.1
-44.52
-46.57
-48.77
-50.41
-50.9
-49.91
-47.48
-43.96
-39.87
-35.8
-32.31
-29.79
-28.44
-28.17
-28.83
-30.2
-32.23
-35.01
-38.66
-43.17
-48.15
-52.83
-56.25
-57.53
-56.22
-52.43
-46.78
-40.16
-33.51
-27.45
-22.17
-17.45
-12.77
-7.56
-1.46
5.63
13.46
21.58
29.52
36.89
43.57
49.65
55.37
60.98
66.51
71.71
75.98
78.6
79.13
77.66
75.13
73.02
73.05
76.37
83.01
91.44
98.81
101.67
97.35
85.14
66.79
45.9
26.58
11.83
2.68
-1.61
-2.64
-1.81
0.15
2.98
6.3
9.33
11.13
11.13
9.55
7.33
5.52
4.72
4.8
5.1
4.85
3.54
1.06
-2.36
-6.33
-10.36
-14.04
-17.07
-19.33
-20.96
-22.32
-23.92
-26.26
-29.75
-34.41
-39.97
-45.79
-51.09
-55.22
-57.9
-59.26
-59.81
-60.06
-60.23
-60.11
-59.06
-56.37
-51.62
-44.89
-36.86
-28.53
-20.85
-14.47
-9.63
-6.22
-3.94
-2.52
-1.73
-1.36
-1.18
-1.01
-0.75
-0.57
-0.79
-1.8
-3.78
-6.62
-9.82
-12.67
-14.5
-14.88
-13.77
-11.52
-8.78
-6.33
-4.81
-4.61
-5.69
-7.67
-10.01
-12.19
-13.92
-15.12
-15.86
-16.15
-15.89
-14.9
-13.03
-10.3
-6.96
-3.39
0.01
3
5.5
7.61
9.5
11.27
12.97
14.5
15.8
16.79
17.53
18.12
18.64
19.11
19.45
19.47
18.98
17.91
16.26
14.17
11.81
9.35
6.91
4.58
2.39
0.32
-1.78
-4.13
-6.95
-10.36
-14.22
-18.12
-21.49
-23.7
-24.37
-23.37
-20.92
-17.44
-13.39
-9.18
-5.09
-1.29
2.15
5.13
7.51
9.17
10.07
10.27
9.97
9.5
9.15
9.08
9.27
9.52
9.54
9.12
8.16
6.74
5.04
3.3
1.69
0.28
-0.98
-2.27
-3.79
-5.74
-8.2
-11.04
-13.94
-16.42
-17.97
-18.19
-16.94
-14.37
-10.83
-6.84
-2.83
0.9
4.21
7.09
9.57
11.62
13.17
14.1
14.38
14.12
13.56
13.04
12.83
13.02
13.5
13.98
14.11
13.65
12.58
11.04
9.26
7.43
5.6
3.74
1.74
-0.46
-2.87
-5.51
-8.43
-11.71
-15.33
-19.05
-22.32
-24.43
-24.79
-23.15
-19.77
-15.31
-10.52
-5.97
-1.86
1.95
5.69
9.49
13.21
16.52
19.06
20.6
21.14
20.95
20.38
19.75
19.24
18.86
18.52
18.06
17.38
16.4
15.11
13.47
11.51
9.25
6.76
4.13
1.44
-1.23
-3.82
-6.39
-9.08
-11.99
-15.15
-18.38
-21.21
-23.06
-23.37
-21.84
-18.58
-14.05
-8.92
-3.86
0.71
4.65
8.07
11.23
14.33
17.38
20.21
22.56
24.2
25.09
25.38
25.35
25.23
25.06
24.77
24.14
23.07
21.51
19.62
17.55
15.45
13.43
11.56
9.89
8.4
7.01
5.54
3.71
1.25
-2.08
-6.27
-11.13
-16.14
-20.62
-23.81
-25.09
-24.22
-21.4
-17.24
-12.52
-7.93
-3.81
-0.22
2.99
5.91
8.42
10.27
11.26
11.43
11.1
10.7
10.58
10.79
11.09
11.1
10.6
9.58
8.35
7.25
6.58
6.39
6.56
6.79
6.78
6.27
5.09
3.19
0.65
-2.34
-5.55
-8.73
-11.78
-14.69
-17.43
-19.8
-21.35
-21.4
-19.33
-14.82
-8.13
0
8.53
16.55
23.57
29.56
34.84
39.71
44.3
48.52
52.19
55.24
57.88
60.4
63.01
65.58
67.59
68.38
67.43
64.61
60.35
55.41
50.55
46.22
42.43
38.83
34.96
30.48
25.27
19.43
13.22
7
1.13
-4.02
-8.21
-11.34
-13.41
-14.54
-14.86
-14.5
-13.59
-12.27
-10.81
-9.5
-8.6
-8.25
-8.38
-8.78
-9.16
-9.26
-8.92
-8.15
-7.11
-6.05
-5.23
-4.86
-5.06
-5.88
-7.35
-9.42
-12.03
-14.98
-17.99
-20.79
-23.2
-25.27
-27.25
-29.5
-32.3
-35.76
-39.77
-44.11
-48.55
-53.04
-57.61
-62.43
-67.64
-73.22
-78.98
-84.51
-89.2
-92.39
-93.48
-92.1
-88.2
-82.07
-74.21
-65.25
-55.72
-45.93
-36.06
-26.21
-16.52
-7.34
0.89
7.81
13.25
17.34
20.48
23.07
25.32
27.2
28.46
28.83
28.27
26.95
25.23
23.44
21.83
20.36
18.95
17.4
15.57
13.38
10.81
7.85
4.5
0.82
-3.05
-6.73
-9.73
-11.45
-11.4
-9.44
-5.88
-1.35
3.33
7.54
10.97
13.67
15.91
17.92
19.74
21.21
22.07
22.18
21.6
20.59
19.45
18.47
17.75
17.2
16.66
15.92
14.91
13.67
12.26
10.77
9.16
7.32
5.16
2.59
-0.29
-3.36
-6.53
-9.76
-13.06
-16.38
-19.55
-22.12
-23.57
-23.41
-21.48
-18.05
-13.73
-9.27
-5.22
-1.77
1.21
4
6.73
9.27
11.32
12.62
13.14
13.15
13.05
13.14
13.47
13.85
14.01
13.72
12.93
11.7
10.17
8.51
6.85
5.28
3.86
2.52
1.13
-0.51
-2.58
-5.18
-8.3
-11.84
-15.62
-19.36
-22.63
-24.93
-25.78
-24.94
-22.53
-18.99
-14.96
-10.96
-7.22
-3.68
-0.17
3.44
7.02
10.27
12.8
14.38
15.03
15
14.66
14.34
14.17
14.04
13.74
13.07
11.91
10.33
8.5
6.66
5.03
3.76
2.84
2.14
1.38
0.24
-1.58
-4.23
-7.69
-11.74
-15.94
-19.74
-22.57
-23.93
-23.59
-21.6
-18.35
-14.38
-10.27
-6.4
-2.92
0.26
3.26
6.09
8.72
11.01
12.86
14.26
15.29
16.09
16.76
17.37
17.87
18.18
18.16
17.72
16.81
15.52
14.01
12.5
11.11
9.77
8.2
6.06
3.09
-0.78
-5.38
-10.4
-15.49
-20.33
-24.61
-27.94
-29.94
-30.25
-28.73
-25.6
-21.41
-16.83
-12.42
-8.41
-4.73
-1.16
2.43
5.97
9.17
11.71
13.41
14.28
14.55
14.48
14.32
14.21
14.12
13.99
13.7
13.13
12.19
10.86
9.22
7.41
5.6
3.89
2.3
0.71
-1.13
-3.44
-6.44
-10.21
-14.56
-19.08
-23.11
-25.93
-26.98
-26.06
-23.41
-19.61
-15.39
-11.29
-7.53
-4.05
-0.66
2.72
5.97
8.79
10.84
11.96
12.23
11.95
11.52
11.3
11.4
11.77
12.19
12.44
12.35
11.86
11.05
9.97
8.67
7.13
5.33
3.21
0.79
-1.91
-4.92
-8.32
-12.25
-16.67
-21.33
-25.68
-29.03
-30.74
-30.49
-28.45
-25.12
-21.14
-17.02
-12.98
-8.96
-4.77
-0.32
4.24
8.58
12.31
15.15
17.11
18.38
19.26
19.97
20.59
21.02
21.07
20.61
19.59
18.13
16.38
14.49
12.51
10.46
8.31
6.01
3.52
0.76
-2.35
-5.85
-9.63
-13.42
-16.75
-19.01
-19.63
-18.22
-14.77
-9.61
-3.38
3.21
9.53
15.15
19.95
23.94
27.2
29.77
31.6
32.65
32.95
32.62
31.89
30.95
29.87
28.62
27.08
25.18
22.95
20.53
18.14
15.9
13.85
11.91
9.85
7.46
4.53
0.99
-3.07
-7.33
-11.36
-14.65
-16.78
-17.55
-16.98
-15.33
-12.93
-10.1
-6.98
-3.63
-0.04
3.68
7.24
10.25
12.36
13.41
13.55
13.2
12.8
12.64
12.73
12.83
12.61
11.81
10.4
8.49
6.31
4.07
1.9
-0.23
-2.42
-4.87
-7.82
-11.48
-15.92
-20.98
-26.24
-31.02
-34.6
-36.43
-36.37
-34.73
-32.07
-29.02
-25.95
-22.85
-19.49
-15.63
-11.29
-6.79
-2.63
0.75
3.13
4.64
5.62
6.49
7.53
8.78
10.05
11.05
11.51
11.32
10.57
9.54
8.56
7.85
7.45
7.23
6.91
6.22
5
3.17
0.8
-1.93
-4.71
-7.12
-8.71
-9.1
-8.14
-5.93
-2.86
0.65
4.23
7.65
10.9
13.99
16.87
19.45
21.56
23.07
23.99
24.43
24.55
24.48
24.25
23.86
23.28
22.56
21.76
20.94
20.09
19.15
18.04
16.68
15.01
13.03
10.68
7.89
4.58
0.7
-3.74
-8.63
-13.81
-19.12
-24.38
-29.4
-33.94
-37.64
-40.08
-40.86
-39.81
-37.08
-33.14
-28.66
-24.2
-20.01
-16.01
-11.96
-7.8
-3.8
-0.51
1.58
2.32
2.17
2
2.8
5.2
9.24
14.48
20.2
25.74
30.6
34.47
37.12
38.33
37.97
36.06
32.83
28.71
24.19
19.6
15.03
10.28
4.97
-1.26
-8.56
-16.81
-25.63
-34.6
-43.22
-51.06
-57.58
-62.14
-64.04
-62.8
-58.44
-51.64
-43.61
-35.6
-28.52
-22.53
-17.22
-11.91
-6.13
0.17
6.68
12.94
18.69
23.91
28.74
33.27
37.43
40.96
43.59
45.13
45.65
45.43
44.86
44.27
43.83
43.54
43.21
42.67
41.82
40.66
39.26
37.69
35.91
33.87
31.5
28.85
26.14
23.64
21.57
19.96
18.65
17.37
15.89
14.15
12.25
10.32
8.38
6.28
3.84
0.97
-2.13
-4.96
-6.9
-7.5
-6.72
-4.95
-2.86
-1.05
0.11
0.65
0.77
0.68
0.48
0.11
-0.58
-1.66
-2.98
-4.32
-5.37
-5.96
-6.06
-5.88
-5.76
-6.04
-6.95
-8.53
-10.58
-12.81
-14.88
-16.55
-17.74
-18.46
-18.85
-19.09
-19.39
-19.96
-20.94
-22.37
-24.16
-26.02
-27.54
-28.32
-28.12
-26.93
-25.03
-22.78
-20.51
-18.37
-16.33
-14.28
-12.17
-10.02
-7.99
-6.23
-4.8
-3.67
-2.79
-2.1
-1.61
-1.35
-1.32
-1.44
-1.61
-1.75
-1.83
-1.91
-2.09
-2.46
-3.12
-4.09
-5.38
-6.94
-8.65
-10.38
-11.99
-13.4
-14.61
-15.69
-16.69
-17.62
-18.41
-18.97
-19.23
-19.13
-18.69
-17.83
-16.45
-14.36
-11.47
-7.86
-3.85
0.02
3.23
5.36
6.41
6.71
6.84
7.4
8.78
10.98
13.63
16.2
18.16
19.2
19.2
18.32
16.82
14.96
13.01
11.12
9.46
8.07
6.96
6.1
5.35
4.56
3.55
2.15
0.27
-2.07
-4.77
-7.62
-10.42
-13.03
-15.42
-17.71
-20.14
-22.91
-26.09
-29.58
-33.05
-36.06
-38.25
-39.42
-39.58
-38.92
-37.62
-35.76
-33.3
-30.12
-26.13
-21.36
-15.96
-10.21
-4.41
1.03
5.73
9.32
11.53
12.31
11.8
10.37
8.44
6.33
4.18
1.92
-0.54
-3.22
-5.89
-8.1
-9.32
-9.08
-7.17
-3.69
0.98
6.36
11.86
16.94
21.17
24.19
25.78
25.81
24.23
21.03
16.25
10.04
2.75
-5.15
-12.98
-20.04
-25.7
-29.45
-31
-30.24
-27.32
-22.63
-16.82
-10.67
-4.9
0.02
4.04
7.36
10.33
13.12
15.65
17.67
18.91
19.3
19.06
18.59
18.23
18.16
18.24
18.21
17.85
17.12
16.23
15.43
14.88
14.49
13.98
12.97
11.25
8.89
6.18
3.5
1.14
-0.86
-2.69
-4.73
-7.29
-10.54
-14.46
-18.86
-23.49
-27.99
-31.96
-34.92
-36.43
-36.23
-34.3
-30.97
-26.81
-22.36
-18.03
-13.91
-9.9
-5.85
-1.72
2.33
5.99
8.96
11.16
12.71
13.92
15.12
16.45
17.86
19.11
19.97
20.28
20.1
19.63
19.04
18.43
17.73
16.79
15.45
13.65
11.52
9.21
6.92
4.73
2.58
0.37
-2.09
-4.93
-8.18
-11.86
-15.93
-20.27
-24.67
-28.7
-31.83
-33.5
-33.35
-31.38
-27.94
-23.61
-18.93
-14.27
-9.73
-5.25
-0.85
3.36
7.12
10.16
12.35
13.84
14.91
15.92
17.06
18.31
19.47
20.26
20.47
20.09
19.31
18.39
17.59
17
16.48
15.76
14.55
12.68
10.24
7.47
4.66
2.03
-0.42
-2.85
-5.53
-8.67
-12.39
-16.65
-21.24
-25.84
-29.97
-33.08
-34.67
-34.38
-32.19
-28.45
-23.76
-18.7
-13.77
-9.14
-4.85
-0.89
2.7
5.8
8.35
10.35
11.97
13.36
14.63
15.73
16.54
16.94
16.91
16.62
16.31
16.24
16.5
17.02
17.51
17.59
16.89
15.16
12.36
8.68
4.52
0.51
-2.64
-4.31
-4.13
-2.2
0.97
4.56
7.79
10.15
11.53
12.2
12.57
13
13.62
14.41
15.25
16.03
16.69
17.19
17.49
17.49
17.06
16.17
14.83
13.22
11.56
10.08
8.86
7.87
6.97
5.98
4.81
3.42
1.87
0.23
-1.42
-2.96
-4.22
-5.07
-5.38
-5.22
-4.77
-4.31
-4.04
-3.98
-3.99
-3.83
-3.35
-2.55
-1.64
-0.93
-0.68
-0.96
-1.63
-2.32
-2.66
-2.34
-1.26
0.42
2.47
4.63
6.74
8.81
10.86
12.91
14.84
16.46
17.57
17.98
17.67
16.69
15.21
13.48
11.75
10.23
9.09
8.33
7.86
7.49
7.03
6.32
5.23
3.81
2.15
0.47
-1.07
-2.33
-3.31
-4.14
-4.97
-5.97
-7.2
-8.66
-10.27
-11.93
-13.47
-14.73
-15.51
-15.68
-15.23
-14.24
-12.91
-11.44
-9.94
-8.43
-6.87
-5.25
-3.56
-1.88
-0.29
1.12
2.29
3.21
3.84
4.19
4.23
3.89
3.09
1.8
-0
-2.25
-4.76
-7.25
-9.39
-10.85
-11.43
-11.12
-10.2
-9.13
-8.41
-8.33
-8.91
-9.82
-10.57
-10.74
-10.15
-8.93
-7.45
-6.17
-5.41
-5.17
-5.12
-4.54
-2.59
1.35
7.31
14.53
21.57
26.68
28.46
26.36
20.88
13.42
5.75
-0.49
-4.24
-5.19
-3.63
-0.21
4.33
9.32
14.22
18.56
21.9
23.91
24.4
23.41
21.14
17.78
13.39
7.82
0.96
-7.03
-15.55
-23.71
-30.58
-35.52
-38.35
-39.2
-38.28
-35.68
-31.46
-25.74
-19.01
-12.02
-5.67
-0.65
2.73
4.61
5.37
5.44
5.17
4.8
4.57
4.69
5.32
6.5
8.05
9.59
10.7
11.1
10.72
9.73
8.4
6.96
5.48
3.98
2.38
0.69
-1.07
-2.8
-4.46
-5.99
-7.35
-8.45
-9.15
-9.33
-8.92
-7.93
-6.44
-4.58
-2.5
-0.36
1.66
3.33
4.41
4.67
3.95
2.18
-0.54
-3.93
-7.53
-10.89
-13.6
-15.47
-16.52
-16.89
-16.77
-16.34
-15.73
-15.14
-14.81
-15
-15.88
-17.41
-19.38
-21.43
-23.21
-24.53
-25.34
-25.74
-25.87
-25.82
-25.64
-25.38
-25.04
-24.66
-24.26
-23.85
-23.35
-22.6
-21.38
-19.43
-16.57
-12.82
-8.38
-3.67
0.85
4.78
7.98
10.59
13.01
15.77
19.37
24.01
29.51
35.35
40.77
45.09
47.81
48.77
48.06
45.91
42.62
38.43
33.59
28.33
22.83
17.12
11.09
4.44
-3.23
-12.21
-22.6
-34.14
-46.22
-57.83
-67.84
-75.19
-79.25
-80.14
-78.59
-75.74
-72.63
-69.68
-66.62
-62.74
-57.36
-50.4
-42.43
-34.48
-27.55
-22.15
-18.14
-14.93
-11.82
-8.39
-4.65
-0.88
2.51
5.19
7.1
8.38
9.19
9.7
9.87
9.61
8.8
7.41
5.53
3.31
0.83
-1.93
-5.08
-8.65
-12.38
-15.7
-17.84
-18.17
-16.43
-12.86
-8.14
-3.01
1.92
6.4
10.48
14.32
18.09
21.76
25.14
27.98
30.09
31.41
32.01
32.07
31.82
31.45
31.07
30.7
30.27
29.69
28.8
27.49
25.67
23.33
20.51
17.34
13.97
10.5
6.99
3.37
-0.41
-4.48
-8.93
-13.9
-19.42
-25.34
-31.17
-36.16
-39.45
-40.4
-38.85
-35.22
-30.26
-24.76
-19.23
-13.79
-8.3
-2.66
3.03
8.38
12.96
16.43
18.75
20.18
21.12
21.99
23.02
24.23
25.43
26.34
26.7
26.36
25.38
23.88
22.09
20.17
18.19
16.13
13.95
11.61
9.07
6.32
3.34
-0.02
-3.89
-8.43
-13.59
-19
-24
-27.75
-29.54
-28.96
-26.11
-21.48
-15.74
-9.52
-3.23
2.92
8.8
14.25
19
22.8
25.48
27.15
28.1
28.74
29.42
30.22
30.99
31.42
31.25
30.39
29.04
27.56
26.27
25.27
24.36
23.19
21.35
18.61
15.03
10.94
6.77
2.91
-0.52
-3.68
-7.01
-11.04
-16.11
-22.21
-28.82
-34.99
-39.6
-41.75
-41.07
-37.83
-32.82
-26.93
-20.9
-15
-9.13
-3.07
3.25
9.5
15.12
19.55
22.58
24.42
25.64
26.83
28.3
29.92
31.33
32.11
32.09
31.43
30.54
29.82
29.44
29.23
28.76
27.57
25.33
22.03
17.96
13.58
9.32
5.39
1.74
-1.87
-5.74
-10.09
-14.96
-20.25
-25.76
-31.13
-35.91
-39.56
-41.52
-41.42
-39.2
-35.17
-29.85
-23.83
-17.55
-11.24
-5
1.09
6.81
11.84
15.9
18.86
20.84
22.14
23.14
24.13
25.21
26.27
27.09
27.47
27.33
26.74
25.87
24.89
23.88
22.81
21.49
19.78
17.61
15.07
12.35
9.65
7.08
4.64
2.22
-0.32
-3.11
-6.26
-9.87
-13.97
-18.55
-23.38
-28.03
-31.83
-34.1
-34.37
-32.52
-28.88
-24.07
-18.76
-13.42
-8.26
-3.25
1.66
6.41
10.78
14.51
17.45
19.7
21.5
23.14
24.71
26.14
27.18
27.6
27.37
26.65
25.77
25.02
24.53
24.21
23.79
22.98
21.54
19.42
16.73
13.68
10.5
7.38
4.45
1.72
-0.82
-3.26
-5.71
-8.27
-11.07
-14.25
-17.89
-21.93
-26.08
-29.78
-32.3
-32.98
-31.49
-28
-23.12
-17.68
-12.39
-7.61
-3.32
0.75
4.77
8.68
12.21
15.01
16.92
18.05
18.72
19.29
19.91
20.43
20.56
20.02
18.79
17.1
15.35
13.84
12.67
11.62
10.37
8.64
6.35
3.66
0.91
-1.55
-3.53
-5.02
-6.23
-7.5
-9.14
-11.37
-14.25
-17.65
-21.31
-24.84
-27.76
-29.63
-30.08
-28.99
-26.49
-22.96
-18.86
-14.58
-10.38
-6.33
-2.43
1.32
4.78
7.8
10.21
11.97
13.15
13.98
14.66
15.36
16.14
16.92
17.57
17.95
17.99
17.68
17.12
16.39
15.56
14.6
13.4
11.84
9.85
7.46
4.84
2.2
-0.26
-2.49
-4.54
-6.55
-8.66
-11
-13.62
-16.51
-19.61
-22.7
-25.36
-27.08
-27.39
-26.09
-23.31
-19.59
-15.54
-11.66
-8.16
-4.93
-1.77
1.43
4.53
7.21
9.11
10.12
10.41
10.44
10.69
11.48
12.77
14.27
15.58
16.37
16.53
16.19
15.57
14.81
13.93
12.84
11.42
9.6
7.49
5.29
3.27
1.63
0.4
-0.6
-1.73
-3.31
-5.58
-8.55
-12.05
-15.79
-19.37
-22.4
-24.48
-25.26
-24.54
-22.32
-18.88
-14.67
-10.22
-5.96
-2.14
1.13
3.85
6.04
7.69
8.79
9.44
9.78
10.01
10.31
10.77
11.33
11.87
12.23
12.31
12.01
11.35
10.34
9.09
7.64
6.08
4.4
2.62
0.76
-1.13
-2.93
-4.52
-5.83
-6.93
-7.98
-9.23
-10.89
-13.04
-15.6
-18.36
-20.98
-23.07
-24.27
-24.32
-23.14
-20.83
-17.71
-14.19
-10.65
-7.37
-4.46
-1.85
0.56
2.87
5.04
6.98
8.58
9.8
10.7
11.37
11.87
12.22
12.32
12.12
11.6
10.83
9.91
8.92
7.82
6.57
5.12
3.49
1.75
-0.02
-1.75
-3.4
-5.01
-6.59
-8.17
-9.81
-11.62
-13.74
-16.28
-19.24
-22.34
-25.1
-26.92
-27.27
-25.97
-23.24
-19.64
-15.8
-12.2
-8.99
-6.09
-3.29
-0.49
2.22
4.61
6.47
7.72
8.47
8.9
9.19
9.45
9.66
9.81
9.82
9.69
9.4
8.95
8.37
7.66
6.82
5.85
4.73
3.46
2.04
0.45
-1.29
-3.2
-5.29
-7.63
-10.28
-13.21
-16.27
-19.1
-21.22
-22.15
-21.58
-19.51
-16.23
-12.25
-8.13
-4.28
-0.89
2.05
4.64
6.97
9.02
10.73
11.95
12.62
12.77
12.53
12.12
11.75
11.59
11.64
11.75
11.7
11.28
10.36
8.99
7.32
5.6
3.98
2.49
1.02
-0.58
-2.41
-4.45
-6.66
-9
-11.52
-14.22
-17.01
-19.53
-21.27
-21.69
-20.57
-18.07
-14.68
-11.04
-7.59
-4.51
-1.67
1.07
3.77
6.25
8.26
9.55
10.03
9.85
9.26
8.57
8.01
7.66
7.49
7.35
7.07
6.53
5.68
4.55
3.23
1.81
0.28
-1.38
-3.25
-5.31
-7.51
-9.74
-11.93
-14.07
-16.19
-18.24
-20.01
-21.11
-21.13
-19.82
-17.23
-13.74
-9.92
-6.26
-3.02
-0.2
2.38
4.9
7.41
9.76
11.74
13.18
14.07
14.54
14.82
15.08
15.39
15.65
15.68
15.33
14.56
13.46
12.2
10.87
9.52
8.08
6.47
4.65
2.63
0.48
-1.74
-4.1
-6.65
-9.4
-12.2
-14.65
-16.23
-16.49
-15.22
-12.61
-9.21
-5.65
-2.42
0.31
2.73
5.12
7.69
10.36
12.83
14.73
15.87
16.32
16.38
16.36
16.44
16.54
16.39
15.73
14.4
12.42
9.94
7.14
4.2
1.2
-1.82
-4.86
-7.9
-10.9
-13.77
-16.38
-18.67
-20.67
-22.55
-24.56
-26.88
-29.5
-32.14
-34.34
-35.52
-35.26
-33.32
-29.78
-24.93
-19.18
-12.97
-6.71
-0.66
4.98
10.02
14.28
17.61
19.94
21.36
22.13
22.61
23.1
23.71
24.3
24.55
24.14
22.97
21.29
19.65
18.63
18.56
19.37
20.56
21.55
21.98
21.89
21.69
21.84
22.53
23.54
24.36
24.55
23.93
22.66
20.99
19.12
17.01
14.47
11.43
8.03
4.72
2.14
0.84
1.1
2.8
5.5
8.51
11.15
12.88
13.4
12.75
11.26
9.47
8.01
7.4
7.88
9.29
11.14
12.79
13.69
13.57
12.53
10.89
9.02
7.15
5.28
3.28
1
-1.63
-4.51
-7.44
-10.21
-12.7
-14.94
-17.09
-19.33
-21.79
-24.48
-27.24
-29.78
-31.77
-32.9
-32.95
-31.91
-29.9
-27.21
-24.2
-21.16
-18.22
-15.36
-12.44
-9.38
-6.27
-3.33
-0.77
1.27
2.91
4.38
5.9
7.51
9.06
10.27
10.92
10.95
10.47
9.68
8.69
7.51
6.08
4.39
2.48
0.49
-1.42
-3.17
-4.72
-6.13
-7.49
-8.87
-10.37
-12.09
-14.19
-16.76
-19.8
-23.05
-26.14
-28.56
-29.85
-29.82
-28.55
-26.35
-23.65
-20.8
-17.98
-15.22
-12.39
-9.38
-6.18
-2.93
0.16
2.87
5.09
6.82
8.2
9.4
10.59
11.83
13.08
14.16
14.9
15.17
14.92
14.16
12.96
11.39
9.55
7.57
5.61
3.85
2.38
1.21
0.19
-0.9
-2.33
-4.28
-6.77
-9.71
-12.84
-15.83
-18.29
-19.88
-20.32
-19.51
-17.53
-14.63
-11.13
-7.35
-3.53
0.19
3.7
6.94
9.77
12.09
13.86
15.09
15.91
16.45
16.86
17.18
17.4
17.47
17.34
16.96
16.34
15.49
14.46
13.24
11.82
10.17
8.27
6.18
3.99
1.88
-0.03
-1.7
-3.21
-4.76
-6.55
-8.7
-11.15
-13.67
-15.88
-17.39
-17.92
-17.38
-15.87
-13.66
-11.1
-8.45
-5.9
-3.52
-1.3
0.77
2.7
4.47
6.02
7.28
8.22
8.8
9.01
8.96
8.75
8.51
8.3
8.1
7.8
7.31
6.54
5.5
4.23
2.78
1.18
-0.55
-2.34
-4.08
-5.61
-6.84
-7.79
-8.63
-9.65
-11.08
-13.04
-15.43
-17.97
-20.28
-21.98
-22.82
-22.71
-21.7
-19.99
-17.77
-15.27
-12.67
-10.08
-7.57
-5.2
-3
-1.08
0.5
1.71
2.58
3.21
3.69
4.09
4.44
4.74
4.95
5.06
5.03
4.85
4.52
4.06
3.56
3.11
2.82
2.73
2.77
2.79
2.6
2.05
1.1
-0.21
-1.85
-3.77
-5.95
-8.3
-10.64
-12.63
-13.87
-14.03
-12.98
-10.87
-8.03
-4.85
-1.65
1.38
4.23
6.91
9.38
11.54
13.27
14.51
15.31
15.8
16.16
16.51
16.87
17.2
17.4
17.39
17.18
16.81
16.3
15.61
14.6
13.17
11.32
9.17
6.96
4.94
3.23
1.79
0.47
-0.94
-2.63
-4.64
-6.92
-9.33
-11.62
-13.5
-14.66
-14.75
-13.58
-11.14
-7.71
-3.77
0.08
3.36
5.83
7.52
8.68
9.61
10.51
11.44
12.35
13.15
13.77
14.21
14.5
14.7
14.82
14.85
14.75
14.48
13.97
13.12
11.9
10.33
8.48
6.52
4.57
2.74
1.07
-0.48
-1.94
-3.39
-4.91
-6.65
-8.71
-11.18
-13.96
-16.81
-19.37
-21.28
-22.26
-22.24
-21.38
-19.88
-18
-15.92
-13.69
-11.36
-8.97
-6.62
-4.53
-2.86
-1.69
-0.95
-0.42
0.16
0.98
2.04
3.19
4.19
4.86
5.14
5.12
4.94
4.74
4.62
4.6
4.62
4.61
4.43
4.02
3.31
2.35
1.24
0.09
-1.04
-2.22
-3.54
-5.09
-6.86
-8.71
-10.39
-11.68
-12.42
-12.56
-12.13
-11.17
-9.73
-7.85
-5.66
-3.3
-0.93
1.29
3.32
5.16
6.87
8.48
9.99
11.31
12.37
13.13
13.56
13.71
13.63
13.38
13.03
12.64
12.26
11.86
11.42
10.9
10.33
9.75
9.22
8.72
8.16
7.42
6.4
5.09
3.61
2.1
0.68
-0.57
-1.63
-2.43
-2.87
-2.81
-2.18
-1
0.56
2.3
3.99
5.45
6.56
7.22
7.39
7.09
6.42
5.57
4.78
4.27
4.23
4.69
5.55
6.52
7.06
6.59
4.58
0.84
-4.35
-10.21
-15.73
-19.96
-22.38
-23.05
-22.37
-20.92
-19.1
-17.09
-14.89
-12.55
-10.23
-8.21
-6.71
-5.82
-5.43
-5.37
-5.52
-5.87
-6.48
-7.36
-8.4
-9.38
-10.09
-10.37
-10.13
-9.35
-8
-6.16
-4
-1.83
-0.12
0.76
0.56
-0.68
-2.63
-4.8
-6.73
-8.06
-8.72
-8.81
-8.54
-8.05
-7.43
-6.62
-5.62
-4.47
-3.38
-2.71
-2.77
-3.74
-5.61
-8.17
-11.14
-14.28
-17.39
-20.24
-22.49
-23.69
-23.45
-21.62
-18.46
-14.61
-10.89
-7.98
-6.16
-5.16
-4.29
-2.67
0.52
5.67
12.62
20.55
28.13
33.89
36.76
36.47
33.78
30.27
27.83
28.01
31.53
38.11
46.63
55.6
63.55
69.34
72.29
72.16
69.08
63.64
56.78
49.69
43.38
38.29
34.03
29.5
23.43
15.03
4.58
-6.66
-16.94
-24.75
-29.39
-31.01
-30.37
-28.35
-25.59
-22.51
-19.37
-16.47
-14.15
-12.69
-12.16
-12.36
-12.93
-13.49
-13.79
-13.76
-13.51
-13.17
-12.89
-12.71
-12.61
-12.46
-12.15
-11.59
-10.77
-9.76
-8.73
-7.88
-7.39
-7.39
-7.82
-8.54
-9.25
-9.7
-9.68
-9.18
-8.34
-7.46
-6.81
-6.56
-6.67
-6.92
-6.98
-6.52
-5.41
-3.69
-1.62
0.44
2.19
3.47
4.29
4.67
4.61
3.98
2.65
0.62
-1.89
-4.39
-6.33
-7.28
-7.12
-5.99
-4.29
-2.44
-0.89
-0.01
-0.15
-1.53
-4.2
-7.95
-12.35
-16.8
-20.81
-24.06
-26.53
-28.37
-29.81
-30.98
-31.94
-32.58
-32.72
-32.13
-30.48
-27.53
-23.11
-17.26
-10.3
-2.77
4.72
11.62
17.56
22.43
26.29
29.22
31.27
32.42
32.59
31.78
30.05
27.59
24.71
21.72
18.88
16.34
14.12
12.17
10.36
8.51
6.45
3.96
0.9
-2.8
-7.05
-11.6
-16.14
-20.45
-24.53
-28.57
-32.83
-37.42
-42.02
-45.99
-48.53
-49.04
-47.36
-43.91
-39.45
-34.76
-30.4
-26.51
-22.93
-19.36
-15.69
-12.05
-8.73
-6.12
-4.39
-3.48
-3.06
-2.73
-2.19
-1.38
-0.52
0.07
0.1
-0.54
-1.79
-3.42
-5.21
-7
-8.79
-10.67
-12.78
-15.22
-18.07
-21.31
-24.92
-28.81
-32.8
-36.59
-39.68
-41.52
-41.67
-39.96
-36.63
-32.23
-27.44
-22.8
-18.55
-14.61
-10.74
-6.7
-2.46
1.8
5.72
8.98
11.41
13.12
14.35
15.35
16.14
16.53
16.16
14.83
12.64
10
7.5
5.62
4.59
4.37
4.76
5.48
6.15
6.27
5.22
2.51
-1.98
-7.75
-13.74
-18.61
-21.24
-21.05
-18.14
-13.14
-6.91
-0.32
5.92
11.33
15.73
19.25
22.27
25.32
28.85
33.05
37.78
42.61
47.03
50.58
53.07
54.48
55
54.81
54.04
52.78
51.06
48.96
46.6
44.06
41.46
38.84
36.22
33.53
30.78
27.95
25.17
22.54
20.19
18.18
16.44
14.81
13.01
10.78
7.97
4.62
1.1
-2.1
-4.41
-5.49
-5.29
-4.06
-2.19
-0.04
2.24
4.72
7.53
10.75
14.22
17.68
20.85
23.6
26.03
28.29
30.43
32.22
33.25
33.1
31.6
29.03
26.1
23.67
22.39
22.45
23.43
24.49
24.64
23.11
19.66
14.62
8.79
2.95
-2.41
-7.5
-13.08
-20.14
-29.4
-40.81
-53.55
-66.19
-77.1
-84.82
-88.31
-87.09
-81.31
-71.81
-60.07
-47.93
-37.15
-28.84
-23.23
-19.73
-17.32
-15.07
-12.42
-9.24
-5.62
-1.72
2.27
6.1
9.35
11.52
12.17
11.24
9.18
6.78
4.93
4.15
4.29
4.62
4.09
1.88
-2.25
-7.84
-13.95
-19.59
-24.1
-27.31
-29.48
-31.11
-32.67
-34.44
-36.48
-38.65
-40.61
-41.96
-42.37
-41.66
-39.91
-37.31
-34.09
-30.28
-25.68
-19.9
-12.63
-3.81
6.22
16.72
26.76
35.45
42.2
46.84
49.57
50.88
51.32
51.37
51.31
51.25
51.15
50.93
50.56
49.98
49.09
47.74
45.72
42.89
39.21
34.83
30.1
25.44
21.23
17.66
14.7
12.08
9.46
6.56
3.34
-0.08
-3.46
-6.61
-9.45
-11.93
-13.99
-15.41
-15.9
-15.24
-13.4
-10.57
-7.14
-3.48
0.09
3.38
6.22
8.45
9.9
10.51
10.44
10.03
9.75
9.9
10.5
11.31
11.9
11.95
11.36
10.25
8.87
7.36
5.72
3.79
1.41
-1.44
-4.6
-7.75
-10.55
-12.77
-14.37
-15.47
-16.35
-17.33
-18.67
-20.53
-22.94
-25.76
-28.69
-31.35
-33.24
-33.94
-33.12
-30.71
-26.85
-21.86
-16.16
-10.14
-4.07
1.9
7.66
13.17
18.3
22.91
26.82
29.89
32.05
33.33
33.91
34
33.81
33.5
33.11
32.59
31.87
30.87
29.51
27.74
25.44
22.57
19.12
15.22
11.09
6.98
3.1
-0.53
-3.97
-7.4
-10.98
-14.76
-18.66
-22.4
-25.57
-27.61
-28.1
-26.78
-23.81
-19.68
-15.11
-10.75
-6.95
-3.68
-0.69
2.28
5.22
7.82
9.66
10.47
10.31
9.58
8.85
8.51
8.68
9.19
9.73
10.04
10.04
9.71
9.07
8.02
6.34
3.92
0.79
-2.76
-6.29
-9.42
-12
-14.15
-16.17
-18.45
-21.18
-24.38
-27.86
-31.21
-33.96
-35.58
-35.67
-34.04
-30.79
-26.33
-21.28
-16.28
-11.77
-7.94
-4.73
-1.91
0.77
3.42
5.98
8.19
9.7
10.23
9.66
8.1
5.84
3.3
0.78
-1.52
-3.64
-5.8
-8.37
-11.71
-16.05
-21.3
-27.11
-32.92
-38.26
-42.97
-47.27
-51.62
-56.41
-61.73
-67.39
-72.9
-77.7
-81.25
-82.97
-82.38
-79.23
-73.86
-67.37
-61.34
-57.25
-55.6
-55.38
-54.26
-49.38
-38.48
-20.83
2.56
29.39
56.92
82.73
105.15
123.2
136.39
144.55
147.76
146.5
141.66
134.52
126.46
118.62
111.6
105.37
99.44
93.28
86.53
79.34
72.17
65.59
60
55.4
51.45
47.7
43.79
39.63
35.42
31.46
27.97
24.98
22.26
19.5
16.47
13.14
9.78
6.79
4.61
3.49
3.42
4.09
5.03
5.78
6.06
5.87
5.46
5.09
4.93
4.87
4.56
3.62
1.74
-1.02
-4.32
-7.62
-10.31
-11.88
-11.89
-10.09
-6.51
-1.67
3.36
7.19
8.53
6.73
2.09
-4.26
-10.82
-16.34
-20.2
-22.43
-23.48
-23.75
-23.53
-22.96
-22.26
-21.78
-21.95
-23.11
-25.28
-28.16
-31.28
-34.16
-36.54
-38.42
-39.96
-41.43
-43.05
-44.94
-47.1
-49.27
-50.93
-51.26
-49.42
-44.92
-37.96
-29.5
-20.9
-13.33
-7.22
-2.24
2.22
6.34
9.38
9.75
5.7
-3.77
-18.17
-35.47
-52.65
-66.66
-75.24
-77.44
-73.67
-65.35
-54.32
-42.4
-31
-21.07
-13.12
-7.31
-3.61
-1.83
-1.61
-2.5
-3.92
-5.25
-5.87
-5.34
-3.41
-0.2
3.86
8.16
12.18
15.58
18.36
20.68
22.65
24.16
24.9
24.47
22.64
19.46
15.35
10.83
6.33
1.84
-2.96
-8.56
-15.2
-22.57
-29.87
-35.98
-39.96
-41.39
-40.45
-37.78
-34.07
-29.83
-25.29
-20.58
-15.85
-11.45
-7.79
-5.18
-3.69
-3.1
-3.07
-3.28
-3.55
-3.84
-4.17
-4.55
-4.94
-5.28
-5.48
-5.43
-4.97
-4
-2.42
-0.28
2.26
5.03
7.87
10.77
13.78
16.87
19.85
22.37
24.07
24.88
24.97
24.79
24.74
25.03
25.63
26.36
27.16
28.19
29.79
32.27
35.54
39.08
42.07
43.64
43.3
41.07
37.45
33.12
28.72
24.53
20.56
16.62
12.58
8.42
4.28
0.29
-3.46
-6.98
-10.35
-13.56
-16.6
-19.38
-21.84
-24.02
-26.02
-27.96
-29.93
-31.9
-33.75
-35.26
-36.13
-36.04
-34.8
-32.42
-29.12
-25.37
-21.63
-18.26
-15.33
-12.75
-10.32
-7.89
-5.49
-3.25
-1.31
0.27
1.51
2.49
3.28
3.91
4.38
4.72
4.91
4.94
4.71
4.12
3.1
1.68
-0.02
-1.84
-3.68
-5.48
-7.29
-9.17
-11.22
-13.55
-16.22
-19.21
-22.38
-25.4
-27.8
-29.13
-29.17
-27.98
-25.93
-23.53
-21.28
-19.43
-18.02
-16.9
-15.87
-14.81
-13.69
-12.53
-11.35
-10.1
-8.7
-7.08
-5.2
-3.14
-1.04
0.91
2.59
4.01
5.27
6.58
8.11
9.95
12.08
14.43
16.86
19.23
21.42
23.27
24.66
25.53
26.01
26.38
27.01
28.23
30.09
32.37
34.65
36.51
37.75
38.47
38.99
39.56
40.26
40.87
41.03
40.39
38.82
36.4
33.44
30.25
27.08
24.02
21.03
18.03
14.93
11.71
8.44
5.26
2.35
-0.17
-2.28
-4.09
-5.8
-7.61
-9.61
-11.76
-13.93
-15.91
-17.5
-18.39
-18.35
-17.19
-14.97
-12
-8.76
-5.69
-3.02
-0.67
1.6
3.95
6.32
8.43
9.9
10.57
10.59
10.39
10.43
10.99
12
13.11
13.82
13.75
12.7
10.75
8.19
5.41
2.73
0.37
-1.66
-3.49
-5.33
-7.41
-9.86
-12.68
-15.67
-18.5
-20.72
-21.92
-21.76
-20.15
-17.18
-13.15
-8.47
-3.47
1.58
6.6
11.56
16.4
20.97
25.04
28.39
30.9
32.65
33.86
34.73
35.31
35.41
34.71
32.92
30.05
26.38
22.43
18.74
15.54
12.77
10.09
7.07
3.41
-0.93
-5.76
-10.7
-15.31
-19.16
-21.86
-23.18
-23.02
-21.46
-18.81
-15.45
-11.86
-8.41
-5.33
-2.6
-0.09
2.39
4.9
7.34
9.53
11.27
12.49
13.28
13.84
14.3
14.64
14.7
14.24
13.14
11.48
9.48
7.45
5.59
3.9
2.2
0.25
-2.17
-5.1
-8.44
-11.94
-15.34
-18.39
-20.9
-22.75
-23.8
-23.92
-23.05
-21.23
-18.63
-15.58
-12.47
-9.64
-7.23
-5.23
-3.46
-1.73
0.07
1.9
3.64
5.15
6.33
7.19
7.79
8.27
8.72
9.14
9.43
9.39
8.77
7.44
5.43
2.94
0.25
-2.35
-4.66
-6.65
-8.41
-10.11
-11.99
-14.22
-16.88
-19.88
-22.95
-25.63
-27.4
-27.89
-26.91
-24.61
-21.34
-17.61
-13.81
-10.15
-6.65
-3.22
0.25
3.76
7.17
10.25
12.8
14.72
15.99
16.62
16.67
16.2
15.27
14.11
13
12.27
12.19
12.87
14.18
15.75
17.15
17.92
17.79
16.72
14.92
12.7
10.4
8.21
6.15
4.05
1.66
-1.18
-4.45
-7.87
-10.99
-13.31
-14.47
-14.36
-13.17
-11.27
-9.06
-6.82
-4.65
-2.46
-0.17
2.24
4.63
6.77
8.47
9.64
10.4
10.96
11.51
12.14
12.8
13.36
13.75
14
14.27
14.73
15.4
16.17
16.76
16.87
16.31
15.04
13.19
10.96
8.62
6.37
4.38
2.73
1.4
0.25
-0.92
-2.31
-4.04
-6.11
-8.4
-10.67
-12.61
-13.89
-14.21
-13.4
-11.46
-8.63
-5.32
-1.99
1.06
3.75
6.18
8.53
10.85
13.04
14.88
16.2
17.04
17.58
18.11
18.78
19.61
20.39
20.88
20.85
20.19
18.92
17.12
14.99
12.73
10.6
8.8
7.47
6.59
5.94
5.26
4.3
2.93
1.2
-0.75
-2.82
-5.05
-7.56
-10.45
-13.7
-17.1
-20.39
-23.29
-25.62
-27.32
-28.32
-28.48
-27.65
-25.66
-22.54
-18.5
-14
-9.51
-5.46
-2.09
0.52
2.44
3.76
4.64
5.19
5.57
5.88
6.19
6.5
6.74
6.86
6.85
6.78
6.78
6.98
7.43
8.12
8.95
9.77
10.44
10.79
10.73
10.23
9.4
8.38
7.37
6.5
5.79
5.11
4.25
2.97
1.12
-1.28
-4
-6.7
-8.93
-10.31
-10.63
-9.86
-8.18
-5.85
-3.16
-0.41
2.19
4.39
6.03
7.01
7.4
7.4
7.24
7.15
7.19
7.31
7.32
7.06
6.46
5.56
4.47
3.25
1.94
0.48
-1.14
-2.9
-4.73
-6.57
-8.35
-10.11
-11.88
-13.71
-15.63
-17.64
-19.79
-22.12
-24.63
-27.21
-29.56
-31.32
-32.09
-31.63
-29.92
-27.18
-23.81
-20.24
-16.88
-14.02
-11.88
-10.52
-9.94
-9.9
-10
-9.72
-8.59
-6.42
-3.4
-0.06
2.97
5.22
6.61
7.42
8.06
8.79
9.59
10.27
10.61
10.65
10.68
11.13
12.25
13.99
15.92
17.47
18.14
17.73
16.4
14.56
12.71
11.21
10.25
9.84
9.86
10.17
10.65
11.2
11.73
12.12
12.26
12.05
11.47
10.55
9.36
7.93
6.27
4.35
2.15
-0.19
-2.46
-4.36
-5.64
-6.21
-6.17
-5.79
-5.42
-5.39
-5.85
-6.78
-8.03
-9.36
-10.64
-11.8
-12.97
-14.26
-15.76
-17.45
-19.23
-21.02
-22.75
-24.38
-25.76
-26.64
-26.71
-25.72
-23.65
-20.74
-17.44
-14.2
-11.27
-8.71
-6.42
-4.27
-2.3
-0.58
0.75
1.68
2.34
2.95
3.65
4.42
5.12
5.58
5.77
5.87
6.18
6.94
8.17
9.59
10.68
10.96
10.1
8.12
5.3
2.11
-0.99
-3.68
-5.77
-7.29
-8.3
-8.97
-9.42
-9.7
-9.72
-9.35
-8.47
-7.15
-5.65
-4.33
-3.5
-3.23
-3.25
-3.15
-2.44
-0.84
1.66
4.84
8.34
11.75
14.7
16.92
18.22
18.6
18.23
17.37
16.25
14.99
13.56
11.88
9.92
7.81
5.76
4
2.64
1.62
0.76
-0.12
-1.1
-2.16
-3.23
-4.3
-5.44
-6.8
-8.55
-10.78
-13.44
-16.28
-18.98
-21.16
-22.52
-22.92
-22.45
-21.34
-19.95
-18.58
-17.37
-16.28
-15.11
-13.63
-11.65
-9.19
-6.4
-3.56
-0.92
1.37
3.31
5
6.55
8.01
9.29
10.28
10.89
11.1
11.05
10.87
10.67
10.38
9.8
8.74
7.06
4.85
2.32
-0.2
-2.45
-4.25
-5.6
-6.58
-7.38
-8.25
-9.46
-11.24
-13.66
-16.57
-19.54
-21.96
-23.26
-23.11
-21.51
-18.84
-15.7
-12.66
-10.16
-8.34
-7.18
-6.5
-6.11
-5.83
-5.51
-4.96
-4.03
-2.61
-0.74
1.4
3.48
5.2
6.35
6.94
7.17
7.28
7.51
7.92
8.39
8.74
8.75
8.34
7.64
6.92
6.48
6.53
6.98
7.54
7.74
7.2
5.78
3.66
1.34
-0.63
-1.73
-1.71
-0.59
1.39
3.89
6.53
8.99
11.1
12.77
14.06
15.09
15.99
16.82
17.58
18.2
18.58
18.71
18.6
18.35
18.03
17.71
17.43
17.19
16.98
16.77
16.51
16.06
15.25
13.87
11.82
9.11
5.92
2.52
-0.77
-3.77
-6.39
-8.72
-10.93
-13.17
-15.53
-17.93
-20.23
-22.22
-23.73
-24.6
-24.78
-24.29
-23.23
-21.72
-19.8
-17.44
-14.58
-11.23
-7.51
-3.76
-0.39
2.24
4.01
5.07
5.74
6.36
7.05
7.74
8.25
8.4
8.22
7.89
7.72
7.97
8.73
9.86
11.07
12.03
12.49
12.39
11.81
10.97
10.01
9.03
7.99
6.74
5.12
3.08
0.66
-1.93
-4.44
-6.57
-8.11
-8.94
-9.1
-8.73
-8.08
-7.39
-6.83
-6.45
-6.12
-5.7
-5.05
-4.15
-3.15
-2.32
-1.85
-1.83
-2.12
-2.49
-2.67
-2.52
-2
-1.2
-0.25
0.72
1.62
2.32
2.76
2.88
2.7
2.27
1.7
1.08
0.41
-0.39
-1.41
-2.72
-4.3
-6.02
-7.78
-9.49
-11.11
-12.61
-13.9
-14.8
-15.1
-14.71
-13.69
-12.26
-10.71
-9.2
-7.71
-6.09
-4.2
-2.09
-0.04
1.56
2.37
2.34
1.65
0.68
-0.17
-0.68
-0.78
-0.54
-0.11
0.35
0.71
0.82
0.55
-0.17
-1.3
-2.7
-4.13
-5.38
-6.35
-7.08
-7.71
-8.44
-9.38
-10.56
-11.86
-13.09
-14.01
-14.32
-13.77
-12.19
-9.52
-5.93
-1.79
2.46
6.35
9.58
12
13.61
14.5
14.69
14.26
13.31
12.03
10.74
9.73
9.17
9.03
9.02
8.78
8.01
6.6
4.66
2.52
0.5
-1.14
-2.27
-2.91
-3.15
-3.19
-3.17
-3.29
-3.63
-4.28
-5.28
-6.69
-8.44
-10.38
-12.13
-13.26
-13.38
-12.32
-10.22
-7.5
-4.66
-2.13
-0.07
1.61
3.15
4.84
6.82
9.02
11.17
12.93
13.99
14.25
13.8
12.91
11.84
10.76
9.72
8.68
7.61
6.51
5.4
4.15
2.58
0.42
-2.5
-6.15
-10.24
-14.35
-18.07
-21.15
-23.65
-25.79
-27.87
-30.01
-32.14
-34
-35.24
-35.64
-35.17
-34.02
-32.41
-30.52
-28.37
-25.83
-22.84
-19.37
-15.59
-11.71
-7.93
-4.31
-0.78
2.78
6.39
9.87
12.85
14.82
15.38
14.41
12.15
9.16
6.18
3.89
2.67
2.55
3.21
4.09
4.6
4.3
2.97
0.63
-2.49
-5.98
-9.39
-12.23
-14.1
-14.76
-14.22
-12.71
-10.62
-8.33
-6.12
-4.09
-2.2
-0.35
1.54
3.49
5.47
7.4
9.18
10.72
11.88
12.64
13.04
13.24
13.45
13.82
14.35
14.9
15.28
15.42
15.39
15.36
15.51
15.94
16.61
17.37
18.04
18.44
18.4
17.78
16.46
14.44
11.81
8.88
6.03
3.76
2.49
2.47
3.74
6.06
9
12.05
14.79
16.97
18.59
19.76
20.64
21.23
21.43
21.1
20.15
18.63
16.75
14.82
13.1
11.77
10.79
10.03
9.26
8.3
7.04
5.5
3.7
1.68
-0.52
-2.87
-5.29
-7.65
-9.87
-11.92
-13.83
-15.69
-17.48
-19.13
-20.42
-21.19
-21.32
-20.87
-19.99
-18.85
-17.61
-16.32
-14.96
-13.49
-11.83
-9.94
-7.87
-5.73
-3.75
-2.14
-1.04
-0.35
0.12
0.56
1.08
1.56
1.8
1.65
1.11
0.4
-0.17
-0.49
-0.58
-0.72
-1.18
-2.18
-3.74
-5.75
-8.04
-10.43
-12.81
-15
-16.78
-17.86
-17.96
-16.95
-14.91
-12.14
-9.09
-6.18
-3.64
-1.48
0.53
2.64
5.02
7.55
9.94
11.84
13.01
13.51
13.6
13.67
14.03
14.75
15.72
16.68
17.34
17.49
17
15.84
14.04
11.7
8.99
6.1
3.28
0.75
-1.37
-3.04
-4.37
-5.51
-6.63
-7.87
-9.3
-10.89
-12.54
-14.06
-15.23
-15.86
-15.81
-15.06
-13.72
-12
-10.1
-8.15
-6.12
-3.94
-1.5
1.11
3.63
5.72
7.08
7.63
7.54
7.16
6.85
6.8
6.94
7.01
6.71
5.87
4.53
2.87
1.13
-0.47
-1.86
-2.99
-3.85
-4.41
-4.64
-4.58
-4.34
-4.13
-4.18
-4.6
-5.44
-6.61
-8
-9.5
-11.04
-12.54
-13.88
-14.82
-15.17
-14.82
-13.83
-12.41
-10.78
-9.04
-7.13
-4.9
-2.2
0.93
4.25
7.44
10.18
12.32
13.86
14.94
15.68
16.19
16.51
16.71
16.85
16.99
17.07
16.94
16.38
15.21
13.43
11.23
8.96
6.96
5.42
4.31
3.47
2.75
2.06
1.44
0.99
0.76
0.67
0.53
0.07
-0.95
-2.64
-4.88
-7.36
-9.65
-11.36
-12.22
-12.24
-11.57
-10.51
-9.28
-8.03
-6.8
-5.59
-4.41
-3.22
-1.98
-0.61
0.99
2.85
4.83
6.72
8.25
9.23
9.67
9.73
9.7
9.8
10.14
10.57
10.9
10.89
10.46
9.66
8.65
7.6
6.59
5.61
4.59
3.51
2.46
1.62
1.14
1.06
1.27
1.52
1.56
1.29
0.74
0.01
-0.78
-1.64
-2.64
-3.84
-5.18
-6.4
-7.1
-6.99
-5.94
-4.14
-1.99
0.03
1.6
2.64
3.36
4.08
5.07
6.41
7.94
9.39
10.47
11.07
11.24
11.11
10.78
10.21
9.27
7.86
6.1
4.33
3.01
2.53
2.98
4.08
5.24
5.86
5.5
4.01
1.56
-1.51
-4.86
-8.24
-11.51
-14.56
-17.34
-19.75
-21.75
-23.45
-25.07
-26.89
-29.09
-31.58
-34.03
-35.93
-36.77
-36.28
-34.45
-31.53
-27.94
-24.12
-20.45
-17.16
-14.32
-11.85
-9.57
-7.3
-4.92
-2.4
0.2
2.8
5.31
7.66
9.82
11.75
13.44
14.98
16.46
17.97
19.48
20.81
21.71
21.94
21.44
20.39
19.08
17.79
16.7
15.83
15.1
14.5
14.06
13.81
13.78
13.82
13.76
13.39
12.62
11.44
9.93
8.12
6.02
3.63
1.03
-1.59
-3.92
-5.72
-6.79
-7.13
-6.82
-6.01
-4.79
-3.24
-1.43
0.55
2.56
4.47
6.13
7.42
8.27
8.69
8.71
8.44
7.96
7.37
6.68
5.91
5.04
4.13
3.23
2.42
1.76
1.21
0.72
0.25
-0.24
-0.76
-1.29
-1.85
-2.44
-3.07
-3.74
-4.43
-5.12
-5.83
-6.56
-7.34
-8.23
-9.24
-10.42
-11.82
-13.46
-15.32
-17.33
-19.34
-21.18
-22.71
-23.79
-24.39
-24.55
-24.29
-23.64
-22.62
-21.2
-19.41
-17.39
-15.33
-13.45
-11.92
-10.83
-10.14
-9.78
-9.7
-9.93
-10.53
-11.54
-12.89
-14.4
-15.8
-16.85
-17.42
-17.56
-17.44
-17.27
-17.26
-17.46
-17.81
-18.05
-17.92
-17.13
-15.51
-13.05
-9.92
-6.4
-2.83
0.45
3.16
5.09
6.19
6.53
6.36
6.01
5.79
5.84
6.13
6.53
6.86
7.08
7.35
7.94
9.17
11.31
14.43
18.39
22.82
27.2
31
33.78
35.32
35.71
35.21
34.21
33.04
31.96
31
30.1
29.12
27.88
26.26
24.2
21.77
19.1
16.33
13.58
10.88
8.23
5.6
3.05
0.67
-1.44
-3.27
-4.87
-6.5
-8.4
-10.76
-13.62
-16.8
-19.99
-22.88
-25.24
-26.93
-27.94
-28.23
-27.71
-26.27
-23.85
-20.53
-16.6
-12.47
-8.56
-5.13
-2.24
0.33
2.83
5.47
8.31
11.21
13.98
16.49
18.68
20.62
22.38
23.94
25.22
26.11
26.5
26.38
25.83
25.05
24.3
23.86
23.88
24.4
25.21
25.99
26.44
26.37
25.8
24.92
23.95
23.01
22.1
21.14
19.96
18.52
16.78
14.76
12.54
10.27
8.2
6.7
6.16
6.81
8.69
11.46
14.57
17.33
19.16
19.72
19.06
17.53
15.68
14.01
12.74
11.76
10.66
8.96
6.34
2.83
-1.23
-5.38
-9.22
-12.61
-15.62
-18.36
-20.86
-22.99
-24.54
-25.38
-25.59
-25.45
-25.31
-25.46
-25.99
-26.79
-27.7
-28.57
-29.35
-30.15
-31.19
-32.75
-35.02
-38.04
-41.55
-45.02
-47.8
-49.29
-49.17
-47.46
-44.54
-40.93
-37.04
-33.02
-28.81
-24.24
-19.27
-14.06
-8.95
-4.34
-0.52
2.47
4.78
6.65
8.31
9.82
11.15
12.19
12.86
13.18
13.25
13.2
13.09
12.88
12.48
11.8
10.82
9.65
8.42
7.23
6.06
4.74
3.11
1.1
-1.2
-3.59
-5.78
-7.52
-8.67
-9.14
-8.89
-7.88
-6.11
-3.69
-0.85
2.08
4.77
7.02
8.85
10.4
11.86
13.33
14.75
15.98
16.92
17.53
17.92
18.28
18.75
19.34
19.95
20.46
20.75
20.84
20.76
20.6
20.36
20.01
19.48
18.74
17.79
16.74
15.73
14.86
14.15
13.5
12.76
11.74
10.34
8.54
6.49
4.44
2.7
1.57
1.11
1.23
1.63
1.98
2.06
1.88
1.7
1.82
2.47
3.65
5.16
6.7
8.08
9.3
10.49
11.8
13.28
14.81
16.16
17.11
17.56
17.55
17.23
16.74
16.2
15.61
14.93
14.01
12.64
10.43
6.92
1.64
-5.68
-14.94
-25.58
-36.69
-47.19
-56.1
-62.64
-66.41
-67.32
-65.57
-61.59
-55.99
-49.53
-42.93
-36.69
-31.04
-25.88
-20.94
-15.97
-10.94
-6.02
-1.52
2.33
5.48
8.04
10.19
12.07
13.75
15.23
16.49
17.49
18.2
18.47
18.16
17.16
15.58
13.65
11.67
9.9
8.41
7.1
5.79
4.29
2.5
0.47
-1.65
-3.7
-5.46
-6.77
-7.48
-7.53
-6.88
-5.53
-3.54
-1.02
1.89
5.05
8.3
11.51
14.56
17.33
19.64
21.31
22.21
22.31
21.71
20.62
19.3
18
16.88
16.04
15.47
15.16
15
14.89
14.65
14.09
13.06
11.47
9.37
6.89
4.27
1.69
-0.73
-3.01
-5.24
-7.54
-9.98
-12.44
-14.66
-16.31
-17.14
-17.04
-16.12
-14.62
-12.85
-11.02
-9.26
-7.54
-5.83
-4.04
-2.13
-0.16
1.78
3.57
5.05
6.13
6.78
7.1
7.21
7.27
7.36
7.52
7.69
7.77
7.67
7.29
6.64
5.78
4.87
4.07
3.52
3.19
2.91
2.37
1.2
-0.91
-4.14
-8.36
-13.26
-18.28
-22.83
-26.39
-28.62
-29.38
-28.79
-27.16
-24.85
-22.29
-19.78
-17.5
-15.43
-13.4
-11.22
-8.7
-5.83
-2.74
0.36
3.27
5.89
8.22
10.35
12.35
14.27
16.12
17.86
19.45
20.79
21.8
22.34
22.33
21.65
20.29
18.34
15.98
13.53
11.31
9.56
8.33
7.45
6.59
5.45
3.83
1.75
-0.68
-3.27
-5.86
-8.33
-10.55
-12.4
-13.78
-14.68
-15.26
-15.77
-16.43
-17.33
-18.36
-19.24
-19.71
-19.63
-19.03
-18.13
-17.15
-16.26
-15.51
-14.86
-14.25
-13.61
-12.87
-11.9
-10.53
-8.54
-5.74
-2.13
2.05
6.31
10
12.53
13.62
13.39
12.32
11.06
10.19
10.01
10.5
11.43
12.46
13.26
13.52
12.99
11.53
9.19
6.29
3.45
1.36
0.69
1.77
4.57
8.68
13.52
18.45
23.03
27.03
30.41
33.19
35.4
37.05
38.12
38.71
39.04
39.43
40.26
41.79
44.06
46.87
49.85
52.52
54.47
55.35
54.94
53.12
49.95
45.67
40.73
35.7
31.11
27.26
24.14
21.41
18.61
15.36
11.55
7.37
3.16
-0.75
-4.17
-7.07
-9.57
-11.79
-13.82
-15.71
-17.53
-19.35
-21.31
-23.49
-25.87
-28.29
-30.4
-31.81
-32.21
-31.48
-29.8
-27.51
-25.04
-22.64
-20.36
-18.07
-15.59
-12.9
-10.16
-7.73
-5.97
-5.05
-4.91
-5.32
-5.96
-6.57
-7.05
-7.41
-7.76
-8.25
-9.07
-10.36
-12.25
-14.79
-17.91
-21.42
-25.06
-28.56
-31.69
-34.4
-36.73
-38.89
-41.07
-43.46
-46.09
-48.88
-51.63
-54.02
-55.77
-56.57
-56.23
-54.6
-51.74
-47.81
-43.14
-38.09
-32.99
-28.08
-23.51
-19.3
-15.46
-11.95
-8.73
-5.72
-2.8
0.12
3.08
6.07
9.01
11.88
14.68
17.47
20.27
23.01
25.52
27.64
29.26
30.44
31.4
32.34
33.41
34.54
35.48
35.95
35.79
35.04
33.97
32.88
31.93
31.05
29.99
28.5
26.47
24.07
21.65
19.58
18.11
17.27
16.96
16.98
17.14
17.33
17.48
17.61
17.78
18.16
18.89
20.05
21.5
22.89
23.72
23.54
22.15
19.68
16.58
13.41
10.59
8.3
6.45
4.79
3.12
1.35
-0.46
-2.18
-3.73
-5.18
-6.72
-8.56
-10.82
-13.43
-16.22
-18.96
-21.53
-24.02
-26.65
-29.65
-33.2
-37.26
-41.63
-46
-50.07
-53.61
-56.44
-58.49
-59.69
-60
-59.47
-58.13
-56.03
-53.17
-49.5
-44.98
-39.6
-33.48
-26.85
-20.1
-13.72
-8.13
-3.68
-0.48
1.61
2.9
3.77
4.55
5.4
6.28
7.04
7.54
7.71
7.61
7.4
7.21
7.11
7.09
7.12
7.18
7.3
7.49
7.7
7.76
7.33
6.14
4.01
1.08
-2.15
-4.99
-6.8
-7.25
-6.44
-4.78
-2.76
-0.72
1.29
3.38
5.67
8.11
10.48
12.55
14.17
15.44
16.54
17.66
18.83
19.92
20.74
21.13
21.07
20.69
20.19
19.74
19.42
19.18
18.84
18.16
16.92
15.04
12.62
9.95
7.37
5.15
3.36
1.85
0.33
-1.54
-3.97
-6.99
-10.41
-13.83
-16.79
-18.78
-19.5
-18.87
-17.06
-14.52
-11.69
-8.98
-6.6
-4.6
-2.86
-1.25
0.37
2.07
3.91
5.89
7.98
10.16
12.39
14.58
16.65
18.48
19.95
21.02
21.7
22.12
22.4
22.61
22.82
23.01
23.15
23.25
23.33
23.36
23.23
22.75
21.77
20.21
18.28
16.31
14.67
13.51
12.63
11.5
9.61
6.7
3.02
-0.74
-3.69
-5.03
-4.4
-1.85
2.18
7.08
12.15
16.74
20.24
22.17
22.2
20.27
16.63
11.87
6.84
2.49
-0.35
-1.19
-0.09
2.37
5.24
7.51
8.44
7.76
5.7
2.78
-0.37
-3.3
-5.72
-7.62
-9.05
-10.13
-10.99
-11.83
-12.9
-14.5
-16.89
-20.19
-24.31
-28.9
-33.38
-37.15
-39.66
-40.52
-39.65
-37.28
-33.91
-30.18
-26.67
-23.81
-21.75
-20.43
-19.69
-19.35
-19.28
-19.34
-19.33
-19
-18.05
-16.28
-13.66
-10.35
-6.69
-3.1
0.07
2.45
3.74
3.76
2.48
0.12
-2.79
-5.58
-7.54
-8.24
-7.64
-6.08
-4.23
-2.76
-2.23
-2.92
-4.79
-7.51
-10.56
-13.34
-15.27
-15.92
-15.1
-12.95
-9.84
-6.38
-3.24
-1.02
-0.1
-0.5
-1.86
-3.6
-5.07
-5.79
-5.63
-4.73
-3.45
-2.14
-1.1
-0.43
-0.16
-0.23
-0.56
-0.97
-1.14
-0.73
0.56
2.77
5.6
8.47
10.64
11.51
10.77
8.49
5.04
0.92
-3.35
-7.29
-10.39
-12.12
-12
-9.76
-5.48
0.34
6.91
13.4
19.17
23.89
27.58
30.37
32.37
33.62
34.01
33.51
32.14
30.08
27.61
24.99
22.46
20.16
18.14
16.39
14.82
13.26
11.47
9.22
6.36
2.95
-0.72
-4.24
-7.22
-9.49
-11.15
-12.48
-13.79
-15.27
-16.89
-18.47
-19.79
-20.7
-21.14
-21.09
-20.57
-19.5
-17.88
-15.71
-13.14
-10.41
-7.75
-5.38
-3.4
-1.83
-0.57
0.47
1.39
2.2
2.86
3.32
3.48
3.33
2.87
2.2
1.47
0.83
0.39
0.17
0.11
0.04
-0.23
-0.91
-2.11
-3.84
-6
-8.37
-10.64
-12.49
-13.64
-13.9
-13.27
-11.95
-10.3
-8.72
-7.48
-6.64
-5.97
-5.12
-3.7
-1.51
1.34
4.56
7.74
10.48
12.54
13.84
14.42
14.38
13.86
12.96
11.79
10.54
9.4
8.53
7.94
7.48
6.81
5.49
3.23
-0.03
-4.03
-8.27
-12.14
-15.11
-16.86
-17.34
-16.68
-15.15
-13
-10.48
-7.75
-4.96
-2.25
0.26
2.45
4.3
5.84
7.17
8.34
9.28
9.83
9.84
9.3
8.46
7.72
7.52
8.13
9.52
11.39
13.25
14.64
15.24
14.92
13.71
11.62
8.68
4.91
0.36
-4.65
-9.61
-13.88
-16.92
-18.39
-18.3
-16.98
-14.87
-12.43
-10.04
-7.96
-6.36
-5.38
-5.05
-5.25
-5.71
-6
-5.77
-4.86
-3.42
-1.91
-0.95
-1.08
-2.66
-5.62
-9.54
-13.65
-17.1
-19.18
-19.51
-18.15
-15.64
-12.77
-10.33
-8.81
-8.26
-8.32
-8.37
-7.91
-6.67
-4.72
-2.34
0.14
2.52
4.77
6.98
9.26
11.69
14.34
17.2
20.33
23.74
27.39
31.06
34.41
37.03
38.62
39.17
39.1
39.12
39.96
42.15
45.72
50.3
55.22
59.87
63.77
66.66
68.36
68.67
67.3
63.95
58.46
50.86
41.5
30.9
19.71
8.53
-2.19
-12.12
-21.05
-28.87
-35.42
-40.52
-44
-45.85
-46.2
-45.38
-43.74
-41.56
-38.95
-35.97
-32.75
-29.7
-27.44
-26.59
-27.48
-29.95
-33.21
-36.25
-38.16
-38.56
-37.65
-36.06
-34.43
-33.09
-31.96
-30.69
-28.97
-26.78
-24.48
-22.58
-21.51
-21.38
-21.97
-22.91
-23.87
-24.74
-25.56
-26.44
-27.31
-27.91
-27.81
-26.62
-24.18
-20.59
-16.3
-11.84
-7.7
-4.12
-1.02
1.93
5.04
8.45
12.02
15.33
17.97
19.71
20.67
21.2
21.77
22.64
23.85
25.21
26.51
27.63
28.59
29.48
30.3
30.9
31.03
30.53
29.51
28.39
27.67
27.76
28.61
29.81
30.75
30.99
30.42
29.33
28.22
27.46
27.1
26.89
26.37
25.14
22.99
19.87
15.94
11.44
6.68
2.05
-2.02
-5.17
-7.15
-7.99
-8
-7.71
-7.64
-8.19
-9.48
-11.33
-13.4
-15.33
-16.91
-18.08
-18.97
-19.73
-20.48
-21.3
-22.25
-23.41
-24.85
-26.5
-28.18
-29.54
-30.16
-29.8
-28.44
-26.32
-23.84
-21.35
-19.08
-17.03
-15.15
-13.41
-11.85
-10.58
-9.72
-9.24
-9.02
-8.86
-8.56
-8.08
-7.48
-6.86
-6.4
-6.12
-5.98
-5.85
-5.65
-5.34
-5.02
-4.82
-4.89
-5.28
-5.93
-6.76
-7.69
-8.79
-10.13
-11.77
-13.58
-15.21
-16.17
-16.05
-14.69
-12.28
-9.33
-6.4
-3.87
-1.84
-0.15
1.45
3.09
4.73
6.15
7.15
7.63
7.71
7.66
7.75
8.09
8.64
9.19
9.49
9.39
8.9
8.11
7.22
6.33
5.5
4.67
3.74
2.62
1.27
-0.35
-2.23
-4.32
-6.51
-8.59
-10.26
-11.21
-11.16
-10
-7.86
-5.05
-1.98
0.91
3.35
5.23
6.62
7.66
8.51
9.26
9.91
10.38
10.62
10.64
10.52
10.41
10.38
10.47
10.58
10.59
10.35
9.76
8.84
7.65
6.34
5.02
3.77
2.61
1.48
0.29
-1.05
-2.58
-4.31
-6.12
-7.85
-9.26
-10.07
-10.05
-9.05
-7.14
-4.56
-1.76
0.85
2.95
4.49
5.62
6.61
7.67
8.82
9.96
10.91
11.61
12.07
12.42
12.76
13.09
13.35
13.41
13.2
12.73
12.08
11.34
10.61
9.96
9.43
8.97
8.47
7.76
6.66
5.05
2.96
0.51
-2.08
-4.52
-6.53
-7.84
-8.24
-7.68
-6.3
-4.35
-2.2
-0.14
1.7
3.31
4.75
6.08
7.28
8.28
9.02
9.4
9.32
8.72
7.58
6.05
4.4
2.97
2.01
1.61
1.64
1.88
2.11
2.21
2.19
2.07
1.87
1.54
1.03
0.26
-0.75
-2.04
-3.58
-5.3
-7.12
-8.84
-10.21
-10.93
-10.72
-9.44
-7.12
-4
-0.49
2.94
5.83
7.88
8.96
9.18
8.81
8.2
7.71
7.57
7.87
8.49
9.22
9.83
10.16
10.16
9.84
9.29
8.54
7.6
6.45
5.1
3.58
1.94
0.23
-1.54
-3.36
-5.26
-7.24
-9.28
-11.33
-13.31
-15.11
-16.54
-17.42
-17.54
-16.78
-15.15
-12.85
-10.22
-7.65
-5.46
-3.79
-2.61
-1.74
-1.02
-0.34
0.28
0.82
1.24
1.58
1.91
2.3
2.78
3.27
3.64
3.81
3.71
3.37
2.86
2.27
1.69
1.16
0.67
0.14
-0.51
-1.36
-2.43
-3.68
-5.04
-6.44
-7.83
-9.17
-10.38
-11.26
-11.54
-10.98
-9.46
-7.06
-4.08
-0.94
2.03
4.62
6.87
8.92
10.92
12.87
14.63
15.94
16.64
16.72
16.35
15.82
15.33
14.99
14.78
14.59
14.3
13.85
13.15
12.2
10.97
9.48
7.82
6.12
4.46
2.89
1.34
-0.27
-2.06
-4.07
-6.26
-8.51
-10.64
-12.49
-13.9
-14.75
-14.95
-14.48
-13.36
-11.73
-9.77
-7.67
-5.62
-3.73
-2.04
-0.55
0.71
1.69
2.36
2.72
2.87
2.94
3.05
3.23
3.44
3.56
3.52
3.26
2.82
2.23
1.5
0.64
-0.37
-1.51
-2.75
-4.05
-5.4
-6.8
-8.31
-9.93
-11.62
-13.31
-14.82
-15.93
-16.4
-16.07
-14.91
-13.03
-10.69
-8.18
-5.71
-3.35
-1.16
0.91
2.78
4.34
5.5
6.22
6.62
6.84
7.03
7.26
7.52
7.73
7.84
7.81
7.63
7.3
6.78
6.04
5.07
3.89
2.56
1.06
-0.61
-2.46
-4.51
-6.72
-9.04
-11.34
-13.52
-15.41
-16.82
-17.56
-17.49
-16.59
-14.96
-12.79
-10.26
-7.47
-4.38
-0.95
2.77
6.58
10.08
12.89
14.77
15.77
16.16
16.33
16.56
16.89
17.16
17.11
16.53
15.39
13.82
12.02
10.18
8.41
6.64
4.76
2.59
0.05
-2.84
-5.99
-9.19
-12.25
-15
-17.26
-18.83
-19.5
-19.1
-17.65
-15.36
-12.59
-9.74
-7.09
-4.71
-2.47
-0.26
2
4.23
6.3
8.12
9.63
10.88
11.88
12.62
12.99
12.92
12.35
11.36
10.09
8.74
7.45
6.28
5.16
3.96
2.58
0.97
-0.77
-2.54
-4.2
-5.73
-7.19
-8.65
-10.11
-11.41
-12.3
-12.54
-12
-10.71
-8.88
-6.73
-4.49
-2.29
-0.21
1.77
3.66
5.42
7.02
8.36
9.39
10.11
10.62
11.04
11.47
11.92
12.25
12.26
11.8
10.85
9.49
7.95
6.41
4.93
3.42
1.73
-0.3
-2.67
-5.31
-8.04
-10.74
-13.38
-15.98
-18.53
-20.88
-22.7
-23.56
-23.11
-21.22
-18.12
-14.28
-10.21
-6.35
-2.87
0.26
3.16
5.88
8.39
10.53
12.14
13.19
13.8
14.14
14.38
14.61
14.78
14.77
14.49
13.88
12.95
11.77
10.4
8.92
7.38
5.85
4.34
2.85
1.33
-0.29
-2.08
-4.05
-6.17
-8.37
-10.63
-12.85
-14.88
-16.44
-17.15
-16.71
-14.98
-12.15
-8.62
-4.92
-1.43
1.64
4.32
6.73
8.92
10.86
12.42
13.48
14.03
14.14
13.99
13.73
13.47
13.21
12.91
12.48
11.87
11.04
9.96
8.6
6.98
5.11
3.08
0.98
-1.09
-3.08
-5.02
-6.97
-8.99
-11.13
-13.38
-15.65
-17.74
-19.35
-20.14
-19.77
-18.07
-15.19
-11.5
-7.58
-3.9
-0.73
1.99
4.46
6.89
9.3
11.5
13.22
14.23
14.5
14.21
13.61
12.95
12.38
11.91
11.46
10.98
10.47
9.92
9.35
8.71
7.93
6.89
5.53
3.84
1.92
-0.13
-2.23
-4.35
-6.51
-8.71
-10.92
-13
-14.8
-16.16
-16.95
-17.07
-16.45
-15.02
-12.78
-9.83
-6.42
-2.87
0.48
3.37
5.66
7.33
8.46
9.11
9.35
9.29
9.08
8.91
8.91
9.15
9.55
9.94
10.11
9.92
9.3
8.26
6.89
5.25
3.47
1.66
-0.09
-1.73
-3.25
-4.73
-6.24
-7.82
-9.49
-11.23
-12.97
-14.64
-16.13
-17.23
-17.62
-17.01
-15.18
-12.24
-8.49
-4.49
-0.74
2.46
5.03
7.11
8.84
10.34
11.54
12.34
12.67
12.56
12.19
11.77
11.49
11.4
11.45
11.49
11.32
10.81
9.9
8.66
7.22
5.71
4.22
2.76
1.3
-0.19
-1.74
-3.32
-4.92
-6.59
-8.39
-10.4
-12.58
-14.73
-16.53
-17.59
-17.65
-16.62
-14.65
-11.98
-8.95
-5.82
-2.8
-0.03
2.38
4.35
5.83
6.84
7.44
7.73
7.82
7.8
7.74
7.64
7.49
7.22
6.74
6.01
5.05
3.92
2.73
1.55
0.44
-0.66
-1.79
-3
-4.3
-5.63
-6.91
-8.11
-9.27
-10.45
-11.71
-12.99
-14.04
-14.56
-14.27
-13.07
-11.11
-8.65
-6.02
-3.39
-0.86
1.58
3.92
6.1
8.02
9.62
10.86
11.79
12.42
12.74
12.75
12.43
11.85
11.13
10.39
9.71
9.08
8.39
7.49
6.26
4.66
2.83
0.97
-0.7
-2.08
-3.18
-4.18
-5.35
-6.84
-8.75
-10.97
-13.28
-15.38
-16.97
-17.75
-17.57
-16.37
-14.27
-11.54
-8.52
-5.55
-2.84
-0.48
1.55
3.3
4.81
6.01
6.8
7.1
6.98
6.64
6.29
6.09
6.05
6.05
5.91
5.53
4.9
4.09
3.2
2.31
1.45
0.6
-0.28
-1.22
-2.25
-3.38
-4.61
-5.96
-7.47
-9.12
-10.83
-12.37
-13.43
-13.68
-12.92
-11.14
-8.63
-5.78
-2.95
-0.36
2.04
4.36
6.68
8.93
10.87
12.25
12.91
12.9
12.41
11.71
11.01
10.38
9.74
8.97
8.03
6.96
5.91
4.96
4.1
3.21
2.14
0.79
-0.75
-2.32
-3.71
-4.84
-5.85
-6.95
-8.35
-10.1
-12.04
-13.87
-15.31
-16.13
-16.28
-15.78
-14.71
-13.18
-11.32
-9.24
-7.05
-4.87
-2.79
-0.86
0.88
2.39
3.64
4.63
5.38
5.89
6.23
6.42
6.51
6.48
6.31
5.96
5.35
4.47
3.38
2.25
1.29
0.64
0.32
0.2
0.07
-0.26
-0.85
-1.71
-2.79
-4.08
-5.55
-7.07
-8.43
-9.28
-9.33
-8.46
-6.74
-4.49
-2.04
0.33
2.53
4.59
6.55
8.41
10.08
11.43
12.36
12.85
12.97
12.84
12.55
12.16
11.69
11.13
10.55
9.98
9.55
9.31
9.25
9.24
9.12
8.73
7.94
6.72
5.15
3.38
1.52
-0.29
-2.01
-3.58
-4.98
-6.08
-6.79
-6.98
-6.6
-5.64
-4.12
-2.07
0.47
3.42
6.67
10.06
13.38
16.45
19.1
21.17
22.58
23.34
23.56
23.52
23.58
24.02
25
26.41
27.99
29.35
30.11
29.95
28.62
25.96
21.98
16.85
10.96
4.82
-1.06
-6.3
-10.74
-14.4
-17.45
-20.11
-22.5
-24.73
-26.79
-28.63
-30.12
-31.1
-31.37
-30.8
-29.38
-27.25
-24.7
-22.03
-19.55
-17.4
-15.63
-14.16
-12.89
-11.75
-10.7
-9.74
-8.84
-8
-7.14
-6.24
-5.29
-4.33
-3.41
-2.58
-1.86
-1.28
-0.85
-0.57
-0.45
-0.48
-0.66
-0.99
-1.48
-2.13
-3.02
-4.15
-5.53
-7.11
-8.84
-10.65
-12.44
-14.07
-15.32
-15.94
-15.72
-14.59
-12.65
-10.18
-7.53
-4.99
-2.75
-0.85
0.73
2.03
3.06
3.76
4.1
4.13
3.97
3.79
3.72
3.83
4.09
4.43
4.74
5.02
5.26
5.5
5.71
5.77
5.53
4.83
3.68
2.2
0.63
-0.83
-2.12
-3.32
-4.6
-6.08
-7.73
-9.31
-10.51
-11.01
-10.66
-9.52
-7.8
-5.81
-3.8
-1.92
-0.17
1.5
3.17
4.85
6.4
7.65
8.38
8.48
8.02
7.23
6.4
5.8
5.55
5.57
5.69
5.71
5.5
5.03
4.41
3.72
3.02
2.28
1.39
0.29
-1.07
-2.65
-4.39
-6.19
-7.98
-9.72
-11.34
-12.72
-13.64
-13.91
-13.38
-12.05
-10.1
-7.77
-5.35
-3.05
-0.98
0.81
2.25
3.32
3.93
4.08
3.88
3.49
3.12
2.92
2.94
3.13
3.4
3.65
3.81
3.87
3.81
3.6
3.19
2.54
1.6
0.42
-0.91
-2.34
-3.82
-5.35
-6.87
-8.29
-9.41
-10.02
-9.95
-9.14
-7.71
-5.88
-3.87
-1.83
0.11
1.88
3.41
4.59
5.34
5.7
5.78
5.81
5.97
6.34
6.87
7.38
7.69
7.67
7.35
6.85
6.32
5.79
5.22
4.48
3.47
2.18
0.7
-0.85
-2.44
-4.11
-5.94
-7.87
-9.67
-11.03
-11.62
-11.33
-10.26
-8.71
-6.97
-5.22
-3.51
-1.81
-0.15
1.31
2.39
2.93
3
2.83
2.78
3.1
3.83
4.75
5.5
5.77
5.42
4.54
3.39
2.27
1.33
0.63
0.09
-0.42
-1.04
-1.89
-3.04
-4.54
-6.35
-8.31
-10.16
-11.59
-12.35
-12.28
-11.44
-10.02
-8.25
-6.35
-4.43
-2.52
-0.62
1.22
2.86
4.17
5.06
5.54
5.72
5.76
5.81
5.9
5.94
5.8
5.34
4.55
3.49
2.33
1.25
0.33
-0.46
-1.23
-2.09
-3.16
-4.48
-6.02
-7.78
-9.66
-11.52
-13.15
-14.26
-14.64
-14.16
-12.85
-10.92
-8.6
-6.12
-3.59
-1.09
1.33
3.64
5.76
7.63
9.18
10.34
11.06
11.3
11.14
10.69
10.16
9.71
9.42
9.26
9.11
8.87
8.47
7.97
7.49
7.08
6.73
6.28
5.53
4.34
2.71
0.78
-1.23
-3.08
-4.59
-5.66
-6.18
-6.08
-5.36
-4.07
-2.37
-0.43
1.59
3.65
5.8
8.06
10.36
12.52
14.25
15.36
15.85
15.83
15.55
15.2
14.87
14.56
14.22
13.82
13.36
12.84
12.24
11.5
10.53
9.28
7.8
6.16
4.44
2.65
0.74
-1.37
-3.81
-6.62
-9.75
-13.1
-16.45
-19.56
-22.19
-24.12
-25.23
-25.54
-25.14
-24.21
-22.91
-21.31
-19.39
-17.13
-14.56
-11.81
-9.1
-6.66
-4.68
-3.23
-2.27
-1.68
-1.35
-1.17
-1.1
-1.12
-1.27
-1.59
-2.16
-3.04
-4.27
-5.9
-7.93
-10.35
-13.11
-16.12
-19.23
-22.31
-25.23
-28
-30.72
-33.54
-36.61
-39.93
-43.41
-46.83
-49.96
-52.56
-54.39
-55.3
-55.14
-53.86
-51.48
-48.12
-43.92
-39.02
-33.59
-27.88
-22.33
-17.49
-13.89
-11.7
-10.61
-9.86
-8.56
-6.1
-2.41
2.08
6.68
10.83
14.28
17
19
20.1
20.01
18.49
15.61
11.78
7.6
3.64
0.33
-2.03
-3.07
-2.26
0.96
6.96
15.61
26.2
37.6
48.62
58.38
66.48
73.03
78.35
82.79
86.59
89.87
92.64
94.94
96.8
98.28
99.36
99.94
99.81
98.84
97.03
94.68
92.35
90.79
90.72
92.61
96.51
101.92
107.89
113.05
115.94
115.19
109.93
99.9
85.61
68.17
49.01
29.61
11.24
-5.11
-18.81
-29.53
-37.27
-42.44
-45.7
-47.89
-49.82
-52.01
-54.63
-57.6
-60.65
-63.56
-66.16
-68.42
-70.34
-72.05
-73.73
-75.55
-77.6
-79.8
-81.84
-83.25
-83.52
-82.28
-79.41
-75.05
-69.53
-63.22
-56.41
-49.26
-41.92
-34.5
-27.23
-20.32
-13.95
-8.2
-3.05
1.59
5.76
9.42
12.46
14.76
16.23
16.84
16.61
15.58
13.77
11.31
8.36
5.18
2.04
-0.8
-3.18
-5.05
-6.42
-7.31
-7.76
-7.78
-7.42
-6.77
-5.92
-5.01
-4.13
-3.3
-2.5
-1.64
-0.66
0.5
1.86
3.39
5.02
6.61
8
9.08
9.77
10.12
10.26
10.32
10.39
10.47
10.46
10.28
9.85
9.18
8.29
7.26
6.1
4.87
3.64
2.47
1.43
0.54
-0.33
-1.34
-2.67
-4.33
-6.13
-7.72
-8.76
-9
-8.48
-7.45
-6.21
-5.03
-4
-3.06
-2.1
-1
0.2
1.37
2.33
2.93
3.11
2.95
2.64
2.33
2.16
2.14
2.19
2.2
2.08
1.79
1.36
0.85
0.31
-0.25
-0.87
-1.55
-2.26
-2.97
-3.68
-4.46
-5.38
-6.54
-7.92
-9.4
-10.76
-11.72
-12.15
-11.96
-11.21
-10.03
-8.6
-7.06
-5.53
-4.12
-2.88
-1.82
-0.9
-0.07
0.73
1.52
2.27
2.99
3.62
4.15
4.56
4.86
5.06
5.18
5.28
5.41
5.58
5.77
5.88
5.83
5.56
5.13
4.65
4.26
4.05
3.95
3.82
3.5
2.89
2.04
1.15
0.49
0.33
0.89
2.33
4.72
8
11.9
15.95
19.58
22.28
23.81
24.28
24.11
23.78
23.56
23.36
22.78
21.31
18.6
14.69
9.94
4.9
0.02
-4.58
-9.16
-14.24
-20.33
-27.61
-35.76
-43.99
-51.24
-56.68
-60.02
-61.74
-63.01
-65.5
-70.81
-80
-93.11
-108.85
-124.77
-137.82
-145.32
-145.72
-139.18
-127.32
-112.6
-97.5
-83.7
-71.94
-62.07
-53.51
-45.69
-38.43
-31.91
-26.51
-22.43
-19.22
-15.82
-10.74
-2.7
8.79
23.21
39.2
55.24
70.3
84.4
98.35
113.25
129.72
147.39
164.62
178.7
186.26
184.03
169.81
143.34
106.95
65.29
24.15
-11.14
-37.35
-54
-62.92
-66.83
-67.97
-67.21
-64.2
-58.32
-49.43
-38.22
-25.77
-12.98
-0.17
12.68
25.45
37.36
47.01
52.89
54.03
50.6
43.84
35.69
28.02
22.09
18.28
16.19
15
13.87
12.19
9.72
6.56
3.06
-0.35
-3.28
-5.47
-6.81
-7.35
-7.18
-6.36
-4.89
-2.72
0.18
3.75
7.66
11.35
14.11
15.34
14.79
12.64
9.54
6.29
3.6
1.93
1.4
1.85
3.02
4.49
5.82
6.57
6.43
5.35
3.6
1.64
-0.06
-1.23
-1.94
-2.45
-3.06
-3.95
-5.11
-6.38
-7.61
-8.65
-9.38
-9.73
-9.67
-9.25
-8.62
-7.94
-7.31
-6.68
-5.89
-4.72
-3.07
-1.07
0.94
2.58
3.61
4.08
4.24
4.42
4.81
5.41
6.12
6.85
7.53
8.17
8.68
8.89
8.6
7.83
6.86
6.22
6.44
7.7
9.75
12.01
13.75
14.49
14.01
12.41
9.95
6.97
3.89
1.25
-0.39
-0.53
1.05
4.14
8.2
12.44
16.18
19.02
20.93
22.17
23.19
24.33
25.69
27.11
28.27
28.8
28.48
27.23
25.17
22.47
19.35
16.12
13.12
10.7
9.13
8.48
8.61
9.29
10.25
11.34
12.49
13.69
14.88
15.96
16.87
17.65
18.49
19.54
20.81
22.05
22.81
22.59
21.11
18.53
15.48
12.98
12.11
13.41
16.58
20.28
22.51
21.39
15.97
6.73
-4.48
-15.13
-22.89
-26.32
-25.15
-19.89
-11.41
-0.48
12.29
26.35
41.07
55.78
70.03
83.8
97.45
111.09
123.96
133.99
138.25
134.12
120.68
99.55
74.55
50.36
30.82
17.74
10.87
8.82
10.11
13.74
19.1
25.35
31.17
34.88
35.16
31.77
25.72
18.86
13.11
9.65
8.45
8.38
7.85
5.5
0.68
-6.48
-15.51
-26.21
-39.03
-54.83
-74.23
-96.87
-121.02
-143.96
-162.87
-175.84
-182.5
-183.86
-181.64
-177.46
-172.28
-166.33
-159.28
-150.71
-140.36
-128.3
-115.06
-101.48
-88.63
-77.57
-69.16
-63.93
-61.98
-62.88
-65.83
-69.67
-73.16
-75.19
-75.02
-72.44
-67.8
-61.86
-55.56
-49.8
-45.22
-42.09
-40.4
-39.81
-39.94
-40.38
-40.77
-40.8
-40.12
-38.32
-34.99
-29.8
-22.73
-14.14
-4.78
4.46
12.7
19.4
24.38
27.81
29.95
31.06
31.29
30.8
29.82
28.71
27.91
27.71
28.19
29.09
29.92
30.15
29.44
27.73
25.24
22.35
19.41
16.64
14.09
11.61
9.01
6.02
2.44
-1.79
-6.52
-11.35
-15.64
-18.73
-20.08
-19.46
-17.06
-13.34
-8.86
-4.09
0.73
5.56
10.43
15.25
19.76
23.58
26.35
27.92
28.41
28.15
27.57
27.01
26.63
26.4
26.13
25.6
24.59
22.91
20.52
17.48
14.01
10.37
6.75
3.23
-0.29
-4.04
-8.2
-12.74
-17.35
-21.45
-24.34
-25.34
-24.1
-20.65
-15.47
-9.37
-3.19
2.35
6.93
10.55
13.43
15.82
17.83
19.5
20.86
22.13
23.61
25.59
28.1
30.82
33.12
34.31
33.96
32.04
28.91
25.18
21.43
18.07
15.31
13.19
11.59
10.24
8.75
6.73
3.91
0.42
-3.18
-6.02
-7.2
-6.18
-3.06
1.53
6.62
11.36
15.26
18.25
20.51
22.26
23.51
24.11
23.86
22.76
21.05
19.19
17.66
16.73
16.31
16.04
15.48
14.31
12.5
10.28
7.97
5.84
3.92
2.02
-0.17
-2.99
-6.65
-11.21
-16.48
-21.99
-27.04
-30.78
-32.43
-31.56
-28.27
-23.23
-17.43
-11.85
-7.16
-3.59
-1.05
0.7
1.84
2.46
2.66
2.66
2.8
3.39
4.62
6.36
8.29
10.03
11.33
12.1
12.4
12.37
12.06
11.45
10.49
9.12
7.34
5.12
2.48
-0.57
-3.93
-7.34
-10.34
-12.39
-12.99
-11.86
-9.09
-5.06
-0.36
4.45
8.97
12.97
16.37
19.08
20.96
21.87
21.79
21.03
20.07
19.45
19.45
19.97
20.58
20.74
20.16
18.95
17.57
16.56
16.29
16.75
17.55
18.07
17.62
15.62
11.74
6.11
-0.61
-7.25
-12.5
-15.32
-15.4
-13.34
-10.47
-8.3
-7.86
-9.36
-12.04
-14.59
-15.61
-14.13
-9.92
-3.53
3.93
11.2
17.18
21.21
23.13
23.13
21.59
18.95
15.61
11.92
8.25
4.86
1.92
-0.62
-3.04
-5.72
-9
-13.02
-17.59
-22.26
-26.4
-29.38
-30.77
-30.43
-28.51
-25.34
-21.15
-15.95
-9.58
-1.9
6.89
15.99
24.14
29.98
32.51
31.56
27.72
22.12
15.98
10.25
5.55
2.3
0.79
1.22
3.5
7.06
10.88
13.75
14.64
13.04
9.06
3.39
-3.11
-9.6
-15.52
-20.59
-24.73
-27.99
-30.44
-32.16
-33.26
-33.85
-33.99
-33.74
-33.19
-32.51
-31.98
-31.94
-32.59
-33.74
-34.63
-34.03
-30.72
-24.02
-14.31
-3.08
7.46
15.21
18.89
18.37
14.54
8.83
2.59
-3.19
-7.96
-11.48
-13.7
-14.78
-15.09
-15.16
-15.55
-16.57
-18.24
-20.26
-22.24
-23.96
-25.4
-26.68
-27.88
-28.86
-29.29
-28.7
-26.6
-22.55
-16.12
-6.93
5.29
20.45
38.02
56.88
75.53
92.55
107.03
118.84
128.43
136.38
142.71
146.63
146.68
141.44
130.3
114.11
95.11
76.26
60.25
48.54
40.98
36.04
31.56
25.77
17.94
8.64
-0.8
-8.88
-14.75
-18.43
-20.67
-22.41
-24.28
-26.39
-28.38
-29.91
-30.85
-31.4
-31.85
-32.33
-32.51
-31.8
-29.65
-25.94
-21.23
-16.59
-13.29
-12.3
-14
-18.11
-23.88
-30.46
-37.05
-43.15
-48.41
-52.61
-55.45
-56.6
-55.76
-52.78
-47.79
-41.22
-33.83
-26.6
-20.56
-16.63
-15.4
-16.89
-20.49
-25.07
-29.17
-31.49
-31.24
-28.43
-23.83
-18.64
-14.01
-10.69
-8.72
-7.65
-6.77
-5.58
-4.01
-2.36
-1.06
-0.39
-0.26
-0.27
0.04
0.88
2.13
3.42
4.27
4.43
3.94
3.05
2.11
1.42
1.11
1.26
1.87
2.98
4.63
6.79
9.32
11.95
14.36
16.2
17.29
17.58
17.21
16.45
15.58
14.76
13.98
13.05
11.72
9.84
7.45
4.79
2.21
-0.03
-1.79
-3.11
-4.06
-4.71
-5.02
-4.89
-4.27
-3.22
-1.91
-0.58
0.61
1.62
2.53
3.51
4.7
6.05
7.39
8.46
9.06
9.12
8.72
8.08
7.4
6.81
6.27
5.69
4.97
4.09
3.14
2.27
1.65
1.26
1.02
0.74
0.25
-0.57
-1.8
-3.42
-5.35
-7.39
-9.25
-10.52
-10.81
-9.94
-8.03
-5.48
-2.82
-0.55
1.12
2.17
2.8
3.18
3.44
3.6
3.66
3.63
3.63
3.8
4.22
4.85
5.5
5.9
5.79
5.09
3.92
2.58
1.37
0.48
-0.16
-0.86
-1.98
-3.76
-6.2
-9.04
-11.82
-14.07
-15.45
-15.88
-15.47
-14.48
-13.13
-11.56
-9.77
-7.79
-5.68
-3.56
-1.61
0.05
1.34
2.3
2.97
3.38
3.55
3.5
3.34
3.16
3.05
2.98
2.81
2.36
1.49
0.21
-1.36
-3.02
-4.61
-6.04
-7.41
-8.91
-10.75
-13.11
-15.97
-19.07
-22.04
-24.47
-25.99
-26.44
-25.84
-24.32
-22.11
-19.42
-16.42
-13.28
-10.15
-7.15
-4.4
-2.01
-0.03
1.54
2.78
3.82
4.8
5.79
6.79
7.71
8.45
8.9
8.98
8.65
7.94
6.84
5.37
3.54
1.36
-1.18
-4.03
-7.14
-10.49
-14.04
-17.75
-21.5
-25.1
-28.17
-30.26
-30.96
-30.05
-27.59
-23.94
-19.59
-15
-10.44
-6
-1.71
2.34
5.91
8.68
10.4
11.1
11.1
10.97
11.17
11.89
12.94
13.85
14.13
13.57
12.25
10.46
8.54
6.65
4.79
2.8
0.56
-2
-4.91
-8.23
-11.99
-16.13
-20.36
-24.14
-26.77
-27.65
-26.48
-23.35
-18.74
-13.29
-7.57
-2.06
2.97
7.34
10.92
13.66
15.54
16.73
17.43
17.94
18.49
19.17
19.91
20.53
20.8
20.56
19.71
18.28
16.37
14.18
11.9
9.71
7.67
5.77
3.89
1.89
-0.33
-2.83
-5.67
-8.9
-12.54
-16.51
-20.52
-24.05
-26.43
-27.1
-25.79
-22.68
-18.31
-13.31
-8.24
-3.39
1.22
5.7
10.06
14.14
17.67
20.37
22.13
23.08
23.53
23.79
24.03
24.24
24.27
24.01
23.48
22.8
22.12
21.42
20.53
19.19
17.21
14.58
11.5
8.3
5.25
2.44
-0.18
-2.78
-5.55
-8.62
-12.06
-15.92
-20.11
-24.38
-28.3
-31.23
-32.59
-31.94
-29.26
-24.94
-19.66
-14.09
-8.72
-3.62
1.33
6.3
11.26
15.9
19.8
22.61
24.25
24.92
25.03
24.98
25.03
25.2
25.39
25.41
25.07
24.29
23.11
21.65
20.13
18.7
17.47
16.4
15.31
13.98
12.23
9.96
7.22
4.18
1.05
-1.97
-4.78
-7.36
-9.8
-12.25
-14.89
-17.88
-21.29
-25.06
-28.91
-32.35
-34.75
-35.48
-34.19
-30.88
-25.98
-20.15
-14.09
-8.29
-2.98
1.83
6.2
10.11
13.47
16.15
18.09
19.42
20.38
21.21
22.04
22.82
23.36
23.47
23.11
22.42
21.62
20.91
20.33
19.74
19
17.96
16.66
15.22
13.73
12.21
10.59
8.75
6.62
4.23
1.73
-0.7
-2.95
-4.95
-6.82
-8.72
-10.88
-13.5
-16.68
-20.33
-24.17
-27.72
-30.4
-31.64
-31.03
-28.47
-24.21
-18.84
-13.11
-7.66
-2.81
1.42
5.29
9.07
12.82
16.42
19.61
22.15
23.93
24.99
25.42
25.33
24.81
23.93
22.79
21.54
20.27
19.13
18.15
17.35
16.68
16.03
15.25
14.2
12.85
11.23
9.48
7.67
5.75
3.57
1.01
-1.88
-4.89
-7.67
-10.02
-11.93
-13.66
-15.54
-17.88
-20.79
-24.16
-27.81
-31.42
-34.64
-37.01
-38.11
-37.58
-35.36
-31.7
-27.13
-22.28
-17.62
-13.32
-9.31
-5.38
-1.41
2.53
6.18
9.26
11.6
13.25
14.47
15.58
16.82
18.24
19.69
20.92
21.73
21.98
21.7
20.99
20.02
18.88
17.61
16.2
14.65
13
11.35
9.82
8.45
7.13
5.66
3.81
1.46
-1.27
-4.13
-6.77
-9
-10.83
-12.51
-14.38
-16.77
-19.82
-23.45
-27.35
-31.03
-33.86
-35.29
-34.98
-32.85
-29.24
-24.73
-19.96
-15.41
-11.34
-7.78
-4.64
-1.85
0.58
2.59
4.18
5.49
6.73
8.15
9.86
11.76
13.62
15.14
16.15
16.68
16.93
17.19
17.66
18.39
19.28
20.1
20.58
20.48
19.65
18.09
15.93
13.43
10.86
8.44
6.24
4.21
2.22
0.04
-2.51
-5.58
-9.27
-13.59
-18.41
-23.5
-28.54
-33.1
-36.76
-39.09
-39.77
-38.69
-35.98
-32.09
-27.62
-23.2
-19.22
-15.78
-12.68
-9.67
-6.57
-3.44
-0.47
2.13
4.22
5.86
7.2
8.41
9.58
10.69
11.64
12.33
12.7
12.8
12.75
12.7
12.71
12.79
12.82
12.63
12.11
11.2
9.96
8.5
6.93
5.31
3.69
2.09
0.54
-0.9
-2.26
-3.61
-5.11
-6.99
-9.41
-12.47
-16.08
-19.95
-23.61
-26.48
-28.02
-27.89
-26.11
-23.03
-19.22
-15.27
-11.57
-8.26
-5.25
-2.32
0.68
3.77
6.81
9.6
11.93
13.7
14.92
15.74
16.3
16.75
17.1
17.25
17.07
16.48
15.56
14.5
13.49
12.69
12.01
11.28
10.25
8.74
6.79
4.6
2.42
0.44
-1.32
-2.98
-4.75
-6.79
-9.19
-11.96
-15.05
-18.34
-21.7
-24.81
-27.3
-28.7
-28.69
-27.13
-24.22
-20.38
-16.1
-11.82
-7.73
-3.93
-0.4
2.8
5.59
7.9
9.71
11.15
12.44
13.73
15.08
16.35
17.3
17.72
17.54
16.84
15.85
14.75
13.63
12.43
11.03
9.32
7.3
5.08
2.85
0.76
-1.15
-2.95
-4.82
-6.98
-9.66
-12.95
-16.86
-21.15
-25.39
-28.95
-31.2
-31.64
-30.11
-26.89
-22.61
-17.97
-13.53
-9.51
-5.82
-2.2
1.56
5.43
9.18
12.47
14.99
16.65
17.53
17.85
17.84
17.63
17.3
16.84
16.27
15.66
15.06
14.5
13.88
13
11.61
9.62
7.1
4.33
1.62
-0.84
-3.04
-5.22
-7.72
-10.81
-14.58
-18.85
-23.15
-26.9
-29.49
-30.44
-29.55
-26.98
-23.16
-18.69
-14.08
-9.69
-5.64
-1.92
1.52
4.64
7.33
9.44
10.93
11.87
12.52
13.14
13.92
14.89
15.94
16.85
17.4
17.46
16.96
15.92
14.36
12.36
9.98
7.36
4.67
2.05
-0.44
-2.85
-5.35
-8.13
-11.35
-15.06
-19.12
-23.21
-26.86
-29.45
-30.46
-29.53
-26.6
-22.04
-16.5
-10.74
-5.4
-0.81
2.95
6.07
8.75
11.14
13.25
15.05
16.47
17.52
18.28
18.82
19.22
19.45
19.41
19.02
18.2
16.98
15.48
13.81
12.03
10.11
7.95
5.51
2.82
-0.02
-2.89
-5.74
-8.66
-11.82
-15.41
-19.42
-23.6
-27.41
-30.15
-31.16
-30.11
-27.03
-22.39
-16.84
-11.1
-5.67
-0.82
3.38
6.96
9.98
12.48
14.5
16.1
17.37
18.37
19.17
19.81
20.28
20.54
20.56
20.25
19.58
18.5
16.99
15.1
12.91
10.51
8.02
5.53
3.1
0.77
-1.51
-3.8
-6.23
-8.97
-12.22
-16.07
-20.35
-24.59
-28
-29.77
-29.29
-26.43
-21.63
-15.72
-9.63
-4.07
0.64
4.52
7.76
10.53
12.89
14.79
16.25
17.34
18.25
19.14
20.07
20.97
21.63
21.85
21.57
20.88
19.93
18.88
17.74
16.38
14.62
12.37
9.66
6.69
3.67
0.73
-2.21
-5.36
-8.95
-13.08
-17.65
-22.34
-26.67
-30.04
-31.92
-31.89
-29.78
-25.83
-20.62
-14.91
-9.4
-4.53
-0.36
3.3
6.63
9.7
12.44
14.72
16.53
17.93
19.08
20.06
20.88
21.46
21.72
21.64
21.27
20.63
19.68
18.33
16.47
14.11
11.36
8.41
5.46
2.62
-0.12
-2.87
-5.83
-9.17
-13.01
-17.36
-22.04
-26.65
-30.64
-33.34
-34.16
-32.81
-29.4
-24.46
-18.79
-13.18
-8.16
-3.91
-0.29
2.96
6
8.86
11.39
13.45
14.96
16.02
16.8
17.48
18.12
18.63
18.85
18.56
17.63
16.04
13.9
11.38
8.73
6.14
3.73
1.49
-0.7
-2.97
-5.49
-8.39
-11.77
-15.64
-19.92
-24.3
-28.28
-31.19
-32.34
-31.32
-28.13
-23.27
-17.51
-11.69
-6.33
-1.63
2.46
6.08
9.26
11.92
13.93
15.25
16
16.39
16.71
17.1
17.61
18.1
18.39
18.27
17.61
16.4
14.77
12.84
10.79
8.68
6.47
4.08
1.36
-1.8
-5.47
-9.67
-14.37
-19.44
-24.61
-29.43
-33.26
-35.43
-35.46
-33.24
-29.12
-23.83
-18.19
-12.84
-8.04
-3.71
0.47
4.74
9.07
13.16
16.55
18.9
20.16
20.54
20.46
20.3
20.31
20.46
20.59
20.49
20.02
19.12
17.79
16.04
13.84
11.19
8.11
4.74
1.26
-2.16
-5.47
-8.79
-12.4
-16.56
-21.39
-26.6
-31.47
-35.04
-36.42
-35.17
-31.47
-26.04
-19.87
-13.79
-8.23
-3.16
1.64
6.37
10.94
15.05
18.31
20.55
21.83
22.49
22.88
23.25
23.61
23.78
23.6
22.98
22.02
20.9
19.76
18.56
17.08
15.08
12.41
9.16
5.64
2.18
-0.95
-3.77
-6.51
-9.57
-13.3
-17.89
-23.24
-28.9
-34.11
-38.03
-39.95
-39.53
-36.95
-32.8
-27.82
-22.55
-17.23
-11.76
-5.97
0.19
6.45
12.33
17.35
21.22
24
26.03
27.73
29.41
31.11
32.68
33.82
34.32
34.13
33.45
32.61
31.87
31.3
30.72
29.75
28.05
25.46
22.14
18.46
14.84
11.58
8.75
6.16
3.53
0.59
-2.86
-6.96
-11.72
-17.02
-22.52
-27.55
-31.34
-33.16
-32.67
-30.01
-25.75
-20.64
-15.3
-10.03
-4.86
0.32
5.52
10.59
15.18
18.98
21.8
23.67
24.84
25.59
26.14
26.56
26.75
26.6
26.05
25.17
24.17
23.28
22.61
22.09
21.49
20.54
19.03
16.89
14.22
11.2
8.07
5.02
2.21
-0.31
-2.57
-4.66
-6.78
-9.16
-12.08
-15.75
-20.31
-25.7
-31.61
-37.4
-42.2
-45.18
-45.71
-43.68
-39.46
-33.83
-27.63
-21.48
-15.66
-10.1
-4.6
0.94
6.37
11.36
15.57
18.76
20.98
22.45
23.51
24.37
25.16
25.85
26.38
26.71
26.87
26.91
26.84
26.59
26.02
25.01
23.49
21.5
19.2
16.76
14.33
11.97
9.63
7.2
4.61
1.82
-1.14
-4.19
-7.27
-10.34
-13.46
-16.72
-20.27
-24.21
-28.54
-33.01
-37.18
-40.43
-42.11
-41.8
-39.41
-35.25
-29.88
-23.95
-17.95
-12.17
-6.64
-1.28
3.96
9.05
13.78
17.9
21.23
23.69
25.4
26.54
27.41
28.21
29.03
29.82
30.47
30.83
30.79
30.31
29.43
28.22
26.7
24.94
23.01
21
19.04
17.21
15.59
14.1
12.66
11.15
9.56
7.93
6.36
4.93
3.64
2.41
1.1
-0.44
-2.32
-4.53
-6.95
-9.22
-10.84
-11.26
-10.02
-6.97
-2.3
3.48
9.77
16.07
22.11
27.79
33.03
37.51
40.65
41.66
39.91
35.15
27.8
18.87
9.65
1.35
-5.2
-9.65
-12.08
-12.82
-12.28
-10.92
-9.25
-7.73
-6.74
-6.45
-6.84
-7.67
-8.64
-9.52
-10.2
-10.7
-11.06
-11.32
-11.5
-11.61
-11.76
-12.04
-12.62
-13.61
-15.15
-17.39
-20.5
-24.57
-29.45
-34.65
-39.34
-42.62
-43.82
-42.73
-39.7
-35.48
-30.85
-26.33
-22.03
-17.77
-13.24
-8.34
-3.25
1.57
5.61
8.53
10.3
11.17
11.58
11.86
12.16
12.46
12.67
12.74
12.74
12.75
12.81
12.85
12.71
12.21
11.29
9.95
8.23
6.25
4.11
1.92
-0.2
-2.19
-4.05
-5.82
-7.6
-9.44
-11.45
-13.73
-16.46
-19.83
-23.89
-28.39
-32.74
-36.11
-37.7
-37
-33.99
-29.14
-23.18
-16.91
-10.95
-5.65
-1.13
2.65
5.75
8.22
10.06
11.28
11.93
12.11
11.97
11.61
11.02
10.08
8.67
6.75
4.44
2.05
-0.06
-1.64
-2.64
-3.23
-3.73
-4.45
-5.6
-7.22
-9.22
-11.48
-13.77
-15.93
-17.78
-19.21
-20.2
-20.91
-21.61
-22.66
-24.34
-26.7
-29.49
-32.14
-33.94
-34.28
-32.81
-29.57
-24.95
-19.54
-13.92
-8.52
-3.59
0.8
4.73
8.29
11.55
14.52
17.13
19.34
21.11
22.52
23.69
24.77
25.82
26.8
27.59
28.03
28.08
27.76
27.19
26.47
25.63
24.6
23.23
21.39
19.01
16.17
13.02
9.77
6.56
3.41
0.23
-3.19
-7.04
-11.46
-16.45
-21.84
-27.3
-32.32
-36.34
-38.84
-39.46
-38.23
-35.46
-31.76
-27.76
-23.94
-20.55
-17.6
-14.96
-12.49
-10.11
-7.83
-5.69
-3.69
-1.8
0.08
2
3.95
5.83
7.49
8.8
9.74
10.36
10.74
10.92
10.87
10.51
9.79
8.75
7.48
6.13
4.78
3.47
2.16
0.84
-0.56
-2.13
-3.99
-6.23
-8.84
-11.66
-14.25
-16.12
-16.79
-15.98
-13.77
-10.49
-6.61
-2.53
1.51
5.46
9.35
13.19
16.88
20.2
22.94
24.9
26.02
26.29
25.78
24.61
22.89
20.83
18.62
16.41
14.27
12.15
9.96
7.61
5.11
2.53
-0.06
-2.62
-5.22
-7.93
-10.8
-13.82
-16.94
-20.14
-23.45
-26.88
-30.32
-33.41
-35.55
-36.12
-34.7
-31.36
-26.58
-21.17
-15.91
-11.3
-7.44
-4.15
-1.15
1.75
4.51
7
9.03
10.54
11.63
12.48
13.21
13.86
14.31
14.37
13.91
12.93
11.49
9.77
7.82
5.66
3.21
0.43
-2.64
-5.85
-9
-11.96
-14.7
-17.39
-20.24
-23.5
-27.2
-31.08
-34.62
-37.12
-37.97
-36.84
-33.85
-29.47
-24.38
-19.15
-14.11
-9.33
-4.75
-0.29
3.96
7.79
10.91
13.13
14.37
14.79
14.62
14.12
13.48
12.79
12.03
11.14
10.1
8.86
7.41
5.72
3.78
1.6
-0.76
-3.24
-5.8
-8.48
-11.43
-14.84
-18.87
-23.41
-28.14
-32.43
-35.51
-36.72
-35.67
-32.47
-27.66
-22.05
-16.42
-11.3
-6.83
-2.77
1.25
5.55
10.16
14.77
18.92
22.05
23.81
24.07
23.01
21.04
18.6
16.06
13.63
11.32
9.06
6.79
4.58
2.62
1.1
0.11
-0.46
-1.01
-2.03
-3.96
-7.02
-11.15
-16.03
-21.19
-26.09
-30.12
-32.7
-33.31
-31.7
-27.91
-22.38
-15.78
-8.84
-2.12
4.04
9.54
14.42
18.7
22.37
25.41
27.79
29.48
30.52
30.95
30.86
30.39
29.69
28.85
27.93
26.85
25.46
23.64
21.31
18.47
15.2
11.66
8.01
4.39
0.89
-2.5
-5.91
-9.6
-13.87
-18.89
-24.57
-30.4
-35.48
-38.84
-39.67
-37.7
-33.22
-27.03
-20.06
-13.1
-6.56
-0.49
5.19
10.61
15.68
20.24
24.09
27.15
29.45
31.13
32.28
32.96
33.15
32.86
32.13
31.1
29.96
28.83
27.73
26.52
24.88
22.53
19.27
15.19
10.57
5.9
1.59
-2.19
-5.53
-8.78
-12.32
-16.49
-21.45
-27.04
-32.83
-38.07
-41.88
