-18.59
-11.44
-4.36
1.92
7.07
11.04
14
16.14
17.56
18.28
18.38
18
17.38
16.78
16.36
16.16
16.07
15.9
15.46
14.68
13.59
12.31
11.06
9.96
9.05
8.21
7.23
5.83
3.9
1.43
-1.35
-4.19
-6.9
-9.41
-11.84
-14.33
-17.07
-20.15
-23.6
-27.33
-31.09
-34.42
-36.66
-37.08
-35.15
-30.77
-24.4
-16.92
-9.3
-2.34
3.57
8.37
12.16
15.02
16.95
17.93
18.03
17.5
16.66
15.83
15.21
14.77
14.41
13.97
13.35
12.56
11.66
10.79
10.01
9.32
8.6
7.62
6.14
3.97
1.13
-2.17
-5.58
-8.76
-11.51
-13.81
-15.88
-18.09
-20.8
-24.23
-28.35
-32.85
-37.11
-40.32
-41.66
-40.62
-37.1
-31.56
-24.84
-17.92
-11.57
-6.21
-1.93
1.37
3.76
5.29
6
6.01
5.56
4.95
4.39
3.93
3.4
2.55
1.2
-0.62
-2.68
-4.62
-6.08
-6.91
-7.2
-7.24
-7.46
-8.19
-9.59
-11.52
-13.67
-15.6
-16.99
-17.77
-18.14
-18.55
-19.5
-21.27
-23.73
-26.1
-27.19
-25.64
-20.46
-11.38
0.97
15.17
29.36
41.81
51.24
57.14
59.67
59.5
57.44
54.07
49.62
43.96
36.82
28.06
17.87
6.85
-4.23
-14.66
-23.96
-31.89
-38.35
-43.19
-46.2
-47.31
-46.72
-45
-43.01
-41.58
-41.28
-42.27
-44.44
-47.59
-51.56
-56.2
-61.22
-65.97
-69.52
-70.84
-69.23
-64.68
-57.92
-50.16
-42.7
-36.4
-31.55
-27.86
-24.82
-22.01
-19.2
-16.43
-13.81
-11.46
-9.56
-8.63
-9.47
-13.09
-20.21
-30.84
-44.26
-59.33
-75.08
-91.17
-107.81
-125.33
-143.54
-161.47
-177.47
-189.78
-196.99
-198.21
-192.82
-179.97
-158.55
-127.52
-86.76
-37.62
16.98
73.18
127.27
176.46
219.29
255.11
283.5
303.61
314.37
315.05
306.01
288.99
266.79
242.38
218.02
194.82
172.94
152.17
132.52
114.38
98.4
84.95
73.85
64.37
55.5
46.45
36.99
27.43
18.39
10.32
3.15
-3.88
-11.88
-21.79
-33.9
-47.57
-61.46
-74.11
-84.48
-92.28
-97.82
-101.56
-103.74
-104.29
-102.99
-99.87
-95.28
-89.79
-83.67
-76.61
-67.64
-55.51
-39.47
-19.8
1.98
23.63
42.88
58.19
68.93
75.14
77
74.51
67.66
56.88
43.49
29.62
17.72
9.69
6.24
6.77
9.85
13.92
17.82
20.92
22.97
23.78
23.01
20.25
15.22
8.03
-0.63
-9.5
-17.13
-22.2
-23.97
-22.52
-18.61
-13.38
-7.92
-2.95
1.23
4.69
7.5
9.64
10.97
11.32
10.66
9.14
7.07
4.8
2.66
0.85
-0.56
-1.65
-2.62
-3.71
-5.07
-6.69
-8.39
-9.84
-10.82
-11.39
-11.87
-12.81
-14.61
-17.37
-20.82
-24.44
-27.69
-30.12
-31.48
-31.56
-30.22
-27.3
-22.63
-16.11
-7.67
2.64
14.55
27.43
40.2
51.46
59.77
64.06
64.01
60.24
54.26
48.04
43.6
42.44
45.1
51.05
58.75
66.23
71.88
75.1
76.57
77.89
80.69
85.76
92.51
99.33
104.42
106.66
106.07
103.53
100.18
96.61
92.7
87.91
81.84
74.72
67.43
61.06
56.33
53.15
50.58
47.34
42.5
36.02
28.89
22.71
18.98
18.29
20.1
22.95
25.06
25.11
22.62
17.97
12.04
5.69
-0.5
-6.41
-12.12
-17.82
-23.51
-29.01
-34.04
-38.43
-42.19
-45.58
-48.94
-52.54
-56.53
-61.03
-66.37
-73.11
-81.76
-92.25
-103.27
-112.18
-115.62
-110.82
-97.02
-76.22
-52.56
-30.7
-14.06
-3.79
0.86
1.27
-1.8
-8.55
-19.37
-33.64
-49.05
-62.13
-69.8
-70.9
-66.88
-60.95
-56.52
-55.6
-58.03
-61.95
-64.84
-64.67
-60.6
-53.03
-43.16
-32.41
-21.96
-12.51
-4.38
2.33
7.56
11.22
13.35
14.21
14.3
14.2
14.43
15.18
16.32
17.51
18.3
18.32
17.42
15.65
13.36
11.09
9.38
8.6
8.72
9.29
9.62
9.14
7.56
5.13
2.49
0.44
-0.32
0.62
3.27
7.27
12.08
17.08
21.78
25.92
29.41
32.28
34.53
36.12
36.95
37.02
36.47
35.57
34.69
34.11
33.9
33.96
34.02
33.79
33.08
31.81
30.04
27.91
25.55
23.07
20.56
18.04
15.49
12.82
9.89
6.61
3.05
-0.44
-3.39
-5.19
-5.53
-4.43
-2.31
0.12
2.2
3.45
3.71
3.04
1.71
-0.05
-2.05
-4.26
-6.81
-10.01
-14.16
-19.5
-26.09
-33.73
-42.03
-50.49
-58.53
-65.55
-70.85
-73.78
-73.91
-71.29
-66.57
-60.95
-55.85
-52.41
-51.2
-51.92
-53.62
-54.96
-54.72
-52.08
-46.77
-38.98
-29.17
-18.01
-6.2
5.36
15.71
23.91
29.37
32
32.38
31.53
30.44
29.75
29.46
29.19
28.44
26.93
24.59
21.44
17.38
12.18
5.56
-2.51
-11.64
-21.04
-29.76
-37.02
-42.41
-46
-48.28
-50.01
-52.15
-55.71
-61.55
-70.15
-81.45
-94.88
-109.53
-124.51
-139.19
-153.29
-166.72
-179.44
-191.28
-201.93
-211.09
-218.44
-223.64
-226.17
-225.37
-220.64
-211.75
-199.16
-183.98
-167.58
-151.18
-135.25
-119.27
-101.72
-80.51
-53.67
-20.11
19.89
64.6
110.91
154.89
192.41
219.89
235.1
237.87
230.3
216.35
200.63
186.84
176.6
169.09
161.8
152.06
138.4
121.25
102.61
85.08
70.71
60.42
53.94
50.24
48.26
47.3
47.12
47.58
48.31
48.51
47.13
43.39
37.27
29.84
22.67
17.27
14.28
13.33
13.37
13.46
13.26
13.13
13.74
15.41
17.82
20.06
20.99
19.84
16.5
11.59
6.19
1.5
-1.58
-2.72
-2.22
-0.91
0.23
0.48
-0.24
-1.27
-1.45
0.37
4.89
12.12
21.58
32.54
44.33
56.43
68.39
79.83
90.45
100.18
109.3
118.28
127.62
137.54
147.89
158.12
167.53
175.38
181.04
183.85
183.08
177.9
167.57
151.79
131.02
106.49
80.15
54.21
30.89
12.1
-0.6
-6.15
-4.27
4.16
16.82
30.07
39.73
42.14
35.04
17.86
-8.6
-42.9
-83.32
-127.74
-173.15
-215.2
-248.58
-268.16
-270.59
-255.63
-226.54
-189.06
-149.7
-113.65
-83.7
-59.99
-41
-24.9
-10.61
1.73
11.33
17.48
20.21
20.41
19.3
17.76
15.84
12.87
8.03
1.05
-7.36
-15.67
-22.13
-25.62
-26.12
-24.76
-23.24
-23.13
-25.16
-29.1
-33.92
-38.41
-41.67
-43.37
-43.8
-43.54
-43.2
-43.1
-43.33
-43.77
-44.27
-44.84
-45.57
-46.58
-47.92
-49.49
-51.12
-52.69
-54.22
-55.9
-58.09
-61.21
-65.66
-71.6
-78.74
-86.23
-92.75
-96.95
-97.94
-95.68
-90.97
-84.93
-78.35
-71.24
-62.97
-52.86
-40.8
-27.59
-14.68
-3.5
5.03
10.61
13.24
12.78
8.84
0.99
-10.72
-25.43
-41.58
-57.26
-70.76
-80.9
-87.17
-89.59
-88.56
-84.71
-78.83
-71.68
-63.99
-56.26
-48.84
-41.82
-35.13
-28.54
-21.85
-14.96
-8.03
-1.4
4.53
9.54
13.79
17.82
22.42
28.48
36.87
48.4
63.8
83.51
107.21
133.37
159.07
180.5
193.89
196.85
189.31
173.52
153.23
132.36
113.7
98.26
85.57
74.51
64.17
54.35
45.46
38.17
32.84
29.41
27.43
26.34
25.8
25.81
26.6
28.38
30.99
33.81
35.91
36.55
35.56
33.68
32.22
32.47
35.01
39.25
43.62
46.15
45.37
40.88
33.56
25.15
17.51
11.73
7.83
4.78
1.1
-4.31
-11.75
-20.52
-29.37
-37
-42.57
-45.76
-46.75
-45.88
-43.53
-40.09
-35.94
-31.5
-27.14
-23.11
-19.46
-16.11
-12.96
-9.94
-7.13
-4.63
-2.58
-1.08
-0.18
0.11
-0.19
-1.06
-2.38
-3.97
-5.62
-7.13
-8.44
-9.64
-10.99
-12.75
-15.15
-18.21
-21.73
-25.26
-28.25
-30.18
-30.74
-29.97
-28.16
-25.77
-23.11
-20.23
-16.8
-12.22
-5.89
2.53
12.91
24.69
37.08
49.23
60.34
69.73
76.9
81.68
84.41
85.89
87.16
89.03
91.69
94.61
96.81
97.41
95.89
92.25
86.73
79.56
70.89
60.87
49.9
38.58
27.68
17.71
8.83
0.81
-6.82
-14.5
-22.56
-31.19
-40.44
-50.22
-60.24
-70
-78.93
-86.47
-92.2
-95.93
-97.61
-97.37
-95.33
-91.66
-86.47
-79.91
-72.21
-63.78
-55.21
-47.2
-40.37
-35.03
-31.04
-27.79
-24.47
-20.34
-14.95
-8.32
-0.72
7.4
15.57
23.33
30.2
35.73
39.56
41.48
41.54
40.02
37.37
34.06
30.48
26.87
23.32
19.82
16.32
12.82
9.43
6.31
3.61
1.39
-0.42
-2.07
-3.77
-5.76
-8.19
-11.1
-14.41
-17.98
-21.56
-24.86
-27.6
-29.52
-30.41
-30.08
-28.38
-25.24
-20.76
-15.31
-9.45
-3.82
1.05
4.87
7.62
9.53
10.85
11.82
12.58
13.25
13.98
14.97
16.34
18.14
20.15
21.94
22.98
22.81
21.19
18.08
13.66
8.15
1.84
-4.97
-11.96
-18.84
-25.31
-31.2
-36.38
-40.62
-43.57
-44.71
-43.48
-39.58
-33.11
-24.68
-15.24
-5.75
3.09
11
18.08
24.53
30.47
35.75
40.09
43.18
44.87
45.21
44.41
42.63
40
36.62
32.63
28.24
23.68
19.07
14.36
9.3
3.58
-2.97
-10.32
-18.22
-26.29
-34.12
-41.38
-47.81
-53.24
-57.52
-60.55
-62.21
-62.35
-60.8
-57.44
-52.29
-45.64
-38.07
-30.36
-23.28
-17.31
-12.53
-8.62
-5.08
-1.49
2.23
5.79
8.68
10.42
10.8
9.96
8.3
6.27
4.2
2.25
0.5
-0.93
-1.79
-1.8
-0.86
0.76
2.45
3.43
3.13
1.43
-1.3
-4.4
-7.29
-9.72
-11.91
-14.34
-17.48
-21.5
-26.1
-30.65
-34.36
-36.57
-36.95
-35.55
-32.73
-29.01
-24.84
-20.54
-16.21
-11.94
-7.84
-4.15
-1.09
1.22
2.88
4.11
5.04
5.63
5.6
4.61
2.53
-0.43
-3.76
-6.87
-9.39
-11.31
-12.92
-14.53
-16.25
-17.94
-19.26
-19.92
-19.81
-19.01
-17.66
-15.88
-13.76
-11.41
-9.13
-7.4
-6.75
-7.5
-9.48
-11.98
-13.86
-14.03
-11.85
-7.43
-1.51
4.9
10.94
16.24
20.88
25.21
29.49
33.66
37.41
40.32
42.13
42.8
42.56
41.8
40.84
39.88
39.01
38.14
37.17
35.94
34.39
32.57
30.61
28.66
26.87
25.23
23.6
21.8
19.62
16.9
13.52
9.46
4.89
0.19
-3.99
-6.84
-7.62
-5.97
-2
3.64
10.07
16.39
21.96
26.45
29.75
31.94
33.11
33.36
32.84
31.76
30.39
29.04
27.98
27.38
27.23
27.33
27.32
26.81
25.54
23.54
21.12
18.73
16.71
15.14
13.73
11.99
9.45
5.87
1.35
-3.63
-8.39
-12.18
-14.36
-14.52
-12.62
-8.94
-4.05
1.35
6.63
11.29
15.14
18.18
20.53
22.34
23.67
24.5
24.78
24.46
23.57
22.23
20.62
18.95
17.36
15.89
14.47
12.98
11.3
9.39
7.34
5.29
3.39
1.67
0
-1.89
-4.31
-7.42
-11.09
-14.86
-17.99
-19.74
-19.54
-17.24
-13.11
-7.76
-1.88
3.86
9
13.36
16.93
19.85
22.24
24.23
25.8
26.89
27.39
27.28
26.72
25.99
25.47
25.5
26.25
27.61
29.24
30.54
30.75
29.05
24.78
17.62
7.77
-4.05
-16.76
-29.16
-40.25
-49.41
-56.41
-61.29
-64.2
-65.22
-64.42
-61.81
-57.45
-51.53
-44.31
-36.13
-27.38
-18.47
-9.82
-1.83
5.11
10.71
14.86
17.67
19.41
20.38
20.83
20.91
20.62
19.99
19.02
17.71
15.97
13.68
10.67
6.94
2.73
-1.54
-5.5
-9.08
-12.55
-16.37
-20.87
-25.92
-30.93
-35.16
-38.06
-39.48
-39.64
-38.8
-37.04
-34.14
-29.75
-23.7
-16.19
-7.79
0.72
8.63
15.48
21.14
25.74
29.57
32.94
36.08
39.09
41.99
44.75
47.36
49.81
52.15
54.41
56.61
58.73
60.68
62.24
62.99
62.35
59.73
54.84
47.71
38.73
28.4
17.25
5.83
-5.2
-15.03
-22.94
-28.65
-32.46
-35.21
-37.86
-40.94
-44.28
-47.11
-48.46
-47.74
-44.82
-40.04
-33.82
-26.53
-18.5
-10.14
-1.99
5.48
11.89
17.14
21.37
24.77
27.59
30.09
32.57
35.27
38.26
41.26
43.71
44.99
44.72
42.97
40.19
36.84
33.06
28.52
22.59
14.77
5.03
-6.05
-17.47
-28.26
-37.79
-45.87
-52.68
-58.54
-63.69
-68.28
-72.3
-75.64
-78.1
-79.39
-79.14
-77
-72.75
-66.44
-58.43
-49.46
-40.34
-31.81
-24.2
-17.35
-10.74
-3.81
3.65
11.3
18.34
23.87
27.41
29.08
29.57
29.81
30.51
31.96
34.01
36.34
38.64
40.72
42.45
43.62
43.93
43.11
41.13
38.25
35.03
32.04
29.55
27.38
24.89
21.28
15.93
8.7
0.02
-9.22
-17.95
-25.2
-30.28
-32.86
-32.94
-30.8
-26.89
-21.77
-16.01
-10.15
-4.62
0.26
4.28
7.27
9.16
10.05
10.28
10.36
10.79
11.89
13.58
15.41
16.72
16.84
15.35
12.26
8
3.44
-0.31
-2.11
-1.18
2.62
8.6
15.43
21.56
25.69
27.15
25.94
22.49
17.38
11.06
3.84
-4.07
-12.31
-20.33
-27.47
-33.05
-36.58
-37.9
-37.2
-34.99
-31.88
-28.42
-24.99
-21.7
-18.48
-15.25
-12.02
-9
-6.55
-5.02
-4.59
-5.29
-6.95
-9.38
-12.44
-15.95
-19.65
-23.11
-25.92
-27.87
-29.17
-30.49
-32.71
-36.56
-42.19
-49.09
-56.23
-62.51
-67.21
-70.21
-72.04
-73.64
-75.94
-79.52
-84.28
-89.41
-93.53
-95.25
-93.56
-88.25
-79.87
-69.5
-58.19
-46.5
-34.41
-21.41
-6.94
9.26
27.02
45.84
65.12
84.36
103.26
121.61
139.4
156.72
173.66
190.04
205.15
217.6
225.38
226.39
219.08
203.14
179.75
151.46
121.48
92.81
67.43
45.8
26.88
8.62
-11.13
-33.79
-59.41
-86.64
-113.12
-136.3
-154.19
-165.66
-170.48
-169.03
-162.04
-150.41
-135.23
-117.81
-99.52
-81.66
-65.14
-50.35
-37.23
-25.38
-14.42
-4.17
5.28
13.66
20.64
26.04
29.83
32.23
33.6
34.39
35.03
35.84
37
38.54
40.38
42.2
43.47
43.6
42.05
38.52
32.97
25.61
16.73
6.76
-3.72
-13.84
-22.55
-28.84
-32.22
-32.92
-31.86
-30.26
-29.11
-28.82
-29.29
-30.14
-31.21
-32.6
-34.67
-37.73
-41.89
-46.93
-52.31
-57.38
-61.49
-64.2
-65.38
-65.29
-64.54
-63.76
-63.41
-63.51
-63.73
-63.61
-62.9
-61.76
-60.76
-60.61
-61.82
-64.46
-68
-71.4
-73.3
-72.27
-67.05
-56.92
-42.03
-23.54
-3.68
14.74
28.93
37
38.51
34.68
28.09
21.87
18.81
20.62
27.6
38.97
53.43
69.78
87.13
104.8
121.99
137.52
150
158.17
161.36
159.66
153.77
144.61
132.91
119.03
103.13
85.51
66.92
48.69
32.42
19.63
11.29
7.52
7.58
10.06
13.4
16.32
18.12
18.74
18.55
17.92
17.04
15.77
13.77
10.81
6.94
2.54
-1.8
-5.64
-8.82
-11.59
-14.4
-17.62
-21.33
-25.32
-29.29
-33.08
-36.76
-40.64
-45.01
-50.02
-55.56
-61.34
-66.96
-71.86
-75.4
-76.89
-75.7
-71.59
-64.78
-56.02
-46.36
-36.83
-28.14
-20.65
-14.43
-9.44
-5.66
-3.11
-1.8
-1.56
-2.03
-2.72
-3.12
-3.01
-2.43
-1.78
-1.54
-2.06
-3.33
-5.02
-6.61
-7.8
-8.59
-9.41
-10.87
-13.46
-17.34
-22.19
-27.35
-31.91
-34.98
-35.86
-34.17
-29.98
-23.76
-16.27
-8.3
-0.52
6.61
12.82
17.95
21.8
24.2
25.05
24.47
22.75
20.4
17.95
15.78
14.04
12.68
11.47
10.13
8.4
6.12
3.29
0.14
-3.13
-6.36
-9.68
-13.56
-18.66
-25.55
-34.27
-44.16
-53.8
-61.53
-65.92
-66.41
-63.35
-57.89
-51.42
-45.04
-39.39
-34.68
-30.89
-27.94
-25.82
-24.54
-23.98
-23.99
-24.42
-25.15
-26.02
-26.83
-27.23
-26.83
-25.38
-22.92
-19.86
-16.91
-14.74
-13.83
-14.36
-16.29
-19.5
-23.9
-29.27
-35.21
-40.85
-44.95
-46.12
-43.37
-36.42
-25.95
-13.38
-0.37
11.68
21.94
30.25
36.81
41.93
45.87
48.7
50.4
50.99
50.53
49.2
47.27
45.03
42.8
40.75
38.93
37.18
35.2
32.71
29.55
25.8
21.71
17.54
13.36
9.01
4.18
-1.27
-7.09
-12.36
-15.76
-16.02
-12.4
-5.14
4.56
14.99
24.52
32.16
37.79
41.87
45.06
47.79
50.05
51.49
51.74
50.61
48.33
45.37
42.29
39.48
37.03
34.74
32.23
29.19
25.5
21.24
16.59
11.76
6.86
1.92
-3.01
-7.86
-12.56
-17.2
-21.99
-27.21
-32.9
-38.68
-43.6
-46.43
-46.06
-41.88
-34.07
-23.55
-11.64
0.26
11.06
20.06
27.02
32.04
35.44
37.66
39.04
39.85
40.15
39.86
38.89
37.23
35
32.51
30.07
27.94
26.14
24.5
22.72
20.51
17.7
14.33
10.63
6.9
3.36
0.09
-3.04
-6.24
-9.76
-13.84
-18.6
-24.09
-30.14
-36.21
-41.27
-43.99
-43.13
-38.03
-29.04
-17.51
-5.33
5.81
14.96
22.07
27.81
32.87
37.63
41.98
45.49
47.81
48.87
48.95
48.47
47.83
47.2
46.59
45.91
45.11
44.13
42.97
41.57
39.78
37.34
34.01
29.73
24.66
19.23
14.02
9.47
5.78
2.74
-0.18
-3.74
-8.51
-14.68
-21.85
-29.02
-34.72
-37.44
-36.02
-30.14
-20.42
-8.29
4.49
16.35
26.29
34.06
39.89
44.23
47.4
49.52
50.56
50.51
49.55
48
46.23
44.57
43.2
42.15
41.32
40.56
39.63
38.28
36.24
33.27
29.28
24.38
18.87
13.14
7.57
2.33
-2.66
-7.68
-13.16
-19.41
-26.5
-34.03
-41.14
-46.63
-49.3
-48.26
-43.3
-35
-24.6
-13.6
-3.35
5.29
12.05
17.11
20.79
23.27
24.62
24.79
23.82
21.95
19.53
16.85
14.12
11.34
8.48
5.58
2.84
0.51
-1.17
-2.18
-2.81
-3.59
-5.13
-7.99
-12.48
-18.58
-25.92
-33.78
-41.11
-46.77
-49.69
-49.18
-45.18
-38.27
-29.5
-20.07
-10.99
-2.87
4.03
9.61
13.71
16.1
16.62
15.32
12.64
9.34
6.21
3.81
2.31
1.48
0.82
-0.1
-1.58
-3.69
-6.27
-9.1
-11.97
-14.81
-17.69
-20.85
-24.6
-29.23
-34.72
-40.68
-46.25
-50.34
-51.9
-50.31
-45.54
-38.17
-29.15
-19.54
-10.19
-1.65
5.8
11.98
16.69
19.76
21.12
20.94
19.64
17.85
16.16
14.89
14.07
13.39
12.49
11.15
9.43
7.61
6.06
4.94
4.05
2.86
0.69
-3.03
-8.45
-15.15
-22.14
-28.09
-31.7
-32.03
-28.77
-22.3
-13.62
-3.99
5.33
13.46
20.09
25.41
29.95
34.18
38.31
42.07
44.92
46.33
46.02
44.13
41.08
37.37
33.34
29.1
24.67
20.15
15.76
11.8
8.49
5.79
3.42
0.9
-2.19
-6.15
-11.07
-16.82
-23.03
-29.09
-34.23
-37.67
-38.86
-37.7
-34.64
-30.49
-26.11
-22.01
-18.28
-14.56
-10.47
-5.89
-1.13
3.17
6.35
8.07
8.45
8.02
7.46
7.3
7.77
8.74
9.88
10.83
11.35
11.37
10.99
10.34
9.48
8.33
6.7
4.41
1.36
-2.4
-6.74
-11.48
-16.46
-21.37
-25.75
-28.8
-29.61
-27.49
-22.3
-14.68
-5.89
2.6
9.58
14.49
17.44
19.03
19.98
20.86
21.95
23.18
24.32
25.09
25.31
24.95
24.12
23.01
21.82
20.62
19.35
17.81
15.81
13.17
9.87
5.95
1.49
-3.36
-8.43
-13.47
-18.24
-22.63
-26.85
-31.4
-36.82
-43.37
-50.59
-57.31
-61.92
-62.99
-59.84
-52.84
-43.22
-32.56
-22.35
-13.54
-6.57
-1.42
2.15
4.42
5.76
6.63
7.51
8.92
11.15
14.2
17.64
20.8
22.99
23.85
23.51
22.51
21.56
21.19
21.48
22.03
22.2
21.38
19.3
16.11
12.23
8.21
4.45
1.13
-1.83
-4.65
-7.58
-10.86
-14.74
-19.3
-24.45
-29.72
-34.32
-37.19
-37.41
-34.57
-28.97
-21.59
-13.73
-6.57
-0.71
3.85
7.61
11.13
14.69
18.2
21.28
23.52
24.78
25.2
25.16
25
24.8
24.34
23.16
20.85
17.32
12.86
8.17
4.06
1.11
-0.54
-1.27
-1.93
-3.37
-6.08
-10.03
-14.68
-19.28
-23.34
-26.76
-29.82
-32.95
-36.43
-40.35
-44.67
-49.25
-53.93
-58.32
-61.74
-63.22
-61.78
-56.86
-48.62
-37.95
-26.13
-14.41
-3.6
6.02
14.56
22.19
28.98
34.76
39.33
42.64
44.87
46.45
47.77
49.07
50.2
50.77
50.31
48.59
45.7
42.08
38.31
34.92
32.12
29.8
27.61
25.07
21.78
17.52
12.33
6.46
0.27
-5.85
-11.65
-16.99
-21.85
-26.32
-30.53
-34.72
-39.14
-44.03
-49.27
-54.37
-58.44
-60.43
-59.61
-55.84
-49.62
-41.86
-33.58
-25.46
-17.84
-10.82
-4.43
1.27
6.16
10.18
13.42
16.08
18.36
20.42
22.28
23.94
25.4
26.62
27.57
28.24
28.58
28.6
28.37
27.97
27.46
26.79
25.76
24.14
21.69
18.34
14.21
9.62
4.93
0.43
-3.76
-7.78
-11.95
-16.67
-22.15
-28.17
-33.97
-38.44
-40.32
-38.71
-33.41
-24.97
-14.59
-3.72
6.33
14.74
21.15
25.67
28.61
30.3
31.04
31.07
30.66
30.11
29.7
29.65
29.91
30.23
30.23
29.63
28.3
26.38
24.08
21.55
18.75
15.47
11.52
6.95
2.16
-2.17
-5.38
-7.1
-7.49
-7.14
-6.96
-7.78
-10.22
-14.47
-20.26
-26.84
-33.13
-37.9
-40.1
-39.26
-35.68
-30.35
-24.57
-19.41
-15.29
-11.94
-8.76
-5.25
-1.42
2.14
4.59
5.29
4.08
1.39
-1.93
-4.93
-6.78
-7.02
-5.55
-2.71
0.75
3.66
4.64
2.52
-3.07
-11.19
-19.59
-25.21
-25.29
-18.44
-5.23
11.89
29.59
44.79
55.65
61.85
64.19
63.86
61.82
58.59
54.39
49.41
43.93
38.17
32.15
25.62
18.27
10.06
1.39
-7.01
-14.34
-20.08
-24.08
-26.41
-27.27
-26.97
-25.99
-25.14
-25.4
-27.55
-31.77
-37.46
-43.48
-48.73
-52.65
-55.45
-57.87
-60.75
-64.62
-69.48
-74.95
-80.31
-84.77
-87.52
-87.86
-85.33
-79.86
-71.82
-61.95
-51.17
-40.31
-29.98
-20.54
-12.12
-4.8
1.36
6.27
9.88
12.31
13.83
14.83
15.72
16.75
17.92
18.98
19.53
19.28
18.2
16.58
14.82
13.2
11.7
9.91
7.26
3.25
-2.36
-9.45
-17.53
-25.88
-33.53
-39.45
-42.64
-42.43
-38.76
-32.28
-24.23
-16.11
-9.27
-4.54
-2.14
-1.72
-2.56
-3.71
-4.12
-2.59
2.08
10.85
24.01
40.83
59.43
77.18
91.43
100.37
103.68
102.57
99.23
96.09
94.96
96.6
100.72
106.26
111.75
115.58
116.27
112.64
104.16
91.23
75.19
58.02
41.79
28.07
17.6
10.26
5.37
2.05
-0.55
-3.05
-5.96
-9.73
-14.76
-21.32
-29.44
-38.8
-48.73
-58.31
-66.52
-72.5
-75.79
-76.49
-75.25
-72.92
-70.34
-68.02
-66.17
-64.76
-63.71
-62.96
-62.48
-62.26
-62.27
-62.45
-62.83
-63.5
-64.64
-66.34
-68.41
-70.24
-70.88
-69.26
-64.56
-56.59
-45.87
-33.49
-20.83
-9.09
0.93
8.95
15.1
19.68
22.97
25.21
26.5
26.91
26.54
25.59
24.31
22.91
21.51
20.04
18.33
16.23
13.67
10.63
7.12
3.03
-1.83
-7.63
-14.3
-21.41
-28.27
-34.07
-38.19
-40.41
-41
-40.6
-39.98
-39.83
-40.48
-41.74
-42.93
-42.93
-40.58
-34.98
-25.85
-13.67
0.54
15.5
30.07
43.57
55.77
66.81
76.91
86.19
94.5
101.45
106.45
108.96
108.62
105.47
100.04
93.28
86.39
80.44
76.08
73.29
71.42
69.47
66.5
61.99
56.03
49.22
42.38
36.27
31.26
27.45
24.64
22.55
20.79
18.88
16.23
12.21
6.37
-1.34
-10.31
-19.31
-26.85
-31.59
-32.86
-30.85
-26.54
-21.28
-16.31
-12.46
-9.96
-8.63
-8.06
-7.88
-7.8
-7.6
-7.12
-6.25
-4.9
-3.15
-1.14
0.87
2.7
4.27
5.66
7.05
8.63
10.4
12.07
13.16
13.09
11.39
7.94
2.97
-2.97
-9.2
-15.09
-20.21
-24.45
-27.93
-30.97
-33.85
-36.75
-39.62
-42.19
-44.09
-44.97
-44.64
-43.1
-40.49
-36.95
-32.67
-27.89
-23.02
-18.63
-15.35
-13.69
-13.88
-15.81
-19.08
-23.18
-27.58
-31.86
-35.67
-38.7
-40.7
-41.45
-40.82
-38.77
-35.37
-30.76
-25.1
-18.56
-11.37
-3.84
3.59
10.42
16.05
19.91
21.47
20.33
16.37
9.73
0.99
-8.93
-18.79
-27.22
-33.05
-35.52
-34.54
-30.68
-25.07
-19.07
-13.84
-10.05
-7.74
-6.45
-5.5
-4.33
-2.68
-0.68
1.37
3.14
4.47
5.38
5.95
6.26
6.27
5.87
4.95
3.45
1.42
-0.96
-3.45
-5.78
-7.77
-9.42
-10.9
-12.47
-14.38
-16.79
-19.65
-22.63
-25.09
-26.2
-25.17
-21.5
-15.21
-6.89
2.42
11.56
19.57
25.98
30.8
34.33
36.99
39.06
40.62
41.65
42.1
42.02
41.63
41.29
41.38
42.26
44.11
46.86
50.28
53.93
57.28
59.76
60.86
60.3
58.06
54.45
49.8
44.4
38.25
31.16
23
14.02
5
-2.88
-8.45
-10.98
-10.43
-7.47
-3.14
1.53
5.78
9.32
12.14
14.45
16.36
17.84
18.67
18.57
17.36
15.14
12.34
9.58
7.46
6.33
6.12
6.49
6.87
6.8
5.94
4.16
1.5
-1.85
-5.69
-9.77
-13.9
-17.9
-21.71
-25.34
-28.88
-32.44
-35.99
-39.29
-41.87
-43.05
-42.26
-39.18
-33.98
-27.33
-20.14
-13.37
-7.69
-3.38
-0.36
1.65
2.96
3.79
4.24
4.38
4.24
3.91
3.51
3.15
2.9
2.74
2.61
2.43
2.16
1.78
1.31
0.73
-0.06
-1.24
-2.94
-5.26
-8.12
-11.32
-14.63
-17.87
-21.05
-24.28
-27.69
-31.23
-34.51
-36.89
-37.6
-36.03
-31.99
-25.81
-18.22
-10.23
-2.76
3.47
8.09
11.05
12.5
12.75
12.11
10.95
9.57
8.2
7.02
6.05
5.23
4.44
3.54
2.49
1.39
0.5
0.09
0.31
1.07
1.95
2.38
1.85
0.1
-2.71
-6.12
-9.59
-12.72
-15.4
-17.77
-20.14
-22.83
-26.03
-29.77
-33.75
-37.37
-39.76
-40.07
-37.71
-32.77
-25.97
-18.46
-11.46
-5.77
-1.68
0.99
2.59
3.33
3.25
2.28
0.38
-2.34
-5.59
-9.06
-12.48
-15.65
-18.51
-21.02
-23.27
-25.41
-27.69
-30.42
-33.82
-37.98
-42.73
-47.78
-52.83
-57.75
-62.75
-68.32
-75.01
-83.17
-92.68
-102.94
-113.02
-122.03
-129.29
-134.6
-138.01
-139.82
-140.41
-140.11
-138.86
-135.96
-129.86
-118.45
-99.78
-73.14
-39.81
-3.32
31.37
59.31
76.98
83.24
79.33
67.96
52.26
34.97
18.07
3.07
-8.71
-16.01
-17.86
-13.89
-4.56
8.97
25.25
43.01
61.37
79.69
97.13
112.43
123.98
130.37
130.92
126.1
117.43
106.92
96.42
87.1
79.34
72.95
67.53
62.73
58.34
54.17
49.98
45.5
40.64
35.59
30.93
27.41
25.68
26.08
28.48
32.38
37.06
41.78
45.94
49.15
51.2
52.12
52.07
51.3
50.15
48.92
47.78
46.66
45.22
42.88
39
33.11
25.06
15.26
4.55
-5.94
-15.09
-22
-26.32
-28.21
-28.41
-28.2
-29.15
-32.85
-40.39
-51.99
-66.68
-82.56
-97.42
-109.4
-117.56
-121.82
-122.76
-121.13
-117.54
-112.42
-106.16
-99.11
-91.51
-83.35
-74.32
-64.08
-52.63
-40.57
-29.07
-19.52
-12.95
-9.73
-9.46
-11.16
-13.72
-16.26
-18.45
-20.48
-23
-26.71
-31.97
-38.64
-46
-52.91
-58.19
-60.86
-60.35
-56.59
-50
-41.4
-31.81
-22.21
-13.34
-5.55
1.12
6.84
11.82
16.16
19.87
22.89
25.17
26.66
27.33
27.09
25.97
24.09
21.83
19.69
18.15
17.47
17.51
17.78
17.61
16.44
14.09
10.87
7.33
4.12
1.6
-0.26
-1.89
-3.94
-7.03
-11.51
-17.21
-23.38
-28.69
-31.51
-30.31
-24.08
-12.79
2.52
19.86
36.89
51.56
62.6
69.72
73.46
74.77
74.59
73.54
71.85
69.44
66.22
62.21
57.59
52.68
47.8
43.12
38.73
34.58
30.64
26.89
23.31
19.79
16.1
11.96
7.09
1.48
-4.61
-10.62
-15.98
-20.27
-23.42
-25.78
-27.99
-30.78
-34.58
-39.3
-44.27
-48.29
-50.05
-48.53
-43.38
-35.14
-24.97
-14.34
-4.48
3.91
10.81
16.58
21.73
26.53
30.97
34.85
38.01
40.44
42.34
43.98
45.51
46.88
47.9
48.32
48.08
47.21
45.88
44.2
42.23
39.85
36.94
33.48
29.54
25.4
21.36
17.62
14.17
10.72
6.78
1.81
-4.53
-12.23
-20.74
-29.06
-35.89
-39.93
-40.25
-36.51
-29.02
-18.57
-6.27
6.82
19.72
31.66
42
50.27
56.19
59.74
61.16
60.86
59.34
57.08
54.5
51.99
49.87
48.38
47.7
47.84
48.61
49.68
50.73
51.48
51.76
51.43
50.31
48.12
44.55
39.34
32.52
24.53
16.03
7.74
0.03
-7.1
-13.87
-20.38
-26.23
-30.52
-32.17
-30.4
-25.15
-17.23
-7.96
1.22
9.22
15.56
20.23
23.48
25.49
26.31
25.88
24.28
21.88
19.3
17.24
16.12
15.87
15.84
15.22
13.37
10.13
5.94
1.47
-2.67
-6.25
-9.42
-12.52
-15.93
-19.86
-24.39
-29.38
-34.5
-39.05
-42.04
-42.46
-39.6
-33.49
-24.91
-15.16
-5.62
2.76
9.54
14.75
18.52
20.9
21.72
20.89
18.54
15.22
11.81
9.27
8.28
9.03
11.24
14.23
17.28
19.81
21.53
22.36
22.32
21.36
19.31
16.01
11.33
5.32
-1.76
-9.45
-17.03
-23.58
-28.11
-29.84
-28.4
-24.04
-17.58
-10.14
-2.79
3.77
9.26
13.71
17.32
20.17
22.25
23.47
23.79
23.21
21.81
19.66
16.86
13.54
9.97
6.45
3.31
0.78
-1.14
-2.65
-4.14
-6.02
-8.62
-12.13
-16.64
-22.06
-28.11
-34.24
-39.61
-43.14
-43.81
-41
-34.85
-26.29
-16.87
-8.18
-1.4
3.08
5.63
7.03
8.03
9.03
10.03
10.81
11.19
11.19
10.97
10.67
10.29
9.58
8.19
5.9
2.69
-1.13
-5.08
-8.62
-11.39
-13.32
-14.72
-16.23
-18.53
-22.1
-26.88
-32.15
-36.74
-39.38
-39.15
-35.74
-29.52
-21.31
-12.05
-2.54
6.67
15.19
22.68
28.65
32.64
34.26
33.51
30.78
26.82
22.49
18.56
15.47
13.3
11.82
10.67
9.48
8.01
6.22
4.19
2.13
0.17
-1.67
-3.59
-5.93
-8.98
-12.87
-17.46
-22.3
-26.79
-30.3
-32.28
-32.33
-30.26
-26.13
-20.23
-13.11
-5.49
1.92
8.55
14.14
18.69
22.43
25.58
28.24
30.29
31.44
31.4
30.05
27.49
24.08
20.26
16.42
12.86
9.75
7.26
5.64
5.13
5.82
7.42
9.28
10.54
10.5
8.94
6.2
3.04
0.28
-1.53
-2.43
-2.93
-3.81
-5.79
-9.3
-14.35
-20.45
-26.79
-32.27
-35.85
-36.72
-34.58
-29.69
-22.82
-14.99
-7.24
-0.34
5.34
9.83
13.42
16.51
19.39
22.15
24.67
26.7
28.03
28.67
28.84
28.87
29.03
29.41
29.94
30.34
30.33
29.62
28.02
25.4
21.77
17.32
12.41
7.58
3.32
-0.02
-2.43
-4.16
-5.7
-7.47
-9.75
-12.59
-15.83
-19.25
-22.61
-25.8
-28.79
-31.7
-34.76
-38.17
-42.06
-46.32
-50.54
-53.99
-55.76
-55.09
-51.59
-45.44
-37.34
-28.34
-19.51
-11.63
-5.13
-0.03
3.9
6.99
9.54
11.75
13.65
15.22
16.39
17.1
17.4
17.37
17.13
16.78
16.41
16.07
15.74
15.4
14.94
14.19
13.03
11.43
9.5
7.45
5.5
3.8
2.31
0.9
-0.59
-2.26
-4.1
-6.1
-8.18
-10.35
-12.63
-15.03
-17.6
-20.41
-23.56
-27.17
-31.19
-35.39
-39.16
-41.66
-42.07
-39.86
-35.07
-28.36
-20.76
-13.42
-7.15
-2.34
1.1
3.53
5.42
7.2
9.11
11.24
13.49
15.67
17.52
18.84
19.56
19.79
19.75
19.7
19.85
20.34
21.22
22.44
23.9
25.35
26.49
27.02
26.83
26.05
24.99
23.99
23.2
22.49
21.56
20.06
17.83
14.99
11.87
8.76
5.79
2.76
-0.75
-5.12
-10.56
-16.73
-22.86
-27.9
-30.86
-31.14
-28.73
-24.17
-18.37
-12.34
-6.91
-2.62
0.38
2.23
3.3
4.01
4.66
5.33
5.86
5.96
5.36
3.86
1.44
-1.82
-5.8
-10.32
-15.11
-19.81
-23.93
-27.09
-29.07
-30.04
-30.44
-30.89
-31.95
-33.95
-36.91
-40.53
-44.3
-47.6
-49.86
-50.7
-49.95
-47.77
-44.55
-40.81
-37.05
-33.53
-30.23
-26.78
-22.78
-17.79
-11.7
-4.68
2.8
10.15
16.74
22.11
25.97
28.14
28.6
27.39
24.74
21.04
16.92
12.98
9.72
7.28
5.43
3.74
1.73
-0.79
-3.71
-6.67
-9.24
-11.14
-12.34
-12.94
-13.11
-12.91
-12.35
-11.47
-10.43
-9.45
-8.66
-7.94
-6.98
-5.36
-2.85
0.38
3.81
6.72
8.47
8.76
7.65
5.54
3.05
0.86
-0.27
0.38
3.29
8.49
15.49
23.25
30.52
36.2
39.69
41.01
40.68
39.49
38.16
37.21
36.92
37.39
38.57
40.25
42
43.35
43.78
43.02
41.12
38.42
35.39
32.44
29.69
27.04
24.2
20.92
16.98
12.34
7.02
1.21
-4.81
-10.63
-15.81
-19.99
-23.11
-25.51
-27.8
-30.64
-34.35
-38.7
-42.91
-45.93
-46.87
-45.34
-41.58
-36.27
-30.28
-24.35
-18.93
-14.15
-9.93
-6.13
-2.63
0.56
3.32
5.4
6.59
6.82
6.22
5.22
4.35
4.1
4.74
6.25
8.31
10.48
12.28
13.44
13.87
13.69
13.08
12.12
10.77
8.92
6.44
3.28
-0.46
-4.64
-9.02
-13.3
-17.03
-19.61
-20.36
-18.74
-14.55
-8.14
-0.29
8
15.9
22.96
29.13
34.64
39.61
43.96
47.32
49.15
49.02
46.78
42.68
37.21
31.01
24.58
18.27
12.21
6.37
0.68
-4.99
-10.77
-16.82
-23.22
-30.05
-37.32
-45.11
-53.5
-62.52
-72.01
-81.51
-90.2
-97.06
-101.12
-101.52
-97.75
-89.69
-77.74
-62.91
-46.82
-31.37
-18.25
-8.41
-1.8
2.48
5.64
8.76
12.31
16.25
20.24
23.83
26.67
28.48
29.04
28.22
26.1
22.99
19.37
15.71
12.3
9.16
6.06
2.75
-0.95
-5.03
-9.3
-13.53
-17.52
-21.15
-24.35
-27.19
-29.8
-32.32
-34.82
-37.12
-38.76
-38.98
-36.98
-32.05
-23.88
-12.61
1.19
16.63
32.67
48.27
62.45
74.46
83.84
90.32
93.8
94.27
91.84
86.85
80.01
72.38
65.14
59.23
55.12
52.59
50.96
49.43
47.38
44.62
41.39
38.12
35.2
32.79
30.69
28.5
25.73
22.02
17.24
11.53
5.18
-1.42
-7.87
-13.74
-18.6
-21.96
-23.4
-22.6
-19.51
-14.37
-7.75
-0.38
6.96
13.65
19.31
23.84
27.25
29.58
30.79
30.79
29.49
26.98
23.52
19.5
15.27
11.11
7.13
3.43
0.23
-2.25
-3.79
-4.39
-4.28
-3.93
-3.77
-4.08
-4.85
-5.95
-7.19
-8.5
-9.91
-11.48
-13.18
-14.95
-16.72
-18.54
-20.64
-23.28
-26.51
-30.04
-33.2
-35.12
-35.09
-32.79
-28.43
-22.68
-16.42
-10.41
-5.16
-0.9
2.49
5.18
7.44
9.38
10.99
12.1
12.55
12.29
11.47
10.45
9.67
9.42
9.64
10.01
10.01
9.27
7.71
5.65
3.6
2.02
1.07
0.54
-0.02
-1.08
-2.87
-5.32
-8.06
-10.62
-12.73
-14.37
-15.82
-17.5
-19.74
-22.75
-26.53
-30.98
-35.88
-40.81
-45.13
-47.9
-48.16
-45.24
-39.15
-30.62
-20.96
-11.57
-3.48
2.98
7.99
11.99
15.31
17.95
19.67
20.17
19.44
17.76
15.74
14.02
13.02
12.8
13.03
13.21
12.85
11.76
9.96
7.71
5.27
2.74
0.03
-3.1
-6.9
-11.48
-16.69
-22.23
-27.7
-32.8
-37.43
-41.72
-45.91
-50.36
-55.28
-60.79
-66.82
-73.12
-79.25
-84.68
-88.83
-91.2
-91.55
-89.91
-86.71
-82.6
-78.36
-74.57
-71.4
-68.36
-64.43
-58.35
-49.1
-36.45
-21.09
-4.4
12.11
27.29
40.62
51.94
60.93
66.88
68.7
65.53
57.3
44.98
30.35
15.33
1.34
-10.98
-21.61
-30.79
-38.65
-45.09
-49.88
-52.79
-53.77
-52.98
-50.69
-47.22
-42.68
-36.88
-29.32
-19.4
-6.75
8.5
25.6
43.41
60.79
76.88
91.2
103.54
113.69
121.33
126.05
127.52
125.75
121.1
114.16
105.61
96.07
85.98
75.61
65.2
54.87
44.73
34.71
24.62
14.14
3.01
-8.79
-21.02
-33.14
-44.63
-55.16
-64.79
-73.91
-83.07
-92.83
-103.55
-115.32
-127.85
-140.38
-151.79
-160.71
-165.79
-166.02
-160.96
-150.76
-136.24
-118.58
-99.21
-79.54
-60.83
-43.97
-29.38
-17.06
-6.71
2.08
9.61
15.97
21.15
25.2
28.38
31.04
33.54
36.06
38.49
40.54
41.91
42.62
42.99
43.53
44.6
46.13
47.47
47.63
45.79
41.65
35.66
28.85
22.3
16.62
11.8
7.4
3.04
-1.15
-4.44
-5.83
-4.61
-0.79
4.9
11.28
17.24
22.14
25.9
28.78
31.13
33.09
34.63
35.6
35.89
35.54
34.7
33.54
32.26
31.03
29.92
28.96
28
26.8
25.06
22.55
19.18
15.13
10.71
6.19
1.77
-2.51
-6.58
-10.34
-13.63
-16.4
-18.86
-21.48
-24.83
-29.3
-34.77
-40.57
-45.56
-48.5
-48.43
-45
-38.64
-30.41
-21.7
-13.78
-7.43
-2.76
0.75
3.85
7.12
10.78
14.58
18.06
20.79
22.54
23.3
23.2
22.39
20.97
19.1
16.97
14.89
13.21
12.2
11.91
12.09
12.28
11.92
10.63
8.27
5.03
1.26
-2.77
-6.99
-11.56
-16.57
-21.87
-26.83
-30.5
-31.92
-30.57
-26.61
-20.77
-14.05
-7.35
-1.25
4
8.37
11.84
14.35
15.9
16.5
16.35
15.71
14.87
14.11
13.66
13.67
14.23
15.29
16.69
18.14
19.29
19.8
19.5
18.37
16.59
14.44
12.17
9.94
7.78
5.69
3.54
1.1
-2.01
-6.08
-10.99
-16.04
-19.92
-21.11
-18.51
-11.91
-2.1
9.42
21.14
31.95
41.37
49.34
55.91
60.94
64.17
65.34
64.5
62.07
58.76
55.33
52.4
50.34
49.14
48.57
48.25
47.87
47.23
46.28
45.12
43.93
42.92
42.18
41.64
40.85
39.07
35.35
29.03
19.96
8.64
-3.77
-15.9
-26.49
-34.63
-39.92
-42.36
-42.2
-39.94
-36.26
-31.98
-27.92
-24.65
-22.36
-20.85
-19.65
-18.24
-16.21
-13.38
-9.79
-5.73
-1.66
1.95
4.8
6.94
8.8
11.01
14.11
18.35
23.49
29.02
34.27
38.56
41.3
41.91
39.94
35.17
27.9
19.05
9.98
2.04
-4
-8.21
-11.48
-14.98
-19.67
-25.72
-32.44
-38.53
-42.53
-43.41
-40.84
-35.24
-27.52
-18.78
-9.89
-1.49
6.11
12.73
18.23
22.48
25.34
26.78
26.95
26.13
24.61
22.62
20.27
17.6
14.65
11.54
8.45
5.55
2.88
0.3
-2.52
-5.88
-10.03
-14.88
-20.16
-25.46
-30.43
-34.87
-38.74
-42.04
-44.77
-46.92
-48.43
-49.38
-49.85
-49.91
-49.59
-48.8
-47.43
-45.38
-42.61
-38.98
-34.28
-28.2
-20.59
-11.64
-1.99
7.39
15.54
21.86
26.39
29.57
32.02
34.17
36.07
37.49
38.19
38.05
37.19
35.85
34.29
32.72
31.27
30.03
29.01
28.09
27
25.47
23.39
20.92
18.49
16.52
15.2
14.39
13.73
12.93
12.06
11.56
12.06
14.04
17.53
22
26.61
30.45
32.8
33.34
32.12
29.51
26.22
23.16
21.3
21.43
24.02
29.06
36.03
44.01
51.84
58.32
62.43
63.43
60.98
55.09
46.08
34.46
20.85
5.97
-9.29
-23.89
-36.73
-46.87
-53.89
-58.09
-60.29
-61.48
-62.38
-63.13
-63.5
-63.25
-62.53
-61.96
-62.28
-63.85
-66.33
-68.84
-70.34
-70.23
-68.56
-65.87
-62.87
-60.08
-57.66
-55.46
-53.14
-50.24
-46.24
-40.69
-33.37
-24.59
-15.15
-6.17
1.34
6.91
10.73
13.43
15.69
17.91
20.01
21.62
22.37
22.06
20.86
19.1
17.12
15.17
13.29
11.45
9.55
7.57
5.56
3.66
2.01
0.7
-0.34
-1.36
-2.63
-4.36
-6.53
-8.83
-10.92
-12.6
-13.97
-15.44
-17.51
-20.54
-24.59
-29.41
-34.53
-39.35
-43.28
-45.7
-46.08
-44.14
-39.96
-34.11
-27.52
-21.23
-15.99
-12.07
-9.27
-7.16
-5.39
-3.87
-2.72
-2.08
-1.94
-2.08
-2.17
-2
-1.62
-1.29
-1.25
-1.61
-2.16
-2.59
-2.67
-2.48
-2.38
-2.87
-4.28
-6.62
-9.67
-13.08
-16.63
-20.36
-24.47
-29.08
-33.98
-38.54
-41.82
-42.92
-41.24
-36.74
-29.91
-21.55
-12.46
-3.2
5.95
14.86
23.34
31.01
37.33
41.78
44.16
44.65
43.84
42.44
41.11
40.29
40.16
40.67
41.53
42.32
42.51
41.62
39.44
36.12
32.15
28.08
24.25
20.63
16.86
12.51
7.39
1.64
-4.34
-10.02
-14.94
-18.76
-21.22
-22.15
-21.47
-19.26
-15.83
-11.69
-7.36
-3.33
0.23
3.27
5.86
7.98
9.57
10.49
10.63
9.98
8.64
6.89
4.98
3.15
1.47
-0.11
-1.74
-3.52
-5.47
-7.42
-9.14
-10.41
-11.22
-11.78
-12.5
-13.83
-16.08
-19.27
-23.12
-27.17
-30.8
-33.38
-34.4
-33.55
-30.81
-26.51
-21.25
-15.73
-10.52
-5.89
-1.79
2
5.69
9.28
12.55
15.15
16.79
17.37
17.11
16.41
15.78
15.6
16.02
16.89
17.84
18.45
18.41
17.65
16.3
14.63
12.88
11.19
9.61
8.11
6.65
5.17
3.55
1.66
-0.64
-3.36
-6.34
-9.22
-11.5
-12.67
-12.38
-10.57
-7.47
-3.66
0.17
3.39
5.63
6.9
7.51
7.91
8.45
9.21
9.99
10.49
10.56
10.25
9.87
9.77
10.13
10.88
11.8
12.61
13.19
13.6
14.03
14.68
15.61
16.78
18.02
19.18
20.1
20.69
20.93
20.78
20.14
18.81
16.57
13.33
9.43
5.69
3.27
3.3
6.27
11.84
18.9
26.14
32.59
37.99
42.65
46.98
51.07
54.52
56.67
57.01
55.5
52.51
48.61
44.24
39.53
34.44
29.01
23.48
18.25
13.64
9.61
5.74
1.36
-4.14
-11.02
-19.13
-28.06
-37.33
-46.71
-56.19
-65.89
-75.83
-85.73
-95.01
-102.88
-108.64
-111.85
-112.49
-110.92
-107.7
-103.48
-98.82
-94.2
-89.93
-86.19
-82.99
-80.2
-77.54
-74.63
-71.06
-66.51
-60.76
-53.67
-45.21
-35.38
-24.32
-12.3
0.15
12.4
23.79
33.81
42.23
49.08
54.52
58.71
61.72
63.59
64.42
64.53
64.5
65.09
66.96
70.5
75.61
81.72
88.01
93.61
97.89
100.56
101.58
101.06
99.11
95.75
91.01
85.04
78.15
70.75
63.28
56.09
49.38
43.29
37.84
33.02
28.76
24.89
21.23
17.55
13.71
9.62
5.23
0.48
-4.7
-10.33
-16.41
-22.73
-28.91
-34.45
-38.83
-41.61
-42.61
-41.86
-39.59
-36.22
-32.18
-27.84
-23.51
-19.37
-15.52
-11.99
-8.79
-5.87
-3.23
-0.83
1.33
3.22
4.75
5.77
6.23
6.19
5.85
5.56
5.57
5.95
6.55
7.04
7.1
6.57
5.57
4.38
3.3
2.48
1.77
0.76
-1.05
-4
-8.11
-13
-17.94
-22.14
-24.95
-26.05
-25.46
-23.39
-20.14
-15.92
-10.93
-5.36
0.51
6.32
11.73
16.4
20.14
22.85
24.51
25.19
25.1
24.59
24.16
24.29
25.26
27.02
29.1
30.82
31.5
30.84
29
26.56
24.28
22.73
22.07
21.99
21.85
20.95
18.74
15.05
10.05
4.3
-1.46
-6.57
-10.54
-13.34
-15.33
-17.14
-19.39
-22.38
-26.01
-29.76
-32.97
-35.12
-36.01
-35.82
-34.87
-33.58
-32.15
-30.65
-28.96
-26.92
-24.44
-21.51
-18.25
-14.85
-11.59
-8.73
-6.57
-5.31
-5.08
-5.91
-7.59
-9.73
-11.71
-12.92
-12.82
-11.21
-8.22
-4.36
-0.36
3.07
5.38
6.29
5.92
4.72
3.32
2.38
2.31
3.18
4.68
6.27
7.37
7.62
7.01
5.75
4.27
2.88
1.65
0.33
-1.5
-4.21
-7.8
-11.88
-15.66
-18.27
-19.03
-17.79
-14.81
-10.72
-6.21
-1.93
1.61
4.11
5.47
5.91
5.83
5.78
6.13
6.95
8.01
8.87
9.19
8.86
8.04
6.99
5.97
5.07
4.25
3.45
2.64
1.86
1.19
0.72
0.51
0.54
0.71
0.9
1.01
0.98
0.82
0.59
0.3
-0.16
-0.9
-2.01
-3.45
-5.08
-6.72
-8.34
-10
-11.95
-14.41
-17.4
-20.67
-23.72
-25.93
-26.78
-26.06
-23.85
-20.48
-16.43
-12.15
-7.98
-4.2
-0.93
1.76
3.9
5.61
7
8.21
9.31
10.29
11.12
11.78
12.32
12.82
13.38
14
14.68
15.33
15.85
16.17
16.15
15.69
14.65
12.99
10.79
8.28
5.78
3.6
1.9
0.68
-0.21
-0.98
-1.79
-2.73
-3.81
-5.03
-6.41
-7.93
-9.55
-11.22
-12.85
-14.4
-15.85
-17.12
-18.04
-18.32
-17.54
-15.39
-11.8
-7.1
-1.89
3.07
7.21
10.35
12.69
14.64
16.55
18.46
20.08
21.01
20.99
20.14
18.88
17.74
17.11
17.08
17.44
17.88
18.11
17.98
17.45
16.54
15.32
13.86
12.27
10.65
9.04
7.46
5.87
4.31
2.85
1.66
0.89
0.61
0.68
0.83
0.67
-0.16
-1.85
-4.4
-7.55
-10.9
-13.95
-16.24
-17.42
-17.23
-15.57
-12.51
-8.3
-3.5
1.23
5.23
8.05
9.6
10.14
10.08
9.79
9.46
9.13
8.69
8.04
7.12
5.88
4.31
2.4
0.22
-2.07
-4.29
-6.33
-8.17
-9.9
-11.65
-13.44
-15.23
-16.93
-18.51
-20.09
-21.81
-23.79
-26.03
-28.4
-30.74
-32.97
-35.07
-37.01
-38.72
-39.95
-40.43
-39.95
-38.42
-35.95
-32.76
-29.1
-25.19
-21.18
-17.17
-13.19
-9.21
-5.2
-1.14
2.86
6.63
9.96
12.63
14.5
15.53
15.79
15.46
14.83
14.23
13.93
14.03
14.43
14.81
14.79
14.07
12.53
10.3
7.66
4.96
2.35
-0.21
-2.95
-6.08
-9.6
-13.18
-16.14
-17.77
-17.6
-15.69
-12.63
-9.2
-6.04
-3.34
-0.89
1.7
4.64
7.72
10.41
12.12
12.48
11.55
9.79
7.81
6.19
5.27
5.05
5.23
5.35
4.91
3.57
1.26
-1.79
-5.07
-8.09
-10.46
-12.13
-13.37
-14.61
-16.31
-18.77
-22.01
-25.8
-29.7
-33.18
-35.66
-36.6
-35.61
-32.6
-27.81
-21.9
-15.79
-10.31
-6.03
-3.01
-0.98
0.57
1.97
3.33
4.49
5.24
5.52
5.43
5.22
5.08
5.08
5.16
5.17
5.06
4.88
4.73
4.7
4.8
4.99
5.12
5.1
4.82
4.22
3.25
1.93
0.31
-1.48
-3.31
-5.06
-6.64
-8
-9.02
-9.44
-8.97
-7.37
-4.67
-1.24
2.31
5.37
7.59
9.06
10.14
11.34
12.97
15.05
17.3
19.34
20.89
21.88
22.55
23.23
24.29
25.88
27.93
30.17
32.22
33.85
34.91
35.43
35.43
34.89
33.79
32.15
30.04
27.55
24.71
21.36
17.31
12.49
7.22
2.26
-1.44
-3.1
-2.49
-0.04
3.27
6.3
8.2
8.58
7.66
6.03
4.42
3.44
3.42
4.31
5.84
7.61
9.36
10.86
11.95
12.43
12.09
10.77
8.57
5.82
3.06
0.72
-1.05
-2.38
-3.64
-5.31
-7.83
-11.67
-17.23
-24.84
-34.51
-45.78
-57.58
-68.42
-76.78
-81.36
-81.43
-76.86
-68.05
-55.72
-40.81
-24.26
-6.97
10.1
26.02
39.83
50.75
58.34
62.71
64.59
65.07
65.29
65.92
67.08
68.18
68.3
66.45
61.81
54.01
43.27
30.7
18.19
8.04
2.22
1.56
5.28
11.19
16.35
18.08
14.76
6.24
-6.43
-21.52
-37.2
-51.9
-64.49
-74.18
-80.55
-83.44
-83.1
-80.15
-75.48
-70.11
-64.94
-60.46
-56.54
-52.52
-47.33
-40.06
-30.42
-19.01
-7.3
2.78
9.52
12.13
11.01
7.59
3.77
1.13
0.46
1.66
3.95
6.42
8.38
9.39
9.35
8.3
6.34
3.65
0.47
-2.9
-6.2
-9.34
-12.54
-16.07
-20.15
-24.57
-28.62
-31.33
-31.8
-29.68
-25.3
-19.48
-13.23
-7.4
-2.58
0.8
2.41
2.09
0.15
-2.57
-4.86
-5.54
-4.01
-0.46
4.33
9.44
14.17
18.19
21.38
23.6
24.65
24.49
23.46
22.26
21.75
22.44
24.24
26.46
28.12
28.43
27.09
24.37
20.79
16.92
13.12
9.47
5.88
2.26
-1.45
-5.26
-9.22
-13.45
-18.02
-22.77
-27.18
-30.34
-31.32
-29.6
-25.43
-19.84
-14.28
-9.98
-7.37
-5.96
-4.6
-2.1
2.26
8.38
15.42
22.15
27.42
30.51
31.37
30.52
28.81
27.03
25.59
24.37
22.82
20.29
16.33
10.91
4.52
-2.05
-7.96
-12.56
-15.63
-17.34
-18.03
-18.13
-17.96
-17.68
-17.26
-16.63
-15.73
-14.5
-12.89
-10.79
-8.07
-4.76
-1.15
2.18
4.45
4.96
3.28
-0.61
-6.3
-13.01
-19.81
-25.7
-29.73
-31.21
-29.82
-25.76
-19.73
-12.8
-6.07
-0.3
4.28
7.88
10.94
13.76
16.34
18.36
19.46
19.43
18.43
16.93
15.5
14.61
14.43
14.79
15.28
15.45
14.95
13.72
11.99
10.2
8.8
8.1
8.09
8.48
8.79
8.59
7.66
6.07
4.09
2.1
0.39
-0.85
-1.53
-1.61
-1.01
0.27
2.12
4.19
5.93
6.73
6.11
3.89
0.28
-4.26
-9.11
-13.63
-17.28
-19.58
-20.22
-19.1
-16.39
-12.48
-7.93
-3.2
1.35
5.6
9.5
13.06
16.22
18.85
20.84
22.04
22.4
21.96
20.89
19.39
17.66
15.78
13.8
11.75
9.72
8.01
6.96
6.76
7.35
8.37
9.34
9.94
10.1
10.03
10.02
10.18
10.46
10.66
10.55
9.96
8.79
6.91
4.19
0.56
-3.96
-9.16
-14.69
-20.11
-25.01
-29.02
-31.91
-33.67
-34.63
-35.44
-36.74
-38.76
-41
-42.18
-40.74
-35.7
-27.17
-16.48
-5.58
3.76
10.67
15.27
18.38
20.89
23.32
25.77
28.1
30.19
32.12
34.09
36.31
38.81
41.46
43.89
45.62
46.16
45.22
42.8
39.23
35.11
31.06
27.49
24.48
21.89
19.41
16.69
13.51
9.78
5.56
1.06
-3.46
-7.73
-11.51
-14.63
-16.96
-18.38
-18.82
-18.25
-16.76
-14.6
-12.11
-9.62
-7.4
-5.57
-4.14
-3.09
-2.44
-2.24
-2.49
-3.21
-4.38
-6.01
-8.04
-10.35
-12.71
-14.75
-16.09
-16.39
-15.57
-13.8
-11.58
-9.52
-8.22
-8.07
-9.11
-11
-13.13
-14.84
-15.68
-15.64
-15.05
-14.52
-14.58
-15.51
-17.17
-19.08
-20.6
-21.09
-20.11
-17.53
-13.52
-8.52
-3.08
2.26
7
10.83
13.57
15.26
16.1
16.49
16.8
17.3
17.96
18.54
18.71
18.28
17.29
15.97
14.64
13.49
12.57
11.82
11.15
10.51
9.79
8.82
7.33
5.05
1.81
-2.27
-6.86
-11.5
-15.68
-19.08
-21.62
-23.46
-24.93
-26.38
-28
-29.7
-31.09
-31.61
-30.78
-28.34
-24.39
-19.35
-13.81
-8.32
-3.31
1.01
4.61
7.6
10.13
12.32
14.23
15.84
17.1
17.96
18.47
18.76
18.93
18.98
18.74
17.9
16.29
13.94
11.22
8.65
6.64
5.31
4.52
3.97
3.53
3.23
3.24
3.55
3.83
3.41
1.56
-2.1
-7.3
-13.22
-18.75
-23.06
-25.9
-27.64
-29.09
-30.93
-33.41
-36.17
-38.41
-39.32
-38.41
-35.73
-31.76
-27.19
-22.58
-18.26
-14.39
-11.07
-8.45
-6.7
-5.98
-6.32
-7.61
-9.71
-12.38
-15.33
-18.07
-19.97
-20.48
-19.51
-17.73
-16.57
-17.78
-22.67
-31.55
-43.35
-55.86
-66.32
-72.2
-71.84
-65.15
-54.01
-42.26
-34.92
-36.66
-49.99
-73.83
-103.45
-131.75
-151.74
-158.71
-151.54
-132.34
-105
-73.53
-40.95
-8.97
21.51
49.91
75.73
98.53
118.12
134.63
148.43
159.9
169.32
176.69
181.79
184.36
184.27
181.71
177.29
171.88
166.47
161.83
158.39
156.12
154.77
154.01
153.65
153.66
154.05
154.62
154.89
153.98
150.83
144.41
134.21
120.45
104.15
86.71
69.32
52.41
35.63
18.33
0.22
-18.19
-35.67
-50.98
-63.44
-73.35
-81.64
-89.31
-96.87
-104.29
-111.3
-117.76
-123.7
-129.12
-133.68
-136.57
-136.85
-133.86
-127.57
-118.66
-108.2
-97.25
-86.59
-76.59
-67.3
-58.62
-50.47
-42.87
-36.06
-30.35
-26.05
-23.3
-21.89
-21.31
-20.9
-20.09
-18.61
-16.57
-14.36
-12.47
-11.25
-10.81
-10.92
-11.19
-11.25
-10.83
-9.94
-8.71
-7.31
-5.76
-3.79
-0.99
3.03
8.42
14.96
22.05
28.78
33.9
36.02
33.95
27.23
16.73
4.76
-5.46
-10.8
-9.43
-1.4
11.55
26.82
42.04
55.6
66.63
74.43
78.09
76.49
68.8
55.04
36.45
15.08
-6.77
-27.23
-45.35
-61.08
-75.1
-88.42
-102.1
-116.98
-133.51
-151.6
-170.55
-189.07
-205.46
-217.93
-225.01
-225.86
-220.37
-208.92
-192.09
-170.44
-144.44
-114.59
-81.57
-46.41
-10.5
24.59
57.34
86.46
110.97
129.9
142.34
147.28
143.89
132.06
113.06
89.81
66.64
48.18
37.95
37.28
44.85
57.41
71.04
82.45
89.79
92.55
91.1
86.01
77.86
67.27
55.2
43.14
32.78
25.48
21.72
20.86
21.47
21.95
21.31
19.45
17.09
15.09
13.92
13.44
13.04
12.02
9.83
6.2
1.1
-5.4
-13.02
-21.32
-29.66
-37.33
-43.86
-49.21
-53.83
-58.4
-63.36
-68.54
-73.01
-75.34
-74.21
-69.05
-60.36
-49.58
-38.51
-28.53
-20.23
-13.49
-7.83
-2.93
1.19
4.47
6.99
9.21
11.66
14.7
18.25
21.94
25.26
27.88
29.67
30.65
30.88
30.38
29.21
27.52
25.58
23.73
22.22
21.23
20.72
20.53
20.4
20.03
19.14
17.51
14.87
10.97
5.51
-1.67
-10.45
-20.13
-29.51
-37.01
-41.18
-41.16
-37
-29.53
-20.2
-10.49
-1.66
5.52
10.81
14.46
17.04
19.32
21.96
25.42
29.79
34.86
40.17
45.29
49.92
54.04
57.84
61.75
66.22
71.67
78.21
85.63
93.28
100.16
104.97
106.34
103.1
94.84
82.27
67.21
52.04
38.59
27.22
16.48
3.83
-12.87
-33.84
-56.8
-77.47
-91.27
-95.07
-88.38
-73.41
-54.16
-35.07
-19.86
-10.83
-8.72
-12.88
-21.55
-32.32
-42.57
-50.06
-53.45
-52.57
-48.34
-42.31
-36.14
-31.19
-28.33
-28.11
-30.71
-35.98
-43.16
-50.85
-57.25
-60.7
-60.3
-56.35
-50.22
-43.89
-39.22
-37.45
-38.95
-43.2
-49.02
-54.83
-59.07
-60.5
-58.51
-53.14
-44.95
-34.82
-23.77
-12.81
-2.82
5.54
12.1
17.24
21.85
26.98
33.38
41.11
49.43
57.13
62.97
66.19
66.65
64.72
60.93
55.76
49.45
42.11
33.74
24.43
14.29
3.51
-7.72
-19.31
-31.27
-43.73
-56.98
-71.42
-87.49
-105.57
-125.74
-147.7
-170.46
-192.33
-210.91
-223.51
-227.8
-222.62
-208.49
-187.61
-163.33
-139.34
-118.8
-103.7
-94.58
-90.51
-89.42
-88.48
-84.54
-74.54
-56.02
-27.53
10.73
56.67
106.46
155.13
197.76
230.65
252.27
263.37
266.31
263.92
258.4
250.82
241.41
230.14
217.27
203.61
190.23
178.15
168.1
160.63
156.26
155.6
159.23
167.43
179.81
195.21
211.84
227.84
241.85
253.52
263.48
272.86
282.45
291.91
299.52
302.54
298.23
284.96
262.98
234.28
201.94
169.08
138.02
110.03
85.42
63.74
43.94
24.58
4.13
-18.4
-42.92
-68.06
-91.64
-111.66
-127.14
-138.61
-147.8
-156.68
-166.53
-177.27
-187.69
-196
-200.59
-200.67
-196.32
-188.28
-177.62
-165.42
-152.65
-140.18
-128.78
-119.03
-111.16
-104.99
-100.01
-95.6
-91.26
-86.85
-82.5
-78.52
-75.15
-72.48
-70.43
-68.76
-67.14
-65.25
-62.84
-59.85
-56.51
-53.22
-50.5
-48.68
-47.89
-47.97
-48.64
-49.61
-50.74
-52.06
-53.73
-55.99
-59.03
-62.88
-67.27
-71.59
-74.98
-76.49
-75.47
-71.78
-65.96
-59.13
-52.71
-48.03
-45.9
-46.31
-48.43
-50.71
-51.46
-49.37
-44.12
-36.54
-28.5
-22.41
-20.44
-23.88
-32.62
-44.96
-57.8
-67.09
-68.68
-59.43
-38.25
-6.7
31.17
69.96
104.46
131.13
148.85
158.7
162.86
163.5
161.96
158.6
153.25
145.78
136.36
125.36
113.02
99.2
83.58
66.07
47.31
28.8
12.61
0.66
-6.04
-7.86
-6.36
-3.7
-1.83
-1.88
-3.91
-7.24
-10.89
-14.18
-16.88
-19.27
-21.79
-24.76
-28.21
-31.87
-35.39
-38.6
-41.57
-44.58
-47.97
-51.94
-56.54
-61.68
-67.25
-73.28
-79.74
-86.61
-93.68
-100.63
-107.08
-112.74
-117.4
-120.91
-123.13
-123.84
-122.8
-119.74
-114.46
-106.83
-96.77
-84.29
-69.39
-52.24
-33.1
-12.42
9.15
30.81
51.73
71.07
88.22
102.96
115.49
126.33
136.12
145.34
154.17
162.52
170.24
177.24
183.56
189.24
194.18
198.07
200.61
201.58
201.22
199.97
198.39
196.76
195.01
192.83
189.93
186.25
181.93
176.98
170.99
162.99
151.82
136.67
117.64
96.03
74.09
54.44
39.17
29.27
24.27
22.45
21.36
18.51
11.96
0.73
-15.03
-34.23
-55.1
-75.65
-94
-108.78
-119.18
-125.02
-126.69
-124.89
-120.57
-114.7
-108.16
-101.76
-96.14
-91.77
-88.89
-87.52
-87.42
-88.35
-90
-92.18
-94.69
-97.34
-99.79
-101.68
-102.71
-102.73
-101.88
-100.52
-99.15
-98.28
-98.21
-98.98
-100.31
-101.59
-102.12
-101.25
-98.61
-94.28
-88.72
-82.7
-77
-72.28
-68.89
-66.88
-66.06
-66.08
-66.48
-66.82
-66.7
-65.86
-64.21
-62
-59.8
-58.36
-58.26
-59.59
-61.7
-63.13
-61.85
-55.63
-42.48
-21.11
8.68
45.71
87.33
129.8
168.9
200.85
223.05
234.49
235.66
228.11
213.87
195.04
173.45
150.42
126.74
102.64
78.02
52.71
26.83
0.9
-23.94
-46.03
-63.55
-75.02
-79.85
-78.74
-73.48
-66.44
-59.7
-54.42
-50.74
-48.07
-45.82
-43.68
-41.74
-40.2
-39.06
-38.13
-37.14
-36.04
-35.02
-34.44
-34.46
-35.09
-36.05
-37.02
-37.69
-37.88
-37.58
-36.83
-35.77
-34.46
-32.89
-30.94
-28.53
-25.66
-22.5
-19.29
-16.22
-13.33
-10.51
-7.67
-4.86
-2.37
-0.75
-0.56
-2.23
-5.75
-10.64
-15.87
-20.16
-22.22
-21.19
-16.88
-9.8
-1.03
8.17
16.79
24.23
30.47
35.71
40.26
44.19
47.39
49.65
50.79
50.95
50.47
49.84
49.42
49.29
49.25
48.99
48.18
46.73
44.69
42.21
39.44
36.54
33.61
30.71
27.87
25.09
22.28
19.44
16.55
13.7
10.93
8.28
5.69
3.07
0.36
-2.42
-5.2
-8.01
-10.94
-14.13
-17.51
-20.71
-23.01
-23.58
-21.87
-17.9
-12.35
-6.32
-0.94
3.11
5.65
7.04
7.84
8.56
9.5
10.73
12.19
13.76
15.35
16.85
18.11
18.95
19.17
18.62
17.27
15.19
12.55
9.52
6.29
2.97
-0.38
-3.78
-7.38
-11.34
-15.88
-21.06
-26.74
-32.55
-37.94
-42.46
-45.85
-48.22
-49.92
-51.37
-52.98
-54.92
-57.17
-59.51
-61.56
-62.74
-62.42
-60.02
-55.35
-48.8
-41.37
-34.44
-29.23
-26.43
-25.89
-26.95
-28.75
-30.6
-32.25
-33.67
-34.89
-35.92
-36.69
-37.23
-37.73
-38.39
-39.16
-39.58
-38.67
-35.3
-28.62
-18.56
-6.05
7.11
18.85
27.5
32.36
33.76
32.69
30.26
27.13
23.45
19.11
14.04
8.49
2.86
-2.5
-7.52
-12.38
-17.16
-21.66
-25.29
-27.37
-27.46
-25.6
-22.34
-18.5
-14.9
-12.1
-10.31
-9.42
-9.13
-9.16
-9.23
-9.25
-9.21
-9.19
-9.22
-9.26
-9.18
-8.82
-8.11
-7.11
-5.97
-4.91
-4.08
-3.54
-3.23
-3.06
-2.96
-2.95
-3.17
-3.86
-5.24
-7.39
-10.24
-13.5
-16.86
-20.12
-23.26
-26.45
-29.94
-33.8
-37.85
-41.6
-44.4
-45.59
-44.64
-41.35
-35.75
-28.14
-19.04
-9.17
0.68
9.77
17.54
23.77
28.5
32.01
34.59
36.42
37.56
38.06
38.04
37.86
38.04
39.04
41.03
43.83
46.98
49.96
52.42
54.22
55.34
55.72
55.04
52.87
48.78
42.62
34.61
25.35
15.68
6.49
-1.38
-7.19
-10.36
-10.57
-7.91
-2.95
3.36
9.92
15.79
20.39
23.6
25.59
26.62
26.88
26.42
25.21
23.25
20.5
17.08
13.11
8.74
4.11
-0.75
-5.89
-11.33
-16.89
-22.16
-26.49
-29.27
-30.22
-29.53
-27.81
-25.79
-24.05
-22.82
-22.14
-22.05
-22.78
-24.71
-28.08
-32.79
-38.29
-43.69
-48.08
-50.64
-50.94
-48.85
-44.63
-38.78
-31.98
-24.85
-17.87
-11.27
-5.05
0.82
6.33
11.27
15.33
18.31
20.18
21.15
21.55
21.6
21.34
20.67
19.46
17.81
15.99
14.3
12.91
11.68
10.15
7.73
3.94
-1.41
-8.14
-15.75
-23.64
-31.24
-38.09
-43.87
-48.46
-51.94
-54.59
-56.87
-59.2
-61.88
-64.81
-67.63
-69.76
-70.71
-70.15
-67.95
-63.93
-57.69
-48.48
-35.25
-16.88
7.54
38.38
75.06
115.81
157.82
197.71
232.28
259.31
277.77
287.69
289.63
284.28
272.44
255.12
233.64
209.37
183.25
155.6
126.35
95.67
64.54
34.84
8.8
-11.82
-26.36
-35.31
-39.97
-41.84
-42.2
-41.94
-41.64
-41.55
-41.61
-41.5
-40.68
-38.67
-35.19
-30.34
-24.64
-18.86
-13.85
-10.21
-8.05
-6.91
-5.94
-4.27
-1.42
2.5
6.92
11.1
14.45
16.69
17.82
18
17.41
16.15
14.25
11.71
8.52
4.71
0.42
-4.11
-8.48
-12.13
-14.5
-15.12
-13.82
-10.82
-6.83
-2.79
0.38
2.07
2.24
1.29
-0.1
-1.34
-2.12
-2.45
-2.54
-2.56
-2.58
-2.48
-2.11
-1.35
-0.15
1.46
3.44
5.72
8.19
10.65
12.82
14.4
15.31
15.78
16.39
17.9
20.99
25.91
32.36
39.57
46.54
52.38
56.49
58.66
58.98
57.62
54.84
50.87
45.89
40.08
33.64
26.83
19.94
13.28
7.13
1.66
-3.1
-7.19
-10.68
-13.54
-15.69
-17.01
-17.49
-17.32
-16.85
-16.51
-16.63
-17.37
-18.73
-20.57
-22.73
-25.02
-27.3
-29.48
-31.51
-33.44
-35.35
-37.33
-39.47
-41.91
-44.85
-48.52
-53.02
-58.16
-63.27
-67.4
-69.55
-69.12
-66.23
-61.68
-56.73
-52.62
-50.16
-49.6
-50.67
-52.75
-55.17
-57.38
-59.12
-60.43
-61.58
-62.95
-64.76
-66.99
-69.32
-71.22
-72.11
-71.53
-69.33
-65.7
-61.2
-56.63
-52.77
-50.08
-48.44
-47.17
-45.23
-41.79
-36.62
-30.25
-23.71
-17.94
-13.3
-9.41
-5.43
-0.58
5.42
12.25
19.26
25.81
31.55
36.36
40.24
43.13
45
45.92
46.26
46.61
47.5
49.06
50.86
52.02
51.68
49.46
45.67
41.24
37.24
34.4
32.83
32.07
31.4
30.24
28.4
26.07
23.63
21.35
19.29
17.22
14.93
12.28
9.44
6.77
4.64
3.21
2.37
1.75
0.94
-0.31
-2
-3.86
-5.47
-6.48
-6.7
-6.33
-5.86
-5.97
-7.32
-10.29
-14.82
-20.33
-25.94
-30.61
-33.51
-34.21
-32.73
-29.59
-25.6
-21.7
-18.67
-17.09
-17.15
-18.82
-21.96
-26.43
-32.09
-38.64
-45.54
-52.06
-57.43
-61.1
-62.91
-63.11
-62.17
-60.62
-58.93
-57.6
-57.09
-57.81
-59.9
-63.07
-66.62
-69.61
-71.27
-71.08
-68.83
-64.37
-57.54
-48.25
-36.8
-24.09
-11.54
-0.62
7.77
13.76
18.41
23.19
29.33
37.35
47.03
57.64
68.33
78.27
86.66
92.69
95.63
95.11
91.22
84.57
75.96
66.15
55.6
44.57
33.27
22.05
11.3
1.36
-7.71
-16.15
-24.38
-32.8
-41.66
-51.04
-60.76
-70.35
-78.78
-84.56
-85.92
-81.48
-70.83
-54.83
-35.41
-14.84
4.94
22.72
38.03
50.83
61.2
69.22
75.2
79.78
83.92
88.47
93.75
99.25
103.82
106.21
105.59
101.96
96.06
88.98
81.71
74.89
68.74
63.2
58.08
53.15
48.13
42.75
36.84
30.46
23.95
17.84
12.54
8.15
4.35
0.57
-3.66
-8.44
-13.4
-18.01
-21.86
-25.08
-28.31
-32.55
-38.63
-46.85
-56.82
-67.53
-77.8
-86.64
-93.66
-99.1
-103.79
-108.7
-114.5
-121.23
-128.12
-133.77
-136.58
-135.08
-128.38
-116.5
-100.52
-82.66
-65.78
-52.57
-44.41
-40.62
-38.78
-35.82
-29.76
-20.86
-11.6
-5.34
-4.52
-9.17
-16.89
-24.07
-27.58
-26.14
-20.55
-12.88
-5.38
0.48
4.37
6.79
8.51
10.06
11.48
12.44
12.5
11.51
9.6
6.97
3.54
-1.38
-8.95
-20.37
-36.23
-55.98
-77.98
-99.82
-119.02
-133.6
-142.37
-144.83
-140.93
-130.88
-115.04
-93.96
-68.5
-40.07
-10.68
17.09
40.48
57.12
65.6
65.9
59.41
48.63
36.68
26.77
21.74
23.66
33.29
49.9
71.26
94.16
115.12
131.01
139.46
139.06
129.36
111.12
86.45
58.66
31.6
8.62
-8.31
-18.99
-24.65
-27.05
-27.72
-27.54
-26.86
-25.94
-25.11
-24.92
-25.88
-28.35
-32.41
-37.89
-44.34
-51.05
-57.04
-61.23
-62.66
-60.78
-55.65
-47.96
-38.75
-29.12
-19.96
-11.67
-4.24
2.53
8.91
15.04
21.02
26.88
32.66
38.4
44.09
49.68
55.08
60.18
64.76
68.57
71.34
72.9
73.27
72.72
71.66
70.45
69.25
67.9
66.1
63.49
59.87
55.26
49.82
43.73
37.17
30.29
23.25
16.26
9.47
2.9
-3.47
-9.78
-16.19
-22.78
-29.47
-35.98
-41.83
-46.44
-49.35
-50.28
-49.31
-46.81
-43.37
-39.5
-35.48
-31.28
-26.62
-21.23
-14.97
-7.96
-0.45
7.32
15.24
23.29
31.4
39.32
46.58
52.72
57.52
61.15
64.17
67.19
70.6
74.31
77.9
80.85
82.81
83.7
83.72
83.09
81.87
79.96
77.18
73.48
69.08
64.49
60.31
56.95
54.44
52.41
50.28
47.57
44.18
40.42
36.83
33.91
31.83
30.44
29.28
27.91
26.05
23.66
20.9
17.97
15.1
12.45
10.16
8.25
6.62
5.05
3.2
0.86
-2.07
-5.42
-8.87
-12.11
-14.98
-17.53
-19.94
-22.36
-24.8
-27.14
-29.22
-31.04
-32.76
-34.81
-37.7
-41.85
-47.35
-53.9
-60.79
-67.02
-71.55
-73.5
-72.41
-68.32
-61.76
-53.58
-44.8
-36.29
-28.69
-22.28
-17.08
-12.83
-9.14
-5.57
-1.78
2.41
6.91
11.41
15.43
18.53
20.48
21.29
21.2
20.56
19.7
18.9
18.39
18.33
18.79
19.65
20.6
21.18
21.03
19.93
17.97
15.35
12.26
8.69
4.54
-0.26
-5.42
-10.3
-14
-15.67
-14.98
-12.22
-8.16
-3.75
0.34
3.85
6.99
10.05
13.23
16.42
19.33
21.65
23.24
24.12
24.49
24.54
24.34
23.93
23.26
22.31
21.14
19.89
18.72
17.67
16.72
15.63
14.22
12.37
10.26
8.28
6.81
6.11
6.01
6.07
5.74
4.65
2.77
0.31
-2.43
-5.25
-8.06
-10.81
-13.39
-15.51
-16.82
-17.04
-16.08
-14.1
-11.46
-8.54
-5.7
-3.1
-0.79
1.23
3.02
4.51
5.59
6.17
6.23
5.89
5.39
5
4.91
5.15
5.56
5.9
5.96
5.65
5.07
4.41
3.9
3.65
3.65
3.73
3.71
3.49
3.1
2.73
2.61
2.92
3.64
4.63
5.62
6.35
6.7
6.71
6.55
6.42
6.41
6.51
6.59
6.56
6.37
6.15
5.94
5.7
5.18
4.11
2.35
0.05
-2.32
-4.17
-5.06
-4.91
-4.08
-3.2
-2.91
-3.67
-5.55
-8.25
-11.3
-14.13
-16.28
-17.49
-17.73
-17.13
-15.89
-14.21
-12.19
-9.94
-7.57
-5.3
-3.31
-1.72
-0.49
0.52
1.49
2.47
3.41
4.12
4.49
4.49
4.21
3.79
3.3
2.7
1.91
0.87
-0.3
-1.42
-2.25
-2.65
-2.65
-2.4
-2.06
-1.71
-1.35
-0.87
-0.24
0.47
1.1
1.45
1.39
0.95
0.3
-0.31
-0.7
-0.79
-0.62
-0.33
-0.09
-0.13
-0.63
-1.8
-3.63
-5.94
-8.29
-10.17
-11.17
-11.1
-10.16
-8.71
-7.24
-6.06
-5.31
-4.95
-4.81
-4.78
-4.84
-5.07
-5.55
-6.31
-7.22
-8.01
-8.33
-7.99
-7.02
-5.71
-4.47
-3.63
-3.28
-3.28
-3.34
-3.19
-2.66
-1.75
-0.55
0.8
2.17
3.46
4.55
5.37
5.83
5.89
5.51
4.74
3.64
2.3
0.86
-0.56
-1.88
-3.08
-4.2
-5.26
-6.22
-7
-7.48
-7.66
-7.64
-7.65
-7.95
-8.72
-9.97
-11.43
-12.69
-13.27
-12.91
-11.62
-9.72
-7.74
-6.1
-5.02
-4.43
-4.04
-3.55
-2.71
-1.49
-0.02
1.51
2.95
4.22
5.27
6.02
6.4
6.3
5.79
5.07
4.49
4.37
4.89
5.9
7.02
7.8
7.9
7.29
6.18
4.95
3.92
3.3
3.1
3.21
3.45
3.63
3.6
3.28
2.68
1.9
1.07
0.31
-0.34
-0.84
-1.22
-1.5
-1.69
-1.8
-1.81
-1.75
-1.68
-1.74
-2.11
-2.96
-4.39
-6.35
-8.55
-10.59
-11.97
-12.33
-11.55
-9.83
-7.6
-5.33
-3.45
-2.14
-1.37
-1
-0.86
-0.82
-0.87
-1.02
-1.26
-1.54
-1.71
-1.66
-1.32
-0.8
-0.29
0
-0.05
-0.4
-0.82
-1.06
-0.99
-0.66
-0.2
0.21
0.55
0.85
1.19
1.59
2.02
2.39
2.65
2.8
2.8
2.56
1.95
0.89
-0.62
-2.47
-4.43
-6.3
-7.94
-9.25
-10.13
-10.5
-10.29
-9.58
-8.59
-7.62
-6.98
-6.88
-7.4
-8.55
-10.27
-12.42
-14.78
-17.09
-19.03
-20.38
-21.12
-21.37
-21.41
-21.49
-21.8
-22.38
-23.23
-24.28
-25.46
-26.76
-28.22
-29.9
-31.85
-34.07
-36.44
-38.75
-40.75
-42.2
-42.88
-42.61
-41.34
-39.19
-36.57
-34.1
-32.46
-32.08
-32.86
-34.16
-34.85
-33.73
-29.95
-23.15
-13.56
-1.77
11.52
25.55
39.5
52.45
63.44
71.73
77.12
80.06
81.34
81.68
81.36
80.21
77.95
74.82
71.77
70.19
71.17
74.69
79.34
82.63
81.87
75.15
62.05
43.53
21.54
-1.74
-24.62
-46.25
-66.59
-85.86
-103.91
-119.88
-132.37
-140
-142.11
-139.1
-132.1
-122.41
-110.77
-97.36
-82.12
-65.37
-48.03
-31.48
-16.9
-4.7
5.53
14.74
23.75
32.9
41.96
50.49
58.09
64.56
69.86
73.98
76.94
78.76
79.48
79.08
77.4
73.96
68.22
59.87
49.15
36.95
24.62
13.46
4.24
-3
-8.88
-14.22
-19.66
-25.5
-31.64
-37.75
-43.44
-48.31
-52.04
-54.41
-55.39
-55.19
-54.26
-53.14
-52.12
-51
-48.89
-44.52
-36.51
-24.09
-7.48
11.87
31.52
48.66
60.81
66.55
65.73
59.44
49.3
37.07
24.11
11.31
-0.88
-12.41
-23.46
-34.45
-45.77
-57.49
-68.97
-78.88
-85.56
-87.48
-83.96
-75.29
-62.69
-47.94
-32.93
-19.35
-8.47
-1.11
2.61
3.26
2.08
0.6
0.19
1.63
4.98
9.76
15.2
20.68
25.75
30.2
33.96
37.01
39.41
41.2
42.46
43.26
43.64
43.63
43.3
42.77
42.19
41.77
41.63
41.79
42.1
42.28
41.95
40.71
38.33
34.83
30.54
26.06
22.02
18.83
16.54
14.89
13.49
12.08
10.65
9.38
8.38
7.53
6.48
4.84
2.42
-0.63
-3.93
-7.05
-9.72
-11.94
-13.84
-15.58
-17.3
-19.06
-20.94
-23.11
-25.77
-29.01
-32.56
-35.82
-37.87
-37.85
-35.27
-30.27
-23.62
-16.45
-9.89
-4.8
-1.48
0.25
0.83
0.84
0.72
0.78
1.23
2.22
3.87
6.22
9.13
12.25
15.08
17.1
18.02
17.93
17.3
16.81
17.07
18.36
20.45
22.66
24.03
23.75
21.38
17.18
11.98
6.94
3.05
0.77
-0.16
-0.51
-1.22
-3.02
-6.25
-10.94
-16.89
-23.71
-30.78
-37.16
-41.67
-43.15
-40.9
-34.99
-26.27
-16.11
-5.98
2.97
10.12
15.34
18.85
21.08
22.44
23.37
24.21
25.21
26.5
28.05
29.79
31.54
33.12
34.3
34.86
34.75
34.05
33.01
31.92
30.99
30.2
29.29
27.92
25.81
22.89
19.35
15.49
11.61
7.89
4.32
0.71
-3.24
-7.81
-13.19
-19.34
-25.84
-32.02
-36.97
-39.95
-40.58
-38.95
-35.56
-31.09
-26.23
-21.49
-17.25
-13.71
-10.95
-8.92
-7.42
-6.18
-4.92
-3.53
-2.11
-0.92
-0.24
-0.22
-0.76
-1.65
-2.65
-3.59
-4.42
-5.19
-6.02
-7
-8.21
-9.73
-11.58
-13.75
-16.2
-18.75
-21.27
-23.69
-26.19
-29.21
-33.43
-39.53
-47.83
-58.1
-69.43
-80.49
-89.97
-96.94
-101.15
-102.88
-102.68
-100.94
-97.79
-93.17
-87.08
-79.99
-72.79
-66.53
-61.88
-58.71
-56.01
-52.13
-45.27
-33.72
-16.11
8.53
40.3
77.95
118.4
156.89
188.05
207.33
212.51
204.35
186.12
162.26
136.92
113
91.96
74.16
59.36
47.1
36.68
27.38
18.53
9.7
0.96
-7.1
-13.51
-17.23
-17.59
-14.65
-9.46
-3.78
0.31
1.2
-1.65
-7.5
-14.61
-20.97
-25.05
-26.33
-25.28
-22.95
-20.39
-18.24
-16.61
-15.19
-13.69
-11.99
-10.25
-8.76
-7.79
-7.39
-7.46
-7.78
-8.19
-8.63
-9.23
-10.19
-11.69
-13.82
-16.53
-19.64
-22.82
-25.61
-27.47
-27.9
-26.6
-23.61
-19.33
-14.43
-9.55
-5.2
-1.6
1.29
3.62
5.56
7.17
8.47
9.48
10.25
10.87
11.44
11.92
12.26
12.35
12.07
11.39
10.4
9.25
8.19
7.35
6.67
5.88
4.55
2.24
-1.24
-5.75
-10.92
-16.31
-21.62
-26.76
-31.72
-36.29
-39.97
-42.02
-41.8
-39.12
-34.35
-28.31
-22.01
-16.32
-11.78
-8.63
-6.76
-5.85
-5.29
-4.29
-1.9
2.81
10.59
21.78
36.23
53.26
71.8
90.59
108.46
124.44
137.96
148.7
156.51
161.22
162.67
160.79
155.7
147.7
137.21
124.64
110.29
94.41
77.28
59.39
41.46
24.44
9.25
-3.45
-13.48
-21.2
-27.39
-32.94
-38.61
-44.76
-51.34
-57.96
-64.13
-69.51
-73.99
-77.68
-80.77
-83.41
-85.59
-87.18
-88.06
-88.22
-87.72
-86.66
-85.06
-82.87
-80.07
-76.83
-73.59
-70.83
-68.92
-67.82
-67.21
-66.56
-65.55
-64.14
-62.55
-60.99
-59.41
-57.61
-55.19
-51.87
-47.38
-41.09
-31.68
-17.19
4.35
33.82
70.21
110.45
150.3
185.64
213.66
233.22
244.54
248.56
246.47
239.56
229.31
217.27
204.75
192.41
180.14
167.4
153.76
139.33
124.64
110.35
96.75
83.81
71.32
59.14
47.32
35.95
24.93
13.99
2.92
-8.25
-19.34
-30.3
-41.6
-54.34
-69.82
-88.8
-110.81
-133.9
-155.32
-172.51
-183.95
-189.69
-190.83
-188.71
-184.25
-177.55
-168.33
-156.43
-142.34
-127.14
-112.1
-98.09
-85.27
-73.24
-61.38
-49.46
-37.85
-27.42
-19.08
-13.34
-10
-8.25
-7.06
-5.6
-3.58
-1.31
0.56
1.49
1.23
-0.03
-1.73
-3.3
-4.2
-4.05
-2.56
0.6
5.71
12.82
21.54
30.92
39.61
46.19
49.66
49.63
46.41
40.83
34.02
27.29
21.95
19.1
19.32
22.51
27.93
34.52
41.4
48.13
54.75
61.4
67.98
74
78.69
81.4
81.81
80.07
76.59
71.77
65.92
59.19
51.65
43.37
34.42
24.87
14.82
4.47
-5.88
-15.87
-25.14
-33.4
-40.51
-46.5
-51.47
-55.59
-58.99
-61.7
-63.61
-64.57
-64.43
-63.34
-61.69
-60.05
-58.93
-58.47
-58.39
-58.09
-57.07
-55.09
-52.4
-49.56
-47.15
-45.53
-44.7
-44.37
-44.08
-43.37
-41.87
-39.29
-35.44
-30.29
-23.99
-16.88
-9.49
-2.36
4.07
9.54
14.05
17.8
21.04
24.02
26.9
29.71
32.43
34.92
36.95
38.25
38.6
37.88
36.2
33.86
31.25
28.63
26.13
23.65
21.08
18.42
15.88
13.77
12.37
11.66
11.38
11.1
10.47
9.39
8.08
6.96
6.38
6.46
6.96
7.39
7.14
5.72
2.9
-1.19
-6.08
-10.99
-14.97
-17.11
-16.71
-13.52
-7.85
-0.63
6.86
13.29
17.74
19.9
20.22
19.58
18.86
18.68
19.07
19.75
20.27
20.41
20.17
19.74
19.3
18.83
18.18
17.22
15.96
14.57
13.27
12.13
11.03
9.63
7.65
5.05
2.1
-0.77
-3.2
-5.1
-6.74
-8.52
-10.78
-13.66
-17.02
-20.6
-24.09
-27.23
-29.86
-31.94
-33.6
-35.14
-36.98
-39.37
-42.27
-45.17
-47.21
-47.49
-45.48
-41.28
-35.61
-29.47
-23.75
-18.93
-14.95
-11.43
-7.92
-4.12
0
4.21
8.13
11.41
13.86
15.56
16.82
18.15
19.97
22.52
25.74
29.38
33.01
36.27
38.84
40.51
41.15
40.72
39.31
37.13
34.5
31.72
28.99
26.35
23.74
21.06
18.24
15.24
12.01
8.46
4.53
0.09
-4.88
-10.25
-15.66
-20.51
-24.09
-25.72
-25.08
-22.29
-17.87
-12.59
-7.2
-2.22
2.04
5.47
8.03
9.64
10.21
9.76
8.44
6.57
4.51
2.52
0.65
-1.29
-3.63
-6.68
-10.51
-14.92
-19.36
-23.22
-25.87
-27.03
-26.78
-25.6
-24.16
-23.13
-22.93
-23.66
-25.12
-26.99
-29.04
-31.2
-33.62
-36.48
-39.87
-43.66
-47.39
-50.42
-52.05
-51.73
-49.23
-44.66
-38.46
-31.29
-23.86
-16.8
-10.55
-5.33
-1.18
2.08
4.73
7.06
9.29
11.46
13.4
14.85
15.61
15.68
15.3
14.82
14.58
14.73
15.2
15.83
16.41
16.84
17.14
17.38
17.6
17.82
18.01
18.19
18.37
18.67
19.18
20.08
21.66
24.37
28.8
35.45
44.51
55.63
67.95
80.13
90.66
98.1
101.27
99.44
92.53
81.2
66.83
51.38
36.81
24.6
15.31
8.52
3.15
-1.98
-7.6
-13.82
-20.25
-26.3
-31.57
-35.94
-39.57
-42.71
-45.55
-48.11
-50.4
-52.4
-54.23
-56.1
-58.24
-60.79
-63.69
-66.67
-69.21
-70.56
-69.96
-66.8
-60.85
-52.4
-42.26
-31.52
-21.28
-12.35
-5.11
0.49
4.9
8.7
12.47
16.63
21.32
26.37
31.37
35.74
38.99
40.85
41.28
40.42
38.48
35.65
32.08
27.98
23.62
19.34
15.42
11.95
8.8
5.68
2.28
-1.61
-6.11
-11.25
-17.05
-23.37
-29.84
-35.74
-40.14
-42.2
-41.49
-38.27
-33.4
-28.02
-23.18
-19.49
-17.03
-15.45
-14.28
-13.1
-11.71
-10.15
-8.59
-7.24
-6.23
-5.57
-5.15
-4.82
-4.42
-3.86
-3.12
-2.27
-1.47
-0.87
-0.67
-0.96
-1.79
-3.1
-4.78
-6.68
-8.73
-10.89
-13.19
-15.74
-18.67
-21.98
-25.51
-28.85
-31.34
-32.28
-31.22
-28.18
-23.69
-18.62
-13.85
-9.99
-7.14
-5.08
-3.42
-1.88
-0.41
0.78
1.37
1.04
-0.33
-2.66
-5.67
-9.01
-12.48
-16.12
-20.18
-24.99
-30.73
-37.35
-44.48
-51.69
-58.64
-65.27
-71.79
-78.61
-86.2
-94.95
-105.01
-116.26
-128.33
-140.66
-152.71
-164.13
-174.86
-185.11
-195.22
-205.49
-215.89
-225.84
-234.06
-238.53
-236.92
-227.24
-208.68
-182.03
-149.65
-114.72
-80.21
-48.08
-18.99
7.24
30.96
52.18
70.6
86.06
99.01
110.75
123.24
138.67
159.01
185.58
218.6
256.64
296.35
332.68
359.95
373.43
370.97
353.64
325.23
290.61
253.93
217.5
181.78
146.49
111.66
78.3
48.04
22.39
1.89
-14.13
-27.13
-38.73
-49.99
-61.25
-72.22
-82.4
-91.47
-99.32
-105.91
-111.09
-114.5
-115.63
-114.06
-109.59
-102.32
-92.43
-80.15
-65.69
-49.36
-31.76
-13.75
3.6
19.16
32.09
41.85
48.34
51.77
52.75
52.11
50.82
49.77
49.47
50.03
51.04
51.82
51.58
49.61
45.37
38.67
29.85
19.86
10.21
2.49
-2.18
-3.56
-2.45
-0.19
2
3.55
4.66
5.95
7.9
10.63
13.86
17.23
20.46
23.46
26.12
28.28
29.8
30.85
31.99
33.95
37.07
40.84
43.84
44.15
40.26
31.68
19.3
5.03
-8.87
-20.39
-28.27
-32.1
-32.2
-29.4
-24.78
-19.42
-14.16
-9.53
-5.68
-2.54
0.05
2.29
4.39
6.57
9.02
11.8
14.8
17.78
20.49
22.75
24.52
25.94
27.22
28.56
30.08
31.76
33.38
34.64
35.24
35.02
34.06
32.57
30.79
28.83
26.65
24.19
21.4
18.37
15.24
12.14
9.15
6.32
3.75
1.59
-0.04
-1.19
-2.09
-3.01
-4.18
-5.55
-6.88
-7.94
-8.64
-9.18
-9.82
-10.63
-11.25
-10.89
-8.56
-3.52
4.39
14.57
25.89
37.08
47.03
54.97
60.45
63.21
63.12
60.26
55.02
48.16
40.63
33.39
27.17
22.54
20.03
20.37
24.38
32.73
45.42
61.38
78.54
94.23
106.04
112.44
113.22
109.39
102.7
95.05
87.88
81.8
76.49
70.88
63.57
53.44
40.08
24.03
6.65
-10.36
-25.42
-37.62
-46.79
-53.39
-58.24
-62.19
-65.93
-69.91
-74.42
-79.51
-84.99
-90.42
-95.08
-98.14
-98.86
-96.99
-92.82
-87.25
-81.46
-76.52
-73.02
-70.93
-69.74
-68.64
-66.87
-63.95
-59.81
-54.85
-49.76
-45.29
-41.9
-39.54
-37.74
-35.88
-33.66
-31.31
-29.42
-28.43
-28.18
-27.75
-25.94
-21.9
-15.7
-8.34
-1.28
4.13
7.19
7.83
6.52
3.86
0.43
-3.26
-6.72
-9.52
-11.32
-12.01
-11.73
-10.77
-9.55
-8.47
-7.9
-8.17
-9.52
-12.02
-15.46
-19.38
-23.08
-25.8
-26.93
-26.17
-23.54
-19.34
-14.04
-8.16
-2.25
3.15
7.64
10.99
13.23
14.61
15.49
16.19
16.84
17.48
18.09
18.76
19.59
20.63
21.71
22.42
22.27
20.92
18.38
15.05
11.56
8.59
6.57
5.63
5.57
5.97
6.42
6.55
6.3
5.8
5.42
5.51
6.27
7.61
9.27
11.01
12.77
14.72
17.12
20.11
23.69
27.72
32.12
36.86
41.89
46.99
51.72
55.48
57.84
58.68
58.3
57.16
55.58
53.57
50.76
46.68
41
33.84
25.67
17.18
9.04
1.69
-4.74
-10.33
-15.3
-19.81
-23.89
-27.48
-30.5
-33.02
-35.26
-37.51
-40.04
-42.89
-45.88
-48.59
-50.7
-52.03
-52.66
-52.95
-53.3
-53.96
-54.89
-55.78
-56.08
-55.26
-52.94
-48.94
-43.43
-36.77
-29.49
-22.12
-15.19
-9.01
-3.76
0.57
4.1
6.95
9.26
11.07
12.38
13.09
13.07
12.2
10.5
8.19
5.75
3.75
2.7
2.78
3.8
5.27
6.63
7.42
7.41
6.52
4.83
2.43
-0.5
-3.68
-6.76
-9.46
-11.7
-13.71
-15.9
-18.63
-21.93
-25.35
-28.02
-28.97
-27.54
-23.67
-17.95
-11.46
-5.3
-0.31
3.24
5.51
6.86
7.62
7.95
7.9
7.6
7.25
7.11
7.39
8.03
8.77
9.24
9.16
8.5
7.46
6.33
5.33
4.47
3.59
2.5
1.03
-0.79
-2.83
-4.88
-6.76
-8.37
-9.72
-10.91
-12.05
-13.29
-14.73
-16.52
-18.79
-21.66
-25.09
-28.81
-32.29
-34.79
-35.62
-34.35
-31.02
-26.13
-20.45
-14.76
-9.69
-5.55
-2.39
-0.08
1.61
2.93
4.06
5.11
6.06
6.78
7.11
6.97
6.38
5.46
4.46
3.59
2.96
2.47
1.9
0.91
-0.78
-3.29
-6.5
-10.04
-13.46
-16.32
-18.38
-19.64
-20.32
-20.85
-21.71
-23.33
-26
-29.7
-34.1
-38.49
-41.95
-43.57
-42.76
-39.47
-34.26
-28.13
-22.2
-17.25
-13.59
-11
-9.04
-7.32
-5.72
-4.37
-3.45
-3.01
-2.84
-2.59
-1.97
-1.01
-0.04
0.45
0.1
-1.09
-2.78
-4.59
-6.28
-7.96
-9.98
-12.63
-15.97
-19.68
-23.18
-25.92
-27.59
-28.23
-28.12
-27.62
-27.11
-26.84
-26.92
-27.25
-27.43
-26.8
-24.53
-19.84
-12.29
-2
10.39
23.83
37.19
49.56
60.25
68.91
75.29
79.15
80.3
78.62
74.39
68.3
61.43
55.02
50.15
47.52
47.3
49.27
52.93
57.61
62.48
66.61
69.07
69.15
66.71
62.18
56.55
50.84
45.74
41.26
36.76
31.24
23.74
13.61
0.66
-14.99
-32.99
-52.75
-73.45
-94.06
-113.51
-130.89
-145.65
-157.44
-165.92
-170.63
-170.95
-166.39
-157
-143.59
-127.73
-111.37
-96.23
-83.36
-72.96
-64.43
-56.78
-49.01
-40.34
-30.26
-18.37
-4.34
12.15
31.05
51.62
72.13
90.05
102.54
107.23
103
90.46
71.92
50.91
31.23
16.02
6.9
3.61
4.09
5.17
3.56
-2.93
-14.43
-28.67
-41.59
-48.68
-46.89
-36.18
-19.89
-3.7
6.39
6.36
-4.58
-24.09
-48.05
-72.08
-92.84
-108.41
-118.04
-121.79
-120.25
-114.54
-106.25
-97.27
-89.24
-83.12
-79.01
-76.52
-75.21
-75.04
-76.34
-79.62
-85
-91.92
-99.08
-104.52
-106.12
-102.01
-90.87
-72.18
-46.31
-14.65
20.18
54.46
83.86
104.45
113.74
111.47
99.71
82.08
62.61
44.44
29.24
17.27
8.07
1.2
-3.46
-5.82
-6.11
-5.08
-3.97
-4.07
-6.13
-9.99
-14.5
-17.99
-18.83
-16.1
-9.94
-1.4
7.96
16.72
24.06
29.89
34.65
38.93
43.13
47.31
51.2
54.46
56.86
58.43
59.4
60.1
60.76
61.44
61.99
62.17
61.83
60.99
59.87
58.82
58.21
58.23
58.86
59.78
60.47
60.22
58.43
54.79
49.48
43.11
36.53
30.51
25.46
21.35
17.85
14.53
11.14
7.51
3.52
-1.01
-6.22
-12.02
-17.79
-22.42
-24.63
-23.41
-18.52
-10.68
-1.3
8.02
16.06
22.31
26.93
30.48
33.48
36.19
38.5
40.13
40.9
40.85
40.31
39.72
39.46
39.71
40.4
41.38
42.45
43.52
44.49
45.32
45.9
46.16
46.06
45.67
45.16
44.72
44.47
44.35
44.12
43.28
41.29
37.71
32.39
25.6
18
10.42
3.63
-1.9
-6.08
-9.08
-11.11
-12.22
-12.21
-10.68
-7.31
-2
4.92
12.77
20.62
27.61
33.1
36.8
38.82
39.51
39.3
38.59
37.69
36.79
36.11
35.85
36.27
37.58
39.83
42.73
45.69
47.91
48.57
47.18
43.65
38.33
31.88
25.02
18.45
12.66
7.92
4.26
1.55
-0.54
-2.44
-4.54
-7.16
-10.33
-13.79
-16.99
-19.26
-19.94
-18.66
-15.42
-10.59
-4.87
0.95
6.17
10.29
13.08
14.64
15.21
15.2
15.02
15
15.33
15.99
16.81
17.51
17.87
17.75
17.2
16.36
15.43
14.51
13.56
12.33
10.53
7.9
4.39
0.3
-3.87
-7.63
-10.71
-13.17
-15.37
-17.69
-20.32
-23.03
-25.26
-26.31
-25.65
-23.06
-18.72
-13.11
-6.87
-0.66
4.89
9.3
12.3
13.84
14.18
13.75
13.01
12.29
11.74
11.29
10.82
10.23
9.52
8.83
8.31
8.05
8.03
8.07
7.94
7.5
6.59
5.19
3.33
1.1
-1.41
-4.05
-6.77
-9.53
-12.33
-15.16
-17.85
-20.08
-21.43
-21.49
-20.09
-17.38
-13.8
-9.91
-6.13
-2.67
0.52
3.64
6.87
10.24
13.6
16.59
18.86
20.11
20.25
19.41
17.89
16.16
14.64
13.62
13.2
13.19
13.27
13.03
12.11
10.34
7.8
4.67
1.26
-2.2
-5.49
-8.49
-11.1
-13.28
-15.13
-16.93
-19.03
-21.69
-24.81
-27.92
-30.18
-30.75
-29.09
-25.24
-19.82
-13.76
-7.99
-3.06
0.89
4.02
6.58
8.8
10.78
12.54
14.21
15.89
17.72
19.68
21.63
23.24
24.27
24.57
24.22
23.45
22.56
21.77
21.12
20.51
19.76
18.71
17.3
15.56
13.64
11.69
9.88
8.32
7.03
6
5.15
4.37
3.58
2.72
1.73
0.64
-0.55
-1.79
-3.03
-4.24
-5.38
-6.51
-7.75
-9.23
-11.05
-13.18
-15.47
-17.77
-20.03
-22.38
-25.06
-28.25
-31.83
-35.39
-38.21
-39.63
-39.23
-37.06
-33.42
-28.92
-24.15
-19.53
-15.34
-11.61
-8.27
-5.1
-1.91
1.5
5.15
8.93
12.63
15.95
18.67
20.63
21.8
22.23
22.07
21.5
20.74
19.96
19.27
18.69
18.15
17.56
16.82
15.89
14.78
13.54
12.3
11.12
10.14
9.4
8.92
8.65
8.48
8.28
7.9
7.25
6.31
5.14
3.86
2.59
1.39
0.24
-0.93
-2.24
-3.78
-5.54
-7.44
-9.36
-11.14
-12.71
-14.03
-15.16
-16.22
-17.39
-18.87
-20.84
-23.39
-26.45
-29.68
-32.55
-34.4
-34.64
-32.97
-29.46
-24.63
-19.26
-14.12
-9.77
-6.44
-3.98
-2.01
-0.13
1.97
4.32
6.74
8.93
10.62
11.69
12.21
12.36
12.33
12.31
12.43
12.72
13.18
13.78
14.45
15.09
15.58
15.81
15.69
15.19
14.36
13.29
12.13
10.98
9.94
8.98
7.98
6.8
5.35
3.65
1.84
0.13
-1.32
-2.44
-3.27
-3.9
-4.47
-5.08
-5.83
-6.75
-7.87
-9.23
-10.85
-12.7
-14.72
-16.86
-19.05
-21.21
-23.25
-25.08
-26.5
-27.27
-27.17
-25.97
-23.61
-20.14
-15.82
-11.03
-6.29
-2.05
1.32
3.72
5.29
6.35
7.24
8.22
9.35
10.54
11.7
12.71
13.54
14.15
14.52
14.62
14.39
13.87
13.1
12.18
11.2
10.2
9.28
8.47
7.79
7.24
6.77
6.25
5.58
4.7
3.6
2.36
1.11
-0.04
-1.02
-1.79
-2.38
-2.81
-3.09
-3.26
-3.34
-3.45
-3.72
-4.32
-5.34
-6.73
-8.35
-9.99
-11.5
-12.88
-14.29
-15.94
-17.95
-20.19
-22.23
-23.51
-23.54
-22.15
-19.55
-16.25
-12.86
-9.81
-7.24
-5.05
-3.05
-1.12
0.7
2.29
3.56
4.5
5.21
5.86
6.57
7.37
8.26
9.18
10.04
10.76
11.24
11.39
11.19
10.67
9.89
8.96
7.95
6.88
5.72
4.46
3.08
1.59
0.06
-1.41
-2.71
-3.71
-4.4
-4.79
-4.98
-5.15
-5.49
-6.15
-7.17
-8.52
-10.07
-11.69
-13.27
-14.79
-16.3
-17.98
-20.01
-22.48
-25.26
-27.97
-30.03
-30.83
-29.96
-27.41
-23.59
-19.18
-14.89
-11.18
-8.17
-5.69
-3.51
-1.43
0.55
2.39
3.98
5.31
6.37
7.2
7.81
8.15
8.21
8.03
7.75
7.51
7.48
7.71
8.2
8.81
9.37
9.7
9.66
9.16
8.18
6.75
4.93
2.85
0.68
-1.37
-3.09
-4.41
-5.34
-6.01
-6.65
-7.45
-8.5
-9.78
-11.19
-12.62
-13.97
-15.25
-16.51
-17.83
-19.27
-20.87
-22.53
-24.02
-25
-25.07
-23.94
-21.53
-18.02
-13.83
-9.51
-5.57
-2.38
-0.08
1.42
2.41
3.23
4.19
5.5
7.1
8.73
10.05
10.74
10.69
10.01
9
7.98
7.16
6.58
6.12
5.59
4.83
3.81
2.63
1.52
0.69
0.3
0.31
0.54
0.62
0.21
-0.91
-2.72
-4.93
-7.19
-9.13
-10.58
-11.54
-12.15
-12.63
-13.2
-14.06
-15.31
-16.98
-18.91
-20.82
-22.3
-22.93
-22.38
-20.55
-17.58
-13.77
-9.51
-5.19
-1.16
2.26
4.88
6.65
7.64
8.09
8.24
8.28
8.27
8.2
8.02
7.79
7.6
7.62
7.87
8.29
8.65
8.68
8.23
7.28
5.97
4.46
2.92
1.47
0.14
-1.05
-2.12
-3.09
-3.99
-4.87
-5.81
-6.88
-8.11
-9.52
-11.08
-12.77
-14.55
-16.34
-17.99
-19.29
-19.94
-19.67
-18.31
-15.87
-12.52
-8.56
-4.32
-0.14
3.66
6.84
9.17
10.55
11.01
10.76
10.12
9.43
8.92
8.65
8.59
8.67
8.86
9.18
9.59
9.97
10.07
9.68
8.71
7.31
5.78
4.42
3.42
2.73
2.16
1.47
0.5
-0.76
-2.18
-3.62
-4.91
-5.99
-6.91
-7.79
-8.83
-10.14
-11.75
-13.53
-15.21
-16.5
-17.16
-17.08
-16.2
-14.63
-12.45
-9.77
-6.76
-3.64
-0.65
1.95
4
5.49
6.52
7.28
7.94
8.56
9.11
9.49
9.64
9.6
9.51
9.55
9.82
10.29
10.79
11.09
11.04
10.61
9.91
9.15
8.46
7.91
7.43
6.92
6.31
5.6
4.8
3.91
2.88
1.61
0.04
-1.79
-3.8
-5.88
-8.02
-10.26
-12.68
-15.22
-17.65
-19.57
-20.56
-20.32
-18.8
-16.24
-12.94
-9.25
-5.43
-1.69
1.75
4.69
6.98
8.54
9.51
10.11
10.64
11.28
12.03
12.8
13.39
13.71
13.75
13.56
13.27
12.94
12.62
12.34
12.12
11.98
11.93
11.93
11.94
11.8
11.42
10.73
9.73
8.57
7.4
6.35
5.46
4.67
3.87
2.98
2
0.99
-0.01
-1.04
-2.3
-4.07
-6.55
-9.7
-13.14
-16.26
-18.4
-19.09
-18.19
-15.92
-12.75
-9.19
-5.7
-2.54
0.17
2.42
4.3
5.94
7.4
8.75
9.99
11.07
11.96
12.66
13.22
13.72
14.17
14.55
14.8
14.86
14.71
14.41
14.05
13.67
13.31
12.89
12.34
11.62
10.68
9.6
8.48
7.42
6.42
5.41
4.21
2.69
0.84
-1.18
-3.1
-4.72
-6.02
-7.25
-8.8
-11.01
-13.92
-17.25
-20.42
-22.8
-24
-23.91
-22.76
-20.95
-18.85
-16.73
-14.73
-12.94
-11.45
-10.43
-10
-10.26
-11.2
-12.76
-14.79
-17.23
-20.04
-23.22
-26.77
-30.67
-34.85
-39.28
-43.91
-48.8
-53.99
-59.56
-65.45
-71.6
-77.89
-84.28
-90.87
-97.82
-105.23
-112.96
-120.58
-127.36
-132.44
-134.94
-134.06
-129.17
-119.84
-105.86
-87.3
-64.68
-38.95
-11.41
16.43
43.18
67.71
89.29
107.42
121.84
132.37
138.91
141.63
140.94
137.6
132.47
126.35
119.78
113.07
106.35
99.75
93.45
87.6
82.23
77.26
72.48
67.71
62.88
58.04
53.34
48.96
44.99
41.4
38.13
35.06
32.12
29.28
26.51
23.84
21.29
18.87
16.63
14.56
12.68
10.98
9.43
7.95
6.49
5.03
3.61
2.26
1
-0.29
-1.79
-3.63
-5.9
-8.41
-10.82
-12.67
-13.59
-13.41
-12.25
-10.41
-8.29
-6.24
-4.45
-2.95
-1.65
-0.41
0.84
2.09
3.23
4.16
4.87
5.45
6.02
6.66
7.37
8.02
8.46
8.64
8.58
8.43
8.33
8.35
8.43
8.46
8.31
7.94
7.38
6.73
6
5.19
4.2
3.02
1.74
0.54
-0.38
-0.9
-1.08
-1.1
-1.2
-1.56
-2.24
-3.25
-4.53
-6.08
-7.8
-9.48
-10.81
-11.44
-11.15
-9.96
-8.16
-6.16
-4.38
-3.04
-2.18
-1.65
-1.25
-0.79
-0.2
0.49
1.17
1.72
2.07
2.24
2.35
2.54
2.9
3.38
3.84
4.11
4.05
3.67
3.12
2.58
2.21
2.01
1.85
1.54
1
0.22
-0.6
-1.28
-1.69
-1.85
-1.95
-2.14
-2.55
-3.17
-3.95
-4.86
-5.95
-7.33
-8.98
-10.75
-12.3
-13.31
-13.54
-12.97
-11.75
-10.13
-8.27
-6.23
-4.02
-1.66
0.72
2.91
4.69
5.94
6.64
6.9
6.85
6.67
6.49
6.4
6.48
6.81
7.38
8.15
9.04
9.91
10.68
11.33
11.87
12.32
12.63
12.76
12.67
12.41
12.08
11.77
11.5
11.18
10.71
10.05
9.28
8.57
8.12
7.94
7.93
7.85
7.49
6.78
5.84
4.82
3.85
3.01
2.35
1.94
1.92
2.4
3.37
4.65
6.03
7.28
8.33
9.23
10.07
10.86
11.47
11.74
11.56
10.93
10.02
9.01
8.05
7.18
6.36
5.55
4.74
3.94
3.19
2.5
1.92
1.44
1.09
0.84
0.59
0.19
-0.52
-1.65
-3.16
-4.9
-6.68
-8.33
-9.81
-11.11
-12.31
-13.47
-14.56
-15.57
-16.42
-17.06
-17.34
-17.12
-16.25
-14.75
-12.81
-10.86
-9.39
-8.78
-9.19
-10.52
-12.43
-14.51
-16.32
-17.52
-17.91
-17.52
-16.65
-15.86
-15.75
-16.79
-19.07
-22.16
-25.35
-27.93
-29.54
-30.33
-30.9
-31.98
-34.08
-37.23
-40.74
-43.45
-43.86
-40.55
-32.38
-19.07
-1.49
18.19
36.8
51.13
59.11
60.81
58.48
55.78
56.09
61.02
69.67
79.13
85.95
87.58
83.23
73.72
60.68
45.7
29.97
14.38
-0.16
-12.52
-21.58
-26.7
-28.37
-28.25
-28.49
-30.71
-35.03
-40.05
-43.37
-42.91
-37.73
-28.31
-16.09
-2.7
10.61
23.11
34.2
43.21
49.37
52.15
51.72
49.02
45.43
42.23
40.28
39.84
40.76
42.58
44.63
46.19
46.57
45.37
42.53
38.55
34.14
30.08
26.92
24.88
23.87
23.64
23.86
24.2
24.31
23.88
22.72
20.87
18.65
16.57
15.1
14.48
14.64
15.28
15.95
16.22
15.6
13.66
10.18
5.3
-0.24
-5.28
-8.58
-9.41
-7.8
-4.59
-0.96
2.1
4.19
5.43
6.27
7.08
7.98
8.93
9.85
10.7
11.46
12.01
11.99
10.86
8.05
3.18
-3.69
-12.05
-21
-29.49
-36.71
-42.19
-45.97
-48.46
-50.16
-51.45
-52.42
-52.95
-52.92
-52.39
-51.64
-51.06
-50.96
-51.37
-51.95
-52.12
-51.3
-49.17
-45.79
-41.57
-37.08
-32.87
-29.3
-26.41
-24.04
-21.87
-19.59
-16.96
-13.97
-10.78
-7.68
-4.95
-2.84
-1.46
-0.84
-0.99
-1.85
-3.27
-4.95
-6.45
-7.33
-7.31
-6.5
-5.31
-4.24
-3.62
-3.45
-3.39
-3.08
-2.33
-1.22
-0.1
0.6
0.58
-0.27
-1.91
-4.1
-6.54
-8.8
-10.4
-10.94
-10.19
-8.23
-5.46
-2.48
0.11
1.92
2.86
3.11
2.94
2.63
2.39
2.29
2.41
2.73
3.16
3.53
3.56
3
1.69
-0.26
-2.58
-4.9
-7.04
-9.02
-11.12
-13.63
-16.75
-20.43
-24.47
-28.62
-32.62
-36.27
-39.41
-41.84
-43.38
-43.95
-43.69
-43
-42.53
-42.99
-44.96
-48.69
-53.9
-59.81
-65.21
-68.81
-69.55
-67
-61.4
-53.63
-44.98
