42.25
50.12
57.2
63.4
68.69
73.06
76.52
79.05
80.63
81.25
81.01
80.03
78.55
76.81
74.94
72.93
70.64
67.86
64.42
60.22
55.21
49.37
42.7
35.27
27.32
19.28
11.77
5.48
0.95
-1.62
-2.45
-2.11
-1.42
-1.03
-1.3
-2.14
-3.16
-3.9
-4.11
-3.86
-3.52
-3.5
-4.01
-5.01
-6.22
-7.32
-8.15
-8.76
-9.33
-10
-10.78
-11.47
-11.84
-11.82
-11.53
-11.35
-11.66
-12.64
-14.17
-15.85
-17.2
-17.95
-18.1
-17.87
-17.57
-17.38
-17.34
-17.32
-17.25
-17.17
-17.18
-17.45
-18.08
-19.06
-20.34
-21.76
-23.06
-23.93
-23.97
-22.82
-20.31
-16.51
-11.88
-7.04
-2.66
0.87
3.48
5.41
7.06
8.68
10.33
11.84
12.89
13.28
12.93
11.96
10.63
9.21
7.91
6.82
5.91
5.11
4.3
3.52
2.86
2.47
2.51
2.95
3.62
4.3
4.8
5.09
5.28
5.48
5.72
5.87
5.72
5.08
3.94
2.48
1.03
-0.06
-0.55
-0.39
0.18
0.77
0.94
0.34
-1.16
-3.39
-5.88
-8.01
-9.15
-8.88
-7.18
-4.37
-1.04
2.13
4.64
6.29
7.2
7.66
7.98
8.42
9.04
9.84
10.75
11.71
12.66
13.52
14.14
14.37
14.04
13.13
11.78
10.27
8.97
8.2
8.05
8.35
8.75
8.8
8.22
7
5.33
3.54
1.96
0.72
-0.21
-0.92
-1.54
-2.17
-2.8
-3.46
-4.21
-5.17
-6.45
-8.07
-9.9
-11.69
-13.13
-13.95
-13.98
-13.24
-11.9
-10.2
-8.38
-6.64
-5.13
-3.93
-3.06
-2.46
-2.04
-1.65
-1.22
-0.74
-0.28
0.04
0.13
0
-0.28
-0.61
-0.91
-1.19
-1.51
-1.92
-2.4
-2.91
-3.39
-3.88
-4.49
-5.4
-6.69
-8.32
-10.06
-11.7
-13.1
-14.25
-15.27
-16.25
-17.23
-18.19
-19.2
-20.41
-21.98
-23.94
-26.09
-27.93
-28.89
-28.41
-26.17
-22.05
-16.05
-8.23
1.27
12.11
23.68
35.13
45.59
54.4
61.35
66.69
70.92
74.55
77.86
80.65
82.39
82.41
80.2
75.72
69.35
61.8
53.8
45.86
38.26
31.07
24.32
18.09
12.52
7.71
3.67
0.26
-2.63
-5.18
-7.49
-9.74
-12.22
-15.37
-19.65
-25.3
-32.11
-39.38
-46.15
-51.55
-55.18
-57.07
-57.41
-56.24
-53.29
-48.29
-41.38
-33.54
-26.33
-21.34
-19.36
-19.97
-21.76
-23.06
-22.79
-20.92
-18.38
-16.4
-15.87
-16.91
-18.94
-21.07
-22.62
-23.53
-24.25
-25.64
-28.42
-32.84
-38.57
-44.9
-51.11
-56.72
-61.62
-65.98
-70.05
-73.98
-77.68
-80.87
-83.03
-83.53
-81.82
-77.58
-70.81
-61.94
-51.67
-40.77
-29.83
-19.13
-8.68
1.59
11.74
21.71
31.48
41.12
50.81
60.57
70.12
78.75
85.53
89.64
90.78
89.08
85
79.07
71.93
64.42
57.61
52.5
49.48
47.81
45.68
40.99
32.45
20.34
6.5
-6.5
-16.56
-22.74
-25.28
-24.81
-21.76
-16.15
-8.13
1.3
10.12
16.02
17.45
14.59
9.46
4.91
3.21
4.86
8.43
11.53
12.2
9.95
5.82
1.66
-1.04
-1.84
-1.35
-0.5
0.26
1.27
3.32
6.9
11.55
15.67
17.32
15.13
9.07
0.44
-8.96
-17.78
-25.75
-33.52
-41.91
-51.04
-60.07
-67.46
-71.84
-72.68
-70.39
-66.01
-60.7
-55.35
-50.45
-46.25
-42.92
-40.51
-38.89
-37.68
-36.39
-34.62
-32.33
-29.78
-27.5
-25.9
-25.02
-24.46
-23.45
-21.3
-17.55
-12.24
-5.82
1.07
7.78
13.81
18.84
22.68
25.22
26.47
26.56
25.83
24.72
23.71
23.18
23.23
23.75
24.37
24.68
24.37
23.41
22.02
20.62
19.63
19.25
19.35
19.62
19.72
19.52
19.18
19.06
19.58
20.93
22.9
24.86
25.89
25
21.51
15.31
7.02
-2.16
-10.67
-17.14
-20.72
-21.35
-19.59
-16.39
-12.74
-9.36
-6.66
-4.71
-3.36
-2.38
-1.5
-0.5
0.82
2.58
4.78
7.27
9.72
11.68
12.75
12.72
11.71
10.14
8.6
7.63
7.51
8.19
9.29
10.27
10.58
9.85
7.96
5.06
1.57
-1.95
-4.96
-7.16
-8.6
-9.67
-10.99
-13.15
-16.43
-20.69
-25.39
-29.77
-33
-34.51
-34.01
-31.58
-27.67
-22.96
-18.18
-13.92
-10.37
-7.34
-4.32
-0.74
3.7
8.91
14.4
19.51
23.65
26.49
28.03
28.45
28.07
27.21
26.22
25.43
25.19
25.74
27.19
29.37
31.88
34.23
35.96
36.81
36.77
36.04
34.87
33.46
31.86
30.04
27.98
25.67
23.17
20.41
17.14
12.92
7.36
0.45
-7.25
-14.57
-20.13
-22.81
-22.18
-18.59
-13.03
-6.69
-0.62
4.53
8.51
11.35
13.32
14.71
15.88
17.08
18.43
19.85
21.12
22
22.33
22.12
21.48
20.57
19.5
18.35
17.21
16.25
15.68
15.65
16.11
16.77
17.2
16.98
15.9
14
11.58
9.03
6.71
4.79
3.22
1.73
-0.02
-2.36
-5.43
-9.12
-13.01
-16.49
-18.86
-19.48
-17.86
-13.8
-7.53
0.34
8.77
16.58
22.72
26.66
28.54
29.08
29.31
30.15
32.16
35.46
39.88
45.01
50.34
55.09
58.33
59.09
56.75
51.47
44.37
37.2
31.71
28.84
28.36
29.03
29.29
28.09
25.35
21.83
18.57
16.23
14.75
13.48
11.61
8.6
4.32
-1.04
-7.09
-13.4
-19.39
-24.22
-26.89
-26.51
-22.66
-15.68
-6.58
3.21
12.26
19.62
24.87
28.19
30.05
31.06
31.68
32.13
32.33
32.06
31.04
29.15
26.44
23.19
19.75
16.4
13.33
10.59
8.15
6
4.06
2.33
0.79
-0.63
-2.07
-3.7
-5.65
-7.89
-10.16
-12.07
-13.26
-13.63
-13.51
-13.52
-14.37
-16.42
-19.43
-22.55
-24.68
-24.95
-23.07
-19.38
-14.6
-9.46
-4.42
0.38
5
9.41
13.45
16.87
19.45
21.18
22.19
22.63
22.53
21.8
20.33
18.08
15.24
12.13
9.18
6.69
4.81
3.45
2.29
0.9
-1.15
-4.13
-8
-12.39
-16.64
-20.04
-22.1
-22.88
-23.05
-23.81
-26.45
-31.82
-39.9
-49.61
-58.98
-65.64
-67.57
-63.7
-54.15
-40.16
-23.59
-6.45
9.49
22.81
32.44
37.65
38.14
34.15
26.45
16.23
4.68
-7.24
-18.97
-30.19
-40.56
-49.5
-56.25
-60.26
-61.49
-60.52
-58.32
-55.93
-54.1
-53.13
-52.88
-53.05
-53.18
-52.77
-51.26
-48.19
-43.4
-37.22
-30.54
-24.53
-20.22
-18.02
-17.52
-17.68
-17.29
-15.45
-11.99
-7.39
-2.53
1.75
4.98
7.08
8.29
8.87
9
8.7
7.96
6.8
5.35
3.83
2.47
1.43
0.77
0.49
0.52
0.76
1.07
1.29
1.21
0.75
-0.08
-1.19
-2.44
-3.75
-5.18
-6.94
-9.22
-12.16
-15.7
-19.63
-23.58
-27.04
-29.5
-30.42
-29.42
-26.45
-21.75
-15.97
-9.93
-4.44
-0.01
3.15
5.23
6.63
7.76
8.93
10.17
11.31
12.1
12.31
11.88
10.92
9.72
8.57
7.66
7.01
6.5
5.95
5.19
4.15
2.87
1.49
0.13
-1.1
-2.21
-3.27
-4.41
-5.77
-7.39
-9.23
-11.12
-12.86
-14.1
-14.48
-13.68
-11.5
-8.01
-3.6
1.09
5.31
8.48
10.34
11.03
11.04
10.99
11.37
12.44
14.09
16.02
17.8
19.01
19.44
19.07
18.1
16.77
15.39
14.14
13.11
12.23
11.41
10.5
9.4
8.14
6.78
5.45
4.26
3.24
2.38
1.56
0.56
-0.9
-3.07
-6.04
-9.57
-13.1
-15.79
-16.84
-15.78
-12.7
-8.23
-3.28
1.3
5.03
7.83
9.91
11.53
12.83
13.82
14.47
14.77
14.88
14.96
15.11
15.3
15.37
15.14
14.55
13.72
12.91
12.43
12.45
12.95
13.7
14.35
14.61
14.26
13.29
11.79
9.96
7.98
6.04
4.18
2.4
0.64
-1.26
-3.34
-5.58
-7.74
-9.45
-10.25
-9.79
-7.95
-4.96
-1.32
2.4
5.66
8.18
9.92
11.07
11.87
12.53
13.16
13.73
14.23
14.62
14.9
15.08
15.19
15.22
15.19
15.12
15.07
15.08
15.15
15.16
14.96
14.36
13.28
11.75
9.95
8.16
6.64
5.48
4.6
3.69
2.3
0.09
-3.09
-7.02
-11.14
-14.69
-16.97
-17.57
-16.47
-14.13
-11.21
-8.37
-6.1
-4.49
-3.35
-2.36
-1.23
0.15
1.67
3.11
4.26
5.01
5.34
5.34
5.1
4.77
4.48
4.33
4.36
4.5
4.56
4.37
3.77
2.85
1.75
0.65
-0.35
-1.28
-2.25
-3.36
-4.66
-6.18
-7.96
-10.04
-12.36
-14.73
-16.7
-17.78
-17.58
-16.01
-13.36
-10.21
-7.24
-4.97
-3.62
-3.11
-3.14
-3.43
-3.75
-3.99
-4.14
-4.18
-4.1
-3.86
-3.45
-2.9
-2.25
-1.56
-0.84
-0.07
0.79
1.76
2.85
4.07
5.41
6.86
8.3
9.58
10.41
10.59
10.06
8.92
7.36
5.56
3.64
1.59
-0.48
-2.36
-3.63
-3.88
-2.79
-0.38
2.95
6.6
9.9
12.44
14.15
15.19
15.84
16.31
16.71
16.97
16.99
16.73
16.24
15.61
14.96
14.4
13.91
13.47
12.99
12.35
11.47
10.31
8.93
7.45
5.98
4.58
3.23
1.83
0.26
-1.54
-3.58
-5.77
-8.05
-10.4
-12.82
-15.3
-17.69
-19.69
-20.87
-20.89
-19.61
-17.16
-13.94
-10.44
-7.1
-4.17
-1.71
0.4
2.29
4.02
5.63
7.04
8.18
8.98
9.44
9.62
9.67
9.73
9.86
10.01
10.03
9.77
9.17
8.3
7.34
6.49
5.84
5.35
4.85
4.2
3.36
2.37
1.41
0.52
-0.31
-1.24
-2.41
-3.87
-5.49
-7.08
-8.52
-9.93
-11.59
-13.81
-16.66
-19.79
-22.55
-24.18
-24.16
-22.45
-19.46
-15.89
-12.44
-9.55
-7.39
-5.84
-4.66
-3.64
-2.65
-1.65
-0.69
0.19
0.93
1.49
1.95
2.35
2.76
3.17
3.54
3.78
3.9
3.94
3.96
4.02
4.07
3.98
3.66
3.09
2.34
1.54
0.75
-0.1
-1.12
-2.36
-3.76
-5.13
-6.28
-7.09
-7.64
-8.13
-8.78
-9.78
-11.17
-12.87
-14.59
-15.98
-16.62
-16.17
-14.54
-11.95
-8.89
-5.93
-3.46
-1.63
-0.27
0.86
2.05
3.4
4.97
6.7
8.47
10.18
11.66
12.72
13.25
13.24
12.78
12.08
11.37
10.78
10.4
10.13
9.84
9.37
8.66
7.68
6.56
5.49
4.56
3.82
3.13
2.35
1.37
0.19
-1.1
-2.34
-3.39
-4.2
-4.79
-5.3
-5.85
-6.6
-7.67
-9.14
-10.93
-12.86
-14.57
-15.61
-15.65
-14.53
-12.42
-9.77
-7.11
-4.87
-3.22
-2.07
-1.16
-0.24
0.72
1.59
2.13
2.19
1.81
1.24
0.76
0.55
0.63
0.87
1.03
0.93
0.55
0.02
-0.43
-0.52
-0.13
0.7
1.74
2.6
2.95
2.63
1.72
0.47
-0.83
-1.97
-2.93
-3.77
-4.59
-5.38
-6.15
-6.97
-7.94
-9.19
-10.66
-12.08
-13.04
-13.09
-12.01
-9.92
-7.22
-4.43
-2.03
-0.25
0.92
1.61
2.03
2.32
2.56
2.72
2.83
2.9
2.99
3.18
3.48
3.85
4.12
4.17
3.94
3.53
3.13
2.93
3.04
3.36
3.68
3.74
3.41
2.62
1.49
0.18
-1.12
-2.21
-2.96
-3.28
-3.18
-2.81
-2.45
-2.43
-3
-4.21
-5.86
-7.51
-8.63
-8.76
-7.68
-5.43
-2.3
1.31
4.99
8.34
11.06
12.99
14.14
14.67
14.89
15.07
15.37
15.8
16.25
16.55
16.64
16.58
16.48
16.47
16.53
16.57
16.47
16.15
15.61
14.92
14.17
13.38
12.55
11.68
10.8
9.98
9.31
8.83
8.46
8.02
7.33
6.24
4.76
2.99
1.12
-0.63
-2.06
-2.99
-3.36
-3.15
-2.47
-1.49
-0.42
0.51
1.13
1.35
1.18
0.74
0.16
-0.39
-0.88
-1.42
-2.11
-3.11
-4.41
-5.91
-7.43
-8.81
-10.01
-11.05
-11.98
-12.77
-13.35
-13.68
-13.77
-13.71
-13.64
-13.66
-13.78
-14
-14.33
-14.85
-15.7
-16.9
-18.33
-19.69
-20.57
-20.6
-19.63
-17.69
-15.08
-12.16
-9.3
-6.75
-4.56
-2.7
-1.1
0.31
1.44
2.23
2.64
2.72
2.63
2.52
2.49
2.41
2.13
1.47
0.44
-0.8
-1.99
-2.91
-3.51
-3.84
-4.06
-4.3
-4.63
-5.1
-5.72
-6.57
-7.7
-9.1
-10.66
-12.14
-13.26
-13.76
-13.48
-12.4
-10.69
-8.59
-6.42
-4.41
-2.7
-1.27
-0
1.21
2.4
3.45
4.24
4.66
4.76
4.71
4.66
4.65
4.57
4.25
3.65
2.85
2.08
1.49
1.08
0.66
0
-0.99
-2.22
-3.46
-4.5
-5.24
-5.73
-6.13
-6.52
-6.86
-6.98
-6.61
-5.54
-3.7
-1.2
1.69
4.64
7.34
9.61
11.36
12.64
13.63
14.52
15.48
16.6
17.82
18.97
19.79
20.05
19.66
18.69
17.38
15.99
14.73
13.68
12.79
11.94
10.98
9.82
8.39
6.7
4.73
2.54
0.16
-2.31
-4.82
-7.31
-9.86
-12.51
-15.29
-18.03
-20.36
-21.91
-22.3
-21.47
-19.65
-17.28
-14.79
-12.46
-10.34
-8.35
-6.39
-4.46
-2.67
-1.1
0.19
1.24
2.11
2.83
3.37
3.63
3.61
3.35
2.97
2.62
2.41
2.41
2.57
2.89
3.29
3.75
4.15
4.29
3.97
3.06
1.62
-0.15
-1.99
-3.67
-5.09
-6.33
-7.55
-8.86
-10.31
-11.82
-13.26
-14.4
-15.04
-14.98
-14.11
-12.45
-10.19
-7.64
-5.17
-3.05
-1.41
-0.19
0.73
1.59
2.54
3.67
4.96
6.29
7.51
8.48
9.13
9.45
9.47
9.26
8.87
8.41
8.04
7.95
8.24
8.95
9.95
11.01
11.91
12.51
12.79
12.77
12.55
12.13
11.51
10.75
9.96
9.3
8.89
8.76
8.79
8.79
8.59
8.06
7.17
5.94
4.42
2.69
0.95
-0.55
-1.53
-1.85
-1.57
-1.03
-0.66
-0.74
-1.35
-2.24
-3.14
-3.83
-4.3
-4.69
-5.11
-5.5
-5.67
-5.42
-4.72
-3.81
-3.09
-2.88
-3.27
-4.01
-4.7
-4.96
-4.65
-3.87
-2.88
-1.94
-1.15
-0.52
0
0.46
0.84
1.06
1.05
0.81
0.37
-0.21
-0.86
-1.57
-2.32
-3.13
-4
-4.96
-6.02
-7.23
-8.64
-10.29
-12.17
-14.13
-15.88
-17.04
-17.26
-16.34
-14.45
-11.96
-9.42
-7.28
-5.79
-4.92
-4.46
-4.14
-3.8
-3.42
-3.07
-2.86
-2.87
-3.07
-3.42
-3.83
-4.24
-4.6
-4.82
-4.84
-4.57
-3.92
-2.85
-1.35
0.57
2.84
5.4
8.13
10.86
13.43
15.59
17.2
18.1
18.31
17.91
17.06
15.98
14.87
13.88
13.07
12.4
11.73
10.85
9.61
7.91
5.83
3.65
1.77
0.59
0.34
1
2.34
3.94
5.35
6.24
6.41
5.83
4.67
3.2
1.75
0.58
-0.18
-0.53
-0.66
-0.73
-0.89
-1.17
-1.54
-1.94
-2.32
-2.58
-2.63
-2.29
-1.43
-0.02
1.81
3.8
5.59
6.93
7.75
8.16
8.35
8.48
8.53
8.35
7.69
6.38
4.43
1.98
-0.67
-3.27
-5.56
-7.36
-8.5
-8.83
-8.31
-7.15
-5.73
-4.59
-4.15
-4.53
-5.48
-6.46
-6.96
-6.73
-5.91
-4.89
-4.11
-3.78
-3.82
-4
-4.08
-4.01
-3.92
-3.97
-4.26
-4.69
-5.05
-5.2
-5.05
-4.69
-4.27
-3.88
-3.48
-3.01
-2.48
-2
-1.81
-2.11
-2.99
-4.36
-6.02
-7.71
-9.23
-10.42
-11.15
-11.34
-10.97
-10.16
-9.15
-8.23
-7.61
-7.34
-7.26
-7.15
-6.86
-6.42
-5.98
-5.74
-5.74
-5.86
-5.83
-5.4
-4.47
-3.21
-1.87
-0.78
-0.14
0.02
-0.25
-0.77
-1.42
-2.08
-2.71
-3.25
-3.73
-4.16
-4.57
-5.02
-5.55
-6.17
-6.92
-7.78
-8.7
-9.57
-10.18
-10.3
-9.75
-8.55
-6.87
-5
-3.19
-1.55
-0.06
1.35
2.73
4.05
5.2
6.09
6.73
7.21
7.65
8.1
8.57
8.99
9.27
9.34
9.17
8.75
8.14
7.4
6.6
5.81
5.04
4.33
3.73
3.29
3.1
3.14
3.27
3.34
3.12
2.47
1.35
-0.21
-2.13
-4.17
-6.01
-7.32
-7.77
-7.31
-6.14
-4.65
-3.28
-2.26
-1.59
-1.05
-0.44
0.31
1.09
1.69
1.99
1.99
1.82
1.63
1.53
1.49
1.44
1.32
1.16
0.99
0.89
0.84
0.77
0.55
0.06
-0.74
-1.8
-3.02
-4.23
-5.29
-6.11
-6.67
-7
-7.24
-7.51
-7.92
-8.5
-9.17
-9.82
-10.39
-10.81
-11
-10.82
-10.04
-8.46
-6.1
-3.2
-0.19
2.42
4.26
5.23
5.43
5.08
4.42
3.58
2.68
1.8
1.05
0.6
0.58
1.06
2.06
3.5
5.27
7.26
9.29
11.24
12.98
14.53
15.93
17.27
18.52
19.57
20.19
20.15
19.33
17.86
15.98
14
12.11
10.33
8.53
6.56
4.41
2.14
-0.13
-2.36
-4.6
-6.95
-9.45
-11.98
-14.21
-15.77
-16.41
-16.08
-15
-13.49
-11.87
-10.28
-8.72
-7.14
-5.54
-4.04
-2.85
-2.11
-1.75
-1.57
-1.25
-0.54
0.58
1.96
3.28
4.3
4.93
5.28
5.6
6.15
7.09
8.38
9.81
11.12
12.07
12.51
12.43
11.94
11.19
10.32
9.48
8.78
8.27
7.96
7.83
7.82
7.81
7.7
7.36
6.75
5.8
4.54
3.07
1.53
0.14
-0.91
-1.45
-1.39
-0.77
0.3
1.59
2.86
3.89
4.59
4.99
5.18
5.28
5.38
5.47
5.53
5.54
5.53
5.54
5.68
6.04
6.71
7.7
8.97
10.4
11.8
13.01
13.86
14.31
14.35
14.05
13.52
12.88
12.28
11.86
11.67
11.72
11.91
12.01
11.83
11.21
10.17
8.81
7.29
5.75
4.23
2.65
0.85
-1.28
-3.74
-6.39
-8.95
-11.11
-12.66
-13.52
-13.8
-13.69
-13.43
-13.14
-12.85
-12.53
-12.15
-11.74
-11.39
-11.14
-10.97
-10.74
-10.28
-9.49
-8.45
-7.36
-6.48
-5.98
-5.76
-5.59
-5.2
-4.45
-3.45
-2.47
-1.8
-1.59
-1.83
-2.32
-2.85
-3.32
-3.8
-4.43
-5.37
-6.67
-8.25
-10.01
-11.79
-13.44
-14.79
-15.65
-15.87
-15.35
-14.16
-12.52
-10.75
-9.1
-7.7
-6.5
-5.39
-4.28
-3.12
-2.01
-1.09
-0.45
-0.12
-0.05
-0.15
-0.32
-0.54
-0.8
-1.13
-1.51
-1.87
-2.11
-2.2
-2.15
-2.08
-2.15
-2.48
-3.1
-3.93
-4.85
-5.81
-6.78
-7.81
-8.93
-10.18
-11.54
-12.97
-14.34
-15.46
-16.07
-15.91
-14.83
-12.93
-10.54
-8.07
-5.94
-4.4
-3.46
-2.99
-2.68
-2.25
-1.36
0.24
2.71
6.03
9.95
14.05
17.88
21.1
23.58
25.4
26.7
27.57
28.01
27.95
27.37
26.43
25.38
24.54
24.08
24.02
24.18
24.41
24.64
24.95
25.43
26.14
26.9
27.41
27.32
26.43
24.71
22.35
19.63
16.79
13.96
11.19
8.54
6.11
4.07
2.65
1.97
2.06
2.74
3.79
4.94
5.97
6.69
6.99
6.81
6.15
5.12
3.84
2.45
1.05
-0.34
-1.72
-3.05
-4.27
-5.29
-6.06
-6.57
-6.9
-7.07
-7.13
-7.11
-7.02
-6.95
-7
-7.22
-7.63
-8.16
-8.75
-9.36
-10.08
-10.99
-12.15
-13.49
-14.88
-16.12
-17.08
-17.7
-17.99
-17.95
-17.58
-16.92
-16.06
-15.19
-14.53
-14.28
-14.55
-15.31
-16.4
-17.66
-18.92
-20.09
-21.14
-22.07
-22.89
-23.58
-24.14
-24.55
-24.88
-25.24
-25.72
-26.39
-27.16
-27.86
-28.31
-28.4
-28.16
-27.7
-27.1
-26.4
-25.59
-24.62
-23.56
-22.48
-21.52
-20.76
-20.23
-19.85
-19.51
-19.04
-18.23
-16.9
-14.88
-12.19
-9
-5.6
-2.3
0.63
3.08
5.02
6.47
7.48
8.11
8.5
8.84
9.35
10.1
11.05
12.01
12.73
13.09
13.08
12.88
12.72
12.77
13.04
13.34
13.46
13.17
12.42
11.35
10.17
9.14
8.38
7.88
7.47
6.98
6.29
5.39
4.37
3.3
2.26
1.29
0.54
0.16
0.4
1.35
2.94
4.85
6.65
7.93
8.45
8.2
7.3
5.96
4.35
2.64
1.03
-0.25
-1.04
-1.29
-1.17
-0.92
-0.84
-1.07
-1.65
-2.47
-3.37
-4.22
-4.92
-5.44
-5.81
-6.15
-6.56
-7.15
-7.92
-8.82
-9.74
-10.6
-11.39
-12.21
-13.2
-14.52
-16.27
-18.42
-20.76
-22.9
-24.32
-24.57
-23.42
-21.02
-17.85
-14.53
-11.6
-9.27
-7.49
-5.98
-4.52
-3.08
-1.78
-0.8
-0.23
-0.02
0.03
0.17
0.6
1.36
2.35
3.31
4.01
4.27
4.06
3.54
2.97
2.67
2.85
3.61
4.95
6.7
8.63
10.44
11.78
12.29
11.74
10.16
7.87
5.48
3.52
2.27
1.58
0.93
-0.24
-2.24
-4.89
-7.62
-9.79
-10.9
-10.88
-9.97
-8.61
-7.21
-6.06
-5.29
-4.95
-4.98
-5.32
-5.88
-6.59
-7.4
-8.23
-9.02
-9.61
-9.85
-9.59
-8.81
-7.58
-6.08
-4.56
-3.17
-2.02
-1.09
-0.26
0.6
1.55
2.57
3.59
4.49
5.27
6.01
6.81
7.69
8.53
9.13
9.25
8.78
7.72
6.21
4.34
2.09
-0.59
-3.7
-6.99
-10.04
-12.22
-13.05
-12.32
-10.23
-7.28
-4.09
-1.17
1.27
3.32
5.27
7.44
10.04
13.12
16.53
20.02
23.29
26.09
28.13
29.17
29.03
27.66
25.29
22.32
19.3
16.73
14.86
13.68
12.94
12.34
11.66
10.79
9.75
8.54
7.16
5.62
4.03
2.67
1.92
2.04
3.06
4.75
6.7
8.5
10.02
11.38
12.94
15.09
18.05
21.8
26.14
30.8
35.63
40.5
45.27
49.62
53.07
55.12
55.45
54.11
51.56
48.4
45.08
41.76
38.29
34.47
30.23
25.76
21.33
17.13
13.11
9.01
4.58
-0.22
-5.09
-9.55
-13.08
-15.33
-16.24
-15.99
-14.9
-13.35
-11.74
-10.45
-9.8
-10.04
-11.26
-13.41
-16.32
-19.78
-23.54
-27.31
-30.66
-33.02
-33.85
-32.82
-30.01
-26.06
-21.89
-18.45
-16.28
-15.39
-15.37
-15.61
-15.72
-15.58
-15.37
-15.27
-15.34
-15.41
-15.21
-14.56
-13.45
-12.06
-10.67
-9.51
-8.67
-8.07
-7.54
-6.93
-6.16
-5.29
-4.51
-3.97
-3.85
-4.12
-4.66
-5.22
-5.65
-5.89
-6.07
-6.37
-6.95
-7.86
-8.97
-10.08
-11.07
-11.87
-12.45
-12.76
-12.72
-12.16
-11.04
-9.42
-7.52
-5.6
-3.83
-2.27
-0.81
0.66
2.2
3.74
5.15
6.25
6.95
7.27
7.34
7.36
7.48
7.78
8.2
8.55
8.65
8.38
7.78
6.99
6.22
5.61
5.17
4.82
4.36
3.62
2.53
1.12
-0.47
-2.11
-3.73
-5.31
-6.96
-8.79
-10.82
-12.89
-14.69
-15.84
-16
-15.06
-13.13
-10.57
-7.81
-5.24
-3.09
-1.45
-0.23
0.61
1.13
1.34
1.28
1.08
0.89
0.83
0.95
1.13
1.18
0.99
0.57
0.06
-0.27
-0.19
0.38
1.38
2.67
4.09
5.56
7.02
8.41
9.64
10.57
11.11
11.17
10.75
9.84
8.46
6.59
4.2
1.39
-1.69
-4.77
-7.53
-9.65
-10.86
-11.06
-10.27
-8.7
-6.69
-4.63
-2.82
-1.41
-0.38
0.39
1.01
1.54
1.92
2.13
2.14
2.1
2.17
2.47
3.02
3.63
4.03
4.01
3.5
2.62
1.71
1.05
0.8
0.9
1.1
1.07
0.65
-0.18
-1.23
-2.29
-3.21
-4.06
-5.01
-6.28
-7.94
-9.83
-11.58
-12.71
-12.83
-11.81
-9.81
-7.31
-4.89
-3.09
-2.2
-2.2
-2.76
-3.44
-3.93
-4.16
-4.35
-4.84
-5.95
-7.76
-10.11
-12.72
-15.32
-17.81
-20.21
-22.65
-25.28
-28.24
-31.69
-35.79
-40.49
-45.38
-49.62
-52.01
-51.49
-47.53
-40.56
-31.83
-22.97
-15.46
-10.16
-7.16
-5.9
-5.42
-4.61
-2.44
1.9
8.87
18.48
30.31
43.65
57.72
71.77
85.17
97.27
107.35
114.74
118.96
119.94
118.08
114
108.33
101.38
93.26
83.93
73.5
62.29
50.89
39.93
29.91
21.15
13.71
7.5
2.39
-1.77
-5.2
-8.18
-11.11
-14.42
-18.43
-23.27
-28.7
-34.13
-38.78
-41.9
-42.99
-41.99
-39.28
-35.47
-31.28
-27.24
-23.68
-20.68
-18.19
-16.17
-14.63
-13.61
-13.15
-13.17
-13.48
-13.86
-14.14
-14.3
-14.38
-14.41
-14.36
-14.11
-13.56
-12.76
-11.96
-11.52
-11.75
-12.74
-14.32
-16.15
-17.9
-19.38
-20.6
-21.69
-22.83
-24.1
-25.45
-26.68
-27.46
-27.35
-25.92
-22.81
-17.81
-10.93
-2.34
7.63
18.53
29.81
40.81
50.79
59.01
64.91
68.14
68.72
67.04
63.68
59.27
54.31
49.11
43.74
38.07
31.73
24.2
14.88
3.45
-9.95
-24.59
-39.28
-52.75
-64.05
-72.78
-78.96
-82.76
-84.18
-83.01
-79.11
-72.78
-64.79
-56.13
-47.44
-38.66
-29.09
-17.86
-4.51
10.74
27.01
43.14
58.04
70.81
80.62
86.63
88.08
84.58
76.47
64.86
51.4
37.78
25.27
14.53
5.69
-1.49
-7.39
-12.47
-17.21
-22
-27.05
-32.3
-37.4
-41.9
-45.41
-47.8
-49.2
-49.92
-50.35
-50.81
-51.5
-52.44
-53.42
-54.1
-54.04
-52.88
-50.44
-46.81
-42.34
-37.5
-32.73
-28.32
-24.34
-20.79
-17.62
-14.84
-12.54
-10.77
-9.52
-8.67
-7.95
-7.15
-6.11
-4.89
-3.7
-2.8
-2.38
-2.45
-2.87
-3.4
-3.86
-4.17
-4.39
-4.64
-5.01
-5.48
-5.94
-6.31
-6.55
-6.72
-7
-7.51
-8.35
-9.53
-10.97
-12.53
-13.95
-14.86
-14.94
-13.94
-11.86
-8.99
-5.82
-2.87
-0.47
1.33
2.69
3.86
5.03
6.22
7.38
8.42
9.28
9.95
10.46
10.86
11.2
11.53
11.91
12.32
12.67
12.86
12.74
12.28
11.53
10.59
9.56
8.48
7.34
6.12
4.88
3.73
2.83
2.25
1.96
1.8
1.55
1.03
0.13
-1.14
-2.75
-4.57
-6.44
-8.2
-9.68
-10.73
-11.25
-11.18
-10.51
-9.28
-7.59
-5.59
-3.49
-1.5
0.22
1.63
2.79
3.83
4.86
5.87
6.78
7.48
7.94
8.25
8.57
9.03
9.69
10.4
10.92
11.01
10.53
9.55
8.28
6.99
5.88
5.01
4.27
3.48
2.47
1.17
-0.33
-1.84
-3.15
-4.13
-4.83
-5.39
-5.99
-6.75
-7.75
-9.06
-10.71
-12.67
-14.73
-16.46
-17.28
-16.63
-14.35
-10.7
-6.43
-2.38
0.78
2.81
3.95
4.61
5.26
6.14
7.22
8.35
9.3
9.94
10.25
10.39
10.52
10.79
11.24
11.79
12.33
12.72
12.92
12.9
12.7
12.26
11.58
10.61
9.41
8.1
6.84
5.73
4.75
3.74
2.57
1.17
-0.39
-1.95
-3.28
-4.26
-4.85
-5.18
-5.5
-6.08
-7.2
-8.98
-11.29
-13.69
-15.59
-16.31
-15.48
-13.1
-9.58
-5.6
-1.91
1.02
2.99
4.13
4.74
5.2
5.82
6.76
8.05
9.6
11.27
12.92
14.5
16.04
17.61
19.28
21.06
22.86
24.51
25.84
26.68
26.95
26.69
25.96
24.9
23.62
22.14
20.47
18.54
16.31
13.76
10.95
8
5.09
2.41
0.05
-1.96
-3.73
-5.46
-7.36
-9.61
-12.21
-14.96
-17.47
-19.23
-19.79
-18.89
-16.59
-13.23
-9.35
-5.56
-2.31
0.14
1.72
2.55
2.8
2.71
2.57
2.61
3.04
3.9
5.1
6.42
7.63
8.53
9.04
9.23
9.23
9.19
9.25
9.45
9.83
10.4
11.17
12.11
13.17
14.22
15.12
15.79
16.11
16.08
15.72
15.12
14.38
13.6
12.88
12.3
11.84
11.42
10.93
10.24
9.38
8.45
7.65
7.2
7.25
7.89
9.09
10.78
12.83
15.06
17.29
19.28
20.8
21.63
21.62
20.72
19.05
16.91
14.67
12.72
11.27
10.36
9.84
9.46
9.06
8.57
8.01
7.49
7.07
6.78
6.56
6.32
5.97
5.45
4.71
3.72
2.42
0.74
-1.44
-4.19
-7.48
-11.12
-14.65
-17.6
-19.55
-20.31
-19.98
-18.86
-17.34
-15.71
-14.15
-12.71
-11.36
-10.05
-8.79
-7.6
-6.52
-5.6
-4.83
-4.25
-3.83
-3.56
-3.44
-3.43
-3.49
-3.54
-3.46
-3.17
-2.63
-1.95
-1.3
-0.9
-0.89
-1.35
-2.24
-3.43
-4.75
-6.02
-7.1
-7.89
-8.46
-8.8
-8.94
-8.78
-8.15
-6.87
-4.92
-2.49
0.09
2.44
4.34
5.74
6.77
7.52
8.04
8.23
8.04
7.52
6.82
6.12
5.45
4.69
3.63
2.1
0.2
-1.81
-3.55
-4.77
-5.42
-5.64
-5.62
-5.48
-5.27
-4.96
-4.59
-4.26
-4.05
-4.02
-4.19
-4.52
-5.01
-5.65
-6.33
-6.87
-7
-6.48
-5.26
-3.53
-1.62
0.14
1.52
2.52
3.24
3.82
4.42
5.07
5.8
6.58
7.35
8
8.44
8.67
8.8
9.03
9.52
10.32
11.25
12
12.27
11.89
10.95
9.67
8.31
7.06
5.92
4.82
3.64
2.36
0.96
-0.52
-2.13
-3.98
-6.17
-8.65
-11.18
-13.39
-14.89
-15.44
-15.07
-14.03
-12.66
-11.27
-10.02
-8.89
-7.81
-6.69
-5.53
-4.41
-3.38
-2.47
-1.62
-0.72
0.34
1.58
2.96
4.38
5.77
7.11
8.43
9.81
11.29
12.91
14.58
16.22
17.68
18.87
19.7
20.12
20.14
19.74
18.93
17.69
16
13.92
11.56
9.09
6.69
4.48
2.5
0.68
-1.07
-2.84
-4.64
-6.39
-7.96
-9.13
-9.76
-9.69
-8.93
-7.6
-5.95
-4.18
-2.47
-0.9
0.48
1.63
2.48
2.94
2.99
2.69
2.23
1.8
1.52
1.33
1.07
0.57
-0.24
-1.23
-2.19
-2.95
-3.42
-3.71
-3.92
-4.17
-4.42
-4.6
-4.62
-4.51
-4.38
-4.38
-4.59
-4.98
-5.4
-5.7
-5.83
-5.88
-5.98
-6.27
-6.8
-7.52
-8.31
-9.01
-9.43
-9.42
-8.88
-7.81
-6.31
-4.63
-3.01
-1.66
-0.67
0.01
0.52
0.98
1.5
2.07
2.6
2.97
3.12
3.05
2.87
2.77
2.89
3.31
3.94
4.68
5.4
6.02
6.5
6.83
6.95
6.81
6.44
5.92
5.49
5.34
5.55
6.07
6.69
7.21
7.41
7.24
6.66
5.67
4.29
2.55
0.51
-1.76
-4.16
-6.63
-9.02
-11.14
-12.69
-13.4
-13.13
-11.95
-10.23
-8.39
-6.82
-5.65
-4.79
-4.02
-3.16
-2.16
-1.1
-0.15
0.63
1.25
1.73
2.09
2.22
2.02
1.38
0.43
-0.6
-1.34
-1.58
-1.31
-0.7
-0.11
0.23
0.24
0.03
-0.16
-0.11
0.34
1.16
2.31
3.68
5.21
6.85
8.57
10.34
12.1
13.81
15.45
17.05
18.59
20
21.07
21.51
21.11
19.77
17.66
15.12
12.56
10.31
8.5
7.12
6
4.96
3.83
2.48
0.83
-1.14
-3.3
-5.46
-7.32
-8.68
-9.41
-9.62
-9.51
-9.28
-9.09
-8.95
-8.78
-8.48
-8.03
-7.49
-7.04
-6.85
-7
-7.46
-8.11
-8.85
-9.66
-10.6
-11.76
-13.21
-14.92
-16.79
-18.67
-20.46
-21.99
-23.09
-23.53
-23.12
-21.83
-19.83
-17.48
-15.19
-13.25
-11.72
-10.43
-9.16
-7.74
-6.09
-4.26
-2.32
-0.37
1.47
2.98
3.92
4.08
3.43
2.11
0.44
-1.26
-2.77
-4.1
-5.37
-6.74
-8.31
-10.02
-11.7
-13.21
-14.42
-15.3
-15.88
-16.24
-16.5
-16.83
-17.34
-18.07
-18.92
-19.6
-19.82
-19.34
-18.12
-16.35
-14.33
-12.44
-10.91
-9.86
-9.28
-9.04
-8.96
-8.85
-8.54
-7.93
-6.99
-5.77
-4.32
-2.63
-0.63
1.7
4.33
7.09
9.75
12.11
14.11
15.84
17.45
19.01
20.43
21.5
21.9
21.43
20.1
18.08
15.64
12.99
10.23
7.33
4.31
1.28
-1.52
-3.73
-5.11
-5.6
-5.35
-4.64
-3.8
-3.04
-2.44
-1.98
-1.59
-1.23
-0.86
-0.42
0.13
0.84
1.7
2.62
3.47
4.16
4.64
4.95
5.18
5.45
5.8
6.24
6.7
7.09
7.36
7.47
7.42
7.3
7.22
7.33
7.75
8.57
9.77
11.25
12.86
14.39
15.7
16.66
17.27
17.62
17.83
18
18.17
18.29
18.23
17.88
17.18
16.09
14.61
12.78
10.63
8.22
5.74
3.39
1.45
0.07
-0.67
-0.86
-0.65
-0.14
0.57
1.46
2.5
3.64
4.79
5.83
6.74
7.53
8.34
9.26
10.38
11.62
12.85
13.86
14.51
14.84
15.02
15.34
16.05
17.25
18.82
20.47
21.86
22.71
22.9
22.46
21.54
20.36
19.15
18.03
17.1
16.33
15.62
14.83
13.77
12.32
10.44
8.18
5.68
3.09
0.56
-1.8
-3.93
-5.77
-7.23
-8.23
-8.68
-8.56
-7.91
-6.93
-5.9
-5.14
-4.92
-5.28
-6.12
-7.17
-8.15
-8.87
-9.28
-9.45
-9.47
-9.38
-9.13
-8.68
-8.08
-7.51
-7.22
-7.41
-8.07
-8.94
-9.6
-9.67
-8.96
-7.54
-5.7
-3.77
-1.99
-0.46
0.79
1.77
2.39
2.49
1.97
0.82
-0.81
-2.69
-4.54
-6.14
-7.41
-8.38
-9.2
-10.02
-10.92
-11.89
-12.82
-13.54
-13.97
-14.11
-14.11
-14.16
-14.43
-15.04
-15.94
-17.06
-18.35
-19.76
-21.26
-22.76
-24.07
-24.9
-25.03
-24.27
-22.63
-20.25
-17.42
-14.47
-11.78
-9.64
-8.19
-7.39
-6.99
-6.66
-6.11
-5.25
-4.16
-3.05
-2.11
-1.41
-0.84
-0.27
0.34
0.92
1.31
1.36
1.05
0.45
-0.32
-1.18
-2.08
-3.04
-4.03
-5.01
-5.92
-6.72
-7.47
-8.26
-9.17
-10.2
-11.28
-12.21
-12.75
-12.68
-11.84
-10.18
-7.8
-4.89
-1.74
1.34
4.1
6.32
7.9
8.88
9.35
9.53
9.66
9.91
10.35
10.9
11.38
11.63
11.58
11.28
10.8
10.27
9.74
9.19
8.63
8.07
7.57
7.25
7.16
7.27
7.47
7.61
7.57
7.27
6.68
5.84
4.83
3.76
2.77
1.98
1.36
0.75
-0.07
-1.24
-2.73
-4.33
-5.68
-6.46
-6.54
-5.98
-4.93
-3.61
-2.11
-0.5
1.14
2.72
4.06
5.07
5.7
6.04
6.23
6.36
6.43
6.42
6.29
6.02
5.64
5.2
4.73
4.26
3.79
3.34
2.98
2.75
2.69
2.74
2.84
2.87
2.78
2.55
2.23
1.89
1.56
1.22
0.8
0.22
-0.51
-1.34
-2.14
-2.82
-3.33
-3.62
-3.71
-3.58
-3.28
-2.88
-2.53
-2.35
-2.4
-2.65
-2.92
-3.03
-2.84
-2.3
-1.47
-0.51
0.4
1.09
1.45
1.47
1.23
0.93
0.68
0.54
0.4
0.11
-0.49
-1.44
-2.74
-4.27
-5.85
-7.22
-7.95
-7.58
-5.77
-2.49
1.8
6.3
10.07
12.38
12.94
11.9
9.72
6.94
3.96
1.02
-1.78
-4.39
-6.77
-8.86
-10.64
-12.05
-13.08
-13.72
-13.96
-13.8
-13.28
-12.43
-11.33
-10.11
-8.92
-7.9
-7.12
-6.59
-6.21
-5.86
-5.42
-4.84
-4.16
-3.46
-2.86
-2.41
-2.12
-1.93
-1.8
-1.69
-1.57
-1.44
-1.26
-0.97
-0.53
0.11
0.98
2.08
3.41
4.94
6.59
8.22
9.64
10.66
11.19
11.28
11.08
10.86
10.81
11.01
11.4
11.85
12.2
12.36
12.24
11.84
11.2
10.41
9.65
9.17
9.25
10.06
11.59
13.55
15.42
16.63
16.73
15.62
13.54
11.03
8.66
6.86
5.78
5.25
5.01
4.8
4.48
4.06
3.64
3.31
3.06
2.85
2.58
2.19
1.67
1.05
0.35
-0.37
-1.1
-1.82
-2.52
-3.24
-4.02
-4.94
-6.09
-7.49
-9.11
-10.82
-12.47
-13.93
-15.09
-15.91
-16.34
-16.37
-15.94
-15.06
-13.76
-12.17
-10.39
-8.57
-6.8
-5.09
-3.47
-1.93
-0.46
0.94
2.27
3.53
4.65
5.55
6.19
6.55
6.73
6.89
7.14
7.49
7.87
8.19
8.42
8.58
8.72
8.78
8.63
8.1
7.1
5.75
4.35
3.28
2.82
3.03
3.71
4.59
5.38
5.92
6.16
6.16
5.99
5.76
5.52
5.3
5.11
4.92
4.7
4.4
4.01
3.5
2.88
2.15
1.25
0.1
-1.35
-3.08
-4.99
-6.93
-8.74
-10.34
-11.7
-12.88
-13.96
-15.05
-16.25
-17.56
-18.88
-19.96
-20.4
-19.85
-18.18
-15.6
-12.66
-10
-8.14
-7.25
-7.15
-7.5
-7.97
-8.42
-8.83
-9.24
-9.59
-9.77
-9.65
-9.18
-8.51
-7.9
-7.65
-7.96
-8.84
-10.07
-11.3
-12.14
-12.35
-11.89
-10.97
-9.91
-9.09
-8.71
-8.81
-9.16
-9.48
-9.58
-9.39
-9
-8.58
-8.22
-7.96
-7.74
-7.49
-7.18
-6.82
-6.41
-5.91
-5.19
-4.23
-3.08
-1.92
-0.95
-0.31
0.02
0.17
0.28
0.47
0.73
0.99
1.22
1.41
1.59
1.81
2.1
2.45
2.86
3.33
3.89
4.56
5.29
6
6.6
7.02
7.3
7.56
7.9
8.46
9.28
10.34
11.57
12.85
14.04
15.01
15.64
15.84
15.58
14.94
14.05
13.09
12.26
11.61
11.11
10.63
10.05
9.29
8.45
7.74
7.43
7.67
8.48
9.68
10.96
12.07
12.91
13.56
14.19
14.98
15.94
16.94
17.81
18.4
18.68
18.72
18.6
18.32
17.82
16.93
15.57
13.8
11.79
9.74
7.78
5.96
4.29
2.81
1.67
1
0.79
0.89
0.96
0.73
0.11
-0.72
-1.41
-1.68
-1.42
-0.77
0
0.76
1.47
2.28
3.27
4.41
5.54
6.4
6.79
6.61
5.86
4.64
3.08
1.32
-0.52
-2.37
-4.24
-6.21
-8.38
-10.76
-13.27
-15.73
-17.93
-19.8
-21.38
-22.81
-24.23
-25.66
-26.95
-27.82
-28.03
-27.43
-26.09
-24.24
-22.2
-20.33
-18.83
-17.79
-17.15
-16.74
-16.33
-15.74
-14.89
-13.79
-12.62
-11.6
-11.01
-11.06
-11.84
-13.34
-15.38
-17.64
-19.71
-21.24
-22.01
-22
-21.33
-20.23
-18.94
-17.59
-16.25
-14.97
-13.82
-12.95
-12.49
-12.53
-12.99
-13.72
-14.55
-15.41
-16.27
-17.18
-18.1
-18.97
-19.74
-20.42
-21.19
-22.24
-23.73
-25.66
-27.87
-30.11
-32.26
-34.34
-36.59
-39.33
-42.76
-46.83
-51.2
-55.25
-58.24
-59.53
-58.71
-55.74
-50.93
-44.83
-38.08
-31.23
-24.61
-18.39
-12.54
-6.97
-1.62
3.51
8.32
12.68
16.5
19.79
22.64
25.21
27.63
29.95
32.14
34.14
35.88
37.38
38.66
39.72
40.5
40.87
40.66
39.79
38.21
35.99
33.25
30.16
26.83
23.39
19.93
16.48
13.02
9.44
5.54
1.11
-4.05
-9.94
-16.26
-22.42
-27.59
-30.97
-32.07
-30.84
-27.71
-23.38
-18.56
-13.71
-9
-4.37
0.27
4.92
9.42
13.55
17.09
20.05
22.49
24.6
26.46
28.07
29.33
30.12
30.42
30.29
29.92
29.49
29.14
28.89
28.68
28.33
27.69
26.59
24.98
22.92
20.66
18.51
16.72
15.28
13.86
11.94
9.09
5.19
0.58
-4.11
-8.29
-11.64
-14.3
-16.75
-19.5
-22.96
-27.32
-32.58
-38.66
-45.3
-51.93
-57.63
-61.21
-61.55
-58.1
-51.07
-41.55
-31.06
-21.02
-12.29
-4.95
1.47
7.54
13.59
19.58
25.21
30.16
34.36
37.95
41.17
44.18
46.9
49.06
50.39
50.72
50.13
48.85
47.21
45.44
43.69
41.94
40.12
38.12
35.82
33.16
30.1
26.72
23.17
19.63
16.26
13.12
10.16
7.23
4.25
1.18
-1.89
-4.81
-7.38
-9.45
-11
-12.06
-12.81
-13.46
-14.3
-15.62
-17.71
-20.64
-24.18
-27.6
-29.82
-29.64
-26.15
-19.16
-9.24
2.38
14.23
25.07
34.17
41.3
46.58
50.21
52.43
53.5
53.71
53.42
52.94
52.41
51.8
50.91
49.59
47.83
45.76
43.62
41.57
39.64
37.69
35.56
33.1
30.34
27.42
24.46
21.56
18.69
15.81
12.88
9.98
7.21
4.69
2.44
0.41
-1.45
-3.12
-4.51
-5.54
-6.11
-6.26
-6.11
-5.82
-5.56
-5.4
-5.37
-5.4
-5.43
-5.38
-5.16
-4.71
-3.98
-2.94
-1.64
-0.25
1.01
1.88
2.13
1.79
1.01
0.09
-0.67
-1.14
-1.35
-1.52
-1.88
-2.59
-3.65
-4.96
-6.31
-7.54
-8.51
-9.16
-9.51
-9.59
-9.48
-9.25
-8.95
-8.58
-8.14
-7.59
-6.93
-6.15
-5.29
-4.39
-3.5
-2.7
-2.02
-1.49
-1.08
-0.71
-0.26
0.3
0.95
1.56
1.95
1.97
1.58
0.82
-0.15
-1.13
-1.94
-2.42
-2.5
-2.19
-1.63
-1
-0.53
-0.35
-0.47
-0.84
-1.32
-1.86
-2.46
-3.2
-4.15
-5.28
-6.49
-7.61
-8.56
-9.34
-10.09
-10.98
-12.12
-13.49
-14.9
-16.12
-16.98
-17.4
-17.44
-17.24
-16.99
-16.81
-16.73
-16.72
-16.69
-16.51
-16.07
-15.34
-14.36
-13.23
-12.15
-11.31
-11.01
-11.47
-12.88
-15.23
-18.22
-21.3
-23.68
-24.68
-23.95
-21.71
-18.64
-15.62
-13.43
-12.39
-12.35
-12.87
-13.48
-13.93
-14.2
-14.41
-14.55
-14.47
-13.92
-12.7
-10.94
-9
-7.41
-6.57
-6.59
-7.28
-8.3
-9.33
-10.17
-10.76
-11.12
-11.24
-11.13
-10.81
-10.37
-10.01
-9.91
-10.27
-11.15
-12.41
-13.73
-14.64
-14.65
-13.38
-10.78
-7.14
-2.95
1.2
4.87
7.88
10.28
12.24
13.92
15.37
16.56
17.43
17.99
18.33
18.6
18.88
19.23
19.58
19.82
19.87
19.73
19.51
19.36
19.4
19.61
19.87
19.97
19.77
19.25
18.51
17.74
17.09
16.58
16.17
15.7
15.02
14.02
12.68
11.06
9.33
7.77
6.71
6.41
6.99
8.29
9.94
11.5
12.63
13.24
13.46
13.6
13.9
14.46
15.19
15.86
16.25
16.23
15.82
15.14
14.3
13.39
12.4
11.34
10.19
8.94
7.6
6.16
4.63
2.98
1.28
-0.37
-1.82
-3.02
-4.03
-5.02
-6.18
-7.66
-9.44
-11.41
-13.43
-15.41
-17.31
-19.07
-20.56
-21.57
-21.89
-21.41
-20.18
-18.44
-16.43
-14.39
-12.48
-10.75
-9.24
-7.97
-6.94
-6.11
-5.49
-5.04
-4.75
-4.63
-4.64
-4.74
-4.84
-4.91
-4.98
-5.18
-5.62
-6.37
-7.39
-8.53
-9.65
-10.61
-11.35
-11.87
-12.21
-12.45
-12.75
-13.32
-14.37
-16.06
-18.36
-20.97
-23.37
-24.97
-25.32
-24.22
-21.88
-18.74
-15.32
-12
-8.98
-6.29
-3.82
-1.52
0.62
2.57
4.31
5.85
7.22
8.5
9.7
10.86
11.97
13.03
14.03
14.96
15.77
16.43
16.92
17.22
17.39
17.45
17.46
17.43
17.41
17.43
17.51
17.63
17.7
17.56
17.06
16.15
14.95
13.74
12.82
12.41
12.47
12.78
13.04
12.99
12.54
11.76
10.81
9.78
8.72
7.66
6.61
5.61
4.75
4.08
3.59
3.19
2.75
2.17
1.43
0.56
-0.37
-1.3
-2.24
-3.2
-4.23
-5.3
-6.35
-7.29
-8.02
-8.49
-8.7
-8.71
-8.57
-8.33
-8.07
-7.83
-7.64
-7.52
-7.48
-7.47
-7.47
-7.44
-7.43
-7.55
-7.88
-8.45
-9.22
-10.03
-10.77
-11.38
-11.9
-12.48
-13.25
-14.29
-15.62
-17.24
-19.2
-21.51
-24.08
-26.62
-28.54
-29.2
-28.12
-25.26
-21.05
-16.25
-11.6
-7.56
-4.26
-1.54
0.81
2.89
4.6
5.83
6.59
7.06
7.53
8.25
9.3
10.54
11.69
12.49
12.81
12.67
12.22
11.62
10.94
10.17
9.26
8.16
6.88
5.51
4.13
2.79
1.49
0.16
-1.3
-2.94
-4.72
-6.48
-8.07
-9.41
-10.57
-11.72
-13.07
-14.71
-16.6
-18.62
-20.69
-22.85
-25.16
-27.51
-29.55
-30.69
-30.36
-28.28
-24.68
-20.19
-15.61
-11.56
-8.3
-5.75
-3.65
-1.82
-0.18
1.25
2.43
3.43
4.34
5.23
6.07
6.8
7.33
7.65
7.79
7.89
8.03
8.28
8.64
9.02
9.35
9.55
9.57
9.45
9.3
9.25
9.37
9.66
10
10.23
10.16
9.71
8.89
7.82
6.65
5.53
4.55
3.78
3.2
2.74
2.26
1.59
0.56
-0.86
-2.57
-4.26
-5.47
-5.75
-4.8
-2.57
0.67
4.46
8.33
11.89
14.98
17.58
19.78
21.61
23.07
24.09
24.63
24.69
24.3
23.5
22.35
20.91
19.29
17.65
16.16
14.96
14.13
13.64
13.41
13.36
13.39
13.48
13.66
13.95
14.38
14.86
15.25
15.4
15.15
14.46
13.4
12.1
10.72
9.38
8.13
6.96
5.82
4.51
2.86
0.7
-2.01
-5.1
-8.16
-10.71
-12.35
-12.91
-12.53
-11.56
-10.4
-9.37
-8.6
-8.04
-7.62
-7.28
-7.02
-6.87
-6.83
-6.85
-6.8
-6.57
-6.15
-5.59
-5.05
-4.7
-4.67
-4.97
-5.54
-6.26
-7.06
-7.93
-8.99
-10.32
-12
-13.97
-16.06
-18.11
-19.96
-21.62
-23.18
-24.84
-26.72
-28.83
-31
-32.87
-33.96
-33.84
-32.22
-29.09
-24.74
-19.71
-14.59
-9.88
-5.88
-2.63
-0.04
2.06
3.85
5.45
6.96
8.4
9.71
10.83
11.64
12.05
11.99
11.42
10.36
8.87
6.97
4.76
2.3
-0.33
-3.07
-5.86
-8.64
-11.35
-13.89
-16.12
-17.98
-19.47
-20.77
-22.13
-23.72
-25.53
-27.21
-28.24
-28.05
-26.32
-23.12
-18.87
-14.19
-9.64
-5.56
-2.07
0.92
3.49
5.7
7.57
9.1
10.31
11.32
12.25
13.21
14.22
15.22
16.04
16.5
16.54
16.18
15.58
14.96
14.42
13.92
13.28
12.27
10.8
8.98
7.14
5.6
4.59
4.08
3.82
3.53
2.91
1.83
0.31
-1.5
-3.39
-5.07
-6.24
-6.64
-6.09
-4.63
-2.44
0.18
2.86
5.31
7.35
8.89
9.91
10.48
10.6
10.38
9.95
9.46
9.02
8.68
8.34
7.86
7.17
6.24
5.25
4.42
3.97
3.92
4.22
4.64
5
5.22
5.32
5.4
5.51
5.67
5.85
6.03
6.19
6.35
6.51
6.63
6.66
6.52
6.18
5.71
5.23
4.87
4.69
4.65
4.6
4.44
4.12
3.77
3.62
3.86
4.59
5.74
7.09
8.42
9.6
10.64
11.62
12.65
13.72
14.74
15.68
16.56
17.48
18.54
19.81
21.21
22.59
23.82
24.84
25.72
26.55
27.43
28.34
29.21
29.96
30.58
31.1
31.67
32.44
33.52
34.9
36.43
37.85
38.85
39.21
38.81
37.66
35.88
33.57
30.83
27.7
24.23
20.54
16.82
13.2
9.78
6.51
3.29
0.09
-3.04
-5.95
-8.49
-10.63
-12.42
-13.98
-15.41
-16.72
-17.86
-18.76
-19.47
-20.12
-20.8
-21.6
-22.47
-23.29
-23.94
-24.43
-24.88
-25.51
-26.5
-27.92
-29.65
-31.43
-32.98
-34.12
-34.86
-35.35
-35.83
-36.42
-37.02
-37.32
-36.93
-35.55
-33.12
-29.79
-25.87
-21.71
-17.63
-13.9
-10.75
-8.3
-6.6
-5.53
-4.83
-4.26
-3.7
-3.17
-2.87
-2.94
-3.41
-4.16
-5.02
-5.89
-6.78
-7.81
-9.07
-10.59
-12.25
-13.86
-15.22
-16.19
-16.7
-16.73
-16.37
-15.79
-15.26
-15.11
-15.59
-16.79
-18.5
-20.27
-21.56
-21.9
-21.08
-19.2
-16.63
-13.75
-10.91
-8.28
-5.87
-3.65
-1.58
0.33
2.03
3.56
5
6.45
7.98
9.58
11.15
12.55
13.61
14.26
14.44
14.15
13.42
12.27
10.84
9.28
7.81
6.58
5.65
4.93
4.25
3.44
2.34
0.94
-0.78
-2.8
-5.13
-7.83
-10.82
-13.87
-16.59
-18.52
-19.26
-18.69
-16.96
-14.47
-11.74
-9.18
-7.07
-5.42
-4.12
-3.01
-1.93
-0.81
0.37
1.54
2.67
3.68
4.55
5.22
5.64
5.76
5.6
5.25
4.82
4.46
4.19
3.93
3.51
2.81
1.79
0.54
-0.74
-1.89
-2.83
-3.61
-4.37
-5.3
-6.6
-8.33
-10.45
-12.7
-14.68
-15.89
-15.98
-14.83
-12.63
-9.85
-6.97
-4.43
-2.42
-0.93
0.18
1.1
1.96
2.87
3.85
4.9
5.88
6.67
7.18
7.38
7.42
7.51
7.87
8.6
9.73
11.14
12.75
14.46
16.19
17.78
19.04
19.82
20
19.66
18.98
18.2
17.43
16.68
15.8
14.58
12.9
10.73
8.19
5.44
2.62
-0.17
-2.86
-5.32
-7.34
-8.67
-9.09
-8.52
-7.06
-5.06
-2.96
-1.15
0.17
1.04
1.64
2.16
2.72
3.32
3.92
4.51
5.05
5.55
5.99
6.32
6.48
6.44
6.23
5.93
5.62
5.37
5.18
5.04
4.89
4.74
4.63
4.57
4.62
4.77
5
5.26
5.51
5.69
5.77
5.69
5.44
5.02
4.48
3.86
3.25
2.73
2.33
2.06
1.89
1.78
1.71
1.67
1.64
1.61
1.56
1.51
1.51
1.59
1.74
1.92
2.06
2.17
2.34
2.68
3.29
4.16
5.16
6.08
6.76
7.13
7.26
7.22
7.05
6.74
6.2
5.36
4.17
2.69
0.98
-0.86
-2.77
-4.72
-6.65
-8.47
-10.06
-11.27
-12.03
-12.3
-12.17
-11.68
-10.84
-9.62
-7.97
-5.86
-3.37
-0.62
2.28
5.16
7.88
10.27
12.17
13.44
14.08
14.23
14.17
14.16
14.37
14.81
15.38
15.96
16.53
17.14
17.83
18.6
19.34
19.86
19.97
19.57
18.75
17.65
16.48
15.42
14.55
13.94
13.63
13.6
13.82
14.13
14.33
14.21
13.6
12.47
10.89
9.02
6.96
4.75
2.39
-0.09
-2.6
-4.98
-7.11
-8.95
-10.54
-12.02
-13.44
-14.81
-16.07
-17.12
-17.83
-18.13
-17.94
-17.24
-16.08
-14.67
-13.28
-12.24
-11.77
-11.91
-12.49
-13.27
-14.07
-14.78
-15.4
-15.96
-16.42
-16.69
-16.74
-16.54
-16.18
-15.75
-15.26
-14.66
-13.85
-12.82
-11.58
-10.25
-8.93
-7.69
-6.49
-5.23
-3.82
-2.19
-0.38
1.48
3.19
4.54
5.29
5.41
4.97
4.2
3.44
2.99
3.01
3.54
4.46
5.61
6.85
8.09
9.19
10.03
10.47
10.44
9.97
9.28
8.69
8.5
8.86
9.66
10.64
11.43
11.79
11.63
11.01
10.06
8.9
7.61
6.24
4.9
3.65
2.6
1.76
0.99
0.14
-1
-2.5
-4.31
-6.22
-7.96
-9.36
-10.31
-10.88
-11.17
-11.3
-11.35
-11.4
-11.53
-11.85
-12.44
-13.32
-14.43
-15.6
-16.7
-17.54
-18.04
-18.13
-17.83
-17.17
-16.25
-15.18
-14.05
-12.95
-11.94
-11.03
-10.25
-9.59
-9.07
-8.67
-8.34
-8.05
-7.8
-7.65
-7.65
-7.84
-8.12
-8.27
-8.05
-7.25
-5.82
-3.88
-1.62
0.75
3.05
5.23
7.26
9.15
10.85
12.39
13.75
15.03
16.34
17.75
19.33
20.97
22.55
23.91
24.94
25.66
26.17
26.63
27.08
27.47
27.56
27.09
25.87
23.96
21.6
19.18
17.04
15.32
13.94
12.63
11.09
9.14
6.78
4.18
1.59
-0.78
-2.84
-4.6
-6.18
-7.66
-9.09
-10.44
-11.68
-12.86
-14.07
-15.41
-16.93
-18.57
-20.16
-21.48
-22.41
-22.94
-23.28
-23.67
-24.29
-25.16
-26.14
-27.03
-27.66
-27.99
-28.1
-28.11
-28.15
-28.28
-28.59
-29.16
-30.06
-31.32
-32.75
-33.91
-34.28
-33.47
-31.36
-28.24
-24.64
-21.08
-17.86
-14.94
-12.14
-9.29
-6.42
-3.76
-1.61
-0.1
0.89
1.68
2.61
3.85
5.31
6.64
7.5
7.64
7.06
5.98
4.71
3.54
2.59
1.85
1.17
0.44
-0.43
-1.54
-2.92
-4.72
-7.15
-10.36
-14.27
-18.53
-22.51
-25.51
-27.03
-26.94
-25.44
-23.01
-20.1
-17.06
-14.06
-11.12
-8.26
-5.51
-2.88
-0.42
1.84
3.82
5.49
6.79
7.79
8.67
9.64
10.9
12.52
14.39
16.34
18.2
19.96
21.66
23.44
25.36
27.36
29.22
30.67
31.54
31.79
31.58
31.16
30.77
30.5
30.27
29.87
29.09
27.87
26.21
24.19
21.88
19.33
16.61
13.88
11.46
9.69
8.83
8.86
9.54
10.48
11.31
11.85
12.1
12.19
12.24
12.34
12.48
12.61
12.7
12.66
12.37
11.67
10.4
8.51
6.07
3.32
0.56
-1.85
-3.73
-5.08
-6.14
-7.27
-8.84
-11.08
-14
-17.4
-20.94
-24.36
-27.5
-30.38
-33.12
-35.91
-38.88
-42.14
-45.65
-49.15
-52.18
-54.03
-54
-51.71
-47.28
-41.35
-34.88
-28.71
-23.33
-18.79
-14.77
-10.95
-7.16
-3.47
-0.08
2.87
5.32
7.36
9.06
10.45
11.46
11.99
12.01
11.61
10.96
10.29
9.72
9.16
8.37
7.09
5.13
2.55
-0.37
-3.22
-5.65
-7.47
-8.78
-9.91
-11.32
-13.43
-16.51
-20.54
-25.19
-29.79
-33.54
-35.65
-35.67
-33.61
-29.96
-25.49
-20.87
-16.48
-12.25
-7.89
-3.12
2.11
7.57
12.89
17.75
22.03
25.81
29.17
32.13
34.49
35.99
36.39
35.65
33.93
31.54
28.88
26.24
23.79
21.55
19.41
17.23
14.92
12.39
9.67
6.81
3.95
1.2
-1.33
-3.58
-5.56
-7.37
-9.12
-10.91
-12.83
-14.98
-17.44
-20.2
-23.08
-25.72
-27.61
-28.27
-27.42
-25.08
-21.65
-17.62
-13.51
-9.64
-6.14
-2.96
-0.03
2.67
5.07
7.09
8.7
9.96
10.97
11.89
12.82
13.8
14.79
15.78
16.72
17.65
18.56
19.45
20.25
20.87
21.23
21.34
21.24
20.99
20.64
20.11
19.34
18.29
17.02
15.67
14.39
13.24
12.2
11.12
9.89
8.51
7.12
5.91
5
4.32
3.67
2.82
1.63
0.2
-1.18
-2.23
-2.78
-2.85
-2.6
-2.23
-1.86
-1.5
-1.09
-0.58
-0.04
0.42
0.7
0.72
0.56
0.35
0.21
0.17
0.18
0.13
-0.07
-0.43
-0.85
-1.16
-1.24
-0.99
-0.4
0.48
1.6
2.91
4.31
5.69
6.94
7.95
8.63
9
9.14
9.16
9.14
9.11
8.99
8.69
8.16
7.43
6.61
5.84
5.18
4.61
4.02
3.34
2.57
1.87
1.39
1.29
1.59
2.2
2.91
3.56
3.99
4.21
4.25
4.21
4.19
4.25
4.41
4.64
4.91
5.18
5.42
5.64
5.81
5.85
5.72
5.41
4.93
4.36
3.74
3.13
2.53
1.91
1.2
0.37
-0.61
-1.74
-2.93
-4.07
-4.96
-5.48
-5.59
-5.4
-5.09
-4.82
-4.6
-4.34
-3.89
-3.12
-2.04
-0.76
0.56
1.84
3.05
4.22
5.41
6.56
7.63
8.5
9.1
9.47
9.69
9.96
10.38
11.04
11.88
12.81
13.73
14.63
15.54
16.49
17.41
18.09
18.29
17.83
16.73
15.26
13.76
12.5
11.54
10.79
10.08
9.34
8.6
8.04
7.79
7.89
8.27
8.75
9.19
9.48
9.57
9.46
9.13
8.61
7.91
7.08
6.18
5.26
4.38
3.54
2.72
1.89
1.01
0.1
-0.79
-1.58
-2.28
-2.92
-3.61
-4.48
-5.57
-6.79
-7.98
-8.92
-9.44
-9.55
-9.34
-8.96
-8.5
-8.02
-7.49
-6.88
-6.25
-5.64
-5.15
-4.74
-4.33
-3.77
-2.9
-1.69
-0.24
1.21
2.38
3.07
3.25
3.06
2.77
2.66
2.84
3.24
3.68
3.94
3.91
3.61
3.17
2.7
2.25
1.8
1.31
0.82
0.47
0.36
0.59
1.08
1.65
2.09
2.24
2.05
1.61
1.08
0.57
0.11
-0.39
-1.02
-1.85
-2.83
-3.86
-4.8
-5.54
-6.02
-6.25
-6.22
-5.97
-5.49
-4.83
-4.08
-3.3
-2.56
-1.88
-1.3
-0.87
-0.66
-0.74
-1.1
-1.69
-2.36
-3.02
-3.57
-3.99
-4.27
-4.42
-4.41
-4.26
-4.01
-3.7
-3.38
-3.09
-2.9
-2.89
-3.16
-3.78
-4.77
-6.03
-7.45
-8.96
-10.56
-12.28
-14.13
-15.99
-17.63
-18.79
-19.34
-19.29
-18.77
-17.97
-17.02
-15.99
-14.85
-13.6
-12.23
-10.83
-9.47
-8.22
-7.08
-6
-4.93
-3.88
-2.85
-1.95
-1.24
-0.76
-0.48
-0.3
-0.13
0.07
0.27
0.42
0.44
0.35
0.21
0.12
0.19
0.43
0.79
1.14
1.35
1.37
1.23
1
0.79
0.68
0.72
0.89
1.21
1.63
2.1
2.51
2.75
2.66
2.16
1.25
0.06
-1.24
-2.44
-3.4
-4.02
-4.36
-4.51
-4.62
-4.85
-5.29
-6
-6.9
-7.86
-8.69
-9.23
-9.4
-9.24
-8.91
-8.58
-8.41
-8.43
-8.59
-8.75
-8.77
-8.6
-8.27
-7.89
-7.52
-7.16
-6.76
-6.2
-5.46
-4.57
-3.64
-2.78
-2.06
-1.46
-0.88
-0.26
0.41
1.07
1.63
2.06
2.41
2.8
3.38
4.21
5.23
6.26
7.07
7.5
7.5
7.17
6.67
6.16
5.74
5.44
5.27
5.26
5.43
5.76
6.21
6.65
7
7.15
7.07
6.77
6.3
5.72
5.09
4.51
4.02
3.62
3.21
2.65
1.82
0.73
-0.56
-1.86
-3.05
-4.03
-4.8
-5.39
-5.88
-6.32
-6.73
-7.12
-7.43
-7.62
-7.63
-7.48
-7.23
-7
-6.9
-6.98
-7.14
-7.21
-6.96
-6.28
-5.21
-3.93
-2.69
-1.75
-1.25
-1.15
-1.3
-1.53
-1.66
-1.64
-1.47
-1.17
-0.78
-0.31
0.15
0.48
0.47
-0.03
-1.03
-2.37
-3.69
-4.65
-5
-4.71
-3.9
-2.79
-1.59
-0.48
0.47
1.26
1.95
2.63
3.42
4.4
5.59
6.89
8.12
9.1
9.73
10.04
10.22
10.5
11.03
11.85
12.86
13.86
14.7
15.27
15.53
15.46
15.04
14.28
13.2
11.88
10.43
8.93
7.48
6.17
5.14
4.56
4.49
4.88
5.48
5.88
5.77
4.93
3.46
1.6
-0.32
-2.06
-3.57
-4.94
-6.29
-7.75
-9.4
-11.18
-13.02
-14.78
-16.34
-17.57
-18.35
-18.57
-18.16
-17.14
-15.65
-13.98
-12.44
-11.33
-10.75
-10.57
-10.54
-10.39
-9.98
-9.32
-8.52
-7.72
-6.89
-5.91
-4.66
-3.13
-1.5
-0.02
1.12
1.86
2.32
2.7
3.11
3.49
3.69
3.51
2.87
1.86
0.71
-0.39
-1.27
-1.9
-2.28
-2.46
-2.43
-2.2
-1.79
-1.24
-0.69
-0.28
-0.11
-0.25
-0.63
-1.14
-1.66
-2.13
-2.51
-2.84
-3.11
-3.31
-3.37
-3.25
-2.93
-2.48
-2.03
-1.67
-1.41
-1.21
-1.02
-0.81
-0.59
-0.38
-0.18
0.05
0.38
0.85
1.5
2.28
3.15
4
4.77
5.42
5.96
6.48
7.1
7.92
8.92
10.01
10.95
11.56
11.74
11.56
11.31
11.37
12.1
13.7
16.09
18.96
21.78
24.13
25.69
26.45
26.68
26.82
27.33
28.55
30.62
33.4
36.57
39.68
42.26
43.99
44.71
44.39
43.22
41.41
39.28
37.1
35.15
33.56
32.38
31.49
30.66
29.64
28.27
26.39
23.92
20.79
16.88
12.14
6.62
0.52
-5.76
-11.75
-16.99
-21.2
-24.31
-26.43
-27.76
-28.5
-28.79
-28.71
-28.34
-27.8
-27.2
-26.59
-25.9
-24.9
-23.38
-21.23
-18.62
-15.99
-13.91
-12.86
-13.03
-14.2
-15.86
-17.39
-18.34
-18.54
-18.14
-17.39
-16.52
-15.58
-14.5
-13.19
-11.69
-10.18
-8.91
-8.07
-7.73
-7.82
-8.28
-9.1
-10.35
-12.03
-14.07
-16.22
-18.15
-19.55
-20.25
-20.27
-19.78
-19.04
-18.32
-17.76
-17.45
-17.32
-17.28
-17.18
-16.91
-16.36
-15.53
-14.42
-13.08
-11.63
-10.18
-8.89
-7.86
-7.13
-6.65
-6.31
-5.95
-5.47
-4.86
-4.17
-3.54
-3.11
-2.98
-3.11
-3.38
-3.55
-3.46
-3.08
-2.53
-2.01
-1.73
-1.78
-2.11
-2.58
-2.99
-3.2
-3.14
-2.81
-2.28
-1.7
-1.2
-0.94
-0.94
-1.19
-1.51
-1.76
-1.84
-1.8
-1.75
-1.84
-2.09
-2.43
-2.66
-2.59
-2.14
-1.38
-0.5
0.3
0.87
1.18
1.3
1.34
1.36
1.38
1.37
1.23
0.93
0.51
0.11
-0.09
0.09
0.72
1.72
2.89
3.94
4.6
4.75
4.43
3.79
3.03
2.27
1.51
0.69
-0.3
-1.51
-2.85
-4.2
-5.37
-6.25
-6.84
-7.21
-7.47
-7.72
-7.96
-8.17
-8.31
-8.41
-8.55
-8.88
-9.5
-10.46
-11.72
-13.24
-14.92
-16.66
-18.29
-19.59
-20.21
-19.86
-18.33
-15.68
-12.21
-8.44
-4.85
-1.8
0.59
2.45
3.98
5.4
6.86
8.34
9.75
11.02
12.05
12.85
13.44
13.85
14.13
14.29
14.36
14.35
14.31
14.27
14.29
14.4
14.61
14.87
15.07
15.07
14.8
14.27
13.59
13
12.68
12.71
12.98
13.23
13.21
12.77
11.95
10.93
9.91
9.04
8.3
7.59
6.74
5.58
4.04
2.13
-0.02
-2.19
-4.1
-5.47
-6.15
-6.07
-5.34
-4.23
-3.09
-2.21
-1.79
-1.89
-2.36
-2.95
-3.41
-3.59
-3.52
-3.36
-3.32
-3.48
-3.84
-4.23
-4.52
-4.59
-4.45
-4.17
-3.83
-3.49
-3.16
-2.93
-2.84
-2.97
-3.35
-3.9
-4.48
-4.95
-5.21
-5.3
-5.29
-5.21
-5.09
-4.86
-4.37
-3.58
-2.47
-1.14
0.31
1.73
3.06
4.21
5.06
5.51
5.47
4.94
4.02
2.96
1.96
1.19
0.67
0.34
0.19
0.25
0.56
1.17
2
2.85
3.48
3.71
3.49
2.93
2.25
1.72
1.55
1.91
2.78
4.03
5.4
6.61
7.47
7.86
7.8
7.41
6.82
6.18
5.63
5.29
5.2
5.35
5.63
5.92
6.11
6.18
6.13
5.98
5.71
5.26
4.64
3.96
3.39
3.13
3.27
3.73
4.25
4.56
4.45
3.91
3.08
2.13
1.24
0.47
-0.15
-0.64
-0.97
-1.12
-1.1
-1.01
-0.98
-1.13
-1.48
-1.95
-2.4
-2.75
-2.98
-3.15
-3.35
-3.58
-3.81
-3.89
-3.7
-3.17
-2.32
-1.29
-0.22
0.71
1.42
1.92
2.26
2.5
2.67
2.73
2.67
2.54
2.42
2.42
2.53
2.64
2.56
2.15
1.4
0.49
-0.31
-0.8
-0.91
-0.77
-0.56
-0.47
-0.59
-0.97
-1.53
-2.16
-2.71
-3.01
-2.96
-2.53
-1.85
-1.16
-0.72
-0.71
-1.11
-1.74
-2.35
-2.72
-2.76
-2.49
-1.98
-1.3
-0.48
0.48
1.57
2.7
3.72
4.5
4.91
4.91
4.52
3.84
3.02
2.27
1.82
1.79
2.18
2.82
3.48
3.96
4.23
4.33
4.4
4.52
4.7
4.91
5.17
5.52
6.04
6.72
7.44
8.02
8.28
8.13
7.58
6.73
5.69
4.58
3.51
2.61
2.03
1.84
2.04
2.5
3
3.34
3.39
3.14
2.71
2.29
2.01
2.01
2.3
2.85
3.57
4.37
5.16
5.87
6.56
7.3
8.2
9.36
10.73
12.21
13.59
14.64
15.16
15.01
14.14
12.61
10.56
8.25
6.02
4.13
2.77
2.03
1.79
1.9
2.16
2.39
2.46
2.28
1.76
0.89
-0.29
-1.72
-3.24
-4.7
-5.92
-6.78
-7.19
-7.15
-6.72
-5.98
-5.08
-4.17
-3.39
-2.81
-2.47
-2.32
-2.28
-2.3
-2.41
-2.68
-3.14
-3.74
-4.38
-4.91
-5.22
-5.28
-5.17
-5.05
-5.06
-5.3
-5.82
-6.57
-7.42
-8.23
-8.81
-9.03
-8.79
-8.16
-7.32
-6.54
-6.11
-6.24
-6.99
-8.2
-9.58
-10.77
-11.48
-11.56
-11.05
-10.07
-8.84
-7.59
-6.51
-5.72
-5.31
-5.19
-5.18
-5.02
-4.5
-3.53
-2.29
-1.07
-0.17
0.25
0.21
-0.09
-0.41
-0.61
-0.66
-0.63
-0.64
-0.78
-1.11
-1.66
-2.42
-3.36
-4.38
-5.29
-5.94
-6.31
-6.6
-7.19
-8.43
-10.53
-13.29
-16.08
-17.96
-17.99
-15.63
-10.94
-4.66
2
7.69
11.38
12.59
11.51
8.79
5.31
1.87
-1.04
-3.2
-4.67
-5.58
-6.04
-6.15
-5.97
-5.65
-5.39
-5.39
-5.74
-6.34
-6.9
-7.11
-6.77
-5.91
-4.78
-3.72
-3.03
-2.86
-3.12
-3.62
-4.19
-4.66
-5.02
-5.33
-5.71
-6.24
-6.9
-7.56
-8.04
-8.17
-7.87
-7.19
-6.3
-5.38
-4.55
-3.82
-3.14
-2.45
-1.77
-1.17
-0.76
-0.57
-0.57
-0.68
-0.84
-1.04
-1.32
-1.69
-2.06
-2.31
-2.31
-2.03
-1.61
-1.27
-1.21
-1.48
-1.97
-2.41
-2.58
-2.34
-1.69
-0.82
0.04
0.69
1.05
1.18
1.24
1.43
1.91
2.73
3.85
5.13
6.39
7.51
8.41
9.05
9.47
9.72
9.84
9.88
9.91
9.96
10.08
10.32
10.72
11.27
11.96
12.75
13.57
14.4
15.19
15.87
16.36
16.56
16.4
15.84
14.95
13.85
12.75
11.84
11.22
10.89
10.72
10.53
10.24
9.97
9.94
10.43
11.58
13.26
15.1
16.59
17.32
17.12
16.1
14.53
12.77
11.1
9.67
8.55
7.7
7.03
6.43
5.75
4.91
3.81
2.41
0.69
-1.3
-3.46
-5.69
-7.87
-9.97
-11.94
-13.77
-15.4
-16.73
-17.67
-18.18
-18.29
-18.11
-17.71
-17.07
-16.12
-14.8
-13.16
-11.43
-9.9
-8.79
-8.21
-8.09
-8.31
-8.77
-9.4
-10.11
-10.8
-11.3
-11.45
-11.17
-10.5
-9.61
-8.66
-7.87
-7.31
-7.02
-6.99
-7.16
-7.5
-7.91
-8.32
-8.61
-8.7
-8.52
-8.05
-7.3
-6.35
-5.33
-4.35
-3.53
-2.95
-2.61
-2.5
-2.59
-2.83
-3.15
-3.48
-3.7
-3.72
-3.48
-3.07
-2.61
-2.3
-2.24
-2.37
-2.56
-2.61
-2.4
-1.95
-1.39
-0.88
-0.52
-0.36
-0.38
-0.58
-0.95
-1.43
-1.91
-2.23
-2.24
-1.91
-1.3
-0.53
0.3
1.17
2.12
3.13
4.1
4.84
5.18
5.05
4.56
3.96
3.47
3.22
3.16
3.18
3.2
3.26
3.5
4.03
4.87
5.9
6.91
7.72
8.3
8.71
9.04
9.32
9.56
9.74
9.94
10.33
11.05
12.15
13.44
14.64
15.47
15.85
15.89
15.84
15.95
16.28
16.67
16.87
16.66
16.04
15.18
14.36
13.82
13.58
13.5
13.35
12.92
12.14
11.08
9.85
8.52
7.07
5.45
3.63
1.76
0.07
-1.14
-1.7
-1.65
-1.22
-0.74
-0.44
-0.41
-0.54
-0.68
-0.77
-0.93
-1.39
-2.32
-3.75
-5.54
-7.42
-9.19
-10.74
-12.06
-13.14
-13.9
-14.2
-13.93
-13.15
-12.07
-11.04
-10.33
-10.1
-10.31
-10.78
-11.33
-11.89
-12.44
-12.97
-13.44
-13.77
-13.9
-13.81
-13.55
-13.2
-12.83
-12.46
-12.02
-11.43
-10.58
-9.52
-8.42
-7.5
-6.93
-6.75
-6.82
-6.87
-6.73
-6.29
-5.68
-5.02
-4.45
-4
-3.6
-3.16
-2.64
-2.02
-1.31
-0.62
-0.05
0.25
0.12
-0.49
-1.55
-2.84
-4.12
-5.17
-5.91
-6.39
-6.75
-7.14
-7.65
-8.33
-9.16
-10.09
-10.95
-11.56
-11.74
-11.42
-10.66
-9.6
-8.44
-7.37
-6.39
-5.48
-4.5
-3.37
-2.12
-0.91
0.06
0.61
0.71
0.45
0.11
-0.08
0.06
0.48
1
1.33
1.29
0.84
0.12
-0.71
-1.53
-2.29
-3.01
-3.72
-4.36
-4.84
-5.2
-5.57
-6.23
-7.39
-9.04
-10.87
-12.31
-12.77
-11.88
-9.65
-6.51
-3.11
-0.03
2.38
4.12
5.36
6.38
7.3
8.1
8.64
8.78
8.5
7.91
7.19
6.54
6.08
5.79
5.58
5.37
5.09
4.79
4.49
4.2
3.9
3.49
2.88
2.07
1.12
0.17
-0.7
-1.47
-2.21
-2.97
-3.79
-4.67
-5.62
-6.7
-8.03
-9.59
-11.18
-12.3
-12.45
-11.26
-8.8
-5.53
-2.11
0.86
3.09
4.59
5.57
6.22
6.64
6.85
6.87
6.85
7.01
7.54
8.5
9.71
10.9
11.77
12.14
11.99
11.44
10.68
9.82
8.86
7.79
6.56
5.23
3.91
2.73
1.81
1.15
0.71
0.41
0.21
0.18
0.42
1
1.89
2.92
3.84
4.41
4.47
3.96
2.92
1.44
-0.3
-2.03
-3.44
-4.24
-4.23
-3.47
-2.25
-1.02
-0.16
0.1
-0.15
-0.65
-1
-0.94
-0.41
0.44
1.36
2.11
2.58
2.81
2.96
3.17
3.51
3.98
4.47
4.87
5.11
5.16
5.01
4.67
4.2
3.72
3.33
3.11
3.1
3.27
3.61
4.06
4.61
5.16
5.66
6
6.16
6.15
6.01
5.77
5.41
4.87
4.17
3.38
2.65
2.14
1.94
2.1
2.55
3.22
3.99
4.75
5.38
5.78
5.88
5.69
5.29
4.82
4.37
4.05
3.87
3.78
3.7
3.51
3.17
2.74
2.36
2.17
2.23
2.49
2.76
2.9
2.85
2.63
2.36
2.15
1.99
1.82
1.53
1.08
0.5
-0.11
-0.61
-0.93
-1.02
-0.99
-0.95
-1.02
-1.27
-1.68
-2.2
-2.8
-3.54
-4.48
-5.63
-6.9
-8.04
-8.75
-8.85
-8.3
-7.31
-6.18
-5.17
-4.43
-3.96
-3.66
-3.49
-3.4
-3.41
-3.5
-3.57
-3.42
-2.86
-1.78
-0.23
1.49
3.03
4.11
4.64
4.82
5.02
5.59
6.69
8.22
9.9
11.43
12.63
13.49
14.14
14.68
15.14
15.45
15.52
15.3
14.81
14.12
13.26
12.27
11.14
9.92
8.72
7.69
6.94
6.54
6.47
6.61
6.87
7.14
7.37
7.59
7.78
7.96
8.07
8.14
8.18
8.29
8.57
9.09
9.85
10.79
11.83
12.93
14.16
15.6
17.29
19.2
21.15
22.97
24.54
25.84
26.93
27.89
28.7
29.22
29.32
28.88
27.91
26.55
25.05
23.63
22.47
21.59
20.9
20.18
19.14
17.45
14.87
11.34
6.99
2.16
-2.77
-7.42
-11.57
-15.12
-18.06
-20.41
-22.19
-23.42
-24.14
-24.46
-24.46
-24.24
-23.88
-23.47
-23.08
-22.81
-22.76
-22.91
-23.11
-23.16
-22.88
-22.22
-21.3
-20.38
-19.71
-19.46
-19.63
-20.05
-20.56
-20.99
-21.28
-21.4
-21.34
-21.05
-20.45
-19.53
-18.4
-17.28
-16.45
-16.09
-16.27
-16.85
-17.57
-18.11
-18.21
-17.77
-16.85
-15.64
-14.36
-13.11
-11.92
-10.75
-9.54
-8.28
-7.06
-6
-5.2
-4.7
-4.4
-4.19
-3.9
-3.45
-2.77
-1.88
-0.86
0.25
1.34
2.28
2.93
3.23
3.13
2.77
2.31
1.99
1.96
2.21
2.6
2.93
3
2.76
2.22
1.51
0.78
0.17
-0.16
-0.08
0.45
1.32
2.35
3.3
3.96
4.24
4.18
3.92
3.62
3.38
3.22
3.12
3.03
2.98
2.99
3.14
3.45
3.96
4.65
5.53
6.58
7.75
8.93
9.98
10.72
11.05
11.03
10.82
10.64
10.69
10.95
11.25
11.29
10.86
9.89
8.56
7.17
6.02
5.27
4.9
4.77
4.64
4.37
3.86
3.14
2.27
1.3
0.27
-0.73
-1.64
-2.4
-2.97
-3.4
-3.74
-4.01
-4.17
-4.14
-3.88
-3.42
-2.95
-2.65
-2.64
-2.86
-3.14
-3.25
-3.12
-2.87
-2.72
-2.9
-3.46
-4.22
-4.94
-5.44
-5.75
-6.07
-6.65
-7.61
-8.91
-10.33
-11.7
-12.88
-13.85
-14.55
-14.85
-14.61
-13.66
-12.03
-9.9
-7.59
-5.45
-3.64
-2.21
-1.05
-0.06
0.84
1.68
2.46
3.15
3.75
4.26
4.64
4.87
4.94
4.89
4.82
4.82
4.96
5.17
5.39
5.54
5.62
5.66
5.65
5.54
5.2
4.52
3.49
2.23
0.97
-0.09
-0.81
-1.25
-1.57
-1.98
-2.63
-3.59
-4.78
-6.01
-7.05
-7.7
-7.81
-7.35
-6.43
-5.25
-4.09
-3.16
-2.54
-2.16
-1.83
-1.33
-0.56
0.47
1.62
2.75
3.81
4.84
5.95
7.14
8.23
8.94
9.02
8.43
7.39
6.3
5.45
4.92
4.55
4.05
3.27
2.27
1.28
0.59
0.3
0.34
0.47
0.55
0.56
0.59
0.75
1
1.14
0.91
0.12
-1.21
-2.87
-4.54
-5.92
-6.85
-7.31
-7.37
-7.16
-6.74
-6.21
-5.65
-5.17
-4.86
-4.82
-5.03
-5.44
-5.91
-6.32
-6.55
-6.52
-6.19
-5.57
-4.68
-3.55
-2.2
-0.69
0.92
2.48
3.88
4.98
5.74
6.18
6.38
6.43
6.42
6.41
6.41
6.47
6.7
7.17
7.92
8.94
10.16
11.44
12.59
13.4
13.71
13.41
12.54
11.27
9.9
8.76
8.19
8.38
9.37
11.05
13.16
15.38
17.41
19.07
20.25
21.02
21.48
21.77
21.96
22.1
22.19
22.25
22.31
22.41
22.66
23.12
23.85
24.77
25.7
26.39
26.56
26.08
24.95
23.38
21.64
19.95
18.39
16.89
15.26
13.34
11.09
8.57
5.93
3.32
0.78
-1.64
-3.92
-6.02
-7.87
-9.46
-10.83
-12.12
-13.45
-14.87
-16.29
-17.55
-18.45
-18.95
-19.14
-19.24
-19.48
-20.01
-20.82
-21.76
-22.62
-23.17
-23.32
-23.11
-22.66
-22.18
-21.75
-21.35
-20.83
-20.01
-18.72
-16.93
-14.73
-12.29
-9.84
-7.6
-5.77
-4.5
-3.77
-3.49
-3.46
-3.45
-3.29
-2.93
-2.44
-1.9
-1.41
-1.07
-0.98
-1.24
-1.87
-2.84
-4.04
-5.23
-6.17
-6.7
-6.72
-6.31
-5.59
-4.77
-4.02
-3.48
-3.19
-3.08
-3
-2.79
-2.34
-1.64
-0.76
0.2
1.23
2.28
3.38
4.46
5.47
6.3
6.96
7.47
7.9
8.33
8.72
9.01
9.15
9.16
9.15
9.22
9.37
9.46
9.27
8.61
7.49
6.07
4.63
3.41
2.51
1.95
1.69
1.72
2.02
2.56
3.21
3.72
3.88
3.55
2.77
1.75
0.74
-0.07
-0.6
-0.86
-0.89
-0.77
-0.61
-0.5
-0.52
-0.68
-0.89
-0.99
-0.83
-0.36
0.31
0.92
1.22
1.03
0.38
-0.54
-1.48
-2.24
-2.79
-3.21
-3.64
-4.23
-4.99
-5.89
-6.83
-7.73
-8.52
-9.2
-9.7
-9.98
-9.97
-9.69
-9.21
-8.68
-8.24
-7.98
-7.87
-7.82
-7.76
-7.71
-7.76
-8.04
-8.55
-9.26
-10
-10.6
-10.96
-11.01
-10.76
-10.21
-9.45
-8.54
-7.65
-6.94
-6.47
-6.21
-6.05
-5.9
-5.8
-5.89
-6.29
-7.01
-7.83
-8.42
-8.54
-8.14
-7.44
-6.75
-6.28
-6.02
-5.74
-5.23
-4.42
-3.5
-2.74
-2.36
-2.35
-2.51
-2.63
-2.59
-2.48
-2.46
-2.69
-3.13
-3.66
-4.12
-4.44
-4.68
-4.95
-5.28
-5.61
-5.85
-5.93
-5.91
-5.94
-6.18
-6.71
-7.47
-8.28
-8.92
-9.16
-8.91
-8.06
-6.67
-4.81
-2.69
-0.57
1.31
2.78
3.83
4.56
5.15
5.76
6.48
7.25
7.93
8.37
8.44
8.16
7.63
7.12
6.83
6.9
7.33
7.99
8.7
9.35
9.89
10.32
10.61
10.68
10.4
9.74
8.85
8.01
7.53
7.59
8.12
8.87
9.49
9.78
9.73
9.44
9.09
8.73
8.32
7.78
7.04
6.07
4.93
3.73
2.54
1.49
0.68
0.18
-0.03
-0.03
-0
-0.09
-0.4
-0.91
-1.58
-2.35
-3.2
-4.15
-5.19
-6.22
-7.1
-7.67
-7.85
-7.67
-7.23
-6.68
-6.14
-5.62
-5.08
-4.42
-3.61
-2.68
-1.75
-0.96
-0.41
-0.1
0.04
0.15
0.34
0.59
0.79
0.83
0.63
0.27
-0.07
-0.16
0.12
0.75
1.61
2.51
3.32
4.04
4.75
5.58
6.59
7.77
9.04
10.28
11.39
12.35
13.18
13.96
14.77
15.65
16.6
17.6
18.59
19.51
20.27
20.8
21.06
21.06
20.91
20.74
20.65
20.68
20.74
20.72
20.5
20.06
19.44
18.71
17.93
17.13
16.35
15.62
15.02
14.54
14.14
13.72
13.27
12.81
12.48
12.44
12.71
13.19
13.62
13.78
13.5
12.81
11.83
10.69
9.49
8.21
6.78
5.17
3.38
1.47
-0.42
-2.14
-3.62
-4.8
-5.73
-6.47
-7.12
-7.78
-8.48
-9.29
-10.23
-11.27
-12.31
-13.22
-13.83
-14.01
-13.77
-13.23
-12.63
-12.19
-12.03
-12.1
-12.29
-12.48
-12.63
-12.76
-12.95
-13.23
-13.52
-13.68
-13.54
-13.1
-12.53
-12.15
-12.31
-13.21
-14.76
-16.66
-18.53
-20.1
-21.33
-22.31
-23.13
-23.74
-23.93
-23.46
-22.23
-20.39
-18.26
-16.17
-14.3
-12.65
-11.12
-9.63
-8.17
-6.82
-5.66
-4.71
-3.91
-3.21
-2.64
-2.27
-2.22
-2.53
-3.2
-4.1
-5.09
-5.99
-6.69
-7.14
-7.35
-7.42
-7.43
-7.48
-7.61
-7.88
-8.31
-8.96
-9.89
-11.08
-12.36
-13.41
-13.9
-13.57
-12.46
-10.77
-8.88
-7.08
-5.52
-4.14
-2.87
-1.62
-0.46
0.5
1.18
1.66
2.13
2.84
3.97
5.53
7.39
9.3
11.01
12.35
13.29
13.92
14.39
14.88
15.49
16.22
16.96
17.6
18
18.14
18.03
17.72
17.19
16.41
15.39
14.19
13.02
12.03
11.31
10.77
10.18
9.36
8.25
6.97
5.73
4.72
4
3.49
3.01
2.38
1.5
0.37
-0.99
-2.52
-4.14
-5.77
-7.3
-8.58
-9.49
-9.98
-10.12
-10.07
-10.15
-10.59
-11.48
-12.67
-13.86
-14.69
-14.94
-14.63
-14
-13.37
-12.97
-12.92
-13.23
-13.89
-14.86
-16.1
-17.44
-18.59
-19.17
-18.87
-17.56
-15.42
-12.81
-10.13
-7.73
-5.71
-4.02
-2.55
-1.2
0.06
1.18
2.12
2.84
3.33
3.62
3.7
3.6
3.38
3.16
3.06
3.22
3.67
4.36
5.23
6.14
6.97
7.6
7.94
7.99
7.82
7.61
7.5
7.58
7.81
8.1
8.3
8.35
8.29
8.14
7.91
7.47
6.73
5.68
4.42
3.23
2.39
2.08
2.28
2.82
3.44
3.98
4.34
4.57
4.76
4.99
5.26
5.54
5.78
5.89
5.82
5.52
4.97
4.28
3.54
2.92
2.47
2.16
1.94
1.76
1.62
1.6
1.77
2.13
2.64
3.3
4.15
5.34
6.95
8.93
11.05
12.93
14.29
15.01
15.24
15.25
15.28
15.34
15.26
14.84
13.97
12.79
11.61
10.81
10.59
10.92
11.61
12.42
13.25
14.1
15.04
16.11
17.17
17.95
18.09
17.29
15.46
12.75
9.54
6.32
3.52
1.35
-0.24
-1.47
-2.55
-3.66
-4.78
-5.82
-6.68
-7.37
-7.99
-8.62
-9.33
-10.02
-10.58
-10.97
-11.26
-11.65
-12.34
-13.47
-14.94
-16.5
-17.91
-19.08
-20.07
-21.18
-22.66
-24.61
-26.82
-28.82
-30.03
-29.89
-28.1
-24.72
-20.19
-15.19
-10.39
-6.36
-3.33
-1.29
-0.06
0.57
0.8
0.75
0.54
0.28
0.04
-0.14
-0.33
-0.58
-0.98
-1.51
-2.09
-2.57
-2.87
-2.94
-2.76
-2.39
-1.86
-1.21
-0.46
0.34
1.18
1.98
2.69
3.24
3.6
3.8
3.91
4.05
4.33
4.81
5.51
6.41
7.51
8.8
10.32
12.04
13.92
15.8
17.55
19.16
20.67
22.2
23.84
25.53
27.13
28.47
29.41
29.9
29.97
29.62
28.84
27.63
26.07
24.36
22.79
21.61
20.93
20.65
20.49
20.14
19.38
18.15
16.54
14.69
12.81
11.03
9.43
8.04
6.86
5.82
4.82
3.69
2.24
0.33
-2.1
-4.95
-8
-10.98
-13.67
-15.92
-17.67
-19
-20.04
-20.96
-21.9
-22.96
-24.16
-25.44
-26.73
-27.95
-29.03
-29.93
-30.54
-30.77
-30.47
-29.55
-27.98
-25.84
-23.31
-20.6
-17.93
-15.49
-13.38
-11.61
-10.11
-8.79
-7.52
-6.28
-5.07
-3.93
-2.86
-1.81
-0.69
0.58
1.97
3.36
4.56
5.38
5.76
5.76
5.57
5.42
5.46
5.69
6.01
6.31
6.48
6.55
6.58
6.63
6.62
6.49
6.17
5.75
5.37
5.21
5.32
5.56
5.68
5.42
4.7
3.61
2.39
1.26
0.35
-0.32
-0.89
-1.46
-2.13
-2.95
-3.93
-5.06
-6.3
-7.61
-8.92
-10.18
-11.3
-12.13
-12.48
-12.2
-11.25
-9.79
-8.16
-6.72
-5.7
-5.1
-4.74
-4.36
-3.88
-3.38
-3.03
-3.03
-3.33
-3.75
-4.05
-4.09
-3.94
-3.83
-3.98
-4.54
-5.49
-6.67
-7.93
-9.13
-10.24
-11.25
-12.17
-13.04
-13.95
-15.09
-16.72
-18.95
-21.72
-24.58
-26.84
-27.78
-26.93
-24.25
-20.14
-15.32
-10.49
-6.18
-2.61
0.21
2.37
3.94
4.99
5.52
5.6
5.31
4.74
3.9
2.78
1.35
-0.37
-2.24
-4.04
-5.48
-6.34
-6.55
-6.19
-5.55
-4.97
-4.78
-5.13
-5.98
-7.14
-8.34
-9.38
-10.15
-10.68
-11.09
-11.48
-11.92
-12.46
-13.04
-13.53
-13.78
-13.58
-12.76
-11.27
-9.14
-6.57
-3.77
-0.94
1.78
4.31
6.56
8.42
9.8
10.7
11.21
11.54
11.91
12.48
13.3
14.31
15.32
16.09
16.35
15.92
14.74
12.94
10.77
8.55
6.51
4.72
3.11
1.57
0.01
-1.49
-2.74
-3.57
-3.93
-3.95
-3.94
-4.18
-4.82
-5.75
-6.71
-7.46
-7.88
-8.07
-8.23
-8.56
-9.1
-9.72
-10.23
-10.47
-10.37
-10.01
-9.52
-9.06
-8.71
-8.48
-8.34
-8.17
-7.81
-7.08
-5.85
-4.07
-1.88
0.44
2.56
4.18
5.17
5.63
5.79
5.99
6.47
7.32
8.47
9.69
10.74
11.41
11.64
11.44
10.94
10.28
9.54
8.78
7.96
7.05
6.03
4.95
3.9
2.97
2.14
1.31
0.37
-0.78
-2.17
-3.77
-5.45
-7.16
-8.77
-10.09
-10.92
-11
-10.22
-8.59
-6.37
-3.92
-1.57
0.5
2.23
3.65
4.77
5.58
6.05
6.22
6.25
6.33
6.67
7.34
8.22
9.13
9.86
10.29
10.37
10.18
9.81
9.34
8.83
8.23
7.55
6.75
5.88
5.05
4.35
3.87
3.58
3.41
3.2
2.84
2.27
1.54
0.75
0.01
-0.66
-1.3
-2
-2.88
-4.02
-5.45
-7.14
-9
-10.87
-12.45
-13.43
-13.5
-12.56
-10.74
-8.38
-5.89
-3.56
-1.54
0.26
1.91
3.46
4.81
5.8
6.35
6.49
6.37
6.18
6.05
6
5.98
5.91
5.76
5.56
5.41
5.41
5.65
6.12
6.79
7.58
8.4
9.17
9.9
10.59
11.26
11.87
12.26
12.29
11.87
11.04
9.99
8.96
8.06
7.31
6.51
5.45
3.98
2.05
-0.28
-2.95
-5.86
-8.96
-12.13
-15.21
-18.04
-20.51
-22.66
-24.56
-26.32
-27.98
-29.49
-30.73
-31.51
-31.7
-31.18
-29.94
-28.05
-25.69
-23.05
-20.28
-17.41
-14.39
-11.13
-7.63
-4.04
-0.57
2.53
5.16
7.35
9.22
10.84
12.14
13.03
13.35
13.09
12.37
11.36
10.23
9.02
7.75
6.41
5.12
4.04
3.3
2.92
2.73
2.49
1.96
1
-0.33
-1.86
-3.22
-4.03
-3.87
-2.5
0.05
3.47
7.19
10.64
13.42
15.41
16.75
17.75
18.7
19.78
21.05
22.49
24.05
25.68
27.27
28.67
29.77
30.5
30.87
30.96
30.86
30.64
30.33
29.97
29.55
29.11
28.61
27.98
27.07
25.65
23.6
20.91
17.75
14.42
11.22
8.34
5.79
3.51
1.4
-0.63
-2.6
-4.58
-6.61
-8.78
-11.02
-13.12
-14.78
-15.69
-15.73
-14.98
-13.73
-12.32
-11.06
-10.13
-9.59
-9.41
-9.49
-9.72
-9.98
-10.1
-9.98
-9.62
-9.03
-8.32
-7.54
-6.7
-5.81
-4.83
-3.79
-2.76
-1.85
-1.14
-0.73
-0.64
-0.86
-1.35
-2
-2.73
-3.39
-3.95
-4.45
-5.03
-5.92
-7.32
-9.31
-11.77
-14.3
-16.31
-17.15
-16.36
-13.84
-10.04
-5.74
-1.81
1.1
2.83
3.63
3.96
4.24
4.68
5.22
5.77
6.27
6.75
7.3
7.93
8.58
9.09
9.37
9.37
9.15
8.77
8.3
7.77
7.2
6.62
6.03
5.42
4.78
4.12
3.48
2.93
2.56
2.38
2.3
2.09
1.53
0.47
-1.15
-3.18
-5.34
-7.27
-8.63
-9.17
-8.88
-7.93
-6.64
-5.34
-4.26
-3.5
-3.01
-2.7
-2.46
-2.27
-2.13
-2.08
-2.16
-2.42
-2.91
-3.66
-4.59
-5.52
-6.24
-6.58
-6.6
-6.58
-6.88
-7.8
-9.38
-11.39
-13.46
-15.26
-16.63
-17.6
-18.44
-19.46
-21.06
-23.68
-27.67
-33.12
-39.52
-45.79
-50.36
-51.71
-48.9
-41.99
-31.93
-20.28
-8.58
2.11
11.23
18.62
24.24
28.04
30.02
30.43
29.76
28.67
27.74
27.18
26.87
26.44
25.59
24.19
22.41
20.52
18.69
16.96
15.16
13.08
10.57
7.51
3.9
-0.18
-4.62
-9.23
-13.73
-17.86
-21.49
-24.63
-27.58
-30.71
-34.3
-38.23
-41.93
-44.46
-44.86
-42.55
-37.57
-30.6
-22.66
-14.79
-7.68
-1.56
3.59
7.93
11.55
14.51
16.81
18.57
20
21.32
22.66
24.04
25.38
26.6
27.73
28.89
30.27
32.01
34.14
36.57
39.13
41.63
43.93
46.01
47.88
49.57
51.08
52.26
52.88
52.68
51.5
49.29
46.2
42.53
38.62
34.82
31.33
28.26
25.62
23.31
21.26
19.44
17.8
16.34
15.02
13.76
12.48
11.14
9.77
8.45
7.27
6.24
5.33
4.48
3.66
2.89
2.21
1.61
1.02
0.33
-0.52
-1.55
-2.64
-3.7
-4.63
-5.44
-6.18
-6.89
-7.62
-8.34
-9.03
-9.66
-10.24
-10.81
-11.48
-12.42
-13.7
-15.33
-17.13
-18.78
-19.95
-20.35
-19.93
-18.83
-17.34
-15.79
-14.41
-13.31
-12.46
-11.76
-11.05
-10.28
-9.46
-8.66
-8
-7.57
-7.35
-7.28
-7.23
-7.08
-6.75
-6.25
-5.62
-4.94
-4.29
-3.7
-3.22
-2.9
-2.77
-2.85
-3.13
-3.52
-3.95
-4.32
-4.69
-5.17
-5.98
-7.32
-9.17
-11.32
-13.32
-14.67
-14.93
-13.94
-11.82
-9.01
-6.05
-3.43
-1.43
-0.09
0.74
1.3
1.72
2.06
2.25
2.24
2.02
1.67
1.26
0.84
0.38
-0.26
-1.19
-2.54
-4.34
-6.52
-8.94
-11.33
-13.45
-15.07
-16.17
-17.01
-18.03
-19.76
-22.58
-26.48
-31.11
-35.84
-40.12
-43.7
-46.77
-49.85
-53.68
-58.93
-66.05
-75.1
-85.54
-96.18
-105.19
-110.54
-110.59
-104.67
-93.49
-78.87
-63.17
-48.48
-36.07
-26.14
-18.13
-11.16
-4.46
2.41
9.61
17.07
24.71
32.39
39.96
47.14
53.59
58.94
62.93
65.57
67.04
67.75
68.04
68.14
68.1
67.79
67.12
66.01
64.55
62.9
61.24
59.68
58.22
56.76
55.07
52.87
49.91
46.1
41.59
36.82
32.41
28.99
27.05
26.74
27.92
30.13
32.85
35.53
37.77
39.31
40
39.85
38.9
37.22
34.96
32.24
29.26
26.18
23.15
20.25
17.39
14.49
11.43
8.29
5.37
3.15
2.09
2.46
4.12
6.62
9.28
11.51
12.97
13.55
13.3
12.32
10.66
8.31
5.32
1.83
-1.94
-5.7
-9.17
-12.15
-14.55
-16.39
-17.83
-19.1
-20.46
-22.08
-23.97
-25.98
-27.89
-29.57
-31.08
-32.62
-34.48
-36.89
-40.02
-43.87
-48.34
-53.13
-57.62
-60.92
-61.98
-59.99
-54.7
-46.59
-36.74
-26.44
-16.75
-8.2
-0.84
5.59
11.36
16.6
21.28
25.39
28.89
31.82
34.17
35.94
37.1
37.6
37.45
36.7
35.43
33.82
32.03
30.27
28.63
27.07
25.35
23.16
20.2
16.42
12.02
7.38
2.89
-1.21
-4.92
-8.41
-11.86
-15.3
-18.6
-21.57
-24.07
-26.13
-27.98
-29.83
-31.84
-34.05
-36.44
-38.96
-41.57
-44.03
-45.85
-46.22
-44.27
-39.44
-31.8
-22.21
-12.01
-2.58
5.17
10.94
15.06
18.08
20.5
22.64
24.6
26.42
28.11
29.73
31.25
32.57
33.55
34.01
33.86
33.07
31.75
30.09
28.25
26.34
24.37
22.3
20.09
17.78
15.55
13.59
11.99
10.61
9.11
7.1
4.41
1.13
-2.32
-5.47
-8.05
-10.13
-12.14
-14.59
-17.84
-21.91
-26.54
-31.23
-35.61
-39.42
-42.61
-45.26
-47.41
-49.09
-50.24
-50.71
-50.27
-48.56
-45.24
-40.17
-33.61
-26.26
-19.17
-13.3
-9.03
-5.95
-2.97
1.25
7.64
16.27
26.24
35.86
43.06
45.93
43.17
34.58
21.22
5.35
-10.23
-22.97
-31.31
-35.05
-35.06
-32.65
-29.03
-25.05
-21.38
-18.91
-18.85
-22.44
-30.27
-41.67
-54.58
-66.04
-73.21
-74.37
-69.52
-60.27
-49.14
-38.64
-30.38
-24.8
-21.08
-17.69
-12.94
-5.52
5.06
18.37
33.23
48.11
61.65
73.16
82.64
90.63
97.8
104.54
110.84
116.24
120.11
121.73
120.49
115.8
107.28
94.9
79.22
61.58
43.85
28.15
15.98
7.67
1.95
-3.74
-12.33
-25.91
-44.61
-66.44
-87.89
-105.46
-117
-122.54
-123.97
-123.93
-124.56
-126.64
-129.73
-132.69
-134.36
-133.81
-130.36
-123.52
-113.2
-100.03
-85.5
-71.77
-60.95
-54.31
-51.83
-52.3
-53.98
-55.23
-54.95
-52.64
-48.19
-41.67
-33.26
-23.31
-12.28
-0.69
10.96
22.28
33.18
43.89
55.05
67.46
81.73
97.99
115.65
133.55
150.36
165.18
177.89
189.08
199.77
210.9
222.98
235.79
248.45
259.52
267.19
269.53
264.7
251.45
229.61
200.47
166.79
132.26
100.5
73.94
53.18
36.99
23.14
9.59
-4.69
-19.52
-33.94
-47
-58.28
-68.04
-76.77
-84.86
-92.32
-98.85
-104.07
-107.65
-109.4
-109.15
-106.72
-101.98
-94.97
-86.08
-76.02
-65.7
-55.98
-47.51
-40.57
-35.19
-31.14
-28.14
-25.86
-24.02
-22.43
-20.97
-19.62
-18.35
-17.13
-15.8
-14.21
-12.2
-9.78
-7.12
-4.57
-2.44
-0.94
-0.08
0.37
0.63
0.8
0.78
0.31
-0.9
-3.03
-6.01
-9.62
-13.43
-16.9
-19.39
-20.27
-19.09
-15.71
-10.45
-4.05
2.49
8.28
12.74
15.74
17.58
18.7
19.51
20.2
20.77
21.16
21.29
21.21
20.96
20.53
19.84
18.75
17.19
15.24
13.14
11.24
9.79
8.83
8.14
7.33
6.02
4.02
1.38
-1.62
-4.63
-7.39
-9.83
-12.04
-14.27
-16.82
-19.91
-23.62
-27.79
-31.94
-35.36
-37.26
-37.03
-34.5
-30.05
-24.45
-18.61
-13.23
-8.6
-4.66
-1.17
2.11
5.28
8.31
11.12
13.57
15.58
17.09
18.11
18.71
19.14
19.6
20.28
21.2
22.16
22.82
22.87
22.15
20.72
18.81
16.74
14.76
12.94
11.21
9.41
7.39
5.09
2.57
0.04
-2.28
-4.19
-5.61
-6.64
-7.54
-8.68
-10.4
-12.88
-16.01
-19.33
-22.06
-23.35
-22.49
-19.22
-13.87
-7.29
-0.57
5.3
9.74
12.63
14.29
15.15
15.52
15.41
14.56
12.53
8.82
3.12
-4.56
-13.87
-24.11
-34.6
-44.86
-54.82
-64.7
-74.64
-84.32
-92.82
-98.66
-100.36
-96.96
-88.69
-77.29
-65.84
-58.03
-57.06
-64.49
-79.57
-99.43
-119.98
-137.13
-147.81
-150.2
-143.43
-127.29
-102.22
-69.68
-32.51
5.3
39.47
66.63
85.29
95.97
100.67
101.85
101.66
101.52
102.2
103.99
106.89
110.62
114.61
118.02
119.96
119.74
116.98
111.8
104.64
96.12
86.81
77.14
67.43
58.09
49.65
42.71
37.7
34.63
32.96
31.76
30.17
27.67
24.37
20.77
17.53
15.05
13.35
12.12
10.99
9.76
8.53
7.62
7.41
8.1
9.62
11.58
13.37
14.39
14.25
12.93
10.76
8.23
5.82
3.71
1.81
-0.16
-2.53
-5.49
-9.03
-12.98
-17.08
-20.97
-24.3
-26.7
-27.98
-28.17
-27.7
-27.28
-27.65
-29.29
-32.05
-35.25
-38.03
-39.92
-41.01
-41.85
-42.82
-43.54
-42.75
-38.84
-30.6
-17.88
-1.69
16.13
33.42
48.1
58.28
62.65
60.84
53.9
44.45
35.94
31.39
32.16
37.56
45.55
54.03
61.79
68.6
74.59
79.45
82.34
82.45
79.84
75.67
71.6
68.66
66.35
62.52
54.31
39.56
17.89
-8.9
-37.43
-63.79
-84.71
-98.28
-104.28
-103.93
-99.26
-92.43
-85.14
-78.21
-71.62
-64.69
-56.49
-46.32
-34.04
-20.36
-6.83
4.4
11.4
13.27
10.75
6.12
2.23
1.19
3.42
7.5
10.98
11.73
8.95
3.35
-3.49
-10.01
-15.37
-19.48
-22.72
-25.46
-27.82
-29.69
-30.97
-31.66
-31.97
-32.26
-32.94
-34.29
-36.09
-37.45
-36.94
-33.03
-24.85
-12.78
1.44
15.15
25.79
31.84
33.36
31.88
29.73
29.39
32.93
41.78
56.47
76.33
99.16
121.23
137.95
145.09
140.27
123.94
99.27
71.12
44.33
22.26
6.14
-4.58
-11.45
-16.19
-20.37
-25.38
-32.51
-42.78
-56.65
-73.65
-92.37
-110.77
-126.76
-138.68
-145.66
-147.46
-144.36
-136.83
-125.52
-111.13
-94.54
-76.72
-58.67
-41.37
-25.8
-12.84
-3.25
2.48
4.22
2.22
-2.9
-10.19
-18.55
-26.77
-33.77
-38.82
-41.75
-42.97
-43.29
-43.55
-44.24
-45.3
-46.16
-46.11
-44.76
-42.14
-38.66
-34.77
-30.68
-26.27
-21.27
-15.62
-9.61
-3.92
0.74
3.95
5.81
6.83
7.61
8.56
9.66
10.62
11.08
10.99
10.53
10.04
9.8
9.8
9.83
9.62
8.98
8
6.97
6.24
6.06
6.45
7.15
7.76
7.86
7.2
5.73
3.75
1.71
0.14
-0.48
0.15
2.08
5.08
8.7
12.37
15.51
17.65
18.54
18.16
16.63
14.2
11.17
7.92
4.9
2.58
1.29
1.1
1.8
2.95
4.08
4.92
5.46
5.88
6.37
6.92
7.29
7.11
6.07
4.1
1.42
-1.61
-4.65
-7.56
-10.3
-12.89
-15.18
-16.87
-17.55
-16.89
-14.9
-11.93
-8.51
-5.24
-2.56
-0.74
0.17
0.28
-0.18
-0.9
-1.51
-1.65
-1.08
0.26
2.23
4.54
6.85
8.9
10.58
11.95
13.18
14.47
15.92
17.56
19.36
21.19
22.92
24.49
25.82
26.98
28.07
29.3
30.88
32.91
35.14
36.96
37.42
35.55
30.7
22.85
12.64
1.24
-10.12
-20.6
-29.94
-38.38
-46.37
-54.05
-61.1
-66.69
-69.93
-70.35
-68.1
-63.97
-59.03
-54.15
-49.67
-45.44
-41.16
-36.65
-32.11
-27.95
-24.55
-22.06
-20.44
-19.47
-19.05
-19.1
-19.6
-20.31
-20.75
-20.27
-18.29
-14.53
-9.09
-2.51
4.56
11.44
17.61
22.74
26.66
29.34
30.87
31.44
31.32
30.8
30.07
29.22
28.28
27.23
26.09
24.86
23.55
22.11
20.42
18.43
16.14
13.65
11.1
8.58
6.07
3.42
0.42
-3.08
-7.03
-11.12
-14.79
-17.32
-17.97
-16.3
-12.36
-6.63
-0.08
6.33
11.79
15.95
18.85
20.78
22.02
22.75
23.03
22.82
22.21
21.31
20.25
19.09
17.76
16.09
13.96
11.39
8.56
5.83
3.53
1.83
0.67
-0.27
-1.37
-3
-5.29
-8.25
-11.65
-15.27
-18.8
-21.9
-24.16
-25.11
-24.38
-21.82
-17.68
-12.52
-7.08
-2.04
2.2
5.53
8.05
9.9
11.21
11.99
12.24
12.06
11.62
11.17
10.86
10.71
10.52
10.06
9.14
7.76
6.09
4.38
2.85
1.56
0.41
-0.83
-2.46
-4.73
-7.82
-11.67
-15.98
-20.17
-23.48
-25.18
-24.75
-22.08
-17.49
-11.61
-5.18
1.08
6.57
10.93
13.99
15.83
16.62
16.64
16.04
14.95
13.37
11.34
8.97
6.55
4.41
2.83
1.9
1.47
1.26
1.05
0.72
0.39
0.26
0.45
0.93
1.53
1.98
2
1.46
0.31
-1.27
-2.95
-4.26
-4.7
-3.9
-1.76
1.45
5.25
9.05
12.42
15.08
16.95
17.97
18.04
17.02
14.78
11.31
6.78
1.53
-4.01
-9.44
-14.44
-18.85
-22.63
-25.85
-28.56
-30.78
-32.46
-33.53
-33.95
-33.82
-33.35
-32.82
-32.46
-32.43
-32.73
-33.4
-34.43
-35.79
-37.3
-38.56
-38.96
-37.83
-34.71
-29.6
-22.99
-15.72
-8.66
-2.42
2.76
7
10.53
13.54
16.04
18
19.38
20.27
20.87
21.38
21.96
22.6
23.17
23.55
23.6
23.29
22.7
21.93
21.13
20.37
19.69
19.06
18.46
17.89
17.31
16.63
15.69
14.3
12.32
9.77
6.9
4.15
2.09
1.22
1.81
3.77
6.71
10
13.03
15.38
16.91
17.84
18.47
19.13
19.87
20.58
21.04
21.11
20.83
20.34
19.83
19.43
19.16
18.94
18.66
18.19
17.43
16.3
14.73
12.73
10.4
7.88
5.39
3.14
1.24
-0.31
-1.65
-3.02
-4.69
-6.84
-9.44
-12.27
-14.9
-16.81
-17.59
-16.99
-15
-11.89
-8.1
-4.16
-0.57
2.32
4.35
5.57
6.16
6.36
6.37
6.34
6.35
6.46
6.71
7.1
7.56
7.95
8.09
7.82
7.04
5.77
4.14
2.3
0.34
-1.72
-3.94
-6.4
-9.1
-12.04
-15.14
-18.34
-21.58
-24.8
-27.91
-30.73
-32.94
-34.15
-34.01
-32.34
-29.28
-25.26
-20.96
-17.09
-14.25
-12.7
-12.38
-12.95
-13.96
-14.93
-15.52
-15.47
-14.68
-13.15
-10.97
-8.35
-5.54
-2.78
-0.26
1.86
3.44
4.32
4.3
3.2
0.98
-2.23
-6.14
-10.35
-14.49
-18.36
-21.97
-25.51
-29.3
-33.61
-38.47
-43.55
-48.19
-51.5
-52.67
-51.28
-47.48
-41.9
-35.45
-28.93
-22.74
-16.88
-11.04
-4.95
1.49
8.09
14.45
20.16
24.96
28.78
31.68
33.76
35.05
35.51
35.08
33.73
31.6
28.92
26.04
23.3
20.93
18.97
17.23
15.35
12.91
9.55
5.14
-0.17
-5.92
-11.45
-16
-18.93
-19.82
-18.68
-15.83
-11.88
-7.55
-3.48
-0.1
2.36
3.86
4.5
4.41
3.77
2.82
1.82
1.07
0.78
1.04
1.77
2.71
3.49
3.79
3.43
2.45
1.1
-0.32
-1.56
-2.53
-3.32
-4.17
-5.39
-7.24
-9.91
-13.44
-17.64
-22.1
-26.17
-29.06
-30.08
-28.84
-25.38
-20.22
-14.17
-8.09
-2.71
1.62
4.83
7.15
8.9
10.39
11.82
13.23
14.6
15.83
16.87
17.7
18.35
18.82
19.08
19.07
18.68
17.85
16.6
15.08
13.49
12.03
10.79
9.74
8.7
7.46
5.88
3.85
1.32
-1.74
-5.34
-9.32
-13.28
-16.52
-18.23
-17.71
-14.71
-9.59
-3.2
3.4
9.39
14.27
18.01
20.81
22.92
24.56
25.82
26.78
27.49
28.02
28.4
28.61
28.6
28.31
27.72
26.83
25.73
24.52
23.24
21.94
20.57
19.08
17.35
15.3
12.87
10.11
7.12
4.08
1.15
-1.6
-4.22
