10.14
9.53
9.02
8.71
8.58
8.6
8.64
8.6
8.4
8.05
7.66
7.43
7.51
7.89
8.37
8.57
8.18
6.99
5.09
2.68
0.09
-2.46
-4.85
-7.05
-9.14
-11.25
-13.62
-16.49
-20.01
-24.06
-28.16
-31.5
-33.25
-32.79
-29.97
-25.19
-19.2
-12.88
-6.95
-1.82
2.36
5.67
8.2
10.03
11.14
11.56
11.36
10.76
10.1
9.63
9.48
9.63
9.94
10.25
10.48
10.66
10.83
10.98
10.99
10.69
9.98
8.88
7.55
6.22
5.05
4.01
2.95
1.66
0.03
-1.88
-3.95
-6.03
-8.07
-10.13
-12.37
-14.9
-17.77
-20.95
-24.16
-27.05
-29.08
-29.7
-28.53
-25.48
-20.88
-15.29
-9.4
-3.81
1.1
5.13
8.19
10.22
11.23
11.3
10.67
9.68
8.65
7.85
7.48
7.65
8.36
9.56
11.07
12.67
14.09
15.24
16.04
16.49
16.53
16.06
14.98
13.31
11.22
9.03
7.03
5.33
3.83
2.32
0.58
-1.45
-3.71
-6.05
-8.4
-10.79
-13.35
-16.22
-19.36
-22.54
-25.26
-26.94
-27.1
-25.54
-22.42
-18.22
-13.51
-8.79
-4.39
-0.4
3.13
6.13
8.47
10.01
10.69
10.59
9.94
9.04
8.16
7.49
7.13
7.16
7.58
8.4
9.47
10.64
11.71
12.59
13.25
13.68
13.91
13.83
13.39
12.58
11.54
10.48
9.61
8.96
8.32
7.4
5.9
3.77
1.15
-1.73
-4.64
-7.47
-10.11
-12.4
-14.02
-14.63
-14
-12.17
-9.44
-6.28
-3.13
-0.3
2.1
4.06
5.6
6.7
7.27
7.23
6.63
5.6
4.44
3.49
3
3.05
3.49
4.02
4.31
4.17
3.59
2.78
2.01
1.48
1.22
1.07
0.8
0.24
-0.68
-1.88
-3.18
-4.47
-5.71
-7
-8.51
-10.35
-12.54
-14.96
-17.36
-19.4
-20.77
-21.19
-20.48
-18.67
-15.97
-12.74
-9.4
-6.34
-3.8
-1.85
-0.43
0.6
1.3
1.78
2.07
2.23
2.31
2.36
2.39
2.41
2.43
2.49
2.61
2.76
2.77
2.47
1.77
0.68
-0.65
-2.06
-3.45
-4.81
-6.15
-7.54
-8.89
-10.17
-11.4
-12.77
-14.55
-16.96
-19.99
-23.24
-26.09
-27.81
-27.89
-26.15
-22.84
-18.5
-13.78
-9.24
-5.17
-1.6
1.57
4.41
6.88
8.77
9.84
9.98
9.31
8.17
6.98
6.09
5.63
5.56
5.76
6.03
6.24
6.35
6.34
6.19
5.9
5.38
4.51
3.21
1.48
-0.52
-2.55
-4.32
-5.67
-6.63
-7.48
-8.59
-10.27
-12.64
-15.48
-18.38
-20.75
-22.09
-22.09
-20.65
-17.96
-14.35
-10.23
-5.98
-1.91
1.79
5.01
7.68
9.73
11.16
11.94
12.09
11.69
10.85
9.78
8.69
7.8
7.2
6.9
6.8
6.76
6.69
6.48
6.13
5.67
5.1
4.42
3.62
2.66
1.48
-0.01
-1.83
-3.94
-6.19
-8.38
-10.37
-12.17
-13.93
-15.9
-18.23
-20.86
-23.45
-25.54
-26.62
-26.33
-24.5
-21.23
-16.76
-11.47
-5.83
-0.33
4.62
8.68
11.69
13.64
14.64
14.87
14.6
14.03
13.39
12.88
12.64
12.71
13.02
13.47
13.88
14.18
14.33
14.37
14.37
14.35
14.23
13.95
13.42
12.66
11.72
10.64
9.42
7.98
6.23
4.19
2
-0.17
-2.2
-4.17
-6.28
-8.77
-11.69
-14.8
-17.63
-19.64
-20.39
-19.7
-17.68
-14.66
-11.08
-7.41
-4.01
-1.08
1.34
3.32
4.98
6.42
7.71
8.92
10.06
11.14
12.12
12.9
13.41
13.61
13.6
13.62
13.94
14.73
15.95
17.29
18.31
18.6
17.93
16.39
14.28
12
9.86
7.93
6.08
4.08
1.81
-0.73
-3.4
-6.1
-8.8
-11.57
-14.36
-16.96
-18.95
-19.86
-19.39
-17.52
-14.57
-11.09
-7.58
-4.44
-1.84
0.21
1.75
2.76
3.19
2.97
2.15
0.93
-0.3
-1.09
-1.15
-0.43
0.81
2.14
3.09
3.39
3.01
2.14
1.05
-0.06
-1.06
-1.97
-2.85
-3.8
-4.9
-6.13
-7.47
-8.88
-10.35
-11.87
-13.52
-15.35
-17.43
-19.65
-21.77
-23.42
-24.17
-23.77
-22.15
-19.56
-16.35
-12.87
-9.4
-6.03
-2.83
0.14
2.7
4.71
6.04
6.79
7.18
7.45
7.75
8.05
8.21
8.13
7.8
7.3
6.85
6.54
6.35
6.15
5.67
4.8
3.46
1.74
-0.27
-2.46
-4.79
-7.22
-9.57
-11.7
-13.46
-14.86
-16.1
-17.57
-19.57
-22.16
-25
-27.45
-28.79
-28.49
-26.36
-22.61
-17.72
-12.23
-6.68
-1.5
3.01
6.66
9.38
11.19
12.18
12.54
12.42
12
11.4
10.7
9.99
9.37
8.97
8.92
9.32
10.13
11.13
11.98
12.33
11.96
10.86
9.19
7.17
4.97
2.63
0.14
-2.45
-4.98
-7.3
-9.32
-11.16
-13.07
-15.36
-18.19
-21.46
-24.85
-27.87
-29.98
-30.75
-29.88
-27.34
-23.29
-18.1
-12.3
-6.45
-1.07
3.46
6.93
9.27
10.57
11.07
11.1
11.02
11.09
11.37
11.85
12.41
12.97
13.53
14.15
14.86
15.59
16.21
16.54
16.47
15.97
15.11
14
12.69
11.17
9.46
7.63
5.8
4.17
2.83
1.69
0.5
-1.19
-3.75
-7.37
-11.93
-16.96
-21.76
-25.57
-27.78
-28.08
-26.54
-23.48
-19.37
-14.7
-9.84
-5.07
-0.62
3.28
6.43
8.71
10.18
11.02
11.55
12.09
12.89
13.97
15.27
16.68
18.04
19.29
20.36
21.22
21.89
22.39
22.8
23.09
23.16
22.77
21.71
19.88
17.41
14.62
11.89
9.46
7.29
5.06
2.39
-1.02
-5.22
-9.96
-14.75
-19.02
-22.21
-23.88
-23.77
-21.93
-18.61
-14.36
-9.82
-5.61
-2.11
0.54
2.39
3.67
4.55
5.15
5.59
5.92
6.22
6.53
6.86
7.2
7.51
7.76
7.92
7.95
7.81
7.44
6.8
5.85
4.56
2.9
0.91
-1.3
-3.53
-5.6
-7.38
-8.9
-10.37
-12.12
-14.45
-17.55
-21.38
-25.58
-29.59
-32.69
-34.26
-33.82
-31.24
-26.72
-20.74
-13.96
-7.1
-0.83
4.34
8.2
10.82
12.56
13.84
15
16.14
17.12
17.73
17.86
17.53
16.93
16.29
15.75
15.33
14.98
14.67
14.3
13.84
13.21
12.28
10.95
9.17
7.01
4.57
2.02
-0.52
-3
-5.41
-7.82
-10.24
-12.72
-15.34
-18.27
-21.73
-25.8
-30.31
-34.65
-37.91
-39.1
-37.52
-33.02
-26.09
-17.72
-8.97
-0.74
6.44
12.36
17.05
20.59
23.11
24.7
25.46
25.47
24.91
24.05
23.17
22.59
22.43
22.64
23.07
23.46
23.63
23.47
23.02
22.34
21.5
20.6
19.61
18.52
17.19
15.45
13.18
10.4
7.25
3.97
0.73
-2.4
-5.46
-8.48
-11.45
-14.34
-17.19
-20.23
-23.81
-28.16
-33.16
-38.15
-42.06
-43.79
-42.59
-38.33
-31.55
-23.17
-14.17
-5.36
2.77
9.89
15.8
20.33
23.38
25.02
25.51
25.33
24.95
24.75
24.88
25.29
25.78
26.22
26.54
26.76
26.94
27.1
27.2
27.13
26.84
26.31
25.58
24.7
23.7
22.58
21.3
19.76
17.88
15.59
12.86
9.72
6.32
2.82
-0.6
-3.79
-6.69
-9.38
-12
-14.84
-18.18
-22.15
-26.63
-31.04
-34.5
-36.07
-35.14
-31.6
-25.98
-19.15
-12.04
-5.34
0.62
5.75
10.06
13.51
16.02
17.54
18.12
18
17.52
17.05
16.86
17.1
17.7
18.5
19.26
19.75
19.84
19.54
19
18.37
17.84
17.47
17.16
16.67
15.7
14.08
11.78
9
6.06
3.34
1.04
-0.89
-2.68
-4.75
-7.48
-11.12
-15.68
-20.95
-26.41
-31.28
-34.72
-35.96
-34.58
-30.72
-25.08
-18.65
-12.48
-7.3
-3.45
-0.81
0.98
2.29
3.34
4.16
4.62
4.55
3.95
2.97
1.95
1.24
1.04
1.28
1.65
1.8
1.49
0.7
-0.41
-1.67
-3.07
-4.76
-6.98
-9.93
-13.61
-17.87
-22.39
-26.93
-31.29
-35.33
-38.95
-42.04
-44.55
-46.55
-48.36
-50.34
-52.84
-55.86
-58.88
-61
-61.16
-58.7
-53.58
-46.49
-38.56
-30.88
-24.16
-18.57
-13.84
-9.56
-5.49
-1.61
1.91
4.94
7.56
10.05
12.9
16.51
21.05
26.34
32.02
37.64
42.84
47.53
51.8
55.97
60.48
65.89
72.67
80.9
89.86
97.94
102.98
102.96
96.93
85.5
70.7
55.2
41.22
29.86
20.92
13.39
6.16
-1.42
-9.37
-17.3
-24.78
-31.64
-37.84
-43.33
-47.65
-50.05
-49.54
-45.49
-37.94
-27.69
-16.09
-4.36
6.83
17.53
28.25
39.52
51.38
63.35
74.58
84.2
91.7
97.04
100.58
102.79
103.93
103.9
102.28
98.46
91.96
82.61
70.64
56.5
40.7
23.69
5.92
-12.01
-29.24
-44.81
-57.87
-68.04
-75.45
-80.63
-84.08
-86.02
-86.25
-84.31
-79.92
-73.23
-64.94
-56.25
-48.46
-42.67
-39.39
-38.34
-38.49
-38.48
-37.09
-33.78
-28.86
-23.28
-18.14
-14.13
-11.33
-9.23
-7.15
-4.58
-1.37
2.36
6.41
10.57
14.66
18.41
21.43
23.28
23.65
22.47
20
16.73
13.18
9.72
6.4
2.98
-0.96
-5.7
-11.19
-16.88
-21.88
-25.22
-26.22
-24.69
-20.93
-15.67
-9.77
-4.03
0.91
4.7
7.23
8.62
9.13
9.08
8.74
8.27
7.71
7.01
6.16
5.22
4.34
3.69
3.34
3.21
3.09
2.79
2.16
1.15
-0.19
-1.79
-3.62
-5.64
-7.87
-10.3
-12.94
-15.88
-19.29
-23.28
-27.83
-32.63
-37.07
-40.35
-41.69
-40.56
-36.82
-30.8
-23.22
-14.98
-6.98
0.09
5.87
10.3
13.52
15.77
17.27
18.18
18.56
18.41
17.73
16.55
14.93
13.07
11.25
9.86
9.3
9.79
11.26
13.3
15.28
16.57
16.69
15.56
13.33
10.35
6.96
3.49
0.11
-3.12
-6.22
-9.36
-12.74
-16.47
-20.39
-23.98
-26.49
-27.15
-25.47
-21.44
-15.53
-8.46
-1.02
6.18
12.65
18.05
22.08
24.55
25.45
25
23.63
21.9
20.28
19.07
18.34
18.04
18.01
18.09
18.14
18.09
17.87
17.46
16.8
15.77
14.23
12.03
9.09
5.49
1.42
-2.79
-6.87
-10.63
-14.02
-17.16
-20.3
-23.7
-27.56
-31.89
-36.4
-40.54
-43.54
-44.64
-43.34
-39.51
-33.45
-25.83
-17.4
-8.92
-0.97
6.02
11.76
16.08
18.92
20.38
20.66
20.11
19.12
18.07
17.24
16.77
16.67
16.85
17.14
17.38
17.37
17.05
16.4
15.52
14.54
13.57
12.6
11.48
10.02
8.11
5.74
3.12
0.53
-1.84
-3.99
-6.16
-8.68
-11.82
-15.72
-20.26
-25.12
-29.75
-33.51
-35.69
-35.7
-33.25
-28.45
-21.92
-14.51
-7.14
-0.49
5.13
9.7
13.37
16.3
18.56
20.15
21.09
21.46
21.42
21.15
20.83
20.51
20.15
19.7
19.11
18.37
17.56
16.78
16.08
15.4
14.57
13.41
11.7
9.4
6.59
3.5
0.41
-2.41
-4.83
-6.92
-8.87
-10.98
-13.5
-16.57
-20.11
-23.75
-26.89
-28.79
-28.81
-26.62
-22.34
-16.53
-10.01
-3.61
2.03
6.56
9.88
12.04
13.15
13.32
12.7
11.49
10.01
8.61
7.61
7.22
7.45
8.14
8.94
9.55
9.79
9.72
9.53
9.44
9.49
9.5
9.08
7.92
5.89
3.13
0.02
-3.05
-5.82
-8.23
-10.47
-12.88
-15.79
-19.47
-23.91
-28.73
-33.21
-36.44
-37.56
-36.17
-32.33
-26.61
-19.82
-12.78
-6.09
-0.16
4.77
8.61
11.34
13.12
14.19
14.81
15.16
15.31
15.26
15
14.64
14.31
14.08
13.95
13.8
13.52
13.1
12.67
12.34
12.17
12.02
11.65
10.76
9.19
6.98
4.28
1.35
-1.6
-4.42
-7.1
-9.67
-12.19
-14.71
-17.26
-19.89
-22.66
-25.7
-28.98
-32.25
-35
-36.53
-36.29
-34
-29.81
-24.2
-17.79
-11.14
-4.7
1.17
6.22
10.26
13.26
15.36
16.85
17.97
18.78
19.25
19.28
18.9
18.28
17.76
17.63
18
18.78
19.73
20.57
21.08
21.15
20.7
19.73
18.21
16.15
13.57
10.54
7.16
3.58
0.01
-3.36
-6.36
-8.96
-11.22
-13.29
-15.35
-17.57
-20.13
-23.1
-26.47
-30.04
-33.42
-36.07
-37.36
-36.76
-34.04
-29.34
-23.18
-16.3
-9.43
-3.16
2.18
6.56
10.07
12.85
14.99
16.46
17.25
17.38
17.03
16.52
16.18
16.24
16.78
17.71
18.8
19.81
20.59
21.06
21.18
20.88
20.12
18.9
17.27
15.36
13.32
11.26
9.22
7.16
5.02
2.73
0.32
-2.19
-4.7
-7.14
-9.44
-11.64
-13.87
-16.46
-19.74
-23.94
-28.89
-33.92
-38.02
-40.03
-39.19
-35.34
-29.04
-21.3
-13.27
-5.86
0.47
5.63
9.78
13.1
15.67
17.47
18.44
18.65
18.31
17.74
17.31
17.26
17.71
18.57
19.65
20.74
21.69
22.41
22.85
23.02
22.91
22.49
21.67
20.3
18.22
15.37
11.79
7.68
3.39
-0.7
-4.27
-7.17
-9.43
-11.27
-13.05
-15.21
-18.08
-21.77
-26
-30.11
-33.13
-34.09
-32.35
-27.88
-21.31
-13.7
-6.22
0.22
5.15
8.59
10.81
12.11
12.73
12.77
12.29
11.4
10.26
9.07
8.01
7.16
6.57
6.26
6.21
6.44
6.94
7.63
8.29
8.63
8.38
7.31
5.37
2.67
-0.47
-3.69
-6.63
-9.08
-11.06
-12.78
-14.68
-17.2
-20.69
-25.16
-30.11
-34.62
-37.49
-37.74
-34.9
-29.29
-21.86
-13.8
-6.15
0.48
5.93
10.27
13.54
15.7
16.66
16.5
15.6
14.48
13.63
13.21
13.13
13.09
12.85
12.4
11.92
11.73
12
12.61
13.16
13.16
12.18
10.06
6.9
3.03
-1.15
-5.31
-9.2
-12.7
-15.77
-18.47
-20.97
-23.55
-26.55
-30.13
-34.14
-37.97
-40.71
-41.41
-39.48
-34.95
-28.42
-20.88
-13.28
-6.33
-0.32
4.77
8.99
12.37
14.86
16.39
17.01
16.99
16.63
16.23
15.99
15.88
15.82
15.67
15.41
15.05
14.67
14.36
14.13
13.97
13.72
13.25
12.35
10.9
8.82
6.18
3.14
-0.02
-3.06
-5.85
-8.4
-10.86
-13.45
-16.45
-20.02
-24.15
-28.57
-32.75
-36
-37.64
-37.16
-34.36
-29.38
-22.6
-14.67
-6.33
1.68
8.69
14.25
18.19
20.62
21.87
22.25
22.07
21.5
20.67
19.73
18.87
18.27
18.05
18.17
18.49
18.82
18.98
18.93
18.65
18.16
17.44
16.43
15.06
13.31
11.21
8.86
6.36
3.73
0.96
-1.91
-4.79
-7.56
-10.1
-12.39
-14.56
-16.86
-19.58
-22.91
-26.85
-31.09
-35.08
-38.07
-39.29
-38.14
-34.36
-28.18
-20.24
-11.48
-2.88
4.74
10.89
15.4
18.33
19.96
20.63
20.72
20.58
20.55
20.77
21.25
21.89
22.47
22.82
22.94
22.89
22.84
22.88
23.03
23.19
23.22
22.98
22.37
21.31
19.74
17.67
15.2
12.52
9.89
7.5
5.41
3.51
1.57
-0.59
-3.02
-5.7
-8.54
-11.56
-14.93
-18.93
-23.6
-28.66
-33.33
-36.54
-37.34
-35.26
-30.46
-23.73
-16.19
-8.87
-2.5
2.63
6.53
9.4
11.41
12.69
13.29
13.27
12.79
12.09
11.5
11.32
11.71
12.67
14.03
15.52
16.97
18.28
19.42
20.4
21.09
21.24
20.52
18.77
15.99
12.51
8.78
5.27
2.23
-0.28
-2.44
-4.58
-7.01
-10.01
-13.76
-18.25
-23.28
-28.31
-32.59
-35.27
-35.69
-33.53
-28.94
-22.46
-14.89
-7.07
0.25
6.39
10.89
13.51
14.29
13.58
11.92
9.88
7.86
6.14
4.79
3.93
3.65
4
4.94
6.28
7.69
8.8
9.33
9.08
7.93
5.86
2.9
-0.79
-4.89
-9.04
-12.9
-16.24
-19.04
-21.43
-23.69
-26.1
-28.83
-31.8
-34.63
-36.68
-37.3
-35.97
-32.59
-27.37
-20.88
-13.67
-6.36
0.61
6.82
11.96
15.81
18.36
19.79
20.41
20.49
20.22
19.67
18.89
17.94
17.03
16.27
15.79
15.53
15.33
15
14.36
13.34
11.89
10.04
7.72
4.95
1.75
-1.77
-5.42
-9.02
-12.44
-15.73
-19.09
-22.83
-27.09
-31.63
-35.8
-38.6
-39.09
-36.71
-31.56
-24.31
-15.98
-7.57
0.17
6.78
12.07
16.04
18.75
20.36
21.07
21.14
20.78
20.15
19.32
18.37
17.4
16.56
15.97
15.74
15.81
16.03
16.17
15.96
15.25
13.96
12.07
9.61
6.66
3.35
-0.16
-3.61
-6.88
-9.95
-13.05
-16.52
-20.66
-25.44
-30.45
-34.85
-37.68
-38.12
-35.81
-30.89
-23.99
-15.98
-7.71
0.11
7.06
12.89
17.48
20.79
22.86
23.8
23.87
23.4
22.66
21.87
21.05
20.12
18.98
17.63
16.16
14.76
13.61
12.77
12.19
11.7
11.08
10.09
8.6
6.59
4.16
1.53
-1.07
-3.43
-5.52
-7.45
-9.52
-12.08
-15.43
-19.61
-24.36
-29.02
-32.68
-34.38
-33.37
-29.45
-22.98
-14.83
-6.11
2.18
9.36
15.21
19.69
22.91
24.95
25.87
25.83
25.11
24.1
23.18
22.62
22.48
22.62
22.78
22.72
22.25
21.31
20.02
18.53
17.06
15.71
14.47
13.22
11.78
10.05
8.05
5.92
3.8
1.75
-0.33
-2.56
-5.03
-7.67
-10.26
-12.64
-14.79
-17
-19.66
-23.1
-27.16
-31.18
-34.14
-35
-33.17
-28.67
-22.21
-14.8
-7.47
-0.91
4.55
8.92
12.38
15.08
17.13
18.55
19.27
19.28
18.66
17.68
16.74
16.17
16.14
16.57
17.18
17.68
17.86
17.72
17.37
16.9
16.32
15.47
14.19
12.4
10.16
7.61
4.94
2.28
-0.33
-2.84
-5.27
-7.59
-9.89
-12.32
-15.13
-18.53
-22.58
-27.03
-31.39
-34.92
-36.86
-36.65
-34.01
-29.09
-22.44
-14.83
-7.17
-0.21
5.55
9.92
12.93
14.72
15.46
15.35
14.65
13.74
13.04
12.9
13.42
14.42
15.55
16.43
16.88
16.97
16.94
16.94
17
16.87
16.25
14.94
12.94
10.47
7.8
5.13
2.53
-0.01
-2.5
-4.88
-7.04
-8.89
-10.46
-11.88
-13.44
-15.45
-18.18
-21.74
-25.98
-30.41
-34.3
-36.79
-37.16
-35.02
-30.48
-24.12
-16.83
-9.55
-3.02
2.35
6.51
9.66
12.05
13.86
15.16
15.94
16.2
16.05
15.69
15.34
15.19
15.31
15.68
16.22
16.85
17.47
18
18.29
18.2
17.58
16.32
14.5
12.29
9.93
7.66
5.66
3.9
2.28
0.63
-1.23
-3.37
-5.82
-8.41
-10.97
-13.27
-15.23
-16.95
-18.75
-21.05
-24.2
-28.25
-32.82
-37.14
-40.18
-41.02
-39.15
-34.58
-27.91
-20.06
-12.04
-4.65
1.65
6.74
10.73
13.79
16.02
17.48
18.25
18.49
18.4
18.25
18.23
18.36
18.57
18.76
18.84
18.82
18.75
18.67
18.54
18.32
17.93
17.36
16.61
15.63
14.36
12.72
10.63
8.12
5.26
2.22
-0.87
-3.92
-6.89
-9.79
-12.59
-15.26
-17.85
-20.46
-23.3
-26.54
-30.19
-33.92
-37.06
-38.73
-38.1
-34.7
-28.64
-20.6
-11.63
-2.79
5.06
11.45
16.2
19.36
21.04
21.4
20.69
19.31
17.78
16.57
15.97
16.02
16.48
17.03
17.42
17.53
17.35
17
16.6
16.21
15.78
15.15
14.09
12.37
9.82
6.51
2.69
-1.19
-4.74
-7.71
-10.08
-12.06
-13.9
-15.91
-18.32
-21.24
-24.57
-27.99
-30.92
-32.7
-32.81
-31
-27.53
-22.88
-17.6
-12.16
-6.79
-1.67
2.96
6.78
9.47
10.86
11.07
10.41
9.31
8.11
7
6.03
5.17
4.47
4.06
4.04
4.48
5.33
6.35
7.23
7.66
7.43
6.5
4.99
3.09
1
-1.18
-3.36
-5.54
-7.72
-9.92
-12.28
-15.04
-18.44
-22.52
-26.96
-31.06
-33.9
-34.63
-32.84
-28.63
-22.62
-15.72
-8.8
-2.56
2.65
6.75
9.85
12.09
13.64
14.57
14.97
14.9
14.46
13.77
12.9
11.93
10.92
9.93
9.05
8.45
8.17
8.2
8.33
8.21
7.54
6.07
3.78
0.86
-2.42
-5.73
-8.88
-11.78
-14.42
-16.94
-19.48
-22.23
-25.28
-28.61
-31.93
-34.74
-36.39
-36.26
-33.99
-29.58
-23.47
-16.34
-9.02
-2.27
3.38
7.66
10.63
12.57
13.81
14.69
15.4
15.92
16.21
16.21
15.92
15.43
14.82
14.08
13.22
12.2
11.06
9.97
9.08
8.46
8.04
7.54
6.64
5.06
2.75
-0.16
-3.33
-6.38
-9.07
-11.32
-13.28
-15.31
-17.77
-20.96
-24.94
-29.45
-33.91
-37.5
-39.42
-39.06
-36.21
-31.08
-24.17
-16.12
-7.58
0.93
8.94
16.12
22.2
27.06
30.8
33.63
35.83
37.6
38.98
39.9
40.24
39.95
39.07
37.77
36.19
34.44
32.56
30.49
28.06
25.15
21.71
17.87
13.92
10.17
6.79
3.75
0.81
-2.28
-5.63
-9.16
-12.6
-15.75
-18.58
-21.3
-24.22
-27.61
-31.43
-35.36
-38.76
-40.92
-41.27
-39.5
-35.66
-30.14
-23.54
-16.46
-9.5
-3.15
2.23
6.37
9.18
10.81
11.6
11.97
12.32
12.77
13.33
13.85
14.23
14.52
14.8
15.17
15.64
16.15
16.62
17.03
17.41
17.72
17.79
17.33
16.08
13.91
11.02
7.73
4.48
1.51
-1.2
-3.89
-6.96
-10.67
-15.09
-19.96
-24.77
-28.81
-31.38
-31.9
-30.09
-26.1
-20.46
-14
-7.7
-2.38
1.39
3.45
4.03
3.6
2.71
1.77
1.03
0.56
0.31
0.22
0.27
0.44
0.69
1.02
1.44
2.05
2.92
4.09
5.45
6.79
7.82
8.31
8.17
7.47
6.34
4.9
3.17
1.09
-1.51
-4.79
-8.86
-13.62
-18.74
-23.57
-27.27
-28.99
-28.23
-25
-19.87
-13.78
-7.7
-2.36
1.9
5.09
7.44
9.12
10.25
10.89
11.12
11.08
11.01
11.13
11.53
12.15
12.8
13.22
13.29
12.98
12.42
11.73
11
10.17
9.1
7.66
5.83
3.72
1.5
-0.64
-2.7
-4.73
-6.91
-9.4
-12.26
-15.47
-18.81
-21.89
-24.2
-25.19
-24.42
-21.71
-17.29
-11.63
-5.43
0.64
6.11
10.73
14.41
17.19
19.03
19.9
19.84
18.97
17.56
15.92
14.34
12.99
11.87
10.92
9.99
9.03
8.04
7.13
6.41
5.89
5.44
4.83
3.84
2.31
0.24
-2.3
-5.18
-8.24
-11.41
-14.57
-17.6
-20.4
-22.96
-25.37
-27.83
-30.38
-32.85
-34.76
-35.39
-34.12
-30.61
-24.99
-17.78
-9.76
-1.68
5.82
12.39
17.84
22.11
25.17
27.08
27.92
27.86
27.2
26.25
25.33
24.64
24.22
23.92
23.52
22.82
21.77
20.45
19.08
17.84
16.76
15.7
14.41
12.67
10.36
7.53
4.35
1.01
-2.32
-5.58
-8.75
-11.83
-14.86
-17.88
-21
-24.32
-27.91
-31.72
-35.55
-39.01
-41.57
-42.6
-41.56
-38.09
-32.19
-24.31
-15.28
-6.15
2.1
8.8
13.78
17.24
19.54
21.03
21.85
22.04
21.67
20.98
20.31
20
20.16
20.64
21.11
21.26
21.01
20.51
20.01
19.71
19.58
19.4
18.85
17.73
15.97
13.68
11.02
8.2
5.35
2.56
-0.1
-2.65
-5.19
-7.95
-11.18
-15.07
-19.59
-24.36
-28.69
-31.71
-32.63
-31
-26.84
-20.6
-13.07
-5.11
2.49
9.05
14.14
17.49
19.11
19.27
18.4
17.01
15.56
14.3
13.35
12.68
12.25
12.08
12.18
12.51
12.97
13.39
13.62
13.58
13.26
12.65
11.68
10.25
8.27
5.73
2.78
-0.29
-3.27
-6.05
-8.8
-11.88
-15.64
-20.16
-25.12
-29.79
-33.23
-34.6
-33.4
-29.64
-23.8
-16.68
-9.1
-1.82
4.61
9.85
13.68
16.03
16.96
16.64
15.42
13.71
11.94
10.36
9.1
8.12
7.41
6.95
6.79
6.98
7.41
7.88
8.03
7.62
6.47
4.62
2.3
-0.23
-2.74
-5.16
-7.57
-10.19
-13.22
-16.82
-20.99
-25.51
-29.98
-33.84
-36.51
-37.47
-36.29
-32.79
-27.1
-19.72
-11.38
-2.98
4.66
10.97
15.75
19.04
21.04
21.98
22.05
21.45
20.37
19.07
17.82
16.79
16.02
15.45
14.95
14.47
14
13.51
12.94
12.15
11.02
9.51
7.65
5.57
3.38
1.07
-1.48
-4.39
-7.71
-11.42
-15.46
-19.79
-24.44
-29.43
-34.54
-39.32
-43.02
-44.8
-44.04
-40.48
-34.37
-26.38
-17.45
-8.53
-0.39
6.48
11.91
15.96
18.81
20.63
21.52
21.53
20.73
19.33
17.65
16.06
14.83
14.05
13.62
13.33
13.08
12.84
12.72
12.78
12.94
12.9
12.29
10.84
8.5
5.52
2.27
-0.95
-4.03
-7.11
-10.46
-14.39
-19.02
-24.32
-29.95
-35.33
-39.69
-42.18
-42.09
-39.07
-33.26
-25.33
-16.32
-7.26
0.96
7.88
13.4
17.68
20.91
23.24
24.76
25.49
25.56
25.2
24.67
24.21
23.92
23.79
23.69
23.5
23.14
22.61
21.91
21.05
20.01
18.75
17.19
15.27
12.92
10.03
6.63
2.76
-1.45
-5.77
-9.92
-13.59
-16.63
-19.05
-21.15
-23.49
-26.64
-30.98
-36.43
-42.35
-47.65
-51.13
-51.81
-49.23
-43.6
-35.59
-26.27
-16.67
-7.59
0.56
7.7
13.94
19.38
24.02
27.74
30.39
32.02
32.8
33.08
33.22
33.46
33.88
34.46
35.08
35.65
36.03
36.11
35.75
34.93
33.74
32.29
30.69
28.84
26.48
23.23
18.88
13.49
7.43
1.25
-4.55
-9.79
-14.56
-19.14
-23.79
-28.66
-33.76
-38.94
-43.91
-48.09
-50.72
-50.92
-48.07
-42
-33.27
-22.94
-12.32
-2.53
5.79
12.47
17.64
21.52
24.34
26.26
27.51
28.35
29.03
29.71
30.42
31.1
31.73
32.33
33.04
33.95
35.01
35.99
36.55
36.4
35.4
33.64
31.29
28.52
25.36
21.77
17.74
13.37
8.9
4.64
0.78
-2.77
-6.35
-10.41
-15.35
-21.24
-27.75
-34.19
-39.65
-43.14
-43.85
-41.3
-35.52
-27.09
-17.11
-6.97
2.03
8.95
13.48
15.75
16.24
15.45
13.78
11.53
8.92
6.21
3.59
1.2
-1
-3.16
-5.49
-8.09
-10.85
-13.49
-15.66
-17.06
-17.64
-17.57
-17.25
-17.17
-17.77
-19.29
-21.72
-24.88
-28.41
-31.96
-35.12
-37.49
-38.81
-38.96
-38.07
-36.45
-34.39
-31.91
-28.68
-24.02
-17.34
-8.4
2.29
13.63
24.16
32.48
37.66
39.37
37.9
33.98
28.66
23.09
18.44
15.65
15.24
17.22
21.03
25.73
30.21
33.59
35.31
35.27
33.81
31.45
28.75
26.03
23.44
20.85
18.02
14.75
10.95
6.77
2.42
-1.76
-5.53
-8.78
-11.53
-13.95
-16.24
-18.63
-21.33
-24.54
-28.39
-32.86
-37.58
-41.83
-44.57
-44.8
-41.9
-35.89
-27.52
-17.98
-8.59
-0.35
6.18
10.84
13.76
15.18
15.45
14.98
14.22
13.56
13.26
13.38
13.82
14.37
14.86
15.16
15.23
15.06
14.61
13.83
12.6
10.8
8.39
5.41
2.02
-1.5
-4.84
-7.79
-10.32
-12.65
-15.16
-18.26
-22.16
-26.63
-31
-34.3
-35.49
-33.84
-29.19
-21.99
-13.21
-4.03
4.46
11.52
16.75
20.19
22
22.52
22.09
21.08
19.85
18.77
18.11
17.86
17.78
17.45
16.45
14.62
12.16
9.48
7.05
5.18
3.84
2.76
1.54
-0.13
-2.31
-4.83
-7.35
-9.53
-11.17
-12.33
-13.33
-14.61
-16.57
-19.32
-22.59
-25.72
-27.84
-28.1
-25.94
-21.29
-14.61
-6.8
1.03
7.87
13.1
16.64
18.81
20.13
21
21.6
21.85
21.64
20.97
20.06
19.25
18.79
18.76
18.94
18.97
18.47
17.25
15.3
12.78
9.92
6.93
3.91
0.88
-2.18
-5.36
-8.76
-12.49
-16.63
-21.16
-25.8
-29.95
-32.75
-33.4
-31.33
-26.55
-19.61
-11.44
-3.02
4.85
11.7
17.3
21.58
24.53
26.15
26.56
26.02
24.91
23.64
22.52
21.71
21.15
20.64
19.9
18.68
16.86
14.52
11.87
9.19
6.65
4.28
1.9
-0.75
-3.85
-7.49
-11.57
-15.96
-20.44
-24.72
-28.35
-30.74
-31.24
-29.42
-25.28
-19.36
-12.51
-5.64
0.65
6.1
10.7
14.42
17.09
18.46
18.34
16.79
14.23
11.25
8.35
5.85
3.76
1.94
0.24
-1.3
-2.61
-3.6
-4.28
-4.9
-5.75
-7.17
-9.32
-12.17
-15.54
-19.22
-23.02
-26.72
-29.98
-32.3
-33.1
-31.87
-28.45
-23.08
-16.44
-9.43
-2.84
2.81
7.34
10.82
13.34
14.93
15.47
14.89
13.23
10.81
8.18
6
4.73
4.52
5.08
5.82
6.18
5.8
4.69
3.1
1.46
0.01
-1.2
-2.32
-3.67
-5.54
-8.22
-11.89
-16.52
-21.72
-26.76
-30.66
-32.41
-31.34
-27.32
-20.93
-13.17
-5.19
2.05
7.99
12.49
15.64
17.59
18.45
18.28
17.16
15.29
12.97
10.58
8.48
6.9
5.86
5.2
4.68
4.07
3.23
2.18
0.98
-0.24
-1.43
-2.66
-4.06
-5.82
-8.13
-11.14
-14.94
-19.53
-24.71
-29.98
-34.5
-37.22
-37.28
-34.22
-28.27
-20.28
-11.43
-2.87
4.6
10.6
15.13
18.37
20.51
21.68
21.94
21.35
20.11
18.48
16.77
15.28
14.18
13.46
12.93
12.29
11.27
9.75
7.83
5.77
3.85
2.27
0.99
-0.23
-1.69
-3.74
-6.61
-10.4
-15.07
-20.42
-26.01
-31.11
-34.77
-36.05
-34.33
-29.55
-22.32
-13.71
-4.89
3.14
9.85
15.11
19
21.69
23.27
23.8
23.44
22.43
21.04
19.51
17.87
16.1
14.15
12.14
10.24
8.67
7.49
6.59
5.74
4.71
3.4
1.91
0.42
-0.89
-1.97
-2.9
-3.87
-5.08
-6.73
-9
-12.05
-15.94
-20.47
-25.09
-28.94
-31.01
-30.47
-27.01
-20.95
-13.19
-4.88
2.92
9.53
14.74
18.64
21.46
23.35
24.41
24.71
24.33
23.42
22.18
20.77
19.36
18.02
16.78
15.62
14.55
13.52
12.44
11.25
9.85
8.18
6.3
4.28
2.22
0.23
-1.68
-3.55
-5.47
-7.56
-10.01
-12.97
-16.57
-20.69
-24.93
-28.51
-30.45
-29.85
-26.3
-20.02
-11.94
-3.32
4.59
10.91
15.25
17.69
18.58
18.33
17.32
15.86
14.2
12.53
11.02
9.82
9.02
8.64
8.57
8.6
8.49
8.06
7.24
6.1
4.75
3.29
1.72
-0.03
-2.07
-4.42
-6.99
-9.71
-12.55
-15.62
-19.06
-22.88
-26.77
-30.01
-31.69
-30.95
-27.38
-21.19
-13.25
-4.83
2.9
9.05
13.28
15.65
16.51
16.18
15.01
13.25
11.2
9.22
7.66
6.76
6.6
6.96
7.48
7.82
7.77
7.31
6.6
5.76
4.8
3.59
1.95
-0.24
-2.91
-5.85
-8.82
-11.71
-14.56
-17.65
-21.25
-25.52
-30.28
-34.96
-38.61
-40.24
-39.04
-34.8
-27.98
-19.56
-10.72
-2.46
4.64
10.49
15.13
18.62
20.96
22.1
22.19
21.6
20.88
20.43
20.35
20.38
20.06
19.01
17.13
14.77
12.43
10.62
9.52
8.92
8.37
7.37
5.6
3.01
-0.21
-3.71
-7.16
-10.38
-13.35
-16.22
-19.25
-22.74
-26.81
-31.2
-35.19
-37.76
-37.87
-34.87
-28.88
-20.71
-11.6
-2.77
4.96
11.22
15.99
19.29
21.14
21.53
20.67
19.01
17.21
15.92
15.46
15.81
16.58
17.35
17.78
17.76
17.46
17.08
16.81
16.65
16.51
16.17
15.37
13.88
11.52
8.3
4.34
-0.03
-4.42
-8.46
-11.93
-14.91
-17.67
-20.68
-24.29
-28.66
-33.53
-38.27
-41.99
-43.77
-42.92
-39.17
-32.83
-24.65
-15.63
-6.85
0.96
7.44
12.58
16.58
19.64
21.81
23.06
23.39
22.95
22.07
21.2
20.67
20.57
20.73
20.85
20.68
20.11
19.22
18.2
17.2
16.24
15.22
13.96
12.27
10.06
7.39
4.46
1.58
-0.97
-3.07
-4.79
-6.38
-8.2
-10.57
-13.73
-17.68
-22.29
-27.12
-31.57
-34.84
-36.15
-34.94
-31.06
-24.85
-17.04
-8.64
-0.63
6.24
11.51
15.02
16.85
17.27
16.62
15.3
13.72
12.25
11.23
10.86
11.2
12.13
13.42
14.75
15.92
16.75
17.22
17.36
17.13
16.49
15.3
13.46
10.9
7.65
3.92
-0.01
-3.85
-7.36
-10.59
-13.8
-17.36
-21.45
-25.89
-29.91
-32.51
-32.75
-30.12
-24.8
-17.57
-9.54
-1.78
4.91
10.14
13.77
15.9
16.68
16.37
15.24
13.66
11.99
10.56
9.57
9.04
8.93
9.13
9.52
9.95
10.27
10.25
9.69
8.49
6.68
4.44
1.99
-0.51
-3.02
-5.53
-8.14
-10.91
-13.91
-17.23
-20.94
-25.04
-29.22
-32.87
-35.09
-35.01
-32.11
-26.44
-18.73
-10.1
-1.76
5.43
11.03
15.06
17.75
19.34
20
19.83
19.02
17.85
16.68
15.78
15.19
14.73
14.06
13
11.54
10.01
8.75
7.95
7.49
6.95
5.91
4.1
1.6
-1.28
-4.15
-6.78
-9.15
-11.4
-13.73
-16.3
-19.26
-22.74
-26.75
-31.02
-34.87
-37.32
-37.35
-34.34
-28.34
-20.16
-11.08
-2.4
4.92
10.49
14.4
17.02
18.68
19.65
20.01
19.84
19.28
18.56
18.02
17.87
18.21
18.86
19.52
19.81
19.52
18.67
17.48
16.22
15
13.72
12.08
9.78
6.71
3
-1.02
-4.93
-8.45
-11.5
-14.18
-16.69
-19.22
-22.01
-25.24
-28.97
-32.98
-36.63
-38.97
-39
-36.07
-30.18
-22.08
-12.98
-4.16
3.49
9.64
14.43
18.15
21
22.99
24.05
24.17
23.54
22.5
21.46
20.73
20.42
20.49
20.77
21.11
21.36
21.48
21.42
21.13
20.6
19.78
18.65
17.13
15.15
12.62
9.53
5.99
2.24
-1.39
-4.57
-7.12
-9.02
-10.47
-11.78
-13.31
-15.34
-18.09
-21.63
-25.88
-30.49
-34.83
-38.01
-39.09
-37.37
-32.68
-25.51
-16.86
-7.95
0.14
6.75
11.7
15.15
17.42
18.79
19.49
19.67
19.5
19.18
18.93
18.89
19.12
19.51
19.86
19.94
19.61
18.92
18.03
17.21
16.6
16.21
15.88
15.33
14.29
12.59
10.2
7.3
4.15
1.03
-1.85
-4.39
-6.62
-8.77
-11.16
-14.11
-17.82
-22.15
-26.57
-30.15
-31.87
-30.95
-27.13
-20.82
-12.96
-4.73
2.85
9.14
13.86
17.03
18.74
19.09
18.2
16.32
13.86
11.4
9.51
8.51
8.36
8.69
8.98
8.8
8.06
6.97
5.98
5.47
5.53
5.87
5.92
5.15
3.3
0.55
-2.61
-5.56
-7.97
-9.81
-11.42
-13.23
-15.59
-18.63
-22.27
-26.21
-29.97
-32.96
-34.41
-33.64
-30.24
-24.31
-16.55
-8.08
-0.09
6.54
11.42
14.69
16.73
17.97
18.66
18.89
18.64
17.95
16.98
15.96
15.13
14.6
14.35
14.19
13.89
13.27
12.27
11.04
9.8
8.77
8.02
7.44
6.77
5.66
3.88
1.37
-1.63
-4.75
-7.58
-9.86
-11.62
-13.12
-14.74
-16.81
-19.57
-23.01
-26.95
-30.97
-34.49
-36.81
-37.23
-35.23
-30.74
-24.19
-16.44
-8.52
-1.32
4.68
9.42
13.12
16.06
18.37
20.06
21.01
21.18
20.67
19.75
18.74
17.91
17.43
17.28
17.33
17.4
17.25
16.72
15.75
14.36
12.7
11
9.4
8.02
6.79
5.5
3.96
2.03
-0.28
-2.83
-5.37
-7.69
-9.71
-11.52
-13.3
-15.27
-17.63
-20.5
-23.9
-27.65
-31.34
-34.24
-35.55
-34.56
-30.95
-25.01
-17.56
-9.7
-2.41
3.68
8.43
12.03
14.76
16.81
18.2
18.91
18.99
18.63
18.09
17.64
17.43
17.46
17.6
17.64
17.48
17.09
16.55
15.92
15.24
14.45
13.38
11.91
9.96
7.67
5.27
3.04
1.19
-0.16
-1.14
-2
-2.99
-4.38
-6.27
-8.69
-11.55
-14.73
-18.05
-21.34
-24.28
-26.42
-27.23
-26.19
-23.05
-18
-11.63
-4.87
1.36
6.4
10.04
12.36
13.64
14.11
13.87
13.03
11.77
10.43
9.39
8.89
8.94
9.31
9.67
9.76
9.49
9.01
8.48
7.97
7.4
6.5
5
2.78
-0.09
-3.3
-6.43
-9.12
-11.16
-12.6
-13.66
-14.74
-16.15
-18.16
-20.77
-23.74
-26.55
-28.49
-28.86
-27.21
-23.52
-18.19
-12.02
-5.86
-0.4
3.97
7.15
9.3
10.63
11.28
11.4
11.08
10.52
9.95
9.57
9.48
9.62
9.83
9.91
9.77
9.45
9.14
9.03
9.13
9.29
9.2
8.52
7.05
4.76
1.8
-1.55
-4.97
-8.21
-11.06
-13.54
-15.81
-18.17
-20.89
-24.12
-27.69
-31.1
-33.63
-34.53
-33.3
-29.85
-24.48
-17.86
-10.78
-4.04
1.8
6.48
10
12.56
14.38
15.63
16.36
16.59
16.36
15.88
15.36
15.04
14.96
14.99
14.9
14.46
13.61
12.5
11.41
10.59
10.1
9.72
9.08
7.77
5.6
2.73
-0.43
-3.33
-5.56
-7.11
-8.29
-9.69
-11.9
-15.28
-19.78
-24.92
-29.9
-33.7
-35.45
-34.57
-31.04
-25.32
-18.26
-10.78
-3.68
2.56
7.71
11.74
14.72
16.81
18.16
19
19.57
20.06
20.51
20.9
21.08
20.94
20.42
19.48
18.21
16.73
15.17
13.68
12.39
11.3
10.32
9.22
7.71
5.63
2.96
-0.09
-3.19
-6
-8.37
-10.36
-12.2
-14.24
-16.73
-19.83
-23.49
-27.48
-31.34
-34.48
-36.17
-35.76
-32.92
-27.73
-20.76
-12.93
-5.21
1.6
7.08
11.13
13.95
15.78
16.87
17.38
17.44
17.25
16.99
16.87
16.89
17
16.96
16.62
15.93
15.05
14.21
13.56
13.12
12.69
12
10.88
9.29
7.32
5.14
2.91
0.74
-1.27
-3.07
-4.61
-5.9
-6.97
-7.94
-8.97
-10.31
-12.18
-14.71
-17.76
-20.81
-23.08
-23.73
-22.18
-18.37
-12.77
-6.24
0.29
6.08
10.66
13.82
15.51
15.81
14.91
13.2
11.13
9.19
7.65
6.57
5.8
5.17
4.6
4.13
3.98
4.29
5.09
6.14
7.06
7.37
6.74
5.09
2.58
-0.38
-3.32
-5.87
-7.85
-9.3
-10.44
-11.55
-12.92
-14.72
-16.96
-19.46
-21.83
-23.49
-23.84
-22.44
-19.17
-14.36
-8.7
-2.97
2.17
6.38
9.6
11.9
13.32
13.87
13.58
12.58
11.24
10.03
9.27
9.1
9.4
9.88
10.3
10.53
10.55
10.38
10.04
9.47
8.62
7.45
5.97
4.24
2.3
0.21
-2
-4.26
-6.55
-8.81
-11.04
-13.31
-15.66
-18.19
-20.94
-23.84
-26.67
-28.99
-30.18
-29.63
-26.95
-22.22
-15.99
-9.19
-2.74
2.72
6.95
10.12
12.51
14.34
15.65
16.35
16.39
15.88
15.1
14.36
13.94
13.89
14.1
14.36
14.47
14.29
13.85
13.26
12.68
12.18
11.74
11.17
10.26
8.85
6.9
4.47
1.73
-1.15
-4.05
-6.85
-9.46
-11.8
-13.82
-15.58
-17.28
-19.23
-21.72
-24.87
-28.43
-31.85
-34.27
-34.86
-33.06
-28.8
-22.56
-15.21
-7.75
-0.99
4.59
8.91
12.17
14.61
16.45
17.78
18.62
19.02
19.12
19.05
18.9
18.7
18.38
17.93
17.39
16.84
16.36
15.92
15.45
14.84
14.02
13.03
11.89
10.59
9.03
7.16
4.99
2.68
0.46
-1.55
-3.35
-5.14
-7.11
-9.36
-11.86
-14.5
-17.2
-19.99
-22.9
-25.82
-28.42
-30.07
-30.08
-27.95
-23.67
-17.73
-10.98
-4.32
1.59
6.39
10.04
12.61
14.2
14.91
14.89
14.38
13.68
13.06
12.65
12.41
12.3
12.21
12.12
12.04
11.96
11.88
11.78
11.66
11.53
11.32
10.97
10.33
9.3
7.83
6.04
4.11
2.31
0.8
-0.4
-1.45
-2.61
-4.17
-6.38
-9.21
-12.42
-15.55
-17.99
-19.24
-18.97
-17.15
-14.04
-10.07
-5.74
-1.55
2.14
5.08
7.17
8.47
9.09
9.22
9.02
8.62
8.1
7.51
6.87
6.28
5.86
5.78
6.13
6.91
7.96
8.96
9.6
9.57
8.67
6.9
4.39
1.37
-1.85
-4.95
-7.68
-9.94
-11.8
-13.54
-15.56
-18.16
-21.36
-24.79
-27.77
-29.46
-29.12
-26.46
-21.67
-15.42
-8.66
-2.32
2.9
6.71
9.15
10.51
11.15
11.41
11.5
11.52
11.5
11.39
11.12
10.66
9.97
9.08
8.11
7.24
6.67
6.5
6.65
6.91
6.9
6.21
4.57
1.93
-1.44
-5.07
-8.39
-10.95
-12.63
-13.65
-14.53
-15.86
-18.05
-21.11
-24.6
-27.67
-29.39
-29.03
-26.32
-21.59
-15.5
-8.93
-2.59
3.02
7.7
11.43
14.26
16.2
17.27
17.47
16.84
15.55
13.91
12.29
11.1
10.58
10.7
11.19
11.61
11.61
11.1
10.22
9.32
8.64
8.16
7.61
6.6
4.87
2.48
-0.26
-2.84
-4.86
-6.18
-6.98
-7.66
-8.69
-10.5
-13.28
-17.02
-21.36
-25.69
-29.17
-30.9
-30.22
-26.92
-21.4
-14.53
-7.42
-1.03
4.04
7.67
10.06
11.61
12.65
13.37
13.88
14.14
14.16
14
13.79
13.71
13.93
14.48
15.26
16.06
16.6
16.75
16.48
15.94
15.25
14.53
13.78
12.92
11.81
10.25
8.15
5.46
2.31
-1.1
-4.45
-7.48
-10.02
-12.06
-13.71
-15.14
-16.51
-18.02
-19.87
-22.29
-25.33
-28.77
-32.01
-34.13
-34.25
-31.84
-26.96
-20.27
-12.75
-5.4
1.07
6.34
10.37
13.28
15.22
16.29
16.61
16.38
15.83
15.24
14.88
14.89
15.31
16.04
16.89
17.58
17.93
17.8
17.25
16.41
15.48
14.56
13.63
12.63
11.47
10.13
8.74
7.47
6.42
5.59
4.84
3.97
2.81
1.29
-0.57
-2.71
-5.04
-7.59
-10.42
-13.63
-17.27
-21.15
-24.81
-27.51
-28.45
-27.02
-23.15
-17.37
-10.61
-4.01
1.62
5.92
8.96
11.03
12.41
13.21
13.48
13.25
12.67
12
11.48
11.24
11.17
11.01
10.53
9.64
8.46
7.26
6.32
5.81
5.72
5.83
5.81
5.35
4.31
2.71
0.75
-1.29
-3.15
-4.69
-5.92
-7.05
-8.37
-10.23
-12.85
-16.23
-20.07
-23.79
-26.61
-27.85
-27.03
-24.09
-19.41
-13.7
-7.79
-2.35
2.21
5.78
8.45
10.41
11.77
12.58
12.88
12.78
12.43
12.05
11.8
11.77
11.91
12.08
12.09
11.79
11.09
10
8.61
7.05
5.4
3.64
1.72
-0.41
-2.71
-5.02
-7.11
-8.83
-10.2
-11.43
-12.85
-14.74
-17.18
-20.05
-23
-25.56
-27.18
-27.36
-25.79
-22.39
-17.45
-11.57
-5.53
-0.08
4.27
7.39
9.44
10.74
11.6
12.24
12.67
12.88
12.89
12.76
12.63
12.62
12.73
12.85
12.83
12.59
12.14
11.57
11
10.46
9.88
9.11
8.01
6.46
4.39
1.88
-0.9
-3.68
-6.26
-8.52
-10.52
-12.45
-14.66
-17.4
-20.79
-24.62
-28.44
-31.53
-33.15
-32.73
-30.03
-25.25
-18.98
-12.05
-5.23
0.87
5.95
9.99
13.1
15.46
17.22
18.47
19.31
19.82
20.1
20.27
20.39
20.43
20.25
19.73
18.76
17.34
15.63
13.85
12.21
10.83
9.65
8.45
7
5.14
2.88
0.41
-1.98
-4.02
-5.58
-6.68
-7.53
-8.46
-9.83
-11.94
-14.92
-18.63
-22.61
-26.07
-28.16
-28.17
-25.86
-21.5
-15.87
-9.9
-4.42
0.05
3.42
5.89
7.73
9.16
10.25
11.01
11.44
11.67
11.9
12.33
13.05
13.97
14.83
15.38
15.46
15.05
14.32
13.46
12.58
11.65
10.54
9.14
7.48
5.73
4.11
2.77
1.67
0.57
-0.82
-2.75
-5.29
-8.41
-12
-15.91
-19.84
-23.36
-25.87
-26.74
-25.51
-22.14
-17.01
-10.82
-4.36
1.71
7
11.32
14.63
16.9
18.13
18.35
17.73
16.51
15.07
13.73
12.74
12.18
11.91
11.72
11.38
10.78
9.92
8.88
7.76
6.58
5.29
3.8
2.09
0.18
-1.79
-3.71
-5.53
-7.33
-9.26
-11.48
-14.06
-16.93
-19.99
-23.02
-25.81
-28.1
-29.56
-29.78
-28.31
-24.99
-19.99
-13.87
-7.46
-1.51
3.51
7.52
10.7
13.26
15.26
16.68
17.45
17.62
17.45
17.23
17.21
17.4
17.61
17.58
17.13
16.3
15.24
14.24
13.46
12.9
12.36
11.51
10.04
7.74
4.62
0.87
-3.12
-6.95
-10.26
-12.91
-15.07
-17.1
-19.49
-22.56
-26.33
-30.38
-33.89
-35.9
-35.65
-32.8
-27.58
-20.67
-13.01
-5.5
1.24
6.88
11.39
14.89
17.4
18.97
19.57
19.3
18.43
17.37
16.47
15.93
15.66
15.41
14.85
13.79
12.15
10.01
7.45
4.55
1.41
-1.72
-4.5
-6.56
-7.66
-7.79
-7.15
-6
-4.55
-2.89
-1.14
0.51
1.77
2.32
1.9
0.39
-2.21
-5.7
-9.75
-13.81
-17.13
-18.91
-18.55
-15.93
-11.45
-5.92
-0.27
4.77
8.83
11.83
13.9
15.17
15.75
15.72
15.17
14.27
13.26
12.42
12.06
12.36
13.33
14.79
16.39
17.76
18.7
19.18
19.38
19.44
19.36
18.96
17.96
16.12
13.41
10.03
6.36
2.77
-0.58
-3.76
-7.1
-10.98
-15.65
-21.04
-26.7
-31.86
-35.65
-37.33
-36.51
-33.22
-27.9
-21.28
-14.13
-7.16
-0.86
4.45
8.57
11.45
13.09
13.62
13.32
12.54
11.65
10.92
10.53
10.52
10.86
11.51
12.33
13.16
13.81
14.04
13.68
12.66
11.01
8.86
6.35
3.53
0.34
-3.34
-7.64
-12.6
-18.11
-23.85
-29.38
-34.17
-37.67
-39.33
-38.73
-35.63
-30.11
-22.69
-14.2
-5.71
1.85
7.87
12.2
15.1
16.98
18.17
18.8
18.77
17.92
16.22
13.9
11.42
9.32
7.98
7.44
7.38
7.32
6.81
5.67
4.04
2.18
0.38
-1.28
-2.88
-4.59
-6.56
-8.88
-11.63
-14.86
-18.65
-22.92
-27.26
-30.89
-32.83
-32.27
-28.93
-23.19
-16
-8.51
-1.72
3.78
7.81
10.52
12.13
12.85
12.8
12.07
10.74
8.93
6.94
5.18
4.12
4.06
5.09
6.89
8.92
10.6
11.53
11.65
11.1
10.11
8.82
7.23
5.28
2.92
0.13
-3.09
-6.76
-10.94
-15.53
-20.16
-24.16
-26.66
-26.88
-24.43
-19.5
-12.77
-5.25
2.12
8.61
13.85
17.79
20.47
22.03
22.54
22.1
20.85
19.05
17
14.99
13.22
11.69
10.28
8.86
7.31
5.67
4.04
2.61
1.48
0.62
-0.13
-1.05
-2.33
-4.14
-6.5
-9.31
-12.47
-15.92
-19.58
-23.27
-26.57
-28.81
-29.19
-27.07
-22.31
-15.35
-7.13
1.27
8.95
15.36
20.29
23.7
25.66
26.32
25.88
24.68
23.07
21.38
19.75
18.22
16.7
15.16
13.64
12.2
10.92
9.8
8.74
7.62
6.34
4.88
3.27
1.59
-0.1
-1.84
-3.7
-5.88
-8.55
-11.86
-15.79
-20.13
-24.45
-28.08
-30.25
-30.28
-27.79
-22.89
-16.2
-8.69
-1.41
4.82
9.6
12.93
15.06
16.31
16.86
16.78
16.1
14.93
13.45
11.91
10.53
9.38
8.49
7.77
7.17
6.66
6.21
5.82
5.38
4.71
3.57
1.76
-0.78
-3.89
-7.2
-10.26
-12.72
-14.51
-15.92
-17.51
-19.87
-23.36
-27.84
-32.65
-36.74
-39.01
-38.58
-35.14
-28.93
-20.77
-11.75
-2.92
4.93
11.36
16.21
19.58
21.64
22.62
22.78
22.41
21.77
21.05
20.34
19.66
19.01
18.36
17.79
17.38
17.23
17.35
17.69
18.07
18.31
18.21
17.64
16.47
14.65
12.15
9.04
5.47
1.67
-2.1
-5.63
-8.85
-11.8
-14.63
-17.48
-20.53
-23.94
-27.75
-31.79
-35.6
-38.41
-39.34
-37.68
-33.17
-26.15
-17.43
-8.11
0.78
8.47
14.51
18.74
21.24
22.34
22.44
22.07
21.61
21.32
21.21
21.13
20.88
20.35
19.57
18.68
17.91
17.36
17.02
16.81
16.6
16.3
15.89
15.4
14.84
14.14
13.15
11.78
10.05
8.1
6.13
4.27
2.49
0.62
-1.52
-4.04
-6.84
-9.7
-12.47
-15.14
-17.92
-21.15
-24.99
-29.14
-32.81
-34.88
-34.29
-30.54
-23.91
-15.41
-6.44
1.7
8.2
12.8
15.68
17.2
17.66
17.35
16.48
15.32
14.16
13.25
12.73
12.62
12.82
13.19
13.62
13.97
14.18
14.16
13.89
13.37
12.65
11.74
10.61
9.19
7.38
5.17
2.65
0.05
-2.34
-4.27
-5.62
-6.47
-7.03
-7.62
-8.51
-9.9
-11.92
-14.52
-17.54
-20.6
-23.13
-24.44
-23.96
-21.35
-16.73
-10.69
-4.07
2.23
7.57
11.66
14.55
16.49
17.68
18.27
18.23
17.58
16.42
15.02
13.71
12.75
12.18
11.85
11.49
10.95
10.26
9.63
9.29
9.35
9.69
10.01
10
9.47
8.36
6.77
4.78
2.49
-0.05
-2.77
-5.54
-8.31
-11.08
-13.98
-17.14
-20.56
-23.97
-26.75
-28.13
-27.43
-24.32
-19.04
-12.24
-4.84
2.24
8.27
12.83
15.79
17.21
17.37
16.65
15.45
14.13
12.86
11.75
10.76
9.89
9.15
8.57
8.14
7.8
7.43
6.98
6.49
5.97
5.46
4.83
3.93
2.62
0.88
-1.13
-3.2
-5.15
-6.95
-8.72
-10.7
-13.11
-16.01
-19.22
-22.25
-24.4
-24.97
-23.51
-19.97
-14.88
-9.05
-3.4
1.42
5.11
7.71
9.45
10.49
10.93
10.71
9.85
8.5
6.93
5.49
4.53
4.22
4.5
5.18
5.97
6.61
6.93
6.84
6.32
5.42
4.14
2.55
0.7
-1.38
-3.63
-6.01
-8.47
-11
-13.59
-16.22
-18.83
-21.29
-23.28
-24.38
-24.07
-21.99
-18.1
-12.74
-6.61
-0.56
4.67
8.58
11.04
12.2
12.31
11.67
10.46
8.84
6.97
5.06
3.39
2.22
1.68
1.71
2.15
2.74
3.26
3.58
3.65
3.46
3
2.24
1.21
-0.05
-1.45
-2.94
-4.5
-6.21
-8.15
-10.45
-13.14
-16.1
-19
-21.35
-22.58
-22.2
-20.03
-16.29
-11.54
-6.52
-1.88
1.93
4.8
6.8
8.03
8.54
8.38
7.67
6.65
5.69
5.15
5.2
5.77
6.57
7.25
7.58
7.47
6.97
6.16
5.08
3.7
1.97
-0.14
-2.55
-5.04
-7.38
-9.36
-10.92
-12.23
-13.6
-15.37
-17.68
-20.36
-22.87
-24.57
-24.9
-23.6
-20.78
-16.8
-12.13
-7.21
-2.47
1.8
5.31
7.88
9.48
10.21
10.33
10.14
9.93
9.84
9.93
10.16
10.44
10.71
10.86
10.85
10.64
10.25
9.74
9.12
8.35
7.33
5.92
3.98
1.54
-1.24
-4.07
-6.62
-8.79
-10.63
-12.41
-14.39
-16.73
-19.32
-21.84
-23.77
-24.59
-23.93
-21.62
-17.79
-12.83
-7.32
-1.9
2.88
6.64
9.28
10.91
11.71
11.95
11.8
11.39
10.79
10.11
9.44
8.87
8.45
8.2
8.1
8.11
8.14
8.12
7.96
7.54
6.82
5.77
4.44
2.91
1.25
-0.48
-2.27
-4.06
-5.78
-7.31
-8.57
-9.6
-10.58
-11.82
-13.61
-16.07
-18.94
-21.69
-23.61
-24.09
-22.83
-19.91
-15.75
-10.97
-6.11
-1.54
2.51
5.99
8.83
10.92
12.13
12.41
11.91
10.94
9.94
9.21
8.88
8.82
8.76
8.52
8.12
7.76
7.67
7.94
8.39
8.65
8.39
7.41
5.76
3.65
1.32
-1.06
-3.42
-5.74
-8.01
-10.17
-12.19
-14.07
-15.8
-17.36
-18.59
-19.28
-19.24
-18.34
-16.7
-14.59
-12.36
-10.22
-8.17
-5.97
-3.18
0.53
5.28
10.87
16.76
22.34
27.14
30.96
33.93
36.39
38.69
41.05
43.43
45.64
47.45
48.74
49.45
49.51
48.76
47.04
44.36
41.01
37.65
35.04
33.69
33.69
34.51
35.33
35.31
34.03
31.52
28.12
24.13
19.63
14.49
8.53
1.74
-5.59
-12.95
-19.84
-25.92
-31.12
-35.54
-39.22
-42.02
-43.6
-43.63
-42.03
-39.11
-35.47
-31.82
-28.54
-25.66
-22.91
-19.99
-16.84
-13.72
-11.11
-9.42
-8.71
-8.67
-8.82
-8.67
-8.03
-6.98
-5.82
-4.83
-4.17
-3.84
-3.78
-3.89
-4.11
-4.45
-5.02
-5.95
-7.35
-9.18
-11.29
-13.39
-15.14
-16.33
-16.83
-16.67
-15.9
-14.66
-13.2
-11.75
-10.41
-9.05
-7.18
-4.21
0.38
6.62
13.93
21.29
27.62
32.23
35.08
36.69
37.73
38.77
39.94
40.99
41.5
41.11
39.79
37.75
35.36
32.86
30.25
27.21
23.21
17.71
10.41
1.32
-9.13
-20.21
-31.07
-40.96
-49.33
-55.84
-60.37
-62.95
-63.83
-63.46
-62.46
-61.45
-60.78
-60.45
-60.05
-58.99
-56.73
-53.11
-48.31
-42.85
-37.26
-32.08
-27.66
-24.2
-21.75
-20.26
-19.56
-19.4
-19.53
-19.73
-19.85
-19.84
-19.63
-19.12
-18.11
-16.42
-13.91
-10.59
-6.64
-2.31
2.22
6.9
11.75
16.68
21.36
25.16
27.43
27.65
25.74
21.97
16.84
10.83
4.38
-1.97
-7.44
-10.99
-11.64
-8.9
-3.18
4.32
11.86
17.86
21.39
22.39
21.47
19.55
17.47
15.72
14.39
13.2
11.69
9.37
5.96
1.46
-3.72
-8.93
-13.41
-16.59
-18.24
-18.52
-17.88
-16.93
-16.21
-16.08
-16.69
-17.98
-19.79
-21.88
-24.11
-26.38
-28.66
-30.94
-33.11
-34.92
-35.98
-35.76
-33.88
-30.23
-25.07
-18.97
-12.66
-6.73
-1.53
2.86
6.53
9.54
11.88
13.43
14.14
14.07
13.47
12.68
11.97
11.47
11.12
10.74
10.2
9.42
8.46
7.45
6.47
5.48
4.38
2.98
1.2
-0.91
-3.22
-5.51
-7.65
-9.66
-11.7
-14.04
-16.93
-20.47
-24.48
-28.52
-31.97
-34.17
-34.61
-33.1
-29.75
-24.93
-19.13
-12.81
-6.38
-0.19
5.48
10.4
14.42
17.47
19.6
20.91
21.53
21.54
21.1
20.36
19.51
18.71
18.03
17.43
16.85
16.28
15.75
15.33
14.99
14.59
13.88
12.65
10.75
8.23
5.23
1.95
-1.41
-4.74
-7.99
-11.22
-14.55
-18.19
-22.26
-26.68
-31.1
-34.87
-37.22
-37.5
-35.37
-30.97
-24.83
-17.69
-10.29
-3.13
3.6
9.84
15.45
20.17
23.64
25.49
25.7
24.59
22.79
21.09
20.1
20.07
20.84
21.97
22.92
23.31
23.03
22.25
21.32
20.49
19.78
18.97
17.67
15.56
12.54
8.88
4.94
1.15
-2.3
-5.4
-8.27
-11.07
-13.88
-16.71
-19.62
-22.73
-26.09
-29.67
-33.15
-35.93
-37.31
-36.68
-33.75
-28.63
-21.85
-14.08
-6.02
1.78
8.88
14.91
19.56
22.68
24.32
24.8
24.64
24.37
24.33
24.67
25.3
26.12
27.03
28
28.96
29.75
30.14
29.92
29.02
27.55
25.75
23.8
21.72
19.41
16.7
13.54
10.1
6.61
3.31
0.33
-2.36
-4.89
-7.45
-10.29
-13.67
-17.77
-22.62
-27.87
-32.73
-36.16
-37.11
-34.98
-29.85
-22.44
-13.91
-5.36
2.36
8.82
13.89
17.54
19.78
20.65
20.34
19.21
17.81
16.65
16.11
16.27
16.96
17.83
18.59
19.1
19.38
19.55
19.74
19.93
19.95
19.49
18.24
15.97
12.68
8.63
4.25
0.03
-3.66
-6.67
-9.12
-11.32
-13.72
-16.69
-20.48
-24.99
-29.76
-33.96
-36.61
-36.84
-34.17
-28.76
-21.3
-12.87
-4.54
2.78
8.65
12.96
15.87
17.62
18.49
18.8
18.85
18.97
19.44
20.37
21.67
23.05
24.16
24.68
24.55
23.94
23.14
22.46
21.99
21.57
20.8
19.24
16.53
12.57
7.6
2.15
-3.14
-7.69
-11.26
-14
-16.41
-19.11
-22.6
-27.03
-32.03
-36.85
-40.46
-41.9
-40.51
-36.14
-29.22
-20.56
-11.21
-2.16
5.88
12.53
17.69
21.42
23.85
25.15
25.56
25.3
24.65
23.84
23.07
22.48
22.16
22.17
22.44
22.89
23.39
23.79
24.02
24.04
23.77
23.07
21.68
19.34
15.93
11.59
6.73
1.84
-2.63
-6.49
-9.82
-12.91
-16.15
-19.83
-24.08
-28.72
-33.27
-36.94
-38.8
-38.09
-34.46
-28.17
-20
-11
-2.2
5.72
12.41
17.84
22.08
25.19
27.21
28.14
28.11
27.35
26.25
25.16
24.38
24
23.89
23.85
23.64
23.21
22.64
22.1
21.69
21.33
20.79
19.79
18.08
15.59
12.38
8.65
4.63
0.56
-3.4
-7.15
-10.68
-14.14
-17.76
-21.86
-26.57
-31.78
-36.96
-41.29
-43.81
-43.75
-40.76
-35.05
-27.28
-18.33
-9.1
-0.25
7.76
14.69
20.35
24.61
27.36
28.63
28.63
27.76
26.55
25.53
25.05
25.18
25.72
26.36
26.79
26.91
26.78
26.57
26.33
25.89
24.93
23.08
20.22
16.55
12.52
8.63
5.16
2.13
-0.65
-3.39
-6.2
-9.11
-12.2
-15.64
-19.61
-24.05
-28.48
-31.91
-33.24
-31.62
-26.82
-19.37
-10.37
-1.04
7.54
14.7
20.12
23.73
25.64
25.97
24.93
22.8
19.96
16.85
13.97
11.77
10.51
10.24
10.74
11.65
12.49
12.95
12.84
12.15
10.93
9.28
7.28
4.98
2.49
-0.07
-2.59
-5
-7.29
-9.56
-12.03
-15
-18.72
-23.22
-28.13
-32.67
-35.79
-36.5
-34.25
-29.15
-21.95
-13.73
-5.61
1.58
7.38
11.66
14.47
15.99
16.43
16.06
15.19
14.15
13.21
12.59
12.4
12.61
13.09
13.65
14.13
14.39
14.38
14.03
13.29
12.09
10.35
8.05
5.28
2.18
-1.03
-4.13
-6.98
-9.61
-12.2
-15.11
-18.68
-23.11
-28.25
-33.57
-38.17
-41.04
-41.35
-38.65
-33.09
-25.3
-16.28
-7.08
1.35
8.41
13.84
17.69
20.17
21.56
22.13
22.1
21.63
20.89
20.01
19.1
18.23
17.48
16.94
16.72
16.83
17.26
17.84
18.32
18.42
17.89
16.55
14.31
11.26
7.54
3.45
-0.75
-4.78
-8.47
-11.76
-14.76
-17.7
-20.94
-24.77
-29.26
-34.1
-38.59
-41.7
-42.45
-40.22
-34.99
-27.4
-18.48
-9.38
-0.99
6.15
11.82
16.09
19.1
21.06
22.1
22.38
22.04
21.26
20.27
19.32
18.62
18.3
18.31
18.48
18.6
18.5
18.12
17.54
16.85
16.09
15.14
13.77
11.74
8.98
5.61
1.95
-1.64
-4.92
-7.79
-10.36
-12.85
-15.46
-18.37
-21.68
-25.42
-29.41
-33.28
-36.43
-38.11
-37.66
-34.74
-29.49
-22.44
-14.38
-6.13
1.66
8.52
14.16
18.4
21.15
22.48
22.61
21.92
20.82
19.71
18.83
18.34
18.28
18.62
19.26
20.04
20.76
21.23
21.31
21.02
20.42
19.63
18.69
17.49
15.87
13.66
10.86
7.67
4.44
1.55
-0.79
-2.65
-4.32
-6.2
-8.59
-11.65
-15.3
-19.37
-23.58
-27.55
-30.78
-32.67
-32.61
-30.25
-25.6
-19.15
-11.78
-4.49
1.88
6.84
10.27
12.37
13.39
13.58
13.14
12.26
11.24
10.47
10.32
10.94
12.17
13.54
14.51
14.73
14.19
13.17
12.14
11.38
10.89
10.37
9.41
7.72
5.25
2.22
-1
-4.08
-6.88
-9.41
-11.76
-14.07
-16.49
-19.16
-22.23
-25.69
-29.32
-32.56
-34.58
-34.58
-32.05
-27.07
-20.23
-12.51
-4.91
1.85
7.4
11.7
14.83
16.86
17.81
17.75
16.83
15.4
13.86
12.64
12.01
11.96
12.3
12.68
12.81
12.49
11.72
10.69
9.6
8.61
7.7
6.68
5.28
3.28
0.6
-2.61
-6.05
-9.36
-12.23
-14.51
-16.24
-17.63
-19.1
-21.15
-24.17
-28.25
-32.97
-37.46
-40.56
-41.26
-38.98
-33.84
-26.57
-18.3
-10.15
-2.98
2.81
7.19
10.39
12.65
14.2
15.16
15.68
15.9
16
16.19
16.61
17.21
17.8
18.13
17.97
17.27
16.19
14.93
13.67
12.41
10.94
9.02
6.49
3.41
0.06
-3.17
-5.98
-8.28
-10.16
-11.85
-13.6
-15.59
-17.9
-20.57
-23.63
-27.07
-30.79
-34.51
-37.73
-39.79
-40.06
-38.06
-33.74
-27.49
-20.03
-12.24
-4.88
1.57
6.88
11.07
14.19
16.33
17.56
17.98
17.81
17.34
16.84
16.52
16.44
16.51
16.59
16.53
16.3
15.93
15.49
14.99
14.43
13.69
12.62
11.1
9.07
6.64
3.97
1.33
-1.07
-3.13
-4.9
-6.63
-8.61
-11.18
-14.55
-18.87
-24.04
-29.73
-35.33
-39.92
-42.52
-42.32
-39
-32.87
-24.72
-15.58
-6.37
2.3
10.08
16.75
22.08
25.85
27.97
28.67
28.42
27.86
27.42
27.22
27.07
26.64
25.72
24.32
22.68
21.13
19.93
19.16
18.77
18.53
18.18
17.43
16.11
14.13
11.51
8.4
4.97
1.4
-2.16
-5.68
-9.16
-12.73
-16.6
-20.89
-25.56
-30.28
-34.38
-36.97
-37.24
-34.73
-29.56
-22.41
-14.3
-6.33
0.66
6.24
10.34
13.12
14.82
15.63
15.71
15.25
14.55
13.98
13.8
14.08
14.7
15.35
15.78
15.92
15.93
16.02
16.33
16.72
16.78
16.03
14.18
11.23
7.52
3.58
-0.1
-3.27
-5.99
-8.61
-11.66
-15.62
-20.86
-27.37
-34.69
-41.93
-47.89
-51.42
-51.69
-48.58
-42.63
-34.86
-26.45
-18.42
-11.47
-5.87
-1.67
1.26
3.11
4.12
4.55
4.68
4.77
4.99
5.43
6.06
6.86
7.71
8.55
9.34
9.98
10.4
10.48
10.05
8.94
7.01
4.21
0.64
-3.42
-7.57
-11.42
-14.69
-17.41
-19.86
-22.5
-25.75
-29.8
-34.37
-38.79
-42.07
-43.23
-41.61
-37.1
-30.21
-21.83
-12.98
-4.49
3.11
9.63
15.07
19.44
22.78
25.12
26.53
27.12
27.04
26.46
25.52
24.41
23.28
22.2
21.19
20.23
19.25
18.23
17.12
15.86
14.28
12.24
9.66
6.64
3.4
0.19
-2.83
-5.68
-8.6
-11.83
-15.67
-20.22
-25.42
-30.89
-35.95
-39.67
-41.12
-39.67
-35.3
-28.57
-20.48
-12.06
-4.13
2.91
8.91
13.89
17.83
20.74
22.64
23.73
24.24
24.42
24.41
24.19
23.7
22.87
21.78
20.63
19.59
18.77
18.1
17.39
16.39
14.81
12.45
9.2
5.14
0.49
-4.39
-9.08
-13.24
-16.75
-19.76
-22.63
-25.8
-29.56
-33.88
-38.33
-42.15
-44.45
-44.43
-41.56
-35.82
-27.62
-17.79
-7.36
2.67
11.46
18.49
23.52
26.61
28.01
28.18
27.63
26.87
26.28
26.02
26.05
26.18
26.15
25.82
25.14
24.19
23.07
21.91
20.76
19.64
18.47
17.12
15.45
13.32
10.66
7.54
4.17
0.79
-2.42
-5.44
-8.44
-11.73
-15.66
-20.48
-26.16
-32.29
-38.1
-42.57
-44.72
-43.9
-39.95
-33.32
-24.89
-15.66
-6.61
1.56
8.41
13.73
17.46
19.73
20.79
21.04
20.92
20.76
20.71
20.75
20.82
20.88
21.06
21.56
22.5
23.84
25.31
26.56
27.26
27.22
26.4
24.85
22.58
19.63
16.13
12.18
7.96
3.53
-1.22
-6.53
-12.58
-19.34
-26.33
-32.67
-37.33
-39.38
-38.37
-34.43
-28.21
-20.68
-12.82
-5.42
1.03
6.24
10.1
12.56
13.74
13.92
13.53
13.03
12.72
12.64
12.67
12.69
12.65
12.61
12.69
12.86
12.91
12.49
11.32
9.25
6.39
3.03
-0.56
-4.14
-7.66
-11.17
-14.8
-18.75
-23.24
-28.41
-34.2
-40.24
-45.7
-49.47
-50.43
-47.85
-41.69
-32.67
-22.05
-11.24
-1.38
6.87
13.34
18.18
21.65
23.96
25.29
25.74
25.4
24.41
23
21.43
19.98
18.84
17.96
17.14
16.02
14.31
11.96
9.18
6.33
3.68
1.29
-1
-3.46
-6.29
-9.54
-13.15
-17.1
-21.43
-26.26
-31.56
-37.04
-41.99
-45.46
-46.53
-44.61
-39.62
-31.99
-22.58
-12.33
-2.23
7
14.82
20.98
25.39
28.21
29.67
30.09
29.75
28.87
27.63
26.17
24.68
23.31
22.14
21.2
20.41
19.62
18.6
17.16
15.11
12.38
9.01
5.18
1.12
-2.95
-6.94
-10.96
-15.17
-19.8
-24.98
-30.66
-36.57
-42.18
-46.74
-49.46
-49.66
-47.01
-41.68
-34.18
-25.26
-15.63
-5.81
3.83
12.99
21.32
28.46
34.08
37.99
40.28
41.23
41.16
40.29
38.64
36.12
32.7
28.55
24.16
20.26
17.61
16.72
17.73
20.22
23.4
26.16
27.45
26.51
23.21
18.01
11.86
5.73
0.23
-4.59
-9.11
-13.73
-18.43
-22.67
-25.5
-26.12
-24.19
-20.07
-14.6
-8.79
-3.54
0.53
3.01
3.63
2.22
-1.28
-6.76
-14.02
-22.69
-32.39
-42.62
-52.74
-61.96
-69.3
-73.79
-74.74
-71.88
-65.63
-56.96
-47.13
-37.25
-27.86
-18.86
-9.78
-0.27
9.41
18.34
25.18
28.77
28.6
24.99
18.83
11.25
3.24
-4.46
-11.3
-16.76
-20.34
-21.69
-20.97
-19.08
-17.74
-19.16
-25.34
-37.41
-55.07
-76.48
-98.56
-117.55
-129.56
-131.25
-120.46
-96.89
-62.49
-21.33
21.29
60.22
91.7
114.05
127.39
133.02
132.79
128.79
123.31
118.75
117.2
119.87
126.55
135.76
145.29
153.05
157.71
158.85
156.78
152.18
145.81
138.28
129.91
120.73
110.46
98.74
85.39
70.66
55.14
39.65
24.87
11.15
-1.59
-13.69
-25.55
-37.33
-48.82
-59.48
-68.57
-75.42
-79.74
-81.7
-82.01
-81.58
-81.21
-81.31
-81.79
-82.27
-82.36
-81.93
-81.23
-80.73
-80.86
-81.66
-82.65
-82.94
-81.51
-77.56
-70.91
-61.95
-51.56
-40.66
-29.96
-19.87
-10.53
-2.15
4.93
10.21
13.31
14.19
13.29
11.42
9.46
8.06
7.46
7.52
7.92
8.31
8.52
8.5
8.31
7.98
7.53
6.84
5.82
4.3
2.15
-0.77
-4.55
-9.23
-14.65
-20.4
-25.72
-29.7
-31.42
-30.32
-26.39
-20.26
-12.9
-5.36
1.56
7.45
12.25
16.03
18.88
20.78
21.69
21.59
20.61
18.97
16.98
14.9
12.95
11.21
9.7
8.31
6.9
5.36
3.66
1.87
0.13
-1.45
-2.85
-4.18
-5.68
-7.63
-10.23
-13.52
-17.31
-21.11
-24.2
-25.78
-25.13
-21.92
-16.34
-9.07
-1.11
6.6
13.39
18.97
23.28
26.34
28.11
28.47
27.48
25.37
22.65
19.94
17.68
16.01
14.75
13.52
11.98
10
7.7
5.31
3.05
0.99
-0.95
-2.97
-5.26
-8.01
-11.29
-15.07
-19.12
-23.08
-26.4
-28.48
-28.73
-26.82
-22.76
-16.87
-9.8
-2.29
4.95
11.31
16.41
20.05
22.14
22.71
21.89
19.94
17.35
14.7
12.6
11.4
11.14
11.49
11.91
11.95
11.4
10.38
9.2
8.16
7.35
6.66
5.82
4.5
2.44
-0.48
-4.23
-8.58
-13.03
-16.92
-19.47
-20.08
-18.43
-14.64
-9.24
-2.95
3.5
9.46
14.51
18.42
21.1
22.56
22.91
22.29
20.94
19.15
17.32
15.78
14.8
14.43
14.55
14.83
14.93
14.64
13.93
12.97
11.92
10.95
9.97
8.78
7.07
4.52
1
-3.44
-8.48
-13.52
-17.78
-20.42
-20.81
-18.67
-14.21
-8.03
-0.96
6.17
12.68
18.09
22.13
24.64
25.52
24.82
22.77
19.74
16.34
13.11
10.49
8.67
7.56
6.89
6.32
5.61
4.63
3.4
2.04
0.66
-0.73
-2.18
-3.82
-5.84
-8.45
-11.75
-15.72
-20.06
-24.24
-27.57
-29.39
-29.21
-26.89
-22.67
-17.1
-10.89
-4.73
0.87
5.59
9.29
11.91
13.44
13.93
13.5
12.43
11.08
9.82
8.95
8.49
8.25
7.87
6.98
5.39
3.12
0.48
-2.14
-4.4
-6.14
-7.45
-8.63
-10.1
-12.25
-15.28
-19.04
-23.11
-26.73
-29.06
-29.37
-27.29
-22.97
-16.96
-10.07
-3.11
3.32
8.83
13.22
16.32
18.03
18.28
17.2
15.14
12.64
10.28
8.49
7.49
7.17
7.23
7.29
7.05
6.36
5.19
3.61
1.69
-0.55
-3.15
-6.09
-9.35
-12.86
-16.56
-20.32
-23.91
-26.96
-28.94
-29.33
-27.78
-24.31
-19.33
-13.51
-7.52
-1.85
3.25
7.64
11.18
13.59
14.59
14.11
12.34
9.85
7.34
5.42
4.41
4.22
4.51
4.78
4.65
3.9
2.54
0.73
-1.32
-3.45
-5.58
-7.74
-10.12
-12.94
-16.38
-20.48
-24.93
-29.1
-32.09
-33.03
-31.41
-27.29
-21.28
-14.27
-7.22
-0.77
4.74
9.25
12.78
15.34
16.88
17.41
17.06
16.09
14.86
13.67
12.73
12.1
11.66
11.24
10.63
9.7
8.39
6.83
5.17
3.61
2.34
1.35
0.5
-0.52
-2.05
-4.38
-7.58
-11.58
-16.07
-20.52
-24.31
-26.78
-27.34
-25.7
-21.95
-16.51
-10.06
-3.33
3.1
8.85
13.73
17.6
20.38
22.03
22.63
22.41
21.65
20.67
19.64
18.64
17.64
16.58
15.47
14.37
13.41
12.73
12.38
12.25
12.09
11.53
10.21
7.97
4.88
1.28
-2.4
-5.78
-8.73
-11.31
-13.8
-16.57
-19.9
-23.93
-28.47
-33.01
-36.72
-38.73
-38.26
-35.02
-29.25
-21.72
-13.41
-5.25
2.08
8.28
13.25
17.05
19.77
21.45
22.2
22.18
21.63
20.79
19.95
19.35
19.14
19.34
19.79
20.19
20.22
19.69
18.64
17.31
16
14.9
13.98
13.07
11.94
10.49
8.82
7.13
5.63
4.34
3.1
1.64
-0.24
-2.54
-5.1
-7.59
-9.8
-11.66
-13.36
-15.22
-17.63
-20.87
-25.06
-29.96
-35.07
-39.57
-42.54
-43.24
-41.25
-36.7
-30.15
-22.5
-14.62
-7.23
-0.74
4.69
9.1
12.53
15.02
16.6
17.3
17.24
16.61
15.75
14.98
14.57
14.65
15.16
15.93
16.76
17.47
17.96
18.14
17.91
17.18
15.88
14.01
11.73
9.31
7.11
5.41
4.27
3.56
2.89
1.88
0.28
-1.86
-4.3
-6.74
-8.91
-10.75
-12.31
-13.78
-15.39
-17.39
-19.97
-23.22
-26.98
-30.83
-34.08
-35.95
-35.76
-33.18
-28.34
-21.72
-14.14
-6.52
0.35
5.93
10
12.61
13.98
14.41
14.17
13.61
12.97
12.52
12.38
12.55
12.94
13.4
13.86
14.34
14.91
15.61
16.35
16.9
17
16.48
15.3
13.54
11.41
9.16
7.03
5.21
3.79
2.67
1.71
0.67
-0.52
-1.92
-3.41
-4.89
-6.31
-7.69
-9.13
-10.79
-12.92
-15.71
-19.26
-23.44
-27.77
-31.49
-33.71
-33.74
-31.26
-26.5
-20.08
-12.86
-5.66
0.9
6.39
10.58
13.4
14.97
15.54
15.45
15.03
14.55
14.13
13.77
13.44
13.07
12.67
12.35
12.24
12.38
12.73
13.13
13.38
13.3
12.83
12.01
10.95
9.74
8.44
7.03
5.42
3.54
1.36
-1.11
-3.81
-6.55
-9.14
-11.34
-13.05
-14.33
-15.41
-16.68
-18.5
-21.01
-24.06
-27.08
-29.29
-29.88
-28.35
-24.6
-19.07
-12.48
-5.7
0.56
5.79
9.77
12.5
14.12
14.81
14.82
14.42
13.85
13.33
13.02
12.92
12.99
13.12
13.22
13.31
13.44
13.65
13.97
14.31
14.5
14.35
13.76
12.71
11.3
9.64
7.84
5.89
3.74
1.32
-1.36
-4.21
-7.07
-9.75
-12.14
-14.27
-16.25
-18.26
-20.5
-23.1
-26.09
-29.37
-32.57
-35.15
-36.4
-35.69
-32.66
-27.43
-20.58
-13.01
-5.64
0.83
6.1
10.13
13.04
14.98
16
16.16
15.51
14.28
12.8
11.47
10.61
10.35
10.61
11.07
11.35
11.18
10.46
9.38
8.21
7.19
6.32
5.46
4.29
2.59
0.33
-2.36
-5.2
-7.91
-10.31
-12.33
-14.02
-15.45
-16.78
-18.17
-19.88
-22.08
-24.86
-27.95
-30.86
-32.81
-33.04
-31.1
-27.02
-21.35
-14.89
-8.49
-2.73
2.13
6.08
9.16
11.4
12.73
13.08
12.55
11.42
10.14
9.14
8.65
8.64
8.88
9.04
8.93
8.57
8.08
7.7
7.51
7.4
7.12
6.34
4.87
2.74
0.18
-2.43
-4.77
-6.7
-8.31
-9.87
-11.76
-14.26
-17.5
-21.42
-25.72
-29.93
-33.38
-35.35
-35.18
-32.52
-27.47
-20.64
-12.99
-5.55
0.9
5.97
9.68
12.31
14.14
15.37
16.02
16.12
15.73
15.06
14.37
13.83
13.54
13.37
13.21
12.95
12.6
12.23
11.86
11.36
10.51
9.11
7.08
4.57
1.86
-0.76
-3.14
-5.28
-7.37
-9.66
-12.4
-15.74
-19.66
-23.89
-27.95
-31.15
-32.82
-32.47
-30.01
-25.75
-20.37
-14.61
-9.14
-4.37
-0.45
2.64
4.98
6.67
7.82
8.55
8.99
9.21
9.25
9.08
8.7
8.17
7.65
7.23
6.97
6.75
6.37
5.67
4.59
3.17
1.54
-0.21
-2.09
-4.1
-6.22
-8.37
-10.46
-12.45
-14.41
-16.46
-18.64
-20.72
-22.24
-22.58
-21.28
-18.23
-13.73
-8.42
-3.02
1.91
6.04
9.23
11.53
12.98
13.66
13.62
12.99
11.96
10.76
9.64
8.8
8.36
8.34
8.64
9.08
9.43
9.49
9.13
8.33
7.15
5.66
3.97
2.2
0.41
-1.39
-3.24
-5.34
-7.9
-11.14
-15.13
-19.69
-24.39
-28.54
-31.37
-32.21
-30.63
-26.65
-20.68
-13.5
-6.05
0.83
6.55
10.89
13.96
15.98
17.26
17.98
18.28
18.3
18.21
18.19
18.35
18.69
19.06
19.27
19.16
18.72
17.99
17.13
16.21
15.21
14.02
12.48
10.35
7.54
4.05
0.06
-4.07
-7.91
-11.08
-13.44
-15.12
-16.52
-18.13
-20.39
-23.54
-27.49
-31.76
-35.57
-37.98
-38.17
-35.7
-30.71
-23.88
-16.2
-8.6
-1.7
4.29
9.41
13.71
17.13
19.5
20.72
20.92
20.5
19.97
19.83
20.29
21.31
22.58
23.73
24.56
24.99
25.16
25.28
25.45
25.68
25.83
25.72
25.21
24.25
22.87
21.1
19.01
16.64
14.06
11.31
8.51
5.73
3.05
0.43
-2.22
-4.98
-7.96
-11.15
-14.47
-17.76
-20.85
-23.57
-25.95
-28.18
-30.61
-33.7
-37.75
-42.82
-48.51
-54.05
-58.46
-60.82
-60.6
-57.76
-52.81
-46.55
-39.84
-33.41
-27.73
-23.07
-19.56
-17.27
-16.23
-16.36
-17.46
-19.26
-21.51
-24.03
-26.81
-29.86
-33.25
-36.95
-40.95
-45.33
-50.21
-55.81
-62.3
-69.71
-77.98
-86.92
-96.34
-106.1
-116.09
-126.08
-135.69
-144.3
-151.05
-154.87
-154.63
-149.28
-138.11
-120.87
-97.87
-69.97
-38.41
-4.68
29.63
62.86
93.39
119.76
140.8
155.85
164.74
167.78
165.59
158.92
148.73
136.21
122.78
110.04
99.49
92.15
88.26
87.32
88.2
89.64
90.65
90.71
89.79
88.12
85.91
83.25
80.1
76.42
72.36
68.14
64.05
60.32
56.98
53.95
51.17
48.59
46.22
44.1
42.22
40.5
38.79
36.89
34.65
31.99
28.91
25.56
22.2
19.14
16.55
14.43
12.59
10.7
8.5
5.87
2.87
-0.31
-3.47
-6.48
-9.28
-11.93
-14.54
-17.27
-20.36
-24
-28.17
-32.57
-36.53
-39.11
-39.45
-37
-31.82
-24.57
-16.32
-8.13
-0.76
5.47
10.61
14.89
18.46
21.31
23.34
24.4
24.57
24.07
23.31
22.68
22.39
22.39
22.5
22.48
22.22
21.71
21.03
20.22
19.21
17.88
16.18
14.14
11.9
9.64
7.43
5.21
2.82
0.16
-2.76
-5.79
-8.68
-11.2
-13.25
-14.9
-16.35
-17.88
-19.8
-22.37
-25.74
-29.8
-34.16
-38.11
-40.84
-41.6
-39.94
-35.85
-29.76
-22.41
-14.6
-7.1
-0.49
4.87
8.86
11.56
13.2
14.1
14.55
14.81
15.03
15.25
15.49
15.71
15.9
16.07
16.26
16.51
16.87
17.32
17.79
18.14
18.15
17.69
16.68
15.2
13.41
11.52
9.71
8.05
6.56
5.13
3.67
2.05
0.21
-1.91
-4.29
-6.89
-9.63
-12.47
-15.48
-18.86
-22.84
-27.56
-32.85
-38.13
-42.53
-45.05
-44.91
-41.83
-36.09
-28.51
-20.09
-11.81
-4.33
2.08
7.42
11.83
15.41
18.12
19.88
20.65
20.57
19.95
19.19
18.59
18.29
18.21
18.17
18.04
17.8
17.56
17.38
17.28
17.1
16.64
15.73
14.36
12.62
10.66
8.63
6.56
4.38
2.04
-0.53
-3.28
-6.11
-8.84
-11.35
-13.55
-15.5
-17.42
-19.62
-22.46
-26.05
-30.16
-34.12
-36.99
-37.85
-36.13
-31.84
-25.59
-18.3
-10.98
-4.37
1.13
5.44
8.72
11.15
12.85
13.96
14.54
14.71
14.66
14.57
14.61
14.9
15.4
15.95
16.39
16.61
16.64
16.56
16.48
16.36
16.12
15.6
14.69
13.37
11.64
9.55
7.15
4.5
1.72
-1.05
-3.62
-5.94
-8.08
-10.29
-12.87
-16.1
-20.08
-24.62
-29.25
-33.23
-35.72
-35.95
-33.55
-28.63
-21.8
-13.99
-6.16
0.99
7.03
11.86
15.46
17.84
18.99
19.03
18.25
17.08
15.98
15.25
14.9
14.71
14.42
13.9
13.22
12.58
12.2
12.13
12.18
12.05
11.4
10.09
8.19
5.95
3.68
1.61
-0.18
-1.79
-3.47
-5.48
-8.02
-11.19
-14.99
-19.25
-23.66
-27.71
-30.78
-32.2
-31.49
-28.48
-23.44
-17.01
-10.01
-3.27
2.6
7.22
10.52
12.53
13.46
13.51
12.95
12.03
11.04
10.19
9.62
9.38
9.33
9.32
9.2
8.92
8.52
8.11
7.74
7.37
6.82
5.84
4.21
1.88
-1
-4.16
-7.24
-10.07
-12.69
-15.4
-18.63
-22.61
-27.22
-31.82
-35.4
-36.88
-35.63
-31.58
-25.35
-17.95
-10.41
-3.49
2.44
7.33
11.31
14.46
16.75
18.13
18.63
18.43
17.85
17.25
16.85
16.68
16.52
16.05
15.07
13.59
11.86
10.22
8.94
8.04
7.31
6.43
5.13
3.25
0.83
-1.94
-4.83
-7.61
-10.15
-12.41
-14.5
-16.7
-19.36
-22.73
-26.87
-31.42
-35.66
-38.63
-39.46
-37.69
-33.4
-27.21
-20.01
-12.7
-5.85
0.31
5.79
10.65
14.84
18.14
20.35
21.43
21.58
21.21
20.76
20.48
20.37
20.21
19.77
18.9
17.64
16.15
14.65
13.33
12.19
11.14
9.95
8.39
6.3
3.68
0.67
-2.41
-5.3
-7.83
-10.07
-12.29
-14.88
-18.16
-22.35
-27.37
-32.86
-38.17
-42.47
-44.91
-44.88
-42.13
-36.88
-29.73
-21.46
-12.9
-4.72
2.6
8.77
13.65
17.26
19.68
21.1
21.74
21.87
21.8
21.81
22.09
22.66
23.38
23.97
24.15
23.77
22.9
21.7
20.37
19.06
17.74
16.33
14.74
12.83
10.53
7.76
4.53
0.92
-2.87
-6.6
-10.08
-13.24
-16.18
-19.1
-22.23
-25.72
-29.56
-33.45
-36.96
-39.44
-40.21
-38.74
-34.84
-28.75
-21.1
-12.71
-4.42
3.1
9.39
14.18
17.35
19.01
19.43
19.07
18.41
17.82
17.48
17.38
17.44
17.57
17.71
17.82
17.86
17.76
17.49
17.09
16.62
16.11
15.42
14.35
12.68
10.33
7.48
4.46
1.66
-0.65
-2.49
-4.09
-5.86
-8.21
-11.46
-15.67
-20.56
-25.47
-29.45
-31.57
-31.18
-28.13
-22.82
-16.08
-8.8
-1.81
4.37
9.4
13.17
15.68
17.07
17.54
17.38
16.86
16.19
15.47
14.74
14.02
13.37
12.89
12.7
12.79
13.07
13.35
13.3
12.68
11.31
9.16
6.3
2.94
-0.67
-4.31
-7.8
-11.12
-14.37
-17.82
-21.73
-26.22
-31.09
-35.8
-39.52
-41.48
-41.15
-38.48
-33.82
-27.83
-21.22
-14.53
-8.13
-2.26
2.81
6.76
9.25
10.03
9.13
6.89
3.93
0.96
-1.44
-2.93
-3.5
-3.37
-2.98
-2.81
-3.27
-4.62
-6.85
-9.63
-12.46
-14.79
-16.25
-16.78
-16.64
-16.24
-16.02
-16.3
-17.21
-18.65
-20.31
-21.68
-22.15
-21.18
-18.43
-13.95
-8.07
-1.38
5.52
12.14
18.18
23.47
27.94
31.53
34.2
35.92
36.69
36.53
35.5
33.71
31.33
28.56
25.53
22.33
19.04
15.67
12.37
9.34
6.81
4.87
3.36
1.95
0.2
-2.17
-5.22
-8.75
-12.4
-15.86
-18.8
-20.97
-22.11
-21.95
-20.31
-17.19
-12.81
-7.59
-2.03
3.42
8.45
12.84
16.36
18.75
19.78
19.35
17.67
15.27
12.91
11.33
11.07
12.2
14.42
17.14
19.66
21.44
22.12
21.61
19.97
17.3
13.71
9.21
3.78
-2.62
-9.92
-17.9
-26.08
-33.79
-40.27
-44.82
-46.9
-46.27
-43.04
-37.53
-30.36
-22.26
-14.01
-6.35
0.12
5
8.17
9.72
9.95
9.25
8.1
6.96
6.2
6.07
6.54
7.37
8.19
8.68
8.7
8.34
7.81
7.25
6.63
5.64
3.85
0.9
-3.34
-8.63
-14.41
-19.86
-24.06
-26.18
-25.66
-22.38
-16.7
-9.33
-1.21
6.82
14.1
20.25
25.09
28.53
30.46
30.77
29.41
26.54
22.62
18.33
14.35
11.22
9.09
7.69
6.54
5.09
3.09
0.61
-2.02
-4.39
-6.28
-7.72
-9
-10.55
-12.81
-16.09
-20.45
-25.6
-30.85
-35.18
-37.45
-36.68
-32.43
-25.03
-15.41
-4.87
5.38
14.5
22.12
28.19
32.78
35.88
37.44
37.44
36.08
33.79
31.16
28.74
26.79
25.2
23.56
21.38
18.36
14.52
10.24
6.03
2.31
-0.8
-3.48
-6.16
-9.27
-13.14
-17.94
-23.73
-30.34
-37.43
-44.29
-49.89
-53.12
-53.04
-49.25
-42.05
-32.31
-21.29
-10.23
-0.14
8.33
14.84
19.39
22.2
23.65
24.16
24.09
23.65
22.93
21.99
20.93
19.97
19.26
18.8
18.4
17.7
16.42
14.51
12.12
9.53
6.91
4.21
1.2
-2.42
-6.89
-12.3
-18.65
-25.87
-33.74
-41.78
-49.15
-54.7
-57.23
-55.86
-50.38
-41.35
-29.94
-17.57
-5.53
5.28
14.4
21.74
27.44
31.73
34.79
36.78
37.81
37.91
37.14
35.63
33.57
31.21
28.79
26.5
24.4
22.45
20.52
18.47
16.15
13.46
10.31
6.68
2.63
-1.71
-6.16
-10.49
-14.62
-18.66
-22.99
-28.09
-34.28
-41.41
-48.67
-54.65
-57.77
-56.77
-51.23
-41.73
-29.64
-16.66
-4.22
6.78
16.09
23.83
30.25
35.47
39.5
42.34
44.04
44.83
45.01
44.85
44.5
43.94
43.09
41.87
40.22
38.29
36.26
34.37
32.75
31.37
29.97
28.15
25.49
21.75
16.96
11.44
5.7
0.22
-4.71
-9.07
-13.07
-17.07
-21.44
-26.48
-32.31
-38.84
-45.66
-51.99
-56.74
-58.68
-56.89
-50.96
-41.31
-29.05
-15.69
-2.68
8.87
18.34
25.58
30.68
33.9
35.56
36.09
35.88
35.33
34.68
34.03
33.38
32.65
31.82
30.9
29.99
29.23
28.68
28.32
28.03
27.63
26.93
25.84
24.32
22.37
20.01
17.23
13.98
10.26
6.12
1.66
-2.94
-7.57
-12.16
-16.68
-21.09
-25.36
-29.51
-33.66
-38.04
-42.73
-47.53
-51.71
-54.15
-53.69
-49.57
-41.8
-31.26
-19.38
-7.67
2.77
11.37
18.12
23.17
26.72
28.87
29.69
29.41
28.36
26.96
25.62
24.56
23.81
23.27
22.76
22.14
21.39
20.54
19.72
18.97
18.25
17.4
16.17
14.33
11.72
8.35
4.39
0.1
-4.15
-8.09
-11.6
-14.74
-17.74
-20.98
-24.76
-29.29
-34.45
-39.73
-44.27
-47
-46.95
-43.53
-36.77
-27.36
-16.41
-5.27
4.91
13.3
19.54
23.65
25.95
26.86
26.8
26.06
24.78
23
20.79
18.35
15.96
13.95
12.47
11.56
11.07
10.77
10.45
10.02
9.46
8.77
7.85
6.56
4.68
2.12
-1.1
-4.75
-8.53
-12.26
-16.02
-20.09
-24.83
-30.27
-35.89
-40.61
-43.12
-42.41
-38.11
-30.72
-21.34
-11.25
-1.52
7.17
14.44
20.09
23.94
25.88
26
24.69
22.53
20.16
17.96
16.09
14.43
12.81
11.15
9.58
8.27
7.34
6.73
6.16
5.34
4.06
2.36
0.42
-1.55
-3.43
-5.27
-7.24
-9.49
-12.15
-15.32
-19.05
-23.37
-28.08
-32.6
-35.99
-37.14
-35.2
-29.92
-21.85
-12.12
-2.09
7.08
14.63
20.27
23.99
25.91
26.19
25.04
22.72
19.61
16.14
12.74
9.82
7.65
6.34
5.81
5.81
5.99
6
5.63
4.81
3.63
2.27
0.89
-0.46
-1.84
-3.39
-5.28
-7.65
-10.64
-14.26
-18.41
-22.75
-26.72
-29.56
-30.49
-28.93
-24.77
-18.42
-10.74
-2.75
4.59
10.61
14.97
17.57
18.47
17.84
15.95
13.17
9.93
6.68
3.81
1.6
0.16
-0.5
-0.47
0.02
0.69
1.16
1.09
0.32
-1.07
-2.8
-4.51
-5.94
-7.07
-8.07
-9.33
-11.22
-13.98
-17.6
-21.75
-25.77
-28.75
-29.8
-28.3
-24.12
-17.71
-9.97
-1.98
5.3
11.26
15.64
18.41
19.69
19.62
18.4
16.34
13.81
11.24
8.96
7.24
6.16
5.66
5.57
5.67
5.75
5.62
5.21
4.5
3.53
2.32
0.84
-0.95
-3.15
-5.82
-9.02
-12.78
-17.06
-21.67
-26.18
-29.97
-32.28
-32.43
-30.06
-25.34
-18.87
-11.59
-4.44
1.86
6.92
10.67
13.15
14.47
14.66
13.78
12.03
9.72
7.29
5.18
3.71
2.95
2.8
2.99
3.22
3.27
2.99
2.38
1.53
0.53
-0.53
-1.69
-3.05
-4.79
-7.06
-10.02
-13.66
-17.74
-21.73
-24.86
-26.29
-25.4
-22.07
-16.71
-10.16
-3.35
2.93
8.28
12.58
15.81
17.93
18.79
18.3
16.47
13.58
10.1
6.58
3.52
1.22
-0.22
-0.92
-1.14
-1.17
-1.31
-1.69
-2.32
-3.07
-3.79
-4.4
-5.01
-5.85
-7.29
-9.6
-12.91
-17.02
-21.47
-25.54
-28.39
-29.25
-27.62
-23.5
-17.35
-10.02
-2.52
4.31
9.91
14.04
16.61
17.67
17.28
15.62
13.07
10.12
7.27
4.9
3.14
1.97
1.25
0.82
0.52
0.21
-0.23
-0.86
-1.7
-2.66
-3.66
-4.7
-5.9
-7.5
-9.78
-12.94
-16.92
-21.31
-25.4
-28.31
-29.21
-27.64
-23.6
-17.61
-10.54
-3.25
3.51
9.24
13.69
16.73
18.32
18.5
17.43
15.37
12.74
9.98
7.51
5.64
4.47
3.94
3.82
3.8
3.62
3.05
1.99
0.44
-1.5
-3.68
-5.89
-8
-9.9
-11.66
-13.44
-15.52
-18.2
-21.61
-25.54
-29.42
-32.35
-33.37
-31.79
-27.45
-20.81
-12.79
-4.48
3.19
9.58
14.43
17.73
19.65
20.34
20.02
18.88
17.17
15.2
13.25
11.64
10.54
10
9.85
9.85
9.74
9.37
8.72
7.85
6.8
5.54
3.98
2.03
-0.38
-3.19
-6.35
-9.79
-13.56
-17.81
-22.75
-28.38
-34.35
-39.8
-43.57
-44.53
-41.94
-35.88
-27.14
-17.07
-7.05
1.84
9
14.29
17.87
20.04
21.1
21.37
21.16
20.67
20.03
19.26
18.36
17.32
16.19
15.06
14.06
13.25
12.61
12.03
11.28
10.18
8.56
6.43
3.88
1.11
-1.73
-4.56
-7.47
-10.67
-14.39
-18.8
-23.8
-28.99
-33.69
-37.08
-38.37
-37.03
-32.99
-26.61
-18.64
-10.02
-1.68
5.65
11.52
15.75
18.38
19.6
19.73
19.12
18.17
17.23
16.58
16.34
16.53
17.02
17.65
18.25
18.62
18.63
18.12
17.01
15.25
12.84
9.89
6.49
2.82
-0.91
-4.54
-7.95
-11.22
-14.58
-18.42
-23.02
-28.36
-33.91
-38.72
-41.65
-41.73
-38.56
-32.4
-24.1
-14.8
-5.56
2.83
9.98
15.78
20.24
23.4
25.32
26.09
25.88
24.95
23.65
22.32
21.17
20.31
19.67
19.15
18.65
18.07
17.36
16.45
15.24
13.63
11.59
9.14
6.38
3.41
0.3
-2.94
-6.31
-9.89
-13.73
-17.94
-22.6
-27.6
-32.56
-36.74
-39.16
-38.91
-35.49
-29.06
-20.41
-10.75
-1.3
7.02
13.79
18.92
22.6
25.02
26.39
26.91
26.8
26.3
25.66
25.02
24.43
23.85
23.2
22.46
21.62
20.71
19.75
18.63
17.26
15.51
13.33
10.71
7.73
4.48
1.07
-2.39
-5.85
-9.31
-12.85
-16.62
-20.81
-25.46
-30.34
-34.89
-38.21
-39.34
-37.56
-32.71
-25.29
-16.31
-6.97
1.68
9.01
14.8
19.09
22.05
23.83
24.59
24.52
23.92
23.14
22.45
21.99
21.78
21.76
21.89
22.08
22.31
22.45
22.3
21.63
20.29
18.29
15.75
12.86
9.8
6.67
3.46
0.12
-3.5
-7.57
-12.3
-17.75
-23.78
-29.86
-35.08
-38.37
-38.77
-35.73
-29.4
-20.58
-10.58
-0.78
7.69
14.22
18.76
21.58
23.08
23.53
23.02
21.59
19.36
16.6
13.81
11.47
9.9
9.16
9.02
9.11
9.05
8.54
7.46
5.83
3.75
1.39
-1.1
-3.69
-6.4
-9.28
-12.47
-16.05
-20.14
-24.8
-29.96
-35.21
-39.84
-42.83
-43.17
-40.25
-34.11
-25.55
-15.86
-6.35
1.99
8.73
13.83
17.45
19.69
20.51
19.84
17.8
14.77
11.43
8.51
6.57
5.81
5.99
6.61
7.08
7.01
6.27
4.97
3.34
1.6
-0.16
-2.02
-4.13
-6.71
-9.9
-13.86
-18.68
-24.35
-30.67
-37.14
-42.88
-46.75
-47.65
-44.94
-38.69
-29.77
-19.54
-9.39
-0.33
7.16
13.06
17.5
20.54
22.15
22.33
21.26
19.4
17.33
15.55
14.31
13.52
12.89
12.09
10.92
9.39
7.6
5.68
3.62
1.41
-1.01
-3.65
-6.49
-9.54
-12.93
-16.87
-21.59
-27.11
-33.05
-38.63
-42.78
-44.4
-42.73
-37.55
-29.34
-19.12
-8.2
2.19
11.1
18.08
23.1
26.41
28.4
29.41
29.69
29.37
28.53
27.3
25.85
24.38
23.05
21.91
20.82
19.52
17.75
15.38
12.54
9.45
6.38
3.43
0.55
-2.44
-5.7
-9.28
-13.26
-17.71
-22.77
-28.43
-34.38
-39.82
-43.59
-44.48
-41.74
-35.36
-26.15
-15.47
-4.76
4.84
12.72
18.83
23.36
26.6
28.71
29.78
29.9
29.28
28.28
27.3
26.63
26.35
26.3
26.18
25.72
24.78
23.38
21.66
19.71
17.58
15.2
12.5
9.43
6.05
2.43
-1.34
-5.26
-9.43
-14
-19.11
-24.63
-30.17
-34.92
-37.92
-38.17
-35.1
-28.74
-19.8
-9.5
0.8
9.97
17.38
22.9
26.72
29.15
30.38
30.52
29.67
28.08
26.12
24.32
23.12
22.72
22.97
23.47
23.76
23.48
22.52
20.95
18.86
16.31
13.25
9.63
5.44
0.86
-3.87
-8.46
-12.8
-17.04
-21.46
-26.37
-31.75
-37.09
-41.42
-43.55
-42.49
-37.8
-29.84
-19.66
-8.68
1.75
10.69
17.68
22.72
26.02
27.77
28.12
27.21
25.27
22.73
20.15
18.05
16.72
16.16
16.1
16.15
15.99
15.46
14.55
13.3
11.71
9.72
7.24
4.24
0.77
-3.03
-7.01
-11.13
-15.47
-20.23
-25.56
-31.41
-37.36
-42.56
-45.98
-46.66
-44.02
-38.15
-29.75
-19.96
-9.96
-0.77
7.01
13.14
17.59
20.41
21.69
21.59
20.42
18.66
16.83
15.4
14.59
14.35
14.42
14.56
14.64
14.67
14.78
14.94
14.99
14.57
13.33
11.13
8.1
4.64
1.2
-1.93
-4.7
-7.34
-10.24
-13.82
-18.36
-23.9
-30.12
-36.33
-41.48
-44.44
-44.3
-40.7
-33.97
-25.04
-15.13
-5.35
3.47
10.95
16.96
21.55
24.83
26.87
27.83
27.92
27.46
26.78
26.21
25.91
25.87
25.92
25.82
25.39
24.6
23.54
22.38
21.17
19.87
18.36
16.47
14.12
11.31
8.09
4.54
0.79
-3.03
-6.76
-10.28
-13.55
-16.67
-19.85
-23.41
-27.64
-32.73
-38.61
-44.88
-50.7
-54.89
-56.24
-53.84
-47.52
-37.95
-26.45
-14.56
-3.62
5.62
13.01
18.81
23.39
27.05
29.89
31.89
33.03
33.36
33.05
32.35
31.52
30.77
30.16
29.64
29.05
28.25
27.17
25.79
24.2
22.42
20.5
18.42
16.13
13.54
10.58
7.16
3.33
-0.78
-4.95
-8.92
-12.43
-15.41
-17.86
-19.9
-21.76
-23.74
-26.19
-29.43
-33.56
-38.26
-42.73
-45.84
-46.4
-43.68
-37.64
-28.99
-19
-8.95
0.11
7.7
13.75
18.47
22.12
24.87
26.8
27.95
28.43
28.42
28.14
27.81
27.53
27.33
27.2
27.11
27.04
26.96
26.8
26.45
25.88
25.06
24.06
22.95
21.75
20.31
18.44
15.95
12.79
9.16
5.39
1.83
-1.33
-4.08
-6.64
-9.31
-12.39
-16.17
-20.84
-26.39
-32.5
-38.48
-43.28
-45.74
-44.94
-40.61
-33.17
-23.73
-13.64
-4.13
3.99
10.42
15.23
18.62
20.76
21.77
21.78
20.99
19.81
18.64
17.87
17.6
17.7
17.88
17.85
17.49
16.88
16.22
15.61
15.02
14.13
12.55
9.97
6.34
1.95
-2.75
-7.24
-11.2
-14.5
-17.24
-19.67
-22.1
-24.87
-28.25
-32.36
-36.95
-41.32
-44.44
-45.21
-42.85
-37.25
-29.01
-19.27
-9.35
-0.35
7.06
12.66
16.53
18.83
19.76
19.47
18.22
16.4
14.53
13.08
12.34
12.31
12.67
13.04
13.08
12.73
12.11
11.43
10.82
10.17
9.27
7.77
5.4
2.09
-1.97
-6.38
-10.66
-14.48
-17.81
-20.98
-24.5
-28.8
-33.94
-39.49
-44.55
-48.04
-48.97
-46.76
-41.41
-33.48
-23.98
-14.1
-4.92
2.78
8.67
12.78
15.35
16.64
16.83
16.13
14.85
13.41
12.27
11.74
11.86
12.36
12.89
13.17
13.18
13.1
13.09
13.17
13.07
12.36
10.69
7.97
4.44
0.53
-3.29
-6.74
-9.72
-12.38
-15
-17.97
-21.68
-26.42
-32.26
-38.84
-45.37
-50.62
-53.35
-52.56
-47.96
-40.01
-29.84
-18.89
-8.47
0.54
7.75
13.24
17.2
19.86
21.34
21.8
21.51
20.91
20.48
20.59
21.25
22.14
22.75
22.68
21.85
20.5
19.1
18
17.26
16.58
15.47
13.47
10.36
6.26
1.57
-3.18
-7.53
-11.23
-14.34
-17.22
-20.39
-24.34
-29.36
-35.33
-41.63
-47.22
-50.93
-51.73
-49.06
-43
-34.31
-24.17
-13.92
-4.65
3.01
8.93
13.4
16.83
19.58
21.88
23.71
24.97
25.66
25.84
25.69
25.41
25.11
24.72
24.15
23.33
22.37
21.52
21
20.8
20.6
19.85
17.96
14.66
10.05
4.62
-0.99
-6.25
-10.88
-14.89
-18.49
-22.05
-25.94
-30.51
-35.95
-42.09
-48.28
-53.48
-56.4
-55.99
-51.81
-44.14
-34
-22.8
-11.82
-1.95
6.49
13.62
19.66
24.73
28.7
31.37
32.65
32.76
32.18
31.51
31.17
31.24
31.5
31.61
31.3
30.58
29.64
28.7
27.86
27.06
26.12
24.8
22.98
20.56
17.57
14.1
10.29
6.31
2.3
-1.65
-5.58
-9.64
-14.05
-19.03
-24.65
-30.81
-37.11
-42.8
-46.94
-48.49
-46.72
-41.43
-33.13
-22.9
-12.1
-2.02
6.44
12.88
17.33
20.04
21.36
21.63
21.17
20.32
19.43
18.81
18.7
19.13
19.93
20.84
21.57
21.98
22.07
21.93
21.55
20.76
19.24
16.65
12.87
8.12
2.9
-2.16
-6.58
-10.2
-13.22
-16.15
-19.55
-23.91
-29.41
-35.71
-41.98
-46.97
-49.35
-48.13
-43
-34.45
-23.63
-11.98
-0.84
8.86
16.6
22.23
25.78
27.46
27.52
26.33
24.32
21.96
19.65
17.72
16.36
15.64
15.48
15.7
16.08
16.35
16.28
15.68
14.39
12.3
9.35
5.63
1.4
-2.99
-7.11
-10.75
-13.91
-16.96
-20.4
-24.84
-30.62
-37.65
-45.26
-52.25
-57.16
-58.67
-56.03
-49.29
-39.25
-27.24
-14.73
-3
7.1
15.1
20.85
24.46
26.16
26.32
25.43
24.01
22.53
21.33
20.53
20.1
19.87
19.68
19.44
19.17
18.96
18.83
18.72
18.37
17.47
15.71
12.91
9.15
4.72
0.03
-4.51
-8.65
-12.44
-16.16
-20.26
-25.29
-31.58
-39.05
-47.1
-54.58
-59.96
-61.83
-59.3
-52.42
-42.2
-30.21
-18.08
-7.01
2.49
10.41
16.98
22.33
26.45
29.23
30.7
31.07
30.82
30.42
30.2
30.25
30.42
30.48
30.2
29.5
28.47
27.3
26.17
25.13
24.01
22.51
20.22
16.92
12.62
7.63
2.41
-2.57
-7.06
-11.02
-14.62
-18.15
-21.94
-26.3
-31.57
-37.86
-44.93
-51.99
-57.75
-60.73
-59.76
-54.35
-45.02
-33.01
-19.98
-7.43
3.58
12.59
19.62
24.97
28.99
31.94
34.04
35.44
36.28
36.69
36.79
36.68
36.4
35.98
35.47
34.96
34.5
34.13
33.8
33.38
32.76
31.77
30.3
28.31
25.78
22.72
19.2
15.3
11.05
6.53
1.83
-2.89
-7.42
-11.56
-15.25
-18.58
-21.84
-25.43
-29.79
-35.22
-41.72
-48.84
-55.6
-60.61
-62.46
-60.09
-53.3
-42.76
-29.91
-16.49
-4
6.58
14.92
21.15
25.62
28.65
30.48
31.27
31.16
30.44
29.46
28.67
28.37
28.69
29.49
30.46
31.24
31.64
31.63
31.39
31.07
30.73
30.29
29.49
28.08
25.87
22.84
19.15
15.01
10.68
6.35
2.1
-2.11
-6.35
-10.67
-15.09
-19.66
-24.53
-29.85
-35.61
-41.46
-46.57
-49.78
-49.94
-46.35
-39.09
-29.06
-17.58
-6.09
4.39
13.34
20.57
26.05
29.72
31.47
31.29
29.51
26.73
23.72
21.16
19.42
18.48
18.07
17.87
17.65
17.39
17.15
16.97
16.73
16.2
15.05
13.03
10.02
6.14
1.68
-2.99
-7.49
-11.55
-15.13
-18.33
-21.5
-25.1
-29.57
-35.15
-41.66
-48.39
-54.15
-57.53
-57.4
-53.28
-45.57
-35.42
-24.33
-13.7
-4.48
2.93
8.46
12.2
14.2
14.53
13.34
10.98
8.04
5.19
3.03
1.87
1.63
1.83
1.86
1.18
-0.38
-2.63
-5.16
-7.66
-10.06
-12.62
-15.7
-19.45
-23.69
-27.92
-31.59
-34.27
-35.84
-36.38
-36.06
-35.09
-33.81
-32.8
-32.82
-34.49
-37.9
-42.18
-45.62
-46.26
-42.64
-34.56
-23.17
-10.44
1.68
12.11
20.86
28.84
37.09
46.24
56.18
66.11
75.06
82.09
86.53
87.86
85.74
80.15
71.69
61.75
52.4
45.75
43.15
44.47
47.96
50.83
50.22
44.25
32.62
16.57
-1.72
-19.87
-35.96
-48.7
-57.52
-62.34
-63.48
-61.66
-57.96
-53.52
-49.02
-44.1
-37.14
-25.93
-8.99
13.05
36.95
57.78
70.99
74.35
68.93
58.3
46.64
36.74
29.28
23.34
17.72
12.1
7.25
4.2
3.37
4.18
5.72
