-19.35
-14.55
-8.86
-2.83
2.96
7.99
11.89
14.48
15.76
15.92
15.25
14.07
12.65
11.24
10.03
9.15
8.67
8.59
8.82
9.18
9.5
9.69
9.76
9.84
9.97
10.1
9.95
9.2
7.57
5.11
2.12
-0.92
-3.57
-5.65
-7.2
-8.47
-9.79
-11.41
-13.46
-15.94
-18.7
-21.37
-23.41
-24.15
-23.05
-19.88
-14.88
-8.71
-2.28
3.61
8.43
12.02
14.45
15.86
16.35
15.95
14.71
12.82
10.62
8.54
6.91
5.84
5.26
4.93
4.66
4.39
4.17
4.07
4.09
4.05
3.72
2.91
1.51
-0.36
-2.5
-4.66
-6.68
-8.51
-10.23
-12.02
-14.15
-16.79
-19.93
-23.2
-25.86
-27
-25.87
-22.24
-16.51
-9.62
-2.7
3.36
8.1
11.5
13.76
15.11
15.69
15.59
14.87
13.65
12.07
10.28
8.42
6.63
5.08
3.97
3.45
3.52
3.98
4.53
4.82
4.64
3.93
2.76
1.19
-0.78
-3.17
-6.06
-9.36
-12.89
-16.42
-19.72
-22.61
-24.93
-26.39
-26.59
-25.12
-21.7
-16.53
-10.22
-3.71
2.1
6.67
9.89
12.04
13.5
14.47
14.95
14.78
13.87
12.29
10.38
8.6
7.33
6.76
6.79
7.13
7.43
7.39
6.85
5.76
4.23
2.37
0.35
-1.7
-3.73
-5.77
-7.86
-10.13
-12.64
-15.41
-18.32
-21.06
-23.2
-24.24
-23.72
-21.42
-17.42
-12.13
-6.2
-0.35
4.79
8.83
11.62
13.23
13.81
13.54
12.59
11.12
9.36
7.63
6.28
5.61
5.75
6.52
7.58
8.52
9.01
8.92
8.28
7.21
5.87
4.37
2.71
0.9
-1.15
-3.5
-6.22
-9.34
-12.82
-16.54
-20.21
-23.44
-25.71
-26.49
-25.32
-22.05
-16.92
-10.56
-3.85
2.38
7.53
11.41
14.06
15.65
16.3
16.04
14.93
13.08
10.74
8.32
6.27
4.95
4.57
5.11
6.26
7.6
8.6
8.87
8.21
6.73
4.71
2.53
0.47
-1.32
-2.9
-4.44
-6.19
-8.43
-11.39
-15.16
-19.59
-24.17
-28.12
-30.5
-30.45
-27.53
-21.91
-14.37
-6.08
1.71
8.03
12.42
14.95
16.09
16.34
16.12
15.57
14.74
13.61
12.34
11.15
10.28
9.79
9.64
9.63
9.64
9.67
9.81
10.13
10.56
10.81
10.46
9.16
6.86
3.83
0.63
-2.19
-4.35
-5.9
-7.28
-8.99
-11.48
-14.83
-18.85
-23.02
-26.64
-28.97
-29.3
-27.19
-22.54
-15.77
-7.82
0.13
6.88
11.68
14.35
15.22
14.93
14.09
13.06
11.96
10.84
9.77
8.94
8.56
8.71
9.28
10.04
10.73
11.22
11.51
11.59
11.44
10.85
9.62
7.65
5.03
2.02
-1.04
-3.89
-6.39
-8.55
-10.5
-12.5
-14.85
-17.76
-21.22
-24.88
-28.01
-29.75
-29.37
-26.51
-21.39
-14.63
-7.13
0.26
6.83
12.1
15.79
17.85
18.45
17.95
16.85
15.63
14.64
14.05
13.85
13.88
13.94
13.87
13.58
13.18
12.79
12.62
12.71
12.93
12.93
12.3
10.77
8.32
5.17
1.7
-1.73
-4.91
-7.78
-10.45
-13.16
-16.12
-19.5
-23.22
-26.9
-29.86
-31.31
-30.61
-27.58
-22.56
-16.26
-9.49
-2.87
3.22
8.6
13.14
16.66
18.98
20.03
19.93
19.04
17.79
16.55
15.6
15.06
14.94
15.16
15.59
16.04
16.32
16.34
16.12
15.78
15.38
14.86
13.97
12.47
10.25
7.45
4.47
1.71
-0.59
-2.46
-4.27
-6.43
-9.3
-13.04
-17.57
-22.53
-27.34
-31.23
-33.39
-33.16
-30.27
-24.97
-17.97
-10.25
-2.77
3.75
9.02
13.12
16.29
18.74
20.5
21.46
21.46
20.5
18.85
16.96
15.32
14.31
14.05
14.34
14.89
15.37
15.59
15.52
15.25
14.9
14.48
13.89
12.91
11.29
8.88
5.8
2.35
-1.05
-4.08
-6.61
-8.7
-10.6
-12.55
-14.75
-17.33
-20.32
-23.65
-27.01
-29.86
-31.43
-30.99
-28.07
-22.79
-15.78
-8.02
-0.56
5.86
10.86
14.35
16.42
17.2
16.8
15.44
13.51
11.56
10.13
9.54
9.8
10.57
11.35
11.8
11.83
11.61
11.43
11.47
11.69
11.83
11.56
10.6
8.88
6.48
3.7
0.84
-1.86
-4.24
-6.32
-8.26
-10.34
-12.9
-16.14
-20.1
-24.45
-28.53
-31.42
-32.24
-30.35
-25.63
-18.56
-10.14
-1.61
5.92
11.67
15.45
17.47
18.17
18
17.27
16.17
14.8
13.35
12.08
11.29
11.18
11.68
12.47
13.17
13.5
13.4
13.02
12.64
12.36
12.12
11.59
10.39
8.29
5.34
1.84
-1.74
-4.96
-7.61
-9.73
-11.61
-13.58
-15.94
-18.83
-22.17
-25.62
-28.69
-30.76
-31.21
-29.56
-25.68
-19.85
-12.73
-5.17
2
8.15
13
16.46
18.63
19.64
19.64
18.78
17.29
15.43
13.54
11.92
10.81
10.3
10.29
10.61
11
11.31
11.47
11.5
11.41
11.11
10.45
9.25
7.41
4.96
2.1
-0.87
-3.67
-6.1
-8.18
-10.03
-11.9
-14.06
-16.73
-19.97
-23.56
-27
-29.56
-30.41
-28.87
-24.72
-18.27
-10.36
-2.1
5.41
11.47
15.81
18.54
19.91
20.14
19.37
17.73
15.47
12.99
10.83
9.44
9.04
9.54
10.52
11.45
11.93
11.84
11.34
10.74
10.29
10.05
9.75
8.97
7.31
4.61
1.09
-2.75
-6.26
-8.98
-10.74
-11.76
-12.55
-13.71
-15.76
-18.95
-23.13
-27.73
-31.82
-34.35
-34.39
-31.45
-25.71
-17.98
-9.43
-1.28
5.6
10.83
14.41
16.54
17.43
17.27
16.23
14.6
12.78
11.19
10.15
9.79
10.04
10.68
11.49
12.27
12.9
13.3
13.43
13.27
12.83
12.09
10.99
9.42
7.24
4.48
1.34
-1.79
-4.56
-6.78
-8.58
-10.31
-12.45
-15.4
-19.26
-23.8
-28.42
-32.37
-34.84
-35.21
-33.16
-28.81
-22.7
-15.59
-8.33
-1.57
4.29
9.05
12.66
15.06
16.24
16.19
15.05
13.12
10.86
8.83
7.48
7.09
7.64
8.84
10.33
11.73
12.75
13.3
13.36
13.02
12.34
11.28
9.78
7.75
5.14
2.04
-1.29
-4.61
-7.67
-10.44
-13.14
-16.12
-19.65
-23.74
-27.97
-31.5
-33.42
-32.89
-29.61
-23.85
-16.43
-8.43
-0.9
5.43
10.28
13.66
15.82
16.92
17.05
16.27
14.73
12.76
10.86
9.5
8.92
9.05
9.5
9.78
9.55
8.76
7.65
6.61
5.91
5.53
5.18
4.42
2.92
0.63
-2.22
-5.25
-8.16
-10.9
-13.68
-16.87
-20.71
-25.07
-29.37
-32.69
-34.06
-32.84
-28.87
-22.59
-14.79
-6.45
1.53
8.45
13.81
17.41
19.23
19.52
18.68
17.14
15.28
13.37
11.66
10.35
9.61
9.47
9.88
10.64
11.53
12.35
13.01
13.46
13.58
13.14
11.89
9.73
6.78
3.38
-0
-3.02
-5.57
-7.74
-9.81
-12.12
-14.96
-18.54
-22.83
-27.55
-32.12
-35.71
-37.38
-36.39
-32.43
-25.81
-17.4
-8.34
0.21
7.39
12.69
16.03
17.59
17.74
16.93
15.63
14.22
13.01
12.17
11.74
11.65
11.8
12.07
12.4
12.73
13.08
13.47
13.85
14.09
14.02
13.37
11.94
9.71
6.85
3.71
0.67
-2.05
-4.48
-6.9
-9.77
-13.46
-18.1
-23.36
-28.47
-32.36
-33.96
-32.53
-27.95
-20.82
-12.31
-3.8
3.51
9.01
12.67
14.91
16.21
16.84
16.82
16.05
14.48
12.3
9.9
7.71
6.05
5.08
4.7
4.73
4.89
4.97
4.78
4.25
3.4
2.32
1.1
-0.24
-1.8
-3.72
-6.15
-9.14
-12.69
-16.66
-20.86
-24.91
-28.3
-30.3
-30.23
-27.63
-22.5
-15.47
-7.53
0.2
6.82
11.9
15.42
17.62
18.73
18.84
17.95
16.15
13.72
11.12
8.92
7.51
6.98
7.02
7.21
7.08
6.44
5.36
4.09
2.92
1.99
1.28
0.56
-0.44
-1.96
-4.15
-7.04
-10.64
-14.83
-19.33
-23.65
-27.06
-28.76
-28.1
-24.84
-19.27
-12.09
-4.3
3.16
9.6
14.67
18.38
20.87
22.35
22.93
22.66
21.56
19.75
17.52
15.28
13.47
12.37
12.05
12.28
12.74
13.08
13.03
12.44
11.29
9.65
7.58
5.14
2.41
-0.52
-3.56
-6.58
-9.53
-12.46
-15.54
-19.1
-23.34
-28.1
-32.7
-35.97
-36.65
-33.95
-27.93
-19.53
-10.25
-1.6
5.44
10.61
14.27
16.96
19.11
20.81
21.88
22.14
21.59
20.48
19.25
18.28
17.84
17.85
18.08
18.26
18.21
18.02
17.86
17.91
18.15
18.3
17.86
16.32
13.39
9.08
3.89
-1.52
-6.42
-10.37
-13.33
-15.65
-17.87
-20.53
-23.98
-28.24
-32.99
-37.52
-40.88
-42.01
-40.09
-34.83
-26.68
-16.77
-6.59
2.54
9.84
15.17
18.79
21.16
22.55
23.1
22.9
22.15
21.15
20.21
19.55
19.2
19.11
19.19
19.38
19.59
19.73
19.65
19.3
18.71
17.99
17.16
16.07
14.39
11.82
8.33
4.23
0.12
-3.43
-6.18
-8.27
-10.18
-12.4
-15.25
-18.83
-23.06
-27.76
-32.63
-37.18
-40.62
-42.03
-40.52
-35.73
-27.95
-18.14
-7.69
2.08
10.17
16.16
20.07
22.18
22.89
22.55
21.49
19.99
18.41
17.05
16.2
15.98
16.36
17.15
18.04
18.76
19.15
19.2
18.89
18.17
16.9
14.9
12.06
8.48
4.45
0.34
-3.52
-6.99
-10.08
-12.91
-15.6
-18.26
-21.01
-24.03
-27.42
-31.04
-34.38
-36.57
-36.63
-33.85
-28.14
-20.07
-10.76
-1.44
6.9
13.69
18.77
22.25
24.29
25.04
24.63
23.24
21.15
18.8
16.64
15.11
14.45
14.63
15.38
16.32
17.04
17.29
17.01
16.34
15.42
14.33
12.95
11.06
8.51
5.33
1.77
-1.75
-4.83
-7.31
-9.34
-11.32
-13.73
-16.9
-20.91
-25.51
-30.14
-34.04
-36.35
-36.33
-33.54
-28.09
-20.67
-12.39
-4.42
2.43
7.86
12.13
15.64
18.67
21.16
22.76
23.16
22.29
20.47
18.32
16.48
15.38
15.13
15.46
15.98
16.33
16.33
16
15.46
14.85
14.13
13.11
11.51
9.09
5.85
2.02
-1.95
-5.6
-8.62
-10.98
-12.98
-15.11
-17.83
-21.42
-25.77
-30.34
-34.29
-36.64
-36.59
-33.74
-28.24
-20.76
-12.26
-3.74
4.05
10.64
15.85
19.67
22.19
23.42
23.38
22.16
19.98
17.3
14.66
12.64
11.59
11.56
12.27
13.28
14.2
14.79
15.03
14.99
14.7
14.06
12.89
11.01
8.41
5.27
1.91
-1.29
-4.05
-6.24
-7.97
-9.56
-11.51
-14.31
-18.25
-23.28
-28.78
-33.75
-36.99
-37.43
-34.5
-28.3
-19.64
-9.81
-0.26
7.78
13.61
17.12
18.71
18.97
18.44
17.45
16.07
14.32
12.35
10.46
9.11
8.67
9.32
10.93
13.15
15.51
17.61
19.11
19.79
19.51
18.15
15.63
11.98
7.4
2.26
-2.92
-7.69
-11.79
-15.28
-18.55
-22.11
-26.31
-31.06
-35.79
-39.48
-41.12
-39.95
-35.79
-29.1
-20.88
-12.31
-4.5
1.82
6.43
9.4
11.05
11.64
11.38
10.43
9
7.37
5.85
4.65
3.83
3.33
3.03
2.94
3.04
3.3
3.53
3.42
2.71
1.35
-0.44
-2.32
-3.98
-5.42
-6.89
-8.79
-11.44
-14.93
-19.12
-23.6
-27.8
-31.01
-32.49
-31.59
-28.05
-22.11
-14.55
-6.49
1
7.15
11.69
14.73
16.59
17.55
17.74
17.23
16.06
14.34
12.28
10.11
8.12
6.61
5.81
5.78
6.42
7.33
8.01
8.01
7.11
5.46
3.46
1.53
-0.12
-1.57
-3.17
-5.33
-8.3
-12.14
-16.63
-21.34
-25.67
-28.87
-30.14
-28.86
-24.84
-18.42
-10.5
-2.24
5.29
11.42
15.86
18.74
20.25
20.62
20.04
18.7
16.85
14.83
12.91
11.26
9.92
8.86
8.04
7.46
7.16
7.16
7.38
7.55
7.31
6.41
4.77
2.63
0.38
-1.67
-3.42
-5.02
-6.79
-9.05
-12.02
-15.82
-20.4
-25.45
-30.34
-34.09
-35.6
-33.98
-28.96
-21.11
-11.66
-2.07
6.39
12.96
17.46
20.05
21.09
20.91
19.81
18.08
15.98
13.83
11.93
10.52
9.77
9.69
10.18
11.01
11.91
12.57
12.79
12.46
11.61
10.42
9.06
7.6
6
4.11
1.78
-1
-4.07
-7.14
-9.92
-12.36
-14.65
-17.21
-20.46
-24.5
-29.01
-33.17
-35.88
-36.11
-33.27
-27.47
-19.45
-10.38
-1.49
6.21
12.21
16.41
19.06
20.5
21.04
20.86
20.02
18.58
16.75
14.86
13.28
12.37
12.18
12.53
13.07
13.46
13.57
13.46
13.33
13.32
13.4
13.32
12.77
11.49
9.39
6.57
3.29
-0.17
-3.57
-6.81
-9.85
-12.69
-15.32
-17.76
-20.1
-22.5
-25.11
-27.93
-30.66
-32.66
-33.16
-31.48
-27.37
-21.11
-13.47
-5.47
1.96
8.17
12.9
16.18
18.18
19.04
18.86
17.74
15.83
13.46
11.06
9.06
7.77
7.3
7.56
8.35
9.46
10.68
11.84
12.78
13.33
13.34
12.69
11.35
9.31
6.63
3.44
-0.05
-3.57
-6.86
-9.76
-12.29
-14.72
-17.42
-20.75
-24.81
-29.2
-33.09
-35.4
-35.2
-32.07
-26.34
-18.96
-11.12
-3.8
2.43
7.54
11.66
14.89
17.12
18.14
17.87
16.49
14.48
12.39
10.65
9.4
8.49
7.69
6.84
6.01
5.36
5.08
5.17
5.4
5.45
4.99
3.88
2.17
0.11
-2.08
-4.29
-6.53
-8.94
-11.69
-14.91
-18.61
-22.64
-26.56
-29.7
-31.2
-30.32
-26.69
-20.52
-12.61
-4.13
3.82
10.47
15.52
19.03
21.25
22.35
22.37
21.31
19.24
16.35
13.02
9.71
6.9
4.89
3.86
3.79
4.48
5.58
6.67
7.36
7.39
6.73
5.5
3.9
2.06
0.02
-2.27
-4.82
-7.6
-10.56
-13.69
-17.06
-20.74
-24.57
-28.07
-30.43
-30.79
-28.6
-23.86
-17.15
-9.41
-1.57
5.62
11.64
16.17
18.94
19.89
19.15
17.18
14.59
11.96
9.68
7.87
6.51
5.51
4.9
4.78
5.22
6.17
7.4
8.62
9.46
9.68
9.11
7.68
5.45
2.59
-0.58
-3.63
-6.2
-8.14
-9.66
-11.27
-13.54
-16.81
-20.93
-25.15
-28.44
-29.79
-28.61
-24.85
-18.98
-11.77
-4.04
3.39
9.84
14.79
17.89
19.1
18.67
17.08
14.88
12.53
10.36
8.54
7.2
6.41
6.18
6.42
6.97
7.61
8.19
8.66
8.96
9.01
8.61
7.56
5.74
3.29
0.52
-2.15
-4.44
-6.32
-8.04
-10.02
-12.64
-16.1
-20.31
-24.89
-29.19
-32.32
-33.38
-31.77
-27.36
-20.58
-12.39
-3.9
3.91
10.4
15.32
18.7
20.65
21.3
20.78
19.3
17.09
14.48
11.82
9.43
7.62
6.57
6.34
6.79
7.67
8.65
9.41
9.74
9.51
8.69
7.34
5.55
3.45
1.18
-1.1
-3.28
-5.31
-7.23
-9.25
-11.68
-14.8
-18.69
-23.03
-27.07
-29.84
-30.43
-28.37
-23.8
-17.44
-10.27
-3.23
3.01
8.12
12.02
14.74
16.29
16.7
16.02
14.41
12.1
9.43
6.77
4.42
2.61
1.45
0.97
1.1
1.8
2.95
4.36
5.71
6.63
6.77
5.9
4.05
1.46
-1.5
-4.48
-7.22
-9.65
-11.89
-14.21
-16.93
-20.23
-23.99
-27.68
-30.42
-31.19
-29.29
-24.58
-17.66
-9.67
-1.85
4.87
10.12
14
16.78
18.68
19.67
19.54
18.17
15.65
12.34
8.84
5.77
3.61
2.56
2.56
3.31
4.36
5.25
5.6
5.23
4.14
2.51
0.57
-1.52
-3.67
-5.88
-8.17
-10.65
-13.47
-16.8
-20.75
-25.15
-29.53
-33.04
-34.71
-33.7
-29.63
-22.8
-14.15
-5.01
3.32
9.9
14.41
17.01
18.2
18.47
18.1
17.16
15.61
13.5
11.06
8.72
6.94
6.05
6.16
7.13
8.65
10.28
11.6
12.23
11.96
10.75
8.72
6.11
3.14
-0
-3.23
-6.51
-9.89
-13.54
-17.63
-22.31
-27.37
-32.15
-35.64
-36.75
-34.75
-29.65
-22.22
-13.65
-5.17
2.38
8.63
13.5
17.06
19.29
20.18
19.8
18.44
16.57
14.64
13
11.78
10.96
10.47
10.36
10.69
11.47
12.47
13.32
13.58
12.95
11.42
9.21
6.67
4.04
1.4
-1.32
-4.25
-7.42
-10.78
-14.33
-18.11
-22.19
-26.51
-30.64
-33.76
-34.92
-33.27
-28.51
-21.1
-12.07
-2.79
5.54
12.19
17.01
20.18
22.02
22.77
22.53
21.37
19.52
17.38
15.42
14.07
13.47
13.49
13.83
14.15
14.3
14.28
14.18
14.05
13.78
13.1
11.71
9.43
6.36
2.86
-0.61
-3.71
-6.35
-8.68
-10.99
-13.6
-16.7
-20.38
-24.55
-28.9
-32.84
-35.51
-35.99
-33.6
-28.25
-20.59
-11.81
-3.19
4.28
10.12
14.36
17.25
19.04
19.84
19.75
18.86
17.37
15.57
13.76
12.18
11.04
10.5
10.62
11.35
12.46
13.59
14.37
14.5
13.9
12.59
10.66
8.18
5.22
1.85
-1.82
-5.61
-9.41
-13.22
-17.16
-21.4
-25.9
-30.33
-33.99
-35.97
-35.52
-32.2
-26.15
-18.07
-8.99
-0.04
7.79
13.88
18.05
20.43
21.38
21.29
20.45
19.06
17.23
15.11
12.92
10.98
9.58
8.9
8.93
9.46
10.16
10.74
11.02
10.88
10.28
9.18
7.57
5.48
3.02
0.38
-2.31
-4.96
-7.69
-10.77
-14.47
-18.9
-23.88
-28.76
-32.6
-34.3
-32.99
-28.34
-20.74
-11.26
-1.35
7.61
14.69
19.6
22.6
24.15
24.7
24.48
23.58
22.04
20.02
17.86
15.91
14.47
13.65
13.33
13.29
13.33
13.36
13.39
13.42
13.34
12.94
11.95
10.18
7.67
4.67
1.59
-1.2
-3.54
-5.57
-7.64
-10.23
-13.74
-18.31
-23.75
-29.46
-34.51
-37.79
-38.35
-35.57
-29.54
-20.96
-11.01
-1.02
7.86
14.95
20.01
23.15
24.67
24.84
23.89
22.06
19.68
17.2
15.09
13.73
13.29
13.62
14.31
14.92
15.14
14.93
14.49
14.09
13.84
13.6
13.03
11.72
9.48
6.43
2.95
-0.48
-3.41
-5.71
-7.57
-9.38
-11.61
-14.65
-18.62
-23.36
-28.37
-32.9
-36.08
-37.1
-35.42
-30.89
-23.9
-15.29
-6.17
2.39
9.63
15.23
19.23
21.88
23.36
23.74
23.08
21.54
19.47
17.4
15.82
15.04
15.06
15.64
16.47
17.27
17.9
18.29
18.39
18.12
17.42
16.22
14.51
12.31
9.69
6.71
3.44
0.01
-3.44
-6.74
-9.74
-12.38
-14.74
-17.04
-19.58
-22.68
-26.42
-30.52
-34.28
-36.71
-36.82
-34
-28.24
-20.17
-10.93
-1.78
6.2
12.42
16.75
19.42
20.79
21.16
20.63
19.26
17.14
14.53
11.93
9.83
8.58
8.22
8.49
9.01
9.46
9.8
10.11
10.56
11.12
11.59
11.58
10.77
9.02
6.47
3.5
0.54
-2.03
-4.04
-5.66
-7.31
-9.49
-12.6
-16.75
-21.62
-26.5
-30.49
-32.64
-32.18
-28.78
-22.62
-14.4
-5.28
3.46
10.71
15.82
18.63
19.43
18.73
17.09
14.96
12.71
10.66
8.99
7.83
7.16
6.88
6.93
7.26
7.91
8.89
10.08
11.23
12.01
12.1
11.3
9.58
7.09
4.11
0.93
-2.22
-5.27
-8.34
-11.64
-15.4
-19.71
-24.48
-29.31
-33.52
-36.3
-36.86
-34.71
-29.82
-22.7
-14.21
-5.43
2.65
9.31
14.16
17.1
18.24
17.92
16.59
14.73
12.73
10.79
8.96
7.26
5.73
4.52
3.85
3.84
4.42
5.32
6.17
6.67
6.66
6.12
5.12
3.71
1.91
-0.28
-2.81
-5.6
-8.55
-11.65
-14.99
-18.68
-22.72
-26.81
-30.26
-32.15
-31.62
-28.24
-22.24
-14.47
-6.11
1.72
8.25
13.13
16.4
18.22
18.76
18.16
16.58
14.21
11.38
8.45
5.79
3.79
2.7
2.67
3.59
5.16
6.91
8.35
9.09
8.98
8.08
6.56
4.66
2.55
0.29
-2.15
-4.78
-7.61
-10.64
-13.86
-17.35
-21.18
-25.27
-29.27
-32.44
-33.84
-32.63
-28.4
-21.49
-12.9
-4.04
3.74
9.56
13.16
14.87
15.31
15.06
14.47
13.63
12.43
10.86
8.99
7.14
5.68
4.88
4.81
5.31
6.1
6.85
7.33
7.38
6.95
6.03
4.71
3.09
1.3
-0.56
-2.47
-4.49
-6.72
-9.25
-12.15
-15.47
-19.14
-22.92
-26.31
-28.58
-28.9
-26.67
-21.76
-14.73
-6.61
1.36
8.14
13.21
16.54
18.47
19.33
19.35
18.57
16.97
14.69
12.06
9.58
7.65
6.55
6.24
6.54
7.18
7.94
8.65
9.17
9.3
8.87
7.72
5.81
3.24
0.22
-3.01
-6.24
-9.37
-12.47
-15.75
-19.47
-23.74
-28.26
-32.33
-34.89
-34.91
-31.8
-25.73
-17.55
-8.53
0.07
7.38
13.01
16.94
19.34
20.41
20.33
19.33
17.71
15.81
13.97
12.42
11.28
10.6
10.38
10.67
11.43
12.54
13.64
14.28
14.06
12.77
10.51
7.62
4.52
1.5
-1.32
-4
-6.65
-9.41
-12.4
-15.76
-19.56
-23.71
-27.76
-30.92
-32.18
-30.68
-26.17
-19.13
-10.74
-2.34
4.95
10.61
14.62
17.31
19
19.79
19.73
18.87
17.48
15.97
14.75
14.06
13.91
14.09
14.42
14.78
15.13
15.52
15.93
16.27
16.3
15.81
14.53
12.41
9.56
6.26
2.9
-0.22
-2.96
-5.44
-7.97
-10.94
-14.63
-19.12
-24.17
-29.23
-33.48
-36
-35.97
-32.96
-27.13
-19.24
-10.41
-1.82
5.66
11.6
15.98
19.04
20.97
21.94
21.99
21.19
19.71
17.85
16
14.51
13.62
13.36
13.6
14.14
14.79
15.42
15.97
16.42
16.63
16.4
15.5
13.77
11.18
7.91
4.27
0.64
-2.68
-5.51
-7.81
-9.69
-11.33
-12.97
-14.94
-17.54
-21.03
-25.3
-29.82
-33.61
-35.45
-34.35
-29.9
-22.57
-13.48
-4.1
4.33
11.03
15.81
18.78
20.22
20.34
19.37
17.56
15.26
12.95
11.06
9.94
9.77
10.52
11.96
13.73
15.4
16.62
17.24
17.34
17.17
16.92
16.61
16.03
14.79
12.65
9.55
5.77
1.78
-1.99
-5.3
-8.17
-10.73
-13.17
-15.61
-18.14
-20.84
-23.79
-26.95
-30.04
-32.53
-33.64
-32.67
-29.21
-23.42
-15.99
-7.89
-0.1
6.67
12.04
15.94
18.46
19.67
19.66
18.53
16.53
14.05
11.6
9.66
8.58
8.42
9.02
10.05
11.14
12.09
12.78
13.27
13.61
13.81
13.71
13.05
11.52
9
5.61
1.73
-2.07
-5.27
-7.64
-9.3
-10.7
-12.44
-15
-18.58
-22.92
-27.38
-31.1
-33.19
-32.99
-30.24
-25.18
-18.46
-10.95
-3.55
3.06
8.45
12.48
15.15
16.6
16.97
16.49
15.44
14.17
13.04
12.34
12.18
12.51
13.13
13.79
14.26
14.39
14.13
13.54
12.71
11.72
10.56
9.15
7.39
5.18
2.52
-0.51
-3.69
-6.79
-9.62
-12.14
-14.47
-16.86
-19.58
-22.81
-26.41
-29.9
-32.42
-33.02
-31
-26.19
-19.15
-10.93
-2.79
4.3
9.84
13.88
16.71
18.63
19.79
20.13
19.59
18.24
16.42
14.56
13.13
12.35
12.16
12.3
12.46
12.47
12.32
12.13
12.04
12.01
11.82
11.14
9.67
7.35
4.35
1.05
-2.13
-4.84
-6.98
-8.61
-10.08
-11.84
-14.33
-17.85
-22.29
-27.16
-31.52
-34.31
-34.59
-31.87
-26.33
-18.8
-10.49
-2.59
4.04
9.01
12.32
14.21
14.93
14.7
13.76
12.42
11.07
10.01
9.41
9.2
9.22
9.35
9.55
9.93
10.52
11.24
11.84
12.05
11.63
10.52
8.75
6.44
3.77
0.98
-1.63
-3.79
-5.43
-6.71
-8.05
-9.92
-12.62
-16.16
-20.24
-24.34
-27.89
-30.21
-30.72
-28.89
-24.52
-17.91
-9.87
-1.61
5.67
11.23
14.88
16.93
17.82
17.83
17.02
15.31
12.79
9.84
7.02
4.93
3.82
3.63
3.95
4.35
4.55
4.52
4.4
4.3
4.21
3.92
3.19
1.87
0.06
-1.98
-3.96
-5.78
-7.58
-9.71
-12.5
-16.08
-20.28
-24.58
-28.31
-30.71
-31.12
-29.16
-24.81
-18.51
-11.13
-3.69
2.87
7.91
11.32
13.29
14.18
14.28
13.68
12.42
10.54
8.25
5.95
4.1
3.02
2.81
3.31
4.2
5.14
5.88
6.28
6.21
5.61
4.45
2.78
0.78
-1.34
-3.39
-5.32
-7.24
-9.38
-11.94
-15.03
-18.62
-22.46
-26.02
-28.56
-29.23
-27.39
-22.9
-16.29
-8.6
-1.14
5.07
9.52
12.27
13.69
14.23
14.17
13.63
12.67
11.36
9.85
8.24
6.63
5.15
3.97
3.31
3.38
4.12
5.28
6.4
7.01
6.84
5.87
4.24
2.08
-0.54
-3.57
-6.78
-9.78
-12.19
-13.87
-15.14
-16.68
-19.08
-22.42
-25.97
-28.41
-28.36
-25.07
-18.76
-10.59
-2.12
5.24
10.72
14.25
16.22
17.2
17.58
17.56
17.11
16.22
14.96
13.5
12.13
11.04
10.37
10.06
9.98
9.92
9.76
9.52
9.31
9.21
9.17
8.92
8.05
6.27
3.57
0.31
-2.94
-5.62
-7.52
-8.88
-10.3
-12.49
-15.92
-20.61
-25.95
-30.95
-34.4
-35.3
-33.13
-28.01
-20.65
-12.16
-3.67
3.9
10.05
14.57
17.52
19.07
19.41
18.76
17.41
15.69
13.94
12.47
11.46
10.98
10.97
11.27
11.65
11.88
11.83
11.47
10.95
10.44
10.02
9.57
8.77
7.27
4.9
1.77
-1.7
-4.96
-7.66
-9.72
-11.39
-13.04
-15.02
-17.55
-20.65
-24.17
-27.76
-30.87
-32.77
-32.75
-30.35
-25.56
-18.89
-11.25
-3.64
3.1
8.55
12.61
15.44
17.2
18.02
17.98
17.19
15.83
14.26
12.84
11.85
11.38
11.31
11.38
11.45
11.41
11.32
11.25
11.17
10.96
10.39
9.23
7.37
4.84
1.86
-1.29
-4.34
-7.15
-9.78
-12.4
-15.24
-18.42
-21.97
-25.71
-29.28
-32.21
-33.9
-33.78
-31.36
-26.51
-19.54
-11.29
-2.89
4.57
10.41
14.47
16.99
18.33
18.71
18.14
16.55
14.1
11.21
8.53
6.59
5.66
5.58
5.94
6.35
6.68
7.03
7.53
8.2
8.73
8.67
7.67
5.69
3.01
0.15
-2.46
-4.59
-6.39
-8.2
-10.44
-13.46
-17.37
-21.95
-26.65
-30.57
-32.75
-32.37
-29.08
-23.13
-15.38
-6.98
0.95
7.62
12.68
16.14
18.23
19.14
19.05
18.15
16.72
15.15
13.87
13.17
13.08
13.36
13.63
13.53
13
12.25
11.64
11.45
11.66
11.92
11.68
10.45
8.07
4.72
0.96
-2.62
-5.58
-7.83
-9.68
-11.6
-14.11
-17.52
-21.85
-26.76
-31.52
-35.19
-36.71
-35.29
-30.65
-23.26
-14.16
-4.79
3.53
9.95
14.22
16.61
17.66
17.86
17.52
16.77
15.67
14.34
13.01
11.98
11.51
11.73
12.51
13.56
14.53
15.14
15.27
14.99
14.41
13.58
12.48
10.99
8.98
6.4
3.33
-0.07
-3.59
-7.03
-10.3
-13.4
-16.46
-19.7
-23.25
-27.13
-30.99
-34.17
-35.82
-35.13
-31.66
-25.6
-17.66
-8.93
-0.51
6.83
12.7
17.07
20.08
21.84
22.4
21.84
20.33
18.25
16.18
14.68
14.15
14.66
15.98
17.65
19.18
20.22
20.67
20.65
20.35
19.89
19.23
18.2
16.64
14.5
11.91
9.07
6.17
3.31
0.46
-2.46
-5.54
-8.9
-12.66
-16.88
-21.44
-25.85
-29.33
-30.94
-29.99
-26.35
-20.54
-13.54
-6.39
0.11
5.56
9.82
12.85
14.57
14.98
14.24
12.72
10.98
9.49
8.53
8.15
8.12
8.21
8.23
8.1
7.86
7.57
7.17
6.58
5.64
4.22
2.36
0.17
-2.1
-4.26
-6.23
-8.1
-10.09
-12.42
-15.23
-18.5
-22.01
-25.38
-28.06
-29.4
-28.86
-26.12
-21.29
-14.97
-8.04
-1.54
3.74
7.5
9.81
11.06
11.57
11.55
10.92
9.59
7.57
5.1
2.67
0.72
-0.44
-0.81
-0.64
-0.25
0.07
0.18
0.02
-0.46
-1.28
-2.51
-4.08
-5.85
-7.63
-9.32
-10.98
-12.9
-15.42
-18.75
-22.66
-26.45
-29.08
-29.51
-27.08
-21.78
-14.35
-5.99
2.01
8.72
13.71
17.11
19.31
20.67
21.33
21.16
19.99
17.84
15.01
12.06
9.62
8.05
7.36
7.28
7.38
7.41
7.27
7.01
6.7
6.29
5.63
4.55
2.97
0.92
-1.52
-4.3
-7.49
-11.18
-15.35
-19.71
-23.63
-26.22
-26.59
-24.22
-19.1
-11.88
-3.64
4.39
11.15
16.07
19.05
20.4
20.63
20.18
19.3
18.02
16.32
14.25
12.07
10.25
9.23
9.23
10.15
11.53
12.81
13.55
13.49
12.62
11.06
8.97
6.5
3.85
1.19
-1.38
-3.82
-6.32
-9.11
-12.45
-16.37
-20.55
-24.39
-27.07
-27.8
-26.07
-21.83
-15.52
-7.98
-0.26
6.71
12.31
16.31
18.78
19.97
20.16
19.6
18.5
17.03
15.37
13.77
12.45
11.56
11.18
11.26
11.66
12.18
12.58
12.65
12.21
11.21
9.67
7.73
5.51
3.18
0.92
-1.18
-3.04
-4.71
-6.37
-8.29
-10.76
-14.01
-18.04
-22.51
-26.68
-29.65
-30.5
-28.74
-24.43
-18.23
-11.15
-4.17
2.05
7.25
11.55
15.09
17.9
19.82
20.6
20.16
18.68
16.65
14.64
13.11
12.25
11.97
11.95
11.92
11.73
11.47
11.38
11.6
12.06
12.44
12.26
11.17
9.12
6.36
3.38
0.69
-1.45
-3.03
-4.36
-5.85
-7.92
-10.82
-14.55
-18.87
-23.25
-27
-29.33
-29.59
-27.39
-22.8
-16.37
-8.97
-1.59
4.92
10.02
13.54
15.55
16.24
15.83
14.55
12.66
10.48
8.37
6.64
5.52
5.06
5.2
5.8
6.71
7.75
8.77
9.61
10.13
10.2
9.71
8.6
6.88
4.66
2.1
-0.6
-3.27
-5.82
-8.25
-10.67
-13.25
-16.15
-19.45
-22.97
-26.18
-28.28
-28.38
-25.87
-20.75
-13.7
-5.95
1.21
6.8
10.5
12.51
13.36
13.53
13.27
12.59
11.38
9.65
7.61
5.62
4.1
3.3
3.25
3.67
4.17
4.37
4.11
3.38
2.38
1.31
0.3
-0.61
-1.45
-2.31
-3.33
-4.69
-6.57
-9.14
-12.45
-16.41
-20.68
-24.66
-27.58
-28.65
-27.27
-23.32
-17.23
-9.96
-2.66
3.65
8.34
11.35
12.97
13.69
13.91
13.82
13.42
12.61
11.35
9.77
8.18
7.02
6.61
7.02
7.96
8.91
9.4
9.11
8.07
6.51
4.71
2.86
1.05
-0.73
-2.49
-4.28
-6.22
-8.46
-11.19
-14.49
-18.2
-21.87
-24.85
-26.37
-25.78
-22.75
-17.44
-10.56
-3.17
3.61
8.95
12.54
14.59
15.57
15.88
15.74
15.14
14.02
12.46
10.65
8.92
7.49
6.48
5.86
5.62
5.72
6.13
6.74
7.26
7.39
6.86
5.66
3.98
2.15
0.3
-1.56
-3.64
-6.07
-8.84
-11.78
-14.69
-17.5
-20.27
-23.01
-25.39
-26.7
-26.1
-23.03
-17.61
-10.67
-3.5
2.73
7.35
10.32
12.03
12.91
13.21
12.91
11.91
10.18
8.04
6.01
4.67
4.48
5.45
7.26
9.26
10.79
11.41
11.07
9.97
8.45
6.71
4.83
2.76
0.5
-1.82
-4.02
-5.9
-7.42
-8.78
-10.28
-12.21
-14.66
-17.39
-19.84
-21.34
-21.24
-19.22
-15.39
-10.28
-4.67
0.66
5.2
8.76
11.39
13.21
14.31
14.68
14.3
13.21
11.62
9.79
8.02
6.55
5.55
5.11
5.23
5.81
6.57
7.18
7.33
6.83
5.76
4.36
2.93
1.62
0.36
-1.06
-2.94
-5.43
-8.54
-12.12
-16.01
-19.97
-23.64
-26.5
-27.97
-27.51
-24.85
-20.2
-14.18
-7.67
-1.53
3.61
7.46
10.07
11.6
12.35
12.57
12.46
12.18
11.79
11.31
10.75
10.17
9.64
9.28
9.14
9.2
9.38
9.52
9.42
8.93
7.92
6.36
4.32
1.9
-0.75
-3.46
-6.07
-8.46
-10.6
-12.57
-14.59
-16.87
-19.48
-22.21
-24.44
-25.35
-24.2
-20.67
-15.11
-8.36
-1.48
4.63
9.54
13.23
15.87
17.61
18.46
18.32
17.19
15.31
13.14
11.22
10.02
9.7
10.15
11.02
11.95
12.68
13.07
13.16
12.98
12.52
11.72
10.44
8.64
6.35
3.75
1.14
-1.27
-3.29
-4.96
-6.41
-7.91
-9.78
-12.29
-15.61
-19.63
-23.86
-27.47
-29.48
-29.14
-26.19
-20.96
-14.34
-7.36
-0.86
4.69
9.21
12.75
15.33
16.84
17.13
16.2
14.3
11.96
9.78
8.29
7.75
8.09
9.03
10.13
11.02
11.47
11.5
11.31
11.11
11.01
10.94
10.58
9.56
7.59
4.7
1.23
-2.25
-5.23
-7.46
-9.05
-10.38
-11.9
-13.92
-16.47
-19.35
-22.19
-24.52
-25.8
-25.55
-23.45
-19.45
-13.92
-7.55
-1.17
4.43
8.79
11.79
13.55
14.27
14.13
13.24
11.72
9.78
7.69
5.76
4.25
3.31
2.91
2.95
3.31
3.91
4.7
5.66
6.72
7.72
8.38
8.42
7.59
5.86
3.4
0.61
-2.1
-4.41
-6.21
-7.64
-9
-10.66
-12.9
-15.82
-19.21
-22.53
-25.06
-26.02
-24.82
-21.3
-15.8
-9.04
-1.98
4.51
9.8
13.55
15.72
16.5
16.17
15.04
13.37
11.41
9.38
7.56
6.21
5.52
5.57
6.25
7.29
8.33
9.02
9.13
8.59
7.52
6.07
4.41
2.62
0.71
-1.33
-3.49
-5.67
-7.71
-9.59
-11.44
-13.54
-16.15
-19.28
-22.47
-24.9
-25.66
-24.09
-20.13
-14.34
-7.71
-1.37
3.8
7.38
9.42
10.31
10.52
10.42
10.18
9.78
9.16
8.36
7.48
6.74
6.29
6.24
6.52
7.06
7.73
8.43
9.04
9.39
9.27
8.49
6.98
4.85
2.36
-0.19
-2.55
-4.64
-6.57
-8.56
-10.89
-13.76
-17.18
-20.86
-24.2
-26.4
-26.68
-24.59
-20.24
-14.28
-7.76
-1.69
3.22
6.78
9.1
10.46
11.07
11.03
10.41
9.33
8.02
6.71
5.64
4.92
4.57
4.57
4.94
5.67
6.69
7.89
9.02
9.85
10.16
9.83
8.85
7.26
5.25
2.98
0.69
-1.49
-3.54
-5.61
-7.98
-10.87
-14.37
-18.27
-22.08
-25.13
-26.72
-26.39
-24.02
-19.89
-14.53
-8.71
-3.08
1.85
5.81
8.76
10.81
12.11
12.79
12.96
12.67
12.01
11.03
9.84
8.59
7.48
6.7
6.4
6.61
7.18
7.85
8.32
8.35
7.76
6.53
4.71
2.44
-0
-2.33
-4.24
-5.61
-6.54
-7.28
-8.28
-9.87
-12.24
-15.29
-18.65
-21.74
-23.87
-24.42
-23
-19.61
-14.63
-8.8
-2.96
2.18
6.24
9.17
11.15
12.4
12.98
12.84
11.9
10.19
7.94
5.59
3.63
2.44
2.14
2.59
3.51
4.55
5.49
6.19
6.59
6.6
6.13
5.13
3.63
1.76
-0.26
-2.24
-4.15
-6.14
-8.49
-11.43
-14.96
-18.71
-22.03
-24.11
-24.29
-22.28
-18.24
-12.73
-6.54
-0.47
4.83
9
11.92
13.64
14.3
14.06
13.07
11.48
9.48
7.36
5.46
4.08
3.47
3.6
4.23
5.01
5.58
5.77
5.62
5.24
4.76
4.13
3.19
1.74
-0.27
-2.71
-5.36
-8.04
-10.79
-13.78
-17.14
-20.63
-23.58
-25.08
-24.32
-21.09
-15.84
-9.61
-3.5
1.66
5.6
8.48
10.65
12.33
13.49
13.92
13.49
12.31
10.77
9.38
8.53
8.34
8.67
9.27
9.89
10.44
10.94
11.4
11.76
11.82
11.34
10.13
8.2
5.68
2.82
-0.08
-2.87
-5.53
-8.2
-11.14
-14.56
-18.43
-22.37
-25.64
-27.33
-26.72
-23.58
-18.26
-11.6
-4.64
1.74
7
11
13.8
15.54
16.33
16.21
15.25
13.59
11.51
9.35
7.47
6.15
5.56
5.73
6.56
7.82
9.2
10.34
10.96
10.87
10.05
8.61
6.77
4.81
2.87
1.06
-0.67
-2.44
-4.4
-6.72
-9.57
-13.11
-17.38
-22.16
-26.83
-30.43
-31.86
-30.37
-25.87
-19.08
-11.28
-3.86
2.22
6.62
9.61
11.62
12.96
13.68
13.62
12.75
11.29
9.73
8.61
8.31
8.87
10.05
11.46
12.76
13.81
14.61
15.21
15.57
15.54
14.93
13.66
11.77
9.47
6.97
4.42
1.88
-0.7
-3.38
-6.14
-9.01
-12.03
-15.3
-18.89
-22.63
-26.06
-28.41
-28.91
-27.02
-22.76
-16.73
-9.9
-3.33
2.21
6.44
9.45
11.6
13.23
14.47
15.22
15.29
14.56
13.15
11.44
9.92
8.99
8.79
9.13
9.69
10.15
10.3
10.16
9.81
9.31
8.65
7.72
6.42
4.7
2.63
0.32
-2.01
-4.18
-6.05
-7.54
-8.74
-9.96
-11.59
-13.99
-17.23
-20.91
-24.25
-26.22
-25.97
-23.11
-17.95
-11.31
-4.35
1.89
6.81
10.23
12.38
13.59
14.12
14.14
13.71
12.92
11.91
10.89
10.05
9.53
9.42
9.7
10.33
11.19
12.17
13.09
13.79
14.05
13.7
12.67
11.01
8.87
6.48
3.96
1.37
-1.34
-4.27
-7.51
-11.05
-14.8
-18.5
-21.82
-24.29
-25.36
-24.57
-21.65
-16.79
-10.63
-4.06
2.02
6.97
10.54
12.83
14.13
14.74
14.93
14.84
14.54
14.03
13.29
12.34
11.28
10.36
9.9
10.15
11.16
12.66
14.11
14.98
14.91
13.84
11.94
9.51
6.77
3.86
0.9
-1.94
-4.42
-6.4
-7.92
-9.27
-10.89
-13.18
-16.24
-19.69
-22.78
-24.51
-24.07
-21.09
-15.85
-9.22
-2.31
3.91
8.91
12.65
15.42
17.44
18.73
19.1
18.32
16.5
14.02
11.57
9.71
8.77
8.67
9.11
9.72
10.23
10.56
10.68
10.68
10.55
10.22
9.57
8.48
6.92
4.93
2.68
0.31
-2.08
-4.44
-6.84
-9.32
-11.9
-14.58
-17.37
-20.19
-22.91
-25.15
-26.38
-26
-23.61
-19.24
-13.4
-6.89
-0.55
4.99
9.46
12.85
15.29
16.87
17.61
17.54
16.74
15.37
13.7
11.99
10.46
9.3
8.61
8.39
8.55
8.93
9.33
9.54
9.43
8.92
7.98
6.69
5.17
3.55
1.94
0.38
-1.11
-2.55
-4.02
-5.57
-7.33
-9.42
-11.91
-14.8
-17.97
-21.04
-23.47
-24.64
-24
-21.34
-16.88
-11.25
-5.38
-0.13
3.94
6.73
8.49
9.63
10.45
11.02
11.26
11.1
10.58
9.83
9.08
8.5
8.15
8
8.02
8.13
8.24
8.27
8.09
7.62
6.8
5.65
4.21
2.53
0.66
-1.34
-3.43
-5.53
-7.61
-9.72
-12.02
-14.66
-17.71
-20.93
-23.77
-25.49
-25.42
-23.24
-19.14
-13.79
-8.05
-2.68
1.88
5.56
8.38
10.38
11.46
11.48
10.44
8.54
6.25
4.07
2.45
1.63
1.61
2.19
3.12
4.14
5.01
5.6
5.83
5.68
5.17
4.34
3.24
1.97
0.65
-0.67
-2.01
-3.55
-5.52
-8.09
-11.24
-14.73
-18.12
-20.88
-22.49
-22.6
-21.09
-18.09
-13.95
-9.18
-4.3
0.23
4.09
7.13
9.32
10.71
11.38
11.46
11.1
10.5
9.83
9.18
8.57
7.94
7.29
6.63
6.1
5.8
5.78
5.93
5.96
5.63
4.77
3.48
1.97
0.5
-0.8
-2.03
-3.38
-5.05
-7.09
-9.47
-12.11
-14.94
-17.85
-20.51
-22.43
-22.92
-21.52
-18.12
-13.18
-7.54
-2.15
2.32
5.59
7.76
9.06
9.71
9.76
9.2
8.11
6.73
5.41
4.53
4.26
4.58
5.28
6.14
6.94
7.64
8.24
8.78
9.25
9.54
9.5
8.97
7.83
6.03
3.68
0.95
-1.93
-4.68
-7.15
-9.27
-11.12
-12.9
-14.83
-17.08
-19.64
-22.22
-24.22
-24.85
-23.45
-19.76
-14.16
-7.53
-0.99
4.5
8.45
10.92
12.24
12.77
12.67
11.94
10.58
8.81
7.04
5.83
5.54
6.22
7.59
9.17
10.44
11.12
11.14
10.69
10.05
9.45
8.95
8.4
7.56
6.2
4.27
1.93
-0.51
-2.75
-4.69
-6.41
-8.2
-10.36
-13.1
-16.36
-19.85
-23.08
-25.43
-26.26
-25.11
-21.87
-16.84
-10.71
-4.38
1.29
5.7
8.65
10.25
10.85
10.79
10.32
9.6
8.69
7.7
6.77
6.04
5.64
5.54
5.61
5.66
5.56
5.32
5.03
4.77
4.56
4.3
3.77
2.85
1.5
-0.19
-2
-3.79
-5.52
-7.26
-9.2
-11.5
-14.28
-17.48
-20.85
-23.91
-26.05
-26.63
-25.21
-21.74
-16.64
-10.71
-4.79
0.4
4.54
7.65
9.89
11.44
12.33
12.58
12.21
11.39
10.41
9.51
8.79
8.18
7.54
6.82
6.18
5.86
6.06
6.73
7.49
7.86
7.39
6
3.87
1.41
-1.03
-3.26
-5.31
-7.31
-9.41
-11.71
-14.29
-17.18
-20.31
-23.34
-25.65
-26.49
-25.21
-21.62
-16.18
-9.84
-3.72
1.32
4.91
7.26
8.81
10
10.98
11.62
11.65
10.92
9.59
8.08
6.88
6.29
6.31
6.6
6.84
6.84
6.71
6.73
7.07
7.65
8.14
8.08
7.22
5.57
3.41
1.07
-1.24
-3.45
-5.61
-7.76
-9.94
-12.22
-14.66
-17.34
-20.14
-22.67
-24.26
-24.23
-22.13
-18.01
-12.47
-6.4
-0.64
4.23
8.06
10.93
12.95
14.11
14.29
13.44
11.71
9.56
7.6
6.39
6.2
6.93
8.18
9.47
10.48
11.08
11.31
11.25
10.87
10.08
8.78
7
4.91
2.74
0.66
-1.31
-3.24
-5.28
-7.48
-9.83
-12.32
-14.96
-17.81
-20.84
-23.82
-26.25
-27.47
-26.85
-24.13
-19.47
-13.49
-7.07
-1.05
3.99
7.79
10.36
11.89
12.62
12.74
12.4
11.74
10.89
10.02
9.36
9.03
9.11
9.5
10.06
10.6
10.96
11.04
10.82
10.32
9.53
8.38
6.79
4.78
2.43
-0.01
-2.28
-4.19
-5.75
-7.19
-8.89
-11.22
-14.37
-18.21
-22.23
-25.61
-27.5
-27.22
-24.47
-19.49
-12.98
-5.87
0.92
6.66
11
13.85
15.41
16.02
15.96
15.48
14.65
13.52
12.11
10.48
8.76
7.13
5.81
4.98
4.8
5.32
6.43
7.79
8.9
9.3
8.65
6.97
4.6
2.05
-0.21
-1.98
-3.33
-4.61
-6.26
-8.71
-12.2
-16.65
-21.57
-26.18
-29.49
-30.59
-29.01
-24.78
-18.52
-11.22
-3.9
2.56
7.69
11.37
13.8
15.26
16.07
16.39
16.3
15.8
14.95
13.84
12.62
11.48
10.55
10.01
9.99
10.57
11.71
13.14
14.44
15.08
14.65
12.98
10.25
6.87
3.37
0.2
-2.38
-4.36
-5.98
-7.6
-9.68
-12.55
-16.36
-20.84
-25.38
-29.06
-30.93
-30.31
-27.02
-21.45
-14.48
-7.21
-0.57
4.9
9.08
12.17
14.44
16.05
17.04
17.37
17.1
16.41
15.61
14.96
14.61
14.52
14.54
14.47
14.23
13.83
13.36
12.92
12.53
12.12
11.5
10.48
8.86
6.6
3.86
0.94
-1.82
-4.21
-6.26
-8.25
-10.53
-13.41
-16.9
-20.69
-24.2
-26.76
-27.71
-26.64
-23.47
-18.45
-12.17
-5.39
1.1
6.71
11.12
14.31
16.42
17.62
17.96
17.5
16.32
14.67
12.93
11.46
10.5
10.07
10.04
10.23
10.57
11.08
11.77
12.55
13.12
13.11
12.17
10.15
7.21
3.69
0.06
-3.23
-5.93
-7.92
-9.34
-10.54
-12
-14.17
-17.29
-21.16
-25.09
-27.96
-28.68
-26.53
-21.48
-14.28
-6.12
1.72
8.3
13.16
16.3
17.92
18.24
17.38
15.5
12.94
10.14
7.63
5.81
4.83
4.55
4.68
4.98
5.32
5.69
6.09
6.42
6.51
6.15
5.28
3.98
2.44
0.82
-0.78
-2.4
-4.11
-6.01
-8.21
-10.81
-13.91
-17.45
-21.11
-24.27
-26.11
-25.85
-23.19
-18.42
-12.33
-5.99
-0.29
4.3
7.83
10.55
12.72
14.32
15.13
14.87
13.49
11.28
8.85
6.82
5.6
5.18
5.24
5.36
5.3
5.09
4.92
5.01
5.27
5.4
4.97
3.71
1.63
-0.92
-3.53
-5.87
-7.93
-9.99
-12.44
-15.53
-19.22
-23.07
-26.34
-28.21
-28.04
-25.55
-20.91
-14.75
-7.89
-1.2
4.67
9.37
12.86
15.22
16.6
17.07
16.67
15.52
13.85
12.05
10.55
9.69
9.61
10.18
11.12
12.02
12.51
12.34
11.4
9.73
7.51
5.03
2.58
0.35
-1.62
-3.45
-5.39
-7.62
-10.23
-13.16
-16.26
-19.42
-22.42
-24.97
-26.6
-26.75
-24.99
-21.19
-15.72
-9.33
-2.95
2.73
7.28
10.69
13.1
14.71
15.64
15.93
15.61
14.81
13.73
12.6
11.62
10.87
10.38
10.12
10.06
10.2
10.54
11.02
11.46
11.57
11.03
9.63
7.39
4.54
1.47
-1.49
-4.19
-6.73
-9.31
-12.07
-15.1
-18.28
-21.48
-24.48
-27.04
-28.74
-29.04
-27.34
-23.37
-17.38
-10.16
-2.83
3.61
8.54
11.96
14.19
15.64
16.48
16.66
16.05
14.71
12.96
11.32
10.32
10.21
10.91
12.01
13.02
13.54
13.46
12.95
12.25
11.57
10.87
9.87
8.3
6.06
3.33
0.48
-2.13
-4.36
-6.3
-8.2
-10.3
-12.72
-15.43
-18.33
-21.23
-23.81
-25.61
-26.04
-24.6
-21.1
-15.85
-9.66
-3.43
2.11
6.65
10.21
13.03
15.15
16.51
16.93
16.37
15.04
13.35
11.75
10.53
9.79
9.45
9.36
9.42
9.56
9.77
10.03
10.29
10.46
10.36
9.78
8.56
6.66
4.25
1.68
-0.68
-2.67
-4.41
-6.34
-8.92
-12.42
-16.76
-21.53
-26.07
-29.66
-31.6
-31.37
-28.67
-23.62
-16.74
-8.97
-1.35
5.2
10.21
13.63
15.72
16.87
17.26
16.99
16.05
14.54
12.76
11.16
10.15
9.97
10.5
11.34
12.08
12.41
12.37
12.26
12.37
12.8
13.29
13.33
12.41
10.3
7.15
3.49
-0.06
-3.05
-5.33
-7.1
-8.73
-10.62
-13.07
-16.17
-19.78
-23.53
-26.81
-28.83
-28.85
-26.36
-21.37
-14.49
-6.79
0.49
6.43
10.63
13.27
14.82
15.72
16.1
15.8
14.63
12.59
10.07
7.69
6.08
5.55
5.98
6.95
7.99
8.83
9.48
10.1
10.78
11.38
11.58
11.02
9.56
7.33
4.7
2.12
-0.08
-1.79
-3.07
-4.15
-5.34
-6.92
-9.15
-12.16
-15.9
-20.04
-24.02
-27.1
-28.52
-27.76
-24.62
-19.4
-12.8
-5.8
0.66
5.89
9.65
12.06
13.51
14.32
14.66
14.57
13.95
12.84
11.44
10.04
8.98
8.45
8.47
8.93
9.65
10.5
11.38
12.25
12.98
13.37
13.13
11.95
9.67
6.42
2.57
-1.29
-4.59
-7.06
-8.79
-10.29
-12.15
-14.88
-18.64
-23.1
-27.56
-31.05
-32.66
-31.71
-28.08
-22.18
-14.9
-7.34
-0.47
5.13
9.34
12.34
14.43
15.78
16.45
16.42
15.74
14.61
13.29
12.05
11.05
10.38
10.03
10.04
10.42
11.2
12.27
13.4
14.22
14.33
13.4
11.28
8.11
4.31
0.43
-2.99
-5.67
-7.64
-9.3
-11.17
-13.72
-17.17
-21.34
-25.71
-29.49
-31.77
-31.79
-29.15
-23.95
-16.8
-8.7
-0.77
6.11
11.42
15.08
17.31
18.36
18.44
17.68
16.25
14.46
12.7
11.34
10.52
10.21
10.23
10.42
10.77
11.32
12.1
12.91
13.38
13.13
11.91
9.82
7.18
4.38
1.71
-0.7
-2.96
-5.2
-7.61
-10.3
-13.38
-16.91
-20.8
-24.69
-27.92
-29.61
-28.93
-25.42
-19.37
-11.71
-3.79
3.14
8.35
11.77
13.87
15.2
16.11
16.58
16.45
15.6
14.04
12.07
10.05
8.31
7.05
6.32
6.12
6.36
6.91
7.57
8.04
8.07
7.46
6.17
4.28
1.97
-0.6
-3.3
-6.1
-8.92
-11.76
-14.67
-17.77
-21.16
-24.72
-27.98
-30.11
-30.18
-27.58
-22.33
-15.18
-7.34
-0.02
5.98
10.38
13.38
15.27
16.28
16.46
15.75
14.16
11.87
9.22
6.66
4.57
3.21
2.65
2.76
3.31
4.08
4.85
5.51
5.89
5.95
5.57
4.72
3.36
1.5
-0.87
-3.76
-7.18
-11.14
-15.56
-20.24
-24.72
-28.33
-30.3
-29.95
-27
-21.68
-14.75
-7.25
-0.16
5.85
10.5
13.85
16.12
17.46
17.96
17.59
16.39
14.44
12.04
9.55
7.36
5.78
4.9
4.63
4.69
4.72
4.48
3.86
2.9
1.71
0.34
-1.32
-3.49
-6.36
-9.94
-14.07
-18.35
-22.33
-25.56
-27.72
-28.54
-27.77
-25.24
-20.9
-14.93
-7.84
-0.35
6.74
12.77
17.29
20.17
21.45
21.26
19.82
17.39
14.38
11.29
8.75
7.23
6.93
7.62
8.72
9.52
9.54
8.69
7.24
5.68
4.36
3.3
2.18
0.55
-2.06
-5.85
-10.74
-16.3
-21.74
-26.11
-28.43
-28
-24.69
-18.92
-11.65
-4.02
2.94
8.59
12.72
15.43
16.92
17.34
16.86
15.6
13.75
11.66
9.7
8.22
7.45
7.35
7.62
7.81
7.56
6.69
5.38
4.01
2.94
2.36
2.1
1.75
0.79
-1.24
-4.58
-9.13
-14.41
-19.64
-23.77
-25.78
-24.99
-21.33
-15.39
-8.24
-1.08
5.17
10.07
13.61
15.97
17.3
17.61
16.79
14.87
12.13
9.11
6.45
4.78
4.37
5.11
6.47
7.78
8.46
8.27
7.33
6.04
4.79
3.74
2.79
1.64
-0.05
-2.54
-5.94
-10.23
-15.21
-20.49
-25.43
-29.15
-30.69
-29.39
-25.11
-18.42
-10.37
-2.18
5.12
10.93
15.12
17.77
19.07
19.21
18.35
16.76
14.77
12.77
11.1
9.96
9.42
9.4
9.73
10.21
10.6
10.74
10.51
9.92
9.01
7.84
6.39
4.62
2.5
0.06
-2.54
-5.14
-7.67
-10.24
-13.12
-16.55
-20.54
-24.68
-28.22
-30.18
-29.76
-26.65
-21.13
-13.99
-6.28
1.09
7.47
12.58
16.39
18.94
20.29
20.48
19.64
18.02
15.97
13.92
12.22
11.09
10.57
10.56
10.86
11.26
11.54
11.57
11.24
10.52
9.39
7.88
6.03
3.89
1.54
-1
-3.71
-6.58
-9.65
-12.99
-16.64
-20.6
-24.63
-28.19
-30.52
-30.77
-28.4
-23.44
-16.53
-8.76
-1.28
5.07
9.89
13.19
15.21
16.15
16.1
15.09
13.2
10.68
7.93
5.46
3.7
2.91
3.07
3.91
5.02
5.97
6.41
6.22
5.39
4.09
2.46
0.59
-1.55
-4.04
-6.98
-10.45
-14.5
-19.04
-23.88
-28.55
-32.35
-34.48
-34.22
-31.21
-25.64
-18.25
-10.13
-2.41
4.09
8.98
12.32
14.4
15.54
15.94
15.66
14.75
13.42
12.08
11.27
11.43
12.67
14.71
16.93
18.65
19.34
18.84
17.32
15.18
12.81
10.51
8.43
6.51
4.64
2.55
-0.04
-3.44
-7.79
-12.92
-18.26
-22.84
-25.55
-25.43
-22.14
-16.12
-8.51
-0.79
5.75
10.39
13.07
14.2
14.34
13.92
13.11
11.93
10.41
8.67
6.99
5.65
4.85
4.62
4.88
5.43
6.04
6.51
6.68
6.48
5.94
5.09
3.94
2.43
0.43
-2.1
-5.09
-8.34
-11.63
-14.86
-18.04
-21.24
-24.27
-26.67
-27.64
-26.47
-22.8
-16.93
-9.68
-2.13
4.88
10.91
15.87
19.83
22.74
24.41
24.7
23.69
21.77
19.52
17.49
16
15.1
14.67
14.54
14.62
14.88
15.24
15.55
15.58
15.13
14.08
12.49
10.43
8.08
5.56
3
0.49
-1.86
-4
-5.96
-7.84
-9.87
-12.28
-15.22
-18.61
-22.09
-25.02
-26.57
-26.03
-23.05
-17.79
-10.98
-3.68
3.03
8.42
12.26
14.69
16.08
16.7
16.67
16.04
14.84
13.27
11.62
10.13
8.97
8.16
7.66
7.46
7.64
8.26
9.28
10.47
11.42
11.71
11.09
9.5
7.15
4.37
1.52
-1.13
-3.44
-5.47
-7.38
-9.4
-11.77
-14.59
-17.78
-20.96
-23.51
-24.7
-23.91
-20.96
-16.2
-10.41
-4.54
0.62
4.65
7.54
9.49
10.73
11.35
11.34
10.69
9.52
8.11
6.8
5.89
5.5
5.62
6.11
6.8
7.52
8.07
8.31
8.09
7.37
6.23
4.82
3.24
1.54
-0.33
-2.48
-4.92
-7.57
-10.35
-13.22
-16.18
-19.19
-21.99
-24.04
-24.61
-23.05
-19.21
-13.49
-6.87
-0.42
4.98
8.97
11.62
13.31
14.36
14.89
14.91
14.34
13.25
11.83
10.43
9.36
8.78
8.66
8.82
9.03
9.11
9.01
8.74
8.35
7.81
7.01
5.84
4.23
2.29
0.23
-1.69
-3.29
-4.56
-5.68
-6.99
-8.8
-11.36
-14.61
-18.25
-21.66
-24.07
-24.73
-23.16
-19.41
-14.03
-7.97
-2.19
2.6
6.14
8.6
10.32
11.61
12.54
12.97
12.68
11.6
9.94
8.13
6.73
6.17
6.58
7.73
9.18
10.46
11.17
11.17
10.5
9.35
7.89
6.31
4.64
2.9
1.09
-0.79
-2.69
-4.51
-6.15
-7.59
-8.86
-10.12
-11.55
-13.26
-15.3
-17.45
-19.31
-20.37
-20.1
-18.21
-14.76
-10.24
-5.38
-0.91
2.76
5.59
7.83
9.7
11.24
12.2
12.3
11.43
9.81
8.01
6.56
5.82
5.79
6.26
6.93
7.62
8.27
8.79
9.12
9.09
8.57
7.59
6.25
4.74
3.19
1.59
-0.07
-1.81
-3.5
-5.03
-6.4
-7.73
-9.3
-11.3
-13.73
-16.36
-18.74
-20.41
-21.05
-20.5
-18.8
-16.09
-12.59
-8.58
-4.42
-0.48
2.94
5.63
7.57
8.78
9.31
9.21
8.55
7.43
6.05
4.6
3.27
2.14
1.26
0.63
0.31
0.37
0.82
1.62
2.54
3.31
3.64
3.34
2.36
0.81
-1.12
-3.12
-4.89
-6.24
-7.13
-7.74
-8.45
-9.62
-11.44
-13.77
-16.16
-17.95
-18.6
-17.85
-15.75
-12.65
-8.95
-4.95
-0.86
3.17
6.88
9.87
11.76
12.28
11.5
9.76
7.56
5.37
3.49
2.09
1.27
1.09
1.52
2.38
3.25
3.59
3.06
1.6
-0.45
-2.6
-4.44
-5.84
-6.98
-8.15
-9.53
-11.09
-12.68
-14.16
-15.54
-16.87
-18.13
-19.02
-19.03
-17.61
-14.52
-9.98
-4.66
0.57
4.99
8.26
10.39
11.59
12.03
11.77
10.79
9.13
7
4.77
2.86
1.56
1.02
1.11
1.64
2.31
2.91
3.25
3.26
2.94
2.31
1.51
0.62
-0.31
-1.3
-2.43
-3.89
-5.86
-8.46
-11.65
-15.12
-18.3
-20.48
-21.05
-19.69
-16.54
-12.13
-7.16
-2.29
2.01
5.52
8.14
9.87
10.73
10.84
10.4
9.67
8.87
8.05
7.18
6.19
5.11
4.12
3.48
3.38
3.87
4.81
5.86
6.67
6.84
6.16
4.55
2.21
-0.46
-2.97
-4.9
-6.09
-6.69
-7.17
-8.03
-9.62
-11.9
-14.4
-16.39
-17.1
-16.05
-13.2
-9.01
-4.21
0.42
4.3
7.16
8.99
9.94
10.19
9.93
9.34
8.59
7.85
7.26
6.93
6.86
7.05
7.39
7.76
8.01
8
7.71
7.24
6.78
6.45
6.26
5.99
5.29
3.89
1.72
-1.01
-3.85
-6.32
-8.17
-9.44
-10.49
-11.76
-13.55
-15.9
-18.5
-20.95
-22.75
-23.54
-23.08
-21.31
-18.34
-14.49
-10.21
-6
-2.27
0.76
3.06
4.69
5.66
5.95
5.56
4.63
3.47
2.51
2.07
2.24
2.85
3.58
4.13
4.38
4.37
4.31
4.38
4.69
5.22
5.77
6.1
5.97
5.21
3.87
2.08
0.07
-1.95
-3.9
-5.75
-7.53
-9.2
-10.68
-11.9
-12.89
-13.79
-14.8
-15.96
-17.04
-17.6
-17.13
-15.29
-12.11
-7.94
-3.37
1.08
5.05
8.33
10.9
12.75
13.86
14.31
14.19
13.7
13.06
12.46
12.07
11.93
12.01
12.18
12.3
12.27
12.09
11.79
11.38
10.81
9.98
8.83
7.33
5.63
3.9
2.29
0.79
-0.71
-2.27
-3.92
-5.63
-7.48
-9.57
-12.1
-15.05
-17.99
-20.21
-20.89
-19.59
-16.41
-12
-7.22
-2.77
1
4.12
6.66
8.63
9.85
10.15
9.52
8.19
6.49
4.77
3.26
2.02
1.08
0.46
0.25
0.48
1.14
2.07
3.04
3.78
4.09
3.86
3.15
2.09
0.93
-0.1
-0.81
-1.11
-1.04
-0.74
-0.43
-0.31
-0.44
-0.72
-0.85
-0.42
0.89
3.12
6.04
9.17
12.01
14.24
15.91
17.33
18.83
20.59
22.48
24.11
25.06
25.07
24.12
22.47
20.5
18.59
16.98
15.72
14.68
13.63
12.39
10.84
9.01
7.01
4.9
2.69
0.41
-1.92
-4.22
-6.37
-8.35
-10.18
-11.86
-13.25
-13.96
-13.51
-11.53
-8.07
-3.65
0.95
5.11
8.6
11.68
14.72
17.91
21.01
23.43
24.61
24.21
22.3
19.3
15.8
12.45
9.89
8.67
9.12
11.19
14.29
17.41
19.46
19.62
17.66
13.96
9.26
4.27
-0.59
-5.38
-10.46
-16.26
-22.95
-30.26
-37.48
-43.53
-47.39
-48.38
-46.39
-41.91
-35.84
-29.21
-22.9
-17.52
-13.38
-10.61
-9.22
-9.18
-10.4
-12.6
-15.29
-17.83
-19.5
-19.87
-18.95
-17.22
-15.47
-14.37
-14.19
-14.69
-15.32
-15.67
-15.7
-15.81
-16.59
-18.46
-21.38
-24.86
-28.18
-30.62
-31.72
-31.36
-29.65
-26.88
-23.44
-19.66
-15.85
-12.33
-9.31
-7.01
-5.55
-4.84
-4.59
-4.34
-3.66
-2.34
-0.41
1.83
4.02
5.89
7.28
8.08
8.11
7.15
5.02
1.78
-2.2
-6.43
-10.45
-14.08
-17.46
-20.82
-24.31
-27.77
-30.74
-32.65
-33.07
-31.86
-29.16
-25.39
-21
-16.39
-11.83
-7.44
-3.33
0.29
3.1
4.74
5.06
4.26
2.91
1.7
1.33
2.15
4.12
6.88
9.87
12.58
14.65
15.97
16.62
16.76
16.63
16.38
16.08
15.69
15.14
14.4
13.43
12.22
10.63
8.51
5.86
3
0.6
-0.49
0.42
3.48
8.28
13.93
19.41
23.9
26.95
28.51
28.72
27.87
26.28
24.27
22.09
19.93
17.88
15.94
14.07
12.29
10.63
9.14
7.91
6.91
6.07
5.27
4.26
2.76
0.51
-2.69
-6.8
-11.53
-16.4
-20.89
-24.66
-27.62
-29.93
-32
-34.21
-36.67
-39.11
-40.88
-41.16
-39.3
-35.11
-28.98
-21.79
-14.54
-8.08
-2.87
1.08
3.98
6.09
7.51
8.25
8.35
7.93
7.28
6.76
6.59
6.87
7.44
8.11
8.66
8.99
9.11
9.1
9.02
8.86
8.62
8.21
7.56
6.55
5.07
2.98
0.23
-3.13
-6.95
-11.07
-15.4
-19.9
-24.44
-28.65
-31.87
-33.25
-32.12
-28.27
-22.16
-14.83
-7.5
-1.16
3.69
7.09
9.4
11.04
12.24
13.11
13.58
13.65
13.41
13.04
12.86
13.12
13.98
15.42
17.18
18.89
20.17
20.71
20.46
19.57
18.31
16.98
15.75
14.63
13.5
12.23
10.67
8.76
6.44
3.68
0.59
-2.55
-5.2
-6.68
-6.32
-3.82
0.62
6.35
12.46
18.21
23.16
27.25
30.6
33.31
35.34
36.56
36.89
36.36
35.23
33.86
32.58
31.61
31.01
30.63
30.16
29.19
27.29
24.22
20.02
15.06
9.94
5.3
1.51
-1.41
-3.73
-5.86
-8.1
-10.56
-13.25
-16.14
-19.25
-22.45
-25.39
-27.39
-27.64
-25.51
-20.95
-14.67
-7.86
-1.79
2.76
5.67
7.46
8.78
10.1
11.46
12.54
12.98
12.58
11.48
9.96
8.4
7.02
5.94
5.26
5.05
5.37
6.16
7.2
8.11
8.45
7.88
6.28
3.71
0.36
-3.54
-7.84
-12.35
-16.83
-20.84
-23.85
-25.34
-25.03
-23.15
-20.34
-17.49
-15.41
-14.54
-15
-16.63
-19.23
-22.71
-27.03
-32.13
-37.84
-43.88
-49.99
-56.03
-62.03
-68.15
-74.59
-81.39
-88.5
-95.78
-103.18
-110.7
-118.51
-126.68
-135.09
-143.24
-150.34
-155.38
-157.38
-155.55
-149.23
-137.97
-121.38
-99.24
-71.76
-39.84
-5.18
29.96
63.23
92.65
116.92
135.52
148.46
156.1
158.93
157.56
152.77
145.55
136.96
128
119.44
111.66
104.67
98.24
92.04
85.76
79.22
72.51
65.73
59.04
52.44
45.8
39.01
32.12
25.46
19.55
14.97
12.05
10.69
10.5
10.82
11.16
11.18
10.86
10.24
9.42
8.42
7.12
5.44
3.35
1.04
-1.2
-3
-4.1
-4.44
-4.23
-3.79
-3.41
-3.29
-3.51
-4.05
-4.91
-6.17
-7.92
-10.24
-13.04
-16.09
-18.99
-21.29
-22.58
-22.53
-21
-18.03
-13.88
-9.04
-4.06
0.46
4.07
6.54
7.91
8.38
8.26
7.85
7.31
6.75
6.27
6.01
6.14
6.69
7.47
8.03
7.91
6.79
4.7
1.89
-1.29
-4.59
-7.86
-11.09
-14.21
-17.13
-19.71
-21.81
-23.33
-24.12
-24.02
-22.89
-20.7
-17.6
-14.01
-10.34
-6.93
-3.91
-1.3
0.93
2.67
3.79
4.12
3.63
2.5
1.07
-0.29
-1.25
-1.65
-1.6
-1.31
-1.07
-1.11
-1.49
-2.13
-2.87
-3.57
-4.2
-4.89
-5.86
-7.31
-9.38
-12.01
-15.03
-18.08
-20.73
-22.41
-22.63
-21.07
-17.75
-13.13
-7.95
-3.07
0.92
3.88
6.09
8.05
10.13
12.34
14.26
15.36
15.28
14.19
12.69
11.59
11.45
12.32
13.69
14.87
15.21
14.54
13.1
11.38
9.8
8.58
7.64
6.81
5.89
4.78
3.45
1.86
-0.07
-2.4
-5.11
-7.95
-10.5
-12.19
-12.58
-11.46
-8.95
-5.41
-1.37
2.67
6.37
9.5
11.98
13.76
14.87
15.38
15.33
14.85
14.08
13.18
12.36
11.81
11.67
12.04
12.9
14.1
15.45
16.63
17.36
17.39
16.66
15.19
13.21
10.96
8.73
6.69
4.93
3.42
2.03
0.55
-1.3
-3.8
-6.99
-10.62
-14.05
-16.46
-17.15
-15.84
-12.75
-8.51
-3.9
0.43
4.11
7.01
9.19
10.72
11.65
12.03
11.95
11.51
10.84
10.1
9.5
9.18
9.23
9.53
9.93
10.19
10.22
10.05
9.79
9.47
8.96
8.08
6.71
4.92
3.01
1.31
0.07
-0.77
-1.49
-2.44
-3.84
-5.75
-8.01
-10.38
-12.6
-14.34
-15.3
-15.22
-14
-11.84
-9.11
-6.32
-3.86
-1.87
-0.31
0.94
1.97
2.79
3.36
3.64
3.66
3.51
3.27
3
2.78
2.73
2.97
3.58
4.5
5.58
6.61
7.41
7.85
7.84
7.26
6.02
4.14
1.82
-0.54
-2.5
-3.74
-4.27
-4.4
-4.61
-5.3
-6.6
-8.31
-9.96
-10.96
-10.88
-9.52
-6.99
-3.65
0.06
3.79
7.23
10.21
12.58
14.23
15.09
15.18
14.68
13.86
13.04
12.46
12.31
12.58
13.16
13.84
14.37
14.54
14.27
13.6
12.66
11.58
10.43
9.25
7.94
6.38
4.43
2.04
-0.74
-3.72
-6.63
-9.25
-11.45
-13.28
-14.92
-16.52
-18.04
-19.23
-19.65
-18.85
-16.63
-13.13
-8.85
-4.45
-0.58
2.38
4.43
5.8
6.83
7.65
8.22
8.34
7.92
7.16
6.41
6.11
6.43
7.18
7.91
8.16
7.76
6.84
5.67
4.47
3.25
1.89
0.24
-1.69
-3.67
-5.43
-6.78
-7.71
-8.44
-9.25
-10.3
-11.61
-12.92
-13.92
-14.28
-13.76
-12.28
-9.92
-6.94
-3.74
-0.76
1.67
3.33
4.25
4.55
4.38
3.89
3.1
2.09
0.98
0.02
-0.56
-0.58
-0.08
0.75
1.63
2.28
2.54
2.36
1.8
0.98
-0.01
-1.11
-2.31
-3.64
-5.2
-7.03
-9.12
-11.38
-13.74
-16.18
-18.69
-21.21
-23.48
-25.05
-25.41
-24.24
-21.54
-17.77
-13.61
-9.72
-6.51
-4.03
-2.14
-0.6
0.68
1.71
2.49
3.11
3.82
4.81
6.17
7.72
9.15
10.05
10.22
9.68
8.71
7.73
7.06
6.85
7.02
7.28
7.27
6.66
5.26
3.09
0.35
-2.6
-5.35
-7.54
-8.9
-9.28
-8.69
-7.22
-5.09
-2.54
0.13
2.7
4.99
6.91
8.45
9.57
10.16
10.07
9.12
7.28
4.78
2.08
-0.23
-1.65
-2.07
-1.74
-1.19
-0.92
-1.14
-1.73
-2.31
-2.57
-2.47
-2.26
-2.35
-3.04
-4.4
-6.14
-7.83
-8.96
-9.19
-8.36
-6.54
-3.93
-0.86
2.35
5.42
8.03
9.92
10.91
10.96
10.22
8.95
7.52
6.2
5.09
4.17
3.35
2.61
2.01
1.65
1.52
1.52
1.44
1.09
0.44
-0.45
-1.46
-2.55
-3.73
-5.1
-6.69
-8.42
-10.01
-11.09
-11.26
-10.27
-8.09
-4.95
-1.28
2.41
5.66
8.24
10.07
11.17
11.56
11.21
10.09
8.35
6.43
4.9
4.25
4.62
5.64
6.69
7.05
6.39
4.78
2.63
0.47
-1.36
-2.76
-3.92
-5.09
-6.49
-8.13
-9.86
-11.29
-11.99
-11.61
-9.95
-7.12
-3.48
0.42
4.04
6.94
8.85
9.67
9.45
8.39
6.74
4.85
3.02
1.51
0.5
-0.01
-0.05
0.2
0.59
0.99
1.29
1.49
1.56
1.46
1.1
0.39
-0.85
-2.75
-5.32
-8.39
-11.55
-14.27
-16.04
-16.55
-15.78
-13.93
-11.34
-8.35
-5.24
-2.28
0.29
2.26
3.49
4.01
3.99
3.66
3.16
2.59
2.03
1.58
1.48
1.89
2.78
3.88
4.7
4.79
3.9
2.21
0.14
-1.78
-3.14
-3.82
-4
-4.06
-4.4
-5.29
-6.83
-8.87
-11.12
-13.18
-14.59
-14.93
-13.95
-11.63
-8.23
-4.27
-0.37
2.95
5.35
6.79
7.43
7.52
7.28
6.88
6.4
5.99
5.75
5.79
6.18
6.88
7.72
8.46
8.8
8.59
7.83
6.63
5.22
3.76
2.23
0.51
-1.5
-3.8
-6.24
-8.56
-10.59
-12.33
-13.9
-15.49
-17.1
-18.47
-19.13
-18.58
-16.5
-12.97
-8.41
-3.48
1.2
5.19
8.4
10.85
12.67
13.86
14.38
14.22
13.43
12.28
11.03
9.93
9.08
8.45
7.98
7.64
7.45
7.44
7.54
7.62
7.51
7.09
6.42
5.59
4.75
3.95
3.17
2.28
1.15
-0.35
-2.34
-4.89
-7.93
-11.24
-14.38
-16.75
-17.84
-17.36
-15.42
-12.51
-9.29
-6.3
-3.82
-1.79
0
1.67
3.18
4.25
4.59
4.05
2.76
1.12
-0.38
-1.28
-1.38
-0.82
0.12
1.08
1.8
2.23
2.44
2.49
2.37
1.99
1.25
0.13
-1.27
-2.72
-4.09
-5.37
-6.72
-8.33
-10.28
-12.5
-14.6
-16.07
-16.39
-15.23
-12.53
-8.63
-4.1
0.4
4.35
7.48
9.77
11.37
12.38
12.86
12.8
12.27
11.45
10.59
9.95
9.64
9.58
9.62
9.56
9.3
8.89
8.44
8.09
7.96
8.07
8.32
8.53
8.43
7.82
6.58
4.79
2.64
0.46
-1.38
-2.58
-2.91
-2.34
-0.97
0.85
2.77
4.45
5.76
6.71
7.39
7.88
8.09
7.88
7.14
5.86
4.31
2.88
1.93
1.67
2.02
2.64
3.08
2.95
2.1
0.72
-0.79
-1.98
-2.65
-2.91
-3.22
-4.15
-6.08
-8.94
-12.3
-15.38
-17.38
-17.76
-16.39
-13.53
-9.75
-5.69
-1.85
1.51
4.34
6.73
8.75
10.38
11.58
12.28
12.42
12.09
11.43
10.6
9.73
8.93
8.19
7.41
6.42
5.08
3.33
1.28
-0.83
-2.76
-4.33
-5.48
-6.34
-7.09
-7.99
-9.16
-10.58
-12.02
-13.03
-13.14
-12
-9.49
-5.84
-1.51
2.94
7.04
10.58
13.55
16.09
18.35
20.29
21.77
22.56
22.61
22
21.04
20.12
19.52
19.31
19.36
19.45
19.38
19.13
18.71
18.16
17.44
16.45
15.17
13.64
11.95
10.12
8.11
5.74
2.95
-0.14
-3.08
-5.28
-6.2
-5.63
-3.79
-1.21
1.47
3.83
5.72
7.28
8.66
9.88
10.77
11.02
10.41
8.94
6.85
4.54
2.42
0.78
-0.2
-0.51
-0.25
0.32
0.88
1.08
0.61
-0.63
-2.58
-5.02
-7.64
-10.21
-12.56
-14.62
-16.41
-18.03
-19.65
-21.45
-23.5
-25.66
-27.49
-28.43
-27.98
-25.94
-22.5
-18.19
-13.63
-9.33
-5.51
-2.2
0.67
3.08
4.84
5.73
5.68
4.86
3.68
2.62
2.05
2.08
2.58
3.31
4.09
4.89
5.69
6.46
7.02
7.08
6.47
5.25
3.7
2.26
1.22
0.65
0.27
-0.3
-1.38
-3.07
-5.13
-7.12
-8.53
-8.96
-8.2
-6.32
-3.61
-0.55
2.41
4.91
6.78
8.03
8.73
9
8.9
8.46
7.71
6.76
5.72
4.71
3.84
3.13
2.64
2.3
2.06
1.83
1.51
1.07
0.46
-0.33
-1.36
-2.73
-4.49
-6.6
-8.92
-11.24
-13.41
-15.32
-16.99
-18.48
-19.71
-20.5
-20.5
-19.35
-16.88
-13.19
-8.75
-4.19
-0.15
2.91
4.86
5.87
6.26
6.32
6.18
5.83
5.18
4.3
3.43
2.94
3.16
4.18
5.81
7.6
9.02
9.66
9.35
8.21
6.56
4.76
3.15
1.84
0.77
-0.28
-1.61
-3.49
-6
-8.95
-11.9
-14.22
-15.27
-14.63
-12.26
-8.54
-4.15
0.11
3.62
6.06
7.4
7.88
7.84
7.54
7.11
6.59
5.96
5.2
4.43
3.78
3.4
3.31
3.44
3.61
3.66
3.52
3.22
2.88
2.57
2.3
1.92
1.29
0.25
-1.32
-3.42
-5.93
-8.68
-11.45
-13.96
-15.99
-17.28
-17.61
-16.85
-14.99
-12.23
-8.96
-5.67
-2.72
-0.28
1.75
3.52
5.07
6.25
6.71
6.19
4.72
2.65
0.58
-0.92
-1.55
-1.4
-0.81
-0.21
0.11
0.06
-0.24
-0.65
-1.05
-1.44
-1.93
-2.64
-3.66
-5.04
-6.75
-8.71
-10.76
-12.6
-13.82
-13.97
-12.75
-10.11
-6.38
-2.12
2
5.46
8.01
9.59
10.32
10.32
9.67
8.47
6.88
5.1
3.41
2.05
1.15
0.64
0.35
0.07
-0.39
-1.04
-1.79
-2.56
-3.33
-4.25
-5.53
-7.33
-9.67
-12.39
-15.11
-17.48
-19.19
-20.02
-19.81
-18.44
-15.92
-12.38
-8.17
-3.82
0.1
3.13
5.05
5.85
5.79
5.19
4.33
3.43
2.65
2.08
1.8
1.88
2.26
2.81
3.36
3.75
3.91
3.81
3.51
2.99
2.2
1.02
-0.58
-2.49
-4.5
-6.3
-7.57
-8.01
-7.39
-5.58
-2.63
1.12
5.11
8.67
11.29
12.76
13.19
12.89
12.13
10.99
9.45
7.48
5.2
2.89
0.92
-0.46
-1.15
-1.26
-0.98
-0.54
-0.14
0.07
-0.02
-0.53
-1.55
-3.15
-5.37
-8.14
-11.21
-14.08
-16.07
-16.48
-14.85
-11.24
-6.22
-0.69
4.41
8.46
11.25
12.93
13.74
13.9
13.42
12.26
10.42
8
5.28
2.61
0.31
-1.45
-2.71
-3.58
-4.24
-4.79
-5.27
-5.65
-6
-6.46
-7.37
-8.98
-11.45
-14.59
-17.89
-20.67
-22.2
-22.01
-19.97
-16.35
-11.67
-6.6
-1.76
2.4
5.63
7.86
9.16
9.59
9.21
8.05
6.17
3.81
1.36
-0.67
-1.86
-2.07
-1.46
-0.44
0.5
1.05
1.12
0.81
0.25
-0.5
-1.55
-3.12
-5.38
-8.32
-11.75
-15.21
-18.13
-19.9
-20.02
-18.24
-14.62
-9.62
-3.95
1.56
6.26
9.74
11.92
12.92
12.98
12.31
11.05
9.42
7.66
6.12
5.15
4.93
5.38
6.13
6.75
6.86
6.38
5.49
4.51
3.66
2.91
1.97
0.5
-1.76
-4.79
-8.34
-12.05
-15.61
-18.71
-21.07
-22.27
-21.87
-19.54
-15.36
-9.87
-4.02
1.17
5.05
7.45
8.71
9.4
9.99
10.63
11.14
11.26
10.82
9.95
8.98
8.32
8.16
8.39
8.68
8.61
7.95
6.77
5.39
4.12
3.09
2.12
0.83
-1.21
-4.15
-7.82
-11.8
-15.53
-18.54
-20.49
-21.23
-20.7
-18.9
-15.94
-12
-7.42
-2.65
1.83
5.58
8.32
9.97
10.57
10.3
9.4
8.16
6.9
5.92
5.45
5.52
6.01
6.7
7.32
7.75
7.93
7.92
7.75
7.36
6.61
5.39
3.62
1.34
-1.42
-4.54
-7.87
-11.05
-13.54
-14.68
-13.95
-11.23
-6.84
-1.51
3.99
9.06
13.39
16.96
19.78
21.81
22.88
22.87
21.86
20.16
18.2
16.38
14.95
13.97
13.38
13.07
13
13.08
13.15
12.97
12.25
10.76
8.48
5.59
2.31
-1.14
-4.65
-8.13
-11.37
-13.94
-15.32
-15.12
-13.17
-9.81
-5.63
-1.32
2.53
5.69
8.07
9.67
10.45
10.31
9.21
7.35
5.1
2.95
1.33
0.37
0.02
0
0.06
0.03
-0.16
-0.52
-1.08
-1.89
-3.06
-4.69
-6.88
-9.69
-13.06
-16.68
-19.96
-22.14
-22.52
-20.77
-17.08
-12.17
-6.98
-2.35
1.22
3.65
5.14
5.93
6.14
5.8
4.87
3.43
1.62
-0.31
-2.09
-3.53
-4.53
-5.1
-5.35
-5.38
-5.32
-5.27
-5.36
-5.8
-6.84
-8.69
-11.31
-14.37
-17.21
-19.09
-19.41
-17.92
-14.86
-10.74
-6.2
-1.73
2.34
5.82
8.59
10.53
11.55
11.58
10.76
9.32
7.66
6.12
4.93
4.09
3.38
2.55
1.47
0.28
-0.74
-1.33
-1.52
-1.61
-2.14
-3.54
-5.99
-9.26
-12.84
-16.16
-18.63
-19.72
-19.02
-16.21
-11.35
-4.93
2.15
8.8
14.12
17.7
19.64
20.33
20.22
19.59
18.54
17.14
15.53
13.93
12.53
11.41
10.45
9.48
8.32
6.94
5.34
3.55
1.52
-0.85
-3.59
-6.66
-9.95
-13.33
-16.71
-19.95
-22.75
-24.68
-25.2
-23.89
-20.61
-15.68
-9.71
-3.51
2.27
7.17
10.99
13.65
15.18
15.6
15.03
13.72
12.06
10.51
9.47
9.14
9.43
10
10.34
10.03
8.88
6.98
4.68
2.37
0.33
-1.37
-2.91
-4.62
-6.77
-9.48
-12.57
-15.63
-18.05
-19.23
-18.73
-16.43
-12.61
-7.79
-2.7
2.04
6.03
9.09
11.25
12.66
13.39
13.47
12.91
11.79
10.42
9.19
8.56
8.79
9.81
11.17
12.21
12.34
11.32
9.33
6.89
4.55
2.67
1.27
0.02
-1.46
-3.45
-5.96
-8.74
-11.38
-13.44
-14.58
-14.58
-13.37
-10.93
-7.4
-3.08
1.59
6.11
10.04
13.13
15.4
17.06
18.34
19.39
20.17
20.55
20.46
19.94
19.2
18.47
17.93
17.62
17.4
17.07
16.45
15.46
14.1
12.52
10.88
9.36
7.94
6.52
4.88
2.77
0.08
-3.16
-6.74
-10.3
-13.44
-15.73
-16.78
-16.36
-14.49
-11.45
-7.72
-3.89
-0.36
2.66
5.22
7.38
9.14
10.31
10.61
9.91
8.32
6.25
4.27
2.83
2.13
2.07
2.31
2.54
2.59
2.49
2.35
2.19
1.88
1.25
0.08
-1.67
-3.88
-6.31
-8.69
-10.69
-11.96
-12.2
-11.14
-8.75
-5.23
-1.06
3.17
6.91
9.86
12.01
13.5
14.53
15.18
15.35
14.9
13.78
12.11
10.22
8.49
7.18
6.37
5.9
5.51
4.92
4.03
2.86
1.53
0.12
-1.36
-2.98
-4.9
-7.23
-9.97
-12.94
-15.74
-17.84
-18.78
-18.26
-16.2
-12.84
-8.61
-4.03
0.36
4.17
7.1
8.96
9.71
9.39
8.18
6.42
4.58
3.15
2.51
2.77
3.68
4.76
5.53
5.69
5.28
4.57
3.83
3.16
2.42
1.33
-0.34
-2.68
-5.55
-8.72
-11.87
-14.69
-16.8
-17.8
-17.39
-15.49
-12.31
-8.3
-4.01
0.16
3.99
7.36
10.18
12.21
13.17
12.87
11.42
9.25
7
5.28
4.4
4.35
4.8
5.36
5.67
5.62
5.19
4.5
3.68
2.77
1.8
0.61
-1.01
-3.27
-6.28
-9.94
-13.93
-17.77
-20.89
-22.82
-23.26
-22.13
-19.61
-16.04
-11.85
-7.51
-3.33
0.43
3.64
6.19
7.97
8.77
8.53
7.32
5.51
3.71
2.47
2.16
2.76
3.88
4.96
5.47
5.17
4.14
2.7
1.23
-0.04
-1.1
-2.14
-3.34
-4.78
-6.42
-8.13
-9.84
-11.56
-13.25
-14.76
-15.73
-15.69
-14.27
-11.39
-7.41
-2.96
1.24
4.72
7.29
9.02
10.07
10.52
10.36
9.62
8.4
6.97
5.66
4.78
4.48
4.7
5.2
5.63
5.69
5.18
4.18
2.91
1.73
0.91
0.5
0.29
-0.1
-1.07
-2.85
-5.37
-8.38
-11.47
-14.23
-16.3
-17.37
-17.21
-15.69
-12.85
-8.98
-4.53
-0.07
3.88
6.95
9.02
10.1
10.34
9.89
8.92
7.61
6.18
4.89
3.96
3.57
3.71
4.22
4.82
5.21
5.22
4.83
4.2
3.49
2.8
2.09
1.2
-0.07
-1.86
-4.23
-7.08
-10.2
-13.32
-16.03
-17.83
-18.23
-16.9
-13.8
-9.36
-4.3
0.56
4.62
7.64
9.74
11.14
12.02
12.38
12.18
11.43
10.26
8.98
7.83
6.96
6.34
5.89
5.53
5.23
4.94
4.58
3.98
3.01
1.6
-0.12
-1.98
-3.84
-5.71
-7.72
-10.02
-12.66
-15.46
-18.06
-19.95
-20.62
-19.77
-17.4
-13.91
-9.95
-6.2
-3.17
-0.98
0.54
1.73
2.82
3.84
4.59
4.82
4.43
3.56
2.6
1.93
1.82
2.28
3.06
3.82
4.26
4.24
3.8
3.03
2.06
0.89
-0.57
-2.43
-4.74
-7.48
-10.46
-13.38
-15.79
-17.19
-17.17
-15.58
-12.65
-8.89
-5.01
-1.59
1.05
2.92
4.27
5.32
6.16
6.7
6.8
6.4
5.63
4.78
4.15
3.89
3.94
4.06
4.04
3.76
3.38
3.15
3.27
3.73
4.27
4.46
3.92
2.33
-0.28
-3.7
-7.46
-10.94
-13.5
-14.52
-13.72
-11.16
-7.35
-3.08
0.86
3.93
6.05
7.46
8.55
9.57
10.58
11.37
11.75
11.67
11.25
10.79
10.5
10.36
10.2
9.76
8.96
7.9
6.89
6.19
5.87
5.7
5.32
4.39
2.78
0.59
-1.94
-4.56
-7.04
-9.13
-10.51
-10.79
-9.68
-7.12
-3.38
0.97
5.23
8.82
11.47
13.14
13.98
14.18
13.84
13.03
11.73
10.06
8.18
6.38
4.93
4.05
3.78
3.96
4.3
4.52
4.42
3.99
3.33
2.53
1.6
0.38
-1.32
-3.67
-6.57
-9.65
-12.31
-13.88
-13.91
-12.27
-9.28
-5.57
-1.8
1.5
4.08
5.89
7.04
7.6
7.58
6.94
5.66
3.84
1.7
-0.45
-2.34
-3.81
-4.83
-5.43
-5.7
-5.74
-5.64
-5.51
-5.49
-5.73
-6.4
-7.67
-9.61
-12.13
-14.96
-17.58
-19.37
-19.79
-18.54
-15.68
-11.68
-7.16
-2.75
1.12
4.24
6.54
8
8.63
8.51
7.78
6.67
5.44
4.34
3.54
3.12
3.05
3.24
3.45
3.48
3.15
2.37
1.22
-0.16
-1.65
-3.2
-4.85
-6.53
-8.09
-9.17
-9.41
-8.57
-6.68
-4.02
-1.02
1.96
4.68
7.05
9
10.43
11.19
11.19
10.47
9.28
7.92
6.69
5.71
4.93
4.3
3.78
3.42
3.32
3.49
3.86
4.16
4.09
3.37
1.84
-0.48
-3.36
-6.38
-8.95
-10.54
-10.74
-9.4
-6.67
-2.96
1.24
5.43
9.23
12.36
14.6
15.84
16.05
15.32
13.88
12.07
10.24
8.64
7.36
6.37
5.58
4.91
4.33
3.81
3.27
2.54
1.46
-0.13
-2.29
-5.01
-8.17
-11.56
-14.83
-17.46
-18.97
-18.92
-17.25
-14.23
-10.43
-6.48
-2.81
0.38
3.12
5.42
7.23
8.36
8.62
8.04
6.82
5.37
4.06
3.12
2.5
1.95
1.18
0
-1.53
-3.15
-4.47
-5.24
-5.4
-5.23
-5.14
-5.62
-7.02
-9.45
-12.72
-16.39
-19.79
-22.2
-23.03
-21.95
-19.03
-14.71
-9.63
-4.43
0.41
4.66
8.27
11.27
13.65
15.26
15.93
15.57
14.3
12.49
10.66
9.37
8.91
9.23
9.86
10.21
9.78
8.42
6.41
4.22
2.36
1
0.01
-0.95
-2.24
-3.99
-6.15
-8.58
-11.14
-13.75
-16.28
-18.48
-19.86
-19.89
-18.21
-14.85
-10.27
-5.27
-0.62
3.18
6.06
8.28
10.21
12.04
13.66
14.82
15.22
14.83
13.92
12.9
12.19
12
12.25
12.66
12.95
12.9
12.5
11.83
11
10.04
8.87
7.38
5.54
3.44
1.24
-0.87
-2.81
-4.64
-6.52
-8.63
-11.02
-13.54
-15.8
-17.32
-17.62
-16.42
-13.74
-9.87
-5.33
-0.71
3.5
7
9.71
11.68
13.07
13.99
14.51
14.66
14.47
13.96
13.19
12.25
11.22
10.23
9.41
8.84
8.58
8.66
8.97
9.32
9.43
8.97
7.74
5.77
3.32
0.82
-1.35
-3.04
-4.33
-5.51
-6.83
-8.44
-10.31
-12.28
-14.13
-15.55
-16.2
-15.71
-13.84
-10.69
-6.67
-2.45
1.35
4.34
6.51
8.1
9.34
10.29
10.8
10.7
10.02
9.06
8.27
8.03
8.39
9.04
9.52
9.48
8.92
8.09
7.36
6.91
6.6
6.13
5.17
3.69
1.84
-0.09
-1.93
-3.7
-5.47
-7.33
-9.24
-11.08
-12.77
-14.29
-15.67
-16.84
-17.58
-17.63
-16.82
-15.16
-12.88
-10.28
-7.62
-5.03
-2.6
-0.4
1.38
2.49
2.83
2.42
1.52
0.49
-0.35
-0.84
-0.97
-0.89
-0.78
-0.78
-0.89
-1.09
-1.31
-1.52
-1.81
-2.26
-2.94
-3.78
-4.63
-5.3
-5.68
-5.87
-6.18
-6.97
-8.5
-10.7
-13.24
-15.57
-17.11
-17.41
-16.3
-13.92
-10.67
-7.06
-3.55
-0.48
1.99
3.82
5.06
5.82
6.31
6.67
7.07
7.53
7.92
8.04
7.77
7.14
6.38
5.82
5.61
5.64
5.55
4.97
3.71
1.93
0.02
-1.62
-2.78
-3.55
-4.18
-4.97
-6.09
-7.58
-9.35
-11.31
-13.33
-15.22
-16.63
-17.11
-16.23
-13.87
-10.26
-6.06
-2.04
1.2
3.44
4.84
5.74
6.38
6.76
6.74
6.19
5.18
4.04
3.26
3.18
3.88
5.16
6.57
7.61
7.94
7.51
6.53
5.37
4.37
3.72
3.37
3.06
2.48
1.37
-0.32
-2.46
-4.79
-7.05
-8.99
-10.42
-11.15
-10.99
-9.84
-7.78
-5.09
-2.19
0.5
2.68
4.3
5.46
6.35
7.06
7.5
7.48
6.92
5.87
4.61
3.53
2.91
2.84
3.2
3.69
4.03
4.07
3.86
3.5
3.12
2.7
2.13
1.27
-0
-1.7
-3.8
-6.25
-8.94
-11.74
-14.32
-16.3
-17.21
-16.76
-14.92
-12
-8.54
-5.18
-2.41
-0.46
0.76
1.52
2.08
2.58
2.95
3
2.59
1.75
0.73
-0.16
-0.66
-0.66
-0.27
0.28
0.69
0.79
0.5
-0.09
-0.86
-1.75
-2.74
-3.92
-5.39
-7.19
-9.26
-11.45
-13.52
-15.27
-16.46
-16.91
-16.51
-15.21
-13.09
-10.39
-7.43
-4.51
-1.83
0.52
2.5
4.07
5.09
5.45
5.13
4.27
3.18
2.16
1.47
1.17
1.13
1.13
0.93
0.45
-0.26
-1.07
-1.8
-2.36
-2.74
-3.07
-3.55
-4.42
-5.8
-7.69
-9.92
-12.17
-14.03
-15.15
-15.28
-14.37
-12.5
-9.85
-6.67
-3.27
0.05
2.97
5.23
6.65
7.19
6.95
6.1
4.88
3.5
2.14
0.93
-0.06
-0.79
-1.22
-1.39
-1.34
-1.16
-1
-1.05
-1.46
-2.34
-3.66
-5.33
-7.23
-9.27
-11.27
-13.01
-14.16
-14.33
-13.26
-10.93
-7.69
-4.06
-0.57
2.45
4.91
6.93
8.58
9.85
10.63
10.83
10.51
9.84
9.08
8.33
7.6
6.79
5.84
4.82
3.93
3.38
3.27
3.49
3.79
3.82
3.33
2.15
0.29
-2.07
-4.55
-6.6
-7.63
-7.17
-5.04
-1.44
3.05
7.73
11.95
15.36
17.84
19.53
20.56
21.01
20.87
20.11
18.76
16.87
14.52
11.82
8.89
5.9
3.08
0.61
-1.39
-2.94
-4.15
-5.15
-6.05
-6.94
-7.96
-9.34
-11.24
-13.65
-16.22
-18.27
-19.02
-17.96
-15.05
-10.81
-6.03
-1.49
2.35
5.39
7.72
9.48
10.68
11.22
11.06
10.27
9.07
7.79
6.67
5.83
5.29
4.93
4.66
4.4
4.09
3.64
2.92
1.79
0.08
-2.35
-5.47
-9.06
-12.68
-15.71
-17.52
-17.66
-16.04
-12.91
-8.8
-4.31
-0.01
3.71
6.61
8.58
9.68
9.98
9.63
8.84
7.78
6.66
5.72
5.12
4.93
5.02
5.11
4.87
4.05
2.66
0.92
-0.78
-2.11
-2.98
-3.6
-4.38
-5.76
-7.95
-10.75
-13.56
-15.57
-16.03
-14.67
-11.65
-7.61
-3.27
0.79
4.33
7.39
10
12.17
13.75
14.61
14.76
14.34
13.63
12.86
12.18
11.62
11.14
10.61
9.94
9.04
7.88
6.57
5.22
3.94
2.71
1.39
-0.27
-2.44
-5.22
-8.55
-12.24
-15.97
-19.28
-21.61
-22.36
-21.18
-18.1
-13.62
-8.56
-3.78
0.19
3.23
5.58
7.56
9.35
10.9
12.09
12.77
12.94
12.71
12.25
11.72
11.24
10.89
10.67
10.54
10.41
10.13
9.53
8.48
7
5.22
3.36
1.58
-0.13
-1.99
-4.35
-7.49
-11.46
-15.97
-20.48
-24.39
-27.13
-28.34
-27.84
-25.69
-22.1
-17.54
-12.59
-7.87
-3.87
-0.79
1.41
2.98
4.13
4.94
5.34
5.17
4.41
3.19
1.86
0.78
0.25
0.37
1.02
1.99
3.03
3.98
4.68
5.06
5.04
4.63
4
3.34
2.83
2.5
2.21
1.7
0.75
-0.79
-2.88
-5.37
-8.06
-10.6
-12.53
-13.27
-12.33
-9.57
-5.32
-0.41
4.22
7.83
10.22
11.73
12.92
14.31
16.02
17.78
19.09
19.58
19.13
17.98
16.55
15.25
14.3
13.72
13.4
13.19
12.97
12.63
12.03
11.03
9.52
7.5
5.13
2.68
0.45
-1.39
-2.88
-4.23
-5.76
-7.75
-10.29
-13.22
-16.15
-18.47
-19.57
-19.07
-16.89
-13.38
-9.16
-4.88
-1.04
2.18
4.81
6.98
8.69
9.87
10.35
10.1
9.28
8.22
7.34
6.94
7.08
7.59
8.16
8.46
8.26
7.47
6.11
4.37
2.5
0.74
-0.77
-1.99
-3.05
-4.13
-5.43
-7.02
-8.93
-11.12
-13.55
-16.17
-18.79
-21.05
-22.39
-22.26
-20.33
-16.75
-12.15
-7.44
-3.46
-0.6
1.25
2.6
3.92
5.42
6.87
7.84
7.99
7.32
6.18
5.15
4.67
4.86
5.5
6.19
6.56
6.49
6.03
5.41
4.76
4.17
3.61
2.99
2.27
1.44
0.5
-0.59
-1.93
-3.64
-5.86
-8.52
-11.44
-14.21
-16.37
-17.47
-17.25
-15.68
-13.05
-9.77
-6.32
-3.11
-0.29
2.13
4.21
5.93
7.14
7.61
7.18
5.91
4.17
2.5
1.42
1.22
1.76
2.63
3.28
3.3
2.6
1.41
0.06
-1.15
-2.18
-3.14
-4.22
-5.5
-6.91
-8.25
-9.39
-10.33
-11.26
-12.43
-14
-15.9
-17.77
-19.05
-19.14
-17.66
-14.55
-10.2
-5.3
-0.63
3.18
5.89
7.57
8.53
9.03
9.23
9.18
8.88
8.44
8.02
7.82
7.88
8.08
8.19
7.99
7.39
6.57
5.8
5.34
5.27
5.37
5.29
4.65
3.24
1.16
-1.32
-3.88
-6.33
-8.58
-10.59
-12.19
-13.07
-12.83
-11.19
-8.28
-4.52
-0.58
2.95
5.76
7.87
9.45
10.63
11.34
11.39
10.66
9.31
7.79
6.61
6.16
6.43
7.05
7.56
7.6
7.15
6.45
5.82
5.43
5.17
4.8
4
2.61
0.55
-2.11
-5.26
-8.63
-11.73
-13.92
-14.52
-13.15
-9.93
-5.53
-0.81
3.47
6.98
9.86
12.33
14.54
16.27
17.16
16.91
15.63
13.79
12.02
10.82
10.33
10.36
10.5
10.42
9.92
9.02
7.89
6.66
5.41
4.12
2.69
1.01
-0.94
-3.11
-5.39
-7.67
-9.9
-11.98
-13.74
-14.84
-14.92
-13.69
-11.16
-7.74
-4
-0.51
2.43
4.81
6.84
8.69
10.38
11.72
12.39
12.23
11.26
9.77
8.22
6.99
6.28
5.99
5.82
5.4
4.52
3.19
1.66
0.26
-0.77
-1.45
-1.98
-2.73
-4.03
-6.01
-8.57
-11.41
-14.12
-16.31
-17.67
-17.96
-17.05
-14.89
-11.65
-7.71
-3.61
0.07
2.92
4.87
6.15
7.06
7.85
8.48
8.72
8.36
7.31
5.8
4.18
2.84
2.03
1.75
1.79
1.82
1.5
0.62
-0.83
-2.72
-4.84
-7
-9.12
-11.17
-13.12
-14.89
-16.4
-17.64
-18.81
-20.21
-21.98
-23.96
-25.62
-26.22
-25.15
-22.25
-17.84
-12.61
-7.32
-2.56
1.3
4.19
6.14
7.3
7.81
7.89
7.71
7.43
7.23
7.22
7.53
8.14
8.94
9.65
9.94
9.65
8.78
7.61
6.41
5.44
4.66
3.89
2.95
1.79
0.51
-0.75
-2
-3.43
-5.33
-7.81
-10.57
-12.89
-13.91
-12.94
-9.87
-5.14
0.29
5.46
9.57
12.27
13.63
13.97
13.73
13.28
12.83
12.38
11.79
10.91
9.72
8.4
7.26
6.56
6.38
6.57
6.86
7
6.92
6.71
6.49
6.26
5.87
5.09
3.8
2.04
0.06
-1.89
-3.69
-5.4
-7.34
-9.67
-12.34
-14.87
-16.52
-16.54
-14.57
-10.82
-6.03
-1.19
2.87
5.72
7.45
8.43
9.02
9.32
9.09
8.1
6.21
3.72
1.16
-0.86
-2.01
-2.34
-2.22
-2.15
-2.42
-2.99
-3.63
-4.07
-4.29
-4.49
-5.1
-6.46
-8.69
-11.66
-15
-18.29
-21.09
-23.08
-23.93
-23.39
-21.33
-17.84
-13.29
-8.3
-3.51
0.58
3.76
6.13
7.85
9.1
9.89
10.19
10
9.46
8.82
8.32
8.07
7.98
7.86
7.51
6.89
6.12
5.39
4.82
4.38
3.9
3.1
1.81
-0.09
-2.62
-5.69
-9.17
-12.77
-16.05
-18.4
-19.25
-18.21
-15.34
-11.13
-6.35
-1.81
1.92
4.6
6.26
7.11
7.35
7.12
6.51
5.63
4.62
3.66
2.92
2.43
2.14
1.92
1.69
1.43
1.2
1.06
1.06
1.1
1.08
0.85
0.25
-0.87
-2.62
-5.04
-7.95
-10.93
-13.33
-14.5
-14.05
-12.01
-8.84
-5.22
-1.79
1.15
3.57
5.64
7.43
8.85
9.61
9.48
8.42
6.71
4.85
3.37
2.57
2.43
2.66
2.91
2.93
2.71
2.43
2.31
2.43
2.64
2.68
2.21
0.96
-1.17
-4.13
-7.71
-11.62
-15.41
-18.53
-20.42
-20.68
-19.17
-16.15
-12.15
-7.88
-3.91
-0.56
2.11
4.24
5.93
7.19
7.92
8.03
7.51
6.52
5.34
4.26
3.48
3.03
2.78
2.51
2.04
1.31
0.42
-0.45
-1.17
-1.69
-2.19
-2.89
-4.01
-5.61
-7.56
-9.68
-11.82
-13.92
-15.98
-17.87
-19.29
-19.73
-18.7
-15.97
-11.8
-6.81
-1.83
2.43
5.59
7.68
9.01
9.86
10.44
10.71
10.6
10.1
9.38
8.71
8.4
8.55
9
9.43
9.49
9
8.03
6.85
5.78
4.97
4.33
3.63
2.61
1.14
-0.85
-3.31
-6.17
-9.31
-12.41
-15
-16.44
-16.23
-14.2
-10.64
-6.21
-1.68
2.34
5.55
7.87
9.4
10.15
10.04
9.02
7.16
4.74
2.27
0.26
-1
-1.51
-1.57
-1.63
-2
-2.71
-3.52
-4.07
-4.17
-3.89
-3.55
-3.54
-4.11
-5.28
-6.91
-8.77
-10.66
-12.45
-13.94
-14.83
-14.77
-13.42
-10.68
-6.76
-2.14
2.53
6.75
10.24
12.96
15.01
16.49
17.38
17.57
16.98
15.7
14.02
12.37
11.11
10.4
10.15
10.07
9.84
9.25
8.22
6.83
5.22
3.51
1.79
0
-2.03
-4.56
-7.81
-11.81
-16.32
-20.8
-24.6
-27.02
-27.63
-26.32
-23.35
-19.31
-14.92
-10.78
-7.27
-4.44
-2.1
-0.07
1.75
3.21
4.03
3.95
2.93
1.21
-0.72
-2.31
-3.24
-3.44
-3.15
-2.76
-2.69
-3.17
-4.19
-5.57
-7.03
-8.35
-9.42
-10.34
-11.38
-12.81
-14.91
-17.78
-21.33
-25.22
-28.95
-31.87
-33.26
-32.52
-29.24
-23.38
-15.35
-5.93
3.89
13.24
21.48
28.38
33.9
38.12
40.99
42.41
42.28
40.71
38.06
34.98
32.13
29.96
28.57
27.66
26.76
25.5
23.74
21.59
19.32
17.19
15.29
13.56
11.88
10.14
8.28
6.27
4.03
1.44
-1.55
-4.78
-7.83
-10.02
-10.7
-9.42
-6.22
-1.58
3.75
8.94
13.4
16.81
19.08
20.33
20.7
20.42
19.71
18.85
18.03
17.31
16.69
16.15
15.76
15.63
15.85
16.34
16.76
16.64
15.61
13.55
10.69
7.5
4.43
1.75
-0.54
-2.63
-4.76
-7.12
-9.79
-12.72
-15.76
-18.61
-20.85
-21.98
-21.54
-19.34
-15.55
-10.73
-5.72
-1.32
2
4.13
5.24
5.66
5.61
5.15
4.23
2.84
1.13
-0.59
-1.99
-2.82
-3.04
-2.86
-2.59
-2.59
-3.06
-4.03
-5.34
-6.74
-8.02
-9.07
-9.97
-10.87
-11.95
-13.31
-14.94
-16.77
-18.67
-20.42
-21.74
-22.28
-21.69
-19.75
-16.46
-12.12
-7.21
-2.29
2.21
6.05
9.19
11.65
13.39
14.33
14.33
13.45
11.93
10.18
8.67
7.68
7.26
7.24
7.43
7.64
7.82
7.91
7.76
7.21
6.07
4.35
2.25
0.07
-1.95
-3.83
-5.72
-7.83
-10.14
-12.34
-13.88
-14.23
-13.07
-10.49
-6.89
-2.85
1.09
4.56
7.33
9.3
10.4
10.55
9.79
8.3
6.51
4.91
3.95
3.78
4.2
4.79
5.09
4.85
4.11
3.08
2
0.95
-0.18
-1.5
-3.12
-4.97
-6.93
-8.9
-10.82
-12.54
-13.86
-14.35
-13.6
-11.37
-7.74
-3.21
1.59
6.02
9.64
12.31
14.04
14.9
14.97
14.35
13.2
11.81
10.47
9.42
8.74
8.36
8.09
7.75
7.19
6.39
5.38
4.18
2.85
1.4
-0.16
-1.84
-3.74
-5.93
-8.49
-11.33
-14.09
-16.15
-16.81
-15.59
-12.46
-7.9
-2.72
2.27
6.57
10.03
12.77
14.87
16.21
16.5
15.52
13.33
10.48
7.74
5.79
4.9
4.85
5.06
4.94
4.18
2.82
1.17
-0.43
-1.81
-3
-4.23
-5.73
-7.66
-10.04
-12.73
-15.45
-17.84
-19.48
-19.96
-19.08
-16.85
-13.56
-9.66
-5.66
-1.95
1.24
3.78
5.63
6.72
6.93
6.28
4.96
3.36
1.99
1.27
1.34
2.03
2.89
3.47
3.46
2.87
1.94
1.02
0.35
-0.08
-0.57
-1.58
-3.51
-6.51
-10.36
-14.51
-18.28
-21.02
-22.28
-21.86
-19.8
-16.33
-11.88
-7.02
-2.31
1.82
5.16
7.71
9.62
10.97
11.8
12.1
11.9
11.39
10.85
10.54
10.55
10.85
11.19
11.37
11.27
10.87
10.28
9.56
8.81
7.99
7
5.64
3.71
1.08
-2.18
-5.75
-9.12
-11.74
-13.11
-12.97
-11.3
-8.35
-4.58
-0.54
3.3
6.56
9.15
11.07
12.42
13.25
13.54
13.23
12.37
11.19
10.01
9.15
8.73
8.66
8.61
8.27
7.49
6.32
5.03
3.84
2.84
1.94
0.87
-0.59
-2.57
-5.03
-7.87
-10.96
-14.1
-16.97
-19.12
-20
-19.14
-16.43
-12.15
-6.95
-1.69
2.93
6.47
8.9
10.4
11.32
11.92
12.35
12.65
12.83
12.91
12.92
12.9
12.79
12.48
11.85
10.8
9.43
7.92
6.53
5.46
4.66
3.91
2.86
1.25
-1.01
-3.72
-6.59
-9.29
-11.53
-13.1
-13.81
-13.49
-11.97
-9.28
-5.61
-1.43
2.7
6.28
8.97
10.74
11.73
12.16
12.16
11.81
11.07
9.94
8.48
6.88
5.39
4.21
3.38
2.82
2.32
1.71
0.91
0.03
-0.82
-1.58
-2.39
-3.54
-5.33
-7.99
-11.43
-15.24
-18.79
-21.36
-22.38
-21.64
-19.31
-15.87
-11.93
-8.11
-4.83
-2.24
-0.31
1.17
2.36
3.34
4.06
4.46
4.49
4.23
3.85
3.53
3.47
3.68
4.06
4.39
4.45
4.08
3.3
2.28
1.27
0.47
-0.08
-0.58
-1.35
-2.73
-4.83
-7.51
-10.39
-13.07
-15.26
-16.86
-17.76
-17.74
-16.5
-13.75
-9.54
-4.37
0.89
5.39
8.63
10.61
11.72
12.43
12.97
13.29
13.15
12.42
11.25
10.04
9.25
9.12
9.61
10.37
10.96
11.05
10.54
9.5
8.14
6.68
5.21
3.8
2.45
1.07
-0.39
-2.02
-3.88
-5.94
-8.04
-9.98
-11.65
-13.06
-14.38
-15.75
-17.13
-18.14
-18.23
-16.86
-13.84
-9.51
-4.53
0.29
4.37
7.42
9.5
10.78
11.52
11.91
12.12
12.25
12.34
12.39
12.35
12.21
12.07
12.11
12.5
13.24
14.12
14.71
14.58
13.5
11.55
9.1
6.57
4.3
2.38
0.76
-0.72
-2.18
-3.66
-5.2
-6.87
-8.83
-11.13
-13.72
-16.18
-17.92
-18.24
-16.76
-13.55
-9.21
-4.61
-0.58
2.49
4.64
6.19
7.48
8.66
9.61
10.16
10.16
9.69
8.96
8.17
7.48
6.87
6.24
5.53
4.71
3.79
2.89
2.08
1.45
0.98
0.54
-0.05
-0.99
-2.38
-4.18
-6.16
-8.12
-9.91
-11.52
-13.12
-14.82
-16.57
-18.09
-18.89
-18.5
-16.68
-13.56
-9.61
-5.52
-1.86
1.04
3.2
4.85
6.24
7.49
8.53
9.19
9.33
8.96
8.27
7.52
6.9
6.56
6.5
6.67
6.96
7.22
7.24
6.79
5.7
3.96
1.73
-0.63
-2.73
-4.33
-5.42
-6.18
-6.92
-7.93
-9.4
-11.38
-13.79
-16.35
-18.56
-19.77
-19.42
-17.22
-13.36
-8.51
-3.56
0.67
3.77
5.73
6.87
7.55
7.98
8.25
8.43
8.6
8.92
9.44
10.03
10.39
10.2
9.3
7.84
6.2
4.75
3.66
2.74
1.62
-0.03
-2.31
-4.98
-7.62
-9.84
-11.49
-12.64
-13.52
-14.32
-15.12
-15.93
-16.76
-17.67
-18.72
-19.76
-20.4
-20.1
-18.38
-15.12
-10.65
-5.65
-0.84
3.27
6.52
9.07
11.13
12.85
14.24
15.2
15.68
15.7
15.38
14.88
14.38
14.06
13.97
14.07
14.22
14.21
13.88
13.18
12.17
10.91
9.42
7.63
5.51
3.12
0.64
-1.7
-3.78
-5.61
-7.43
-9.43
-11.69
-14.1
-16.32
-17.97
-18.68
-18.25
-16.65
-14.07
-10.82
-7.3
-3.91
-0.96
1.34
2.88
3.66
3.72
3.19
2.29
