12.67
13.46
13.68
13.21
12.08
10.48
8.81
7.5
6.88
7.05
7.8
8.71
9.33
9.32
8.63
7.47
6.23
5.23
4.59
4.19
3.7
2.77
1.25
-0.76
-2.93
-4.84
-6.23
-7.14
-7.89
-8.93
-10.54
-12.7
-15.03
-17.09
-18.46
-18.95
-18.48
-16.98
-14.31
-10.38
-5.32
0.38
5.91
10.47
13.5
15
15.38
15.21
14.84
14.26
13.26
11.73
9.77
7.83
6.4
5.77
5.94
6.61
7.39
8.04
8.5
8.8
8.96
8.91
8.53
7.72
6.44
4.71
2.59
0.21
-2.21
-4.39
-6.08
-7.15
-7.7
-7.99
-8.34
-9.05
-10.21
-11.76
-13.46
-14.94
-15.79
-15.6
-14.11
-11.29
-7.45
-3.14
0.94
4.24
6.52
7.84
8.47
8.64
8.5
8
7.12
5.98
4.87
4.12
3.86
4.04
4.36
4.54
4.48
4.36
4.51
5.16
6.29
7.56
8.56
8.96
8.64
7.69
6.28
4.6
2.76
0.88
-0.97
-2.71
-4.33
-5.93
-7.62
-9.55
-11.74
-14.15
-16.52
-18.53
-19.75
-19.81
-18.51
-15.83
-12.12
-7.92
-3.81
-0.27
2.51
4.55
6.05
7.17
7.93
8.22
7.93
7.02
5.68
4.18
2.91
2.15
2
2.42
3.26
4.32
5.46
6.59
7.6
8.33
8.57
8.13
6.96
5.16
3.03
0.9
-0.96
-2.43
-3.57
-4.54
-5.6
-7.02
-9.01
-11.68
-14.96
-18.48
-21.61
-23.57
-23.68
-21.63
-17.59
-12.23
-6.46
-1.12
3.16
6.16
7.97
8.84
9.12
9.06
8.78
8.27
7.5
6.54
5.6
4.94
4.79
5.16
5.87
6.6
7.08
7.21
7.06
6.81
6.58
6.33
5.88
5.02
3.68
1.92
-0.03
-1.92
-3.59
-5.08
-6.62
-8.56
-11.11
-14.18
-17.3
-19.71
-20.74
-20.02
-17.61
-13.97
-9.72
-5.39
-1.31
2.34
5.43
7.75
9.12
9.49
9.03
8.11
7.11
6.3
5.74
5.32
4.92
4.49
4.1
3.87
3.9
4.23
4.81
5.53
6.28
6.89
7.16
6.97
6.21
4.87
3.03
0.77
-1.76
-4.38
-6.8
-8.83
-10.43
-11.74
-13.14
-14.89
-16.92
-18.75
-19.58
-18.7
-15.83
-11.3
-5.93
-0.73
3.52
6.42
8.07
8.79
8.98
8.9
8.63
8.08
7.12
5.79
4.27
2.97
2.34
2.64
3.77
5.21
6.28
6.48
5.74
4.5
3.43
3.02
3.32
3.85
3.95
3.17
1.48
-0.67
-2.69
-4.19
-5.17
-6.01
-7.23
-9.26
-12.2
-15.77
-19.37
-22.2
-23.49
-22.75
-19.93
-15.39
-9.86
-4.13
1.14
5.51
8.77
10.84
11.76
11.72
11
9.99
8.99
8.15
7.45
6.76
6
5.24
4.57
4.1
3.8
3.55
3.24
2.88
2.61
2.54
2.67
2.78
2.56
1.71
0.23
-1.63
-3.47
-4.98
-6.15
-7.22
-8.63
-10.64
-13.24
-16.03
-18.38
-19.71
-19.61
-17.98
-14.97
-10.92
-6.25
-1.42
3.05
6.74
9.31
10.72
11.18
11
10.44
9.63
8.5
6.98
5.12
3.13
1.42
0.33
0.03
0.39
1.04
1.58
1.77
1.59
1.21
0.88
0.66
0.48
0.15
-0.57
-1.78
-3.45
-5.42
-7.54
-9.78
-12.21
-14.93
-17.94
-21
-23.61
-25.09
-24.86
-22.66
-18.63
-13.41
-7.8
-2.6
1.67
4.88
7.13
8.65
9.61
10.05
9.87
9
7.49
5.54
3.48
1.64
0.23
-0.68
-1.18
-1.44
-1.55
-1.58
-1.47
-1.21
-0.82
-0.37
0.01
0.14
-0.12
-0.9
-2.31
-4.41
-7.23
-10.77
-14.89
-19.24
-23.22
-26.05
-26.95
-25.41
-21.44
-15.62
-8.97
-2.55
2.83
6.84
9.65
11.58
12.92
13.7
13.81
13.13
11.7
9.82
7.92
6.42
5.53
5.18
5.1
4.97
4.62
4.06
3.51
3.18
3.16
3.26
3.1
2.33
0.77
-1.48
-4.12
-6.83
-9.45
-12.06
-14.8
-17.64
-20.22
-21.86
-21.82
-19.62
-15.28
-9.39
-2.9
3.19
8.12
11.58
13.63
14.6
14.86
14.66
14.09
13.1
11.7
9.98
8.17
6.58
5.52
5.16
5.45
6.2
7.07
7.73
7.99
7.81
7.24
6.36
5.23
3.83
2.16
0.18
-2.12
-4.76
-7.78
-11.22
-15.06
-19.14
-23.12
-26.32
-27.97
-27.34
-24.13
-18.62
-11.69
-4.52
1.84
6.76
10.18
12.41
13.86
14.77
15.08
14.67
13.51
11.8
9.98
8.48
7.59
7.34
7.6
8.09
8.58
8.87
8.84
8.43
7.66
6.59
5.24
3.62
1.7
-0.56
-3.13
-5.91
-8.77
-11.63
-14.59
-17.79
-21.26
-24.73
-27.48
-28.59
-27.26
-23.17
-16.73
-8.96
-1.09
5.79
11.02
14.48
16.43
17.3
17.42
16.97
15.97
14.39
12.32
10
7.79
6.11
5.22
5.19
5.9
7.12
8.56
9.94
10.98
11.41
11.02
9.76
7.84
5.57
3.33
1.33
-0.47
-2.34
-4.61
-7.59
-11.42
-16
-20.92
-25.47
-28.7
-29.67
-27.68
-22.71
-15.42
-7.09
0.89
7.46
12.22
15.36
17.37
18.62
19.17
18.8
17.29
14.66
11.34
8.05
5.47
4.04
3.81
4.44
5.51
6.62
7.52
8.13
8.35
8.1
7.3
5.9
4
1.84
-0.36
-2.47
-4.6
-7.06
-10.14
-13.97
-18.28
-22.38
-25.32
-26.15
-24.24
-19.5
-12.55
-4.52
3.35
10.01
14.92
18.09
19.89
20.73
20.86
20.26
18.83
16.56
13.7
10.74
8.15
6.31
5.37
5.21
5.59
6.26
6.99
7.58
7.84
7.62
6.79
5.34
3.31
0.78
-2.12
-5.29
-8.65
-12.16
-15.8
-19.54
-23.22
-26.48
-28.73
-29.3
-27.65
-23.55
-17.38
-9.96
-2.33
4.51
9.94
13.8
16.31
17.78
18.46
18.48
17.81
16.5
14.78
13.12
12.13
12.29
13.73
16.07
18.56
20.34
20.78
19.74
17.51
14.65
11.69
8.86
6.15
3.38
0.41
-2.76
-6.08
-9.47
-13
-16.79
-20.8
-24.66
-27.6
-28.61
-26.86
-22.04
-14.67
-5.92
2.74
10.08
15.46
18.88
20.79
21.72
22
21.72
20.85
19.41
17.61
15.79
14.29
13.37
13.07
13.29
13.82
14.42
14.86
14.94
14.48
13.42
11.75
9.61
7.21
4.72
2.26
-0.18
-2.75
-5.67
-9.14
-13.3
-18.15
-23.47
-28.69
-32.92
-35.03
-34.04
-29.41
-21.54
-11.62
-1.44
7.39
13.84
17.8
19.82
20.66
20.82
20.35
19.03
16.76
13.77
10.63
8
6.27
5.43
5.16
5.09
5.01
4.89
4.85
4.92
4.99
4.9
4.42
3.43
1.94
0
-2.29
-4.84
-7.62
-10.68
-14.11
-17.97
-22.09
-25.92
-28.55
-28.97
-26.5
-21.06
-13.36
-4.63
3.75
10.75
15.9
19.28
21.23
22.09
21.98
20.83
18.6
15.38
11.6
7.89
4.9
3.08
2.52
2.96
3.94
4.98
5.74
6.09
6.04
5.67
5.03
4.12
2.85
1.07
-1.39
-4.64
-8.67
-13.26
-18.01
-22.33
-25.52
-26.87
-25.83
-22.13
-16.01
-8.19
0.24
8.11
14.54
19.13
22
23.52
24.07
23.8
22.65
20.54
17.58
14.17
10.93
8.44
7.06
6.75
7.13
7.67
7.95
7.72
7.04
6.12
5.19
4.41
3.66
2.66
0.99
-1.72
-5.63
-10.53
-15.83
-20.67
-24.08
-25.26
-23.78
-19.76
-13.77
-6.69
0.53
7.19
12.84
17.3
20.53
22.47
23.04
22.19
20.07
17.06
13.77
10.86
8.82
7.82
7.65
7.91
8.2
8.29
8.17
7.98
7.81
7.63
7.21
6.25
4.45
1.57
-2.46
-7.5
-13.1
-18.53
-22.82
-25
-24.45
-21.11
-15.5
-8.57
-1.28
5.55
11.45
16.2
19.65
21.71
22.29
21.38
19.15
16.04
12.61
9.45
6.98
5.39
4.58
4.28
4.21
4.14
3.97
3.72
3.39
2.93
2.19
0.97
-0.91
-3.58
-7.06
-11.25
-15.81
-20.16
-23.51
-25.01
-24.01
-20.38
-14.54
-7.43
-0.17
6.26
11.33
14.89
17.11
18.13
17.94
16.49
13.83
10.27
6.42
3.02
0.7
-0.27
-0.06
0.85
1.85
2.48
2.56
2.26
1.88
1.66
1.6
1.45
0.72
-1.05
-4.15
-8.52
-13.75
-19.07
-23.51
-26.1
-26.08
-23.16
-17.67
-10.48
-2.8
4.26
9.98
14.13
16.83
18.3
18.64
17.77
15.63
12.37
8.42
4.47
1.26
-0.74
-1.45
-1.2
-0.6
-0.2
-0.32
-0.89
-1.59
-2.05
-2.08
-1.84
-1.73
-2.3
-3.91
-6.68
-10.42
-14.69
-18.89
-22.4
-24.54
-24.73
-22.58
-18.03
-11.51
-3.82
4.07
11.23
16.95
20.82
22.66
22.46
20.36
16.71
12.08
7.23
2.99
0.07
-1.25
-1.14
-0.22
0.78
1.21
0.89
0.01
-0.92
-1.46
-1.47
-1.22
-1.28
-2.25
-4.58
-8.33
-13.2
-18.53
-23.42
-26.87
-28.01
-26.31
-21.74
-14.85
-6.61
1.89
9.71
16.24
21.24
24.67
26.52
26.73
25.24
22.17
17.98
13.45
9.51
6.9
5.92
6.23
7.11
7.78
7.72
6.93
5.8
4.76
4.01
3.3
2.05
-0.39
-4.37
-9.77
-15.95
-21.97
-26.82
-29.6
-29.69
-26.8
-21.03
-12.86
-3.3
6.36
14.75
20.88
24.32
25.3
24.48
22.51
19.87
16.8
13.46
10.13
7.24
5.3
4.55
4.91
5.91
7.03
7.82
8.08
7.8
7.07
5.95
4.5
2.74
0.7
-1.58
-4.1
-6.93
-10.13
-13.73
-17.56
-21.18
-23.89
-24.86
-23.42
-19.35
-13.1
-5.58
2
8.65
13.76
17.24
19.29
20.16
20
18.84
16.76
13.98
10.94
8.11
5.96
4.76
4.59
5.37
6.85
8.71
10.53
11.91
12.54
12.27
11.11
9.21
6.79
4.04
1.12
-1.89
-4.92
-7.95
-11
-14.14
-17.41
-20.62
-23.39
-25.05
-24.91
-22.45
-17.62
-10.96
-3.42
3.91
10.13
14.71
17.52
18.67
18.34
16.79
14.29
11.27
8.26
5.83
4.33
3.88
4.28
5.15
6.16
7.09
7.9
8.55
9.01
9.12
8.68
7.52
5.61
3.13
0.34
-2.45
-4.98
-7.18
-9.04
-10.75
-12.52
-14.63
-17.22
-20.21
-23.09
-24.99
-24.92
-22.16
-16.62
-9.01
-0.63
7.11
13.1
16.86
18.51
18.47
17.21
15.05
12.23
8.96
5.62
2.7
0.71
-0.01
0.57
2.2
4.35
6.42
7.92
8.56
8.35
7.48
6.29
5.03
3.86
2.76
1.6
0.24
-1.41
-3.36
-5.63
-8.21
-11.12
-14.26
-17.35
-19.83
-21
-20.28
-17.41
-12.68
-6.76
-0.57
5.13
9.88
13.53
16.06
17.43
17.55
16.42
14.28
11.66
9.25
7.6
6.87
6.83
7.04
7.15
7.07
6.95
6.9
6.83
6.39
5.26
3.33
0.87
-1.56
-3.49
-4.73
-5.52
-6.35
-7.72
-9.88
-12.77
-16.1
-19.45
-22.34
-24.24
-24.57
-22.82
-18.79
-12.74
-5.47
1.85
8.03
12.23
14.3
14.68
14.17
13.49
13.01
12.63
12.02
10.9
9.26
7.46
6
5.29
5.44
6.2
7.14
7.83
7.99
7.57
6.64
5.4
3.96
2.44
0.91
-0.64
-2.21
-3.81
-5.48
-7.23
-9.14
-11.28
-13.78
-16.65
-19.72
-22.47
-24.16
-24.04
-21.73
-17.38
-11.67
-5.55
0.15
4.88
8.5
11.08
12.72
13.47
13.26
12.08
10.1
7.74
5.52
3.88
3.03
2.92
3.29
3.9
4.62
5.44
6.34
7.15
7.54
7.17
5.82
3.65
1.05
-1.43
-3.49
-5.06
-6.39
-7.87
-9.81
-12.35
-15.44
-18.81
-22
-24.46
-25.63
-25.08
-22.61
-18.35
-12.79
-6.62
-0.61
4.57
8.45
10.91
12.04
12.12
11.46
10.29
8.7
6.72
4.44
2.09
0.04
-1.36
-1.9
-1.67
-0.95
-0.09
0.67
1.25
1.7
2.04
2.21
2.06
1.48
0.42
-1.01
-2.69
-4.41
-6.08
-7.68
-9.33
-11.2
-13.39
-15.92
-18.5
-20.59
-21.48
-20.53
-17.51
-12.67
-6.77
-0.82
4.27
7.96
10.18
11.18
11.28
10.68
9.43
7.48
4.84
1.74
-1.42
-4.11
-5.89
-6.56
-6.14
-4.94
-3.44
-2.13
-1.3
-1.02
-1.13
-1.47
-1.93
-2.61
-3.68
-5.26
-7.29
-9.46
-11.49
-13.28
-14.88
-16.43
-17.84
-18.72
-18.43
-16.44
-12.56
-7.18
-1.1
4.79
9.74
13.33
15.49
16.35
16.07
14.81
12.67
9.85
6.64
3.49
0.9
-0.68
-1.06
-0.39
0.9
2.2
3.01
3.11
2.57
1.66
0.67
-0.18
-0.88
-1.58
-2.5
-3.89
-5.92
-8.68
-12.1
-15.93
-19.66
-22.6
-23.95
-23.06
-19.7
-14.2
-7.44
-0.56
5.36
9.68
12.35
13.7
14.16
14.04
13.38
12.1
10.2
7.91
5.65
3.88
2.94
2.89
3.52
4.44
5.29
5.76
5.77
5.31
4.52
3.44
2.11
0.51
-1.33
-3.32
-5.37
-7.38
-9.43
-11.64
-14.14
-16.85
-19.4
-21.18
-21.48
-19.79
-16.01
-10.57
-4.34
1.63
6.43
9.57
11.06
11.28
10.75
9.87
8.8
7.48
5.88
4.13
2.6
1.76
1.97
3.22
5.14
7.07
8.33
8.49
7.45
5.51
3.09
0.63
-1.64
-3.64
-5.44
-7.11
-8.67
-10.16
-11.65
-13.29
-15.23
-17.46
-19.67
-21.24
-21.36
-19.41
-15.21
-9.25
-2.53
3.8
8.85
12.23
14.04
14.68
14.49
13.65
12.2
10.24
8.05
6
4.4
3.38
2.77
2.33
1.86
1.4
1.07
1
1.14
1.29
1.14
0.53
-0.55
-1.9
-3.32
-4.67
-5.93
-7.2
-8.62
-10.31
-12.36
-14.79
-17.45
-19.97
-21.82
-22.34
-21.06
-17.86
-13.13
-7.6
-2.14
2.52
5.95
8.07
9
8.9
7.98
6.45
4.6
2.77
1.3
0.43
0.27
0.72
1.6
2.66
3.66
4.37
4.65
4.38
3.55
2.22
0.53
-1.31
-3.12
-4.82
-6.44
-8.1
-9.98
-12.22
-14.92
-17.95
-21.02
-23.57
-24.93
-24.46
-21.81
-17.08
-10.85
-4.04
2.37
7.62
11.3
13.37
14.05
13.64
12.43
10.67
8.65
6.63
4.86
3.55
2.78
2.6
2.94
3.72
4.72
5.73
6.49
6.8
6.57
5.89
4.95
3.89
2.71
1.29
-0.49
-2.69
-5.23
-7.91
-10.6
-13.19
-15.75
-18.22
-20.4
-21.8
-21.77
-19.77
-15.61
-9.69
-2.88
3.66
8.92
12.31
13.86
14.05
13.58
13.01
12.53
12.06
11.44
10.71
10.07
9.83
10.14
10.9
11.77
12.38
12.52
12.14
11.36
10.28
8.93
7.25
5.22
2.88
0.39
-2.09
-4.45
-6.66
-8.79
-10.86
-12.94
-15.12
-17.45
-19.88
-22.11
-23.59
-23.66
-21.8
-17.96
-12.62
-6.59
-0.67
4.63
9.17
12.97
15.98
17.94
18.55
17.69
15.67
13.12
10.74
9.1
8.37
8.49
9.16
10.05
10.85
11.28
11.22
10.68
9.89
9.11
8.51
8.06
7.47
6.42
4.75
2.53
0.08
-2.19
-4.01
-5.42
-6.7
-8.23
-10.33
-13.1
-16.26
-19.33
-21.65
-22.61
-21.85
-19.36
-15.44
-10.66
-5.57
-0.61
3.91
7.8
10.96
13.22
14.45
14.55
13.53
11.55
8.99
6.3
3.94
2.28
1.54
1.73
2.69
4.11
5.6
6.75
7.28
7.04
6.08
4.62
2.99
1.53
0.38
-0.45
-1.17
-2.05
-3.29
-5
-7.15
-9.73
-12.68
-15.93
-19.2
-21.99
-23.67
-23.56
-21.29
-16.95
-11.07
-4.44
2.1
7.9
12.58
15.97
18.04
18.85
18.55
17.35
15.58
13.6
11.75
10.29
9.33
8.85
8.71
8.78
8.95
9.21
9.58
10.04
10.46
10.57
10.12
8.92
7.06
4.82
2.55
0.54
-1.17
-2.75
-4.46
-6.59
-9.29
-12.54
-16.08
-19.37
-21.66
-22.21
-20.54
-16.66
-11.11
-4.81
1.24
6.29
10.01
12.44
13.81
14.36
14.19
13.34
11.84
9.87
7.77
5.96
4.86
4.66
5.27
6.4
7.71
8.94
10
10.91
11.64
12.01
11.76
10.65
8.69
6.12
3.4
0.89
-1.21
-2.98
-4.69
-6.64
-9.02
-11.83
-14.87
-17.8
-20.18
-21.47
-21.2
-19.05
-15.04
-9.6
-3.43
2.63
7.96
12.22
15.35
17.45
18.55
18.58
17.41
15.1
11.99
8.73
6.04
4.44
4.08
4.68
5.74
6.74
7.38
7.62
7.64
7.68
7.85
8.1
8.17
7.76
6.61
4.69
2.16
-0.6
-3.15
-5.19
-6.63
-7.68
-8.82
-10.46
-12.88
-15.92
-19.14
-21.83
-23.28
-23.01
-20.86
-17.01
-11.91
-6.21
-0.59
4.35
8.19
10.8
12.3
12.93
12.92
12.46
11.63
10.51
9.16
7.74
6.39
5.27
4.52
4.22
4.37
4.88
5.53
6.07
6.25
5.88
4.97
3.62
1.97
0.2
-1.54
-3.1
-4.32
-5.09
-5.48
-5.81
-6.6
-8.28
-10.95
-14.24
-17.25
-19.01
-18.77
-16.37
-12.24
-7.18
-2.02
2.69
6.62
9.61
11.53
12.23
11.66
9.96
7.55
4.98
2.72
1.01
-0.1
-0.72
-0.96
-0.82
-0.24
0.77
2.05
3.27
3.98
3.87
2.88
1.28
-0.47
-1.94
-2.9
-3.51
-4.13
-5.18
-6.95
-9.44
-12.37
-15.24
-17.53
-18.67
-18.24
-16.03
-12.19
-7.24
-1.94
2.91
6.73
9.34
10.88
11.62
11.76
11.36
10.38
8.84
6.94
5
3.39
2.33
1.89
1.94
2.27
2.68
3.05
3.25
3.21
2.84
2.1
1.05
-0.17
-1.41
-2.55
-3.57
-4.53
-5.53
-6.72
-8.24
-10.14
-12.36
-14.52
-16.02
-16.18
-14.53
-11.05
-6.31
-1.24
3.23
6.52
8.56
9.61
9.97
9.76
8.89
7.28
5.09
2.73
0.82
-0.16
-0.02
1.03
2.58
4.19
5.57
6.62
7.37
7.81
7.94
7.72
7.12
6.2
4.93
3.32
1.33
-1.07
-3.84
-6.89
-10.04
-13.12
-15.93
-18.22
-19.7
-19.99
-18.79
-15.97
-11.75
-6.62
-1.3
3.54
7.37
9.94
11.2
11.28
10.37
8.74
6.69
4.54
2.66
1.3
0.63
0.64
1.19
2.06
3.05
3.97
4.64
4.92
4.7
3.94
2.65
0.97
-0.92
-2.81
-4.57
-6.11
-7.44
-8.66
-9.93
-11.45
-13.36
-15.63
-18
-19.94
-20.82
-20.09
-17.53
-13.33
-8.07
-2.51
2.6
6.71
9.57
11.2
11.77
11.51
10.65
9.36
7.82
6.19
4.7
3.55
2.81
2.43
2.26
2.19
2.18
2.26
2.49
2.85
3.16
3.18
2.74
1.82
0.6
-0.65
-1.76
-2.69
-3.58
-4.65
-6.07
-7.96
-10.3
-12.99
-15.77
-18.17
-19.61
-19.5
-17.56
-13.96
-9.31
-4.46
-0.16
3.21
5.65
7.44
8.85
9.95
10.62
10.61
9.82
8.33
6.48
4.75
3.55
3.1
3.4
4.21
5.22
6.13
6.71
6.86
6.47
5.49
3.95
1.93
-0.31
-2.52
-4.41
-5.94
-7.22
-8.57
-10.33
-12.69
-15.6
-18.67
-21.3
-22.81
-22.68
-20.73
-17.14
-12.47
-7.37
-2.51
1.75
5.24
7.98
10.07
11.55
12.43
12.71
12.46
11.78
10.91
10.07
9.4
9.03
8.94
9.14
9.58
10.22
10.97
11.7
12.13
12
11.11
9.35
6.86
3.9
0.84
-2.07
-4.72
-7.19
-9.69
-12.39
-15.38
-18.65
-22
-25.16
-27.7
-29.06
-28.71
-26.27
-21.78
-15.74
-9.02
-2.62
2.71
6.72
9.61
11.8
13.61
15.03
15.82
15.7
14.62
12.9
11.06
9.59
8.76
8.51
8.59
8.76
8.97
9.32
9.91
10.69
11.35
11.4
10.44
8.36
5.48
2.39
-0.23
-2.01
-2.94
-3.37
-3.84
-4.8
-6.53
-9.02
-12.12
-15.54
-18.88
-21.65
-23.26
-23.2
-21.17
-17.29
-12.08
-6.35
-0.91
3.65
7.06
9.38
10.82
11.58
11.76
11.37
10.44
9.12
7.64
6.3
5.38
5.05
5.36
6.22
7.45
8.83
10.23
11.51
12.58
13.35
13.65
13.27
12.04
9.88
6.91
3.51
0.17
-2.6
-4.53
-5.66
-6.31
-6.98
-8.14
-10.06
-12.74
-15.91
-19.06
-21.55
-22.68
-21.98
-19.27
-14.92
-9.62
-4.26
0.43
4.06
6.68
8.44
9.47
9.71
9.05
7.49
5.39
3.32
1.9
1.52
2.16
3.52
5.08
6.44
7.44
8.08
8.47
8.63
8.43
7.74
6.5
4.8
2.88
0.99
-0.72
-2.26
-3.71
-5.14
-6.62
-8.17
-9.86
-11.84
-14.22
-16.96
-19.7
-21.74
-22.25
-20.55
-16.44
-10.35
-3.26
3.63
9.26
13.02
14.96
15.5
15.26
14.62
13.65
12.11
9.86
7.02
4.12
1.87
0.81
1.09
2.38
4.1
5.69
6.87
7.7
8.25
8.57
8.46
7.68
6.08
3.8
1.2
-1.27
-3.3
-4.84
-6.09
-7.39
-9.12
-11.49
-14.45
-17.61
-20.35
-21.88
-21.54
-19
-14.44
-8.5
-2.17
3.62
8.19
11.27
13.02
13.76
13.87
13.55
12.9
11.91
10.61
9.15
7.74
6.7
6.22
6.39
7.13
8.25
9.53
10.71
11.56
11.93
11.76
11.05
9.86
8.21
6.16
3.74
1.02
-1.83
-4.62
-7.18
-9.5
-11.74
-14.19
-17.01
-20.09
-22.89
-24.56
-24.33
-21.83
-17.31
-11.56
-5.58
-0.18
4.24
7.66
10.29
12.26
13.54
14.04
13.76
12.82
11.53
10.28
9.34
8.86
8.82
9.1
9.55
10
10.36
10.6
10.78
10.97
11.18
11.23
10.87
9.78
7.82
5.11
1.99
-1.05
-3.66
-5.67
-7.2
-8.54
-10.02
-11.85
-14.05
-16.36
-18.32
-19.31
-18.82
-16.6
-12.8
-7.92
-2.68
2.26
6.35
9.31
11.02
11.56
11.07
9.81
8.13
6.33
4.72
3.5
2.77
2.57
2.88
3.59
4.52
5.49
6.33
6.98
7.48
7.86
8.09
7.98
7.36
6.17
4.56
2.82
1.24
-0.12
-1.37
-2.81
-4.61
-6.82
-9.32
-11.91
-14.41
-16.67
-18.46
-19.43
-19.11
-17.16
-13.62
-8.92
-3.88
0.66
4.15
6.47
7.83
8.56
8.8
8.45
7.29
5.25
2.6
-0.04
-1.92
-2.54
-1.84
-0.22
1.7
3.43
4.78
5.82
6.64
7.21
7.28
6.55
4.91
2.55
-0.02
-2.33
-4.06
-5.3
-6.44
-7.95
-10.15
-12.98
-16.02
-18.56
-19.87
-19.36
-16.89
-12.73
-7.49
-2
3.07
7.24
10.34
12.4
13.48
13.61
12.77
11.02
8.55
5.76
3.09
0.99
-0.33
-0.81
-0.57
0.16
1.11
2.01
2.64
2.78
2.42
1.65
0.64
-0.38
-1.27
-2.06
-2.91
-4.04
-5.67
-7.89
-10.63
-13.7
-16.64
-18.93
-20.02
-19.48
-17.14
-13.21
-8.2
-2.81
2.26
6.5
9.7
11.86
13.11
13.53
13.17
12.11
10.59
9.01
7.87
7.42
7.65
8.22
8.72
8.83
8.51
7.91
7.25
6.67
6.16
5.61
4.92
4.01
2.84
1.4
-0.31
-2.29
-4.47
-6.84
-9.4
-12.17
-15.13
-18.05
-20.46
-21.74
-21.35
-19
-14.83
-9.33
-3.27
2.52
7.31
10.6
12.18
12.18
11.02
9.37
7.86
6.97
6.83
7.24
7.82
8.27
8.44
8.43
8.4
8.47
8.66
8.82
8.81
8.49
7.81
6.77
5.4
3.79
2.06
0.41
-0.98
-2.07
-3.01
-4.12
-5.79
-8.32
-11.75
-15.76
-19.69
-22.65
-23.73
-22.33
-18.4
-12.62
-6.09
-0.03
4.64
7.67
9.33
10.18
10.74
11.11
11.08
10.37
8.83
6.75
4.68
3.23
2.81
3.38
4.56
5.86
6.89
7.5
7.73
7.73
7.58
7.27
6.75
5.96
4.84
3.38
1.6
-0.34
-2.19
-3.64
-4.56
-5.09
-5.81
-7.39
-10.3
-14.36
-18.72
-22.23
-23.81
-23
-20.05
-15.68
-10.71
-5.75
-1.11
3.06
6.6
9.31
10.96
11.43
10.82
9.4
7.57
5.71
4.16
3.15
2.75
2.86
3.22
3.55
3.67
3.64
3.69
4.14
5.12
6.47
7.68
8.17
7.54
5.74
3.13
0.31
-2.17
-4.07
-5.47
-6.76
-8.41
-10.74
-13.77
-17.17
-20.34
-22.52
-23
-21.37
-17.69
-12.5
-6.71
-1.29
3.03
6
7.8
8.8
9.33
9.52
9.34
8.76
7.8
6.55
5.14
3.72
2.45
1.58
1.43
2.25
4.05
6.51
8.99
10.84
11.58
11.09
9.62
7.58
5.29
2.93
0.54
-1.87
-4.29
-6.7
-9.11
-11.63
-14.35
-17.23
-19.94
-21.95
-22.65
-21.64
-18.83
-14.56
-9.43
-4.03
1.1
5.62
9.26
11.89
13.45
13.97
13.6
12.57
11.17
9.72
8.51
7.77
7.59
7.95
8.73
9.7
10.63
11.35
11.68
11.48
10.65
9.13
7.02
4.54
2.03
-0.25
-2.12
-3.58
-4.73
-5.74
-6.87
-8.37
-10.51
-13.35
-16.68
-19.93
-22.25
-22.8
-21.01
-16.88
-10.99
-4.32
2.05
7.27
10.93
13.05
13.98
14.09
13.65
12.79
11.58
10.1
8.56
7.24
6.41
6.16
6.36
6.75
7.1
7.35
7.61
8.03
8.58
9.01
8.9
7.88
5.88
3.21
0.38
-2.08
-3.82
-4.84
-5.4
-5.89
-6.7
-8.12
-10.25
-13
-16.09
-19.1
-21.57
-23.05
-23.15
-21.68
-18.64
-14.28
-9.1
-3.71
1.28
5.42
8.49
10.47
11.48
11.72
11.39
10.66
9.71
8.69
7.75
7.02
6.61
6.58
6.94
7.65
8.6
9.63
10.61
11.38
11.78
11.68
10.91
9.4
7.23
4.65
2.06
-0.14
-1.76
-2.88
-3.84
-5.11
-7.1
-9.99
-13.64
-17.59
-21.17
-23.71
-24.63
-23.61
-20.68
-16.2
-10.83
-5.33
-0.45
3.35
5.93
7.44
8.19
8.44
8.31
7.78
6.78
5.39
3.79
2.35
1.42
1.25
1.83
2.94
4.25
5.45
6.37
6.94
7.14
6.93
6.25
4.97
3.06
0.63
-2.03
-4.55
-6.57
-7.99
-8.96
-9.8
-10.98
-12.8
-15.3
-18.25
-21.05
-22.99
-23.31
-21.61
-17.93
-12.83
-7.15
-1.77
2.67
5.96
8.22
9.7
10.56
10.83
10.42
9.33
7.73
5.96
4.45
3.56
3.45
4.04
5.14
6.47
7.84
9.08
10.03
10.52
10.35
9.36
7.56
5.09
2.19
-0.86
-3.87
-6.75
-9.52
-12.3
-15.21
-18.33
-21.61
-24.67
-26.91
-27.58
-26.09
-22.27
-16.57
-9.89
-3.28
2.37
6.64
9.49
11.15
11.83
11.68
10.75
9.11
6.93
4.49
2.19
0.44
-0.45
-0.33
0.67
2.21
3.84
5.16
5.91
6.09
5.8
5.22
4.43
3.39
1.99
0.17
-2.01
-4.43
-6.95
-9.54
-12.28
-15.22
-18.3
-21.08
-22.85
-22.83
-20.47
-15.72
-9.2
-2.04
4.56
9.7
13.02
14.69
15.15
14.87
14.18
13.21
12.07
10.83
9.64
8.68
8.08
7.89
8.12
8.71
9.57
10.53
11.39
11.87
11.81
11.09
9.75
7.89
5.61
3.03
0.23
-2.7
-5.7
-8.8
-12.04
-15.55
-19.35
-23.28
-26.87
-29.4
-30.09
-28.38
-24.15
-17.85
-10.38
-2.82
3.92
9.27
13.09
15.54
16.8
17.06
16.39
14.88
12.76
10.48
8.6
7.53
7.44
8.2
9.49
10.99
12.5
13.94
15.22
16.15
16.46
15.9
14.38
12
9.05
5.84
2.65
-0.35
-3.01
-5.25
-7.09
-8.7
-10.51
-12.97
-16.34
-20.39
-24.41
-27.33
-28.2
-26.52
-22.46
-16.76
-10.35
-4.07
1.62
6.61
10.94
14.62
17.48
19.23
19.58
18.45
16.12
13.24
10.61
8.96
8.63
9.49
11
12.49
13.46
13.8
13.67
13.38
13.07
12.65
11.85
10.39
8.21
5.54
2.78
0.35
-1.58
-3.12
-4.58
-6.34
-8.68
-11.66
-15.16
-18.99
-22.9
-26.58
-29.56
-31.19
-30.84
-28.08
-22.91
-15.89
-7.97
-0.2
6.56
11.88
15.64
17.98
19.05
18.93
17.67
15.46
12.68
9.9
7.72
6.56
6.52
7.32
8.51
9.6
10.32
10.7
10.87
10.96
10.89
10.41
9.21
7.11
4.2
0.85
-2.53
-5.58
-8.18
-10.48
-12.76
-15.33
-18.36
-21.83
-25.42
-28.54
-30.4
-30.26
-27.68
-22.78
-16.13
-8.59
-1.04
5.9
11.86
16.6
19.97
21.82
22.06
20.85
18.51
15.55
12.48
9.69
7.51
6.15
5.76
6.32
7.59
9.09
10.27
10.74
10.44
9.58
8.54
7.49
6.35
4.82
2.56
-0.52
-4.21
-8.07
-11.75
-15.25
-18.87
-22.92
-27.34
-31.49
-34.22
-34.39
-31.35
-25.32
-17.29
-8.67
-0.69
5.9
10.95
14.64
17.2
18.7
19
18.07
15.99
13.21
10.32
7.95
6.56
6.35
7.23
8.91
10.91
12.72
13.9
14.19
13.58
12.28
10.55
8.6
6.46
4.05
1.3
-1.76
-4.96
-8.22
-11.56
-15.17
-19.19
-23.43
-27.23
-29.51
-29.29
-26.03
-19.94
-11.9
-3.23
4.88
11.61
16.58
19.85
21.59
22.05
21.43
19.92
17.79
15.38
13.05
11.11
9.74
8.91
8.6
8.7
9.16
9.92
10.85
11.78
12.41
12.44
11.62
9.85
7.28
4.22
1.06
-1.89
-4.5
-6.9
-9.37
-12.32
-16.02
-20.42
-25.08
-29.16
-31.67
-31.75
-28.97
-23.51
-16.08
-7.77
0.39
7.53
13.18
17.22
19.7
20.77
20.52
19.06
16.54
13.33
9.94
7.06
5.27
4.86
5.7
7.27
8.94
10.18
10.8
10.92
10.76
10.4
9.68
8.33
6.16
3.2
-0.26
-3.79
-7.05
-9.87
-12.36
-14.77
-17.49
-20.8
-24.73
-29
-32.88
-35.38
-35.52
-32.63
-26.58
-17.9
-7.6
3.02
12.63
20.14
24.86
26.62
25.8
23.13
19.51
15.77
12.48
9.92
8.2
7.33
7.27
7.92
9.04
10.32
11.48
12.3
12.76
12.89
12.73
12.18
11.1
9.31
6.83
3.89
0.87
-1.91
-4.31
-6.45
-8.73
-11.62
-15.5
-20.39
-25.82
-30.86
-34.26
-34.89
-32.12
-26.1
-17.76
-8.49
0.27
7.47
12.63
15.78
17.25
17.44
16.68
15.23
13.32
11.25
9.29
7.72
6.74
6.38
6.56
7.1
7.89
8.82
9.91
11.07
12.11
12.69
12.39
10.93
8.25
4.67
0.71
-3.12
-6.51
-9.45
-12.28
-15.44
-19.35
-24.12
-29.4
-34.37
-37.81
-38.53
-35.76
-29.52
-20.65
-10.61
-0.95
7.16
13.22
17.36
19.98
21.48
21.95
21.29
19.38
16.25
12.28
8.09
4.45
2.03
1.22
1.97
3.89
6.3
8.54
10.1
10.73
10.45
9.39
7.75
5.62
3.03
-0.02
-3.51
-7.37
-11.53
-15.99
-20.7
-25.51
-30
-33.42
-34.76
-33.15
-28.15
-20.13
-10.15
0.31
9.82
17.4
22.65
25.73
26.96
26.71
25.24
22.72
19.41
15.71
12.19
9.44
7.93
7.82
8.87
10.56
12.23
13.36
13.68
13.2
12.04
10.29
7.93
4.96
1.47
-2.31
-6.07
-9.65
-13.19
-17.06
-21.6
-26.84
-32.18
-36.5
-38.45
-36.97
-31.74
-23.32
-12.98
-2.29
7.36
15.1
20.64
24.09
25.77
26.01
25.09
23.26
20.81
18.05
15.3
12.88
11.03
9.92
9.63
10.1
11.15
12.45
13.58
14.21
14.03
12.97
11.06
8.44
5.34
2.01
-1.29
-4.42
-7.35
-10.27
-13.48
-17.36
-22.06
-27.36
-32.51
-36.33
-37.56
-35.29
-29.32
-20.32
-9.63
1.14
10.59
17.86
22.69
25.26
25.95
25.14
23.19
20.47
17.43
14.58
12.36
10.97
10.41
10.47
10.91
11.57
12.39
13.32
14.24
14.87
14.83
13.78
11.56
8.3
4.39
0.29
-3.57
-6.95
-9.85
-12.43
-15.03
-18.07
-21.87
-26.44
-31.34
-35.63
-38.03
-37.38
-33.05
-25.31
-15.29
-4.66
5.01
12.71
18.2
21.79
23.95
24.91
24.69
23.2
20.66
17.67
15.07
13.63
13.67
14.98
16.95
18.91
20.38
21.2
21.38
20.99
20
18.32
15.84
12.55
8.62
4.36
0.14
-3.68
-6.9
-9.59
-12.07
-14.81
-18.31
-22.85
-28.34
-34.22
-39.48
-42.87
-43.2
-39.79
-32.68
-22.75
-11.45
-0.31
9.45
17.17
22.67
26.04
27.43
26.96
24.82
21.41
17.33
13.27
9.86
7.51
6.37
6.37
7.31
8.88
10.76
12.62
14.14
15.09
15.32
14.73
13.26
10.96
7.97
4.55
1.04
-2.29
-5.35
-8.32
-11.56
-15.46
-20.26
-25.91
-31.93
-37.54
-41.7
-43.39
-41.82
-36.74
-28.63
-18.58
-8.02
1.72
9.76
15.78
19.93
22.49
23.66
23.52
22.05
19.38
15.91
12.29
9.26
7.44
7.08
8.06
10
12.33
14.54
16.21
16.98
16.61
14.94
11.98
7.97
3.44
-0.99
-4.75
-7.67
-10.03
-12.43
-15.52
-19.72
-24.96
-30.66
-35.86
-39.42
-40.27
-37.73
-31.7
-22.81
-12.26
-1.59
7.82
15.07
19.85
22.38
23.11
22.54
21.03
18.93
16.54
14.25
12.36
11.13
10.63
10.84
11.65
12.9
14.36
15.77
16.82
17.23
16.8
15.47
13.27
10.35
6.88
3.05
-0.94
-4.93
-8.8
-12.56
-16.34
-20.42
-25.03
-30.06
-34.86
-38.25
-38.87
-35.74
-28.79
-18.94
-7.86
2.73
11.6
18.35
23.14
26.39
28.35
29.02
28.28
26.19
23.17
19.91
17.21
15.67
15.52
16.59
18.37
20.27
21.78
22.63
22.84
22.59
22.04
21.19
19.83
17.63
14.36
10.07
5.21
0.41
-3.75
-7
-9.49
-11.69
-14.08
-17.02
-20.64
-24.87
-29.5
-34.2
-38.33
-40.95
-40.98
-37.6
-30.61
-20.71
-9.37
1.71
11.08
18.08
22.72
25.5
26.9
27.18
26.31
24.23
21.1
17.44
14.09
11.88
11.33
12.42
14.65
17.23
19.42
20.8
21.36
21.4
21.21
20.91
20.34
19.17
17.07
13.94
9.97
5.61
1.34
-2.44
-5.52
-7.94
-9.85
-11.52
-13.28
-15.46
-18.34
-22.06
-26.42
-30.92
-34.64
-36.57
-35.79
-31.91
-25.16
-16.39
-6.79
2.48
10.59
17.1
21.9
24.99
26.41
26.2
24.46
21.49
17.79
13.99
10.74
8.53
7.66
8.14
9.68
11.73
13.69
15.03
15.53
15.24
14.47
13.47
12.35
10.94
9.01
6.37
3.08
-0.59
-4.25
-7.53
-10.22
-12.26
-13.81
-15.13
-16.63
-18.69
-21.62
-25.42
-29.71
-33.69
-36.3
-36.52
-33.7
-27.75
-19.26
-9.31
0.76
9.77
16.87
21.73
24.38
25.09
24.18
21.91
18.57
14.53
10.38
6.8
4.43
3.65
4.38
6.14
8.18
9.88
10.86
11.16
10.99
10.63
10.2
9.55
8.4
6.49
3.75
0.37
-3.24
-6.65
-9.58
-12
-14.14
-16.38
-19
-22.18
-25.85
-29.7
-33.18
-35.54
-35.91
-33.65
-28.51
-20.91
-11.94
-2.94
4.86
10.72
14.57
16.76
17.74
17.78
16.94
15.22
12.78
10.03
7.56
5.88
5.23
5.47
6.27
7.21
8.05
8.72
9.24
9.56
9.52
8.9
7.52
5.38
2.69
-0.26
-3.16
-5.86
-8.34
-10.74
-13.22
-16.03
-19.36
-23.3
-27.6
-31.68
-34.57
-35.28
-33.08
-27.81
-20.08
-11.05
-2.09
5.61
11.37
15.11
17.11
17.82
17.62
16.72
15.22
13.25
11.04
8.91
7.27
6.38
6.37
7.09
8.23
9.39
10.21
10.43
9.93
8.72
6.96
4.85
2.61
0.38
-1.75
-3.77
-5.74
-7.72
-9.87
-12.42
-15.62
-19.62
-24.28
-28.93
-32.44
-33.53
-31.25
-25.43
-16.85
-7.05
2.27
9.76
14.8
17.5
18.35
17.91
16.65
14.87
12.77
10.6
8.6
6.98
5.91
5.48
5.72
6.53
7.7
8.91
9.86
10.37
10.44
10.06
9.15
7.47
4.83
1.23
-2.91
-6.95
-10.27
-12.67
-14.4
-16.02
-18.15
-21.11
-24.81
-28.77
-32.24
-34.31
-34.14
-31.18
-25.4
-17.38
-8.2
0.86
8.73
14.75
18.74
20.8
21.13
20.05
17.86
15.01
12.01
9.36
7.41
6.32
6.06
6.42
7.18
8.06
8.91
9.67
10.32
10.89
11.3
11.4
10.9
9.57
7.3
4.18
0.54
-3.19
-6.62
-9.54
-11.92
-14.03
-16.21
-18.9
-22.31
-26.29
-30.28
-33.31
-34.39
-32.71
-28.13
-21.12
-12.66
-3.92
4.06
10.51
14.99
17.37
17.77
16.55
14.25
11.46
8.76
6.52
4.98
4.19
4.13
4.66
5.56
6.59
7.53
8.28
8.94
9.62
10.32
10.81
10.64
9.42
6.97
3.52
-0.43
-4.23
-7.38
-9.67
-11.22
-12.47
-13.99
-16.35
-19.86
-24.38
-29.22
-33.19
-34.98
-33.57
-28.71
-21
-11.76
-2.55
5.29
10.98
14.37
15.79
15.78
14.79
13.17
11.14
8.92
6.8
5.08
4.06
3.81
4.31
5.26
6.4
7.49
8.39
9.06
9.42
9.4
8.83
7.65
5.85
3.56
0.91
-1.93
-4.82
-7.64
-10.26
-12.66
-14.94
-17.42
-20.43
-24.09
-28.02
-31.31
-32.77
-31.33
-26.56
-18.87
-9.47
0.2
8.84
15.66
20.49
23.47
24.9
24.92
23.6
21
17.39
13.3
9.45
6.55
4.99
4.77
5.47
6.5
7.36
7.82
8
8.08
8.13
8
7.34
5.84
3.5
0.71
-1.99
-4.16
-5.78
-7.36
-9.66
-13.36
-18.61
-24.89
-31.15
-36.06
-38.44
-37.54
-33.25
-26.07
-17
-7.34
1.65
9.02
14.3
17.54
19.1
19.42
18.74
17.18
14.84
12.05
9.41
7.66
7.26
8.16
9.74
11.19
11.91
11.88
11.61
11.72
12.52
13.73
14.52
14.01
11.69
7.72
2.83
-2.05
-6.19
-9.3
-11.55
-13.38
-15.28
-17.64
-20.73
-24.64
-29.18
-33.79
-37.45
-38.94
-37.26
-32.09
-24.07
-14.58
-5.23
2.73
8.82
13.23
16.37
18.5
19.49
19.05
17.11
14.12
10.93
8.51
7.5
7.99
9.52
11.4
12.98
13.93
14.21
14.06
13.75
13.54
13.43
13.29
12.83
11.69
9.63
6.65
3.02
-0.74
-4.14
-6.81
-8.78
-10.35
-12.12
-14.68
-18.35
-23.06
-28.28
-33.11
-36.58
-37.89
-36.6
-32.69
-26.56
-18.86
-10.49
-2.41
4.52
9.71
12.99
14.56
14.82
14.19
12.85
10.89
8.45
5.86
3.75
2.74
3.19
4.94
7.4
9.81
11.63
12.76
13.41
13.85
14.12
13.95
12.92
10.79
7.69
4.09
0.6
-2.34
-4.62
-6.48
-8.36
-10.61
-13.48
-17.03
-21.15
-25.53
-29.64
-32.69
-33.77
-32.09
-27.33
-19.92
-10.92
-1.76
6.29
12.5
16.77
19.43
20.81
21.08
20.14
17.88
14.43
10.32
6.37
3.37
1.82
1.72
2.67
4.03
5.25
6.06
6.48
6.73
7
7.27
7.31
6.71
5.17
2.64
-0.58
-4
-7.16
-9.89
-12.34
-14.88
-17.88
-21.5
-25.49
-29.25
-32.01
-32.95
-31.47
-27.37
-20.94
-12.93
-4.36
3.78
10.69
15.96
19.48
21.31
21.52
20.22
17.61
14.09
10.3
6.94
4.56
3.44
3.53
4.59
6.28
8.3
10.37
12.17
13.33
13.55
12.78
11.16
9.1
6.97
4.92
2.81
0.32
-2.84
-6.72
-11.08
-15.62
-20.03
-24.12
-27.64
-30.13
-30.89
-29.16
-24.51
-17.22
-8.33
0.71
8.47
14.11
17.47
18.96
19.15
18.46
17.1
15.2
12.99
10.89
9.34
8.6
8.62
9.07
9.59
9.96
10.26
10.69
11.4
12.26
12.91
12.87
11.84
9.83
7.14
4.19
1.33
-1.37
-4.07
-7.06
-10.63
-14.92
-19.9
-25.19
-30.23
-34.23
-36.33
-35.81
-32.31
-25.99
-17.59
-8.24
0.82
8.59
14.53
18.52
20.76
21.52
21.08
19.66
17.53
15.09
12.82
11.2
10.45
10.46
10.86
11.17
11.1
10.71
10.3
10.15
10.3
10.41
9.92
8.4
5.77
2.41
-0.96
-3.73
-5.68
-7.06
-8.44
-10.43
-13.37
-17.22
-21.67
-26.2
-30.24
-33.14
-34.18
-32.74
-28.51
-21.73
-13.26
-4.41
3.52
9.68
13.89
16.45
17.83
18.31
17.84
16.23
13.51
10.08
6.72
4.25
3.2
3.58
4.99
6.81
8.55
9.99
11.08
11.82
12.04
11.48
9.92
7.41
4.27
1.03
-1.89
-4.42
-6.78
-9.42
-12.63
-16.48
-20.76
-25.13
-29.21
-32.6
-34.82
-35.25
-33.28
-28.61
-21.48
-12.77
-3.77
4.28
10.6
14.94
17.56
18.81
18.96
18.07
16.15
13.38
10.2
7.23
5.07
4.1
4.33
5.46
7.07
8.7
9.98
10.62
10.42
9.24
7.14
4.34
1.24
-1.73
-4.38
-6.78
-9.25
-12.15
-15.7
-19.88
-24.36
-28.63
-31.96
-33.6
-32.8
-29.09
-22.47
-13.61
-3.76
5.63
13.31
18.7
21.89
23.43
23.93
23.73
22.87
21.25
18.89
16.03
13.13
10.73
9.14
8.44
8.42
8.73
8.98
8.96
8.57
7.89
7.01
5.92
4.57
2.83
0.64
-2
-4.96
-8.12
-11.47
-15.03
-18.87
-22.71
-25.97
-27.76
-27.24
-23.94
-18.04
-10.3
-1.81
6.23
12.96
17.82
20.69
21.76
21.4
20.01
18.02
15.74
13.42
11.32
9.68
8.76
8.72
9.54
10.9
12.34
13.4
13.76
13.37
12.35
10.92
9.21
7.3
5.17
2.79
0.2
-2.56
-5.4
-8.27
-11.21
-14.35
-17.83
-21.74
-25.86
-29.61
-32.06
-32.19
-29.3
-23.42
-15.38
-6.59
1.54
7.97
12.38
15.01
16.38
16.93
16.79
15.88
14.14
11.69
8.97
6.6
5.14
4.92
5.89
7.62
9.59
11.37
12.82
13.99
15.04
15.91
16.35
15.89
14.17
11.14
7.08
2.57
-1.78
-5.57
-8.63
-11.07
-13.11
-15.07
-17.27
-19.93
-23.08
-26.44
-29.37
-31.03
-30.63
-27.75
-22.5
-15.56
-7.87
-0.36
6.31
11.79
15.94
18.66
19.88
19.55
17.8
15.08
12.01
9.33
7.57
7
7.55
8.95
10.77
12.56
13.95
14.66
14.66
14.08
13.23
12.37
11.59
10.75
9.48
7.49
4.7
1.39
-1.95
-4.84
-7.03
-8.6
-9.86
-11.16
-12.83
-15.04
-17.87
-21.18
-24.65
-27.65
-29.38
-29.07
-26.38
-21.52
-15.31
-8.75
-2.7
2.4
6.55
9.92
12.52
14.14
14.48
13.41
11.24
8.72
6.77
6.08
6.91
9.01
11.78
14.59
16.95
18.65
19.66
20.06
19.88
19.06
17.55
15.3
12.39
9.04
5.48
2
-1.25
-4.18
-6.81
-9.18
-11.36
-13.4
-15.4
-17.51
-19.91
-22.62
-25.35
-27.49
-28.29
-27.11
-23.71
-18.39
-11.9
-5.15
1.03
6.15
10.08
12.93
14.87
16.07
16.55
16.31
15.47
14.28
13.14
12.51
12.65
13.57
14.96
16.42
17.56
18.24
18.48
18.4
17.99
17.04
15.32
12.68
9.3
5.61
2.17
-0.63
-2.66
-4.09
-5.21
-6.28
-7.5
-8.96
-10.78
-13.17
-16.36
-20.41
-24.97
-29.24
-32.06
-32.37
-29.61
-24.02
-16.58
-8.61
-1.35
4.53
8.89
12
14.17
15.5
15.89
15.22
13.63
11.52
9.54
8.26
7.96
8.59
9.81
11.19
12.38
13.21
13.68
13.91
14.02
13.99
13.78
13.25
12.3
10.88
9.01
6.77
4.33
1.86
-0.46
-2.54
-4.32
-5.86
-7.25
-8.62
-10.1
-11.82
-13.91
-16.47
-19.52
-22.91
-26.13
-28.38
-28.8
-26.78
-22.27
-15.89
-8.73
-2.04
3.24
6.71
8.56
9.27
9.37
9.19
8.88
8.4
7.69
6.8
5.86
5.13
4.87
5.29
6.46
8.25
10.31
12.22
13.58
14.16
13.98
13.21
12.12
10.87
9.54
8.14
6.67
5.16
3.64
2.08
0.42
-1.4
-3.4
-5.54
-7.77
-10.1
-12.58
-15.33
-18.42
-21.76
-25.07
-27.78
-29.27
-28.97
-26.55
-22.13
-16.24
-9.66
-3.25
2.32
6.65
9.66
11.41
12.09
11.9
11.08
9.89
8.61
7.48
6.66
6.28
6.43
7.15
8.33
9.73
10.97
11.69
11.64
10.85
9.54
8.02
6.55
5.25
4.06
2.87
1.53
0.02
-1.65
-3.4
-5.11
-6.75
-8.29
-9.88
-11.7
-13.97
-16.74
-19.91
-23.1
-25.75
-27.15
-26.65
-23.93
-19.09
-12.8
-6.09
-0.05
4.55
7.45
8.94
9.55
9.69
9.51
8.82
7.42
5.39
3.16
1.45
0.89
1.7
3.6
5.98
8.21
9.9
11.05
11.86
12.53
13.02
13.09
12.42
10.85
8.45
5.58
2.61
-0.21
-2.83
-5.39
-8.06
-10.91
-13.88
-16.85
-19.71
-22.32
-24.55
-26.11
-26.58
-25.53
-22.66
-18.04
-12.1
-5.49
1.01
6.77
11.28
14.26
15.66
15.63
14.54
12.87
11.04
9.39
8.08
7.18
6.76
6.83
7.33
8.04
8.66
8.94
8.85
8.56
8.39
8.47
8.58
8.21
6.83
4.18
0.53
-3.44
-6.97
-9.52
-11.08
-12.08
-13.17
-14.92
-17.62
-21.14
-24.96
-28.25
-30.05
-29.6
-26.57
-21.21
-14.39
-7.27
-0.9
4.08
7.54
9.73
10.92
11.27
10.84
9.64
7.94
6.21
4.97
4.58
5.01
5.88
6.74
7.21
7.31
7.36
7.82
8.88
10.42
11.95
12.85
12.68
11.27
8.77
5.59
2.19
-1.02
-3.78
-6.04
-7.91
-9.68
-11.67
-14.18
-17.3
-20.89
-24.47
-27.3
-28.54
-27.54
-24.11
-18.65
-12.07
-5.44
0.33
4.84
8.11
10.41
11.85
12.36
11.71
9.83
7.09
4.23
2.14
1.45
2.23
4
5.96
7.4
8.03
8.07
8.1
8.63
9.76
11.09
11.88
11.39
9.31
5.85
1.71
-2.28
-5.54
-7.99
-9.96
-12.01
-14.57
-17.77
-21.37
-24.93
-27.93
-29.88
-30.39
-29.19
-26.22
-21.6
-15.75
-9.28
-2.94
2.63
6.92
9.73
11.08
11.2
10.47
9.24
7.83
6.46
5.27
4.36
3.88
3.98
4.79
6.23
8.06
9.87
11.16
11.65
11.21
9.93
7.98
5.53
2.75
-0.17
-3.02
-5.55
-7.61
-9.24
-10.64
-12.17
-14.23
-17.01
-20.37
-23.72
-26.2
-26.93
-25.34
-21.39
-15.58
-8.83
-2.14
3.6
7.91
10.63
11.95
12.21
11.8
11.04
10.13
9.17
8.19
7.25
6.44
5.89
5.77
6.14
6.99
8.12
9.28
10.19
10.64
10.54
9.88
8.73
7.14
5.17
2.81
0.1
-2.85
-5.89
-8.87
-11.73
-14.55
-17.55
-20.89
-24.46
-27.73
-29.86
-29.96
-27.43
-22.34
-15.37
-7.65
-0.33
5.73
10.22
13.22
15.09
16.15
16.62
16.55
15.97
15
13.86
12.85
12.22
12.03
12.15
12.34
12.46
12.55
12.75
13.11
13.47
13.39
12.43
10.36
7.38
3.99
0.78
-1.84
-3.76
-5.15
-6.27
-7.38
-8.7
-10.51
-13.09
-16.63
-21.02
-25.73
-29.87
-32.4
-32.5
-29.78
-24.47
-17.3
-9.26
-1.41
5.44
10.79
14.46
16.56
17.33
17.03
15.92
14.23
12.18
10.07
8.28
7.24
7.24
8.3
10.12
12.18
13.98
15.19
15.83
16.09
16.24
16.32
16.11
15.18
13.08
9.67
5.24
0.53
-3.65
-6.71
-8.55
-9.62
-10.64
-12.28
-14.83
-18.2
-21.99
-25.7
-28.81
-30.81
-31.18
-29.43
-25.28
-18.89
-11.02
-2.82
4.5
10.06
13.61
15.34
15.77
15.36
14.4
12.96
11.11
9.05
7.11
5.69
5.01
5.08
5.67
6.56
7.64
8.92
10.37
11.82
12.89
13.1
12.2
10.24
7.69
5.1
2.93
1.28
-0.04
-1.41
-3.13
-5.4
-8.28
-11.74
-15.73
-20.08
-24.46
-28.31
-30.89
-31.41
-29.36
-24.71
-18.02
-10.33
-2.85
3.49
8.22
11.42
13.47
14.77
15.48
15.55
14.86
13.42
11.47
9.47
7.85
6.85
6.48
6.52
6.78
7.12
7.52
7.97
8.43
8.72
8.57
7.74
6.08
3.69
0.86
-2.03
-4.64
-6.83
-8.67
-10.39
-12.31
-14.7
-17.65
-21.01
-24.34
-26.88
-27.76
-26.25
-22.07
-15.6
-7.85
-0.11
6.42
11.09
13.87
15.21
15.7
15.79
15.61
15.09
14.13
12.77
11.29
10.11
9.57
9.84
10.79
12.06
13.22
13.97
14.13
13.7
12.77
11.34
9.46
7.16
4.53
1.7
-1.21
-4.08
-6.87
-9.62
-12.45
-15.57
-19.14
-23.11
-26.99
-29.88
-30.74
-28.74
-23.69
-16.27
-7.76
0.48
7.43
12.72
16.54
19.29
21.21
22.3
22.31
21.08
18.69
15.58
12.42
9.9
8.55
8.46
9.4
10.82
12.11
12.86
13.04
12.85
12.59
12.34
11.92
10.89
8.88
5.82
1.97
-2.12
-5.91
-9.08
-11.62
-13.73
-15.69
-17.78
-20.16
-22.89
-25.82
-28.48
-30.14
-29.99
-27.44
-22.38
-15.32
-7.19
0.9
8.02
13.59
17.44
19.61
20.32
19.8
18.31
16.17
13.71
11.35
9.51
8.47
8.31
8.86
9.72
10.44
10.73
10.56
10.11
9.63
9.2
8.71
7.93
6.65
4.85
2.67
0.33
-1.97
-4.16
-6.31
-8.53
-10.96
-13.76
-17.08
-21.02
-25.42
-29.77
-33.11
-34.35
-32.59
-27.6
-19.93
-10.79
-1.63
6.4
12.65
17.07
19.91
21.46
21.83
21.01
19.04
16.12
12.74
9.46
6.85
5.28
4.83
5.34
6.48
7.9
9.3
10.55
11.59
12.34
12.66
12.34
11.2
9.19
6.44
3.27
0.01
-3.09
-5.95
-8.67
-11.46
-14.52
-17.94
-21.7
-25.59
-29.17
-31.75
-32.57
-31
-26.87
-20.64
-13.23
-5.76
0.86
6.16
10.1
12.87
14.67
15.57
15.48
14.43
12.56
10.23
7.92
6
4.73
4.21
4.39
5.14
6.27
7.5
8.51
9.02
8.89
8.01
6.44
4.25
1.57
-1.44
-4.62
-7.79
-10.86
-13.83
-16.87
-20.2
-23.97
-28
-31.68
-34.13
-34.41
-31.97
-26.85
-19.71
-11.59
-3.52
3.66
9.57
14.02
17.06
18.74
19.09
18.21
16.27
13.56
10.53
7.72
5.65
4.73
5.06
6.39
8.12
9.58
10.23
9.85
8.61
6.93
5.27
3.9
2.78
1.68
0.18
-2.01
-5
-8.69
-12.88
-17.34
-21.78
-25.86
-28.99
-30.46
-29.59
-26.07
-20.16
-12.69
-4.8
2.47
8.46
12.96
16.06
17.93
18.72
18.56
17.54
15.84
13.65
11.17
8.71
6.6
5.21
4.83
5.47
6.77
8.14
8.95
8.86
7.94
6.5
4.95
3.42
1.82
-0.08
-2.45
-5.22
-8.29
-11.52
-14.98
-18.83
-23.03
-27.17
-30.38
-31.6
-30
-25.42
-18.39
-10.06
-1.73
5.54
11.13
14.95
17.22
18.25
18.26
17.39
15.7
13.38
10.79
8.4
6.67
5.92
6.25
7.49
9.38
11.55
13.61
15.22
16.04
15.88
14.67
12.55
9.82
6.84
3.85
1.03
-1.52
-3.8
-5.83
-7.72
-9.77
-12.37
-15.86
-20.28
-25.13
-29.42
-31.91
-31.55
-27.91
-21.38
-13.09
-4.47
3.18
9.06
13.01
15.28
16.36
16.66
16.35
15.41
13.79
11.59
9.28
7.58
7.18
8.37
10.86
13.79
16.2
17.37
17.25
16.31
15.25
14.55
14.15
13.61
12.33
10
6.75
3.09
-0.3
-2.93
-4.7
-5.91
-7.11
-8.86
-11.49
-15.02
-19.16
-23.42
-27.24
-29.97
-31
-29.83
-26.2
-20.31
-12.83
-4.79
2.7
8.85
13.33
16.3
18.14
19.19
19.55
19.18
17.98
15.99
13.59
11.26
9.58
8.9
9.25
10.31
11.57
12.55
13.02
13.07
12.99
13.07
13.27
13.2
12.33
10.31
7.17
3.43
-0.25
-3.36
-5.76
-7.75
-9.8
-12.3
-15.36
-18.83
-22.4
-25.71
-28.48
-30.36
-30.89
-29.59
-26.05
-20.26
-12.71
-4.38
3.57
10.17
14.93
17.82
19.16
19.34
18.61
17.17
15.28
13.33
11.84
11.18
11.46
12.41
13.63
14.71
15.52
16.07
16.45
16.62
16.4
15.56
13.97
11.66
8.83
5.76
2.68
-0.28
-3.02
-5.57
-8.02
-10.52
-13.33
-16.66
-20.52
-24.62
-28.28
-30.6
-30.7
-28.02
-22.57
-15
-6.4
2.04
9.34
14.95
18.79
21.08
22.12
22.19
21.42
19.95
17.94
15.73
13.73
12.35
11.84
12.19
13.19
14.52
15.86
17
17.82
18.21
18.05
17.11
15.24
12.37
8.65
4.44
0.23
-3.5
-6.47
-8.62
-10.24
-11.85
-14
-17.19
-21.55
-26.77
-32.05
-36.27
-38.19
-36.86
-31.94
-23.95
-14.1
-3.98
4.99
11.93
16.69
19.72
21.58
22.6
22.81
22.02
20.12
17.38
14.42
11.99
10.73
10.82
11.99
13.65
15.11
15.93
16.05
15.7
15.21
14.78
14.29
13.32
11.42
8.34
4.33
0.03
-3.72
-6.36
-7.8
-8.49
-9.12
-10.44
-12.86
-16.44
-20.94
-25.77
-30.16
-33.14
-33.75
-31.36
-25.92
-18.09
-9.09
-0.34
7.09
12.67
16.45
18.74
19.85
19.85
18.71
16.5
13.52
10.4
7.89
6.61
6.82
8.27
10.41
12.52
14.05
14.79
14.93
14.8
14.68
14.61
14.38
13.66
12.21
9.96
7.04
3.69
0.17
-3.28
-6.43
-9.15
-11.35
-13.14
-14.78
-16.6
-18.88
-21.67
-24.72
-27.44
-29.09
-28.94
-26.49
-21.66
-14.89
-7.04
0.82
7.7
12.98
16.42
18.07
18.12
16.72
14.13
10.71
7.06
3.87
1.75
0.99
1.51
2.96
4.84
6.78
8.55
10.05
11.22
11.97
12.14
11.59
10.24
8.09
5.31
2.13
-1.19
-4.4
-7.35
-10.03
-12.57
-15.25
-18.39
-22.08
-26.02
-29.47
-31.35
-30.68
-26.95
-20.41
-12.02
-3.12
5.06
11.73
16.64
19.95
21.89
22.57
21.99
20.1
17.05
13.22
9.16
5.52
2.83
1.42
1.33
2.31
3.95
5.74
7.25
8.16
8.35
7.84
6.74
5.2
3.37
1.38
-0.67
-2.71
-4.74
-6.85
-9.26
-12.23
-15.92
-20.16
-24.38
-27.59
-28.65
-26.74
-21.67
-14.14
-5.49
2.71
9.21
13.42
15.47
15.99
15.73
15.17
14.53
13.73
12.64
11.22
9.58
7.88
6.35
5.17
4.45
4.29
4.75
5.78
7.18
8.58
9.5
9.47
8.26
5.93
2.87
-0.42
-3.51
-6.19
-8.55
-10.87
-13.51
-16.73
-20.59
-24.77
-28.57
-31.07
-31.37
-28.97
-23.94
-16.98
-9.13
-1.44
5.31
10.79
14.98
17.98
19.79
20.3
19.43
17.29
14.32
11.15
8.42
6.54
5.6
5.38
5.57
5.93
6.37
6.92
7.59
8.22
8.6
8.51
7.83
6.61
4.96
2.9
0.43
-2.55
-5.99
-9.74
-13.54
-17.2
-20.64
-23.88
-26.94
-29.51
-30.93
-30.41
-27.28
-21.45
-13.57
-4.84
3.29
9.68
13.83
15.83
16.19
15.52
14.23
12.5
10.44
8.19
6.02
4.3
3.34
3.33
4.24
5.84
7.8
9.77
11.42
12.51
12.87
12.35
10.82
8.31
4.93
1.03
-2.94
-6.58
-9.6
-12.09
-14.4
-17.01
-20.28
-24.27
-28.58
-32.46
-34.92
-35.05
-32.23
-26.44
-18.3
-9
0.08
7.71
13.17
16.36
17.67
17.69
16.88
15.5
13.65
11.38
8.92
6.61
4.85
3.95
3.99
4.76
5.96
7.24
8.32
9.08
9.44
9.3
8.55
7.04
4.74
1.77
-1.54
-4.75
-7.49
-9.61
-11.32
-13.14
-15.61
-18.99
-23.03
-26.93
-29.5
-29.64
-26.75
-20.96
-13.2
-4.77
2.98
9.09
13.12
15.19
15.72
15.26
14.29
13.16
11.99
10.8
9.6
8.5
7.67
7.35
7.64
8.47
9.64
10.83
11.77
12.23
12.08
11.25
9.7
7.47
4.72
1.7
-1.28
-3.89
-5.95
-7.47
-8.69
-9.98
-11.8
-14.46
-17.99
-21.94
-25.44
-27.42
-26.96
-23.75
-18.18
-11.25
-4.16
2.1
7.01
10.55
12.93
14.37
14.95
14.62
13.36
11.35
9.07
7.07
5.89
5.79
6.71
8.31
10.12
11.69
12.72
13.19
13.22
13.01
12.62
11.98
10.9
9.26
7.13
4.76
2.47
0.45
-1.33
-3.12
-5.26
-7.96
-11.28
-15.14
-19.37
-23.69
-27.74
-30.89
-32.39
-31.55
-28.03
-22.05
-14.46
-6.47
0.73
6.3
10
12.08
13.09
13.54
13.64
13.31
12.27
10.41
7.96
5.53
3.88
3.55
4.65
6.74
9.13
11.14
12.38
12.81
12.7
12.39
12.12
11.91
11.58
10.84
9.45
7.26
4.37
1.02
-2.44
-5.65
-8.31
-10.38
-11.99
-13.52
-15.35
-17.81
-20.95
-24.42
-27.59
-29.63
-29.84
-27.83
-23.75
-18.15
-11.85
-5.62
0.01
4.86
8.91
12.18
14.51
15.65
15.4
13.87
11.52
9.03
7.05
5.94
5.68
6.05
6.77
7.6
8.45
9.28
10.06
10.74
11.25
11.44
11.12
10.05
8.08
5.22
1.75
-1.86
-5.09
-7.62
-9.43
-10.85
-12.34
-14.37
-17.11
-20.52
-24.3
-27.94
-30.81
-32.23
-31.59
-28.56
-23.25
-16.19
-8.33
-0.71
5.86
10.92
14.45
16.71
17.93
18.26
17.63
16.01
13.54
10.62
7.96
6.24
5.97
7.11
9.16
11.36
13.05
13.97
14.31
14.47
14.73
15.04
14.95
13.91
11.58
8.06
3.86
-0.33
-3.93
-6.72
-8.85
-10.73
-12.8
-15.38
-18.59
-22.22
-25.88
-28.95
-30.7
-30.43
-27.7
-22.52
-15.42
-7.43
0.3
6.78
11.52
14.55
16.2
16.87
16.82
16.15
14.92
13.26
11.45
9.83
8.64
8.03
8.04
8.58
9.53
10.66
11.73
12.45
12.63
12.17
11.09
9.38
7.05
4.11
0.74
-2.74
-5.89
-8.31
-9.87
-10.78
-11.53
-12.71
-14.8
-17.98
-22.05
-26.45
-30.27
-32.49
-32.13
-28.74
-22.51
-14.31
-5.53
2.5
8.83
13.12
15.58
16.68
16.91
16.57
15.8
14.65
13.2
11.63
10.2
9.14
8.65
8.73
9.19
9.78
10.3
10.75
11.25
11.96
12.85
13.59
13.62
12.44
9.89
6.22
2.03
-2
-5.47
-8.26
-10.51
-12.42
-14.14
-15.82
-17.69
-20.06
-23.19
-26.96
-30.69
-33.23
-33.39
-30.46
-24.52
-16.55
-7.86
0.3
7.19
12.62
16.58
19.13
20.11
19.45
17.3
14.24
11.06
8.53
7.14
6.92
7.56
8.63
9.67
10.41
10.75
10.82
10.87
11.16
11.74
12.37
12.47
11.45
8.96
5.22
0.93
-3.02
-5.94
-7.71
-8.74
-9.75
-11.33
-13.8
-17.13
-21.09
-25.31
-29.31
-32.4
-33.72
-32.51
-28.4
-21.72
-13.46
-4.89
2.76
8.81
13.09
15.77
17.17
17.53
16.96
15.6
13.67
11.57
9.72
8.44
7.87
7.84
8.07
8.23
8.17
8
7.9
8.06
8.42
8.64
8.27
6.93
4.58
1.5
-1.8
-4.92
-7.6
-9.83
-11.81
-13.78
-16.05
-18.88
-22.36
-26.29
-30.01
-32.51
-32.63
-29.63
-23.51
-15.11
-5.89
2.63
9.37
13.9
16.44
17.5
17.57
16.95
15.73
14.01
11.93
9.72
7.69
6.17
5.32
5.18
5.61
6.35
7.17
7.89
8.44
8.77
8.83
8.48
7.49
5.71
3.17
0.17
-2.79
-5.25
-7.02
-8.34
-9.78
-12.05
-15.6
-20.42
-25.88
-30.85
-34.01
-34.32
-31.22
-24.96
-16.38
-6.78
2.57
10.58
16.68
20.73
22.96
23.66
23.07
21.34
18.62
15.24
11.66
8.51
6.31
5.3
5.34
6
6.83
7.54
8.07
8.45
8.7
8.67
8.08
6.73
4.6
1.94
-0.82
-3.33
-5.51
-7.57
-9.89
-12.86
-16.7
-21.35
-26.47
-31.46
-35.47
-37.58
-36.99
-33.29
-26.72
-18.11
-8.78
-0.1
6.92
11.93
15.12
16.96
17.85
17.9
17
15.1
12.46
9.72
7.56
6.49
6.52
7.24
8.06
8.63
9
9.57
10.72
12.43
14.21
15.26
14.88
12.78
9.25
5.07
1.1
-2.05
-4.3
-6.09
-8.06
-10.84
-14.67
-19.44
-24.76
-30.03
-34.56
-37.57
-38.22
-35.84
-30.24
-21.89
-11.97
-2.03
6.55
13.02
17.37
20.08
21.66
22.29
21.81
19.97
16.79
12.73
8.62
5.32
3.38
2.86
3.33
4.25
5.22
6.17
7.28
8.7
10.33
11.75
12.35
11.62
9.44
6.11
2.27
-1.44
-4.69
-7.51
-10.28
-13.5
-17.49
-22.24
-27.37
-32.14
-35.59
-36.79
-35.1
-30.37
-23.05
-14.13
-4.82
3.66
10.43
15.13
17.81
18.8
18.42
16.97
14.74
12.05
9.37
7.2
5.93
5.67
6.2
7.1
7.96
8.6
9.09
9.6
10.19
10.68
10.68
9.78
7.81
4.85
1.3
-2.38
-5.87
-9.03
-12.03
-15.27
-19.15
-23.87
-29.19
-34.3
-38.01
-39.06
-36.63
-30.71
-22.08
-12.09
-2.15
6.6
13.53
18.42
21.34
22.43
21.93
20.18
17.65
14.82
12.1
9.81
8.1
7.03
6.59
6.73
7.41
8.53
9.93
11.35
12.39
12.64
11.79
9.73
6.71
3.24
-0.14
-3.05
-5.44
-7.64
-10.15
-13.46
-17.81
-23.16
-28.97
-34.34
-38.12
-39.11
-36.54
-30.3
-21.08
-10.22
0.67
10.18
17.44
22.19
24.68
25.32
24.58
22.79
20.36
17.71
15.38
13.83
13.28
13.68
14.64
15.77
16.79
17.68
18.6
19.69
20.78
21.37
20.83
18.65
14.82
9.81
4.4
-0.57
-4.62
-7.66
-9.97
-12
-14.16
-16.8
-20.16
-24.37
-29.32
-34.44
-38.72
-40.86
-39.71
-34.85
-26.86
-17.16
-7.45
0.94
7.5
12.53
16.65
20.33
23.47
25.5
25.82
24.23
21.23
17.79
15
13.57
13.69
14.98
16.83
18.71
20.34
21.66
22.71
23.48
23.79
23.39
22.07
19.79
16.76
13.33
9.84
6.55
3.5
0.61
-2.25
-5.15
-8.05
-10.81
-13.39
-15.89
-18.55
-21.71
-25.55
-29.84
-33.89
-36.64
-37.07
-34.63
-29.47
-22.34
-14.28
-6.19
1.34
8.04
13.7
18.05
20.68
21.34
20.09
17.44
14.23
11.32
9.36
8.62
9.05
10.38
12.17
14.01
15.48
16.33
16.47
16.01
15.14
14.02
12.63
10.85
8.53
5.65
2.38
-0.96
-4.01
-6.58
-8.64
-10.35
-12.03
-14.09
-16.92
-20.77
-25.52
-30.54
-34.75
-36.91
-35.95
-31.52
-24.03
-14.57
-4.47
5.02
13.06
19.15
23.15
25.11
25.28
24.02
21.84
19.33
16.98
15.15
13.97
13.39
13.26
13.44
13.89
14.55
15.34
16.1
16.63
16.77
16.39
15.43
13.86
11.64
8.72
5.2
1.33
-2.5
-5.92
-8.77
-11.22
-13.76
-16.93
-21.05
-25.91
-30.67
-34.09
-34.87
-32.18
-25.99
-17.16
-7.2
2.3
10.14
15.86
19.6
21.84
22.94
23
21.96
19.84
16.99
14
11.56
10.12
9.77
10.23
11.15
12.25
13.36
14.45
15.45
16.22
16.51
16.05
14.64
12.17
8.74
4.57
0.05
-4.32
-8.07
-10.95
-13.08
-14.96
-17.29
-20.62
-25.03
-30
-34.4
-37.01
-36.8
-33.34
-26.93
-18.44
-9.02
0.23
8.47
15.18
20.04
22.92
23.83
22.93
20.63
17.51
14.25
11.41
9.36
8.22
7.92
8.31
9.22
10.48
11.89
13.25
14.43
15.38
16.08
16.48
16.41
15.62
13.94
11.37
8.15
4.64
1.12
-2.33
-5.83
-9.57
-13.72
-18.36
-23.41
-28.71
-33.81
-37.97
-40.14
-39.32
-34.95
-27.26
-17.34
-6.77
2.86
10.5
15.86
19.16
20.87
21.37
20.79
19.15
16.51
13.15
9.53
6.26
3.88
2.7
2.8
3.96
5.86
8.11
10.37
12.35
13.81
14.48
14.14
12.64
10.05
6.63
2.78
-1.03
-4.52
-7.59
-10.4
-13.28
-16.56
-20.4
-24.72
-29.01
-32.46
-34.12
-33.15
-29.14
-22.33
-13.55
-4.02
4.98
12.41
17.74
20.92
22.17
21.86
20.33
17.86
14.72
11.29
8.05
5.51
4.01
3.64
4.16
5.12
6.04
6.64
6.87
6.84
6.69
6.4
5.83
4.8
3.17
0.96
-1.66
-4.56
-7.65
-10.97
-14.66
-18.76
-23.1
-27.15
-30.13
-31.09
-29.29
-24.46
-17
-7.91
1.48
9.9
16.46
20.85
23.24
24.06
23.69
22.44
20.47
17.9
14.93
11.85
9.01
6.78
5.43
5.06
5.6
6.7
7.91
8.75
8.87
8.17
6.8
5.02
3.03
0.93
-1.28
-3.64
-6.15
-8.82
-11.72
-15.04
-18.86
-23.05
-26.99
-29.65
-29.88
-26.91
-20.77
-12.35
-3.17
5.29
11.97
16.59
19.38
20.79
21.17
20.66
19.29
17.18
14.64
12.09
9.94
8.42
7.61
7.45
7.79
8.47
9.31
10.09
10.55
10.53
9.87
8.53
6.52
3.91
0.85
-2.49
-5.92
-9.23
-12.36
-15.32
-18.28
-21.42
-24.84
-28.36
-31.46
-33.29
-32.9
-29.61
-23.34
-14.76
-5.12
4.16
11.94
17.62
21.18
22.92
23.18
22.21
20.21
17.44
14.31
11.33
8.92
7.38
6.71
6.78
7.32
8.08
8.86
9.56
10.11
10.49
10.65
10.54
9.98
8.77
6.78
4.06
0.91
-2.21
-4.88
-6.95
-8.67
-10.59
-13.27
-17
-21.56
-26.14
-29.58
-30.73
-28.91
-24.15
-17.12
-8.96
-0.9
6.14
11.64
15.53
17.98
19.21
19.34
18.42
16.48
13.77
10.75
8.03
6.21
5.63
6.31
7.91
9.96
11.99
13.72
15.01
15.72
15.7
14.71
12.63
9.5
5.68
1.58
-2.29
-5.61
-8.26
-10.26
-11.8
-13.21
-14.86
-17.1
-20.06
-23.48
-26.64
-28.63
-28.54
-25.9
-20.8
-13.91
-6.28
1.06
7.3
12.03
15.24
17.18
18.13
18.26
17.58
16.05
13.8
11.19
8.83
7.35
7.17
8.24
10.13
12.16
13.77
14.63
14.77
14.42
13.83
13.11
12.23
11.04
9.38
7.19
4.57
1.72
-1.11
-3.77
-6.25
-8.77
-11.65
-15.1
-19.12
-23.33
-27.06
-29.51
-30.02
-28.25
-24.25
-18.39
-11.29
-3.71
3.62
9.99
14.92
18.14
19.69
19.77
18.71
16.87
14.56
12.15
10.04
8.64
8.2
8.73
9.92
11.24
12.17
12.41
12
11.27
10.67
10.47
10.65
10.86
10.58
9.35
7.07
3.99
0.62
-2.53
-5.2
-7.46
-9.67
-12.21
-15.36
-19.14
-23.33
-27.54
-31.25
-33.83
-34.64
-33.14
-29.11
-22.78
-14.86
-6.42
1.43
7.9
12.58
15.52
16.97
17.21
16.42
14.76
12.45
9.89
7.64
6.14
5.67
6.15
7.25
8.54
9.71
10.58
11.14
11.41
11.43
11.16
10.54
9.49
7.92
5.83
3.27
0.43
-2.42
-4.98
-7.05
-8.61
-9.81
-10.94
-12.25
-13.98
-16.23
-18.88
-21.66
-24.06
-25.48
-25.34
-23.27
-19.31
-13.85
-7.63
-1.47
3.94
8.18
11.09
12.67
13.07
12.42
10.97
8.99
6.9
5.07
3.79
3.14
3.01
3.16
3.4
3.7
4.16
4.96
6.15
7.62
8.97
9.7
9.37
7.81
5.22
2.14
-0.76
-2.95
-4.3
-5.09
-5.91
-7.35
-9.82
-13.33
-17.53
-21.79
-25.3
-27.26
-27.03
-24.38
-19.52
-13.17
-6.31
0.06
5.25
8.94
11.23
12.39
12.8
12.75
12.45
12.07
11.62
11.06
10.27
9.21
7.98
6.79
5.96
5.74
6.19
7.15
8.26
9.09
9.28
8.63
7.15
5.05
2.61
0.05
-2.45
-4.77
-6.8
-8.46
-9.76
-10.84
-12.07
-13.84
-16.35
-19.38
-22.15
-23.64
-22.94
-19.69
-14.27
-7.65
-1.02
4.61
8.68
11.13
12.25
12.37
11.8
10.74
9.32
7.71
6.19
5.09
4.65
4.95
5.83
7
8.15
9.07
9.72
10.16
10.44
10.53
10.31
9.59
8.25
6.32
3.97
1.44
-1
-3.16
-5
-6.58
-8.08
-9.76
-11.8
-14.33
-17.27
-20.45
-23.55
-26.13
-27.68
-27.75
-26.02
-22.44
-17.34
-11.3
-5.06
0.74
5.67
9.5
12.15
13.61
13.86
12.91
10.92
8.22
5.23
2.49
0.44
-0.62
-0.58
0.46
2.24
4.33
6.27
7.67
8.3
8.19
7.55
6.61
5.52
4.27
2.79
1.03
-0.9
-2.76
-4.34
-5.67
-6.96
-8.54
-10.66
-13.23
-15.91
-18.28
-19.92
-20.65
-20.43
-19.22
-16.98
-13.78
-9.81
-5.54
-1.56
1.65
3.84
5.11
5.68
5.76
5.39
4.51
3.14
1.42
-0.33
-1.76
-2.66
-2.95
-2.68
-1.91
-0.65
1.09
3.15
5.18
6.69
7.3
6.9
5.73
4.21
2.8
1.68
0.79
-0.12
-1.37
-3.26
-6.03
-9.77
-14.31
-19.08
-23.09
-25.23
-24.6
-21.05
-15.26
-8.51
-2.18
2.77
6.06
7.92
8.86
9.27
9.3
8.94
8.11
6.87
5.37
3.92
2.75
2.03
1.83
2.12
2.78
3.71
4.76
5.76
6.54
6.86
6.54
5.5
3.79
1.62
-0.74
-3.1
-5.43
-7.81
-10.38
-13.22
-16.3
-19.47
-22.4
-24.63
-25.61
-24.83
-22
-17.26
-11.18
-4.74
0.97
5.12
7.42
8.12
7.91
7.49
7.36
7.55
7.81
7.74
7.09
5.87
4.36
2.99
2.12
1.98
2.55
3.58
4.69
5.47
5.61
5.02
3.78
2.1
0.24
-1.63
-3.43
-5.16
-6.89
-8.78
-11.05
-13.88
-17.29
-20.97
-24.27
-26.28
-26.18
-23.54
-18.56
-12
-4.98
1.39
6.34
9.62
11.46
12.35
12.77
12.92
12.73
12.04
10.75
9.08
7.5
6.51
6.4
7.03
8
8.82
9.17
8.99
8.47
7.79
7.06
6.17
4.94
3.27
1.15
-1.17
-3.38
-5.19
-6.46
-7.37
-8.34
-9.9
-12.44
-15.93
-19.92
-23.58
-26.02
-26.52
-24.77
-20.97
-15.71
-9.82
-4.07
0.95
4.92
7.79
9.62
10.51
10.57
9.92
8.72
7.29
5.98
5.09
4.8
5.07
5.71
6.52
7.36
8.16
8.9
9.52
9.93
9.98
9.54
8.57
7.15
5.41
3.49
1.46
-0.63
-2.71
-4.69
-6.51
-8.13
-9.72
-11.59
-14.01
-17.03
-20.33
-23.14
-24.56
-23.89
-20.93
-16.07
-10.2
-4.33
0.72
4.48
6.88
8.07
8.31
7.88
6.96
5.72
4.26
2.72
1.23
-0.03
-0.84
-0.99
-0.44
0.75
2.36
4.06
5.52
6.43
6.6
5.96
4.58
2.71
0.62
-1.36
-3.06
-4.46
-5.69
-6.9
-8.24
-9.83
-11.75
-14.09
-16.74
-19.33
-21.21
-21.64
-20.07
-16.43
-11.2
-5.18
0.71
5.83
9.9
12.95
15.13
16.54
17.18
16.93
15.7
13.56
10.82
7.97
5.56
4.03
3.58
4.11
5.26
6.59
7.68
8.19
8.02
7.14
5.66
3.76
1.65
-0.56
-2.8
-5.1
-7.56
-10.26
-13.24
-16.46
-19.74
-22.82
-25.24
-26.41
-25.74
-22.83
-17.69
-10.74
-2.85
4.89
11.44
16.08
18.6
19.29
18.76
17.66
16.44
15.2
13.77
11.92
9.69
7.4
5.59
4.72
4.93
5.92
7.2
8.38
9.22
9.71
9.83
9.39
8.17
6.07
3.24
0.15
-2.71
-5.04
-6.9
-8.67
-10.82
-13.66
-17.24
-21.29
-25.18
-28.09
-29.12
-27.56
-23.22
-16.46
-8.23
0.18
7.63
13.32
16.99
18.76
19.03
18.18
16.53
14.35
11.88
9.39
7.22
5.71
5.11
5.53
6.78
8.54
10.4
12.02
13.18
13.75
13.65
12.81
11.27
9.12
6.63
4.12
1.84
-0.11
-1.87
-3.64
-5.73
-8.31
-11.48
-15.19
-19.23
-23.12
-26.14
-27.46
-26.38
-22.72
-16.88
-9.86
-2.89
3.05
7.5
10.62
12.87
14.68
16.14
16.97
16.81
15.48
13.22
10.6
8.38
7.04
6.68
7.03
7.65
8.21
8.64
9.03
9.44
9.75
9.69
8.95
7.36
4.97
2.05
-1.11
-4.31
-7.49
-10.71
-14.02
-17.5
-21.15
-24.88
-28.39
-31.17
-32.51
-31.72
-28.46
-22.92
-15.89
-8.44
-1.61
3.98
8.14
11.04
12.95
13.96
14.04
13.08
11.11
8.41
5.51
3.11
1.77
1.83
3.15
5.2
7.27
8.72
9.26
9.01
8.28
7.42
6.54
5.56
4.28
2.56
0.38
-2.21
-5.2
-8.67
-12.73
-17.31
-22.04
-26.18
-28.78
-29.03
-26.47
-21.26
-14.12
-6.15
1.5
7.89
12.5
15.24
16.31
16.09
14.89
13.02
10.68
8.13
5.69
3.75
2.65
2.59
3.47
4.96
6.56
7.82
8.47
8.51
8.11
7.51
6.79
5.93
4.77
3.18
1.13
-1.32
-4.15
-7.39
-11.14
-15.35
-19.68
-23.46
-25.78
-25.79
-23.1
-17.97
-11.28
-4.21
2.13
7.14
10.71
13.12
14.72
15.63
15.71
14.83
13.06
10.87
9
8.14
8.52
9.89
11.62
13.14
14.11
14.48
14.31
13.59
12.26
10.29
7.92
5.52
3.44
1.78
0.28
-1.49
-3.88
-6.98
-10.64
-14.6
-18.63
-22.48
-25.73
-27.78
-27.88
-25.47
-20.57
-13.81
-6.27
0.91
6.94
11.59
15.07
17.69
19.59
20.64
20.59
19.32
17.04
14.27
11.67
9.77
8.84
8.8
9.41
10.35
11.45
12.59
13.68
14.68
15.46
15.81
15.5
14.34
12.23
9.23
5.58
1.75
-1.79
-4.68
-6.83
-8.51
-10.17
-12.34
-15.32
-19.01
-22.83
-25.97
-27.6
-27.14
-24.56
-20.24
-14.85
-9.05
-3.34
2.01
6.83
10.98
14.25
16.43
17.43
17.26
16.19
14.61
12.91
11.47
10.52
10.07
10.05
10.34
10.89
11.66
12.59
13.46
13.89
13.53
12.16
9.9
7.15
4.4
2.04
0.21
-1.21
-2.43
-3.62
-4.95
-6.49
-8.34
-10.66
-13.56
-17.04
-20.85
-24.45
-27.05
-27.86
-26.35
-22.51
-16.82
-10.19
-3.52
2.54
7.67
11.79
14.88
16.79
17.35
16.43
14.19
11.07
7.74
4.94
3.23
2.93
4
6.08
8.7
11.37
13.73
15.49
16.46
16.48
15.43
13.35
10.48
7.28
4.23
1.64
-0.44
-2.24
-4.07
-6.19
-8.67
-11.4
-14.25
-17.04
-19.61
-21.64
-22.7
-22.33
-20.23
-16.41
-11.25
-5.4
0.4
5.55
9.74
12.91
15.13
16.48
16.94
16.46
15.11
13.12
10.96
9.13
8.01
7.73
8.16
8.99
10
11.03
12.05
13.06
13.9
14.27
13.79
12.22
9.57
6.17
2.58
-0.64
-3.15
-5.02
-6.62
-8.45
-10.86
-13.84
-17.09
-20.13
-22.49
-23.88
-24.09
-23.01
-20.49
-16.53
-11.32
-5.36
0.69
6.14
10.48
13.49
15.24
15.93
15.81
15.14
14.17
13.12
12.16
11.39
10.88
10.67
10.8
11.31
12.12
13.06
13.85
14.23
14
13.11
11.65
9.74
7.48
4.97
2.32
-0.22
-2.38
-3.99
-5.1
-6.03
-7.24
-9.12
-11.79
-15.08
-18.54
-21.65
-23.88
-24.77
-23.91
-21.07
-16.29
-10
-3.05
3.45
8.57
11.78
13.14
13.12
12.28
11.05
9.69
8.32
7.09
6.18
5.81
6.06
6.85
7.97
9.13
10.14
10.86
11.29
11.42
11.23
10.62
9.51
7.84
5.65
3.07
0.3
-2.43
-4.85
-6.75
-8.06
-8.84
-9.4
-10.12
-11.47
-13.72
-16.79
-20.24
-23.32
-25.28
-25.58
-24.06
-20.95
-16.66
-11.66
-6.42
-1.37
3.06
6.5
8.69
9.64
9.66
9.2
8.63
8.18
7.85
7.56
7.28
7.16
7.38
8.02
8.92
9.76
10.16
9.92
9.19
8.27
7.5
6.84
6.03
4.68
2.59
-0.03
-2.71
-4.95
-6.57
-7.79
-9.13
-11.11
-13.89
-17.19
-20.31
-22.47
-23.09
-21.96
-19.2
-15.2
-10.48
-5.55
-0.9
3.14
6.46
9.17
11.38
13.13
14.25
14.44
13.42
11.18
8.08
4.81
2.12
0.6
0.41
1.32
2.8
4.31
5.45
6.07
6.17
5.84
5.12
4.01
2.48
0.56
-1.61
-3.73
-5.5
-6.81
-7.84
-9.02
-10.91
-13.81
-17.56
-21.38
-24.17
-24.91
-23.06
-18.78
-12.88
-6.45
-0.45
4.49
8.18
10.65
12
12.3
11.59
10
7.84
5.61
3.8
2.75
2.53
2.94
3.72
4.65
5.66
6.78
7.98
9.13
9.96
10.22
9.77
8.71
7.19
5.43
3.58
1.75
0.09
-1.29
-2.4
-3.55
-5.26
-8.03
-12
-16.73
-21.22
-24.28
-25.04
-23.19
-19.13
-13.65
-7.71
-2.11
2.59
6.13
8.52
9.91
10.58
10.74
10.49
9.74
8.41
6.5
4.3
2.29
0.98
0.71
1.47
2.97
4.76
6.43
7.74
8.53
8.76
8.33
7.15
5.21
2.61
-0.33
-3.22
-5.76
-7.83
-9.63
-11.53
-13.87
-16.84
-20.26
-23.64
-26.26
-27.42
-26.59
-23.58
-18.69
-12.56
-6.06
0.01
5.04
8.74
11.06
12.11
12.05
11.11
9.61
7.99
6.65
5.89
5.72
5.87
5.96
5.74
5.2
4.57
4.13
4.04
4.23
4.4
4.26
3.67
2.63
1.28
-0.26
-1.97
-3.86
-5.98
-8.32
-10.89
-13.62
-16.45
-19.28
-21.75
-23.34
-23.5
-21.85
-18.42
-13.69
-8.41
-3.35
0.98
4.41
7.04
9
10.35
11.06
11.04
10.22
8.65
6.53
4.18
2
0.45
-0.11
0.43
1.87
3.67
5.15
5.72
5.12
3.45
1.17
-1.11
-2.92
-4.07
-4.65
-5.02
-5.61
-6.78
-8.72
-11.45
-14.78
-18.34
-21.49
-23.51
-23.71
-21.74
-17.69
-12.11
-5.92
-0.02
4.94
8.73
11.43
13.21
14.1
14.01
12.73
10.3
7.07
3.78
1.31
0.31
1
3.06
5.8
8.4
10.23
11.05
10.87
9.9
8.35
6.4
4.22
1.92
-0.4
-2.61
-4.64
-6.44
-8.11
-9.84
-11.89
-14.51
-17.71
-21.14
-24
-25.29
-24.14
-20.22
-13.94
-6.4
1.06
7.31
11.76
14.49
15.88
16.42
16.37
15.78
14.61
12.98
11.24
9.85
9.2
9.36
10.09
10.93
11.44
11.42
10.97
10.31
9.71
9.2
8.6
7.65
6.13
4.01
1.42
-1.38
-4.14
-6.7
-8.98
-11.01
-12.93
-14.96
-17.37
-20.26
-23.41
-26.2
-27.67
-26.88
-23.4
-17.5
-10.23
-2.99
3.08
7.4
10.15
11.93
13.32
14.49
15.2
14.97
13.57
11.19
8.41
6.09
4.89
5.04
6.32
8.17
10
11.38
12.21
12.6
12.75
12.77
12.59
12
10.87
9.18
7.11
4.93
2.9
1.14
-0.4
-1.93
-3.75
-6.11
-9.16
-12.82
-16.85
-20.91
-24.59
-27.5
-29.23
-29.41
-27.78
-24.33
-19.3
-13.21
-6.76
-0.62
4.75
9.08
12.32
14.49
15.62
15.74
14.92
13.35
11.32
9.26
7.64
6.87
7.15
8.41
10.31
12.33
13.97
14.9
15.05
14.55
13.61
12.37
10.82
8.89
6.44
3.5
0.33
-2.66
-5.04
-6.58
-7.37
-7.9
-8.85
-10.8
-13.99
-18.19
-22.73
-26.69
-29.1
-29.29
-26.99
-22.45
-16.34
-9.55
-2.97
2.74
7.29
10.67
12.98
14.32
14.69
14.08
12.62
10.65
8.72
7.48
7.33
8.36
10.18
12.23
13.99
15.19
15.84
16.14
16.25
16.2
15.81
14.8
12.93
10.14
6.62
2.77
-0.93
-4.08
-6.5
-8.27
-9.72
-11.25
-13.22
-15.78
-18.82
-21.87
-24.24
-25.09
-23.76
-20.06
-14.4
-7.71
-1.09
4.57
8.91
12.05
14.35
16.08
17.21
17.48
16.62
14.71
12.2
9.8
8.17
7.67
8.24
9.52
11.07
12.56
13.89
15.07
16.07
16.78
16.95
16.32
14.74
12.21
8.94
5.29
1.7
-1.39
-3.68
-5.14
-5.98
-6.7
-7.84
-9.81
-12.71
-16.34
-20.21
-23.65
-25.97
-26.54
-24.97
-21.24
-15.81
-9.46
-3.13
2.45
6.92
10.34
12.97
15.04
16.54
17.3
17.12
16.04
14.36
12.59
11.17
10.36
10.11
10.22
10.51
10.85
11.3
11.9
12.62
13.29
13.64
13.46
12.6
11.11
9.1
6.76
4.25
1.68
-0.83
-3.16
-5.15
-6.67
-7.68
-8.33
-8.95
-10.03
-11.96
-14.94
-18.74
-22.64
-25.6
-26.54
-24.77
-20.21
-13.52
-5.86
1.47
7.44
11.47
13.49
13.83
12.91
11.19
9.1
7.05
5.42
4.44
4.15
4.33
4.65
4.8
4.71
4.52
4.52
4.98
5.93
7.17
8.27
8.81
8.46
7.18
5.12
2.55
-0.2
-2.84
-5.12
-6.92
-8.29
-9.4
-10.5
-11.89
-13.79
-16.27
-19.18
-22.13
-24.46
-25.47
-24.46
-21.1
-15.5
-8.34
-0.69
6.23
11.43
14.42
15.3
14.61
13.08
11.29
9.58
8.03
6.59
5.24
4.13
3.46
3.42
4.01
5.07
6.26
7.27
7.84
7.89
7.45
6.64
5.6
4.4
3.06
1.49
-0.32
-2.33
-4.38
-6.33
-8.11
-9.91
-12.01
-14.66
-17.79
-20.82
-22.86
-22.98
-20.69
-16.23
-10.4
-4.33
1.05
5.29
8.4
10.61
12.12
12.9
12.79
11.69
9.75
7.39
5.16
3.46
2.56
2.41
2.89
3.79
4.91
6.06
7.03
7.59
7.59
6.94
5.71
4.04
2.19
0.39
-1.21
-2.54
-3.72
-4.98
-6.64
-8.97
-12.06
-15.69
-19.28
-21.96
-22.86
-21.41
-17.52
-11.73
-4.98
1.68
7.39
11.65
14.38
15.73
15.96
15.31
13.97
12.18
10.22
8.35
6.8
5.71
5.06
4.79
4.79
4.93
5.12
5.25
5.23
5.02
4.68
4.3
3.91
3.44
2.67
1.35
-0.61
-3.01
-5.46
-7.56
-9.17
-10.51
-12.04
-14.19
-17
-20.02
-22.39
-23.2
-21.76
-17.95
-12.23
-5.53
1.06
6.63
10.65
13.01
14
14.04
13.51
12.64
11.53
10.25
8.95
7.88
7.26
7.2
7.51
7.85
7.85
7.36
6.54
5.76
5.39
5.56
6
6.25
5.85
4.6
2.68
0.43
-1.78
-3.73
-5.44
-7.05
-8.79
-10.88
-13.47
-16.57
-19.94
-23.03
-25.12
-25.52
-23.81
-20.04
-14.78
-8.88
-3.18
1.7
5.51
8.23
10.03
11.03
11.32
10.96
10.04
8.68
7.07
5.43
4.02
3.03
2.66
2.95
3.81
5.01
6.26
7.27
7.86
7.9
7.39
6.36
4.88
3.07
1.09
-0.95
-3
-5.05
-7.09
-9.1
-11.07
-13.04
-15.15
-17.56
-20.2
-22.7
-24.36
-24.37
-22.17
-17.79
-11.85
-5.37
0.72
5.78
9.57
12.16
13.67
14.22
13.91
12.88
11.41
9.79
8.29
7.04
6.08
5.38
4.98
4.91
5.19
5.72
6.23
6.37
5.91
4.83
3.34
1.81
0.54
-0.38
-1.06
-1.79
-2.88
-4.55
-6.93
-10.07
-13.89
-18.15
-22.29
-25.53
-26.98
-25.96
-22.33
-16.55
-9.63
-2.79
2.99
7.18
9.78
11.17
11.84
12.16
12.23
11.91
10.99
9.39
7.3
5.18
3.61
3.04
3.62
5.14
7.16
9.17
10.79
11.77
11.98
11.3
9.72
7.34
4.41
1.31
-1.59
-4.07
-6.12
-7.94
-9.72
-11.69
-13.99
-16.57
-19.22
-21.54
-22.99
-23.03
-21.3
-17.79
-12.92
-7.28
-1.55
3.73
8.23
11.77
14.34
15.93
16.65
16.65
16.14
15.27
14.23
13.13
12.09
11.24
10.67
10.41
10.36
10.41
10.5
10.53
10.54
10.49
10.32
9.87
8.97
7.59
5.79
3.73
1.5
-0.88
-3.42
-6.1
-8.77
-11.16
-13.08
-14.57
-15.94
-17.67
-20.02
-22.82
-25.35
-26.65
-25.84
-22.56
-17.2
-10.68
-4.22
1.15
4.85
6.85
7.6
7.76
7.89
8.18
8.51
8.56
8.18
7.44
6.77
6.6
7.12
8.15
9.26
10.11
10.6
10.98
11.55
12.46
13.53
14.22
13.98
12.39
9.51
5.75
1.77
-1.77
-4.5
-6.4
-7.72
-8.88
-10.23
-11.99
-14.2
-16.76
-19.4
-21.67
-22.92
-22.49
-19.94
-15.28
-9.05
-2.24
4.11
9.21
12.77
14.93
16.01
16.31
15.91
14.83
13.09
10.87
8.53
6.46
4.93
4.05
3.76
3.94
4.5
5.32
6.27
7.15
7.77
7.94
7.56
6.62
5.16
3.3
1.22
-0.79
-2.5
-3.84
-4.96
-6.26
-8.15
-10.85
-14.27
-18.05
-21.69
-24.7
-26.63
-27
-25.34
-21.4
-15.32
-7.9
-0.37
5.96
10.26
12.41
13.01
12.91
12.81
12.93
13.03
12.8
12.11
11.19
10.4
9.96
9.83
9.72
9.4
8.84
8.33
8.21
8.63
9.45
10.19
10.38
9.71
8.17
5.97
3.48
1.06
-1.08
-2.85
-4.39
-6.01
-8.05
-10.76
-14.09
-17.57
-20.46
-21.91
-21.27
-18.36
-13.47
-7.29
-0.68
5.54
10.7
14.41
16.57
17.28
16.76
15.38
13.49
11.41
9.38
7.57
6.05
4.88
4.12
3.83
4.07
4.78
5.76
6.8
7.65
8.16
8.23
7.85
7.01
5.74
4.11
2.31
0.58
-0.9
-2.11
-3.24
-4.66
-6.78
-9.82
-13.7
-17.97
-21.83
-24.43
-24.97
-23.04
-18.72
-12.63
-5.76
0.8
6.18
9.93
12.01
12.72
12.49
11.66
10.44
8.97
7.38
5.89
4.73
4.11
4.1
4.53
5.11
5.56
5.77
5.88
6.11
6.62
7.3
7.81
7.7
6.68
4.81
2.42
-0.01
-2.15
-3.9
-5.41
-6.91
-8.58
-10.54
-12.86
-15.54
-18.42
-21.16
-23.17
-23.73
-22.3
-18.66
-13.2
-6.76
-0.32
5.29
9.62
12.61
14.44
15.35
15.54
15.06
13.92
12.14
9.85
7.24
4.65
2.42
0.9
0.27
0.55
1.61
3.09
4.57
5.55
5.72
4.89
3.16
0.84
-1.64
-3.89
-5.66
-6.99
-8.07
-9.19
-10.6
-12.42
-14.61
-16.91
-18.9
-20.02
-19.72
-17.62
-13.6
-8.04
-1.67
4.57
9.81
13.52
15.59
16.28
16.01
15.12
13.75
11.94
9.69
7.16
4.73
2.8
1.75
1.69
2.5
3.83
5.24
6.32
6.81
6.64
5.95
4.95
3.87
2.83
1.8
0.65
-0.7
-2.34
-4.26
-6.52
-9.16
-12.19
-15.43
-18.35
-20.17
-20.11
-17.69
-13.08
-7.06
-0.77
4.67
8.59
10.92
12.11
12.71
13.11
13.23
12.76
11.36
9.02
6.17
3.51
1.78
1.34
2.1
3.5
4.89
5.75
5.88
5.39
4.52
3.46
2.28
0.9
-0.75
-2.62
-4.53
-6.3
-7.82
-9.26
-10.95
-13.2
-16.05
-18.98
-21.11
-21.46
-19.43
-15.08
-9.19
-2.91
2.65
6.77
9.3
10.39
10.36
9.52
8.14
6.51
5
3.95
3.49
3.51
3.68
3.76
3.68
3.61
3.75
4.22
4.85
5.31
5.29
4.6
3.32
1.7
-0.05
-1.75
-3.38
-4.98
-6.62
-8.38
-10.38
-12.71
-15.36
-18.18
-20.72
-22.38
-22.61
-21.16
-18.11
-13.89
-9.08
-4.27
0.14
3.93
6.98
9.2
10.48
10.71
9.87
8.16
5.99
3.85
2.2
1.24
0.98
1.25
1.77
2.38
2.95
3.43
3.68
3.58
3.03
2.05
0.87
-0.22
-1.06
-1.68
-2.36
-3.42
-5.11
-7.4
-10.04
-12.69
-14.99
-16.7
-17.63
-17.65
-16.57
-14.26
-10.66
-6.04
-0.88
4.07
8.08
10.66
11.71
11.52
10.64
9.6
8.74
8.14
7.63
6.99
6.11
5.06
4.08
3.48
3.42
3.83
4.47
4.96
5.02
4.54
3.65
2.57
1.49
0.5
-0.47
-1.48
-2.57
-3.79
-5.32
-7.39
-10.24
-13.77
-17.49
-20.48
-21.71
-20.45
-16.58
-10.74
-4.02
2.4
7.66
11.44
13.89
15.4
16.31
16.79
16.83
16.4
15.55
14.5
13.53
12.92
12.74
12.85
13
12.93
12.5
11.74
10.79
9.78
8.82
7.86
6.75
5.26
3.26
0.77
-1.94
-4.45
-6.36
-7.49
-8.02
-8.4
-9.15
-10.68
-13.06
-16.04
-19.15
-21.64
-22.77
-21.99
-19.07
-14.29
-8.39
-2.31
3.07
7.2
9.94
11.46
12.11
12.17
11.79
11.02
9.92
8.67
7.52
6.82
6.79
7.46
8.64
10
11.16
11.9
12.11
11.9
11.45
10.9
10.27
9.53
8.54
7.19
5.41
3.19
0.63
-2.12
-4.8
-7.11
-8.84
-9.92
-10.49
-10.91
-11.66
-13.18
-15.63
-18.81
-22.11
-24.66
-25.64
-24.46
-21.02
-15.68
-9.2
-2.46
3.68
8.64
12.13
14.14
14.89
14.71
13.91
12.74
11.4
10
8.72
7.71
7.13
7.08
7.49
8.17
8.93
9.56
9.96
10.16
10.12
9.71
8.68
6.86
4.32
1.42
-1.25
-3.18
-4.12
-4.28
-4.1
-4.11
-4.73
-6.16
-8.46
-11.48
-14.92
-18.24
-20.75
-21.7
-20.64
-17.57
-12.98
-7.68
-2.5
1.97
5.43
7.91
9.53
10.48
10.91
10.9
10.55
10.02
9.49
9.09
8.91
8.91
8.97
8.99
8.93
8.87
8.92
9.09
9.29
9.36
9.11
8.45
7.3
5.66
3.5
0.89
-1.93
-4.64
-6.89
-8.56
-9.8
-11.02
-12.67
-14.93
-17.58
-20.09
-21.71
-21.79
-19.95
-16.23
-11.08
-5.22
0.53
5.52
9.41
12.14
13.86
14.73
14.79
14.06
12.62
10.73
8.83
7.42
6.84
7.16
8.18
9.48
10.58
11.12
10.89
9.95
8.52
6.98
5.63
4.63
3.89
3.17
2.22
0.92
-0.69
-2.45
-4.18
-5.87
-7.64
-9.7
-12.19
-15.08
-18.09
-20.75
-22.57
-23.15
-22.27
-19.99
-16.5
-12.15
-7.35
-2.57
1.73
5.18
7.54
8.78
9.08
8.67
7.75
6.53
5.14
3.81
2.81
2.49
2.98
4.2
5.78
7.28
8.38
8.99
9.26
9.34
9.32
9
8.18
6.67
4.55
2.1
-0.32
-2.39
-4.03
-5.38
-6.77
-8.51
-10.79
-13.58
-16.61
-19.44
-21.52
-22.43
-21.84
-19.73
-16.3
-11.94
-7.13
-2.3
2.15
5.94
8.85
10.75
11.6
11.45
10.48
8.9
6.99
4.91
2.91
1.22
0.08
-0.28
0.19
1.38
3.01
4.67
6.02
6.86
7.18
7.04
6.55
5.73
4.55
2.94
0.87
-1.62
-4.43
-7.47
-10.72
-14.08
-17.45
-20.47
-22.62
-23.21
-21.72
-18.06
-12.75
-6.78
-1.25
2.99
5.75
7.32
8.29
9.05
9.64
9.81
9.32
8.18
6.74
5.52
4.93
5.02
5.51
5.96
6.03
5.63
4.93
4.19
3.65
3.35
3.21
3.08
2.76
2.12
1.02
-0.6
-2.83
-5.69
-9.17
-13.03
-16.79
-19.76
-21.17
-20.46
-17.5
-12.74
-7.06
-1.52
3.04
6.19
7.99
8.84
9.22
9.47
9.62
9.51
8.85
7.5
5.54
3.34
1.43
0.35
0.41
1.54
3.28
4.96
5.99
6.04
5.18
3.79
2.25
0.84
-0.36
-1.48
-2.7
-4.15
-5.95
-8.14
-10.77
-13.78
-16.93
-19.8
-21.82
-22.4
-21.15
-17.95
-13.11
-7.26
-1.26
4
7.9
10.24
11.24
11.37
11.11
10.64
9.92
8.81
7.33
5.77
4.64
4.39
5.13
6.55
8.03
8.94
8.93
8.13
6.98
6.01
5.53
5.42
5.24
4.41
2.55
-0.3
-3.68
-6.98
-9.77
-12.02
-14.07
-16.42
-19.26
-22.32
-24.83
-25.84
-24.71
-21.33
-16.19
-10.13
-4.02
1.51
6.09
9.63
12.1
13.47
13.79
13.2
11.95
10.36
8.75
7.39
6.47
6.13
6.42
7.21
8.21
9.08
9.54
9.49
9.01
8.23
7.27
6.11
4.72
3.08
1.37
-0.17
-1.34
-2.18
-2.96
-4.12
-6.06
-8.91
-12.52
-16.39
-19.89
-22.34
-23.19
-22.16
-19.25
-14.77
-9.25
-3.28
2.52
7.57
11.38
13.64
14.31
13.59
11.9
9.7
7.42
5.34
3.63
2.41
1.74
1.66
2.14
3.07
4.31
5.72
7.13
8.34
9.08
9.12
8.29
6.65
4.43
1.97
-0.51
-2.92
-5.31
-7.71
-10.15
-12.61
-15.07
-17.51
-19.79
-21.56
-22.31
-21.48
-18.75
-14.26
-8.6
-2.67
2.64
6.74
9.43
10.91
11.52
11.59
11.31
10.74
9.93
8.98
8.11
7.59
7.56
7.99
8.69
9.36
9.85
10.15
10.38
10.65
10.91
10.89
10.25
8.81
6.63
4.08
1.7
-0.1
-1.15
-1.72
-2.35
-3.68
-6.18
-9.92
-14.4
-18.74
-21.79
-22.6
-20.71
-16.36
-10.42
-4.07
1.65
6.12
9.31
11.52
13.14
14.3
14.9
14.71
13.61
11.79
9.67
7.81
6.62
6.27
6.67
7.54
8.58
9.59
10.51
11.35
12.12
12.66
12.66
11.77
9.78
6.78
3.22
-0.3
-3.2
-5.23
-6.51
-7.42
-8.48
-10.1
-12.42
-15.36
-18.57
-21.47
-23.4
-23.79
-22.3
-18.95
-14.16
-8.6
-3.04
1.83
5.65
8.33
10.07
11.23
12.1
12.67
12.8
12.21
10.86
9.06
7.45
6.72
7.24
8.88
10.98
12.84
13.96
14.31
14.22
14.08
14.05
13.96
13.4
11.96
9.52
6.22
2.51
-1.04
-3.99
-6.12
-7.53
-8.6
-9.76
-11.42
-13.74
-16.59
-19.57
-22.16
-23.82
-24.12
-22.8
-19.77
-15.26
-9.72
-3.78
1.87
6.7
10.39
12.82
14.02
14.09
13.13
11.33
8.96
6.47
4.29
2.81
2.26
2.68
3.9
5.65
7.57
9.28
10.56
11.33
11.64
11.61
11.31
10.7
9.64
8.04
5.9
3.41
0.83
-1.57
-3.61
-5.31
-6.86
-8.59
-10.87
-13.92
-17.64
-21.5
-24.6
-25.92
-24.82
-21.24
-15.75
-9.36
-3.07
2.38
6.6
9.47
11.01
11.3
10.56
9.15
7.54
6.18
5.34
5.04
5.17
5.53
5.99
6.53
7.16
7.93
8.83
9.86
10.97
12.02
12.74
12.78
11.84
9.81
6.85
3.34
-0.22
-3.41
-6.05
-8.16
-10
-11.84
-13.97
-16.49
-19.27
-21.9
-23.79
-24.27
-22.84
-19.39
-14.31
-8.35
-2.39
2.83
6.89
9.74
11.51
12.41
12.57
12.1
11.11
9.8
8.41
7.29
6.71
6.81
7.51
8.59
9.73
10.62
11.08
11.11
10.88
10.55
10.21
9.72
8.8
7.23
4.96
2.22
-0.61
-3.14
-5.16
-6.71
-8.02
-9.44
-11.24
-13.6
-16.39
-19.27
-21.65
-22.92
-22.55
-20.32
-16.44
-11.4
-5.88
-0.48
4.37
8.49
11.79
14.19
15.56
15.74
14.66
12.47
9.55
6.47
3.81
1.98
1.2
1.42
2.36
3.73
5.27
6.79
8.2
9.45
10.42
10.91
10.72
9.62
7.58
4.81
1.78
-0.96
-3.06
-4.51
-5.65
-6.99
-8.94
-11.56
-14.64
-17.82
-20.76
-23.23
-24.96
-25.63
-24.79
-22.12
-17.62
-11.76
-5.39
0.58
5.47
9.05
11.43
12.89
13.61
13.65
12.94
11.49
9.38
6.92
4.5
2.53
1.32
1.01
1.55
2.7
4.1
5.38
6.25
6.62
6.56
6.24
5.78
5.2
4.37
3.18
1.6
-0.17
-1.81
-3.07
-3.93
-4.66
-5.75
-7.7
-10.79
-14.85
-19.39
-23.55
-26.46
-27.38
-25.91
-22.13
-16.57
-10.02
-3.38
2.59
7.41
10.89
13.02
13.84
13.44
11.92
9.49
6.53
3.56
1.12
-0.39
-0.83
-0.35
0.67
1.84
2.87
3.6
4.01
4.15
4.07
3.78
3.27
2.5
1.47
0.15
-1.45
-3.27
-5.19
-7.11
-9.01
-11.05
-13.48
-16.46
-19.81
-22.9
-24.88
-24.96
-22.79
-18.62
-13.08
-7.04
-1.2
3.95
8.17
11.37
13.48
14.53
14.58
13.8
12.36
10.45
8.27
6.01
3.92
2.31
1.47
1.5
2.35
3.69
5.09
6.12
6.47
6.07
5.01
3.47
1.63
-0.34
-2.36
-4.38
-6.47
-8.82
-11.63
-14.97
-18.56
-21.7
-23.48
-23.03
-19.97
-14.68
-8.18
-1.73
3.63
7.48
9.96
11.53
12.58
13.17
13.12
12.17
10.35
8
5.72
4.1
3.42
3.63
4.36
5.2
5.87
6.31
6.56
6.61
6.42
5.88
4.97
3.76
2.47
1.18
-0.14
-1.72
-3.89
-6.86
-10.65
-14.97
-19.24
-22.69
-24.45
-23.82
-20.49
-14.76
-7.52
-0.06
6.4
11.08
13.85
15
15.11
14.59
13.66
12.48
11.19
10.01
9.26
9.07
9.37
9.91
10.37
10.53
10.38
10.02
9.57
9.07
8.37
7.29
5.65
3.47
0.95
-1.6
-3.94
-6.03
-8.03
-10.32
-13.16
-16.65
-20.48
-23.99
-26.37
-26.85
-25.02
-20.96
-15.24
-8.69
-2.2
3.47
7.91
10.94
12.67
13.34
13.25
12.63
11.66
10.47
9.16
7.89
6.86
6.32
6.37
6.89
7.53
7.87
7.61
6.72
5.48
4.19
3.08
2.09
1
-0.42
-2.17
-4.07
-5.82
-7.29
-8.68
-10.45
-13.06
-16.6
-20.59
-24.04
-25.86
-25.28
-22.1
-16.82
-10.39
-3.87
1.87
6.35
9.49
11.57
12.92
13.86
14.44
14.49
13.74
12.05
9.65
7.04
4.9
3.71
3.59
4.26
5.2
6.02
6.49
6.6
6.37
5.74
4.57
2.72
0.28
-2.54
-5.38
-8.07
-10.77
-13.85
-17.64
-22.07
-26.47
-29.67
-30.47
-28.14
-22.82
-15.49
-7.54
-0.27
5.59
9.89
12.94
15.03
16.24
16.45
15.44
13.27
10.26
7.04
4.22
2.27
1.29
1.17
1.58
2.2
2.81
3.23
3.39
3.29
2.96
2.36
1.42
-0.03
-2.19
-5.18
-8.96
-13.28
-17.72
-21.7
-24.52
-25.52
-24.2
-20.46
-14.63
-7.52
-0.1
6.74
12.47
16.94
20.24
22.49
23.64
23.52
22.02
19.19
15.46
11.46
7.93
5.4
4.09
3.86
4.27
4.8
5.02
4.83
4.37
3.94
3.66
3.43
2.85
1.45
-1
-4.39
-8.32
-12.35
-16.14
-19.53
-22.32
-24.2
-24.61
-23.04
-19.27
-13.58
-6.78
0.16
6.41
11.51
15.38
18.09
19.77
20.38
19.83
18.12
15.37
11.94
8.36
5.26
3.24
2.65
3.53
5.56
8.08
10.32
11.6
11.5
10.05
7.64
4.87
2.31
0.29
-1.21
-2.47
-4.03
-6.39
-9.84
-14.34
-19.4
-24.14
-27.48
-28.41
-26.38
-21.46
-14.41
-6.41
1.34
7.94
12.97
16.36
18.27
18.83
18.15
16.36
13.78
10.85
8.12
6.08
4.99
4.85
5.48
6.64
8.15
9.81
11.34
12.37
12.53
11.55
9.51
6.76
3.81
1.05
-1.35
-3.54
