-7.8
-6.16
-3.7
-0.96
1.58
3.68
5.38
6.83
8.07
8.92
9.08
8.38
6.92
5.1
3.41
2.2
1.58
1.38
1.36
1.36
1.33
1.27
1.12
0.7
-0.15
-1.54
-3.37
-5.42
-7.48
-9.47
-11.45
-13.49
-15.66
-17.88
-19.99
-21.76
-22.96
-23.39
-22.86
-21.34
-18.92
-15.92
-12.77
-9.92
-7.68
-6.06
-4.84
-3.72
-2.49
-1.11
0.2
1.21
1.72
1.66
1.13
0.34
-0.5
-1.21
-1.68
-1.9
-1.95
-1.97
-2.1
-2.48
-3.18
-4.15
-5.28
-6.47
-7.66
-8.88
-10.21
-11.73
-13.42
-15.13
-16.55
-17.3
-17.01
-15.45
-12.68
-9.06
-5.16
-1.5
1.52
3.83
5.57
6.93
8.06
8.99
9.6
9.85
9.78
9.52
9.21
8.89
8.54
8.1
7.58
7.08
6.71
6.55
6.56
6.63
6.64
6.49
6.08
5.35
4.21
2.62
0.67
-1.44
-3.44
-5.13
-6.52
-7.78
-9.14
-10.59
-11.88
-12.54
-12.19
-10.72
-8.4
-5.71
-3.15
-1.02
0.63
1.92
3.04
4.06
5
5.78
6.28
6.48
6.41
6.24
6.18
6.42
6.98
7.72
8.35
8.59
8.33
7.65
6.76
5.87
5.07
4.35
3.59
2.72
1.71
0.6
-0.57
-1.73
-2.77
-3.5
-3.72
-3.25
-2.04
-0.19
2.08
4.48
6.78
8.84
10.61
12.13
13.39
14.38
15.07
15.43
15.45
15.1
14.4
13.4
12.19
10.93
9.82
9.02
8.56
8.35
8.14
7.67
6.75
5.42
3.79
2.08
0.45
-1.07
-2.52
-4.06
-5.84
-8
-10.57
-13.46
-16.34
-18.74
-20.13
-20.09
-18.49
-15.6
-11.97
-8.26
-4.91
-2.08
0.36
2.57
4.52
6.05
6.91
7
6.45
5.59
4.77
4.17
3.76
3.4
2.98
2.51
2.15
2.05
2.22
2.48
2.53
2.03
0.84
-0.96
-3.13
-5.31
-7.23
-8.75
-9.89
-10.86
-11.85
-13.1
-14.72
-16.73
-18.95
-20.93
-22.07
-21.85
-20.01
-16.74
-12.67
-8.48
-4.76
-1.72
0.77
2.9
4.8
6.36
7.39
7.73
7.44
6.82
6.33
6.29
6.77
7.61
8.51
9.19
9.54
9.6
9.52
9.42
9.31
9.08
8.56
7.65
6.38
4.87
3.33
1.88
0.57
-0.6
-1.64
-2.52
-3.24
-3.9
-4.74
-6.05
-8.01
-10.46
-12.75
-14.08
-13.79
-11.7
-8.29
-4.37
-0.75
2.14
4.36
6.22
7.97
9.63
10.97
11.69
11.68
11.09
10.28
9.68
9.6
10.06
10.84
11.52
11.75
11.37
10.49
9.39
8.38
7.56
6.87
6.05
4.88
3.25
1.3
-0.81
-2.87
-4.8
-6.57
-8.27
-9.95
-11.67
-13.43
-15.16
-16.75
-17.99
-18.58
-18.26
-16.82
-14.26
-10.79
-6.88
-3.1
0.01
2.14
3.25
3.6
3.56
3.46
3.44
3.53
3.68
3.93
4.37
5.09
6.11
7.29
8.34
8.99
9.09
8.68
7.9
6.95
5.93
4.83
3.6
2.22
0.74
-0.7
-1.99
-3.06
-3.93
-4.72
-5.6
-6.77
-8.41
-10.58
-13.22
-16.11
-18.87
-21.04
-22.15
-21.89
-20.19
-17.27
-13.56
-9.69
-6.19
-3.37
-1.3
0.22
1.36
2.24
2.79
2.9
2.57
2.02
1.55
1.42
1.69
2.16
2.54
2.72
2.76
2.87
3.16
3.55
3.74
3.41
2.54
1.34
0.22
-0.48
-0.71
-0.69
-0.73
-1.09
-1.84
-2.98
-4.46
-6.27
-8.32
-10.33
-11.8
-12.16
-11.01
-8.38
-4.79
-1.07
2.04
4.13
5.26
5.84
6.35
7.04
7.84
8.48
8.71
8.5
8.06
7.71
7.7
8.09
8.68
9.17
9.29
8.9
8.02
6.82
5.56
4.43
3.52
2.75
1.85
0.52
-1.43
-4.03
-7.09
-10.27
-13.14
-15.29
-16.31
-15.91
-13.95
-10.6
-6.39
-2.04
1.7
4.36
5.87
6.49
6.58
6.39
5.98
5.32
4.42
3.4
2.53
2.05
2.1
2.54
3.08
3.36
3.07
2.15
0.78
-0.69
-1.89
-2.63
-2.96
-3.18
-3.67
-4.76
-6.54
-8.89
-11.45
-13.76
-15.35
-15.81
-14.9
-12.61
-9.17
-5.01
-0.69
3.23
6.32
8.41
9.6
10.15
10.35
10.37
10.21
9.75
8.93
7.88
6.92
6.4
6.46
6.92
7.3
7.07
5.97
4.1
1.89
-0.17
-1.78
-2.97
-4
-5.19
-6.74
-8.61
-10.66
-12.71
-14.59
-16.09
-17.01
-17.05
-16.01
-13.87
-10.82
-7.34
-3.92
-0.95
1.4
3.24
4.77
6.21
7.62
8.92
9.96
10.55
10.61
10.24
9.69
9.2
8.95
8.89
8.83
8.46
7.63
6.39
4.93
3.55
2.37
1.4
0.44
-0.66
-2.04
-3.69
-5.56
-7.59
-9.75
-12.01
-14.23
-16.14
-17.34
-17.47
-16.28
-13.84
-10.49
-6.76
-3.22
-0.22
2.14
3.96
5.43
6.63
7.48
7.8
7.49
6.65
5.63
4.89
4.76
5.31
6.31
7.36
8.12
8.41
8.26
7.78
7.04
6.08
4.89
3.53
2.11
0.73
-0.53
-1.76
-3.02
-4.39
-5.91
-7.57
-9.37
-11.29
-13.2
-14.79
-15.64
-15.27
-13.41
-10.19
-6.06
-1.75
2.05
4.91
6.72
7.64
8.02
8.12
8.1
7.94
7.53
6.75
5.62
4.37
3.29
2.69
2.62
2.94
3.28
3.34
2.95
2.18
1.22
0.27
-0.51
-1.14
-1.67
-2.21
-2.78
-3.35
-3.83
-4.17
-4.44
-4.84
-5.68
-7.15
-9.18
-11.33
-12.91
-13.29
-12.14
-9.62
-6.24
-2.61
0.86
4.04
6.98
9.77
12.3
14.37
15.72
16.23
16.02
15.42
14.85
14.64
14.93
15.63
16.48
17.11
17.29
16.95
16.23
15.39
14.61
13.93
13.12
11.86
9.93
7.32
4.31
1.32
-1.28
-3.31
-4.83
-6.13
-7.58
-9.49
-11.98
-14.9
-17.78
-19.88
-20.47
-19.04
-15.6
-10.67
-5.2
-0.13
3.89
6.67
8.4
9.41
9.98
10.23
10.18
9.93
9.66
9.63
9.97
10.61
11.31
11.8
11.89
11.62
11.25
11.01
11.01
11.11
11.02
10.47
9.39
7.94
6.4
5.02
3.86
2.81
1.63
0.21
-1.53
-3.51
-5.63
-7.78
-9.88
-11.71
-12.94
-13.1
-11.8
-8.97
-4.97
-0.49
3.61
6.66
8.44
9.14
9.21
9.07
8.9
8.63
8.11
7.23
6.16
5.14
4.46
4.24
4.45
4.89
5.39
5.82
6.1
6.23
6.19
5.93
5.44
4.7
3.71
2.48
1.01
-0.71
-2.6
-4.59
-6.59
-8.56
-10.46
-12.22
-13.59
-14.18
-13.58
-11.56
-8.24
-4.17
-0.08
3.35
5.8
7.34
8.3
8.96
9.38
9.42
8.92
7.91
6.72
5.85
5.69
6.29
7.31
8.17
8.3
7.39
5.51
3
0.37
-2
-3.81
-5.03
-5.75
-6.16
-6.52
-7.02
-7.79
-8.84
-10.04
-11.12
-11.73
-11.47
-10.07
-7.53
-4.21
-0.69
2.42
4.66
5.95
6.46
6.46
6.23
5.87
5.43
4.93
4.46
4.18
4.27
4.72
5.42
6.11
6.49
6.46
6
5.25
4.34
3.33
2.17
0.73
-1.03
-3.06
-5.22
-7.33
-9.29
-11.08
-12.68
-14.02
-14.84
-14.86
-13.86
-11.85
-9.1
-6.08
-3.26
-0.96
0.79
2.15
3.31
4.34
5.11
5.45
5.32
4.83
4.25
3.88
3.84
4.09
4.43
4.7
4.79
4.69
4.37
3.8
3
2.04
1.03
0.08
-0.87
-2.01
-3.56
-5.67
-8.17
-10.59
-12.38
-13.02
-12.32
-10.44
-7.84
-5.06
-2.54
-0.54
1.02
2.34
3.63
4.96
6.22
7.19
7.72
7.75
7.4
6.85
6.23
5.67
5.21
4.89
4.77
4.9
5.22
5.55
5.66
5.32
4.41
2.98
1.19
-0.77
-2.77
-4.78
-6.83
-8.94
-11.09
-13.21
-15.12
-16.55
-17.2
-16.83
-15.37
-12.98
-9.98
-6.78
-3.73
-1.03
1.23
2.98
4.08
4.38
3.77
2.33
0.39
-1.49
-2.76
-3.1
-2.5
-1.3
-0
0.91
1.17
0.8
0.06
-0.72
-1.27
-1.5
-1.48
-1.41
-1.46
-1.73
-2.29
-3.15
-4.35
-5.9
-7.67
-9.39
-10.6
-10.8
-9.65
-7.11
-3.51
0.61
4.57
7.92
10.4
12.1
13.23
14.05
14.67
15.03
14.93
14.2
12.83
11.04
9.23
7.81
7.02
6.79
6.82
6.75
6.29
5.43
4.29
3.1
1.98
0.94
-0.15
-1.38
-2.79
-4.37
-6.05
-7.81
-9.68
-11.74
-14.01
-16.4
-18.65
-20.31
-20.89
-20.05
-17.7
-14.12
-9.86
-5.6
-1.89
0.96
2.93
4.18
4.91
5.2
5.04
4.41
3.33
2
0.69
-0.3
-0.83
-0.87
-0.61
-0.36
-0.37
-0.76
-1.44
-2.21
-2.89
-3.43
-4
-4.85
-6.07
-7.56
-8.98
-10.04
-10.67
-11.08
-11.74
-13.01
-14.95
-17.23
-19.29
-20.49
-20.44
-19.04
-16.46
-13.03
-9.14
-5.2
-1.55
1.56
4.02
5.85
7.18
8.1
8.71
8.99
8.94
8.61
8.14
7.77
7.68
7.91
8.31
8.57
8.43
7.79
6.73
5.5
4.3
3.22
2.22
1.2
0.1
-1.09
-2.34
-3.69
-5.22
-7.08
-9.27
-11.61
-13.74
-15.14
-15.42
-14.36
-12.04
-8.82
-5.21
-1.75
1.18
3.48
5.27
6.74
8.05
9.19
9.96
10.17
9.79
9.05
8.32
7.97
8.18
8.87
9.75
10.44
10.66
10.21
9.12
7.52
5.68
3.89
2.44
1.42
0.71
0.04
-0.94
-2.39
-4.35
-6.69
-9.24
-11.84
-14.28
-16.21
-17.13
-16.51
-14.05
-9.89
-4.65
0.75
5.49
9.07
11.54
13.26
14.68
16.05
17.31
18.25
18.6
18.29
17.48
16.45
15.49
14.73
14.17
13.68
13.15
12.55
11.87
11.15
10.38
9.51
8.51
7.36
6.08
4.71
3.25
1.79
0.43
-0.76
-1.77
-2.76
-3.98
-5.61
-7.58
-9.52
-10.83
-10.95
-9.64
-7.03
-3.61
0.02
3.39
6.28
8.62
10.4
11.57
12.01
11.68
10.68
9.31
8.02
7.18
6.97
7.25
7.69
7.87
7.61
6.96
6.2
5.61
5.35
5.32
5.31
5.1
4.57
3.77
2.74
1.54
0.21
-1.22
-2.67
-4.07
-5.4
-6.79
-8.46
-10.57
-13.08
-15.65
-17.66
-18.5
-17.74
-15.37
-11.85
-7.9
-4.24
-1.29
0.88
2.54
4.06
5.7
7.49
9.23
10.65
11.5
11.71
11.35
10.63
9.81
9.15
8.79
8.73
8.84
8.83
8.49
7.67
6.43
4.98
3.51
2.15
0.89
-0.3
-1.46
-2.54
-3.47
-4.21
-4.84
-5.54
-6.55
-8.08
-10.09
-12.37
-14.41
-15.68
-15.76
-14.5
-12.15
-9.17
-6.16
-3.6
-1.7
-0.34
0.78
1.96
3.29
4.65
5.72
6.23
6.07
5.41
4.63
4.17
4.28
4.95
5.92
6.82
7.39
7.53
7.34
6.97
6.53
5.96
5.15
4
2.54
0.92
-0.68
-2.14
-3.5
-4.94
-6.67
-8.81
-11.25
-13.67
-15.66
-16.87
-17.1
-16.32
-14.63
-12.18
-9.1
-5.61
-2.01
1.33
4.03
5.89
6.96
7.45
7.57
7.45
7.08
6.4
5.51
4.67
4.24
4.42
5.24
6.45
7.71
8.69
9.23
9.32
9.01
8.42
7.63
6.75
5.82
4.91
4.01
3.03
1.87
0.45
-1.2
-3.01
-4.88
-6.72
-8.51
-10.2
-11.69
-12.69
-12.86
-11.85
-9.56
-6.28
-2.62
0.7
3.16
4.6
5.28
5.61
5.91
6.19
6.16
5.53
4.16
2.32
0.53
-0.6
-0.72
0.11
1.54
3.04
4.21
4.87
5
4.66
3.92
2.77
1.29
-0.36
-2
-3.42
-4.61
-5.7
-6.96
-8.62
-10.77
-13.2
-15.45
-16.95
-17.13
-15.73
-12.85
-9.02
-4.98
-1.41
1.27
3.06
4.21
5
5.57
5.82
5.61
4.87
3.77
2.67
2
2.05
2.83
4.11
5.48
6.56
7.05
6.84
5.96
4.62
3.1
1.65
0.48
-0.37
-1
-1.61
-2.46
-3.76
-5.65
-8.1
-10.9
-13.64
-15.85
-17.02
-16.89
-15.45
-13
-10.09
-7.23
-4.81
-2.95
-1.5
-0.23
1.08
2.5
3.9
5.01
5.61
5.6
5.14
4.52
4.1
4.03
4.25
4.47
4.36
3.74
2.66
1.38
0.15
-0.86
-1.73
-2.64
-3.82
-5.39
-7.32
-9.49
-11.74
-13.93
-15.86
-17.31
-18.03
-17.77
-16.4
-14.04
-11
-7.7
-4.49
-1.57
0.99
3.12
4.77
5.78
6.1
5.82
5.25
4.85
5.09
6.19
8.03
10.17
12.04
13.16
13.36
12.83
11.96
11.22
10.86
10.85
10.9
10.59
9.56
7.71
5.18
2.25
-0.82
-3.83
-6.64
-9.07
-10.77
-11.41
-10.73
-8.8
-6.03
-3.1
-0.58
1.24
2.45
3.36
4.25
5.09
5.64
5.53
4.6
3.09
1.54
0.52
0.38
0.99
1.87
2.47
2.41
1.7
0.64
-0.41
-1.25
-1.93
-2.64
-3.58
-4.78
-6.24
-7.93
-9.91
-12.29
-15.11
-18.2
-21.21
-23.66
-25.08
-25.1
-23.62
-20.81
-17.09
-13.05
-9.24
-6.01
-3.41
-1.27
0.6
2.23
3.5
4.21
4.25
3.76
3.04
2.43
2.11
2.1
2.26
2.38
2.28
1.87
1.16
0.27
-0.61
-1.34
-1.87
-2.36
-3.08
-4.29
-6.1
-8.42
-11.04
-13.67
-16.02
-17.85
-18.88
-18.81
-17.45
-14.79
-11.21
-7.3
-3.74
-0.98
0.86
2.01
2.81
3.53
4.22
4.7
4.88
4.71
4.37
4.08
3.98
4.05
4.09
3.88
3.29
2.38
1.32
0.32
-0.48
-1.03
-1.43
-1.88
-2.62
-3.86
-5.65
-7.81
-9.91
-11.35
-11.63
-10.49
-8.01
-4.62
-0.81
2.97
6.47
9.53
12.07
13.91
14.91
14.94
14.04
12.43
10.49
8.68
7.36
6.73
6.74
7.17
7.67
7.91
7.7
6.97
5.83
4.46
3.06
1.75
0.58
-0.56
-1.84
-3.48
-5.63
-8.18
-10.73
-12.72
-13.59
-13.01
-11.05
-8.09
-4.63
-1.17
2.04
4.87
7.34
9.44
11.1
12.22
12.71
12.59
12.05
11.34
10.73
10.4
10.35
10.43
10.49
10.4
10.12
9.62
8.86
7.77
6.26
4.35
2.11
-0.27
-2.66
-4.96
-7.21
-9.42
-11.63
-13.73
-15.56
-16.87
-17.44
-17.04
-15.64
-13.28
-10.19
-6.69
-3.11
0.33
3.43
6.05
8.11
9.53
10.31
10.55
10.37
9.98
9.49
8.99
8.53
8.16
8
8.12
8.58
9.26
9.91
10.17
9.7
8.34
6.22
3.72
1.36
-0.45
-1.55
-2.12
-2.62
-3.57
-5.35
-8.06
-11.51
-15.23
-18.67
-21.23
-22.42
-21.89
-19.64
-16
-11.59
-7.13
-3.17
0.08
2.7
4.93
6.95
8.75
10.15
10.97
11.1
10.64
9.78
8.74
7.7
6.81
6.19
5.95
6.1
6.49
6.85
6.84
6.26
5.1
3.61
2.16
1.08
0.46
0.11
-0.35
-1.25
-2.72
-4.64
-6.8
-9.09
-11.51
-14.15
-16.89
-19.36
-20.92
-20.98
-19.34
-16.26
-12.42
-8.55
-5.08
-2.11
0.59
3.22
5.76
8
9.65
10.53
10.75
10.57
10.39
10.4
10.69
11.12
11.51
11.76
11.84
11.87
11.93
12.06
12.14
11.94
11.16
9.61
7.35
4.67
2.02
-0.21
-1.86
-3.08
-4.23
-5.69
-7.69
-10.14
-12.74
-15
-16.41
-16.53
-15.15
-12.31
-8.31
-3.71
0.85
4.82
7.88
10.02
11.38
12.15
12.42
12.26
11.72
10.99
10.37
10.08
10.2
10.59
10.95
11.06
10.87
10.44
9.91
9.27
8.43
7.29
5.81
4.12
2.43
0.94
-0.36
-1.56
-2.85
-4.32
-5.96
-7.75
-9.67
-11.82
-14.23
-16.77
-18.99
-20.26
-20.02
-17.98
-14.37
-9.8
-5.01
-0.61
3.06
5.96
8.17
9.72
10.63
10.88
10.56
9.83
8.93
8.09
7.46
7.13
7.1
7.31
7.62
7.89
7.95
7.67
6.93
5.7
4.05
2.09
0.01
-2.04
-3.98
-5.83
-7.71
-9.74
-11.97
-14.36
-16.71
-18.72
-19.99
-20.11
-18.8
-16
-12.01
-7.4
-2.88
0.94
3.8
5.72
6.99
7.85
8.42
8.68
8.54
8.06
7.41
6.87
6.68
6.95
7.59
8.36
8.93
9.02
8.53
7.51
6.18
4.77
3.46
2.23
0.9
-0.81
-3.18
-6.3
-10.02
-13.94
-17.53
-20.23
-21.59
-21.35
-19.5
-16.32
-12.3
-8.08
-4.24
-1.18
0.96
2.31
3.19
3.85
4.45
4.91
5.03
4.68
3.85
2.72
1.55
0.56
-0.19
-0.77
-1.26
-1.7
-1.99
-2.01
-1.71
-1.23
-0.89
-1.09
-2.07
-3.87
-6.29
-9
-11.66
-13.99
-15.77
-16.81
-16.94
-16.05
-14.17
-11.5
-8.3
-4.9
-1.51
1.79
4.95
7.87
10.33
12.02
12.71
12.37
11.23
9.74
8.39
7.57
7.37
7.65
8.03
8.13
7.71
6.71
5.31
3.79
2.36
1.08
-0.14
-1.54
-3.38
-5.82
-8.91
-12.46
-16.11
-19.29
-21.4
-21.9
-20.56
-17.54
-13.39
-8.83
-4.46
-0.63
2.67
5.64
8.46
11.12
13.35
14.84
15.23
14.5
12.84
10.68
8.53
6.81
5.74
5.25
5.06
4.8
4.16
3.09
1.74
0.41
-0.65
-1.38
-1.92
-2.5
-3.42
-4.87
-6.95
-9.61
-12.6
-15.47
-17.58
-18.33
-17.31
-14.59
-10.62
-6.11
-1.77
1.96
4.93
7.19
8.85
9.94
10.4
10.21
9.44
8.34
7.21
6.34
5.92
5.96
6.29
6.67
6.87
6.78
6.34
5.64
4.72
3.66
2.48
1.21
-0.14
-1.6
-3.27
-5.27
-7.67
-10.41
-13.2
-15.61
-17.12
-17.29
-15.93
-13.15
-9.38
-5.22
-1.23
2.2
5
7.34
9.48
11.5
13.26
14.45
14.71
13.94
12.35
10.44
8.8
7.8
7.52
7.68
7.86
7.66
6.89
5.64
4.15
2.73
1.52
0.52
-0.49
-1.77
-3.56
-5.94
-8.91
-12.29
-15.84
-19.21
-21.89
-23.34
-22.99
-20.56
-16.15
-10.37
-4.18
1.39
5.63
8.37
10.01
11.23
12.62
14.38
16.25
17.79
18.63
18.73
18.36
17.9
17.57
17.32
16.92
16.11
14.76
12.94
10.86
8.7
6.58
4.54
2.58
0.74
-0.97
-2.56
-4.11
-5.8
-7.82
-10.32
-13.35
-16.71
-19.97
-22.48
-23.54
-22.67
-19.8
-15.29
-9.88
-4.38
0.55
4.61
7.81
10.35
12.51
14.37
15.84
16.7
16.76
16.02
14.73
13.27
12.05
11.34
11.12
11.17
11.2
11
10.53
9.82
8.99
8.07
7.07
5.93
4.62
3.06
1.19
-1.02
-3.59
-6.53
-9.77
-13.15
-16.36
-18.9
-20.22
-19.89
-17.82
-14.31
-9.99
-5.57
-1.57
1.82
4.69
7.24
9.55
11.54
13
13.77
13.83
13.3
12.42
11.43
10.5
9.77
9.31
9.14
9.28
9.64
10.1
10.49
10.59
10.17
9.1
7.37
5.06
2.44
-0.19
-2.58
-4.59
-6.23
-7.72
-9.34
-11.35
-13.78
-16.29
-18.27
-18.97
-17.84
-14.8
-10.35
-5.37
-0.8
2.79
5.3
7.03
8.36
9.56
10.62
11.31
11.48
11.11
10.46
9.93
9.81
10.17
10.8
11.33
11.48
11.22
10.79
10.55
10.65
10.94
10.97
10.26
8.58
6.09
3.33
0.84
-1
-2.17
-2.98
-3.84
-5.17
-7.17
-9.86
-12.94
-15.93
-18.24
-19.29
-18.78
-16.73
-13.55
-9.82
-6.12
-2.79
0.05
2.49
4.64
6.59
8.25
9.51
10.26
10.51
10.43
10.29
10.36
10.81
11.6
12.51
13.24
13.54
13.36
12.83
12.22
11.75
11.45
11.2
10.71
9.71
8.01
5.65
2.85
-0
-2.52
-4.49
-5.97
-7.3
-8.95
-11.3
-14.45
-18.11
-21.69
-24.5
-25.93
-25.63
-23.56
-19.99
-15.37
-10.35
-5.58
-1.54
1.58
3.89
5.72
7.37
8.93
10.27
11.12
11.31
10.97
10.45
10.16
10.33
10.93
11.64
12.13
12.22
11.98
11.61
11.33
11.19
11.03
10.55
9.48
7.68
5.25
2.48
-0.23
-2.54
-4.29
-5.51
-6.45
-7.4
-8.65
-10.34
-12.41
-14.63
-16.63
-18.05
-18.55
-17.94
-16.22
-13.52
-10.12
-6.39
-2.7
0.66
3.5
5.78
7.57
8.9
9.78
10.14
9.96
9.32
8.44
7.63
7.18
7.18
7.51
7.94
8.2
8.21
7.95
7.52
6.94
6.19
5.21
3.97
2.58
1.22
0.07
-0.73
-1.18
-1.45
-1.75
-2.3
-3.33
-4.93
-7.13
-9.79
-12.64
-15.22
-16.95
-17.35
-16.12
-13.33
-9.42
-5.1
-1.06
2.19
4.44
5.77
6.44
6.78
7.03
7.36
7.68
7.85
7.64
6.93
5.8
4.59
3.7
3.45
3.89
4.82
5.84
6.58
6.84
6.61
5.95
4.96
3.63
1.98
0.12
-1.75
-3.39
-4.67
-5.69
-6.77
-8.26
-10.39
-13.08
-15.87
-18.06
-18.97
-18.21
-15.87
-12.47
-8.72
-5.26
-2.44
-0.31
1.3
2.57
3.58
4.34
4.82
5.07
5.21
5.32
5.4
5.37
5.08
4.54
3.83
3.22
2.84
2.7
2.62
2.33
1.61
0.42
-1.14
-2.82
-4.36
-5.59
-6.53
-7.32
-8.21
-9.4
-10.97
-12.74
-14.33
-15.29
-15.28
-14.17
-12.05
-9.14
-5.73
-2.09
1.5
4.72
7.25
8.81
9.32
8.85
7.7
6.25
4.85
3.69
2.84
2.25
1.87
1.68
1.69
1.84
2
1.96
1.58
0.83
-0.17
-1.22
-2.18
-3.17
-4.47
-6.34
-8.88
-11.81
-14.63
-16.73
-17.67
-17.26
-15.62
-13.07
-10.02
-6.88
-3.97
-1.48
0.55
2.21
3.61
4.84
5.88
6.65
7.06
7.07
6.78
6.32
5.84
5.41
5.01
4.63
4.22
3.81
3.42
3.03
2.56
1.94
1.09
0.02
-1.22
-2.51
-3.87
-5.4
-7.28
-9.62
-12.31
-15
-17.1
-18.04
-17.42
-15.29
-12.02
-8.25
-4.59
-1.44
1.1
3.12
4.76
6.04
6.91
7.28
7.18
6.79
6.41
6.31
6.58
7.13
7.7
8.01
7.86
7.17
6.02
4.55
2.96
1.39
-0.09
-1.5
-2.92
-4.47
-6.26
-8.35
-10.75
-13.4
-16.2
-18.94
-21.35
-23.03
-23.57
-22.68
-20.37
-16.92
-12.88
-8.89
-5.44
-2.73
-0.64
1.11
2.79
4.48
6.02
7.09
7.44
7.06
6.21
5.3
4.76
4.83
5.48
6.44
7.35
7.87
7.77
6.98
5.53
3.6
1.39
-0.86
-2.93
-4.7
-6.2
-7.57
-8.99
-10.59
-12.38
-14.23
-15.89
-17.05
-17.36
-16.59
-14.66
-11.75
-8.23
-4.61
-1.39
1.16
3.02
4.37
5.44
6.37
7.15
7.74
8.07
8.17
8.18
8.22
8.37
8.65
9.04
9.44
9.79
9.98
9.93
9.59
8.94
7.96
6.65
4.96
2.9
0.58
-1.76
-3.84
-5.45
-6.68
-7.85
-9.46
-11.8
-14.74
-17.74
-20.01
-20.9
-20.13
-17.89
-14.68
-11.04
-7.38
-3.89
-0.6
2.44
5.08
7.11
8.33
8.67
8.26
7.38
6.4
5.65
5.34
5.56
6.25
7.27
8.39
9.35
9.86
9.68
8.7
6.98
4.8
2.52
0.52
-0.98
-1.99
-2.69
-3.39
-4.41
-6
-8.27
-11.13
-14.3
-17.27
-19.41
-20.11
-19
-16.05
-11.72
-6.76
-2.05
1.7
4.18
5.47
5.95
6.02
6
6
6
5.97
5.93
5.99
6.26
6.76
7.32
7.7
7.67
7.15
6.3
5.4
4.66
4.12
3.52
2.53
0.87
-1.49
-4.34
-7.37
-10.33
-13.14
-15.74
-17.97
-19.4
-19.47
-17.79
-14.45
-10.07
-5.52
-1.58
1.46
3.77
5.69
7.49
9.05
10.05
10.19
9.52
8.41
7.42
7.01
7.27
7.95
8.61
8.9
8.67
7.99
7.05
6
4.97
4
3.04
2
0.72
-0.95
-3.1
-5.69
-8.52
-11.28
-13.59
-15.16
-15.74
-15.25
-13.61
-10.98
-7.57
-3.8
-0.15
3
5.44
7.2
8.5
9.54
10.37
10.93
11.09
10.81
10.22
9.56
9.08
8.88
8.89
8.91
8.69
8.08
7.05
5.74
4.35
3.09
2
0.93
-0.36
-2.12
-4.5
-7.43
-10.67
-13.94
-17.01
-19.62
-21.55
-22.45
-21.92
-19.66
-15.64
-10.26
-4.29
1.37
6.02
9.37
11.54
12.89
13.79
14.39
14.7
14.66
14.33
13.91
13.62
13.57
13.71
13.83
13.73
13.34
12.8
12.33
12.1
12.09
12.08
11.73
10.78
9.15
6.88
4.15
1.13
-2.08
-5.4
-8.83
-12.32
-15.76
-18.98
-21.71
-23.61
-24.36
-23.73
-21.66
-18.36
-14.21
-9.7
-5.23
-1.07
2.67
5.95
8.7
10.77
12
12.36
12.01
11.29
10.64
10.4
10.68
11.38
12.27
13.08
13.68
13.99
14.03
13.75
13.09
11.95
10.34
8.34
6.15
3.95
1.83
-0.17
-2.04
-3.74
-5.27
-6.68
-8.26
-10.4
-13.41
-17.29
-21.57
-25.33
-27.58
-27.54
-25.04
-20.55
-15.01
-9.42
-4.56
-0.72
2.18
4.49
6.55
8.51
10.28
11.64
12.43
12.67
12.58
12.44
12.48
12.67
12.8
12.7
12.31
11.82
11.51
11.63
12.13
12.65
12.72
11.96
10.31
8.05
5.62
3.41
1.57
0
-1.48
-3.06
-4.81
-6.75
-8.98
-11.6
-14.6
-17.72
-20.35
-21.72
-21.19
-18.6
-14.27
-8.97
-3.51
1.47
5.64
8.93
11.39
13.06
13.98
14.28
14.17
13.89
13.66
13.58
13.66
13.82
14
14.14
14.22
14.19
13.97
13.5
12.77
11.83
10.81
9.81
8.88
8.03
7.25
6.52
5.82
5.03
4.04
2.66
0.8
-1.49
-4.06
-6.71
-9.31
-11.84
-14.28
-16.48
-18.02
-18.43
-17.31
-14.59
-10.61
-6
-1.44
2.56
5.74
8.07
9.61
10.46
10.72
10.51
9.97
9.25
8.53
7.94
7.6
7.54
7.72
7.95
8.02
7.75
7.13
6.33
5.59
5.09
4.79
4.53
4.06
3.2
1.99
0.56
-0.96
-2.57
-4.35
-6.44
-8.94
-11.83
-14.94
-17.96
-20.52
-22.19
-22.59
-21.41
-18.58
-14.29
-9.08
-3.65
1.25
5.1
7.66
9.09
9.73
9.97
10.1
10.2
10.28
10.26
10.13
9.93
9.74
9.56
9.36
9.09
8.68
8.09
7.24
6.06
4.51
2.66
0.71
-1.09
-2.59
-3.89
-5.27
-7.1
-9.62
-12.77
-16.23
-19.47
-21.95
-23.19
-22.89
-20.92
-17.4
-12.73
-7.53
-2.51
1.74
4.91
7.03
8.39
9.28
9.8
9.91
9.45
8.41
6.97
5.45
4.21
3.44
3.1
2.96
2.78
2.39
1.74
0.91
0.02
-0.85
-1.67
-2.43
-3.22
-4.17
-5.41
-7.07
-9.17
-11.56
-13.94
-15.87
-16.91
-16.7
-15.12
-12.26
-8.49
-4.31
-0.23
3.33
6.13
8.13
9.43
10.25
10.82
11.31
11.84
12.38
12.82
13
12.84
12.36
11.67
10.88
10
8.94
7.56
5.8
3.77
1.78
0.14
-0.96
-1.59
-2.08
-2.85
-4.21
-6.24
-8.82
-11.65
-14.5
-17.14
-19.36
-20.88
-21.43
-20.72
-18.65
-15.44
-11.54
-7.54
-3.94
-1
1.24
2.89
4.04
4.75
5.04
4.97
4.6
4.11
3.68
3.44
3.5
3.87
4.48
5.2
5.79
6.05
5.78
4.92
3.55
1.87
0.08
-1.67
-3.35
-5.06
-6.97
-9.24
-11.98
-15.18
-18.54
-21.56
-23.58
-23.92
-22.22
-18.54
-13.45
-7.84
-2.66
1.44
4.24
5.94
6.97
7.68
8.3
8.89
9.37
9.71
9.93
10.11
10.32
10.61
10.9
11.09
11.03
10.53
9.58
8.21
6.62
5.05
3.71
2.69
1.88
1.05
-0.1
-1.72
-3.84
-6.42
-9.33
-12.4
-15.35
-17.76
-19.1
-18.94
-17.06
-13.66
-9.26
-4.53
-0.12
3.54
6.31
8.27
9.58
10.4
10.81
10.79
10.32
9.46
8.38
7.38
6.78
6.72
7.1
7.6
7.87
7.67
6.98
6.01
5.04
4.24
3.62
3.01
2.19
0.98
-0.73
-2.96
-5.65
-8.75
-12.19
-15.84
-19.39
-22.35
-24.07
-23.94
-21.7
-17.56
-12.24
-6.73
-1.89
1.79
4.34
6.13
7.6
9.06
10.53
11.87
12.86
13.3
13.11
12.34
11.18
9.88
8.77
8.07
7.86
8.08
8.5
8.88
8.98
8.65
7.76
6.29
4.32
2
-0.35
-2.45
-4.09
-5.29
-6.31
-7.57
-9.43
-12
-15.04
-17.95
-19.93
-20.33
-18.8
-15.51
-11.02
-6.15
-1.61
2.15
5.1
7.48
9.55
11.36
12.73
13.31
12.91
11.67
10.08
8.76
8.16
8.34
8.97
9.51
9.54
8.95
7.92
6.81
5.82
4.99
4.11
3
1.6
0.05
-1.39
-2.52
-3.34
-4.08
-5.1
-6.71
-9.04
-11.94
-15.05
-17.84
-19.82
-20.57
-19.87
-17.73
-14.43
-10.48
-6.45
-2.77
0.39
3.13
5.7
8.27
10.74
12.8
14.15
14.65
14.5
14.12
13.87
13.87
13.96
13.79
13.21
12.28
11.36
10.79
10.65
10.72
10.51
9.54
7.62
4.92
1.91
-0.81
-2.8
-4.01
-4.7
-5.35
-6.4
-8.1
-10.46
-13.29
-16.33
-19.25
-21.71
-23.28
-23.52
-22.13
-19.12
-14.88
-10.08
-5.41
-1.29
2.15
5.07
7.6
9.75
11.38
12.37
12.78
12.84
12.87
13.07
13.44
13.73
13.63
13.02
12
10.86
9.9
9.3
8.96
8.62
7.96
6.83
5.31
3.65
2.15
0.94
-0.04
-1.03
-2.33
-4.14
-6.51
-9.36
-12.47
-15.51
-18.05
-19.62
-19.77
-18.23
-15.11
-10.88
-6.28
-2.07
1.26
3.57
5.12
6.34
7.62
9.13
10.75
12.18
13.14
13.5
13.33
12.88
12.45
12.2
12.13
12.05
11.77
11.2
10.38
9.5
8.71
8.04
7.35
6.45
5.2
3.58
1.77
0.01
-1.53
-2.9
-4.27
-5.96
-8.22
-11.12
-14.49
-17.89
-20.67
-22.15
-21.89
-19.79
-16.17
-11.68
-7.05
-2.84
0.66
3.39
5.48
7.01
7.97
8.31
8.04
7.35
6.52
5.91
5.69
5.92
6.47
7.12
7.69
8.05
8.19
8.06
7.66
6.95
5.93
4.66
3.18
1.6
-0.04
-1.71
-3.39
-5.08
-6.8
-8.56
-10.41
-12.35
-14.26
-15.85
-16.7
-16.42
-14.78
-11.85
-8.06
-3.99
-0.25
2.81
5.07
6.68
7.82
8.59
8.96
8.87
8.29
7.32
6.24
5.35
4.91
5
5.52
6.25
6.9
7.23
7.04
6.25
4.9
3.16
1.26
-0.62
-2.35
-3.96
-5.59
-7.4
-9.55
-12.02
-14.66
-17.15
-19.16
-20.28
-20.3
-19.07
-16.67
-13.36
-9.58
-5.84
-2.59
-0.11
1.66
3
4.35
5.97
7.8
9.47
10.41
10.26
9.01
7.08
5.14
3.8
3.35
3.69
4.42
5.06
5.26
4.86
3.94
2.7
1.33
-0.01
-1.28
-2.47
-3.65
-4.97
-6.64
-8.89
-11.82
-15.23
-18.51
-20.82
-21.3
-19.51
-15.67
-10.65
-5.62
-1.55
1.1
2.5
3.22
3.86
4.75
5.92
7.15
8.16
8.74
8.8
8.44
7.9
7.46
7.32
7.56
7.99
8.26
8
7.05
5.54
3.84
2.35
1.26
0.46
-0.42
-1.73
-3.64
-6.07
-8.79
-11.54
-14.23
-16.74
-18.89
-20.25
-20.27
-18.52
-15.03
-10.34
-5.44
-1.3
1.55
3.13
3.97
4.66
5.55
6.54
7.23
7.27
6.54
5.29
4.01
3.11
2.78
2.88
3.03
2.86
2.16
0.99
-0.38
-1.63
-2.58
-3.26
-3.91
-4.84
-6.25
-8.13
-10.28
-12.48
-14.63
-16.8
-19.14
-21.59
-23.74
-24.84
-24.07
-21.01
-15.86
-9.51
-3.15
2.14
5.82
7.94
9.06
9.77
10.47
11.28
12.02
12.5
12.63
12.47
12.19
11.95
11.81
11.77
11.72
11.54
11.17
10.59
9.85
9.03
8.21
7.44
6.65
5.71
4.39
2.44
-0.3
-3.84
-8.02
-12.49
-16.83
-20.51
-23.07
-24.08
-23.32
-20.87
-17.1
-12.69
-8.39
-4.82
-2.19
-0.32
1.23
2.86
4.69
6.5
7.89
8.55
8.45
7.93
7.48
7.5
8.07
8.94
9.71
10.03
9.75
8.95
7.83
6.56
5.23
3.86
2.4
0.89
-0.66
-2.2
-3.74
-5.39
-7.29
-9.58
-12.27
-15.24
-18.13
-20.43
-21.54
-20.93
-18.38
-14.13
-8.87
-3.57
0.9
4.1
6.1
7.38
8.47
9.62
10.72
11.42
11.45
10.78
9.72
8.7
8.08
7.99
8.35
8.95
9.56
10
10.17
10
9.41
8.35
6.86
4.97
2.85
0.7
-1.3
-3.04
-4.58
-6.15
-8.09
-10.61
-13.69
-16.97
-19.76
-21.3
-21.01
-18.75
-14.88
-10.15
-5.41
-1.33
1.79
4.09
5.93
7.61
9.27
10.73
11.73
12.09
11.81
11.13
10.41
9.87
9.62
9.58
9.63
9.71
9.75
9.7
9.45
8.83
7.7
6.06
4.04
1.85
-0.32
-2.37
-4.35
-6.36
-8.56
-11.05
-13.84
-16.81
-19.65
-21.85
-22.84
-22.18
-19.8
-16.05
-11.58
-7.14
-3.26
-0.1
2.46
4.69
6.77
8.64
10.12
11.08
11.48
11.44
11.17
10.83
10.43
9.95
9.38
8.8
8.38
8.22
8.35
8.6
8.72
8.5
7.89
6.96
5.89
4.82
3.81
2.79
1.65
0.22
-1.53
-3.58
-5.76
-7.8
-9.32
-9.9
-9.16
-6.98
-3.52
0.68
4.91
8.47
10.93
12.27
12.83
13.1
13.43
13.9
14.24
14.11
13.34
12.1
10.84
10.07
10.12
10.89
11.95
12.74
12.81
11.98
10.36
8.18
5.7
3.14
0.69
-1.46
-3.16
-4.43
-5.45
-6.59
-8.21
-10.52
-13.32
-16.01
-17.75
-17.76
-15.62
-11.55
-6.35
-1.08
3.31
6.32
8
8.77
9.1
9.25
9.19
8.82
8.08
7.12
6.21
5.57
5.25
5.08
4.86
4.42
3.68
2.72
1.69
0.74
-0
-0.5
-0.82
-1.14
-1.72
-2.8
-4.56
-7
-9.95
-13.14
-16.21
-18.66
-20.02
-19.84
-17.96
-14.6
-10.38
-6.07
-2.34
0.53
2.68
4.39
5.9
7.18
8.02
8.2
7.73
6.88
6.03
5.48
5.29
5.31
5.28
4.97
4.3
3.33
2.27
1.39
0.87
0.73
0.74
0.52
-0.38
-2.19
-4.9
-8.17
-11.51
-14.41
-16.43
-17.24
-16.65
-14.65
-11.51
-7.73
-3.92
-0.61
1.93
3.8
5.28
6.68
8.1
9.39
10.23
10.34
9.67
8.42
7.04
5.99
5.58
5.8
6.43
7.05
7.31
7.02
6.25
5.2
4.09
3.03
2
0.85
-0.68
-2.76
-5.47
-8.71
-12.21
-15.53
-18.15
-19.54
-19.4
-17.69
-14.71
-11.05
-7.34
-4.17
-1.85
-0.34
0.62
1.48
2.57
4.01
5.69
7.25
8.4
8.92
8.91
8.62
8.32
8.17
8.12
8.05
7.83
7.49
7.14
6.86
6.58
6.07
5.1
3.55
1.55
-0.61
-2.7
-4.64
-6.64
-9.07
-12.11
-15.63
-19.04
-21.48
-22.15
-20.68
-17.25
-12.6
-7.72
-3.54
-0.57
1.19
2.18
2.93
3.8
4.87
5.91
6.62
6.82
6.56
6.11
5.75
5.69
5.94
6.32
6.62
6.65
6.4
5.91
5.25
4.44
3.43
2.12
0.5
-1.36
-3.34
-5.26
-7.06
-8.79
-10.65
-12.82
-15.35
-18.01
-20.28
-21.52
-21.19
-19.14
-15.62
-11.27
-6.86
-2.98
0.08
2.36
4.12
5.68
7.15
8.49
9.49
9.96
9.88
9.42
8.96
8.8
9.07
9.53
9.76
9.33
8.07
6.23
4.29
2.71
1.63
0.85
-0.04
-1.33
-3.03
-4.87
-6.58
-8.15
-9.77
-11.79
-14.24
-16.73
-18.49
-18.74
-17.08
-13.75
-9.52
-5.32
-1.88
0.65
2.58
4.39
6.44
8.71
10.89
12.49
13.19
12.98
12.12
11.1
10.32
10.02
10.13
10.42
10.53
10.25
9.52
8.48
7.31
6.12
4.91
3.51
1.76
-0.34
-2.59
-4.67
-6.33
-7.53
-8.54
-9.78
-11.66
-14.25
-17.15
-19.59
-20.67
-19.75
-16.73
-12.18
-7.07
-2.41
1.2
3.7
5.47
7.01
8.58
10.08
11.13
11.45
10.99
10.13
9.38
9.11
9.39
9.94
10.42
10.58
10.45
10.21
10.04
9.97
9.83
9.35
8.27
6.47
4.01
1.15
-1.74
-4.24
-6.04
-7
-7.34
-7.58
-8.35
-10.17
-13.11
-16.73
-20.21
-22.67
-23.42
-22.23
-19.34
-15.36
-11.03
-7.04
-3.79
-1.33
0.57
2.24
3.91
5.61
7.17
8.32
8.91
8.96
8.68
8.38
8.31
8.54
9
9.48
9.83
9.93
9.8
9.51
9.21
8.92
8.56
7.98
6.93
5.26
3.02
0.44
-2.06
-4.07
-5.3
-5.76
-5.74
-5.72
-6.19
-7.42
-9.36
-11.72
-13.99
-15.71
-16.54
-16.29
-15
-12.79
-9.91
-6.65
-3.36
-0.34
2.24
4.34
6.12
7.78
9.39
10.92
12.16
12.93
13.19
13.08
12.89
12.78
12.8
12.77
12.54
12.06
11.52
11.22
11.33
11.73
12.03
11.66
10.2
7.6
4.25
0.77
-2.14
-4.1
-5.08
-5.41
-5.63
-6.2
-7.44
-9.47
-12.21
-15.38
-18.59
-21.22
-22.7
-22.58
-20.74
-17.48
-13.36
-9.05
-5.02
-1.5
1.54
4.17
6.44
8.33
9.79
10.82
11.49
11.96
12.32
12.71
13.16
13.64
14.07
14.26
14.11
13.55
12.69
11.71
10.81
10.06
9.34
8.37
6.88
4.79
2.27
-0.3
-2.52
-4.18
-5.33
-6.25
-7.29
-8.7
-10.62
-12.99
-15.69
-18.45
-20.85
-22.41
-22.62
-21.21
-18.23
-14.12
-9.52
-5.07
-1.2
1.97
4.52
6.58
8.26
9.55
10.4
10.79
10.8
10.53
10.13
9.72
9.35
8.98
8.57
8.07
7.43
6.71
5.99
5.39
4.95
4.59
4.08
3.18
1.71
-0.29
-2.54
-4.7
-6.5
-7.95
-9.31
-10.93
-13.02
-15.47
-17.84
-19.54
-20
-18.91
-16.26
-12.37
-7.81
-3.19
0.85
3.89
5.75
6.62
6.88
6.96
7.13
7.36
7.45
7.15
6.4
5.39
4.46
3.94
3.96
4.37
4.87
5.12
4.95
4.38
3.6
2.78
2.03
1.28
0.46
-0.54
-1.72
-3
-4.33
-5.71
-7.29
-9.25
-11.59
-14.08
-16.2
-17.28
-16.81
-14.58
-10.82
-6.15
-1.3
3.08
6.58
9.05
10.61
11.49
11.87
11.94
11.71
11.17
10.28
9.15
7.98
7.06
6.64
6.78
7.38
8.11
8.65
8.75
8.3
7.36
6.09
4.67
3.23
1.85
0.58
-0.59
-1.69
-2.83
-4.12
-5.7
-7.71
-10.22
-13.18
-16.35
-19.28
-21.37
-21.99
-20.74
-17.59
-13
-7.83
-3.03
0.66
2.96
4.11
4.62
5.06
5.67
6.48
7.23
7.72
7.84
7.63
7.26
6.94
6.79
6.88
7.12
7.37
7.42
7.1
6.35
5.29
4.17
3.17
2.35
1.5
0.32
-1.44
-3.79
-6.5
-9.26
-11.82
-14.09
-16.01
-17.4
-17.84
-16.92
-14.38
-10.45
-5.82
-1.37
2.14
4.44
5.75
6.62
7.53
8.73
10.02
10.99
11.3
10.86
9.9
8.89
8.23
8.08
8.24
8.27
7.73
6.49
4.76
3.08
1.86
1.31
1.22
1.11
0.48
-0.97
-3.24
-6.08
-9.17
-12.2
-14.86
-16.85
-17.78
-17.26
-15.16
-11.69
-7.49
-3.34
0.09
2.52
4.13
5.35
6.6
7.99
9.33
10.22
10.32
9.59
8.31
6.97
6.06
5.79
6.1
6.68
7.15
7.26
6.84
5.95
4.68
3.11
1.32
-0.69
-2.83
-5.03
-7.22
-9.4
-11.58
-13.75
-15.81
-17.47
-18.42
-18.37
-17.21
-15.02
-12.08
-8.75
-5.4
-2.34
0.23
2.23
3.64
4.48
4.82
4.78
4.49
4.12
3.9
4.06
4.69
5.69
6.77
7.52
7.6
6.85
5.45
3.74
2.08
0.76
-0.15
-0.72
-1.13
-1.63
-2.51
-4.06
-6.46
-9.59
-12.92
-15.58
-16.68
-15.66
-12.6
-8.2
-3.46
0.7
3.79
5.81
7.03
7.73
8.02
7.91
7.37
6.48
5.5
4.69
4.29
4.26
4.45
4.58
4.44
3.97
3.25
2.46
1.76
1.23
0.83
0.47
0.08
-0.42
-1.08
-2.03
-3.44
-5.45
-7.98
-10.72
-13.11
-14.55
-14.6
-13.14
-10.4
-6.84
-3.03
0.54
3.57
5.95
7.74
9.12
10.23
11.15
11.86
12.24
12.2
11.72
10.9
9.91
8.93
8.09
7.43
6.92
6.47
5.99
5.41
4.7
3.87
2.89
1.81
0.63
-0.64
-2.01
-3.55
-5.37
-7.61
-10.33
-13.36
-16.25
-18.4
-19.15
-18.09
-15.19
-10.88
-5.94
-1.21
2.63
5.25
6.75
7.5
7.97
8.44
8.88
9.02
8.57
7.45
5.92
4.47
3.6
3.55
4.16
5.03
5.7
5.89
5.5
4.64
3.42
1.98
0.41
-1.23
-2.83
-4.37
-5.87
-7.44
-9.2
-11.29
-13.68
-16.2
-18.56
-20.32
-21.08
-20.52
-18.57
-15.45
-11.6
-7.57
-3.83
-0.65
1.89
3.88
5.42
6.54
7.21
7.39
7.14
6.66
6.2
5.92
5.89
5.95
5.94
5.7
5.2
4.51
3.73
2.94
2.13
1.24
0.22
-0.95
-2.23
-3.59
-5.07
-6.82
-8.98
-11.69
-14.87
-18.28
-21.4
-23.63
-24.39
-23.32
-20.37
-15.87
-10.44
-4.85
0.17
4.15
6.91
8.59
9.53
10.09
10.53
11.01
11.55
12.09
12.56
12.92
13.17
13.35
13.52
13.72
13.94
14.04
13.79
12.98
11.51
9.5
7.28
5.22
3.57
2.34
1.34
0.27
-1.16
-3.11
-5.61
-8.62
-11.97
-15.41
-18.5
-20.64
-21.24
-19.85
-16.46
-11.52
-5.85
-0.36
4.18
7.42
9.41
10.45
10.93
11.1
11.09
10.99
10.9
10.91
11.11
11.51
11.98
12.38
12.55
12.44
12.08
11.59
11.08
10.6
10.12
9.44
8.35
6.67
4.38
1.61
-1.33
-4.13
-6.57
-8.61
-10.44
-12.27
-14.33
-16.66
-19.13
-21.41
-23
-23.33
-21.99
-18.9
-14.41
-9.32
-4.47
-0.49
2.44
4.62
6.5
8.34
10.1
11.41
11.88
11.4
10.24
8.95
8.06
7.85
8.26
8.99
9.66
10.06
10.18
10.16
10.12
10.09
9.92
9.39
8.33
6.71
4.63
2.38
0.23
-1.66
-3.28
-4.79
-6.43
-8.42
-10.88
-13.77
-16.91
-19.91
-22.24
-23.33
-22.7
-20.15
-15.9
-10.6
-5.12
-0.31
3.32
5.65
7.01
7.83
8.54
9.31
10.15
10.95
11.56
11.95
12.15
12.27
12.37
12.4
12.26
11.81
11.03
10.05
9.17
8.7
8.75
9.07
9.14
8.4
6.63
4.07
1.36
-0.82
-2.1
-2.58
-2.79
-3.36
-4.79
-7.21
-10.42
-13.99
-17.34
-19.83
-20.82
-19.88
-16.94
-12.35
-6.93
-1.63
2.77
5.82
7.61
8.49
8.92
9.22
9.54
9.88
10.22
10.57
10.94
11.35
11.72
11.85
11.54
10.7
9.41
7.93
6.63
5.76
5.41
5.4
5.4
5.09
4.27
2.95
1.32
-0.36
-1.83
-3
-3.97
-5.04
-6.5
-8.55
-11.1
-13.75
-15.94
-17.06
-16.72
-14.85
-11.74
-7.92
-4
-0.49
2.32
4.34
5.74
6.8
7.84
8.97
10.07
10.8
10.81
10
8.52
6.82
5.36
4.48
4.22
4.38
4.62
4.72
4.57
4.15
3.5
2.56
1.3
-0.27
-2.07
-3.88
-5.5
-6.82
-7.96
-9.17
-10.79
-13.02
-15.76
-18.58
-20.78
-21.6
-20.51
-17.51
-13.05
-8
-3.3
0.35
2.68
3.89
4.47
4.89
5.42
6.04
6.58
6.84
6.76
6.44
6.07
5.78
5.6
5.44
5.19
4.78
4.28
3.82
3.48
3.19
2.77
1.99
0.72
-0.97
-2.87
-4.78
-6.62
-8.51
-10.67
-13.15
-15.71
-17.8
-18.73
-18
-15.53
-11.71
-7.25
-2.87
0.96
4.12
6.71
8.92
10.76
12.08
12.62
12.28
11.13
9.55
7.97
6.74
6.01
5.69
5.55
5.4
5.12
4.71
4.26
3.79
3.27
2.53
1.41
-0.18
-2.18
-4.44
-6.7
-8.75
-10.59
-12.31
-14.11
-16.07
-18.06
-19.72
-20.51
-19.99
-17.94
-14.54
-10.29
-5.86
-1.85
1.46
4.1
6.31
8.31
10.14
11.62
12.52
12.71
12.31
11.62
10.97
10.53
10.28
10.11
9.91
9.7
9.58
9.6
9.7
9.68
9.24
8.19
6.51
4.35
2.02
-0.21
-2.09
-3.55
-4.7
-5.75
-7.04
-8.82
-11.23
-14.17
-17.26
-19.94
-21.56
-21.65
-20.07
-17.06
-13.2
-9.12
-5.33
-2.05
0.82
3.47
5.98
8.28
10.11
11.28
11.82
11.99
12.21
12.8
13.85
15.15
16.34
17.09
17.28
17
16.45
15.88
15.35
14.88
14.38
13.78
13.01
12
10.62
8.81
6.59
4.17
1.89
0.04
-1.24
-2.08
-2.84
-3.88
-5.48
-7.67
-10.36
-13.36
-16.38
-19.11
-21.13
-22
-21.38
-19.19
-15.69
-11.44
-7.08
-3.19
-0.04
2.35
4.16
5.65
6.93
8.01
8.71
8.97
8.8
8.37
7.97
7.8
7.93
8.28
8.7
9.06
9.33
9.52
9.68
9.8
9.84
9.65
9.08
7.98
6.28
4.08
1.62
-0.69
-2.49
-3.61
-4.13
-4.41
-4.82
-5.66
-6.97
-8.57
-10.24
-11.8
-13.22
-14.46
-15.39
-15.68
-14.91
-12.78
-9.37
-5.18
-1.04
2.29
4.4
5.43
5.93
6.56
7.69
9.22
10.7
11.62
11.75
11.26
10.65
10.36
10.55
10.97
11.16
10.76
9.78
8.54
7.47
6.87
6.69
6.62
6.28
5.49
4.33
3.07
1.95
1.07
0.31
-0.51
-1.51
-2.67
-3.86
-5.06
-6.37
-8.1
-10.45
-13.45
-16.72
-19.59
-21.33
-21.41
-19.74
-16.63
-12.66
-8.47
-4.51
-1.05
1.8
4.05
5.74
6.94
7.72
8.15
8.31
8.26
8.13
8.06
8.17
8.52
8.99
9.4
9.6
9.55
9.38
9.26
9.26
9.29
9.14
8.59
7.55
6.19
4.76
3.49
2.51
1.77
1.09
0.29
-0.82
-2.33
-4.19
-6.27
-8.32
-10.16
-11.73
-13.13
-14.49
-15.86
-17.05
-17.7
-17.37
-15.78
-12.96
-9.25
-5.19
-1.36
1.77
3.96
5.23
5.86
6.23
6.72
7.56
8.67
9.8
10.6
10.88
10.64
10.08
9.43
8.89
8.55
8.42
8.46
8.56
8.61
8.48
8.02
7.17
5.93
4.39
2.62
0.78
-1.08
-2.84
-4.35
-5.46
-6.06
-6.22
-6.17
-6.28
-6.96
-8.45
-10.74
-13.54
-16.33
-18.54
-19.66
-19.39
-17.64
-14.51
-10.37
-5.72
-1.19
2.61
5.32
6.9
7.66
8.07
8.51
9.1
9.71
10.06
10
9.59
9.07
8.76
8.86
9.36
10.06
10.72
11.11
11.08
10.57
9.62
8.33
6.91
5.49
4.19
3
1.84
0.67
-0.51
-1.61
-2.56
-3.31
-3.92
-4.58
-5.45
-6.68
-8.31
-10.24
-12.31
-14.32
-16.05
-17.28
-17.79
-17.4
-15.98
-13.57
-10.38
-6.85
-3.5
-0.84
0.88
1.75
2.17
2.61
3.41
4.56
5.8
6.73
7.09
6.9
6.36
5.77
5.3
5.02
4.89
4.92
5.17
5.74
6.58
7.46
8.03
8.01
7.31
6.13
4.81
3.66
2.78
2.09
1.41
0.62
-0.27
-1.17
-2.05
-2.91
-3.83
-4.9
-6.24
-7.99
-10.21
-12.89
-15.76
-18.28
-19.78
-19.68
-17.84
-14.59
-10.63
-6.7
-3.33
-0.71
1.21
2.47
3.09
3.1
2.65
2.07
1.8
2.12
2.97
4.04
4.91
5.3
5.15
4.63
3.99
3.4
2.94
2.64
2.44
2.29
2.13
1.8
1.17
0.15
-1.26
-2.93
-4.64
-6.17
-7.37
-8.25
-9
-9.96
-11.38
-13.35
-15.63
-17.61
-18.55
-17.9
-15.52
-11.78
-7.46
-3.4
-0.21
1.87
2.96
3.44
3.7
4.02
4.47
4.98
5.47
5.9
6.24
6.46
6.46
6.08
5.27
4.12
2.9
1.93
1.43
1.45
1.76
2.03
1.96
1.48
0.65
-0.37
-1.47
-2.6
-3.73
-4.88
-6.06
-7.37
-8.95
-10.92
-13.24
-15.65
-17.67
-18.72
-18.35
-16.42
-13.14
-9.03
-4.75
-0.94
1.97
3.77
4.57
4.66
4.41
4.13
3.96
3.92
3.93
3.94
3.88
3.78
3.67
3.57
3.51
3.42
3.27
3.01
2.64
2.18
1.64
1.04
0.35
-0.52
-1.67
-3.11
-4.81
-6.63
-8.45
-10.26
-12.1
-14.03
-16.03
-17.86
-19.13
-19.41
-18.39
-16.04
-12.67
-8.78
-4.95
-1.61
1.02
2.9
4.14
4.92
5.42
5.77
6.07
6.37
6.69
7.04
7.45
7.88
8.28
8.56
8.59
8.34
7.83
7.17
6.52
5.96
5.44
4.73
3.56
1.79
-0.51
-3.02
-5.3
-7.1
-8.44
-9.64
-11.22
-13.51
-16.52
-19.8
-22.64
-24.31
-24.3
-22.46
-18.98
-14.31
-9.1
-4.06
0.21
3.29
5.14
6.07
6.57
7.13
7.98
9.08
10.17
11.02
11.51
11.66
11.59
11.39
11.14
10.88
10.69
10.65
10.81
11.06
11.2
11.01
10.26
8.9
6.98
4.68
2.23
-0.1
-2.13
-3.74
-4.97
-6
-7.08
-8.5
-10.51
-13.14
-16.33
-19.74
-22.91
-25.21
-26.07
-25.1
-22.24
-17.83
-12.52
-7.04
-2.03
2.11
5.25
7.48
8.99
9.95
10.49
10.7
10.65
10.44
10.22
10.15
10.34
10.78
11.34
11.83
12.1
12.1
11.9
11.63
11.37
11.15
10.88
10.46
9.75
8.64
7.05
4.96
2.47
-0.18
-2.6
-4.48
-5.7
-6.42
-7.03
-8.02
-9.72
-12.22
-15.35
-18.77
-22.09
-24.81
-26.38
-26.26
-24.08
-19.91
-14.31
-8.25
-2.73
1.64
4.77
7.01
8.81
10.41
11.77
12.66
12.95
12.78
12.42
12.26
12.42
12.87
13.31
13.44
13.06
12.21
11.12
10.14
9.52
9.3
9.21
8.86
7.91
6.26
4.13
1.97
0.2
-1.03
-1.84
-2.65
-3.83
-5.66
-8.21
-11.37
-14.91
-18.48
-21.66
-23.88
-24.55
-23.17
-19.67
-14.38
-8.15
-2.08
2.88
6.2
7.89
8.35
8.11
7.68
7.31
7.1
7.07
7.23
7.66
8.36
9.32
10.44
11.52
12.36
12.82
12.91
12.73
12.48
12.24
11.92
11.28
10.02
8.09
5.7
3.31
1.37
0.07
-0.78
-1.61
-2.89
-4.93
-7.77
-11.23
-15
-18.63
-21.48
-22.88
-22.29
-19.48
-14.8
-9.11
-3.45
1.25
4.57
6.63
7.88
8.88
9.98
11.22
12.39
13.2
13.39
12.94
11.96
10.75
9.61
8.8
8.44
8.48
8.8
9.17
9.37
9.24
8.69
7.71
6.33
4.67
2.85
1.02
-0.72
-2.4
-4.08
-5.91
-7.97
-10.37
-13.07
-15.89
-18.53
-20.51
-21.36
-20.71
-18.45
-14.79
-10.17
-5.24
-0.61
3.24
6.1
7.99
9.14
9.8
10.21
10.49
10.7
10.86
11.01
11.26
11.74
12.45
13.2
13.69
13.66
12.99
11.81
10.38
8.96
7.66
6.45
5.2
3.82
2.29
0.65
-1.05
-2.75
-4.46
-6.24
-8.15
-10.33
-12.8
-15.54
-18.3
-20.64
-22
-21.87
-20.04
-16.69
-12.36
-7.72
-3.42
0.19
3.05
5.34
7.26
8.96
10.37
11.32
11.66
11.4
10.79
10.22
10.06
10.44
11.26
12.19
12.87
13.07
12.77
12.09
11.26
10.38
9.43
8.34
7
5.39
3.62
1.83
0.14
-1.46
-3.12
-5.1
-7.65
-10.85
-14.53
-18.17
-21.09
-22.58
-22.15
-19.71
-15.56
-10.32
-4.72
0.55
5.05
8.56
11.07
12.61
13.27
13.17
12.54
11.68
10.92
10.47
10.37
10.52
10.7
10.77
10.68
10.42
10.06
9.64
9.2
8.76
8.36
7.91
7.3
6.34
4.87
2.96
0.83
-1.14
-2.71
-3.86
-4.86
-6.16
-8.15
-10.95
-14.35
-17.83
-20.66
-22.23
-22.12
-20.27
-16.93
-12.61
-7.9
-3.38
0.49
3.47
5.53
6.73
7.22
7.19
6.82
6.3
5.78
5.39
5.26
5.46
6.01
6.84
7.76
8.58
9.08
9.19
8.92
8.41
7.76
7.01
6.07
4.82
3.19
1.26
-0.76
-2.7
-4.49
-6.22
-8.07
-10.18
-12.52
-14.87
-16.78
-17.75
-17.42
-15.57
-12.33
-8.15
-3.66
0.54
4
6.57
8.31
9.4
9.99
10.16
9.95
9.37
8.57
7.72
7.01
6.59
6.45
6.51
6.62
6.6
6.27
5.53
4.4
3.05
1.81
0.98
0.71
0.86
1.04
0.81
-0.14
-1.79
-3.94
-6.27
-8.63
-10.93
-13.13
-14.92
-15.79
-15.12
-12.6
-8.46
-3.45
1.38
5.19
7.62
8.85
9.37
9.64
9.91
10.16
10.26
10.12
9.8
9.48
9.34
9.43
9.64
9.77
9.63
9.13
8.24
7.05
5.71
4.39
3.25
2.38
1.77
1.29
0.68
-0.33
-1.99
-4.38
-7.44
-10.83
-14.06
-16.54
-17.62
-16.89
-14.29
-10.23
-5.49
-1.01
2.56
4.97
6.44
7.42
8.33
9.33
10.35
11.15
11.52
11.38
10.8
9.96
9.07
8.37
8
8
8.31
8.78
9.18
9.32
9.09
8.44
7.46
6.19
4.66
2.81
0.59
-1.97
-4.74
-7.5
-10.03
-12.23
-14.04
-15.45
-16.3
-16.32
-15.19
-12.79
-9.31
-5.29
-1.38
1.86
4.27
5.96
7.21
8.2
8.88
9.06
8.6
7.56
6.24
5.08
4.42
4.36
4.78
5.4
5.95
6.28
6.31
6.05
5.49
4.59
3.34
1.8
0.18
-1.23
-2.16
-2.53
-2.5
-2.42
-2.7
-3.68
-5.47
-7.87
-10.41
-12.47
-13.43
-12.85
-10.58
-6.91
-2.46
1.91
5.41
7.56
8.4
8.34
7.97
7.71
7.66
7.63
7.36
6.73
5.91
5.3
5.25
5.85
6.86
7.79
8.13
7.66
6.51
5.13
3.97
3.31
3.06
2.87
2.32
1.16
-0.6
-2.7
-4.84
-6.84
-8.71
-10.51
-12.15
-13.29
-13.4
-12.07
-9.25
-5.41
-1.33
2.25
4.9
6.65
7.75
8.46
8.8
8.56
7.56
5.88
3.94
2.37
1.62
1.81
2.57
3.27
3.35
2.56
1.12
-0.46
-1.69
-2.35
-2.6
-2.93
-3.8
-5.47
-7.82
-10.41
-12.7
-14.21
-14.66
-13.98
-12.27
-9.8
-6.92
-4.04
-1.51
0.43
1.77
2.66
3.28
3.7
3.87
3.68
3.11
2.26
1.39
0.71
0.28
0.01
-0.3
-0.75
-1.3
-1.76
-1.98
-1.94
-1.82
-1.87
-2.31
-3.19
-4.47
-6.09
-8.02
-10.18
-12.4
-14.2
-14.99
-14.22
-11.72
-7.86
-3.46
0.49
3.24
4.6
4.89
4.73
4.64
4.75
4.86
4.54
3.53
1.87
-0.08
-1.81
-2.97
-3.52
-3.77
-4.19
-5.14
-6.74
-8.75
-10.75
-12.36
-13.42
-14.08
-14.73
-15.88
-17.89
-20.88
-24.59
-28.46
-31.77
-33.81
-34.05
-32.29
-28.7
-23.77
-18.19
-12.66
-7.7
-3.6
-0.33
2.35
4.78
7.15
9.51
11.69
13.51
14.9
15.97
16.96
18.06
19.29
20.43
21.17
21.27
20.72
19.75
18.68
17.77
17.08
16.56
16.13
15.73
15.35
14.94
14.41
13.63
12.55
11.3
10.27
9.89
10.48
12.07
14.31
16.69
18.73
20.19
21.07
21.45
21.42
20.95
20.04
18.72
17.18
15.6
14.12
12.75
11.4
10.01
8.58
7.2
5.89
4.67
3.42
2.02
0.42
-1.36
-3.24
-5.18
-7.1
-8.95
-10.6
-11.94
-12.95
-13.77
-14.72
-16.13
-18.15
-20.61
-22.98
-24.56
-24.79
-23.47
-20.85
-17.52
-14.08
-11
-8.48
-6.52
-5.05
-4.06
-3.54
-3.38
-3.43
-3.38
-3.01
-2.24
-1.2
-0.16
0.61
0.95
0.87
0.46
-0.11
-0.76
-1.44
-2.15
-2.86
-3.55
-4.13
-4.62
-5.13
-5.87
-6.98
-8.48
-10.26
-12.1
-13.88
-15.65
-17.54
-19.57
-21.43
-22.57
-22.32
-20.25
-16.5
-11.73
-6.9
-2.82
0.12
2.04
3.4
4.62
5.85
6.93
7.52
7.46
6.87
6.16
5.75
5.85
6.3
6.7
6.75
6.43
6.06
6.09
6.75
7.84
8.78
8.86
7.69
5.37
2.47
-0.28
-2.33
-3.57
-4.24
-4.8
-5.61
-6.82
-8.39
-10.18
-12.08
-13.99
-15.67
-16.75
-16.74
-15.26
-12.27
-8.15
-3.67
0.38
3.45
5.4
6.43
6.93
7.25
7.53
7.82
8.05
8.22
8.37
8.57
8.81
9
9.03
8.77
8.19
7.35
6.37
5.39
4.51
3.77
3.17
2.7
2.27
1.74
0.96
-0.16
-1.65
-3.41
-5.26
-7.01
-8.54
-9.89
-11.2
-12.62
-14.14
-15.52
-16.34
-16.17
-14.77
-12.28
-9.13
-5.89
-3.03
-0.81
0.82
2.07
3.12
4.05
4.81
5.28
5.38
5.08
4.41
3.48
2.48
1.69
1.32
1.48
2.08
2.86
3.47
3.62
3.16
2.08
0.51
-1.38
-3.4
-5.26
-6.7
-7.44
-7.33
-6.39
-4.86
-3.15
-1.79
-1.15
-1.29
-1.86
-2.11
-1.23
1.32
5.53
10.8
16.19
20.81
24.08
25.87
26.35
25.79
24.44
22.55
20.33
17.95
15.57
13.16
10.63
7.87
4.89
1.86
-1.03
-3.66
-6.04
-8.36
-10.77
-13.38
-16.16
-19.11
-22.23
-25.58
-29.26
-33.25
-37.44
-41.63
-45.65
-49.48
-53.22
-57
-60.81
-64.33
-67.09
-68.6
-68.67
-67.53
-65.75
-63.96
-62.48
-61.21
-59.69
-57.43
-54.14
-49.89
-44.91
-39.41
-33.4
-26.79
-19.5
-11.74
-3.91
3.48
10.07
15.88
21.23
26.55
32.17
38.16
44.36
50.6
56.82
63.21
70.18
78.07
86.89
96.08
104.58
111.07
114.52
114.41
110.98
104.93
97.04
87.91
77.91
67.34
56.64
46.56
37.86
31.04
26.15
22.68
19.98
17.45
14.81
12.06
9.29
6.56
3.81
0.98
-1.97
-4.95
-7.75
-10.19
-12.08
-13.33
-13.91
-13.93
-13.62
-13.28
-13.2
-13.57
-14.36
-15.42
-16.56
-17.68
-18.72
-19.68
-20.55
-21.33
-22.11
-23.11
-24.57
-26.62
-29.16
-31.75
-33.82
-34.79
-34.35
-32.48
-29.42
-25.41
-20.75
-15.71
-10.64
-5.98
-2.18
0.47
1.91
2.46
2.56
2.64
2.98
3.61
4.39
5.13
5.74
6.2
6.43
6.37
5.86
4.88
3.52
2.05
0.77
-0.17
-0.82
-1.47
-2.45
-4
-6.09
-8.43
-10.61
-12.25
-13.17
-13.48
-13.47
-13.51
-13.9
-14.74
-15.92
-17.1
-17.75
-17.38
-15.6
-12.3
-7.63
-2.03
3.92
9.69
14.92
19.4
23.01
25.67
27.3
27.89
27.63
26.86
25.99
25.32
24.91
24.62
24.2
23.48
22.43
21.12
19.57
17.7
15.36
12.44
9.05
5.54
2.37
-0.06
-1.61
-2.45
-2.9
-3.31
-3.9
-4.69
-5.69
-6.89
-8.41
-10.38
-12.88
-15.82
-18.9
-21.63
-23.48
-23.98
-22.83
-20.08
-16.1
-11.51
-6.97
-3.01
0.09
2.37
4.02
5.25
6.13
6.62
6.57
5.89
4.68
3.18
1.8
0.94
0.9
1.73
3.23
4.98
6.48
7.28
7.13
6.03
4.15
1.83
-0.61
-2.95
-5.09
-7.09
-9.01
-10.98
-13.09
-15.39
-17.8
-20.05
-21.68
-22.18
-21.09
-18.25
-13.9
-8.63
-3.22
1.59
5.41
8.21
10.26
11.92
13.39
14.6
15.26
15.03
13.76
11.58
8.93
6.43
4.55
3.51
3.2
3.26
3.3
2.97
2.11
0.74
-0.98
-2.84
-4.66
-6.39
-8.08
-9.83
-11.84
-14.26
-17.17
-20.48
-23.93
-27.01
-29.12
-29.63
-28.17
-24.76
-19.88
-14.3
-8.82
-4.01
-0.1
2.97
5.34
7.06
8.05
8.17
7.41
5.98
4.31
2.88
2.02
1.81
2.16
2.81
3.61
4.41
5.14
5.73
6.09
6.12
5.73
4.92
3.76
2.27
0.46
-1.79
-4.56
-7.84
-11.48
-15.14
-18.38
-20.75
-21.86
-21.43
-19.39
-15.88
-11.21
-5.87
-0.48
4.41
8.4
11.37
13.43
14.81
15.7
16.11
15.97
15.16
13.65
11.65
9.47
7.49
5.99
5.1
4.87
5.19
5.84
6.49
6.77
6.38
5.2
3.39
1.27
-0.83
-2.73
-4.5
-6.4
-8.72
-11.64
-15.14
-18.93
-22.59
-25.6
-27.41
-27.53
-25.66
-21.83
-16.43
-10.16
-3.81
1.89
6.45
9.71
11.76
12.9
13.45
13.74
13.96
14.16
14.23
14.06
13.53
12.67
11.64
10.67
9.95
9.56
9.42
9.33
9.14
8.68
7.86
6.65
5.09
3.26
1.3
-0.7
-2.63
-4.49
-6.25
-7.98
-9.72
-11.67
-14.06
-17.05
-20.5
-23.79
-25.95
-25.98
-23.34
-18.26
-11.69
-4.93
0.94
5.39
8.5
10.7
12.38
13.68
14.46
14.58
14.11
13.39
12.87
12.89
13.45
14.2
14.69
14.54
13.76
12.66
11.73
11.32
11.46
11.8
11.77
10.88
8.91
6
2.58
-0.81
-3.69
-5.82
-7.22
-8.18
-9.15
-10.62
-12.95
-16.25
-20.22
-24.27
-27.56
-29.24
-28.76
-26.02
-21.38
-15.63
-9.64
-4.12
0.58
4.41
7.54
10.12
12.19
13.64
14.37
14.41
14.02
13.63
13.58
14
14.68
15.25
15.39
14.97
14.18
13.31
12.66
12.25
11.86
11.13
9.74
7.62
4.87
1.83
-1.13
-3.74
-5.88
-7.56
-8.94
-10.25
-11.71
-13.54
-15.84
-18.57
-21.52
-24.23
-26.06
-26.38
-24.78
-21.23
-16.14
-10.25
-4.33
0.98
5.33
8.67
11.12
12.9
14.14
14.94
15.3
15.17
14.54
13.49
12.18
10.85
9.73
8.96
8.58
8.54
8.8
9.28
9.93
10.54
10.79
10.3
8.79
6.27
3.07
-0.24
-3.15
-5.38
-7.01
-8.37
-9.86
-11.76
-14.17
-17.05
-20.22
-23.32
-25.83
-27.08
-26.48
-23.74
-19.18
-13.55
-7.82
-2.84
0.98
3.68
5.53
6.79
7.62
8.04
8.1
7.96
7.84
7.91
8.15
8.41
8.41
7.97
7.1
5.99
5.02
4.55
4.77
5.59
6.56
7.04
6.49
4.67
1.86
-1.32
-4.14
-6.15
-7.39
-8.32
-9.58
-11.67
-14.78
-18.63
-22.68
-26.14
-28.18
-28.11
-25.59
-20.7
-14.01
-6.42
1.03
7.48
12.39
15.63
17.38
18
17.91
17.53
17.18
17.07
17.26
17.58
17.81
17.72
17.24
16.46
15.63
15.03
14.79
14.85
14.92
14.68
13.83
12.35
10.43
8.41
6.54
4.92
3.49
2.09
0.61
-1
-2.77
-4.79
-7.25
-10.27
-13.75
-17.18
-19.62
-20.05
-17.78
-12.82
-5.97
1.43
7.96
12.68
15.4
16.6
17.06
17.39
17.76
17.93
17.55
16.48
14.97
13.52
12.64
12.56
13.09
13.81
14.24
14.11
13.43
12.43
11.34
10.29
9.25
8.12
6.8
5.24
3.49
1.56
-0.63
-3.28
-6.65
-10.84
-15.61
-20.28
-23.85
-25.34
-24.21
-20.6
-15.36
-9.72
-4.8
-1.23
0.99
2.29
3.2
4
4.64
4.83
4.32
3.1
1.35
-0.59
-2.43
-4.08
-5.56
-6.95
-8.22
-9.22
-9.7
-9.48
-8.59
-7.39
-6.45
-6.33
-7.37
-9.59
-12.74
-16.51
-20.65
-25.03
-29.47
-33.58
-36.67
-37.9
-36.61
-32.64
-26.43
-18.91
-11.2
-4.2
1.59
6.1
9.52
11.99
13.54
14.02
13.28
11.36
8.66
5.8
3.47
2.15
1.94
2.57
3.52
4.27
4.44
3.93
2.87
1.5
0.13
-1.09
-2.13
-3.18
-4.55
-6.55
-9.42
-13.21
-17.72
-22.45
-26.58
-29.2
-29.46
-26.94
-21.78
-14.71
-6.86
0.64
6.95
11.68
14.83
16.69
17.58
17.83
17.64
17.17
16.48
15.63
14.68
13.73
12.95
12.51
12.51
12.88
13.4
13.78
13.73
13.09
11.79
9.89
7.53
4.9
2.23
-0.27
-2.49
-4.53
-6.73
-9.58
-13.43
-18.29
-23.65
-28.58
-31.91
-32.73
-30.55
-25.51
-18.32
-10.01
-1.62
5.98
12.25
16.97
20.22
22.19
23.17
23.31
22.77
21.68
20.3
19.03
18.29
18.31
18.96
19.82
20.39
20.37
19.8
19.03
18.44
18.15
17.91
17.22
15.63
12.97
9.49
5.72
2.17
-0.84
-3.26
-5.26
-7.11
-9.09
-11.43
-14.32
-17.86
-21.95
-26.23
-30.04
-32.54
-32.96
-30.79
-26.09
-19.42
-11.73
-4.03
2.84
8.42
12.67
15.82
18.14
19.77
20.67
20.75
20
18.72
17.41
16.63
16.7
17.54
18.68
19.56
19.77
19.23
18.16
16.89
15.62
14.38
13.02
11.38
9.37
6.95
4.18
1.14
-2.05
-5.23
-8.19
-10.72
-12.68
-14.12
-15.38
-16.97
-19.41
-22.99
-27.45
-31.99
-35.42
-36.58
-34.71
-29.79
-22.46
-13.86
-5.11
2.85
9.49
14.6
18.22
20.46
21.51
21.57
20.88
19.73
18.47
17.46
17.01
17.27
18.16
19.38
20.47
21.08
21.04
20.48
19.65
18.84
18.14
17.44
16.45
14.88
12.55
9.49
5.93
2.21
-1.33
-4.49
-7.17
-9.48
-11.6
-13.84
-16.51
-19.89
-24.08
-28.91
-33.83
-37.96
-40.31
-40.05
-36.81
-30.85
-22.89
-13.97
-5.05
3.1
9.97
15.3
18.95
20.92
21.36
20.61
19.17
17.58
16.3
15.6
15.51
15.89
16.51
17.1
17.48
17.54
17.33
16.93
16.48
16.04
15.61
15.03
14.09
12.56
10.29
7.37
4.02
0.62
-2.52
-5.2
-7.44
-9.43
-11.49
-13.95
-17.14
-21.23
-26.13
-31.38
-36.06
-38.97
-39
-35.5
-28.68
-19.55
-9.69
-0.57
6.81
12.15
15.73
18.1
19.7
20.71
21.12
20.89
20.14
19.15
18.3
17.94
18.12
18.73
19.41
19.81
19.72
19.17
18.43
17.78
17.37
17.07
16.54
15.31
13.03
9.63
5.39
0.85
-3.41
-6.97
-9.75
-12.01
-14.12
-16.48
-19.33
-22.74
-26.62
-30.71
-34.53
-37.36
-38.33
-36.69
-32.12
-24.98
-16.28
-7.35
0.6
6.81
11.13
13.78
15.09
15.38
14.83
13.61
11.98
10.26
8.77
7.76
7.27
7.18
7.33
7.53
7.73
7.99
8.4
9.01
9.69
10.16
10.02
8.94
6.8
3.75
0.18
-3.46
-6.84
-9.86
-12.63
-15.39
-18.43
-21.95
-25.9
-29.92
-33.3
-35.1
-34.38
-30.63
-24.07
-15.62
-6.67
1.41
7.79
12.27
15.27
17.38
18.98
20.13
20.61
20.13
18.59
16.19
13.29
10.45
8.15
6.73
6.29
6.68
7.48
8.18
8.31
7.57
5.99
3.83
1.42
-0.97
-3.25
-5.5
-7.92
-10.7
-14.03
-18.06
-22.77
-27.94
-32.93
-36.8
-38.47
-37.08
-32.35
-24.7
-15.24
-5.36
3.65
10.98
16.36
19.94
22.09
23.12
23.22
22.47
20.99
19
16.82
14.8
13.2
12.14
11.59
11.36
11.27
11.08
10.59
9.66
8.23
6.39
4.36
2.42
0.71
-0.8
-2.36
-4.35
-7.15
-10.97
-15.74
-21.03
-26.1
-29.93
-31.48
-29.97
-25.24
-17.87
-9.04
-0.18
7.53
13.48
17.68
20.48
22.26
23.26
23.52
23.08
22.08
20.82
19.65
18.77
18.22
17.83
17.42
16.82
15.95
14.86
13.57
12.17
10.67
9.09
7.41
5.6
3.55
1.22
-1.44
-4.37
-7.54
-10.97
-14.79
-19.11
-23.82
-28.4
-31.89
-33.14
-31.29
-26.19
-18.55
-9.72
-1.25
5.73
10.77
14.02
15.99
17.17
17.83
18.05
17.83
17.22
16.36
15.45
14.69
14.21
14.02
14.08
14.28
14.51
14.7
14.8
14.69
14.19
13.02
11
8.11
4.6
0.95
-2.32
-4.87
-6.68
-8.07
-9.52
-11.55
-14.59
-18.79
-24.01
-29.65
-34.64
-37.66
-37.54
-33.69
-26.42
-16.88
-6.68
2.62
10.01
15.24
18.6
20.63
21.76
22.18
21.94
21.12
19.98
18.91
18.29
18.25
18.63
19
18.96
18.32
17.26
16.16
15.4
15.09
14.99
14.63
13.55
11.49
8.55
5.12
1.69
-1.32
-3.72
-5.54
-7.01
-8.43
-10.16
-12.49
-15.69
-19.89
-24.96
-30.37
-35.19
-38.3
-38.68
-35.8
-29.88
-21.78
-12.78
-4.13
3.24
8.88
12.72
14.98
15.93
15.91
15.28
14.38
13.58
13.11
13.02
13.19
13.42
13.45
13.23
12.82
12.43
12.33
12.66
13.4
14.26
14.75
14.33
12.6
9.53
5.45
1.09
-2.79
-5.71
-7.64
-9
-10.43
-12.51
-15.56
-19.56
-24.1
-28.51
-31.83
-33.08
-31.41
-26.54
-18.92
-9.72
-0.55
7.15
12.54
15.57
16.82
17.13
17.13
17.08
16.92
16.52
15.82
15
14.31
13.91
13.74
13.59
13.18
12.45
11.59
10.93
10.67
10.76
10.75
10.1
8.36
5.48
1.81
-2.03
-5.44
-8.05
-9.91
-11.4
-13.14
-15.68
-19.32
-23.86
-28.52
-32.19
-33.69
-32.22
-27.69
-20.74
-12.5
-4.2
3.21
9.25
13.76
16.87
18.76
19.55
19.43
18.62
17.47
16.29
15.34
14.71
14.36
14.16
13.92
13.55
13
12.35
11.71
11.19
10.79
10.36
9.61
8.23
6.05
3.13
-0.19
-3.47
-6.33
-8.69
-10.8
-13.19
-16.35
-20.48
-25.31
-30.03
-33.52
-34.71
-32.91
-28.08
-20.85
-12.33
-3.73
3.93
10.07
14.56
17.6
19.51
20.56
20.89
20.56
19.61
18.2
16.56
15.01
13.79
13.03
12.69
12.6
12.6
12.57
12.52
12.49
12.49
12.4
11.97
10.93
9.06
6.37
3.04
-0.52
-3.86
-6.63
-8.71
-10.22
-11.52
-13.04
-15.13
-18
-21.61
-25.68
-29.58
-32.5
-33.51
-31.94
-27.59
-20.92
-12.98
-5.03
1.78
6.9
10.36
12.67
14.37
15.78
16.88
17.4
17.13
16.1
14.68
13.39
12.72
12.87
13.65
14.62
15.3
15.46
15.14
14.61
14.16
13.86
13.42
12.38
10.33
7.13
3.14
-0.99
-4.52
-6.96
-8.29
-8.92
-9.5
-10.63
-12.67
-15.63
-19.32
-23.36
-27.29
-30.52
-32.37
-32.12
-29.28
-23.93
-16.7
-8.78
-1.43
4.35
8.17
10.23
11.06
11.21
11.01
10.57
9.9
9.09
8.34
7.86
7.82
8.2
8.82
9.52
10.17
10.76
11.27
11.73
12.03
12.12
11.91
11.33
10.32
8.75
6.5
3.56
0.18
-3.17
-5.94
-7.73
-8.6
-9.05
-9.86
-11.73
-14.97
-19.32
-23.96
-27.74
-29.58
-28.78
-25.25
-19.49
-12.44
-5.2
1.26
6.33
9.8
11.82
12.71
12.83
12.49
11.84
10.94
9.79
8.41
6.92
5.52
4.54
4.17
4.47
5.22
6.03
6.51
6.42
5.73
4.63
3.31
1.87
0.28
-1.56
-3.69
-5.98
-8.2
-10.18
-11.9
-13.57
-15.58
-18.22
-21.52
-25.08
-28.11
-29.62
-28.79
-25.27
-19.35
-11.99
-4.42
2.27
7.45
11.05
13.4
14.88
15.66
15.68
14.8
13.01
10.54
7.87
5.53
3.96
3.35
3.74
4.97
6.74
8.65
10.28
11.27
11.39
10.67
9.26
7.43
5.39
3.23
0.94
-1.58
-4.45
-7.76
-11.51
-15.6
-19.78
-23.65
-26.67
-28.23
-27.74
-24.87
-19.69
-12.78
-5.17
1.97
7.67
11.45
13.39
14
13.92
13.65
13.36
12.98
12.32
11.33
10.14
9.05
8.33
8.19
8.55
9.17
9.7
9.81
9.29
8.12
6.42
4.39
2.2
-0.05
-2.36
-4.68
-6.98
-9.14
-11.14
-13.07
-15.19
-17.79
-20.95
-24.36
-27.27
-28.67
-27.71
-24.07
-18.12
-10.79
-3.27
3.44
8.79
12.73
15.53
17.51
18.78
19.27
18.84
17.43
15.24
12.7
10.3
8.43
7.22
6.55
6.2
5.99
5.8
5.62
5.4
5.06
4.46
3.47
2.08
0.4
-1.32
-2.86
-4.06
-4.99
-5.88
-7.02
-8.74
-11.29
-14.75
-18.92
-23.35
-27.27
-29.77
-30.03
-27.56
-22.47
-15.46
-7.61
-0.04
6.38
11.29
14.67
16.77
17.88
18.12
17.56
16.17
14.09
11.6
9.11
7.07
5.78
5.31
5.47
5.92
6.32
6.48
6.4
6.15
5.79
5.17
4.07
2.32
-0.06
-2.8
-5.49
-7.73
-9.38
-10.54
-11.56
-12.88
-14.82
-17.51
-20.87
-24.54
-27.96
-30.42
-31.17
-29.66
-25.74
-19.75
-12.55
-5.23
1.17
5.98
9.04
10.62
11.21
11.28
11.07
10.55
9.59
8.1
6.2
4.18
2.47
1.37
1.05
1.43
2.23
3.1
3.75
4.04
3.95
3.59
3
2.14
0.93
-0.71
-2.7
-4.83
-6.8
-8.45
-9.83
-11.28
-13.23
-15.97
-19.38
-22.85
-25.47
-26.35
-24.86
-20.94
-15.02
-8.01
-0.96
5.11
9.56
12.19
13.22
13.16
12.52
11.67
10.74
9.7
8.46
7.1
5.76
4.72
4.13
4.02
4.26
4.65
5
5.23
5.3
5.2
4.9
4.3
3.28
1.72
-0.39
-2.92
-5.7
-8.59
-11.64
-15.02
-18.86
-23.03
-26.96
-29.78
-30.53
-28.58
-23.93
-17.26
-9.73
-2.53
3.44
7.81
10.71
12.55
13.72
14.47
14.79
14.53
13.56
11.89
9.79
7.7
6.11
5.34
5.42
6.13
7
7.58
7.51
6.69
5.23
3.35
1.28
-0.89
-3.15
-5.54
-8.14
-10.99
-14.17
-17.8
-21.87
-26.15
-30.06
-32.68
-33.04
-30.49
-25.05
-17.5
-9.13
-1.3
4.98
9.37
12.05
13.56
14.43
14.96
15.22
15.09
14.46
13.32
11.78
10.11
8.62
7.58
7.13
7.2
7.57
7.92
8.03
7.78
7.18
6.3
5.15
3.71
1.92
-0.19
-2.53
-5.02
-7.72
-10.88
-14.82
-19.62
-24.88
-29.65
-32.75
-33.09
-30.25
-24.57
-17.05
-9.01
-1.66
4.22
8.36
10.89
12.22
12.75
12.87
12.8
12.7
12.68
12.85
13.23
13.75
14.22
14.39
14.08
13.33
12.36
11.52
11.02
10.89
10.85
10.49
9.47
7.63
5.11
2.12
-1.06
-4.26
-7.4
-10.52
-13.67
-16.95
-20.38
-23.84
-26.96
-29.17
-29.78
-28.23
-24.35
-18.5
-11.47
-4.27
2.18
7.33
11.09
13.64
15.32
16.37
16.89
16.93
16.51
15.78
14.99
14.45
14.37
14.8
15.56
16.33
16.84
16.98
16.88
16.77
16.81
16.95
16.84
16.04
14.18
11.23
7.55
3.75
0.5
-1.82
-3.26
-4.29
-5.56
-7.72
-11.07
-15.44
-20.18
-24.33
-26.93
-27.24
-24.96
-20.3
-13.89
-6.63
0.56
6.87
11.8
15.14
17.01
17.7
17.62
17.12
16.47
15.81
15.15
14.48
13.77
13.06
12.45
12.08
12
12.19
12.58
12.99
13.27
13.24
12.71
11.56
9.79
7.57
5.22
3.1
1.46
0.34
-0.45
-1.27
-2.54
-4.6
-7.69
-11.86
-16.89
-22.13
-26.63
-29.33
-29.39
-26.58
-21.35
-14.64
-7.55
-0.96
4.6
8.94
12.08
14.15
15.29
15.66
15.44
14.76
13.77
12.58
11.37
10.36
9.74
9.64
9.99
10.58
11.11
11.38
11.34
11.08
10.8
10.56
10.31
9.75
8.59
6.61
3.85
0.7
-2.34
-4.76
-6.41
-7.48
-8.51
-10.02
-12.35
-15.42
-18.82
-21.96
-24.24
-25.18
-24.48
-21.97
-17.74
-12.14
-5.77
0.58
6.14
10.38
13.08
14.4
14.7
14.38
13.75
12.95
12.06
11.09
10.14
9.39
9.06
9.28
9.98
10.93
11.75
12.11
11.86
11.15
10.22
9.27
8.33
7.24
5.83
4.06
2.13
0.36
-1
-1.9
-2.55
-3.3
-4.48
-6.35
-8.98
-12.3
-16.04
-19.72
-22.63
-24.05
-23.5
-20.9
-16.71
-11.75
-6.83
-2.53
0.99
3.81
6.13
7.99
9.19
9.52
8.83
7.29
5.3
3.4
1.97
1.17
0.95
1.13
1.59
2.29
3.22
4.28
5.28
5.94
6.03
5.51
4.46
3.07
1.47
-0.29
-2.2
-4.23
-6.32
-8.42
-10.52
-12.74
-15.22
-17.94
-20.65
-22.81
-23.73
-22.83
-19.89
-15.23
-9.59
-3.89
1.07
4.85
7.39
8.88
9.61
9.78
9.5
8.82
7.85
6.7
5.53
4.49
3.64
3.04
2.7
2.63
2.75
2.96
3.13
3.12
2.88
2.42
1.75
0.85
-0.37
-1.97
-3.92
-6.1
-8.34
-10.61
-13.04
-15.83
-19.02
-22.26
-24.81
-25.76
-24.47
-20.85
-15.51
-9.43
-3.63
1.19
4.86
7.56
9.57
11.07
12.03
12.28
11.72
10.42
8.62
6.68
4.93
3.6
2.8
2.57
2.88
3.62
4.57
5.39
5.68
5.11
3.53
1.13
-1.68
-4.38
-6.56
-8.08
-9.14
-10.09
-11.38
-13.26
-15.79
-18.72
-21.58
-23.77
-24.7
-23.92
-21.27
-16.99
-11.66
-6.11
-1.15
2.7
5.33
7.04
8.17
8.98
9.48
9.52
9.03
8.12
7.07
6.17
5.58
5.25
5.05
4.89
4.81
4.99
5.5
6.23
6.85
6.98
6.33
4.95
3.09
1.08
-0.82
-2.61
-4.41
-6.37
-8.57
-10.99
-13.57
-16.28
-19.18
-22.12
-24.72
-26.34
-26.25
-23.98
-19.67
-13.99
-7.98
-2.58
1.66
4.7
6.83
8.41
9.64
10.51
10.94
10.87
10.43
9.92
9.6
9.67
10.11
10.75
11.36
11.71
11.71
11.41
10.97
10.55
10.22
9.94
9.52
8.8
7.7
6.24
4.56
2.77
0.98
-0.8
-2.58
-4.43
-6.45
-8.84
-11.75
-15.29
-19.27
-23.21
-26.3
-27.75
-27.05
-24.14
-19.47
-13.82
-8.02
-2.68
1.88
5.6
8.51
10.61
11.84
12.09
11.38
9.91
8.15
6.65
5.84
5.85
6.41
7.03
7.27
7
6.45
6.05
6.15
6.77
7.62
8.2
8.07
7.07
5.35
3.19
0.94
-1.16
-2.98
-4.5
-5.68
-6.66
-7.68
-9.09
-11.23
-14.19
-17.64
-20.83
-22.76
-22.63
-20.12
-15.59
-9.86
-3.93
1.42
5.82
9.29
12.02
14.23
16.03
17.43
18.45
19.13
19.6
19.98
20.33
20.66
20.9
20.91
20.56
19.76
18.55
17.06
15.45
13.86
12.25
10.43
8.17
5.35
2.11
-1.19
-4.09
-6.27
-7.75
-8.88
-10.27
-12.46
-15.72
-19.81
-24.09
-27.59
-29.37
-28.8
-25.75
-20.6
-14.23
-7.66
-1.82
2.69
5.72
7.45
8.26
8.51
8.43
8.17
7.77
7.29
6.78
6.29
5.89
5.61
5.52
5.67
6.09
6.67
7.18
7.32
6.87
5.8
4.24
2.41
0.45
-1.57
-3.65
-5.73
-7.74
-9.6
-11.42
-13.46
-16.07
-19.47
-23.43
-27.31
-30.09
-30.8
-28.81
-24.07
-17.21
-9.27
-1.43
5.36
10.57
14.21
16.56
17.97
18.7
18.86
18.54
17.91
17.28
16.92
16.96
17.29
17.61
17.65
17.29
16.67
15.97
15.42
15.04
14.74
14.35
13.62
12.39
10.5
7.96
4.89
1.59
-1.63
-4.61
-7.34
-10.06
-13.06
-16.58
-20.61
-24.85
-28.66
-31.25
-31.84
-29.97
-25.74
-19.82
-13.29
-7.2
-2.23
1.43
3.99
5.74
6.88
7.47
7.55
7.24
6.79
6.46
6.35
6.43
6.61
6.84
7.16
7.54
7.88
7.95
7.5
6.44
4.88
3.11
1.4
-0.13
-1.57
-3.18
-5.23
-7.84
-10.95
-14.29
-17.49
-20.16
-21.97
-22.63
-21.97
-19.93
-16.55
-12.07
-6.88
-1.58
3.19
6.87
9.19
10.23
10.4
10.17
9.92
9.74
9.51
9.1
8.48
7.83
7.41
7.35
7.55
7.75
7.61
6.95
5.82
4.42
2.96
1.54
0.16
-1.26
-2.83
-4.6
-6.6
-8.84
-11.35
-14.05
-16.84
-19.5
-21.7
-23
-22.97
-21.24
-17.69
-12.57
-6.55
-0.49
4.72
8.55
10.92
12.12
12.59
12.64
12.39
11.86
11.1
10.33
9.81
9.74
10.08
10.6
10.98
10.98
10.58
9.87
8.94
7.81
6.43
4.78
3
1.31
-0.09
-1.13
-2.03
-3.18
-4.94
-7.46
-10.59
-13.93
-17.01
-19.46
-20.94
-21.18
-19.95
-17.1
-12.73
-7.34
-1.75
3.17
6.82
9.08
10.3
11.03
11.71
12.42
12.97
13.09
12.65
11.73
10.64
9.67
9.05
8.82
8.92
9.24
9.66
9.99
10
9.44
8.16
6.17
3.71
1.06
-1.42
-3.5
-5.15
-6.48
-7.74
-9.23
-11.23
-13.86
-16.98
-20.1
-22.45
-23.2
-21.81
-18.29
-13.25
-7.73
-2.78
0.91
3.2
4.49
5.34
6.21
7.22
8.14
8.61
8.42
7.69
6.8
6.22
6.26
6.88
7.73
8.33
8.38
7.85
6.96
5.97
5.03
4.09
3.02
1.68
0
-2.04
-4.48
-7.36
-10.67
-14.23
-17.59
-20.1
-21.13
-20.27
-17.56
-13.49
-8.78
-4.17
-0.18
3
5.46
7.38
8.87
9.87
10.2
9.79
8.73
7.36
6.16
5.5
5.52
6.04
6.67
6.97
6.64
5.6
4.05
2.32
0.73
-0.54
-1.55
-2.49
-3.59
-4.94
-6.54
-8.29
-10.17
-12.2
-14.38
-16.51
-18.16
-18.77
-17.85
-15.29
-11.37
-6.76
-2.17
1.89
5.19
7.81
9.85
11.38
12.36
12.7
12.48
11.89
11.32
11.09
11.35
11.99
12.65
12.98
12.72
11.88
10.72
9.6
8.8
8.41
8.28
8.13
7.68
6.73
5.24
3.32
1.2
-0.93
-2.9
-4.68
-6.38
-8.16
-10.27
-12.78
-15.6
-18.28
-20.2
-20.68
-19.28
-16.01
-11.33
-6.04
-0.93
3.35
6.52
8.56
9.64
9.97
9.68
8.95
7.93
6.87
5.99
5.51
5.52
5.99
6.77
7.64
8.38
8.88
9.14
9.21
9.14
8.88
8.28
7.2
5.55
3.47
1.25
-0.76
-2.28
-3.22
-3.77
-4.29
-5.19
-6.81
-9.25
-12.33
-15.54
-18.2
-19.55
-19.09
-16.75
-12.89
-8.21
-3.48
0.7
4
6.42
8.14
9.38
10.3
10.96
11.37
11.56
11.58
11.54
11.56
11.65
11.73
11.69
11.44
11.1
10.89
11.04
11.54
12.1
12.14
11.15
8.99
6.05
3.04
0.67
-0.73
-1.35
-1.68
-2.29
-3.56
-5.59
-8.33
-11.57
-14.97
-18.05
-20.15
-20.62
-19
-15.33
-10.14
-4.37
0.94
5
7.45
8.47
8.53
8.25
8.06
8.11
8.2
8
7.27
6.07
4.73
3.67
3.15
3.21
3.61
3.99
4.12
3.93
3.44
2.71
1.7
0.35
-1.33
-3.22
-5.07
-6.62
-7.78
-8.68
-9.65
-11.06
-13.15
-15.83
-18.75
-21.22
-22.53
-22.11
-19.75
-15.72
-10.73
-5.68
-1.35
1.84
3.93
5.26
6.23
7.04
7.67
7.92
7.68
7.04
6.3
5.83
5.85
6.3
6.96
7.48
7.63
7.35
6.75
6.02
5.33
4.78
4.32
3.88
3.3
2.46
1.29
-0.27
-2.21
-4.44
-6.79
-8.9
-10.24
-10.19
-8.36
-4.71
0.34
6.01
11.39
15.75
18.65
20.1
20.4
20.04
19.5
19.08
18.81
18.47
17.72
16.28
14.16
11.59
9.05
6.96
5.51
4.61
4
3.38
2.6
1.63
0.49
-0.78
-2.28
-4.05
-6.1
-8.26
-10.31
-12.11
-13.65
-15.15
-16.93
-19.24
-22.11
-25.21
-27.9
-29.48
-29.4
-27.53
-24.21
-20.16
-16.2
-13.01
-10.89
-9.82
-9.52
-9.77
-10.44
-11.67
-13.62
-16.35
-19.69
-23.24
-26.5
-29.07
-30.8
-31.84
-32.61
-33.59
-35.21
-37.63
-40.82
-44.56
-48.56
-52.59
-56.46
-60.1
-63.43
-66.37
-68.77
-70.44
-71.21
-70.9
-69.38
-66.53
-62.21
-56.32
-48.85
-39.95
-29.95
-19.26
-8.24
2.87
14.04
25.27
36.54
47.65
58.34
68.38
77.75
86.65
95.35
103.97
112.23
119.45
124.79
127.63
127.94
126.27
123.49
120.36
117.17
113.63
109.12
103.05
95.26
86.04
76.08
66.06
56.41
47.24
38.33
29.44
20.48
11.64
3.33
-3.9
-9.66
-13.91
-16.95
-19.42
-21.98
-25.03
-28.67
-32.58
-36.2
-38.85
-39.97
-39.24
-36.73
-32.77
-27.95
-22.92
-18.25
-14.28
-11.18
-8.89
-7.28
-6.2
-5.46
-4.95
-4.61
-4.44
-4.48
-4.78
-5.29
-5.82
-6.1
-5.94
-5.27
-4.23
-3.04
-1.9
-0.93
-0.13
0.43
0.64
0.32
-0.59
-1.92
-3.25
-4.07
-4.06
-3.25
-1.98
-0.75
0.04
0.2
-0.19
-0.86
-1.47
-1.6
-0.86
1.05
4.22
8.42
13.14
17.72
21.55
24.27
25.83
26.45
26.39
25.84
24.87
23.48
21.7
19.65
17.52
15.51
13.8
12.45
11.45
10.78
10.41
10.28
10.31
10.35
10.19
9.64
8.63
7.3
5.86
4.6
3.64
2.85
1.9
0.39
-1.98
-5.26
-9.24
-13.46
-17.37
-20.45
-22.29
-22.68
-21.65
-19.42
-16.45
-13.22
-10.29
-8.05
-6.69
-6.14
-6.2
-6.65
-7.31
-8.18
-9.34
-10.85
-12.62
-14.42
-15.92
-16.77
-16.78
-15.97
-14.59
-13
-11.63
-10.77
-10.49
-10.71
-11.18
-11.65
-11.97
-12.23
-12.59
-13.29
-14.44
-15.98
-17.7
-19.24
-20.19
-20.2
-19.02
-16.61
-13.2
-9.24
-5.38
-2.15
0.08
1.29
1.69
1.61
1.32
0.94
0.48
-0.09
-0.78
-1.5
-2.12
-2.47
-2.41
-1.93
-1.18
-0.51
-0.25
-0.66
-1.69
-2.98
-4.08
-4.66
-4.75
-4.74
-5.18
-6.47
-8.61
-11.26
-13.86
-15.89
-17.07
-17.28
-16.57
-15.02
-12.71
-9.85
-6.66
-3.47
-0.62
1.67
3.27
4.14
4.29
3.75
2.59
1
-0.7
-2.13
-3.01
-3.24
-3.02
-2.7
-2.6
-2.93
-3.62
-4.44
-5.18
-5.69
-6.03
-6.4
-7.03
-8.11
-9.75
-11.93
-14.51
-17.24
-19.69
-21.42
-22.03
-21.23
-18.98
-15.49
-11.17
-6.59
-2.34
1.17
3.7
5.25
5.93
5.84
5.04
3.55
1.51
-0.76
-2.79
-4.11
-4.46
-3.9
-2.8
-1.67
-0.91
-0.72
-0.98
-1.49
-2.08
-2.71
-3.51
-4.73
-6.59
-9.2
-12.42
-15.79
-18.71
-20.51
-20.78
-19.47
-16.83
-13.31
-9.4
-5.45
-1.68
1.7
4.53
6.59
7.7
7.85
7.17
5.94
4.48
3.06
1.95
1.35
1.35
1.89
2.65
3.17
2.98
1.8
-0.24
-2.66
-4.77
-6.09
-6.58
-6.73
-7.34
-9.07
-12.07
-15.83
-19.38
-21.67
-22.08
-20.55
-17.53
-13.73
-9.71
-5.81
-2.15
1.25
4.28
6.71
8.35
9.12
9.12
8.62
7.85
6.99
6.13
5.36
4.73
4.3
4.03
3.83
3.52
2.97
2.19
1.28
0.4
-0.4
-1.2
-2.19
-3.57
-5.33
-7.39
-9.6
-11.96
-14.6
-17.66
-21.1
-24.47
-27.02
-27.88
-26.5
-22.92
-17.8
-12.12
-6.85
-2.48
0.95
3.71
6.1
8.11
9.5
9.93
9.32
7.93
6.29
5.02
4.51
4.87
5.91
7.29
8.7
9.88
10.62
10.81
10.35
9.28
7.73
5.92
4.08
2.38
0.84
-0.66
-2.29
-4.3
-6.83
-10
-13.7
-17.6
-21.11
-23.52
-24.18
-22.76
-19.36
-14.55
-9.13
-3.92
0.52
4.04
6.82
9.26
11.71
14.28
16.8
18.85
20.04
20.18
19.46
18.34
17.39
17.01
17.26
17.9
18.58
18.97
18.96
18.54
17.82
16.81
15.51
13.92
12.19
10.45
8.9
7.61
6.58
5.73
4.95
4.13
3.08
1.71
-0.08
-2.28
-4.85
-7.76
-10.96
-14.41
-17.91
-21.04
-23.15
-23.52
-21.7
-17.69
-12.14
-6.01
-0.29
4.43
8.02
10.73
12.95
14.89
16.55
17.77
18.44
18.59
18.45
18.27
18.26
18.43
18.71
19.01
19.28
19.51
19.68
19.72
19.5
18.93
18.04
16.95
15.8
14.71
13.64
12.49
11.17
9.72
8.31
7.12
6.13
5.17
3.94
2.22
0.06
-2.23
-4.27
-5.84
-7.09
-8.51
-10.67
-13.83
-17.74
-21.61
-24.41
-25.28
-23.88
-20.46
-15.71
-10.45
-5.29
-0.6
3.48
6.91
9.61
11.56
12.75
13.29
13.44
13.49
13.68
14.1
14.69
15.28
15.69
15.82
15.69
15.42
15.22
15.23
15.46
15.78
15.95
15.78
15.12
13.95
12.29
10.26
8
5.66
3.46
1.53
-0.06
-1.36
-2.52
-3.76
-5.24
-7.09
-9.33
-11.93
-14.77
-17.61
-20.09
-21.74
-22.05
-20.68
-17.56
-13.03
-7.73
-2.53
1.89
5.17
7.36
8.8
9.88
10.83
11.65
12.18
12.3
12.03
11.57
11.18
11.1
11.4
12.02
12.78
13.46
13.86
13.85
13.41
12.63
11.62
10.5
9.34
8.16
6.92
5.63
4.29
2.93
1.56
0.17
-1.25
-2.7
-4.09
-5.33
-6.36
-7.23
-8.11
-9.29
-11.05
-13.49
-16.41
-19.29
-21.38
-21.99
-20.77
-17.81
-13.64
-9.03
-4.65
-0.89
2.12
4.49
6.35
7.73
8.56
8.82
8.57
8.07
7.64
7.56
7.95
8.72
9.58
10.3
10.74
10.98
11.22
11.58
12.02
12.29
12.1
11.21
9.68
7.76
5.81
4.08
2.65
1.36
0
-1.52
-3.2
-4.85
-6.29
-7.43
-8.31
-9.1
-9.98
-11.12
-12.58
-14.35
-16.24
-17.96
-19.11
-19.26
-18.14
-15.75
-12.43
-8.72
-5.13
-1.98
0.69
3.03
5.14
6.94
8.23
8.81
8.66
8.05
7.42
7.19
7.54
8.39
9.42
10.3
10.8
10.86
10.6
10.16
9.65
9.1
8.4
7.39
5.95
4.08
1.96
-0.1
-1.78
-2.85
-3.3
-3.29
-3.13
-3.15
-3.62
-4.67
-6.32
-8.51
-11.11
-13.9
-16.61
-18.9
-20.33
-20.49
-19.11
-16.16
-11.98
-7.2
-2.57
1.28
4.02
5.68
6.56
7
7.26
7.44
7.51
7.44
7.2
6.85
6.47
6.17
6.08
6.25
6.66
7.17
7.57
7.63
7.24
6.5
5.62
4.83
4.22
3.72
3.12
2.26
1.1
-0.29
-1.82
-3.41
-5.05
-6.69
-8.23
-9.57
-10.68
-11.75
-13.03
-14.75
-16.88
-19.03
-20.52
-20.68
-19.14
-16.02
-11.88
-7.53
-3.66
-0.67
1.46
3.01
4.32
5.59
6.79
7.82
8.5
8.81
8.8
8.62
8.4
8.24
8.15
8.1
8.04
7.95
7.85
7.71
7.54
7.26
6.75
5.98
4.94
3.82
2.77
1.93
1.23
0.54
-0.31
-1.37
-2.57
-3.78
-4.96
-6.22
-7.73
-9.64
-11.94
-14.42
-16.83
-18.8
-20.04
-20.25
-19.26
-17.02
-13.75
-9.87
-5.93
-2.4
0.5
2.79
4.66
6.32
7.78
8.91
9.55
9.64
9.31
8.92
8.76
8.99
9.54
10.14
10.52
10.52
10.17
9.53
8.73
7.79
6.74
5.58
4.34
3.05
1.65
0.05
-1.83
-3.94
-6.07
-7.93
-9.26
-9.96
-10.12
-10.01
-10.03
-10.61
-12.12
-14.65
-17.87
-21.06
-23.25
-23.65
-21.92
-18.41
-13.89
-9.26
-5.15
-1.76
1.03
3.43
5.53
7.3
8.64
9.52
10.01
10.18
10.1
9.8
9.31
8.71
8.17
7.83
7.84
8.19
8.75
9.3
9.6
9.53
9.09
8.37
7.47
6.38
5.02
3.27
1.13
-1.2
-3.38
-5.15
-6.47
-7.61
-8.98
-10.95
-13.6
-16.64
-19.62
-22.06
-23.64
-24.17
-23.57
-21.84
-19.02
-15.28
-11.02
-6.74
-2.95
0.05
2.23
3.82
5.09
6.22
7.23
8.07
8.65
9.04
9.38
9.76
10.14
10.32
10.11
9.44
8.51
7.69
7.37
7.67
8.42
9.14
9.29
8.47
6.57
3.82
0.65
-2.41
-4.91
-6.61
-7.57
-8.03
-8.38
-9.03
-10.24
-12.13
-14.62
-17.41
-20.05
-22
-22.76
-22
-19.71
-16.19
-12
-7.74
-3.89
-0.75
1.59
3.23
4.29
4.96
5.45
5.93
6.51
7.21
7.94
8.61
9.1
9.39
9.51
9.61
9.81
10.18
10.7
11.16
11.3
10.81
9.54
7.53
5.07
2.53
0.28
-1.52
-2.92
-4.12
-5.36
-6.81
-8.5
-10.4
-12.45
-14.53
-16.44
-17.86
-18.34
-17.53
-15.31
-11.94
-7.97
-4.05
-0.64
2.06
4.1
5.67
6.86
7.63
7.94
7.74
7.12
6.25
5.3
4.39
3.65
3.21
3.2
3.71
4.64
5.72
6.6
6.94
6.58
5.56
4.12
2.52
1.02
-0.32
-1.52
-2.77
-4.27
-6.22
-8.74
-11.82
-15.27
-18.74
-21.72
-23.62
-23.98
-22.56
-19.49
-15.29
-10.72
-6.52
-3.19
-0.84
0.76
1.97
3.08
4.16
5.1
5.72
5.86
5.53
4.87
4.13
3.56
3.33
3.52
4.09
4.92
5.8
6.46
6.6
6.02
4.64
2.58
0.09
-2.51
-5.02
-7.42
-9.89
-12.65
-15.87
-19.45
-22.99
-25.83
-27.24
-26.63
-23.8
-19.07
-13.2
-7.18
-1.87
2.26
5.22
7.36
9.14
10.83
12.36
13.46
13.78
13.21
11.93
10.42
9.18
8.57
8.57
8.87
9.04
8.81
8.21
7.44
6.77
6.28
5.71
4.69
2.87
0.15
-3.28
-7.06
-10.88
-14.51
-17.83
-20.73
-22.95
-24.13
-23.89
-22
-18.59
-14.13
-9.31
-4.79
-0.91
2.33
5.2
8.01
10.82
13.37
15.33
16.37
16.52
16.11
15.56
15.13
14.83
14.49
13.93
13.2
12.49
11.93
11.5
10.9
9.78
7.99
5.71
3.35
1.32
-0.3
-1.76
-3.51
-5.93
-9.18
-13.17
-17.62
-22.17
-26.3
-29.29
-30.37
-28.92
-24.84
-18.68
-11.52
-4.64
1.04
5.21
8.15
10.4
12.39
14.18
15.6
16.43
16.64
16.45
16.24
16.25
16.5
16.81
16.84
16.42
15.62
14.74
14.13
14.02
14.33
14.69
14.61
13.64
11.64
8.8
5.53
2.25
-0.78
-3.56
-6.26
-9.07
-12.12
-15.43
-18.95
-22.6
-26.23
-29.49
-31.75
-32.29
-30.56
-26.44
-20.47
-13.65
-7.07
-1.45
3.04
6.7
9.94
13
15.72
17.79
18.95
19.18
18.87
18.47
18.35
18.6
19.02
19.32
19.31
19
18.47
17.8
16.95
15.86
14.51
13.06
11.81
11
10.6
10.25
9.45
7.85
5.43
2.57
-0.26
-2.8
-5.08
-7.41
-10.16
-13.48
-17.32
-21.49
-25.71
-29.72
-33.13
-35.4
-35.86
-34
-29.72
-23.57
-16.58
-9.81
-4.05
0.53
4.26
7.61
10.81
13.73
16.04
17.42
17.87
17.74
17.51
17.57
17.99
18.64
19.29
19.83
20.26
20.61
20.89
20.97
20.75
20.17
19.27
18.13
16.76
15.09
13.01
10.49
7.68
4.89
2.37
0.29
-1.51
-3.34
-5.58
-8.46
-12.03
-16.17
-20.59
-24.93
-28.7
-31.39
-32.44
-31.44
-28.26
-23.17
-16.82
-10.04
-3.69
1.73
6.06
9.5
12.36
14.88
17.05
18.69
19.55
19.55
18.86
17.92
17.2
17.06
17.55
18.45
19.36
19.89
19.84
19.21
18.22
17.1
16.07
15.17
14.31
13.29
11.92
10.15
8.02
5.66
3.22
0.8
-1.61
-4.03
-6.45
-8.88
-11.33
-13.9
-16.78
-20.09
-23.69
-27.07
-29.34
-29.56
-27.16
-22.21
-15.5
-8.23
-1.56
3.8
7.73
10.55
12.68
14.39
15.66
16.44
16.73
16.73
16.77
17.11
17.82
18.66
19.32
19.52
19.18
18.41
17.44
16.44
15.56
14.81
14.15
13.41
12.36
10.73
8.37
5.35
2.04
-1.03
-3.42
-4.96
-5.87
-6.65
-7.79
-9.61
-12.17
-15.37
-19.05
-22.92
-26.55
-29.28
-30.39
-29.32
-25.96
-20.81
-14.72
-8.59
-3.05
1.71
5.78
9.3
12.27
14.52
15.79
15.99
15.27
14.05
12.87
12.18
12.22
12.96
14.08
15.21
16.01
16.37
16.39
16.26
16.14
16.01
15.64
14.76
13.2
11.06
8.63
6.29
4.29
2.67
1.23
-0.31
-2.16
-4.33
-6.72
-9.32
-12.21
-15.54
-19.29
-23.09
-26.21
-27.8
-27.2
-24.28
-19.47
-13.53
-7.28
-1.35
3.93
8.35
11.77
14.01
14.97
14.73
13.68
12.35
11.31
10.9
11.13
11.75
12.44
12.96
13.26
13.47
13.77
14.24
14.79
15.2
15.2
14.59
13.25
11.22
8.68
5.8
2.8
-0.14
-2.87
-5.31
-7.49
-9.57
-11.85
-14.58
-17.84
-21.43
-24.75
-27.01
-27.5
-25.88
-22.34
-17.57
-12.42
-7.65
-3.66
-0.51
1.97
3.95
5.5
6.58
7.07
6.91
6.16
4.99
3.63
2.27
1.11
0.29
-0.06
0.16
0.89
1.92
2.88
3.42
3.28
2.44
1.05
-0.66
-2.53
-4.53
-6.72
-9.23
-12.1
-15.29
-18.61
-21.72
-24.17
-25.41
-25.04
-22.88
-19.17
-14.49
-9.5
-4.81
-0.73
2.65
5.46
7.78
9.65
10.98
11.63
11.57
10.9
9.9
8.95
8.44
8.52
9.03
9.53
9.47
8.55
6.85
4.83
3.06
1.91
1.32
0.9
0.15
-1.28
-3.45
-6.25
-9.59
-13.34
-17.3
-20.99
-23.61
-24.28
-22.4
-17.97
-11.61
-4.42
2.51
8.35
12.73
15.63
17.22
17.69
17.24
16.04
14.38
12.57
10.89
9.59
8.75
8.32
8.11
7.86
7.36
6.54
5.47
4.32
3.3
2.5
1.84
1.11
0.07
-1.44
-3.52
-6.2
-9.49
-13.3
-17.34
-21.05
-23.6
-24.16
-22.24
-17.92
-11.89
-5.17
1.24
6.7
11
14.25
16.63
18.21
18.96
18.78
17.71
15.97
13.91
11.95
10.41
9.45
9.07
9.13
9.38
9.49
9.18
8.26
6.74
4.76
2.58
0.43
-1.49
-3.21
-4.82
-6.54
-8.59
-11.21
-14.52
-18.46
-22.67
-26.48
-29.02
-29.49
-27.43
-22.94
-16.68
-9.66
-2.9
2.79
7.02
9.75
11.28
11.97
12.23
12.35
12.45
12.51
12.44
12.13
11.63
11.08
10.76
10.85
11.42
12.27
13.02
13.25
12.63
11.08
8.77
6.03
3.2
0.54
-1.88
-4.09
-6.21
-8.36
-10.68
-13.28
-16.23
-19.46
-22.66
-25.27
-26.49
-25.64
-22.41
-17.16
-10.82
-4.58
0.57
4.2
6.48
7.96
9.17
10.33
11.31
11.82
11.67
10.93
9.96
9.12
8.63
8.45
8.36
8.02
7.26
6.06
4.62
3.24
2.12
1.25
0.36
-0.94
-2.94
-5.71
-9.02
-12.61
-16.18
-19.59
-22.63
-24.93
-25.9
-24.93
-21.67
-16.31
-9.59
-2.55
3.92
9.31
13.57
16.87
