216.15
187.71
160.03
136.85
119.31
106.32
95.96
86.82
78.49
71.06
64.28
57.23
48.91
39.19
29.46
22.09
19.09
20.7
24.83
27.78
25.82
16.76
0.81
-19.66
-41.17
-60.38
-75.06
-84.46
-89.31
-91.6
-93.87
-98.41
-106.44
-117.62
-130.24
-142.06
-151.32
-157.31
-160.26
-160.62
-157.92
-150.39
-135.64
-112.41
-82.11
-49.44
-21.27
-4.1
-1.39
-11.85
-29.75
-47.01
-56.31
-53.61
-39.26
-17.05
7.94
31.56
51.72
68.14
81.5
92.6
102.26
111.65
122.11
133.98
145.04
149.67
140.4
111.62
63.48
3.52
-55.29
-99.53
-120.47
-116.6
-92.34
-54.35
-8.21
42.46
94.52
143.54
183.48
208.58
216
207.4
188.14
164.79
142.59
124.29
110.69
101.78
97.45
97.34
100.07
103.03
103.16
98.37
88.81
76.83
66.05
59.94
60.65
68.57
82.27
98.82
114.17
123.9
124.24
113.49
93.02
67.3
42.55
24.64
16.98
19.62
29.67
42.76
54.92
63.71
68.65
70.81
72.24
75.17
81.41
91.73
105.3
119.39
129.51
130.39
117.71
89.95
49.57
2.92
-41.64
-76.66
-98.47
-108.47
-112.28
-117.11
-128.34
-147.13
-170.11
-190.96
-203.12
-202.33
-187.95
-162.84
-132.24
-102.25
-78.41
-64.56
-62.08
-69.6
-83.42
-98.71
-111.16
-118.49
-121.04
-120.99
-120.69
-121.11
-121.23
-118.91
-112.56
-102.52
-91.15
-81.69
-76.7
-76.82
-80.87
-86.8
-92.94
-98.59
-103.98
-109.76
-116.37
-123.98
-132.61
-142.31
-153.15
-165.04
-177.52
-189.63
-200.03
-207.08
-209.01
-204.25
-191.79
-171.58
-144.7
-113.15
-79.14
-44.35
-9.47
25.75
61.82
98.84
136.08
172.23
206.28
238.4
270.11
303.72
340.84
381.1
421.52
457.27
483.47
497.11
498.26
489.84
476.3
461.92
449.57
440.58
434.94
431.7
428.96
423.76
412.33
390.96
357.38
311.77
256.89
197.07
136.52
77.67
20.71
-35.7
-92.69
-149.52
-202.93
-248.07
-280.34
-297.39
-300.13
-292.25
-278.58
-263.32
-248.76
-235.45
-223.03
-211.27
-200.36
-190.73
-182.3
-174.29
-165.42
-154.68
-141.92
-127.92
-113.94
-101.21
-90.29
-81
-72.66
-64.56
-56.37
-48.36
-41.12
-35.32
-31.31
-29
-27.92
-27.49
-27.21
-26.81
-26.21
-25.44
-24.55
-23.5
-22.18
-20.43
-18.21
-15.66
-13.15
-11.31
-10.8
-12.02
-14.79
-18.27
-21.18
-22.33
-21.23
-18.49
-15.58
-14.13
-14.92
-17.35
-19.45
-18.89
-14.15
-5.71
3.97
11.35
13.53
9.64
1.42
-7.52
-13.25
-13.25
-7.48
1.5
9.37
11.44
4.28
-12.73
-36.38
-59.76
-73.63
-69.67
-44.14
-0.56
50.25
93.01
113.12
101.64
58.38
-8.17
-83.67
-152.21
-200.68
-221.98
-216.41
-190.95
-156.78
-125.21
-103.63
-93.04
-88.47
-82.36
-69.23
-48.97
-26.62
-9.12
-0.94
-1.65
-6.73
-10.82
-11.05
-8.09
-4.68
-3.07
-3.41
-4.09
-3.05
1.04
8.77
20.59
37.1
58.35
82.89
107.4
127.8
140.98
146.18
145.14
140.86
136.13
132.73
131.41
132.26
134.91
138.35
140.79
140.05
134.27
122.69
105.84
85.29
63.15
41.73
23.36
10.08
3.05
2.03
5.17
9.46
11.81
10.19
4.3
-4.48
-13.83
-21.54
-26.38
-28.44
-29
-29.87
-32.54
-37.53
-44.27
-51.2
-56.52
-58.83
-57.71
-53.78
-48.48
-43.44
-39.8
-37.82
-36.83
-35.77
-33.87
-31.29
-29.23
-29.49
-33.57
-41.75
-52.66
-63.47
-70.61
-70.62
-61.22
-42.1
-15.53
13.67
39.07
54.36
55.41
41.86
17.42
-11.44
-37.72
-56.15
-64.46
-63.26
-54.96
-42.44
-28.19
-13.87
-0.52
11.19
20.57
26.67
28.3
24.47
15.13
1.72
-12.91
-25.46
-33.43
-36.2
-35.12
-32.6
-30.72
-30.39
-31.3
-32.73
-34.54
-37.51
-42.89
-51.53
-62.95
-75.2
-85.45
-91.01
-90.37
-83.76
-73.16
-61.68
-52.56
-47.94
-48.19
-51.76
-55.89
-57.63
-54.96
-47.22
-34.97
-19.24
-0.86
19.95
43.25
68.87
96
123.16
148.36
169.47
184.67
192.81
193.61
187.56
175.77
159.77
141.48
123.02
106.54
93.8
85.6
81.52
80.03
79.13
77.04
72.78
66.33
58.18
48.91
38.83
27.96
16.4
4.65
-6.53
-16.34
-24.13
-29.62
-32.84
-34.21
-34.4
-34.19
-34.35
-35.41
-37.62
-40.92
-45.15
-50.2
-56.01
-62.54
-69.61
-76.89
-83.88
-90.14
-95.57
-100.5
-105.51
-110.94
-116.55
-121.2
-123.23
-121.17
-114.31
-102.83
-87.63
-69.84
-50.46
-30.36
-10.16
9.6
28.5
46.34
62.95
78.07
91.06
100.85
106.1
105.79
99.72
88.91
75.51
62.17
51.17
43.61
39.21
36.7
34.64
32.23
29.77
28.35
29.05
32.1
36.69
41.31
44.66
46.3
46.87
47.53
49.3
52.53
56.93
61.88
66.89
71.61
75.62
78.08
77.9
74.31
67.51
58.97
51.01
45.63
43.58
44.11
45.54
46.35
45.8
43.89
40.76
36.13
29.4
20.16
8.87
-3.17
-14.43
-23.97
-31.9
-39.12
-46.65
-55.01
-64.08
-73.29
-81.92
-89.32
-94.88
-98.11
-98.85
-97.62
-95.73
-94.91
-96.6
-101.37
-108.75
-117.57
-126.55
-134.59
-140.87
-144.72
-145.73
-144.06
-140.69
-137.24
-134.97
-133.84
-131.95
-126.23
-114.02
-94.54
-69.46
-42.2
-16.42
5.35
22.24
34.69
43.47
49.09
51.62
51.03
47.77
42.93
37.99
34.16
31.95
30.85
29.6
26.8
21.51
13.74
4.4
-5.22
-14.16
-22.19
-29.71
-37.19
-44.52
-50.91
-55.22
-56.73
-55.61
-52.86
-49.83
-47.43
-45.67
-43.85
-41.09
-37.05
-32.22
-27.62
-24.25
-22.45
-21.69
-20.88
-18.91
-15.28
-10.28
-4.81
0.09
3.69
5.79
6.64
6.64
6.1
5.22
4.2
3.38
3.21
4.09
6.03
8.69
11.4
13.66
15.52
17.6
20.81
25.77
32.46
40.17
47.77
54.19
58.69
60.93
60.83
58.5
54.28
48.77
42.8
37.38
33.39
31.37
31.28
32.22
32.51
30.2
24.08
14.7
4.61
-2.52
-3.98
0.1
6.22
9.05
4.29
-8.74
-26.53
-43.41
-54.8
-59.54
-60.01
-59.94
-61.77
-65.2
-67.78
-66.48
-59.32
-45.58
-25.3
1.34
33.81
70.16
105.85
133.72
145.94
137.47
109.26
69.29
30.25
4.79
0.34
16.19
44.16
72.52
91.16
95.22
85.77
67.54
45.61
23.06
0.62
-21.87
-43.75
-62.88
-76.37
-82.1
-80.04
-72.48
-63.47
-57.21
-56.59
-62.2
-72.45
-84.44
-95.35
-103.6
-109.28
-113.71
-118.33
-123.59
-128.34
-130.07
-125.91
-113.67
-92.5
-62.79
-25.81
16.59
61.77
106.16
145.24
174.44
190.67
193.58
185.89
172.22
157.07
142.92
129.76
116.03
100.47
83.32
66.23
50.83
37.7
26.23
15.97
8.21
6.19
13.26
29.86
51.62
70.57
79.11
74.22
59
40.49
25.36
16.76
13.91
14.59
17.77
24.42
35.7
50.62
65.03
73.43
72.26
62.29
48.33
36.57
31.21
32.6
37.66
41.92
41.58
35.13
23.56
9.85
-2.27
-9.96
-12.41
-11.24
-9.63
-10.66
-15.64
-23.52
-31.57
-36.97
-38.2
-35.43
-29.81
-22.46
-13.87
-4.22
6.11
16.39
25.99
34.93
44.15
54.68
66.31
76.92
83.16
82.28
74.75
65.08
60.22
66.6
86.82
119.24
159.5
202.84
245.4
284.65
318.56
344.9
361.54
367.11
362.35
350.31
335.16
319.79
305.34
291.4
276.81
260.9
242.59
221.16
196.51
168.77
136.68
99.77
59.29
18.18
-19.28
-52.12
-81.02
-107.27
-132.43
-161.29
-196.8
-237.9
-279.66
-313.87
-338.5
-354.59
-364.36
-370.72
-381.84
-403.24
-434.27
-468.4
-494
-509.08
-516.27
-519.66
-524.32
-542.63
-584.5
-652.58
-740.9
-833.74
-922.84
-1000.9
-1059.9
-1044
-922.72
-709.77
-458.66
-257.61
-112.34
-9.79
64.29
126.66
183.25
228.25
256.05
267.3
269.98
279.1
297.98
324.95
357.27
391.52
420.24
438.97
448.85
455.7
468.86
486.96
504.22
514.83
514.29
497.78
464.31
417.78
365.97
319.49
282.27
254.66
235.36
221.61
209.41
196.2
181.95
168.67
159.55
154.27
150.89
147.88
144.09
139.75
136.29
135.17
136.66
139.91
142.44
142.2
138.46
130.14
117.23
100.23
79.66
55.86
29.27
1.01
-27.02
-52.76
-76.92
-100.25
-123.2
-146.14
-170.09
-197.07
-229.69
-270.26
-319.46
-377.98
-441.46
-500.69
-544.8
-565.97
-562.56
-539.47
-505.58
-451.32
-377.26
-292.18
-209.14
-138.36
-84.39
-47.32
-25.02
-13.77
-8.97
-9
-11.96
-15.74
-18.56
-20.04
-20.42
-20.5
-19.99
-18.2
-16.61
-15.96
-16.08
-16.48
-17.13
-18.04
-19.5
-21.33
-22.8
-24.14
-24.65
-22.71
-16.01
-6.23
5.93
19.82
35.12
51.85
69.59
88.19
107.52
127.12
145.86
162.79
176.94
188.06
196.74
203.9
210.47
216.91
222.91
227.91
232.6
239.1
250.37
268.47
292.71
318.81
340.05
349.63
343.02
319.39
280.89
231.23
174.92
117.52
65.83
27.6
8.94
10.93
28.09
49.58
62.63
57.83
32.82
-7.51
-52.99
-92.78
-119.66
-131.92
-132.29
-126.51
-120.32
-117.19
-118.28
-121.38
-122.86
-119.73
-110.61
-95.67
-77.43
-59.66
-45.93
-39.22
-39.08
-42.49
-45.43
-50.75
-60.11
-74.78
-94.67
-111.72
-123.78
-129.1
-125.83
-115.39
-98.97
-77.91
-54.37
-30.26
-6.6
15.04
33.41
45.96
48.72
38.75
17.08
-10.76
-36.13
-51.17
-53.77
-47.78
-41.16
-41.17
-49.45
-60.76
-66.62
-60.39
-41.07
-13.74
14.54
38.37
55.85
68.42
78.78
88.79
98.96
108.93
118.02
125.86
131.85
134.74
133.24
126.82
116.07
102.46
87.43
71.73
55.66
39.64
24.16
9.25
-6.5
-25.97
-51.92
-84.82
-121.19
-154.23
-176.28
-181.81
-169.42
-141.85
-104.56
-64.09
-27.1
0.36
13.69
11.22
-4.46
-26.59
-46.49
-56.97
-55.21
-43.47
-27.03
-11.17
1.29
10.37
17.66
24.41
30.54
35.05
36.96
36.38
34.53
33.05
33.03
34.21
35.13
33.88
29.21
21.34
11.93
3.38
-2.26
-4.19
-3.03
-0.35
2.25
3.77
4.08
3.53
2.52
1.13
-0.84
-3.64
-7.26
-11.32
-15.2
-18.24
-19.83
-19.59
-17.35
-13.21
-7.52
-0.82
6.3
13.27
19.49
24.28
26.81
26.23
21.9
13.78
2.63
-10.19
-23.15
-35.3
-46.61
-57.72
-69.06
-79.86
-87.79
-89.63
-82.92
-67.47
-45.97
-23
-3.13
11.24
20.76
28.3
37.18
49.2
63.69
77.76
87.54
89.78
83.16
68.73
49.62
29.95
13.37
2.02
-3.95
-5.93
-6.05
-6.5
-9.36
-16.74
-30.69
-52.53
-81.83
-115.93
-150.45
-181.02
-205.08
-222.68
-235.7
-245.97
-253.73
-257.14
-253.3
-239.78
-215.63
-181.49
-138.92
-89.84
-36.55
17.76
68.89
112.02
142.88
158.78
158.99
144.47
117.35
80.78
39.18
-1.54
-34.74
-54.64
-58.4
-47.26
-26.06
-1.19
21.83
40.02
53.06
62.12
68.52
72.95
75.6
76.8
77.36
78.45
80.99
85.14
90.11
94.52
97.05
96.96
94.45
90.53
86.61
83.89
82.73
82.37
81.22
77.66
71.02
62.18
53.32
46.9
44.38
45.48
48.28
50.26
49.51
45.5
39.06
31.69
24.77
19.09
14.93
12.36
11.53
12.6
15.53
19.91
24.99
29.9
34.03
37.19
39.61
41.79
44.24
47.35
51.3
55.98
61.05
65.96
70.11
72.99
74.35
74.18
72.7
70.17
66.83
62.91
58.57
54.04
49.51
45.14
41.03
37.38
34.56
33.13
33.5
35.57
38.46
40.7
40.76
37.66
31.35
22.6
12.59
2.34
-7.52
-16.71
-25.02
-32.18
-37.78
-41.42
-42.9
-42.25
-39.83
-36.33
-32.77
-30.41
-30.45
-33.48
-39.17
-46.21
-52.71
-56.87
-57.71
-55.34
-50.75
-45.23
-39.82
-34.91
-30.33
-25.67
-20.67
-15.39
-10.13
-5.28
-1.08
2.42
5.18
7.1
7.9
7.29
5.08
1.43
-3.06
-7.47
-10.73
-12.06
-11.32
-9.19
-6.94
-5.84
-6.46
-8.3
-10.03
-10.21
-8.1
-3.92
1.35
6.63
11.11
14.4
16.28
16.68
15.78
14.25
13.24
13.87
16.74
21.65
27.85
34.53
41.18
47.5
53.04
57.09
58.89
58.24
55.79
52.72
49.94
47.5
44.58
40.26
34.33
27.53
20.9
14.98
9.26
2.45
-6.6
-18.1
-31.02
-43.59
-54.2
-62.17
-67.92
-72.58
-77.34
-82.76
-88.46
-93.37
-96.21
-96.11
-92.98
-87.57
-80.87
-73.63
-65.96
-57.62
-48.49
-39.04
-30.4
-23.94
-20.63
-20.63
-23.27
-27.44
-32.08
-36.48
-40.16
-42.73
-43.74
-42.84
-39.99
-35.71
-30.92
-26.6
-23.37
-21.31
-20.08
-19.2
-18.34
-17.37
-16.39
-15.54
-14.95
-14.66
-14.59
-14.54
-14.15
-12.98
-10.69
-7.2
-2.77
2.08
6.8
11.06
14.76
17.96
20.56
22.24
22.65
21.62
19.52
17.11
15.25
14.42
14.53
15.05
15.42
15.35
14.93
14.35
13.58
12.24
9.87
6.29
1.85
-2.6
-6.18
-8.41
-9.35
-9.51
-9.38
-9.1
-8.33
-6.45
-2.8
2.97
10.62
19.38
28.05
35.35
40.36
42.85
43.3
42.69
41.98
41.66
41.64
41.37
40.33
38.31
35.55
32.52
29.63
27
24.44
21.62
18.31
14.53
10.52
6.66
3.26
0.44
-1.92
-4.07
-6.24
-8.45
-10.37
-11.31
-10.56
-7.7
-2.95
2.81
8.35
12.6
15
15.63
14.96
13.49
11.48
9.02
6.16
3.09
0.04
-2.91
-5.98
-9.62
-14.15
-19.41
-24.68
-28.88
-31.09
-31.02
-29.18
-26.69
-24.88
-24.71
-26.45
-29.61
-33.18
-35.97
-37.01
-35.88
-32.88
-28.94
-25.38
-23.42
-23.9
-26.96
-32.11
-38.42
-44.71
-49.87
-52.93
-53.17
-50.23
-44.12
-35.35
-24.84
-13.86
-3.67
4.79
11.1
15.43
18.46
21.2
24.76
30.07
37.51
46.5
55.58
62.55
65.22
62.33
54.21
42.97
31.92
24.43
22.79
27.42
36.86
48.5
59.64
68.33
73.71
75.86
75.17
71.94
66.32
58.51
49.07
38.87
28.7
18.76
8.56
-2.77
-15.59
-29.09
-41.24
-49.61
-52.63
-50.75
-46.46
-43.32
-44.54
-51.52
-63.45
-77.93
-92.07
-103.73
-111.88
-116.44
-117.72
-116
-111.49
-104.56
-95.99
-86.92
-78.56
-71.69
-66.43
-62.13
-57.83
-52.64
-46.13
-38.39
-29.74
-20.43
-10.41
0.49
12.25
24.31
35.55
44.57
50.22
52.23
51.31
48.83
46.15
43.99
42.2
40.08
36.97
32.77
28.12
24.06
21.51
20.75
21.21
21.81
21.46
19.62
16.51
12.88
9.55
7.01
5.33
4.27
3.65
3.55
4.23
5.97
8.71
12.05
15.36
18.06
19.94
21.24
22.52
24.37
27.1
30.58
34.21
37.06
38.21
37.06
33.58
28.42
22.7
17.72
14.52
13.59
14.84
17.7
21.39
25.17
28.55
31.28
33.33
34.79
35.71
36.09
35.9
35.15
33.97
32.59
31.34
30.39
29.7
28.99
27.83
25.88
23.1
19.79
16.46
13.66
11.66
10.36
9.32
7.95
5.69
2.19
-2.72
-8.98
-16.22
-23.59
-29.78
-33.34
-33.2
-29.33
-22.92
-16
-10.63
-7.98
-8.01
-9.82
-12.29
-14.71
-16.92
-19.03
-21.02
-22.55
-23.28
-23.13
-22.51
-22.02
-22.07
-22.59
-23.15
-23.29
-22.97
-22.54
-22.54
-23.24
-24.46
-25.65
-26.25
-26
-24.99
-23.61
-22.26
-21.22
-20.7
-20.92
-22.18
-24.75
-28.7
-33.64
-38.73
-42.94
-45.55
-46.6
-46.88
-47.59
-49.59
-52.85
-56.39
-58.76
-58.88
-56.61
-52.83
-48.76
-45.19
-41.91
-37.8
-31.43
-21.91
-9.41
4.89
19.27
32.15
42.71
51.06
58.12
65.11
72.83
81.17
88.98
94.58
96.52
94.39
88.95
81.82
74.72
68.72
64.19
60.93
58.73
57.63
57.83
59.34
61.72
64.14
65.77
66.27
65.94
65.3
64.5
62.92
59.37
52.82
43.17
31.54
19.91
10.29
3.86
0.72
0.19
1.44
3.87
7.17
11.07
15.07
18.55
21.01
22.44
23.24
24.01
25.17
26.76
28.48
29.97
31
31.61
31.99
32.42
33.14
34.28
35.9
38.08
40.91
44.51
48.93
54.08
59.66
65.16
70.04
73.86
76.46
78.09
79.37
81.09
83.95
88.25
93.57
98.69
101.54
99.58
90.32
72.2
45.15
11.16
-25.84
-60.72
-88.3
-104.78
-108.92
-102.45
-89.61
-75.66
-65.2
-60.72
-62.23
-67.81
-74.85
-81.17
-85.74
-88.64
-90.53
-92.01
-93.26
-94.06
-93.92
-92.33
-88.88
-83.34
-75.6
-65.68
-53.78
-40.32
-25.91
-11.38
2.22
13.98
23.33
30.39
36.07
41.78
48.88
58.12
69.38
81.71
93.79
104.44
112.97
119.28
123.9
127.8
132.04
137.22
142.85
147.02
146.68
138.59
120.57
92.44
56.16
14.82
-28.65
-72.57
-116.38
-159.73
-201.53
-239.81
-272.64
-299.27
-320.6
-338.47
-354.12
-366.93
-374.39
-373.46
-362.29
-341.59
-314.42
-284.81
-256.07
-229.7
-205.36
-181.76
-157.68
-132.65
-107.09
-82.1
-59.07
-39.15
-22.81
-9.54
1.84
12.75
24.09
35.98
47.82
58.88
68.8
77.78
86.2
94.17
101.19
106.4
109.15
109.44
108.09
106.28
104.88
103.98
102.81
100.24
95.2
87.24
76.75
64.86
53.08
42.74
34.69
29.4
27.32
29.21
36.04
48.26
64.73
82.23
95.93
101.1
95.06
78.39
54.76
29.37
7
-9.35
-18.74
-21.83
-20.21
-16.01
-11.88
-10.69
-14.87
-25.61
-42.17
-62.04
-81.74
-98.04
-109.06
-114.75
-116.57
-116.8
-117.62
-120.31
-124.9
-130.17
-134.11
-134.47
-129.47
-118.33
-101.49
-80.41
-56.82
-31.9
-5.77
22.15
51.96
82.09
108.93
127.85
135.31
130.9
117.96
102.25
89.44
82.66
81.54
83.21
84.36
83.1
79.59
75.27
71.58
68.9
66.5
63.22
58.35
52.21
46
41.2
38.69
38.29
38.77
38.4
35.81
30.52
23.11
14.85
7.04
0.44
-5.06
-10.19
-15.92
-22.88
-31.1
-39.94
-48.36
-55.22
-59.53
-60.43
-57.27
-49.57
-37.3
-21.05
-2.1
17.8
37.14
55.2
72.3
89.21
106.21
122.23
134.7
140.38
136.71
123.03
100.91
73.35
43.44
13.26
-16.37
-45.14
-72.43
-96.94
-117.15
-132.36
-143.33
-152.04
-160.36
-168.57
-175.02
-176.96
-172.46
-161.86
-147.73
-133.25
-120.17
-107.14
-90.2
-65.01
-29.54
14.36
61.7
106.89
145.84
176.75
200.05
217.21
229.52
237.65
241.73
242.18
240.47
238.37
236.69
235.35
233.48
229.71
222.38
209.29
188.36
158.89
121.12
75.81
24.89
-28.62
-81.05
-128.9
-170.11
-204.12
-231.06
-244.78
-240.36
-216.96
-179.92
-137.99
-98.24
-64.47
-40.76
-25.04
-16.51
-17.23
-30.33
-58.28
-101.26
-152.84
-204.04
-244.26
-263.63
-257.37
-227.79
-182.81
-132.96
-87.36
-51.24
-26.12
-10.51
-1.19
4.53
8.3
11.27
14.47
18.87
25.15
32.96
41.44
50.02
58.01
64.89
70.54
75.24
79.76
85.19
92.26
101.21
111.67
122.16
130.39
133.86
130.62
120.34
104.78
87.51
72.74
63.58
60.54
61.48
62.75
61.17
55.62
47.31
38.69
31.94
27.68
24.93
22.03
17.83
12.51
7.36
3.92
3.01
4.17
5.74
5.68
2.46
-4.14
-12.85
-21.3
-26.99
-28.28
-25.02
-18.56
-11.08
-4.69
-0.68
0.56
-0.69
-3.91
-8.64
-14.5
-20.87
-26.75
-30.92
-32.47
-31.24
-28.21
-25.21
-24.2
-26.43
-31.98
-39.96
-49.38
-60.14
-73.25
-90.06
-110.86
-133.83
-155.25
-170.85
-177.65
-175.1
-164.84
-149.32
-130.47
-109.25
-86.28
-62.81
-41.37
-25.43
-18.19
-21.19
-33.61
-52.22
-72.19
-88.36
-96.69
-95.43
-85.88
-72.09
-59.63
-53.64
-56.91
-68.61
-84.41
-97.94
-103.34
-97.42
-80.5
-55.86
-27.78
0.46
27.92
55.94
87.22
123.96
166.42
212.63
258.64
299.12
328.05
340.26
333.08
308.57
272.92
234.76
202.35
180.7
170.31
167.89
169.25
171.95
177.1
186.58
200.11
213.9
221.31
215.72
193.51
156.65
112.79
73.84
49.98
45.17
55.68
71.74
81.98
78.19
59.48
24.63
-17.98
-55.46
-77.57
-82.36
-75.9
-64.06
-52.58
-43.63
-38.17
-36.78
-41.45
-55.67
-78.42
-103.75
-122.68
-127.73
-115.85
-89.51
-53.88
-15.1
21.91
54.6
81.86
102.9
116.11
119.82
113.11
97.26
74.81
48.75
21.76
-4.53
-29.29
-52.51
-74.41
-95.46
-115.91
-136.17
-156.85
-178.43
-201.04
-224.33
-247.61
-270.09
-291.58
-313.09
-337.12
-366.64
-403.19
-444.67
-484.38
-512.5
-519.19
-498.43
-450.42
-381.52
-302.02
-222.85
-152.79
-97.43
-58.98
-36.84
-28.05
-27.56
-28.66
-24.42
-9.7
16.75
51.49
87.82
118.94
140.93
154.44
163.54
172.72
184
195.97
205.26
209.67
210.52
212.5
221.04
239.07
264.8
292.63
315.98
330.39
335.15
332.73
326.64
319.53
311.96
302.83
291.37
278.01
264.83
254.53
248.6
245.74
241.6
230.26
206.87
171.08
126.9
80.79
38.33
1.58
-31.85
-67.38
-110.64
-164.85
-227.38
-291
-346.07
-383.48
-397.35
-386.54
-354.52
-307.82
-254.16
-198.09
-141.77
-85.94
-31.67
18.8
62.57
97.41
123.13
133.12
124.61
99.18
62.95
23.6
-13.42
-45.98
-73.8
-94.03
-107.16
-111.68
-106.18
-90.75
-67.31
-38.68
-7.22
23.27
50.73
73.62
92.94
110.81
129.63
150.93
174.51
198.23
218.62
232.6
238.31
237.12
231.97
225.28
217.16
205.36
186.83
159.95
126.05
88.38
51.13
17.25
-12.27
-37.68
-59.17
-76.2
-88.07
-94.94
-98.88
-102.97
-109.92
-120.77
-134.62
-149.45
-163.28
-174.92
-183.65
-188.8
-189.34
-184.27
-173.3
-157.33
-138.14
-117.76
-97.59
-77.92
-58.15
-37.31
-14.73
9.41
33.94
56.9
76.11
90.09
98.69
103.22
105.83
108.51
112.15
116.32
119.82
121.58
121.42
120.2
119.29
119.92
122.51
126.34
129.67
130.2
125.55
113.87
94.22
66.44
31.01
-11.04
-58.03
-107.33
-155.28
-197.48
-229.71
-249.01
-254.65
-248.34
-233.5
-214.11
-193.42
-173.31
-154.37
-136.43
-119.14
-102.41
-86.42
-71.56
-58.12
-46.18
-35.55
-25.78
-16.33
-6.87
2.65
11.91
20.41
27.58
33.05
36.64
38.3
38.09
36.13
32.77
28.65
24.7
21.85
20.69
21.22
22.81
24.53
25.61
25.78
25.29
24.63
24.16
23.93
23.63
22.92
21.69
20.25
19.16
19
20.08
22.25
25.01
27.67
29.67
30.75
30.93
30.48
29.66
28.55
27.04
24.79
21.49
16.98
11.29
4.58
-3.17
-12.25
-23.1
-35.9
-50.29
-65.08
-78.72
-89.88
-98.16
-104.13
-108.78
-112.69
-115.55
-116.36
-114.23
-109.08
-101.88
-94.01
-86.37
-78.79
-70.13
-59
-44.8
-28.25
-11.22
4.25
17.02
27.43
36.9
46.98
58.23
69.84
80.15
87.8
92.82
96.81
101.98
109.58
118.7
126.34
128.89
124.03
112.01
95.37
77.48
60.84
46.28
33.35
21.51
11.06
3.21
-0.8
-0.78
1.94
5.06
6.5
5.4
2.35
-1.25
-4.18
-5.99
-7.02
-7.81
-8.63
-9.33
-9.6
-9.41
-9.06
-8.94
-9.16
-9.27
-8.53
-6.43
-3.17
0.23
2.31
1.81
-1.72
-7.82
-15.36
-23.08
-30
-35.64
-39.76
-42.15
-42.48
-40.36
-35.68
-28.81
-20.67
-12.55
-5.72
-1.07
1.09
1.03
-0.66
-3.34
-6.57
-10.12
-13.99
-18.18
-22.59
-27.05
-31.36
-35.32
-38.81
-41.67
-43.82
-45.29
-46.34
-47.44
-49.18
-51.88
-55.36
-58.92
-61.55
-62.19
-60.06
-54.76
-46.33
-35.22
-22.34
-9.03
3.13
12.74
19
22.11
23.05
23.2
23.7
25.08
27.33
30.22
33.61
37.52
41.98
46.82
51.52
55.42
57.95
58.81
58.04
55.87
52.6
48.63
44.53
41.16
39.48
40.25
43.65
49.01
55.04
60.19
63.2
63.42
60.91
56.24
50.14
43.27
36.08
28.81
21.6
14.54
7.7
1.14
-5.05
-10.77
-15.79
-19.82
-22.57
-23.9
-24.04
-23.59
-23.36
-24.1
-26.18
-29.37
-32.88
-35.73
-37.11
-36.72
-34.88
-32.32
-29.88
-28.21
-27.72
-28.53
-30.59
-33.73
-37.58
-41.5
-44.72
-46.52
-46.54
-44.92
-42.03
-38.16
-33.33
-27.33
-20.19
-12.56
-5.72
-1.17
0.12
-1.74
-5.58
-9.76
-12.88
-14.33
-14.08
-12.28
-8.78
-3.11
5.03
15.29
26.42
36.64
44.38
48.88
50.52
50.45
49.93
49.74
49.96
50.15
49.82
48.81
47.38
46.07
45.33
45.35
45.86
46.39
46.38
45.42
43.36
40.26
36.24
31.48
26.2
20.72
15.57
11.46
9.12
9.07
11.33
15.37
20.19
24.64
27.75
29
28.37
26.25
23.19
19.74
16.33
13.21
10.52
8.27
6.41
4.81
3.3
1.73
0.04
-1.7
-3.31
-4.57
-5.39
-5.93
-6.63
-8.03
-10.44
-13.58
-16.47
-17.62
-15.72
-10.16
-1.53
8.45
17.63
24.24
27.61
28.48
28.53
29.62
32.85
38.02
43.68
47.79
48.78
46.36
41.86
37.81
36.92
40.84
49.39
60.45
70.64
76.57
76.03
68.89
57.44
45.89
39.29
41.67
53.96
72.61
89.68
94.97
79.72
40.4
-19.05
-87.64
-150.56
-194.12
-210.61
-200.94
-174.13
-143.8
-123.24
-120.9
-137.89
-168.25
-201.56
-226.78
-236.06
-227.05
-203.13
-171.79
-141.98
-121.39
-114.7
-122.96
-143.99
-173.34
-205.22
-233.31
-251.41
-254.24
-238.46
-203.81
-153.58
-94.15
-33.54
20.66
63.15
92.14
109.47
119.55
127.52
137.33
150.17
164.33
176.29
182.67
182.12
176.08
168.06
161.8
159.62
161.59
165.96
170.5
173.75
175.48
176.28
176.64
176.23
173.93
168.4
158.83
145.38
128.93
110.61
91.19
70.79
49.02
25.37
-0.28
-27.26
-53.95
-78.01
-96.81
-108.32
-111.93
-108.83
-101.69
-93.7
-87.41
-83.8
-82.3
-81.34
-79.35
-75.55
-70.22
-64.38
-59.24
-55.63
-53.62
-52.59
-51.57
-49.72
-46.73
-42.82
-38.37
-33.4
-27.21
-18.79
-7.81
4.57
15.46
21.27
19.4
9.83
-4.51
-18.94
-29.02
-32.58
-30.3
-24.84
-18.93
-13.59
-7.38
2.84
20.2
45.85
77.6
110.06
135.99
148.36
142.42
116.96
74.69
21.78
-33.42
-82.13
-117.01
-133.87
-132.61
-116.95
-93.14
-67.79
-45.97
-30.07
-19.89
-13.54
-8.79
-4.04
1.44
7.47
13.39
18.29
21.14
21.09
17.67
10.83
1.29
-9.34
-18.8
-25.11
-27.75
-28.28
-29.71
-34.67
-43.4
-52.96
-58.44
-55.66
-43.84
-26.51
-9.91
0.17
1.15
-5.5
-15.73
-25.42
-32.23
-35.89
-37.05
-36.16
-33.09
-27.66
-20.28
-12.03
-4.44
1.15
3.67
2.11
-4.99
-19.4
-42.26
-72.72
-107
-139.07
-162.44
-172.48
-168.11
-151.6
-127.08
-98.3
-67.28
-34.35
0.58
36.57
71.15
101.05
123.68
138.5
147.22
152.83
157.97
163.65
168.89
171.43
169
160.48
146.35
128.41
108.89
89.61
71.46
54.51
38.6
24.1
12.1
4.04
0.89
2.43
7.17
12.98
17.95
21.14
22.64
23.1
23.1
22.68
21.4
18.73
14.39
8.55
1.67
-5.76
-13.47
-21.36
-29.54
-38.16
-47.41
-57.53
-68.72
-81
-93.92
-106.27
-116.24
-121.8
-121.27
-114.03
-100.78
-83.37
-64.22
-45.54
-28.83
-14.72
-3.26
5.86
13.14
19.48
26.15
34.6
45.75
59.42
74.08
87.18
96.15
99.45
97.1
90.71
82.76
75.7
71.14
69.64
70.76
73.48
76.62
79.28
80.92
81.28
80.11
77.21
72.6
67.11
62.65
61.84
67.01
79.06
96.79
117.14
136.53
152.22
163.17
169.9
173.63
175.52
176.39
176.98
178.2
180.8
184.68
188.17
188.14
180.98
164.04
136.76
100.87
59.62
16.42
-26.06
-66.1
-102.45
-133.7
-158.05
-173.91
-180.66
-179.15
-171.47
-160.2
-147.71
-136.14
-127.8
-125.25
-130.56
-143.8
-161.75
-178.4
-187.43
-185.48
-174.41
-160.63
-151.82
-152.75
-162.79
-176.66
-187.61
-191.07
-186.47
-176.26
-163.44
-149.31
-133.12
-113.47
-89.97
-63.85
-37.11
-11.04
14.56
40.85
68.43
96.02
120.48
138.22
147.25
148.45
145.22
141.59
140.35
142
145.39
148.99
152.09
154.93
157.71
159.95
160.3
157.54
151.67
144.28
137.56
132.59
128.49
123.15
115.03
104.83
95.37
89.38
86.85
83.92
74.57
54.02
21.71
-18.35
-59.97
-98.17
-131.02
-159.01
-182.78
-201.81
-214.92
-222.26
-226.48
-231.72
-240.66
-252.13
-261.26
-262.39
-252.92
-235.29
-215.85
-201.06
-194.04
-193.61
-196.21
-198.92
-201.46
-205.71
-213.2
-222.97
-230.96
-231.68
-220.9
-197.46
-163.44
-122.59
-78.58
-34.13
8.69
47.61
79.87
103
116.03
120.34
119.14
115.75
112.09
107.95
101.96
93.14
82.1
70.94
62.17
57.59
57.58
61.32
67.24
73.34
77.23
76.5
69.42
55.78
37.5
18.1
1.48
-9.67
-14.74
-14.83
-11.52
-5.71
2.64
13.78
27.1
40.75
52.14
59.28
61.88
61.45
60.55
61.33
64.52
69.34
74.22
77.77
79.36
79.05
77.02
73.05
66.41
56.28
42.44
25.93
9.06
-5.23
-14.38
-17.27
-14.58
-8.38
-1.25
4.86
9.27
12.57
15.95
20.23
25.19
29.49
31.36
29.52
23.81
15.06
4.48
-6.62
-16.85
-24.37
-26.85
-22.11
-9.48
9.13
29.2
45.16
52.74
51.05
42.92
33.42
27.25
26.74
31.35
38.76
46.58
53.51
59.42
64.66
69.27
72.59
73.55
71.36
66.17
59.19
52.33
47.46
45.65
46.74
49.51
52.16
53.04
51.2
46.72
40.65
34.54
29.9
27.54
27.39
28.65
30.31
31.75
33.22
35.74
40.66
48.93
60.37
73.52
85.87
94.58
97.28
92.86
81.79
66
48.23
30.97
15.56
1.91
-11.06
-24.7
-40
-57.39
-76.79
-97.64
-118.68
-137.93
-152.95
-161.69
-163.45
-159.44
-152.25
-144.59
-137.81
-131.28
-122.94
-110.82
-94.57
-75.9
-57.88
-43.45
-34.14
-29.66
-28.39
-28.32
-27.94
-26.55
-24.22
-21.33
-18.37
-15.67
-13.51
-12.09
-11.59
-12.07
-13.47
-15.58
-18.23
-21.22
-24.24
-26.73
-27.78
-26.38
-21.9
-14.52
-5.19
4.63
13.61
21.07
27.08
32.41
38.03
44.7
52.61
61.38
70.15
77.91
83.8
87.26
88
85.92
80.97
73.22
63.02
51.2
39.08
28.21
19.85
14.41
11.2
8.74
5.52
0.64
-5.65
-12.07
-16.83
-18.46
-16.37
-11.09
-3.94
3.53
10.14
15.39
19.39
22.6
25.32
27.5
28.76
28.71
27.17
24.32
20.57
16.27
11.38
5.45
-2.01
-11.21
-21.63
-32.15
-41.45
-48.66
-53.68
-57.13
-59.84
-62.24
-64
-64.22
-62
-57.03
-49.88
-41.84
-34.36
-28.49
-24.55
-22.16
-20.67
-19.58
-18.83
-18.74
-19.63
-21.48
-23.69
-25.36
-25.84
-25.18
-24.26
-24.35
-26.33
-30.04
-34.13
-36.62
-35.84
-31.16
-23.21
-13.51
-3.81
4.54
10.81
14.87
17.04
17.89
18.3
19.35
22.25
28.16
37.75
50.8
65.81
80.21
90.94
95.68
93.77
86.69
77.53
69.61
65.09
64.17
65.38
66.62
66.29
63.81
59.5
54.06
48.22
42.9
39.49
39.8
45.28
55.99
69.69
82.08
88.23
84.6
70.69
49.21
24.72
1.54
-17.94
-33.62
-46.75
-58.58
-69.4
-78.56
-85.21
-89.07
-90.77
-91.42
-92.08
-93.21
-94.73
-96.18
-97.02
-96.76
-95.04
-91.75
-87.06
-81.39
-75.21
-68.81
-62.19
-55.25
-48.1
-41.24
-35.56
-31.95
-30.95
-32.43
-35.68
-39.73
-43.71
-47.2
-50.26
-53.35
-57
-61.51
-66.72
-72.05
-76.85
-80.81
-84.17
-87.51
-91.13
-94.58
-96.61
-95.71
-90.82
-81.97
-70.16
-56.77
-42.79
-28.63
-14.32
-0.28
12.5
22.68
29.32
32.5
33.3
33.21
33.35
34.1
35.27
36.55
37.96
39.79
42.32
45.43
48.54
50.9
51.9
51.31
49.23
46
42.13
38.36
35.62
34.94
37.08
42.2
49.68
58.31
66.65
73.47
78.13
80.57
81.24
80.79
79.84
78.74
77.58
76.23
74.55
72.54
70.48
68.8
67.94
68.06
68.88
69.76
69.98
69.1
67.19
64.75
62.43
60.73
59.78
59.5
59.83
60.95
63.25
67.09
72.48
78.86
85.21
90.25
92.87
92.34
88.5
81.81
73.21
63.97
55.39
48.4
43.26
39.49
36.19
32.51
28.14
23.45
19.19
16.01
14.1
13.2
12.77
12.24
11.02
8.33
3.2
-5.19
-16.91
-30.7
-44.09
-54.12
-58.54
-56.61
-49.35
-38.93
-27.77
-17.76
-9.96
-4.7
-1.78
-0.68
-0.73
-1.29
-2.01
-3.04
-4.85
-7.96
-12.45
-17.83
-23.24
-27.93
-31.63
-34.59
-37.37
-40.37
-43.72
-47.22
-50.63
-53.71
-56.29
-58.13
-58.85
-58.02
-55.45
-51.43
-46.7
-42.3
-39.2
-37.94
-38.49
-40.34
-42.72
-44.88
-46.37
-47.06
-47.16
-47.04
-47.02
-47.24
-47.6
-47.92
-48.02
-47.84
-47.42
-46.74
-45.75
-44.4
-42.78
-41.21
-40.13
-39.77
-39.86
-39.58
-37.86
-33.85
-27.5
-19.56
-11.38
-4.29
0.92
4.19
5.99
6.89
7.3
7.27
6.66
5.37
3.55
1.57
-0.11
-1.16
-1.52
-1.42
-1.28
-1.46
-2.14
-3.26
-4.65
-6.2
-7.99
-10.22
-13
-16.1
-18.81
-20.13
-19.15
-15.49
-9.57
-2.42
4.64
10.5
14.54
16.7
17.25
16.66
15.4
13.83
12.28
10.95
9.92
9.15
8.52
7.92
7.29
6.64
6.01
5.44
4.88
4.27
3.55
2.61
1.4
-0.06
-1.59
-2.75
-2.95
-1.59
1.6
6.47
12.42
18.64
24.4
29.27
33.18
36.25
38.56
40.03
40.49
39.91
38.6
37.23
36.49
36.77
37.8
38.76
38.63
36.69
32.81
27.42
21.2
14.76
8.43
2.25
-4.07
-11.3
-20.83
-34.48
-54
-80.2
-112.23
-147.44
-181.79
-210.85
-230.89
-239.66
-236.76
-223.53
-202.52
-176.91
-149.69
-123.06
-98.16
-75.03
-53.12
-31.77
-10.5
10.85
32.27
53.54
74.16
93.17
109.14
120.62
126.55
126.72
121.91
113.7
104.08
94.89
87.45
82.29
79.2
77.41
75.89
73.77
70.61
66.47
61.72
56.72
51.54
45.8
38.94
30.53
20.68
10.1
-0.06
-8.72
-15.25
-19.79
-23.18
-26.63
-31.29
-37.79
-45.99
-54.79
-62.3
-66.19
-64.26
-55.09
-38.58
-16.23
8.97
33.13
52.58
65.16
71.18
73.28
75.31
80.46
89.6
100.79
110.19
114.01
110.44
100.39
86.75
72.71
60.09
48.94
38.48
28.31
19.18
12.52
9.35
9.17
9.89
8.75
3.66
-5.76
-18.16
-31.24
-42.87
-51.8
-57.69
-60.7
-61.04
-58.81
-54.21
-47.64
-39.94
-32.09
-25.02
-19.42
-15.63
-13.69
-13.39
-14.37
-16.18
-18.32
-20.36
-21.95
-22.97
-23.53
-23.93
-24.59
-25.84
-27.86
-30.63
-34
-37.81
-42.03
-46.68
-51.79
-57.26
-62.68
-67.38
-70.55
-71.55
-70.18
-66.91
-62.77
-58.99
-56.5
-55.49
-55.27
-54.5
-51.56
-45
-34.02
-18.74
-0.38
18.91
36.51
50.14
58.59
62.16
62.51
61.99
62.69
65.74
71.04
77.53
83.65
87.82
88.75
85.76
78.89
69.05
57.88
47.44
39.62
35.61
35.56
38.71
43.7
49.12
53.86
57.37
59.7
61.38
62.96
64.92
67.49
70.77
74.76
79.38
84.34
89.19
93.45
96.41
97.55
96.82
94.78
92.26
89.92
87.85
85.81
83.65
81.27
78.82
76.71
75.35
74.83
74.79
74.29
72.47
68.7
62.13
51.85
37.31
18.73
-2.82
-25.67
-48.39
-71.64
-93.79
-112.16
-124.5
-130.09
-129.85
-125.63
-119.44
-114.74
-113.13
-115.18
-121.4
-132.32
-148.01
-167.27
-187.63
-202.1
-204.11
-188.65
-154.05
-102.63
-39.34
30.44
102.12
171.55
233.86
282.16
309.31
310.39
285.23
239.32
182.1
123.26
69.18
21.25
-23.49
-68.99
-117.22
-166.79
-213.64
-252.92
-281.15
-297.21
-301.94
-297.32
-284.77
-264.41
-235.4
-196.8
-148.34
-91.05
-27.31
39.22
103.74
160.98
206.13
236.07
250.36
251.39
243.18
229.32
211.53
189.08
159.76
121.55
74.07
19.05
-39.95
-98.38
-151.41
-194.52
-224.38
-239.56
-241.13
-232.36
-217.7
-201.48
-187.27
-177.86
-175.63
-182.43
-198.45
-220.84
-243.25
-257.41
-256.18
-236.67
-201.45
-157.04
-110.65
-66.82
-26.21
13.05
52.85
93.39
133.15
170.13
203.04
231.07
252.57
263.68
258.48
231.22
179.58
107.24
24.07
-56.41
-121.08
-161.02
-173.48
-161.47
-131.74
-92.21
-50.16
-11.13
21.4
45.79
62
71.08
74.88
75.66
75.55
76.24
78.78
83.52
90.12
97.68
104.99
110.84
114.34
115.14
113.46
109.8
104.65
98.27
90.79
82.43
73.74
65.58
58.88
54.3
52.12
52.22
54.26
57.83
62.42
67.46
72.21
75.82
77.49
76.59
72.88
66.68
59
51.4
45.49
41.92
39.46
34.96
24.35
4.64
-24.28
-59.13
-94.18
-123.4
-142.22
-148.42
-141.98
-124.42
-98.46
-67.91
-37.52
-12.11
4.93
13
14.55
13.9
15.14
20.41
29.51
40.81
52.6
63.81
73.76
81.37
84.78
81.78
70.87
52.22
27.68
0.04
-27.84
-53.58
-75.05
-90.02
-96.21
-92.23
-78.7
-58.88
-38.11
-22.06
-14.74
-17.16
-27.37
-41.53
-55.6
-66.75
-73.99
-78.02
-80.25
-81.86
-83.06
-83.23
-81.51
-77.54
-71.73
-64.82
-57.16
-48.34
-37.31
-23.27
-6.38
11.94
29.61
44.89
57.26
67.57
77.36
87.83
99.03
109.66
117.65
120.96
118.51
110.78
99.83
88.75
80.78
78.28
82.17
91.84
105.57
121.11
136.35
149.68
160.01
166.78
169.64
168.36
162.86
153.45
141
126.81
112.2
97.96
84.02
69.68
54.3
38.04
22.2
8.89
0.15
-3.08
-1.42
3.32
8.96
14.01
18.2
22.15
26.81
32.64
39.36
46.25
52.56
57.74
61.43
62.98
61.3
54.95
42.96
25.66
4.98
-16.16
-35.04
-50.28
-62.02
-71.3
-79.06
-85.57
-90.61
-94.33
-97.68
-102.18
-109.15
-118.72
-129.74
-140.7
-151.02
-161.58
-173.75
-187.87
-202.22
-213.42
-218.17
-214.98
-204.92
-190.94
-176.19
-162.63
-150.54
-139.2
-127.9
-116.57
-105.72
-95.98
-87.64
-80.69
-75.12
-71.05
-68.64
-67.76
-67.82
-68.22
-68.63
-68.96
-69.38
-69.87
-70.06
-69.43
-67.41
-63.8
-58.73
-52.43
-45.02
-36.51
-26.97
-16.7
-6.43
2.92
10.43
15.43
17.56
16.92
13.99
9.78
5.78
3.63
4.6
9.03
16.12
24.26
31.63
36.98
40.06
41.51
42.44
43.68
45.41
47.06
47.66
46.37
42.93
37.82
32.23
27.62
25.28
25.74
28.47
31.75
33.2
30.58
22.75
10.34
-4.35
-18.09
-27.89
-32.12
-31.04
-26.53
-21.25
-17.64
-17.04
-19.41
-23.57
-27.85
-30.77
-31.59
-30.39
-27.77
-24.37
-20.46
-15.96
-10.67
-4.51
2.38
9.74
17.42
25.43
33.82
42.49
50.96
58.48
64.24
67.65
68.51
67.13
64.24
60.79
57.73
55.73
54.97
55.05
55.16
54.36
52
47.96
42.66
36.8
31.01
25.63
20.62
15.74
10.77
5.75
1.05
-2.76
-5.02
-5.35
-3.76
-0.73
2.89
6.08
7.94
7.9
5.81
2.07
-2.47
-6.59
-8.96
-8.57
-5.15
0.68
7.62
14.12
19.06
21.94
22.77
21.71
18.75
13.76
6.78
-1.72
-10.83
-19.42
-26.53
-31.53
-34.15
-34.28
-31.97
-27.45
-21.26
-14.27
-7.51
-1.9
1.94
3.75
3.55
1.78
-0.8
-3.08
-3.91
-2.52
1.21
6.59
12.51
17.88
22.03
24.94
26.96
28.56
29.92
30.81
30.61
28.66
24.62
18.82
12.3
6.56
3.15
3.08
6.48
12.55
19.93
27.05
32.54
35.43
35.19
31.77
25.57
17.34
8.01
-1.46
-10.23
-17.67
-23.34
-27.02
-28.59
-28.1
-25.69
-21.59
-16.13
-9.75
-3.08
3.12
8.04
11.16
12.37
12.22
11.75
12.11
14.13
18.14
23.81
30.43
37.18
43.23
47.98
51.06
52.37
52.01
50.31
47.64
44.4
40.96
37.62
34.56
31.84
29.36
26.93
24.35
21.53
18.52
15.43
12.33
9.15
5.78
2.2
-1.23
-3.83
-4.7
-3.15
1
7.25
14.55
21.7
27.63
31.71
33.78
34.02
32.75
30.37
27.2
23.62
19.98
16.62
13.83
11.75
10.37
9.51
8.87
8.16
7.15
5.72
3.74
1.1
-2.41
-6.92
-12.38
-18.32
-23.92
-28.21
-30.42
-30.37
-28.57
-26.07
-24.09
-23.47
-24.52
-26.94
-30.04
-32.96
-34.96
-35.5
-34.38
-31.8
-28.27
-24.45
-20.87
-17.61
-14.24
-9.98
-4.23
2.94
10.42
16.39
18.85
16.44
9.11
-1.74
-13.73
-24.04
-30.19
-30.79
-25.52
-15.29
-2.2
10.64
19.61
21.81
16.5
5.97
-4.91
-10.62
-7.59
4.11
21.02
38.21
51.92
61.08
66.95
71.26
74.47
75.17
71.31
61.89
48.11
32.89
19.29
8.95
1.59
-3.96
-8.53
-11.3
-9.69
-0.7
17.46
43.71
73.5
99.6
113.82
109.22
82.23
33.95
-29.52
-98.15
-160.1
-204.76
-225.53
-221.64
-198.11
-163.86
-128.65
-100.05
-81.66
-73.1
-71.49
-73.46
-76.66
-80.19
-84
-87.86
-90.79
-91.01
-86.59
-76.19
-59.84
-38.95
-15.8
7.33
28.81
47.98
64.89
79.7
92.37
102.48
109.62
113.77
115.64
116.5
117.69
119.97
123.05
125.74
126.36
123.5
116.33
104.47
87.51
64.72
35.41
-0.24
-40.19
-80.25
-114.8
-138.35
-147.31
-141.12
-122.24
-95.16
-64.92
-35.82
-10.71
9.09
23.48
33.15
39.22
42.92
45.35
47.37
49.3
50.86
50.99
48.03
40.1
25.74
4.64
-21.93
-51.28
-79.96
-104.81
-123.88
-136.77
-144.21
-147.29
-146.67
-142.43
-134.41
-122.86
-108.83
-94.06
-80.2
-68.03
-57.17
-46.42
-34.7
-21.96
-9.44
0.83
7.05
8.66
6.65
3.1
0.23
-0.74
-0.11
0.65
-0.16
-3.27
-7.94
-12.11
-13.24
-9.41
-0.11
13.69
29.84
45.79
59.48
70.03
78.14
85.88
95.87
110.16
128.91
149.87
168.82
181.09
183.44
175.49
159.71
140.34
121.51
105.72
93.25
82.7
72.28
60.88
48.73
36.99
26.67
17.76
8.8
-2.37
-17.33
-35.88
-55.67
-73.03
-84.58
-88.98
-87.57
-83.87
-81.95
-84.66
-92.74
-104.77
-118.2
-130.52
-140.19
-147.02
-151.88
-156.12
-160.83
-166.34
-172.1
-177.02
-179.97
-180.42
-178.52
-175.05
-170.96
-166.96
-163.55
-160.95
-159.25
-158.11
-156.55
-152.94
-145.39
-132.56
-114.25
-91.55
-66.35
-40.58
-15.61
7.76
28.99
47.49
62.67
74.29
83.04
90.5
98.65
108.95
121.59
135.31
147.99
157.6
163.24
165.39
165.72
166.06
167.45
169.53
170.69
168.87
162.61
152.01
138.88
126.17
116.81
112.47
112.99
116.54
120.5
122.58
121.45
116.98
109.8
100.96
91.78
83.85
78.87
77.89
80.21
82.91
81.4
71.4
51.22
23.01
-7.86
-34.93
-53.37
-61.81
-62.38
-59.23
-56.41
-56.25
-58.66
-61.62
-62.45
-59.24
-51.77
-41.61
-31.46
-23.97
-20.7
-21.72
-25.75
-30.75
-34.58
-35.38
-31.9
-23.85
-12.08
1.45
14.18
23.87
29.23
30.21
27.71
22.87
16.73
10.08
3.7
-1.62
-5.33
-7.32
-8.1
-8.45
-9.13
-10.44
-12.13
-13.48
-13.57
-11.66
-7.48
-1.43
5.64
12.63
18.67
23.39
26.79
29.27
31.43
33.93
37.29
41.49
45.69
48.37
48.09
44.45
38.61
32.72
28.59
26.43
24.89
22.24
17.99
13.5
11.05
12.22
16.71
22.83
29.09
35.44
43.06
52.78
63.67
73.05
78.25
78.73
76.97
77.11
82.08
91.52
101.8
108.42
108.9
104.28
98.02
93.48
91.69
90.81
87.69
79.91
67.66
53.69
41.54
33.19
27.48
20.7
8.27
-12.49
-41.7
-75.84
-108.94
-134.86
-149.87
-153.77
-149.05
-139.82
-129.49
-121.83
-118.66
-119.58
-122.42
-124.59
-124.52
-121.41
-116.68
-112.32
-113.82
-126.17
-151.81
-189.74
-236.04
-285.12
-329.18
-361.55
-376.4
-375.38
-364.48
-351.71
-344.24
-346.28
-358.76
-377.88
-399.87
-393.02
-337.26
-233.14
-103.68
21.54
123.96
190.33
231.81
256.79
268.91
264.54
240.46
201.25
156.63
118.91
97.24
95.64
109.43
130.69
148.81
157.12
155.11
147.09
138.84
133.54
131.82
130.38
126.32
116.77
101.43
82.7
64.22
49.21
38.61
31.99
27.16
22.92
18.26
12.73
5.59
-5
-20.98
-42.91
-67.53
-88.4
-97.93
-92.39
-75.31
-57.54
-52.56
-69.49
-107.71
-156.21
-198.89
-222.28
-221.49
-201.31
-172.03
-143.05
-117.85
-93.74
-65.48
-30.35
8.76
44.39
68.52
76.85
70.93
56.84
41.44
29.22
21.09
15.43
10.71
7.31
7.84
15.66
32.59
57.15
84.51
108.51
124.24
130.04
127.85
122.12
118.05
120.08
131.42
154.03
188.28
232.07
279.86
322.85
351.34
358.63
344.56
316.58
287.04
267.7
264.85
277.12
297.08
315.63
325.88
325.43
315.59
299.24
278.56
253.48
222.58
184.59
140.2
93.09
49.09
14.33
-6.96
-13.64
-7.52
8
29.22
52.78
75.67
94.89
107.7
112.21
108.2
97.18
81.77
64.68
47.82
31.98
16.96
1.88
-14.82
-34.97
-60
-89.87
-122.84
-155.96
-186.04
-211.1
-230.35
-243.65
-250.72
-250.98
-244.43
-232.78
-219.91
-211.01
-210.68
-221.3
-242.86
-273.99
-313.41
-360.21
-412.66
-466.44
-514.05
-546.52
-556.72
-542.52
-507.82
-460.76
-410.38
-363.26
-322.06
-286.04
-253.02
-221.33
-190.68
-161.75
-135.25
-111.2
-88.83
-67.12
-45.31
-22.98
-0.26
22.62
45.81
69.84
95.23
121.68
147.43
169.47
185.17
192.67
191.93
184.93
175.12
166.13
160.72
159.69
161.91
165.85
169.19
169.79
166.62
160.47
153.64
149.23
149.43
154.68
164.51
176.16
185.49
188.43
182.55
167.61
145.89
120.83
89.5
52.65
13.5
-24.68
-61.9
-99.56
-140.79
-183.73
-222.14
-248.52
-254.33
-237.05
-201.62
-158.15
-117.35
-86.05
-64.56
-48.19
-30.44
-5.57
27.91
67.24
107.2
142.25
167.94
182.14
185.36
181.21
176.72
179.55
195.13
224.01
260.83
295.41
316.43
315.54
291.19
249.95
203.87
165.67
143.47
137.63
141.08
143.41
136.18
117.09
90.3
63.02
40.7
24.04
9.62
-6.68
-25.74
-44.13
-56.19
-57.99
-50.42
-39.16
-31.78
-33.9
-46.66
-66.81
-88.95
-108.28
-122.38
-131.26
-136.46
-139.61
-141.68
-142.75
-142.17
-139.08
-132.95
-124.27
-114.98
-108.47
-108.53
-117.94
-137.04
-163.09
-190.98
-214.98
-230.99
-238.2
-239.37
-239.63
-244.35
-256.73
-276.38
-299.32
-319.36
-330.34
-328.06
-311.35
-281.77
-242.5
-197.13
-148.91
-100.8
-55.58
-15.89
16.39
41.04
60.15
77.77
98.54
125.62
158.97
194.88
227.25
250.21
260.61
259.45
251.24
241.82
235.53
233.47
233.61
232.44
227.31
218.07
207.04
197.66
192.72
193.25
198.32
205.83
213.28
218.01
217.09
207.34
185.97
152.04
107.72
58.39
11.07
-28.36
-57.41
-77.72
-93.37
-107.94
-122.25
-134.1
-140.29
-139.22
-132.17
-122.3
-112.1
-101.1
-85.69
-61.17
-24.8
21.91
73.28
121.16
157.73
177.43
177.66
158.3
120.99
68.51
4.79
-64.9
-134.09
-195.7
-243.18
-271.96
-280.7
-271.83
-250.94
-225
-200.07
-179.53
-163.62
-150.51
-138.18
-126.05
-115.37
-108.58
-107.7
-113.16
-123.6
-136.46
-149.19
-160.11
-168.43
-173.54
-174.26
-168.68
-154.9
-132.25
-102.09
-67.75
-33.57
-3.61
19.45
34.6
42.45
44.91
44.94
46.27
53.07
69.09
96.55
134.9
180.14
225.35
262.5
285.12
290.8
282.11
265.61
249.08
238.23
234.61
235.66
236.74
233.73
224.89
210.79
192.81
171.58
146.42
116.31
81.57
44.82
10.64
-16.06
-32.25
-37.87
-35.46
-28.74
-20.87
-13.65
-7.74
-3.62
-2.24
-4.89
-12.23
-23.28
-35.18
-44
-46.4
-41.13
-29.72
-15.84
-3.79
3.16
3.75
-1.29
-10.2
-21.18
-32.89
-44.13
-53.16
-57.3
-53.53
-39.83
-16.65
12.44
41.42
63.78
74.77
73.05
60.9
43.07
24.86
10.24
0.77
-4.33
-7.27
-10.23
-14.22
-18.54
-21.18
-19.78
-12.84
-0.49
15.44
32.07
46.42
56.44
61.5
62.31
60.36
57.1
53.37
49.28
44.64
39.47
34.41
30.45
28.51
28.77
30.5
32.31
32.84
31.3
27.71
22.77
17.39
12.38
8.33
5.61
4.4
4.73
6.49
9.5
13.53
18.35
23.62
28.77
32.98
35.28
35
32.21
27.84
23.34
20.05
18.46
18.03
17.64
16.4
14.24
11.91
10.18
9.12
7.75
4.57
-1.28
-9.06
-16.41
-20.37
-18.87
-12.01
-2.11
7.28
13.12
14.24
11.88
9.09
9.26
14.67
25.53
39.87
54.58
66.83
75.31
80.78
85.55
91.99
101.28
112.61
123.62
131.6
134.62
131.79
122.7
106.61
82.63
50.96
14.59
-20.14
-45.3
-54.92
-48.37
-31.34
-13.32
-3.15
-4.85
-16.62
-33.21
-49.84
-65.02
-80.53
-99.05
-121.19
-144.01
-161.66
-167.57
-157.02
-128.79
-85.99
-35.34
14.21
53.73
76.44
79.17
62.43
29.54
-14.85
-65.74
-117.76
-164.79
-200.31
-218.75
-217.59
-198.69
-167.57
-130.99
-94.63
-61.64
-32.94
-8.06
14.1
35.01
55.98
77.36
97.53
112.76
118.71
112.91
96.77
75.47
55.29
40.13
29.45
19.43
6.32
-10.37
-27.46
-40.46
-46.88
-47.95
-47.56
-49.4
-54.62
-61.39
-66.5
-67.7
-65.14
-61.02
-58.11
-58.17
-61.39
-66.84
-73.33
-79.97
-86.24
-91.73
-96.06
-99.07
-101.02
-102.62
-104.52
-106.61
-107.61
-105.32
-97.55
-83.18
-62.92
-39.35
-16.21
2.65
14.45
18.33
15.71
9.82
4.7
3.79
8.79
19.31
33.35
48.4
62.37
73.88
81.8
84.92
81.95
72.25
56.68
37.98
19.97
6.26
-0.99
-1.69
2.67
9.79
17.57
24.62
30.36
34.88
38.61
41.86
44.58
46.18
46
44.01
41.36
40.41
43.87
53.49
68.99
87.93
106.43
120.52
127.43
126.02
116.67
100.86
80.85
59.44
39.46
22.79
9.6
-1.96
-14.83
-31.47
-52.31
-75.35
-97.12
-114.58
-126.56
-134.23
-140.06
-146.38
-154.21
-163.23
-172.4
-180.75
-187.79
-193.31
-197.15
-199.22
-199.79
-199.57
-199.65
-200.71
-202.28
-202.09
-196.39
-181.1
-153.44
-113.27
-63.63
-10.25
39.75
79.54
104.26
112.22
105.29
88.27
67.38
48.3
34.28
25.47
19.39
12.6
2.56
-10.97
-25.92
-38.93
-46.78
-47.34
-39.55
-22.95
2.61
36.77
77.97
122.68
165.34
198.97
216.83
214.51
191.72
152.6
104.29
54.14
7.19
-34.52
-70.69
-100.2
-119.68
-124.69
-113.02
-87.82
-58.03
-34.93
-26.77
-34.93
-54.15
-76.64
-97.04
-114.68
-131.8
-149.75
-166.3
-176.29
-175.14
-162.2
-141.38
-118.84
-98.9
-81.63
-63.38
-39.6
-7.77
31.36
75.04
120.75
167.87
217.75
272.02
330.59
390.41
445.66
489.28
515.04
519.45
502.78
468.86
423.8
374.07
324.69
278.06
233.92
190.18
144.36
95.31
44.33
-4.74
-46.69
-77.02
-94.07
-99.96
-99.89
-99.91
-104.41
-114.54
-128.44
-142.96
-155.65
-165.86
-174.34
-181.9
-188.32
-192.25
-192.21
-187.91
-180.76
-173.32
-168.12
-166.48
-168.12
-171.41
-174.32
-175.22
-173.51
-169.75
-165.43
-162.33
-161.6
-163.01
-164.63
-163.46
-156.45
-141.9
-120.18
-93.44
-64.49
-35.44
-6.92
21.75
51.36
81.65
110.76
135.8
154.11
164.49
167.7
165.92
161.53
156.07
149.95
142.85
134.66
126.1
118.75
114.46
114.34
118.33
125.24
133.36
141.14
147.67
152.72
156.41
158.78
159.63
158.67
155.91
151.8
147.11
142.53
138.1
132.96
125.6
114.55
99.23
80.61
61.09
43.62
30.23
20.68
12.04
-0.17
-19.65
-47.14
-79.58
-111.35
-137.02
-154.21
-164.69
-173.08
-183.89
-198.77
-215.57
-229.67
-236.43
-233.59
-221.92
-204.42
-184.66
-165.42
-148.1
-132.86
-119.25
-106.6
-94.47
-82.81
-72.01
-62.69
-55.22
-49.19
-43.37
-36.16
-26.5
-14.68
-2.41
7.94
14.54
17.02
16.68
15.78
16.56
20.56
28.29
39.54
53.58
69.38
85.48
99.93
110.55
115.62
114.63
108.73
100.57
93.44
90.11
91.8
97.79
105.71
112.61
116
114.62
108.42
97.96
83.86
66.56
46.72
25.64
5.17
-12.75
-26.84
-36.76
-42.89
-45.75
-45.59
-42.4
-36.35
-28.31
-19.87
-12.91
-8.98
-8.71
-11.67
-16.56
-21.46
-24.2
-22.84
-16.32
-5.28
7.73
18.68
23.53
19.83
7.69
-10.27
-30.12
-48.21
-62.38
-72.29
-78.71
-82.69
-84.61
-83.98
-79.76
-70.95
-57.29
-39.58
-19.71
-0.28
16.15
27.84
34.36
36.71
36.64
35.75
34.74
33.18
30.13
24.98
18.06
10.69
4.45
0.31
-1.95
-3.61
-6.3
-11.19
-18.42
-27.1
-35.88
-43.54
-49.48
-53.74
-56.63
-58.24
-58.07
-55.11
-48.15
-36.47
-20.11
-0.06
22.06
44.56
66.08
85.86
103.7
119.76
134.29
147.36
158.74
167.8
173.82
176.22
174.96
170.59
164.05
156.24
147.84
139.22
130.68
122.39
114.03
104.28
90.58
69.89
40.11
1.74
-41.68
-84.59
-121.72
-150.5
-172.09
-190.52
-210.49
-234.99
-263.97
-294.57
-322.32
-342.66
-352.05
-348.4
-331.14
-300.84
-258.88
-206.94
-146.83
-80.78
-12.02
54.69
113.39
158.25
185.53
195.07
190.31
176.8
159.92
143.28
128.4
115.89
106.64
102.43
105.08
115.07
130.55
147.52
161.25
167.95
165.84
155.11
137.2
113.83
86.53
56.57
25.05
-6.98
-38.79
-70.15
-101.36
-132.93
-165.13
-197.54
-229.06
-258.28
-284.02
-305.88
-324.34
-340.42
-354.86
-367.56
-377.22
-381.7
-378.76
-366.97
-346.2
-317.62
-283.32
-245.66
-206.83
-168.6
-132.38
-99.3
-70.22
-45.46
-24.52
-5.87
12.8
33.88
58.93
87.99
119.52
150.96
179.72
204.05
223.22
237.28
246.56
251.52
253.01
252.46
251.79
252.85
256.57
262.49
268.96
273.88
275.64
273.53
267.78
259
247.63
233.62
216.46
195.64
171.12
143.82
115.61
88.81
65.23
45.3
27.77
10.47
-8.44
-29.28
-50.64
-70.19
-86.12
-98.09
-107.15
-114.83
-121.96
-128.12
-132.29
-133.83
-133.24
-131.95
-131.03
-129.87
-125.71
-114.48
-92.8
-59.74
-17.66
28.46
72.61
109.44
135.18
148.03
147.84
135.95
115
88.75
61.41
36.65
16.51
0.98
-11.48
-22.95
-34.8
-47.08
-58.54
-67.16
-70.93
-68.64
-60.59
-48.94
-37.13
-28.79
-25.93
-27.76
-30.82
-30.37
-22.65
-6.34
17.2
45.18
74.76
103.64
129.42
148.86
157.91
153.22
134.19
104.33
70.5
40.21
18.47
5.98
-0.25
-4.64
-10.28
-17.46
-23.85
-25.86
-20.24
-4.92
20.65
55.54
97.44
142.79
187.51
227.95
262.15
290.42
314.82
337.57
359.11
377.19
387.3
384.64
366.28
332.32
285.55
230.12
170.12
109.1
50.13
-3.99
-50.98
-89.79
-120.92
-146.16
-167.33
-185
-198.02
-204.48
-203.33
-195.79
-185.35
-176.28
-171.77
-172.8
-178.24
-186.01
-194.37
-202.58
-210.67
-218.81
-226.73
-233.31
-236.91
-235.94
-229.49
-217.91
-203.04
-187.91
-176.04
-170.11
-170.84
-176.45
-183.22
-187.01
-185.14
-177.41
-166.15
-155.09
-147.68
-145.64
-148.29
-152.88
-155.77
-153.74
-145.07
-129.95
-110.19
-88.21
-66.02
-44.45
-23.25
-1.69
20.48
42.43
62.38
78.46
89.65
96.27
99.77
101.85
103.49
104.49
103.66
99.67
92
81.64
71.04
63.3
61.14
65.79
76.46
90.65
104.94
116.1
122.01
122.13
117.47
110.02
101.96
95.07
90.4
88.26
88.56
90.97
94.99
99.78
104.17
106.84
106.97
104.7
101.25
98.47
97.86
99.68
102.73
104.95
104.42
100.18
92.41
81.95
69.82
57.11
45.19
36.04
32.09
35.39
46.5
63.97
84.62
104.63
120.7
130.77
133.87
129.65
117.87
98.59
72.46
41.14
7.01
-27.61
-61.38
-94.53
-128.96
-167.59
-213.24
-267.09
-327.38
-388.81
-443.26
-481.92
-498.23
-490.31
-461.66
-419.47
-371.69
-323.82
-277.53
-231.23
-182.04
-127.95
-69.01
-7.45
53.06
108.51
155.63
192.63
219.72
238.86
252.76
263.68
272.39
278
278.84
273.71
262.72
247.28
229.21
209.8
189.24
167.03
142.77
116.87
90.56
65.29
41.81
19.8
-1.82
-23.78
-45.44
-64.46
-77.73
-83.15
-81.22
-75.37
-70.49
-70.24
-74.84
-80.81
-82.96
-77.66
-65.05
-48.91
-34.2
-24.02
-17.96
-12.87
-5.57
4.69
15.41
22.57
23.24
17.62
8.99
1.65
-1.52
-0.56
1.81
1.8
-3.5
-14.82
-30.5
-47.19
-61.16
-69.56
-71.36
-67.54
-60.57
-53.21
-47.39
-43.58
-41.04
-38.74
-36.17
-33.64
-31.86
-31.21
-31.33
-31.31
-30.19
-27.21
-21.92
-13.87
-2.57
12.06
29.16
46.63
61.64
71.57
75.2
73.04
66.97
59.09
50.74
42.2
33.09
23.03
12.08
0.7
-10.82
-22.68
-35.57
-50.12
-66.34
-83.45
-100.16
-115.33
-128.53
-140
-150.2
-159.24
-166.41
-170.4
-169.83
-163.98
-153.46
-140.36
-128
-120.15
-119.85
-128.21
-143.61
-161.87
-177.4
-185.1
-181.96
-167.81
-144.84
-116.12
-84.13
-49.94
-13.32
26.68
71.02
120.19
173.73
229.68
284.18
331.71
366.28
383.36
381.73
364.2
336.69
305.75
276.05
248.89
222.63
194.6
163.27
129.52
96.13
66.37
42.28
23.9
9.65
-2.5
-13.68
-23.47
-30.46
-33.42
-32.44
-29.37
-27.09
-28.08
-33.07
-40.57
-47.56
-51.07
-49.86
-45.13
-39.85
-37.3
-39.27
-45.23
-52.94
-59.89
-64.91
-68.85
-74.01
-82.79
-96.15
-113.1
-131.02
-146.86
-158.21
-163.94
-164.1
-159.31
-150.02
-135.88
-115.73
-88.1
-52.06
-8.12
41.44
92.75
141.29
182.8
214.02
232.87
238.48
231.21
213.03
187.77
160.78
137.44
120.98
110.77
102.1
88.28
64.06
28.71
-13.1
-53.22
-83.86
-101.16
-106.69
-106.08
-105.98
-111.05
-122.65
-139.37
-158.36
-176.5
-190.59
-196.88
-190.94
-168.49
-127.28
-69.05
-0.25
68.99
127.73
167.47
184.63
181.17
163.26
138.62
113.87
92.83
76.45
64
54.62
48.26
45.5
46.52
50.31
54.65
57.12
56.54
53.77
51.3
51.54
54.97
59.14
59.65
52.38
36.01
13.18
-10.58
-29.39
-39.84
-42.41
-40.76
-39.78
-43.52
-54.53
-74.05
-102.57
-139.42
-181.68
-223.09
-254.39
-265.92
-251.5
-211.87
-155.51
-96.17
-48.27
-22.03
-20.61
-40.06
-71.63
-105.02
-131.33
-144.72
-142.88
-126.61
-98.82
-63.46
-24.41
15.05
52.25
84.71
109.38
122.35
119.44
97.73
57.18
1.65
-61.59
-123.51
-175.74
-212.45
-231.19
-232.51
-218.96
-194.11
-162.01
-126.75
-91.84
-59.46
-29.75
-0.81
30.29
65.92
106.23
148.45
187.61
218.14
235.75
238.62
227.81
206.89
181.31
157.48
141.63
138.37
149.41
173.07
204.98
239.91
273.7
304.43
332.02
356.63
377.24
391.11
394.75
385.6
363.25
329.32
286.42
237.1
183.92
130.05
79.82
38.16
8.81
-7.48
-13.47
-14.23
-14.77
-17.9
-23.6
-30.04
-35.33
-38.86
-41.34
-43.9
-47.12
-50.77
-54.28
-57.51
-61.07
-65.79
-72.08
-79.54
-87.25
-94.63
-102.21
-111.79
-125.78
-146.03
-172.76
-204.08
-236.26
-264.73
-285.38
-295.54
-294.66
-284.45
-268.64
-252.09
-239.68
-234.92
-238.88
-249.79
-263.45
-274.49
-277.89
-270.4
-251.47
-223.43
-190.84
-159.16
-133.09
-115.23
-105.51
-101.59
-100.18
-98.35
-94.32
-87.28
-76.69
-61.49
-40.26
-12.03
22.66
61.2
99.49
133.41
160.39
180.29
195.01
207.16
218.45
228.81
236.48
239.18
235.39
225.45
211.57
197.11
185.23
177.8
174.99
175.59
178.02
181.12
184.46
188.06
191.77
194.87
196.26
195.18
192.06
188.81
188.04
191.53
198.6
205.54
206.69
196.81
173.29
137.24
92.57
43.98
-4.94
-52.33
-97.18
-137.83
-171.23
-193.65
-202.5
-197.98
-183.4
-163.79
-143.85
-126.36
-111.96
-100.07
-90.11
-82.23
-76.94
-74.36
-73.69
-73.13
-70.63
-64.68
-54.93
-42.21
-28.1
-14.41
-2.65
6.16
11.55
13.57
12.63
9.46
4.95
0.02
-4.61
-8.47
-11.38
-13.37
-14.5
-14.82
-14.33
-13.08
-11.28
-9.34
-7.78
-7.01
-7.06
-7.53
-7.61
-6.42
-3.3
1.9
8.77
16.45
23.87
29.95
33.84
34.99
33.28
28.99
22.85
15.82
8.93
2.97
-1.69
-5.2
-8.05
-10.93
-14.55
-19.45
-25.95
-33.99
-43.19
-52.85
-62.17
-70.37
-76.79
-80.94
-82.39
-80.84
-76.24
-68.95
-59.84
-50.16
-41.26
-34.17
-29.37
-26.74
-25.59
-24.95
-23.8
-21.46
-17.81
-13.47
-9.47
-6.81
-5.84
-6.02
-6.29
-5.68
-3.94
-1.76
-0.25
-0.27
-1.81
-3.99
-5.51
-5.27
-2.84
1.64
7.62
14.5
21.61
28.31
33.8
37.31
38.15
35.95
30.65
22.48
11.91
-0.37
-13.35
-25.79
-36.33
-43.88
-48.08
-49.54
-49.81
-50.88
-54.4
-61.1
-70.4
-80.72
-90.04
-96.52
-99.05
-97.61
-93.38
-88.67
-86.46
-89.56
-99.37
-114.88
-132.43
-146.66
-152.47
-147.2
-131.96
-111.41
-91.8
-78.23
-72.51
-72.34
-72.26
-65.99
-49.25
-21.7
12.72
47.32
75.5
93.55
101.97
104.86
107.64
114.37
126.09
140.87
155.37
166.61
173.11
174.9
172.64
166.97
158.26
146.8
133.02
117.21
99.03
77.28
50.49
18.22
-17.59
-52.14
-78.85
-91.9
-88.65
-71.25
-46.29
-22.63
-8.15
-6.86
-17.29
-33.22
-46.24
-49.27
-39.23
-17.73
10.5
40.27
68.33
94.09
118.56
142.36
164.31
181.55
191.16
192.1
186.01
176.41
166.74
158.62
151.33
142.86
131.35
116.31
98.91
81.27
65.51
52.9
43.57
36.64
30.57
23.79
15.24
4.98
-5.69
-14.64
-20.14
-22.03
-22.27
-24.09
-30.14
-40.7
-52.99
-62.46
-65.13
-59.66
-47.92
-33.79
-21.03
-11.58
-5.18
-0.18
5.05
11.32
18.74
27.3
37.29
49.03
62.14
75.01
84.96
89.1
85.53
74.2
57.01
37.13
17.96
2.21
-8.61
-14.13
-14.85
-11.62
-5.45
2.72
12.02
21.68
31.03
39.41
46.12
50.41
51.53
48.99
42.68
33.18
21.71
9.93
-0.62
-8.95
-15.04
-19.62
-23.85
-28.78
-34.8
-41.62
-48.34
-53.91
-57.56
-59.24
-59.93
-61.69
-67.16
-78.64
-96.87
-120.17
-144.4
-164
-173.82
-170.85
-155.2
-129.82
-99.09
-67.28
-37.4
-11.1
10.73
27.25
37.35
40.18
35.91
26.48
15.36
6.64
3.51
7.18
16.49
28.53
39.83
47.55
50.15
47.66
41.31
33.11
25.25
19.6
17.3
18.51
22.44
27.58
32.16
34.62
33.93
29.69
22.17
12.27
1.38
-8.78
-16.7
-21.54
-23.46
-23.54
-23.28
-24
-26.27
-29.86
-34.11
-38.4
-42.55
-46.85
-51.81
-57.74
-64.51
-71.5
-77.88
-82.91
-86.04
-86.83
-84.87
-79.83
-71.7
-61.11
-49.4
-38.35
-29.53
-23.54
-19.73
-16.48
-12.04
-5.42
2.94
11.46
18.23
21.91
22.23
19.85
16.03
12.24
9.77
9.53
11.67
15.42
19.21
21.27
20.46
16.81
11.48
6.31
2.96
2.23
3.94
7.23
11.02
14.43
17.05
18.83
19.83
20.05
19.31
17.36
14.18
10.17
6.31
3.74
3.42
5.61
9.86
15.29
21.07
26.59
31.25
34.31
34.66
31.24
23.52
11.96
-1.99
-16.28
-28.95
-38.51
-44.15
-45.77
-43.81
-39.18
-32.96
-26.33
-20.3
-15.55
-12.41
-10.83
-10.53
-11.07
-11.99
-12.92
-13.6
-14.02
-14.31
-14.65
-15.15
-15.77
-16.36
-16.72
-16.79
-16.68
-16.65
-17.06
-18.21
-20.16
-22.66
-25.14
-26.8
-26.86
-24.84
-20.79
-15.26
-9.17
-3.46
1.16
4.29
5.8
5.74
4.27
1.7
-1.49
-4.67
-7.18
-8.65
-9.15
-9.24
-9.87
-11.91
-15.8
-21.11
-26.58
-30.39
-30.8
-26.85
-18.72
-7.75
4.07
14.76
22.96
28.2
30.84
31.69
31.6
31.2
30.8
30.5
30.23
29.82
29.06
27.7
25.54
22.51
18.74
14.49
10.19
6.3
3.3
1.53
1.22
2.29
4.36
6.8
8.83
9.71
8.92
6.34
2.3
-2.4
-6.6
-8.94
-8.26
-3.98
3.62
13.36
23.49
32.24
38.29
41.06
40.76
38.01
33.57
28.06
21.91
15.44
8.95
2.75
-2.95
-8.15
-12.98
-17.66
-22.25
-26.49
-29.88
-31.92
-32.39
-31.65
-30.49
-29.84
-30.29
-31.78
-33.58
-34.61
-33.96
-31.27
-26.81
-21.32
-15.63
-10.42
-6.02
-2.55
0.03
1.68
2.39
2.2
1.26
-0.09
-1.49
-2.65
-3.43
-3.91
-4.35
-5.09
-6.48
-8.81
-12.23
-16.69
-21.83
-27.07
-31.54
-34.27
-34.37
-31.2
-24.71
-15.48
-4.72
6.12
15.75
23.33
28.65
31.92
33.47
33.59
32.46
30.35
27.8
25.65
24.85
26.04
29.28
33.95
39.02
43.46
46.57
48.15
48.37
47.65
46.56
45.82
46.32
49.13
55.24
65.22
78.94
95.48
113.23
130.1
143.94
152.79
155.27
150.84
139.79
122.89
101.21
75.82
47.84
18.45
-11.2
-39.95
-66.87
-91.29
-112.68
-130.42
-143.69
-151.46
-152.87
-147.89
-137.81
-125.21
-113.44
-105.75
-104.23
-109.28
-119.77
-134.06
-150.98
-170.19
-191.55
-213.78
-233.33
-244.63
-241.86
-221.16
-182.2
-128.39
-65.55
-0.21
61.71
115.48
157.6
185.87
199.79
200.91
192.62
179.15
164.14
149.54
135.65
121.9
107.96
94.53
83.14
75.32
71.5
70.43
69.67
66.54
59.48
48.84
36.65
25.41
16.76
10.54
4.91
-2.7
-14.37
-30.81
-51.31
-74.23
-97.85
-120.93
-143.05
-164.37
-185.37
-206.36
-227.27
-247.68
-266.85
-283.93
-297.9
-307.44
-310.68
-305.13
-288.36
-259.12
-218.63
-171.13
-123.19
-81.79
-52.08
-35.81
-31.34
-34.79
-41.56
-47.57
-49.46
-44.45
-30.15
-5.04
30.52
73.57
118.75
159.71
191.27
211.23
220.94
224.49
226.74
231.18
238.55
246.81
252.34
251.81
243.85
229.6
211.98
194.19
178.33
164.91
153.39
143.24
134.88
129.64
128.87
132.69
139.39
145.89
149.05
147.14
140.5
131.24
122.01
114.8
110.2
107.61
105.88
104.06
101.77
99.22
97.13
96.7
99.64
107.91
123.12
145.61
173.7
203.56
229.98
247.94
254.22
248.43
232.97
211.82
188.9
166.54
145.04
123.16
99.34
73.03
45.22
17.92
-6.94
-28.71
-48.67
-69.56
-94.61
-126.34
-166.26
-214.56
-270.08
-329.8
-388.5
-438.95
-473.03
-484.32
-470.68
-435.71
-387.87
-337.36
-291.99
-254.12
-220.52
-185.27
-144.15
-97.53
-50.21
-8.41
24.04
47.76
66.76
85.36
105.02
123.13
134.84
136.32
127.47
112.15
95.86
82.27
70.87
57.16
35.37
2.01
-41.67
-90.01
-135.28
-171.01
-194.45
-206.73
-210.93
-209.43
-202.23
-187.03
-160.86
-122.06
-71.52
-12.56
49.91
110.5
164.47
208.71
242.42
267.26
286.32
302.34
315.87
324.45
323.49
308.51
277.59
232.63
178.71
121.99
67.46
17.7
-26.74
-65.91
-99.38
-125.99
-144.76
-155.79
-160.54
-161.14
-159.39
-156.1
-151.1
-144.05
-135.05
-124.81
-114.22
-103.9
-93.99
-84.71
-76.73
-71.11
-68.71
-69.31
-71.4
-72.76
-71.74
-68.32
-63.95
-60.59
-59.22
-59.06
-58.02
-54.03
-46.48
-36.69
-27.31
-20.85
-18.59
-20.17
-24.24
-29.23
-34.03
-38.01
-40.7
-41.63
-40.36
-36.68
-30.66
-22.51
-12.35
-0.43
12.77
26.35
39.19
50.55
60.62
70.62
82.01
95.45
110.03
123.34
132.4
134.73
128.96
114.59
91.58
60.21
21.64
-21.19
-63.25
-98.42
-121.54
-130.57
-127.42
-116.77
-103.66
-91.02
-78.93
-65.97
-51.38
-36.64
-25.11
-19.98
-21.95
-28.16
-33.39
-32.65
-23.42
-6.41
15.19
37.33
56.51
70.62
78.87
81.52
79.46
73.88
66.09
57.28
48.6
41.17
36.27
35.05
38.25
45.55
55.47
65.73
74.2
79.85
83.16
85.72
89.51
96.07
105.92
118.06
129.82
137.33
136.73
125.8
105.47
79.67
54.06
33.62
20.64
14.38
12.13
10.83
7.96
1.88
-8.49
-23.44
-42
-61.61
-78.63
-89.85
-93.95
-91.88
-85.86
-77.6
-67.35
-54.43
-39.03
-23.37
-11.31
-6.56
-10.18
-19.86
-30.82
-38.07
-38.66
-32.61
-22.45
-11.98
-4.75
-2.84
-6.45
-14.1
-23.37
-32.04
-39.18
-45.34
-52.04
-60.69
-71.53
-83.54
-94.9
-103.78
-108.9
-109.53
-105.42
-96.67
-83.92
-68.37
-51.72
-35.75
-21.78
-10.5
-1.88
4.54
9.29
12.89
15.68
17.9
19.56
20.8
22.08
24.28
28.69
36.31
47.15
59.72
71.38
79.17
80.93
75.96
65.08
50.19
33.64
17.93
5.46
-1.72
-2.21
4.3
16.61
32.02
46.94
57.9
62.74
61.23
54.99
46.72
39.02
33.48
30.32
28.84
28.18
28.05
28.95
31.58
36.19
42.18
48.21
52.76
54.82
54.02
50.53
44.77
37.29
28.94
21.05
15.24
12.99
14.9
20.19
26.76
31.93
33.52
30.69
24.09
15.32
6.03
-2.72
-10.72
-18.31
-25.79
-33.14
-40.08
-46.33
-51.97
-57.47
-63.43
-70.13
-77.25
-84
-89.58
-93.65
-96.57
-99.14
-102.21
-106.27
-111.36
-117.15
-123.04
-128.33
-132.14
-133.48
-131.43
-125.51
-115.96
-103.91
-91.12
-79.46
-70.29
-64.06
-60.23
-57.71
-55.29
-52.1
-47.85
-42.67
-36.96
-31.21
-25.81
-20.94
-16.53
-12.43
-8.61
-5.32
-3.11
-2.6
-4.08
-7.55
-12.81
-19.8
-28.44
-38.11
-46.91
-51.55
-48.33
-34.83
-11.55
17.77
47.48
72.25
89.15
98.28
101.84
102.37
101.51
99.67
96.77
93.06
89.31
86.33
84.2
81.96
78.03
71.09
60.92
48.86
37.29
28.57
23.88
22.46
21.78
18.5
9.97
-4.64
-23.81
-44.23
-61.87
-73.2
-76.11
-70.24
-56.75
-37.84
-16.25
5.32
24.42
39.05
47.89
50.5
47.41
39.95
29.89
19.19
9.61
2.74
-0.25
1.31
7.23
16.27
25.98
33.2
34.85
29.07
16.05
-1.9
-20.8
-35.95
-42.84
-38.37
-21.94
3.91
33.82
61.29
81
90.85
92.37
89.52
86.5
85.64
86.66
87.35
85.26
79.14
69.49
57.96
46.22
35.32
25.65
17.41
11.24
8.19
9.07
13.83
20.89
27.51
30.99
29.71
23.85
15.03
5.59
-2.42
-7.6
-9.19
-6.95
-1.23
6.71
14.76
20.59
22.68
21.17
17.74
14.8
14.28
16.96
22.47
30
38.8
48.42
58.57
68.67
77.75
84.58
88.05
87.48
83.01
75.5
66.32
56.79
47.79
39.4
31.14
22.49
13.3
4.03
-4.25
-10.24
-12.51
-9.81
-1.41
12.18
28.56
43.23
50.52
45.58
26.57
-4.02
-40.06
-74.47
-102.39
-123.54
-142.32
-165.69
-200.01
-248.12
-308.1
-373.87
-437.27
-490.36
-527.37
-545.76
-546.24
-532.14
-508.22
-479.2
-448.65
-418.51
-389.3
-360.89
-333.2
-306.31
-280.22
-254.29
-227.1
-196.78
-161.64
-120.69
-73.77
-21.32
35.82
96.17
157.35
215.89
267.84
309.78
340.02
359.07
369.29
373.67
374.69
373.73
371.23
367.33
362.27
356.34
349.56
341.4
331.07
318.18
303.36
288.29
275.13
265.66
260.53
259.22
260.51
263.2
266.45
269.63
271.77
271.35
266.62
256.55
241.64
223.93
206.09
189.94
175.52
161.28
145.41
127.26
107.97
89.71
74.11
61.17
49.42
37.44
25.64
16.83
15.09
23.36
41.44
65.54
89.83
108.92
120
123.43
121.68
117.63
113.08
108.35
102.84
95.87
87.38
78.02
68.78
60.52
53.58
47.57
41.55
34.19
24.16
10.65
-6.3
-25.71
-46.01
-65.52
-83.2
-99.04
-114.04
-129.92
-148.69
-172.14
-201.35
-236.15
-274.47
-312.25
-344.09
-364.72
-370.9
-362.88
-344.39
-321.41
-299.79
-283.09
-271.43
-261.82
-249.67
-230.81
-203.2
-167.96
-129.15
-92.52
-63.61
-45.87
-39.5
-41.79
-48.7
-56.79
-64.26
-70.64
-75.52
-77.49
-74.27
-64.08
-47.03
-25.77
-4.37
13.58
26.66
35.99
43.99
52.54
61.58
68.97
71.71
67.59
56.6
41.17
25.13
12.18
4.36
1.24
0.42
-1.01
-4.91
-11.11
-17.8
-22.83
-25.02
-24.9
-24.19
-24.55
-26.58
-29.45
-31.53
-31.43
-28.69
-23.95
-18.51
-13.59
-9.9
-7.46
-5.94
-5
-4.45
-4.25
-4.2
-3.83
-2.35
1.06
6.75
14.05
21.09
25.02
22.82
12.57
-5.46
-28.32
-50.99
-68.08
-75.87
-73.73
-64.27
-51.93
-40.81
-32.96
-27.95
-23.85
-18.65
-11.23
-1.47
10.31
23.81
38.67
53.85
67.22
75.7
76.1
66.4
46.97
21.23
-4.92
-24.84
-33.94
-32.1
-24.6
-20.33
-27.69
-50.2
-84.12
-119.91
-146.94
-158.83
-156.35
-146.02
-135.71
-129.99
-128.1
-125.38
-116.92
-100.6
-78.05
-53.11
-29.42
-8.78
9.06
25.12
39.93
52.94
63.11
69.98
74.62
79.55
87.81
101.41
120.18
141.57
161.44
175.7
181.94
180.27
172.99
163.22
153.23
143.26
131.56
115.78
94.86
70.35
46.32
27.8
18.58
19.61
28.69
41.65
54.36
64.1
70.08
72.84
73.43
72.8
71.72
70.82
70.46
70.38
69.43
65.84
58.04
45.54
29.36
11.72
-4.94
-18.9
-29.72
-38.06
-45.14
-52.09
-59.61
-67.78
-76.17
-83.92
-89.85
-92.64
-91.2
-85.1
-74.85
-61.93
-48.39
-36.29
-27.07
-21.36
-18.88
-18.81
-20.09
-21.74
-23.13
-24.02
-24.52
-24.92
-25.47
-26.28
-27.3
-28.4
-29.48
-30.59
-31.88
-33.55
-35.68
-38.04
-39.99
-40.52
-38.45
-32.88
-23.55
-11.11
2.97
16.84
28.75
37.57
42.95
45.24
45.09
43.1
39.38
33.59
25.2
14.01
0.63
-13.53
-26.63
-37.21
-44.77
-49.76
-53.09
-55.41
-56.78
-56.87
-55.56
-53.32
-51.15
-49.84
-49.33
-48.41
-45.2
-38.09
-26.55
-11.37
5.79
23.1
39.16
53.22
64.88
73.86
79.79
82.26
81.09
76.59
69.65
61.48
53.3
45.86
39.35
33.46
27.79
22.12
16.52
11.08
5.61
-0.44
-7.77
-16.71
-26.78
-36.62
-44.42
-48.63
-48.48
-44.2
-36.79
-27.57
-17.76
-8.37
-0.13
6.44
11.03
13.59
14.29
13.43
11.4
8.64
5.59
2.76
0.55
-0.8
-1.34
-1.41
-1.4
-1.62
-2.13
-2.85
-3.73
-5.03
-7.22
-10.79
-15.8
-21.57
-26.76
-29.71
-29.11
-24.57
-16.72
-7.03
2.74
11.16
17.4
21.31
23.14
23.29
22.11
19.89
16.93
13.56
10.1
6.83
3.87
1.26
-0.96
-2.71
-3.78
-3.93
-3.06
-1.34
0.73
2.39
2.86
1.64
-1.24
-5.2
-9.26
-12.34
-13.54
-12.46
-9.17
-4.19
1.69
7.6
12.77
16.6
18.76
19.24
18.26
16.31
13.93
11.61
9.69
8.27
7.28
6.58
6.02
5.49
4.93
4.31
3.58
2.69
1.49
-0.31
-3.11
-7.28
-12.9
-19.4
-25.5
-29.48
-29.68
-25.23
-16.38
-4.53
8.33
20.3
30.08
37.15
41.58
43.72
44
42.8
40.5
37.43
33.85
29.8
25.21
20.05
14.58
9.46
5.57
3.59
3.5
4.34
4.44
2.05
-3.84
-13.03
-24.12
-35.14
-44.41
-51.25
-56.14
-60.36
-65.25
-71.5
-78.9
-86.35
-92.46
-96.08
-96.88
-95.65
-94.08
-94.29
-98.1
-106.29
-118.27
-132.25
-145.88
-157.07
-164.47
-167.6
-166.44
-161.09
-151.65
-138.61
-123.53
-109.14
-98.95
-96.09
-101.89
-114.99
-131.61
-146.66
-155.19
-153.55
-139.72
-113.11
-74.52
-26.19
27.85
82.04
130.24
167.41
191.04
201.9
203.47
200.34
196.48
193.94
192.82
192.06
190.73
188.92
187.83
188.94
192.92
198.86
204.18
205.78
201.58
191.68
178.61
166.15
157.45
153.5
152.85
152.63
150.2
144.51
136.21
126.78
117.28
107.46
96.01
81.65
64.19
45.15
27.17
12.84
3.62
-0.63
-1.34
-0.51
-0.24
-2.45
-8.68
-19.82
-35.65
-54.91
-75.72
-96.14
-114.47
-129.07
-138.14
-139.89
-133.51
-120.22
-103.58
-88.33
-78.21
-73.85
-72.21
-68.07
-56.86
-36.95
-10.25
18.96
46.15
68.08
83.12
90.7
90.76
83.53
70.02
52.36
33.78
17.79
6.89
1.48
-0.64
-3.49
-11.23
-26.09
-46.93
-69.36
-87.43
-96.03
-93.09
-80.32
-62.47
-45.61
-35.27
-35.17
-46.58
-68.2
-96.45
-126.31
-152.39
-170.44
-178.49
-176.98
-168
-153.73
-135.47
-113.61
-88.54
-61.79
-36.36
-16.03
-4.02
-1.92
-9.44
-24.85
-45.94
-70.53
-96.64
-122.3
-145.48
-164.22
-176.93
-182.57
-180.61
-170.82
-153.17
-127.92
-95.75
-58.02
-16.69
25.64
66.07
101.82
130.75
151.73
164.81
170.98
171.44
166.99
157.75
143.54
124.78
103.27
82.34
65.95
57.16
56.75
62.82
71.62
79.25
83.23
83.29
80.88
77.91
75.55
73.73
71.49
67.84
62.38
55.5
47.98
40.55
33.59
27.32
22.04
18.34
16.96
18.39
22.56
28.76
35.84
42.68
48.57
53.41
57.71
62.23
67.75
74.69
82.91
91.83
100.53
108.12
113.95
117.89
120.32
122.01
123.8
126.08
128.67
130.67
130.85
128.17
122.21
113.27
102.26
90.37
78.7
68.16
59.41
52.91
48.75
46.62
45.7
44.82
42.85
39.14
33.73
27.37
21.12
16
12.66
11.32
11.74
13.28
14.98
15.69
14.37
10.48
4.22
-3.58
-11.75
-19.38
-26.18
-32.44
-38.57
-44.71
-50.45
-54.98
-57.66
-58.26
-57.14
-54.88
-51.88
-48.16
-43.35
-36.9
-28.35
-17.37
-3.79
12.32
30.4
49.19
66.75
80.88
89.87
93.29
92.28
89.22
86.8
86.92
90.02
94.85
98.93
99.29
93.23
78.98
56.12
25.8
-9.41
-46.02
-80.43
-109.94
-133.54
-152.03
-167.18
-180.29
-190.78
-195.82
-191.3
-174.03
-143.95
-104.99
-64.07
-28.52
-3.25
10.69
15.74
15.93
14.61
13.26
11.77
9.53
6.73
4.6
4.93
8.84
15.93
23.94
29.53
29.61
22.63
9.42
-7.21
-23.81
-38
-49.53
-59.87
-70.64
-81.81
-91.08
-94.82
-90.24
-77.34
-59.28
-41.05
-27.19
-19.86
-18.44
-20.56
-23.72
-26.52
-28.81
-30.99
-33.3
-35.34
-36.33
-35.62
-33.13
-29.39
-25.36
-22.06
-20.11
-19.59
-20.1
-20.97
-21.73
-22.25
-22.83
-23.88
-25.55
-27.42
-28.58
-27.93
-24.7
-18.83
-11.07
-2.64
5.09
11.11
14.93
16.64
16.66
15.6
13.96
12.09
10.14
8.16
6.14
4.14
2.24
0.53
-0.99
-2.43
-3.93
-5.6
-7.53
-9.78
-12.46
-15.76
-19.88
-24.78
-30.04
-34.77
-37.83
-38.21
-35.4
-29.68
-21.99
-13.67
-6.03
0.03
4.13
6.39
7.14
6.82
5.85
4.58
3.34
2.36
1.73
1.36
1.1
0.75
0.25
-0.31
-0.68
-0.67
-0.28
0.13
-0.1
-1.78
-5.42
-10.98
-17.64
-23.92
-28.12
-28.87
-25.61
-18.82
-9.8
-0.21
8.42
15.06
19.26
21.11
21
19.56
17.49
15.48
14.07
13.54
13.79
14.37
14.7
14.29
12.89
10.62
7.83
4.97
2.4
0.21
-1.83
-4.19
-7.39
-11.71
-16.91
-22.15
-26.17
-27.66
-25.78
-20.52
-12.66
-3.48
5.6
13.5
19.58
23.61
25.65
25.93
24.82
22.81
20.43
18.18
16.33
14.85
13.52
12.08
10.37
8.43
6.42
4.55
2.88
1.36
-0.21
-2.11
-4.62
-7.92
-11.97
-16.34
-20.25
-22.67
-22.62
-19.52
-13.49
-5.31
3.78
12.49
19.82
25.2
28.5
29.86
29.63
28.17
25.92
23.32
20.69
18.22
15.9
13.67
11.39
9.08
6.85
4.87
3.27
2.06
1.08
0.06
-1.31
-3.3
-6.03
-9.43
-13.17
-16.65
-19.16
-19.99
-18.77
-15.56
-10.92
-5.72
-0.91
2.81
5.13
6.13
6.11
5.39
4.07
2.05
-0.85
-4.66
-9.12
-13.63
-17.44
-19.9
-20.75
-20.16
-18.7
-17.06
-15.73
-14.89
-14.43
-14.16
-14.02
-14.29
-15.42
-17.86
-21.65
-26.27
-30.59
-33.35
-33.53
-30.91
-26.08
-20.28
-14.85
-10.8
-8.55
-7.97
-8.71
-10.42
-12.85
-15.77
-18.77
-21.12
-21.94
-20.47
-16.43
-10.11
-2.25
6.27
14.74
22.76
30.19
36.9
42.58
46.74
48.86
48.53
45.71
40.78
34.58
28.29
23.26
20.72
21.32
24.85
30.21
35.72
39.8
41.42
40.35
37.01
32.03
25.89
18.83
11.01
2.76
-5.27
-12.28
-17.6
-20.95
-22.52
-22.8
-22.35
-21.56
-20.5
-19.02
-16.78
-13.47
-9.05
-3.93
0.93
4.33
5.24
3.45
-0.18
-3.85
-5.5
-3.67
1.88
10.06
18.99
26.74
32.03
34.53
34.62
33.01
30.35
27.13
23.78
20.82
18.77
17.87
17.85
17.84
16.75
13.78
8.95
3.13
-2.33
-6.29
-8.37
-9.07
-9.5
-10.83
-13.75
-18.24
-23.56
-28.52
-31.8
-32.29
-29.4
-23.23
-14.62
-4.89
4.49
12.31
17.83
20.88
21.7
20.8
18.77
16.23
13.76
11.76
10.39
9.54
8.82
7.79
6.08
3.6
0.52
-2.76
-5.75
-8.06
-9.55
-10.41
-11.08
-12.11
-13.86
-16.27
-18.73
-20.23
-19.72
-16.62
-11.08
-4.05
3.07
8.98
12.85
14.51
14.35
12.98
10.95
8.63
6.22
3.81
1.53
-0.55
-2.41
-4.17
-5.92
-7.75
-9.6
-11.3
-12.8
-14.25
-16.13
-19.18
-24.09
-31.16
-40
-49.36
-57.41
-62.26
-62.65
-58.59
-51.42
-43.49
-37.23
-34.21
-34.57
-37.01
-39.57
-40.69
-40.08
-38.99
-39.6
-43.87
-52.4
-63.87
-75.29
-83.12
-84.51
-78.55
-66.47
-51.19
-36.12
-23.95
-15.77
-10.91
-7.22
-1.86
7.84
23.37
44.14
67.37
89.06
105.96
117.62
127.09
139.66
159.81
188.31
220.88
249.61
266.15
264.79
244.32
208.02
162.41
115.29
74.04
43.66
25.37
15.88
8.36
-4.52
-26.73
-56.51
-87.25
-111.37
-124.56
-127.63
-124.65
-118.9
-109.59
-91.99
-61.02
-15.6
39.26
94.14
139.54
169.94
185.32
189.8
188.47
184.92
180.66
175.69
169.65
162.22
152.94
141.07
126.07
108.14
88.25
67.72
46.6
23.34
-5.04
-41.38
-86.15
-135.79
-182.88
-218.7
-236.84
-237.06
-225.02
-209.76
-199.81
-199.66
-208.38
-220.78
-230.37
-231.71
-222.7
-202.84
-172.77
-134.45
-92.13
-52.5
-23.19
-10.72
-17.83
-44.16
-84.83
-132.04
-176.93
-211.59
-230.33
-230.12
-211.54
-169.97
-109.47
-40.85
22.45
70.94
102.29
119.31
130.85
145.38
168.98
202.93
245.78
292.16
334.46
363.38
369.86
349.05
303.32
243.99
187.61
151.29
145.44
169.26
210.73
252.15
278.4
282.64
267.79
242.23
214.88
190.88
170.79
152.32
133.11
112.87
92.81
74.08
56.04
36.33
11.9
-19.43
-58.01
-102.37
-149.62
-196.63
-241.16
-282.9
-323.87
-367.82
-418.19
-475.51
-535.39
-588.83
-625.09
-636.11
-619.91
-581.17
-528.42
-469.52
-408.6
-346.6
-284.64
-227.41
-183.47
-161.44
-164.66
-187.76
-217.92
-240.66
-246.37
-233.92
-209.44
-181.69
-156.68
-135.33
-114.71
-91.14
-63.36
-33.15
-3.76
22.66
46.65
71.71
103.09
145.51
200.74
265.52
331.22
385.75
417.73
420.82
396.55
353.61
304.07
258.56
222.91
197.81
180.83
169.04
160.33
153.22
146.01
136.4
122.46
103.86
82.47
61.44
43.56
30.25
21.85
18.79
22.68
36.03
60.93
97.43
142.82
192.15
239.4
278.74
305.38
316.3
311.2
293.15
268.14
243.24
224.07
212.85
208.39
207.98
209.62
213.13
219.15
227.05
233.61
233.9
224
203.8
177.57
151.73
131.23
116.78
104.74
89.69
67.8
38.91
6.24
-25.69
-53.78
-78
-101.33
-128.16
-162.56
-206.84
-260.9
-322.33
-386.2
-445.27
-490.97
-515.67
-515.67
-493.31
-456.59
-415.95
-379.47
-349.13
-320.57
-286.66
-242.78
-190.36
-136.56
-90.16
-56.57
-34.95
-18.78
0.12
26.53
58.91
89.84
109.7
111.64
94.67
63.33
26.36
-7.11
-31.36
-45.71
-53.65
-60.87
-72.26
-90.68
-117.46
-150.75
-184.63
-210.66
-219.88
-206.06
-169.03
-115.63
-59.08
-16.54
-0.36
-11.88
-41.74
-74.07
-93.34
-90.52
-64.13
-19.35
33.86
88.29
142.81
199.29
259.49
322.88
378.81
415.46
439.18
453.64
453.31
436.01
402.4
357.01
308.22
265.34
235.79
220.94
212.81
200.81
178.61
145.12
103.98
60.77
19.61
-17.5
-50.45
-81.77
-111.68
-136.68
-149.38
-144.75
-122.93
-89.81
-53.67
-21.37
1.7
12.63
14.89
12.31
6.9
-1.13
-12.96
-30
-50.87
-76.05
-104.98
-135.94
-167.99
-201.84
-239.32
-281.87
-328.35
-373.71
-411.57
-433.88
-434.15
-411.14
-369.81
-319.15
-268.75
-225.47
-183.54
-141.14
-99.05
-60.73
-30.68
-11.88
-4.05
-4.32
-8.64
-13.41
-18.07
-22.8
-28.27
-34.89
-42.52
-49.81
-55.25
-56.94
-53.74
-46.72
-37.45
-27.73
-19.19
-13.1
-9.37
-7.4
-6.06
-4.06
-0.85
4.23
11.84
22.91
34
43.89
52.33
60.1
68.58
79.07
92.53
109.08
127.83
146.92
164.89
180.51
193.41
204.46
215.63
229.86
250.08
277.57
310.38
343.13
367.22
373.44
355.31
311.79
248.15
174.55
102.94
43.62
3.12
-17.19
-20.55
-13.14
-2.05
6.87
10.48
9.01
5.44
4.09
8.44
19.58
36.1
54.74
71.77
84.11
89.97
89.03
82.18
71.19
58.34
46.01
36.12
29.6
26.26
24.94
23.99
21.93
17.81
11.53
3.68
-4.63
-12.16
-17.87
-21.23
-22.27
-21.67
-20.53
-20
-21.06
-24.11
-28.81
-34.05
-38.24
-39.97
-38.73
-35.41
-32.11
-31.28
-34.46
-41.44
-50.36
-58.71
-64.62
-67.63
-68.61
-68.86
-69.14
-69.38
-69.13
-68.35
-67.82
-68.86
-72.42
-78.34
-85.25
-91.23
-94.85
-95.82
-95
-93.74
-93.13
-93.6
-95.11
-97.63
-101.45
-107.12
-115.04
-124.93
-135.82
-146.15
-154.2
-158.57
-158.42
-153.8
-146.13
-138.71
-136.58
-145.11
-167.57
-202.65
-243.41
-278.85
-297.58
-291.96
-260.59
-208.04
-142.38
-71.98
-3.33
59.37
113.42
156.61
187.08
204.06
208.72
204.44
195.93
187.65
182.5
181.13
182.32
183.96
184.28
182.58
179.21
174.93
170.18
164.65
157.5
148.11
136.86
125.28
115.49
109.32
107.4
108.91
111.88
114.06
113.62
109.65
102.12
91.64
79.13
65.63
52.34
40.58
31.64
26.4
24.93
26.34
29.05
31.38
32.2
31.23
28.92
26.05
23.28
20.92
18.96
17.36
16.12
15.2
14.2
12.13
7.51
-1.04
-14.06
-30.6
-48.12
-63.2
-72.73
-75.19
-71.19
-63.33
-55.03
-49.17
-46.98
-47.8
-49.58
-49.8
-46.35
-38.09
-25.13
-8.85
8.34
23.47
34.01
38.85
38.85
36.64
35.41
37.41
43.01
50.77
58.45
64.48
68.85
73.03
78.88
87.5
98.53
110.19
120.07
126.1
127.38
124.54
119.56
115.02
113.05
114.28
117.29
118.92
115.19
102.55
79.03
44.89
2.75
-42.92
-86.58
-122.82
-147.64
-159.26
-158.3
-147.04
-128.32
-104.69
-78.33
-51.52
-26.96
-7.61
4.5
9.32
9.13
7.5
7.52
10.29
14.56
17.65
17.26
12.86
6.01
-0.66
-5.11
-7.19
-8.86
-13.14
-22.29
-36.12
-51.47
-63.53
-68.09
-63.93
-53.46
-41.72
-33.86
-32.97
-39.38
-51.4
-66.91
-84.13
-101.76
-118.65
-133.88
-147.34
-160.27
-174.96
-193.28
-214.97
-236.72
-253.04
-258.56
-250.62
-230.39
-202.29
-172
-144.3
-121.96
-105.77
-95.25
-89.37
-86.86
-85.95
-84.25
-78.8
-66.29
-43.62
-8.75
38.3
94.65
154.31
208.94
249.59
268.85
262.99
232.85
183.85
124.64
65.37
15.62
-17.37
-30.33
-24.66
-6.08
17.22
37.61
50.52
55.55
55.47
53.95
53.37
54.12
55.36
56.34
57.38
59.55
63.67
69.28
74.78
78.31
79.02
77.54
75.39
73.83
72.96
71.68
68.45
62.23
53.11
42.21
31.16
21.29
13.26
6.95
1.86
-2.58
-6.82
-11.14
-15.79
-21
-26.9
-33.3
-39.68
-45.24
-49.14
-50.81
-50.12
-47.38
-43.3
-38.75
-34.58
-31.53
-30.06
-30.37
-32.26
-35.22
-38.48
-41.19
-42.59
-42.15
-39.72
-35.44
-29.76
-23.31
-16.7
-10.32
-4.13
2.31
9.66
18.42
28.5
39.11
48.94
56.62
61.28
62.91
62.38
61.19
60.97
63.12
68.32
76.27
85.57
93.86
98.59
97.85
91.35
80.62
68.63
58.83
54.23
56.75
67.03
84.47
107.08
131.52
153.08
166.4
166.86
152.39
124.81
89.74
54.81
26.82
9.19
1.01
-1.77
-3.82
-7.87
-13.77
-19.26
-21.98
-21.11
-17.71
-13.6
-10
-6.94
-4.05
-1.8
-2.18
-7.88
-20.54
-39.17
-60.17
-78.82
-91.58
-97.58
-98.53
-97.1
-95.15
-92.8
-89.08
-83.32
-76.21
-69.85
-66.56
-67.51
-71.93
-77.47
-81.34
-81.61
-77.87
-71.24
-63.6
-56.86
-52.37
-50.77
-52.02
-55.67
-61.07
-67.52
-74.17
-79.85
-83.04
-81.99
-75.35
-63.08
-46.9
-30.27
-17.45
-11.87
-14.7
-24.12
-35.86
-44.84
-47.26
-42.08
-31.3
-18.85
-8.75
-3.44
-3.15
-6.29
-10.65
-14.47
-16.87
-17.58
-16.51
-13.42
-8.22
-1.49
5.35
10.41
12.13
10.16
5.54
0.23
-3.73
-5.15
-3.87
-0.59
3.68
8.14
12.17
15.23
16.63
15.62
11.88
5.85
-1.03
-6.69
-9.24
-7.75
-2.69
4.22
10.83
15.44
17.58
18.13
18.84
21.6
27.63
37.09
49.04
61.65
72.61
79.54
80.44
74.25
61.29
43.62
24.78
8.89
-0.76
-3.08
0.18
5.03
6.92
2.71
-7.93
-22.52
-37.15
-48.35
-54.61
-56.67
-56.56
-56.16
-55.99
-55.07
-51.78
-45.09
-35.5
-24.99
-16.15
-10.94
-9.78
-11.38
-13.39
-13.62
-11.08
-6.39
-1.47
1.54
1.35
-1.8
-6.23
-9.56
-9.87
-6.56
-0.64
5.69
10.07
10.91
8.14
3.04
-2.35
-6.24
-7.74
-7.05
-5.15
-3.09
-1.51
-0.34
0.85
2.52
4.8
7.4
9.78
11.38
11.79
10.69
7.87
3.3
-2.74
-9.4
-15.28
-18.79
-18.63
-14.46
-7.25
0.84
6.99
8.69
4.64
-4.6
-16.63
-28.05
-35.9
-39.29
-40.17
-42.96
-52.63
-72.21
-100.81
-133.23
-161.41
-177.2
-175.34
-155.43
-122.45
-85.56
-55.46
-41.21
-47.28
-71.81
-107.09
-142.04
-165.88
-171.43
-156.69
-124.31
-79.5
-27.97
25.24
75.75
119.39
152.27
171.6
177.02
171.25
159.65
148.54
143.07
145.5
154.73
167.12
178.25
184.86
186.02
183.31
179.72
178.01
179.25
182.33
184.58
183.06
176
163.54
147.61
131
116.29
104.97
97.12
91.62
86.75
80.82
72.86
62.91
52.04
42.03
34.9
32.44
35.74
44.74
57.66
70.9
79.55
78.81
65.82
41.22
9.31
-23.31
-50.24
-67.72
-75.71
-77.26
-76.56
-76.88
-79.42
-83.52
-87.78
-91.06
-92.96
-93.55
-92.86
-90.59
-86.26
-79.74
-71.63
-63.28
-56.37
-52.26
-51.43
-53.34
-56.63
-59.61
-60.77
-59.12
-54.47
-47.37
-38.95
-30.44
-22.83
-16.45
-11.09
-6.37
-2.24
0.72
1.49
-0.78
-6.22
-13.92
-22.27
-29.68
-35.35
-39.53
-43.3
-47.94
-54.29
-62.48
-72.06
-82.21
-92.04
-100.6
-106.97
-110.39
-110.49
-107.43
-101.73
-94.04
-84.85
-74.39
-62.92
-51.06
-39.84
-30.49
-23.96
-20.53
-19.68
-20.36
-21.32
-21.3
-19.13
-13.78
-4.6
8.29
23.76
39.89
54.67
66.84
76.36
84.18
91.54
99.07
106.43
112.59
116.44
117.39
115.52
111.35
105.54
98.68
91.44
84.83
80.14
78.58
80.7
85.92
92.55
98.3
101.14
99.9
94.73
86.83
78.03
70.1
64.22
60.75
59.29
59.07
59.32
59.48
59.05
57.31
53.08
44.8
31.17
11.74
-12.69
-40.54
-70.44
-102
-135.76
-172.21
-210.62
-248.46
-281.97
-307.47
-322.68
-327
-320.98
-305.58
-281.79
-251
-215.45
-178.18
-142.19
-109.19
-79.04
-50.21
-21.15
8.46
37.42
63.76
86.01
103.92
118.41
130.8
142.07
152.45
161.63
169.26
175.22
179.74
183.2
185.98
188.34
190.28
191.37
190.67
186.86
178.65
165.46
147.8
127.4
106.68
88.17
73.82
64.78
61.49
63.87
71.59
84.08
100.54
119.75
140.22
160.41
179.68
198.28
217.37
238.17
260.9
283.82
303.33
315.02
315.43
304
283.2
257.79
232.98
212.51
197.65
187.29
178.93
169.6
157.51
141.67
121.96
98.97
73.63
46.96
19.82
-7.3
-35.18
-63.52
-92.9
-123.42
-154.21
-183.11
-206.94
-222.58
-228.4
-227.22
-222.03
-219.42
-225.44
-242.61
-268.61
-296.9
-319.74
-331.78
-334.57
-329.09
-321.25
-316.44
-317.6
-324.55
-334.2
-341.16
-338.73
-323.7
-289.02
-235.88
-171.23
-106.26
-52.69
-18.73
-6.61
6.87
3.23
-8.48
-25.27
-46.19
-70.56
-97
-123.6
-148.65
-171.5
-195.85
-219.97
-245.8
-274.8
-307.17
-340.82
-371.21
-392.03
-397.28
-386.02
-356.56
-313.85
-264.85
-215.85
-170.36
-128.96
-90.32
-52.83
-16.94
19.84
59.18
103.68
155.47
214.38
275.81
330.45
365.94
370.24
338.65
274.66
190.83
105.13
34.83
-9.15
-24.93
-18.47
0.77
25.41
52.15
81.4
114.27
149.88
184.52
213.66
234.46
247.54
256.27
264.29
273.08
281.46
287.27
289.65
290.56
293.74
302.15
315.6
330.18
339.69
338.49
323.64
295.9
259.17
219.04
181.27
150.37
128.79
116.16
109.28
102.69
90.45
68.03
33.33
-13.05
-66.99
-121.12
-166.27
-194.12
-202
-194.81
-184.25
-184.26
-205.5
-248.34
-301.72
-347.9
-369.98
-360.66
-323.42
-269.7
-213.62
-168.44
-140.61
-128.99
-127.29
-126.89
-124.04
-120.39
-122.55
-139.42
-179.52
-243.33
-321.22
-396.9
-453.09
-482.22
-485.83
-472.3
-434.94
-373
-290.81
-197.09
-112.23
-37.77
26.16
79.46
123.78
160.24
189.41
214.47
240.1
270.4
309.08
354.95
407.22
464.42
523.4
577.24
618.33
640.61
641.2
622.64
576.58
503.83
413.53
319.23
231.58
156.34
95.61
49.99
20.34
4.77
0.8
3.63
6.74
4.62
-4.48
-18.28
-32.25
-41.64
-44.65
-41.34
-35.07
-31.45
-36.81
-55.73
-85.69
-120.92
-152.03
-168.12
-158.43
-116.66
-43.83
51.14
153.64
247.55
319.4
362.24
376.33
367.76
344.65
314.07
280.67
247.21
215.7
187.95
165.64
149.66
139.15
131.26
122.3
109.21
90.77
67.62
41.95
17.34
-2.21
-13.4
-14.85
-7.85
3.69
14.63
20.11
17.65
7.95
-6.02
-21.04
-35.36
-49.1
-63.52
-79.48
-97.35
-116.3
-134.89
-151.99
-167.49
-182.06
-196.45
-211.27
-226.2
-242.67
-261.65
-283.16
-306.4
-330.97
-357.95
-389.79
-428.81
-474.56
-526.78
-580.19
-625.15
-650.84
-649.98
-621.47
-569.58
-501.16
-422.56
-346.73
-285.26
-246.45
-233.54
-245.27
-276.38
-318.41
-361.86
-397.96
-431.27
-468.45
-513.5
-564.37
-615.28
-659.59
-692.54
-712.7
-670.38
-541.26
-332.59
-84.26
155.35
353.29
499.49
599.29
657.11
688.46
693.71
670.71
620.02
547.78
461.23
366.88
273.43
188.23
119.03
64.88
24.17
-4.89
-12.31
3.4
35.06
71.42
103.58
128.75
141.82
143.57
136.02
123.31
109.45
99.35
97.27
105.6
124.43
150.34
177.9
200.99
215.8
220.9
219.36
217.47
221.78
235.82
260.25
291.86
324.88
354.26
376.18
389.38
394.11
391
364.74
307.77
223.02
123.13
24.76
-59.95
-125.28
-171.21
-198.62
-213.23
-217.36
-212.05
-198.78
-179.05
-155.13
-129.1
-105.26
-86.76
-76.1
-72.79
-75.19
-87.46
-111.61
-146.97
-189.92
-235.19
-277.84
-312.12
-336.78
-351.47
-356.49
-351.79
-337.6
-316.35
-290.26
-261.24
-231.1
-200.89
-170.87
-141.4
-112.51
-84.57
-58.18
-33.72
-11.27
9.26
28.14
46.02
63.15
79.71
95.26
108.94
119.89
127.39
130.98
130.35
125.76
117.67
106.84
94.05
80.1
65.95
52.61
41.02
31.9
25.8
23.01
23.69
27.84
35.36
46.18
60.1
76.88
96.42
119.08
145.59
176.59
211.83
249.53
286.35
318
340.57
351.67
351.01
340.08
321.43
297.98
272.75
248.93
229.79
218.19
215.58
221.25
232.19
243.97
252.29
254.4
249.76
239.67
226.42
212.07
197.82
184
170.51
157.3
144.68
133.39
124.22
117.82
114.39
113.79
115.52
118.8
122.58
125.62
126.75
125.15
120.81
114.45
107.21
100.11
93.67
87.84
82.4
77.54
74.08
73.26
76.11
82.89
92.84
104.49
116.1
125.87
132.05
132.99
127.19
113.83
93.21
66.9
37.28
6.69
-23.54
-53.6
-84.71
-117.93
-152.65
-186
-213.48
-230.62
-234.85
-226.61
-209.1
-186.93
-164.32
-144
-127.08
-113.68
-103.47
-95.76
-89.03
-80.8
-68.24
-49.62
-25.91
-1.19
18.41
27.31
23.18
8.28
-11.35
-28.68
-38.65
-39.78
-33.75
-23.56
-11.8
-0.17
9.76
15.79
15.79
9.69
1.46
-1.08
10.68
41.53
88.89
142.94
190.58
221.22
230.92
222.92
204.64
183.44
163.56
145.75
128.87
112.03
95.65
80.98
68.84
58.79
49.24
38.13
24.1
7.05
-12.01
