-23.57
-17.97
-10.59
-2.11
6.74
15.51
24.31
33.86
45.25
59.21
75.48
92.48
108.01
120.24
128.88
135.42
142.39
152.01
165.03
180.4
196
209.67
220.1
226.98
230.62
231.43
229.63
225.16
217.94
208.06
195.72
181.18
164.63
146.21
125.96
103.91
79.84
53.28
23.48
-10.38
-49.16
-93.76
-145.04
-203.28
-266.99
-332.07
-391.76
-438.1
-464.57
-468.58
-452.5
-422.56
-386.26
-349.61
-315.66
-285.02
-257.41
-233.11
-213.1
-198.21
-187.91
-180.04
-171.88
-161.93
-151.19
-142.98
-141.45
-149.21
-165.79
-187.46
-208.44
-222.99
-227.19
-219.7
-201.63
-175.72
-145.33
-113.66
-83.15
-54.91
-28.61
-2.66
24.85
54.95
86.84
117.63
143.04
158.55
160.79
148.71
124.35
92.77
61.33
38.04
29.58
39.44
67.03
108.06
156.09
204.55
248.36
284.58
312.25
331.58
343.24
347.96
346.28
338.56
325.09
306.1
281.91
253
220.01
183.89
145.97
108.1
72.49
41.49
17.02
-0.16
-10.82
-17.14
-21.96
-27.7
-35.62
-45.62
-56.77
-68.21
-79.75
-91.9
-105.19
-119.34
-132.71
-142.77
-147.05
-144.36
-135.46
-122.8
-109.59
-98.72
-92.09
-90.59
-94.42
-103.58
-117.98
-137.15
-159.59
-182.32
-201.08
-210.98
-207.8
-189.29
-155.84
-110.39
-57.32
-1.12
54.53
106.66
152.31
187.9
209.76
215.54
205.71
184.01
156.32
128.34
103.79
83.66
66.96
52.13
38.35
25.76
15.29
8.06
5.02
6.82
13.67
25.11
39.95
56.57
73.49
89.72
104.7
117.52
126.4
128.6
121.33
103
74.14
37.52
-2.69
-42
-76.79
-104.88
-126
-141.54
-153.86
-165.28
-176.97
-188.3
-197.03
-200.36
-196.25
-184.29
-165.77
-142.98
-118.23
-93.3
-69.31
-46.87
-26.21
-7.11
11.09
29.32
48.18
67.27
84.95
98.73
106.26
106.47
100.16
89.77
78.34
68.48
61.71
58.38
57.78
58.29
57.45
52.14
39.44
18.02
-10.32
-40.34
-64.79
-77.44
-76.03
-63.28
-45.63
-29.98
-21.03
-20.37
-27.81
-43.55
-69.12
-106.21
-154.16
-207.92
-258.17
-294.04
-307.16
-294.77
-260.42
-211.84
-157.53
-103.66
-52.78
-4.41
43.3
91.95
141.99
192.68
242.09
287.04
323.17
345.82
351.57
339.88
313.92
279.95
245.06
214.69
191.11
173.65
160.39
149.85
141.6
135.49
130.26
122.82
109.08
85.87
53.22
15.61
-19
-41.71
-46.17
-31.25
-1.54
34.81
69.87
99.29
123.43
145.48
168.26
191.24
209.94
218.03
210.6
186.48
148.42
101.57
51.63
4.16
-35.31
-61.35
-69.9
-60.49
-37.94
-11.89
6.31
8.18
-8.62
-40.01
-78.38
-116.43
-150.04
-178.33
-201.45
-218.09
-224.43
-215.65
-189.02
-146.41
-94.79
-44.34
-4.82
17.79
22.21
10.89
-12.34
-44.05
-81.84
-123.68
-167.11
-209.05
-246.45
-277.55
-302.3
-321.72
-336.52
-346.13
-349.11
-344.45
-332.96
-317.45
-302.22
-291.55
-287.95
-291.31
-299.39
-309.29
-318.87
-327.13
-332.64
-333.77
-328.43
-314.49
-290.48
-256.6
-215.35
-171.05
-128.19
-87.6
-48.05
-7.43
35.84
82.41
132.04
183.73
236.16
288.19
342.07
399.05
457.48
512.8
559.82
595.24
618.44
631.04
635.86
639.76
647.45
659.01
670.19
675.35
670.5
654.25
627.47
566.15
461.54
324.76
182.08
58.22
-35.46
-99.97
-142.21
-170.15
-190.12
-204.23
-213.19
-218.87
-224.22
-231.08
-238.77
-245.14
-248.95
-247.04
-236.49
-217.22
-192.47
-167.37
-146.41
-131.77
-123.47
-120.86
-122.38
-124.17
-122.57
-116.01
-105.57
-93.7
-82.92
-75.16
-72.54
-76.22
-85.4
-98.56
-114.24
-130.85
-146.08
-157.3
-162.93
-164.67
-165.62
-167.95
-171.6
-174.09
-171.5
-160.25
-139.17
-104.47
-60.9
-19.08
11.42
27.94
34.37
36.58
38.39
40.63
42.44
42.47
40.9
40.57
44.84
55.75
73.12
95.14
119.72
145.92
174.05
203.48
235.56
271.13
309.18
346.72
379.8
404.6
418.07
417.66
402.34
373.57
334.82
291.01
247.39
208.19
175.54
149.11
126.66
105.92
86.33
68.84
54.91
45.22
38.89
33.72
27.01
16.55
1.5
-17.27
-38.26
-60.25
-83.05
-107.61
-135.62
-169.03
-209.66
-259.04
-317.76
-384.71
-455.95
-524.37
-580.71
-616.1
-624.99
-607.19
-567.78
-514.94
-456.84
-399.21
-344.49
-292.67
-242.86
-194.32
-146.74
-99.87
-53.39
-7.29
37.63
79.57
116.4
146.84
171.38
192.71
214.64
240.28
270.36
302.23
330.7
349.95
355.43
345.15
320.13
284.18
243.24
204.23
173.39
154.35
146.58
145.2
142.34
130.01
103.1
61.46
9.96
-43.39
-90.33
-124.89
-144.75
-151.03
-147.2
-137.67
-126.51
-116.52
-109.01
-103.83
-100.05
-96.37
-91.46
-84.33
-74.63
-62.88
-50.43
-38.99
-29.72
-22.59
-16.27
-8.75
1.44
14.3
28.04
39.7
46.4
46.64
41.02
32.05
23.54
19.15
21.09
29.09
39.91
47.85
46.01
28.43
-7.33
-58.38
-116.29
-169.05
-204.92
-216.6
-203.85
-173.31
-135.51
-100.67
-75.15
-60.28
-53.63
-51.72
-52.31
-55.12
-60.94
-69.76
-79.75
-87.44
-89.33
-83.72
-71.74
-57.16
-44.4
-36.27
-32.25
-28.57
-20.06
-3.04
22.4
52.03
79.33
98.62
107.74
108.82
106.82
106.7
110.87
118.21
125.04
127.39
123.1
112.81
99.4
86.35
76.11
69.18
64.36
59.73
53.92
46.74
39.01
31.79
25.52
19.68
13.08
4.8
-5.16
-15.57
-24.47
-30.04
-31.4
-28.92
-23.98
-18.25
-13.08
-9.18
-6.74
-5.86
-6.68
-9.48
-14.34
-20.85
-27.98
-34.14
-37.56
-36.79
-31.15
-20.97
-7.43
7.73
22.71
36
46.63
54.07
58.12
58.81
56.46
51.89
46.46
41.93
39.97
41.61
46.94
55.1
64.56
73.51
80.22
83.44
82.72
78.66
72.8
67.13
63.37
62.14
62.72
63.31
61.91
57.27
49.41
39.49
29.19
19.88
12.15
5.63
-0.52
-7.14
-14.5
-22.11
-28.95
-34.04
-37.02
-38.42
-39.39
-41.04
-43.66
-46.43
-47.71
-45.92
-40.36
-31.65
-21.45
-11.71
-3.92
1.29
3.88
4.05
1.86
-2.74
-9.57
-17.99
-26.9
-34.96
-41.14
-44.98
-46.69
-46.87
-46.21
-45.24
-44.24
-43.27
-42.21
-40.72
-38.38
-34.81
-29.93
-24.19
-18.49
-13.91
-11.24
-10.64
-11.58
-13.03
-13.84
-13.27
-11.15
-8.08
-5.12
-3.39
-3.6
-5.65
-8.6
-11.06
-11.79
-10.41
-7.5
-4.34
-2.2
-1.72
-2.6
-3.88
-4.51
-3.91
-2.19
-0.06
1.59
2.11
1.36
-0.25
-1.99
-3.1
-3.06
-1.85
0.15
2.35
4.25
5.65
6.7
7.7
8.81
9.93
10.7
10.79
10.1
8.92
7.8
7.25
7.49
8.3
9.11
9.24
8.22
5.99
2.9
-0.42
-3.35
-5.49
-6.83
-7.73
-8.62
-9.75
-11
-11.92
-11.92
-10.6
-7.98
-4.43
-0.52
3.25
6.56
9.24
11.21
12.34
12.48
11.6
9.84
7.62
5.47
3.88
3.1
3.07
3.45
3.8
3.73
3.08
1.93
0.5
-0.91
-2.09
-2.94
-3.52
-4.01
-4.72
-5.94
-7.8
-10.14
-12.43
-13.93
-13.89
-11.94
-8.24
-3.46
1.5
5.83
9.03
10.96
11.69
11.43
10.39
8.83
7.1
5.55
4.5
4.08
4.2
4.58
4.84
4.71
4.08
3.07
1.91
0.88
0.1
-0.47
-1.07
-1.97
-3.32
-5.15
-7.32
-9.62
-11.82
-13.68
-14.95
-15.38
-14.83
-13.34
-11.28
-9.16
-7.49
-6.6
-6.54
-7.22
-8.54
-10.5
-13.13
-16.31
-19.6
-22.17
-23.14
-21.86
-18.28
-13
-7.16
-2.04
1.32
2.37
1.17
-1.65
-5.17
-8.45
-10.84
-12.11
-12.45
-12.28
-11.94
-11.44
-10.35
-7.9
-3.37
3.48
12.29
22.12
31.84
40.45
47.42
52.69
56.49
59.06
60.46
60.59
59.31
56.61
52.82
48.79
45.81
45.38
48.69
56.13
66.9
78.94
89.27
94.66
92.54
81.74
62.89
38.16
10.62
-16.67
-41.44
-62.45
-79.29
-91.82
-99.83
-102.97
-101.08
-94.58
-84.57
-72.51
-59.62
-46.5
-33.17
-19.52
-5.73
7.66
19.99
30.74
39.58
46.08
49.33
47.89
40.4
26.36
6.65
-16.55
-40.53
-62.89
-82.03
-97.01
-107.11
-111.49
-109.52
-101.49
-89.26
-76.28
-66.59
-63.43
-67.91
-78.61
-92.25
-105.07
-114.17
-118.19
-117.08
-111.23
-100.65
-84.62
-62.08
-32.31
4.5
47.02
92.92
139.03
181.64
216.9
241.47
253.42
252.86
241.94
224.11
202.87
180.76
159.03
138.08
118.22
100.3
85.64
75.68
71.11
71.25
73.61
74.17
68.33
52.51
25.84
-9.06
-46.64
-80.3
-104.82
-118.04
-121.19
-117.6
-110.87
-103.42
-95.97
-88.16
-79.54
-70.28
-61.25
-53.53
-47.68
-43.28
-39.02
-33.41
-25.56
-15.86
-5.98
1.84
5.86
5.77
2.89
-0.44
-1.93
-0.26
4.44
10.81
17.02
21.41
23.11
22.25
19.82
17.31
16.19
17.38
20.92
26.01
31.35
35.68
38.28
39.13
38.79
37.89
36.84
35.63
33.95
31.58
28.63
25.54
22.81
20.69
18.95
17.02
14.25
10.36
5.53
0.29
-4.77
-9.35
-13.53
-17.65
-22.01
-26.59
-30.98
-34.42
-36.12
-35.45
-32.3
-27.05
-20.56
-13.94
-8.22
-4.14
-1.96
-1.51
-2.38
-4.03
-5.96
-7.75
-9
-9.48
-9.13
-8.12
-6.78
-5.47
-4.43
-3.72
-3.24
-2.91
-2.75
-2.95
-3.71
-5.18
-7.32
-9.92
-12.69
-15.31
-17.53
-19.13
-19.94
-19.87
-18.9
-17.18
-15.02
-12.8
-11.01
-10.11
-10.57
-12.78
-16.92
-22.73
-29.21
-34.66
-36.95
-34.18
-25.52
-11.69
5.17
22.14
36.63
47.14
53.53
56.57
57.28
56.27
53.65
49.24
43.07
35.64
27.93
20.97
15.49
11.59
8.71
5.93
2.43
-2.15
-7.5
-12.71
-16.73
-18.82
-18.97
-18
-17.27
-18.08
-21.12
-26.03
-31.54
-35.95
-37.89
-36.96
-33.92
-30.34
-27.96
-27.97
-30.76
-35.93
-42.53
-49.04
-53.31
-52.76
-45.2
-30.08
-9.54
11.83
28.6
37.12
37.67
34.91
35.91
46.81
69.65
101.24
134.43
161.15
175.53
175.62
163.25
142.56
118.16
93.88
72.37
55.32
43.68
37.56
35.78
35.62
33.41
25.98
12.44
-4.86
-20.88
-30.04
-29.02
-18.62
-3.65
9.42
15.67
14.01
7.09
-0.86
-6.82
-10.67
-14.7
-21.79
-33.43
-49.08
-66.88
-84.97
-102.17
-117.58
-129.79
-136.62
-136.11
-128.21
-115.78
-103.99
-97.77
-99.04
-105.49
-111.72
-112.4
-105.37
-92.9
-80.17
-72.04
-70.15
-71.94
-72.22
-66.21
-52.2
-32.41
-11.6
5.47
16.41
22.08
25.66
30.8
39.78
52.61
67.43
81.67
93.19
101.01
105.13
105.94
103.86
99.17
92.28
84.05
75.72
68.56
63.42
60.67
60.45
63.04
68.76
77.7
88.97
100.4
108.74
110.5
102.83
84.08
54.25
15.44
-27.86
-68.89
-100.09
-115.49
-113.18
-96.42
-72.32
-48.83
-31.5
-21.88
-18.22
-17.78
-18.81
-21.09
-24.93
-29.89
-34.39
-36.77
-36.66
-35.62
-36.28
-40.69
-49.23
-60.35
-71.64
-80.96
-87.08
-89.5
-88.08
-82.88
-74.48
-64.31
-54.46
-46.91
-42.58
-40.82
-39.87
-37.91
-34.2
-29.49
-25.69
-24.82
-28.02
-35.02
-44.25
-53.33
-59.7
-60.94
-55.22
-41.78
-21.58
2.27
24.97
41.56
49.05
48.06
42.61
38.08
38.07
42.29
46.95
47.25
40.56
28
13.55
1.59
-5.33
-7.06
-4.72
0.85
9.69
22.4
39.38
60.64
86.36
117.43
154.73
197.34
240.81
276.9
295.76
289.59
256.4
201.75
137.47
77.65
33.94
11.96
10.38
22.83
41.16
58.24
69.19
70.95
61.68
40.99
11.02
-22.91
-53.27
-73.24
-79.88
-75.53
-66.17
-57.79
-53.14
-51.13
-48.98
-45.07
-40.5
-38.13
-40.21
-46.43
-53.76
-57.95
-55.66
-45.9
-30.51
-13.8
-1.58
0.43
-11.43
-36.87
-70.82
-104.51
-128.22
-134.66
-121.5
-91.91
-53.31
-15.25
12.77
22.95
10.91
-22.55
-70.56
-121.18
-160.92
-179.9
-176.26
-157.17
-135.56
-124.05
-129.02
-147.82
-170.55
-185.12
-182.84
-161.92
-127.53
-88.83
-54.75
-30.58
-16.86
-10.59
-7.75
-5.68
-3.75
-2.23
-0.47
4.1
15.09
34.72
61.54
90.28
114.33
129.92
138.91
148.04
164.91
192.66
226.6
255.17
264.8
245.78
196.82
125.67
46.46
-24.91
-74.94
-95.31
-83.98
-45.26
10.87
70.48
118.51
142.69
137.05
103.6
51.16
-7.94
-62.01
-102.83
-126.63
-133.44
-125.85
-108.17
-85.85
-64.7
-49.44
-42.31
-42.27
-45.79
-48.8
-48.67
-45.01
-39.19
-32.97
-27.31
-22.39
-18.19
-15.03
-13.44
-13.28
-13.08
-10.18
-1.97
12.46
31.21
50.01
63.86
69.18
65.36
54.77
41.42
29.1
19.97
14.26
11.04
9.37
9.04
10.47
14.1
19.69
26.14
31.84
35.38
36.17
34.64
31.92
29.29
27.65
27.16
27.35
27.38
26.41
24
20.16
15.32
10.07
5.02
0.63
-2.75
-4.9
-5.77
-5.55
-4.79
-4.28
-4.79
-6.62
-9.37
-11.98
-13.16
-11.94
-8.19
-2.74
2.93
7.29
9.36
9.01
6.87
3.97
1.2
-0.97
-2.55
-3.84
-5.09
-6.33
-7.3
-7.7
-7.35
-6.33
-4.93
-3.47
-2.13
-0.94
0.21
1.36
2.52
3.57
4.34
4.65
4.44
3.82
3.06
2.58
2.76
3.75
5.29
6.84
7.76
7.76
7.08
6.36
6.21
6.72
7.35
7.16
5.42
2.04
-2.26
-6.42
-9.5
-11.08
-11.19
-10.08
-7.93
-4.76
-0.63
4.07
8.62
12.13
13.93
13.85
12.34
10.27
8.58
7.96
8.65
10.4
12.65
14.8
16.43
17.51
18.29
19.2
20.53
22.26
24.05
25.39
25.89
25.47
24.47
23.4
22.72
22.54
22.66
22.74
22.64
22.52
22.78
23.76
25.34
26.85
27.26
25.72
21.89
16.21
9.57
2.9
-3.22
-8.77
-14.06
-19.49
-25.27
-31.4
-37.82
-44.34
-50.63
-55.98
-59.34
-59.57
-56
-48.73
-38.67
-27.07
-14.97
-2.91
8.99
20.55
31.19
40.07
46.38
49.92
51.19
51.13
50.68
50.43
50.57
51.15
52.18
53.53
54.75
55.05
53.71
50.7
47.18
45.22
46.98
53.6
64.42
77.02
87.96
93.61
90.86
77.57
53.17
19.37
-19.33
-56.15
-83.79
-96.99
-94.61
-80.1
-59.92
-40.83
-27.46
-21.29
-21.27
-25.23
-31.25
-38.11
-45.13
-51.88
-58
-63.25
-67.64
-71.45
-75.19
-79.69
-86.07
-95.45
-108.28
-123.82
-140.1
-154.63
-165.57
-172.45
-176.05
-177.41
-176.8
-173.35
-165.57
-152.33
-133.52
-110.01
-82.89
-52.73
-19.43
17.29
56.92
97.61
136.1
168.51
191.41
202.89
203.15
194.4
180.1
163.67
147.33
131.48
115.18
97.41
78.35
59.99
45.52
37.93
38.36
45.31
54.91
62.4
64.19
59.32
49.89
39.95
33.36
31.73
33.59
35.24
33.03
25.65
15.02
5.29
0.41
1.92
8.28
15.88
20.97
20.99
14.74
1.68
-18.56
-45.64
-77.23
-108.39
-132.34
-143.01
-137.84
-119.26
-93.81
-69.34
-51.87
-43.83
-44.23
-50.22
-58.74
-67.25
-73.64
-76.01
-72.85
-63.72
-49.9
-34.28
-20.47
-11.4
-8.3
-10.37
-15.22
-19.85
-21.62
-19.07
-12.37
-3.25
5.65
11.78
13.83
12.15
8.57
5.32
4.02
4.96
7.39
10.28
13.06
15.84
19.02
22.54
25.49
26.26
23.3
16.13
5.82
-5.14
-13.72
-17.55
-15.79
-9.35
-0.31
9.12
17.5
24.46
30.33
35.45
39.66
42.37
43.03
41.73
39.44
37.67
37.71
39.9
43.48
46.91
48.67
47.86
44.37
38.64
31.25
22.74
13.84
5.79
0.36
-0.67
3.61
12.52
23.63
33.54
39.26
39.39
34.71
27.72
21.51
18.58
20.01
25.37
33.02
40.42
44.63
42.77
32.93
15.2
-7.7
-30.8
-48.5
-57.01
-56.28
-50.23
-45.07
-46.15
-55.28
-69.91
-84.64
-94.16
-95.96
-91.21
-83.63
-77.23
-74.35
-75.05
-77.81
-80.77
-82.51
-82.08
-78.47
-70.4
-56.76
-37.55
-14.63
8.36
27.27
39.09
43.35
42.18
39.26
37.93
39.64
43.45
46.78
46.98
42.71
34.51
24.35
14.64
7.16
2.73
1.3
2.46
5.62
10.09
14.84
18.59
20.12
18.82
15.1
10.29
6.06
3.64
3.15
3.48
2.8
-0.57
-7.2
-16.11
-24.95
-30.84
-31.49
-26.22
-16.23
-4.28
6.33
12.92
14.27
10.91
4.65
-2.19
-7.61
-10.48
-10.64
-8.74
-5.74
-2.57
0.01
1.49
1.43
-0.49
-4.32
-9.54
-15.07
-19.45
-21.56
-21.16
-19.24
-17.69
-18.46
-22.61
-29.59
-37.34
-43.03
-44.23
-39.98
-31.27
-20.64
-11.21
-5.48
-4.36
-6.86
-10.63
-12.91
-11.61
-6.02
3.02
13.57
23.35
30.52
34.29
35.02
33.87
32.28
31.35
31.53
32.65
34.09
34.94
34.09
30.41
23.12
12.59
1.05
-7.59
-8.9
-0.04
18.33
41.58
62.53
74.39
73.58
61.18
42.23
23.47
10.64
6.62
11.01
21
32.8
43
49.39
51.05
47.9
40.2
28.16
12.14
-6.65
-25.61
-40.9
-48.65
-46.79
-36.45
-21.9
-8.84
-1.87
-2.63
-9.64
-19.88
-30.83
-41.66
-52.77
-64.42
-75.34
-82.84
-84.08
-77.94
-65.91
-51.45
-38.14
-27.87
-20.05
-12.39
-2.49
10.54
25.58
40
50.97
56.6
56.55
51.86
44.33
35.78
27.57
20.46
14.77
10.59
7.93
6.67
6.46
6.64
6.41
5.08
2.36
-1.39
-5.25
-8.03
-8.8
-7.33
-4.29
-1.05
0.88
0.5
-2.26
-6.49
-10.75
-13.68
-14.59
-13.52
-11.03
-7.74
-3.95
0.38
5.35
10.84
16.32
21.02
24.25
25.73
25.71
24.82
23.84
23.32
23.44
24.08
24.94
25.77
26.41
26.84
26.97
26.6
25.44
23.22
19.85
15.56
10.87
6.37
2.6
-0.19
-2.06
-3.25
-4.02
-4.53
-4.78
-4.62
-3.88
-2.49
-0.53
1.71
3.89
5.73
7.2
8.59
10.33
12.73
15.74
18.8
21.11
22.01
21.42
19.94
18.55
18.1
18.81
20.17
21.23
21.19
19.81
17.51
15.04
13.03
11.64
10.58
9.33
7.53
5.21
2.66
0.3
-1.63
-3.14
-4.39
-5.54
-6.56
-7.39
-8.04
-8.92
-10.76
-14.42
-20.48
-28.89
-38.84
-49
-58
-64.84
-69.12
-71.08
-71.28
-70.33
-68.62
-66.29
-63.29
-59.53
-55
-49.87
-44.47
-39.22
-34.49
-30.44
-26.87
-23.2
-18.52
-11.95
-3.02
7.99
19.88
30.86
39.19
43.87
45.1
44.15
42.74
42.15
42.77
44.07
45.14
45.38
44.79
43.82
42.92
42.03
40.57
37.82
33.44
27.8
21.85
16.67
12.87
10.39
8.6
6.73
4.32
1.37
-1.71
-4.5
-6.75
-8.53
-10.08
-11.58
-13.09
-14.49
-15.69
-16.73
-17.86
-19.38
-21.44
-23.92
-26.32
-27.97
-28.17
-26.44
-22.67
-17.2
-10.92
-5.15
-1.32
-0.41
-2.28
-5.42
-7.2
-4.92
3.07
16.61
33.91
52.27
69.04
82.01
89.35
89.62
82.1
67.68
49.27
31.31
18.1
11.86
11.57
13.53
13.47
8.78
-0.32
-11.22
-20.73
-26.9
-29.73
-30.64
-31.22
-32.26
-33.65
-35.1
-36.94
-40.38
-46.82
-56.7
-68.6
-79.32
-85.17
-83.78
-75.48
-63.37
-51.93
-44.91
-43.62
-46.58
-50.54
-52.03
-48.75
-39.85
-25.53
-6.49
16.45
41.92
67.6
90.19
106.07
112.45
108.34
94.82
74.5
50.58
26.05
3.34
-15.57
-29.06
-36.04
-36.41
-31.34
-23.15
-14.58
-7.85
-3.99
-2.69
-2.79
-3.01
-2.55
-1.18
0.91
3.51
6.57
10.17
14.37
18.91
23.21
26.57
28.53
29.22
29.41
30.12
31.99
34.67
36.83
36.82
33.67
27.96
21.82
17.98
18.22
22.24
27.65
31.05
29.88
23.65
14.07
3.89
-4.23
-8.6
-8.33
-3.07
6.77
19.28
30.41
34.65
27.2
6.51
-24.4
-59.03
-90.21
-113.26
-127.37
-134.54
-137.16
-135.9
-129.34
-115.69
-94.81
-69.35
-43.94
-23.11
-9.33
-2.22
0.76
2.48
4.59
6.95
8.15
6.66
2.16
-4.09
-9.85
-13.15
-13.4
-11.49
-9
-6.97
-5.18
-2.43
2.33
8.85
15.29
19.13
18.75
14.66
9.5
6.73
8.79
15.77
25.43
34.32
39.53
39.84
35.84
29.33
22.2
15.75
10.39
5.87
1.68
-2.58
-6.89
-10.84
-13.78
-15.06
-14.44
-12.19
-9.04
-5.88
-3.36
-1.71
-0.81
-0.36
-0.14
-0.02
-0.03
-0.34
-1.5
-4.37
-9.96
-18.75
-30.11
-42.15
-52.24
-58.13
-58.93
-55.44
-49.62
-43.54
-38.44
-34.47
-31.1
-27.78
-24.26
-20.49
-16.18
-10.49
-2.25
9.55
25.13
43.73
63.78
83.32
100.35
113.16
120.57
122.18
118.62
111.51
103.08
95.47
90.05
87.09
85.9
85.32
84.31
82.16
78.43
72.59
64.01
52.26
37.71
22.02
8.01
-1.33
-4.19
-1.06
5.23
10.7
12.07
8.33
0.9
-7.34
-13.87
-17.7
-19.5
-20.65
-22.22
-24.56
-27.69
-31.91
-37.89
-46.11
-56.06
-66.05
-74
-78.58
-80.03
-80
-80.43
-82.52
-86.29
-91.12
-96.49
-102.38
-108.82
-115.06
-119.07
-117.96
-109.04
-91.17
-65.51
-35.46
-5.71
19.14
35.82
43.1
41.66
33.26
20
3.87
-12.98
-27.79
-37.17
-38.06
-29.31
-12.87
6.39
22.52
31.28
32.12
28.3
24.76
25.23
30.09
36.33
39.44
36.12
26.12
12.25
-1.29
-11.13
-16.24
-17.73
-17.45
-16.3
-13.62
-7.9
1.72
14.35
27.48
38.47
46.01
50.52
53.16
54.19
52.05
44.32
29.68
9.84
-10.51
-25.55
-31.14
-26.72
-15.17
-1.03
11.83
21.48
27.84
31.59
33.04
31.96
28.02
21.56
13.91
7.04
2.79
2.14
4.88
9.74
14.96
19.03
21.25
22.04
22.64
24.49
28.42
34.19
40.49
45.55
48.02
47.57
45.08
42.15
40.27
40.13
41.47
43.43
45.2
46.64
48.4
51.5
56.65
63.66
71.2
77.15
79.35
76.27
67.4
53.2
34.77
13.44
-9.27
-31.65
-51.68
-67.33
-77.09
-80.66
-79.23
-75.09
-70.69
-67.57
-65.82
-64.46
-62.34
-59.1
-55.56
-53.27
-53.58
-56.77
-61.79
-66.73
-69.74
-69.96
-67.99
-65.55
-64.6
-66.27
-70.07
-74.04
-75.52
-72.49
-64.43
-52.46
-38.72
-25.36
-13.96
-5.44
-0.44
0.65
-1.92
-6.67
-10.85
-11.3
-6.08
4.16
16.3
26.26
31.34
31.76
30.36
30.57
34.05
39.63
44.2
44.87
40.95
34.4
28.55
26.11
27.67
31.56
35.17
36.55
35.5
33.59
33.13
35.79
41.61
48.89
54.96
57.69
56.61
53.23
50.2
49.7
52
55.16
55.96
51.77
41.86
27.66
11.72
-3.9
-18.62
-33.06
-47.89
-62.62
-75.31
-83.52
-85.86
-82.93
-77.09
-71.19
-67
-64.51
-62.37
-59.18
-54.5
-48.98
-43.64
-38.94
-34.53
-29.82
-24.79
-20.39
-18.05
-18.73
-22.26
-27.5
-33.13
-38.51
-43.9
-49.81
-56.06
-61.3
-63.28
-59.95
-50.68
-36.81
-21.34
-7.8
1.06
4.19
2.44
-1.93
-6.09
-7.57
-4.79
2.7
14.23
28.3
42.84
55.68
65.13
70.45
72.16
71.74
70.96
71
71.96
72.94
72.77
70.77
67.25
63.34
60.39
59.14
59.35
59.85
59.1
55.8
49.39
40.21
29.37
18.43
8.95
2.05
-1.9
-3.35
-3.3
-3
-3.49
-5.45
-9.05
-14.04
-19.79
-25.48
-30.34
-34
-36.61
-38.51
-39.73
-39.4
-35.89
-27.67
-14.7
0.87
15.25
24.68
27.26
23.84
17.56
12.4
11.57
16.52
26.61
39.38
50.93
56.68
52.45
35.98
8.2
-26.46
-61.15
-88.58
-103.08
-101.88
-85.36
-56.54
-20.5
16.37
47.36
67
72.66
65.4
49.61
31.33
15.95
6.42
2.73
2.97
4.76
6.54
7.76
8.46
8.52
7.63
5.62
3.11
1.4
1.66
3.66
5.3
3.57
-3.34
-13.99
-23.55
-26.08
-18.23
-2.02
15.29
24.46
18.87
-2.12
-33.03
-65.08
-90.15
-103.75
-105.56
-98.05
-84.47
-67.53
-49.28
-31.71
-17.1
-7.74
-4.98
-8.33
-15.25
-21.79
-23.98
-19.24
-7.52
8.6
24.82
36.83
42.02
40.45
34.74
28.81
26.19
28.65
35.67
44.87
53.06
57.27
55.63
47.64
34.21
17.53
0.67
-13.04
-20.77
-20.96
-13.8
-1.04
14.68
30.72
45.24
57.4
67.1
74.38
78.91
79.96
76.79
69.15
57.61
43.47
28.28
13.34
-0.53
-12.99
-23.9
-33.09
-40.46
-46.1
-50.47
-54.19
-57.61
-60.44
-61.8
-60.79
-57.21
-52.04
-47.07
-44
-43.38
-44.13
-43.99
-40.79
-33.68
-23.85
-13.96
-6.89
-4.23
-5.54
-8.81
-11.9
-13.88
-15.57
-18.73
-24.46
-31.94
-38.33
-40.22
-35.66
-25.55
-13.5
-4.14
-0.7
-3.4
-9.61
-15.51
-18.3
-17.65
-15.45
-14.16
-14.94
-16.79
-17.16
-13.7
-5.79
5.01
15.87
24.3
29.44
32.2
34.39
37.4
41.4
45.39
48.04
48.57
47.03
44.09
40.29
35.68
29.89
22.76
14.87
7.7
3.02
1.9
3.98
7.49
10.05
9.92
6.81
1.9
-2.92
-6.13
-7.2
-6.62
-5.22
-3.62
-1.95
-0.02
2.35
4.99
7.45
9.17
9.82
9.5
8.8
8.54
9.49
11.93
15.37
18.73
20.82
20.91
19.19
16.62
14.3
12.77
11.7
10.07
6.89
1.88
-4.38
-10.75
-16.13
-20.02
-22.53
-24.13
-25.16
-25.57
-24.92
-22.69
-18.59
-12.88
-6.33
-0.05
4.86
7.67
8.22
6.84
4.22
1.09
-1.94
-4.39
-5.84
-5.94
-4.59
-2.2
0.07
0.63
-1.92
-7.96
-16.41
-24.92
-30.78
-32.08
-28.45
-21.02
-11.53
-1.36
9.03
19.58
29.84
38.32
43.03
42.73
38.14
31.98
27.52
26.44
27.6
27.65
23.29
13.67
1.18
-9.89
-15.97
-16.12
-12.22
-7.23
-3.17
-0.11
3.11
7.38
12.04
15.07
14.45
9.84
3.23
-1.75
-1.8
4.21
14.35
24.36
29.55
27.1
17.41
4.04
-7.98
-14.53
-14.15
-8.47
-0.98
4.82
7.08
6.02
3.3
0.84
-0.21
0.19
1.19
1.7
0.93
-1.4
-4.99
-9.28
-13.63
-17.48
-20.34
-21.87
-21.84
-20.27
-17.54
-14.42
-11.87
-10.74
-11.36
-13.38
-15.85
-17.66
-17.93
-16.33
-13.13
-8.97
-4.61
-0.69
2.41
4.55
5.74
6.1
5.74
4.77
3.28
1.44
-0.59
-2.6
-4.48
-6.2
-7.81
-9.32
-10.59
-11.28
-10.96
-9.41
-6.77
-3.64
-0.88
0.75
0.92
-0.09
-1.57
-2.72
-3.04
-2.52
-1.53
-0.54
0.26
1.07
2.44
4.89
8.58
13.18
17.97
22.22
25.42
27.49
28.57
28.9
28.58
27.59
25.96
23.89
21.78
20.11
19.28
19.39
20.24
21.37
22.29
22.72
22.7
22.56
22.75
23.6
25.06
26.7
27.86
27.94
26.68
24.26
21.2
18.21
15.91
14.71
14.73
15.85
17.65
19.53
20.65
20.13
17.3
11.94
4.6
-3.43
-10.4
-14.68
-15.45
-13.14
-9.38
-6.39
-6.03
-8.96
-14.23
-19.7
-22.96
-22.38
-17.81
-10.51
-2.52
4.29
9.04
11.9
13.74
15.32
16.79
17.59
16.88
14.19
9.71
4.26
-1.26
-6.3
-10.92
-15.47
-20.18
-24.78
-28.69
-31.47
-33.25
-34.71
-36.54
-38.73
-40.3
-39.82
-36.44
-30.68
-24.51
-20.47
-20.39
-24.44
-31.11
-38.03
-43.1
-45.21
-44.25
-40.65
-34.85
-27.1
-17.64
-6.83
4.81
16.78
28.63
39.81
49.34
55.68
57.04
52.25
41.52
26.86
11.71
-0.16
-5.94
-4.87
1.56
10.14
17.1
19.44
15.94
7.35
-3.99
-15.18
-23.83
-28.78
-30.22
-29.23
-27.03
-24.49
-21.91
-19.36
-17.07
-15.64
-15.83
-18.1
-22.13
-26.72
-30.18
-31.03
-28.67
-23.68
-17.51
-11.74
-7.34
-4.36
-2.02
0.6
3.99
7.88
11.4
13.64
14.06
12.83
10.57
8.15
6.26
5.24
5.06
5.45
6.06
6.56
6.71
6.45
5.85
5.04
4.14
3.18
2.04
0.59
-1.17
-3.09
-4.79
-5.87
-6.04
-5.26
-3.77
-1.88
0.07
1.91
3.56
4.93
5.89
6.26
5.9
4.89
3.55
2.44
2.1
2.88
4.73
7.27
9.88
11.93
13.03
13.08
12.24
10.8
8.98
6.86
4.4
1.53
-1.72
-5.12
-8.34
-11.05
-13.04
-14.27
-14.74
-14.49
-13.49
-11.76
-9.36
-6.53
-3.61
-1
1.03
2.34
2.95
3.02
2.77
2.41
2.14
2.04
2.08
2.2
2.28
2.29
2.29
2.38
2.64
3.05
3.48
3.71
3.55
2.88
1.72
0.19
-1.48
-3.03
-4.17
-4.66
-4.34
-3.28
-1.75
-0.14
1.11
1.77
1.87
1.66
1.45
1.39
1.38
1.15
0.48
-0.67
-2.03
-3.21
-3.89
-3.98
-3.63
-3.11
-2.67
-2.38
-2.18
-1.99
-1.75
-1.55
-1.52
-1.78
-2.37
-3.25
-4.25
-5.21
-6
-6.46
-6.53
-6.15
-5.21
-3.66
-1.45
1.36
4.58
7.87
10.81
12.98
14.1
14.01
12.82
10.8
8.38
6.06
4.21
3.04
2.52
2.43
2.46
2.3
1.78
0.9
-0.21
-1.37
-2.45
-3.44
-4.42
-5.47
-6.64
-7.84
-8.88
-9.55
-9.72
-9.35
-8.49
-7.16
-5.27
-2.72
0.53
4.28
8.08
11.33
13.54
14.59
14.77
14.71
15.09
16.36
18.54
21.09
23.11
23.55
21.51
16.56
8.87
-0.7
-10.75
-19.61
-25.76
-28.21
-26.78
-22.07
-15.3
-7.96
-1.5
3.05
5.3
5.65
5.18
5.29
7.25
11.71
18.49
26.63
34.75
41.53
46.07
48.1
48.04
46.79
45.57
45.52
47.38
51.12
55.77
59.61
60.76
57.93
50.95
40.93
29.79
19.44
11.03
4.65
-0.48
-5.41
-10.84
-16.68
-22.24
-26.65
-29.35
-30.42
-30.41
-30.01
-29.66
-29.42
-29.11
-28.57
-27.85
-27.17
-26.78
-26.74
-26.95
-27.26
-27.67
-28.35
-29.47
-31.03
-32.77
-34.38
-35.71
-36.91
-38.26
-39.87
-41.44
-42.32
-41.99
-40.39
-38.12
-36.13
-35.27
-35.79
-37.29
-38.97
-40.06
-40.1
-39.02
-36.98
-34.22
-30.88
-27.03
-22.6
-17.51
-11.74
-5.43
1.05
7.06
11.89
14.94
15.97
15.2
13.23
10.79
8.54
6.93
6.14
6.17
6.97
8.39
10.28
12.45
14.67
16.66
18.13
18.81
18.48
17.05
14.61
11.5
8.25
5.55
4
3.87
4.97
6.68
8.19
8.87
8.63
7.91
7.51
8.08
9.7
11.79
13.34
13.47
11.92
9.31
6.93
6.23
8.3
13.45
21.21
30.32
38.94
44.99
46.65
43.14
35.22
25.41
17.21
13.83
16.84
25.41
36.54
46.24
51.12
49.5
41.85
30.4
18.27
8.54
3.44
3.67
8.15
14.26
18.73
18.86
13.46
3.19
-10.05
-24.03
-37.1
-48.46
-57.78
-64.74
-68.84
-69.54
-66.76
-61.06
-53.41
-44.72
-35.41
-25.45
-14.79
-3.86
6.25
14.01
18.2
18.42
15.41
10.74
6.2
3.22
2.53
4.09
7.29
11.2
14.89
17.66
19.16
19.4
18.5
16.52
13.24
8.34
1.75
-6.1
-14.25
-21.7
-27.95
-33.39
-38.99
-45.63
-53.28
-60.87
-66.77
-69.61
-68.86
-64.8
-57.94
-48.53
-36.45
-21.62
-4.65
13.02
29.4
42.72
52.04
57.43
59.71
59.92
58.81
56.78
53.91
50.25
45.82
40.68
34.87
28.52
21.87
15.33
9.39
4.45
0.79
-1.57
-2.76
-2.99
-2.54
-1.87
-1.55
-2.33
-4.82
-9.26
-15.29
-21.98
-28.04
-32.25
-33.83
-32.56
-28.74
-22.96
-15.91
-8.2
-0.38
7.05
13.57
18.73
22.16
23.72
23.53
21.98
19.65
17.12
14.82
12.98
11.58
10.53
9.7
9.07
8.66
8.51
8.58
8.77
8.92
8.87
8.56
8.02
7.39
6.84
6.54
6.59
7.02
7.82
8.92
10.26
11.78
13.45
15.19
16.98
18.76
20.44
21.86
22.77
22.86
21.83
19.55
16.12
11.9
7.41
3.16
-0.47
-3.34
-5.56
-7.4
-9.15
-11.02
-13.02
-14.98
-16.63
-17.76
-18.44
-19.02
-20.09
-22.14
-25.34
-29.41
-33.75
-37.68
-40.69
-42.48
-42.96
-42.09
-39.83
-36.29
-31.75
-26.68
-21.6
-16.9
-12.72
-9.06
-5.87
-3.17
-1.08
0.34
1.18
1.73
2.25
2.9
3.54
3.9
3.7
2.85
1.48
-0.06
-1.43
-2.4
-2.96
-3.32
-3.76
-4.52
-5.6
-6.79
-7.77
-8.26
-8.15
-7.5
-6.44
-5.05
-3.19
-0.63
2.88
7.4
12.69
18.28
23.58
28.08
31.51
33.83
35.22
35.91
36.1
35.91
35.39
34.55
33.44
32.14
30.71
29.16
27.43
25.4
23
20.23
17.18
14.02
10.91
7.99
5.38
3.22
1.68
0.92
0.95
1.6
2.48
3.06
2.87
1.69
-0.37
-2.93
-5.51
-7.68
-9.18
-10.04
-10.46
-10.74
-11.17
-11.95
-13.17
-14.8
-16.72
-18.77
-20.7
-22.3
-23.38
-23.82
-23.61
-22.74
-21.26
-19.19
-16.6
-13.72
-10.95
-8.81
-7.76
-7.88
-8.78
-9.71
-9.84
-8.7
-6.43
-3.72
-1.52
-0.57
-1.02
-2.29
-3.26
-2.67
0.4
6.14
13.96
22.7
30.97
37.51
41.43
42.28
39.98
34.91
27.85
20.01
12.85
7.71
5.35
5.63
7.51
9.45
10.18
9.26
7.41
6.07
6.61
9.41
13.5
16.97
18.01
15.98
11.74
7.1
3.66
1.93
1.32
0.93
0.38
0.26
1.43
3.94
6.2
5.17
-2.31
-17.72
-39.61
-63.68
-84.26
-96.39
-97.67
-88.93
-73.72
-56.78
-42.27
-32.51
-27.47
-25.39
-23.97
-21.59
-17.97
-13.98
-10.84
-9.21
-8.72
-8.07
-5.75
-0.81
6.72
15.86
25.25
33.7
40.56
45.62
48.88
50.27
49.63
46.97
42.61
37.37
32.32
28.46
26.27
25.51
25.28
24.43
21.99
17.62
11.77
5.56
0.35
-2.7
-3.21
-1.77
0.12
0.53
-2.05
-7.94
-16
-23.98
-29.4
-30.7
-27.85
-22.29
-16.2
-11.45
-8.9
-8.24
-8.45
-8.39
-7.37
-5.26
-2.3
1.15
4.85
8.57
12.03
14.78
16.25
16.03
14.12
11.1
7.99
5.83
5.26
6.24
8.02
9.51
9.72
8.15
4.98
0.9
-3.2
-6.55
-8.74
-9.82
-10.25
-10.61
-11.43
-12.99
-15.32
-18.21
-21.32
-24.27
-26.79
-28.69
-29.92
-30.57
-30.8
-30.91
-31.28
-32.32
-34.34
-37.38
-41.14
-44.94
-48.02
-49.87
-50.48
-50.31
-49.98
-49.68
-48.89
-46.49
-41.38
-33.16
-22.52
-11.09
-0.76
7.2
12.53
15.95
18.58
21.2
23.92
26.26
27.56
27.52
26.41
24.85
23.35
21.93
20
16.72
11.57
4.8
-2.46
-8.7
-12.68
-13.97
-13.03
-10.87
-8.48
-6.37
-4.51
-2.55
-0.25
2.32
4.72
6.42
7.07
6.75
5.9
5.18
5.22
6.33
8.42
11.07
13.79
16.31
18.76
21.56
25.15
29.55
34.2
38.04
39.98
39.51
36.95
33.37
30.13
28.26
28.04
29.01
30.26
30.87
30.25
28.27
25.27
21.84
18.7
16.48
15.52
15.8
16.87
17.95
18.1
16.54
12.85
7.17
0.11
-7.43
-14.53
-20.5
-24.85
-27.34
-27.95
-26.97
-25.05
-23.09
-21.83
-21.4
-21.01
-19.14
-14.31
-5.98
4.78
15.61
23.87
28
28.36
26.84
25.72
26.2
27.9
29.46
29.88
29.76
31.32
37.19
48.58
63.93
79.09
88.93
89.64
80.33
63.21
42.21
21.13
2.2
-13.9
-27.1
-36.84
-41.68
-40.2
-32.6
-21.76
-12.81
-11.05
-19.14
-35.36
-54.06
-68.34
-73.54
-69.41
-59.84
-50.28
-44.67
-43.6
-44.72
-44.83
-42.05
-36.83
-31.28
-27.49
-26.21
-26.46
-26.28
-23.94
-18.9
-12.08
-5.51
-1.59
-2.19
-7.99
-18.26
-31.12
-44.47
-56.75
-67.35
-76.19
-82.82
-85.7
-82.33
-70.41
-49.37
-21.36
9
36.27
56.15
67.04
70.07
68.14
64.25
60.44
57.35
54.78
52.26
49.55
46.65
43.51
39.91
35.56
30.33
24.44
18.48
13.07
8.57
4.96
1.86
-1.13
-4.23
-7.35
-10.17
-12.35
-13.71
-14.31
-14.38
-14.2
-13.98
-13.89
-13.99
-14.4
-15.23
-16.57
-18.38
-20.5
-22.65
-24.47
-25.6
-25.73
-24.7
-22.49
-19.21
-15.04
-10.19
-4.86
0.72
6.28
11.45
15.77
18.8
20.25
20.08
18.58
16.21
13.53
10.95
8.71
6.85
5.37
4.33
3.97
4.62
6.56
9.82
14.09
18.67
22.72
25.46
26.45
25.72
23.67
20.93
18.15
15.71
13.74
12.16
10.83
9.71
8.86
8.35
8.13
7.96
7.48
6.32
4.41
1.92
-0.78
-3.29
-5.31
-6.74
-7.66
-8.37
-9.38
-11.29
-14.6
-19.34
-24.9
-30.16
-33.91
-35.4
-34.68
-32.5
-29.88
-27.52
-25.66
-24.16
-22.91
-22.12
-22.2
-23.4
-25.49
-27.72
-29.21
-29.43
-28.6
-27.54
-27.26
-28.27
-30.28
-32.2
-32.57
-30.17
-24.55
-16.18
-6.35
3.21
10.9
15.63
17.11
15.82
12.8
9.31
6.64
5.87
7.8
12.79
20.62
30.5
41.03
50.59
57.77
61.84
62.94
61.86
59.65
57.16
54.88
53.07
52
51.99
53.27
55.57
57.96
59.03
57.49
52.82
45.56
37.08
28.85
21.84
16.13
11.22
6.53
1.95
-2.17
-5.32
-7.38
-8.83
-10.53
-13.26
-17.11
-21.35
-24.69
-25.94
-24.54
-20.89
-16.16
-11.84
-9.16
-8.69
-10.32
-13.37
-16.93
-20.1
-22.07
-22.07
-19.4
-13.38
-3.71
9.28
24.39
39.57
52.34
60.49
62.76
59.37
51.87
42.68
34.13
27.64
23.39
20.45
17.43
13.25
7.58
0.85
-6.16
-12.67
-18.14
-22.26
-24.73
-25.21
-23.45
-19.46
-13.81
-7.52
-1.87
1.93
2.99
1.04
-3.59
-9.96
-16.81
-22.97
-27.74
-31.14
-33.72
-36.12
-38.53
-40.68
-42.16
-42.92
-43.52
-44.82
-47.3
-50.48
-53.09
-53.76
-52.01
-48.67
-45.36
-43.54
-43.48
-44.07
-43.57
-40.69
-35.38
-28.81
-22.6
-17.92
-14.99
-13.18
-11.55
-9.36
-6.31
-2.5
1.78
6.17
10.27
13.59
15.69
16.34
15.59
13.84
11.65
9.55
7.85
6.7
6.16
6.33
7.35
9.24
11.77
14.39
16.35
16.99
16.09
13.97
11.4
9.27
8.18
8.21
8.95
9.81
10.4
10.69
10.96
11.58
12.64
13.96
15.09
15.67
15.57
14.99
14.23
13.52
12.88
12.17
11.21
10
8.67
7.39
6.24
5.14
3.92
2.43
0.6
-1.47
-3.65
-5.78
-7.7
-9.28
-10.33
-10.68
-10.2
-8.89
-6.89
-4.38
-1.53
1.56
4.86
8.2
11.25
13.49
14.42
13.75
11.6
8.54
5.36
2.77
1.14
0.4
0.2
0.15
0.07
0.04
0.28
0.93
1.88
2.77
3.16
2.7
1.38
-0.49
-2.38
-3.83
-4.65
-5.03
-5.43
-6.25
-7.57
-9
-9.75
-9.05
-6.52
-2.38
2.52
7.09
10.36
11.83
11.51
9.91
7.87
6.41
6.6
9.24
14.53
21.65
28.66
32.91
31.95
24.66
11.99
-3.06
-16.53
-25.09
-27.37
-24.43
-19.06
-14.45
-12.75
-14.45
-18.59
-23.53
-27.79
-30.58
-31.68
-31.18
-29.21
-25.91
-21.55
-16.65
-11.88
-7.79
-4.51
-1.65
1.54
5.54
10.07
13.96
15.49
13.47
8.05
1.03
-4.82
-7.08
-4.87
0.7
7.27
12.5
15.26
15.96
15.88
16.1
16.72
16.92
15.67
12.6
8.36
4.38
2.06
2.04
3.93
6.58
8.82
10.04
10.51
11.06
12.63
15.64
19.83
24.32
28.1
30.42
31.07
30.35
28.78
26.88
25.04
23.49
22.45
22.11
22.62
23.95
25.82
27.8
29.51
30.74
31.53
32.02
32.16
31.59
29.65
25.65
19.24
10.64
0.66
-9.56
-18.91
-26.7
-32.72
-37.28
-40.94
-44.32
-47.8
-51.46
-54.97
-57.81
-59.58
-60.28
-60.45
-61.06
-63.04
-66.88
-72.27
-78.08
-82.67
-84.23
-81.29
-73.08
-59.81
-42.72
-23.89
-5.68
9.86
21.7
29.99
35.77
40.39
44.79
49.18
53.07
55.75
56.61
55.42
52.26
47.37
41.07
33.68
25.68
17.62
10.14
3.77
-1.21
-4.85
-7.46
-9.5
-11.38
-13.31
-15.32
-17.24
-18.84
-19.87
-20.13
-19.51
-18.04
-15.92
-13.61
-11.67
-10.62
-10.71
-11.79
-13.32
-14.67
-15.29
-15.03
-14.06
-12.67
-11.04
-9.09
-6.49
-2.89
1.85
7.47
13.33
18.57
22.43
24.51
24.88
24.03
22.63
21.26
20.25
19.64
19.29
19.07
18.91
18.8
18.72
18.59
18.28
17.75
17.04
16.28
15.58
14.94
14.23
13.28
12
10.5
9.06
7.98
7.45
7.47
7.9
8.53
9.26
10.05
10.95
11.93
12.79
13.22
12.86
11.44
8.97
5.72
2.16
-1.18
-3.88
-5.69
-6.62
-6.87
-6.78
-6.74
-7.11
-8.1
-9.7
-11.67
-13.62
-15.13
-15.98
-16.15
-15.87
-15.43
-15.06
-14.89
-14.92
-15.05
-15.18
-15.2
-15
-14.45
-13.47
-12.05
-10.18
-7.95
-5.48
-2.97
-0.64
1.3
2.78
3.95
5.15
6.78
9.03
11.82
14.72
17.13
18.55
18.76
17.87
16.29
14.55
13.14
12.34
12.15
12.39
12.77
13.01
13.02
12.83
12.64
12.62
12.91
13.56
14.51
15.71
17.06
18.44
19.61
20.23
19.96
18.55
15.97
12.51
8.64
4.77
1.1
-2.61
-6.85
-12.08
-18.37
-25.22
-31.66
-36.67
-39.66
-40.66
-40.26
-39.26
-38.15
-37.03
-35.59
-33.56
-30.9
-27.93
-25.1
-22.74
-20.82
-19
-16.83
-13.99
-10.48
-6.5
-2.4
1.53
5.07
8.08
10.47
12.14
13.03
13.15
12.58
11.52
10.21
8.93
7.88
7.1
6.49
5.89
5.16
4.28
3.43
2.8
2.54
2.59
2.69
2.51
1.8
0.51
-1.2
-3.03
-4.67
-5.91
-6.59
-6.64
-6.01
-4.73
-2.98
-1
0.89
2.51
3.77
4.72
5.44
5.9
6
5.61
4.76
3.62
2.52
1.79
1.57
1.75
2.1
2.33
2.28
1.95
1.43
0.88
0.39
-0.07
-0.59
-1.33
-2.46
-4.11
-6.31
-8.97
-11.86
-14.6
-16.77
-17.97
-17.99
-16.82
-14.74
-12.26
-9.93
-8.23
-7.35
-7.22
-7.54
-7.96
-8.3
-8.57
-8.94
-9.51
-10.17
-10.57
-10.33
-9.22
-7.39
-5.25
-3.3
-1.78
-0.59
0.66
2.33
4.65
7.52
10.68
13.82
16.71
19.16
21.04
22.17
22.44
21.91
20.81
19.5
18.37
17.66
17.47
17.73
18.3
18.97
19.48
19.51
18.76
17.03
14.31
10.86
7.14
3.66
0.84
-1.13
-2.34
-3
-3.33
-3.45
-3.35
-2.96
-2.29
-1.51
-0.92
-0.85
-1.46
-2.7
-4.3
-5.95
-7.38
-8.47
-9.25
-9.8
-10.23
-10.57
-10.79
-10.74
-10.23
-9.07
-7.21
-4.76
-2.01
0.73
3.15
5.07
6.38
7.05
7.13
6.76
6.25
5.99
6.31
7.35
8.93
10.62
11.96
12.63
12.54
11.76
10.36
8.31
5.52
2.02
-1.99
-6.05
-9.68
-12.55
-14.64
-16.12
-17.22
-18.04
-18.49
-18.5
-18.16
-17.85
-18.1
-19.3
-21.44
-24.07
-26.51
-28.19
-28.88
-28.8
-28.43
-28.32
-28.94
-30.51
-32.99
-35.9
-38.39
-39.33
-37.68
-32.95
-25.56
-16.79
-8.33
-1.64
2.65
4.78
5.64
6.29
7.6
10.07
13.85
18.86
24.74
30.95
37
42.66
48.3
54.9
63.67
75.25
88.87
101.94
110.56
110.93
101.16
82.5
59.27
37.36
21.88
15.26
16.59
22.6
29.59
35.13
38.68
41.02
42.98
44.48
44.46
41.54
35.03
25.48
14.48
3.88
-5.09
-12.25
-18.35
-24.33
-30.67
-37.01
-42.38
-45.75
-46.77
-45.97
-44.6
-44.02
-45.02
-47.6
-51.04
-54.31
-56.59
-57.51
-57.23
-56.27
-55.22
-54.44
-53.84
-52.85
-50.66
-46.58
-40.52
-33.12
-25.61
-19.26
-14.85
-12.4
-11.28
-10.65
-9.98
-9.28
-8.86
-9.08
-9.93
-10.98
-11.67
-11.53
-10.43
-8.48
-5.87
-2.72
0.85
4.69
8.46
11.7
14.04
15.36
15.85
15.88
15.84
15.92
16.1
16.26
16.28
16.12
15.78
15.25
14.48
13.43
12.1
10.62
9.13
7.76
6.57
5.47
4.3
2.87
1
-1.4
-4.35
-7.73
-11.21
-14.31
-16.45
-17.1
-16
-13.25
-9.35
-5.08
-1.25
1.56
3.13
3.59
3.33
2.75
2.16
1.69
1.31
0.96
0.58
0.21
-0.1
-0.25
-0.19
0.12
0.69
1.5
2.47
3.43
4.08
4.2
3.63
2.5
1.15
0.13
-0.03
0.97
3.1
6
9.15
12.08
14.57
16.72
18.89
21.58
25.15
29.67
34.84
39.95
44.01
45.93
44.78
40.07
31.96
21.26
9.28
-2.5
-12.83
-20.93
-26.54
-29.82
-31.19
-31.12
-30.07
-28.53
-26.98
-25.9
-25.57
-26.03
-27.01
-28.05
-28.66
-28.44
-27.14
-24.54
-20.45
-14.78
-7.8
-0.36
6.17
10.28
10.91
8.01
2.6
-3.68
-9.32
-13.55
-16.52
-18.95
-21.45
-24.01
-25.9
-26.03
-23.4
-17.52
-8.56
2.81
15.6
28.69
40.91
51.29
59.15
64.24
66.78
67.21
65.98
63.32
59.28
53.85
47.2
39.75
32.04
24.55
17.53
11.11
5.4
0.72
-2.49
-3.99
-4.04
-3.51
-3.6
-5.28
-8.68
-12.89
-16.33
-17.42
-15.37
-10.56
-4.32
1.67
6.09
8.44
8.97
8.35
7.23
5.96
4.58
2.99
1.14
-0.92
-3.07
-5.19
-7.2
-9.09
-10.8
-12.23
-13.26
-13.81
-13.82
-13.28
-12.23
-10.77
-9.04
-7.28
-5.82
-4.96
-4.91
-5.66
-6.97
-8.39
-9.43
-9.7
-9.04
-7.58
-5.68
-3.81
-2.4
-1.69
-1.7
-2.25
-3.11
-4.1
-5.15
-6.33
-7.78
-9.59
-11.81
-14.35
-17.03
-19.64
-21.99
-23.95
-25.52
-26.81
-28.05
-29.53
-31.53
-34.12
-37.07
-39.87
-41.9
-42.71
-42.29
-41.1
-39.86
-39.3
-39.77
-41.16
-43.08
-45.07
-46.84
-48.3
-49.56
-50.72
-51.8
-52.49
-52.17
-49.88
-44.67
-36.05
-24.35
-10.46
4.65
20.62
38.03
57.89
80.71
105.7
130.67
152.79
169.86
181.07
186.93
188.48
186.2
179.66
168.01
150.89
129.04
104.1
77.9
51.82
26.84
4.04
-14.99
-28.18
-33.91
-32.06
-24.46
-14.4
-5.31
0.52
2.58
1.76
-0.54
-3.38
-6.48
-10.06
-14.18
-18.47
-22.07
-23.89
-22.98
-18.89
-12.09
-3.94
3.39
7.41
5.9
-2.58
-18.29
-40.21
-66.06
-92.42
-115.19
-130.36
-135.11
-128.81
-113.29
-92.26
-69.98
-49.8
-33.39
-20.74
-10.98
-3.17
3.21
8.35
12.41
15.78
18.96
22.31
25.85
29.31
32.26
34.45
35.79
36.32
36.1
35.03
32.87
29.33
24.13
17.24
8.98
0.05
-8.57
-15.94
-21.33
-24.52
-25.75
-25.68
-25.19
-25.12
-26.05
-28.14
-31.11
-34.37
-37.12
-38.65
-38.47
-36.4
-32.64
-27.68
-22.13
-16.54
-11.2
-6.06
-0.78
5.02
11.5
18.52
25.57
32.05
37.34
41.08
43.17
43.83
43.57
42.95
42.37
41.82
40.94
39.18
36.16
31.96
27.08
22.15
17.6
13.47
9.58
5.78
2.09
-1.29
-4.33
-7.16
-10.12
-13.39
-16.8
-19.79
-21.62
-21.75
-20.08
-17
-13.27
-9.72
-6.91
-5.03
-3.8
-2.62
-0.83
1.98
5.7
9.58
12.42
13.03
10.83
6.17
0.39
-4.6
-7
-5.7
-0.66
6.96
15.03
20.97
22.59
18.85
10.41
-0.62
-11.5
-20.04
-25.36
-27.96
-28.99
-29.28
-28.73
-26.58
-22.2
-16
-9.71
-5.9
-6.94
-14.21
-27.66
-45.91
-66.63
-86.88
-103.56
-114.01
-116.63
-111.38
-99.89
-85.03
-70.19
-58.3
-50.94
-47.87
-47.02
-45.12
-38.76
-25.7
-5.74
19.09
45.26
68.95
87.27
98.97
104.39
105
102.7
99.35
96.39
94.52
93.64
92.98
91.54
88.66
84.36
79.28
74.29
70.06
66.99
65.29
65.01
65.65
65.59
62.01
51.92
33.8
9.14
-17.51
-40.22
-54.27
-58.23
-54.33
-46.91
-40.11
-36.1
-34.84
-35.04
-35.48
-35.72
-35.85
-35.86
-35.17
-32.77
-27.86
-20.42
-11.33
-2.01
6.01
11.7
14.78
15.67
15.32
14.74
14.71
15.54
17.14
19.13
21.16
23.03
24.71
26.29
27.78
29.15
30.36
31.41
32.37
33.33
34.2
34.61
33.87
31.22
26.1
18.55
9.38
-0.03
-8.12
-13.76
-16.66
-17.41
-17.04
-16.5
-16.19
-15.98
-15.62
-15.24
-15.5
-17.31
-21.27
-27.16
-34.06
-40.73
-46.1
-49.62
-51.1
-50.58
-48.36
-45.4
-43.53
-45.32
-53.03
-67.17
-85.46
-102.9
-113.35
-111.97
-97.56
-73.59
-47.22
-26.94
-19.57
-28.07
-50.81
-82.38
-115.26
-141.86
-156.15
-154.66
-137.05
-105.89
-66.03
-23.29
16.99
51.21
78.06
98.27
113.77
126.82
139.4
152.97
168.27
185.12
202.2
217.13
227.04
229.43
223.07
208.5
187.8
163.85
139.37
116.22
95.05
75.36
55.82
34.82
11.11
-15.39
-43.11
-68.75
-88.28
-98.51
-98.93
-92.56
-85.23
-83.15
-90.01
-104.98
-122.91
-136.93
-142.03
-137.64
-127.69
-118.11
-113.2
-113.03
-113.51
-108.79
-94.69
-70.99
-41.45
-11.63
13.91
33.49
48.32
60.89
73.16
85.51
97.21
107.65
117.09
126.47
136.06
144.07
146.35
137.65
114.28
76.52
29.37
-19.12
-61.1
-91.89
-111.05
-121.15
-125.15
-124.48
-118.83
-107.68
-92.1
-75.41
-61.9
-54.71
-54.15
-57.6
-61.27
-62.36
-60.4
-57.1
-54.83
-55.22
-58.27
-62.57
-66.21
-67.7
-66.5
-63.02
-58.14
-52.7
-47.08
-41.09
-34.17
-25.87
-16.24
-5.96
3.9
12.35
18.97
24.03
28.28
32.5
37.17
42.26
47.37
51.98
55.61
57.93
58.79
58.18
56.23
53.28
49.77
46.22
43.08
40.67
39.15
38.53
38.71
39.48
40.51
41.36
41.6
40.93
39.29
36.83
33.92
30.94
28.26
26.07
24.38
22.99
21.56
19.74
17.27
14.15
10.57
6.84
3.27
0
-2.98
-5.81
-8.65
-11.56
-14.55
-17.46
-20.1
-22.25
-23.72
-24.44
-24.47
-23.97
-23.02
-21.53
-19.23
-15.91
-11.76
-7.53
-4.39
-3.43
-5.04
-8.52
-12.4
-15.16
-15.99
-15.13
-13.58
-12.35
-11.82
-11.56
-10.63
-8.1
-3.31
4.13
14.56
28.26
45.26
64.81
85.17
103.67
117.57
125.02
125.82
121.49
114.6
107.72
102.27
98.15
93.94
87.99
79.64
69.8
60.75
54.94
53.57
55.68
58.56
59.02
54.97
46.25
34.35
21.46
9.27
-1.63
-11.47
-20.6
-28.96
-35.98
-41
-43.82
-44.92
-45.27
-45.95
-47.66
-50.55
-54.31
-58.35
-62.04
-64.9
-66.69
-67.34
-66.94
-65.59
-63.36
-60.32
-56.56
-52.23
-47.55
-42.74
-38.04
-33.66
-29.8
-26.58
-24.13
-22.34
-21
-19.74
-18.23
-16.26
-13.88
-11.36
-9.05
-7.23
-5.98
-5.17
-4.59
-4.06
-3.57
-3.22
-3.11
-3.33
-3.81
-4.39
-4.84
-4.94
-4.49
-3.33
-1.49
0.85
3.32
5.48
7.03
7.97
8.56
9.18
10.02
10.92
11.47
11.25
10.13
8.36
6.4
4.63
3.15
1.69
-0.1
-2.47
-5.4
-8.6
-11.75
-14.59
-16.97
-18.72
-19.69
-19.66
-18.61
-16.72
-14.4
-12.1
-10.1
-8.42
-6.8
-4.95
-2.72
-0.17
2.45
4.87
6.85
8.23
8.87
8.57
7.25
5
2.24
-0.4
-2.27
-2.98
-2.6
-1.58
-0.55
-0.01
-0.21
-1.14
-2.69
-4.76
-7.28
-10.07
-12.81
-15.11
-16.7
-17.58
-18.1
-18.78
-19.95
-21.59
-23.22
-24.23
-24.08
-22.6
-20.02
-16.77
-13.31
-9.95
-6.82
-3.92
-1.25
1.18
3.41
5.53
7.72
10.22
13.16
16.52
20.05
23.34
25.9
27.36
27.54
26.57
24.82
22.77
20.91
19.51
18.6
17.98
17.35
16.44
15.13
13.52
11.87
10.49
9.62
9.44
9.96
11.1
12.6
14.04
14.88
14.56
12.7
9.28
4.72
-0.22
-4.64
-7.77
-9.25
-9.17
-7.96
-6.11
-4.01
-1.82
0.37
2.36
3.76
4.09
3.07
0.91
-1.7
-3.83
-4.89
-4.95
-4.77
-5.32
-7.2
-10.28
-13.75
-16.55
-17.92
-17.71
-16.28
-14.16
-11.76
-9.18
-6.37
-3.34
-0.35
2.12
3.54
3.66
2.62
1.07
-0.08
0.01
1.85
5.37
10.02
14.92
19.22
22.32
23.97
24.24
23.35
21.51
18.86
15.53
11.65
7.46
3.21
-0.91
-4.82
-8.5
-11.81
-14.41
-15.77
-15.4
-13.16
-9.48
-5.31
-1.82
0.09
0.16
-1.21
-3.15
-4.76
-5.44
-5.02
-3.79
-2.29
-1.15
-0.87
-1.74
-3.69
-6.36
-9.17
-11.58
-13.26
-14.19
-14.65
-14.98
-15.43
-16.01
-16.57
-16.91
-16.98
-16.87
-16.84
-17.1
-17.72
-18.48
-18.97
-18.79
-17.73
-15.94
-13.87
-12.13
-11.2
-11.25
-12.15
-13.55
-15.13
-16.63
-17.9
-18.83
-19.32
-19.35
-19.02
-18.48
-17.85
-17.01
-15.64
-13.43
-10.38
-7
-4.15
-2.68
-2.95
-4.6
-6.69
-8.14
-8.25
-6.93
-4.69
-2.24
-0.19
1.23
2.09
2.58
2.77
2.5
1.53
-0.25
-2.67
-5.2
-7.2
-8.19
-8.13
-7.36
-6.46
-5.82
-5.43
-4.8
-3.18
0.11
5.3
12.16
20.06
28.2
35.87
42.57
48.03
52.13
54.91
56.58
57.47
57.96
58.38
58.77
58.89
58.3
56.6
53.62
49.51
44.63
39.36
33.98
28.71
23.74
19.32
15.74
13.16
11.48
10.35
9.25
7.75
5.68
3.2
0.71
-1.32
-2.51
-2.72
-2.11
-1.12
-0.36
-0.47
-1.8
-4.26
-7.31
-10.19
-12.29
-13.45
-13.98
-14.35
-14.79
-14.93
-14.02
-11.44
-7.21
-2.31
1.63
3.06
1.28
-3.23
-9
-14.3
-17.86
-19.3
-19.08
-18.22
-17.79
-18.65
-21.21
-25.5
-31.05
-36.99
-42.14
-45.31
-45.67
-43.1
-38.35
-32.8
-27.98
-24.99
-24.16
-24.95
-26.23
-26.79
-25.74
-22.92
-18.86
-14.53
-10.97
-8.82
-8.06
-8.11
-8
-6.84
-4.14
0.02
5.08
10.21
14.64
17.78
19.34
19.32
17.92
15.6
13
10.88
9.95
10.57
12.6
15.29
17.56
18.38
17.28
14.65
11.67
9.86
10.39
13.7
19.26
26.05
33.09
39.95
46.8
53.95
61.34
68.34
73.99
77.52
78.65
77.4
73.56
66.37
54.76
38.28
18.04
-3.09
-21.33
-33.61
-38.93
-38.59
-35.28
-31.61
-29.05
-27.73
-27.18
-27.23
-28.29
-30.95
-35.26
-40.17
-43.62
-43.43
-38.28
-28.59
-16.54
-5.53
0.95
0.48
-7.6
-21.82
-38.98
-54.86
-65.34
-67.5
-60.55
-46.09
-27.67
-9.62
4.42
12.55
14.95
13.29
9.64
5.5
1.43
-2.7
-7.07
-11.46
-15.31
-18
-19.26
-19.24
-18.32
-16.76
-14.4
-10.66
-4.96
2.95
12.54
22.47
31
36.52
38.2
36.27
31.94
26.9
22.63
19.95
18.85
18.7
18.76
18.51
17.85
16.95
15.97
14.95
13.73
12.14
10.18
8.1
6.29
5.04
4.39
4.05
3.58
2.53
0.64
-2.16
-5.76
-9.95
-14.41
-18.67
-22.17
-24.35
-24.82
-23.6
-21.09
-17.93
-14.72
-11.79
-9.14
-6.58
-4
-1.52
0.54
1.83
2.14
1.62
0.65
-0.24
-0.63
-0.35
0.49
1.56
2.39
2.55
1.78
0.1
-2.25
-4.88
-7.46
-9.85
-12.12
-14.48
-17.08
-19.77
-22.11
-23.51
-23.49
-21.9
-19.08
-15.71
-12.62
-10.46
-9.55
-9.76
-10.62
-11.44
-11.52
-10.33
-7.89
-4.87
-2.66
-3.05
-7.65
-17.32
-31.63
-48.82
-65.99
-79.73
-86.94
-85.64
-75.61
-58.58
-37.87
-17.43
-0.77
10.04
14.76
14.67
11.84
8.31
5.61
4.7
6.21
10.51
17.63
27
37.45
47.42
55.49
60.87
63.65
64.64
65.01
65.85
67.89
71.35
76.01
81.26
86.3
90.41
93.21
94.94
96.3
98.11
100.69
103.53
105.4
104.97
101.51
95.35
87.86
80.79
75.59
72.74
71.63
70.9
68.95
64.57
57.32
47.62
36.63
26
17.63
13.31
14.27
20.59
30.7
41.29
48.09
47.46
38.17
22.42
5.23
-7.75
-13.02
-11
-5.95
-3.68
-8.41
-20.59
-36.94
-52.58
-63.95
-70.73
-75.62
-82.41
-93.53
-108.51
-124.37
-137.23
-144.36
-145.36
-141.98
-136.87
-132.16
-128.46
-125.01
-120.4
-113.67
-104.95
-95.63
-87.8
-83.31
-82.94
-85.89
-90.12
-93.21
-93.3
-89.73
-82.94
-73.73
-62.47
-48.74
-31.58
-10.47
13.81
38.87
61.31
77.91
86.81
88.03
83.13
74.28
63.33
51.29
38.43
24.59
9.62
-6.47
-23.34
-40.27
-56.1
-69.19
-77.62
-79.59
-73.94
-60.78
-41.79
-20.11
0.28
15.65
23.71
24.44
20.07
14.23
10.47
10.99
16.19
25.1
36.33
48.6
60.7
70.99
77.41
78.24
73.29
64.39
54.64
46.6
40.77
35.23
27.21
15.29
0.82
-12.59
-21.23
-23.54
-21.02
-17.03
-14.6
-14.76
-16.51
-18.22
-19.31
-20.88
-24.86
-32.31
-42.36
-52.22
-58.6
-59.45
-54.96
-47.24
-39.03
-32.27
-27.25
-22.82
-17.34
-9.71
-0.08
10.1
18.58
23.39
23.87
21.45
19.54
22.39
33.22
52.36
76.68
100.64
118.64
127.57
127.8
122.41
114.88
107.05
98.36
87.03
71.97
54.31
37.26
24.51
18.16
17.49
19.35
19.72
15.72
6.87
-4.98
-16.93
-26.51
-32.84
-36.67
-39.68
-43.37
-48.36
-54.28
-60.2
-65.21
-68.72
-70.41
-70.07
-67.51
-62.68
-55.87
-47.79
-39.35
-31.37
-24.35
-18.5
-13.87
-10.55
-8.68
-8.23
-8.91
-10.15
-11.24
-11.62
-10.92
-9.02
-6.01
-2.18
1.89
5.31
7.17
6.82
4.25
0.12
-4.55
-8.78
-12.1
-14.54
-16.39
-17.88
-18.97
-19.36
-18.73
-16.92
-14.01
-10.29
-6.13
-1.95
1.84
4.93
7.18
8.69
9.69
10.21
9.93
8.16
4.27
-1.67
-8.5
-14.09
-16.05
-12.74
-4.04
8.65
22.98
36.66
48.21
57.18
63.8
68.56
71.82
73.89
75.2
76.37
78.07
80.45
82.67
82.83
78.63
68.58
53.18
35.4
19.84
11.01
11.24
19.5
31.89
43.31
49.78
49.83
44.41
35.65
25.35
14.41
3.34
-6.84
-14.16
-16.47
-12.8
-4.37
5.68
13.67
17.17
16.02
11.92
7.01
2.42
-2.29
-8.67
-18.26
-31.7
-48.42
-66.93
-85.23
-101.14
-112.51
-117.43
-114.7
-104.27
-87.57
-67.32
-47
-30.03
-19.01
-15.22
-18.38
-26.74
-37.43
-47.19
-53.13
-53.64
-48.74
-39.97
-29.8
-20.69
-14.4
-11.53
-11.6
-13.41
-15.57
-17.01
-17.34
-16.85
-16.29
-16.38
-17.39
-18.91
-19.93
-19.27
-16.01
-9.88
-1.23
9.02
19.7
29.54
37.37
42.25
43.69
41.8
37.3
31.47
25.71
21.22
18.6
17.78
18.05
18.34
17.51
14.73
9.72
2.91
-4.69
-11.73
-17.1
-20.28
-21.55
-21.9
-22.55
-24.46
-28.07
-33.09
-38.73
-43.9
-47.47
-48.52
-46.69
-42.29
-36.37
-30.36
-25.43
-21.87
-18.63
-13.58
-4.24
11.15
32.72
58.56
85.16
108.35
124.53
131.79
130.4
122.65
111.94
101.68
94.22
90.3
89.11
88.57
86
78.73
64.83
43.95
17.75
-10.14
-35.06
-52.89
-61.54
-61.68
-56.23
-48.97
-42.87
-39.18
-37.57
-36.97
-36.56
-36.18
-36
-35.97
-35.44
-33.3
-28.71
-21.69
-13.37
-5.48
0.44
3.68
4.49
3.61
1.56
-1.67
-6.44
-12.9
-20.49
-27.92
-33.64
-36.58
-36.53
-34.09
-30.2
-25.57
-20.57
-15.37
-10.25
-5.76
-2.43
-0.51
0.31
0.84
1.91
3.91
6.52
8.77
9.48
7.76
3.51
-2.5
-8.92
-14.34
-17.96
-19.87
-21.07
-22.96
-26.74
-32.87
-41.02
-50.26
-59.47
-67.7
-74.33
-79.27
-83.1
-87.1
-92.96
-101.99
-114.04
-126.86
-136.32
-137.74
-127.8
-106.11
-75.39
-40.3
-5.31
27.08
56.83
85.46
114.31
143.07
169.53
190.48
203.15
206.24
199.99
185.49
163.98
136.88
106.61
77.28
54.34
42.54
43.3
53.11
64.38
68.8
61.38
42.97
19.62
-0.82
-12.89
-15.85
-13.21
-9.91
-9.21
-11.15
-13.3
-12.98
-9.26
-3.51
1.59
3.85
2.82
0.03
-2.16
-1.91
1.08
5.45
9.04
10.07
8.06
3.94
-0.41
-3.15
-3.34
-1.23
1.93
4.56
5.52
4.57
2.41
0.32
-0.5
0.54
3.27
6.88
10.42
13.19
14.99
15.98
16.49
16.69
16.53
15.82
14.45
12.53
10.44
8.61
7.39
6.86
6.86
7.07
7.15
6.87
6.07
4.69
2.67
-0.02
-3.3
-7
-10.77
-14.12
-16.59
-17.83
-17.81
-16.84
-15.46
-14.3
-13.81
-14.19
-15.28
-16.73
-18.1
-18.98
-19.08
-18.28
-16.65
-14.42
-11.99
-9.8
-8.18
-7.25
-6.82
-6.52
-5.91
-4.72
-2.96
-0.92
0.92
2.1
2.3
1.53
0.07
-1.66
-3.28
-4.58
-5.61
-6.52
-7.52
-8.65
-9.71
-10.39
-10.34
-9.37
-7.54
-5.15
-2.57
-0.18
1.71
2.92
3.34
2.96
1.9
0.42
-1.09
-2.19
-2.58
-2.19
-1.24
-0.17
0.56
0.63
-0.04
-1.25
-2.64
-3.78
-4.39
-4.41
-4.08
-3.77
-3.91
-4.74
-6.22
-8.05
-9.76
-10.93
-11.23
-10.6
-9.16
-7.17
-4.94
-2.8
-1.03
0.18
0.76
0.75
0.27
-0.51
-1.44
-2.38
-3.19
-3.78
-4.09
-4.13
-3.91
-3.51
-2.98
-2.36
-1.67
-0.96
-0.28
0.28
0.66
0.84
0.78
0.5
-0.04
-0.84
-1.8
-2.65
-2.94
-2.27
-0.45
2.34
5.64
8.97
12.12
15.21
18.48
22.02
25.56
28.65
30.99
32.74
34.46
36.69
39.48
42.17
43.68
43.13
40.37
36.11
31.54
27.67
24.79
22.47
19.85
16.24
11.38
5.53
-0.72
-6.75
-12.12
-16.69
-20.62
-24.26
-28.05
-32.22
-36.71
-40.98
-44.24
-45.66
-44.81
-41.77
-37.15
-31.84
-26.65
-22.08
-18.29
-15.26
-12.91
-11.23
-10.29
-10.08
-10.43
-10.97
-11.27
-11
-10.14
-9
-8.12
-7.97
-8.67
-9.9
-11.02
-11.48
-11.07
-10.1
-9.16
-8.8
-9.18
-9.98
-10.58
-10.36
-9.01
-6.61
-3.54
-0.34
2.55
4.73
6
6.24
5.47
3.88
1.87
-0.02
-1.19
-1.19
0.06
2.24
4.63
6.49
7.27
6.87
5.64
4.1
2.73
1.7
0.9
0.07
-0.96
-2.19
-3.45
-4.6
-5.64
-6.66
-7.82
-9.07
-10.15
-10.61
-10.07
-8.34
-5.64
-2.52
0.33
2.32
3.17
2.96
2.04
0.88
-0.1
-0.66
-0.77
-0.62
-0.53
-0.79
-1.63
-3
-4.67
-6.22
-7.19
-7.29
-6.55
-5.37
-4.44
-4.52
-6.05
-8.8
-11.77
-13.43
-12.35
-7.88
-0.67
7.47
14.25
17.82
17.54
14.11
9.14
4.34
0.8
-1.25
-2.3
-3.12
-4.35
-6.34
-9.13
-12.49
-16.01
-19.07
-20.92
-20.9
-18.8
-15
-10.53
-6.59
-4.05
-2.85
-2.07
-0.37
3.04
7.65
11.55
12.42
8.94
2.07
-4.82
-7.22
-1.56
13
33.88
56.15
74.57
85.6
88.45
84.71
77.12
68.11
59.05
50.3
41.81
33.69
26.35
20.09
14.75
9.52
3.33
-4.39
-13.14
-21.31
-26.95
-28.74
-26.74
-22.17
-16.56
-10.52
-3.5
5.35
15.67
24.64
27.28
18.31
-5.26
-42.19
-86.84
-130.83
-165.86
-186.21
-189.93
-178.57
-155.71
-125.4
-91.18
-55.86
-21.87
8.23
31.77
46.61
52.1
49.95
44.14
39.72
40.85
49.01
62.37
76.69
87.35
91.34
88.39
80.73
71.61
63.89
58.84
56.16
54.64
53.1
50.87
47.81
43.86
38.71
31.88
23.15
13.1
3.14
-5
-10.34
-13.48
-16.65
-22.68
-33.37
-48.23
-64.45
-78.15
-86.38
-88.51
-86.36
-82.91
-80.61
-80.15
-80.53
-80.07
-77.7
-73.71
-69.45
-66.35
-64.93
-64.47
-63.34
-59.96
-53.8
-45.78
-38.03
-32.91
-31.9
-34.72
-39.25
-42.23
-40.43
-31.83
-16.13
5.31
30.07
55.46
79.05
99.01
114.13
123.74
127.58
125.84
119.22
109
97.04
85.4
75.84
69.28
65.56
63.66
62.24
60.24
57.22
53.35
49.03
44.56
40.07
35.6
31.21
26.94
22.59
17.58
11.07
2.33
-8.7
-20.99
-32.58
-41.08
-44.61
-42.58
-36
-27.13
-18.62
-12.61
-9.98
-10.41
-12.86
-16.36
-20.47
-25.3
-31.01
-37.3
-43.07
-46.69
-46.61
-42.01
-33.25
-21.72
-9.37
1.91
10.78
16.53
18.98
18.25
14.61
8.57
0.87
-7.41
-15.02
-20.77
-23.81
-23.85
-21.22
-16.77
-11.6
-6.72
-2.75
0.21
2.52
4.75
7.37
10.51
13.84
16.73
18.43
18.47
16.82
13.92
10.5
7.27
4.69
2.91
1.95
1.8
2.53
4.15
6.45
8.8
10.36
10.42
8.84
6.15
3.28
1.1
-0.08
-0.6
-1.1
-2.1
-3.65
-5.39
-6.87
-7.91
-8.68
-9.59
-10.89
-12.45
-13.85
-14.56
-14.42
-13.65
-12.86
-12.66
-13.35
-14.77
-16.34
-17.42
-17.65
-17.17
-16.55
-16.54
-17.61
-19.69
-22.16
-24.18
-25.15
-24.99
-24.19
-23.43
-23.1
-23.08
-22.7
-21.15
-17.91
-13
-6.98
-0.71
4.97
9.43
12.32
13.46
12.8
10.35
6.18
0.44
-6.57
-14.37
-22.34
-29.7
-35.67
-39.55
-40.85
-39.41
-35.37
-29.31
-22.26
-15.64
-11.03
-9.78
-12.43
-18.21
-24.91
-29.28
-27.99
-18.87
-1.84
20.78
44.92
66.1
80.9
88.15
89.08
86.57
83.8
82.97
84.56
87.46
89.66
89.14
84.46
74.85
60.21
41.03
18.7
-4.19
-23.93
-36.53
-39.3
-32.26
-18.64
-3.73
7.28
11.52
9.34
3.43
-3.07
-8.28
-12.04
-15.07
-17.65
-19
-17.8
-13.33
-6.19
1.99
9.61
16.17
22.29
28.83
35.81
41.98
45.44
44.88
40.43
33.53
26.02
19.08
12.93
7.22
1.77
-2.96
-6.16
-7.33
-6.82
-5.91
-6.25
-9.04
-14.5
-21.72
-29.16
-35.26
-39.1
-40.68
-40.88
-40.95
-41.97
-44.37
-47.8
-51.29
-53.75
-54.25
-52.28
-47.63
-40.37
-30.83
-19.69
-8.02
2.84
11.6
17.38
19.96
19.79
17.78
14.98
12.42
10.88
10.84
12.44
15.35
18.85
22.02
24.11
24.84
24.55
23.94
23.66
23.9
24.3
24.36
23.92
23.49
24.07
26.48
30.65
35.38
38.81
39.44
36.94
32.39
27.52
23.73
21.28
19.37
16.9
13.34
9.06
5.03
1.92
-0.42
-2.84
-6.23
-10.68
-15.26
-18.54
-19.44
-17.92
-14.99
-11.99
-9.76
-8.18
-6.5
-4.03
-1
1.43
1.6
-1.6
-8.02
-16.12
-23.61
-28.49
-29.83
-28
-24.18
-19.63
-15.09
-10.71
-6.36
-2.11
1.62
4.28
5.6
5.95
6.16
7.09
9.09
11.72
14.04
15.1
14.57
12.84
10.85
9.59
9.53
10.44
11.42
11.31
9.1
4.29
-2.89
-11.49
-20.03
-26.91
-30.82
-31.13
-28.09
-22.73
-16.61
-11.36
-8.24
-7.79
-9.79
-13.34
-17.13
-19.83
-20.35
-17.98
-12.45
-4.09
6.16
16.78
25.97
32.12
34.3
32.61
28.12
22.32
16.57
11.57
7.24
3.07
-1.47
-6.5
-11.63
-16.07
-18.97
-19.73
-18.3
-15.11
-10.99
-6.62
-2.29
2.34
7.95
14.94
22.94
30.66
36.31
38.46
36.84
32.71
28.61
27.62
32.44
44.83
65.15
92.35
123.95
156.16
184.25
203.34
209.45
200.75
178.24
145.35
106.8
66.81
27.53
-11.52
-52.61
-97.63
-145.75
-192.25
-229.49
-249.73
-248.54
-227.03
-191.43
-150.53
-112.22
-81.06
-57.89
-41.39
-30.14
-23.84
-23.02
-27.71
-36.14
-44.7
-49.12
-46.22
-35.4
-18.88
-1.04
13.43
21.24
21.69
16.51
8.93
2.01
-2.62
-5.17
-7.25
-10.65
-16.38
-24.07
-32.35
-39.5
-44.28
-46.39
-46.28
-44.74
-42.32
-39.09
-34.73
-29.02
-22.31
-15.64
-10.47
-7.94
-8.28
-10.61
-13.32
-14.88
-14.5
-12.37
-9.3
-6.12
-3.22
-0.4
2.82
6.77
11.29
15.69
19.05
20.59
20
17.47
13.6
9.17
4.87
1.26
-1.31
-2.56
-2.28
-0.4
2.97
7.45
12.45
17.29
21.41
24.41
26.09
26.31
25.03
22.33
18.53
14.23
10.22
7.25
5.7
5.51
6.21
7.19
7.94
8.19
7.91
7.16
6
4.38
2.31
-0.15
-2.78
-5.28
-7.31
-8.63
-9.04
-8.47
-6.91
-4.45
-1.34
2.11
5.51
8.57
11.11
13.12
14.66
15.72
16.21
16.01
15.12
13.74
12.28
11.19
10.74
10.85
11.19
11.31
10.87
9.83
8.38
6.87
5.61
4.73
4.12
3.55
2.73
1.44
-0.38
-2.62
-5.02
-7.2
-8.8
-9.5
-9.11
-7.62
-5.17
-2
1.51
4.91
7.66
9.15
8.86
6.56
2.46
-2.81
-8.27
-13.04
-16.58
-18.92
-20.55
-22.12
-24.12
-26.73
-29.84
-33.25
-36.87
-40.68
-44.66
-48.61
-52.02
-54.22
-54.62
-52.91
-49.12
-43.59
-36.66
-28.65
-19.74
-10.12
0.04
10.69
22
34.38
48.16
63.19
78.47
92.18
102.18
106.68
104.89
97.29
85.45
71.47
57.4
44.81
34.58
26.88
21.42
17.63
15
13.19
12.05
11.52
11.42
11.39
11
9.87
7.83
4.98
1.63
-1.76
-4.69
-6.59
-7.02
-5.78
-3.04
0.61
4.36
7.47
9.58
10.82
11.69
12.77
14.4
16.46
18.51
20.04
20.73
20.65
20.2
19.84
19.9
20.4
21.08
21.59
21.72
21.46
21.05
20.76
20.8
21.16
21.66
22.03
22
21.42
20.33
19.02
18.02
18.09
19.92
23.85
29.62
36.22
42.2
46.08
46.85
44.29
38.89
31.45
22.55
12.29
0.4
-13.33
-28.55
-44.03
-58
-68.72
-75.16
-77.43
-76.55
-74
-71.17
-68.88
-67.28
-65.93
-63.94
-60.21
-53.88
-44.74
-33.57
-22.08
-12.42
-6.48
-5.19
-8.24
-14.36
-21.69
-28.4
-32.96
-34.33
-32.14
-26.86
-19.86
-13.2
-8.99
-8.67
-12.37
-18.81
-25.74
-30.68
-31.75
-28.27
-20.86
-11.25
-1.7
5.65
9.41
9.28
5.99
1.05
-3.88
-7.5
-9.08
-8.51
-6.1
-2.36
2.05
6.32
9.57
11.19
11.09
9.93
8.87
9.11
11.2
14.81
18.88
22.17
23.82
23.65
22.06
19.73
17.32
15.29
13.91
13.3
13.28
13.41
12.99
11.27
7.81
2.72
-3.24
-8.9
-13.05
-14.92
-14.46
-12.35
-9.71
-7.7
-7.09
-8.06
-10.24
-12.98
-15.63
-17.72
-18.97
-19.18
-18.21
-16
-12.75
-8.93
-5.26
-2.42
-0.85
-0.47
-0.83
-1.24
-1.14
-0.32
1
2.32
3.07
2.9
1.79
0.01
-1.96
-3.71
-4.98
-5.78
-6.26
-6.62
-7.07
-7.72
-8.74
-10.24
-12.31
-14.92
-17.82
-20.57
-22.56
-23.27
-22.35
-19.82
-15.99
-11.46
-6.85
-2.67
0.77
3.42
5.41
6.94
8.2
9.35
10.45
11.58
12.78
14.11
15.5
16.8
17.77
18.15
17.77
16.72
15.32
14.01
13.12
12.72
12.51
11.93
10.49
7.95
4.49
0.58
-3.21
-6.41
-8.72
-9.97
-10.01
-8.76
-6.26
-2.81
1.08
4.77
7.77
9.83
10.99
11.46
11.44
11
10.17
8.93
7.4
5.76
4.25
3.08
2.28
1.77
1.33
0.73
-0.2
-1.47
-3.03
-4.82
-6.85
-9.24
-12.04
-15.14
-18.19
-20.6
-21.84
-21.66
-20.2
-17.93
-15.37
-12.81
-10.25
-7.49
-4.44
-1.31
1.43
3.24
3.82
3.32
2.21
1.08
0.32
0.04
0.06
0.13
0.03
-0.31
-0.87
-1.62
-2.49
-3.47
-4.56
-5.77
-7.17
-8.87
-10.91
-13.26
-15.68
-17.81
-19.19
-19.42
-18.21
-15.5
-11.43
-6.41
-1.05
3.94
7.84
10.14
10.72
9.87
8.21
6.48
5.26
4.87
5.3
6.37
7.8
9.34
10.77
11.89
12.59
12.76
12.43
11.72
10.84
9.96
9.15
8.35
7.33
5.89
3.92
1.54
-0.94
-3.09
-4.54
-5.16
-5.02
-4.38
-3.47
-2.4
-1.12
0.44
2.21
3.92
5.07
5.15
3.82
1.12
-2.52
-6.41
-9.85
-12.44
-14.22
-15.67
-17.44
-20.06
-23.73
-28.33
-33.6
-39.21
-44.59
-48.71
-50.08
-47.08
-38.49
-24.16
-5.1
16.76
39.05
59.38
75.51
85.47
87.87
82.49
70.9
56.62
44.38
38.79
42.7
56.33
77.11
100.47
120.98
133.53
134.47
122.45
98.97
68.26
36.39
9.44
-8.44
-16.53
-17.52
-16.21
-17.29
-23.49
-34.8
-49.22
-64.22
-78.02
-89.97
-99.95
-107.37
-110.78
-108.28
-98.78
-83.19
-64.54
-47
-34
-26.68
-23.35
-20.57
-15.04
-5.39
7.06
19.16
27.66
30.93
29.63
26.2
23.38
22.87
24.82
28.21
31.79
34.82
37.17
38.91
39.84
39.29
36.58
31.53
24.82
17.83
11.95
7.93
5.55
3.88
1.93
-0.82
-4.27
-8.03
-11.86
-15.81
-20.01
-24.21
-27.74
-29.86
-30.49
-30.68
-32.29
-36.92
-44.68
-53.56
-60.06
-60.82
-54.28
-41.54
-25.75
-10.5
1.81
10.79
17.47
23.16
28.21
31.88
33.01
31.08
26.97
22.82
21.01
23.06
28.81
36.55
43.87
48.76
50.38
49.13
46.06
42.17
37.92
33.3
28.2
22.84
17.85
14.01
11.71
10.71
10.21
9.36
7.66
5.11
1.98
-1.59
-5.63
-10.23
-15.1
-19.39
-21.99
-22.18
-20.19
-17.34
-15.44
-15.81
-18.5
-22.18
-24.77
-24.49
-20.74
-14.34
-7.05
-0.68
3.59
5.53
5.6
4.46
2.55
-0
-3.24
-7.02
-10.85
-13.88
-15.16
-14.1
-10.81
-6.2
-1.76
0.95
0.94
-1.79
-6.28
-11
-14.47
-15.98
-15.7
-14.55
-13.6
-13.51
-14.11
-14.61
-13.95
-11.43
-7.1
-1.66
3.88
8.71
12.57
15.65
18.3
20.59
22.17
22.45
21
17.95
14.01
10.18
7.29
5.61
4.77
4.1
3.04
1.44
-0.4
-1.96
-2.87
-3.08
-2.9
-2.73
-2.81
-3.16
-3.6
-4.05
-4.59
-5.49
-7.02
-9.18
-11.59
-13.55
-14.27
-13.24
-10.44
-6.38
-1.95
1.89
4.41
5.33
4.8
3.32
1.51
-0.15
-1.36
-2.07
-2.35
-2.3
-1.97
-1.4
-0.65
0.17
0.88
1.35
1.5
1.36
1.03
0.61
0.19
-0.25
-0.8
-1.67
-3.05
-5.1
-7.88
-11.28
-15.09
-18.95
-22.49
-25.33
-27.12
-27.66
-26.89
-24.99
-22.4
-19.8
-17.96
-17.52
-18.74
-21.49
-25.34
-29.77
-34.38
-38.85
-42.94
-46.4
-49.02
-50.79
-52.01
-53.2
-54.85
-57.07
-59.5
-61.47
-62.39
-62.07
-60.72
-58.69
-55.93
-51.77
-44.98
-34.19
-18.56
1.79
25.56
50.61
74.52
95.25
111.58
123.16
130.44
134.32
135.95
136.52
136.97
137.76
138.43
137.52
132.8
122.25
105.13
82.9
59.08
38.2
24.07
18.23
19.28
23.48
26.36
24.61
17.35
6.14
-6.16
-17.17
-26.15
-34.03
-42.41
-52
-61.67
-68.7
-69.98
-63.57
-49.69
-30.63
-9.72
9.78
25.5
36.04
40.72
39.44
32.63
21.41
7.49
-7.15
-20.73
-31.93
-40.05
-44.82
-46.32
-45.01
-41.73
-37.7
-34.18
-32.02
-31.35
-31.49
-31.39
-30.12
-27.36
-23.43
-19
-14.78
-11.3
-8.91
-7.81
-8.15
-9.84
-12.44
-15.24
-17.38
-18.22
-17.49
-15.31
-12.1
-8.41
-4.74
-1.49
1.21
3.52
5.89
8.77
12.34
16.34
20.17
23.32
25.71
27.84
30.48
34.06
38.31
42.29
44.93
45.61
44.63
43.09
42.28
43.06
45.39
48.34
50.53
50.66
47.99
42.35
33.89
22.94
9.93
-4.41
-18.78
-31.41
-40.52
-45.01
-44.84
-41
-34.82
-27.3
-18.72
-8.91
2.03
13.12
22.45
27.91
28.3
24.19
17.98
12.9
11.37
13.61
17.26
18.42
13.84
2.72
-12.67
-28.1
-39.72
-46.09
-48.71
-50.66
-54.42
-60.14
-65.62
-67.76
-64.65
-56.75
-46.61
-37.37
-31.22
-28.45
-27.82
-27.49
-26.1
-23.25
-19.43
-15.56
-12.44
-10.39
-9.26
-8.49
-7.46
-5.74
-3.33
-0.57
1.96
3.82
4.86
5.33
5.75
6.61
8.11
10.05
11.8
12.59
11.8
9.29
5.55
1.62
-1.28
-2.14
-0.64
2.81
7.21
11.41
14.41
15.54
14.55
11.52
6.94
1.8
-2.51
-4.49
-3.08
1.81
9.11
16.99
23.52
27.47
28.58
27.39
24.71
21.24
17.39
13.49
9.95
7.26
5.76
5.36
5.48
5.28
4.1
1.78
-1.25
-4.15
-6.11
-6.61
-5.59
-3.36
-0.32
3.24
7.13
11.2
15.14
18.44
20.58
21.33
20.92
20.03
19.45
19.59
20.32
21.11
21.46
21.26
20.79
20.42
20.2
19.78
18.76
17.11
15.38
14.47
15.03
17.02
19.56
21.36
21.34
19.17
15.37
11.03
7.33
5.04
4.22
4.17
3.81
2.1
-1.32
-5.94
-10.59
-14.16
-16.22
-17.25
-18.27
-20
-22.24
-23.98
-24.1
-22.34
-19.66
-17.72
-17.87
-20.22
-23.57
-26.23
-27.19
-26.8
-26.51
-27.86
-31.36
-36.09
-40.31
-42.49
-42.2
-40.14
-37.47
-34.82
-31.89
-27.76
-21.79
-14.34
-6.79
-0.9
2.23
2.7
1.74
0.88
1.13
2.58
4.5
6.05
6.82
6.97
7
7.27
7.76
8.11
7.88
6.93
5.48
3.94
2.62
1.53
0.32
-1.48
-4.12
-7.43
-10.78
-13.3
-14.28
-13.45
-11.14
-8.11
-5.27
-3.19
-2.05
-1.64
-1.65
-1.88
-2.41
-3.48
-5.24
-7.56
-10.03
-12.07
-13.19
-13.26
-12.49
-11.3
-10.2
-9.46
-9.15
-9.08
-9.01
-8.78
-8.39
-8.1
-8.31
-9.43
-11.75
-15.32
-19.87
-24.86
-29.57
-33.32
-35.61
-36.34
-35.85
-34.84
-34.16
-34.48
-36.09
-38.78
-42.02
-45.16
-47.73
-49.63
-51.12
-52.74
-55.12
-58.79
-63.95
-70.33
-77.11
-83.08
-86.97
-87.93
-85.87
-81.54
-76.25
-71.4
-67.89
-65.72
-63.88
-60.51
-53.48
-41.09
-22.78
0.48
26.36
51.83
74.12
91.52
103.69
111.42
115.95
118.32
119.04
118.25
116.12
113.12
110.04
107.71
106.58
106.5
106.84
106.92
106.33
105.33
104.56
104.73
106.11
108.41
110.87
112.68
113.26
112.42
110.27
107.07
103.17
98.98
94.93
91.25
87.86
84.31
80.15
75.48
71.3
69.41
71.71
79.16
91.04
104.96
117.54
125.61
127.11
121.44
109.19
91.73
70.76
48.46
27.29
9.67
-2.92
-10.56
-15
-18.73
-23.86
-31.49
-41.83
-54.98
-71.16
-90.24
-110.88
-130.08
-143.93
-149.33
-145.54
-134.65
-120.47
-106.63
-95.28
-86.89
-81.26
-78.38
-78.61
-81.98
-87.33
-92.36
-94.41
-91.77
-84.44
-74.02
-62.84
-53.09
-46.04
-41.94
-40.17
-39.64
-39.23
-38.09
-35.84
-32.56
-28.65
-24.62
-20.89
-17.77
-15.46
-14.09
-13.81
-14.64
-16.44
-18.85
-21.28
-23.11
-23.78
-23.02
-20.9
-17.77
-14.15
-10.6
-7.51
-5.05
-3.18
-1.75
-0.62
0.27
0.9
1.23
1.28
1.17
1.09
1.21
1.63
2.24
2.84
3.13
2.93
2.18
1.03
-0.26
-1.39
-2.18
-2.65
-3.04
-3.7
-4.93
-6.73
-8.76
-10.4
-11.06
-10.39
-8.48
-5.82
-3.04
-0.64
1.15
2.39
3.25
3.75
3.74
2.99
1.41
-0.71
-2.81
-4.21
-4.39
-3.06
-0.17
4.25
10.1
17.1
24.57
31.37
36.08
37.45
34.83
28.41
19.16
8.39
-2.62
-12.89
-21.66
-28.24
-31.78
-31.5
-27.03
-18.74
-7.92
3.54
13.69
21.12
25.31
26.57
25.57
22.98
19.26
14.7
9.67
4.78
0.73
-1.95
-3.14
-3.22
-2.81
-2.45
-2.34
-2.35
-2.22
-1.76
-1.02
-0.28
0.11
-0.08
-0.88
-2.14
-3.56
-4.79
-5.47
-5.35
-4.31
-2.48
-0.22
1.92
3.37
3.76
3.1
1.73
0.23
-0.93
-1.61
-2.08
-2.83
-4.22
-6.2
-8.2
-9.39
-9.1
-7.25
-4.43
-1.74
-0.3
-0.82
-3.39
-7.57
-12.69
-18.08
-22.99
-26.45
-27.32
-24.54
-17.74
-7.76
3.37
13.05
19.2
21.13
19.81
17.25
15.45
15.32
16.42
17.36
16.73
13.97
9.66
5.31
2.53
2.41
4.99
9.43
14.37
18.52
21.11
22.04
21.65
20.4
18.62
16.37
13.59
10.35
7.03
4.27
2.79
3.08
5.15
8.42
11.89
14.49
15.51
14.79
12.78
10.24
7.87
6.06
4.76
3.66
2.36
0.64
-1.47
-3.69
-5.55
-6.53
-6.22
-4.49
-1.55
2.01
5.39
7.8
8.76
8.23
6.51
4.14
1.66
-0.48
-1.98
-2.63
-2.34
-1.13
0.79
2.98
4.96
6.27
6.74
6.51
5.98
5.63
5.74
6.26
6.76
6.72
5.67
3.5
0.45
-2.94
-6.12
-8.65
-10.32
-11.14
-11.23
-10.83
-10.25
-9.86
-10.05
-11.11
-13.09
-15.69
-18.38
-20.49
-21.5
-21.13
-19.4
-16.49
-12.72
-8.41
-3.89
0.46
4.27
7.24
9.28
10.44
10.92
10.88
10.41
9.55
8.33
6.93
5.61
4.67
4.26
4.32
4.62
4.88
4.91
4.73
4.52
4.52
4.86
5.48
6.06
6.12
5.23
3.17
0.1
-3.42
-6.64
-8.83
-9.6
-8.97
-7.32
-5.2
-3.14
-1.51
-0.49
-0.12
-0.38
-1.2
-2.49
-4.1
-5.73
-7.08
-7.77
-7.6
-6.57
-4.92
-3.11
-1.6
-0.67
-0.37
-0.49
-0.77
-0.99
-1.14
-1.27
-1.51
-1.85
-2.24
-2.55
-2.71
-2.66
-2.38
-1.82
-0.91
0.39
2.06
3.95
5.89
7.66
9.1
10.11
10.6
10.52
9.85
8.69
7.18
5.61
4.24
3.27
2.76
2.59
2.55
2.41
2.02
1.32
0.41
-0.56
-1.47
-2.26
-3
-3.78
-4.71
-5.75
-6.79
-7.66
-8.16
-8.13
-7.5
-6.24
-4.39
-2.08
0.49
3.02
5.26
6.96
7.98
8.31
8.03
7.3
6.32
5.32
4.53
4.08
4
4.17
4.41
4.52
4.38
3.98
3.34
2.51
1.52
0.37
-0.92
-2.3
-3.76
-5.27
-6.79
-8.28
-9.6
-10.6
-11.05
-10.83
-9.88
-8.29
-6.23
-3.92
-1.55
0.76
2.88
4.72
6.14
7.04
7.37
7.22
6.81
6.4
6.21
6.36
6.79
7.34
7.82
8.11
8.13
7.89
7.39
6.69
5.82
4.85
3.85
2.84
1.83
0.8
-0.28
-1.44
-2.62
-3.72
-4.55
-4.88
-4.51
-3.37
-1.55
0.61
2.72
4.43
5.57
6.19
6.46
6.56
6.58
6.5
6.26
5.88
5.42
5.01
4.73
4.55
4.35
4
3.43
2.68
1.86
1.08
0.37
-0.32
-1.12
-2.13
-3.37
-4.79
-6.3
-7.81
-9.28
-10.66
-11.89
-12.88
-13.47
-13.52
-12.97
-11.82
-10.22
-8.41
-6.64
-5.14
-4.06
-3.45
-3.26
-3.43
-3.86
-4.45
-5.07
-5.61
-5.95
-6.03
-5.9
-5.71
-5.62
-5.8
-6.28
-6.99
-7.78
-8.5
-9.12
-9.67
-10.29
-11.08
-12.13
-13.44
-14.91
-16.38
-17.6
-18.28
-18.21
-17.3
-15.65
-13.55
-11.37
-9.37
-7.68
-6.21
-4.85
-3.5
-2.23
-1.2
-0.54
-0.23
-0.07
0.22
0.85
1.85
3.09
4.31
5.35
6.15
6.75
7.21
7.5
7.47
6.99
5.99
4.51
2.75
0.88
-0.93
-2.54
-3.79
-4.48
-4.4
-3.43
-1.67
0.57
2.83
4.67
5.82
6.23
6.04
5.5
4.85
4.27
3.86
3.65
3.63
3.73
3.82
3.78
3.48
2.86
1.99
0.98
0.01
-0.78
-1.32
-1.67
-1.97
-2.41
-3.16
-4.32
-5.86
-7.62
-9.31
-10.57
-11.08
-10.68
-9.38
-7.41
-5.11
-2.79
-0.71
1.04
2.51
3.74
4.79
5.65
6.32
6.76
6.99
7.01
6.87
6.59
6.24
5.85
5.46
5.05
4.53
3.83
2.88
1.71
0.42
-0.82
-1.89
-2.74
-3.44
-4.16
-5.01
-6.08
-7.28
-8.36
-8.96
-8.76
-7.57
-5.49
-2.85
-0.12
2.34
4.35
5.93
7.18
8.08
8.51
8.31
7.46
6.21
4.98
4.25
4.23
4.8
5.56
6.03
5.91
5.18
4.07
2.92
1.94
1.16
0.43
-0.45
-1.61
-3.05
-4.65
-6.29
-7.88
-9.37
-10.63
-11.45
-11.52
-10.54
-8.34
-5.08
-1.22
2.58
5.61
7.33
7.51
6.25
3.98
1.36
-0.95
-2.44
-2.99
-2.95
-2.97
-3.71
-5.54
-8.3
-11.35
-13.9
-15.34
-15.6
-15.13
-14.7
-15.16
-17.19
-21.1
-26.62
-32.66
-37.26
-37.9
-32.31
-19.48
-0.43
21.84
43.37
60.6
71.63
76.64
77.24
75.37
72.28
68.17
62.54
54.91
45.41
34.85
24.4
15.01
7.01
0.02
-6.73
-13.99
-22.05
-30.62
-38.92
-45.9
-50.58
-52.28
-50.64
-45.85
-38.6
-30.1
-21.9
-15.42
-11.49
-9.97
-9.87
-9.78
-8.54
-5.77
-1.93
2.07
5.41
7.82
9.7
11.83
14.9
19.01
23.55
27.41
29.49
29.27
27.18
24.44
22.6
22.85
25.56
30.12
35.12
38.65
38.47
32.27
18.29
-3.8
-31.86
-61.06
-84.92
-97.47
-95.54
-80.11
-55.84
-28.95
-4.85
13.57
25.94
33.43
37.4
38.74
38.05
36.08
34.03
33.17
34.24
36.96
40.19
42.55
43.12
41.79
39.22
36.34
33.86
32.09
30.99
30.38
30.1
29.96
29.63
28.61
26.26
22.12
16.13
8.72
0.66
-7.28
-14.62
-21.29
-27.39
-32.91
-37.54
-40.74
-42.09
-41.67
-40.25
-39
-38.89
-40.12
-41.91
-42.78
-41.36
-37.11
-30.72
-23.88
-18.55
-16.09
-16.64
-19.14
-21.85
-23.22
-22.58
-20.36
-17.81
-16.2
-16.23
-17.61
-19.33
-20.29
-19.92
-18.51
-17.04
-16.55
-17.58
-20
-23.03
-25.74
-27.43
-27.77
-26.73
-24.38
-20.72
-15.73
-9.54
-2.52
4.62
11.04
15.97
18.89
19.69
18.61
16.22
13.22
10.34
8.18
7.06
7
7.71
8.67
9.36
9.43
8.86
7.88
6.87
6.11
5.68
5.36
4.81
3.69
1.89
-0.46
-2.91
-4.93
-6.02
-5.87
-4.46
-1.98
1.18
4.62
7.89
10.65
12.65
13.78
14.04
13.56
12.51
11.17
9.75
8.44
7.38
6.6
6.08
5.71
5.33
4.76
3.9
2.76
1.41
-0.08
-1.67
-3.41
-5.33
-7.43
-9.62
-11.77
-13.8
-15.7
-17.5
-19.2
-20.63
-21.5
-21.5
-20.43
-18.3
-15.39
-12.17
-9.2
-7.04
-6.07
-6.45
-7.94
-9.99
-11.88
-13
-13.11
-12.47
-11.68
-11.38
-11.86
-12.96
-14.15
-14.79
-14.61
-13.87
-13.27
-13.64
-15.58
-19.34
-24.81
-31.57
-38.75
-44.79
-47.44
-44.15
-33.04
-13.95
11.1
38.36
63.68
84.15
99.02
109.38
116.84
122.08
124.3
121.92
114.1
101.99
88.68
77.98
72.6
72.76
76.18
79.31
79.09
74.19
65.33
54.51
43.82
34.61
27.1
20.75
14.7
8.35
1.54
-5.36
-11.73
-16.98
-20.89
-23.76
-26.25
-28.99
-32.22
-35.53
-38.07
-39.02
-37.99
-35.24
-31.54
-27.67
-24.06
-20.62
-16.98
-12.82
-8.28
-3.98
-0.76
0.7
0.3
-1.44
-3.54
-4.93
-4.86
-3.17
-0.33
2.76
5.03
5.69
4.43
1.56
-2.14
-5.7
-8.28
-9.48
-9.33
-8.27
-6.83
-5.48
-4.48
-3.92
-3.77
-3.97
-4.46
-5.09
-5.66
-5.82
-5.29
-3.89
-1.76
0.73
3.04
4.68
5.37
5.13
4.26
3.15
2.18
1.55
1.27
1.2
1.19
1.13
0.99
0.8
0.58
0.28
-0.16
-0.77
-1.5
-2.25
-2.96
-3.62
-4.29
-5.09
-6.06
-7.22
-8.5
-9.85
-11.16
-12.29
-13
-13.04
-12.25
-10.64
-8.42
-5.9
-3.37
-0.99
1.13
2.93
4.26
4.99
5.06
4.59
3.85
3.13
2.66
2.46
2.47
2.55
2.66
2.77
2.9
3
2.94
2.61
1.99
1.17
0.33
-0.35
-0.85
-1.23
-1.67
-2.35
-3.39
-4.79
-6.43
-8.08
-9.44
-10.22
-10.2
-9.28
-7.56
-5.28
-2.78
-0.4
1.62
3.18
4.25
4.9
5.22
5.28
5.19
5.05
4.91
4.82
4.75
4.64
4.43
4.08
3.61
3.1
2.6
2.13
1.63
1.01
0.2
-0.81
-1.92
-3.04
-4.13
-5.16
-6.14
-7.05
-7.85
-8.53
-9.06
-9.49
-9.81
-9.85
-9.33
-7.87
-5.28
-1.69
2.36
6.1
8.83
10.22
10.49
10.26
10.33
11.32
13.43
16.44
19.74
22.56
24.28
24.61
23.66
21.92
19.98
18.31
17.03
15.94
14.63
12.66
9.72
5.71
0.75
-4.81
-10.43
-15.48
-19.45
-22.08
-23.51
-24.16
-24.52
-24.77
-24.78
-24.12
-22.51
-20.05
-17.34
-15.2
-14.29
-14.69
-15.89
-17.01
-17.16
-15.83
-13.01
-9.07
-4.58
-0.03
4.32
8.41
12.26
15.84
18.87
20.87
21.33
19.9
16.68
12.16
7.17
2.57
-0.99
-3.24
-4.26
-4.4
-4.15
-3.99
-4.33
-5.36
-6.97
-8.78
-10.31
-11.22
-11.4
-11.04
-10.45
-9.87
-9.44
-9.15
-9.07
-9.41
-10.44
-12.35
-15.09
-18.28
-21.35
-23.78
-25.32
-26.11
-26.56
-27.22
-28.45
-30.36
-32.76
-35.3
-37.65
-39.69
-41.47
-43.26
-45.29
-47.65
-50.15
-52.3
-53.37
-52.65
-49.63
-44.17
-36.49
-27.01
-16.16
-4.2
8.77
22.66
37.3
52.21
66.63
79.6
90.1
97.22
100.41
99.56
95.25
88.59
81.04
73.96
68.24
64.05
61.04
58.57
56.12
53.45
50.43
47
42.98
38.26
32.95
27.48
22.52
18.63
15.93
14.07
12.43
10.47
8.12
5.72
3.87
3.04
3.42
4.78
6.7
8.71
10.42
11.56
11.96
11.51
10.17
8.06
5.44
2.72
0.37
-1.28
-2.14
-2.37
-2.38
-2.6
-3.29
-4.45
-5.78
-6.92
-7.72
-8.42
-9.62
-11.97
-15.81
-20.9
-26.43
-31.36
-34.85
-36.55
-36.69
-35.8
-34.46
-32.96
-31.34
-29.48
-27.33
-25
-22.81
-21.11
-20.13
-19.88
-20.11
-20.45
-20.53
-20.2
-19.52
-18.78
-18.3
-18.29
-18.7
-19.3
-19.76
-19.9
-19.75
-19.56
-19.59
-19.97
-20.59
-21.2
-21.55
-21.59
-21.44
-21.26
-21.1
-20.79
-20.1
-18.9
-17.27
-15.46
-13.74
-12.21
-10.81
-9.46
-8.28
-7.64
-8
-9.66
-12.52
-15.96
-19.15
-21.27
-21.9
-21.02
-19.03
-16.46
-13.86
-11.62
-9.93
-8.84
-8.3
-8.22
-8.53
-9.22
-10.32
-11.88
-13.93
-16.36
-18.88
-21.1
-22.65
-23.37
-23.33
-22.82
-22.16
-21.56
-21.04
-20.56
-20.1
-19.86
-20.11
-21.12
-22.9
-25.15
-27.36
-28.91
-29.38
-28.59
-26.69
-24.05
-21.18
-18.59
-16.6
-15.31
-14.57
-14.04
-13.31
-12.06
-10.07
-7.28
-3.63
0.92
6.42
12.82
19.91
27.35
34.67
41.49
47.59
52.91
57.45
61.16
63.81
65.04
64.52
62.07
57.83
52.1
45.24
37.41
28.56
18.49
7.13
-5.17
-17.62
-29.18
-38.97
-46.61
-52.16
-55.89
-57.81
-57.55
-54.55
-48.6
-40.31
-31.14
-22.92
-17.05
-13.94
-12.93
-12.86
-12.66
-11.83
-10.29
-7.91
-4.15
1.79
10.28
20.65
31.12
39.51
44.52
46.44
47.1
48.6
51.92
56.03
58.43
56.68
50.08
40.34
30.93
25.32
25.39
30.75
39.28
48.2
55.07
58.24
56.75
50.25
39.02
24.2
7.79
-7.65
-19.73
-26.85
-28.66
-25.98
-20.39
-13.77
-7.82
-3.78
-2.29
-3.27
-6.05
-9.57
-12.77
-14.92
-15.79
-15.6
-14.78
-13.66
-12.33
-10.72
-8.68
-6.11
-3.12
-0
2.84
4.97
6.11
6.16
5.19
3.42
1.14
-1.36
-3.8
-6.01
-7.91
-9.48
-10.74
-11.62
-11.91
-11.33
-9.63
-6.71
-2.8
1.62
5.91
9.46
11.91
13.18
13.43
12.93
11.92
10.57
8.98
7.22
5.42
3.67
2.07
0.64
-0.69
-1.99
-3.32
-4.61
-5.73
-6.51
-6.83
-6.77
-6.51
-6.33
-6.45
-6.93
-7.69
-8.59
-9.49
-10.4
-11.36
-12.32
-13.06
-13.2
-12.29
-10.04
-6.49
-1.98
2.93
7.6
11.57
14.51
16.31
17.01
16.79
15.94
14.78
13.65
12.83
12.48
12.61
13.08
13.66
14.05
14
13.33
12.06
10.3
8.27
6.22
4.29
2.58
1.09
-0.18
-1.27
-2.21
-3.16
-4.3
-5.85
-7.9
-10.31
-12.66
-14.37
-14.89
-13.9
-11.43
-7.87
-3.75
0.41
4.27
7.7
10.63
12.99
14.66
15.56
15.65
15.08
14.13
13.13
12.36
11.99
12.09
12.64
13.53
14.52
15.32
15.65
15.39
14.63
13.7
12.95
12.61
12.68
12.94
13.08
12.82
12
10.5
8.4
6.16
4.66
5.17
8.77
15.66
24.81
34.09
41
43.52
40.72
32.73
20.48
5.23
-11.54
-28
-42.05
-51.65
-55.6
-54.23
-49.52
-44.41
-41.59
-42.4
-46.42
-51.93
-56.79
-59.34
-58.76
-54.9
-48
-38.48
-27.03
-14.83
-3.53
5.15
10.03
11.02
9.2
6.43
4.55
4.83
7.65
12.68
19.22
26.53
34.04
41.4
48.48
55.21
61.51
67.18
71.85
75.17
76.88
77.03
75.85
73.61
70.44
66.24
60.9
54.43
47.09
39.23
31.06
22.41
12.93
2.34
-9.17
-20.83
-31.52
-40.26
-46.61
-50.81
-53.46
-55.15
-56.02
-55.85
-54.25
-51.06
-46.56
-41.46
-36.58
-32.51
-29.39
-26.99
-24.94
-23.05
-21.47
-20.67
-21.07
-22.79
-25.4
-28.06
-29.7
-29.58
-27.59
-24.29
-20.73
-18.01
-16.85
-17.48
-19.72
-23.23
-27.73
-32.9
-38.16
-42.52
-44.59
-43.1
-37.33
-27.61
-15.25
-2.22
9.63
19.09
26.01
31.13
35.54
40.15
45.22
50.38
55.01
58.68
61.46
63.81
66.14
68.31
69.6
68.95
65.61
59.58
51.66
43.07
34.86
27.61
21.31
15.64
10.26
4.91
-0.51
-6.06
-11.67
-17.14
-22.01
-25.7
-27.59
-27.29
-24.67
-19.94
-13.56
-6.19
1.3
8.01
13
15.6
15.56
13.15
9.02
3.98
-1.21
-5.98
-9.88
-12.51
-13.53
-12.75
-10.29
-6.63
-2.46
1.52
4.81
7.22
8.76
9.49
9.46
8.71
7.34
5.58
3.69
1.87
0.19
-1.43
-3.09
-4.78
-6.33
-7.54
-8.3
-8.76
-9.3
-10.33
-12.12
-14.59
-17.4
-20.08
-22.2
-23.59
-24.27
-24.34
-23.88
-22.86
-21.17
-18.72
-15.45
-11.44
-6.92
-2.29
1.93
5.2
7.17
7.83
7.52
6.8
6.13
5.75
5.52
5.11
4.25
2.88
1.29
-0.02
-0.57
-0.04
1.56
3.94
6.63
9.09
10.88
11.76
11.74
11.02
9.95
8.88
8.15
8
8.49
9.43
10.36
10.63
9.6
6.92
2.78
-2.13
-6.79
-10.27
-12.15
-12.73
-12.85
-13.67
-16.1
-20.52
-26.65
-33.73
-40.81
-47.02
-51.71
-54.46
-55.01
-53.27
-49.38
-43.81
-37.28
-30.62
-24.42
-18.91
-13.94
-9.24
-4.64
-0.29
3.5
6.54
8.87
10.88
13.02
15.56
18.43
21.25
23.5
24.72
24.66
23.26
20.64
17.09
13.03
8.97
5.32
2.27
-0.29
-2.66
-5.16
-7.88
-10.65
-13.13
-15
-16.15
-16.69
-16.8
-16.6
-16.03
-14.99
-13.45
-11.58
-9.76
-8.38
-7.69
-7.67
-8.08
-8.51
-8.57
-7.94
-6.45
-4.09
-1.08
2.13
4.95
6.82
7.41
6.76
5.28
3.55
2.11
1.23
0.86
0.76
0.68
0.52
0.47
0.81
1.82
3.54
5.77
8.1
10.04
11.23
11.44
10.66
9.03
6.82
4.35
2
0.05
-1.37
-2.31
-3.03
-3.85
-4.99
-6.44
-7.98
-9.25
-9.91
-9.82
-9.12
-8.18
-7.5
-7.62
-8.92
-11.53
-15.28
-19.65
-23.93
-27.3
-29.08
-28.83
-26.46
-22.16
-16.27
-9.19
-1.31
6.95
15.05
22.43
28.52
32.96
35.69
37.06
37.69
38.3
39.45
41.36
43.89
46.62
49.01
50.54
50.76
49.27
45.75
40.02
32.23
22.97
13.26
4.24
-3.19
-8.66
-12.36
-14.81
-16.48
-17.49
-17.62
-16.55
-14.17
-10.71
-6.67
-2.59
1.17
4.42
7.08
8.95
9.72
9.09
6.97
3.66
-0.13
-3.54
-5.79
-6.45
-5.6
-3.68
-1.45
0.34
1.12
0.64
-0.98
-3.32
-5.83
-8.02
-9.61
-10.6
-11.25
-11.95
-13.12
-15.03
-17.63
-20.52
-23.06
-24.54
-24.5
-22.95
-20.27
-17.13
-14.14
-11.63
-9.67
-8.14
-6.94
-6.04
-5.48
-5.2
-5.02
-4.62
-3.75
-2.28
-0.23
2.32
5.32
8.74
12.43
16.06
19.11
20.98
21.33
20.2
18.06
15.62
13.59
12.35
11.87
11.77
11.46
10.37
8.16
4.81
0.68
-3.54
-7.12
-9.47
-10.37
-10.02
-8.92
-7.62
-6.45
-5.52
-4.71
-3.9
-3.11
-2.5
-2.3
-2.6
-3.31
-4.18
-4.96
-5.57
-6.06
-6.46
-6.65
-6.27
-4.84
-2.07
1.91
6.51
10.89
14.29
16.38
17.27
17.35
17.03
16.44
15.47
13.87
11.58
8.83
6.16
4.23
3.5
4.1
5.78
8.05
10.43
12.53
14.1
15
15.17
14.65
13.65
12.5
11.55
10.96
10.66
10.35
9.75
8.79
7.58
6.31
5.02
3.56
1.66
-0.73
-3.43
-5.93
-7.77
-8.76
-9.09
-9.24
-9.7
-10.71
-12.19
-13.89
