22.1
19.03
16.12
13.61
11.68
10.3
9.21
8.07
6.51
4.28
1.36
-2.16
-6.02
-9.88
-13.42
-16.41
-18.8
-20.74
-22.53
-24.5
-26.91
-29.78
-32.92
-35.86
-38.04
-38.86
-37.89
-34.99
-30.33
-24.45
-18.09
-11.99
-6.76
-2.68
0.3
2.36
3.78
4.76
5.37
5.66
5.69
5.64
5.68
5.99
6.58
7.3
7.9
8.13
7.93
7.39
6.71
6.1
5.6
5.12
4.51
3.69
2.64
1.49
0.36
-0.69
-1.7
-2.74
-3.87
-5.06
-6.2
-7.17
-7.87
-8.32
-8.63
-8.97
-9.52
-10.47
-11.93
-13.91
-16.24
-18.54
-20.29
-20.95
-20.12
-17.72
-13.99
-9.45
-4.71
-0.26
3.58
6.74
9.29
11.36
13.02
14.29
15.09
15.39
15.18
14.59
13.87
13.31
13.17
13.52
14.23
15
15.53
15.63
15.32
14.8
14.32
14.02
13.9
13.79
13.52
12.96
12.12
11.1
10.02
8.87
7.57
5.94
3.88
1.38
-1.46
-4.46
-7.5
-10.43
-13.12
-15.34
-16.78
-17.1
-16.09
-13.83
-10.66
-7.09
-3.59
-0.47
2.17
4.31
5.95
7.02
7.44
7.22
6.56
5.78
5.29
5.39
6.16
7.46
8.97
10.28
11.05
11.13
10.59
9.7
8.78
8.11
7.78
7.65
7.46
6.92
5.92
4.53
2.99
1.56
0.4
-0.6
-1.69
-3.32
-5.82
-9.35
-13.78
-18.67
-23.4
-27.31
-29.87
-30.8
-30.08
-27.89
-24.53
-20.42
-15.96
-11.6
-7.73
-4.65
-2.46
-1.08
-0.3
0.12
0.32
0.36
0.21
-0.12
-0.57
-1.01
-1.29
-1.35
-1.22
-0.96
-0.67
-0.35
-0.03
0.31
0.62
0.84
0.92
0.85
0.63
0.3
-0.13
-0.59
-1.01
-1.21
-1.07
-0.48
0.5
1.67
2.71
3.31
3.22
2.27
0.49
-1.92
-4.57
-6.9
-8.41
-8.76
-7.98
-6.42
-4.65
-3.14
-2.13
-1.54
-1.13
-0.66
-0.13
0.27
0.21
-0.51
-1.85
-3.43
-4.69
-5.11
-4.44
-2.8
-0.65
1.41
2.96
3.87
4.33
4.69
5.28
6.34
7.89
9.85
12.04
14.2
15.98
17.04
17.14
16.25
14.67
12.88
11.41
10.61
10.57
11.06
11.68
11.99
11.65
10.52
8.74
6.7
4.98
4.14
4.56
6.29
9.02
12.19
15.18
17.43
18.57
18.4
16.96
14.45
11.28
7.95
4.94
2.62
1.14
0.42
0.29
0.52
0.92
1.35
1.67
1.77
1.59
1.19
0.65
0.13
-0.39
-1.05
-2.16
-3.98
-6.61
-9.81
-13.12
-15.95
-17.87
-18.76
-18.82
-18.47
-18.17
-18.25
-18.85
-19.95
-21.4
-22.96
-24.37
-25.34
-25.59
-24.91
-23.22
-20.63
-17.42
-13.99
-10.77
-8.12
-6.23
-5.09
-4.51
-4.28
-4.21
-4.28
-4.55
-5.12
-5.99
-6.98
-7.85
-8.38
-8.53
-8.46
-8.4
-8.53
-8.87
-9.3
-9.66
-9.94
-10.31
-10.99
-12.11
-13.54
-14.83
-15.39
-14.75
-12.79
-9.87
-6.71
-4.14
-2.77
-2.87
-4.24
-6.38
-8.68
-10.5
-11.34
-10.83
-8.83
-5.44
-1.03
3.84
8.58
12.68
15.86
18.03
19.26
19.66
19.4
18.7
17.78
16.91
16.33
16.13
16.28
16.58
16.82
16.77
16.32
15.43
14.2
12.78
11.33
9.91
8.49
6.96
5.19
3.13
0.89
-1.34
-3.37
-5.03
-6.32
-7.29
-8.17
-9.18
-10.51
-12.24
-14.25
-16.3
-18.07
-19.27
-19.72
-19.4
-18.32
-16.47
-13.81
-10.41
-6.46
-2.32
1.52
4.73
7.21
9.09
10.59
11.9
12.99
13.69
13.87
13.5
12.74
11.84
11.1
10.66
10.52
10.61
10.83
11.11
11.45
11.85
12.21
12.36
12.09
11.21
9.68
7.54
4.96
2.11
-0.84
-3.73
-6.41
-8.69
-10.37
-11.36
-11.72
-11.69
-11.6
-11.78
-12.48
-13.84
-15.82
-18.17
-20.44
-22.02
-22.34
-21.03
-18.13
-14.05
-9.42
-4.89
-0.9
2.35
4.83
6.6
7.72
8.25
8.29
8.01
7.54
7.04
6.61
6.36
6.38
6.74
7.38
8.13
8.69
8.82
8.47
7.8
7.1
6.62
6.41
6.32
6.07
5.46
4.46
3.18
1.84
0.54
-0.72
-2.03
-3.54
-5.32
-7.37
-9.66
-12.19
-14.92
-17.75
-20.4
-22.4
-23.21
-22.42
-19.99
-16.24
-11.8
-7.33
-3.32
0.03
2.73
4.87
6.47
7.48
7.82
7.54
6.84
6
5.3
4.87
4.72
4.74
4.82
4.9
4.98
5.11
5.26
5.32
5.17
4.64
3.65
2.24
0.51
-1.36
-3.22
-4.99
-6.68
-8.44
-10.44
-12.89
-15.88
-19.32
-22.92
-26.2
-28.62
-29.68
-29.12
-26.9
-23.25
-18.58
-13.43
-8.34
-3.8
-0.18
2.38
3.93
4.65
4.83
4.71
4.46
4.17
3.87
3.62
3.48
3.52
3.76
4.14
4.52
4.74
4.71
4.39
3.81
3
1.9
0.47
-1.35
-3.54
-5.97
-8.45
-10.89
-13.32
-15.89
-18.69
-21.66
-24.38
-26.26
-26.7
-25.36
-22.32
-18.08
-13.33
-8.72
-4.65
-1.23
1.6
3.98
5.93
7.42
8.36
8.78
8.87
8.97
9.42
10.45
12.05
13.91
15.55
16.53
16.61
15.81
14.45
12.88
11.38
10.02
8.71
7.31
5.75
4.01
2.16
0.23
-1.82
-4.07
-6.65
-9.59
-12.85
-16.15
-19.03
-20.86
-21.03
-19.16
-15.29
-9.95
-4.01
1.69
6.57
10.43
13.42
15.78
17.63
18.96
19.69
19.8
19.42
18.78
18.18
17.84
17.87
18.28
18.97
19.79
20.57
21.1
21.2
20.75
19.71
18.17
16.35
14.45
12.65
11
9.44
7.86
6.19
4.41
2.58
0.73
-1.11
-2.98
-4.93
-7.01
-9.28
-11.89
-15.01
-18.73
-22.9
-27.02
-30.21
-31.54
-30.34
-26.49
-20.52
-13.41
-6.24
0.15
5.34
9.32
12.31
14.57
16.29
17.54
18.32
18.7
18.82
18.9
19.14
19.67
20.46
21.35
22.1
22.53
22.61
22.41
22.12
21.88
21.7
21.42
20.78
19.53
17.62
15.22
12.65
10.26
8.26
6.59
5.02
3.29
1.23
-1.1
-3.52
-5.81
-7.84
-9.65
-11.41
-13.39
-15.8
-18.77
-22.3
-26.26
-30.37
-34.18
-37.12
-38.54
-37.83
-34.65
-29.08
-21.68
-13.36
-5.19
1.96
7.6
11.67
14.43
16.21
17.3
17.92
18.21
18.39
18.66
19.19
20.06
21.15
22.26
23.18
23.75
23.95
23.86
23.54
23.08
22.46
21.66
20.63
19.31
17.72
15.87
13.82
11.68
9.53
7.45
5.47
3.55
1.64
-0.35
-2.47
-4.71
-7.03
-9.4
-11.85
-14.48
-17.36
-20.42
-23.4
-25.79
-26.94
-26.34
-23.78
-19.49
-14.08
-8.31
-2.9
1.71
5.37
8.15
10.22
11.7
12.69
13.28
13.58
13.75
13.96
14.34
14.91
15.56
16.13
16.45
16.48
16.3
16.07
15.97
16.05
16.18
16.14
15.7
14.77
13.44
11.89
10.31
8.81
7.37
5.93
4.41
2.81
1.13
-0.58
-2.32
-4.05
-5.75
-7.37
-8.89
-10.41
-12.05
-13.98
-16.29
-18.94
-21.74
-24.46
-26.82
-28.51
-29.21
-28.62
-26.56
-23.1
-18.6
-13.69
-9.07
-5.33
-2.77
-1.34
-0.79
-0.83
-1.26
-2.02
-3.16
-4.68
-6.46
-8.25
-9.76
-10.83
-11.48
-11.97
-12.69
-13.97
-16.04
-18.9
-22.37
-26.16
-29.89
-33.14
-35.49
-36.57
-36.11
-34.05
-30.49
-25.64
-19.71
-12.9
-5.42
2.46
10.3
17.62
23.96
29.04
32.76
35.21
36.53
36.85
36.4
35.38
34.06
32.69
31.35
30.01
28.43
26.47
24.12
21.63
19.33
17.58
16.52
16.06
15.99
16.05
16.1
16.08
15.98
15.77
15.38
14.7
13.66
12.3
10.77
9.34
8.26
7.81
8.1
9.13
10.74
12.64
14.49
15.97
16.88
17.14
16.84
16.18
15.4
14.72
14.24
13.94
13.7
13.34
12.74
11.89
10.84
9.7
8.49
7.19
5.73
4.09
2.36
0.72
-0.64
-1.61
-2.25
-2.73
-3.32
-4.25
-5.64
-7.45
-9.52
-11.61
-13.42
-14.71
-15.21
-14.75
-13.18
-10.54
-7.06
-3.18
0.52
3.47
5.33
6.08
5.92
5.2
4.2
3.05
1.81
0.51
-0.74
-1.74
-2.33
-2.48
-2.28
-1.93
-1.55
-1.19
-0.84
-0.48
-0.22
-0.29
-0.96
-2.32
-4.23
-6.32
-8.16
-9.48
-10.28
-10.79
-11.29
-11.94
-12.69
-13.34
-13.71
-13.78
-13.7
-13.68
-13.92
-14.44
-15.18
-16
-16.79
-17.4
-17.64
-17.29
-16.16
-14.19
-11.55
-8.61
-5.79
-3.45
-1.79
-0.79
-0.32
-0.2
-0.28
-0.51
-0.94
-1.66
-2.75
-4.2
-5.87
-7.54
-9
-10.16
-11.08
-11.94
-13
-14.4
-16.15
-18.12
-20.1
-21.92
-23.49
-24.76
-25.63
-25.94
-25.41
-23.76
-20.88
-16.88
-12.16
-7.2
-2.47
1.67
5.07
7.57
9.04
9.34
8.51
6.87
5.06
3.82
3.7
4.85
6.91
9.26
11.33
12.81
13.73
14.32
14.72
14.89
14.61
13.65
12
9.95
8.01
6.61
6
6.03
6.38
6.67
6.65
6.29
5.71
5.03
4.32
3.58
2.75
1.78
0.65
-0.64
-2.04
-3.48
-4.84
-5.98
-6.83
-7.43
-7.98
-8.75
-9.97
-11.79
-14.17
-16.97
-19.96
-22.9
-25.5
-27.45
-28.44
-28.26
-26.89
-24.59
-21.88
-19.31
-17.38
-16.26
-15.84
-15.78
-15.71
-15.41
-14.87
-14.22
-13.6
-13.03
-12.37
-11.34
-9.59
-6.85
-2.95
2.04
7.86
14.11
20.37
26.28
31.68
36.55
40.96
44.9
48.29
50.92
52.56
53.05
52.35
50.54
47.65
43.69
38.61
32.44
25.33
17.62
9.81
2.48
-3.87
-8.86
-12.29
-14.17
-14.67
-14.11
-12.96
-11.67
-10.62
-10.04
-10
-10.47
-11.39
-12.8
-14.75
-17.26
-20.23
-23.43
-26.49
-29.07
-30.82
-31.58
-31.38
-30.43
-29.12
-27.81
-26.74
-25.88
-24.97
-23.62
-21.51
-18.46
-14.48
-9.73
-4.41
1.25
6.99
12.45
17.17
20.68
22.69
23.16
22.41
21.02
19.71
19.15
19.81
21.83
25.03
28.9
32.77
35.86
37.48
37.05
34.33
29.41
22.89
15.72
8.99
3.59
-0.05
-2.03
-2.89
-3.28
-3.66
-4.2
-4.81
-5.33
-5.67
-5.89
-6.16
-6.6
-7.25
-8.09
-9.06
-10.16
-11.41
-12.91
-14.68
-16.74
-19.06
-21.57
-24.2
-26.81
-29.22
-31.1
-32.05
-31.73
-29.94
-26.75
-22.5
-17.71
-12.92
-8.56
-4.85
-1.87
0.41
2.07
3.15
3.71
3.85
3.75
3.59
3.6
3.91
4.57
5.47
6.44
7.23
7.63
7.53
6.97
6.03
4.9
3.69
2.47
1.3
0.21
-0.8
-1.72
-2.66
-3.83
-5.49
-7.87
-10.99
-14.58
-18.12
-20.99
-22.63
-22.8
-21.59
-19.35
-16.5
-13.37
-10.13
-6.83
-3.56
-0.58
1.76
3.03
2.95
1.58
-0.69
-3.14
-5
-5.65
-4.8
-2.54
0.71
4.44
8.19
11.65
14.71
17.35
19.55
21.25
22.34
22.77
22.6
22.01
21.27
20.66
20.33
20.34
20.63
21.06
21.43
21.61
21.49
21.04
20.3
19.32
18.16
16.91
15.66
14.45
13.3
12.22
11.17
10.11
8.98
7.74
6.35
4.8
3.12
1.35
-0.42
-2.13
-3.67
-5
-6.13
-7.12
-8.08
-9.13
-10.36
-11.87
-13.72
-15.96
-18.55
-21.39
-24.23
-26.69
-28.28
-28.56
-27.25
-24.36
-20.19
-15.3
-10.37
-5.96
-2.38
0.3
2.25
3.71
4.87
5.84
6.65
7.32
7.98
8.78
9.87
11.3
12.91
14.46
15.66
16.31
16.41
16.13
15.67
15.21
14.76
14.26
13.59
12.68
11.59
10.39
9.21
8.12
7.12
6.14
5.06
3.83
2.43
0.91
-0.66
-2.21
-3.69
-5.11
-6.48
-7.83
-9.16
-10.52
-12.04
-13.89
-16.19
-18.86
-21.53
-23.54
-24.2
-23.07
-20.15
-15.94
-11.19
-6.63
-2.69
0.53
3.13
5.3
7.06
8.35
9.1
9.3
9.08
8.67
8.31
8.16
8.31
8.68
9.21
9.77
10.26
10.61
10.78
10.75
10.49
9.98
9.21
8.2
7
5.71
4.48
3.43
2.61
1.94
1.25
0.37
-0.82
-2.26
-3.84
-5.33
-6.63
-7.74
-8.76
-9.84
-11.09
-12.5
-14.05
-15.69
-17.35
-18.91
-20.11
-20.59
-19.96
-17.96
-14.64
-10.4
-5.85
-1.62
1.88
4.53
6.48
7.94
9.09
9.94
10.44
10.56
10.43
10.25
10.26
10.61
11.24
11.99
12.65
13.08
13.23
13.18
13
12.77
12.47
12.07
11.49
10.69
9.64
8.36
6.95
5.56
4.35
3.46
2.87
2.39
1.75
0.65
-1.03
-3.2
-5.56
-7.79
-9.66
-11.14
-12.4
-13.73
-15.36
-17.38
-19.72
-22.13
-24.3
-25.87
-26.51
-25.99
-24.25
-21.44
-17.83
-13.77
-9.58
-5.45
-1.49
2.23
5.59
8.47
10.73
12.34
13.43
14.26
15.2
16.54
18.45
20.83
23.39
25.74
27.48
28.4
28.44
27.72
26.47
24.87
23.06
21.09
19.02
16.88
14.76
12.78
10.97
9.3
7.64
5.84
3.84
1.73
-0.3
-2
-3.28
-4.21
-5.03
-6.07
-7.54
-9.51
-11.83
-14.25
-16.47
-18.22
-19.26
-19.41
-18.58
-16.78
-14.22
-11.21
-8.13
-5.33
-3.03
-1.31
-0.16
0.5
0.8
0.86
0.8
0.69
0.52
0.24
-0.19
-0.75
-1.33
-1.8
-2.03
-1.96
-1.67
-1.27
-0.92
-0.74
-0.84
-1.24
-1.86
-2.47
-2.69
-2.12
-0.44
2.44
6.31
10.75
15.15
18.9
21.37
22.08
20.81
17.65
13.04
7.72
2.48
-2
-5.29
-7.26
-7.96
-7.54
-6.19
-4.16
-1.77
0.57
2.47
3.75
4.38
4.55
4.47
4.3
4.01
3.5
2.66
1.48
0.07
-1.34
-2.57
-3.48
-4.06
-4.38
-4.55
-4.66
-4.78
-4.96
-5.22
-5.62
-6.22
-7.03
-8.09
-9.36
-10.76
-12.15
-13.39
-14.41
-15.15
-15.65
-16.04
-16.48
-17.13
-18.08
-19.24
-20.42
-21.27
-21.47
-20.72
-18.94
-16.23
-12.88
-9.24
-5.67
-2.47
0.2
2.27
3.73
4.67
5.23
5.58
5.87
6.22
6.66
7.14
7.57
7.89
8.05
8.08
8.03
7.94
7.84
7.75
7.73
7.76
7.79
7.63
7.07
5.9
4.1
1.85
-0.51
-2.59
-4.13
-5.08
-5.58
-5.92
-6.38
-7.17
-8.36
-9.83
-11.29
-12.32
-12.48
-11.53
-9.51
-6.74
-3.77
-1.21
0.43
0.75
-0.34
-2.67
-5.72
-8.79
-11.1
-12.12
-11.69
-10.07
-7.78
-5.31
-3.01
-0.99
0.7
2.06
2.99
3.42
3.39
3.08
2.66
2.25
1.77
1.04
-0.08
-1.59
-3.31
-4.93
-6.16
-6.86
-7.08
-6.98
-6.73
-6.42
-5.94
-5.13
-3.76
-1.79
0.65
3.31
5.89
8.22
10.25
12
13.53
14.82
15.78
16.33
16.45
16.19
15.65
14.91
13.99
12.87
11.56
10.15
8.76
7.52
6.48
5.61
4.83
4.02
3.07
1.91
0.51
-1.05
-2.69
-4.3
-5.78
-7.12
-8.37
-9.64
-11.03
-12.55
-14.08
-15.32
-15.99
-15.85
-14.9
-13.34
-11.47
-9.58
-7.83
-6.28
-4.86
-3.6
-2.54
-1.81
-1.44
-1.38
-1.47
-1.5
-1.37
-1.14
-0.95
-0.95
-1.16
-1.43
-1.59
-1.5
-1.21
-0.96
-0.98
-1.45
-2.35
-3.5
-4.69
-5.74
-6.55
-7.12
-7.55
-7.93
-8.43
-9.16
-10.17
-11.33
-12.32
-12.79
-12.39
-11.05
-8.93
-6.41
-3.9
-1.7
0.05
1.4
2.39
3.08
3.48
3.62
3.55
3.41
3.34
3.37
3.49
3.62
3.69
3.73
3.82
4.07
4.48
4.95
5.3
5.39
5.13
4.52
3.63
2.54
1.39
0.27
-0.72
-1.56
-2.3
-3.08
-4.03
-5.27
-6.87
-8.77
-10.81
-12.67
-13.91
-14.08
-12.85
-10.19
-6.48
-2.37
1.42
4.38
6.39
7.65
8.54
9.33
10.1
10.71
10.99
10.84
10.37
9.8
9.4
9.31
9.57
10.05
10.54
10.85
10.86
10.56
9.97
9.18
8.21
7.08
5.79
4.34
2.81
1.27
-0.22
-1.61
-2.91
-4.11
-5.22
-6.25
-7.23
-8.18
-9.23
-10.53
-12.22
-14.37
-16.81
-19.14
-20.82
-21.28
-20.21
-17.66
-14.01
-9.87
-5.81
-2.23
0.67
2.86
4.36
5.22
5.54
5.46
5.19
4.99
5.02
5.33
5.92
6.65
7.43
8.13
8.64
8.87
8.76
8.3
7.54
6.63
5.7
4.88
4.19
3.56
2.85
1.93
0.76
-0.59
-2.04
-3.48
-4.88
-6.27
-7.67
-9.04
-10.34
-11.5
-12.52
-13.42
-14.16
-14.55
-14.25
-12.93
-10.38
-6.73
-2.41
1.97
5.93
9.17
11.71
13.72
15.34
16.56
17.26
17.31
16.72
15.69
14.57
13.68
13.21
13.09
13.15
13.17
13.06
12.84
12.58
12.3
11.88
11.17
10.01
8.41
6.48
4.47
2.54
0.77
-0.84
-2.42
-4.09
-5.97
-8.11
-10.41
-12.62
-14.33
-15.09
-14.53
-12.61
-9.6
-6.05
-2.57
0.4
2.71
4.48
5.9
7.08
7.97
8.4
8.22
7.4
6.14
4.77
3.7
3.24
3.51
4.42
5.69
6.98
8.01
8.63
8.82
8.66
8.23
7.57
6.68
5.58
4.35
3.07
1.8
0.46
-1.1
-3.07
-5.47
-8.09
-10.52
-12.24
-12.8
-11.98
-9.82
-6.62
-2.8
1.18
4.96
8.26
10.92
12.82
13.91
14.15
13.63
12.52
11.11
9.73
8.68
8.1
7.98
8.13
8.28
8.21
7.81
7.15
6.4
5.73
5.2
4.72
4.07
3.05
1.58
-0.24
-2.15
-3.86
-5.18
-6.13
-6.89
-7.77
-9.06
-10.94
-13.39
-16.18
-18.92
-21.1
-22.21
-21.88
-19.96
-16.65
-12.38
-7.73
-3.26
0.62
3.74
6.16
8.05
9.59
10.88
11.85
12.38
12.36
11.85
11.01
10.13
9.44
9.04
8.89
8.85
8.82
8.77
8.76
8.78
8.78
8.56
7.97
6.96
5.62
4.13
2.68
1.38
0.22
-0.89
-2.03
-3.24
-4.47
-5.66
-6.72
-7.65
-8.51
-9.48
-10.76
-12.52
-14.74
-17.14
-19.2
-20.33
-20.03
-18.13
-14.8
-10.51
-5.87
-1.41
2.48
5.59
7.88
9.33
10.02
10.12
9.85
9.48
9.23
9.25
9.55
10.02
10.57
11.07
11.44
11.63
11.63
11.49
11.28
11.08
10.92
10.74
10.4
9.78
8.79
7.5
6.09
4.77
3.66
2.74
1.84
0.81
-0.45
-1.92
-3.46
-4.95
-6.35
-7.67
-9.01
-10.45
-12.01
-13.66
-15.27
-16.64
-17.51
-17.59
-16.67
-14.66
-11.74
-8.26
-4.65
-1.3
1.56
3.87
5.65
6.93
7.74
8.08
8.02
7.78
7.58
7.64
8.01
8.61
9.25
9.71
9.88
9.78
9.49
9.14
8.79
8.41
7.92
7.2
6.18
4.84
3.24
1.52
-0.13
-1.57
-2.75
-3.74
-4.71
-5.81
-7.13
-8.64
-10.23
-11.77
-13.15
-14.37
-15.48
-16.56
-17.68
-18.83
-19.83
-20.38
-20.1
-18.62
-15.78
-11.66
-6.63
-1.24
3.95
8.48
12.12
14.77
16.43
17.15
16.92
15.83
14.14
12.23
10.58
9.58
9.39
9.89
10.74
11.53
11.95
11.91
11.48
10.82
10.09
9.32
8.47
7.52
6.45
5.32
4.21
3.15
2.12
1.07
-0.11
-1.43
-2.85
-4.18
-5.26
-5.94
-6.28
-6.46
-6.82
-7.64
-9.06
-10.96
-12.94
-14.43
-14.9
-13.98
-11.7
-8.39
-4.66
-1.08
1.89
4.06
5.44
6.2
6.5
6.52
6.38
6.12
5.8
5.42
5.01
4.63
4.4
4.44
4.81
5.44
6.14
6.74
7.09
7.16
7.04
6.77
6.4
5.9
5.2
4.26
3.07
1.65
0.03
-1.69
-3.38
-4.92
-6.21
-7.23
-8.13
-9.07
-10.26
-11.8
-13.64
-15.56
-17.22
-18.25
-18.32
-17.31
-15.26
-12.45
-9.24
-6.02
-3.04
-0.46
1.68
3.38
4.64
5.44
5.73
5.55
4.96
4.16
3.35
2.77
2.57
2.8
3.34
3.99
4.57
4.95
5.07
4.98
4.68
4.23
3.6
2.82
1.91
0.89
-0.23
-1.45
-2.74
-4.02
-5.16
-6.07
-6.72
-7.25
-7.92
-8.95
-10.48
-12.4
-14.38
-15.97
-16.74
-16.42
-15.01
-12.74
-10
-7.14
-4.42
-1.94
0.31
2.33
4.03
5.28
5.88
5.78
5.06
3.99
2.94
2.22
2.03
2.36
3.03
3.74
4.22
4.3
4.04
3.64
3.37
3.37
3.6
3.77
3.52
2.6
1
-1.03
-3.11
-4.93
-6.36
-7.45
-8.41
-9.45
-10.69
-12.15
-13.73
-15.24
-16.39
-16.83
-16.25
-14.48
-11.58
-7.91
-4.01
-0.45
2.36
4.29
5.44
6.06
6.4
6.55
6.51
6.2
5.63
4.97
4.48
4.43
4.86
5.6
6.31
6.69
6.63
6.28
5.89
5.66
5.6
5.5
5.08
4.15
2.69
0.87
-1.1
-3
-4.73
-6.25
-7.56
-8.7
-9.72
-10.74
-11.85
-13.1
-14.44
-15.74
-16.74
-17.18
-16.84
-15.55
-13.32
-10.26
-6.68
-3.01
0.34
3.03
4.95
6.16
6.81
7.08
7.05
6.77
6.33
5.87
5.64
5.8
6.36
7.18
7.98
8.49
8.63
8.47
8.18
7.94
7.83
7.79
7.68
7.33
6.58
5.36
3.7
1.71
-0.42
-2.47
-4.24
-5.65
-6.71
-7.58
-8.44
-9.48
-10.85
-12.6
-14.64
-16.75
-18.53
-19.58
-19.51
-18.13
-15.52
-12.01
-8.1
-4.31
-1.02
1.57
3.48
4.88
5.93
6.74
7.32
7.65
7.69
7.51
7.24
7.12
7.31
7.87
8.67
9.43
9.86
9.77
9.22
8.43
7.7
7.2
6.92
6.64
6.06
4.97
3.37
1.43
-0.59
-2.43
-3.97
-5.2
-6.22
-7.17
-8.22
-9.5
-11.12
-13.1
-15.37
-17.68
-19.64
-20.76
-20.64
-19.03
-16.03
-12
-7.52
-3.14
0.71
3.85
6.26
7.97
9.01
9.39
9.16
8.5
7.69
7.03
6.71
6.82
7.3
7.99
8.77
9.51
10.13
10.54
10.69
10.57
10.23
9.76
9.22
8.58
7.77
6.68
5.31
3.76
2.2
0.82
-0.34
-1.35
-2.43
-3.8
-5.6
-7.81
-10.31
-12.88
-15.32
-17.44
-19.07
-19.98
-19.91
-18.63
-16.04
-12.32
-7.92
-3.41
0.61
3.8
6.07
7.57
8.49
8.92
8.85
8.24
7.15
5.8
4.56
3.78
3.62
4
4.63
5.2
5.52
5.58
5.53
5.5
5.54
5.52
5.23
4.47
3.18
1.52
-0.31
-2.03
-3.5
-4.69
-5.7
-6.66
-7.7
-8.92
-10.43
-12.27
-14.42
-16.73
-18.8
-20.14
-20.22
-18.73
-15.64
-11.3
-6.27
-1.17
3.45
7.3
10.3
12.5
14.03
14.95
15.3
15.09
14.42
13.51
12.7
12.33
12.56
13.32
14.26
14.94
15.01
14.39
13.29
12.09
11.16
10.64
10.44
10.23
9.64
8.46
6.65
4.43
2.14
0.12
-1.48
-2.68
-3.7
-4.8
-6.22
-8.07
-10.34
-12.93
-15.6
-17.98
-19.54
-19.71
-18.02
-14.4
-9.21
-3.2
2.77
8.02
12.23
15.43
17.83
19.66
20.94
21.61
21.57
20.92
19.91
18.94
18.38
18.42
19.01
19.89
20.72
21.2
21.25
20.9
20.3
19.54
18.64
17.51
16.05
14.2
11.97
9.43
6.63
3.59
0.27
-3.34
-7.18
-11.07
-14.78
-18.05
-20.75
-22.94
-24.88
-26.95
-29.46
-32.41
-35.45
-37.85
-38.79
-37.62
-34.14
-28.71
-22.16
-15.43
-9.34
-4.3
-0.34
2.77
5.27
7.27
8.7
9.47
9.62
9.39
9.2
9.4
10.14
11.27
12.48
13.43
13.98
14.18
14.24
14.27
14.24
13.95
13.21
11.99
10.42
8.76
7.22
5.88
4.67
3.45
2.08
0.5
-1.24
-3.09
-4.95
-6.79
-8.56
-10.29
-12.08
-14.1
-16.54
-19.48
-22.81
-26.14
-28.91
-30.45
-30.21
-27.91
-23.6
-17.78
-11.24
-4.88
0.54
4.59
7.25
8.77
9.55
9.87
9.84
9.47
8.76
7.78
6.77
5.99
5.66
5.88
6.56
7.49
8.39
9.04
9.26
8.97
8.15
6.87
5.26
3.45
1.6
-0.21
-2.01
-3.92
-6.08
-8.53
-11.12
-13.47
-15.1
-15.57
-14.67
-12.5
-9.48
-6.24
-3.45
-1.65
-0.99
-1.2
-1.6
-1.36
0.23
3.43
8.02
13.4
18.9
23.99
28.38
31.95
34.61
36.19
36.48
35.4
33.08
29.81
26
22.02
18.13
14.53
11.38
8.79
6.79
5.27
4.03
2.87
1.67
0.51
-0.45
-1.12
-1.52
-1.87
-2.42
-3.34
-4.58
-5.97
-7.27
-8.34
-9.2
-10.01
-10.96
-12.23
-13.93
-16.11
-18.73
-21.63
-24.47
-26.76
-27.93
-27.54
-25.39
-21.62
-16.67
-11.15
-5.7
-0.84
3.06
5.87
7.6
8.41
8.54
8.28
7.89
7.56
7.39
7.44
7.68
8.05
8.49
8.94
9.35
9.68
9.88
9.94
9.79
9.37
8.66
7.64
6.37
4.91
3.38
1.84
0.31
-1.26
-2.98
-5
-7.46
-10.41
-13.78
-17.28
-20.46
-22.74
-23.61
-22.76
-20.22
-16.32
-11.56
-6.5
-1.57
2.9
6.65
9.48
11.24
11.88
11.55
10.59
9.43
8.47
7.95
7.93
8.31
8.87
9.39
9.64
9.5
8.94
8.06
7.03
6.01
5.11
4.31
3.5
2.52
1.25
-0.32
-2.07
-3.85
-5.51
-6.99
-8.39
-9.88
-11.72
-14.04
-16.78
-19.62
-22.05
-23.46
-23.43
-21.79
-18.72
-14.69
-10.28
-5.99
-2.19
0.94
3.36
5.04
5.99
6.22
5.84
5.07
4.22
3.56
3.28
3.45
3.99
4.72
5.45
5.99
6.22
6.16
5.97
5.87
6.06
6.64
7.53
8.53
9.4
9.98
10.25
10.25
10.01
9.51
8.68
7.49
6.07
4.64
3.46
2.64
2.14
1.73
1.13
0.08
-1.58
-3.77
-6.19
-8.32
-9.51
-9.2
-7.08
-3.27
1.72
7.14
12.24
16.47
19.58
21.61
22.74
23.2
23.18
22.82
22.23
21.47
20.6
19.66
18.72
17.81
17.02
16.37
15.88
15.51
15.19
14.81
14.25
13.4
12.15
10.38
8
5
1.47
-2.34
-6.06
-9.32
-11.87
-13.66
-14.81
-15.54
-16.08
-16.55
-17.04
-17.62
-18.41
-19.56
-21.16
-23.08
-24.94
-26.19
-26.25
-24.75
-21.63
-17.18
-11.92
-6.46
-1.37
2.95
6.27
8.54
9.83
10.33
10.28
9.93
9.48
9.11
8.88
8.82
8.95
9.21
9.54
9.88
10.09
10.07
9.69
8.91
7.72
6.19
4.43
2.54
0.64
-1.16
-2.6
-3.21
-2.32
0.8
6.59
14.78
24.28
33.28
39.84
42.43
40.41
33.99
24.03
11.64
-1.97
-15.5
-27.53
-36.71
-42.14
-43.81
-42.61
-39.91
-36.86
-33.84
-30.36
-25.55
-18.86
-10.51
-1.66
5.85
10.06
9.41
3.32
-7.5
-20.95
-34.06
-43.66
-47.35
-44.21
-34.91
-21.29
-5.62
9.99
23.91
34.85
41.87
44.44
42.74
37.96
32.14
27.71
26.63
29.66
35.99
43.52
49.63
52.18
50.24
44.27
35.75
26.59
18.49
12.83
10.56
12.21
17.58
25.51
33.82
39.84
41.37
37.64
29.81
20.41
12.28
7.3
5.81
6.8
8.76
10.51
11.57
12.14
12.59
13.16
13.88
14.74
15.75
16.8
17.49
16.98
14.19
8.22
-1.23
-13.61
-27.68
-41.75
-53.83
-61.79
-63.65
-58.11
-45.36
-27.71
-9.42
4.35
9.48
4.57
-8.41
-24.97
-40.09
-50.13
-53.97
-52.65
-48.27
-42.74
-37.12
-31.85
-27.26
-23.88
-22.34
-22.86
-24.81
-26.78
-27.21
-25.06
-20.34
-14.14
-8.01
-3.25
-0.47
0.61
0.76
0.87
1.54
2.85
4.49
5.87
6.38
5.61
3.52
0.52
-2.63
-4.99
-5.81
-4.75
-2.11
1.29
4.41
6.44
7.1
6.75
6.16
6.03
6.71
7.94
9.03
9.23
8.16
6
3.57
1.91
1.92
3.88
7.35
11.3
14.6
16.43
16.57
15.42
13.68
12.04
10.85
10.11
9.63
9.2
8.77
8.4
8.09
7.76
7.23
6.41
5.46
4.88
5.21
6.85
9.71
13.24
16.62
19.06
20.11
19.68
17.96
15.21
11.59
7.2
2.17
-3.17
-8.32
-12.68
-15.78
-17.43
-17.75
-16.97
-15.33
-12.94
-9.79
-5.89
-1.51
2.73
5.94
7.21
5.96
2.18
-3.55
-10.26
-16.94
-22.76
-27.17
-29.84
-30.59
-29.34
-26.22
-21.7
-16.63
-12.02
-8.72
-7.1
-7.01
-7.9
-9.15
-10.32
-11.12
-11.46
-11.35
-11
-10.81
-11.25
-12.61
-14.75
-17.03
-18.58
-18.7
-17.18
-14.38
-10.95
-7.5
-4.4
-1.73
0.45
2.02
2.82
2.71
1.78
0.3
-1.37
-2.93
-4.23
-5.3
-6.27
-7.33
-8.63
-10.32
-12.45
-15.06
-18.15
-21.62
-25.2
-28.39
-30.59
-31.25
-30.17
-27.68
-24.52
-21.56
-19.44
-18.37
-18.07
-18.1
-18.08
-17.99
-18.06
-18.64
-19.9
-21.6
-23.19
-23.92
-23.15
-20.68
-16.82
-12.35
-8.32
-5.66
-5
-6.45
-9.55
-13.3
-16.4
-17.43
-15.35
-9.82
-1.43
8.39
17.87
25.45
30.29
32.41
32.5
31.44
29.93
28.42
27.09
26.15
25.87
26.58
28.44
31.32
34.83
38.54
42.2
45.85
49.77
54.14
58.92
63.74
68.09
71.43
73.34
73.53
71.85
68.31
63.21
57.17
51.03
45.56
41.17
37.66
34.45
30.82
26.33
20.97
15.04
8.89
2.72
-3.52
-9.95
-16.58
-23.22
-29.53
-35.11
-39.68
-43.15
-45.51
-46.77
-46.93
-45.9
-43.64
-40.23
-35.94
-31.26
-26.74
-22.91
-20.06
-18.19
-17.02
-16.15
-15.29
-14.34
-13.41
-12.59
-11.85
-11.01
-9.82
-8.22
-6.48
-5.09
-4.55
-5.03
-6.33
-7.9
-9.25
-10.13
-10.64
-11.06
-11.66
-12.55
-13.77
-15.25
-16.91
-18.59
-19.92
-20.41
-19.64
-17.43
-14.08
-10.25
-6.71
-4.04
-2.34
-1.27
-0.14
1.76
4.99
9.68
15.47
21.6
27.06
30.99
32.97
33.1
31.93
30.13
28.25
26.59
25.21
24.2
23.66
23.6
23.74
23.49
22.09
19.05
14.5
9.27
4.59
1.45
0.14
0.06
0.11
-0.69
-2.7
-5.52
-8.33
-10.38
-11.39
-11.53
-11.16
-10.51
-9.53
-8.19
-6.77
-6.04
-7
-10.28
-15.71
-22.15
-27.95
-31.66
-32.63
-31.19
-28.3
-25
-22.02
-19.6
-17.77
-16.49
-15.77
-15.54
-15.51
-15.22
-14.09
-11.82
-8.43
-4.36
-0.26
3.25
5.78
7.24
7.81
7.86
7.88
8.2
8.97
9.99
10.82
10.96
10.12
8.32
5.96
3.61
1.78
0.66
0.1
-0.31
-0.97
-2.16
-3.9
-6.01
-8.3
-10.57
-12.76
-14.84
-16.79
-18.59
-20.19
-21.6
-22.88
-24.15
-25.45
-26.69
-27.67
-28.09
-27.75
-26.61
-24.88
-22.88
-20.97
-19.33
-17.95
-16.7
-15.39
-13.95
-12.41
-10.84
-9.25
-7.54
-5.54
-3.07
-0.08
3.31
6.84
10.21
13.17
15.57
17.37
18.68
19.64
20.41
21.1
21.78
22.44
23.09
23.79
24.68
25.81
27.09
28.19
28.65
28
25.97
22.63
18.29
13.43
8.44
3.6
-0.93
-5.02
-8.49
-11.11
-12.68
-13.11
-12.45
-10.86
-8.59
-5.98
-3.35
-1.06
0.63
1.62
1.94
1.78
1.33
0.73
0.02
-0.84
-1.81
-2.77
-3.54
-3.98
-4.09
-4.07
-4.19
-4.68
-5.67
-7.12
-8.92
-11
-13.26
-15.59
-17.84
-19.85
-21.52
-22.84
-23.91
-24.85
-25.69
-26.39
-26.8
-26.84
-26.55
-26.06
-25.56
-25.05
-24.33
-23.09
-21.01
-17.92
-13.88
-9.12
-4.05
0.87
5.11
8.24
9.93
10.21
9.45
8.35
7.62
7.79
8.98
10.93
13.22
15.45
17.48
19.28
20.91
22.39
23.69
24.77
25.63
26.24
26.46
26.01
24.56
21.96
18.48
14.77
11.66
9.66
8.69
7.92
6.19
2.54
-3.33
-10.78
-18.62
-25.53
-30.63
-33.71
-35.15
-35.53
-35.28
-34.48
-32.97
-30.68
-27.79
-24.9
-22.83
-22.22
-23.26
-25.51
-28.06
-29.86
-30.05
-28.17
-24.12
-18.07
-10.34
-1.31
8.52
18.52
27.98
36.27
42.94
47.82
51.06
52.92
53.68
53.55
52.68
51.15
49.11
46.73
44.22
41.7
39.18
36.45
33.19
29.06
23.81
17.41
9.96
1.76
-6.83
-15.32
-23.09
-29.39
-33.45
-34.68
-32.97
-28.8
-23.22
-17.53
-12.91
-10
-8.79
-8.73
-9.01
-8.97
-8.3
-7.12
-5.76
-4.56
-3.7
-3.15
-2.8
-2.58
-2.5
-2.49
-2.33
-1.57
0.24
3.35
7.62
12.49
17.23
21.19
23.98
25.55
25.99
25.34
23.5
20.24
15.45
9.24
2.03
-5.51
-12.53
-18.26
-22.08
-23.56
-22.58
-19.25
-13.84
-6.78
1.49
10.51
19.88
29.13
37.72
45
50.25
52.97
52.97
50.58
46.52
41.65
36.7
32.07
27.84
23.92
20.19
16.74
13.68
11.12
9
7.07
5.02
2.62
-0.2
-3.26
-6.3
-9.05
-11.41
-13.42
-15.18
-16.81
-18.38
-19.88
-21.31
-22.81
-24.49
-26.37
-28.24
-29.63
-29.95
-28.76
-26.02
-22.11
-17.74
-13.61
-10.17
-7.53
-5.52
-3.91
-2.58
-1.56
-0.98
-0.89
-1.24
-1.8
-2.35
-2.7
-2.86
-2.98
-3.26
-3.82
-4.64
-5.49
-6.04
-6.06
-5.5
-4.59
-3.73
-3.28
-3.48
-4.3
-5.52
-6.91
-8.28
-9.59
-10.88
-12.25
-13.76
-15.5
-17.49
-19.76
-22.22
-24.62
-26.58
-27.59
-27.22
-25.29
-21.92
-17.52
-12.64
-7.78
-3.22
0.99
4.98
8.86
12.55
15.82
18.38
20.03
20.84
21.15
21.38
21.82
22.45
22.91
22.75
21.63
19.55
16.84
13.94
11.22
8.78
6.48
4.12
1.62
-0.87
-3.04
-4.61
-5.44
-5.71
-5.77
-6.01
-6.73
-7.96
-9.5
-11.09
-12.53
-13.87
-15.4
-17.41
-19.96
-22.72
-24.89
-25.62
-24.31
-20.93
-16.07
-10.68
-5.66
-1.55
1.52
3.75
5.42
6.73
7.77
8.57
9.19
9.72
10.23
10.74
11.23
11.68
12.14
12.74
13.57
14.62
15.62
16.18
15.91
14.67
12.69
10.46
8.55
7.28
6.66
6.33
5.83
4.82
3.25
1.3
-0.57
-1.83
-1.84
-0.03
3.93
9.87
16.94
23.7
28.53
30.21
28.34
23.48
16.84
9.87
3.87
-0.19
-1.7
-0.3
3.98
10.64
18.64
26.57
32.96
36.65
37.03
34.08
28.28
20.53
12.03
4.06
-2.25
-6.26
-8.02
-8.2
-7.88
-8.12
-9.66
-12.71
-17
-21.86
-26.34
-29.44
-30.22
-28.15
-23.22
-16.08
-7.81
0.39
7.56
13.26
17.61
21
23.9
26.5
28.73
30.37
31.32
31.79
32.27
33.36
35.46
38.65
42.58
46.73
50.47
53
53.43
50.76
44.3
34.14
21.57
8.9
-1.23
-6.9
-7.81
-5.4
-2.32
-1.1
-3.24
-8.66
-16.25
-24.59
-32.81
-40.8
-48.82
-56.87
-64.22
-69.53
-71.49
-69.45
-63.99
-56.67
-49.48
-43.99
-40.91
-39.93
-40.15
-40.6
-40.62
-39.85
-38.23
-35.72
-32.42
-28.65
-24.96
-22.06
-20.35
-19.77
-19.7
-19.31
-18.07
-16.06
-13.94
-12.46
-12.02
-12.39
-12.86
-12.72
-11.76
-10.41
-9.54
-9.97
-11.97
-15.09
-18.29
-20.28
-19.94
-16.68
-10.54
-2.27
6.87
15.34
21.57
24.33
23.17
18.6
12.13
5.85
1.78
1.19
4.11
9.39
15.19
19.71
21.76
21.24
18.92
15.92
13.04
10.31
7.06
2.5
-3.67
-10.92
-18.08
-23.99
-28.05
-30.43
-31.62
-31.74
-30.13
-25.63
-17.43
-5.75
7.94
21.57
33.34
42.38
48.74
52.85
54.98
55.07
53
48.98
43.82
38.7
34.64
32.11
30.91
30.5
30.27
29.99
29.68
29.56
29.77
30.23
30.62
30.57
29.89
28.73
27.62
27.27
28.36
31.18
35.42
40.15
44.06
45.83
44.47
39.68
31.81
21.94
11.55
2.36
-4.18
-7.22
-6.86
-4.17
-0.92
1.04
0.44
-2.96
-8.34
-14.16
-18.73
-20.75
-19.61
-15.42
-8.88
-1.03
6.92
13.8
18.8
21.51
22.07
21.02
19.1
16.95
14.97
13.29
11.86
10.58
9.37
8.22
7.07
5.86
4.42
2.59
0.32
-2.3
-5.04
-7.7
-10.19
-12.59
-14.99
-17.31
-19.29
-20.57
-20.92
-20.43
-19.49
-18.57
-17.97
-17.74
-17.68
-17.66
-17.72
-18.13
-19.12
-20.71
-22.65
-24.51
-25.99
-27
-27.59
-27.88
-27.88
-27.48
-26.59
-25.23
-23.55
-21.81
-20.16
-18.68
-17.32
-16.04
-14.85
-13.85
-13.09
-12.56
-12.09
-11.42
-10.31
-8.65
-6.49
-3.99
-1.35
1.24
3.65
5.78
7.55
8.85
9.61
9.83
9.59
9.03
8.29
7.46
6.55
5.49
4.22
2.71
0.98
-0.87
-2.73
-4.52
-6.24
-7.96
-9.86
-12.1
-14.78
-17.85
-21.12
-24.3
-27.03
-28.98
-29.96
-29.94
-29.08
-27.74
-26.4
-25.51
-25.42
-26.24
-27.76
-29.53
-30.96
-31.53
-30.91
-29.12
-26.5
-23.61
-20.99
-18.98
-17.62
-16.67
-15.7
-14.28
-12.11
-9.09
-5.24
-0.61
4.76
10.85
17.56
24.65
31.73
38.37
44.21
48.98
52.43
54.21
53.96
51.57
47.58
43.37
40.82
41.63
46.4
54.15
62.45
68.26
68.98
63.32
51.61
35.54
17.56
0.3
-13.93
-23.41
-27.22
-25.38
-18.8
-9.13
1.7
11.87
20.06
25.52
27.97
27.45
24.17
18.57
11.3
3.25
-4.62
-11.47
-16.75
-20.3
-22.23
-22.79
-22.24
-20.73
-18.37
-15.27
-11.72
-8.14
-5.08
-3.12
-2.65
-3.72
-5.99
-8.74
-11.22
-12.9
-13.67
-13.81
-13.84
-14.16
-14.96
-16.12
-17.37
-18.42
-19.08
-19.3
-19.1
-18.55
-17.73
-16.77
-15.79
-14.99
-14.52
-14.38
-14.4
-14.26
-13.59
-12.14
-9.85
-6.91
-3.74
-0.78
1.57
3.11
3.86
3.98
3.72
3.3
2.88
2.56
2.34
2.15
1.84
1.2
-0.02
-1.97
-4.66
-7.9
-11.34
-14.55
-17.12
-18.77
-19.33
-18.77
-17.23
-14.93
-12.18
-9.28
-6.4
-3.54
-0.6
2.57
5.96
9.41
12.62
15.26
17.12
18.14
18.44
18.2
17.57
16.67
15.56
14.29
12.9
11.5
10.22
9.19
8.49
8.1
7.91
7.76
7.47
6.91
6.05
4.93
3.65
2.28
0.9
-0.46
-1.86
-3.39
-5.21
-7.46
-10.23
-13.48
-16.91
-20
-22.14
-22.78
-21.68
-19.07
-15.58
-12.03
-9.19
-7.42
-6.66
-6.48
-6.41
-6.13
-5.62
-5.11
-4.84
-4.89
-5.08
-5.04
-4.4
-2.91
-0.46
3.06
7.76
13.63
20.22
26.45
30.78
31.76
28.63
21.76
12.53
2.83
-5.65
-11.81
-15.2
-15.92
-14.37
-11.2
-7.31
-3.74
-1.33
-0.36
-0.4
-0.42
0.67
3.51
8.07
13.8
19.93
25.83
31.08
35.41
38.53
40.15
40.24
39.1
37.5
36.29
36.14
37.06
38.46
39.35
38.88
36.69
33.1
28.86
24.72
21.13
18.02
14.88
11.15
6.43
0.77
-5.41
-11.48
-16.8
-20.99
-24.03
-26.23
-28.08
-29.99
-32.11
-34.23
-35.88
-36.56
-35.93
-33.95
-30.82
-26.85
-22.34
-17.54
-12.8
-8.56
-5.4
-3.78
-3.77
-4.92
-6.43
-7.46
-7.56
-6.7
-5.2
-3.4
-1.4
0.91
3.62
6.55
9.14
10.67
10.6
8.92
6.15
3.16
0.76
-0.59
-0.89
-0.52
-0.05
-0.03
-0.91
-2.93
-6.1
-10.15
-14.56
-18.67
-21.85
-23.74
-24.37
-24.1
-23.41
-22.64
-21.75
-20.37
-17.93
-14.03
-8.7
-2.43
4.03
9.9
14.7
18.26
20.72
22.29
23.21
23.66
23.8
23.71
23.38
22.71
21.54
19.78
17.5
14.96
12.61
10.86
9.97
9.91
10.33
10.71
10.56
9.55
7.68
5.16
2.37
-0.34
-2.7
-4.56
-5.87
-6.72
-7.3
-7.96
-9.11
-11.02
-13.64
-16.49
-18.83
-19.88
-19.21
-16.81
-13.09
-8.65
-4.06
0.24
3.94
6.87
8.95
10.29
11.13
11.83
12.7
13.83
15.14
16.36
17.26
17.8
18.11
18.45
18.99
19.71
20.42
20.81
20.67
19.88
18.52
16.69
14.51
12.01
9.23
6.2
3
-0.27
-3.53
-6.83
-10.28
-14.01
-17.99
-21.93
-25.35
-27.62
-28.28
-27.14
-24.37
-20.51
-16.16
-11.86
-7.93
-4.47
-1.5
1.01
2.98
4.38
5.2
5.54
5.59
5.57
5.62
5.8
6.08
6.35
6.52
6.53
6.37
6.16
6.07
6.26
6.82
7.67
8.55
9.19
9.37
9.14
8.72
8.38
8.3
8.43
8.48
8.17
7.26
5.75
3.77
1.53
-0.73
-2.7
-3.96
-4.05
-2.56
0.66
5.34
10.83
16.26
20.88
24.21
26.19
27.05
27.11
26.58
25.54
23.92
21.75
19.23
16.79
14.97
14.23
14.73
16.3
18.43
20.51
22.01
22.64
22.36
21.36
19.95
18.39
16.93
15.68
14.67
13.77
12.81
11.58
9.92
7.8
5.33
2.65
-0.17
-3.3
-7.18
-12.47
-19.87
-29.83
-42.37
-56.9
-72.32
-87.09
-99.59
-108.44
-112.92
-113.1
-109.87
-104.65
-98.97
-94.02
-90.45
-88.31
-87.25
-86.74
-86.22
-85.19
-83.25
-80.18
-75.95
-70.85
-65.4
-60.22
-55.75
-52.08
-48.88
-45.48
-41.15
-35.36
-27.99
-19.34
-10.07
-0.93
7.39
14.42
19.95
24.02
26.89
29.01
30.93
33.2
36.18
39.83
43.65
46.91
48.89
49.27
48.19
46.11
43.54
40.77
37.88
34.92
32.05
29.65
28.09
27.5
27.59
27.8
27.64
26.91
25.85
24.93
24.53
24.58
24.69
24.27
23.01
21.04
18.99
17.57
17.28
18.13
19.62
21.15
22.33
23.17
24.02
25.31
27.32
30.12
33.72
38.2
43.74
50.42
57.84
65
70.52
73.16
72.35
68.55
62.96
57.02
51.7
47.19
43.01
38.48
33.19
27.24
21.14
15.35
10.02
4.92
-0.35
-5.99
-11.75
-17.12
-21.52
-24.71
-26.96
-28.84
-30.96
-33.5
-36.1
-37.98
-38.22
-36.22
-31.9
-25.71
-18.44
-10.89
-3.69
2.87
8.78
14.22
19.45
24.6
29.69
34.48
38.63
41.79
43.82
44.76
44.82
44.22
43.03
41.18
38.59
35.31
31.6
27.85
24.36
21.3
18.6
16.13
13.85
11.85
10.33
9.42
9.03
8.88
8.54
7.63
5.94
3.55
0.73
-2.11
-4.57
-6.46
-7.77
-8.68
-9.49
-10.45
-11.7
-13.27
-15.03
-16.86
-18.6
-20.17
-21.53
-22.76
-23.97
-25.37
-27.1
-29.25
-31.73
-34.38
-36.97
-39.29
-41.28
-43.03
-44.77
-46.78
-49.29
-52.35
-55.79
-59.21
-62.1
-63.89
-64.11
-62.48
-58.96
-53.79
-47.45
-40.55
-33.64
-27.08
-20.95
-15.14
-9.47
-3.89
1.48
6.39
10.59
13.94
16.46
18.27
19.56
20.58
21.69
23.33
25.8
29.19
33.18
37.12
40.33
42.27
42.74
41.83
39.81
36.96
33.57
29.9
26.21
22.74
19.63
16.87
14.38
12.08
10.02
8.33
7.13
6.42
5.97
5.37
4.22
2.23
-0.62
-4.08
-7.63
-10.66
-12.64
-13.3
-12.69
-11.21
-9.4
-7.82
-6.87
-6.73
-7.37
-8.67
-10.46
-12.58
-14.9
-17.27
-19.5
-21.34
-22.57
-23.04
-22.76
-21.95
-20.98
-20.25
-20.03
-20.37
-21.08
-21.87
-22.47
-22.73
-22.67
-22.37
-21.91
-21.31
-20.54
-19.55
-18.36
-17.13
-16.03
-15.28
-14.99
-15.11
-15.42
-15.66
-15.57
-15.05
-14.2
-13.18
-12.23
-11.41
-10.65
-9.78
-8.7
-7.46
-6.25
-5.32
-4.79
-4.63
-4.64
-4.66
-4.63
-4.71
-5.14
-6.16
-7.86
-10.14
-12.85
-15.82
-18.98
-22.33
-25.87
-29.54
-33.17
-36.55
-39.44
-41.65
-43.07
-43.62
-43.29
-42.02
-39.75
-36.42
-32.02
-26.6
-20.32
-13.44
-6.31
0.66
7.11
12.8
17.71
22.06
26.18
30.35
34.66
38.94
42.85
46.02
48.29
49.69
50.42
50.75
50.85
50.87
50.83
50.76
50.59
50.15
49.13
47.25
44.36
40.61
36.47
32.6
29.66
28.04
27.75
28.49
29.75
30.96
31.65
31.51
30.4
28.41
25.78
22.9
20.11
17.7
15.74
14.15
12.69
11.05
8.94
6.16
2.73
-1.16
-5.05
-8.39
-10.7
-11.67
-11.35
-10.07
-8.21
-6.08
-3.74
-1.04
2.2
5.99
10.09
14.04
17.33
19.52
20.42
19.97
18.3
15.57
12.06
8.17
4.43
1.3
-0.9
-2.17
-2.85
-3.47
-4.53
-6.34
-8.87
-11.87
-14.99
-17.92
-20.46
-22.57
-24.26
-25.57
-26.5
-27.05
-27.26
-27.21
-27.04
-26.93
-27.02
-27.38
-28.02
-28.91
-30.07
-31.49
-33.2
-35.11
-37.16
-39.15
-40.88
-42.08
-42.42
-41.56
-39.26
-35.49
-30.58
-25.1
-19.69
-14.86
-10.82
-7.52
-4.8
-2.61
-1.01
-0.23
-0.47
-1.83
-4.24
-7.41
-10.92
-14.18
-16.64
-17.9
-17.85
-16.71
-14.93
-13.01
-11.32
-10
-9.02
-8.24
-7.53
-6.82
-6.12
-5.5
-5.09
-5.02
-5.38
-6.07
-6.82
-7.17
-6.76
-5.42
-3.35
-1.03
0.94
2.06
2.09
1.06
-0.79
-3.03
-5.15
-6.58
-6.82
-5.52
-2.71
1.2
5.49
9.31
11.94
12.99
12.38
10.26
7.02
3.12
-0.97
-4.73
-7.77
-9.82
-10.79
-10.79
-10.05
-8.92
-7.74
-6.79
-6.27
-6.26
-6.69
-7.47
-8.42
-9.47
-10.53
-11.53
-12.31
-12.65
-12.37
-11.43
-9.95
-8.25
-6.74
-5.82
-5.82
-6.87
-8.92
-11.7
-14.77
-17.58
-19.53
-20.1
-18.96
-16.1
-11.74
-6.28
-0.08
6.7
14.02
21.83
29.9
37.64
44.27
49.07
51.74
52.57
52.3
51.78
51.56
51.77
52.16
52.47
52.66
53.09
54.22
56.42
59.62
63.3
66.6
68.64
68.88
67.2
63.9
59.57
54.79
50
45.39
40.91
36.33
31.29
25.48
18.69
10.97
2.55
-6.14
-14.58
-22.29
-28.84
-33.86
-37.05
-38.24
-37.49
-35.15
-31.82
-28.13
-24.48
-20.95
-17.3
-13.22
-8.56
-3.4
1.92
7.04
11.68
15.74
19.2
22.09
24.38
26.05
27.1
27.61
27.67
27.32
26.55
25.33
23.61
21.44
18.85
15.91
12.67
9.11
5.3
1.32
-2.6
-6.24
-9.42
-12.03
-14.1
-15.74
-17.08
-18.33
-19.73
-21.56
-24.14
-27.69
-32.29
-37.75
-43.67
-49.48
-54.61
-58.62
-61.4
-63.16
-64.38
-65.57
-67.01
-68.55
-69.58
-69.23
-66.75
-61.85
-54.84
-46.59
-38.12
-30.33
-23.71
-18.36
-14.17
-11.05
-9
-8.03
-7.99
-8.47
-8.86
-8.53
-7.07
-4.49
-1.13
2.49
5.87
8.77
11.11
12.99
14.48
15.62
16.37
16.67
16.57
16.18
15.72
15.43
15.49
15.99
16.84
17.87
18.9
19.81
20.63
21.43
22.23
22.99
23.53
23.67
23.33
22.6
21.68
20.79
20.07
19.61
19.51
19.94
21.12
23.19
26.03
29.29
32.45
35.03
36.77
37.67
37.91
37.64
36.95
35.78
34.06
31.79
29.04
25.97
22.69
19.25
15.65
11.88
8.04
4.35
1.08
-1.55
-3.52
-5.01
-6.35
-7.84
-9.59
-11.47
-13.16
-14.29
-14.57
-13.86
-12.14
-9.54
-6.32
-2.87
0.35
2.89
4.48
5.14
5.09
4.6
3.75
2.4
0.29
-2.68
-6.15
-9.4
-11.52
-11.9
-10.41
-7.4
-3.47
0.85
5.19
9.25
12.63
14.71
14.91
12.95
9.05
4
-1.22
-5.67
-8.81
-10.51
-10.93
-10.47
-9.62
-9.02
-9.27
-10.86
-13.88
-17.93
-22.18
-25.71
-27.83
-28.37
-27.71
-26.56
-25.62
-25.35
-25.79
-26.66
-27.57
-28.26
-28.7
-29.09
-29.72
-30.87
-32.72
-35.32
-38.56
-42.08
-45.26
-47.23
-47.16
-44.51
-39.35
-32.43
-24.9
-17.92
-12.16
-7.65
-3.88
-0.18
3.83
8.13
12.36
16.1
19.18
21.69
23.89
26.03
28.14
30.09
31.67
32.76
33.43
33.89
34.29
34.67
34.9
34.78
34.13
32.95
31.36
29.59
27.83
26.21
24.79
23.51
22.28
21
19.57
17.94
16.16
14.3
12.42
10.48
8.31
5.69
2.41
-1.47
-5.66
-9.57
-12.53
-14
-13.76
-12.03
-9.35
-6.4
-3.73
-1.59
0.07
1.52
3.03
4.78
6.73
8.69
10.44
11.85
12.94
13.88
14.96
16.39
18.26
20.38
22.38
23.83
24.43
24.14
23.21
22.01
20.85
19.84
18.86
17.71
16.19
14.29
12.15
9.97
7.97
6.19
4.6
3.06
1.49
-0.13
-1.73
-3.23
-4.61
-5.99
-7.5
-9.26
-11.14
-12.75
-13.49
-12.86
-10.67
-7.19
-3.06
0.96
4.3
6.73
8.39
9.54
10.37
10.94
11.16
10.98
10.43
9.64
8.74
7.8
6.85
5.89
4.95
4.1
3.39
2.83
2.4
2.06
1.79
1.63
1.56
1.48
1.23
0.65
-0.3
-1.49
-2.71
-3.74
-4.45
-4.86
-5.06
-5.15
-5.23
-5.39
-5.74
-6.42
-7.5
-8.89
-10.27
-11.15
-11.04
-9.68
-7.17
-3.94
-0.6
2.26
4.27
5.31
5.51
5.06
4.18
3.07
1.88
0.76
-0.15
-0.78
-1.17
-1.44
-1.81
-2.46
-3.52
-4.94
-6.53
-8.01
-9.1
-9.59
-9.45
-8.87
-8.13
-7.59
-7.51
-7.96
-8.82
-9.86
-10.84
-11.62
-12.2
-12.66
-13.08
-13.47
-13.85
-14.28
-14.92
-15.97
-17.42
-19.02
-20.25
-20.53
-19.52
-17.32
-14.42
-11.48
-9.07
-7.53
-6.87
-6.94
-7.51
-8.3
-9.02
-9.42
-9.34
-8.75
-7.73
-6.35
-4.56
-2.18
0.97
4.94
9.45
13.95
17.83
20.62
22.15
22.55
22.2
21.49
20.8
20.45
20.64
21.47
22.87
24.53
25.96
26.58
25.92
23.73
20.04
15.04
9.02
2.42
-4.23
-10.24
-14.98
-18.05
-19.36
-19.15
-17.91
-16.15
-14.28
-12.6
-11.35
-10.71
-10.7
-11.21
-11.93
-12.51
-12.73
-12.59
-12.24
-11.79
-11.2
-10.25
-8.79
-6.8
-4.51
-2.26
-0.42
0.8
1.3
1.05
0.11
-1.42
-3.32
-5.26
-6.91
-8.08
-8.82
-9.38
-10.05
-10.92
-11.87
-12.6
-12.86
-12.61
-12.09
-11.69
-11.72
-12.29
-13.27
-14.36
-15.23
-15.63
-15.42
-14.54
-12.96
-10.74
-8.05
-5.13
-2.28
0.25
2.3
3.88
5.02
5.78
6.15
6.14
5.78
5.24
4.77
4.66
5.05
5.9
6.89
7.62
7.75
7.2
6.16
5.01
4.12
3.59
3.22
2.68
1.61
-0.12
-2.41
-5.01
-7.7
-10.4
-13.17
-16.14
-19.36
-22.7
-25.84
-28.37
-29.89
-30.2
-29.35
-27.6
-25.27
-22.5
-19.22
-15.12
-9.97
-3.84
2.82
9.28
14.85
19.2
22.39
24.81
26.9
28.84
30.49
31.5
31.5
30.29
27.96
24.84
21.4
18.11
15.3
13.12
11.57
10.55
10
9.85
10.02
10.25
10.15
9.32
7.52
4.85
1.72
-1.29
-3.7
-5.33
-6.26
-6.8
-7.29
-7.95
-8.88
-10.14
-11.78
-13.91
-16.61
-19.81
-23.2
-26.15
-27.94
-27.91
-25.86
-22.12
-17.42
-12.59
-8.2
-4.35
-0.78
2.79
6.42
9.72
12.13
13.21
12.95
11.8
10.49
9.7
9.81
10.88
12.62
14.64
16.55
18.07
19.04
19.49
19.54
19.39
19.22
19.07
18.9
18.55
17.92
16.98
15.86
14.67
13.49
12.26
10.89
9.27
7.36
5.1
2.46
-0.6
-4.04
-7.65
-11.04
-13.73
-15.33
-15.64
-14.72
-12.75
-9.95
-6.52
-2.69
1.19
4.64
7.19
8.59
8.92
8.61
8.22
8.2
8.69
9.52
10.37
10.95
11.16
11.03
10.72
10.36
10.13
10.12
10.37
10.83
11.36
11.79
12.03
12.12
12.15
12.14
11.91
11.04
9.08
5.72
0.99
-4.75
-10.95
-17.05
-22.69
-27.68
-31.92
-35.33
-37.83
-39.49
-40.7
-42.19
-44.71
-48.53
-53.07
-56.83
-57.96
-55.09
-48.1
-38.33
-28.04
-19.46
-13.88
-11.23
-10.47
-10.3
-9.89
-9.13
-8.43
-8.2
-8.41
-8.57
-7.85
-5.59
-1.51
4.14
10.79
17.8
24.73
31.39
37.82
44.02
49.79
54.74
58.36
60.31
60.61
59.72
58.38
57.32
56.95
57.07
57.03
55.98
53.37
49.36
44.77
40.64
37.71
35.93
34.52
32.47
29.07
24.3
18.74
13
7.36
1.58
-4.63
-11.21
-17.47
-22.34
-24.96
-25.24
-24.02
-22.66
-22.44
-23.93
-26.88
-30.46
-33.82
-36.48
-38.47
-40.1
-41.61
-42.91
-43.54
-42.94
-40.71
-36.89
-31.97
-26.73
-21.92
-18.04
-15.2
-13.13
-11.45
-9.78
-8.02
-6.23
-4.62
-3.31
-2.28
-1.4
-0.51
0.38
1.12
1.47
1.29
0.6
-0.34
-1.25
-1.98
-2.59
-3.36
-4.57
-6.32
-8.37
-10.18
-11.14
-10.85
-9.26
-6.7
-3.7
-0.68
2.14
4.79
7.34
9.71
11.54
12.42
12.09
10.75
9.01
7.72
7.57
8.75
10.89
13.18
14.78
15.15
14.32
12.75
11.11
10
9.66
10.01
10.77
11.68
12.67
13.82
15.28
17.13
19.2
21.13
22.5
22.92
22.28
20.69
18.48
16.07
13.78
11.72
9.83
7.95
5.94
3.79
1.65
-0.25
-1.67
-2.43
-2.47
-1.84
-0.78
0.34
1
0.71
-0.87
-3.79
-7.72
-12.05
-16.03
-19.01
-20.63
-20.88
-20.06
-18.64
-17.08
-15.66
-14.45
-13.37
-12.36
-11.46
-10.86
-10.71
-10.99
-11.48
-11.87
-11.97
-11.89
-11.95
-12.39
-13.24
-14.23
-14.92
-15.09
-14.8
-14.4
-14.26
-14.54
-15.09
-15.61
-15.86
-15.77
-15.46
-15.08
-14.73
-14.38
-13.92
-13.2
-12.07
-10.3
-7.71
-4.15
0.33
5.45
10.69
15.45
19.16
21.47
22.3
21.81
20.43
18.71
17.31
16.78
17.48
19.42
22.24
25.22
27.54
28.46
27.63
25.17
21.65
17.93
14.82
12.85
12.13
12.36
12.99
13.4
13.19
12.32
11.12
10.13
9.88
10.53
11.88
13.43
14.63
15.13
14.77
13.58
11.55
8.71
5.18
1.31
-2.23
-4.7
-5.6
-4.95
-3.34
-1.71
-0.88
-1.31
-2.96
-5.52
-8.65
-12.14
-15.92
-19.78
-23.32
-25.92
-27.01
-26.3
-24.03
-20.9
-17.89
-15.82
-15.12
-15.77
-17.41
-19.6
-21.99
-24.42
-26.8
-28.98
-30.67
-31.54
-31.31
-29.86
-27.37
-24.16
-20.66
-17.31
-14.46
-12.37
-11.15
-10.65
-10.37
-9.59
-7.51
-3.61
2.04
8.82
15.69
21.63
26.03
28.8
30.25
30.79
30.67
29.85
28.17
25.49
21.98
18.11
14.46
11.53
9.48
8.18
7.25
6.36
5.29
4.08
2.88
1.82
0.92
0.06
-0.9
-2.03
-3.25
-4.35
-5.13
-5.51
-5.63
-5.79
-6.34
-7.47
-9.17
-11.21
-13.34
-15.38
-17.26
-18.89
-20.07
-20.42
-19.51
-17.09
-13.31
-8.63
-3.75
0.75
4.56
7.66
10.2
12.31
14.04
15.33
16.14
16.48
16.48
16.3
16.12
16.03
16.08
16.29
16.63
16.99
17.19
17.05
16.4
15.24
13.73
12.19
11.04
10.68
11.32
12.89
15.04
17.14
18.47
18.33
16.29
12.4
7.27
2.05
-1.91
-3.59
-2.64
0.3
3.81
6.08
5.62
1.68
-5.43
-14.46
-23.65
-31.24
-35.97
-37.4
-35.88
-32.4
-28.1
-24.02
-20.74
-18.42
-16.89
-15.85
-15.08
-14.41
-13.7
-12.72
-11.24
-9.12
-6.52
-3.85
-1.63
-0.17
0.61
1.21
2.27
4.16
6.72
9.25
10.89
11.01
9.56
7.05
4.34
2.22
1.2
1.33
2.28
3.5
4.4
4.52
3.72
2.13
0.15
-1.74
-3.21
-4.23
-5.03
-5.99
-7.47
-9.58
-12.19
-14.94
-17.39
-19.06
-19.58
-18.7
-16.43
-13.07
-9.16
-5.37
-2.23
0.01
1.53
2.76
4.15
5.9
7.86
9.61
10.74
11.02
10.55
9.66
8.78
8.18
7.98
8.11
8.44
8.82
9.15
9.35
9.34
9.07
8.55
7.87
7.14
6.51
6.05
5.76
5.55
5.31
4.9
4.27
3.43
2.46
1.45
0.49
-0.39
-1.28
-2.31
-3.61
-5.14
-6.72
-7.97
-8.49
-8.04
-6.57
-4.3
-1.63
1.03
3.3
4.94
5.87
6.12
5.88
5.41
4.96
4.72
4.76
5.04
5.38
5.63
5.68
5.52
5.23
4.97
4.89
5.11
5.64
6.37
7.11
7.62
7.78
7.49
6.81
5.87
4.81
3.71
2.61
1.49
0.28
-1.04
-2.44
-3.89
-5.29
-6.6
-7.76
-8.8
-9.82
-10.99
-12.47
-14.37
-16.7
-19.29
-21.84
-23.93
-25.13
-25.11
-23.8
-21.37
-18.25
-14.98
-12.09
-9.94
-8.62
-8.01
-7.79
-7.67
-7.41
-6.94
-6.21
-5.21
-3.88
-2.16
-0.02
2.43
4.99
7.44
9.63
11.54
13.29
15.08
17.01
19.03
20.88
22.21
22.74
22.33
21.1
19.39
17.59
16.01
14.78
13.79
12.81
11.62
10.1
8.29
6.37
4.51
2.84
1.38
0.05
-1.28
-2.77
-4.52
-6.61
-9
-11.53
-13.86
-15.57
-16.25
-15.59
-13.51
-10.15
-5.78
-0.64
5.06
11.2
17.56
23.72
29.12
33.13
35.32
35.65
34.42
32.17
29.48
26.8
24.49
22.75
21.65
21.1
20.77
20.2
18.89
16.62
13.47
9.82
6.13
2.73
-0.25
-2.85
-5.14
-7.11
-8.69
-9.83
-10.63
-11.33
-12.27
-13.67
-15.55
-17.69
-19.71
-21.28
-22.29
-22.81
-23.11
-23.48
-24.08
-24.97
-26.01
-26.96
-27.52
-27.4
-26.39
-24.48
-21.85
-18.82
-15.7
-12.68
-9.73
-6.72
-3.53
-0.18
3.13
6.14
8.65
10.59
11.96
12.82
13.23
13.28
13.1
12.93
12.96
13.26
13.65
13.8
13.32
12.02
9.96
7.48
5.02
2.96
1.45
0.45
-0.24
-0.81
-1.35
-1.9
-2.44
-3.02
-3.72
-4.67
-5.88
-7.26
-8.65
-9.92
-11.06
-12.16
-13.29
-14.37
-15.04
-14.85
-13.46
-10.84
-7.39
-3.7
-0.36
2.37
4.52
6.31
7.95
9.43
10.56
11.12
10.99
10.28
9.26
8.22
7.42
6.98
6.88
7.03
7.33
7.59
7.57
6.91
5.26
2.42
-1.49
-6
-10.39
-13.86
-15.83
-16.17
-15.16
-13.52
-12.29
-12.55
-15.27
-20.95
-29.37
-39.41
-49.16
-56.44
-59.46
-57.49
-51.04
-41.63
-31.08
-20.97
-12.14
-4.8
1.29
6.45
10.94
14.95
18.67
22.3
25.97
29.56
32.65
34.65
34.98
33.43
30.24
26.06
21.77
18.15
15.78
14.86
15.26
16.77
19.07
21.89
24.83
27.39
28.99
29.03
27.17
23.42
18.23
12.34
6.55
1.54
-2.3
-4.94
-6.59
-7.6
-8.26
-8.76
-9.18
-9.5
-9.73
-10.02
-10.64
-11.88
-13.9
-16.58
-19.4
-21.64
-22.58
-21.79
-19.37
-15.9
-12.19
-8.99
-6.66
-5.13
-4.06
-3.03
-1.86
-0.56
0.68
1.71
2.54
3.3
4.18
5.2
6.23
6.99
7.25
6.94
6.18
5.22
4.33
3.66
3.18
2.78
2.31
1.67
0.83
-0.18
-1.38
-2.8
-4.52
-6.54
-8.75
-10.92
-12.78
-14.17
-15.18
-16.09
-17.29
-19.04
-21.31
-23.79
-25.97
-27.43
-27.99
-27.79
-27.23
-26.79
-26.81
-27.34
-28.13
-28.69
-28.48
-27.17
-24.76
-21.65
-18.49
-15.84
-13.92
-12.53
-11.17
-9.38
-6.85
-3.43
1.03
6.83
14.08
22.03
28.68
31.13
26.9
15.72
0.44
-13.61
-20.74
-17.62
-4.67
14.31
34.21
50.95
62.62
69.08
70.51
66.56
56.75
41.81
24.84
10.88
4.91
9.25
22.27
38.92
53.14
60.58
60.3
54.51
46.85
40.29
35.95
33.04
29.95
25.45
19.33
12.38
5.77
0.43
-3.39
-6.09
-8.45
-11.18
-14.59
-18.52
-22.38
-25.35
-26.57
-25.45
-21.85
-16.21
-9.45
-2.74
2.85
6.54
8
7.18
4.16
-0.99
-8.1
-16.81
-26.4
-35.84
-43.93
-49.62
-52.24
-51.56
-47.81
-41.55
-33.56
-24.81
-16.2
-8.45
-2.11
2.51
5.24
6.08
5.22
3.07
0.3
-2.36
-4.33
-5.32
-5.39
-4.85
-4.01
-3.03
-1.86
-0.38
1.45
3.39
4.97
5.67
5.2
3.63
1.45
-0.67
-2.15
-2.79
-2.81
-2.78
-3.28
-4.67
-6.86
-9.4
-11.61
-12.84
-12.76
-11.37
-8.97
-5.95
-2.58
1.04
4.93
9.06
13.21
16.94
19.76
21.28
21.47
20.59
19.13
17.62
16.44
15.77
15.67
16.05
16.78
17.65
18.45
18.99
19.15
18.91
18.37
17.69
17.02
16.37
15.69
14.81
13.68
12.4
11.22
10.43
10.12
10.06
9.79
8.88
7.17
4.85
2.32
-0.16
-2.68
-5.62
-9.42
-14.24
-19.83
-25.64
-31.06
-35.54
-38.72
-40.36
-40.33
-38.65
-35.61
-31.67
-27.3
-22.71
-17.75
-12.11
-5.66
1.21
7.5
12.02
13.86
12.81
9.53
5.26
1.28
-1.62
-3.29
-4.09
-4.53
-4.79
-4.67
-3.72
-1.64
1.46
4.99
8.16
10.44
11.71
12.34
12.81
13.41
14.1
14.59
14.63
14.16
13.36
12.45
11.51
10.46
9.12
7.34
5.17
2.86
0.68
-1.13
-2.49
-3.45
-4.08
-4.35
-4.13
-3.23
-1.56
0.77
3.39
5.84
7.68
8.7
8.95
8.67
8.08
7.29
6.28
4.96
3.39
1.78
0.52
-0.04
0.23
1.18
2.42
3.46
3.95
3.75
2.99
1.91
0.77
-0.22
-1
-1.53
-1.85
-2.03
-2.17
-2.39
-2.81
-3.51
-4.49
-5.72
-7.09
-8.52
-9.99
-11.5
-13.1
-14.78
-16.53
-18.32
-20.17
-22.11
-24.08
-25.85
-26.96
-26.9
-25.29
-22.17
-17.99
-13.52
-9.45
-6.14
-3.54
-1.33
0.71
2.53
3.86
4.4
4.15
3.49
3.01
3.19
4.16
5.68
7.37
9.03
10.68
12.47
14.48
16.54
18.36
19.72
20.56
21
21.07
20.64
19.47
17.49
14.96
12.52
10.77
9.96
9.8
9.66
9.03
7.84
6.44
5.31
4.66
4.27
3.72
2.7
1.25
-0.21
-1.15
-1.21
-0.31
1.44
3.93
7.11
10.92
15.13
19.24
22.64
24.9
25.99
26.38
26.74
27.59
29.02
30.66
31.92
32.32
31.73
30.35
28.52
26.51
24.44
22.36
20.36
18.55
17.07
15.87
14.74
13.35
11.38
8.73
5.45
1.71
-2.42
-7.01
-12.21
-18.22
-25.06
-32.56
-40.24
-47.38
-53.1
-56.51
-57
-54.51
-49.63
-43.54
-37.67
-33.23
-30.79
-30.18
-30.6
-31.06
-30.76
-29.29
-26.65
-23.06
-18.72
-13.75
-8.25
-2.48
3.13
8.02
11.75
14.26
15.82
16.84
17.68
18.38
18.85
18.91
18.49
17.64
16.39
14.71
12.51
9.81
6.83
3.98
1.6
-0.29
-2.01
-4.04
-6.65
-9.7
-12.6
-14.73
-15.72
-15.75
-15.36
-15.15
-15.4
-16.03
-16.75
-17.44
-18.28
-19.65
-21.61
-23.65
-24.73
-23.87
-20.89
-16.66
-12.78
-10.56
-10.21
-10.63
-10.12
-7.52
-2.98
2.19
6.45
9.15
10.81
12.6
15.34
18.66
21.15
21.25
18.33
13.15
7.59
3.6
2.29
3.58
6.38
9.43
11.84
13.49
14.79
16.3
18.28
20.5
22.44
23.57
23.74
23.22
22.6
22.4
22.86
23.8
24.74
25.17
24.7
23.21
20.8
17.69
14.13
10.41
6.8
3.53
0.77
-1.53
-3.58
-5.67
-8.01
-10.53
-12.83
-14.27
-14.2
-12.3
-8.87
-4.75
-0.97
1.7
3.13
3.76
4.29
5.18
6.37
7.47
8.02
7.93
7.46
7.17
7.54
8.81
10.96
13.87
17.33
21.04
24.46
26.78
27.14
25.05
20.64
14.58
7.73
0.63
-6.82
-15.31
-25.67
-38.34
-52.95
-68.06
-81.36
-90.16
-91.98
-85.42
-70.78
-50.29
-27.78
-7.71
6.12
11.72
9.4
1.44
-8.8
-18.02
-23.75
-24.74
-20.87
-13.01
-2.76
7.59
15.57
19.07
17.21
10.88
2.58
-4.6
-8.33
-8.04
-4.94
-1.17
1.51
2.65
3.1
4.22
6.96
11.34
16.58
21.77
26.3
30.05
33.07
35.26
36.26
35.66
33.34
29.77
25.92
22.87
21.33
21.15
21.37
20.62
17.85
12.98
7.11
1.97
-0.89
-0.94
1.07
3.49
4.71
3.88
1.32
-1.82
-4.2
-4.96
-3.88
-1.27
2.35
6.59
11.13
15.53
19.14
21.15
20.91
18.32
13.97
9.05
4.86
2.3
1.64
2.49
4.03
5.36
5.73
4.64
1.82
-2.64
-8.24
-14.06
-18.92
-21.89
-22.69
-21.94
-20.78
-20.27
-20.75
-21.67
-22.05
-21.15
-19.02
-16.52
-14.7
-14.07
-14.15
-13.84
-12.21
-9.34
-6.57
-5.85
-8.66
-15.12
-23.85
-32.62
-39.28
-42.63
-42.59
-39.9
-35.57
-30.45
-25.08
-19.79
-14.88
-10.64
-7.36
-5.12
-3.82
-3.13
-2.57
-1.67
-0.01
2.54
5.8
9.28
12.32
14.38
15.32
15.41
15.2
15.22
15.7
16.45
17.05
17.04
16.26
14.81
12.86
10.37
7.03
2.39
-3.72
-10.98
-18.67
-25.96
-32.3
-37.57
-41.8
-44.83
-46.12
-44.98
-41.19
-35.47
-29.52
-25.44
-24.54
-26.54
-29.31
-29.61
-24.51
-12.7
4.86
25.26
44.78
60.31
70.2
74.35
73.6
68.91
60.94
50.23
37.77
25.37
15.4
9.82
9.21
12.26
16.3
18.56
17.56
13.74
8.96
5.31
3.8
3.87
3.87
2.24
-1.56
-6.75
-11.86
-15.72
-18.08
-19.62
-21.23
-23.25
-25.07
-25.51
-23.58
-19.15
-13.09
-6.84
-1.63
2.09
4.7
6.91
9.25
11.68
13.68
14.69
14.5
13.4
11.97
10.76
9.99
9.56
9.17
8.57
7.75
6.85
6.1
5.6
5.27
4.85
3.98
2.44
0.18
-2.55
-5.34
-7.67
-9.24
-10.08
-10.53
-11.14
-12.42
-14.65
-17.78
-21.53
-25.46
-29.18
-32.35
-34.76
-36.3
-36.9
-36.61
-35.55
-33.87
-31.62
-28.68
-24.7
-19.3
-12.33
-4.1
4.52
12.35
18.27
21.77
23.17
23.56
24.23
25.92
28.37
30.37
30.42
27.71
22.69
16.89
12.02
8.87
6.97
5.16
2.66
0.04
-0.95
1.58
8.22
17.66
27.04
33.35
34.83
31.4
24.24
14.8
4.03
-7.63
-19.78
-31.59
-41.73
-49.08
-53.33
-55.34
-56.84
-59.44
-63.76
-68.97
-73.08
-73.91
-70.11
-61.84
-50.6
-38.55
-27.48
-18.1
-9.96
-2.03
6.38
15.05
22.78
28.08
30.09
29.25
27.13
25.58
25.69
27.19
28.8
29.07
27.43
24.52
21.83
20.66
21.31
22.77
23.2
20.79
14.64
5.02
-6.71
-18.62
-28.85
-35.85
-38.58
-36.46
-29.42
-18.21
-4.58
8.78
19.08
24.58
25.51
23.92
22.45
22.77
24.52
25.68
24.09
19.08
12.12
6.06
3.56
5.63
11.4
18.92
26.49
33.48
40.29
47.62
55.8
64.43
72.62
79.4
84.08
86.31
85.9
82.58
75.88
65.33
50.74
32.58
12.02
-9.15
-28.93
-45.45
-57.3
-63.75
-64.91
-61.85
-56.35
-50.53
-46.13
-43.89
-43.45
-43.67
-43.32
-41.72
-38.93
-35.38
-31.46
-27.21
-22.51
-17.34
-12.06
-7.24
-3.46
-0.9
0.61
1.45
2.01
2.58
3.41
4.78
6.87
9.54
12.23
13.98
13.83
11.3
6.69
0.95
-4.71
-9.46
-13.09
-15.96
-18.72
-21.86
-25.55
-29.64
-33.79
-37.62
-40.79
-43.01
-44.13
-44.23
-43.71
-43.22
-43.42
-44.6
-46.38
-47.73
-47.34
-44.11
-37.65
-28.45
-17.62
-6.53
3.73
12.63
20.19
26.78
32.8
38.46
43.7
48.3
52.06
54.92
57.04
58.68
60.06
61.28
62.27
62.86
62.98
62.67
62.1
61.45
60.7
59.69
58.21
56.17
53.75
51.42
49.7
48.88
48.91
49.33
49.58
49.29
48.5
47.66
47.44
48.31
50.29
52.84
55.04
55.92
54.83
51.59
46.4
39.54
31.14
21.16
9.64
-3.02
-15.95
-28
-38.18
-45.98
-51.48
-55.1
-57.27
-58.2
-57.99
-56.83
-55.22
-53.89
-53.39
-53.87
-54.96
-56.07
-56.91
-57.75
-59.35
-62.52
-67.61
-74.16
-80.92
-86.24
-88.59
-87.14
-81.89
-73.68
-63.76
-53.34
-43.24
-33.66
-24.44
-15.34
-6.35
2.1
9.28
14.46
17.28
17.89
16.91
15.11
13.07
10.93
8.53
5.61
2.11
-1.58
-4.73
-6.46
-6.22
-3.99
-0.35
3.68
7.01
8.78
8.59
6.61
3.51
0.25
-2.13
-2.83
-1.43
1.95
6.77
12.26
17.59
22.01
25.06
26.55
26.71
26.06
25.27
24.86
24.96
25.32
25.48
25.12
24.17
22.86
21.47
20.13
18.79
17.3
15.57
13.72
11.99
10.61
9.68
9.13
8.8
8.53
8.16
7.51
6.38
4.55
1.88
-1.61
-5.72
-10.04
-14.02
-17.09
-18.74
-18.7
-17.08
-14.33
-11.16
-8.24
-6.05
-4.69
-3.9
-3.18
-2.01
-0.04
2.89
6.67
11.02
15.49
19.61
22.96
25.29
26.59
27.04
26.88
26.38
25.64
24.68
23.39
21.74
19.81
17.82
16.03
14.63
13.6
12.8
12.01
11.04
9.85
8.49
7.07
5.68
4.37
3.09
1.8
0.43
-1.05
-2.58
-4.07
-5.38
-6.44
-7.22
-7.87
-8.6
-9.66
-11.21
-13.34
-16
-19.03
-22.13
-24.84
-26.67
-27.13
-25.98
-23.31
-19.5
-15.1
-10.61
-6.38
-2.51
0.99
4.14
6.91
9.27
11.32
13.26
15.38
17.81
20.48
23.05
25.1
26.38
26.95
27.07
27.1
27.23
27.39
27.42
27.22
26.85
26.56
26.59
26.95
27.38
27.4
26.53
24.47
21.18
16.86
11.92
6.88
2.3
-1.33
-3.67
-4.65
-4.5
-3.73
-3.03
-3
-3.99
-5.95
-8.35
-10.44
-11.48
-11.11
-9.5
-7.25
-5.11
-3.65
-3.02
-2.93
-2.85
-2.29
-0.93
1.28
4.19
7.54
11.1
14.54
17.55
19.72
20.71
20.3
18.58
15.9
12.88
10.15
8.09
6.69
5.49
3.84
1.23
-2.46
-6.98
-11.79
-16.36
-20.34
-23.59
-26.13
-27.94
-29.03
-29.35
-28.92
-27.86
-26.45
-25.06
-24.04
-23.58
-23.62
-23.83
-23.75
-23.07
-21.74
-20.06
-18.49
-17.25
-16.21
-14.84
-12.61
-9.39
-5.59
-2.08
0.35
1.46
1.64
1.64
2.01
2.71
3.04
2.17
-0.36
-4.23
-8.53
-12.23
-14.79
-16.37
-17.57
-18.93
-20.56
-22.03
-22.73
-22.31
-20.9
-19.02
-17.29
-16.05
-15.33
-14.89
-14.45
-13.82
-12.84
-11.41
-9.43
-6.88
-3.99
-1.17
1.07
2.33
2.57
2.13
1.53
1.19
1.33
1.82
2.45
3.02
3.42
3.52
3.08
1.73
-0.81
-4.4
-8.29
-11.17
-11.72
-9.23
-4.03
2.58
8.86
13.46
15.95
16.9
17.37
18.23
19.73
21.4
22.38
21.96
19.87
16.41
12.26
8.32
5.41
4.09
4.47
6.1
7.98
8.74
7.01
1.82
-7.07
-19.05
-32.75
-46.22
-57.4
-64.5
-66.55
-63.73
-57.28
-49.04
-40.62
-32.67
-24.75
-15.85
-5.33
6.42
17.84
26.94
32.33
33.86
32.67
30.42
28.33
26.57
24.45
21.14
16.44
11.13
6.59
4.06
3.86
5.22
6.75
7.31
6.7
5.87
6.3
9.05
13.99
19.74
24.22
25.81
24.15
20.27
16.02
13.13
12.41
13.63
15.81
17.89
19.25
19.76
19.71
19.39
19.04
18.74
18.57
18.63
19
19.64
20.29
20.58
20.17
18.94
17.17
15.36
14.1
13.71
14.17
15.1
15.98
16.39
16.12
15.18
13.67
11.66
9.17
6.22
2.98
-0.14
-2.52
-3.44
-2.24
1.38
7.1
13.97
20.44
24.86
25.85
22.61
15.06
3.68
-10.71
-27.11
-44.33
-61.06
-75.88
-87.53
-95.1
-98.27
-97.2
-92.37
-84.43
-74.24
-62.93
-51.98
-42.89
-36.7
-33.45
-32.17
-31.25
-29.25
-25.59
-20.67
-15.53
-11.08
-7.59
-4.71
-1.8
1.45
4.82
7.71
9.56
10.26
10.13
9.67
9.24
8.8
8.03
6.58
4.33
1.54
-1.22
-3.36
-4.52
-4.67
-4.04
-2.81
-0.93
1.98
6.39
12.51
19.92
27.59
34.09
38.14
39.24
37.79
34.95
32.03
29.98
28.99
28.6
28.04
26.68
24.31
21.19
17.85
14.83
12.47
10.78
9.56
8.52
7.55
6.78
6.53
7.04
8.28
9.84
11.11
11.62
11.29
10.54
9.93
9.88
10.31
10.81
10.81
10.06
8.68
7.09
5.72
4.75
4.15
3.73
3.31
2.82
2.22
1.53
0.69
-0.38
-1.67
-3.05
-4.21
-4.74
-4.23
-2.37
0.93
5.55
11.13
17.13
22.87
27.64
30.83
32.1
31.55
29.74
27.51
25.69
24.73
24.49
24.32
23.38
21.09
17.45
12.96
8.32
4.01
0.13
-3.55
-7.21
-10.82
-14.14
-17.09
-20.09
-23.98
-29.58
-37.08
-45.63
-53.6
-59.4
-62.23
-62.53
-61.62
-60.89
-61.18
-62.6
-64.98
-68.35
-73.13
-79.81
-88.21
-97.14
-104.59
-108.45
-107.37
-101.21
-90.89
-77.81
-63.22
-47.92
-32.44
-17.3
-3.24
8.85
18.19
24.42
27.74
28.82
28.57
27.88
27.45
27.65
28.57
30.05
31.79
33.51
35.04
36.32
37.38
38.14
38.38
37.75
35.96
33
29.17
25.04
21.18
17.88
15.03
12.27
9.2
5.72
2.07
-1.33
-4.14
-6.33
-8.14
-9.92
-11.84
-13.87
-15.79
-17.49
-19.04
-20.71
-22.75
-25.11
-27.36
-28.73
-28.46
-26.09
-21.75
-16.02
-9.75
-3.76
1.45
5.73
9.17
12.01
14.32
16.14
17.37
18
18.14
18.07
18.07
18.39
19.05
19.91
20.77
21.47
22.02
22.55
23.25
24.18
25.23
26.2
26.8
26.84
26.25
25.14
23.72
22.19
20.65
19.13
17.56
15.81
13.78
11.42
8.75
5.88
2.92
0.03
-2.73
-5.29
-7.72
-10.14
-12.76
-15.64
-18.65
-21.33
-23
-23
-20.94
-16.84
-11.11
-4.39
2.76
9.91
16.88
23.55
29.85
35.63
40.62
44.47
46.8
47.27
45.72
42.35
37.71
32.54
27.55
23.07
19.03
15.15
11.24
7.41
4.06
1.54
-0.1
-1.3
-2.79
-5.23
-8.84
-13.26
-17.8
-21.8
-24.93
-27.32
-29.36
-31.44
-33.71
-36.07
-38.21
-39.84
-40.81
-41.15
-41.08
-40.87
-40.92
-41.59
-43.17
-45.74
-48.98
-52.2
-54.43
-54.78
-52.81
-48.76
-43.52
-38.29
-34.08
-31.34
-29.85
-28.9
-27.8
-26.22
-24.35
-22.75
-22.01
-22.36
-23.59
-25.08
-26
-25.4
-22.41
-16.31
-6.76
5.85
20.3
34.66
46.85
55.35
59.69
60.56
59.44
57.84
56.81
56.69
57.26
58.16
59.16
60.2
61.23
62.06
62.3
61.5
59.26
55.42
50.09
43.56
36.28
28.71
21.37
14.79
9.5
5.97
4.44
4.86
6.84
9.73
12.76
15.26
16.78
17.2
16.68
15.57
14.2
12.79
11.34
9.74
7.92
5.95
4.06
2.62
1.86
1.82
2.25
2.75
2.91
2.53
1.61
0.31
-1.2
-2.85
-4.7
-6.78
-9.1
-11.57
-14.04
-16.39
-18.6
-20.76
-23.01
-25.47
-28.21
-31.25
-34.56
-38.17
-42.08
-46.2
-50.25
-53.72
-55.98
-56.46
-54.96
-51.77
-47.72
-43.87
-41.26
-40.35
-40.9
-41.9
-41.98
-39.9
-35.12
-27.97
-19.5
-10.98
-3.48
2.47
6.8
9.71
11.42
12.09
11.94
11.34
10.81
10.82
11.57
12.95
14.53
15.88
16.71
16.92
16.59
15.88
14.95
13.93
13.01
12.31
11.91
11.7
11.42
10.71
9.29
7.01
4
0.63
-2.48
-4.54
-4.78
-2.61
2.13
9.05
17.19
25.32
32.27
37.38
40.67
42.7
44.21
45.79
47.57
49.32
50.62
51.15
50.79
49.57
47.52
44.64
40.88
36.38
31.53
26.98
23.46
21.49
21.17
22.12
23.61
24.87
25.28
24.49
22.46
19.33
15.35
10.84
6.16
1.67
-2.28
-5.49
-7.97
-9.87
-11.52
-13.16
-14.81
-16.17
-16.66
-15.65
-12.75
-8
-1.93
4.61
10.8
16.15
20.55
24.16
27.17
29.52
31.02
31.42
30.73
29.2
27.27
25.29
23.35
21.27
18.76
15.64
11.97
8.03
4.18
0.71
-2.2
-4.49
-6.16
-7.24
-7.77
-7.84
-7.45
-6.53
-4.92
-2.38
1.18
5.61
10.46
15.06
18.7
20.8
21.05
19.49
16.53
12.87
9.35
6.66
5.06
4.24
3.4
1.64
-1.57
-6.02
-10.82
-14.75
-16.96
-17.26
-16.24
-14.84
-13.85
-13.54
-13.68
-13.82
-13.64
-13.06
-12.19
-11.07
-9.59
-7.49
-4.59
-0.95
3.11
7.05
10.3
12.39
13.06
12.43
10.94
9.24
7.83
6.85
5.93
4.43
1.81
-2.01
-6.61
-11.28
-15.48
-19.1
-22.37
-25.57
-28.62
-31.06
-32.17
-31.42
-28.76
-24.67
-20
-15.67
-12.38
-10.44
-9.76
-9.91
-10.27
-10.16
-9.04
-6.6
-2.85
1.81
6.74
11.15
14.37
16.02
16.06
14.75
12.46
9.6
6.48
3.38
0.54
-1.78
-3.38
-4.15
-4.12
-3.48
-2.45
-1.3
-0.29
0.4
0.7
0.59
0.2
-0.33
-0.89
-1.45
-2.05
-2.77
-3.67
-4.8
-6.15
-7.68
-9.33
-10.94
-12.27
-13
-12.89
-11.91
-10.25
-8.3
-6.41
-4.82
-3.52
-2.32
-1
0.58
2.41
4.37
6.29
8.01
9.43
10.46
11.08
11.41
11.71
12.35
13.62
15.55
17.82
19.81
20.86
20.54
18.78
15.9
12.36
8.62
4.95
1.43
-1.91
-5.06
-8
-10.74
-13.32
-15.84
-18.38
-20.92
-23.34
-25.4
-26.82
-27.37
-27
-25.82
-24.17
-22.46
-21.03
-19.97
-19
-17.6
-15.21
-11.47
-6.48
-0.75
4.95
9.91
13.71
16.3
17.94
18.98
19.73
20.3
20.64
20.69
20.42
19.96
19.53
19.35
19.49
19.84
20.2
20.34
20.15
19.61
18.77
17.63
16.16
14.25
11.87
9.09
6.11
3.21
0.6
-1.62
-3.5
-5.2
-6.95
-8.88
-11
-13.14
-15.02
-16.37
-17.15
-17.56
-18.01
-18.87
-20.29
-22.04
-23.65
-24.66
-24.93
-24.74
-24.69
-25.38
-26.96
-29.04
-30.74
-31.13
-29.69
-26.55
-22.46
-18.43
-15.31
-13.5
-12.94
-13.2
-13.79
-14.31
-14.54
-14.32
-13.59
-12.27
-10.43
-8.21
-5.94
-4.03
-2.92
-2.93
-4.25
-6.79
-10.22
-13.94
-17.21
-19.42
-20.24
-19.84
-18.75
-17.76
-17.57
-18.48
-20.34
-22.55
-24.33
-24.94
-23.94
-21.23
-17.13
-12.24
-7.34
-3.1
0.17
2.61
4.82
7.51
11.12
15.53
20.07
23.85
26.17
26.94
26.63
26.02
25.8
26.22
27.09
28
28.6
28.8
28.81
28.95
29.43
30.24
31.2
31.99
32.38
32.25
31.65
30.67
29.37
27.71
25.57
22.83
19.42
15.47
11.19
6.9
2.83
-0.88
-4.25
-7.37
-10.39
-13.43
-16.48
-19.41
-21.94
-23.78
-24.71
-24.69
-23.93
-22.77
-21.56
-20.47
-19.55
-18.74
-18.07
-17.75
-18.09
-19.4
-21.73
-24.79
-27.94
-30.44
-31.63
-31.19
-29.22
-26.18
-22.81
-19.83
-17.76
-16.85
-17.05
-18.17
-19.98
-22.28
-24.95
-27.86
-30.81
-33.49
-35.49
-36.39
-35.82
-33.52
-29.49
-24.03
-17.67
-11.08
-4.86
0.65
5.45
9.76
13.82
17.72
21.28
24.24
26.42
27.95
29.19
30.48
31.94
33.36
34.35
34.65
34.41
34.09
34.26
35.23
36.88
38.74
40.27
41.09
41.16
40.58
39.5
38.02
36.15
33.92
31.39
28.53
25.09
20.64
14.89
7.96
0.64
-5.76
-9.93
-11.24
-10.22
-8.46
-7.91
-9.94
-14.66
-20.86
-26.7
-30.73
-32.59
-33.11
-33.69
-35.31
-37.95
-40.6
-41.93
-41.16
-38.47
-34.93
-31.79
-29.82
-28.91
-28.28
-27.04
-24.67
-21.35
-17.75
-14.59
-12.25
-10.61
-9.18
-7.4
-5.02
-2.14
0.84
3.45
5.4
6.61
7.21
7.39
7.33
7.24
7.32
7.76
8.57
9.54
10.17
9.94
8.66
6.66
4.77
3.94
4.79
7.25
10.63
13.89
16.19
17.08
16.72
15.59
14.26
13.07
12.07
11.1
9.95
8.55
6.98
5.5
4.31
3.53
3.1
2.93
2.96
3.32
4.29
6.14
8.91
12.2
15.17
16.69
15.91
12.57
7.36
1.67
-3
-5.68
-6.39
-6.02
-5.72
-6.19
-7.47
-8.99
-10.21
-10.96
-11.45
-11.92
-12.17
-11.58
-9.48
-5.79
-1.29
2.63
4.72
4.53
2.67
0.42
-1
-0.99
0.23
1.89
3.2
3.68
3.31
2.37
1.28
0.48
0.33
1.12
3.02
6
9.87
14.3
18.87
23.08
26.44
28.44
28.72
27.17
24.06
19.96
15.6
11.64
8.43
6.02
4.13
2.37
0.44
-1.85
-4.49
-7.29
-9.99
-12.27
-13.89
-14.72
-14.86
-14.63
-14.54
-15.04
-16.35
-18.31
-20.43
-22.09
-22.88
-22.82
-22.33
-22.03
-22.36
-23.33
-24.56
-25.58
-26.21
-26.81
-28.11
-30.88
-35.54
-41.87
-49.05
-55.89
-61.16
-63.81
-63.15
-58.92
-51.41
-41.5
-30.56
-20.18
-11.59
-5.3
-0.96
2.34
5.44
8.72
11.89
14.4
15.88
16.45
16.69
17.22
18.31
19.8
21.19
22.12
22.61
22.99
23.69
24.9
26.44
27.86
28.8
29.14
29.07
28.88
28.75
28.61
28.24
27.52
26.5
25.34
24.12
22.59
20.27
16.71
11.89
6.44
1.4
-2.14
-3.61
-3.26
-2.03
-1.05
-1.1
-2.24
-3.81
-4.84
-4.51
-2.58
0.56
4.17
7.52
10.22
12.25
13.76
14.79
15.17
14.56
12.78
10.05
7.08
4.71
3.59
3.79
4.64
5.01
3.68
-0.16
-6.57
-14.8
-23.48
-31.01
-35.86
-36.82
-33.17
-24.89
-12.78
1.39
15.26
26.42
33.25
35.3
33.25
28.33
21.58
13.51
4.33
-5.4
-14.38
-20.63
-22.29
-18.61
-10.45
-0.06
9.95
17.62
22.45
25.21
27.33
29.92
33.2
36.54
38.93
39.62
38.6
36.46
34.01
31.76
29.66
27.17
23.78
19.34
14.34
9.66
6.17
4.28
3.74
3.81
3.56
2.35
0.06
-2.85
-5.66
-7.64
-8.5
-8.48
-8.26
-8.56
-9.8
-11.89
-14.34
-16.63
-18.51
-20.17
-22.09
-24.69
-28.09
-31.97
-35.68
-38.5
-39.83
-39.35
-36.99
-32.89
-27.36
-20.89
-14.02
-7.34
-1.32
3.75
7.76
10.82
13.13
14.96
16.52
17.9
19.09
19.98
20.51
20.78
21.04
21.53
22.44
23.72
25.06
26.09
26.32
25.33
22.7
18.12
11.51
3.25
-5.66
-13.75
-19.36
-21.36
-19.54
-14.78
-8.74
-3.19
0.6
2.17
1.78
-0
-2.69
-6.06
-10.02
-14.3
-18.24
-20.92
-21.49
-19.7
-16.02
-11.57
-7.59
-4.92
-3.68
-3.38
-3.24
-2.74
-1.81
-0.84
-0.39
-0.77
-1.91
-3.32
-4.39
-4.69
-4.1
-2.85
-1.31
0.19
1.47
2.46
3.19
3.72
4.12
4.44
4.77
5.21
5.84
6.65
7.56
8.38
8.84
8.68
7.71
5.94
3.59
1.05
-1.3
-3.28
-5.02
-6.95
-9.61
-13.32
-17.96
-22.91
-27.22
-29.94
-30.5
-28.94
-25.85
-22.04
-18.22
-14.72
-11.46
-8.12
-4.41
-0.18
4.54
9.58
14.66
19.38
23.31
26.05
27.47
27.79
27.54
27.38
27.71
28.51
29.42
29.98
29.92
29.26
28.27
27.18
26.04
24.77
23.23
21.41
19.45
17.55
15.83
14.3
12.82
11.29
9.63
7.88
6.14
4.43
2.71
0.89
-1.11
-3.28
-5.47
-7.4
-8.75
-9.21
-8.54
-6.65
-3.64
0.2
4.44
8.54
12.01
14.49
15.85
16.15
15.61
14.48
12.91
10.97
8.71
6.27
3.93
2.08
1.06
0.96
1.61
2.6
3.48
3.95
3.94
3.64
3.28
3.02
2.79
2.35
1.43
-0.11
-2.19
-4.52
-6.76
-8.61
-10.03
-11.17
-12.34
-13.86
-15.93
-18.56
-21.61
-24.76
-27.63
-29.79
-30.84
-30.51
-28.77
-25.95
-22.7
-19.95
-18.54
-18.95
-21.02
-23.85
-26.02
-26.11
-23.18
-17.22
-9.2
-0.73
6.5
11.32
13.43
13.25
11.54
8.97
5.9
2.5
-0.93
-3.74
-5.08
-4.28
-1.34
3.02
7.61
11.25
13.36
13.99
13.69
13.01
12.24
11.28
9.86
7.83
5.2
2.24
-0.71
-3.44
-5.94
-8.32
-10.72
-13.09
-15.13
-16.39
-16.45
-15.14
-12.68
-9.55
-6.29
-3.31
-0.68
1.77
4.26
6.95
9.75
12.43
14.73
16.51
17.72
18.39
18.52
18.06
17.02
15.57
14.11
13.17
13.2
14.42
16.62
19.29
21.69
23.06
22.79
20.5
16.3
10.87
5.38
1.19
-0.72
-0.2
1.93
4.22
5.28
4.29
1.35
-2.86
-7.48
-12.01
-16.41
-20.97
-25.97
-31.51
-37.41
-43.35
-48.97
-53.84
-57.45
-59.12
-58.22
-54.27
-47.26
-37.7
-26.59
-15.24
-4.83
3.8
10.37
15.15
18.78
21.98
25.25
28.65
31.81
34.11
34.98
34.15
31.66
27.82
22.94
17.23
10.9
4.34
-1.72
-6.3
-8.48
-7.86
-4.96
-1.16
1.71
2.16
-0.3
-4.98
-10.3
-14.64
-17.03
-17.55
-17.01
-16.39
-16.19
-16.27
-16.08
-15.14
-13.47
-11.53
-9.94
-8.99
-8.36
-7.27
-4.94
-1.02
4.19
9.82
14.96
18.93
21.59
23.23
24.21
24.77
24.91
24.51
23.56
22.23
20.8
19.54
18.59
17.96
17.64
17.76
18.48
19.96
22.16
24.75
27.19
28.82
28.99
27.27
23.52
17.98
11.22
4.01
-2.84
-8.78
-13.62
-17.59
-21.19
-24.96
-29.33
-34.27
-39.4
-43.93
-47
-47.97
-46.71
-43.63
-39.46
-34.93
-30.42
-25.83
-20.8
-14.98
-8.38
-1.39
5.27
10.83
14.75
16.83
17.29
16.64
15.52
14.55
14.13
14.34
15.01
15.74
16.13
15.97
15.25
14.16
12.93
11.68
10.31
8.65
6.48
3.79
0.77
-2.18
-4.68
-6.54
-7.88
-9.07
-10.52
-12.53
-15.14
-18.21
-21.44
-24.58
-27.33
-29.34
-30.16
-29.42
-27.14
-23.92
-20.92
-19.38
-20.07
-22.74
-26.26
-29.01
-29.75
-28.19
-25.04
-21.49
-18.61
-16.79
-15.67
-14.49
-12.51
-9.34
-5.09
-0.2
4.62
8.63
11.24
12.12
11.37
9.43
6.98
4.62
2.73
1.41
0.55
0.01
-0.28
-0.33
-0.22
-0.19
-0.56
-1.66
-3.67
-6.54
-10.08
-14
-18.09
-22.19
-26.16
-29.8
-32.81
-34.85
-35.62
-34.98
-32.96
-29.86
-26.14
-22.39
-19.13
-16.68
-15.01
-13.7
-12.12
-9.65
-6.02
-1.35
3.9
9.12
13.81
17.66
20.6
22.68
24
24.72
25
25.04
25.02
25.02
25.01
24.9
24.6
24.1
23.43
22.71
21.96
21.13
20.11
18.73
16.94
14.78
12.46
10.19
8.13
6.29
4.54
2.67
0.55
-1.84
-4.44
-7.15
-9.99
-13.01
-16.21
-19.34
-21.88
-23.18
-22.72
-20.38
-16.56
-11.99
-7.52
-3.74
-0.88
1.16
2.59
3.55
4.05
4.03
3.49
2.61
1.74
1.26
1.45
2.32
3.66
5.06
6.16
6.73
6.82
6.69
6.63
6.8
7.18
7.57
7.74
7.57
7.07
6.39
5.66
4.93
4.17
3.26
2.11
0.68
-1.01
-2.9
-4.99
-7.25
-9.67
-12.16
-14.53
-16.5
-17.63
-17.49
-15.75
-12.32
-7.47
-1.76
4.05
9.25
13.4
16.39
18.44
19.95
21.36
23.08
25.43
28.64
32.86
38.1
44.15
50.56
56.72
62.09
66.3
69.32
71.26
72.23
72.02
70.07
65.74
58.64
49.04
37.88
26.51
16.21
7.72
1.12
-4.07
-8.42
-12.42
-16.24
-19.89
-23.24
-26.24
-28.87
-31.2
-33.39
-35.67
-38.24
-41.11
-44
-46.26
-47.13
-45.93
-42.48
-37.15
-30.72
-24.05
-17.76
-12.1
-7.06
-2.59
1.23
4.21
6.19
7.28
7.87
8.45
9.44
10.91
12.62
14.16
15.21
15.68
15.7
15.44
15.01
14.37
13.43
12.11
10.44
8.54
6.56
4.56
2.55
0.46
-1.72
-3.94
-6.12
-8.15
-10
-11.67
-13.18
-14.5
-15.57
-16.33
-16.75
-16.92
-17.02
-17.2
-17.59
-18.19
-18.97
-19.93
-21.18
-22.81
-24.8
-26.86
-28.42
-28.77
-27.36
-24.06
-19.23
-13.66
-8.23
-3.65
-0.23
2.08
3.6
4.68
5.64
6.68
7.97
9.65
11.78
14.31
17.09
19.79
22.08
23.67
24.4
24.25
23.29
21.59
19.19
16.09
12.25
7.7
2.58
-2.87
-8.32
-13.41
-17.86
-21.5
-24.32
-26.45
-28.05
-29.22
-30.03
-30.53
-30.89
-31.39
-32.37
-33.95
-35.93
-37.73
-38.68
-38.27
-36.45
-33.51
-29.88
-25.8
-21.1
-15.47
-8.66
-0.78
7.62
15.83
23.31
29.85
35.62
40.9
45.86
50.39
54.14
56.79
58.17
58.49
58.28
58.21
58.9
60.62
63.21
66.11
68.58
70.03
70.19
69.23
67.59
65.78
64.16
62.87
61.87
60.98
60.03
58.78
56.99
54.29
50.45
45.37
39.3
32.78
26.52
21.18
17
13.74
10.73
7.14
2.34
-3.91
-11.35
-19.36
-27.04
-33.53
-38.12
-40.51
-40.8
-39.47
-37.22
-34.7
-32.27
-29.95
-27.5
-24.64
-21.24
-17.49
-13.78
-10.54
-8.15
-6.89
-6.89
-8.08
-10.05
-12.13
-13.44
-13.2
-11.04
-7.2
-2.38
2.48
6.52
9.26
10.55
10.55
9.57
8.04
6.43
5.25
4.96
5.79
7.62
9.95
12.04
13.09
12.55
10.23
6.37
1.49
-3.72
-8.66
-12.91
-16.36
-19.09
-21.4
-23.6
-25.94
-28.45
-31.01
-33.3
-34.95
-35.58
-34.93
-32.92
-29.77
-25.94
-22.04
-18.71
-16.37
-15.11
-14.68
-14.58
-14.29
-13.49
-12.11
-10.36
-8.57
-7.08
-6.18
-5.98
-6.47
-7.37
-8.21
-8.35
-7.25
-4.57
-0.45
4.6
9.78
14.4
18.05
20.65
22.28
22.98
22.54
20.58
16.77
11.19
4.35
-2.81
-9.34
-14.55
-18.25
-20.65
-22.24
-23.54
-24.92
-26.55
-28.36
-29.98
-30.79
-30.14
-27.56
-23.09
-17.41
-11.57
-6.7
-3.48
-1.91
-1.47
-1.43
-1.35
-1.25
-1.49
-2.42
-4.06
-6.01
-7.66
-8.47
-8.31
-7.48
-6.48
-5.81
-5.63
-5.8
-6.03
-6.09
-6.04
-6.22
-7.04
-8.78
-11.3
-14.06
-16.27
-17.32
-16.95
-15.51
-13.64
-12.04
-11.1
-10.87
-11.19
-11.86
-12.74
-13.71
-14.5
-14.69
-13.83
-11.68
-8.46
-4.75
-1.26
1.54
3.62
5.23
6.68
8.05
9.08
9.36
8.63
7.03
5.1
3.58
3.03
3.62
5.04
6.71
8.1
9
9.56
10.11
10.9
11.85
12.55
12.55
11.6
9.84
7.74
5.83
4.44
3.47
2.55
1.21
-0.88
-3.67
-6.81
-9.76
-11.93
-12.87
-12.37
-10.49
-7.54
-4.02
-0.45
2.76
5.41
7.54
9.37
11.12
12.88
14.54
15.84
16.5
16.44
15.78
14.9
14.21
13.93
14
14.01
13.47
12.07
9.8
7.01
4.21
1.78
-0.1
-1.49
-2.59
-3.62
-4.81
-6.46
-8.9
-12.31
-16.56
-21.13
-25.21
-28.15
-29.64
-29.87
-29.29
-28.28
-26.93
-25.08
-22.49
-19.08
-15.01
-10.46
-5.61
-0.55
4.52
9.2
12.9
15.14
15.82
15.33
14.39
13.63
13.35
13.46
13.71
13.94
14.21
14.69
15.35
15.93
15.91
14.83
12.55
9.34
5.72
2.26
-0.67
-2.98
-4.67
-5.79
-6.34
-6.36
-6
-5.63
-5.64
-6.32
-7.66
-9.34
-10.83
-11.68
-11.64
-10.81
-9.5
-8.04
-6.71
-5.61
-4.71
-3.94
-3.15
-2.26
-1.18
0.1
1.57
3.18
4.86
6.55
8.08
9.28
9.96
10.03
9.55
8.76
8
7.48
7.26
7.15
6.93
6.44
5.7
4.79
3.84
2.81
1.54
-0.13
-2.27
-4.76
-7.23
-9.22
-10.29
-10.17
-8.9
-6.84
-4.49
-2.37
-0.74
0.45
1.51
2.74
4.26
5.95
7.45
8.46
8.93
9.09
9.36
10.16
11.66
13.78
16.17
18.39
20.08
21.01
21.17
20.72
19.87
18.83
17.66
16.31
14.67
12.71
10.5
8.19
5.91
3.61
1.09
-1.94
-5.6
-9.7
-13.75
-17.04
-18.96
-19.12
-17.55
-14.62
-10.98
-7.47
-4.92
-4.04
-5.24
-8.59
-13.82
-20.33
-27.34
-33.91
-39.16
-42.33
-43.06
-41.45
-38.08
-33.75
-29.26
-25.15
-21.61
-18.64
-16.16
-14.16
-12.66
-11.72
-11.29
-11.27
-11.54
-12.04
-12.75
-13.77
-15.25
-17.51
-20.77
-25.1
-30.11
-35.01
-38.72
-40.32
-39.33
-35.93
-30.74
-24.55
-17.99
-11.43
-5.05
1.05
6.76
11.91
16.37
20.04
22.88
24.89
26.13
26.8
27.2
27.72
28.64
29.99
31.46
32.6
33.03
32.68
31.82
30.91
30.3
30.01
29.74
28.98
27.42
25.08
22.37
19.88
18.07
17.09
16.72
16.58
16.28
15.63
14.59
13.25
11.64
9.72
7.33
4.31
0.68
-3.28
-7.05
-9.98
-11.53
-11.48
-10.02
-7.64
-4.92
-2.31
-0.06
1.71
2.92
3.37
2.88
1.37
-0.91
-3.4
-5.42
-6.42
-6.12
-4.69
-2.53
-0.15
2.01
3.71
4.86
5.52
5.77
5.74
5.54
5.29
5.08
4.87
4.52
3.87
2.8
1.31
-0.42
-2.17
-3.75
-5.2
-6.77
-8.84
-11.67
-15.28
-19.38
-23.46
-26.92
-29.31
-30.32
-29.85
-27.89
-24.57
-20.14
-14.96
-9.51
-4.22
0.72
5.31
9.62
13.55
16.76
18.76
19.24
18.31
16.54
14.72
13.42
12.67
12.12
11.34
10.3
9.56
10.09
12.73
17.61
23.93
30.19
34.75
36.53
35.32
31.86
27.43
23.33
20.36
18.7
17.96
17.49
16.71
15.27
13.15
10.51
7.62
4.79
2.39
0.81
0.39
1.36
3.62
6.79
10.22
13.21
15.24
16.11
16.01
15.35
14.55
13.87
13.31
12.78
12.1
11.26
10.33
9.46
8.76
8.27
8.01
7.96
8.18
8.62
9.13
9.42
9.16
8.12
6.32
4.1
1.93
0.24
-0.81
-1.41
-1.99
-3.09
-5.13
-8.19
-12.06
-16.29
-20.32
-23.61
-25.74
-26.46
-25.67
-23.46
-20.11
-16.07
-11.92
-8.13
-5.04
-2.76
-1.25
-0.41
-0.14
-0.36
-0.88
-1.46
-1.74
-1.44
-0.43
1.17
3.05
4.77
5.92
6.19
5.48
3.93
1.95
0.04
-1.31
-1.88
-1.76
-1.33
-1.01
-1.05
-1.44
-1.94
-2.28
-2.35
-2.21
-2.07
-2.11
-2.4
-2.89
-3.47
-4.06
-4.73
-5.6
-6.78
-8.23
-9.69
-10.69
-10.71
-9.4
-6.7
-2.95
1.24
5.24
8.7
11.53
13.93
16.1
18.04
19.52
20.21
19.84
18.4
16.13
13.37
10.49
7.74
5.28
3.21
1.61
0.55
0.05
0.05
0.34
0.63
0.55
-0.22
-1.85
-4.28
-7.24
-10.25
-12.81
-14.53
-15.23
-14.97
-14.07
-12.93
-11.97
-11.46
-11.4
-11.56
-11.56
-11.06
-9.91
-8.26
-6.39
-4.51
-2.64
-0.61
1.85
4.89
8.57
12.9
17.85
23.19
28.32
32.16
33.47
31.33
25.71
17.77
9.47
2.92
-0.46
-0.31
2.72
7.51
12.93
18.15
22.57
25.67
26.96
26.07
23.08
18.64
13.86
9.98
7.87
7.68
8.78
10.14
10.74
9.99
7.89
4.81
1.21
-2.6
-6.47
-10.33
-14.05
-17.31
-19.8
-21.27
-21.63
-20.95
-19.38
-17.12
-14.46
-11.71
-9.29
-7.51
-6.46
-5.97
-5.6
-4.94
-3.81
-2.37
-1.15
-0.77
-1.66
-3.85
-6.88
-9.99
-12.34
-13.43
-13.24
-12.2
-10.9
-9.85
-9.22
-8.88
-8.58
-8.15
-7.65
-7.24
-7.12
-7.33
-7.69
-7.97
-7.95
-7.52
-6.74
-5.75
-4.74
-3.86
-3.3
-3.19
-3.56
-4.37
-5.36
-6.18
-6.35
-5.49
-3.34
0
4.2
8.73
13.12
17.16
20.86
24.36
27.65
30.48
32.45
33.18
32.56
30.84
28.44
25.7
22.72
19.42
15.73
11.8
8.02
4.79
2.25
0.17
-1.99
-4.71
-8.16
-12.13
-16.2
-19.96
-23.27
-26.19
-28.88
-31.46
-34.04
-36.68
-39.38
-41.95
-43.94
-44.68
-43.58
-40.43
-35.58
-29.89
-24.27
-19.35
-15.22
-11.64
-8.29
-5.12
-2.35
-0.31
0.91
1.49
1.9
2.55
3.63
4.98
6.25
6.97
6.86
5.92
4.44
2.85
1.52
0.58
-0.07
-0.64
-1.31
-2.06
-2.68
-2.98
-3.01
-3.1
-3.74
-5.29
-7.71
-10.51
-12.99
-14.66
-15.51
-15.99
-16.76
-18.17
-20.12
-22.07
-23.32
-23.43
-22.36
-20.44
-18.18
-16.03
-14.25
-12.94
-12.13
-11.82
-11.96
-12.39
-12.85
-13.09
-12.95
-12.41
-11.56
-10.46
-9.09
-7.47
-5.65
-3.86
-2.46
-1.79
-1.98
-2.85
-3.93
-4.69
-4.77
-4.22
-3.39
-2.8
-2.82
-3.54
-4.7
-5.86
-6.61
-6.82
-6.64
-6.39
-6.27
-6.24
-5.95
-4.98
-3.13
-0.52
2.39
5.01
6.92
8
8.42
8.51
8.58
8.93
9.81
11.47
13.92
16.82
19.45
20.96
20.79
18.97
16.2
13.47
11.57
10.7
10.41
9.97
8.77
6.67
4.03
1.42
-0.63
-1.89
-2.45
-2.65
-2.88
-3.51
-4.69
-6.36
-8.22
-9.88
-11.09
-11.8
-12.24
-12.79
-13.72
-15.07
-16.54
-17.69
-18.13
-17.68
-16.43
-14.66
-12.61
-10.42
-8.15
-5.81
-3.59
-1.78
-0.68
-0.46
-0.95
-1.7
-2.14
-1.75
-0.35
1.92
4.67
7.44
9.86
11.79
13.26
14.35
15.09
15.41
15.15
14.19
12.53
10.41
8.18
6.21
4.66
3.42
2.14
0.46
-1.74
-4.19
-6.29
-7.3
-6.77
-4.65
-1.35
2.56
6.45
9.91
12.72
14.73
15.86
16.05
15.3
13.78
11.83
9.91
8.43
7.56
7.16
6.86
6.23
5.03
3.32
1.4
-0.43
-2.07
-3.73
-5.8
-8.55
-11.88
-15.32
-18.34
-20.64
-22.39
-24.14
-26.44
-29.5
-32.98
-36.19
