-13.77
-18
-22.82
-27.83
-32.43
-35.79
-37.02
-35.4
-30.69
-23.33
-14.4
-5.22
3.02
9.65
14.53
17.84
19.77
20.36
19.55
17.4
14.28
10.85
7.9
5.97
5.17
5.18
5.37
5.22
4.45
3.15
1.64
0.31
-0.6
-1.14
-1.57
-2.35
-3.95
-6.69
-10.61
-15.37
-20.21
-24.15
-26.2
-25.68
-22.44
-16.93
-9.96
-2.52
4.53
10.6
15.37
18.61
20.22
20.11
18.37
15.36
11.7
8.14
5.27
3.38
2.33
1.7
0.99
-0.11
-1.61
-3.32
-4.97
-6.45
-7.87
-9.51
-11.73
-14.76
-18.72
-23.45
-28.58
-33.42
-37.07
-38.58
-37.19
-32.63
-25.25
-15.99
-6.13
3.14
10.95
16.92
21.07
23.56
24.56
24.17
22.57
20.03
17.06
14.22
12.01
10.62
9.9
9.44
8.78
7.65
6.01
4.13
2.28
0.62
-0.89
-2.54
-4.72
-7.76
-11.77
-16.55
-21.54
-25.88
-28.56
-28.68
-25.78
-20.04
-12.26
-3.61
4.76
11.98
17.63
21.59
23.92
24.63
23.77
21.49
18.24
14.68
11.51
9.22
7.89
7.18
6.55
5.53
3.95
1.98
0.01
-1.61
-2.76
-3.65
-4.77
-6.67
-9.76
-14.16
-19.65
-25.66
-31.27
-35.43
-37.08
-35.48
-30.46
-22.56
-12.93
-3
5.89
12.85
17.54
20.11
20.9
20.3
18.63
16.22
13.44
10.75
8.54
7.04
6.2
5.72
5.26
4.59
3.7
2.71
1.82
1.06
0.27
-0.94
-3.03
-6.38
-11.12
-17
-23.31
-28.98
-32.85
-33.92
-31.72
-26.42
-18.83
-10.09
-1.37
6.42
12.74
17.36
20.25
21.46
21.08
19.3
16.51
13.23
10.05
7.45
5.64
4.57
3.96
3.46
2.79
1.86
0.71
-0.54
-1.84
-3.23
-4.92
-7.2
-10.35
-14.53
-19.65
-25.28
-30.61
-34.59
-36.17
-34.58
-29.6
-21.72
-11.98
-1.76
7.67
15.44
21.22
25.07
27.27
28.07
27.66
26.16
23.79
20.94
18.12
15.81
14.21
13.23
12.49
11.52
9.96
7.74
5.05
2.26
-0.31
-2.5
-4.48
-6.59
-9.29
-12.93
-17.65
-23.26
-29.18
-34.5
-38.12
-39.06
-36.7
-31.05
-22.76
-12.95
-2.91
6.28
13.94
19.8
23.86
26.22
26.94
26.14
24
20.92
17.43
14.13
11.49
9.69
8.61
7.91
7.16
6.09
4.65
3.04
1.56
0.42
-0.39
-1.15
-2.34
-4.46
-7.83
-12.49
-18.06
-23.77
-28.61
-31.51
-31.63
-28.6
-22.64
-14.52
-5.35
3.74
11.83
18.35
23.09
25.98
27.09
26.52
24.52
21.49
18.02
14.75
12.16
10.39
9.21
8.14
6.73
4.74
2.32
-0.14
-2.21
-3.66
-4.6
-5.45
-6.8
-9.11
-12.66
-17.26
-22.37
-27.07
-30.3
-31.09
-28.86
-23.64
-16.04
-7.16
1.84
9.96
16.62
21.59
24.86
26.52
26.66
25.41
23.02
19.89
16.52
13.4
10.86
9
7.7
6.74
5.93
5.18
4.5
3.99
3.65
3.32
2.73
1.45
-0.88
-4.53
-9.5
-15.46
-21.75
-27.4
-31.29
-32.46
-30.31
-24.91
-16.93
-7.51
2.06
10.74
17.84
23.08
26.45
28.12
28.27
27.2
25.27
22.91
20.56
18.55
16.95
15.66
14.41
12.94
11.1
8.91
6.52
4.17
2.02
0.03
-2.02
-4.45
-7.61
-11.68
-16.58
-21.94
-27.13
-31.29
-33.59
-33.29
-30.1
-24.18
-16.22
-7.28
1.49
9.15
15.15
19.34
21.79
22.66
22.09
20.22
17.31
13.8
10.26
7.25
5.1
3.8
3.07
2.48
1.71
0.66
-0.54
-1.63
-2.45
-3.04
-3.68
-4.79
-6.79
-9.95
-14.27
-19.42
-24.73
-29.27
-31.98
-32.03
-29
-23.13
-15.2
-6.4
2.12
9.44
15.02
18.69
20.49
20.62
19.36
17.1
14.34
11.58
9.26
7.55
6.43
5.64
4.87
3.87
2.61
1.21
-0.11
-1.2
-2.08
-2.98
-4.28
-6.39
-9.64
-14.09
-19.47
-25.17
-30.22
-33.55
-34.2
-31.66
-26.04
-18.08
-8.92
0.16
8.17
14.44
18.73
21.09
21.69
20.81
18.84
16.25
13.51
11.08
9.17
7.78
6.69
5.62
4.37
2.95
1.54
0.38
-0.37
-0.79
-1.27
-2.38
-4.68
-8.57
-14.06
-20.66
-27.41
-32.98
-36.05
-35.67
-31.53
-24.16
-14.71
-4.65
4.69
12.33
17.86
21.31
22.92
23.1
22.18
20.5
18.38
16.12
13.99
12.15
10.6
9.2
7.73
6.08
4.27
2.52
1.09
0.12
-0.54
-1.28
-2.64
-5.07
-8.82
-13.74
-19.33
-24.77
-29.08
-31.26
-30.52
-26.58
-19.82
-11.21
-2.07
6.37
13.3
18.45
21.96
24.09
25.01
24.73
23.25
20.76
17.67
14.55
11.87
9.81
8.28
7
5.7
4.29
2.88
1.59
0.47
-0.59
-1.88
-3.7
-6.34
-9.93
-14.44
-19.56
-24.74
-29.11
-31.67
-31.56
-28.36
-22.27
-14.17
-5.22
3.33
10.57
16.06
19.67
21.5
21.75
20.6
18.36
15.39
12.15
9.07
6.46
4.44
2.97
1.89
1.04
0.31
-0.29
-0.78
-1.2
-1.7
-2.6
-4.25
-7.01
-11.06
-16.24
-21.9
-27.01
-30.3
-30.74
-27.88
-22.02
-14.14
-5.56
2.53
9.35
14.55
18.13
20.15
20.64
19.68
17.49
14.55
11.48
8.87
7.03
5.96
5.32
4.69
3.74
2.36
0.7
-1.01
-2.56
-3.92
-5.28
-6.97
-9.39
-12.83
-17.33
-22.61
-27.9
-32.09
-34
-32.71
-28.01
-20.43
-11.16
-1.61
7.06
14.25
19.8
23.86
26.51
27.71
27.36
25.5
22.46
18.87
15.49
12.91
11.4
10.81
10.69
10.49
9.84
8.6
6.97
5.26
3.72
2.39
1.02
-0.84
-3.68
-7.8
-13.2
-19.46
-25.77
-31.08
-34.27
-34.51
-31.45
-25.4
-17.27
-8.29
0.34
7.73
13.45
17.44
19.81
20.71
20.24
18.53
15.84
12.6
9.37
6.65
4.71
3.5
2.75
2.05
1.14
-0.03
-1.27
-2.33
-3.05
-3.5
-3.99
-4.97
-6.87
-9.96
-14.27
-19.45
-24.85
-29.54
-32.51
-32.89
-30.17
-24.47
-16.49
-7.31
1.91
10.24
17.13
22.39
25.99
27.96
28.32
27.18
24.8
21.68
18.4
15.47
13.16
11.43
10.02
8.69
7.31
5.92
4.7
3.78
3.13
2.5
1.49
-0.31
-3.21
-7.24
-12.17
-17.43
-22.2
-25.52
-26.49
-24.56
-19.74
-12.59
-4.13
4.5
12.35
18.85
23.77
27.15
29.07
29.61
28.78
26.71
23.7
20.26
17.01
14.51
13.01
12.37
12.13
11.67
10.57
8.7
6.31
3.79
1.45
-0.65
-2.77
-5.32
-8.69
-13.07
-18.37
-24.12
-29.59
-33.83
-35.85
-34.9
-30.75
-23.78
-14.97
-5.52
3.42
11.09
17.11
21.43
24.07
25.07
24.48
22.55
19.72
16.63
13.9
11.93
10.79
10.22
9.86
9.35
8.53
7.43
6.23
5.1
4.14
3.29
2.32
0.91
-1.3
-4.61
-9.15
-14.7
-20.68
-26.14
-30
-31.24
-29.32
-24.33
-16.95
-8.33
0.34
8.12
14.47
19.29
22.63
24.59
25.15
24.29
22.14
19.11
15.86
13.09
11.24
10.31
9.89
9.38
8.3
6.56
4.43
2.37
0.69
-0.58
-1.75
-3.34
-5.83
-9.48
-14.21
-19.56
-24.78
-28.93
-31.08
-30.55
-27.12
-21.1
-13.31
-4.83
3.3
10.26
15.59
19.11
20.84
20.89
19.44
16.82
13.5
10.03
6.9
4.44
2.7
1.52
0.64
-0.18
-1.02
-1.88
-2.66
-3.34
-4.04
-5.01
-6.65
-9.34
-13.3
-18.42
-24.15
-29.54
-33.48
-34.95
-33.33
-28.64
-21.46
-12.77
-3.67
4.89
12.21
17.9
21.78
23.78
23.92
22.35
19.39
15.52
11.4
7.67
4.79
2.93
1.89
1.3
0.75
-0.01
-0.98
-2.01
-2.94
-3.8
-4.86
-6.61
-9.49
-13.78
-19.29
-25.34
-30.87
-34.62
-35.57
-33.13
-27.4
-19.14
-9.53
0.15
8.84
15.82
20.8
23.76
24.85
24.31
22.47
19.79
16.83
14.13
12.09
10.78
9.98
9.28
8.33
6.97
5.34
3.7
2.34
1.33
0.51
-0.45
-1.94
-4.31
-7.75
-12.16
-17.16
-21.99
-25.61
-26.98
-25.38
-20.7
-13.55
-5.07
3.45
10.92
16.71
20.63
22.74
23.23
22.31
20.2
17.27
14
10.9
8.35
6.51
5.27
4.36
3.53
2.67
1.8
0.97
0.23
-0.48
-1.3
-2.46
-4.13
-6.51
-9.74
-13.84
-18.61
-23.51
-27.63
-29.91
-29.44
-25.85
-19.45
-11.18
-2.26
6.13
13.17
18.46
21.92
23.6
23.65
22.26
19.69
16.37
12.75
9.29
6.27
3.86
2.01
0.63
-0.38
-1.05
-1.35
-1.27
-0.89
-0.44
-0.34
-1.07
-3.04
-6.43
-11.07
-16.33
-21.24
-24.65
-25.5
-23.21
-17.86
-10.16
-1.32
7.38
14.88
20.55
24.17
25.76
25.52
23.72
20.77
17.2
13.61
10.53
8.26
6.75
5.74
4.83
3.75
2.42
0.94
-0.57
-2.01
-3.45
-5.12
-7.29
-10.28
-14.27
-19.24
-24.83
-30.29
-34.57
-36.5
-35.26
-30.61
-23.12
-13.95
-4.47
4.2
11.45
17.15
21.44
24.44
26.09
26.26
24.88
22.2
18.74
15.28
12.48
10.75
10.04
9.99
10.03
9.69
8.74
7.21
5.36
3.44
1.55
-0.46
-2.87
-6.05
-10.23
-15.43
-21.33
-27.33
-32.56
-36.01
-36.79
-34.34
-28.66
-20.38
-10.62
-0.71
8.21
15.47
20.93
24.78
27.29
28.54
28.44
26.93
24.13
20.56
16.96
14.01
12.13
11.24
10.93
10.67
10.08
9.02
7.58
5.92
4.19
2.45
0.69
-1.15
-3.2
-5.64
-8.68
-12.5
-17.11
-22.24
-27.28
-31.29
-33.23
-32.26
-28.06
-20.98
-12
-2.42
6.47
13.81
19.2
22.75
24.71
25.3
24.65
22.86
20.17
17
13.94
11.51
10
9.39
9.35
9.46
9.41
9.07
8.52
7.91
7.3
6.6
5.57
3.95
1.55
-1.7
-5.73
-10.4
-15.46
-20.51
-24.9
-27.81
-28.41
-26.1
-20.86
-13.25
-4.36
4.6
12.58
18.94
23.44
26.07
26.9
26.01
23.53
19.79
15.37
10.99
7.36
4.91
3.65
3.2
2.95
2.35
1.14
-0.57
-2.41
-3.96
-5.01
-5.67
-6.38
-7.7
-10.14
-13.95
-19
-24.74
-30.27
-34.45
-36.18
-34.72
-29.95
-22.42
-13.28
-3.88
4.61
11.45
16.42
19.68
21.52
22.1
21.53
19.87
17.29
14.22
11.22
8.81
7.29
6.61
6.39
6.1
5.3
3.75
1.6
-0.85
-3.23
-5.3
-7.05
-8.7
-10.56
-12.98
-16.2
-20.31
-25.09
-29.99
-34.12
-36.39
-35.82
-31.87
-24.74
-15.27
-4.79
5.33
14.05
20.83
25.56
28.4
29.55
29.15
27.36
24.42
20.73
16.81
13.22
10.4
8.55
7.56
7.12
6.82
6.32
5.46
4.27
2.9
1.49
0.1
-1.37
-3.15
-5.56
-8.87
-13.23
-18.51
-24.32
-29.96
-34.56
-37.23
-37.3
-34.45
-28.83
-21.03
-11.92
-2.48
6.41
14.02
19.88
23.69
25.39
25.1
23.14
20.04
16.47
13.09
10.46
8.86
8.27
8.37
8.7
8.83
8.48
7.61
6.38
5.05
3.82
2.68
1.48
-0.06
-2.23
-5.26
-9.23
-14.02
-19.26
-24.24
-28.02
-29.59
-28.2
-23.63
-16.4
-7.54
1.66
10.07
16.9
21.82
24.74
25.73
24.9
22.48
18.88
14.73
10.71
7.4
5.05
3.53
2.48
1.47
0.28
-1.12
-2.54
-3.75
-4.59
-5.1
-5.5
-6.15
-7.51
-9.96
-13.75
-18.8
-24.63
-30.31
-34.66
-36.46
-34.91
-29.89
-22.02
-12.56
-2.91
5.68
12.53
17.43
20.57
22.23
22.57
21.67
19.68
16.94
13.98
11.43
9.65
8.68
8.15
7.56
6.49
4.87
2.93
1.07
-0.4
-1.42
-2.2
-3.16
-4.73
-7.29
-11.02
-15.89
-21.54
-27.29
-32.1
-34.8
-34.44
-30.62
-23.66
-14.63
-4.9
4.2
11.79
17.54
21.51
23.89
24.82
24.39
22.72
20.07
16.92
13.82
11.25
9.38
8.15
7.22
6.14
4.58
2.41
-0.21
-2.91
-5.3
-7.14
-8.46
-9.6
-11.02
-13.2
-16.45
-20.72
-25.58
-30.22
-33.56
-34.49
-32.29
-26.86
-18.87
-9.55
-0.25
7.9
14.3
18.83
21.57
22.66
22.16
20.19
17.09
13.43
9.92
7.12
5.23
4.1
3.25
2.28
0.96
-0.62
-2.2
-3.47
-4.31
-4.77
-5.15
-5.86
-7.31
-9.78
-13.36
-17.78
-22.47
-26.53
-29
-29.04
-26.27
-20.89
-13.65
-5.59
2.24
9.12
14.67
18.8
21.52
22.82
22.68
21.15
18.48
15.16
11.83
9.05
7.16
6.14
5.67
5.3
4.71
3.79
2.66
1.57
0.66
-0.12
-1.03
-2.5
-4.9
-8.47
-13.22
-18.85
-24.72
-29.9
-33.27
-33.82
-30.95
-24.76
-16.07
-6.2
3.43
11.77
18.28
22.93
25.92
27.43
27.54
26.26
23.74
20.39
16.85
13.82
11.77
10.79
10.5
10.32
9.67
8.32
6.42
4.36
2.58
1.26
0.22
-0.99
-2.89
-5.84
-9.96
-15.06
-20.62
-25.91
-30.01
-31.95
-30.97
-26.75
-19.57
-10.35
-0.34
9.18
17.29
23.57
28.07
31.01
32.56
32.76
31.56
29.03
25.52
21.61
18.03
15.33
13.79
13.25
13.25
13.26
12.88
11.94
10.53
8.92
7.32
5.81
4.26
2.41
-0.07
-3.48
-7.97
-13.51
-19.76
-26.04
-31.33
-34.52
-34.7
-31.49
-25.27
-16.98
-7.95
0.67
8.08
13.97
18.33
21.25
22.71
22.65
21.07
18.22
14.62
10.98
7.93
5.83
4.69
4.16
3.77
3.13
2.08
0.67
-0.89
-2.41
-3.8
-5.13
-6.56
-8.34
-10.75
-14
-18.14
-22.89
-27.64
-31.42
-33.21
-32.18
-28.01
-21.06
-12.23
-2.71
6.37
14.16
20.2
24.33
26.58
27.04
25.84
23.21
19.53
15.35
11.31
8.04
5.93
5.02
4.98
5.17
4.93
3.84
1.89
-0.52
-2.83
-4.57
-5.64
-6.31
-7.08
-8.53
-11.03
-14.75
-19.54
-24.93
-30.13
-34.06
-35.57
-33.78
-28.44
-20.13
-10.14
-0.04
8.85
15.79
20.7
23.9
25.76
26.43
25.87
24.02
21.03
17.4
13.82
10.97
9.2
8.44
8.3
8.22
7.76
6.69
5.11
3.22
1.26
-0.62
-2.42
-4.23
-6.2
-8.46
-11.21
-14.61
-18.8
-23.68
-28.83
-33.4
-36.3
-36.46
-33.3
-26.9
-18.05
-8.01
1.87
10.56
17.49
22.55
25.9
27.79
28.41
27.9
26.41
24.1
21.27
18.27
15.47
13.19
11.61
10.75
10.45
10.42
10.34
9.92
8.98
7.5
5.6
3.47
1.27
-0.96
-3.36
-6.24
-9.92
-14.6
-20.15
-26.02
-31.29
-34.85
-35.72
-33.35
-27.84
-19.89
-10.6
-1.16
7.43
14.51
19.78
23.17
24.76
24.69
23.19
20.6
17.41
14.18
11.41
9.46
8.43
8.18
8.37
8.62
8.62
8.15
7.21
5.87
4.33
2.72
1.12
-0.5
-2.33
-4.62
-7.67
-11.66
-16.55
-21.91
-26.88
-30.32
-31.13
-28.63
-22.87
-14.64
-5.28
3.75
11.38
17.07
20.89
23.14
24.19
24.2
23.19
21.22
18.48
15.38
12.45
10.17
8.71
8
7.67
7.28
6.54
5.34
3.78
2.01
0.19
-1.66
-3.63
-5.85
-8.45
-11.49
-15.02
-19.05
-23.59
-28.54
-33.57
-38.01
-40.88
-41.17
-38.18
-31.85
-22.92
-12.67
-2.52
6.43
13.62
18.97
22.67
24.9
25.73
25.21
23.47
20.84
17.84
15.03
12.87
11.58
11.11
11.15
11.24
10.94
9.94
8.22
6.04
3.78
1.73
-0.08
-1.85
-3.97
-6.77
-10.37
-14.72
-19.57
-24.61
-29.39
-33.25
-35.39
-35
-31.59
-25.29
-16.9
-7.68
1.06
8.39
13.9
17.69
20.07
21.29
21.46
20.61
18.81
16.29
13.47
10.83
8.77
7.51
7.01
6.99
7.08
6.88
6.17
4.94
3.37
1.74
0.23
-1.1
-2.45
-4.13
-6.45
-9.62
-13.67
-18.42
-23.48
-28.27
-32.01
-33.87
-33.12
-29.38
-22.82
-14.22
-4.73
4.44
12.3
18.36
22.57
25.11
26.19
25.96
24.52
22.06
18.95
15.71
12.86
10.72
9.29
8.27
7.3
6.1
4.66
3.15
1.83
0.81
-0.04
-1.04
-2.67
-5.3
-9.14
-14.13
-19.89
-25.79
-30.94
-34.38
-35.3
-33.18
-28.07
-20.61
-11.82
-2.91
5.07
11.43
15.85
18.34
19.06
18.24
16.17
13.2
9.78
6.44
3.66
1.78
0.87
0.69
0.79
0.73
0.18
-0.9
-2.33
-3.85
-5.27
-6.62
-8.14
-10.26
-13.34
-17.62
-23
-28.91
-34.43
-38.36
-39.61
-37.52
-32.13
-24.16
-14.84
-5.42
3.14
10.35
16.11
20.49
23.51
25.08
25.11
23.63
20.98
17.71
14.51
11.95
10.23
9.27
8.68
8.04
7.04
5.62
3.9
2.08
0.26
-1.62
-3.78
-6.46
-9.87
-14.13
-19.17
-24.78
-30.45
-35.37
-38.57
-39.07
-36.29
-30.27
-21.76
-12.01
-2.35
6.2
13.13
18.4
22.19
24.59
25.58
25.04
23.02
19.9
16.38
13.28
11.24
10.47
10.66
11.15
11.25
10.54
9.03
7.09
5.23
3.8
2.86
2.07
0.91
-1.16
-4.48
-9.1
-14.79
-21.07
-27.23
-32.36
-35.42
-35.46
-31.97
-25.08
-15.67
-5.13
5.07
13.79
20.46
25.04
27.79
29.03
28.99
27.79
25.66
22.93
20.03
17.41
15.34
13.86
12.81
11.92
10.98
9.88
8.68
7.48
6.39
5.34
4.1
2.27
-0.58
-4.72
-10.2
-16.62
-23.21
-28.82
-32.25
-32.55
-29.3
-22.84
-14.13
-4.53
4.66
12.48
18.43
22.42
24.51
24.79
23.34
20.36
16.29
11.83
7.8
4.92
3.49
3.34
3.86
4.29
4.06
2.93
1.06
-1.13
-3.27
-5.2
-7.11
-9.41
-12.66
-17.25
-23.22
-30.1
-36.85
-42.1
-44.4
-42.77
-36.96
-27.65
-16.29
-4.55
6.07
14.69
21.08
25.4
27.97
29
28.58
26.81
24.01
20.72
17.62
15.27
13.89
13.26
12.86
12.15
10.86
9.06
7.11
5.36
3.97
2.76
1.27
-0.99
-4.44
-9.2
-15.1
-21.58
-27.71
-32.3
-34.17
-32.5
-27.13
-18.73
-8.54
1.96
11.48
19.28
25.09
28.98
31.12
31.6
30.5
28
24.48
20.6
17.08
14.53
13.2
12.9
13.11
13.15
12.53
11.09
9.01
6.68
4.43
2.37
0.34
-2.01
-5.08
-9.18
-14.47
-20.78
-27.59
-33.98
-38.78
-40.79
-39.18
-33.79
-25.3
-15.04
-4.56
4.82
12.39
17.98
21.77
23.98
24.68
23.86
21.61
18.31
14.63
11.33
9.01
7.91
7.8
8.17
8.47
8.33
7.64
6.5
5.14
3.74
2.3
0.68
-1.35
-4.11
-7.82
-12.54
-18.06
-23.83
-29.01
-32.52
-33.33
-30.8
-24.94
-16.5
-6.75
2.89
11.34
17.99
22.76
25.84
27.43
27.63
26.48
24.13
20.96
17.55
14.52
12.29
10.93
10.17
9.54
8.64
7.28
5.49
3.47
1.45
-0.45
-2.27
-4.18
-6.41
-9.18
-12.64
-16.91
-21.99
-27.75
-33.75
-39.23
-43.12
-44.3
-41.93
-35.84
-26.6
-15.49
-4
6.55
15.32
22.03
26.76
29.71
31.04
30.84
29.22
26.48
23.1
19.67
16.79
14.87
14.06
14.23
14.97
15.76
16.1
15.68
14.37
12.27
9.6
6.56
3.32
-0.01
-3.42
-6.94
-10.67
-14.8
-19.51
-24.78
-30.23
-35.04
-38.03
-38.08
-34.52
-27.46
-17.85
-7.11
3.23
12.03
18.73
23.33
26.09
27.34
27.31
26.11
23.89
20.87
17.48
14.27
11.75
10.22
9.69
9.85
10.24
10.4
10.01
8.98
7.43
5.52
3.44
1.25
-1.08
-3.67
-6.66
-10.19
-14.36
-19.16
-24.35
-29.47
-33.76
-36.28
-36.17
-32.94
-26.66
-18.09
-8.44
0.99
9.2
15.62
20.21
23.11
24.54
24.58
23.35
21.08
18.24
15.45
13.3
12.12
11.88
12.21
12.58
12.51
11.76
10.4
8.69
6.92
5.28
3.73
2.05
-0.11
-3.04
-6.95
-11.83
-17.44
-23.27
-28.54
-32.24
-33.41
-31.38
-26.12
-18.27
-9
0.31
8.51
14.98
19.64
22.7
24.45
25.02
24.4
22.56
19.65
16.09
12.45
9.33
7.08
5.72
4.97
4.37
3.56
2.36
0.88
-0.67
-2.1
-3.39
-4.71
-6.39
-8.71
-11.83
-15.77
-20.34
-25.27
-30.1
-34.21
-36.76
-36.91
-34.04
-28.06
-19.55
-9.71
0.07
8.57
15.12
19.61
22.35
23.69
23.9
23.02
21.12
18.38
15.22
12.23
9.98
8.78
8.57
8.94
9.33
9.22
8.35
6.77
4.74
2.57
0.5
-1.47
-3.5
-5.89
-8.93
-12.82
-17.56
-22.99
-28.61
-33.75
-37.52
-39.04
-37.59
-32.88
-25.19
-15.42
-4.8
5.38
14.1
20.83
25.47
28.22
29.34
29.08
27.66
25.38
22.7
20.16
18.22
17.11
16.72
16.65
16.41
15.66
14.29
12.43
10.36
8.29
6.27
4.1
1.49
-1.88
-6.23
-11.57
-17.71
-24.17
-30.24
-34.96
-37.32
-36.5
-32.16
-24.65
-14.94
-4.4
5.58
13.96
20.15
24.02
25.68
25.36
23.33
20
15.92
11.82
8.36
5.95
4.63
4.05
3.67
3.02
1.91
0.46
-1
-2.16
-2.88
-3.29
-3.76
-4.75
-6.67
-9.73
-13.88
-18.67
-23.39
-27.06
-28.7
-27.57
-23.4
-16.51
-7.79
1.51
10.19
17.32
22.45
25.57
26.92
26.82
25.5
23.15
20.02
16.48
13.02
10.15
8.17
7.05
6.45
5.88
4.91
3.36
1.34
-0.89
-3.09
-5.19
-7.29
-9.64
-12.55
-16.32
-21.08
-26.64
-32.42
-37.36
-40.19
-39.85
-35.89
-28.7
-19.41
-9.46
-0.11
7.87
14.22
18.9
21.89
23.07
22.35
19.91
16.31
12.41
9.06
6.82
5.81
5.67
5.83
5.73
5.02
3.67
1.91
0.09
-1.57
-3.02
-4.49
-6.42
-9.26
-13.32
-18.59
-24.58
-30.41
-34.89
-36.85
-35.44
-30.5
-22.57
-12.78
-2.55
6.87
14.63
20.34
24.01
25.81
25.91
24.53
21.95
18.62
15.11
11.97
9.55
7.87
6.67
5.53
4.1
2.23
0.08
-2.01
-3.73
-4.91
-5.71
-6.56
-8.05
-10.72
-14.84
-20.2
-26.03
-31.14
-34.21
-34.17
-30.61
-23.85
-14.89
-5.02
4.49
12.73
19.22
23.75
26.24
26.7
25.21
22.07
17.83
13.26
9.09
5.84
3.64
2.29
1.4
0.62
-0.21
-1.07
-1.8
-2.36
-2.83
-3.55
-4.91
-7.35
-11.15
-16.28
-22.33
-28.45
-33.45
-36.1
-35.41
-31.04
-23.46
-13.81
-3.54
5.99
13.89
19.77
23.65
25.61
25.75
24.17
21.14
17.19
13.05
9.45
6.84
5.24
4.32
3.61
2.71
1.5
0.1
-1.31
-2.56
-3.74
-5.12
-7.1
-10.08
-14.3
-19.73
-25.99
-32.24
-37.38
-40.18
-39.7
-35.55
-28.14
-18.57
-8.34
1.16
9.01
14.92
19.1
21.92
23.61
24.17
23.49
21.58
18.74
15.55
12.69
10.65
9.56
9.13
8.83
8.14
6.8
4.85
2.66
0.67
-0.83
-1.86
-2.77
-4.13
-6.57
-10.45
-15.74
-21.87
-27.87
-32.51
-34.61
-33.34
-28.48
-20.47
-10.39
0.39
10.52
19
25.37
29.58
31.87
32.52
31.71
29.65
26.62
23.06
19.59
16.76
14.91
13.98
13.56
13.08
12.07
10.38
8.18
5.84
3.68
1.84
0.16
-1.67
-4.02
-7.2
-11.38
-16.57
-22.53
-28.63
-33.89
-37.1
-37.17
-33.59
-26.65
-17.38
-7.2
2.55
11
17.8
22.93
26.4
28.16
28.11
26.32
23.16
19.31
15.6
12.7
10.96
10.3
10.32
10.45
10.22
9.37
7.93
6.14
4.31
2.65
1.17
-0.33
-2.24
-4.97
-8.83
-13.91
-19.89
-26.07
-31.34
-34.44
-34.33
-30.51
-23.24
-13.57
-2.96
7.08
15.44
21.54
25.37
27.22
27.49
26.5
24.5
21.72
18.5
15.23
12.36
10.22
8.91
8.22
7.76
7.05
5.81
3.99
1.82
-0.41
-2.48
-4.41
-6.38
-8.72
-11.74
-15.61
-20.39
-25.94
-31.92
-37.7
-42.36
-44.81
-44.11
-39.77
-32.06
-21.99
-11
-0.52
8.42
15.43
20.61
24.23
26.53
27.52
27.15
25.47
22.81
19.74
16.95
14.95
13.87
13.46
13.21
12.64
11.45
9.66
7.52
5.33
3.27
1.36
-0.53
-2.61
-5.09
-8.12
-11.86
-16.38
-21.57
-27.03
-31.97
-35.31
-35.93
-33.11
-26.78
-17.67
-7.06
3.55
12.91
20.3
25.54
28.78
30.35
30.51
29.4
27.25
24.39
21.34
18.67
16.81
15.89
15.66
15.63
15.28
14.28
12.61
10.52
8.33
6.33
4.57
2.94
1.16
-1.1
-4.18
-8.33
-13.66
-19.98
-26.68
-32.75
-36.94
-38.11
-35.63
-29.62
-20.99
-11.12
-1.45
6.96
13.62
18.5
21.82
23.78
24.43
23.73
21.76
18.81
15.39
12.09
9.39
7.49
6.26
5.35
4.34
2.93
1.06
-1.11
-3.3
-5.25
-6.88
-8.39
-10.13
-12.52
-15.9
-20.37
-25.73
-31.42
-36.51
-39.86
-40.43
-37.54
-31.24
-22.32
-12.15
-2.18
6.43
13.16
18.03
21.38
23.47
24.41
24.13
22.66
20.27
17.52
15.09
13.59
13.2
13.73
14.61
15.2
15.03
13.98
12.23
10.21
8.22
6.38
4.51
2.21
-0.89
-5.07
-10.36
-16.58
-23.28
-29.79
-35.18
-38.39
-38.44
-34.79
-27.6
-17.77
-6.74
3.99
13.26
20.55
25.85
29.48
31.74
32.82
32.81
31.87
30.34
28.77
27.79
27.96
29.62
32.76
37.01
41.76
46.28
49.99
52.62
54.23
55.06
55.3
54.94
53.68
51.12
46.95
41.14
33.91
25.73
17.21
9.14
2.53
-1.38
-1.4
3.27
12.72
26.12
41.95
58.42
73.88
87.16
97.54
104.67
108.33
108.42
105.08
98.76
90.23
80.42
70.19
59.98
49.94
39.93
29.87
19.93
10.53
2.22
-4.6
-9.87
-13.94
-17.44
-21.08
-25.47
-30.96
-37.72
-45.73
-54.86
-64.67
-74.36
-82.75
-88.45
-90.2
-87.4
-80.35
-70.17
-58.49
-46.88
-36.53
-27.98
-21.33
-16.52
-13.49
-12.34
-13.04
-15.4
-18.89
-22.71
-26.11
-28.57
-30.06
-30.95
-31.82
-33.17
-35.2
-37.74
-40.46
-43.12
-45.72
-48.52
-51.91
-56.2
-61.47
-67.54
-73.97
-80.14
-85.24
-88.35
-88.59
-85.38
-78.65
-68.97
-57.46
-45.51
-34.37
-24.99
-17.83
-13.04
-10.51
-10.04
-11.26
-13.66
-16.55
-19.26
-21.27
-22.34
-22.63
-22.5
-22.32
-22.31
-22.42
-22.44
-22.19
-21.65
-21.1
-21
-21.91
-24.2
-27.96
-32.85
-38.18
-42.92
-45.91
-46.1
-42.89
-36.31
-27.06
-16.4
-5.74
3.71
11.13
16.26
19.11
19.89
18.82
16.2
12.41
7.98
3.48
-0.6
-4
-6.72
-8.92
-10.8
-12.43
-13.76
-14.7
-15.22
-15.51
-15.97
-17.2
-19.76
-24.03
-29.97
-36.91
-43.65
-48.57
-50.12
-47.3
-40.04
-29.23
-16.46
-3.55
8.01
17.32
24.06
28.3
30.26
30.17
28.33
25.2
21.42
17.68
14.56
12.3
10.75
9.53
8.26
6.71
4.93
3.11
1.42
-0.1
-1.7
-3.81
-6.93
-11.44
-17.46
-24.64
-32.11
-38.53
-42.35
-42.25
-37.62
-28.8
-17.06
-4.17
8.11
18.54
26.59
32.31
35.95
37.74
37.73
35.98
32.74
28.6
24.38
20.86
18.46
17.07
16.18
15.13
13.47
11.18
8.57
6.06
3.93
2.13
0.34
-1.92
-5.15
-9.72
-15.78
-23.08
-30.86
-37.87
-42.5
-43.3
-39.42
-31.02
-19.24
-5.88
7.14
18.4
27.15
33.35
37.34
39.55
40.3
39.77
38.07
35.41
32.18
28.92
26.18
24.39
23.66
23.69
23.93
23.74
22.69
20.7
18.03
15.1
12.28
9.67
7.11
4.3
0.93
-3.19
-8.16
-14
-20.6
-27.63
-34.27
-39.31
-41.26
-38.94
-31.96
-21.02
-7.7
5.96
18.19
27.9
34.84
39.27
41.71
42.59
42.26
41.03
39.36
37.71
36.52
35.96
35.91
36.01
35.88
35.29
34.28
33.07
31.99
31.22
30.69
30.06
28.85
26.66
23.34
19.07
14.36
9.79
5.83
2.64
0.02
-2.54
-5.66
-9.94
-15.64
-22.5
-29.66
-35.72
-39.04
-38.27
-32.8
-23.12
-10.72
2.35
14.13
23.29
29.38
32.79
34.25
34.44
33.82
32.54
30.64
28.27
25.72
23.32
21.34
19.82
18.65
17.64
16.71
15.86
15.16
14.64
14.17
13.48
12.25
10.25
7.46
4.07
0.43
-3.13
-6.36
-9.26
-12.05
-15.14
-18.97
-23.73
-29.22
-34.6
-38.59
-39.81
-37.28
-30.84
-21.3
-10.2
0.73
10.07
17.09
21.78
24.63
26.2
26.91
26.94
26.28
24.95
23.15
21.24
19.65
18.75
18.61
19.03
19.64
20
19.84
19.08
17.8
16.2
14.43
12.56
10.6
8.49
6.12
3.39
0.16
-3.68
-8.26
-13.58
-19.44
-25.31
-30.3
-33.31
-33.37
-29.93
-23.24
-14.27
-4.45
4.72
12.23
17.67
21.21
23.27
24.28
24.47
23.95
22.8
21.22
19.48
17.94
16.79
16.14
15.89
15.9
16.03
16.15
16.14
15.8
14.9
13.23
10.71
7.46
3.84
0.26
-2.97
-5.75
-8.28
-10.91
-14.02
-17.88
-22.49
-27.56
-32.45
-36.21
-37.77
-36.29
-31.43
-23.63
-14
-4.06
4.84
11.83
16.72
19.78
21.5
22.27
22.29
21.63
20.37
18.69
16.85
15.1
13.67
12.61
11.92
11.5
11.19
10.82
10.23
9.28
7.92
6.13
3.95
1.44
-1.29
-4.12
-6.9
-9.55
-12.05
-14.6
-17.48
-20.97
-25.07
-29.33
-32.82
-34.44
-33.25
-28.9
-21.89
-13.33
-4.68
2.86
8.57
12.39
14.67
15.88
16.34
16.14
15.24
13.62
11.41
8.92
6.56
4.71
3.62
3.28
3.45
3.79
3.91
3.6
2.84
1.71
0.38
-1.07
-2.65
-4.38
-6.27
-8.25
-10.29
-12.44
-14.91
-17.91
-21.46
-25.16
-28.16
-29.38
-27.96
-23.61
-16.8
-8.61
-0.32
7.04
12.94
17.39
20.58
22.72
23.8
23.7
22.36
19.97
16.95
13.8
10.92
8.55
6.7
5.3
4.25
3.44
2.72
1.91
0.83
-0.65
-2.51
-4.65
-6.96
-9.36
-11.85
-14.52
-17.46
-20.76
-24.42
-28.26
-31.87
-34.55
-35.47
-33.89
-29.55
-22.78
-14.54
-6.1
1.42
7.3
11.36
13.78
14.91
14.98
14.17
12.57
10.4
8.03
5.89
4.44
3.95
4.47
5.77
7.45
9
10
10.14
9.39
7.93
6.06
4.09
2.25
0.55
-1.17
-3.2
-5.86
-9.38
-13.79
-18.76
-23.67
-27.59
-29.57
-28.86
-25.24
-19.09
-11.38
-3.33
3.93
9.66
13.63
16.03
17.19
17.44
16.96
15.85
14.21
12.22
10.16
8.29
6.83
5.9
5.49
5.49
5.7
5.92
5.9
5.49
4.62
3.4
1.96
0.41
-1.26
-3.21
-5.69
-8.9
-12.95
-17.7
-22.75
-27.44
-30.97
-32.46
-31.3
-27.3
-20.9
-13.03
-4.87
2.48
8.39
12.7
15.6
17.38
18.21
18.1
17.02
15.07
12.54
9.89
7.56
5.79
4.65
3.96
3.48
2.98
2.3
1.36
0.17
-1.16
-2.5
-3.73
-4.82
-5.82
-6.92
-8.36
-10.41
-13.25
-16.97
-21.36
-25.92
-29.78
-31.95
-31.51
-28.1
-21.99
-14.13
-5.86
1.59
7.43
11.41
13.73
14.82
14.96
14.32
12.87
10.68
7.96
5.1
2.58
0.79
-0.1
-0.23
0.08
0.44
0.53
0.2
-0.54
-1.59
-2.83
-4.18
-5.68
-7.46
-9.71
-12.64
-16.34
-20.76
-25.58
-30.17
-33.7
-35.32
-34.39
-30.67
-24.5
-16.65
-8.12
0.05
7.1
12.58
16.41
18.72
19.7
19.59
18.55
16.81
14.62
12.32
10.21
8.58
7.52
7
6.77
6.53
5.98
4.95
3.43
1.59
-0.37
-2.22
-3.88
-5.41
-7.02
-9.04
-11.8
-15.58
-20.44
-26.12
-31.94
-36.86
-39.71
-39.49
-35.72
-28.61
-19.09
-8.51
1.77
10.64
17.53
22.38
25.46
27.16
27.85
27.72
26.86
25.39
23.43
21.24
19.13
17.4
16.16
15.35
14.68
13.82
12.5
10.64
8.4
6.04
3.84
1.88
0.09
-1.79
-4.05
-6.93
-10.57
-15.02
-20.21
-25.86
-31.37
-35.82
-38.1
-37.19
-32.58
-24.54
-14.17
-3.09
7.06
15.07
20.51
23.6
24.99
25.31
24.94
23.98
22.36
20.13
17.5
14.89
12.75
11.32
10.58
10.2
9.73
8.83
7.38
5.49
3.47
1.6
-0.05
-1.57
-3.19
-5.2
-7.78
-11.02
-15.01
-19.74
-25.05
-30.46
-35.07
-37.64
-37.02
-32.54
-24.38
-13.66
-2.02
8.88
17.82
24.27
28.29
30.28
30.62
29.57
27.29
24.03
20.18
16.34
13.16
11.08
10.2
10.2
10.48
10.44
9.73
8.31
6.45
4.54
2.82
1.31
-0.21
-2.08
-4.64
-8.14
-12.7
-18.18
-24.12
-29.66
-33.69
-35.09
-33.1
-27.69
-19.57
-10.01
-0.38
8.23
15.27
20.62
24.36
26.56
27.2
26.27
23.96
20.72
17.25
14.2
12.04
10.85
10.36
10.11
9.65
8.73
7.35
5.7
4.04
2.56
1.19
-0.32
-2.39
-5.43
-9.68
-15.1
-21.3
-27.57
-32.89
-36.16
-36.45
-33.29
-26.88
-18.11
-8.32
1.1
9.11
15.23
19.47
22.11
23.38
23.41
22.19
19.87
16.84
13.7
11.07
9.35
8.55
8.31
8.11
7.51
6.36
4.76
2.96
1.19
-0.47
-2.16
-4.13
-6.75
-10.32
-15.03
-20.83
-27.26
-33.47
-38.32
-40.6
-39.46
-34.7
-26.9
-17.22
-7.03
2.5
10.67
17.2
22.1
25.44
27.21
27.36
25.97
23.33
20.01
16.74
14.11
12.49
11.77
11.51
11.14
10.19
8.5
6.22
3.71
1.29
-0.9
-2.99
-5.27
-8.1
-11.74
-16.34
-21.81
-27.78
-33.6
-38.25
-40.61
-39.74
-35.21
-27.35
-17.21
-6.24
4.08
12.73
19.27
23.8
26.69
28.25
28.67
27.97
26.19
23.61
20.73
18.15
16.36
15.48
15.22
15.03
14.38
13.01
11.01
8.77
6.7
5
3.57
2.1
0.15
-2.65
-6.55
-11.66
-17.86
-24.71
-31.37
-36.59
-38.97
-37.44
-31.68
-22.35
-10.95
0.66
10.89
18.83
24.36
27.86
29.83
30.66
30.48
29.38
27.54
25.31
23.15
21.4
20.21
19.5
18.97
18.34
17.36
15.88
13.9
11.45
8.69
5.82
3.01
0.37
-2.11
-4.62
-7.47
-11.04
-15.62
-21.24
-27.57
-33.77
-38.66
-40.99
-39.83
-34.88
-26.64
-16.29
-5.34
4.82
13.19
19.36
23.42
25.66
26.49
26.21
25.07
23.26
21.05
18.76
16.74
15.24
14.38
14.07
14.07
14.08
13.8
13.05
11.75
9.94
7.77
5.41
3.03
0.7
-1.64
-4.13
-7.04
-10.58
-14.91
-20
-25.55
-30.91
-35.16
-37.19
-36.05
-31.32
-23.3
-13.08
-2.18
7.92
16.19
22.27
26.34
28.84
30.14
30.44
29.83
28.47
26.63
24.74
23.17
22.11
21.57
21.38
21.33
21.32
21.24
21.02
20.47
19.38
17.53
14.87
11.54
7.81
4.02
0.39
-3
-6.28
-9.71
-13.64
-18.37
-23.94
-30.01
-35.75
-39.98
-41.46
-39.39
-33.68
-25.15
-15.2
-5.41
3.02
9.52
14.1
17.15
19.05
20.05
20.19
19.51
18.11
16.25
14.22
12.31
10.73
9.57
8.89
8.69
8.88
9.23
9.43
9.12
8.09
6.31
3.98
1.37
-1.32
-3.95
-6.57
-9.3
-12.33
-15.83
-19.91
-24.47
-29.1
-33.01
-35.17
-34.61
-30.8
-23.92
-14.9
-5.11
4.04
11.54
16.96
20.42
22.33
23.12
23.06
22.23
20.65
18.41
15.8
13.28
11.32
10.25
10.05
10.44
10.89
10.93
10.26
8.85
6.87
4.6
2.25
-0.08
-2.41
-4.81
-7.42
-10.32
-13.68
-17.61
-22.13
-26.95
-31.47
-34.77
-35.85
-34.01
-29.1
-21.72
-13.01
-4.32
3.19
8.86
12.64
14.84
15.94
16.3
16.08
15.29
13.99
12.33
10.62
9.23
8.4
8.17
8.4
8.74
8.89
8.63
7.85
6.65
5.12
3.4
1.54
-0.47
-2.72
-5.31
-8.34
-11.92
-16.08
-20.76
-25.65
-30.17
-33.48
-34.68
-33.07
-28.53
-21.54
-13.07
-4.35
3.57
10.01
14.69
17.63
18.99
18.98
17.83
15.87
13.49
11.12
9.15
7.82
7.14
6.95
6.94
6.8
6.29
5.34
4.04
2.58
1.12
-0.26
-1.68
-3.36
-5.61
-8.65
-12.56
-17.25
-22.41
-27.5
-31.8
-34.43
-34.63
-31.95
-26.48
-18.93
-10.45
-2.24
4.75
10.04
13.62
15.69
16.49
16.2
14.92
12.86
10.37
7.91
5.93
4.63
3.99
3.7
3.37
2.7
1.61
0.24
-1.16
-2.35
-3.26
-4.03
-4.95
-6.43
-8.87
-12.47
-17.13
-22.35
-27.28
-30.82
-31.99
-30.2
-25.53
-18.63
-10.6
-2.57
4.55
10.3
14.56
17.49
19.27
20.09
20.05
19.22
17.75
15.92
14.08
12.63
11.85
11.77
12.15
12.52
12.4
11.49
9.85
7.77
5.63
3.69
1.93
0.14
-1.99
-4.69
-8.11
-12.24
-16.91
-21.73
-26.02
-28.87
-29.36
-26.92
-21.59
-14.12
-5.73
2.35
9.19
14.41
18.03
20.23
21.14
20.74
19.07
16.35
13.05
9.84
7.34
5.88
5.4
5.52
5.69
5.47
4.61
3.18
1.41
-0.38
-1.98
-3.35
-4.64
-6.16
-8.27
-11.25
-15.22
-20.05
-25.27
-30.14
-33.74
-35.14
-33.69
-29.26
-22.36
-13.99
-5.41
2.26
8.29
12.48
15
16.15
16.17
15.2
13.34
10.83
8.11
5.7
4.05
3.34
3.37
3.64
3.59
2.89
1.48
-0.36
-2.2
-3.68
-4.71
-5.54
-6.63
-8.51
-11.59
-15.96
-21.34
-27
-31.91
-34.94
-35.18
-32.22
-26.29
-18.29
-9.41
-0.87
6.47
12.22
16.41
19.24
20.86
21.31
20.6
18.8
16.19
13.25
10.48
8.29
6.86
6.05
5.57
5.09
4.38
3.34
2.04
0.6
-0.91
-2.47
-4.13
-6.04
-8.33
-11.17
-14.68
-18.97
-23.89
-28.98
-33.4
-36.05
-35.88
-32.34
-25.62
-16.64
-6.77
2.6
10.45
16.31
20.22
22.47
23.4
23.31
22.42
20.89
18.91
16.7
14.52
12.63
11.22
10.38
9.98
9.79
9.5
8.85
7.73
6.22
4.44
2.54
0.58
-1.49
-3.74
-6.27
-9.19
-12.59
-16.55
-21.03
-25.75
-30.09
-33.06
-33.57
-30.8
-24.57
-15.51
-4.97
5.44
14.37
21.09
25.57
28.23
29.58
29.94
29.35
27.79
25.28
22.13
18.81
15.86
13.65
12.3
11.62
11.3
11.01
10.52
9.72
8.65
7.36
5.89
4.22
2.27
-0.04
-2.76
-5.86
-9.27
-13.01
-17.13
-21.72
-26.69
-31.57
-35.42
-37.08
-35.51
-30.31
-21.96
-11.75
-1.32
7.88
15.06
20.05
23.19
24.85
25.21
24.29
22.08
18.83
15.06
11.51
8.85
7.45
7.28
7.99
9.04
9.97
10.46
10.43
9.93
9.09
8.03
6.86
5.58
4.15
2.43
0.26
-2.53
-6
-9.99
-14.07
-17.48
-19.31
-18.68
-15.12
-8.75
-0.3
8.95
17.68
24.81
29.81
32.62
33.53
32.84
30.78
27.53
23.35
18.65
14.03
10.09
7.21
5.46
4.6
4.13
3.59
2.64
1.17
-0.72
-2.81
-4.93
-7.03
-9.18
-11.6
-14.53
-18.13
-22.52
-27.65
-33.33
-39.08
-44.11
-47.36
-47.76
-44.63
-37.95
-28.45
-17.5
-6.58
3.05
10.67
16.11
19.54
21.29
21.63
20.74
18.79
15.98
12.67
9.3
6.39
4.34
3.39
3.54
4.6
6.25
8.22
10.22
12.09
13.62
14.56
14.61
13.45
10.75
6.31
0.11
-7.6
-16.18
-24.57
-31.49
-35.67
-36.24
-32.97
-26.46
-17.83
-8.46
0.45
8.12
14.2
18.65
21.57
23.01
23.04
21.75
19.41
16.42
13.33
10.66
8.73
7.56
6.85
6.14
5.03
3.31
1.12
-1.19
-3.3
-5.06
-6.64
-8.41
-10.77
-13.96
-18.02
-22.81
-28.09
-33.47
-38.37
-42
-43.39
-41.77
-36.87
-29.05
-19.36
-9.15
0.27
8.02
13.61
16.97
18.17
17.42
15.06
11.73
8.33
5.91
5.31
6.86
10.22
14.46
18.4
21.03
21.78
20.71
18.31
15.23
11.96
8.64
5.09
0.95
-4.09
-10.15
-17.05
-24.3
-31.17
-36.73
-40.01
-40.21
-36.97
-30.51
-21.64
-11.63
-1.81
6.75
13.46
18.2
21.12
22.45
22.37
21.08
18.85
16.13
13.49
11.53
10.63
10.81
11.69
12.68
13.15
12.81
11.74
10.34
9.03
7.99
7
5.49
2.81
-1.48
-7.4
-14.46
-21.71
-27.96
-31.99
-32.87
-30.21
-24.32
-16.13
-6.96
1.9
9.49
15.34
19.44
21.98
23.13
23
21.65
19.28
16.3
13.25
10.66
8.86
7.8
7.11
6.36
5.2
3.6
1.83
0.21
-1.07
-2.11
-3.31
-5.2
-8.24
-12.64
-18.25
-24.53
-30.61
-35.39
-37.81
-37.12
-33.14
-26.36
-17.81
-8.81
-0.53
6.25
11.24
14.52
16.33
16.88
16.28
14.63
12.14
9.23
6.46
4.4
3.36
3.29
3.78
4.27
4.31
3.74
2.72
1.62
0.67
-0.12
-1.09
-2.74
-5.52
-9.6
-14.81
-20.51
-25.77
-29.48
-30.68
-28.78
-23.82
-16.43
-7.72
1.13
9.12
15.63
20.44
23.52
24.92
24.68
22.92
19.94
16.28
12.62
9.6
7.57
6.54
6.21
6.14
5.94
5.4
4.52
3.41
2.23
1.05
-0.24
-1.87
-4.13
-7.31
-11.52
-16.52
-21.7
-26.08
-28.57
-28.29
-24.87
-18.67
-10.58
-1.86
6.39
13.37
18.73
22.41
24.45
24.85
23.65
21.03
17.43
13.59
10.22
7.85
6.55
5.91
5.28
4.09
2.11
-0.5
-3.27
-5.72
-7.54
-8.77
-9.74
-10.97
-13.02
-16.28
-20.76
-25.96
-30.84
-33.98
-34.06
-30.32
-22.97
-13.13
-2.51
7.25
15.14
20.99
25.26
28.58
31.32
33.39
34.51
34.52
33.73
32.97
33.29
35.51
39.82
45.65
51.88
57.28
60.9
62.33
61.64
59.24
55.88
52.74
51.52
54.22
62.37
76.26
94.42
113.91
131.38
144.37
152.11
155.44
155.88
154.49
151.27
145.33
135.7
122.09
105.22
86.46
67.18
48.17
29.56
11.09
-7.39
-25.61
-42.76
-57.75
-69.7
-78.27
-83.86
-87.39
-89.97
-92.41
-94.94
-97.25
-98.76
-99.03
-98.04
-96.25
-94.4
-93.34
-93.61
-95.33
-98.13
-101.16
-103.3
-103.38
-100.51
-94.34
-85.22
-74.17
-62.55
-51.71
-42.58
-35.58
-30.62
-27.39
-25.6
-25.11
-25.85
-27.62
-30.03
-32.4
-34.05
-34.49
-33.69
-32.07
-30.32
-29.09
-28.74
-29.25
-30.26
-31.28
-31.86
-31.85
-31.4
-30.95
-31.1
-32.41
-35.19
-39.26
-43.98
-48.26
-50.81
-50.47
-46.56
-39.13
-29.01
-17.58
-6.4
3.23
10.58
15.53
18.35
19.49
19.34
18.17
16.26
14.03
11.95
10.5
9.89
10
10.35
10.42
9.8
8.43
6.59
4.7
3.2
2.23
1.65
1.04
-0.07
-2.1
-5.25
-9.49
-14.6
-20.15
-25.5
-29.81
-32.16
-31.73
-28.12
-21.56
-12.92
-3.5
5.43
12.95
18.71
22.74
25.33
26.67
26.79
25.68
23.45
20.44
17.2
14.32
12.24
11.05
10.52
10.24
9.81
9.01
7.8
6.27
4.58
2.85
1.15
-0.57
-2.45
-4.7
-7.6
-11.35
-16.02
-21.33
-26.64
-30.92
-33.06
-32.16
-27.88
-20.57
-11.25
-1.31
7.92
15.49
21
24.53
26.39
26.91
26.3
24.69
22.28
19.44
16.74
14.72
13.74
13.75
14.31
14.79
14.58
13.41
11.41
8.96
6.55
4.44
2.64
0.88
-1.18
-3.89
-7.43
-11.9
-17.18
-22.95
-28.59
-33.2
-35.76
-35.37
-31.61
-24.73
-15.64
-5.71
3.7
11.59
17.49
21.41
23.69
24.68
24.58
23.49
21.51
18.9
16.13
13.78
12.27
11.68
11.66
11.6
10.91
9.33
7.02
4.47
2.2
0.42
-0.98
-2.45
-4.5
-7.48
-11.5
-16.38
-21.7
-26.86
-31.04
-33.31
-32.84
-29.2
-22.58
-13.87
-4.38
4.55
11.98
17.55
21.38
23.77
24.96
25.04
24.08
22.23
19.87
17.56
15.78
14.84
14.65
14.84
14.86
14.24
12.78
10.58
7.99
5.42
3.17
1.25
-0.58
-2.73
-5.65
-9.62
-14.67
-20.47
-26.33
-31.29
-34.25
-34.3
-30.91
-24.28
-15.25
-5.16
4.55
12.78
18.96
23.1
25.59
26.87
27.22
26.76
25.51
23.59
21.23
18.83
16.73
15.1
13.89
12.82
11.54
9.84
7.69
5.33
3.12
1.35
0.09
-0.86
-1.94
-3.61
-6.23
-9.95
-14.64
-19.85
-24.85
-28.67
-30.25
-28.81
-24.07
-16.53
-7.29
2.24
10.84
17.76
22.84
26.3
28.44
29.47
29.5
28.63
27
24.92
22.7
20.63
18.9
17.6
16.64
15.85
14.96
13.68
11.88
9.61
7.13
4.69
2.46
0.35
-1.91
-4.66
-8.15
-12.44
-17.41
-22.71
-27.8
-31.93
-34.23
-33.92
-30.57
-24.3
-15.85
-6.37
2.9
10.94
17.17
21.39
23.66
24.15
23.09
20.78
17.62
14.2
11.09
8.8
7.51
7.07
7.1
7.09
6.72
5.89
4.75
3.55
2.48
1.54
0.53
-0.9
-3.13
-6.42
-10.86
-16.19
-21.86
-26.98
-30.52
-31.51
-29.38
-24.13
-16.41
-7.33
1.87
10.1
16.67
21.3
23.99
24.86
24.08
21.89
18.71
15.08
11.68
9.01
7.3
6.43
5.96
5.43
4.5
3.1
1.41
-0.33
-1.99
-3.58
-5.34
-7.55
-10.49
-14.3
-18.98
-24.32
-29.81
-34.66
-37.89
-38.59
-36.14
-30.57
-22.51
-13.11
-3.63
4.89
11.85
17.06
20.53
22.34
22.54
21.26
18.81
15.71
12.67
10.32
9.03
8.77
9.16
9.66
9.78
9.31
8.36
7.23
6.24
5.58
5.14
4.62
3.55
1.52
-1.76
-6.27
-11.64
-17.09
-21.53
-23.75
-22.83
-18.45
-11.08
-1.85
7.77
16.51
23.59
28.84
32.43
34.61
35.47
34.97
33.1
30.11
26.53
23.09
20.4
18.77
18.12
18.05
18.14
18.09
17.85
17.54
17.31
17.19
17.02
16.48
15.17
12.77
9.1
4.18
-1.72
-8.08
-14.2
-19.19
-22.22
-22.65
-20.28
-15.38
-8.66
-1.1
6.31
12.73
17.61
20.67
21.86
21.29
19.18
15.91
11.95
7.86
4.17
1.25
-0.79
-2.1
-3.05
-4
-5.2
-6.72
-8.46
-10.25
-11.97
-13.57
-15.16
-16.92
-19.09
-21.92
-25.54
-29.86
-34.44
-38.48
-40.97
-41
-38.02
-32.13
-24.03
-14.86
-5.8
2.22
8.71
13.56
16.86
18.7
19.06
17.92
15.45
12.1
8.6
5.71
3.99
3.51
3.86
4.41
4.57
4.04
2.93
1.58
0.3
-0.78
-1.85
-3.24
-5.32
-8.34
-12.36
-17.24
-22.57
-27.72
-31.82
-33.95
-33.37
-29.75
-23.41
-15.15
-6.1
2.62
10.17
16.07
20.17
22.54
23.34
22.73
20.94
18.24
15.05
11.86
9.19
7.39
6.53
6.36
6.4
6.16
5.32
3.83
1.9
-0.16
-2.14
-4.05
-6.09
-8.58
-11.86
-16.12
-21.26
-26.8
-31.91
-35.5
-36.57
-34.48
-29.24
-21.48
-12.31
-2.93
5.64
12.78
18.27
22.09
24.33
25.05
24.31
22.34
19.51
16.37
13.52
11.39
10.07
9.36
8.82
8.1
7.04
5.74
4.46
3.43
2.64
1.89
0.78
-1.09
-4.07
-8.31
-13.71
-19.85
-25.94
-30.89
-33.57
-33.07
-29.11
-22.12
-13.21
-3.8
4.81
11.74
16.62
19.45
20.43
19.83
17.93
15.14
11.96
8.94
6.54
4.93
4.03
3.5
3
2.29
1.35
0.31
-0.72
-1.61
-2.44
-3.36
-4.68
-6.77
-9.98
-14.44
-19.9
-25.61
-30.36
-32.85
-32.11
-27.91
-20.8
-11.99
-2.89
5.33
11.93
16.67
19.55
20.72
20.31
18.51
15.62
12.14
8.66
5.68
3.46
1.96
0.91
0
-0.97
-2.01
-2.96
-3.64
-4.03
-4.35
-5
-6.47
-9.14
-13.06
-17.9
-22.93
-27.16
-29.55
-29.29
-26.05
-20.08
-12.11
-3.27
5.32
12.68
18.21
21.7
23.23
23.11
21.69
19.42
16.69
13.92
11.47
9.56
8.19
7.18
6.25
5.14
3.79
2.3
0.89
-0.35
-1.49
-2.82
-4.75
-7.65
-11.64
-16.52
-21.7
-26.25
-29.09
-29.28
-26.31
-20.29
-12
-2.7
6.35
14.11
20.04
24.06
26.35
27.15
26.67
25.11
22.74
19.93
17.09
14.57
12.57
11.06
9.89
8.9
7.96
7
6.02
5.01
3.85
2.36
0.28
-2.66
-6.63
-11.56
-17
-22.13
-25.87
-27.23
-25.57
-20.9
-13.84
-5.48
2.99
10.6
16.75
21.23
24.06
25.37
25.31
24.05
21.83
19.03
16.08
13.36
11.14
9.45
8.17
7.09
6.02
4.87
3.63
2.32
0.87
-0.9
-3.25
-6.46
-10.62
-15.56
-20.75
-25.3
-28.19
-28.52
-25.8
-20.15
-12.33
-3.53
4.96
12.09
17.24
20.28
21.39
20.95
19.36
17.03
14.35
11.66
9.24
7.27
5.77
4.69
3.93
3.36
2.85
2.31
1.65
0.8
-0.32
-1.83
-3.91
-6.76
-10.49
-14.99
-19.76
-23.96
-26.54
-26.58
-23.68
-18.1
-10.75
-2.85
4.43
10.29
14.43
16.94
18.07
18.05
17.03
15.15
12.65
9.87
7.26
5.19
3.82
3.04
2.58
2.08
1.29
0.12
-1.37
-2.99
-4.62
-6.3
-8.26
-10.83
-14.28
-18.59
-23.24
-27.29
-29.63
-29.29
-25.87
-19.71
-11.71
-3.1
5.01
11.86
17.13
20.82
23.04
23.92
23.55
22.08
19.79
17.17
14.72
12.84
11.65
10.96
10.35
9.44
8.03
6.18
4.22
2.43
0.98
-0.25
-1.59
-3.51
-6.41
-10.51
-15.67
-21.32
-26.46
-29.89
-30.49
-27.7
-21.69
-13.4
-4.25
4.35
11.38
16.44
19.65
21.39
22.01
21.73
20.64
18.87
16.66
14.38
12.44
11.09
10.35
9.96
9.5
8.66
7.33
5.69
4.07
2.75
1.81
1.04
0.05
-1.59
-4.25
-8.12
-13.15
-19.02
-25.04
-30.28
-33.61
-34.08
-31.19
-25.23
-17.16
-8.36
-0.14
6.65
11.74
15.35
17.84
19.43
20.13
19.84
18.54
16.47
14.09
11.92
10.36
9.52
9.19
9
8.58
7.72
6.43
4.85
3.18
1.51
-0.17
-1.99
-4.15
-6.79
-10.01
-13.82
-18.06
-22.4
-26.23
-28.75
-29.15
-26.88
-21.91
-14.82
-6.64
1.45
8.54
14.15
18.23
20.93
22.44
22.83
22.1
20.33
17.8
14.98
12.45
10.64
9.69
9.43
9.39
9.1
8.23
6.71
4.75
2.67
0.72
-0.99
-2.62
-4.39
-6.54
-9.23
-12.49
-16.27
-20.45
-24.74
-28.65
-31.53
-32.56
-31.12
-26.98
-20.51
-12.57
-4.29
3.32
9.6
14.32
17.63
19.77
20.94
21.24
20.68
19.31
17.3
14.97
12.7
10.86
9.65
9.04
8.83
8.71
8.41
7.8
6.89
5.77
4.55
3.23
1.75
-0.02
-2.2
-4.84
-7.96
-11.55
-15.63
-20.11
-24.69
-28.73
-31.3
-31.46
-28.6
-22.78
-14.73
-5.73
2.86
10.01
15.19
18.45
20.15
20.75
20.6
19.89
18.71
17.14
15.38
13.7
12.38
11.59
11.27
11.12
10.8
10.03
8.74
7.07
5.24
3.43
1.62
-0.32
-2.57
-5.23
-8.32
-11.79
-15.63
-19.83
-24.25
-28.48
-31.8
-33.34
-32.39
-28.65
-22.51
-14.84
-6.76
0.75
7.03
11.82
15.16
17.15
17.9
17.53
16.21
14.22
11.92
9.7
7.85
6.51
5.62
5
4.36
3.48
2.29
0.86
-0.6
-1.93
-3.11
-4.32
-5.88
-8.14
-11.34
-15.48
-20.37
-25.48
-30.11
-33.46
-34.72
-33.35
-29.22
-22.71
-14.67
-6.16
1.8
8.48
13.55
16.99
18.94
19.53
18.9
17.17
14.61
11.62
8.73
6.42
4.92
4.15
3.73
3.19
2.16
0.61
-1.21
-2.98
-4.43
-5.52
-6.45
-7.57
-9.25
-11.77
-15.23
-19.5
-24.17
-28.47
-31.45
-32.15
-29.96
-24.9
-17.6
-9.1
-0.53
7.22
13.65
18.57
21.99
23.97
24.6
24.03
22.5
20.33
17.89
15.5
13.4
11.69
10.4
9.44
8.63
7.76
6.64
5.18
3.43
1.55
-0.32
-2.14
-4.01
-6.17
-8.94
-12.54
-16.97
-21.93
-26.78
-30.62
-32.52
-31.76
-28.08
-21.8
-13.75
-5.05
3.25
10.39
16.05
20.18
22.87
24.13
23.98
22.43
19.76
16.47
13.21
10.54
8.73
7.73
7.15
6.53
5.54
4.07
2.29
0.53
-0.97
-2.16
-3.22
-4.53
-6.52
-9.5
-13.56
-18.47
-23.71
-28.52
-32.02
-33.35
-31.93
-27.66
-20.94
-12.67
-3.95
4.21
11.1
16.38
19.99
22
22.51
21.65
19.64
16.9
14.01
11.56
9.98
9.4
9.56
10.04
10.37
10.31
9.87
9.26
8.68
8.18
7.59
6.58
4.81
2.02
-1.89
-6.66
-11.78
-16.43
-19.61
-20.44
-18.44
-13.73
-7.02
0.64
8.22
15.03
20.77
25.43
29.03
31.46
32.56
32.21
30.54
27.97
25.08
22.42
20.31
18.76
17.64
16.78
16.17
15.94
16.33
17.48
19.38
21.87
24.71
27.7
30.62
33.3
35.58
37.41
39.02
40.98
44.08
49.03
56.15
65.12
75.07
84.9
93.63
100.69
105.82
108.95
109.95
108.55
104.49
97.78
88.89
78.78
68.65
59.55
52.03
45.92
40.51
34.98
28.77
21.89
14.84
8.21
2.32
-2.98
-8.25
-14.08
-20.83
-28.44
-36.5
-44.43
-51.56
-57.16
-60.48
-60.77
-57.56
-50.85
-41.3
-30.16
-18.98
-9.21
-1.87
2.55
4.09
3.06
-0.05
-4.69
-10.27
-16.11
-21.59
-26.2
-29.8
-32.62
-35.16
-37.96
-41.32
-45.17
-49.1
-52.61
-55.31
-57.12
-58.27
-59.22
-60.48
-62.36
-64.83
-67.38
-69.08
-68.8
-65.66
-59.3
-50.12
-39.16
-27.82
-17.39
-8.81
-2.46
1.7
4.05
5.13
5.49
5.62
5.89
6.47
7.32
8.3
9.25
10.06
10.91
12.25
14.77
19.18
25.84
34.49
44
52.49
57.7
57.6
51.06
38.29
20.96
1.81
-16.04
-29.96
-38.47
-41.52
-40.26
-36.52
-32.15
-28.57
-26.6
-26.59
-28.54
-32.22
-37.19
-42.78
-48.18
-52.64
-55.69
-57.27
-57.74
-57.68
-57.6
-57.74
-58
-58.05
-57.54
-56.32
-54.52
-52.55
-50.96
-50.34
-51.14
-53.49
-57.03
-60.83
-63.51
-63.65
-60.21
-52.98
-42.7
-30.75
-18.72
-7.81
1.34
8.63
14.22
18.24
20.72
21.65
21.18
19.66
17.67
15.76
14.36
13.58
13.25
13
12.47
11.47
10.09
8.59
7.32
6.47
5.98
5.54
4.66
2.85
-0.18
-4.41
-9.39
-14.28
-17.95
-19.31
-17.6
-12.68
-5.03
4.27
13.96
22.94
30.48
36.24
40.18
42.3
42.58
40.99
37.63
32.94
27.57
22.38
18.09
15.09
13.33
12.36
11.58
10.46
8.83
6.79
4.65
2.7
1.02
-0.59
-2.53
-5.31
-9.28
-14.55
-20.81
-27.31
-32.93
-36.4
-36.68
-33.22
-26.25
-16.74
-6.08
4.29
13.3
20.38
25.41
28.49
29.71
29.14
26.93
23.49
19.55
16.03
13.77
13.2
14.15
16.01
17.94
19.22
19.56
18.98
17.79
16.35
14.91
13.54
12.24
10.9
9.26
6.87
3.11
-2.5
-9.97
-18.42
-26.2
-31.35
-32.4
-29.03
-22.24
-14
-6.44
-1.17
1.17
0.81
-1.51
-4.84
-8.2
-10.6
-11.12
-9.05
-4.26
2.63
10.36
17.42
22.59
25.32
25.73
24.3
21.49
17.41
11.97
5.07
-3.1
-11.99
-20.89
-29.18
-36.56
-43.08
-48.99
-54.5
-59.67
-64.39
-68.43
-71.52
-73.38
-73.8
-72.66
-69.96
-65.83
-60.47
-54
-46.41
-37.48
-27.08
-15.26
-2.5
10.34
22.24
32.36
40.22
45.87
49.64
51.84
52.45
51.18
47.66
41.86
34.27
25.86
17.64
10.22
3.59
-2.88
-9.94
-18.12
-27.38
-37.17
-46.71
-55.23
-62.21
-67.36
-70.51
-71.35
-69.24
-63.27
-52.63
-37.21
-18.1
2.27
20.61
33.84
40.08
39.34
33.31
24.71
16.24
9.76
5.98
4.54
4.54
4.98
5.23
5.23
5.58
7.26
11.32
18.44
28.61
40.95
53.89
65.38
73.4
76.36
73.52
65.15
52.53
37.65
22.77
9.98
0.94
-3.35
-2.55
2.87
11.7
22.01
31.61
38.54
41.61
40.67
36.34
29.61
21.4
12.39
3.14
-5.55
-12.62
-16.87
-17.57
-14.87
-9.88
-4.19
0.81
4.43
6.82
8.6
10.28
11.94
13.25
13.82
13.7
13.61
14.86
19
27.21
39.95
56.85
76.97
99.39
123.52
149.23
176.38
204.25
231.1
254.39
271.49
280.68
281.83
276.4
266.7
255.03
242.91
230.78
218.09
203.77
186.64
165.84
141.17
113.12
82.66
50.8
18.08
-15.66
-51.12
-88.88
-128.69
-169.12
-207.84
-242.35
-270.98
-293.48
-311.05
-325.72
-339.61
-354.11
-369.2
-383.06
-392.21
-392.11
-378.53
-349.34
-305.87
-253.27
-199.2
-151.34
-114.8
-90.66
-76.41
-67.89
-61.53
-55.75
-50.7
-47.06
-44.77
-42.72
-39.42
-34.15
-27.64
-21.88
-19.01
-20.27
-25.38
-32.81
-40.56
-46.87
-50.77
-52.06
-51.02
-48.11
-43.82
-38.62
-32.97
-27.36
-22.33
-18.4
-16.09
-15.92
-18.33
-23.45
-30.93
-39.7
-48.13
-54.37
-57.04
-55.83
-51.75
-46.88
-43.43
-42.85
-45.09
-48.84
-52.11
-53.31
-51.84
-48.15
-43.25
-38.01
-32.78
-27.46
-21.82
-15.75
-9.25
-2.15
6.12
16.41
29.5
45.43
63.32
81.48
97.94
111.1
120.12
125.01
126.3
124.64
120.51
114.26
106.19
96.79
86.71
76.67
67.18
58.48
50.53
43.27
36.76
31.32
27.25
24.71
23.41
22.62
21.37
18.74
14.2
7.77
0.1
-7.62
-13.94
-17.54
-17.6
-14.02
-7.42
1.11
10.42
19.59
28.06
35.53
41.75
46.4
49.18
49.89
48.6
45.68
41.63
36.96
31.99
26.86
21.54
15.98
10.25
4.58
-0.69
-5.26
-8.95
-11.84
-14.23
-16.55
-19.31
-23
-27.97
-34.33
-41.7
-49.13
-55.15
-58.13
-56.83
-50.88
-40.9
-28.34
-14.97
-2.38
8.36
16.76
22.73
26.37
27.85
27.4
25.34
22.2
18.62
15.24
12.58
10.85
9.93
9.49
9.17
8.73
8.14
7.58
7.18
6.98
6.69
5.89
4.02
0.62
-4.49
-11.01
-18.14
-24.6
-28.88
-29.69
-26.37
-19.17
-9.13
2.25
13.51
23.57
31.92
38.45
43.13
45.91
46.68
45.42
42.46
38.42
34.14
30.36
27.42
25.22
23.39
21.5
19.41
17.3
15.55
14.44
13.9
13.51
12.6
10.5
6.86
1.6
-4.92
-12.02
-18.7
-23.76
-26.09
-25.02
-20.62
-13.77
-5.83
1.83
8.32
13.31
16.98
19.59
21.24
21.77
20.91
18.49
14.57
9.34
3.12
-3.82
-11.19
-18.6
-25.54
-31.41
-35.76
-38.44
-39.73
-40.29
-40.88
-42.19
-44.58
-48.09
-52.48
-57.35
-62.13
-66.01
-68.02
-67.2
-62.93
-55.29
-45.07
-33.64
-22.5
-12.86
-5.43
-0.41
2.33
3.04
1.99
-0.61
-4.51
-9.37
-14.66
-19.58
-22.99
-23.57
-20
-11.31
2.77
21.62
43.78
67.26
89.99
110.34
127.56
141.74
153.64
164.09
173.59
182.13
189.28
194.53
197.48
197.83
195.23
189.36
180.32
169.12
157.87
149.19
145.08
145.84
149.72
153.68
154.83
151.81
145.14
136.63
128.09
120.4
113.21
105.53
96.49
85.78
73.59
60.14
45.25
28.32
8.62
-14.04
-38.92
-64.2
-87.34
-105.7
-117.32
-121.42
-118.59
-110.42
-99.01
-86.41
-74.27
-63.78
-55.69
-50.33
-47.59
-46.83
-46.96
-46.64
-44.55
-39.72
-31.64
-20.3
-6.04
10.45
28.23
46.18
63.03
77.55
88.66
95.51
97.56
94.68
87.23
76.16
62.96
49.42
37.25
27.72
21.47
18.49
18.38
20.47
24.03
28.21
32.1
34.83
35.76
34.66
31.69
27.29
21.88
15.79
9.17
2.16
-5.06
-12.2
-18.88
-24.78
-29.72
-33.76
-37.15
-40.32
-43.81
-48.01
-53.01
-58.4
-63.34
-66.74
-67.65
-65.66
-61.12
-55.06
-48.86
-43.86
-40.89
-40.19
-41.43
-43.97
-47.27
-51.07
-55.52
-61.05
-68.08
-76.78
-86.79
-97.16
-106.56
-113.51
-116.74
-115.42
-109.32
-98.83
-84.86
-68.68
-51.8
-35.75
-21.85
-10.74
-2.23
4.77
11.81
20.21
30.35
41.41
51.68
59.29
63.1
63.09
60.28
56.13
51.91
48.29
45.35
42.83
40.5
38.26
36.13
34.08
32
29.67
26.89
23.61
19.95
16.15
12.42
8.89
5.52
2.17
-1.18
-4.3
-6.65
-7.56
-6.53
-3.53
0.87
5.64
9.67
12.13
12.74
11.58
8.93
4.96
-0.3
-6.76
-14.04
-21.37
-27.69
-32.08
-34.11
-34.01
-32.57
-30.8
-29.58
-29.47
-30.77
-33.61
-38.04
-43.94
-50.94
-58.37
-65.31
-70.77
-73.85
-73.82
-70.2
-62.85
-52.13
-39.06
-25.26
-12.6
-2.72
3.54
6.26
6.29
4.79
2.75
0.81
-0.65
-1.28
-0.7
1.42
5.12
10
15.28
20
23.25
24.31
22.77
18.63
12.49
5.56
-0.55
-4.31
-4.95
-2.8
0.76
4.05
5.88
6.25
6.27
7.53
11.11
16.95
23.78
29.65
32.78
32.19
28.04
21.71
15.64
13.2
18.08
33.27
59.6
94.42
131.33
161.64
177.12
173.01
149.7
112.21
67.86
23.33
-17.22
-52.26
-81.7
-105.39
-122.57
-132.37
-134.81
-131.58
-125.7
-120.56
-118.58
-120.5
-125.4
-131.54
-137.3
-141.92
-145.61
-149.15
-153.24
-157.86
-162.09
-164.39
-163.23
-157.81
-148.34
-135.98
-122.27
-108.52
-95.38
-82.72
-69.85
-55.96
-40.55
-23.66
-6
11.35
27.2
40.66
51.29
59.18
64.73
68.37
70.37
70.76
69.39
66.14
61.03
54.36
46.76
39.15
32.64
28.32
26.91
28.51
32.37
37.1
40.97
42.45
40.71
35.78
28.54
20.35
12.72
6.8
3.26
2.24
3.4
6.14
9.79
13.7
17.3
20.13
21.75
21.89
20.5
17.85
14.5
11.14
8.38
6.57
5.74
5.67
6.09
6.76
7.52
8.29
8.92
9.28
9.29
9.13
9.36
10.88
14.71
21.6
31.82
44.93
59.96
75.7
90.96
104.78
116.52
125.74
132.15
135.58
136.06
133.93
129.83
124.66
119.18
113.82
108.49
102.6
95.4
86.28
75.03
61.82
47.07
31.17
14.51
-2.22
-17.85
-30.62
-38.61
-40.49
-36.2
-27.12
-15.68
-4.46
4.72
11.17
15.14
17.23
17.75
16.49
12.98
6.9
-1.47
-11.25
-21.15
-29.95
-36.88
-41.83
-45.24
-47.87
-50.53
-53.94
-58.65
-64.98
-72.84
-81.58
-89.84
-95.75
-97.53
-94.08
-85.59
-73.54
-60.29
-48.31
-39.4
-34.41
-33.27
-35.43
-40.27
-47.23
-55.75
-65.06
-74.14
-81.68
-86.4
-87.27
-83.84
-76.37
-65.92
-54.1
-42.7
-33.23
-26.55
-22.65
-20.69
-19.27
-16.73
-11.6
-2.92
9.45
24.73
41.37
57.35
70.75
80.17
84.96
85.22
81.48
74.5
65.11
54.23
42.89
32.21
23.17
16.38
12.01
9.77
9.14
9.54
10.4
11.15
11.15
9.79
6.76
2.45
-1.87
-4.2
-2.48
4.56
16.78
32.52
49.18
64.08
75.15
81.28
81.98
76.96
65.84
48.37
24.88
-3.24
-33.49
-62.8
-88.51
-109.32
-125.67
-139.57
-153.82
-171.11
-193.34
-221.3
-254.66
-291.79
-329.64
-363.65
-388.03
-396.89
-385.9
-354.14
-304.94
-245.46
-184.68
-130.7
-88.47
-58.82
-39.19
-25.43
-13.68
-1.52
11.87
26.45
42.02
58.5
75.77
93.21
109.58
123.29
133
138.21
139.35
137.51
133.93
129.52
124.71
119.66
114.54
109.75
105.83
103.3
102.44
103.1
104.71
106.5
107.75
107.95
106.94
104.8
101.81
98.28
94.5
90.68
86.93
83.32
79.86
76.58
73.49
70.58
67.8
64.95
61.74
57.78
52.76
46.6
39.58
32.39
26.06
21.65
19.89
20.96
24.38
29.15
34.11
38.26
40.99
42.13
41.82
40.27
37.69
34.17
29.82
24.8
19.39
14.08
9.34
5.57
2.83
0.84
-0.96
-3.27
-6.63
-11.38
-17.56
-25.02
-33.46
-42.35
-50.89
-57.97
-62.37
-63.08
-59.74
-52.83
-43.61
-33.72
-24.58
-17.07
-11.41
-7.41
-4.75
-3.24
-2.79
-3.29
-4.43
-5.75
-6.74
-7.11
-6.89
-6.4
-6.06
-6.2
-7.01
-8.56
-10.95
-14.31
-18.76
-24.29
-30.56
-36.86
-42.18
-45.42
-45.73
-42.83
-37.1
-29.53
-21.32
-13.57
-6.86
-1.28
3.4
7.27
10.03
10.92
9.04
3.78
-4.85
-16.15
-29.01
-42.23
-54.88
-66.3
-76.04
-83.7
-88.96
-91.83
-92.84
-93.08
-93.94
-96.57
-101.22
-106.89
-111.38
-111.78
-105.46
-91.03
-68.91
-41.25
-11.24
17.92
43.95
65.79
83.4
97.18
107.56
114.91
119.65
122.4
123.86
124.42
123.86
121.43
116.28
108.07
97.33
85.4
73.91
64.22
56.9
51.7
47.78
44.06
39.63
34.06
27.53
20.78
14.94
11.1
10.02
11.85
16.13
22.05
28.6
34.92
40.34
44.4
46.84
47.61
46.82
44.76
41.89
38.63
35.23
31.69
27.89
23.81
19.73
16.28
14.18
13.82
14.9
16.31
16.42
13.54
6.55
-4.68
-19.14
-35
-49.98
-62.03
-69.73
-72.64
-71.24
-66.7
-60.42
-53.64
-47.18
-41.44
-36.52
-32.42
-29.12
-26.63
-24.86
-23.64
-22.72
-21.83
-20.81
-19.64
-18.48
-17.51
-16.84
-16.48
-16.29
-16.17
-16.14
-16.44
-17.4
-19.2
-21.58
-23.79
-24.71
-23.31
-19.03
-12.12
-3.54
5.35
13.31
19.53
23.83
26.44
27.82
28.42
28.49
28.17
27.55
26.81
26.22
26.08
26.59
27.65
28.95
30.19
31.36
32.84
35.19
38.77
43.28
47.78
51.01
52.1
51.05
48.77
46.55
45.19
44.5
43.29
40.06
33.81
24.65
13.69
2.53
-7.52
-15.91
-22.83
-28.86
-34.48
-39.7
-44.2
-47.53
-49.54
-50.39
-50.49
-50.26
-49.95
-49.64
-49.37
-49.29
-49.62
-50.45
-51.62
-52.53
-52.33
-50.17
-45.52
-38.44
-29.48
-19.55
-9.61
-0.46
7.36
13.59
18.24
21.47
23.51
24.61
24.94
24.64
23.85
22.74
21.63
20.81
20.51
20.73
21.31
21.93
22.27
22.1
21.25
19.63
17.32
14.66
12.35
11.25
12.14
15.39
20.79
27.61
34.96
42.07
48.51
54.11
58.84
62.6
65.22
66.57
66.7
65.83
64.32
62.56
60.83
59.31
58.05
56.99
55.95
54.73
53.09
50.81
47.71
43.67
38.68
33
27.18
22
18.29
16.6
16.97
18.9
21.57
24.15
26.16
27.49
28.42
29.2
29.93
30.43
30.36
29.46
27.71
25.42
23.19
21.6
21.04
21.46
22.41
23.24
23.33
22.35
20.25
17.18
13.33
8.98
4.58
0.9
-0.98
0.02
4.54
12.37
22.35
32.5
40.6
44.52
42.72
34.4
19.76
-0
-22.63
-45.06
-63.97
-76.43
-80.66
-76.39
-64.86
-48.35
-29.58
-11
5.5
18.76
28.22
33.68
35.2
33
27.57
19.73
10.76
2.18
-4.53
-8.27
-8.67
-6.22
-2.04
2.3
5.27
5.59
2.5
-4.3
-14.58
-27.77
-42.96
-59.02
-74.64
-88.44
-99.16
-105.94
-108.5
-107.29
-103.36
-98.01
-92.45
-87.48
-83.52
-80.7
-78.98
-78.14
-77.49
-75.86
-71.62
-63.31
-50.26
-33.1
-13.75
5.3
21.91
35.05
45
52.89
59.91
66.6
72.59
76.86
78.28
76.1
70.2
61.01
49.27
35.75
21.16
6.13
-8.7
-22.7
-35.25
-45.9
-54.47
-61.11
-66.1
-69.69
-71.78
-71.87
-69.23
-63.3
-54.05
-42.19
-29.05
-16.18
-4.91
3.92
10.01
13.39
14.21
12.7
9.15
3.98
-2.21
-8.71
-14.81
-19.93
-23.65
-25.82
-26.59
-26.37
-25.74
-25.34
-25.65
-26.98
-29.46
-33.15
-37.89
-43.3
-48.61
-52.77
-54.77
-53.96
-50.38
-44.64
-37.65
-30.18
-22.56
-14.76
-6.61
1.85
10.3
18.15
24.83
30.02
33.79
36.56
38.87
41.28
44.06
47.15
50.22
52.77
54.24
54.13
52.09
48
42.11
35.07
27.89
21.72
17.45
15.37
14.98
15.17
14.65
12.43
8.14
2
-5.42
-13.5
-21.82
-30.12
-38.16
-45.51
-51.53
-55.53
-56.97
-55.73
-52.17
-47.08
-41.4
-36.04
-31.64
-28.53
-26.71
-25.85
-25.3
-24.14
-21.36
-16.17
-8.23
2.15
14.02
26.05
36.99
45.97
52.75
57.63
61.25
64.27
67.1
69.83
72.22
73.94
74.72
74.45
73.21
71.13
68.37
65
61.07
56.53
51.25
45
37.53
28.72
18.91
9.01
0.4
-5.37
-7.14
-4.61
1.54
9.9
18.86
27.07
33.77
38.79
42.36
44.85
46.49
47.2
46.55
43.95
38.86
31.08
20.92
9.08
-3.59
-16.44
-29.2
-41.98
-54.99
-68.18
-80.97
-92.37
-101.24
-106.77
-108.82
-107.91
-105.11
-101.59
-98.32
-95.96
-94.79
-94.96
-96.55
-99.61
-104.11
-109.87
-116.59
-123.93
-131.56
-139.05
-145.71
-150.38
-151.61
-147.99
-138.72
-124.02
-105.17
-84.12
-62.93
-43.18
-25.76
-10.83
1.93
13.06
23.18
32.84
42.41
51.95
61.06
68.89
74.31
76.26
74.11
67.88
58.37
46.93
35.08
24.2
15.12
8.07
2.73
-1.5
-5.24
-8.95
-12.94
-17.4
-22.46
-28.14
-34.16
-39.72
-43.58
-44.32
-40.96
-33.41
-22.68
-10.51
1.24
11.3
19.26
25.45
30.36
34.2
36.83
37.98
37.74
36.73
35.99
36.46
38.43
41.5
44.68
47.01
47.94
47.39
45.63
42.95
39.56
35.69
31.87
28.98
28.1
29.97
34.61
41.25
48.57
55.36
60.87
65.02
68.1
70.41
71.95
72.45
71.64
69.53
66.59
63.65
61.62
61.09
62.11
64.22
66.61
68.49
69.34
69.03
67.77
65.83
63.41
60.62
57.65
54.91
53.05
52.6
53.55
55.03
55.47
53.22
47.3
37.89
26.3
14.33
3.45
-5.72
-13.34
-19.97
-25.95
-31.16
-35.19
-37.63
-38.42
-37.89
-36.52
-34.7
-32.56
-30.03
-27.07
-23.72
-20.12
-16.4
-12.54
-8.3
-3.37
2.52
9.41
17.13
25.34
33.57
41.33
48.13
53.56
57.39
59.63
60.54
60.55
60
59.1
57.78
55.91
53.39
50.28
46.82
43.28
39.77
36.21
32.33
27.81
22.48
16.33
9.57
2.64
-3.96
-9.6
-13.77
-16.12
-16.58
-15.45
-13.33
-10.98
-9.15
-8.44
-9.18
-11.44
-15.1
-19.83
-25.16
-30.54
-35.38
-39.18
-41.67
-42.83
-42.9
-42.24
-41.27
-40.35
-39.77
-39.72
-40.31
-41.6
-43.59
-46.23
-49.31
-52.46
-55.04
-56.23
-55.2
-51.41
-44.97
-36.65
-27.79
-19.76
-13.53
-9.32
-6.61
-4.47
-1.96
1.43
5.81
10.89
16.26
21.55
26.48
30.91
34.73
37.89
40.38
42.31
43.93
45.63
47.75
50.54
54.09
58.38
63.39
69.03
74.96
80.44
84.3
85.29
82.62
76.45
68.06
59.54
53.05
50.11
50.89
54.12
57.38
57.79
53.1
42.47
27.01
9.49
-6.55
-18.08
-23.63
-23.59
-19.79
-14.54
-9.93
-7.36
-7.84
-12.18
-21.05
-34.58
-51.89
-70.86
-88.5
-101.88
-109.05
-109.76
-105.41
-98.43
-91.34
-85.92
-82.86
-81.79
-81.82
-82.07
-82.05
-81.75
-81.46
-81.49
-81.93
-82.63
-83.31
-83.79
-84.1
-84.45
-85.1
-86.12
-87.35
-88.48
-89.3
-89.8
-90.11
-90.27
-89.91
-88.17
-83.96
-76.44
-65.44
-51.63
-36.35
-21.1
-7.09
4.96
14.88
22.81
28.99
33.68
37.01
39.01
39.56
38.53
35.95
32.23
28.26
25.13
23.83
24.78
27.72
31.81
36.08
39.77
42.48
44.12
44.77
44.68
44.43
45.04
47.8
53.82
63.42
75.81
89.16
101.23
110.05
114.49
114.33
110.06
102.53
92.62
81.1
68.49
54.96
40.19
23.45
3.96
-18.67
-43.94
-70.33
-95.63
-117.6
-134.65
-146.37
-153.56
-157.97
-161.84
-167.26
-175.5
-186.59
-199.07
-210.19
-216.66
-215.6
-205.51
-186.73
-161.35
-132.45
-103.18
-75.92
-51.87
-31.14
-13.11
3.1
18.23
32.75
46.88
60.69
74.13
87.05
99.14
109.82
118.46
124.54
128.01
129.28
129.08
128.11
126.61
124.36
120.83
115.7
109.13
101.98
95.46
90.75
88.52
88.74
90.71
93.35
95.57
96.55
95.91
93.57
89.54
83.77
76.05
66.21
54.42
41.24
27.53
13.98
0.78
-12.54
-26.83
-42.7
-59.99
-77.67
-94.18
-108.08
-118.67
-126.05
-130.89
-133.74
-134.69
-133.3
-129.07
-121.95
-112.62
-102.39
-92.69
-84.49
-77.96
-72.55
-67.44
-61.99
-56.12
-50.24
-44.98
-40.79
-37.77
-35.58
-33.73
-31.73
-29.32
-26.47
-23.36
-20.18
-17.14
-14.35
-11.89
-9.9
-8.57
-8.11
-8.52
-9.36
-9.68
-8.17
-3.56
4.84
16.85
31.47
47.31
63.11
78.19
92.39
105.83
118.43
129.69
138.73
144.64
146.83
145.33
140.63
133.43
124.22
112.9
98.88
81.42
60.19
35.68
9.25
-17.29
-42.24
-64.37
-82.91
-97.15
-106.04
-108.22
-102.54
-88.74
-67.93
-42.45
-15.29
10.76
33.46
51.24
62.92
67.67
65.29
56.53
43.19
27.73
12.46
-1.19
-12.94
-23.29
-32.75
-41.19
-47.69
-50.94
-50.03
-45.09
-37.5
-29.53
-23.41
-20.34
-19.81
-19.61
-16.59
-7.93
7.76
29.87
56.07
82.96
106.92
124.66
133.64
132.42
121.01
101.11
75.83
48.97
23.9
2.72
-14.06
-27.06
-37.26
-45.41
-51.97
-57.28
-61.74
-65.73
-69.37
-72.36
-74.15
-74.26
-72.43
-68.59
-62.54
-53.76
-41.57
-25.57
-6.13
15.36
36.7
55.5
69.84
78.63
81.72
79.75
73.88
65.58
56.37
47.63
40.29
34.69
30.64
27.61
25.09
22.87
21.1
20.09
19.98
20.5
20.93
20.35
18.01
13.74
8.05
2.01
-3.2
-6.74
-8.48
-9.05
-9.65
-11.66
-16.18
-23.72
-34.14
-46.75
-60.57
-74.56
-87.81
-99.54
-109.14
-116.08
-120.01
-120.82
-118.74
-114.29
-108.3
-101.67
-95.26
-89.71
-85.43
-82.65
-81.53
-82.12
-84.24
-87.33
-90.28
-91.67
-90.12
-84.86
-76
-64.56
-52.06
-39.99
-29.52
-21.35
-15.9
-13.39
-13.81
-16.73
-21.23
-26.06
-29.99
-32.14
-32.3
-30.8
-28.36
-25.86
-24.05
-23.47
-24.39
-26.75
-30.34
-34.93
-40.31
-46.26
-52.34
-57.76
-61.28
-61.62
-57.86
-49.83
-38.18
-24.11
-8.88
6.51
21.48
35.7
48.95
60.96
71.36
79.8
86.01
89.98
92.01
92.7
92.79
92.91
93.38
94.06
94.46
93.96
92.09
88.69
83.94
78.28
72.32
66.67
62.02
58.99
58.03
59.32
62.58
67.16
72.18
76.73
80.09
81.87
81.89
80.18
76.81
71.9
65.7
58.59
51.08
43.73
37.02
31.21
26.28
22.02
18.04
13.96
9.41
4.11
-2.07
-8.98
-16.15
-22.7
-27.55
-29.61
-28.22
-23.38
-15.77
-6.58
2.9
11.62
18.94
24.59
28.43
30.4
30.45
28.69
25.45
21.35
17.11
13.36
10.43
8.33
6.76
5.31
3.7
1.82
-0.26
-2.36
-4.36
-6.23
-7.89
-9.1
-9.37
-8.08
-4.71
0.93
8.51
17.36
26.67
35.79
44.28
51.88
58.29
63.14
66.03
66.7
65.18
61.81
57.12
51.7
46.17
41.07
36.85
33.77
31.82
30.7
29.82
28.51
26.13
22.38
17.35
11.66
6.32
2.55
1.43
3.5
8.55
15.57
23.05
29.41
33.49
34.81
33.54
30.14
25.01
18.23
9.61
-1.07
-13.77
-27.96
-42.76
-57.17
-70.43
-82.25
-92.75
-102.26
-110.98
-118.84
-125.53
-130.65
-133.95
-135.24
-134.37
-130.99
-124.55
-114.58
-101
-84.3
-65.52
-45.98
-26.82
-8.77
7.77
22.53
35.08
44.86
51.37
54.55
54.88
53.28
50.71
47.81
44.7
41.16
36.92
31.94
26.48
20.97
15.79
11.01
6.39
1.5
-4.1
-10.51
-17.32
-23.64
-28.32
-30.29
-29
-24.66
-18.14
-10.68
-3.51
2.51
7.03
10.09
11.97
13.01
13.47
13.49
13.12
12.43
11.68
11.34
12.07
14.48
18.92
25.33
33.35
42.44
52.19
62.31
72.5
82.32
91.06
97.91
102.34
104.29
104.26
102.96
100.92
98.17
94.16
88.16
79.69
68.92
56.78
44.64
33.89
25.47
19.6
15.87
13.52
11.79
10.2
8.52
6.79
5.13
3.6
2.28
1.22
0.47
0.03
-0.23
-0.66
-1.8
-4.2
-8.18
-13.62
-19.83
-25.78
-30.32
-32.62
-32.34
-29.73
-25.47
-20.38
-15.28
-10.78
-7.28
-5.05
-4.17
-4.61
-6.2
-8.65
-11.59
-14.65
-17.53
-20.02
-22.06
-23.7
-25.09
-26.36
-27.59
-28.73
-29.69
-30.39
-30.9
-31.43
-32.33
-33.92
-36.36
-39.45
-42.62
-45.04
-45.84
-44.38
-40.46
-34.39
-26.94
-19.1
-11.82
-5.78
-1.36
1.37
2.54
2.32
0.91
-1.5
-4.65
-8.18
-11.64
-14.58
-16.65
-17.77
-18.07
-17.88
-17.45
-16.91
-16.24
-15.34
-14.2
-12.99
-11.94
-11.16
-10.43
-9.17
-6.65
-2.35
3.83
11.36
19.3
26.53
32.07
35.33
36.23
35.09
32.57
29.46
26.52
24.34
23.2
23.06
23.57
24.19
24.45
24.08
23.2
22.24
21.79
22.29
23.77
25.69
27.05
26.65
23.57
17.59
9.38
0.41
-7.52
-12.84
-14.79
-13.62
-10.45
-6.77
-3.83
-2.32
-2.24
-3.17
-4.61
-6.26
-8.02
-9.91
-11.89
-13.84
-15.57
-17.02
-18.33
-19.83
-21.83
-24.5
-27.72
-31.18
-34.52
-37.56
-40.41
-43.36
-46.74
-50.6
-54.59
-57.99
-59.94
-59.73
-57
-51.9
-44.94
-36.83
-28.37
-20.3
-13.23
-7.57
-3.43
-0.61
1.42
3.37
5.81
9.11
13.17
17.6
21.89
25.58
28.47
30.63
32.37
34.07
35.96
37.96
39.61
40.11
38.57
34.31
27.26
18.07
8.28
0.16
-3.66
-0.79
10.08
28.57
52.38
77.9
101.22
119.49
131.69
138.7
142.52
145.19
147.83
150.37
151.83
151.05
147.3
140.61
131.71
121.59
111.09
100.53
89.55
77.33
63.04
46.26
27.32
7.23
-12.59
-30.67
-45.9
-57.51
-65.13
-68.6
-67.96
-63.53
-55.92
-46.03
-34.88
-23.36
-12.09
-1.45
8.08
15.55
19.45
18.08
10.31
-3.47
-21.03
-38.7
-52.48
-59.52
-58.94
-51.97
-41.23
-29.74
-20.18
-14.56
-14.33
-20.43
-33.07
-51.39
-73.27
-95.57
-114.87
-128.41
-134.81
-134.35
-128.64
-119.92
-110.34
-101.43
-93.85
-87.61
-82.33
-77.66
-73.48
-69.9
-67.15
-65.27
-64.04
-62.91
-61.28
-58.71
-55.16
-50.9
-46.4
-42.08
-38.13
-34.63
-31.63
-29.25
-27.68
-27.03
-27.13
-27.39
-26.88
-24.7
-20.25
-13.49
-5.01
4.23
13.12
20.8
26.76
30.92
33.49
34.9
35.58
35.92
36.14
36.28
36.21
35.76
34.82
33.52
32.24
31.52
31.89
33.61
36.62
40.57
44.93
49.15
52.73
55.34
56.94
58.06
59.88
64.12
72.44
85.7
103.37
123.45
143.11
159.61
171.23
177.47
178.86
176.2
170.15
161.14
149.73
136.95
124.39
113.81
106.51
102.82
101.94
102.34
102.35
100.74
96.95
90.97
83.02
73.24
61.59
47.99
32.51
15.62
-1.75
-18.34
-32.89
-44.58
-53.37
-60.08
-66.26
-73.53
-83.15
-95.67
-110.93
-128.48
-147.93
-168.97
-191.12
-213.29
-233.64
-249.87
-259.91
-262.55
-257.78
-246.59
-230.5
-210.92
-188.82
-164.65
-138.59
-110.81
-81.74
-52.08
-22.63
5.93
33.15
58.72
82.2
102.84
119.66
131.8
139.09
142.45
143.81
145.58
149.82
157.52
168.38
181.07
193.9
205.52
215.43
224.01
232.3
241.46
252.3
264.98
278.94
293.15
306.27
316.84
323.22
323.71
316.69
301.07
276.72
244.82
207.88
169.24
132.36
99.9
73.02
51.23
32.7
14.93
-4.32
-26.47
-51.84
-79.74
-108.96
-138.1
-165.93
-191.44
-213.91
-232.83
-248.03
-259.68
-268.28
-274.51
-279.08
-282.52
-285.14
-287.09
-288.48
-289.5
-290.49
-291.88
-294.03
-297.02
-300.39
-303.01
-303.23
-299.22
-289.56
-273.8
-252.72
-228.29
-203.2
-180.07
-160.83
-146.27
-136.12
-129.36
-124.83
-121.6
-119.13
-117.12
-115.32
-113.23
-110.18
-105.41
-98.24
-88.13
-74.57
-57.09
-35.56
-10.6
16.03
41.53
62.89
78.05
86.85
91.05
93.42
96.21
99.92
103.01
102.67
96.16
81.95
60.12
32.01
-0.72
-36.73
-75.15
-115.38
-156.59
-197.5
-236.39
-271.47
-301.12
-323.97
-338.79
-344.29
-339.16
-322.31
-293.45
-253.62
-205.41
-152.81
-100.51
-52.66
-11.77
21.76
49.34
73.05
94.48
113.91
130.41
142.67
149.96
152.54
151.53
148.16
143.19
136.82
129.02
119.94
110.01
99.74
89.26
78.38
66.93
55.25
44.44
36.16
31.95
32.59
37.64
45.52
54.02
61.1
65.49
67.04
66.7
66.06
66.87
70.46
77.3
86.95
98.15
109.29
118.91
126.08
130.56
132.57
132.37
129.95
124.95
116.82
105.18
90.19
72.59
53.61
34.67
17
1.48
-11.58
-22.45
-31.95
-41.22
-51.41
-63.23
-76.58
-90.44
-103.04
-112.36
-116.69
-115.15
-107.86
-95.95
-81.21
-65.59
-50.74
-37.73
-27
-18.52
-11.96
-6.9
-2.89
0.51
3.62
6.6
9.41
11.84
13.69
14.89
15.63
16.25
17.12
18.46
20.22
22.09
23.52
24.01
23.46
22.52
22.61
25.57
32.8
44.41
58.84
73.2
84.37
90.13
89.95
84.73
75.98
64.93
52.08
37.59
21.87
5.96
-8.63
-20.61
-29.37
-35.14
-38.58
-40.36
-40.78
-39.94
-38.09
-35.89
-34.42
-34.83
-37.78
-43.12
-49.78
-55.93
-59.41
-58.16
-50.81
-36.98
-17.52
5.69
30.21
53.55
73.69
89.34
99.99
105.82
107.46
105.79
101.71
95.94
89
81.21
72.76
63.83
54.68
45.54
36.64
28.12
19.99
12.2
4.61
-2.95
-10.61
-18.26
-25.37
-31.05
-34.22
-34.01
-30.21
-23.42
-14.94
-6.26
1.38
7.31
11.39
13.79
14.67
14.06
11.96
8.45
3.87
-1.27
-6.38
-10.96
-14.75
-17.74
-20.13
-22.29
-24.65
-27.66
-31.77
-37.38
-44.71
-53.66
-63.66
-73.68
-82.35
-88.49
-91.34
-90.9
-87.87
-83.42
-78.78
-74.9
-72.1
-69.88
-66.93
-61.53
-52.12
-38.03
-19.83
0.84
21.87
41.56
59.12
74.59
88.35
100.5
110.61
117.93
121.9
122.55
120.55
117.01
113.01
109.41
106.7
105.08
104.62
105.31
107.09
109.83
113.28
117.06
120.68
123.61
125.4
125.69
124.14
120.33
113.72
103.77
90.3
73.9
56.11
39.21
25.6
17.08
14.35
16.9
23.31
31.78
40.56
48.18
53.65
56.53
57
55.91
54.52
54.12
55.45
58.41
62
64.75
65.32
62.95
57.69
50.18
41.29
31.68
21.71
11.42
0.81
-10.03
-20.81
-31.09
-40.4
-48.35
-54.74
-59.55
-62.9
-65.05
-66.35
-67.24
-68.17
-69.46
-71.13
-72.71
-73.28
-71.69
-66.95
-58.62
-47.07
-33.4
-19.19
-6.04
4.88
13.02
18.46
21.67
23.29
23.8
23.51
22.52
20.83
18.53
15.76
12.66
9.29
5.53
1.18
-3.91
-9.66
-15.8
-21.91
-27.69
-32.99
-37.67
-41.39
-43.41
-42.61
-37.86
-28.55
-14.95
1.61
19.13
35.55
49.25
59.39
65.74
68.45
67.75
63.87
57.18
48.26
37.9
26.9
15.85
5.01
-5.59
-15.9
-25.68
-34.52
-42.06
-48.14
-52.93
-56.77
-59.96
-62.57
-64.4
-65.08
-64.17
-61.36
-56.43
-49.37
-40.32
-29.6
-17.7
-5.31
6.79
17.72
26.65
32.98
36.45
37.25
35.97
33.44
30.41
27.32
24.28
21.07
17.5
13.54
9.38
5.33
1.53
-2.22
-6.49
-11.99
-19.21
-28.09
-37.89
-47.39
-55.29
-60.68
-63.26
-63.4
-61.88
-59.58
-57.28
-55.49
-54.57
-54.73
-56.1
-58.63
-61.98
-65.54
-68.5
-70.07
-69.7
-67.29
-63.17
-57.98
-52.42
-47.08
-42.28
-38.16
-34.75
-32.16
-30.46
-29.65
-29.45
-29.24
-28.16
-25.38
-20.49
-13.64
-5.54
2.82
10.45
16.7
21.29
24.22
25.66
25.84
25.05
23.61
21.95
20.48
19.56
19.44
20.18
21.68
23.74
26.1
28.5
30.73
32.56
33.73
33.9
32.75
30.12
26.18
21.48
16.83
13.07
10.74
9.96
10.39
11.42
12.47
13.12
13.21
12.79
11.99
10.88
9.49
7.77
5.67
3.2
0.46
-2.36
-5.11
-7.64
-9.91
-11.92
-13.73
-15.44
-17.19
-19.21
-21.69
-24.72
-28.05
-31.05
-32.76
-32.21
-28.73
-22.26
-13.45
-3.42
6.58
15.54
22.91
28.55
32.55
34.88
35.39
33.82
30.03
24.27
17.23
9.9
3.3
-1.9
-5.53
-7.89
-9.56
-11.14
-13.08
-15.6
-18.78
-22.59
-26.83
-31.1
-34.64
-36.49
-35.72
-31.84
-25.06
-16.3
-6.93
1.7
8.65
13.64
16.9
19.03
20.68
22.31
24.11
25.91
27.32
27.79
26.88
24.46
20.78
16.42
12.02
7.95
4.19
0.29
-4.36
-10.21
-17.3
-25.23
-33.24
-40.41
-45.84
-48.82
-48.9
-45.99
-40.39
-32.8
-24.16
-15.51
-7.72
-1.34
3.42
6.66
8.7
9.9
10.63
11.17
11.66
12.11
12.41
12.39
11.85
10.67
8.87
6.64
4.33
2.35
0.99
0.36
0.26
0.46
0.87
1.79
3.95
8.16
15
24.4
35.61
47.36
58.2
66.88
72.43
74.23
71.81
64.91
53.57
38.45
20.93
3.03
-13.07
-25.63
-33.92
-38.41
-40.48
-41.82
-43.74
-46.83
-50.97
-55.7
-60.6
-65.38
-69.79
-73.27
-74.97
-73.9
-69.45
-61.78
-51.93
-41.55
-32.31
-25.37
-21.04
-18.92
-18.21
-18.17
-18.38
-18.75
-19.35
-20.11
-20.76
-20.81
-19.72
-17.18
-13.22
-8.16
-2.56
3
8.07
12.38
15.82
18.5
20.71
22.98
26.04
30.62
37.2
45.79
55.8
66.15
75.6
83.01
87.67
89.34
88.26
84.94
79.97
73.92
67.19
60.11
52.93
45.9
39.25
33.16
27.67
22.66
17.9
13.12
8.06
2.53
-3.58
-10.32
-17.58
-24.99
-31.92
-37.49
-40.88
-41.59
-39.71
-35.95
-31.42
-27.32
-24.56
-23.54
-24.11
-25.75
-27.78
-29.6
-30.78
-31.1
-30.48
-28.9
-26.4
-23.06
-19.09
-14.82
-10.62
-6.83
-3.72
-1.41
0
0.44
-0.05
-1.25
-2.59
-3.22
-2.17
1.26
7.23
15.24
24.29
33.2
41.06
47.33
51.85
54.66
55.81
55.3
53.12
49.35
44.26
38.2
31.54
24.49
17.1
9.3
1
-7.82
-17.08
-26.7
-36.66
-46.96
-57.45
-67.66
-76.75
-83.61
-87.22
-87.08
-83.44
-77.18
-69.48
-61.41
-53.59
-46.2
-39.27
-32.86
-27.2
-22.62
-19.28
-17.06
-15.53
-14.12
-12.44
-10.34
-7.97
-5.63
-3.6
-2.02
-0.97
-0.52
-0.81
-2
-4.09
-6.76
-9.26
-10.61
-9.89
-6.59
-0.82
6.68
14.82
22.49
28.85
33.5
36.46
37.96
38.37
38.01
37.1
35.77
34.16
32.4
30.62
29.01
27.67
26.69
26.04
25.65
25.37
25.02
24.42
23.41
22.03
20.55
19.61
20.08
22.91
28.82
38.01
50.04
63.89
78.25
91.79
103.38
112.2
117.72
119.69
118.04
112.95
104.88
94.53
82.81
70.68
58.92
48.03
38.08
28.76
19.52
9.76
-1.02
-13.14
-26.66
-41.24
-56.12
-70.03
-81.37
-88.59
-90.65
-87.44
-79.81
-69.29
-57.58
-46.07
-35.59
-26.53
-18.97
-12.93
-8.45
-5.51
-4.02
-3.72
-4.26
-5.28
-6.44
-7.5
-8.32
-8.88
-9.21
-9.36
-9.39
-9.38
-9.47
-9.93
-11.09
-13.19
-16.14
-19.38
-21.87
-22.39
-19.95
-14.27
-5.94
3.79
13.46
21.9
28.55
33.38
36.66
38.62
39.33
38.78
37.01
34.28
30.99
27.53
24.16
20.89
17.6
14.18
10.57
6.86
3.14
-0.48
-4.08
-7.82
-11.88
-16.26
-20.53
-23.88
-25.3
-24.01
-19.85
-13.51
-6.33
0.2
4.94
7.37
7.57
5.9
2.79
-1.42
-6.36
-11.56
-16.45
-20.55
-23.74
-26.27
-28.67
-31.41
-34.62
-38.06
-41.19
-43.54
-44.97
-45.78
-46.51
-47.67
-49.34
-51.03
-51.78
-50.53
-46.56
-39.85
-31.06
-21.36
-11.98
-3.88
2.41
6.7
9.05
9.58
8.49
6.09
2.84
-0.75
-4.14
-6.95
-9.06
-10.53
-11.53
-12.23
-12.72
-13.04
-13.29
-13.66
-14.49
-16.24
-19.28
-23.74
-29.26
-35.06
-40.03
-43.11
-43.67
-41.76
-38.15
-34.04
-30.69
-28.95
-29.07
-30.79
-33.57
-36.93
-40.57
-44.4
-48.31
-52.1
-55.36
-57.56
-58.18
-56.9
-53.68
-48.8
-42.85
-36.58
-30.83
-26.28
-23.41
-22.33
-22.97
-25.01
-27.98
-31.24
-33.87
-34.82
-33.12
-28.21
-20.2
-9.9
1.47
12.64
22.66
30.97
37.36
41.82
44.4
45.26
44.67
43.16
41.44
40.31
40.49
42.38
45.96
50.8
56.27
61.76
66.94
71.79
76.45
80.93
84.82
87.31
87.45
84.59
78.83
71.15
63.16
56.54
52.49
51.29
52.37
54.62
56.84
58.19
58.31
57.28
55.27
52.44
48.81
44.4
39.26
33.7
28.1
22.85
18.17
14.06
10.25
6.43
2.33
-2.11
-6.72
-11.23
-15.48
-19.51
-23.63
-28.16
-33.18
-38.29
-42.66
-45.3
-45.5
-43.22
-39.14
-34.47
-30.29
-27.25
-25.21
-23.56
-21.57
-18.88
-15.61
-12.25
-9.24
-6.69
-4.3
-1.58
1.83
5.84
9.9
13.16
14.8
14.22
11.18
5.71
-2.04
-11.86
-23.44
-36.21
-49.18
-60.95
-69.88
-74.6
-74.4
-69.56
-61.33
-51.49
-41.87
-33.82
-28
-24.48
-22.93
-22.9
-23.91
-25.44
-26.92
-27.71
-27.23
-25.08
-21.13
-15.62
-8.96
-1.65
5.91
13.56
21.26
28.92
36.27
42.77
47.74
50.72
51.84
51.93
52.38
54.55
59.22
66.23
74.59
82.9
90.02
95.39
99.08
101.47
102.88
103.33
102.67
100.79
97.75
93.85
89.45
84.84
80.11
75.22
70.19
65.09
60.09
55.25
50.48
45.46
39.81
33.35
26.24
19.04
12.57
7.58
4.51
3.23
3.17
3.48
3.38
2.41
0.56
-1.91
-4.71
-7.68
-10.89
-14.53
-18.66
-23.03
-27.09
-30.14
-31.62
-31.34
-29.62
-27.1
-24.5
-22.3
-20.68
-19.53
-18.65
-17.84
-16.92
-15.65
-13.63
-10.43
-5.77
0.19
6.81
13.06
17.92
20.77
21.51
20.52
18.39
15.66
12.62
9.36
5.92
2.4
-1.04
-4.19
-6.97
-9.45
-11.95
-14.88
-18.71
-23.81
-30.5
-38.95
-49.13
-60.66
-72.69
-83.88
-92.61
-97.46
-97.69
-93.61
-86.48
-78.14
-70.33
-64.23
-60.24
-58.2
-57.72
-58.54
-60.58
-63.88
-68.41
-73.87
-79.81
-85.63
-90.85
-95.21
-98.86
-102.26
-106.07
-111
-117.59
-126.02
-136.02
-146.84
-157.3
-165.92
-171.33
-172.54
-169.3
-162.08
-151.89
-139.9
-127.02
-113.83
-100.64
-87.75
-75.7
-65.22
-57.09
-51.84
-49.45
-49.17
-49.43
-47.95
-42.11
-29.56
-8.95
19.46
53.71
90.55
126.4
158.27
184.42
204.44
218.96
229.18
236.42
241.87
246.5
250.87
255.02
258.37
259.83
258.11
252.18
241.59
226.65
208.26
187.64
165.96
144.22
123.1
103.08
84.46
67.45
52.14
38.46
26.25
15.25
5.22
-4.08
-12.89
-21.4
-29.72
-37.73
-44.94
-50.48
-53.26
-52.37
-47.48
-39.12
-28.5
-17.21
-6.71
2.02
8.58
12.98
15.33
15.69
14.02
10.32
4.72
-2.43
-10.62
-19.25
-27.78
-35.78
-42.95
-49.13
-54.25
-58.38
-61.7
-64.49
-67.12
-69.88
-72.78
-75.43
-77
-76.41
-72.75
-65.58
-55.31
-43.09
-30.56
-19.32
-10.49
-4.51
-1.15
0.2
0.24
-0.49
-1.6
-2.83
-3.96
-4.74
-4.95
-4.48
-3.43
-2.01
-0.46
1.02
2.36
3.53
4.43
4.81
4.31
2.8
0.53
-1.61
-2.31
-0.14
5.85
15.72
28.57
42.73
56.42
68.19
77.24
83.43
86.96
88.1
87.08
84.1
79.49
73.76
67.53
61.35
55.51
49.99
44.5
38.71
32.33
25.22
17.29
8.46
-1.35
-12.04
-23.22
-34.03
-43.25
-49.6
-52.19
-50.86
-46.33
-40.03
-33.59
-28.49
-25.56
-24.98
-26.45
-29.46
-33.57
-38.48
-44
-49.85
-55.66
-60.96
-65.37
-68.67
-70.95
-72.53
-73.82
-75.21
-76.98
-79.33
-82.36
-86.09
-90.33
-94.49
-97.68
-98.82
-97.13
-92.38
-85.15
-76.62
-68.24
-61.24
-56.35
-53.84
-53.61
-55.48
-59.26
-64.68
-71.3
-78.42
-85.15
-90.7
-94.53
-96.58
-97.16
-96.8
-95.98
-95.11
-94.42
-94.16
-94.63
-96.08
-98.54
-101.62
-104.47
-105.9
-104.73
-100.17
-92.12
-81.29
-69.11
-57.41
-47.99
-42.15
-40.28
-41.82
-45.35
-48.87
-50.08
-46.7
-36.86
-19.46
5.34
35.99
69.65
102.84
132.34
155.95
172.71
182.8
186.92
185.91
180.66
172.26
162.19
152.21
143.87
137.99
134.35
131.92
129.31
125.5
120.16
113.61
106.43
99.12
91.83
84.5
77.07
69.66
62.6
56.24
50.83
46.44
42.97
40.33
38.45
37.2
36.44
35.96
35.56
35.19
35.09
35.75
37.82
41.91
48.25
56.65
66.46
76.81
86.89
96.18
104.44
111.54
117.14
120.62
121.29
118.73
113.32
106.33
99.67
95.22
94.27
97.1
103.07
110.96
119.32
126.85
132.39
134.9
133.43
127.17
115.7
99.25
78.85
56.2
33.34
12.05
-6.56
-22.28
-35.51
-46.8
-56.35
-63.83
-68.66
-70.42
-69.3
-66.12
-62.06
-58.18
-55.08
-52.81
-51.02
-49.31
-47.4
-45.28
-43.06
-40.99
-39.39
-38.68
-39.36
-41.85
-46.37
-52.74
-60.32
-68.25
-75.7
-82.2
-87.7
-92.65
-97.67
-103.37
-110.1
-117.78
-125.92
-133.6
-139.73
-143.4
-144.11
-141.93
-137.36
-131.09
-123.69
-115.58
-107.09
-98.67
-90.88
-84.41
-79.73
-77
-75.92
-75.84
-75.91
-75.17
-72.71
-67.86
-60.3
-50.23
-38.36
-25.72
-13.33
-2.04
7.67
15.6
21.67
25.86
28.16
28.65
27.64
25.61
23.14
20.82
19.06
18.08
17.82
17.99
18.2
17.89
16.6
13.92
9.68
4.02
-2.58
-9.35
-15.38
-19.81
-22.09
-22.09
-20.04
-16.48
-12.03
-7.23
-2.43
2.26
6.86
11.51
16.37
21.63
27.61
34.65
43.06
52.86
63.61
74.27
83.34
89.12
90.11
85.4
74.86
59.21
39.97
19.23
-0.66
-17.51
-29.77
-36.86
-39.3
-38.45
-36.01
-33.48
-31.83
-31.46
-32.35
-34.41
-37.49
-41.37
-45.5
-48.98
-50.66
-49.63
-45.73
-39.66
-32.69
-26.01
-20.13
-14.66
-8.67
-1.3
7.7
17.89
28.49
38.74
48.2
56.59
63.59
68.71
71.41
71.43
69.05
65.04
60.32
55.58
51.09
46.72
42.22
37.45
32.45
27.45
22.73
18.45
14.64
11.17
7.81
4.24
0.09
-4.91
-10.86
-17.52
-24.29
-30.24
-34.33
-35.79
-34.31
-30.27
-24.58
-18.4
-12.74
-8.34
-5.46
-4.08
-3.98
-4.86
-6.38
-8.24
-10.23
-12.27
-14.37
-16.47
-18.34
-19.42
-18.98
-16.42
-11.54
-4.75
3.12
11.1
18.56
25.36
31.77
38.22
44.9
51.68
58.09
63.63
67.95
70.98
72.9
74
74.48
74.42
73.71
72.23
69.96
67.09
64.03
61.32
59.49
58.88
59.55
61.29
63.74
66.43
68.93
70.86
71.96
72.1
71.39
70.2
69.06
68.52
68.93
70.23
72.05
73.9
75.52
77.11
79.46
83.65
90.65
100.76
113.27
126.52
138.28
146.32
148.86
144.85
133.87
116.05
91.98
62.75
30.01
-4.19
-37.68
-68.66
-95.94
-118.9
-137.23
-150.53
-158.29
-159.97
-155.49
-145.55
-131.67
-115.82
-99.93
-85.42
-72.99
-62.67
-54.1
-46.74
-40.13
-33.89
-27.83
-21.89
-16.22
-11.11
-6.92
-4.01
-2.54
-2.43
-3.44
-5.33
-8.1
-12.08
-17.81
-25.84
-36.3
-48.72
-62
-74.67
-85.22
-92.51
-95.89
-95.38
-91.41
-84.76
-76.28
-66.85
-57.31
-48.45
-40.93
-35.22
-31.56
-29.79
-29.49
-29.99
-30.62
-30.83
-30.36
-29.22
-27.56
-25.58
-23.43
-21.25
-19.17
-17.4
-16.15
-15.46
-15.08
-14.37
-12.51
-8.74
-2.76
5.08
13.79
22.04
28.54
32.31
32.9
30.3
24.83
16.96
7.21
-3.81
-15.43
-26.92
-37.46
-46.31
-52.93
-57.09
-58.93
-58.89
-57.56
-55.52
-53.24
-51.06
-49.16
-47.57
-46.07
-44.16
-41.18
-36.46
-29.69
-21.03
-11.17
-1.06
8.4
16.57
23.19
28.26
31.87
34.1
34.98
34.57
33.05
30.72
28
25.27
22.8
20.72
18.94
17.26
15.4
13.08
10.1
6.24
1.47
-4.11
-10.09
-15.74
-20.13
-22.43
-22.22
-19.68
-15.58
-10.9
-6.51
-2.84
0.12
2.71
5.32
8.2
11.42
14.96
18.83
23.09
27.86
33.23
39.25
45.87
52.95
60.25
67.44
74.02
79.3
82.46
82.69
79.44
72.63
62.82
51.02
38.42
26.07
14.64
4.46
-4.35
-11.63
-17.15
-20.63
-21.86
-20.86
-17.8
-13.09
-7.19
-0.65
6
12.3
17.9
22.57
26.09
28.23
28.69
27.17
23.5
17.71
9.98
0.59
-10.23
-22.2
-34.84
-47.3
-58.32
-66.51
-70.72
-70.43
-65.81
-57.68
-47.26
-35.95
-25.2
-16.34
-10.49
-8.29
-9.77
-14.27
-20.7
-27.96
-35.29
-42.42
-49.44
