-46.5
-46.61
-42.35
-33.99
-22.7
-10.17
1.87
12.09
19.77
24.76
27.33
27.95
27.07
25.15
22.59
19.8
17.18
15.08
13.69
12.97
12.7
12.52
12.13
11.46
10.68
10.08
9.89
10.07
10.23
9.8
8.2
5.19
0.93
-3.99
-8.82
-12.92
-15.98
-18.12
-19.86
-21.96
-25.15
-29.92
-36.26
-43.51
-50.35
-55.01
-55.84
-51.78
-42.89
-30.35
-16.13
-2.37
9.31
18.09
24
27.54
29.29
29.69
29
27.43
25.27
22.94
20.82
19.19
18.06
17.28
16.53
15.63
14.52
13.31
12.24
11.44
10.9
10.34
9.37
7.56
4.68
0.83
-3.58
-7.92
-11.64
-14.47
-16.56
-18.52
-21.11
-25.06
-30.66
-37.58
-44.8
-50.74
-53.67
-52.25
-45.99
-35.43
-22.12
-8.04
4.89
15.39
22.98
27.88
30.63
31.77
31.66
30.51
28.53
26.08
23.63
21.62
20.32
19.69
19.41
19.09
18.43
17.31
15.89
14.46
13.28
12.39
11.58
10.38
8.36
5.26
1.21
-3.35
-7.78
-11.5
-14.24
-16.08
-17.42
-18.87
-21.11
-24.63
-29.68
-36
-42.71
-48.45
-51.6
-50.79
-45.4
-35.8
-23.31
-9.75
3.04
13.72
21.62
26.73
29.42
30.27
29.8
28.44
26.48
24.19
21.79
19.52
17.61
16.18
15.17
14.45
13.83
13.24
12.77
12.6
12.82
13.26
13.42
12.67
10.52
6.89
2.2
-2.76
-7.21
-10.63
-13.01
-14.77
-16.58
-19.13
-22.93
-28.08
-34.24
-40.5
-45.53
-47.83
-46.22
-40.22
-30.31
-17.83
-4.59
7.65
17.62
24.75
29.03
30.85
30.72
29.2
26.79
23.98
21.17
18.68
16.67
15.19
14.16
13.48
13.04
12.82
12.8
12.97
13.22
13.28
12.79
11.31
8.58
4.65
-0.1
-5.02
-9.42
-12.87
-15.37
-17.34
-19.5
-22.58
-27.11
-33.07
-39.83
-46.09
-50.18
-50.48
-46.01
-36.84
-24.14
-9.88
3.79
15.2
23.52
28.79
31.61
32.66
32.45
31.25
29.21
26.59
23.75
21.15
19.1
17.67
16.64
15.66
14.47
13.12
11.85
10.97
10.59
10.45
10.03
8.73
6.22
2.59
-1.73
-6.1
-10.02
-13.24
-15.88
-18.3
-21
-24.45
-29.01
-34.65
-40.84
-46.47
-50.03
-50.02
-45.46
-36.38
-23.87
-9.82
3.7
15.04
23.33
28.54
31.19
32
31.54
30.16
28.13
25.72
23.26
21.13
19.58
18.65
18.14
17.7
17.01
16
14.8
13.68
12.93
12.56
12.29
11.6
10.01
7.23
3.37
-1.11
-5.6
-9.56
-12.73
-15.2
-17.36
-19.75
-22.93
-27.31
-32.95
-39.39
-45.53
-49.77
-50.49
-46.58
-37.92
-25.59
-11.49
2.3
14.06
22.95
28.85
32.2
33.49
33.19
31.66
29.28
26.52
23.86
21.68
20.11
19.01
18.07
16.99
15.67
14.23
12.97
12.19
11.98
12.12
12.15
11.51
9.78
6.89
3.1
-1.05
-5.03
-8.47
-11.27
-13.59
-15.78
-18.29
-21.58
-26.03
-31.72
-38.23
-44.51
-49.03
-50.14
-46.72
-38.63
-26.89
-13.37
-0.14
11.14
19.6
25.12
28.1
29.08
28.53
26.85
24.43
21.71
19.12
16.94
15.23
13.86
12.63
11.45
10.43
9.76
9.65
10.07
10.72
11.1
10.62
8.92
5.92
1.95
-2.42
-6.55
-9.95
-12.43
-14.16
-15.63
-17.51
-20.46
-24.86
-30.53
-36.61
-41.66
-44.02
-42.37
-36.23
-26.21
-13.8
-0.92
10.67
19.79
26
29.43
30.57
29.96
28.12
25.5
22.47
19.38
16.51
14.09
12.25
11
10.25
9.85
9.63
9.5
9.48
9.55
9.63
9.42
8.49
6.42
3.06
-1.37
-6.31
-11.03
-14.97
-17.95
-20.28
-22.62
-25.74
-30.2
-36
-42.49
-48.38
-52.04
-52.04
-47.56
-38.76
-26.76
-13.3
-0.24
10.9
19.34
24.93
28.06
29.3
29.19
28.15
26.46
24.39
22.17
20.05
18.21
16.69
15.41
14.25
13.15
12.17
11.49
11.26
11.49
11.93
12.04
11.24
9.09
5.51
0.82
-4.34
-9.19
-13.18
-16.06
-18.03
-19.65
-21.7
-24.94
-29.82
-36.23
-43.31
-49.57
-53.19
-52.63
-47.16
-37.2
-24.17
-10.08
3.12
14.05
22.06
27.2
29.88
30.65
29.99
28.3
25.95
23.38
21.03
19.26
18.26
17.91
17.89
17.78
17.28
16.38
15.29
14.38
13.86
13.72
13.61
13.04
11.5
8.71
4.76
0.04
-4.81
-9.17
-12.64
-15.23
-17.37
-19.77
-23.19
-28.08
-34.45
-41.61
-48.36
-53.1
-54.34
-51.12
-43.36
-31.99
-18.67
-5.33
6.43
15.68
22.23
26.38
28.59
29.26
28.65
27
24.65
22.02
19.53
17.52
16.09
15.19
14.63
14.29
14.13
14.18
14.5
15.01
15.47
15.5
14.64
12.57
9.22
4.85
0.01
-4.7
-8.77
-12.04
-14.65
-17.08
-19.93
-23.78
-28.95
-35.32
-42.22
-48.41
-52.36
-52.58
-48.2
-39.34
-27.14
-13.46
-0.31
10.75
18.95
24.26
27.12
28.04
27.44
25.61
22.87
19.66
16.47
13.75
11.72
10.37
9.54
9.11
9.04
9.36
10.07
10.98
11.67
11.62
10.43
8.01
4.63
0.76
-3.12
-6.71
-10.03
-13.29
-16.85
-21.09
-26.24
-32.3
-38.84
-44.9
-49.09
-49.93
-46.33
-38.1
-26.11
-12.11
1.82
13.89
23.02
28.95
32.01
32.85
32.08
30.22
27.67
24.76
21.81
19.1
16.85
15.2
14.13
13.59
13.43
13.56
13.85
14.12
14.12
13.5
11.91
9.12
5.11
0.17
-5.21
-10.47
-15.17
-19.16
-22.72
-26.42
-31.03
-37.04
-44.38
-52.12
-58.57
-61.72
-59.96
-52.7
-40.6
-25.47
-9.59
4.95
16.78
25.43
31.07
34.2
35.36
34.98
33.43
31.12
28.53
26.13
24.25
23.01
22.25
21.67
20.95
19.95
18.77
17.68
16.94
16.63
16.46
15.9
14.3
11.2
6.59
0.92
-5
-10.4
-14.79
-18.2
-21.19
-24.58
-29.11
-35.16
-42.43
-49.96
-56.22
-59.45
-58.22
-51.81
-40.62
-26.06
-10.18
4.89
17.53
26.96
33.23
36.87
38.53
38.72
37.74
35.85
33.34
30.63
28.2
26.37
25.24
24.64
24.22
23.68
22.92
22.08
21.43
21.13
21.03
20.67
19.44
16.87
12.92
7.98
2.74
-2.09
-6.09
-9.27
-11.99
-14.88
-18.6
-23.71
-30.47
-38.65
-47.35
-55.01
-59.68
-59.62
-53.96
-43.05
-28.45
-12.44
2.75
15.53
25.19
31.75
35.65
37.34
37.21
35.57
32.86
29.63
26.52
24.1
22.64
22.13
22.26
22.6
22.82
22.8
22.59
22.32
22.04
21.54
20.46
18.37
15.02
10.51
5.29
-0.01
-4.83
-8.87
-12.2
-15.22
-18.52
-22.7
-28.16
-35
-42.69
-50.1
-55.58
-57.34
-54.17
-45.76
-33.04
-17.89
-2.56
11
21.58
28.84
33.06
34.79
34.59
32.97
30.36
27.24
24.1
21.31
19.09
17.5
16.44
15.81
15.52
15.52
15.74
16.04
16.13
15.63
14.21
11.71
8.2
4
-0.45
-4.71
-8.51
-11.86
-15.07
-18.68
-23.28
-29.26
-36.53
-44.3
-51.04
-54.85
-53.98
-47.54
-35.94
-20.85
-4.68
10.16
21.95
30.04
34.64
36.5
36.43
35.07
32.87
30.2
27.41
24.85
22.74
21.14
19.93
18.92
17.97
17.13
16.54
16.37
16.54
16.71
16.22
14.45
11.02
6.08
0.23
-5.65
-10.81
-14.88
-18
-20.72
-23.81
-28.01
-33.8
-41.17
-49.39
-57.02
-62.11
-62.74
-57.68
-46.98
-32.01
-15.13
1.12
14.79
24.94
31.6
35.4
37.06
37.14
35.99
33.88
31.24
28.58
26.38
24.9
24.11
23.68
23.23
22.52
21.58
20.6
19.86
19.42
19.06
18.32
16.66
13.72
9.52
4.41
-0.96
-5.97
-10.2
-13.58
-16.43
-19.33
-22.99
-28
-34.64
-42.62
-50.93
-57.95
-61.73
-60.61
-53.88
-42.07
-26.89
-10.68
4.35
16.69
25.76
31.74
35.14
36.5
36.24
34.69
32.27
29.48
26.85
24.71
23.14
21.94
20.8
19.5
18.07
16.75
15.87
15.61
15.86
16.16
15.85
14.34
11.36
7.07
2.01
-3.1
-7.66
-11.41
-14.53
-17.61
-21.42
-26.66
-33.58
-41.74
-49.89
-56.16
-58.57
-55.69
-47.18
-34.02
-18.23
-2.25
11.79
22.6
29.87
34.02
35.78
35.85
34.69
32.61
29.84
26.68
23.43
20.45
18
16.23
15.17
14.76
14.88
15.33
15.83
16.03
15.55
14.06
11.47
7.91
3.75
-0.6
-4.88
-9.09
-13.48
-18.41
-24.2
-30.96
-38.4
-45.73
-51.7
-54.74
-53.46
-47.12
-36.04
-21.67
-6.21
8.01
19.33
27.02
31.34
33.1
33.23
32.36
30.77
28.49
25.56
22.22
18.86
16
14.09
13.31
13.51
14.28
15.06
15.35
14.82
13.36
11.01
7.95
4.41
0.65
-3.14
-6.89
-10.62
-14.5
-18.76
-23.66
-29.32
-35.48
-41.39
-45.74
-46.98
-43.79
-35.67
-23.3
-8.48
6.4
19.09
28.21
33.53
35.72
35.83
34.76
32.93
30.39
27.07
23.08
18.87
15.1
12.44
11.24
11.37
12.3
13.27
13.63
13.03
11.51
9.38
7.03
4.72
2.46
0.07
-2.75
-6.21
-10.42
-15.4
-21.06
-27.07
-32.74
-36.94
-38.26
-35.39
-27.71
-15.68
-0.84
14.55
28.31
38.94
45.98
49.85
51.45
51.58
50.8
49.33
47.31
44.87
42.3
39.93
38.09
37.07
37.09
38.32
40.8
44.45
48.99
53.97
58.88
63.2
66.43
68.19
68.14
66.1
62.06
56.18
48.68
39.75
29.38
17.61
4.7
-8.47
-20.34
-28.99
-32.64
-30.49
-23.02
-11.92
0.45
11.81
20.68
26.65
30.23
32.57
34.91
38.29
43.27
49.84
57.46
65.04
71.28
74.89
74.93
71.06
63.55
53.24
41.24
28.7
16.47
5.05
-5.47
-15.2
-24.31
-32.88
-40.85
-48.06
-54.37
-59.79
-64.52
-69.02
-73.85
-79.53
-86.17
-93.25
-99.47
-102.94
-101.72
-94.43
-80.88
-62.22
-40.74
-19.18
0.07
15.49
26.68
34.02
38.3
40.16
39.94
37.64
33.17
26.61
18.35
9.09
-0.37
-9.33
-17.37
-24.33
-30.21
-35.06
-38.87
-41.64
-43.48
-44.71
-45.91
-47.7
-50.52
-54.35
-58.72
-62.88
-66.11
-68.12
-69.18
-70.06
-71.78
-75.24
-80.84
-88.17
-95.86
-101.62
-102.72
-96.84
-82.92
-61.78
-36.05
-9.36
14.75
33.96
47.61
56.38
61.58
64.33
65.19
64.21
61.35
56.86
51.42
46
41.44
38.17
36.03
34.41
32.59
30.08
26.85
23.26
19.85
16.97
14.6
12.22
9.14
4.66
-1.48
-9.09
-17.43
-25.56
-32.65
-38.28
-42.64
-46.36
-50.35
-55.41
-62.05
-70.33
-79.65
-88.62
-95.21
-96.97
-91.84
-78.89
-58.97
-34.65
-9.49
13.04
30.64
42.6
49.55
52.8
53.57
52.61
50.21
46.54
41.96
37.1
32.72
29.45
27.54
26.75
26.53
26.25
25.48
24.15
22.47
20.73
19.09
17.49
15.67
13.26
9.95
5.57
0.11
-6.2
-12.96
-19.6
-25.56
-30.39
-34.02
-36.73
-39.12
-41.98
-46.13
-52.12
-60.04
-69.22
-78.04
-84.12
-84.83
-78.17
-63.61
-42.51
-17.84
6.73
28
44.07
54.59
60.31
62.43
61.94
59.45
55.33
50.01
44.14
38.51
33.84
30.48
28.33
26.88
25.5
23.75
21.62
19.44
17.71
16.78
16.5
16.27
15.19
12.46
7.7
1.16
-6.37
-13.91
-20.64
-26.15
-30.48
-34.05
-37.44
-41.27
-46.13
-52.46
-60.31
-69.12
-77.48
-83.22
-83.96
-77.83
-64.3
-44.52
-21.13
2.51
23.33
39.3
49.7
54.93
55.93
53.78
49.41
43.61
37.12
30.66
24.87
20.19
16.71
14.22
12.34
10.75
9.36
8.29
7.73
7.7
7.87
7.56
5.98
2.59
-2.61
-9.07
-15.8
-21.84
-26.67
-30.36
-33.59
-37.37
-42.75
-50.31
-59.86
-70.22
-79.28
-84.38
-83.07
-73.89
-57.05
-34.56
-9.69
13.95
33.47
47.37
55.6
59.11
59.17
56.82
52.75
47.41
41.37
35.34
30.13
26.24
23.71
22.06
20.58
18.73
16.43
14.05
12.17
11.17
10.9
10.68
9.58
6.75
1.88
-4.7
-12.15
-19.43
-25.76
-30.85
-34.98
-38.92
-43.62
-49.96
-58.39
-68.6
-79.27
-88.13
-92.35
-89.35
-77.82
-58.33
-33.41
-6.81
17.63
37.13
50.52
58.18
61.35
61.42
59.45
56.01
51.46
46.13
40.54
35.3
30.97
27.88
25.99
25.03
24.52
23.98
23.09
21.75
20.11
18.37
16.68
14.89
12.58
9.22
4.38
-1.99
-9.43
-17.14
-24.23
-30.11
-34.69
-38.36
-41.8
-45.84
-51.12
-58.11
-66.89
-76.94
-86.91
-94.6
-97.29
-92.58
-79.32
-58.23
-31.99
-4.38
20.85
41.1
55.36
64.13
68.65
70.22
69.76
67.72
64.29
59.75
54.55
49.35
44.82
41.46
39.42
38.43
37.96
37.41
36.35
34.66
32.54
30.3
28.15
25.97
23.33
19.7
14.64
8.1
0.45
-7.61
-15.35
-22.19
-27.87
-32.54
-36.64
-40.78
-45.68
-52.04
-60.29
-70.31
-81.1
-90.63
-96.14
-94.9
-85.2
-67.06
-42.51
-14.98
11.74
34.61
51.98
63.65
70.32
72.91
72.18
68.64
62.84
55.64
48.16
41.54
36.49
33.14
31.03
29.44
27.81
25.97
24.19
22.9
22.37
22.45
22.57
21.83
19.34
14.6
7.69
-0.65
-9.27
-17.04
-23.24
-27.86
-31.55
-35.33
-40.21
-46.92
-55.64
-65.88
-76.38
-85.19
-89.88
-88.22
-78.84
-61.92
-39.35
-14.23
10.01
30.63
46.1
56.17
61.45
62.84
61.21
57.24
51.59
45
38.3
32.2
27.23
23.55
21.02
19.39
18.42
17.95
17.92
18.21
18.51
18.31
16.98
14
9.17
2.72
-4.7
-12.23
-19.08
-24.85
-29.71
-34.35
-39.83
-47.1
-56.56
-67.54
-78.26
-86.11
-88.28
-82.78
-69.03
-48.28
-23.21
2.79
26.53
45.73
59.32
67.28
70.33
69.47
65.75
60.15
53.53
46.66
40.09
34.2
29.12
24.87
21.4
18.68
16.75
15.65
15.28
15.37
15.41
14.74
12.75
9.09
3.77
-2.79
-9.91
-16.91
-23.38
-29.32
-35.18
-41.75
-49.73
-59.36
-69.96
-79.81
-86.49
-87.53
-81.27
-67.5
-47.66
-24.42
-0.87
20.34
37.52
50.11
58.35
62.85
64.17
62.69
58.64
52.3
44.15
34.96
25.71
17.44
10.99
6.77
4.74
4.4
5.02
5.79
6.08
5.46
3.83
1.28
-1.97
-5.7
-9.82
-14.34
-19.37
-25.1
-31.76
-39.54
-48.39
-57.69
-66.07
-71.52
-71.84
-65.53
-52.4
-33.81
-12.32
9.21
28.45
44.09
55.75
63.56
67.63
67.92
64.43
57.54
48.23
37.97
28.38
20.74
15.69
13.18
12.55
12.97
13.74
14.47
15.04
15.48
15.7
15.32
13.71
10.17
4.29
-3.81
-13.29
-22.93
-31.49
-38.18
-43.01
-46.68
-50.43
-55.61
-63.26
-73.71
-86.2
-98.8
-108.55
-112.2
-107.12
-92.36
-69.03
-40.16
-9.72
18.57
42.18
60.11
72.58
80.44
84.51
85.41
83.58
79.54
74
67.86
62
57.08
53.45
51.11
49.89
49.57
49.9
50.66
51.57
52.28
52.37
51.5
49.41
46.05
41.45
35.74
29.14
21.95
14.55
7.38
0.87
-4.76
-9.54
-13.84
-18.22
-23.21
-29.14
-35.93
-43.13
-50.13
-56.31
-61.39
-65.47
-69.14
-73.25
-78.86
-86.83
-97.47
-110.12
-122.8
-132.35
-135.09
-127.93
-109.63
-81.42
-46.78
-10.43
23.07
50.53
70.61
83.59
90.57
92.86
91.55
87.5
81.57
74.71
67.87
61.84
57.02
53.35
50.52
48.16
46.11
44.54
43.77
44.04
45.19
46.59
47.21
46.03
42.39
36.3
28.48
20.08
12.26
5.69
0.35
-4.42
-9.57
-15.8
-23.26
-31.45
-39.49
-46.47
-51.96
-56.16
-59.83
-64.09
-70.04
-78.46
-89.35
-101.61
-112.86
-119.77
-118.93
-107.95
-86.57
-56.96
-23.23
9.87
38.37
60.04
74.53
82.78
86.2
86.01
83.07
78.06
71.78
65.23
59.35
54.79
51.66
49.54
47.74
45.75
43.54
41.52
40.35
40.43
41.6
43.04
43.59
42.17
38.3
32.26
25.01
17.68
11.09
5.46
0.32
-5.11
-11.55
-19.24
-27.79
-36.4
-44.11
-50.28
-54.79
-58.12
-61.3
-65.55
-72.04
-81.33
-92.89
-104.8
-113.9
-116.56
-109.88
-92.79
-66.69
-35.15
-2.8
26.07
48.63
63.93
72.55
75.88
75.4
72.36
67.73
62.36
57
52.33
48.66
45.97
43.89
41.95
39.85
37.68
35.86
34.91
35.12
36.29
37.68
38.25
37.07
33.7
28.41
22.09
15.86
10.6
6.61
3.49
0.41
-3.46
-8.53
-14.6
-21
-26.85
-31.55
-35.01
-37.72
-40.64
-44.97
-51.81
-61.65
-73.95
-86.82
-97.18
-101.5
-96.99
-82.66
-59.88
-32.01
-3.4
22.04
41.76
54.95
62.17
64.71
63.96
61.05
56.88
52.14
47.42
43.18
39.67
36.92
34.78
33.05
31.62
30.58
30.21
30.74
32.17
34.05
35.55
35.74
33.97
30.19
24.93
19.13
13.62
8.86
4.75
0.79
-3.66
-9.03
-15.34
-22.21
-29
-35.08
-40.07
-44.06
-47.62
-51.76
-57.56
-65.72
-75.96
-86.65
-94.95
-97.55
-91.85
-77.03
-54.6
-27.98
-1.35
21.62
38.82
49.84
55.51
57.11
55.73
52.15
46.89
40.54
33.86
27.68
22.68
19.21
17.19
16.18
15.59
14.99
14.16
13.24
12.54
12.36
12.7
13.23
13.22
11.9
8.7
3.56
-2.98
-9.94
-16.29
-21.28
-24.74
-27.1
-29.19
-31.98
-36.35
-42.78
-51.18
-60.61
-69.27
-74.79
-74.79
-67.77
-53.71
-34.24
-12.23
9.15
27.3
40.78
49.32
53.49
54.16
52.17
48.19
42.83
36.72
30.63
25.31
21.33
18.97
18.07
18.16
18.58
18.8
18.58
18.04
17.48
17.13
16.88
16.27
14.52
11
5.44
-1.85
-9.99
-17.85
-24.47
-29.34
-32.65
-35.1
-37.64
-41.18
-46.32
-53.17
-61.13
-68.83
-74.25
-75.13
-69.66
-57.2
-38.67
-16.46
6.22
26.38
41.98
52.34
57.84
59.49
58.29
55.06
50.4
44.93
39.32
34.27
30.37
27.91
26.74
26.41
26.28
25.85
24.85
23.38
21.81
20.53
19.71
19.09
18.03
15.72
11.54
5.38
-2.25
-10.34
-17.81
-23.87
-28.4
-31.85
-35.13
-39.26
-45.02
-52.73
-61.95
-71.44
-79.15
-82.68
-79.84
-69.53
-52.29
-30.29
-6.83
14.69
31.77
43.4
49.92
52.5
52.4
50.55
47.44
43.34
38.57
33.6
28.99
25.17
22.36
20.51
19.42
18.84
18.51
18.23
17.81
17.12
16.12
14.81
13.21
11.22
8.65
5.22
0.76
-4.62
-10.54
-16.41
-21.67
-25.98
-29.36
-32.13
-34.8
-38
-42.33
-48.33
-56.15
-65.35
-74.5
-81.35
-83.3
-78.29
-65.66
-46.56
-23.74
-0.65
19.63
35.21
45.59
51.42
53.83
53.91
52.46
49.99
46.9
43.54
40.28
37.41
35.06
33.19
31.67
30.36
29.19
28.19
27.4
26.76
26.08
25.04
23.32
20.73
17.31
13.28
8.97
4.6
0.23
-4.27
-9.08
-14.29
-19.75
-25.13
-30.01
-34.14
-37.56
-40.66
-44.15
-48.82
-55.3
-63.67
-73.19
-82.09
-87.93
-88.12
-80.93
-66.12
-45.36
-21.68
1.33
20.7
34.73
43.23
47.11
47.72
46.29
43.65
40.25
36.4
32.37
28.52
25.23
22.75
21.1
20.16
19.62
19.27
19.01
18.83
18.75
18.67
18.36
17.49
15.82
13.26
9.95
6.21
2.34
-1.46
-5.21
-9.06
-13.2
-17.64
-22.22
-26.61
-30.55
-34.07
-37.58
-41.81
-47.58
-55.32
-64.71
-74.39
-82.15
-85.43
-82.11
-71.3
-53.73
-31.62
-8.1
13.74
31.6
44.37
52.08
55.53
55.88
54.2
51.34
47.88
44.2
40.51
36.98
33.84
31.36
29.75
29.07
29.18
29.68
30.15
30.27
29.87
28.99
27.62
25.69
23.02
19.32
14.48
8.6
2.03
-4.68
-10.97
-16.45
-20.95
-24.55
-27.57
-30.46
-33.8
-38.18
-44.09
-51.65
-60.31
-68.71
-74.71
-76.02
-70.78
-58.43
-39.92
-17.6
5.49
26.55
43.65
56.1
64.21
68.8
70.69
70.45
68.38
64.7
59.77
54.13
48.43
43.25
38.94
35.59
33.13
31.57
30.86
30.93
31.46
31.88
31.44
29.62
26.29
21.82
16.91
12.12
7.74
3.55
-0.87
-5.9
-11.63
-17.79
-23.91
-29.55
-34.49
-38.78
-42.76
-46.97
-52.07
-58.81
-67.64
-78.35
-89.57
-98.8
-102.81
-98.75
-85.34
-63.53
-36.4
-8.1
17.46
37.79
52.11
60.99
65.57
66.95
65.91
63.04
58.96
54.43
50.17
46.68
44.05
42.06
40.31
38.54
36.75
35.16
34.15
33.94
34.42
35.12
35.22
33.91
30.69
25.59
19.24
12.66
6.81
2.15
-1.48
-4.87
-8.98
-14.42
-21.2
-28.64
-35.74
-41.64
-46.03
-49.28
-52.35
-56.45
-62.68
-71.58
-82.73
-94.53
-104.25
-108.63
-104.84
-91.55
-69.56
-41.73
-12.1
15.32
37.65
53.7
63.73
68.9
70.56
69.79
67.43
64.1
60.34
56.67
53.37
50.51
47.84
45.05
41.93
38.58
35.43
33.02
31.77
31.67
32.2
32.5
31.63
28.94
24.33
18.3
11.69
5.37
-0.15
-4.88
-9.31
-14.1
-19.71
-26.15
-32.96
-39.42
-44.92
-49.25
-52.77
-56.21
-60.54
-66.64
-74.96
-85.22
-96.12
-105.37
-110.02
-107.26
-95.4
-74.64
-47.22
-16.88
12.26
36.86
55.13
66.91
73.16
75.24
74.31
71.18
66.45
60.72
54.78
49.38
45.11
42.09
40.05
38.53
37.14
35.86
34.87
34.4
34.4
34.4
33.65
31.47
27.56
22.18
16.08
10.1
4.82
0.29
-3.88
-8.34
-13.53
-19.52
-25.92
-32.09
-37.48
-41.87
-45.48
-48.96
-53.19
-59.12
-67.35
-77.74
-89.05
-98.9
-104.21
-102.1
-90.97
-71.2
-45.2
-16.69
10.44
33.21
50.1
61.09
67.03
69.13
68.45
65.75
61.58
56.36
50.61
44.89
39.72
35.55
32.56
30.67
29.58
28.91
28.33
27.63
26.8
25.89
24.92
23.75
22.04
19.4
15.45
10.04
3.33
-4.16
-11.74
-18.72
-24.66
-29.53
-33.68
-37.76
-42.57
-48.84
-57.02
-67.09
-78.24
-88.7
-95.92
-97.09
-90.1
-74.35
-51.27
-24.01
3.5
27.73
46.52
59.33
66.85
70.25
70.54
68.29
63.77
57.29
49.51
41.42
34.12
28.47
24.84
22.99
22.27
21.96
21.55
20.93
20.29
19.91
19.8
19.56
18.42
15.57
10.44
3.08
-5.8
-15.08
-23.62
-30.64
-36.03
-40.26
-44.26
-49.07
-55.59
-64.34
-75.26
-87.43
-98.96
-107.12
-108.9
-102
-85.73
-61.52
-32.64
-3.21
23.02
43.63
57.86
66.24
69.99
70.31
68.12
64.09
58.78
52.83
46.93
41.78
37.86
35.32
33.95
33.29
32.77
31.95
30.69
29.19
27.76
26.64
25.68
24.38
21.97
17.78
11.54
3.51
-5.52
-14.47
-22.38
-28.69
-33.45
-37.25
-41.03
-45.84
-52.62
-61.96
-73.74
-86.91
-99.22
-107.56
-108.67
-100.25
-81.91
-55.59
-25.05
5.18
31.26
50.94
63.84
70.93
73.71
73.52
71.19
67.15
61.72
55.4
48.91
43.11
38.69
35.93
34.63
34.21
34
33.48
32.46
31.05
29.51
27.99
26.39
24.32
21.21
16.58
10.22
2.35
-6.46
-15.44
-23.87
-31.26
-37.49
-42.76
-47.55
-52.53
-58.49
-66.2
-76.05
-87.61
-99.27
-108.23
-111.19
-105.38
-89.7
-65.36
-35.64
-4.82
23.07
45.38
61.18
70.93
75.8
76.98
75.37
71.59
66.2
59.86
53.34
47.41
42.62
39.23
37.17
36.13
35.7
35.49
35.26
34.81
34.09
33.01
31.43
29.15
25.95
21.55
15.8
8.76
0.76
-7.57
-15.53
-22.47
-28.11
-32.59
-36.44
-40.42
-45.44
-52.31
-61.62
-73.32
-86.3
-98.23
-105.78
-105.62
-95.53
-75.52
-48.06
-17.31
12.2
36.97
55.34
67.37
74.1
76.72
76.05
72.56
66.66
59.04
50.73
42.94
36.67
32.4
29.9
28.57
27.59
26.45
25.08
23.78
22.95
22.74
22.8
22.32
20.31
15.97
9.11
0.19
-9.74
-19.4
-27.74
-34.29
-39.31
-43.66
-48.49
-54.95
-63.82
-75.22
-88.38
-101.4
-111.43
-115.17
-109.9
-94.47
-70.02
-39.82
-8.3
20.31
43.17
59.31
69.27
74.26
75.41
73.44
68.79
61.97
53.89
45.77
38.81
33.91
31.21
30.2
29.92
29.45
28.27
26.5
24.68
23.47
23.08
23.07
22.42
19.92
14.74
6.78
-3.22
-13.95
-23.98
-32.33
-38.71
-43.56
-47.87
-52.86
-59.66
-69.05
-81.1
-94.84
-108.09
-117.62
-119.88
-112.17
-93.69
-66.09
-33.21
0.21
29.86
53.04
69
78.52
83.01
83.77
81.66
77.2
70.93
63.62
56.31
50.02
45.47
42.77
41.43
40.61
39.5
37.71
35.41
33.19
31.64
30.92
30.51
29.37
26.35
20.72
12.55
2.72
-7.46
-16.73
-24.33
-30.28
-35.26
-40.38
-46.82
-55.6
-67.26
-81.56
-97.15
-111.39
-120.74
-121.65
-111.79
-91.04
-61.86
-28.6
3.84
31.44
52.06
65.51
72.86
75.66
75.18
72.28
67.56
61.58
55.1
48.92
43.74
39.95
37.5
35.97
34.76
33.39
31.66
29.78
28.14
27.06
26.49
25.86
24.23
20.6
14.37
5.58
-4.94
-15.91
-25.98
-34.23
-40.46
-45.19
-49.41
-54.24
-60.78
-69.78
-81.47
-95.17
-108.88
-119.34
-122.73
-115.83
-97.46
-69.2
-35.13
-0.53
29.87
53.23
68.96
78.2
82.74
84.06
83.04
80.02
75.27
69.25
62.69
56.41
51.12
47.21
44.7
43.34
42.69
42.34
41.95
41.35
40.47
39.27
37.7
35.55
32.52
28.25
22.43
14.96
6.09
-3.61
-13.35
-22.35
-30.12
-36.59
-42.18
-47.6
-53.74
-61.47
-71.45
-83.86
-97.85
-111.3
-120.88
-122.86
-114.41
-94.98
-66.67
-33.84
-1.53
26.17
47.18
61.46
70.21
74.83
76.21
74.78
70.82
64.95
58.2
51.79
46.68
43.23
41.15
39.71
38.14
36.01
33.47
31.09
29.52
29.08
29.39
29.42
27.8
23.48
16.11
6.33
-4.5
-14.78
-23.25
-29.45
-33.81
-37.45
-41.78
-48.12
-57.31
-69.39
-83.33
-96.94
-107.06
-110.33
-104.16
-87.78
-62.7
-32.37
-1.18
26.92
49.34
65.16
74.76
79.09
79.06
75.4
68.79
60.21
50.94
42.36
35.64
31.27
28.99
27.93
27.1
25.83
24.05
22.27
21.15
21.02
21.47
21.41
19.48
14.65
6.73
-3.48
-14.5
-24.71
-33.02
-39.13
-43.67
-47.9
-53.35
-61.36
-72.68
-86.95
-102.39
-115.83
-123.36
-121.41
-108.07
-83.98
-52.27
-17.68
14.95
42.04
62.02
75.12
82.7
86.25
86.86
85.13
81.4
76.09
69.93
63.85
58.74
55.19
53.27
52.56
52.34
51.9
50.69
48.52
45.49
41.86
37.85
33.48
28.51
22.52
15.09
6.07
-4.24
-15.1
-25.54
-34.73
-42.26
-48.28
-53.47
-58.74
-65.03
-73.2
-83.78
-96.69
-110.77
-123.5
-131.27
-130.28
-117.97
-94.23
-61.79
-25.52
9.2
38.14
59.24
72.63
79.72
82.24
81.49
78.25
73.08
66.65
59.87
53.68
48.82
45.57
43.77
42.91
42.43
41.89
41.08
39.99
38.7
37.28
35.66
33.66
30.95
27.14
21.82
14.77
6.13
-3.56
-13.34
-22.25
-29.6
-35.32
-39.94
-44.45
-49.88
-57.11
-66.66
-78.52
-91.88
-104.85
-114.43
-117.06
-109.67
-90.97
-62.25
-27.31
8.69
40.85
65.91
82.84
92.46
96.51
96.69
94.19
89.6
83.34
75.87
67.86
60.15
53.48
48.33
44.8
42.61
41.25
40.18
38.97
37.46
35.67
33.69
31.5
28.9
25.56
21.04
15.07
7.56
-1.22
-10.71
-20.19
-28.96
-36.59
-43.05
-48.72
-54.29
-60.64
-68.67
-79.07
-91.99
-106.47
-120.23
-129.81
-131.37
-122.06
-101.26
-71.14
-36.1
-1.37
28.68
51.57
66.92
75.73
79.38
79.02
75.4
69.22
61.41
53.23
45.95
40.44
36.9
34.84
33.41
31.84
29.73
27.25
24.95
23.41
22.87
22.99
22.83
21.17
16.99
9.85
0.23
-10.69
-21.4
-30.61
-37.73
-43.03
-47.44
-52.26
-58.72
-67.66
-79.24
-92.55
-105.46
-114.8
-117.08
-109.64
-91.72
-65
-33.17
-0.83
27.98
50.73
66.61
76.06
80.03
79.44
75.08
67.83
58.87
49.58
41.24
34.59
29.72
26.16
23.28
20.67
18.39
16.81
16.32
16.88
17.84
18.05
16.24
11.62
4.15
-5.31
-15.41
-24.78
-32.52
-38.57
-43.63
-48.95
-55.97
-65.79
-78.66
-93.45
-107.48
-116.98
-118.13
-108.37
-87.52
-58.13
-24.67
7.79
35.16
55.28
67.94
74.29
75.88
74.05
69.71
63.57
56.4
49.09
42.41
36.87
32.43
28.75
25.39
22.2
19.44
17.59
16.99
17.42
18.06
17.64
15.02
9.56
1.48
-8.27
-18.38
-27.67
-35.52
-42.07
-48.16
-55.07
-64.05
-75.8
-89.82
-104.18
-115.61
-120.29
-115.08
-98.77
-72.76
-40.78
-7.77
21.77
44.94
60.96
70.63
75.47
76.81
75.42
71.72
66.19
59.69
53.27
47.81
43.71
40.62
37.84
34.72
31.14
27.56
24.74
23.22
22.82
22.58
21.11
17.19
10.37
1.23
-8.91
-18.47
-26.35
-32.28
-36.93
-41.61
-47.81
-56.74
-68.79
-83.13
-97.58
-108.8
-113.08
-107.48
-90.98
-65.11
-33.65
-1.45
27.08
49.21
64.32
73.33
77.79
78.95
77.49
73.72
68.08
61.45
55.01
49.86
46.49
44.63
43.41
41.89
39.55
36.56
33.58
31.35
30.14
29.5
28.37
25.47
19.91
11.59
1.31
-9.5
-19.32
-27.08
-32.58
-36.49
-40.19
-45.26
-53.07
-64.25
-78.26
-93.22
-105.96
-112.77
-110.42
-97.27
-74.09
-43.93
-11.29
19.23
44.24
62.2
73.33
78.86
80.26
78.68
74.86
69.36
62.87
56.29
50.52
46.19
43.41
41.69
40.26
38.47
36.12
33.59
31.46
30.13
29.33
28.13
25.23
19.62
11.09
0.43
-10.83
-21.02
-28.94
-34.36
-38.01
-41.28
-45.83
-53.06
-63.6
-76.91
-91.02
-102.67
-108.11
-104.28
-89.96
-66.48
-37.32
-7.05
20.22
41.9
57.28
67.01
72.21
73.79
72.17
67.57
60.44
51.74
42.88
35.32
30.07
27.35
26.61
26.79
26.87
26.27
24.99
23.47
22.19
21.24
20.13
17.96
13.76
7.07
-1.82
-11.84
-21.53
-29.65
-35.57
-39.65
-42.97
-47.05
-53.35
-62.83
-75.58
-90.44
-104.93
-115.55
-118.62
-111.45
-93.43
-66.54
-34.76
-2.89
24.98
46.48
61.27
70.42
75.49
77.79
78.01
76.35
72.89
67.99
62.39
57.04
52.87
50.35
49.37
49.23
49.02
48.02
46
43.29
40.48
38.04
35.96
33.68
30.38
25.38
18.48
10.12
1.2
-7.28
-14.6
-20.55
-25.48
-30.12
-35.39
-42.17
-51.23
-62.95
-77.1
-92.35
-106.18
-115.18
-115.94
-106.25
-86.07
-57.8
-25.62
5.74
32.42
52.3
65.14
72.01
74.54
74.19
71.92
68.27
63.59
58.22
52.66
47.45
43.1
39.9
37.85
36.72
36.16
35.85
35.54
35.03
34.06
32.36
29.67
25.86
21.02
15.37
9.15
2.52
-4.43
-11.68
-19.04
-26.24
-32.96
-38.91
-44.06
-48.66
-53.28
-58.72
-65.9
-75.48
-87.32
-100.02
-110.76
-115.89
-112.03
-97.48
-73.11
-42.27
-9.74
19.9
43.55
60.15
70.39
75.74
77.62
77
74.4
70.2
64.89
59.08
53.44
48.41
44.27
41.07
38.76
37.25
36.41
36.04
35.78
35.22
33.88
31.46
27.86
23.29
18.12
12.67
7.11
1.35
-4.84
-11.62
-18.96
-26.53
-33.87
-40.5
-46.24
-51.23
-56.03
-61.51
-68.6
-77.96
-89.41
-101.58
-111.76
-116.49
-112.57
-98.38
-74.63
-44.38
-12.15
17.53
41.43
58.2
68.25
72.94
73.81
72
68.21
62.9
56.58
49.97
43.86
38.97
35.63
33.7
32.67
31.84
30.73
29.2
27.44
25.79
24.44
23.22
21.65
19.07
14.92
8.94
1.27
-7.55
-16.73
-25.43
-32.99
-39.12
-44
-48.23
-52.68
-58.26
-65.75
-75.48
-86.98
-98.82
-108.49
-112.87
-109.11
-95.71
-73.24
-44.44
-13.48
15.38
38.98
55.92
66.46
71.87
73.59
72.72
69.93
65.63
60.26
54.4
48.73
43.8
39.94
37.19
35.35
34.19
33.5
33.15
32.96
32.67
31.88
30.21
27.44
23.58
18.87
13.59
7.88
1.72
-5
-12.27
-19.88
-27.38
-34.29
-40.3
-45.42
-49.96
-54.53
-59.92
-66.93
-76.11
-87.22
-98.82
-108.17
-111.72
-106.32
-90.44
-65.13
-33.82
-1.34
27.7
50.24
65.32
73.73
77.08
76.96
74.47
70.24
64.7
58.39
51.99
46.15
41.3
37.61
34.97
33.07
31.58
30.29
29.03
27.79
26.49
25.09
23.4
21.21
18.27
14.39
9.44
3.39
-3.6
-11.24
-19.12
-26.75
-33.71
-39.77
-44.97
-49.67
-54.48
-60.19
-67.59
-77.09
-88.39
-100.04
-109.46
-113.37
-108.78
-94.2
-70.37
-40.3
-8.33
21.16
45.1
62.2
72.81
78.17
79.62
78.18
74.47
69.03
62.48
55.58
49.11
43.66
39.47
36.48
34.42
32.99
31.9
30.94
29.94
28.79
27.36
25.56
23.21
20.1
15.92
10.34
3.24
-5.19
-14.34
-23.31
-31.3
-37.82
-42.94
-47.24
-51.6
-56.93
-64.04
-73.41
-84.88
-97.37
-108.68
-115.73
-115.36
-105.43
-85.76
-58.5
-27.51
2.86
29.06
49.17
62.92
71.08
74.69
74.57
71.23
65.2
57.3
48.76
40.9
34.76
30.79
28.68
27.64
26.73
25.37
23.45
21.36
19.64
18.6
18.05
17.26
15.24
11.1
4.49
-4.16
-13.79
-23.07
-30.97
-37.07
-41.72
-45.84
-50.51
-56.72
-65.09
-75.73
-87.99
-100.19
-109.67
-113.21
-107.99
-92.71
-68.38
-38.15
-6.44
22.57
46.06
63.08
74.15
80.39
82.79
81.96
78.23
72.12
64.54
56.73
49.9
44.82
41.62
39.84
38.7
37.5
35.9
34
32.23
30.93
30.17
29.44
27.78
24.11
17.65
8.32
-3.12
-15.3
-26.73
-36.35
-43.95
-50.21
-56.37
-63.71
-73.23
-85.25
-99.21
-113.47
-125.4
-131.67
-129.15
-115.96
-92.42
-61.18
-26.68
6.36
34.18
54.98
68.76
76.63
79.9
79.53
76.08
70.11
62.46
54.29
46.85
41.03
37.06
34.54
32.66
30.63
28.08
25.22
22.64
20.98
20.47
20.64
20.42
18.47
13.83
6.31
-3.3
-13.57
-22.94
-30.39
-35.81
-39.97
-44.21
-49.97
-58.33
-69.71
-83.55
-98.13
-110.62
-117.52
-115.62
-103.13
-80.52
-50.64
-17.83
13.37
39.57
59.2
72.37
80.12
83.54
83.41
80.16
74.28
66.62
58.39
50.87
44.95
40.85
38.15
36.03
33.84
31.35
28.93
27.14
26.4
26.5
26.54
25.2
21.35
14.54
5.33
-4.98
-14.82
-23.01
-29.22
-34.02
-38.62
-44.38
-52.48
-63.49
-77.19
-92.26
-106.2
-115.63
-117.09
-108.22
-88.73
-60.83
-28.54
3.45
31.31
52.83
67.59
76.25
79.87
79.35
75.43
68.9
60.78
52.23
44.29
37.58
32.28
28.2
25.09
22.81
21.42
20.97
21.33
21.99
22.15
20.83
17.28
11.29
3.27
-5.85
-14.9
-22.92
-29.51
-34.94
-40.15
-46.42
-54.99
-66.42
-80.03
-93.65
-103.87
-107
-100.25
-82.87
-56.64
-25.31
6.49
34.71
56.8
71.97
80.73
84.17
83.41
79.38
72.95
65.07
56.82
49.21
42.89
37.98
34.16
30.87
27.68
24.55
21.82
19.96
19.15
19
18.54
16.48
11.86
4.44
-5.1
-15.45
-25.19
-33.35
-39.81
-45.28
-51.02
-58.41
-68.49
-81.41
-96
-109.67
-118.8
-119.64
-109.67
-88.66
-59
-25.11
8.07
36.46
57.86
71.95
79.67
82.41
81.39
77.53
71.7
64.82
57.9
51.75
46.76
42.82
39.42
36.05
32.53
29.09
26.34
24.83
24.68
25.32
25.55
23.98
19.6
12.21
2.53
-8.08
-18.14
-26.66
-33.44
-39.16
-45.08
-52.68
-63.07
-76.4
-91.42
-105.39
-114.55
-115.13
-104.76
-83.47
-53.91
-20.57
11.69
39.07
59.71
73.56
81.69
85.32
85.35
82.34
76.87
69.88
62.58
56.17
51.33
48.03
45.56
43.08
40.04
36.53
33.22
30.83
29.68
29.36
28.71
26.37
21.26
13.15
2.74
-8.55
-19.15
-27.92
-34.52
-39.56
-44.3
-50.35
-59.08
-71.14
-85.97
-101.51
-114.43
-120.75
-117.16
-102.1
-76.64
-44.28
-9.87
21.82
47.46
65.66
76.72
81.8
82.26
79.19
73.47
66.04
57.93
50.14
43.4
38
33.78
30.39
27.54
25.23
23.69
23.07
23.21
23.4
22.6
19.72
14.17
6.09
-3.61
-13.62
-22.71
-30.2
-36.16
-41.37
-47.1
-54.61
-64.78
-77.49
-91.26
-103.23
-109.71
-107.35
-94.38
-71.49
-41.76
-9.7
20.18
44.6
62.11
72.83
77.73
77.98
74.58
68.47
60.69
52.42
44.77
38.46
33.66
30.05
27.13
24.52
22.24
20.59
19.88
20.04
20.48
20.14
17.92
13.12
5.78
-3.32
-13.01
-22.13
-30.03
-36.68
-42.75
-49.31
-57.63
-68.63
-82.33
-97.29
-110.54
-118.12
-116.28
-102.93
-78.68
-46.88
-12.49
19.5
45.59
64.41
76.43
82.97
85.36
84.49
80.92
75.29
68.51
61.69
55.78
51.18
47.67
44.58
41.23
37.37
33.33
29.87
27.67
26.92
27
26.63
24.31
19
10.53
-0.22
-11.7
-22.28
-30.84
-37.17
-41.95
-46.56
-52.59
-61.43
-73.63
-88.46
-103.66
-115.61
-120.26
-114.38
-96.87
-69.33
-35.69
-0.98
30.26
55.05
72.42
82.92
87.85
88.52
85.97
80.94
74.19
66.59
59.13
52.7
47.92
44.86
43.16
42.04
40.73
38.7
35.91
32.76
29.85
27.61
25.94
24.18
21.28
16.31
8.82
-0.78
-11.45
-21.79
-30.68
-37.59
-42.81
-47.26
-52.15
-58.73
-67.9
-79.95
-94.15
-108.52
-119.84
-124.32
-118.75
-101.73
-74.47
-40.61
-5.16
27.08
52.88
71.06
82.18
87.67
88.9
86.82
82.01
75.12
67.1
59.14
52.35
47.4
44.25
42.29
40.69
38.77
36.32
33.61
31.2
29.56
28.72
28.13
26.7
23.25
16.92
7.65
-3.71
-15.63
-26.42
-34.94
-41.01
-45.42
-49.64
-55.22
-63.36
-74.5
-88.13
-102.57
-115.04
-122.05
-120.32
-107.84
-84.8
-53.85
-19.38
13.74
41.6
62.11
75.04
81.42
82.69
80.15
74.77
67.47
59.21
51.07
43.96
38.38
34.28
31.21
28.57
26.02
23.62
21.73
20.7
20.48
20.45
19.55
16.65
11.07
2.91
-6.94
-17.08
-26.18
-33.45
-38.96
-43.62
-48.85
-56.12
-66.34
-79.3
-93.34
-105.38
-111.62
-108.67
-94.79
-70.74
-39.66
-6.23
24.94
50.5
69
80.66
86.52
87.65
84.77
78.47
69.53
59.23
49.21
40.95
35.25
31.92
30
28.21
25.69
22.36
18.87
16.18
14.81
14.46
14
11.91
7.07
-0.77
-10.84
-21.68
-31.73
-39.93
-46.06
-50.76
-55.28
-61.15
-69.77
-81.82
-96.8
-112.56
-125.45
-131.12
-125.88
-108.12
-79.17
-43.1
-5.42
28.67
55.7
74.49
85.73
90.95
91.62
88.68
82.76
74.66
65.5
56.73
49.56
44.52
41.31
38.95
36.41
33.13
29.32
25.75
23.3
22.34
22.41
22.24
20.28
15.36
7.21
-3.36
-14.82
-25.47
-34.13
-40.54
-45.4
-50.08
-56.16
-64.98
-77.14
-92.08
-107.75
-120.72
-126.86
-122.55
-106.08
-78.55
-43.73
-6.91
26.82
53.94
73.18
85.09
91.11
92.66
90.72
85.9
78.88
70.62
62.31
55.1
49.65
45.95
43.37
41.01
38.11
34.48
30.51
26.99
24.59
23.45
22.9
21.64
18.26
11.83
2.39
-9
-20.67
-30.95
-38.86
-44.5
-48.88
-53.57
-60.12
-69.64
-82.33
-97.21
-111.9
-122.85
-126.17
-118.78
-99.65
-70.48
-35.3
0.73
32.94
58.35
75.99
86.44
90.97
90.76
86.73
79.7
70.68
60.91
51.67
43.92
38
33.61
30.09
26.78
23.44
20.34
18.05
17.05
17.28
17.93
17.63
14.98
9.2
0.48
-10.04
-20.69
-29.97
-37.11
-42.34
-46.73
-51.81
-59.08
-69.5
-82.99
-98.06
-111.78
-120.27
-119.78
-108
-85.13
-53.97
-19.2
14.17
42.27
63.12
76.57
83.6
85.39
82.97
77.14
68.78
59.09
49.46
41.12
34.76
30.39
27.4
25.06
22.86
20.8
19.23
18.48
18.48
18.5
17.32
13.75
7.18
-2.04
-12.67
-23.1
-32
-38.83
-44.11
-49.07
-55.34
-64.32
-76.7
-91.87
-107.7
-120.57
-126.2
-120.95
-103.19
-74.27
-38.28
-0.82
32.79
59.08
76.94
87.17
91.42
91.17
87.41
80.86
72.36
63.14
54.57
47.73
42.95
39.76
37.22
34.41
31.02
27.42
24.43
22.76
22.51
22.86
22.36
19.49
13.31
3.97
-7.4
-19.05
-29.39
-37.53
-43.6
-48.65
-54.23
-61.94
-72.85
-87.06
-103.29
-118.68
-129.23
-130.77
-120.38
-97.63
-65.04
-27.43
9.61
41.48
65.62
81.71
90.82
94.42
93.69
89.45
82.5
73.93
65.16
57.49
51.68
47.67
44.74
41.98
38.75
35.09
31.61
29.11
28.07
28.21
28.45
27.25
23.23
15.8
5.48
-6.3
-17.72
-27.27
-34.34
-39.43
-43.89
-49.5
-57.91
-70.11
-85.83
-103.3
-119.11
-128.91
-128.54
-115.53
-90.19
-55.77
-17.55
18.83
49.02
70.88
84.42
91
92.32
89.77
84.32
76.81
68.2
59.63
52.11
46.18
41.79
38.32
35.02
31.46
27.75
24.53
22.47
21.79
21.91
21.53
19.08
13.47
4.64
-6.38
-17.87
-28.1
-36.07
-41.83
-46.45
-51.56
-58.83
-69.31
-82.97
-98.29
-112.31
-121.1
-120.85
-109.15
-86.06
-54.3
-18.56
15.97
45.18
66.89
80.91
88.29
90.38
88.28
82.74
74.5
64.64
54.51
45.48
38.4
33.44
30.07
27.53
25.29
23.29
21.9
21.45
21.77
22
20.82
16.94
9.78
-0.21
-11.68
-22.89
-32.39
-39.57
-44.86
-49.57
-55.45
-64.17
-76.62
-92.38
-109.29
-123.62
-130.91
-127.23
-110.79
-82.72
-47
-9.14
25.55
53.45
73.27
85.55
91.75
93.26
91.04
85.76
78.24
69.66
61.31
54.28
48.94
44.97
41.62
38.22
34.56
31.03
28.29
26.87
26.65
26.78
25.86
22.5
15.93
6.3
-5.3
-17.26
-28.03
-36.72
-43.37
-48.91
-54.81
-62.66
-73.66
-88.04
-104.62
-120.51
-131.51
-133.2
-122.5
-99.03
-65.59
-27.34
9.86
41.39
64.91
80.42
89.28
93.11
93.05
89.7
83.62
75.69
67.2
59.49
53.42
49.14
46.04
43.17
39.8
35.82
31.81
28.72
27.28
27.4
28.03
27.46
23.98
16.7
5.98
-6.64
-19.07
-29.47
-37.01
-42.05
-45.99
-50.74
-58.11
-69.25
-84.15
-101.24
-117.28
-127.91
-128.83
-117.24
-93.09
-59.36
-21.19
15.75
47.01
70.36
85.7
94.28
97.6
96.79
92.59
85.72
77.19
68.31
60.36
54.07
49.47
45.89
42.39
38.36
33.84
29.55
26.4
25.01
25.08
25.44
24.37
20.33
12.68
1.94
-10.33
-22.22
-32.19
-39.62
-45.03
-49.8
-55.75
-64.51
-76.97
-92.67
-109.5
-123.76
-131.02
-127.34
-110.86
-82.67
-46.66
-8.4
26.69
54.83
74.5
86.14
91.2
91.26
87.5
80.83
72.14
62.49
53.01
44.56
37.56
31.94
27.32
23.38
20.13
17.78
16.6
16.53
16.96
16.8
14.84
10.25
2.96
-6.28
-16.17
-25.4
-33.12
-39.3
-44.74
-50.82
-59.05
-70.42
-84.72
-100.07
-112.97
-119.08
-114.65
-97.89
-69.97
-34.76
2.28
35.88
62.41
80.41
90.32
93.55
91.67
85.94
77.39
67.05
56.09
45.64
36.63
29.46
24.09
20.18
17.43
15.73
15.15
15.61
16.7
17.49
16.76
13.44
7.07
-1.98
-12.61
-23.4
-33.16
-41.39
-48.41
-55.34
-63.72
-74.93
-89.44
-106.11
-121.87
-132.29
-132.78
-120.32
-94.84
-59.52
-19.88
18.03
49.51
72.2
86.08
92.58
93.53
90.48
84.61
76.92
68.47
60.27
53
46.86
41.55
36.64
31.89
27.51
24.02
21.87
21.05
20.89
20.21
17.78
12.8
5.24
-4.18
-14.28
-23.94
-32.43
-39.75
-46.58
-54.17
-63.92
-76.79
-92.49
-109.08
-122.93
-129.53
-124.99
-107.56
-78.53
-41.98
-3.56
31.32
58.97
77.99
88.88
93.2
92.61
88.48
81.91
73.95
65.67
58.09
51.87
47.12
43.44
40.16
36.74
33.07
29.55
26.79
25.21
24.61
24.08
22.23
17.79
10.22
-0.01
-11.54
-22.67
-32.04
-39.22
-44.79
-50.18
-57.15
-67.17
-80.72
-96.75
-112.41
-123.46
-125.43
-115.13
-92.04
-58.86
-20.67
16.62
48.25
71.69
86.8
94.91
97.67
96.33
91.63
84.26
75.21
65.84
57.41
50.69
45.64
41.59
37.71
33.53
29.23
25.44
22.86
21.67
21.3
20.5
17.83
12.32
3.93
-6.43
-17.21
-26.9
-34.63
-40.48
-45.44
-51.12
-59.18
-70.78
-85.87
-102.72
-117.83
-126.68
-125.01
-110.44
-83.65
-48.37
-10.26
24.9
52.93
72.14
83.03
87.36
87
83.34
77.24
69.35
60.38
51.2
42.62
35.25
29.33
24.87
21.73
19.77
18.85
18.68
18.74
18.26
16.45
12.7
6.85
-0.74
-9.27
-17.83
-25.74
-32.78
-39.34
-46.37
-55.09
-66.5
-80.61
-95.87
-109.05
-115.92
-112.59
-97.12
-70.46
-36.37
-0.25
32.6
58.51
76.1
85.91
89.49
88.45
84
76.99
68.19
58.53
49.04
40.58
33.65
28.28
24.22
21.15
18.93
17.53
16.84
16.45
15.57
13.19
8.55
1.47
-7.47
-17.17
-26.46
-34.52
-41.24
-47.26
-53.77
-62.22
-73.78
-88.64
-105.37
-120.68
-130
-128.81
-114.43
-87.28
-51.05
-11.58
25.11
54.63
75.18
87.29
92.72
93.39
90.72
85.57
78.63
70.73
62.81
55.63
49.52
44.32
39.62
35.12
30.87
27.31
24.88
23.63
22.98
21.81
18.86
13.3
5.16
-4.73
-15.06
-24.65
-32.82
-39.69
-46.11
-53.38
-62.85
-75.42
-90.84
-107.24
-121.11
-127.97
-123.85
-106.84
-78.1
-41.74
-3.52
31.04
58.21
76.76
87.47
92.09
92.36
89.51
84.34
77.55
69.98
62.51
55.8
50.06
45.14
40.71
36.62
33.01
30.22
28.52
27.72
27.14
25.68
22.26
16.3
7.95
-1.87
-11.96
-21.18
-29.03
-35.72
-42.19
-49.83
-60.05
-73.6
-89.89
-106.58
-119.69
-124.57
-117.5
-97.16
-65.53
-27.45
10.89
43.97
68.46
83.7
91.05
92.68
90.5
85.67
78.81
70.37
61.02
51.56
42.78
35.16
28.88
23.89
20.13
17.61
16.26
15.77
15.48
14.48
11.94
7.38
0.92
-6.88
-15.21
-23.4
-31.15
-38.63
-46.46
-55.62
-67.04
-80.94
-96.22
-110.02
-118.3
-116.92
-103.41
-78.18
-44.71
-8.57
24.56
50.59
68
77.59
81.3
81.01
77.77
71.85
63.31
52.64
40.96
29.87
20.91
15.02
12.25
11.78
12.27
12.42
11.32
8.7
4.84
0.28
-4.51
-9.35
-14.39
-19.99
-26.54
-34.37
-43.78
-55.03
-68.13
-82.37
-95.81
-105.35
-107.28
-98.71
-78.83
-49.6
-15.42
18.32
46.92
67.63
79.99
85.27
85.4
82.09
76.42
68.94
60.02
50.18
40.19
30.96
23.38
17.99
14.87
13.56
13.23
12.88
11.67
9.1
5.04
-0.33
-6.64
-13.56
-20.76
-28.05
-35.37
-42.9
-51.16
-60.98
-73.16
-87.75
-103.43
-117.08
-124.37
-121.16
-105.15
-77.19
-41.29
-3.41
30.56
56.64
73.56
82.42
85.47
84.82
81.72
76.62
69.65
61.15
51.91
42.98
35.43
29.89
26.45
24.58
23.45
22.07
19.73
16.13
11.47
6.22
0.83
-4.49
-9.89
-15.71
-22.37
-30.21
-39.58
-50.84
-64.19
-79.13
-93.91
-105.41
-109.69
-103.42
-85.31
-57.01
-22.84
11.66
41.48
63.69
77.75
84.93
87.16
86.01
82.34
76.45
68.66
59.57
50.17
41.48
34.32
29.06
25.58
23.4
21.84
20.25
18.07
14.94
10.73
5.58
-0.28
-6.56
-13.07
-19.77
-26.75
-34.31
-42.96
-53.4
-66.22
-81.28
-97.08
-110.5
-117.34
-113.7
-97.59
-70.09
-35.24
1.17
33.57
58.29
74.29
82.65
85.4
84.37
80.56
74.32
65.86
55.75
45.06
35.16
27.26
22.02
19.35
18.51
18.42
18.04
16.62
13.86
9.87
5.06
-0.17
-5.52
-10.98
-16.72
-23.05
-30.37
-39.09
-49.64
-62.22
-76.35
-90.38
-101.35
-105.58
-99.84
-82.83
-55.99
-23.34
9.78
38.53
59.93
73.41
80.12
81.88
80.1
75.45
68.1
58.33
46.96
35.4
25.27
17.88
13.73
12.35
12.54
12.89
12.19
9.88
6
1.07
-4.36
-9.89
-15.44
-21.22
-27.52
-34.7
-43.08
-53.09
-65.06
-78.81
-93.07
-105.24
-111.69
-108.8
-94.52
-69.39
-36.75
-1.74
30.38
55.78
72.95
82.44
85.96
85.29
81.73
76
68.62
60.21
51.54
43.44
36.54
31.13
27.2
24.48
22.64
21.28
19.96
18.2
15.5
11.5
6.03
-0.74
-8.42
-16.44
-24.35
-31.91
-39.34
-47.32
-56.85
-68.72
-82.87
-97.73
-110.15
-116.05
-111.81
-95.78
-69.08
-35.5
-0.24
31.76
57.16
74.67
84.78
88.85
88.36
84.58
78.5
71.06
63.19
55.7
49.15
43.67
39.09
35.08
31.42
28.09
25.32
23.31
21.99
20.85
19.06
15.73
10.35
3.07
-5.38
-13.97
-21.78
-28.44
-34.23
-40.05
-47.16
-56.8
-69.5
-84.58
-99.66
-110.95
-114.23
-106.3
-86.38
-56.72
-21.91
12.63
42.37
64.81
79.62
87.8
90.76
89.6
85.08
77.94
69.22
60.2
52.09
45.62
40.79
37.11
33.88
30.69
27.57
24.9
23.08
22.16
21.61
20.45
17.58
12.28
4.55
-4.86
-14.67
-23.62
-30.94
-36.68
-41.67
-47.32
-55.09
-65.93
-79.7
-94.75
-107.93
-115.27
-113.1
-99.45
-74.99
-43.07
-8.69
23.05
48.47
66.08
76.35
80.79
80.95
77.85
72.07
64.07
54.61
44.74
35.54
27.82
21.96
17.86
15.24
13.75
13.07
12.79
12.42
11.35
9.07
5.33
0.23
-5.78
-12.13
-18.37
-24.28
-29.95
-35.87
-42.76
-51.48
-62.51
-75.34
-88.06
-97.41
-99.66
-91.95
-73.59
-46.59
-15.13
15.83
42.14
61.47
73.46
79.08
79.74
76.65
70.72
62.75
53.63
44.32
35.76
28.55
22.91
18.72
15.72
13.7
12.54
12.15
12.21
12.11
10.98
8
2.7
-4.75
-13.57
-22.64
-30.88
-37.76
-43.44
-48.78
-55.03
-63.49
-74.86
-88.67
-102.87
-114.01
-118.06
-111.72
-93.85
-66.06
-32.46
1.76
31.92
55.19
70.86
79.85
83.65
83.56
80.41
74.81
67.46
59.37
51.61
44.94
39.58
35.22
31.33
27.57
24.05
21.21
19.43
18.65
18.12
16.65
13.1
6.92
-1.52
-11.13
-20.51
-28.63
-35.17
-40.66
-46.24
-53.3
-62.95
-75.48
-89.88
-103.64
-113.09
-114.39
-104.86
-84.16
-54.71
-21.01
11.8
39.59
60.18
73.43
80.52
82.92
81.83
78.01
72.11
64.89
57.31
50.23
44.12
38.99
34.48
30.24
26.16
22.53
19.83
18.35
17.88
17.63
16.44
13.23
7.51
-0.43
-9.61
-18.75
-26.84
-33.46
-38.94
-44.22
-50.58
-59.22
-70.8
-84.76
-99.05
-110.2
-114.14
-107.62
-89.51
-61.55
-27.93
6.1
35.88
58.61
73.65
81.91
84.88
83.84
79.64
72.99
64.71
55.89
47.62
40.63
35.07
30.65
26.91
23.71
21.19
19.69
19.3
19.57
19.51
17.91
13.89
7.3
-1.18
-10.4
-19.18
-26.79
-33.18
-38.93
-45.05
-52.68
-62.72
-75.28
-89.15
-101.71
-109.31
-108.33
-96.53
-74.17
-44.08
-10.93
20.28
45.76
63.66
74.09
78.32
77.92
74.15
67.9
59.87
50.85
41.8
33.6
26.92
21.99
18.7
16.72
15.72
15.42
15.54
15.61
14.99
12.93
8.89
2.8
-4.85
-13.18
-21.18
-28.2
-34.07
-39.31
-44.9
-52.06
-61.8
-74.36
-88.64
-101.99
-110.61
-110.66
-99.7
-77.73
-47.53
-13.77
18.5
45.42
65.16
77.82
84.66
87.02
85.79
81.38
74.16
64.96
55.11
46.12
39.18
34.63
31.98
30.14
28.11
25.42
22.34
19.6
17.87
17.27
17.11
16.12
13.01
6.95
-1.91
-12.56
-23.49
-33.25
-41.03
-46.88
-51.61
-56.55
-63.11
-72.44
-84.95
-99.85
-114.88
-126.36
-130.09
-122.7
-103.02
-72.85
-36.56
0.33
33
58.51
76.19
86.96
92.22
93.1
90.27
84.27
75.96
66.66
57.87
50.8
45.97
43.03
41.04
38.96
36.13
32.53
28.79
25.73
23.95
23.36
23.12
21.88
18.3
11.72
2.39
-8.52
-19.39
-28.78
-35.97
-41.16
-45.37
-50.04
-56.59
-66.11
-78.92
-94.2
-109.81
-122.3
-127.68
-122.57
-105.53
-77.8
-43.16
-6.73
26.63
53.7
73.34
86.09
93.26
95.99
94.97
90.59
83.42
74.52
65.32
57.28
51.3
47.54
45.31
43.59
41.42
38.39
34.76
31.27
28.68
27.29
26.67
25.71
23.06
17.67
9.33
-1.18
-12.44
-22.88
-31.41
-37.79
-42.67
-47.24
-52.8
-60.5
-70.97
-84.15
-98.88
-112.8
-122.49
-124.26
-115.34
-95.01
-65.16
-29.88
5.83
37.46
62.19
79.09
88.7
92.25
90.99
85.99
78.27
68.95
59.32
50.51
43.24
37.65
33.34
29.71
26.33
23.15
20.5
18.77
18.04
17.83
17.15
14.82
10.02
2.67
-6.49
-16.2
-25.19
-32.66
-38.62
-43.82
-49.6
-57.33
-67.93
-81.27
-95.72
-108.27
-115.07
-112.64
-99.09
-75.1
-43.83
-10.03
21.46
47.07
65.2
76.04
80.77
80.75
77.03
70.32
61.3
50.86
40.11
30.18
21.95
15.83
11.85
9.74
9.08
9.4
10.12
10.51
9.81
7.38
2.95
-3.26
-10.63
-18.33
-25.67
-32.34
-38.48
-44.73
-52.07
-61.45
-73.3
-86.91
-100.06
-109.21
-110.45
-100.91
-80
-49.95
-15.27
18.74
47.61
68.83
82.05
88.41
89.63
87.14
81.88
74.44
65.34
55.33
45.27
36.02
28.2
22.09
17.62
14.57
12.59
11.32
10.31
9.03
6.85
3.21
-2.15
-9.14
-17.22
-25.62
-33.66
-40.95
-47.65
-54.56
-62.81
-73.54
-87.08
-102.32
-116.44
-125.32
-124.84
-112.41
-88.19
-55.26
-18.77
15.85
44.42
64.98
77.62
83.77
85.12
83.09
78.61
72.39
65.05
57.27
49.65
42.64
36.51
31.36
27.22
24.07
21.81
20.2
18.82
17.09
14.38
10.2
4.43
-2.69
-10.51
-18.34
-25.65
-32.39
-39.1
-46.85
-56.86
-69.84
-85.3
-101.12
-113.73
-118.95
-113.43
-95.97
-68.21
-34.22
0.81
32.18
56.92
74.16
84.63
89.77
90.92
89.03
84.78
78.92
72.35
65.98
60.46
55.91
52.03
48.3
44.44
40.61
37.3
35.01
33.74
32.82
30.96
26.89
19.85
10.06
-1.38
-12.92
-23.21
-31.62
-38.43
-44.66
-51.76
-61.13
-73.64
-89.09
-105.77
-120.44
-128.94
-127.39
-113.7
-88.59
-55.55
-19.87
13.18
39.82
58.57
69.95
75.54
76.95
75.3
71.2
65.14
57.85
50.29
43.45
38
34.09
31.42
29.5
27.99
26.79
25.95
25.45
24.85
23.4
20.22
14.76
7.12
-1.96
-11.4
-20.2
-27.86
-34.58
-41.17
-48.86
-58.8
-71.48
-86.17
-100.63
-111.25
-114.07
-106.09
-86.57
-57.55
-23.37
10.72
40.21
62.41
76.74
84.14
86.2
84.4
79.83
73.34
65.67
57.6
49.88
43.1
37.63
33.56
30.85
29.35
28.87
29.06
29.44
29.28
27.81
24.3
18.44
10.4
0.88
-9.15
-18.77
-27.5
-35.5
-43.58
-52.93
-64.76
-79.52
-96.34
-112.62
-124.45
-127.57
-118.97
-98.09
-67.38
-31.62
3.62
33.72
56.17
70.67
78.47
81.28
80.54
77.15
71.73
65.01
57.82
51.01
45.15
40.37
36.39
32.86
29.64
26.9
24.99
24.1
23.92
23.6
21.94
17.89
11.02
1.78
-8.68
-18.89
-27.74
-34.81
-40.63
-46.51
-54.09
-64.8
-79.13
-96.04
-112.76
-125.19
-128.99
-121.06
-100.87
-70.83
-35.6
-0.56
29.94
53.6
70.14
80.59
86.15
87.72
85.81
81.03
74.37
67.16
60.7
55.66
51.95
48.86
45.57
41.66
37.34
33.32
30.37
28.75
27.99
26.92
24.13
18.6
10.15
-0.41
-11.59
-21.83
-30.08
-36.19
-40.94
-45.73
-52.15
-61.51
-74.26
-89.57
-105.09
-117.14
-121.7
-115.61
-97.86
-70.19
-36.61
-2.14
28.81
53.57
71.5
83.36
90.41
93.59
93.33
89.83
83.55
75.45
66.9
59.3
53.55
49.76
47.33
45.29
42.87
39.85
36.66
34
32.37
31.63
30.91
28.9
24.38
16.79
6.48
-5.32
-17.02
-27.21
-35.15
-41.01
-45.7
-50.58
-57.06
-66.2
-78.37
-92.89
-107.75
-119.75
-125.12
-120.62
-104.83
-78.81
-46.03
-11.36
20.54
46.47
65.29
77.56
84.58
87.48
86.91
83.1
76.42
67.75
58.49
50.16
43.88
39.94
37.78
36.33
34.64
32.28
29.55
27.19
25.89
25.75
26.06
25.49
22.69
16.81
7.99
-2.73
-13.83
-23.87
-32.04
-38.34
-43.49
-48.61
-54.9
-63.39
-74.62
-88.34
-102.99
-115.74
-122.81
-120.6
-107.08
-82.71
-50.66
-15.74
17.1
44.29
64.36
77.67
85.52
89.19
89.41
86.47
80.68
72.69
63.7
55.06
47.91
42.81
39.63
37.7
36.21
34.54
32.47
30.18
28.04
26.26
24.77
23.03
20.29
15.78
9.09
0.3
-9.89
-20.44
-30.21
-38.4
-44.75
-49.68
-54.1
-59.16
-66.04
-75.61
-88.08
-102.65
-117.15
-128.17
-131.77
-124.75
-105.92
-76.85
-41.54
-5.22
27.33
53.06
71.1
82.26
88.13
90.12
89.11
85.55
79.83
72.54
64.64
57.14
50.88
46.27
43.2
41.13
39.41
37.5
35.26
32.9
30.78
29.15
27.85
26.24
23.42
18.58
11.33
1.92
-8.77
-19.54
-29.33
-37.46
-43.9
-49.15
-54.05
-59.67
-67.04
-76.95
-89.51
-103.74
-117.22
-126.36
-127.24
-116.97
-95
-63.55
-27.15
8.83
39.84
63.32
78.97
88.07
92.4
93.32
91.54
87.32
81
73.3
65.33
58.17
52.55
48.58
45.77
43.4
40.88
37.99
34.92
32.06
29.73
27.92
26.24
23.98
20.36
14.78
7.06
-2.42
-12.81
-23.03
-32.1
-39.46
-45.2
-49.94
-54.71
-60.62
-68.71
-79.59
-93.12
-107.96
-121.42
-129.78
-129.24
-117.28
-93.83
-61.56
-25.15
10.22
40.44
63.33
78.65
87.31
90.46
89.01
83.71
75.38
65.26
54.88
45.62
38.29
32.91
28.87
25.35
21.88
18.51
15.8
14.39
14.51
15.67
16.68
16.03
12.53
5.81
-3.45
-13.86
-23.82
-32.18
-38.62
-43.77
-48.84
-55.28
-64.25
-76.17
-90.29
-104.47
-115.33
-119.05
-112.51
-94.57
-66.7
-32.74
2.35
33.96
59.08
76.64
87.1
91.54
91.06
86.49
78.66
68.62
57.69
47.23
38.22
31.06
25.54
21.16
17.53
14.56
12.48
11.52
11.57
11.93
11.44
8.88
3.49
-4.62
-14.49
-24.72
-34
-41.66
-47.87
-53.54
-60.09
-68.92
-80.84
-95.47
-110.81
-123.27
-128.52
-122.86
-104.72
-75.54
-39.48
-2.07
31.57
58.15
76.66
87.82
93.01
93.48
90.11
83.64
75.02
65.55
56.56
48.96
42.97
38.12
33.73
29.3
24.85
20.9
18.11
16.78
16.57
16.44
14.97
10.96
3.88
-5.82
-16.87
-27.66
-36.83
-43.84
-49.13
-53.98
-60.09
-69.02
-81.58
-97.22
-113.74
-127.4
-133.73
-128.97
-111.41
-82.3
-45.65
-6.98
28.45
57.03
77.38
89.97
96.13
97.21
94.28
88.26
80.21
71.36
62.89
55.55
49.42
44.07
39
34.01
29.42
25.86
23.84
23.27
23.33
22.71
20.07
14.64
6.52
-3.34
-13.56
-22.9
-30.67
-37.06
-43.04
-50.04
-59.52
-72.35
-88.1
-104.67
-118.4
-124.9
-120.49
-103.61
-75.66
-40.76
-4.4
28.27
53.92
71.5
81.91
86.77
87.58
85.18
79.85
71.87
61.83
50.82
40.17
31.11
24.39
20.12
17.85
16.74
15.91
14.64
12.55
9.55
5.8
1.46
-3.4
-8.85
-15.02
-22.09
-30.2
-39.61
-50.65
-63.56
-77.95
-92.3
-103.74
-108.62
-103.66
-87.39
-61.07
-28.48
5.27
35.37
58.74
74.46
83.3
86.68
85.82
81.36
73.62
63.02
50.54
37.66
26.03
17.02
11.29
8.62
8.01
8.15
7.79
6.18
3.2
-0.75
-5.12
-9.54
-13.99
-18.84
-24.62
-31.84
-40.89
-52.07
-65.42
-80.5
-95.83
-108.73
-115.59
-112.92
-98.71
-73.48
-40.41
-4.47
29.16
56.6
76.07
87.69
92.79
92.96
89.49
83.28
75.04
65.55
55.69
46.31
38.11
31.5
26.57
23.21
21.19
20.14
19.57
18.82
17.15
13.91
8.71
1.6
-6.9
-15.97
-24.81
-32.89
-40.17
-47.23
-55.17
-65.27
-78.47
-94.51
-111.42
-125.47
-131.97
-126.93
-108.56
-78.35
-40.71
-1.54
33.62
61.21
80.12
91.18
96.09
96.44
93.31
87.48
79.7
70.94
62.24
54.42
47.83
42.36
37.72
33.72
30.44
28.15
26.98
26.64
26.29
24.76
20.99
14.46
5.45
-5.1
-15.87
-25.74
-34.18
-41.46
-48.53
-56.83
-67.63
-81.47
-97.42
-112.84
-123.67
-125.61
-115.62
-93.2
-60.87
-23.47
13.51
45.48
69.93
86.43
95.96
99.9
99.44
95.42
88.68
80.31
71.62
63.85
57.75
53.33
49.96
46.84
43.35
39.48
35.76
32.9
31.31
30.68
29.9
27.52
22.29
13.85
2.86
-9.11
-20.34
-29.51
-36.32
-41.54
-46.67
-53.59
-63.81
-77.9
-94.96
-112.33
-125.9
-131.1
-124.38
-104.62
-73.76
-36.4
1.67
35.28
61.24
78.74
88.73
92.92
92.85
89.54
83.67
75.88
66.95
57.81
49.31
42.05
36.28
31.96
28.9
26.86
25.57
24.63
23.53
21.61
18.26
13.13
6.25
-1.88
-10.48
-18.8
-26.41
-33.41
-40.44
-48.59
-58.93
-71.97
-86.96
-101.53
-111.94
-114.08
-104.89
-83.78
-53.12
-17.61
17.19
46.68
68.3
81.73
88.12
89.09
86.04
79.92
71.58
61.96
52.19
43.27
35.83
29.99
25.52
22.08
19.51
17.8
16.94
16.66
16.26
14.76
11.18
5
-3.61
-13.74
-24.1
-33.51
-41.31
-47.63
-53.44
-60.19
-69.39
-81.89
-97.19
-112.97
-125.35
-129.75
-122.52
-102.37
-71.18
-33.55
4.69
38.35
64.25
81.58
91.27
94.94
94.02
89.52
82.31
73.41
64.12
55.66
48.81
43.6
39.57
36.04
32.65
29.51
27.04
25.59
25.06
24.71
23.4
19.98
13.88
5.31
-4.75
-14.9
-23.84
-30.86
-36.16
-40.83
-46.57
-55.2
-67.93
-84.6
-103.19
-119.81
-129.58
-128.07
-112.97
-85.13
-48.51
-8.98
27.6
57.06
77.69
90.05
95.89
97.07
94.84
89.86
82.48
73.23
62.93
52.55
42.99
34.84
28.34
23.42
19.91
17.48
15.76
14.21
12.21
9.15
4.66
-1.32
-8.5
-16.34
-24.31
-32.08
-39.67
-47.56
-56.61
-67.81
-81.59
-97.15
-111.93
-121.91
-122.69
-111.15
-86.96
-53.08
-14.89
21.51
51.35
72.38
84.87
90.68
91.92
90.05
85.67
78.96
70.19
60.06
49.67
40.14
32.34
26.64
22.93
20.74
19.45
18.4
17.01
14.8
11.47
6.92
1.2
-5.43
-12.61
-20
-27.41
-34.97
-43.23
-53.15
-65.52
-80.37
-96.15
-109.61
-116.34
-112.33
-95.57
-67.2
-31.37
6.04
39.42
65.07
81.88
90.91
94.1
93.16
88.95
81.65
71.42
58.93
45.49
32.82
22.47
15.25
11.06
9.03
7.94
6.75
4.82
2.05
-1.25
-4.74
-8.21
-11.74
-15.65
-20.42
-26.54
-34.51
-44.75
-57.47
-72.32
-87.87
-101.38
-109.1
-107.29
-93.69
-68.66
-35.46
0.68
34.22
61.12
79.64
90.28
94.64
94.31
90.14
82.4
71.38
57.97
43.86
31.16
21.63
16.04
13.85
13.54
13.28
11.69
8.29
3.55
-1.62
-6.39
-10.49
-14.35
-18.85
-24.95
-33.37
-44.48
-58.26
-74.22
-91.08
-106.45
-116.94
-118.82
-109.36
-88.04
-57.18
-21.42
13.75
43.69
65.9
80.16
87.68
90.02
88.11
82.25
72.56
59.73
45.34
31.57
20.56
13.53
10.43
9.93
10.14
9.36
6.74
2.55
-2.29
-6.73
-10.26
-13.15
-16.32
-20.88
-27.71
-37.26
-49.6
-64.33
-80.47
-96.07
-108.09
-112.92
-107.39
-90.15
-62.59
-28.64
6.36
37.45
61.43
77.39
86.07
88.79
86.54
79.75
68.77
54.53
38.9
24.27
12.93
6.07
3.45
3.57
4.33
4.04
1.93
-1.66
-5.7
-9.17
-11.63
-13.51
-15.87
-20.04
-27.14
-37.81
-51.95
-68.61
-85.71
-100.08
-107.92
-105.81
-91.96
-67.13
-34.76
0.03
32.1
57.75
75.52
85.92
90.39
90.25
86.25
78.7
68.03
55.24
41.96
30.06
21.05
15.6
13.34
13.09
13.3
12.55
10.06
5.75
0.17
-5.87
-11.77
-17.33
-22.88
-29.06
-36.55
-45.98
-57.81
-72.19
-88.63
-105.44
-119.5
-126.68
-123.05
-106.45
-77.7
-40.67
-1.15
35.06
63.76
83.29
94.15
98.07
96.93
92.23
85.03
76.19
66.59
57.12
48.52
41.22
35.36
30.82
27.41
24.93
23.18
21.81
20.33
18.12
14.57
9.33
2.44
-5.64
-14.18
-22.55
-30.39
-37.81
-45.49
-54.52
-66.02
-80.59
-97.37
-113.66
-125.11
-126.89
-115.54
-90.46
-54.64
-13.76
25.64
58.24
81.33
94.88
100.66
100.91
97.45
91.45
83.63
74.74
65.59
56.98
49.43
43.09
37.78
33.28
29.5
26.48
24.25
22.54
20.76
18.08
13.79
7.66
0.01
-8.43
-16.82
-24.58
-31.66
-38.51
-46.08
-55.52
-67.77
-82.82
-99.09
-113.22
-120.62
-116.97
-99.9
-70.33
-32.48
7.39
43.09
70.4
87.86
96.5
98.56
96.25
91.04
83.63
74.44
64.03
53.29
43.22
34.62
27.92
23.12
19.93
17.98
16.88
16.16
15.26
13.53
10.4
5.54
-1.01
-8.76
-16.99
-25.01
-32.45
-39.47
-46.85
-55.83
-67.52
-82.18
-98.41
-112.93
-121.17
-118.76
-103.27
-75.52
-39.52
-1.22
33.5
60.62
78.79
88.83
92.59
91.71
87.1
79.04
67.86
54.45
40.37
27.54
17.6
11.4
8.74
8.52
9.25
9.52
8.5
6.06
2.64
-1.23
-5.18
-9.3
-14.01
-19.82
-27.12
-36.13
-46.97
-59.71
-74.12
-89.15
-102.48
-110.62
-109.81
-97.47
-73.48
-40.73
-4.28
30.2
58.29
77.84
88.94
93.09
92.01
86.99
78.73
67.78
54.94
41.44
28.79
18.36
11.06
7.06
5.8
6.18
6.91
6.82
5.2
1.85
-2.93
-8.61
-14.73
-20.99
-27.36
-34
-41.13
-49.14
-58.63
-70.36
-84.69
-100.87
-116.39
-127.13
-128.47
-116.97
-92.08
-56.67
-16.31
22.67
55.07
78.21
91.97
97.85
97.86
93.68
86.53
77.42
67.48
57.88
49.57
42.91
37.62
33.06
28.67
24.37
20.61
18.03
17
17.09
17.14
15.58
11.17
3.55
-6.52
-17.52
-27.8
-36.33
-42.99
-48.65
-54.83
-63.14
-74.79
-89.9
-106.95
-122.64
-132.45
-131.9
-118.2
-91.56
-55.44
-15.53
22.15
53.06
75.14
88.68
95.2
96.46
93.73
87.89
79.83
70.71
61.89
54.46
48.86
44.76
41.37
37.93
34.2
30.59
27.83
26.41
26.11
25.92
24.38
20.24
13.08
3.52
-7.07
-17.11
-25.49
-31.95
-37.15
-42.45
-49.51
-59.73
-73.65
-90.31
-106.89
-119.04
-122.1
-112.67
-90.12
-57.15
-19.02
18.26
49.8
73.08
88
95.92
98.48
96.82
91.58
83.4
73.37
63.08
54.1
47.43
43.1
40.29
37.88
35.08
31.83
28.71
26.43
25.31
24.87
23.92
21.03
15.21
6.37
-4.56
-15.99
-26.33
-34.57
-40.67
-45.54
-50.74
-57.97
-68.52
-82.71
-99.36
-115.55
-127.06
-129.4
-119.33
-96.27
-62.8
-24.05
14.01
46.36
70.29
85.52
93.44
95.89
94.31
89.44
81.67
71.53
59.95
48.23
37.64
29.15
23.2
19.67
18.08
17.72
17.81
17.57
16.32
13.62
9.32
3.61
-3.03
-10.02
-16.91
-23.51
-30.03
-37.07
-45.52
-56.2
-69.3
-83.81
-97.24
-105.91
-106.06
-95.17
-73.22
-42.9
-8.94
23.5
50.38
69.71
81.51
86.98
87.48
83.86
76.5
65.67
52.15
37.37
23.19
11.41
3.2
-1.26
-2.72
-2.47
-1.92
-2.06
-3.33
-5.61
-8.49
-11.64
-14.96
-18.76
-23.53
-29.85
-38.23
-49.07
-62.5
-78.06
-94.29
-108.45
-116.77
-115.51
-102.29
-77.38
-43.88
-6.98
27.71
55.94
75.7
87.23
92.06
91.92
88
80.86
70.88
58.71
45.51
32.84
22.23
14.69
10.42
8.71
8.31
7.79
6.13
2.94
-1.53
-6.67
-11.92
-17.12
-22.55
-28.75
-36.26
-45.46
-56.56
-69.71
-84.85
-101.29
-117.12
-129.09
-133.15
-125.86
-105.87
-74.86
-37.25
1.22
35.31
61.73
79.53
89.55
93.38
92.55
88.25
81.49
73.32
64.91
57.29
51.08
46.3
42.63
39.6
37.01
34.93
33.59
32.98
32.62
31.53
28.54
22.84
14.29
3.64
-7.78
-18.59
-27.88
-35.57
-42.46
-49.96
-59.62
-72.62
-88.99
-107.06
-123.36
-133.22
-132.19
-117.73
-90.39
-53.96
-14.2
22.99
53.38
75.24
88.97
96.1
98.22
96.44
91.56
84.43
76.19
68.09
61.09
55.52
50.98
46.74
42.22
37.4
32.85
29.45
27.78
27.65
28
27.26
23.93
17.3
7.84
-3.07
-13.64
-22.49
-29.2
-34.44
-39.68
-46.68
-56.89
-70.91
-88
-105.85
-120.69
-128.1
-124.28
-107.51
-79.04
-42.92
-4.8
29.91
57.58
77.01
88.94
94.96
96.49
94.31
88.83
80.59
70.7
60.72
52.17
45.95
42
39.43
37.09
34.23
30.85
27.65
25.54
24.91
25.28
25.29
23.24
17.87
8.93
-2.69
-15.26
-27.01
-36.75
-44.31
-50.5
-56.68
-64.38
-74.76
-88.27
-104.25
-120.67
-134.14
-140.56
-136.31
-119.61
-91.48
-55.62
-17.42
17.81
46.34
66.67
79.24
85.43
86.7
84.07
78.28
70.14
60.77
51.53
43.6
37.62
33.54
30.81
28.71
26.81
25.06
23.69
22.78
22.06
20.73
17.83
12.65
5.16
-3.99
-13.69
-22.82
-30.75
-37.53
-43.86
-50.89
-59.8
-71.23
-84.75
-98.53
-109.5
-114.07
-109.27
-93.93
-69.22
-38.42
-5.89
24.31
49.36
68.11
80.63
87.58
89.64
87.36
81.28
72.27
61.56
50.56
40.49
32.2
25.95
21.63
18.97
17.62
17.21
17.26
17.15
16.24
14.08
10.52
5.76
0.2
-5.82
-12.11
-18.67
-25.71
-33.54
-42.55
-53
-64.67
-76.49
-86.43
-91.84
-90.3
-80.55
-63.06
-40.01
-14.58
10.08
31.7
49.13
62.17
71.01
75.83
76.68
73.6
66.98
57.68
46.99
36.4
27.19
20.19
15.64
13.18
12.2
11.99
11.96
11.73
11.08
9.85
7.91
5.16
1.55
-2.93
-8.24
-14.37
-21.5
-29.91
-39.79
-50.87
-62.06
-71.4
-76.45
-75.08
-66.27
-50.54
-29.86
-7.03
15.18
34.67
50.25
61.45
68.23
70.64
68.86
63.22
54.39
43.43
31.64
20.42
11
4.18
0.2
-1.32
-1.18
-0.42
0.05
-0.46
-2.3
-5.46
-9.78
-14.95
-20.67
-26.67
-32.88
-39.44
-46.85
-55.82
-66.99
-80.39
-94.86
-107.95
-116.32
-116.71
-107.13
-87.63
-60.43
-29.21
2.04
30.07
53
70.23
82.01
88.83
91.17
89.45
84.27
76.52
67.37
58.07
49.65
42.76
37.58
34
31.78
30.73
30.71
31.52
32.78
33.94
34.4
33.67
31.54
27.98
23.05
16.73
8.96
-0.28
-10.78
-22.01
-33.19
-43.51
-52.46
-59.95
-66.33
-72.37
-79.05
-87.48
-98.51
-112.24
-127.48
-141.42
-150.1
-149.47
-136.93
-112.41
-78.63
-40.23
-2.29
31.18
58.07
78.05
91.92
100.73
105.33
106.32
104.21
99.71
93.75
87.31
81.18
75.78
71.11
66.87
62.65
58.23
53.64
49.15
45.18
41.97
39.48
37.24
34.49
30.37
24.17
15.63
5.06
-6.75
-18.77
-30.03
-39.99
-48.58
-56.23
-63.71
-71.96
-81.9
-94.11
-108.29
-122.93
-135.2
-141.5
-138.51
-124.46
-99.91
-67.76
-32.37
1.77
31.27
54.39
70.95
81.68
87.57
89.51
88.23
84.43
78.9
72.54
66.17
60.36
55.42
51.32
47.93
45.06
42.63
40.6
38.89
37.33
35.6
33.36
30.35
26.47
21.77
16.33
10.19
3.3
-4.35
-12.63
-21.22
-29.72
-37.71
-44.97
-51.48
-57.47
-63.38
-69.85
-77.64
-87.32
-98.79
-110.83
-120.76
-125.11
-120.55
-105.29
-79.99
-47.68
-12.88
19.93
47.5
68.4
82.77
91.6
95.99
96.8
94.62
90.05
83.85
76.9
70.13
64.24
59.63
56.32
54.1
52.62
51.51
50.49
49.34
47.98
46.36
44.45
42.22
39.57
36.35
32.37
27.51
21.79
15.47
9.02
2.96
-2.26
-6.48
-9.89
-13.04
-16.63
-21.47
-28.21
-37.09
-47.59
-58.13
-66.07
-68.26
-62.07
-46.45
-22.64
6.07
35.29
60.93
80.39
92.87
99.14
100.58
98.51
93.78
86.92
78.42
69.04
59.83
51.94
46.28
43.27
42.59
43.27
43.93
43.26
40.4
35.18
28.05
19.72
10.74
1.16
-9.46
-21.76
-36.08
-52.11
-68.77
-84.58
-98.07
-108.38
-115.44
-119.99
-123.27
-126.66
-131.34
-138.11
-147.05
-157.27
-166.74
-172.38
-170.58
-158.43
-134.75
-100.95
-60.86
-19.79
17.1
46.19
66.08
77.39
81.87
81.47
77.73
71.74
64.42
56.79
49.99
44.85
41.67
39.97
38.83
37.31
34.96
32.01
29.19
27.22
26.4
26.27
25.73
23.59
18.99
11.88
3.08
-6.05
-14.14
-20.31
-24.55
-27.66
-30.91
-35.64
-42.78
-52.46
-63.86
-75.16
-83.76
-86.96
-82.69
-70.25
-50.68
-26.51
-1.06
22.54
42.08
56.58
66.02
70.92
71.88
69.47
64.35
57.37
49.62
42.23
36.01
31.33
28.02
25.64
23.73
22.1
20.88
20.33
20.54
21.18
21.53
20.67
17.88
12.94
6.21
-1.46
-9.14
-16.1
-22.08
-27.31
-32.43
-38.27
-45.57
-54.67
-65.11
-75.45
-83.34
-86.13
-81.71
-69.39
-50.34
-27.27
-3.62
17.54
34.22
45.8
52.62
55.41
54.87
51.51
45.79
38.39
30.27
22.52
16.04
11.38
8.59
7.33
7.07
7.27
7.55
7.62
7.29
6.39
4.79
2.36
-0.88
-4.83
-9.37
-14.36
-19.8
-25.82
-32.63
-40.42
-49.03
-57.66
-64.79
-68.42
-66.64
-58.35
-43.81
-24.67
-3.59
16.61
33.69
46.4
54.46
58.19
58.19
55.04
49.41
42.03
33.82
25.71
18.51
12.8
8.77
6.35
5.23
5.09
5.52
6.12
6.5
6.24
4.88
2.1
-2.22
-7.86
-14.28
-20.76
-26.61
-31.44
-35.43
-39.29
-44.17
-51.15
-60.71
-72.23
-83.7
-92.16
-94.44
-88.33
-73.47
-51.52
-25.73
0.16
22.98
40.85
53.23
60.51
63.48
62.95
59.65
54.33
47.92
41.39
35.59
31.02
27.75
25.38
23.39
21.36
19.2
17.16
15.63
14.86
14.64
14.29
12.83
9.41
3.72
-3.84
-12.25
-20.26
-26.86
-31.73
-35.22
-38.34
-42.34
-48.33
-56.85
-67.4
-78.25
-86.65
-89.52
-84.48
-70.74
-49.65
-24.23
1.7
24.73
42.74
55.11
62.39
65.61
65.77
63.57
59.55
54.17
48.08
41.98
36.54
32.19
29.14
27.28
26.35
26
25.88
25.67
25.1
23.97
22.14
19.57
16.32
12.52
8.26
3.58
-1.62
-7.46
-13.92
-20.83
-27.76
-34.16
-39.6
-43.89
-47.25
-50.27
-53.81
-58.81
-66
-75.55
-86.61
-97.18
-104.27
-104.7
-96.16
-78.22
-52.63
-22.91
6.75
32.75
52.89
66.6
74.53
77.79
77.58
74.85
70.44
65.12
59.67
54.75
50.72
47.6
45.09
42.83
40.63
38.67
37.29
36.84
37.31
38.2
38.62
37.65
34.69
29.76
23.45
16.66
10.23
4.62
-0.24
-4.84
-9.88
-15.84
-22.84
-30.48
-38.03
-44.71
-50.06
-54.18
-57.69
-61.64
-67.12
-74.93
-85.09
-96.5
-106.85
-112.96
-111.59
-100.66
-80.07
-52.1
-20.71
9.64
35.32
54.41
66.75
73.4
75.74
74.89
71.56
66.21
59.41
51.98
44.93
39.15
35.15
32.89
31.85
31.31
30.71
29.73
28.46
27.13
25.94
24.9
23.73
21.92
18.95
14.38
8.09
0.41
-7.93
-16
-23.01
-28.54
-32.75
-36.24
-39.87
-44.49
-50.79
-59.15
-69.48
-80.86
-91.37
-98.21
-98.47
-90.01
-72.53
-47.88
-19.57
8.32
32.42
50.87
63.38
70.64
73.66
73.19
69.75
63.84
56.28
48.22
40.93
35.39
31.97
30.37
29.81
29.39
28.48
26.91
24.95
23.08
21.67
20.72
19.75
17.95
14.47
8.84
1.17
-7.79
-16.92
-25.12
-31.74
-36.8
-40.88
-45.02
-50.37
-57.96
-68.3
-80.97
-94.33
-105.48
-110.87
-107.4
-93.57
-70.27
-40.63
-9.09
20.04
43.76
60.84
71.63
77.25
78.9
77.51
73.75
68.23
61.7
55.02
49.01
44.2
40.74
38.35
36.51
34.68
32.53
30.06
27.56
25.41
23.74
22.32
20.48
17.3
12.09
4.64
-4.54
-14.38
-23.66
-31.4
-37.26
-41.59
-45.26
-49.4
-55.12
-63.27
-74.16
-87.24
-100.75
-111.83
-116.98
-113.2
-99.04
-75.37
-45.23
-12.94
17.25
42.31
60.86
72.97
79.52
81.52
79.82
75.21
68.6
61.1
53.92
47.99
43.72
40.89
38.84
36.83
34.4
31.58
28.78
26.54
25.17
24.47
23.72
21.85
17.89
11.38
2.62
-7.4
-17.29
-25.82
-32.41
-37.35
-41.7
-46.88
-54.21
-64.47
-77.5
-91.96
-105.34
-114.32
-115.57
-106.81
-87.75
-60.44
-28.79
2.66
30.09
51.31
65.93
74.75
78.96
79.5
76.95
71.8
64.8
57.05
49.83
44.1
40.26
37.95
36.36
34.68
32.52
30.09
28.01
26.85
26.69
26.87
26.18
23.33
17.62
9.23
-0.77
-10.87
-19.77
-26.82
-32.21
-36.81
-41.79
-48.28
-57.06
-68.37
-81.63
-95.21
-106.43
-111.98
-108.86
-95.46
-72.39
-42.49
-10
20.77
46.61
66.04
79.06
86.47
89.28
88.26
84.08
77.47
69.36
60.75
52.47
44.97
38.32
32.34
26.91
22.1
18.19
15.43
13.75
12.65
11.24
8.54
3.9
-2.71
-10.67
-18.95
-26.52
-32.83
-37.96
-42.61
-47.94
-55.14
-64.97
-77.31
-90.76
-102.72
-109.79
-108.82
-98
-77.67
-50.41
-20.26
8.51
32.67
50.68
62.54
69.16
71.59
70.64
66.94
61.12
54.13
47.06
40.88
36.08
32.67
30.27
28.49
27.15
26.33
26.09
26.26
26.29
25.31
22.43
17.11
9.39
-0.06
-10.17
-19.75
-27.94
-34.49
-39.93
-45.44
-52.49
-62.28
-75.02
-89.47
-102.78
-111.16
-110.98
-100.19
-79.17
-50.76
-19.41
10.41
35.45
54.34
67.34
75.48
79.74
80.61
78.31
73.22
66.28
58.87
52.39
47.75
45.01
43.48
42.16
40.25
37.56
34.48
31.67
29.63
28.23
26.72
24
19.1
11.72
2.36
-7.79
-17.38
-25.4
-31.6
-36.52
-41.27
-47.17
-55.36
-66.45
-80.24
-95.35
-109.2
-118.31
-119.23
-109.66
-89.53
-61.24
-29.02
2.43
29.4
50.04
64.4
73.7
79.3
82.09
82.28
79.88
75.15
68.87
62.25
56.57
52.59
50.4
49.36
48.53
47.14
44.85
41.87
38.71
35.82
33.35
30.96
27.98
23.65
17.41
9.17
-0.55
-10.78
-20.42
-28.57
-34.9
-39.74
-43.99
-48.85
-55.46
-64.61
-76.44
-90.15
-103.81
-114.51
-118.86
-114.02
-98.7
-73.88
-42.69
-9.6
20.98
45.93
64
75.63
82.17
85.04
85.18
83.08
79.03
73.48
67.2
61.06
55.87
52.03
49.51
47.94
46.89
46.03
45.15
44.14
42.89
41.27
39.07
36.11
32.23
27.29
21.22
14.04
5.92
-2.74
-11.38
-19.45
-26.57
-32.65
-37.98
-43.06
-48.59
-55.32
-63.91
-74.7
-87.38
-100.54
-111.69
-117.6
-115.26
-102.95
-81.07
-52.23
-20.52
9.77
35.33
54.55
67.38
74.83
78.05
77.95
75.05
69.78
62.78
55.06
47.76
41.93
38.09
36.18
35.6
35.53
35.28
34.55
33.44
32.22
31.14
30.14
28.81
26.5
22.59
16.79
9.32
0.88
-7.6
-15.19
-21.41
-26.29
-30.42
-34.71
-40.21
-47.78
-57.83
-70.08
-83.29
-95.2
-102.9
-103.48
-95.08
-77.58
-52.91
-24.53
3.58
28.06
46.95
59.79
67.22
70.34
70.15
67.4
62.64
56.42
49.49
42.72
36.96
32.83
30.53
29.78
29.95
30.31
30.28
29.62
28.36
26.71
24.83
22.65
19.91
16.21
11.23
4.83
-2.85
-11.33
-19.95
-27.99
-34.88
-40.42
-44.89
-49.03
-53.83
-60.31
-69.2
-80.6
-93.62
-106.3
-115.68
-118.5
-112.16
-95.74
-70.56
-39.9
-8.1
20.79
44.02
60.64
71.12
76.67
78.55
77.68
74.63
69.91
64.12
58.02
52.32
47.57
44
41.51
39.74
38.31
36.89
35.33
33.63
31.85
30.03
28.06
25.66
22.44
17.97
12.03
4.66
-3.69
-12.32
-20.49
-27.66
-33.67
-38.76
-43.45
-48.37
-54.18
-61.46
-70.64
-81.69
-93.77
-104.98
-112.44
-113.02
-104.4
-86.09
-59.82
-29.21
1.45
28.36
49.22
63.44
71.73
75.41
75.78
73.82
70.14
65.25
59.62
53.82
48.4
43.82
40.33
37.86
36.11
34.67
33.21
31.55
29.73
27.9
26.11
24.27
22.04
18.98
14.69
9.01
2.1
-5.57
-13.32
-20.54
-26.89
-32.33
-37.16
-41.9
-47.17
-53.63
-61.88
-72.2
-84.19
-96.43
-106.41
-111.02
-107.45
-94.3
-72.24
-44.04
-13.73
14.68
38.27
55.78
67.37
74.03
76.86
76.67
73.99
69.29
63.21
56.57
50.31
45.16
41.49
39.2
37.8
36.71
35.48
33.96
32.28
30.69
29.3
27.92
26.05
23
18.21
11.44
3.01
-6.35
-15.67
-24.06
-31.01
-36.49
-40.94
-45.07
-49.72
-55.7
-63.67
-73.87
-85.84
-98.05
-107.88
-112.09
-107.79
-93.62
-70.41
-41.17
-10.17
18.38
41.5
57.95
68.04
72.89
73.75
71.6
67.14
61.05
54.11
47.18
40.91
35.63
31.22
27.34
23.72
20.44
17.89
16.49
16.33
16.95
17.29
16.15
12.69
6.79
-0.91
-9.29
-17.23
-24.06
-29.74
-34.84
-40.31
-47.18
-56.18
-67.25
-79.23
-89.76
-95.72
-94.12
-83.25
-63.51
-37.41
-8.89
17.95
39.97
55.63
64.9
68.69
68.2
64.49
58.35
50.45
41.48
32.22
23.48
16.03
10.41
6.83
5.13
4.88
5.41
5.98
5.94
4.83
2.41
-1.33
-6.19
-11.81
-17.78
-23.76
-29.63
-35.57
-42.08
-49.87
-59.57
-71.16
-83.56
-94.44
-100.64
-99.11
-88.04
-67.75
-40.72
-10.9
17.53
41.33
58.76
69.6
74.62
74.99
71.93
66.54
59.77
52.52
45.46
39.04
33.44
28.64
24.6
21.31
18.91
17.48
16.93
16.87
16.54
15.03
11.57
5.88
-1.71
-10.37
-19.09
-27.02
-33.83
-39.75
-45.59
-52.42
-61.33
-72.78
-86.05
-98.94
-108
-109.51
-100.86
-81.61
-54
-22.2
9
35.74
55.98
69.48
77.19
80.35
79.91
76.53
70.87
63.86
56.7
50.52
45.97
42.96
40.74
38.33
35.11
31.12
27.05
23.81
21.96
21.3
20.85
19.2
15.13
8.16
-1.33
-12.12
-22.74
-31.94
-39.15
-44.55
-49.08
-54.07
-60.97
-70.83
-83.8
-98.67
-112.66
-121.86
-122.39
-111.68
-89.65
-58.98
-24.35
9.11
37.35
58.35
72.09
79.82
83.01
82.75
79.63
74.07
66.79
58.89
51.62
45.92
42.04
39.41
37.09
34.3
30.86
27.35
24.69
23.55
23.88
24.68
24.35
21.42
15.11
5.77
-5.31
-16.38
-25.94
-33.29
-38.7
-43.25
-48.42
-55.59
-65.68
-78.71
-93.56
-107.78
-117.9
-120.27
-112.22
-93.16
-65.09
-32.08
0.96
29.81
52.06
67.29
76.47
81.04
82.14
80.34
76.01
69.68
62.29
55.06
49.1
44.96
42.47
40.85
39.18
36.91
34.08
31.28
29.22
28.21
27.87
27.15
24.76
19.65
11.6
1.29
-9.88
-20.32
-28.87
-35.2
-39.92
-44.24
-49.6
-57.19
-67.65
-80.83
-95.53
-109.43
-119.33
-121.83
-114.32
-96.1
-68.86
-36.32
-3.16
26.43
49.8
66.18
76.16
80.91
81.54
78.83
73.46
66.28
58.33
50.7
44.19
39.06
35.13
31.94
29.13
26.68
24.81
23.73
23.34
23.07
21.98
19.09
13.86
6.41
-2.44
-11.52
-19.75
-26.54
-32.02
-37.04
-42.81
-50.63
-61.23
-74.28
-88.09
-99.67
-105.44
-102.38
-89.11
-66.6
-37.93
-7.35
21.05
44.4
61.47
72.37
77.92
79
76.39
70.83
63.23
54.74
46.54
39.55
34.15
30.15
27.06
24.36
21.9
19.83
18.45
17.81
17.47
16.54
13.95
8.97
1.59
-7.45
-16.88
-25.49
-32.57
-38.22
-43.29
-49.07
-56.91
-67.67
-81.18
-95.92
-108.91
-116.43
-114.99
-102.68
-80.03
-49.97
-16.99
14.37
40.82
60.89
74.7
83.19
87.3
87.63
84.6
78.79
71.25
63.34
56.34
50.98
47.23
44.39
41.55
38.07
33.98
29.87
26.57
24.62
23.81
23.17
21.28
16.84
9.32
-0.79
-12.17
-23.09
-32.23
-39.03
-43.98
-48.36
-53.77
-61.63
-72.69
-86.66
-101.93
-115.58
-123.93
-123.46
-112.02
-89.78
-59.43
-25.41
7.5
35.52
56.74
71.04
79.34
82.83
82.4
78.71
72.48
64.79
56.97
50.28
45.37
42.15
39.8
37.33
34.06
30.02
25.94
22.81
21.26
21.13
21.36
20.41
16.88
10.19
0.8
-9.89
-20.21
-28.82
-35.23
-39.94
-44.19
-49.51
-57.3
-68.26
-82.05
-96.96
-109.91
-117.13
-115.11
-101.91
-78.05
-46.55
-12.1
20.45
47.5
67.41
80.43
87.81
90.95
90.76
87.71
82.2
74.89
66.84
59.24
53.12
48.98
46.66
45.5
44.67
43.48
41.63
39.21
36.61
34.19
32.04
29.88
27.04
22.79
16.56
8.26
-1.65
-12.28
-22.58
-31.71
-39.26
-45.34
-50.54
-55.74
-61.89
-69.89
-80.33
-93.15
-107.27
-120.26
-128.67
-128.77
-117.91
-95.63
-64.21
-28.11
7.49
38.17
61.49
77.05
85.94
89.71
89.65
86.61
81.2
74.18
66.53
59.29
53.3
48.9
45.92
43.79
41.87
39.71
37.2
34.54
32.07
30.09
28.62
27.33
25.51
22.32
17.08
9.58
0.25
-9.86
-19.52
-27.77
-34.3
-39.53
-44.41
-50.04
-57.34
-66.92
-78.91
-92.77
-106.96
-118.83
-124.94
-122.04
-108.25
-84.09
-52.55
-18.22
14.15
41.01
60.74
73.39
79.99
81.73
79.59
74.41
67.08
58.78
50.71
43.82
38.53
34.67
31.66
28.91
26.22
23.8
22.11
21.45
21.59
21.67
20.44
16.76
10.16
1.09
-9.2
-19.12
-27.39
-33.52
-37.96
-42.01
-47.32
-55.39
-66.92
-81.25
-96.15
-108.06
-113
-107.79
-91.28
-65
-32.7
0.69
30.6
54.07
70.08
79.31
83.23
83.35
80.79
76.24
70.22
63.33
56.33
50.01
45.05
41.78
40.16
39.79
40.12
40.6
40.75
40.22
38.72
36.09
32.28
27.4
21.68
15.37
8.54
1.11
-7.13
-16.22
-25.9
-35.57
-44.52
-52.22
-58.55
-63.91
-69.08
-75.04
-82.79
-93.09
-105.97
-120.24
-133.19
-140.89
-139.25
-125.53
-99.66
-64.6
-25.56
11.69
42.62
64.99
78.87
85.82
87.81
86.46
82.87
77.75
71.67
65.32
59.29
54.05
49.81
46.55
44.1
42.28
40.96
40.03
39.32
38.53
37.33
35.35
32.4
28.54
23.95
18.88
13.41
7.45
0.74
-6.85
-15.22
-23.98
-32.55
-40.4
-47.25
-53.26
-58.98
-65.31
-73.3
-83.8
-96.93
-111.53
-124.93
-133.29
-132.66
-120.38
-96.33
-63.2
-25.82
10.4
41.08
63.91
78.76
86.91
90.17
90
87.38
82.92
77.16
70.72
64.24
58.26
53.08
48.75
45.2
42.37
40.3
39
38.34
37.98
37.32
35.75
32.91
28.8
23.78
18.3
12.74
7.11
1.2
-5.31
-12.54
-20.33
-28.23
-35.71
-42.43
-48.34
-53.78
-59.41
-66.12
-74.87
-86.28
-100.05
-114.44
-126.14
-130.97
-125.22
-107.12
-77.9
-41.55
-3.62
30.56
57.46
75.87
86.54
91.21
91.66
89.21
84.7
78.81
72.15
65.42
59.17
53.79
49.39
45.9
43.22
41.29
40.12
39.67
39.74
39.83
39.3
37.48
33.98
28.88
22.63
15.86
9.06
2.33
-4.58
-12.04
-20.24
-29.02
-37.84
-46.07
-53.23
-59.29
-64.66
-70.21
-77.03
-86.14
-98.01
-111.95
-125.76
-135.78
-137.85
-128.67
-107.22
-75.49
-37.94
-0.26
32.64
57.8
74.59
84.08
87.96
87.67
84.07
77.8
69.64
60.73
52.43
45.89
41.62
39.35
38.16
37.01
35.17
32.56
29.73
27.42
26.09
25.61
25.16
23.56
19.77
13.31
4.49
-5.65
-15.81
-24.82
-32.09
-37.73
-42.47
-47.43
-53.77
-62.48
-74.08
-88.27
-103.56
-117.16
-125.38
-124.56
-112.41
-89.04
-57.19
-21.51
12.89
41.97
63.68
77.92
85.88
89.04
88.56
85.17
79.39
71.84
63.4
55.07
47.7
41.84
37.62
34.85
33.2
32.33
31.99
31.94
31.88
31.43
30.22
27.96
24.53
19.98
14.43
7.94
0.54
-7.71
-16.62
-25.74
-34.52
-42.41
-49.14
-54.87
-60.2
-66.02
-73.37
-83.15
-95.74
-110.45
-125.1
-136.06
-139.07
-130.64
-109.59
-77.79
-39.84
-1.58
31.83
57.28
74.22
83.89
88.29
89.14
87.48
83.82
78.57
72.3
65.74
59.66
54.63
50.88
48.35
46.74
45.66
44.78
43.8
42.52
40.8
38.53
35.64
32.13
27.96
23.02
17.14
10.12
1.93
-7.2
-16.74
-26.01
-34.39
-41.62
-47.81
-53.51
-59.58
-66.97
-76.54
-88.71
-103.01
-117.61
-129.34
-134.29
-128.98
-111.82
-83.92
-49.06
-12.45
20.87
47.55
66.43
78.27
84.63
87
86.29
82.96
77.49
70.67
63.62
57.5
53.08
50.51
49.29
48.58
47.61
45.96
43.68
41.17
38.89
37.08
35.49
33.43
29.96
24.26
15.99
5.52
-6.16
-17.72
-27.99
-36.29
-42.64
-47.67
-52.36
-57.84
-65.24
-75.37
-88.37
-103.14
-117.09
-126.37
-126.96
-116.12
-93.69
-62.38
-26.95
7.34
36.4
58.22
72.79
81.23
84.82
84.43
80.59
73.87
65.24
56.07
47.82
41.54
37.54
35.38
34.09
32.71
30.73
28.27
25.99
24.58
24.31
24.62
24.3
21.92
16.52
8.08
-2.41
-13.31
-23.02
-30.59
-36.02
-40.18
-44.46
-50.29
-58.8
-70.47
-84.77
-99.95
-113.07
-120.44
-118.65
-105.86
-82.55
-51.71
-17.96
13.93
40.43
60
72.87
80.22
83.26
82.7
78.86
72.17
63.57
54.54
46.72
41.27
38.45
37.56
37.33
36.53
34.54
31.59
28.45
25.97
24.49
23.57
22.11
18.8
12.82
4.16
-6.26
-16.99
-26.63
-34.41
-40.44
-45.58
-51.1
-58.26
-68.05
-80.85
-96.08
-111.9
-125.16
-131.9
-128.52
-113.13
-86.57
-52.42
-15.95
17.6
44.56
63.58
75.32
81.49
83.74
83.21
80.45
75.86
70
63.66
57.7
52.77
49.15
46.75
45.23
44.11
42.96
41.51
39.69
37.67
35.66
33.73
31.6
28.65
24.1
17.33
8.35
-2.15
-12.93
-22.72
-30.7
-36.81
-41.73
-46.55
-52.43
-60.3
-70.78
-83.97
-99.19
-114.6
-127.15
-133.06
-128.89
-112.89
-85.98
-51.69
-15.17
18.45
45.55
64.76
76.64
82.9
85.32
85.18
83.17
79.62
74.84
69.33
63.73
58.61
54.44
51.36
49.3
48.03
47.32
46.92
46.59
46.02
44.88
42.82
39.59
35.17
29.68
23.33
16.26
8.54
0.18
-8.7
-17.84
-26.81
-35.14
-42.53
-48.95
-54.73
-60.57
-67.39
-76.2
-87.68
-101.6
-116.3
-128.6
-134.38
-129.86
-113.09
-84.96
-49.2
-11.21
23.66
51.72
71.57
83.88
90.36
92.77
92.34
89.71
85.26
79.44
72.88
66.32
60.47
55.74
52.24
49.76
47.91
46.28
44.59
42.77
40.84
38.86
36.73
34.16
30.69
25.83
19.24
10.93
1.28
-8.98
-18.96
-27.92
-35.49
-41.79
-47.34
-52.87
-59.2
-67.12
-77.25
-89.76
-103.95
-117.78
-127.96
-130.61
-122.62
-102.97
-73.48
-38.39
-3.03
27.9
51.6
67.44
76.37
79.9
79.37
75.69
69.64
62.11
54.23
47.06
41.23
36.78
33.22
29.97
26.75
23.8
21.73
21.09
21.95
23.58
24.65
23.7
19.71
12.58
3.16
-7.06
-16.59
-24.42
-30.46
-35.47
-40.81
-48
-58.17
-71.57
-87.06
-102
-112.55
-114.75
-105.83
-85.41
-55.98
-22.15
10.8
38.64
59.3
72.84
80.67
84.34
84.81
82.29
76.81
68.79
59.32
50.01
42.39
37.38
34.9
33.99
33.34
31.89
29.34
26.16
23.24
21.27
20.26
19.39
17.33
12.87
5.5
-4.34
-15.42
-26.2
-35.49
-42.78
-48.4
-53.28
-58.61
-65.58
-75.15
-87.8
-103.13
-119.42
-133.5
-141.26
-138.78
-123.81
-96.89
-61.51
-23.05
12.93
42.39
63.68
77.33
85.04
88.56
89.06
87.04
82.81
76.84
70.01
63.36
57.75
53.6
50.7
48.43
46.1
43.29
40.03
36.76
34.06
32.28
31.28
30.32
28.35
24.38
17.86
8.95
-1.53
-12.38
-22.45
-31.02
-37.99
-43.85
-49.52
-56.01
-64.3
-75.1
-88.62
-104.07
-119.32
-130.98
-135.01
-128.06
-108.87
-79.05
-42.84
-5.81
26.99
52.43
69.79
80.19
85.49
87.31
86.54
83.56
78.65
72.38
65.62
59.32
54.15
50.39
47.86
46.15
44.8
43.51
42.16
40.77
39.4
38
36.37
34.18
30.96
26.29
19.87
11.68
2.07
-8.26
-18.43
-27.67
-35.52
-42.08
-47.95
-54.07
-61.55
-71.37
-84.05
-99.26
-115.39
-129.43
-137.44
-135.65
-121.84
-96.39
-62.5
-25.23
10.11
39.51
61.16
75.26
83.17
86.43
86.07
82.74
76.96
69.57
61.73
54.65
49.22
45.58
43.25
41.3
38.96
35.95
32.63
29.78
28.1
27.72
27.92
27.33
24.46
18.4
9.21
-1.95
-13.34
-23.3
-30.94
-36.47
-40.99
-46.03
-53.05
-63
-76.07
-91.44
-107.11
-119.94
-126.21
-122.61
-107.48
-81.68
-48.58
-13.1
19.79
46.46
65.34
76.73
81.96
82.61
79.91
74.79
67.98
60.31
52.61
45.59
39.62
34.7
30.6
27.13
24.31
22.39
21.63
22
22.89
23.21
21.64
17.18
9.58
-0.5
-11.73
-22.59
-31.96
-39.49
-45.74
-51.98
-59.78
-70.43
-84.22
-99.83
-114.24
-123.24
-122.71
-110.19
-85.98
-53.37
-17.6
15.92
43.24
62.75
74.95
81.44
83.82
83.1
79.72
73.98
66.6
58.7
51.54
46.04
42.44
40.24
38.56
36.57
33.92
30.87
28.09
26.19
25.3
24.85
23.66
20.38
14.09
4.71
-6.89
-19.14
-30.4
-39.51
-46.21
-51.17
-55.68
-61.31
-69.43
-80.92
-95.7
-112.41
-128.11
-138.74
-140.05
-129.08
-105.54
-72.21
-34.21
2.71
33.93
57.2
72.61
81.72
86.31
87.52
85.83
81.42
74.83
67.13
59.74
53.88
50.03
47.72
45.86
43.29
39.48
34.77
30.24
27.03
25.66
25.64
25.58
23.76
18.91
10.76
0.15
-11.37
-22.16
-31.07
-37.81
-42.92
-47.56
-53.12
-60.9
-71.78
-85.8
-101.7
-116.71
-126.97
-128.43
-118.36
-96.54
-65.61
-30.34
3.97
33.12
55.1
70.01
79.24
84.36
86.35
85.54
82.01
76.15
68.89
61.55
55.37
51.11
48.73
47.58
46.73
45.43
43.43
40.9
38.36
36.16
34.34
32.45
29.74
25.48
19.22
11
1.45
-8.41
-17.53
-25.13
-31.03
-35.71
-40.12
-45.35
-52.43
-62.09
-74.55
-89.25
-104.44
-117.17
-123.66
-120.45
-105.67
-80.05
-46.99
-11.54
21.25
47.82
66.77
78.58
84.67
86.49
85.03
80.9
74.72
67.37
60
53.66
48.99
45.95
43.93
42.06
39.64
36.52
33.11
30.16
28.27
27.45
26.92
25.34
21.39
14.36
4.6
-6.62
-17.53
-26.67
-33.39
-38.11
-42.06
-46.8
-53.68
-63.52
-76.31
-91.01
-105.45
-116.43
-120.41
-114.49
-97.59
-71.11
-38.72
-5.31
24.55
47.86
63.69
72.82
76.76
76.93
74.29
69.4
62.79
55.21
47.5
40.44
34.48
29.69
25.94
23.08
21.1
20.01
19.63
19.44
18.6
16.27
11.94
5.7
-1.87
-9.9
-17.66
-24.81
-31.54
-38.45
-46.45
-56.51
-69.16
-83.91
-98.74
-110.21
-114.28
-107.73
-89.61
-61.89
-28.95
3.94
32.36
53.97
68.55
77.23
81.39
81.96
79.38
73.99
66.6
58.46
51
45.31
41.65
39.53
37.95
36.03
33.41
30.42
27.85
26.42
26.28
26.74
26.39
23.69
17.63
8.24
-3.37
-15.44
-26.32
-35.07
-41.81
-47.53
-53.68
-61.66
-72.43
-86.22
-102.19
-118.19
-130.86
-136.24
-130.95
-113.58
-85.51
-50.66
-14.36
18.51
44.82
63.69
75.91
82.91
85.87
85.4
81.91
76.02
68.83
61.75
55.97
51.95
49.32
47.08
44.22
40.25
35.44
30.72
27.16
25.33
24.96
24.9
23.6
19.7
12.66
2.93
-8.13
-18.9
-28
-34.9
-39.97
-44.4
-49.71
-57.32
-68.1
-81.99
-97.67
