0.26
-8.62
-18.6
-29.86
-41.43
-51.4
-57.52
-58.03
-52.34
-41.23
-26.44
-10.02
6.39
21.88
36.26
49.64
61.98
72.77
81.09
85.98
86.78
83.28
75.65
64.37
50.12
33.89
17.02
1.14
-12.14
-21.65
-26.94
-28.48
-27.48
-25.38
-23.38
-21.96
-20.69
-18.45
-13.92
-6.23
4.57
17.3
29.98
40.38
46.78
48.42
45.63
39.73
32.59
26.09
21.48
18.98
17.66
15.78
11.57
3.94
-6.98
-19.95
-33.05
-44.35
-52.38
-56.27
-55.76
-51.11
-43
-32.55
-21.07
-9.8
0.43
9.32
17.06
24.08
30.71
37.15
43.45
49.64
55.82
62.03
68.22
74.1
79.13
82.72
84.32
83.58
80.3
74.39
65.78
54.43
40.48
24.39
7.01
-10.44
-26.58
-40.14
-50.2
-56.35
-58.75
-58.02
-55.1
-51.04
-46.73
-42.82
-39.62
-37.16
-35.28
-33.78
-32.45
-31.08
-29.48
-27.44
-24.81
-21.49
-17.5
-12.98
-8.22
-3.66
0.1
2.35
2.5
0.18
-4.54
-11.21
-19.06
-27.18
-34.66
-40.6
-44.05
-44.21
-40.6
-33.33
-23.23
-11.72
-0.46
9.13
16.15
20.41
22.24
22.26
21.09
19.18
16.72
13.8
10.54
7.16
4.04
1.63
0.3
0.15
1
2.4
3.77
4.68
4.86
4.19
2.6
-0.01
-3.7
-8.3
-13.19
-17.32
-19.4
-18.38
-13.85
-6.34
2.9
12.26
20.35
26.33
29.97
31.44
31.11
29.35
26.52
23.01
19.26
15.7
12.64
10.18
8.17
6.37
4.52
2.49
0.3
-1.95
-4.19
-6.48
-9.04
-12.16
-16.01
-20.41
-24.71
-27.87
-28.77
-26.58
-21.12
-12.93
-3.14
7
16.4
24.47
31.08
36.37
40.53
43.65
45.72
46.81
47.19
47.3
47.61
48.42
49.7
51.11
52.19
52.56
52.08
50.84
49.01
46.75
44.07
40.81
36.72
31.63
25.56
18.89
12.38
7.01
3.73
3.1
5.1
9.07
14.01
18.96
23.22
26.48
28.72
29.91
29.92
28.52
25.53
20.97
15.19
8.69
2.04
-4.34
-10.31
-15.92
-21.31
-26.57
-31.72
-36.6
-41
-44.74
-47.65
-49.75
-51.13
-52.05
-52.81
-53.75
-55.11
-56.93
-59.04
-60.96
-62.04
-61.52
-58.79
-53.56
-46
-36.65
-26.38
-16.08
-6.46
2.03
9.27
15.27
20.1
23.81
26.45
28.12
29.03
29.52
29.91
30.5
31.42
32.66
34.06
35.4
36.39
36.86
36.68
35.84
34.44
32.61
30.52
28.26
25.86
23.22
20.16
16.52
12.13
6.89
0.78
-6
-13.02
-19.55
-24.61
-27.29
-27.01
-23.85
-18.48
-12.03
-5.66
-0.21
3.99
6.98
9.01
10.27
10.87
10.84
10.25
9.27
8.12
6.97
5.93
4.99
4.05
3
1.73
0.21
-1.51
-3.3
-5.02
-6.58
-7.96
-9.24
-10.56
-12.05
-13.79
-15.85
-18.26
-21.01
-23.98
-26.86
-29.13
-30.13
-29.29
-26.33
-21.44
-15.18
-8.39
-1.87
3.83
8.43
11.92
14.44
16.09
16.87
16.77
15.84
14.28
12.49
10.97
10.22
10.52
11.88
14.03
16.59
19.17
21.52
23.59
25.44
27.14
28.67
29.88
30.55
30.47
29.47
27.44
24.29
19.92
14.33
7.7
0.58
-6.17
-11.59
-14.92
-15.95
-15.05
-13.05
-10.88
-9.23
-8.32
-8.02
-8.05
-8.14
-8.22
-8.32
-8.57
-8.97
-9.47
-9.88
-10
-9.71
-9.01
-8.06
-7.12
-6.48
-6.32
-6.62
-7.27
-8.06
-8.88
-9.7
-10.59
-11.63
-12.89
-14.42
-16.25
-18.46
-21.09
-23.99
-26.78
-28.79
-29.32
-27.85
-24.32
-19.19
-13.26
-7.37
-2.14
2.15
5.57
8.25
10.33
11.78
12.55
12.6
12.05
11.15
10.2
9.46
9.04
8.88
8.82
8.68
8.32
7.69
6.78
5.62
4.17
2.4
0.37
-1.83
-4.01
-6.01
-7.82
-9.56
-11.5
-13.87
-16.78
-20.12
-23.54
-26.48
-28.26
-28.3
-26.25
-22.15
-16.47
-10.04
-3.76
1.6
5.61
8.24
9.7
10.36
10.5
10.3
9.87
9.33
8.8
8.4
8.21
8.17
8.17
8.07
7.72
7.08
6.19
5.15
4.04
2.91
1.77
0.58
-0.7
-2.18
-3.93
-6.05
-8.63
-11.67
-15.07
-18.57
-21.8
-24.22
-25.35
-24.84
-22.62
-18.93
-14.3
-9.41
-4.93
-1.3
1.25
2.74
3.29
3.02
2.06
0.52
-1.35
-3.23
-4.75
-5.63
-5.86
-5.67
-5.44
-5.51
-6.03
-6.87
-7.79
-8.54
-9
-9.25
-9.47
-9.87
-10.64
-11.93
-13.79
-16.21
-18.96
-21.56
-23.39
-23.77
-22.24
-18.71
-13.52
-7.32
-0.85
5.24
10.5
14.66
17.63
19.35
19.84
19.2
17.67
15.58
13.34
11.34
9.87
8.96
8.41
7.88
7.04
5.74
4.16
2.58
1.31
0.43
-0.27
-1.21
-2.79
-5.24
-8.48
-12.12
-15.59
-18.2
-19.29
-18.33
-15.06
-9.57
-2.31
5.97
14.38
22.15
28.73
33.86
37.54
39.83
40.9
40.88
40.02
38.64
37.17
35.97
35.23
34.87
34.55
33.8
32.29
29.92
26.89
23.5
20.02
16.54
12.97
9.11
4.74
-0.31
-6.02
-12.19
-18.36
-23.85
-27.82
-29.57
-28.78
-25.64
-20.86
-15.4
-10.15
-5.71
-2.24
0.3
2.01
2.9
2.9
2.02
0.46
-1.36
-2.99
-4.11
-4.72
-5.15
-5.94
-7.57
-10.32
-14.17
-18.87
-24.14
-29.77
-35.64
-41.69
-47.83
-53.9
-59.7
-65.04
-69.68
-73.27
-75.33
-75.24
-72.51
-66.95
-58.9
-49.13
-38.67
-28.45
-19.05
-10.72
-3.45
2.79
7.89
11.68
14.05
15.13
15.24
14.94
14.74
14.95
15.64
16.56
17.33
17.58
17.09
15.91
14.23
12.33
10.43
8.56
6.61
4.38
1.68
-1.61
-5.56
-10.08
-14.9
-19.49
-23.07
-24.77
-23.93
-20.33
-14.33
-6.78
1.31
9.06
15.89
21.52
25.87
28.87
30.47
30.67
29.63
27.7
25.34
23.03
21.15
19.81
18.93
18.21
17.3
15.96
14.15
12.06
9.99
8.17
6.61
5.1
3.22
0.62
-2.93
-7.34
-12.28
-17.16
-21.25
-23.79
-24.18
-22.12
-17.71
-11.46
-4.18
3.25
10.08
15.79
20.09
22.9
24.23
24.16
22.9
20.78
18.26
15.82
13.87
12.59
11.93
11.62
11.33
10.81
10.02
9.09
8.17
7.35
6.5
5.32
3.48
0.7
-3.06
-7.58
-12.42
-16.96
-20.52
-22.44
-22.26
-19.8
-15.27
-9.24
-2.53
4.03
9.8
14.4
17.77
20.01
21.23
21.53
20.98
19.76
18.14
16.48
15.09
14.09
13.37
12.66
11.69
10.36
8.76
7.15
5.79
4.75
3.88
2.85
1.26
-1.21
-4.63
-8.72
-12.9
-16.35
-18.22
-17.93
-15.28
-10.59
-4.49
2.18
8.74
14.69
19.79
23.93
27.03
29.04
29.92
29.79
28.94
27.85
26.96
26.63
26.89
27.53
28.15
28.37
28.01
27.13
25.97
24.79
23.76
22.85
21.91
20.75
19.2
17.13
14.47
11.29
7.85
4.66
2.42
1.8
3.25
6.71
11.68
17.37
22.97
27.88
31.84
34.81
36.86
38.07
38.38
37.72
36.02
33.41
30.11
26.51
22.96
19.77
17.02
14.63
12.42
10.17
7.77
5.23
2.63
0.08
-2.39
-4.77
-7.08
-9.36
-11.63
-13.97
-16.5
-19.44
-22.88
-26.77
-30.74
-34.12
-36.17
-36.27
-34.2
-30.23
-25.01
-19.36
-14
-9.41
-5.76
-3.12
-1.45
-0.74
-0.92
-1.79
-2.98
-4.05
-4.65
-4.66
-4.23
-3.72
-3.5
-3.72
-4.37
-5.21
-6
-6.64
-7.18
-7.86
-8.97
-10.67
-12.99
-15.75
-18.61
-21.28
-23.55
-25.37
-26.87
-28.27
-29.77
-31.52
-33.58
-35.86
-38.13
-39.96
-40.84
-40.23
-37.79
-33.48
-27.66
-20.99
-14.25
-8.11
-3
0.95
3.81
5.73
6.87
7.3
7.1
6.4
5.35
4.17
3.02
1.95
0.96
-0.03
-1.02
-2
-2.94
-3.88
-4.9
-6.17
-7.8
-9.8
-11.99
-14.15
-15.97
-17.32
-18.13
-18.55
-18.85
-19.39
-20.5
-22.39
-25
-27.96
-30.62
-32.24
-32.15
-30.01
-25.9
-20.27
-13.87
-7.45
-1.62
3.29
7.2
10.17
12.3
13.63
14.2
14.06
13.38
12.47
11.69
11.32
11.49
12.11
12.93
13.66
14.07
14.06
13.67
13.06
12.35
11.62
10.83
9.83
8.45
6.52
3.96
0.8
-2.83
-6.69
-10.36
-13.33
-15.02
-15
-13.18
-9.88
-5.78
-1.65
1.93
4.72
6.8
8.36
9.52
10.22
10.29
9.61
8.26
6.52
4.78
3.44
2.71
2.58
2.86
3.23
3.39
3.18
2.59
1.72
0.72
-0.34
-1.45
-2.67
-3.99
-5.4
-6.84
-8.34
-10
-11.86
-13.83
-15.5
-16.22
-15.31
-12.43
-7.63
-1.48
5.19
11.55
16.99
21.2
24.11
25.74
26.18
25.59
24.23
22.39
20.41
18.52
16.79
15.18
13.59
11.9
10.12
8.3
6.55
4.98
3.6
2.33
0.95
-0.79
-3.13
-6.14
-9.69
-13.48
-17.16
-20.52
-23.68
-27.03
-31.1
-36.29
-42.51
-49.15
-55.15
-59.39
-61.08
-60.04
-56.76
-52.16
-47.23
-42.73
-39.02
-36.13
-33.89
-32.07
-30.54
-29.19
-27.97
-26.78
-25.44
-23.76
-21.55
-18.75
-15.49
-12.13
-9.07
-6.7
-5.11
-4.16
-3.47
-2.71
-1.68
-0.5
0.47
0.82
0.19
-1.5
-4.09
-7.07
-9.76
-11.38
-11.29
-9.14
-5.02
0.53
6.72
12.69
17.83
21.86
24.79
26.81
28.05
28.56
28.26
27.13
25.29
22.99
20.67
18.72
17.38
16.66
16.34
16.08
15.58
14.71
13.53
12.21
10.94
9.78
8.68
7.51
6.07
4.19
1.71
-1.42
-5.14
-9.15
-12.88
-15.55
-16.41
-15.03
-11.46
-6.26
-0.31
5.5
10.45
14.19
16.59
17.64
17.38
15.86
13.23
9.83
6.21
2.99
0.72
-0.37
-0.43
0.08
0.58
0.59
-0.08
-1.35
-2.92
-4.48
-5.82
-6.91
-7.92
-9.05
-10.56
-12.59
-15.1
-17.87
-20.4
-22.04
-22.12
-20.18
-16.17
-10.44
-3.68
3.3
9.85
15.55
20.22
23.83
26.32
27.68
27.96
27.43
26.53
25.75
25.46
25.73
26.26
26.58
26.21
24.95
22.85
20.26
17.52
14.88
12.36
9.7
6.58
2.66
-2.21
-7.93
-14.14
-20.21
-25.39
-28.98
-30.58
-30.24
-28.48
-26.14
-24.1
-23.05
-23.4
-25.28
-28.64
-33.32
-39.08
-45.57
-52.32
-58.74
-64.15
-67.91
-69.45
-68.44
-64.9
-59.25
-52.27
-44.91
-37.95
-31.81
-26.5
-21.9
-17.95
-14.89
-13.18
-13.23
-15.09
-18.31
-22
-25.03
-26.36
-25.28
-21.61
-15.73
-8.49
-1.05
5.49
10.36
13.29
14.52
14.59
14.02
13.12
11.92
10.34
8.35
6.15
4.09
2.56
1.85
2.13
3.5
6.06
9.83
14.71
20.43
26.53
32.52
37.94
42.49
46.03
48.65
50.75
53.04
56.37
61.34
67.9
75.12
81.49
85.51
86.37
84.17
79.65
73.53
66.05
56.87
45.61
32.44
18.47
5.43
-5.04
-11.97
-15.48
-16.46
-16.07
-15.2
-14.29
-13.51
-13.07
-13.35
-14.94
-18.31
-23.55
-30.2
-37.31
-43.67
-48.14
-49.91
-48.69
-44.7
-38.63
-31.45
-24.16
-17.59
-12.26
-8.34
-5.77
-4.42
-4.15
-4.92
-6.67
-9.31
-12.63
-16.37
-20.26
-24.04
-27.47
-30.31
-32.35
-33.41
-33.49
-32.81
-31.89
-31.4
-31.98
-34
-37.32
-41.23
-44.63
-46.3
-45.25
-41.07
-34
-24.84
-14.69
-4.65
4.36
11.77
17.29
20.92
22.95
23.77
23.85
23.58
23.23
22.94
22.74
22.72
22.94
23.44
24.18
25.02
25.75
26.17
26.11
25.43
23.96
21.53
18.08
13.86
9.54
6.14
4.75
6.17
10.54
17.21
24.96
32.4
38.43
42.54
44.78
45.56
45.27
44.12
42.1
39.22
35.67
31.95
28.69
26.41
25.31
25.13
25.32
25.23
24.36
22.44
19.37
15.14
9.76
3.31
-3.91
-11.24
-17.67
-22.01
-23.32
-21.2
-15.96
-8.54
-0.16
8.01
15.1
20.58
24.17
25.74
25.25
22.88
19.06
14.49
10.01
6.41
4.28
3.8
4.77
6.64
8.71
10.32
11.07
10.91
10.1
9.03
7.97
7.04
6.25
5.76
5.98
7.55
11.13
17.06
25.17
34.76
44.77
54.14
61.95
67.59
70.66
70.97
68.54
63.62
56.7
48.51
39.84
31.38
23.65
16.93
11.28
6.64
2.86
-0.23
-2.73
-4.67
-6.08
-7.02
-7.73
-8.63
-10.19
-12.72
-16.12
-19.82
-23.01
-24.92
-25.23
-24.19
-22.58
-21.35
-21.27
-22.75
-25.7
-29.69
-34.14
-38.4
-41.87
-44
-44.4
-42.91
-39.62
-34.9
-29.29
-23.34
-17.47
-11.87
-6.57
-1.5
3.33
7.78
11.5
14.07
15.1
14.39
12.12
8.86
5.49
2.98
2.06
3.03
5.69
9.45
13.6
17.54
20.88
23.46
25.21
26.12
26.22
25.56
24.29
22.63
20.87
19.22
17.83
16.71
15.87
15.26
14.85
14.58
14.31
13.79
12.75
10.95
8.27
4.9
1.29
-1.88
-3.83
-3.96
-2.02
1.77
6.75
12
16.61
19.96
21.8
22.3
21.77
20.51
18.68
16.26
13.13
9.21
4.51
-0.83
-6.53
-12.28
-17.76
-22.67
-26.77
-29.95
-32.18
-33.59
-34.43
-34.98
-35.47
-35.98
-36.32
-36.06
-34.61
-31.4
-26.05
-18.6
-9.55
0.3
9.99
18.73
26
31.6
35.55
38.01
39.12
39
37.82
35.75
33.01
29.79
26.24
22.38
18.21
13.72
8.93
3.9
-1.31
-6.71
-12.36
-18.43
-25.05
-32.13
-39.22
-45.49
-49.86
-51.38
-49.56
-44.66
-37.57
-29.61
-22.07
-15.87
-11.37
-8.45
-6.71
-5.69
-5.11
-4.93
-5.29
-6.42
-8.42
-11.15
-14.31
-17.53
-20.57
-23.45
-26.41
-29.83
-33.97
-38.9
-44.45
-50.37
-56.4
-62.37
-68.04
-73.02
-76.68
-78.22
-76.99
-72.71
-65.64
-56.45
-45.99
-34.98
-23.83
-12.78
-1.96
8.45
18.15
26.9
34.54
41.02
46.34
50.52
53.48
55.21
55.82
55.54
54.66
53.39
51.78
49.69
46.95
43.37
38.9
33.58
27.64
21.51
15.87
11.55
9.34
9.69
12.47
16.95
22.03
26.61
29.91
31.66
31.97
31.16
29.54
27.33
24.68
21.83
19.05
16.66
14.88
13.87
13.55
13.74
14.1
14.28
13.94
12.89
11.18
8.99
6.56
4.07
1.55
-1.02
-3.5
-5.57
-6.65
-6.22
-4.02
-0.25
4.55
9.69
14.55
18.78
22.2
24.66
25.9
25.57
23.4
19.34
13.71
7.15
0.36
-5.99
-11.44
-15.69
-18.62
-20.26
-20.83
-20.81
-20.82
-21.47
-23.07
-25.5
-28.32
-30.98
-33.12
-34.7
-35.82
-36.4
-36.07
-34.16
-30.06
-23.62
-15.4
-6.56
1.54
7.83
11.81
13.56
13.53
12.21
9.92
6.76
2.81
-1.76
-6.63
-11.34
-15.53
-19.07
-22.1
-24.96
-27.98
-31.34
-35.03
-38.88
-42.77
-46.74
-51.03
-55.89
-61.3
-66.75
-71.24
-73.61
-72.93
-69.01
-62.5
-54.73
-47.19
-41.09
-37.01
-34.98
-34.6
-35.37
-36.72
-38.06
-38.81
-38.42
-36.61
-33.4
-29.16
-24.4
-19.63
-15.19
-11.24
-7.83
-4.96
-2.62
-0.86
0.25
0.6
0.07
-1.26
-3.06
-4.58
-4.91
-3.21
0.89
7.14
14.68
22.45
29.45
35.01
38.83
40.86
41.2
40.06
37.78
34.8
31.64
28.67
26.11
23.86
21.64
19.11
16
12.22
7.82
2.89
-2.51
-8.55
-15.54
-23.87
-33.64
-44.43
-55.1
-64.01
-69.39
-69.92
-65.23
-56.04
-43.89
-30.72
-18.27
-7.71
0.47
6.28
9.97
11.75
11.7
9.85
6.35
1.71
-3.26
-7.55
-10.32
-11.22
-10.55
-9.16
-8.01
-7.84
-8.93
-11.17
-14.18
-17.62
-21.12
-24.23
-26.34
-26.76
-25.01
-21.08
-15.69
-9.98
-5.24
-2.38
-1.8
-3.38
-6.67
-11.23
-16.65
-22.63
-28.91
-35.22
-41.33
-47.12
-52.64
-58.05
-63.6
-69.35
-75.14
-80.47
-84.64
-86.94
-86.86
-84.23
-79.08
-71.53
-61.48
-48.58
-32.34
-12.53
10.53
35.74
61.42
85.7
106.99
124.39
137.6
146.75
152.03
153.46
150.93
144.38
134.13
121
106.36
91.78
78.71
68.07
60.11
54.42
50.13
46.21
41.8
36.38
29.89
22.77
15.86
10.18
6.7
6.01
8.16
12.6
18.35
24.34
29.65
33.75
36.41
37.61
37.42
35.92
33.33
30.01
26.47
23.21
20.67
18.99
18.12
17.77
17.61
17.35
16.78
15.78
14.23
12.04
9.18
5.79
2.42
-0.07
-0.57
1.75
7.17
15.1
24.27
33.13
40.4
45.48
48.39
49.58
49.56
48.64
46.89
44.38
41.32
38.18
35.55
33.88
33.38
33.85
34.91
36.07
36.89
37.06
36.3
34.47
31.56
27.9
24.26
21.73
21.46
24.24
30.15
38.46
47.88
56.94
64.46
69.68
72.35
72.6
70.64
66.77
61.24
54.27
46.1
36.97
27.2
17.05
6.73
-3.74
-14.47
-25.7
-37.64
-50.32
-63.5
-76.69
-89.24
-100.35
-109.22
-115.12
-117.52
-116.36
-112.11
-105.8
-98.77
-92.33
-87.4
-84.37
-83.14
-83.29
-84.32
-85.8
-87.42
-88.95
-90.19
-90.88
-90.81
-89.91
-88.35
-86.53
-84.97
-84.14
-84.3
-85.48
-87.55
-90.25
-93.12
-95.47
-96.34
-94.7
-89.84
-81.63
-70.75
-58.47
-46.18
-34.97
-25.41
-17.61
-11.49
-6.96
-3.9
-2.03
-0.72
1.01
4.19
9.59
17.39
27.08
37.55
47.3
54.85
59.01
59.08
54.97
47.12
36.46
24.17
11.67
0.44
-8.1
-12.8
-13.12
-9.24
-2.18
6.58
15.44
23.19
29.22
33.42
35.97
37
36.55
34.63
31.45
27.49
23.46
20.03
17.56
15.98
14.92
13.87
12.45
10.52
8.11
5.27
1.89
-2.16
-6.89
-11.92
-16.41
-19.21
-19.32
-16.21
-10.11
-1.92
7.15
15.95
23.65
29.81
34.24
36.9
37.79
37.07
35.03
32.13
28.87
25.67
22.71
19.91
17
13.59
9.41
4.33
-1.48
-7.7
-13.97
-20.06
-26.01
-31.99
-38.06
-43.91
-48.75
-51.51
-51.29
-47.82
-41.58
-33.76
-25.77
-18.85
-13.73
-10.58
-9.11
-8.71
-8.57
-7.88
-5.99
-2.59
2.22
7.95
13.99
19.81
25.15
29.92
34.15
37.74
40.49
42.12
42.24
40.38
35.96
28.42
17.65
4.36
-9.77
-22.47
-31.56
-35.79
-35.25
-31.15
-25.19
-18.77
-12.63
-6.94
-1.77
2.53
5.33
6.08
4.73
1.95
-1.04
-2.98
-3.03
-1.07
2.41
6.66
11.05
15.39
19.83
24.73
30.27
36.22
41.98
46.76
49.96
51.48
51.8
51.87
52.74
55.1
58.99
63.69
67.97
70.45
70.15
66.8
60.86
53.34
45.26
37.33
29.84
22.7
15.78
9.13
3.01
-2.25
-6.52
-9.88
-12.63
-15.04
-17.25
-19.27
-21.23
-23.53
-26.83
-31.74
-38.35
-45.82
-52.39
-55.92
-54.69
-48.18
-37.26
-23.93
-10.44
1.53
11.35
19.31
26.11
32.29
37.85
42.47
45.9
48.31
50.36
52.87
56.3
60.46
64.52
67.44
68.48
67.5
64.9
61.31
57.11
52.37
47.02
41.32
36.16
33.09
33.83
39.63
50.6
65.56
82.32
98.3
111.32
119.96
123.85
123.39
119.39
112.74
104.05
93.58
81.44
67.74
52.87
37.51
22.39
8
-5.6
-18.81
-32.21
-46.14
-60.55
-74.98
-88.83
-101.61
-113.05
-122.89
-130.8
-136.23
-138.71
-138.04
-134.56
-129.02
-122.31
-115.11
-107.63
-99.68
-90.89
-80.99
-70.06
-58.56
-47.25
-37.01
-28.55
-22.23
-17.95
-15.22
-13.41
-11.98
-10.68
-9.51
-8.61
-8.07
-7.86
-7.95
-8.43
-9.52
-11.43
-14.09
-16.99
-19.23
-19.86
-18.3
-14.55
-9.21
-3.15
2.86
8.39
13.3
17.64
21.4
24.42
26.49
27.42
27.23
26.15
24.49
22.58
20.65
18.85
17.28
15.99
14.97
14.11
13.2
11.96
10.07
7.28
3.46
-1.22
-6.27
-10.88
-14.11
-15.09
-13.35
-8.97
-2.63
4.69
11.93
18.36
23.61
27.69
30.74
32.86
34.1
34.53
34.28
33.64
33.02
32.75
33.06
33.91
35.16
36.61
38.17
39.84
41.69
43.71
45.7
47.34
48.25
48.25
47.52
46.61
46.29
47.36
50.29
55.12
61.44
68.53
75.55
81.71
86.45
89.49
90.76
90.37
88.44
85.01
80.06
73.6
65.79
56.98
47.66
38.32
29.27
20.61
12.36
4.51
-2.89
-9.78
-16.18
-22.18
-27.9
-33.24
-37.77
-40.76
-41.35
-38.94
-33.42
-25.32
-15.67
-5.69
3.51
11.22
17.24
21.74
25.08
27.6
29.49
30.86
31.73
32.18
32.28
32.1
31.59
30.68
29.29
27.46
25.33
23.11
20.92
18.73
16.26
13.14
8.98
3.64
-2.61
-9.09
-14.89
-19.26
-21.97
-23.56
-25.18
-28.16
-33.47
-41.4
-51.47
-62.74
-74.17
-84.96
-94.59
-102.85
-109.68
-115.18
-119.58
-123.13
-125.99
-128.1
-129.07
-128.3
-125.24
-119.64
-111.74
-102.31
-92.45
-83.25
-75.44
-69.13
-63.74
-58.27
-51.68
-43.38
-33.41
-22.49
-11.73
-2.22
5.27
10.52
13.72
15.38
16.05
16.24
16.31
16.56
17.27
18.62
20.75
23.56
26.72
29.71
32.01
33.28
33.59
33.24
32.59
31.84
30.87
29.44
27.48
25.39
24.04
24.49
27.48
33.06
40.44
48.28
55.16
60.04
62.5
62.67
60.94
57.66
52.97
46.9
39.52
31.09
22.12
13.27
5.13
-1.93
-7.84
-12.78
-17.08
-21.06
-25.07
-29.47
-34.67
-40.91
-48.14
-55.86
-63.07
-68.6
-71.44
-71.12
-67.89
-62.65
-56.61
-51.01
-46.76
-44.32
-43.73
-44.69
-46.73
-49.29
-51.87
-54.08
-55.64
-56.38
-56.31
-55.55
-54.37
-53.06
-51.86
-50.84
-49.97
-49.19
-48.67
-48.8
-50.1
-52.82
-56.62
-60.44
-62.81
-62.39
-58.55
-51.67
-43.07
-34.38
-27.08
-22
-19.29
-18.65
-19.55
-21.54
-24.25
-27.28
-30.13
-32.18
-32.88
-31.87
-29.24
-25.5
-21.45
-17.92
-15.51
-14.43
-14.57
-15.64
-17.25
-19.01
-20.37
-20.64
-19.05
-15
-8.39
0.3
10.09
19.85
28.61
35.79
41.17
44.71
46.4
46.21
44.23
40.78
36.47
32.08
28.31
25.6
23.99
23.1
22.37
21.26
19.47
16.91
13.73
10.08
6.19
2.33
-0.91
-2.68
-2.03
1.73
8.58
17.75
27.82
37.27
44.96
50.33
53.37
54.29
53.2
50.13
45.11
38.42
30.73
22.92
15.87
10.14
5.81
2.55
-0.18
-2.98
-6.29
-10.35
-15.1
-20.19
-24.97
-28.5
-29.79
-28.06
-23.08
-15.35
-6.04
3.38
11.64
18.08
22.74
26.22
29.15
31.87
34.27
35.86
36.12
34.72
31.62
27.05
21.4
15.04
8.25
1.21
-6.06
-13.67
-21.79
-30.52
-39.68
-48.71
-56.69
-62.59
-65.6
-65.47
-62.57
-57.87
-52.56
-47.75
-44.23
-42.29
-41.85
-42.5
-43.71
-44.94
-45.71
-45.6
-44.26
-41.37
-36.73
-30.34
-22.51
-13.91
-5.4
2.15
8.11
12.19
14.4
14.99
14.36
13.08
11.88
11.6
12.89
15.91
20.19
24.73
28.44
30.59
31.03
30.12
28.43
26.33
23.89
21.02
17.73
14.3
11.22
8.99
7.87
7.75
8.28
9.08
9.86
10.38
10.38
9.53
7.54
4.46
0.85
-2.18
-3.37
-1.74
2.94
10.11
18.57
27.02
34.47
40.38
44.59
47.11
47.96
47.15
44.83
41.41
37.48
33.69
30.49
28
26.06
24.4
22.78
21.07
19.17
16.97
14.32
11.1
7.42
3.69
0.58
-1.25
-1.44
-0.1
2.18
4.58
6.35
7.03
6.52
4.88
2.19
-1.56
-6.4
-12.28
-18.88
-25.6
-31.67
-36.39
-39.33
-40.5
-40.29
-39.36
-38.56
-38.66
-40.24
-43.45
-47.72
-51.73
-53.64
-51.52
-43.94
-30.43
-11.64
11.02
35.9
61.57
87.16
112.18
136.4
159.58
181.1
199.73
213.44
219.69
216.17
201.86
177.65
146.33
111.5
76.1
41.45
7.31
-27.08
-61.65
-94.74
-123.46
-144.95
-157.43
-160.64
-155.38
-142.93
-124.68
-102.39
-78.42
-55.44
-35.66
-19.85
-7.13
4.42
16.33
28.74
40.15
48.15
50.71
47.16
38.39
26.28
12.76
-0.92
-14.3
-27.43
-40.37
-52.59
-62.75
-68.78
-68.58
-60.83
-45.66
-24.81
-0.97
23.36
46.89
69.8
93.17
117.89
143.72
169.06
191.46
208.65
219.34
223.52
222.09
216.28
207.06
195.1
180.84
164.72
147.39
129.65
112.36
96.31
82.14
70.24
60.84
53.92
49.26
46.4
44.64
42.93
40.02
34.75
26.42
15.32
2.76
-9.21
-18.61
-24.52
-27.52
-29.53
-32.84
-39.11
-48.46
-59.54
-70.18
-78.39
-83.06
-84.22
-82.73
-79.65
-75.86
-71.8
-67.71
-63.85
-60.51
-57.94
-56
-54.08
-51.19
-46.41
-39.38
-30.61
-21.34
-13.13
-7.22
-4.09
-3.41
-4.29
-5.71
-6.91
-7.58
-7.83
-7.97
-8.31
-8.91
-9.57
-9.92
-9.63
-8.66
-7.42
-6.67
-7.28
-9.89
-14.64
-21.01
-27.96
-34.18
-38.46
-40.05
-38.88
-35.67
-31.66
-28.27
-26.57
-27
-29.38
-33.14
-37.7
-42.75
-48.24
-54.17
-60.38
-66.43
-71.67
-75.55
-77.77
-78.38
-77.74
-76.36
-74.74
-73.3
-72.27
-71.79
-71.93
-72.7
-73.96
-75.32
-76.02
-75.03
-71.41
-64.63
-54.96
-43.45
-31.63
-20.99
-12.53
-6.55
-2.79
-0.65
0.44
0.92
1.06
1.05
1.03
1.1
1.28
1.48
1.48
1.03
-0.13
-2.13
-5.01
-8.71
-13.08
-17.94
-23.04
-27.96
-32.1
-34.75
-35.29
-33.43
-29.44
-24.13
-18.64
-14.09
-11.16
-9.94
-9.93
-10.32
-10.28
-9.25
-7.06
-3.74
0.62
5.99
12.33
19.45
26.89
33.99
40.13
44.9
48.2
50
50.07
47.89
42.79
34.47
23.41
11.05
-0.6
-9.6
-14.85
-16.46
-15.62
-14.05
-13.33
-14.29
-16.9
-20.35
-23.68
-26.19
-27.76
-28.8
-29.9
-31.37
-33.01
-34.1
-33.79
-31.47
-27.17
-21.58
-15.78
-10.85
-7.55
-6.17
-6.5
-7.99
-9.79
-10.91
-10.41
-7.57
-2.13
5.66
15.06
25.05
34.53
42.45
47.97
50.53
50.01
46.83
41.93
36.52
31.74
28.22
25.94
24.32
22.6
20.22
17.14
13.76
10.74
8.56
7.36
6.79
6.33
5.5
4.24
2.86
1.97
2.11
3.52
6.02
9.13
12.28
15.01
17
18.05
17.99
16.68
14.07
10.27
5.59
0.56
-4.31
-8.62
-12.21
-15.14
-17.66
-20.02
-22.38
-24.71
-26.79
-28.36
-29.21
-29.41
-29.33
-29.45
-30.2
-31.6
-33.17
-34.03
-33.33
-30.62
-26.12
-20.65
-15.35
-11.17
-8.6
-7.63
-7.97
-9.35
-11.74
-15.3
-20.14
-26.11
-32.66
-38.92
-43.99
-47.19
-48.34
-47.71
-45.84
-43.39
-40.92
-38.8
-37.26
-36.47
-36.46
-37.04
-37.69
-37.61
-35.96
-32.18
-26.27
-18.83
-10.89
-3.51
2.49
6.77
9.41
10.72
11.11
10.96
10.61
10.35
10.41
10.89
11.81
13.11
14.68
16.39
18.07
19.52
20.46
20.6
19.68
17.62
14.57
10.99
7.62
5.4
5.17
7.5
12.43
19.46
27.7
36.12
43.88
50.42
55.55
59.27
61.63
62.71
62.55
61.33
59.35
57.04
54.82
53
51.67
50.67
49.74
48.58
47
44.95
42.43
39.51
36.25
32.78
29.34
26.31
24.07
22.79
22.24
21.77
20.45
17.47
12.38
5.27
-3.3
-12.5
-21.5
-29.58
-36.18
-40.94
-43.68
-44.46
-43.58
-41.48
-38.61
-35.26
-31.61
-27.71
-23.7
-19.85
-16.59
-14.41
-13.69
-14.47
-16.26
-18.13
-18.85
-17.28
-12.77
-5.43
3.85
13.7
22.77
30.1
35.33
38.66
40.51
41.28
41.17
40.2
38.35
35.73
32.58
29.31
26.28
23.72
21.63
19.89
18.26
16.56
14.59
12.19
9.15
5.36
0.88
-3.86
-8.11
-10.9
-11.34
-8.99
-4.06
2.63
9.89
16.54
21.73
25.15
26.87
27.21
26.49
24.95
22.71
19.93
16.85
13.8
11.14
9.11
7.73
6.8
5.98
4.96
3.48
1.46
-1.13
-4.24
-7.7
-11.22
-14.28
-16.22
-16.34
-14.22
-9.91
-3.97
2.61
8.77
13.67
16.84
18.27
18.19
16.93
14.8
12.08
9.03
5.93
3.1
0.75
-1.04
-2.39
-3.55
-4.78
-6.27
-8.03
-10.02
-12.23
-14.66
-17.35
-20.18
-22.71
-24.24
-24
-21.45
-16.59
-9.95
-2.53
4.67
10.87
15.63
18.84
20.48
20.61
19.33
16.88
13.69
10.33
7.33
5.05
3.52
2.59
1.97
1.38
0.7
-0.15
-1.2
-2.55
-4.36
-6.86
-10.09
-13.86
-17.54
-20.25
-21.03
-19.26
-14.94
-8.71
-1.68
5.01
10.53
14.54
17.07
18.28
18.3
17.17
14.99
12.03
8.76
5.72
3.34
1.72
0.73
0.08
-0.54
-1.29
-2.27
-3.55
-5.21
-7.42
-10.31
-13.87
-17.84
-21.62
-24.37
-25.24
-23.63
-19.48
-13.33
-6.17
0.85
6.78
11.09
13.7
14.84
14.85
14.03
12.59
10.7
8.54
6.32
4.25
2.5
1.11
-0.03
-1.06
-2.14
-3.3
-4.54
-5.89
-7.46
-9.49
-12.21
-15.64
-19.39
-22.68
-24.58
-24.34
-21.71
-17.01
-11.02
-4.71
1.09
5.79
9.08
10.86
11.19
10.23
8.27
5.65
2.8
0.06
-2.33
-4.27
-5.81
-7.12
-8.44
-9.99
-11.9
-14.24
-17.04
-20.44
-24.83
-30.78
-38.78
-48.78
-59.94
-70.57
-78.69
-82.71
-82.04
-77.28
-69.8
-61.01
-51.71
-41.84
-30.81
-18.01
-3.36
12.55
28.64
43.77
57.15
68.55
78.26
86.91
95.19
103.6
112.3
121.06
129.42
136.75
142.45
145.92
146.66
144.29
138.72
130.37
120.27
109.79
100.1
91.52
83.26
73.81
61.79
46.87
30.11
13.56
-0.67
-11.32
-18.36
-22.63
-25.13
-26.38
-26.29
-24.55
-21.16
-16.67
-12.13
-8.6
-6.79
-6.89
-8.72
-11.98
-16.47
-22.12
-28.79
-36.04
-42.98
-48.49
-51.47
-51.35
-48.24
-42.91
-36.57
-30.4
-25.3
-21.74
-19.77
-19.17
-19.63
-20.86
-22.66
-24.88
-27.44
-30.22
-33.12
-35.94
-38.4
-40.23
-41.23
-41.45
-41.26
-41.25
-42.08
-43.99
-46.6
-48.85
-49.28
-46.57
-40.04
-29.93
-17.38
-4
8.58
19.11
26.92
31.88
34.28
34.59
33.4
31.28
28.74
26.19
23.89
21.89
20.14
18.52
16.97
15.58
14.52
13.89
13.64
13.42
12.72
11.02
8.08
4.14
-0.04
-3.45
-5.11
-4.48
-1.64
2.72
7.57
11.84
14.79
16.11
15.81
14.13
11.3
7.49
2.84
-2.49
-8.27
-14.2
-20.01
-25.48
-30.54
-35.18
-39.47
-43.5
-47.41
-51.46
-55.96
-61.21
-67.3
-73.85
-79.95
-84.35
-85.91
-84.03
-79.02
-71.93
-64.18
-56.99
-51.05
-46.54
-43.32
-41.22
-40.14
-39.96
-40.43
-41.09
-41.44
-41.16
-40.27
-39
-37.75
-36.83
-36.34
-36.19
-36.19
-36.04
-35.53
-34.52
-32.88
-30.4
-26.69
-21.21
-13.48
-3.35
8.73
21.76
34.41
45.44
54.09
60.15
63.81
65.36
64.95
62.56
58.16
51.94
44.39
36.26
28.36
21.27
15.08
9.45
3.67
-2.98
-10.91
-20.03
-29.72
-39
-46.78
-52.17
-54.58
-53.87
-50.26
-44.28
-36.68
-28.21
-19.62
-11.57
-4.74
0.21
2.66
2.31
-0.63
-5.29
-10.35
-14.48
-16.85
-17.48
-17.36
-18.14
-21.62
-29.25
-41.55
-57.76
-75.7
-91.92
-102.37
-103.29
-92.25
-68.63
-33.64
10.11
59.27
110.18
159.1
202.13
235.4
255.45
260
248.67
223.39
188.34
149.16
111.64
80.4
57.61
42.61
32.31
22.71
10.71
-4.47
-20.82
-34.32
-40.45
-35.89
-19.79
5.71
35.94
65.05
87.75
100.87
104.08
99.49
90.3
79.12
66.85
52.67
35.06
13.09
-12.69
-40.42
-67.75
-92.97
-115.33
-134.89
-151.83
-165.98
-176.87
-184.13
-187.96
-189.23
-189.18
-188.71
-187.77
-185.2
-179.03
-167.36
-149.29
-125.68
-99.29
-74.08
-53.84
-40.76
-34.45
-31.96
-28.94
-21.3
-6.72
14.71
41.05
69.71
98.57
126.52
152.93
176.93
196.79
210.15
214.77
209.39
194.34
171.52
143.93
114.9
87.27
62.86
42.3
25.39
11.71
1.08
-6.13
-9.44
-8.78
-5.03
0.02
4.35
6.61
6.73
5.84
5.45
6.39
8.28
9.75
9.34
6.37
1.43
-3.87
-7.76
-9.14
-8.1
-5.75
-3.63
-2.97
-4.24
-7.13
-10.99
-15.28
-19.83
-24.8
-30.36
-36.45
-42.83
-49.21
-55.5
-61.84
-68.32
-74.73
-80.38
-84.31
-85.77
-84.77
-82.25
-79.8
-78.94
-80.42
-83.84
-87.82
-90.6
-90.73
-87.43
-80.66
-71.01
-59.54
-47.67
-36.99
-28.98
-24.49
-23.42
-24.6
-26.2
-26.4
-24.13
-19.33
-12.88
-6.13
-0.3
3.92
6.46
7.73
8.26
8.52
8.76
9.08
9.65
10.8
12.99
16.52
21.26
26.64
32.06
37.37
43.28
51.11
62.12
76.64
93.45
109.97
123
129.67
128.18
118.17
100.65
77.63
51.83
26.19
3.32
-15.02
-28.28
-37.21
-43.54
-49.37
-56.53
-66.15
-78.43
-92.73
-107.65
-121.2
-130.8
-133.63
-127.09
-109.59
-81.22
-43.99
-1.53
41.68
81.34
114.21
138.65
154.63
163.21
165.91
164
158.27
148.99
136.11
119.57
99.53
76.4
50.91
24.01
-3.18
-29.46
-53.7
-75.07
-93.3
-108.8
-122.47
-135.22
-147.39
-158.31
-166.22
-168.69
-163.38
-148.77
-124.76
-92.73
-55.12
-14.63
26.5
66.89
105.93
143.24
178.13
209.14
234.11
250.44
255.6
247.76
226.37
192.57
149.27
100.66
51.48
6.09
-32.23
-61.7
-82.02
-94.02
-99.33
-99.76
-96.8
-91.32
-83.47
-73.04
-59.94
-44.69
-28.49
-13.03
0.09
9.77
15.57
17.52
15.99
11.56
5.23
-1.65
-7.5
-10.96
-11.29
-8.59
-3.62
2.61
9.32
16.12
22.76
28.81
33.45
35.64
34.42
29.33
20.58
9.05
-3.89
-16.62
-27.57
-35.56
-40.07
-41.63
-41.72
-42.58
-46.69
-56.1
-71.83
-93.62
-119.85
-147.79
-174.01
-194.92
-207.46
-209.65
-200.95
-182.28
-155.65
-123.75
-89.51
-55.75
-24.87
1.4
22.21
37.63
48.47
55.9
61.19
65.32
69.08
72.93
77.18
81.91
87.03
92.21
97.06
101.21
104.45
106.72
108.02
108.33
107.57
105.69
102.73
98.96
94.82
90.8
87.28
84.44
82.2
80.33
78.54
76.62
74.4
71.82
68.9
65.78
62.76
60.33
59.05
59.39
61.49
65.09
69.49
73.83
77.34
79.6
80.6
80.6
79.97
78.99
77.78
76.42
74.95
73.48
72.12
70.92
69.75
68.37
66.52
64.04
61.01
57.58
53.94
50.1
45.97
41.48
36.83
32.54
29.36
27.96
28.52
30.6
33.24
35.35
36.05
34.91
31.94
27.41
21.79
15.6
9.44
3.87
-0.75
-4.51
-7.97
-12.07
-17.78
-25.64
-35.56
-46.8
-58.29
-69.03
-78.37
-86.12
-92.45
-97.55
-101.41
-103.75
-104.14
-102.28
-98.26
-92.7
-86.52
-80.69
-75.85
-72.18
-69.45
-67.29
-65.41
-63.71
-62.24
-60.99
-59.83
-58.48
-56.69
-54.39
-51.83
-49.47
-47.77
-47.02
-47.12
-47.7
-48.31
-48.61
-48.56
-48.35
-48.2
-48.11
-47.76
-46.51
-43.67
-38.79
-31.86
-23.38
-14.16
-5.1
3.05
9.77
14.82
18.15
19.88
20.19
19.36
17.71
15.58
13.25
11
9.13
8
8.05
9.72
13.37
19.02
26.35
34.51
42.35
48.52
51.93
51.98
48.89
43.64
37.72
32.63
29.43
28.33
28.87
30.11
31.08
31.11
29.93
27.57
24.16
19.87
14.8
9.1
2.97
-3.34
-9.63
-15.75
-21.61
-27.09
-31.99
-36.03
-38.94
-40.61
-41.15
-40.98
-40.73
-41.08
-42.51
-44.99
-47.9
-50.1
-50.28
-47.46
-41.46
-33.05
-23.75
-15.32
-9.25
-6.33
-6.66
-9.88
-15.47
-22.98
-32.01
-42.15
-52.86
-63.52
-73.57
-82.5
-89.86
-95.17
-97.91
-97.59
-94.04
-87.55
-78.95
-69.31
-59.64
-50.56
-42.2
-34.32
-26.54
-18.53
-10.1
-1.15
8.32
18.17
28.11
37.61
46.09
53.09
58.5
62.52
65.58
68.02
69.99
71.44
72.19
72.2
71.55
70.51
69.32
68.17
67.2
66.57
66.45
66.83
67.32
67.05
64.79
59.51
50.99
40.14
28.81
19.22
13
10.64
11.41
13.78
16.13
17.39
17.21
15.85
13.74
11.19
8.28
4.93
1.12
-3
-7.1
-10.83
-13.93
-16.41
-18.55
-20.77
-23.4
-26.53
-29.92
-33.13
-35.78
-37.68
-38.96
-39.87
-40.55
-40.84
-40.41
-39
-36.67
-33.97
-31.66
-30.35
-30.2
-30.87
-31.8
-32.68
-33.68
-35.48
-38.89
-44.44
-52.05
-61.05
-70.45
-79.24
-86.77
-92.75
-97.17
-100.09
-101.44
-101.1
-99.04
-95.46
-90.78
-85.4
-79.33
-72.01
-62.49
-49.94
-34.17
-15.95
3.14
21.19
36.56
48.38
56.63
61.88
65.01
66.91
68.35
70.02
72.47
76.05
80.86
86.71
93.17
99.68
105.71
110.98
115.55
119.87
124.67
130.66
138.18
146.81
155.14
160.9
161.5
154.84
140.16
118.46
92.35
65.31
40.65
20.59
5.87
-4.18
-11.07
-16.56
-22.21
-29.04
-37.54
-47.67
-58.93
-70.43
-81.04
-89.57
-95.08
-97.1
-95.8
-91.98
-86.81
-81.58
-77.36
-74.88
-74.52
-76.42
-80.49
-86.33
-93.11
-99.48
-103.86
-104.8
-101.57
-94.42
-84.49
-73.43
-62.8
-53.69
-46.59
-41.52
-38.26
-36.51
-35.96
-36.22
-36.81
-37.24
-37.05
-35.99
-34.03
-31.38
-28.38
-25.41
-22.8
-20.79
-19.49
-18.99
-19.39
-20.78
-23.04
-25.75
-28.03
-28.74
-26.79
-21.48
-12.86
-1.7
10.74
23.04
34.11
43.28
50.44
55.75
59.55
62.09
63.57
64.15
64.08
63.72
63.52
63.88
64.97
66.64
68.47
69.87
70.27
69.19
66.22
60.96
53.22
43.11
31.38
19.5
9.37
2.79
0.78
3.21
8.84
15.89
22.72
28.35
32.51
35.35
37.09
37.74
37.21
35.44
32.63
29.17
25.47
21.77
18.06
14.14
9.85
5.11
-0.06
-5.67
-11.84
-18.85
-26.98
-36.3
-46.55
-56.95
-66.35
-73.41
-76.97
-76.35
-71.5
-63.07
-52.12
-39.79
-27.02
-14.37
-2.04
9.97
21.59
32.65
42.87
52.03
60.09
67.25
73.84
80.15
86.17
91.57
95.83
98.39
98.91
97.32
93.74
88.33
81.24
72.65
62.93
52.85
43.51
36.07
31.39
29.61
30.13
31.77
33.26
33.67
32.66
30.44
27.47
24.18
20.75
17.18
13.4
9.47
5.58
1.96
-1.24
-4.08
-6.86
-9.88
-13.39
-17.43
-21.84
-26.41
-30.97
-35.45
-39.74
-43.49
-46.04
-46.43
-43.75
-37.62
-28.52
-17.85
-7.52
0.65
5.48
6.69
4.7
0.28
-5.88
-13.31
-21.69
-30.61
-39.56
-47.96
-55.35
-61.6
-66.87
-71.51
-75.79
-79.8
-83.47
-86.75
-89.75
-92.84
-96.48
-101.04
-106.47
-112.08
-116.71
-118.95
-117.72
-112.6
-104.08
-93.36
-81.9
-70.97
-61.22
-52.64
-44.74
-36.92
-28.69
-19.8
-10.25
-0.15
10.33
20.97
31.5
41.62
51.05
59.73
67.7
75.15
82.23
88.82
94.54
98.78
100.97
100.78
98.35
94.24
89.38
84.77
81.3
79.53
79.57
81.11
83.45
85.73
87.08
86.88
84.86
81.14
76.1
70.23
63.96
57.61
51.37
45.4
39.82
34.7
30.02
25.6
21.22
16.7
11.98
7.18
2.54
-1.73
-5.59
-9.21
-12.9
-17.06
-22.04
-28.08
-35.24
-43.39
-52.11
-60.66
-68.11
-73.42
-75.86
-75.16
-71.64
-66.09
-59.41
-52.33
-45.23
-38.22
-31.22
-24.24
-17.36
-10.75
-4.58
1.1
6.3
11.07
15.45
19.34
22.6
25.01
26.35
26.56
25.69
23.96
21.58
18.69
15.23
11.01
5.83
-0.34
-7.42
-15.14
-23.22
-31.35
-39.09
-45.81
-50.74
-53.16
-52.68
-49.51
-44.42
-38.52
-32.89
-28.22
-24.78
-22.51
-21.29
-21.01
-21.61
-22.92
-24.6
-26.12
-27.05
-27.22
-26.89
-26.55
-26.69
-27.41
-28.32
-28.65
-27.58
-24.54
-19.4
-12.5
-4.54
3.47
10.43
15.21
16.95
15.36
10.87
4.63
-1.73
-6.56
-8.6
-7.27
-2.64
4.7
13.96
24.25
34.8
44.92
54.01
61.54
67.16
70.77
72.61
73.27
73.45
73.72
74.34
75.2
76
76.47
76.51
76.19
75.64
74.84
73.62
71.59
68.34
63.5
56.89
48.49
38.53
27.53
16.21
5.52
-3.56
-10.22
-14.02
-15.01
-13.7
-10.91
-7.53
-4.27
-1.58
0.38
1.62
2.2
2.16
1.56
0.5
-0.81
-2.09
-3.07
-3.6
-3.7
-3.51
-3.17
-2.76
-2.19
-1.25
0.27
2.46
5.14
7.9
10.21
11.55
11.7
10.76
9.21
7.69
6.87
7.22
8.89
11.78
15.58
19.9
24.39
28.73
32.65
35.9
38.2
39.3
39.02
37.34
34.42
30.62
26.42
22.32
18.78
16.06
14.24
13.24
12.91
13.1
13.84
15.25
17.47
20.5
24.15
27.99
31.49
34.15
35.63
35.81
34.74
32.57
29.56
25.98
22.15
18.45
15.18
12.55
10.55
8.99
7.48
5.58
2.86
-0.98
-6.11
-12.51
-20.03
-28.37
-37.17
-45.97
-54.28
-61.67
-67.85
-72.75
-76.54
-79.6
-82.4
-85.32
-88.63
-92.39
-96.53
-100.85
-105.19
-109.35
-113.21
-116.68
-119.74
-122.35
-124.39
-125.5
-125.03
-122.24
-116.51
-107.72
-96.45
-83.88
-71.4
-60.15
-50.7
-43.12
-37.16
-32.62
-29.47
-27.79
-27.57
-28.53
-30.18
-31.95
-33.42
-34.37
-34.79
-34.8
-34.56
-34.2
-33.82
-33.47
-33.07
-32.48
-31.46
-29.88
-27.72
-25.17
-22.55
-20.29
-18.73
-18
-17.97
-18.18
-17.89
-16.33
-12.87
-7.38
-0.2
7.87
15.9
23.11
29.07
33.63
36.85
38.81
39.55
39.06
37.4
34.8
31.66
28.49
25.71
23.55
21.91
20.43
18.65
16.23
13.18
9.79
6.54
3.78
1.61
-0.14
-1.78
-3.56
-5.58
-7.86
-10.35
-13.01
-15.64
-17.78
-18.75
-17.82
-14.45
-8.58
-0.7
8.31
17.51
26.19
34.06
41.15
47.65
53.63
58.99
63.44
66.75
68.92
70.24
71.22
72.26
73.5
74.71
75.49
75.54
74.91
73.95
73.11
72.67
72.52
72.18
71.03
68.52
64.31
58.3
50.58
41.35
31.08
20.45
10.41
1.97
-4.12
-7.58
-8.7
-8.13
-6.65
-4.9
-3.25
-1.84
-0.69
0.19
0.78
1.08
1.15
1.12
1.21
1.59
2.32
3.31
4.32
5.07
5.33
5.07
4.35
3.34
2.15
0.78
-0.94
-3.27
-6.46
-10.64
-15.64
-20.98
-25.94
-29.6
-31.16
-30.2
-26.74
-21.31
-14.68
-7.65
-0.78
5.58
11.28
16.17
20.02
22.62
23.78
23.52
22.08
19.84
17.2
14.49
11.9
9.47
7.2
5.08
3.15
1.48
0.1
-1.05
-2.2
-3.72
-5.99
-9.29
-13.63
-18.63
-23.57
-27.57
-29.81
-29.86
-27.76
-23.99
-19.29
-14.37
-9.8
-5.88
-2.79
-0.65
0.38
0.22
-1.04
-3.11
-5.53
-7.81
-9.63
-10.91
-11.82
-12.66
-13.71
-15.07
-16.65
-18.19
-19.42
-20.16
-20.51
-20.73
-21.32
-22.77
-25.37
-29.04
-33.22
-37.01
-39.34
-39.32
-36.56
-31.27
-24.2
-16.35
-8.63
-1.67
4.24
9.06
12.78
15.37
16.77
16.96
16.09
14.49
12.57
10.71
9.17
8
7.1
6.25
5.3
4.17
2.9
1.58
0.23
-1.23
-2.92
-4.97
-7.41
-10.26
-13.47
-17.04
-20.83
-24.48
-27.34
-28.54
-27.33
-23.38
-16.96
-8.96
-0.55
7.28
13.88
19.14
23.17
26.13
28.06
28.86
28.48
27.02
24.82
22.39
20.21
18.61
17.59
16.9
16.13
14.93
13.13
10.85
8.34
5.9
3.72
1.82
0.07
-1.68
-3.61
-5.88
-8.69
-12.13
-16.15
-20.32
-23.82
-25.69
-25.06
-21.59
-15.62
-8.05
-0.01
7.49
13.86
18.86
22.53
24.97
26.24
26.42
25.67
24.26
22.57
20.98
19.75
18.97
18.6
18.48
18.43
18.33
18.05
17.57
16.87
15.97
14.94
13.86
12.8
11.76
10.69
9.52
8.16
6.55
4.67
2.55
0.37
-1.52
-2.61
-2.32
-0.23
3.79
9.44
16.08
22.88
29.07
34.15
37.89
40.27
41.33
41.12
39.7
37.23
34.04
30.56
27.25
24.42
22.13
20.2
18.29
16.09
13.46
10.48
7.39
4.46
1.86
-0.42
-2.51
-4.61
-6.91
-9.53
-12.51
-15.83
-19.45
-23.23
-26.87
-29.9
-31.76
-31.89
-29.97
-26.05
-20.51
-14
-7.26
-0.98
4.31
8.19
10.43
10.9
9.7
7.11
3.61
-0.27
-4.07
-7.46
-10.27
-12.49
-14.22
-15.64
-16.95
-18.38
-20.05
-21.94
-23.9
-25.69
-27.12
-28.19
-29.2
-30.62
-32.96
-36.43
-40.71
-44.91
-47.87
-48.53
-46.37
-41.59
-35.03
-27.74
-20.68
-14.4
-9.12
-4.89
-1.76
0.19
0.89
0.48
-0.66
-1.97
-2.9
-3.14
-2.72
-1.94
-1.29
-1.12
-1.6
-2.61
-3.85
-4.98
-5.81
-6.34
-6.77
-7.4
-8.55
-10.43
-13.16
-16.67
-20.68
-24.67
-27.89
-29.51
-28.84
-25.55
-19.84
-12.35
-4.04
4.13
11.38
17.28
21.71
24.73
26.52
27.2
26.9
25.83
24.28
22.69
21.49
20.95
21.04
21.45
21.71
21.44
20.55
19.27
18.02
17.11
16.6
16.22
15.54
14.09
11.61
8.09
3.79
-0.73
-4.8
-7.64
-8.56
-7.13
-3.34
2.4
9.37
16.68
23.59
29.52
34.15
37.29
38.89
38.95
37.61
35.18
32.11
28.9
26
23.61
21.7
20.05
18.37
16.45
14.22
11.8
9.39
7.16
5.15
3.24
1.17
-1.4
-4.73
-8.98
-13.99
-19.28
-24.04
-27.29
-28.2
-26.4
-22.13
-16.2
-9.71
-3.71
1.12
4.49
6.38
6.81
5.83
3.46
-0.1
-4.39
-8.84
-12.83
-16.04
-18.43
-20.25
-21.81
-23.29
-24.63
-25.54
-25.75
-25.08
-23.64
-21.72
-19.73
-18.06
-16.97
-16.51
-16.5
-16.46
-15.67
-13.3
-8.7
-1.73
7.17
16.97
26.4
34.36
40.24
44
46
46.74
46.54
45.53
43.66
40.95
37.56
33.77
29.88
26.03
22.22
18.3
14.15
9.81
5.43
1.23
-2.63
-6.16
-9.57
-13.18
-17.31
-22.15
-27.48
-32.74
-37.01
-39.34
-38.96
-35.65
-29.78
-22.19
-13.95
-6.07
0.67
5.8
9.08
10.49
10.19
8.49
5.87
2.81
-0.16
-2.7
-4.62
-5.98
-6.93
-7.72
-8.48
-9.25
-9.91
-10.33
-10.48
-10.5
-10.69
-11.47
-13.18
-15.92
-19.44
-23.1
-25.99
-27.2
-26.06
-22.45
-16.87
-10.32
-3.95
1.24
4.65
6.1
5.72
3.82
0.72
-3.3
-8
-13.13
-18.4
-23.49
-28.05
-31.67
-34.02
-34.86
-34.18
-32.15
-29.1
-25.39
-21.29
-16.99
-12.63
-8.44
-4.74
-1.93
-0.25
0.41
0.61
1.28
3.38
7.47
13.56
20.99
28.76
35.9
41.72
45.86
48.16
48.45
46.47
42.03
35.2
26.43
16.56
6.52
-2.92
-11.26
-18.33
-24.2
-29.03
-32.97
-36.17
-38.71
-40.74
-42.39
-43.85
-45.36
-47.17
-49.52
-52.47
-55.75
-58.75
-60.57
-60.31
-57.35
-51.56
-43.31
-33.38
-22.71
-12.12
-2.28
6.36
13.53
19.01
22.72
24.7
25.2
24.63
23.46
22.14
20.89
19.71
18.43
16.74
14.44
11.43
7.83
3.83
-0.33
-4.5
-8.69
-12.98
-17.55
-22.59
-28.23
-34.51
-41.25
-48.02
-54.16
-58.83
-61.37
-61.42
-59.12
-55.01
-49.93
-44.83
-40.54
-37.66
-36.47
-36.89
-38.41
-40.19
-41.09
-39.8
-35.12
-26.26
-13.29
2.76
20.01
36.31
49.92
60.03
66.93
71.54
74.66
76.45
76.34
73.42
67.2
57.97
46.91
35.67
25.83
18.49
14.21
12.99
14.34
17.33
20.62
22.73
22.64
20.35
17.12
15
15.92
20.64
28.38
37.22
45.2
51.37
56.12
60.71
66.24
72.93
80.07
86.78
92.69
98.19
103.91
109.83
114.75
116.6
113.42
104.46
90.67
74.37
58.28
44.54
34.21
27.28
23.26
21.59
21.92
24.11
28.07
33.69
41
50.15
61.34
74.5
88.82
102.46
112.49
115.48
108.57
90.59
62.94
29.49
-4.41
-33.64
-54.89
-67.48
-72.98
-74.11
-73.37
-72.17
-70.92
-69.52
-68.08
-67.04
-66.75
-66.88
-66.11
-62.51
-54.4
-41.23
-23.92
-4.65
13.99
29.85
41.76
49.47
53.3
53.68
50.82
44.69
35.25
22.68
7.66
-8.69
-24.87
-39.4
-51.16
-59.74
-65.52
-69.57
-73.13
-77.2
-82.26
-88.21
-94.47
-100.3
-104.9
-107.52
-107.55
-104.78
-99.47
-92.39
-84.49
-76.43
-68.25
-59.4
-49.22
-37.5
-25.04
-13.54
-5.12
-1.52
-3.5
-10.71
-21.81
-35.14
-49.2
-63.03
-76.26
-88.79
-100.5
-110.92
-119.38
-125.18
-127.97
-127.85
-125.23
-120.66
-114.81
-108.76
-104.15
-102.92
-106.55
-114.81
-125.09
-132.74
-132.64
-121.41
-99.02
-68.98
-36.92
-8.45
12.67
25.32
30.68
31.36
30.51
31.26
35.84
44.92
57.05
68.87
76.53
77.73
73.46
68.25
68.51
79.54
102.68
134.17
166.31
190.43
200.06
192.82
170.61
138.18
101.12
64.29
31.06
3.39
-17.73
-31.95
-39.68
-42.17
-41.65
-40.99
-42.83
-48.75
-58.54
-70.18
-80.34
-85.5
-82.92
-71.5
-52.12
-27.42
-1.05
23.46
43.73
59.26
71.41
82.68
95.49
111.01
128.69
146.41
161.55
172.01
177.02
177.11
173.62
167.83
160.44
151.4
140.14
126.02
108.72
88.45
65.94
42.12
17.77
-6.65
-30.91
-54.86
-78.11
-100.05
-120.05
-137.73
-153.22
-166.94
-179.15
-189.46
-196.68
-199.19
-195.48
-184.79
-167.3
-144
-116.39
-86.17
-55.09
-24.94
2.6
26.21
45.2
59.63
70.24
78
83.79
88.04
90.77
91.74
90.77
87.92
83.57
78.32
72.79
67.37
62.15
56.79
50.72
43.31
34.07
22.93
10.24
-3.18
-16.31
-28.18
-38.19
-46.3
-53.03
-59.17
-65.39
-71.76
-77.62
-81.77
-82.91
-80.19
-73.54
-63.7
-51.81
-39.12
-26.62
-14.91
-4.42
4.48
11.42
16.15
18.7
19.49
19.33
19.12
19.58
21.06
23.45
26.33
29.07
31.06
31.83
31.07
28.79
25.33
21.34
17.66
15.11
14.26
15.32
18.07
22.01
26.58
31.23
35.5
39.07
41.7
43.21
43.52
42.66
40.76
38
34.61
30.84
26.91
23.11
19.65
16.69
14.2
12.03
9.85
7.21
3.71
-0.92
-6.7
-13.26
-19.92
-25.75
-29.88
-31.71
-31.18
-28.73
-25.21
-21.58
-18.65
-16.88
-16.39
-17.01
-18.54
-20.77
-23.55
-26.76
-30.18
-33.47
-36.26
-38.19
-39.12
-39.11
-38.48
-37.58
-36.77
-36.29
-36.3
-36.85
-37.84
-38.9
-39.45
-38.69
-35.99
-31.05
-24.16
-16.04
-7.66
0.15
6.94
12.59
17.18
20.78
23.23
24.27
23.7
21.57
18.43
15.24
13.13
13.1
15.7
20.74
27.37
34.21
39.74
42.64
42.11
37.94
30.67
21.4
11.72
3.4
-1.99
-3.48
-1
4.67
12.02
19.33
25.2
28.94
30.69
31.16
31.25
31.5
31.89
31.91
30.92
28.48
24.69
20.06
15.32
11.1
7.71
5.2
3.39
1.84
-0.12
-3.33
-8.66
-16.47
-26.31
-36.76
-45.79
-51.5
-52.9
-50.14
-44.43
-37.39
-30.42
-24.33
-19.38
-15.47
-12.44
-10.22
-8.8
-8.15
-8.14
-8.44
-8.52
-7.71
-5.38
-1.11
5.05
12.48
20.11
26.69
31.17
33
32.25
29.53
25.84
22.3
20.07
20.13
23.06
28.86
36.82
45.57
53.42
58.69
60.15
57.29
50.34
40.26
28.46
16.57
6.23
-1.12
-4.45
-3.3
2.12
10.81
21.11
31.03
38.6
42.4
41.98
38.07
32.31
26.87
23.75
24.18
28.34
35.36
43.56
51.03
56.14
58.04
56.92
53.78
50.03
46.95
45.26
45.21
46.55
48.9
51.73
54.33
55.75
54.83
50.57
42.49
30.97
17.19
2.81
-10.53
-21.74
-30.5
-37.33
-43.21
-49.21
-55.98
-63.48
-70.97
-77.35
-81.69
-83.79
-84.27
-84.36
-85.44
-88.4
-93.32
-99.44
-105.54
-110.34
-112.78
-112.25
-108.46
-101.42
-91.31
-78.61
-64.11
-48.88
-34.17
-21.06
-10.23
-1.79
4.77
10.29
15.74
21.85
29.02
37.3
46.52
56.39
66.61
76.85
86.7
95.65
103.14
108.74
112.13
113.21
111.89
108.04
101.46
92.04
79.99
65.92
50.86
35.98
22.24
10.14
-0.31
-9.36
-17.28
-24.07
-29.49
-33.21
-35.13
-35.62
-35.5
-35.75
-37.11
-39.76
-43.18
-46.44
-48.49
-48.47
-45.88
-40.58
-32.72
-22.72
-11.39
0.17
10.72
19.22
25.17
28.77
30.7
31.73
32.26
32.11
30.66
27.25
21.58
13.91
4.97
-4.34
-13.33
-21.64
-29.27
-36.44
-43.37
-50.17
-56.81
-63.03
-68.46
-72.54
-74.65
-74.2
-70.83
-64.52
-55.7
-45.14
-33.79
-22.53
-12.01
-2.65
5.26
11.46
15.64
17.59
17.24
14.88
11.1
6.66
2.29
-1.48
-4.47
-6.72
-8.4
-9.71
-10.78
-11.76
-12.78
-13.99
-15.41
-16.86
-17.86
-17.7
-15.66
-11.32
-4.83
3.14
11.51
19.21
25.47
30.02
32.98
34.65
35.31
35.09
34.02
32.16
29.69
26.9
24.1
21.47
19
16.59
14.07
11.35
8.35
4.98
1.07
-3.59
-9.15
-15.53
-22.35
-28.89
-34.26
-37.63
-38.56
-37.09
-33.84
-29.73
-25.78
-22.75
-21
-20.48
-20.9
-21.89
-23.21
-24.76
-26.56
-28.6
-30.76
-32.85
-34.57
-35.7
-36.06
-35.62
-34.47
-32.8
-30.9
-29.09
-27.74
-27.21
-27.77
-29.46
-31.98
-34.63
-36.4
-36.27
-33.52
-28.03
-20.34
-11.51
-2.7
5.1
11.36
15.99
19.15
21.1
22.03
22.09
21.42
20.24
18.76
17.18
15.66
14.21
12.84
11.53
10.29
9.14
8.08
6.99
5.65
3.82
1.28
-1.92
-5.37
-8.38
-10.09
-9.78
-7.12
-2.32
3.9
10.59
16.84
21.98
25.73
28.06
29.16
29.22
28.44
26.99
25.08
22.92
20.76
18.8
17.12
15.74
14.54
13.44
12.32
11.09
9.64
7.79
5.38
2.28
-1.5
-5.74
-9.99
-13.62
-15.91
-16.23
-14.2
-9.82
-3.6
3.63
10.83
17.09
21.79
24.7
25.94
25.81
24.72
23.02
21.05
19.07
17.26
15.77
14.65
13.94
13.61
13.63
13.95
14.45
15
15.38
15.35
14.66
13.09
10.55
7.17
3.4
-0.05
-2.29
-2.55
-0.38
4.15
10.47
17.66
24.74
30.9
35.65
38.82
40.44
40.57
39.26
36.65
32.99
28.73
24.44
20.6
17.43
14.69
11.88
8.36
3.77
-1.83
-7.97
-13.96
-19.2
-23.44
-26.79
-29.62
-32.34
-35.23
-38.27
-41.21
-43.55
-44.67
-43.97
-41
-35.62
-28.07
-18.94
-9.01
0.98
10.48
19.2
27.03
33.91
39.75
44.41
47.81
50
51.2
51.77
52.01
52.1
52.03
51.68
50.92
49.71
48.16
46.44
44.7
42.88
40.75
37.94
34.04
28.77
21.96
13.66
4.06
-6.35
-16.92
-26.81
-35.16
-41.39
-45.3
-47.17
-47.62
-47.35
-46.91
-46.55
-46.25
-45.83
-45.18
-44.26
-43.17
-42
-40.77
-39.4
-37.66
-35.37
-32.45
-29.04
-25.48
-22.17
-19.45
-17.42
-15.91
-14.68
-13.52
-12.47
-11.79
-11.87
-12.99
-15.15
-17.93
-20.55
-22.05
-21.58
-18.68
-13.49
-6.66
0.81
7.9
13.88
18.43
21.61
23.54
24.31
23.82
21.96
18.76
14.51
9.76
5.02
0.61
-3.49
-7.6
-12.15
-17.42
-23.46
-30
-36.67
-43.1
-49.13
-54.83
-60.46
-66.35
-72.67
-79.29
-85.66
-90.86
-93.77
-93.36
-89.06
-80.88
-69.57
-56.36
-42.71
-29.86
-18.56
-9.01
-0.99
5.84
11.74
16.78
20.94
24.25
26.88
29.12
31.19
33.06
34.42
34.85
34.04
32.02
29.15
25.98
22.96
20.25
17.68
14.86
11.4
7.15
2.29
-2.66
-6.94
-9.76
-10.53
-8.93
-5.07
0.68
7.79
15.73
24.04
32.31
40.18
47.24
53.1
57.48
60.24
61.51
61.67
61.23
60.78
60.84
61.7
63.41
65.77
68.45
71.06
73.22
74.67
75.26
74.86
73.45
70.95
67.35
62.74
57.36
51.68
46.33
41.96
39.01
37.57
37.29
37.5
37.4
36.33
33.94
30.23
25.4
19.77
13.56
6.9
-0.21
-7.76
-15.6
-23.46
-30.96
-37.71
-43.43
-48.08
-51.77
-54.71
-57.06
-58.88
-60.23
-61.28
-62.34
-63.8
-65.89
-68.42
-70.7
-71.67
-70.29
-65.95
-58.77
-49.52
-39.37
-29.48
-20.66
-13.3
-7.45
-2.95
0.41
2.87
4.67
6.07
7.28
8.47
9.68
10.87
11.9
12.65
13.02
12.96
12.49
11.62
10.32
8.43
5.7
1.83
-3.3
-9.45
-15.88
-21.45
-24.93
-25.44
-22.75
-17.37
-10.4
-3.09
3.54
8.91
12.94
15.78
17.71
18.9
19.51
19.63
19.35
18.75
17.82
16.55
14.94
13.16
11.54
10.49
10.28
10.88
11.95
12.9
13.22
12.63
11.17
9.12
6.89
4.85
3.38
2.86
3.73
6.41
11.04
17.44
24.99
32.76
39.64
44.63
46.86
45.63
40.5
31.33
18.42
2.77
-13.85
-29
-40.06
-44.98
-43.1
-35.59
-25.24
-15.52
-9.36
-8.07
-11.08
-16.38
-21.62
-25.1
-26.25
-25.4
-23.19
-19.97
-15.73
-10.28
-3.64
3.92
12.01
20.35
28.85
37.51
46.23
54.6
62.04
68.03
72.27
74.81
75.92
76.06
75.67
75.21
75.06
75.4
76.02
76.33
75.53
72.95
68.46
62.53
56.05
49.88
44.49
39.76
35.2
30.32
24.88
19.11
13.53
8.71
5.1
2.88
1.98
2.15
3
4.03
4.62
4.18
2.2
-1.54
-6.88
-13.26
-19.9
-25.95
-30.75
-33.96
-35.68
-36.51
-37.25
-38.79
-41.71
-46.13
-51.69
-57.76
-63.69
-69.09
-73.9
-78.24
-82.19
-85.62
-88.11
-89.1
-88.12
-85.02
-79.99
-73.53
-66.24
-58.66
-51.22
-44.19
-37.74
-31.97
-26.95
-22.7
-19.16
-16.13
-13.34
-10.42
-7.04
-2.96
1.87
7.28
12.86
18.06
22.35
25.35
26.86
26.85
25.37
22.44
18.07
12.39
5.8
-0.88
-6.59
-10.27
-11.35
-10.03
-7.21
-4.2
-2.3
-2.46
-5.09
-10.19
-17.49
-26.54
-36.78
-47.57
-58.16
-67.73
-75.49
-80.76
-83.07
-82.34
-78.92
-73.64
-67.57
-61.71
-56.71
-52.69
-49.49
-46.9
-44.93
-43.77
-43.33
-42.91
-41.08
-36.18
-27.08
-13.89
1.84
17.68
31.17
40.67
45.64
46.26
42.85
35.45
24.02
8.92
-8.54
-26.2
-41.67
-53.1
-59.64
-61.33
-58.6
-51.74
-40.84
-26.05
-8.1
11.48
30.44
46.4
57.46
62.75
62.64
58.6
52.83
47.74
45.28
46.43
51.04
57.98
65.72
72.87
78.51
82.19
83.74
82.99
79.91
74.55
67.4
59.32
51.36
44.48
39.18
35.42
32.76
30.69
28.82
27.04
25.49
24.44
24.16
24.75
26.08
27.74
29.19
30.06
30.44
31
32.85
37
43.86
52.89
62.62
71.07
76.27
76.64
71.3
60.05
43.55
23.16
0.69
-22.01
-43.49
-62.94
-80.09
-94.87
-107.15
-116.66
-123.33
-127.49
-130.09
-132.34
-135.3
-139.35
-143.99
-147.95
-149.54
-147.01
-138.96
-124.57
-103.75
-77.31
-46.8
-14.39
17.56
46.89
71.99
91.94
106.51
115.98
120.88
121.78
119.13
113.24
104.43
93.21
80.36
66.83
53.58
41.26
30.15
20.19
11.16
2.91
-4.58
-11.3
-17.35
-22.95
-28.23
-32.95
-36.27
-37.03
-34.18
-27.46
-17.65
-6.53
3.73
11.25
14.92
14.53
10.57
3.82
-4.9
-14.9
-25.61
-36.55
-47.26
-57.41
-66.77
-75.3
-83.03
-90.04
-96.37
-101.91
-106.5
-109.99
-112.33
-113.69
-114.37
-114.64
-114.36
-112.86
-108.98
-101.47
-89.48
-73.04
-53.12
-31.38
-9.64
10.61
28.46
43.61
56.17
66.39
74.45
80.38
84.06
85.3
84
80.23
74.42
67.3
59.72
52.41
45.69
39.45
33.22
26.43
18.68
9.95
0.62
-8.45
-16.1
-21
-22
-18.47
-10.62
0.39
12.71
24.31
33.53
39.54
42.44
43.03
42.34
41.23
40.24
39.6
39.43
39.83
40.98
42.96
45.82
49.4
53.54
58.05
62.69
67.04
70.34
71.58
69.77
64.42
55.96
45.82
35.91
28.07
23.3
21.48
21.63
22.4
22.75
22.16
20.61
18.24
15.09
11.01
5.88
-0.19
-6.75
-13.1
-18.53
-22.64
-25.46
-27.43
-29.17
-31.29
-34.19
-38.02
-42.67
-47.92
-53.32
-58.21
-61.65
-62.57
-60.02
-53.51
-43.35
-30.6
-16.84
-3.64
7.86
17.13
24.14
29.09
32.15
33.37
32.79
30.62
27.29
23.41
19.58
16.28
13.71
11.84
10.44
9.25
7.97
6.34
4.1
1.08
-2.7
-6.93
-10.9
-13.62
-14.09
-11.67
-6.32
1.28
9.92
18.29
25.31
30.43
33.63
35.19
35.52
34.91
33.54
31.5
28.96
26.19
23.54
21.33
19.72
18.65
17.86
17.03
15.88
14.15
11.7
8.41
4.3
-0.3
-4.64
-7.69
-8.37
-6.02
-0.72
6.64
14.68
21.95
27.41
30.64
31.73
31.14
29.32
26.61
23.19
19.21
14.85
10.44
6.41
3.21
1.11
0.13
0.03
0.43
0.93
1.25
1.18
0.57
-0.66
-2.45
-4.41
-5.77
-5.54
-2.76
3.01
11.49
21.62
31.88
40.69
46.86
49.88
49.9
47.56
43.67
38.89
33.69
28.34
23.04
18.09
13.8
10.38
7.78
5.66
3.48
0.72
-2.93
-7.54
-13.03
-19.38
-26.61
-34.67
-43.23
-51.53
-58.49
-63.01
-64.33
-62.36
-57.77
-51.8
-45.93
-41.54
-39.57
-40.41
-43.87
-49.34
-56
-62.98
-69.52
-75
-78.93
-80.95
-80.94
-79
-75.53
-71.04
-66.09
-61.09
-56.24
-51.77
-47.87
-44.86
-42.96
-42.12
-41.81
-41.06
-38.73
-33.89
-26.19
-15.9
-3.87
8.75
20.81
31.3
39.46
44.82
47.29
47.09
44.82
41.3
37.39
33.73
30.6
27.9
25.32
22.57
19.51
16.23
12.94
9.78
6.73
3.52
-0.21
-4.82
-10.46
-16.94
-23.68
-29.8
-34.31
-36.36
-35.55
-32.04
-26.51
-20.04
-13.77
-8.65
-5.25
-3.75
-3.92
-5.38
-7.66
-10.34
-13.09
-15.71
-18.15
-20.43
-22.63
-24.74
-26.6
-27.94
-28.41
-27.8
-26.1
-23.58
-20.73
-18.19
-16.63
-16.64
-18.57
-22.36
-27.31
-32.17
-35.33
-35.35
-31.49
-24.1
-14.58
-4.91
3
7.96
9.82
9.34
7.82
6.64
6.87
9.15
13.77
20.83
30.17
41.38
53.71
66.07
77.34
86.64
93.57
98.17
100.68
101.17
99.34
94.57
86.31
74.45
59.55
42.8
25.72
9.84
-3.64
-13.92
-20.7
-24.1
-24.72
-23.59
-22.02
-21.32
-22.46
-25.66
-30.29
-35.16
-38.98
-40.93
-40.91
-39.45
-37.39
-35.47
-34.19
-33.77
-34.32
-35.88
-38.4
-41.62
-45.12
-48.48
-51.58
-54.71
-58.42
-63.06
-68.38
-73.26
-76.08
-75.35
-70.45
-61.96
-51.52
-41.18
-32.76
-27.33
-25.18
-26.01
-29.08
-33.19
-36.54
-36.9
-32.38
-22.45
-8.73
5.26
15.58
19.95
19.17
17.11
19.08
29.38
49.44
77.34
108.87
139.35
165.16
184.31
196.2
200.96
199.06
191.15
178.33
162.22
144.7
127.56
112.02
98.46
86.52
75.47
64.72
54.28
44.76
37.04
31.72
28.76
27.47
26.82
26.03
24.83
23.37
21.75
19.58
15.9
9.56
-0.3
-13.78
-30.19
-48.2
-66.17
-82.35
-94.99
-102.48
-103.76
-98.68
-88.23
-74.4
-59.55
-45.64
-33.8
-24.2
-16.46
-10.24
-5.53
-2.73
-2.21
-4.04
-7.67
-12.04
-15.98
-18.57
-19.44
-18.77
-17.09
-14.93
-12.63
-10.3
-8.08
-6.3
-5.55
-6.4
-8.99
-12.8
-16.71
-19.39
-19.88
-17.93
-14.14
-9.61
-5.55
-2.86
-1.96
-2.83
-5.17
-8.63
-12.9
-17.78
-23.07
-28.43
-33.21
-36.38
-36.81
-33.73
-27.36
-19.06
-11.16
-6.1
-5.66
-10.45
-19.86
-32.46
-46.45
-60.01
-71.37
-78.87
-81.09
-77.17
-67.13
-52.06
-33.92
-15.16
1.87
15.39
24.5
29.16
30.08
28.32
24.97
20.85
16.46
12.01
7.66
3.64
0.19
-2.54
-4.59
-6.19
-7.72
-9.55
-11.95
-15.04
-18.89
-23.53
-28.82
-34.33
-39.21
-42.32
-42.56
-39.31
-32.75
-23.88
-14.19
-5.15
2.2
7.49
10.8
12.47
12.83
12.1
10.51
8.33
5.98
3.89
2.46
1.87
2.11
2.97
4.16
5.4
6.48
7.21
7.33
6.53
4.49
1.12
-3.19
-7.56
-10.7
-11.35
-8.79
-3.07
4.94
13.89
22.44
29.56
34.75
37.88
39.01
38.25
35.74
31.7
26.55
20.92
15.52
10.95
7.55
5.31
3.89
2.82
1.62
-0.08
-2.53
-5.94
-10.4
-15.88
-21.98
-27.81
-32.13
-33.59
-31.29
-25.17
-16.09
-5.61
4.59
13.2
19.51
23.4
25.03
24.62
22.35
18.46
13.36
7.65
2.03
-2.89
-6.75
-9.44
-11.06
-11.79
-11.84
-11.46
-10.96
-10.73
-11.19
-12.67
-15.31
-18.89
-22.8
-25.99
-27.17
-25.23
-19.64
-10.77
0.19
11.53
21.64
29.44
34.62
37.43
38.36
37.89
36.28
33.72
30.44
26.83
23.32
20.3
17.93
16.18
14.82
13.55
12.1
10.23
7.74
4.42
0.11
-5.2
-11.23
-17.29
-22.24
-24.8
-23.93
-19.22
-11.18
-1.06
9.46
18.85
26.13
31
33.69
34.7
34.47
33.33
31.53
29.3
26.96
24.81
23.1
21.9
21.11
20.45
19.63
18.44
16.8
14.75
12.36
9.58
6.19
1.93
-3.26
-9.02
-14.47
-18.38
-19.59
-17.44
-12.02
-4.18
4.78
13.56
21.12
26.88
30.66
32.51
32.67
31.47
29.35
26.83
24.41
22.43
21.01
19.98
19.04
17.84
16.19
14.1
11.75
9.31
6.9
4.42
1.63
-1.81
-6.15
-11.42
-17.31
-23.09
-27.77
-30.3
-29.87
-26.25
-19.9
-11.81
-3.2
4.8
11.45
16.38
19.55
21.07
21.14
20
18.04
15.7
13.46
11.65
10.42
9.65
9.09
8.48
7.64
6.53
5.25
3.9
2.48
0.82
-1.38
-4.5
-8.76
-14.13
-20.06
-25.58
-29.41
-30.43
-28.01
-22.33
-14.3
-5.27
3.43
10.9
16.73
20.97
23.81
25.37
25.72
24.92
23.16
20.83
18.41
16.37
14.92
14.02
13.41
12.76
11.81
10.47
8.8
6.93
5
2.96
0.7
-2.03
-5.46
-9.74
-14.88
-20.6
-26.28
-31
-33.71
-33.54
-30.13
-23.85
-15.72
-7.02
1.02
7.67
12.68
16.19
18.46
19.66
19.86
19.12
17.59
15.58
13.47
11.66
10.35
9.61
9.24
8.99
8.54
7.71
6.41
4.69
2.71
0.65
-1.37
-3.34
-5.33
-7.49
-10
-12.98
-16.54
-20.63
-25.11
-29.61
-33.5
-35.96
-36.16
-33.55
-28.11
-20.43
-11.61
-2.9
4.66
10.51
14.54
16.99
18.14
18.23
17.37
15.64
13.18
10.24
7.12
4.1
1.34
-1.12
-3.37
-5.57
-7.88
-10.44
-13.43
-17.02
-21.36
-26.42
-31.92
-37.35
-42.14
-45.9
-48.68
-50.98
-53.61
-57.24
-62.13
-67.86
-73.38
-77.26
-77.95
-74.08
-64.68
-49.34
-28.46
-3.26
24.25
51.78
77.31
99.72
118.88
135.25
149.17
160.25
167.32
168.91
164.19
153.5
138.36
120.76
102.35
83.97
65.72
47.63
30.29
15.04
3.67
-2.34
-2.34
3.17
12.72
24.21
35.39
44.26
49.52
50.75
48.5
44.1
39.27
35.83
35.18
38.14
44.77
54.36
65.71
77.56
88.97
99.48
109.13
118.14
126.7
135.01
143.25
151.76
160.81
170.25
179.16
185.91
188.72
186.44
178.99
167.24
152.4
135.36
116.45
95.7
73.37
50.26
27.63
6.66
-11.96
-28.17
-42.27
-54.54
-64.91
-73.13
-79.07
-83.13
-86.24
-89.64
-94.38
-100.8
-108.38
-115.91
-121.98
-125.56
-126.35
-124.9
-122.23
-119.47
-117.43
-116.46
-116.46
-117.03
-117.62
-117.69
-116.76
-114.39
-110.25
-104.15
-96.13
-86.65
-76.53
-66.81
-58.39
-51.69
-46.54
-42.41
-38.83
-35.74
-33.47
-32.4
-32.5
-33.12
-33.25
-31.96
-28.95
-24.48
-19.02
-12.75
-5.31
3.92
15.24
28.3
41.99
54.86
65.75
74.17
80.26
84.58
87.65
89.7
90.6
90.15
88.32
85.54
82.51
79.95
78.31
77.44
76.69
75.07
71.59
65.53
56.73
45.67
33.29
20.74
8.91
-1.92
-12.13
-22.41
-33.19
-44.11
-53.88
-61
-64.58
-65.28
-65.48
-68.68
-78.29
-96.37
-122.68
-154.27
-185.93
-211.28
-224.61
-222.79
-206.51
-180.36
-151.26
-126.01
-108.9
-100.63
-98.87
-100.16
-101.92
-103.27
-104.7
-106.78
-109.23
-110.83
-110.25
-107.14
-102.58
-98.79
-97.96
-101.36
-108.75
-118.66
-129.11
-138.37
-145.45
-150.02
-152.2
-152.26
-150.52
-147.35
-143.34
-139.14
-135.31
-132.1
-129.46
-127.3
-125.83
-125.87
-128.71
-135.47
-146.35
-160.12
-174.3
-185.88
-192.17
-191.57
-183.65
-168.85
-148.11
-122.68
-94.22
-64.89
-37.08
-12.74
7.3
23.53
37.37
50.25
62.87
74.96
85.77
94.83
102.3
108.84
114.99
120.69
125.23
127.76
127.99
126.7
125.59
126.64
131.15
139.18
149.38
159.54
167.5
171.93
172.8
171.16
168.52
166.02
163.93
161.62
158.01
152.23
143.99
133.67
122.09
110.18
98.66
88.03
78.46
69.84
61.83
53.95
45.83
37.48
29.42
22.69
18.42
17.43
19.86
25
31.49
37.77
42.35
44.24
42.98
38.6
31.53
22.51
12.54
2.77
-5.65
-11.81
-15.28
-16.2
-15.28
-13.49
-11.75
-10.65
-10.31
-10.54
-10.98
-11.4
-11.76
-12.24
-13.15
-14.8
-17.44
-21.18
-25.86
-30.93
-35.44
-38.23
-38.23
-34.87
-28.26
-19.3
-9.26
0.57
9.29
16.44
21.92
25.76
27.97
28.51
27.41
24.93
21.52
17.74
14.09
10.86
8.08
5.65
3.43
1.33
-0.66
-2.62
-4.66
-7.06
-10.12
-14.15
-19.3
-25.42
-32
-38.16
-42.8
-44.89
-43.68
-39.06
-31.5
-22.05
-12.01
-2.6
5.3
11.22
15.12
17.17
17.61
16.65
14.46
11.24
7.25
2.93
-1.28
-4.99
-7.97
-10.21
-11.85
-13.11
-14.2
-15.32
-16.73
-18.78
-21.89
-26.38
-32.14
-38.49
-44.16
-47.56
-47.35
-42.85
-34.37
-23.09
-10.62
1.56
12.4
21.43
28.52
33.63
36.69
37.63
36.62
34.11
30.75
27.2
23.86
20.81
17.91
14.99
12.04
9.22
6.77
4.8
3.19
1.61
-0.44
-3.55
-8.14
-14.32
-21.64
-29.08
-35.11
-38.16
-37.01
-31.28
-21.6
-9.37
3.71
16.12
26.93
35.81
42.77
47.88
51.11
52.32
51.5
48.96
45.31
41.35
37.78
34.96
32.85
31.07
29.14
26.72
23.73
20.36
16.9
13.61
10.58
7.65
4.5
0.68
-4.17
-10.3
-17.65
-25.77
-33.78
-40.41
-44.25
-44.18
-39.69
-31.19
-19.84
-7.21
5.16
16.2
25.4
32.74
38.39
42.46
44.98
45.88
45.28
43.47
40.97
38.3
35.88
33.88
32.28
30.93
29.69
28.47
27.14
25.55
23.53
20.96
17.87
14.41
10.8
7.15
3.41
-0.63
-5.24
-10.65
-16.94
-23.92
-31.04
-37.31
-41.5
-42.35
-39.06
-31.58
-20.76
-8.04
4.93
16.8
26.71
34.32
39.61
42.7
43.77
43.07
41.03
38.27
35.45
33.06
31.36
30.23
29.34
28.35
27.06
25.54
24.02
22.69
21.58
20.46
18.95
16.73
13.67
9.89
5.68
1.4
-2.76
-6.69
-10.48
-14.33
-18.52
-23.4
-29.16
-35.63
-42.06
-47.14
-49.37
-47.51
-41.16
-30.96
-18.37
-5.27
6.7
16.5
23.78
28.67
31.49
32.52
31.97
30.02
27.01
23.45
19.98
17.17
15.35
14.55
14.46
14.59
14.46
13.75
12.39
10.48
8.26
5.88
3.42
0.87
-1.86
-4.88
-8.26
-12.06
-16.3
-20.95
-25.88
-30.7
-34.72
-36.97
-36.45
-32.52
-25.09
-14.85
-3
8.98
19.83
28.7
35.23
39.41
41.38
41.37
39.64
36.59
32.77
28.79
25.22
22.45
20.66
19.8
19.59
19.62
19.42
18.57
16.86
14.37
11.4
8.37
5.58
3.15
0.9
-1.49
-4.33
-7.87
-12.2
-17.35
-23.02
-28.65
-33.25
-35.65
-34.82
-30.32
-22.55
-12.64
-2.17
7.47
15.35
21.13
24.85
26.68
26.77
25.25
22.42
18.77
14.99
11.74
9.39
7.91
6.95
6.05
4.82
3.14
1.15
-0.92
-2.83
-4.44
-5.78
-6.99
-8.34
-10.19
-12.88
-16.66
-21.47
-26.85
-31.88
-35.4
-36.38
-34.17
-28.83
-21.04
-11.93
-2.74
5.53
12.23
17.09
20.08
21.32
20.93
19.15
16.31
12.87
9.37
6.27
3.9
2.31
1.31
0.56
-0.29
-1.44
-2.87
-4.38
-5.73
-6.73
-7.45
-8.16
-9.28
-11.27
-14.43
-18.74
-23.83
-28.91
-32.95
-34.87
-33.9
-29.82
-23.06
-14.55
-5.54
2.88
9.96
15.36
19.05
21.07
21.51
20.45
18.15
15.05
11.79
9.03
7.17
6.21
5.79
5.29
4.14
2.03
-1.01
-4.7
-8.63
-12.4
-15.76
-18.66
-21.24
-23.85
-26.92
-30.83
-35.66
-41.07
-46.24
-50.02
-51.3
-49.38
-44.28
-36.67
-27.67
-18.46
-9.93
-2.6
3.35
7.84
10.78
12.1
11.82
10.23
7.89
5.51
3.7
2.74
2.55
2.71
2.73
2.29
1.34
0.09
-1.18
-2.33
-3.39
-4.65
-6.47
-9.15
-12.88
-17.57
-22.88
-28.14
-32.46
-34.81
-34.3
-30.5
-23.63
-14.56
-4.52
5.19
13.6
20.12
24.55
26.96
27.52
26.53
24.38
21.54
18.53
15.79
13.57
11.96
10.85
10.01
9.2
8.21
6.94
5.4
3.66
1.82
-0.11
-2.28
-4.97
-8.54
-13.23
-18.94
-25.16
-30.92
-35.01
-36.36
-34.34
-29.1
-21.46
-12.67
-4.01
3.67
9.96
14.9
18.65
21.31
22.79
22.96
21.82
19.62
16.89
14.24
12.2
10.99
10.52
10.4
10.17
9.47
8.18
6.37
4.24
1.95
-0.42
-2.96
-5.81
-9.16
-13.17
-17.91
-23.31
-29.08
-34.61
-38.98
-41.15
-40.21
-35.82
-28.24
-18.43
-7.66
2.79
11.99
19.44
24.99
28.71
30.75
31.24
30.45
28.73
26.52
24.28
22.38
21
20.13
19.6
19.18
18.62
17.72
16.37
14.57
12.37
9.92
7.39
4.87
2.38
-0.16
-2.96
-6.26
-10.29
-15.22
-20.99
-27.25
-33.3
-38.11
-40.56
-39.7
-35.17
-27.27
-17.02
-5.86
4.77
13.78
20.58
25.17
27.87
29.14
29.41
28.95
27.9
26.4
24.55
22.55
20.61
18.89
17.5
16.36
15.29
14.07
12.5
10.53
8.23
5.79
3.37
1.05
-1.2
-3.55
-6.21
-9.39
-13.23
-17.76
-22.89
-28.28
-33.31
-37.05
-38.47
-36.72
-31.48
-23.25
-13.18
-2.82
6.41
13.66
18.76
22.04
23.99
24.94
24.96
24.02
22.19
19.78
17.25
15.13
13.72
13.02
12.76
12.55
12.07
11.14
9.83
8.28
6.64
4.98
3.2
1.18
-1.2
-4
-7.26
-10.97
-15.15
-19.72
-24.38
-28.51
-31.21
-31.54
-28.89
-23.27
-15.37
-6.37
2.45
10.08
16.01
20.21
22.9
24.39
24.9
24.61
23.67
22.36
21.02
19.95
19.33
19.1
19.01
18.79
18.23
17.36
16.31
15.3
14.4
13.52
12.39
10.72
8.31
5.18
1.57
-2.12
-5.53
-8.48
-11.03
-13.47
-16.27
-19.87
-24.47
-29.93
-35.61
-40.48
-43.36
-43.26
-39.74
-33.08
-24.24
-14.58
-5.41
2.35
8.34
12.72
15.88
18.17
19.75
20.63
20.74
20.16
19.09
17.86
16.8
16.08
15.71
15.56
15.46
15.24
14.76
13.88
12.47
10.47
7.88
4.87
1.71
-1.29
-3.93
-6.18
-8.19
-10.3
-12.9
-16.37
-20.81
-25.92
-30.88
-34.48
-35.52
-33.23
-27.61
-19.5
-10.28
-1.39
6.15
11.93
16.03
18.74
20.32
20.87
20.44
19.18
17.42
15.65
14.3
13.63
13.59
13.92
14.19
14.09
13.49
12.47
11.28
10.15
9.17
8.2
6.92
5.05
2.46
-0.66
-3.96
-7
-9.57
-11.65
-13.48
-15.34
-17.53
-20.19
-23.42
-27.24
-31.41
-35.45
-38.51
-39.63
-38
-33.35
-26.14
-17.41
-8.44
-0.27
6.52
11.86
15.9
18.83
20.64
21.27
20.7
19.12
16.94
14.67
12.75
11.39
10.55
10.07
9.72
9.31
8.73
7.91
6.82
5.46
3.88
2.14
0.29
-1.62
-3.62
-5.74
-8.05
-10.67
-13.74
-17.33
-21.3
-25.24
-28.39
-29.85
-28.87
-25.18
-19.14
-11.63
-3.77
3.42
9.31
13.7
16.69
18.52
19.36
19.35
18.59
17.24
15.55
13.82
12.33
11.27
10.66
10.39
10.22
9.89
9.19
7.96
6.19
3.95
1.4
-1.33
-4.13
-6.93
-9.76
-12.6
-15.44
-18.34
-21.42
-24.83
-28.67
-32.73
-36.4
-38.72
-38.69
-35.64
-29.62
-21.4
-12.27
-3.49
4.04
10.01
14.53
17.86
20.18
21.44
21.57
20.59
18.73
16.46
14.22
12.32
10.86
9.7
8.64
7.52
6.27
4.89
3.37
1.74
0
-1.86
-3.8
-5.83
-7.89
-10.01
-12.21
-14.62
-17.43
-20.85
-24.97
-29.53
-33.87
-36.91
-37.51
-34.88
-28.99
-20.61
-11.14
-2.05
5.58
11.31
15.27
17.85
19.43
20.2
20.18
19.39
17.96
16.19
14.37
12.83
11.74
11.11
10.84
10.71
10.48
9.92
8.88
7.35
5.35
2.95
0.23
-2.69
-5.68
-8.6
-11.34
-13.96
-16.61
-19.58
-23.09
-27.08
-31.03
-34.02
-34.98
-33.07
-28.08
-20.5
-11.45
-2.25
5.99
12.63
17.48
20.7
22.5
23.06
22.53
21.06
18.97
16.63
14.41
12.58
11.27
10.41
9.83
9.29
8.56
7.47
5.93
3.98
1.71
-0.72
-3.18
-5.61
-8.05
-10.62
-13.48
-16.83
-20.79
-25.43
-30.61
-35.92
-40.66
-43.86
-44.56
-42.09
-36.37
-27.95
-18
-7.83
1.39
8.97
14.74
18.86
21.57
23
23.19
22.16
20.11
17.46
14.81
12.7
11.46
11.05
11.13
11.2
10.81
9.68
7.82
5.39
2.65
-0.12
-2.76
-5.23
-7.64
-10.17
-13.08
-16.67
-21.19
-26.76
-33.09
-39.46
-44.73
-47.6
-47.05
-42.7
-35.06
-25.31
-15.02
-5.55
2.27
8.2
12.46
15.35
17.09
17.7
17.07
15.16
12.12
8.29
4.18
0.37
-2.68
-4.66
-5.46
-5.16
-3.95
-2.09
0.17
2.59
4.98
7.11
8.69
9.37
8.77
6.53
2.46
-3.37
-10.47
-17.94
-24.53
-28.89
-29.99
-27.34
-21.21
-12.56
-2.68
7.12
15.83
22.85
27.94
31.03
32.26
31.83
30.12
27.66
25.07
22.97
21.74
21.48
21.92
22.53
22.68
21.92
20.12
17.54
14.68
12
9.71
7.66
5.45
2.61
-1.17
-5.99
-11.69
-17.91
-24.05
-29.26
-32.56
-33.05
-30.2
-24.15
-15.69
-6.05
3.54
12.19
19.43
25.12
29.2
31.62
32.33
31.46
29.43
26.9
24.56
22.83
21.76
20.97
19.89
18.06
15.37
12.1
8.84
6.13
4.23
2.98
1.85
0.17
-2.65
-6.9
-12.51
-19.02
-25.67
-31.45
-35.25
-36.13
-33.52
-27.45
-18.65
-8.32
2.1
11.43
18.88
24.11
27.12
28.08
27.25
24.98
21.74
18.16
14.86
12.35
10.87
10.31
10.33
10.52
10.54
10.24
9.62
8.72
7.57
6.08
4.09
1.38
-2.23
-6.85
-12.35
-18.29
-23.92
-28.2
-30.08
-28.83
-24.31
-17.01
-7.96
1.62
10.58
18.11
23.73
27.22
28.55
27.84
25.41
21.77
17.58
13.49
10.01
7.36
5.51
4.19
3.11
2.02
0.8
-0.52
-1.88
-3.26
-4.79
-6.78
-9.61
-13.62
-18.92
-25.14
-31.41
-36.44
-38.9
-37.81
-32.95
-24.91
-14.92
-4.48
5.13
13.09
19.09
23.11
25.33
25.93
25.16
23.37
20.95
18.32
15.77
13.38
11.09
8.82
6.52
4.26
2.19
0.4
-1.12
-2.59
-4.36
-6.86
-10.46
-15.36
-21.41
-27.99
-33.99
-37.99
-38.66
-35.2
-27.72
-17.26
-5.51
5.76
15.19
22.14
26.62
29.02
29.81
29.37
27.94
25.8
23.25
20.63
18.15
15.91
13.81
11.73
9.59
7.38
5.21
3.13
1.13
-0.93
-3.28
-6.27
-10.21
-15.26
-21.25
-27.51
-32.92
-36.12
-35.89
-31.68
-23.82
-13.5
-2.38
7.94
16.34
22.42
26.34
28.49
29.26
28.84
27.38
25.13
22.5
20.01
18.05
16.7
15.65
14.46
12.75
10.48
7.9
5.4
3.27
1.51
-0.15
-2.19
-5.05
-9.06
-14.31
-20.51
-26.95
-32.52
-35.87
-35.86
-31.88
-24.23
-14.06
-3
7.32
15.77
21.94
26.04
28.5
29.77
30.02
29.28
27.58
25.15
22.45
20.02
18.31
17.42
17.1
16.89
16.31
15.1
13.23
10.93
8.44
5.96
3.52
1.02
-1.66
-4.65
-7.99
-11.75
-16.03
-20.91
-26.32
-31.81
-36.49
-39.14
-38.67
-34.46
-26.82
-16.83
-6.07
3.97
12.3
18.57
22.98
25.89
27.6
28.26
27.99
26.91
25.34
23.66
22.19
21.15
20.56
20.28
20.09
19.75
19.06
17.83
15.97
13.5
10.6
7.53
4.56
1.88
-0.55
-2.89
-5.47
-8.56
-12.4
-17.08
-22.54
-28.39
-33.97
-38.24
-40.07
-38.55
-33.38
-25.14
-15.15
-5.07
3.65
10.19
14.45
16.92
18.24
18.9
19.09
18.73
17.8
16.38
14.76
13.36
12.48
12.22
12.42
12.76
12.88
12.49
11.43
9.67
7.29
4.41
1.18
-2.19
-5.52
-8.68
-11.62
-14.47
-17.47
-20.91
-24.99
-29.63
-34.38
-38.36
-40.52
-39.93
-36.13
-29.37
-20.54
-10.92
-1.79
5.93
11.82
15.92
18.56
20.12
20.85
20.93
20.48
19.7
18.85
18.2
17.92
17.94
18.03
17.88
17.35
16.5
15.56
14.8
14.23
13.59
12.42
10.3
7.06
2.99
-1.36
-5.34
-8.48
-10.74
-12.46
-14.26
-16.75
-20.35
-25.09
-30.56
-35.97
-40.25
-42.34
-41.42
-37.18
-29.97
-20.76
-10.87
-1.57
6.26
12.27
16.56
19.44
21.2
22.02
21.97
21.26
20.18
19.11
18.37
18.05
18.02
17.98
17.67
16.97
15.98
14.88
13.85
12.92
11.95
10.66
8.85
6.45
3.64
0.71
-2.01
-4.34
-6.33
-8.28
-10.57
-13.56
-17.37
-21.83
-26.37
-30.12
-32.13
-31.62
-28.25
-22.3
-14.59
-6.26
1.59
8.18
13.21
16.75
19.04
20.34
20.73
20.31
19.16
17.55
15.83
14.35
13.35
12.86
12.69
12.58
12.32
11.76
10.92
9.87
8.62
7.16
5.38
3.19
0.55
-2.45
-5.64
-8.74
-11.52
-13.87
-15.89
-17.86
-20.19
-23.26
-27.25
-31.96
-36.75
-40.63
-42.5
-41.49
-37.3
-30.32
-21.56
-12.32
-3.79
3.23
8.44
11.99
14.24
15.53
16.06
15.9
15.05
13.57
11.64
9.6
7.8
6.5
5.76
5.38
5.03
4.35
3.21
1.63
-0.15
-1.9
-3.48
-4.93
-6.47
-8.35
-10.78
-13.85
-17.5
-21.56
-25.69
-29.37
-31.93
-32.64
-30.92
-26.55
-19.82
-11.57
-2.91
5.07
11.61
16.43
19.65
21.57
22.47
22.51
21.73
20.23
18.27
16.23
14.53
13.47
13.1
13.23
13.54
13.75
13.66
13.24
12.53
11.57
10.37
8.85
6.89
4.43
1.47
-1.84
-5.23
-8.41
-11.15
-13.41
-15.34
-17.3
-19.66
-22.78
-26.83
-31.78
-37.28
-42.64
-46.91
-49.05
-48.2
-43.98
-36.67
-27.16
-16.71
-6.57
2.34
9.51
14.83
18.43
20.51
21.33
21.17
20.36
19.25
18.15
17.21
16.48
15.86
15.25
14.6
13.96
13.4
12.96
12.6
12.19
11.54
10.46
8.83
6.65
4
1.06
-1.95
-4.8
-7.41
-9.89
-12.53
-15.75
-19.83
-24.78
-30.06
-34.77
-37.75
-38.04
-35.14
-29.24
-21.16
-12.07
-3.2
4.56
10.7
15.16
18.12
19.82
20.43
20.09
18.99
17.38
15.67
14.27
13.49
13.38
13.7
14.06
14.14
13.75
12.96
12.04
11.29
10.84
10.63
10.34
9.56
7.97
5.47
2.21
-1.44
-5.13
-8.57
-11.7
-14.6
-17.5
-20.63
-24.24
-28.5
-33.46
-38.87
-44.12
-48.21
-50.06
-48.79
-44.13
-36.56
-27.2
-17.43
-8.49
-1.16
4.38
8.29
10.86
12.29
12.63
11.87
10.15
7.84
5.53
3.8
3.09
3.47
4.67
6.16
7.38
7.94
7.71
6.85
5.66
4.45
3.36
2.34
1.13
-0.64
-3.34
-7.16
-12
-17.45
-22.74
-26.9
-28.96
-28.23
-24.54
-18.27
-10.31
-1.77
6.27
13.04
18.07
21.28
22.82
23
22.15
20.55
18.44
15.96
13.28
10.64
8.36
6.7
5.82
5.63
5.79
5.9
5.6
4.68
3.12
0.94
-1.71
-4.68
-7.68
-10.43
-12.78
-14.86
-17.15
-20.35
-24.89
-30.53
-36.15
-39.79
-39.17
-32.37
-18.51
2
27.37
54.87
81.43
104.23
121.28
131.73
135.81
134.66
129.89
123.18
115.84
108.68
101.93
95.39
88.61
81.07
72.36
62.26
50.81
38.3
25.27
12.33
0.06
-11.21
-21.48
-31.03
-40.33
-49.8
-59.57
-69.39
-78.57
-86.15
-91.07
-92.47
-89.9
-83.58
-74.36
-63.59
-52.75
-43.07
-35.18
-29.16
-24.7
-21.39
-18.98
-17.33
-16.38
-15.95
-15.69
-15.27
-14.53
-13.59
-12.87
-12.87
-13.97
-16.15
-19.1
-22.19
-24.77
-26.39
-27.02
-27.08
-27.33
-28.66
-31.74
-36.8
-43.42
-50.65
-57.11
-61.39
-62.34
-59.39
-52.7
-43.09
-31.82
-20.28
-9.69
-0.89
5.61
9.61
11.13
10.41
7.92
4.39
0.7
-2.31
-4.09
-4.57
-4.22
-3.94
-4.75
-7.41
-12.04
-17.99
-23.95
-28.36
-29.92
-28.08
-23.21
-16.46
-9.32
-3.11
1.41
4.2
5.84
7.28
9.56
13.41
19.14
26.46
34.56
42.4
48.93
53.39
55.35
54.71
51.61
46.25
38.97
30.28
20.92
11.83
3.88
-2.35
-6.77
-9.75
-11.9
-13.82
-15.74
-17.63
-19.27
-20.55
-21.68
-23.17
-25.64
-29.53
-34.86
-41.02
-46.83
-50.85
-51.76
-48.81
-42.06
-32.43
-21.33
-10.28
-0.45
7.51
13.48
17.65
20.24
21.45
21.38
20.23
18.28
15.98
13.78
11.99
10.66
9.62
8.61
7.44
6.21
5.23
4.94
5.58
7
8.55
9.29
8.26
4.9
-0.61
-7.24
-13.26
-16.66
-15.68
-9.39
2.01
17.19
34.13
50.67
65.02
76.1
83.47
87.18
87.44
84.62
79.2
71.87
63.47
54.84
46.53
38.78
31.48
24.46
17.61
11.04
4.92
-0.56
-5.36
-9.54
-13.21
-16.49
-19.45
-22.18
-24.84
-27.6
-30.58
-33.67
-36.49
-38.29
-38.2
-35.42
-29.52
-20.59
-9.28
3.36
16.2
28.28
39
48
55.18
60.47
63.84
65.3
64.93
63
59.84
55.84
51.35
46.59
41.6
36.35
30.89
25.43
20.36
16.1
12.86
10.46
8.37
5.92
2.62
-1.6
-6.36
-11.1
-15.34
-19.02
-22.47
-26.34
-31.31
-37.87
-46.05
-55.17
-63.85
-70.19
-72.29
-68.91
-59.95
-46.61
-31.02
-15.47
-1.78
9.18
17.32
22.99
26.53
28.05
27.61
25.42
22.1
18.63
16.05
15.01
15.56
17.07
18.62
19.36
18.93
17.53
15.73
14.1
12.82
11.63
9.92
7.12
2.95
-2.36
-8.18
-13.78
-18.55
-22.27
-25.18
-27.79
-30.74
-34.59
-39.66
-45.95
-53.08
-60.19
-66.06
-69.26
-68.57
-63.37
-53.97
-41.54
-27.81
-14.53
-2.98
6.27
13.22
18.17
21.43
23.19
23.59
22.85
21.38
19.69
18.21
17.13
16.27
15.26
13.66
11.24
8.05
4.37
0.48
-3.46
-7.51
-11.83
-16.51
-21.46
-26.25
-30.41
-33.46
-35.21
-35.77
-35.57
-35.21
-35.35
-36.58
-39.18
-42.99
-47.29
-50.87
-52.29
-50.32
-44.46
-35.09
-23.42
-11.13
0.26
9.75
17.06
22.43
26.36
29.23
31.18
32.14
32.01
30.87
29
26.88
24.95
23.51
22.51
21.72
20.78
19.43
17.61
15.41
13.03
10.62
8.22
5.77
3.2
0.4
-2.73
-6.28
-10.37
-15.13
-20.49
-26.09
-31.18
-34.69
-35.58
-33.22
-27.67
-19.75
-10.78
-2.17
5.04
10.42
14.04
16.23
17.26
17.23
16.1
13.89
10.86
7.46
4.25
1.6
-0.43
-2.1
-3.82
-6
-8.84
-12.42
-16.71
-21.75
-27.56
-34.09
-41.09
-48.05
-54.28
-59.1
-61.95
-62.57
-60.89
-56.98
-51.06
-43.5
-34.95
-26.31
-18.5
-12.17
-7.29
-3.13
1.54
7.91
16.56
27.08
38.14
47.87
54.54
57.06
55.38
50.42
43.72
36.92
31.23
27.15
24.45
22.45
20.35
17.52
13.69
8.9
3.55
-1.59
-5.41
-6.77
-5.03
-0.4
5.86
11.85
15.73
16.43
13.93
9.05
2.81
-4.03
-11.19
-18.62
-26.1
-33.06
-38.77
-42.76
-45.09
-46.34
-47.12
-47.5
-46.73
-43.42
-36.32
-25.08
-10.74
4.55
18.46
29.4
37.15
42.7
47.69
53.74
62.33
74.74
91.91
113.84
138.92
163.71
183.66
194.7
194.75
184.52
166.9
145.51
123.25
101.6
80.97
61.52
43.82
28.79
17.08
8.51
1.97
-4
-10.55
-17.89
-25.46
-32.26
-37.35
-40.27
-41.11
-40.16
-37.53
-33.02
-26.21
-16.9
-5.42
7.33
20.26
32.53
43.82
54.06
62.94
69.67
73.35
73.63
71.32
68.22
66.12
65.66
65.58
63.21
55.73
41.6
21.34
-2.65
-26.93
-47.99
-63.09
-70.78
-71.44
-67.48
-62.96
-62.56
-69.88
-85.89
-108.33
-132.44
-152.9
-165.69
-169.25
-164.23
-152.56
-136.25
-116.91
-95.94
-75.02
-56.33
-42.15
-34.05
-32.12
-34.79
-39.51
-43.8
-46.26
-47.04
-47.4
-48.84
-52.26
-57.52
-63.62
-69.24
-73.38
-75.9
-77.39
-78.87
-81.29
-85.12
-90.29
-96.24
-102.23
-107.45
-111.12
-112.37
-110.39
-104.64
-95.34
-83.61
-71.27
-60.22
-51.62
-45.48
-40.75
-36.03
-30.29
-23.47
-16.22
-9.37
-3.23
2.6
8.93
16.42
25.1
34.39
43.45
51.58
58.55
64.44
69.45
73.54
76.47
77.88
77.75
76.6
75.42
75.26
76.63
79.24
81.92
83.23
82.04
78.08
71.94
64.7
57.33
50.28
43.45
36.41
28.82
20.69
12.34
4.41
-2.37
-7.25
-9.55
-8.91
-5.33
0.67
8.13
15.97
23.25
29.35
34.07
37.4
39.44
40.22
39.77
38.22
35.83
33.03
30.28
27.93
26.14
24.83
23.81
22.83
21.7
20.3
18.55
16.4
13.87
11
7.8
4.35
0.66
-3.28
-7.56
-12.34
-17.8
-23.99
-30.71
-37.39
-43.07
-46.59
-46.91
-43.45
-36.39
-26.56
-15.27
-3.87
6.56
15.45
22.62
28.16
32.18
34.68
35.62
35.01
33.11
30.39
27.56
25.26
23.87
23.37
23.37
23.36
22.87
21.75
20.08
18.16
16.18
14.21
12.08
9.53
6.24
1.99
-3.31
-9.57
-16.48
-23.36
-29.22
-32.88
-33.33
-30.13
-23.66
-15.03
-5.71
2.99
10.33
16.2
20.93
24.85
27.99
30.1
30.81
29.97
27.88
25.23
22.82
21.25
20.68
20.84
21.22
21.38
21.09
20.41
19.4
18.07
16.21
13.57
9.93
5.32
-0.06
-5.94
-12.17
-18.69
-25.41
-31.9
-37.28
-40.31
-39.76
-34.97
-26.12
-14.33
-1.2
11.61
22.93
32.24
39.55
45.13
49.25
52.09
53.78
54.54
54.7
54.63
54.66
54.93
55.42
55.92
56.17
55.96
55.2
53.91
52.19
50.1
47.63
44.65
41
36.57
31.39
25.63
19.56
13.43
7.37
1.41
-4.57
-10.61
-16.65
-22.31
-26.9
-29.51
-29.25
-25.6
-18.63
-9.11
1.72
12.41
21.81
29.28
34.7
38.26
40.2
40.6
39.49
36.97
33.44
29.62
26.32
24.19
23.53
24.2
25.73
27.58
29.35
30.85
32.26
33.95
36.39
40
44.87
50.76
57.05
62.99
67.76
70.7
71.24
68.99
63.89
56.4
47.68
39.42
33.39
30.77
31.69
35.07
39.18
42.2
42.9
40.88
36.36
29.82
21.67
12.11
1.25
-10.73
-23.5
-36.71
-50.01
-63.2
-76.14
-88.57
-100.01
-109.81
-117.35
-122.27
-124.66
-125.03
-124.02
-122.15
-119.61
-116.37
-112.38
-107.75
-102.86
-98.34
-94.82
-92.85
-92.74
-94.57
-98.08
-102.62
-107.1
-110.06
-110.05
-106.02
-97.71
-85.77
-71.55
-56.69
-42.62
-30.33
-20.26
-12.46
-6.7
-2.71
-0.14
1.39
2.34
3.11
4.02
5.22
6.7
8.37
10.17
12.09
14.22
16.77
19.97
24
28.95
34.62
40.5
45.87
49.97
52.27
52.62
51.18
48.25
43.92
38.02
30.18
20.14
8.11
-4.97
-17.51
-27.67
-33.86
-35.24
-32.03
-25.43
-17.21
-9.15
-2.54
2.06
4.78
6.11
6.56
6.46
5.95
5.14
4.17
3.24
2.49
1.97
1.58
1.17
0.67
0.11
-0.36
-0.61
-0.65
-0.63
-0.87
-1.69
-3.3
-5.7
-8.66
-11.77
-14.64
-17
-18.91
-20.72
-23.02
-26.36
-30.96
-36.5
-42.04
-46.16
-47.42
-44.86
-38.38
-28.83
-17.78
-6.99
2.2
9.17
14.01
17.2
19.25
20.39
20.59
19.78
18.05
15.81
13.65
12.15
11.63
12.03
12.97
13.94
14.52
14.53
14
13.1
11.95
10.57
8.83
6.54
3.54
-0.27
-4.88
-10.23
-16.09
-22.09
-27.53
-31.49
-33
-31.35
-26.43
-18.78
-9.45
0.39
9.89
18.73
26.98
34.94
42.71
50.18
57.11
63.36
69.07
74.57
80.1
85.62
90.62
94.27
95.79
94.65
90.81
84.65
76.83
68.03
58.85
49.74
40.98
32.64
24.55
16.3
7.31
-2.97
-14.79
-27.94
-41.61
-54.47
-65
-71.86
-74.27
-72.23
-66.57
-58.65
-49.91
-41.43
-33.72
-26.76
-20.32
-14.31
-8.84
-4.23
-0.66
2
4.21
6.58
9.58
13.33
17.62
22.06
26.31
30.08
33.21
35.53
36.84
36.9
35.61
32.97
29.21
24.59
19.39
13.7
7.46
0.48
-7.48
-16.48
-26.27
-36.16
-45.07
-51.77
-55.17
-54.73
-50.67
-43.94
-35.94
-28.11
-21.47
-16.43
-12.84
-10.3
-8.48
-7.35
-7.11
-7.98
-9.98
-12.75
-15.59
-17.8
-18.91
-18.89
-18.11
-17.13
-16.43
-16.18
-16.27
-16.47
-16.62
-16.75
-17.08
-17.88
-19.36
-21.54
-24.42
-27.89
-31.79
-35.73
-38.98
-40.47
-39.03
-33.82
-24.78
-12.72
0.84
14.17
25.86
35.15
42
46.79
50.03
52.04
53
52.96
52.08
50.63
49.01
47.55
46.41
45.56
44.82
44.02
43.03
41.8
40.21
38.09
35.19
31.34
26.55
21.15
15.73
10.98
7.45
5.27
4.11
3.16
1.37
-2.16
-7.78
-14.96
-22.27
-27.74
-29.5
-26.5
-18.88
-7.91
4.53
16.56
26.83
34.71
40.11
43.19
44.06
42.71
39.14
33.47
26.08
17.62
8.87
0.55
-6.77
-12.81
-17.55
-21.18
-23.95
-25.95
-27.17
-27.47
-26.87
-25.63
-24.35
-23.84
-24.91
-28.05
-33.37
-40.63
-49.24
-58.42
-67.21
-74.41
-78.71
-79.03
-74.8
-66.33
-54.82
-42.06
-29.9
-19.77
-12.36
-7.65
-5.23
-4.58
-5.3
-7.12
-9.77
-12.89
-15.99
-18.61
-20.39
-21.29
-21.53
-21.48
-21.53
-21.97
-22.95
-24.49
-26.45
-28.65
-30.75
-32.41
-33.3
-33.32
-32.56
-31.43
-30.51
-30.42
-31.7
-34.6
-38.92
-43.87
-48.2
-50.41
-49.19
-43.91
-34.82
-22.98
-9.86
3.11
14.96
25.22
33.76
40.57
45.51
48.33
48.77
46.71
42.3
35.99
28.42
20.36
12.57
5.67
0.13
-3.8
-5.99
-6.53
-5.63
-3.7
-1.35
0.74
1.95
1.86
0.35
-2.38
-5.95
-9.98
-14.2
-18.53
-23.08
-28
-33.26
-38.39
-42.5
-44.35
-42.78
-37.18
-27.86
-16.09
-3.73
7.39
15.97
21.61
24.69
26.05
26.53
26.79
27.23
28.09
29.47
31.45
33.91
36.57
39.02
40.74
41.35
40.63
38.63
35.55
31.67
27.26
22.54
17.66
12.79
8.16
4.04
0.68
-1.79
-3.41
-4.5
-5.6
-7.44
-10.71
-15.85
-22.74
-30.59
-37.97
-43.07
-44.3
-40.78
-32.65
-21.08
-7.85
5.14
16.44
25.29
31.58
35.58
37.79
38.61
38.42
37.53
36.3
35.07
34.14
33.69
33.69
33.95
34.22
34.33
34.2
33.87
33.35
32.57
31.29
29.28
26.37
22.56
18.11
13.4
8.83
4.66
0.88
-2.81
-6.94
-12.05
-18.43
-25.8
-33.18
-39.13
-42.12
-41.07
-35.83
-27.19
-16.62
-5.79
3.91
11.68
17.33
21.14
23.6
25.17
26.21
26.93
27.38
27.61
27.6
27.46
27.29
27.21
27.32
27.6
27.95
28.17
28.07
27.53
26.52
25.12
23.47
21.65
19.63
17.27
14.34
10.58
5.81
-0.11
-7.19
-15.2
-23.52
-31.1
-36.54
-38.41
-35.75
-28.52
-17.66
-4.96
7.56
18.26
26.29
31.6
34.73
36.31
36.85
36.56
35.53
33.95
32.24
31.03
30.9
32.11
34.51
37.54
40.52
42.93
44.53
45.4
45.71
45.57
44.91
43.53
41.21
37.79
33.12
27.06
19.51
10.57
0.77
-8.8
-16.72
-21.64
-22.86
-20.54
-15.63
-9.47
-3.21
2.33
6.68
9.49
10.3
8.59
4.04
-3.2
-12.33
