-0.23
0.56
-2.18
-7.49
-13.58
-18.34
-20.03
-17.74
-11.49
-2.12
9.18
21.21
33.05
44.19
54.51
64.18
73.38
82.15
90.26
97.31
102.84
106.6
108.56
108.87
107.68
105.02
100.85
95.3
88.78
82.06
76.11
71.75
69.32
68.52
68.34
67.45
64.56
58.96
50.68
40.49
29.54
18.84
8.96
-0.07
-8.54
-16.69
-24.43
-31.43
-37.28
-41.79
-45.14
-47.71
-49.92
-52
-54.01
-55.91
-57.67
-59.29
-60.81
-62.2
-63.33
-64.06
-64.3
-64.08
-63.56
-62.93
-62.28
-61.62
-60.99
-60.5
-60.33
-60.61
-61.11
-61.21
-60.08
-56.95
-51.58
-44.35
-36.04
-27.36
-18.58
-9.43
0.63
11.95
24.32
36.97
48.86
59.13
67.31
73.39
77.62
80.27
81.47
81.21
79.42
76.08
71.29
65.32
58.58
51.59
44.77
38.39
32.52
27.05
21.85
16.9
12.39
8.62
5.94
4.52
4.38
5.35
7.11
9.21
11.13
12.32
12.42
11.37
9.49
7.32
5.4
3.92
2.68
1.23
-0.8
-3.45
-6.26
-8.56
-9.69
-9.34
-7.61
-4.93
-1.81
1.25
3.9
5.84
6.8
6.52
4.86
1.92
-1.95
-6.13
-10.07
-13.4
-16.08
-18.29
-20.23
-21.98
-23.4
-24.28
-24.42
-23.84
-22.71
-21.25
-19.57
-17.59
-15.06
-11.66
-7.11
-1.35
5.45
12.85
20.24
26.93
32.39
36.35
38.92
40.41
41.19
41.46
41.23
40.3
38.45
35.58
31.76
27.26
22.44
17.65
13.13
8.97
5.11
1.44
-2.1
-5.47
-8.57
-11.38
-14.06
-16.93
-20.41
-24.81
-30.13
-36.05
-41.97
-47.14
-50.74
-52
-50.28
-45.22
-37.01
-26.51
-15.17
-4.63
3.74
9.28
12.06
12.62
11.62
9.49
6.43
2.56
-1.77
-5.89
-8.79
-9.42
-6.99
-1.33
7.04
16.87
26.44
33.93
37.78
37.05
31.7
22.55
11.01
-1.33
-13.15
-23.67
-32.71
-40.55
-47.68
-54.54
-61.35
-68.13
-74.74
-81.05
-87.07
-92.89
-98.48
-103.49
-107.11
-108.33
-106.39
-101.36
-94.41
-87.56
-82.99
-82.08
-84.8
-89.48
-93.36
-93.4
-87.08
-73.13
-51.73
-24.57
5.45
34.79
59.98
78.43
88.96
91.88
88.63
81.09
71.01
59.73
48.21
37.28
27.82
20.71
16.57
15.44
16.62
18.94
21.08
22.24
22.37
22.25
23.07
25.82
30.87
37.75
45.37
52.56
58.34
62.13
63.66
63.02
60.82
58.39
57.94
62.05
72.48
88.84
107.86
123.97
131.22
125.59
106.78
78.39
46.43
16.92
-6.28
-22.33
-32.92
-40.82
-48.47
-57.38
-68.43
-82.5
-100.75
-124.09
-152.05
-182.11
-209.86
-230.23
-239.41
-236.46
-223.7
-205.71
-187.4
-172.34
-161.98
-155.87
-152.5
-150.02
-146.43
-139.63
-127.4
-108.03
-81.02
-47.65
-10.83
25.84
59.31
87.98
111.81
131.65
148.28
161.73
171.4
176.65
177.47
174.76
170.08
164.97
160.39
156.42
152.45
147.7
141.63
134.11
125.28
115.43
104.85
93.97
83.44
73.98
66.01
59.06
51.76
42.06
28.25
9.89
-11.64
-33.46
-52.2
-65.22
-71.46
-71.55
-67.2
-60.38
-52.8
-45.72
-40.08
-36.54
-35.34
-36.14
-37.91
-39.31
-39.36
-37.99
-36.1
-35
-35.43
-37.03
-38.65
-39.45
-39.85
-41.6
-46.52
-54.89
-64.34
-70.38
-68.49
-56.57
-36.28
-12.39
9.62
26.04
36.2
41.86
45.24
47.42
47.92
45.56
39.96
32.26
24.69
19.3
16.84
16.41
16.3
15.23
13.2
11.45
11.66
14.88
21.03
29
37.34
44.9
51.21
56.23
59.97
62.19
62.35
60
55.1
48.35
41.07
34.84
31.11
30.6
33.11
37.55
42.22
45.36
45.67
42.67
36.76
28.98
20.55
12.38
4.86
-2.09
-8.71
-15.03
-20.84
-25.67
-29.13
-31.16
-31.94
-31.82
-31.06
-29.78
-28.1
-26.39
-25.3
-25.56
-27.49
-30.67
-34.05
-36.37
-36.84
-35.56
-33.41
-31.52
-30.6
-30.49
-30.26
-28.76
-25.18
-19.46
-12.11
-3.91
4.54
12.94
21.14
28.89
35.67
40.76
43.67
44.47
43.87
43.02
42.9
43.86
45.51
46.99
47.48
46.74
45.12
43.39
42.37
42.56
43.98
46.23
48.63
50.39
50.85
49.69
47.12
43.88
41.16
40.11
41.41
44.91
49.53
53.48
54.85
52.21
44.93
33.06
16.92
-3.5
-28.51
-58.23
-91.68
-126.16
-157.49
-181.16
-193.98
-194.92
-185
-165.95
-138.98
-104.43
-62.95
-17.04
28.26
66.46
92.14
103.3
102.18
93.83
83.5
74.38
67.02
60.48
53.99
47.84
42.77
38.75
34.28
27.06
15.5
0.05
-16.83
-31.88
-42.82
-49.32
-52.9
-55.69
-59.15
-63.41
-67.44
-69.93
-70.15
-68.47
-66.03
-64.27
-63.94
-64.75
-65.19
-63.1
-56.64
-45.44
-31.11
-16.86
-6.29
-1.65
-2.67
-6.46
-8.69
-5.4
5.38
23.04
44.82
67.01
86.04
99.18
104.69
101.74
90.56
72.62
50.75
28.73
10.3
-2.02
-7.66
-8.01
-5.53
-2.78
-1.58
-2.86
-6.84
-13.29
-21.68
-31.2
-40.72
-48.83
-54.19
-55.96
-54.13
-49.63
-43.94
-38.59
-34.58
-32.09
-30.68
-29.65
-28.57
-27.49
-26.83
-27.02
-28.11
-29.58
-30.58
-30.31
-28.56
-25.91
-23.55
-22.83
-24.63
-28.88
-34.5
-39.73
-42.72
-42.24
-38
-30.67
-21.51
-11.8
-2.43
6.33
14.69
23.04
31.52
39.84
47.22
52.66
55.26
54.45
50.19
42.98
33.75
23.69
14.01
5.72
-0.53
-4.44
-5.98
-5.33
-2.84
0.93
5.14
8.73
10.61
9.99
6.71
1.36
-4.85
-10.51
-14.58
-16.61
-16.91
-16.34
-15.83
-16.02
-16.97
-18.23
-19.14
-19.2
-18.33
-16.9
-15.5
-14.52
-13.97
-13.48
-12.51
-10.69
-8.02
-4.91
-1.96
0.28
1.51
1.83
1.62
1.36
1.38
1.82
2.63
3.66
4.78
5.74
6.11
5.32
2.76
-1.82
-8.06
-14.93
-21.07
-25.21
-26.6
-25.11
-21.09
-15.17
-8.1
-0.79
5.68
10.24
12.24
11.7
9.44
6.76
4.84
4.36
5.21
6.8
8.37
9.38
9.6
9.05
7.88
6.33
4.75
3.63
3.54
4.82
7.35
10.43
12.88
13.5
11.61
7.36
1.83
-3.34
-6.57
-6.87
-4.23
0.52
6.05
11.07
14.74
16.8
17.49
17.25
16.41
15.13
13.44
11.38
9.17
7.16
5.65
4.75
4.26
3.8
3.05
1.89
0.53
-0.64
-1.28
-1.29
-0.8
-0.12
0.43
0.72
0.75
0.68
0.65
0.75
0.91
1.01
0.88
0.41
-0.29
-0.99
-1.31
-0.92
0.3
2.13
4.12
5.73
6.56
6.57
6.08
5.6
5.68
6.65
8.55
11.19
14.23
17.35
20.3
22.87
24.92
26.33
27.04
27.01
26.18
24.43
21.69
18.01
13.74
9.48
5.86
3.17
1.16
-0.84
-3.37
-6.33
-8.71
-8.97
-5.84
1.06
10.97
22.22
32.68
39.99
41.68
35.39
19.57
-5.59
-37.49
-71.3
-101.28
-122.63
-133.14
-133.6
-126.98
-116.63
-104.75
-91.68
-76.28
-57.22
-34.23
-8.84
15.8
36
48.83
53.32
50.67
43.7
35.64
28.93
24.69
22.8
22.62
23.51
25.05
26.8
28.04
27.83
25.45
20.89
15.05
9.44
5.53
4.11
5.02
7.41
10.19
12.58
14.16
14.85
14.71
13.91
12.71
11.58
11.05
11.39
12.46
13.58
13.87
12.55
9.33
4.58
-0.87
-6.02
-10.07
-12.64
-13.83
-14.09
-13.87
-13.45
-12.82
-11.81
-10.26
-8.17
-5.76
-3.29
-0.9
1.45
3.93
6.66
9.55
12.28
14.46
15.84
16.51
16.82
17.26
18.16
19.53
21.12
22.51
23.31
23.29
22.42
20.86
18.88
16.75
14.69
12.82
11.11
9.46
7.73
5.91
4.07
2.36
0.94
-0.08
-0.67
-0.84
-0.59
0.06
1.09
2.37
3.69
4.81
5.53
5.76
5.52
4.9
3.98
2.77
1.12
-1.19
-4.42
-8.7
-13.85
-19.38
-24.51
-28.39
-30.35
-30.06
-27.56
-23.18
-17.44
-10.93
-4.28
1.84
6.87
10.45
12.55
13.5
13.9
14.36
15.25
16.6
17.98
18.73
18.15
15.74
11.35
5.23
-2.08
-9.83
-17.26
-23.75
-28.82
-32.33
-34.39
-35.38
-35.71
-35.67
-35.22
-34
-31.56
-27.59
-22.09
-15.44
-8.27
-1.38
4.29
7.84
8.62
6.62
2.7
-1.55
-4.37
-4.48
-1.42
4.64
13.38
24.68
38.41
53.86
69.22
81.7
88.5
87.96
80.45
68.18
54.29
41.36
30.66
21.93
14.04
5.71
-3.93
-15.11
-27.54
-40.47
-52.78
-63.09
-70.02
-72.62
-70.59
-64.52
-55.71
-45.77
-36.15
-27.81
-21.15
-16.11
-12.41
-9.8
-8.14
-7.35
-7.37
-8.03
-8.95
-9.58
-9.42
-8.25
-6.18
-3.7
-1.39
0.39
1.51
1.96
1.56
-0.16
-3.66
-8.87
-14.83
-19.8
-21.94
-20.3
-15.35
-8.89
-3.26
-0.23
-0.4
-3.08
-6.93
-10.67
-13.62
-15.69
-17.06
-17.86
-17.97
-17.18
-15.54
-13.46
-11.67
-10.88
-11.33
-12.6
-13.72
-13.6
-11.56
-7.63
-2.51
2.85
7.59
11.24
13.66
14.86
14.96
14.12
12.74
11.46
10.96
11.67
13.5
15.85
17.87
18.89
18.65
17.38
15.53
13.45
11.21
8.67
5.61
1.99
-1.94
-5.77
-9.11
-11.79
-13.96
-16.05
-18.5
-21.55
-25.04
-28.45
-31.14
-32.58
-32.62
-31.37
-29.02
-25.72
-21.49
-16.44
-10.96
-5.74
-1.54
1.23
2.9
4.35
6.69
10.53
15.67
21.25
26.37
30.69
34.67
39.23
45.13
52.43
60.45
68.18
74.69
79.46
82.21
82.62
80.29
74.96
66.93
57.16
47.03
37.67
29.51
22.22
15.07
7.63
-0.04
-7.46
-14.16
-20.07
-25.39
-30.35
-34.82
-38.27
-40.07
-39.93
-38.08
-35.18
-31.98
-29.01
-26.49
-24.39
-22.68
-21.35
-20.42
-19.91
-19.68
-19.61
-19.6
-19.64
-19.76
-19.96
-20.18
-20.3
-20.3
-20.21
-20.15
-20.18
-20.27
-20.27
-19.98
-19.27
-18.1
-16.55
-14.76
-12.91
-11.17
-9.72
-8.75
-8.43
-8.85
-9.96
-11.54
-13.3
-14.9
-16.14
-16.96
-17.48
-17.93
-18.59
-19.65
-21.31
-23.54
-26.06
-28.25
-29.17
-27.8
-23.39
-15.78
-5.55
6.09
17.69
28.01
36.23
42.11
45.77
47.47
47.45
45.97
43.26
39.65
35.51
31.19
26.99
23.06
19.41
15.92
12.38
8.58
4.39
-0.14
-4.7
-8.91
-12.41
-15.1
-17.13
-18.78
-20.2
-21.22
-21.43
-20.44
-18.29
-15.54
-13.12
-11.82
-11.88
-12.87
-14.02
-14.73
-14.96
-15.1
-15.37
-15.32
-13.79
-9.3
-0.97
10.93
24.9
38.98
51.58
62.05
70.53
77.3
82.14
84.16
82.2
75.61
64.71
50.82
35.71
20.94
7.44
-4.44
-14.73
-23.38
-30.22
-35.04
-37.82
-38.99
-39.26
-39.43
-39.99
-41.02
-42.07
-42.47
-41.54
-38.89
-34.49
-28.68
-22.07
-15.39
-9.35
-4.52
-1.35
-0.08
-0.79
-3.31
-7.23
-11.81
-16.16
-19.45
-21.2
-21.6
-21.45
-21.84
-23.55
-26.61
-30.17
-32.84
-33.39
-31.29
-26.93
-21.46
-16.16
-11.94
-8.94
-6.55
-3.66
0.9
7.98
17.78
29.76
42.68
54.86
64.63
70.7
72.51
70.22
64.58
56.65
47.48
37.94
28.73
20.35
13.22
7.65
3.77
1.46
0.38
-0.04
-0.4
-1.12
-2.36
-3.91
-5.42
-6.53
-7.05
-7.04
-6.76
-6.41
-6.11
-5.77
-5.24
-4.38
-3.18
-1.76
-0.34
0.92
1.93
2.68
3.21
3.54
3.66
3.56
3.22
2.64
1.83
0.81
-0.37
-1.65
-2.89
-3.95
-4.74
-5.21
-5.46
-5.58
-5.66
-5.76
-5.86
-5.83
-5.54
-4.85
-3.65
-2.03
-0.17
1.59
2.93
3.71
3.95
3.84
3.64
3.5
3.44
3.4
3.33
3.24
3.16
3.12
3.07
2.86
2.45
1.83
1.14
0.56
0.17
-0.05
-0.19
-0.39
-0.65
-0.82
-0.66
0.08
1.49
3.44
5.59
7.51
8.85
9.47
9.5
9.26
9.06
9.06
9.2
9.29
9.1
8.53
7.7
6.8
6.04
5.54
5.29
5.13
4.86
4.31
3.42
2.26
1.08
0.19
-0.1
0.38
1.56
3.16
4.81
6.2
7.16
7.69
7.9
7.9
7.75
7.45
6.96
6.24
5.31
4.18
2.92
1.66
0.57
-0.18
-0.5
-0.51
-0.61
-1.33
-3.11
-6.05
-9.74
-13.34
-15.92
-16.78
-15.75
-13.17
-9.74
-6.23
-3.3
-1.34
-0.47
-0.63
-1.59
-3.04
-4.55
-5.71
-6.13
-5.52
-3.68
-0.58
3.59
8.4
13.22
17.29
19.96
20.96
20.47
19.08
17.52
16.44
16.13
16.51
17.2
17.76
17.81
17.19
15.86
13.91
11.51
8.87
6.25
3.94
2.16
0.99
0.33
-0.05
-0.4
-0.88
-1.5
-2.16
-2.74
-3.23
-3.64
-4.11
-4.67
-5.32
-5.95
-6.44
-6.66
-6.5
-5.87
-4.74
-3.15
-1.24
0.77
2.58
3.94
4.7
4.92
4.78
4.51
4.26
4.06
3.85
3.56
3.18
2.76
2.37
2
1.63
1.2
0.66
0.07
-0.52
-1.02
-1.42
-1.67
-1.72
-1.46
-0.77
0.4
1.95
3.68
5.29
6.53
7.28
7.48
7.18
6.42
5.22
3.66
1.91
0.26
-0.97
-1.49
-1.24
-0.38
0.73
1.66
2.12
2.02
1.5
0.82
0.21
-0.23
-0.55
-0.88
-1.31
-1.85
-2.39
-2.7
-2.56
-1.81
-0.47
1.27
3.07
4.55
5.42
5.56
5.09
4.26
3.35
2.6
2.11
1.86
1.79
1.77
1.7
1.47
1.03
0.34
-0.56
-1.6
-2.65
-3.57
-4.25
-4.57
-4.48
-3.95
-3.05
-1.88
-0.6
0.63
1.72
2.61
3.28
3.76
4.05
4.12
3.98
3.68
3.29
2.91
2.62
2.46
2.4
2.35
2.22
1.91
1.37
0.59
-0.39
-1.49
-2.57
-3.47
-4.07
-4.29
-4.13
-3.65
-2.97
-2.28
-1.77
-1.63
-1.93
-2.58
-3.33
-3.87
-3.96
-3.59
-2.94
-2.31
-1.9
-1.73
-1.66
-1.51
-1.21
-0.84
-0.6
-0.67
-1.1
-1.76
-2.43
-2.93
-3.1
-2.94
-2.47
-1.78
-0.99
-0.21
0.4
0.69
0.64
0.33
-0.07
-0.32
-0.29
0.06
0.6
1.19
1.67
2.06
2.46
3.02
3.79
4.7
5.51
5.94
5.82
5.07
3.79
2.15
0.28
-1.66
-3.56
-5.21
-6.35
-6.75
-6.28
-5.03
-3.36
-1.73
-0.52
0.06
0.03
-0.37
-0.87
-1.25
-1.4
-1.31
-1.08
-0.8
-0.61
-0.61
-0.87
-1.38
-2.03
-2.71
-3.27
-3.71
-4.05
-4.42
-4.87
-5.39
-5.89
-6.22
-6.32
-6.15
-5.76
-5.16
-4.37
-3.4
-2.3
-1.22
-0.38
0.06
0.02
-0.45
-1.14
-1.84
-2.33
-2.48
-2.26
-1.78
-1.2
-0.77
-0.66
-0.95
-1.54
-2.23
-2.8
-3.07
-2.98
-2.56
-1.87
-1.02
-0.13
0.69
1.28
1.51
1.32
0.78
0.07
-0.59
-0.99
-1.05
-0.81
-0.4
0.05
0.41
0.65
0.74
0.65
0.32
-0.3
-1.27
-2.56
-4.1
-5.74
-7.31
-8.6
-9.45
-9.82
-9.77
-9.49
-9.23
-9.22
-9.58
-10.31
-11.33
-12.57
-13.99
-15.57
-17.26
-18.9
-20.23
-21.02
-21.21
-20.9
-20.36
-19.89
-19.65
-19.67
-19.8
-19.93
-19.98
-20.02
-20.11
-20.25
-20.24
-19.75
-18.47
-16.16
-12.77
-8.36
-3.01
3.24
10.37
18.26
26.6
34.87
42.46
48.84
53.72
57.08
59.15
60.14
60.26
59.64
58.35
56.62
54.76
53.12
51.85
50.79
49.52
47.54
44.52
40.4
35.4
29.76
23.67
17.21
10.56
4.09
-1.49
-5.43
-7.22
-6.91
-5.17
-3.09
-1.73
-1.75
-3.24
-5.71
-8.47
-10.87
-12.57
-13.69
-14.57
-15.58
-16.97
-18.74
-20.74
-22.83
-24.93
-27.02
-29.06
-30.84
-32.09
-32.51
-32.01
-30.78
-29.18
-27.65
-26.39
-25.37
-24.37
-23.08
-21.28
-18.92
-16.13
-13.12
-10.2
-7.63
-5.61
-4.23
-3.47
-3.24
-3.43
-3.98
-4.94
-6.42
-8.45
-10.93
-13.54
-15.78
-17.14
-17.26
-15.99
-13.49
-10.07
-6.12
-2.03
1.84
5.17
7.59
8.79
8.63
7.18
4.8
2.03
-0.6
-2.78
-4.49
-6.06
-7.95
-10.56
-14.03
-18.19
-22.59
-26.72
-30.15
-32.69
-34.31
-35.11
-35.24
-34.85
-34.23
-33.77
-33.98
-35.22
-37.53
-40.47
-43.23
-44.91
-44.73
-42.28
-37.46
-30.45
-21.68
-12
-2.75
4.23
7.06
4.43
-3.74
-16.05
-30.09
-43.34
-54.16
-62.31
-68.71
-74.74
-81.28
-88.09
-93.72
-96.07
-93.22
-84.19
-69.35
-50.55
-30.62
-12.75
0.31
6.92
7.1
2.44
-4.27
-9.89
-11.91
-9.1
-1.86
8.07
18.32
26.97
33.33
38.39
44.36
53.68
67.91
86.91
108.73
130.24
148.09
159.71
164
161.41
153.66
143.08
131.9
121.67
112.98
105.51
98.31
90.38
80.98
69.91
57.49
44.46
31.78
20.59
12.01
6.93
5.81
8.51
14.38
22.54
32.04
41.96
51.17
58.17
61.21
58.74
50.13
36.16
18.97
1.43
-13.84
-25.26
-32.48
-35.97
-36.43
-34.35
-29.95
-23.55
-15.93
-8.39
-2.35
1.17
2.03
0.98
-0.76
-2.04
-2.33
-1.85
-1.33
-1.6
-3.13
-5.76
-8.74
-10.96
-11.32
-9.13
-4.41
2.1
9.13
15.3
19.68
21.99
22.66
22.47
22.08
21.63
20.76
18.86
15.56
11.04
6.07
1.72
-1.23
-2.58
-2.9
-3.15
-4.21
-6.51
-9.79
-13.4
-16.7
-19.41
-21.71
-24.01
-26.54
-29.14
-31.23
-32.14
-31.53
-29.6
-27.05
-24.76
-23.33
-22.88
-23.04
-23.24
-23.07
-22.49
-21.85
-21.64
-22.22
-23.67
-25.73
-27.99
-30.15
-32.09
-33.93
-35.89
-38.17
-40.8
-43.71
-46.75
-49.81
-52.76
-55.37
-57.21
-57.73
-56.4
-52.97
-47.59
-40.71
-32.91
-24.54
-15.68
-6.14
4.29
15.64
27.68
39.84
51.36
61.4
69.28
74.62
77.49
78.29
77.67
76.21
74.29
72.09
69.63
66.96
64.17
61.43
58.9
56.81
55.49
55.33
56.58
58.93
61.26
61.8
58.7
50.82
38.36
22.97
7.24
-6.14
-15.2
-19.14
-18.28
-13.73
-6.95
0.65
7.86
13.79
17.96
20.33
21.24
21.27
21.03
20.87
20.81
20.51
19.45
17.08
13.09
7.49
0.71
-6.49
-13.04
-17.86
-20.11
-19.53
-16.58
-12.39
-8.3
-5.33
-3.75
-3.04
-2.35
-1.04
0.9
2.88
4.15
4.33
3.67
2.8
2.31
2.45
3.06
3.89
4.9
6.31
8.29
10.72
13.11
14.83
15.58
15.58
15.47
15.82
16.78
17.88
18.24
17.12
14.25
10.01
5.31
1.2
-1.43
-2.08
-0.76
2.16
6.03
10.19
14.16
17.76
21.1
24.5
28.19
32.19
36.19
39.67
42.11
43.08
42.45
40.26
36.67
31.93
26.3
20.09
13.7
7.48
1.75
-3.3
-7.67
-11.37
-14.38
-16.67
-18.32
-19.78
-21.93
-25.91
-32.56
-41.96
-53.09
-64.02
-72.43
-76.39
-74.97
-68.44
-58.11
-45.75
-33.04
-21.08
-10.25
-0.37
8.99
18.14
26.98
35.12
42.01
47.37
51.36
54.47
57.23
59.87
62.12
63.33
62.86
60.47
56.47
51.64
46.73
42.15
37.81
33.23
27.99
22.02
15.72
9.7
4.48
0.17
-3.52
-7.08
-10.91
-15.19
-19.83
-24.64
-29.48
-34.23
-38.79
-42.99
-46.6
-49.41
-51.35
-52.49
-53
-53.12
-53.04
-52.9
-52.75
-52.5
-51.88
-50.52
-48.06
-44.38
-39.68
-34.45
-29.31
-24.73
-20.89
-17.76
-15.14
-12.91
-11.04
-9.5
-8.21
-7
-5.66
-4.05
-2.15
-0.05
2.01
3.68
4.53
4.16
2.27
-1.11
-5.58
-10.53
-15.25
-19.32
-22.65
-25.44
-27.95
-30.32
-32.44
-34.02
-34.7
-34.3
-32.85
-30.6
-27.94
-25.27
-22.88
-20.92
-19.44
-18.4
-17.71
-17.22
-16.67
-15.66
-13.79
-10.82
-6.78
-2.12
2.42
6.04
8.17
8.6
7.48
5.11
1.79
-2.33
-7.21
-12.77
-18.73
-24.59
-29.74
-33.66
-36.09
-37.19
-37.45
-37.49
-37.78
-38.49
-39.46
-40.31
-40.69
-40.41
-39.56
-38.39
-37.17
-36.08
-35.17
-34.42
-33.77
-33.16
-32.48
-31.56
-30.2
-28.27
-25.8
-23.04
-20.43
-18.38
-17.15
-16.7
-16.75
-16.91
-16.88
-16.6
-16.23
-16.05
-16.16
-16.46
-16.62
-16.26
-15.18
-13.52
-11.66
-10.14
-9.3
-9.2
-9.54
-9.88
-9.75
-8.87
-7.24
-5.19
-3.24
-2.01
-2
-3.46
-6.29
-10.01
-13.82
-16.85
-18.33
-17.9
-15.84
-13.11
-11.06
-10.9
-13.13
-17.13
-21.36
-24
-23.73
-20.22
-14.08
-6.4
1.95
10.54
19.37
28.52
37.86
46.99
55.43
62.73
68.47
72.03
72.63
69.46
62.1
50.89
36.98
22.04
7.73
-4.73
-14.84
-22.64
-28.33
-32
-33.43
-32.28
-28.42
-22.2
-14.52
-6.61
0.33
5.55
9.01
11.33
13.48
16.29
20
24.14
27.7
29.54
28.9
25.82
21.13
16.13
12.1
9.89
9.76
11.63
15.28
20.46
26.76
33.27
38.57
40.98
39.32
33.52
24.79
15.28
7.15
1.82
-0.39
0.06
2.59
6.93
13.17
21.31
30.74
40.06
47.37
50.95
49.99
44.96
37.35
29.02
21.5
15.47
10.71
6.61
2.66
-1.02
-3.63
-4.21
-2.26
1.67
5.92
8.18
6.38
-0.47
-11.79
-25.63
-39.3
-50.25
-56.76
-58.37
-55.74
-50.48
-44.86
-41.49
-42.86
-50.72
-65.32
-85.01
-106.41
-125.33
-137.95
-141.96
-137.03
-124.41
-106.09
-84.07
-60.02
-35.54
-12.52
6.74
19.94
25.65
24.19
17.9
10.64
6.43
8.11
16.27
29.24
44.07
57.86
68.9
77.03
83.12
88.11
92.36
95.46
96.63
95.23
91.09
84.48
75.83
65.62
54.24
42.17
30.04
18.59
8.56
0.5
-5.35
-9.05
-10.85
-11.07
-9.96
-7.65
-4.22
0.2
5.3
10.54
15.18
18.42
19.63
18.48
15.02
9.6
2.74
-4.98
-12.92
-20.45
-26.81
-31.21
-32.84
-31.11
-25.94
-17.87
-8.1
1.79
10.32
16.47
19.92
20.94
20.14
18.08
15.13
11.39
6.81
1.39
-4.77
-11.37
-17.89
-23.62
-27.7
-29.25
-27.58
-22.41
-14.05
-3.44
7.98
18.62
27.15
32.98
36.39
38.33
39.94
41.94
44.44
46.9
48.49
48.31
45.68
40.17
31.67
20.65
8.19
-4.01
-14.03
-20.38
-22.6
-21.41
-18.42
-15.52
-14.27
-15.57
-19.68
-26.22
-34.27
-42.45
-49.17
-52.97
-53.02
-49.48
-43.38
-36.33
-29.83
-24.78
-21.19
-18.29
-14.84
-9.69
-2.27
7.1
17.15
25.97
31.64
32.85
29.34
21.95
12.22
1.8
-8
-16.41
-23.11
-27.9
-30.5
-30.64
-28.2
-23.53
-17.43
-10.84
-4.46
1.54
7.4
13.42
19.46
24.87
28.79
30.61
30.43
28.99
27.3
26.14
25.7
25.65
25.52
24.95
23.79
21.98
19.48
16.32
12.8
9.66
7.89
8.34
11.36
16.51
22.77
28.95
34.13
37.87
40.11
41
40.69
39.29
36.97
33.96
30.52
26.85
22.98
18.83
14.33
9.5
4.46
-0.66
-5.77
-10.86
-15.96
-20.99
-25.75
-29.9
-33.09
-34.98
-35.4
-34.3
-31.79
-28.13
-23.68
-18.93
-14.34
-10.29
-7.03
-4.66
-3.19
-2.54
-2.54
-2.93
-3.4
-3.74
-3.82
-3.74
-3.7
-3.93
-4.57
-5.6
-6.84
-8.03
-8.84
-9.02
-8.4
-6.97
-4.84
-2.29
0.36
2.83
4.93
6.6
7.82
8.57
8.74
8.22
6.96
5.07
2.81
0.5
-1.6
-3.39
-4.91
-6.24
-7.36
-8.25
-8.86
-9.22
-9.52
-9.92
-10.49
-11.08
-11.37
-11.07
-10.13
-8.76
-7.35
-6.28
-5.75
-5.72
-5.94
-6.18
-6.26
-6.14
-5.85
-5.47
-5.1
-4.82
-4.73
-4.87
-5.2
-5.63
-6.06
-6.42
-6.74
-7.1
-7.53
-8.02
-8.44
-8.66
-8.6
-8.27
-7.77
-7.19
-6.61
-6
-5.3
-4.47
-3.54
-2.58
-1.68
-0.91
-0.29
0.22
0.58
0.75
0.65
0.21
-0.52
-1.38
-2.21
-2.91
-3.55
-4.34
-5.58
-7.36
-9.55
-11.77
-13.57
-14.62
-14.95
-14.82
-14.65
-14.7
-14.99
-15.32
-15.46
-15.34
-15.15
-15.13
-15.44
-15.99
-16.48
-16.55
-16.02
-14.93
-13.52
-12.02
-10.6
-9.23
-7.82
-6.24
-4.4
-2.19
0.48
3.69
7.46
11.73
16.33
21
25.44
29.31
32.32
34.3
35.26
35.43
35.15
34.73
34.23
33.51
32.27
30.33
27.72
24.77
21.9
19.47
17.6
16.23
15.17
14.32
13.63
13.12
12.75
12.42
11.98
11.38
10.66
10.1
10.06
10.86
12.56
14.95
17.58
19.89
21.46
22.11
21.93
21.22
20.24
19.2
18.13
16.98
15.67
14.19
12.59
11.03
9.78
9.13
9.34
10.57
12.81
15.86
19.3
22.56
24.97
25.84
24.68
21.37
16.35
10.49
4.94
0.7
-1.74
-2.43
-1.78
-0.21
2.12
5.33
9.51
14.48
19.64
24.15
27.37
29.12
29.72
29.74
29.63
29.5
29.22
28.64
27.75
26.69
25.53
24.11
21.98
18.66
13.98
8.19
1.87
-4.34
-10.01
-15.03
-19.44
-23.28
-26.45
-28.82
-30.38
-31.38
-32.27
-33.44
-35.05
-36.87
-38.45
-39.32
-39.18
-38.02
-36.06
-33.62
-30.96
-28.25
-25.56
-22.92
-20.38
-18.07
-16.15
-14.79
-14.06
-13.91
-14.16
-14.56
-14.89
-15
-14.87
-14.55
-14.1
-13.58
-13.03
-12.47
-11.92
-11.35
-10.65
-9.64
-8.17
-6.26
-4.15
-2.29
-1.13
-0.88
-1.4
-2.16
-2.46
-1.75
0.15
2.92
5.87
8.21
9.34
9.05
7.46
4.94
1.88
-1.39
-4.62
-7.56
-9.93
-11.43
-11.85
-11.15
-9.53
-7.31
-4.84
-2.39
-0.16
1.68
2.95
3.45
3.06
1.81
-0.09
-2.32
-4.56
-6.62
-8.42
-9.96
-11.21
-12.05
-12.29
-11.83
-10.72
-9.24
-7.74
-6.52
-5.7
-5.22
-4.82
-4.24
-3.27
-1.8
0.12
2.35
4.65
6.73
8.34
9.36
9.83
9.95
9.95
9.94
9.84
9.44
8.54
7.03
5.02
2.69
0.25
-2.13
-4.32
-6.18
-7.55
-8.31
-8.39
-7.9
-7
-5.88
-4.62
-3.27
-1.84
-0.42
0.85
1.87
2.58
3
3.18
3.14
2.87
2.29
1.38
0.15
-1.36
-3.06
-4.86
-6.57
-7.95
-8.74
-8.74
-7.95
-6.61
-5.04
-3.52
-2.17
-0.89
0.5
2.1
3.81
5.4
6.59
7.22
7.24
6.73
5.74
4.32
2.49
0.36
-1.83
-3.71
-4.95
-5.35
-5.01
-4.25
-3.5
-3.11
-3.29
-4.01
-5.12
-6.39
-7.62
-8.64
-9.36
-9.75
-9.86
-9.77
-9.55
-9.28
-8.93
-8.48
-7.88
-7.15
-6.34
-5.55
-4.81
-4.09
-3.33
-2.51
-1.68
-0.97
-0.54
-0.45
-0.7
-1.14
-1.56
-1.73
-1.45
-0.63
0.7
2.4
4.24
6.02
7.58
8.85
9.88
10.71
11.29
11.5
11.15
10.13
8.52
6.61
4.79
3.45
2.78
2.73
3.08
3.53
3.83
3.79
3.33
2.38
0.94
-0.92
-3.02
-5.02
-6.54
-7.26
-7.02
-5.94
-4.3
-2.48
-0.79
0.62
1.79
2.81
3.73
4.56
5.22
5.71
6.06
6.37
6.67
6.89
6.88
6.49
5.69
4.66
3.7
3.08
2.96
3.33
4.03
4.85
5.68
6.47
7.27
8.19
9.31
10.62
11.98
13.13
13.82
13.87
13.32
12.37
11.29
10.22
9.19
8.1
6.91
5.76
4.86
4.39
4.31
4.31
4
3.13
1.77
0.31
-0.78
-1.23
-1.01
-0.36
0.46
1.33
2.22
3.19
4.15
4.88
5.13
4.81
4.06
3.14
2.31
1.62
0.89
-0.16
-1.66
-3.48
-5.27
-6.7
-7.62
-8.13
-8.54
-9.11
-9.89
-10.73
-11.37
-11.62
-11.48
-11.1
-10.67
-10.27
-9.9
-9.45
-8.86
-8.14
-7.38
-6.67
-6.06
-5.58
-5.25
-5.05
-4.94
-4.87
-4.72
-4.43
-4.05
-3.78
-3.86
-4.44
-5.47
-6.73
-7.94
-8.93
-9.66
-10.22
-10.64
-10.82
-10.63
-9.92
-8.77
-7.44
-6.24
-5.37
-4.82
-4.42
-4.01
-3.52
-2.99
-2.58
-2.35
-2.27
-2.21
-2.02
-1.53
-0.71
0.39
1.57
2.5
2.81
2.19
0.55
-1.9
-4.72
-7.36
-9.34
-10.35
-10.25
-9.05
-6.88
-4.05
-0.97
1.87
4.06
5.38
5.92
5.91
5.64
5.24
4.65
3.76
2.46
0.84
-0.91
-2.54
-3.95
-5.16
-6.24
-7.26
-8.15
-8.78
-9.13
-9.3
-9.52
-9.97
-10.69
-11.45
-12.02
-12.25
-12.3
-12.5
-13.13
-14.26
-15.62
-16.81
-17.58
-17.95
-18.2
-18.7
-19.64
-20.97
-22.43
-23.74
-24.75
-25.5
-26.24
-27.32
-29.07
-31.7
-35.22
-39.51
-44.27
-49.08
-53.47
-56.99
-59.23
-60
-59.36
-57.55
-54.9
-51.69
-47.99
-43.71
-38.77
-33.3
-27.79
-22.87
-19.1
-16.59
-14.94
-13.39
-11.23
-8.03
-3.83
1.07
6.25
11.4
16.27
20.61
24.13
26.6
27.92
28.28
28.11
27.86
27.86
28.15
28.5
28.57
27.98
26.46
23.95
20.54
16.58
12.7
9.65
8.13
8.54
10.92
14.91
20.06
25.95
32.29
38.96
45.8
52.6
59.07
64.93
69.84
73.38
74.91
73.7
69.19
61.34
50.88
39.21
27.94
18.48
11.66
7.66
6.23
6.87
8.91
11.54
13.88
15.17
15.06
13.78
11.94
10.29
9.26
8.82
8.58
8.06
6.86
4.77
1.76
-2.01
-6.14
-9.84
-12.09
-11.81
-8.35
-1.76
7.21
17.43
27.85
37.89
47.49
56.83
66.13
75.34
84.15
92.17
98.95
103.92
106.33
105.21
99.6
89.03
73.84
55.08
34.11
11.93
-11.06
-34.94
-59.54
-83.76
-105.39
-121.64
-130.23
-130.35
-123.06
-110.73
-96.21
-82.02
-70.04
-61.71
-58.24
-60.45
-68.3
-80.57
-94.81
-108.04
-117.86
-123.28
-124.91
-124.36
-123.1
-121.59
-118.92
-113.23
-102.46
-85.13
-60.82
-30.33
4.48
41.05
76.55
108.39
134.54
153.86
166.06
171.61
171.48
166.81
158.68
148
135.45
121.51
106.55
90.91
74.96
59.21
44.18
30.38
18.17
7.81
-0.54
-6.75
-10.76
-12.76
-13.18
-12.79
-12.39
-12.68
-13.95
-16.04
-18.41
-20.39
-21.48
-21.51
-20.72
-19.65
-18.97
-19.23
-20.64
-22.98
-25.7
-28.11
-29.61
-29.92
-29.07
-27.53
-26.19
-26.27
-29.05
-35.26
-44.56
-55.27
-64.71
-70.04
-69.34
-62.33
-50.4
-36
-21.68
-9.43
-0.49
4.59
5.69
3.27
-1.5
-6.77
-10.3
-10.32
-6.2
1.23
9.99
17.84
23.08
25.16
24.55
22.21
19.02
15.54
12.04
8.81
6.31
5.12
5.74
8.25
12.27
17.02
21.61
25.31
27.67
28.55
27.95
26.01
22.91
18.97
14.63
10.36
6.41
2.53
-2
-8.05
-16.12
-25.81
-35.82
-44.43
-50.3
-53.02
-53.14
-51.63
-49.21
-46.19
-42.7
-39.17
-36.44
-35.41
-36.37
-38.62
-40.69
-41.05
-38.83
-34.16
-27.93
-21.22
-14.88
-9.5
-5.48
-3.16
-2.66
-3.73
-5.6
-7.32
-8.08
-7.31
-4.68
0.2
7.84
18.59
32.17
47.32
61.81
73.03
78.93
78.7
73.07
63.97
53.68
44.15
36.39
30.51
25.97
22.13
18.44
14.67
10.76
6.85
3.24
0.45
-0.82
0.08
3.52
9.26
16.45
23.9
30.49
35.54
39.04
41.66
44.35
48.05
53.23
59.65
66.34
71.79
74.5
73.49
68.69
60.85
51.28
41.31
31.89
23.5
16.07
9.18
2.17
-5.7
-14.93
-25.51
-36.78
-47.55
-56.56
-62.92
-66.5
-67.71
-67.07
-64.68
-60.12
-52.86
-42.89
-31.2
-19.58
-10.09
-4.12
-1.97
-2.87
-5.56
-8.93
-12.31
-15.49
-18.35
-20.47
-21.19
-19.83
-16.25
-11.07
-5.67
-1.57
0.19
-0.4
-2.24
-3.69
-3.3
-0.62
3.6
7.83
10.53
10.86
8.91
5.4
1.13
-3.47
-8.31
-13.21
-17.57
-20.37
-20.52
-17.55
-11.99
-5.28
0.72
4.5
5.37
3.59
0.04
-4.17
-8.08
-11.07
-12.87
-13.54
-13.41
-12.94
-12.56
-12.54
-12.88
-13.33
-13.53
-13.27
-12.5
-11.32
-9.83
-7.97
-5.61
-2.57
1.19
5.55
10.25
15.09
19.95
24.8
29.65
34.49
39.27
43.84
47.96
51.29
53.51
54.48
54.41
53.86
53.53
53.93
55.12
56.63
57.78
58.1
57.53
56.47
55.38
54.43
53.33
51.37
47.6
41.19
31.72
19.31
4.65
-11.14
-26.83
-41.36
-54.01
-64.46
-72.59
-78.37
-81.77
-82.91
-82.19
-80.21
-77.52
-74.38
-70.67
-66.16
-60.85
-55.25
-50.06
-45.73
-41.94
-37.55
-31.14
-21.62
-8.87
6.18
21.9
36.54
48.69
57.49
62.65
64.29
62.72
58.38
51.67
43.05
33.07
22.44
12.1
3.05
-3.97
-8.69
-11.44
-12.88
-13.66
-14.14
-14.26
-13.79
-12.66
-11.13
-9.75
-9.13
-9.5
-10.58
-11.64
-11.72
-10.14
-6.7
-1.84
3.56
8.52
12.28
14.55
15.51
15.58
15.14
14.34
13.04
11.04
8.21
4.72
1.06
-2.14
-4.31
-5.14
-4.69
-3.24
-1.19
1.11
3.4
5.51
7.25
8.48
9.14
9.3
9.21
9.17
9.37
9.71
9.81
9.06
6.94
3.31
-1.45
-6.48
-10.76
-13.43
-14.09
-12.81
-10.06
-6.51
-2.85
0.37
2.72
4.01
4.32
3.99
3.55
3.47
4
5.02
6.14
6.93
7.16
6.91
6.46
6.11
6.05
6.26
6.67
7.25
8.02
9.01
10.23
11.61
13.02
14.33
15.4
16.16
16.54
16.57
16.42
16.36
16.7
17.62
18.99
20.41
21.31
21.21
19.9
17.5
14.35
10.9
7.46
4.12
0.78
-2.88
-7.22
-12.49
-18.65
-25.32
-31.84
-37.5
-41.85
-44.82
-46.67
-47.73
-48.17
-47.87
-46.55
-44.04
-40.53
-36.55
-32.85
-30.02
-28.27
-27.41
-26.98
-26.52
-25.77
-24.82
-23.97
-23.61
-23.99
-25.14
-26.87
-28.91
-31.08
-33.41
-36.06
-39.18
-42.78
-46.67
-50.62
-54.43
-58.06
-61.54
-64.79
-67.55
-69.37
-69.86
-68.8
-66.26
-62.41
-57.38
-51.11
-43.37
-33.92
-22.69
-9.88
4.12
18.73
33.39
47.52
60.65
72.44
82.71
91.52
99.12
105.85
111.99
117.61
122.51
126.22
128.19
128.01
125.58
121.2
115.51
109.18
102.81
96.72
91.1
86
81.45
77.32
73.25
68.67
62.9
55.47
46.41
36.24
25.82
15.99
7.32
-0.05
-6.28
-11.64
-16.43
-20.89
-25.19
-29.23
-32.6
-34.54
-34.22
-31.09
-25.32
-17.92
-10.46
-4.58
-1.41
-1.26
-3.6
-7.41
-11.64
-15.48
-18.48
-20.53
-21.65
-21.88
-21.21
-19.66
-17.4
-14.79
-12.39
-10.75
-10.15
-10.45
-11.12
-11.46
-10.88
-9.21
-6.74
-4.11
-2.03
-1.02
-1.29
-2.65
-4.61
-6.53
-7.77
-7.89
-6.74
-4.56
-1.83
0.81
2.78
3.64
3.25
1.77
-0.36
-2.51
-4.04
-4.51
-3.8
-2.12
0.09
2.38
4.46
6.2
7.56
8.55
9.21
9.65
10.15
10.96
12.16
13.36
13.77
12.46
8.88
3.22
-3.56
-10.05
-15.09
-18.21
-19.84
-20.93
-22.44
-24.87
-28.07
-31.52
-34.62
-37.13
-39.11
-40.87
-42.67
-44.57
-46.4
-47.97
-49.12
-49.79
-49.97
-49.57
-48.43
-46.38
-43.35
-39.41
-34.73
-29.57
-24.19
-18.91
-14.1
-10.17
-7.38
-5.74
-4.97
-4.49
-3.72
-2.25
0.14
3.48
7.78
13.1
19.48
26.8
34.65
42.34
49
53.78
56.01
55.46
52.33
47.29
41.29
35.3
29.94
25.25
20.75
15.69
9.65
2.93
-3.33
-7.48
-8.03
-4.36
2.9
11.96
20.44
26.15
27.69
24.78
18.21
9.47
0.25
-7.97
-14.24
-18.21
-20.09
-20.4
-19.72
-18.53
-17.2
-16.08
-15.56
-15.97
-17.49
-19.98
-22.97
-25.76
-27.72
-28.41
-27.73
-25.92
-23.44
-20.82
-18.54
-16.83
-15.71
-15.09
-14.85
-15.02
-15.76
-17.15
-19.05
-20.99
-22.28
-22.38
-21.2
-19.17
-17.11
-15.79
-15.6
-16.4
-17.69
-18.86
-19.51
-19.53
-19.05
-18.31
-17.57
-17.01
-16.8
-17.01
-17.58
-18.28
-18.84
-18.99
-18.64
-17.84
-16.65
-15.01
-12.59
-9
-4.04
2.09
8.72
14.9
19.82
23.09
24.89
25.77
26.3
26.86
27.5
28.17
28.92
29.99
31.74
34.33
37.51
40.55
42.6
43.02
41.74
39.25
36.3
33.49
30.96
28.42
25.35
21.32
16.19
10.11
3.47
-3.22
-9.4
-14.55
-18.19
-20.04
-20.03
-18.3
-15.19
-11.12
-6.43
-1.36
3.96
9.45
14.98
20.34
25.17
29.08
31.79
33.26
33.77
33.75
33.54
33.14
32.14
29.94
26.13
20.82
14.67
8.59
3.31
-0.96
-4.55
-8.04
-11.81
-15.8
-19.54
-22.38
-23.94
-24.19
-23.43
-22.06
-20.41
-18.61
-16.68
-14.67
-12.75
-11.21
-10.45
-10.73
-12.16
-14.53
-17.36
-20.07
-22.11
-23.19
-23.35
-22.85
-22.01
-21.05
-20
-18.77
-17.26
-15.49
-13.68
-12.18
-11.18
-10.7
-10.48
-10.1
-9.24
-7.83
-6.11
-4.53
-3.54
-3.32
-3.79
-4.61
-5.48
-6.22
-6.83
-7.43
-8.13
-8.94
-9.76
-10.45
-10.9
-11.06
-11
-10.89
-10.99
-11.53
-12.55
-13.87
-15.12
-15.85
-15.76
-14.84
-13.32
-11.52
-9.7
-7.92
-6.12
-4.25
-2.35
-0.52
1.09
2.42
3.53
4.52
5.5
6.44
7.28
7.93
8.32
8.45
8.36
8.08
7.59
6.86
5.91
4.88
4.01
3.59
3.77
4.55
5.69
6.9
7.97
8.9
9.79
10.81
11.99
13.17
14.13
14.69
14.81
14.64
14.36
14.12
13.94
13.78
13.55
13.21
12.75
12.21
11.57
10.86
10.12
9.43
8.88
8.52
8.34
8.29
8.25
8.07
7.48
6.12
3.63
-0.21
-5.21
-10.79
-16.11
-20.4
-23.26
-24.76
-25.34
-25.51
-25.57
-25.54
-25.27
-24.61
-23.53
-22.11
-20.42
-18.46
-16.16
-13.47
-10.41
-7.16
-3.92
-0.84
2.03
4.7
7.19
9.43
11.31
12.78
13.94
15.06
16.45
18.29
20.4
22.28
23.24
22.71
20.48
16.8
12.23
7.4
2.82
-1.26
-4.74
-7.59
-9.74
-11.07
-11.49
-11.02
-9.75
-7.85
-5.5
-2.84
0
2.88
5.64
8.16
10.35
12.23
13.78
15
15.81
16.11
15.86
15.13
14.11
13.04
12.1
11.35
10.76
10.22
9.66
9.04
8.36
7.62
6.85
6.07
5.36
4.86
4.72
5.13
6.18
7.86
9.98
12.27
14.39
16.05
17
17.12
16.35
14.77
12.49
9.66
6.35
2.5
-2.06
-7.58
-14.11
-21.39
-28.71
-35.05
-39.36
-40.9
-39.47
-35.44
-29.63
-23.01
-16.54
-11.02
-7.06
-4.97
-4.71
-5.89
-7.78
-9.48
-10.18
-9.39
-7.09
-3.74
-0.09
3.05
5.03
5.6
4.95
3.63
2.31
1.56
1.62
2.44
3.77
5.44
7.46
9.96
13.03
16.48
19.77
22.12
22.7
20.94
16.7
10.35
2.67
-5.3
-12.5
-18
-21.14
-21.57
-19.32
-14.79
-8.77
-2.35
3.37
7.59
10.1
11.37
12.29
13.77
16.34
19.97
24.12
28.07
31.21
33.22
34.02
33.78
32.77
31.35
29.9
28.68
27.73
26.78
25.34
22.93
19.29
14.55
9.15
3.7
-1.27
-5.41
-8.62
-10.95
-12.58
-13.72
-14.65
-15.62
-16.81
-18.26
-19.85
-21.39
-22.76
-23.94
-25.03
-26.09
-27.03
-27.55
-27.37
-26.39
-24.85
-23.23
-21.98
-21.23
-20.75
-20.05
-18.73
-16.73
-14.37
-12.11
-10.3
-8.95
-7.78
-6.48
-4.88
-3.05
-1.2
0.46
1.86
2.96
3.78
4.26
4.36
4.13
3.8
3.72
4.15
5.18
6.59
8.07
9.32
10.3
11.15
12.04
13.02
13.88
14.31
14.07
13.19
11.99
10.94
10.36
10.26
10.33
10.12
9.27
7.7
5.6
3.3
1.07
-0.96
-2.85
-4.69
-6.47
-8.1
-9.42
-10.3
-10.75
-10.89
-10.91
-10.94
-11
-11.02
-10.92
-10.69
-10.38
-10.1
-9.92
-9.81
-9.69
-9.46
-9.12
-8.79
-8.69
-9.02
-9.85
-11.04
-12.26
-13.19
-13.64
-13.63
-13.4
-13.22
-13.29
-13.58
-13.88
-13.93
-13.47
-12.41
-10.75
-8.61
-6.14
-3.52
-0.93
1.46
3.62
5.65
7.77
10.24
13.16
16.43
19.64
22.28
23.89
24.24
23.46
21.92
20.11
18.44
17.15
16.33
15.95
15.93
16.21
16.66
17.1
17.28
16.94
15.94
14.28
12.19
9.98
8.03
6.56
5.69
5.3
5.11
4.75
3.89
2.35
0.13
-2.57
-5.39
-7.98
-10.07
-11.53
-12.4
-12.85
-13.09
-13.32
-13.63
-14.01
-14.34
-14.48
-14.34
-13.85
-12.99
-11.76
-10.18
-8.27
-6.09
-3.77
-1.44
0.74
2.61
4.03
4.91
5.14
4.68
3.53
1.82
-0.2
-2.17
-3.73
-4.63
-4.81
-4.43
-3.73
-2.97
-2.3
-1.76
-1.29
-0.8
-0.28
0.32
1.01
1.87
2.97
4.31
5.83
7.31
8.5
9.2
9.29
8.84
7.99
6.96
5.96
5.09
4.39
3.79
3.2
2.63
2.15
1.88
1.93
2.27
2.78
3.29
3.63
3.73
3.6
3.25
2.74
2.14
1.58
1.26
1.38
1.99
2.97
3.98
4.57
4.37
3.22
1.28
-1.02
-3.13
-4.56
-5.04
-4.59
-3.47
-2
-0.51
0.82
1.92
2.79
3.43
3.89
4.23
4.54
4.96
5.55
6.35
7.31
8.35
9.41
10.48
11.58
12.73
13.97
15.24
16.31
16.81
16.26
14.34
11.16
7.3
3.67
1.06
-0.21
-0.43
-0.3
-0.43
-0.98
-1.65
-2
-1.85
-1.51
-1.57
-2.54
-4.46
-6.87
-9.08
-10.6
-11.38
-11.7
-11.9
-12.1
-12.12
-11.7
-10.78
-9.6
-8.57
-8.04
-7.96
-7.94
-7.44
-6.12
-4.01
-1.49
0.88
2.69
3.77
4.17
4.05
3.52
2.64
1.49
0.28
-0.66
-0.97
-0.43
0.85
2.48
3.96
4.96
5.55
6.22
7.63
10.21
13.91
18.23
22.37
25.69
27.92
29.13
29.57
29.44
28.75
27.46
25.6
23.39
21.08
18.82
16.55
14.07
11.26
8.31
5.75
4.22
4.22
5.79
8.37
10.89
12.04
10.7
6.31
-0.82
-9.56
-18.27
-25.38
-29.99
-32.11
-32.48
-32
-31.17
-29.97
-28.05
-25.33
-22.2
-19.33
-16.97
-14.4
-10.01
-2.34
8.61
20.66
30.08
33.31
28.89
18.26
4.98
-7.23
-16.35
-22.77
-28.32
-34.57
-41.55
-47.63
-50.68
-49.56
-44.89
-38.75
-33.53
-30.72
-30.5
-32.01
-34.05
-35.67
-36.34
-35.79
-33.86
-30.48
-25.88
-20.84
-16.49
-13.91
-13.44
-14.36
-15.07
-13.73
-9.13
-1.25
8.74
19.03
27.86
34.07
37.34
38.07
37.07
35.32
33.71
32.9
33.13
34.3
36
37.66
38.8
39.14
38.69
37.71
36.58
35.66
35.04
34.49
33.39
30.83
25.86
17.83
6.71
-6.82
-21.42
-35.47
-47.48
-56.46
-61.97
-64.11
-63.24
-59.88
-54.57
-47.93
-40.63
-33.24
-26.08
-19.13
-12.04
-4.49
3.57
11.73
19.16
25.01
28.68
30.08
29.55
27.61
24.73
21.11
16.85
12.13
7.47
3.62
1.33
0.93
2.07
3.77
4.84
4.4
2.34
-0.5
-2.67
-2.56
0.99
8.17
18.12
29.11
39.18
46.7
50.84
51.64
49.73
45.94
41.13
36.2
32.05
29.37
28.18
27.47
25.45
20.49
12.1
1.55
-8.62
-15.95
-19.35
-19.68
-19.06
-19.63
-22.27
-26.34
-30.35
-32.97
-33.68
-32.77
-30.7
-27.63
-23.3
-17.46
-10.4
-3.21
2.46
5.09
4.11
0.23
-4.64
-8.1
-8.11
-3.79
4.26
14.2
23.76
31.04
35.2
36.59
36.47
36.43
37.8
41.15
46.09
51.18
54.24
52.79
44.88
29.98
9.49
-13.3
-34.09
-49.03
-56.07
-55.68
-50.51
-44.21
-39.89
-39.15
-41.75
-46.22
-50.65
-53.52
-53.86
-51.14
-45.09
-35.71
-23.48
-9.55
4.37
16.55
25.81
31.92
35.45
37.26
37.95
37.68
36.21
33.33
29.05
23.61
17.29
10.15
2.04
-7.25
-17.66
-28.61
-39.07
-47.76
-53.46
-55.36
-53.19
-47.36
-38.86
-29.09
-19.51
-11.3
-5.09
-0.9
1.72
3.45
4.86
6.29
7.76
9.13
10.28
11.19
11.86
12.22
12.09
11.32
9.95
8.42
7.48
8
10.52
15.05
20.9
27.05
32.5
36.69
39.63
41.76
43.7
45.86
48.32
50.78
52.82
54.08
54.53
54.47
54.42
54.84
55.87
57.2
58.06
57.54
54.82
49.44
41.34
30.92
18.92
6.35
-5.76
-16.5
-25.35
-32.26
-37.54
-41.65
-44.82
-46.97
-47.7
-46.63
-43.65
-39.07
-33.55
-27.85
-22.59
-18.11
-14.52
-11.77
-9.74
-8.28
-7.25
-6.49
-5.87
-5.2
-4.31
-3.09
-1.51
0.38
2.52
4.91
7.74
11.3
15.88
21.5
27.77
33.92
39.05
42.55
44.4
45.25
46.13
48.08
51.66
56.86
63.23
70.22
77.45
84.92
92.88
101.58
110.97
120.57
129.47
136.55
140.67
140.8
136.07
125.89
110.04
88.87
63.3
34.73
4.76
-25.17
-53.96
-80.86
-105.27
-126.52
-143.82
-156.53
-164.39
-167.75
-167.52
-164.9
-161.15
-157.32
-154.27
-152.52
-152.15
-152.7
-153.02
-151.51
-146.63
-137.59
-124.78
-109.65
-94.04
-79.35
-65.97
-53.43
-41.14
-29.15
-18.49
-10.81
-7.39
-8.44
-12.81
-18.59
-23.94
-27.77
-29.86
-30.36
-29.26
-26.21
-20.78
-12.97
-3.58
5.99
14.23
20.11
23.49
25.07
25.93
26.96
28.35
29.46
29.01
25.78
19.23
9.97
-0.33
-9.58
-16.1
-19.29
-19.76
-18.99
-18.52
-19.4
-21.74
-24.72
-26.81
-26.17
-21.23
-11.25
3.21
20.31
37.46
52.13
62.64
68.48
70.08
68.38
64.47
59.54
54.94
52.07
51.79
53.8
56.36
56.81
52.79
43.63
30.91
17.93
8.26
4.13
5.52
10.36
15.68
18.96
19.04
16.04
10.86
4.52
-2.28
-9.06
-15.45
-21.11
-25.98
-30.37
-34.92
-40.26
-46.47
-52.91
-58.38
-61.68
-62.06
-59.56
-54.74
-48.36
-41.15
-33.85
-27.37
-22.84
-21.32
-23.21
-27.81
-33.31
-37.28
-37.6
-33.33
-25
-14.35
-3.61
5.37
11.6
15.07
16.45
16.6
16.24
15.64
14.81
13.59
11.91
9.9
7.84
6.08
4.82
4.1
3.81
3.76
3.87
4.11
4.53
5.16
5.96
6.82
7.63
8.33
8.93
9.45
9.89
10.17
10.16
9.75
8.9
7.78
6.68
5.99
5.9
6.33
6.86
6.98
6.38
5.21
4.11
3.89
5.1
7.65
10.79
13.47
14.86
14.75
13.65
12.44
11.9
12.35
13.58
14.96
15.73
15.07
12.29
6.98
-0.63
-9.34
-17.09
-21.45
-20.69
-14.64
-5.04
5.12
12.86
16.54
16.46
14.42
12.47
11.79
12.02
11.7
9.24
3.88
-3.75
-12.01
-18.93
-23.19
-24.59
-24.03
-22.97
-22.74
-23.99
-26.58
-29.9
-33.34
-36.65
-40.05
-43.93
-48.42
-53.2
-57.59
-60.97
-63.25
-65.05
-67.41
-71.2
-76.44
-82.07
-86.34
-87.54
-84.82
-78.49
-69.83
-60.37
-51.24
-42.87
-35.16
-27.86
-20.92
-14.51
-8.77
-3.62
1.26
6.23
11.46
16.8
22.05
27.18
32.5
38.57
45.89
54.59
64.31
74.34
83.91
92.46
99.75
105.78
110.56
114.09
116.21
116.69
115.23
111.65
105.97
98.49
89.72
80.27
70.7
61.43
52.74
44.83
37.84
31.9
26.99
22.85
18.95
14.53
8.88
1.58
-7.27
-16.93
-26.17
-33.66
-38.45
-40.26
-39.59
-37.43
-34.74
-32.06
-29.44
-26.56
-23.17
-19.36
-15.49
-12.04
-9.18
-6.66
-3.95
-0.51
3.83
8.74
13.59
17.76
20.95
23.33
25.37
27.61
30.21
32.94
35.2
36.36
36.14
34.69
32.62
30.66
29.37
28.85
28.78
28.5
27.25
24.37
19.42
12.29
3.18
-7.33
-18.33
-28.69
-37.36
-43.54
-47.03
-48.17
-47.78
-46.87
-46.26
-46.34
-47.06
-48
-48.59
-48.27
-46.7
-43.78
-39.63
-34.63
-29.28
-24.21
-19.96
-16.88
-14.94
-13.83
-12.96
-11.77
-9.85
-7.11
-3.74
-0.08
3.48
6.61
9.18
11.21
12.85
14.31
15.74
17.09
18.14
18.51
17.78
15.8
12.77
9.35
6.42
4.85
5.06
6.9
9.64
12.32
14.16
14.89
14.79
14.46
14.5
15.14
16.22
17.3
17.95
17.97
17.38
16.44
15.53
15.07
15.49
17.14
20.13
24.13
28.31
31.52
32.63
30.96
26.61
20.38
13.5
7.12
1.93
-2.06
-5.34
-8.56
-12.25
-16.41
-20.49
-23.5
-24.31
-22.09
-16.65
-8.62
0.78
10.17
18.43
24.98
29.56
32.04
32.13
29.48
24.03
16.37
7.81
0.06
-5.38
-7.77
-7.2
-4.34
0.09
5.55
11.63
17.78
23.11
26.5
27.08
24.74
20.36
15.66
12.67
13.17
18.21
27.99
41.9
58.76
77.11
95.42
112.35
126.74
137.61
144.13
145.66
141.86
133.01
120.1
104.64
88.17
71.71
55.33
38.13
18.74
-3.9
-29.87
-57.86
-85.3
-109.1
-126.48
-135.98
-137.82
-133.8
-126.6
-118.87
-112.47
-108.13
-105.64
-104.21
-102.88
-100.68
-96.72
-90.23
-80.78
-68.55
-54.45
-39.95
-26.76
-16.21
-8.91
-4.59
-2.29
-0.75
1.21
4.41
9.26
15.92
24.51
35.24
48.42
64.29
82.76
103.2
124.51
145.29
164.09
179.53
190.37
195.59
194.55
187.2
174.23
156.95
136.83
115.01
91.88
67.13
40.19
10.88
-20.21
-51.63
-81.42
-107.69
-129.01
-144.81
-155.37
-161.65
-164.94
-166.53
-167.36
-167.9
-168.12
-167.61
-165.61
-161.19
-153.46
-141.89
-126.54
-108.27
-88.57
-69.15
-51.42
-36.08
-23.12
-12.02
-2.2
6.68
14.71
21.88
28.28
34.17
39.83
45.35
50.5
54.72
57.25
57.45
54.95
49.78
42.32
33.14
22.78
11.66
0.03
-11.97
-24.11
-35.96
-46.86
-56.1
-63.13
-67.85
-70.69
-72.58
-74.56
-77.5
-81.74
-86.92
-92.07
-95.82
-96.87
-94.34
-88.1
-78.7
-67.24
-54.98
-42.96
-31.88
-21.98
-13.19
-5.26
2.04
8.91
15.42
21.5
27.03
31.86
35.92
39.18
41.58
43.01
43.31
42.4
40.37
37.56
34.44
31.42
28.64
26.04
23.4
20.66
17.96
15.61
13.92
12.9
12.22
11.34
9.79
7.47
4.7
2.06
0.15
-0.75
-0.67
0.08
1.18
2.44
3.89
5.69
8.01
10.85
14.09
17.47
20.7
23.56
25.87
27.54
28.47
28.58
27.77
25.95
23.08
19.16
14.34
8.91
3.31
-1.98
-6.54
-10.21
-13.15
-15.77
-18.59
-21.97
-25.87
-29.83
-33.14
-35.17
-35.58
-34.61
-32.94
-31.5
-31.1
-32.05
-33.91
-35.56
-35.55
-32.73
-26.82
-18.55
-9.42
-0.99
5.72
10.55
14.1
17.18
20.33
23.62
26.68
29.11
30.64
31.29
31.26
30.74
29.76
28.17
25.66
21.89
16.69
10.14
2.69
-5
-12.22
-18.47
-23.57
-27.68
-31.12
-34.17
-36.88
-39.07
-40.42
-40.64
-39.61
-37.49
-34.77
-32.18
-30.48
-30.14
-31.01
-32.23
-32.39
-29.95
-23.92
-14.23
-1.88
11.49
24.17
35.01
43.7
50.56
56.11
60.57
63.68
64.93
63.95
60.82
56.18
51.03
46.34
42.7
40.08
37.9
35.28
31.39
25.86
18.94
11.46
4.42
-1.43
-5.97
-9.69
-13.32
-17.36
-21.7
-25.74
-28.72
-30.21
-30.42
-29.98
-29.55
-29.44
-29.56
-29.68
-29.75
-30.08
-31.08
-32.74
-34.33
-34.49
-31.89
-25.92
-17.16
-7.17
2.21
9.74
15.2
19.33
23.18
27.39
31.82
35.72
38.17
38.62
37.19
34.56
31.56
28.66
25.77
22.26
17.42
10.85
2.81
-5.91
-14.29
-21.45
-26.96
-30.78
-33.05
-33.87
-33.32
-31.61
-29.2
-26.8
-25.02
-24.03
-23.3
-21.83
-18.57
-13.11
-5.93
1.75
8.53
13.55
16.79
19.08
21.43
24.48
28.06
31.26
32.88
32.05
28.6
23.15
16.72
10.27
4.3
-1.28
-6.94
-13.12
-19.89
-26.71
-32.6
-36.56
-38.01
-37.06
-34.42
-31.02
-27.55
-24.29
-21.19
-18.16
-15.31
-12.87
-10.88
-9
-6.51
-2.77
2.32
8.08
13.36
17.17
19.27
20.31
21.44
23.61
27.04
31.16
35.02
37.85
39.45
40.14
40.47
40.71
40.69
39.87
37.69
33.9
28.75
22.99
17.48
12.91
9.44
6.74
4.25
1.5
-1.58
-4.69
-7.34
-9.2
-10.34
-11.13
-12.05
-13.33
-14.8
-15.97
-16.38
-15.76
-14.21
-11.97
-9.23
-5.95
-1.92
3.07
8.93
15.24
21.3
26.48
30.48
33.46
35.94
38.54
41.59
45.05
48.44
51.2
52.85
53.28
52.6
51.06
48.76
45.7
41.84
37.28
32.45
27.93
24.3
21.83
20.3
19.13
17.61
15.25
11.99
8.28
4.74
1.89
-0.25
-2.18
-4.64
-8.14
-12.64
-17.49
-21.72
-24.59
-25.99
-26.47
-26.94
-28.19
-30.49
-33.53
-36.54
-38.66
-39.22
-38
-35.24
-31.62
-27.97
-25.03
-23.14
-22.2
-21.76
-21.33
-20.65
-19.77
-19
-18.6
-18.61
-18.84
-18.99
-18.91
-18.7
-18.61
-18.78
-19.04
-18.9
-17.77
-15.23
-11.27
-6.24
-0.7
4.87
10.22
15.27
19.95
24.1
27.45
29.67
30.54
30.04
28.39
25.92
23.01
19.91
16.68
13.25
9.51
5.45
1.3
-2.48
-5.41
-7.25
-8.18
-8.85
-10.09
-12.49
-16.05
-20.05
-23.31
-24.68
-23.65
-20.6
-16.69
-13.31
-11.44
-11.25
-12.18
-13.39
-14.31
-14.85
-15.24
-15.62
-15.74
-14.98
-12.77
-9.09
-4.67
-0.7
1.76
2.42
1.91
1.43
2.06
4.18
7.22
10.1
11.78
11.84
10.62
8.89
7.29
5.99
4.68
2.91
0.49
-2.34
-5.2
-7.88
-10.6
-13.94
-18.43
-24.13
-30.52
-36.64
-41.61
-45
-46.9
-47.84
-48.53
-49.63
-51.75
-55.3
-60.34
-66.25
-71.67
-74.79
-74.13
-69.37
-61.81
-54.07
-49.05
-48.58
-52.52
-58.71
-63.96
-65.37
-61.48
-52.62
-40.43
-26.92
-13.68
-1.52
9.49
19.79
30.04
40.99
53.12
66.27
79.41
90.8
98.51
101.24
98.81
92.19
82.92
72.36
61.21
49.79
38.39
27.62
18.3
10.9
5.25
0.51
-4.18
-9.1
-13.72
-17.01
-18.25
-17.55
-15.85
-14.44
-14.21
-15.29
-17.1
-18.84
-20.1
-21.13
-22.63
-25.32
-29.47
-34.67
-40.04
-44.62
-47.78
-49.32
-49.22
-47.36
-43.27
-36.27
-25.89
-12.26
3.69
20.38
36.02
49.1
58.61
64.13
65.69
63.71
58.89
52.27
45.05
38.53
33.83
31.81
32.84
36.77
42.85
49.82
56.11
60.26
61.25
58.94
54.07
48.08
42.59
38.78
36.97
36.61
36.51
35.48
32.81
28.47
22.98
17.11
11.74
7.88
6.82
10.07
18.85
33.29
51.77
70.98
86.73
95.24
94.46
84.74
68.82
51.13
36.69
29.81
32.83
45.32
63.95
83.42
98.21
104.54
101.63
91.7
78.83
67.05
58.87
54.77
53.63
53.71
53.4
51.55
47.52
41.04
32.28
21.96
11.48
2.74
-2.48
-3.19
0.36
6.63
13.48
19
22.19
23
21.84
18.95
14.17
7.21
-1.77
-11.7
-20.69
-26.69
-28.3
-25.3
-18.69
-10.22
-1.87
4.61
7.97
7.58
3.53
-3.38
-11.72
-19.86
-26.27
-30.03
-31.09
-30.39
-29.67
-31
-35.97
-44.84
-56.2
-67.23
-74.72
-76.3
-71.2
-60.21
-44.98
-27.02
-7.3
13.67
35.24
56.12
74.43
88.4
97.17
101.12
101.65
100.15
96.95
90.82
79.23
59.52
30.38
-7.19
-49.81
-92.75
-131.53
-163.29
-187.23
-204.26
-216
-223.91
-228.86
-230.97
-229.62
-223.4
-210.21
-187.9
-155.38
-114.13
-68.7
-25.96
6.95
25.32
28.37
19.12
2.68
-16.18
-34.59
-51.85
-68.38
-84.46
-99.44
-111.91
-120.44
-124.41
-124.35
-121.63
-117.86
-114.28
-111.49
-109.41
-107.68
-106.03
-104.58
-103.87
-104.66
-107.47
-112.39
-118.98
-126.32
-133.2
-138.18
-139.63
-135.82
-125.17
-106.39
-78.94
-43.55
-2.59
39.83
78.37
107.72
124.39
128.19
122.67
113.95
108.5
110.49
120.33
134.93
149.44
159.48
162.59
158.47
148.26
133.56
115.96
97.08
78.75
62.93
51.22
44.27
41.48
41.11
41.05
39.38
34.77
26.64
15.03
0.39
-16.37
-33.98
-50.93
-65.81
-77.5
-85.44
-89.48
-89.84
-86.88
-81.14
-73.37
-64.44
-55.21
-46.13
-37.18
-27.9
-17.81
-6.93
4.1
14.21
22.52
28.89
34.07
39.36
45.97
54.2
63.03
70.09
72.16
66.3
51.31
29.08
5.01
-13.18
-18.07
-5.74
22.4
59.95
98.36
130.5
153.3
167.87
177.57
185.4
192.3
197.15
197.93
192.81
180.57
160.18
130.65
91.74
45.2
-4.29
-49.61
-83.19
-99.64
-97.95
-81.9
-58.86
-37.41
-24.62
-24.16
-35.74
-55.82
-79.26
-101.33
-119.08
-131.75
-140.26
-146.32
-151.59
-157.33
-164.46
-173.65
-185.28
-199.02
-213.69
-227.34
-237.7
-242.85
-241.64
-233.94
-220.4
-202.3
-181.1
-158.14
-134.28
-109.62
-83.61
-55.46
-24.63
8.87
44.62
82.19
121.29
161.6
202.15
240.89
274.87
301.11
317.73
324.71
323.81
317.7
308.98
299.51
290.3
281.94
274.78
268.92
263.97
258.92
252.37
243.13
230.73
215.7
199.31
183.16
168.63
156.56
147.18
140.18
134.86
130.24
125.13
118.4
109.07
96.62
81.18
63.65
45.73
29.54
17.01
9.31
6.35
6.78
8.5
9.39
8
3.77
-3.19
-12.6
-24.29
-38.21
-54.16
-71.6
-89.95
-108.89
-128.41
-148.36
-167.68
-184
-194.12
-195.33
-186.9
-170.65
-150.22
-129.37
-110.4
-93.79
-78.95
-65.62
-54.64
-47.5
-45.11
-46.84
-50.33
-52.54
-50.95
-44.37
-32.89
-17.42
0.61
18.94
34.19
42.09
38.77
22.52
-4.98
-38.82
-72.39
-99.47
-116.02
-120.99
-115.88
-103.95
-89.01
-74.82
-64.41
-59.77
-61.86
-70.85
-86.65
-109.19
-138.22
-172.59
-209.48
-244.17
-270.85
-284.08
-280.48
-259.55
-223.42
-175.83
-120.63
-60.83
1.63
65.35
128.8
189.95
246.42
295.83
336.1
365.32
381.68
383.41
369.3
339.33
295.32
240.44
178.46
112.98
47.28
-15.21
-70.71
-115.55
-147.47
-166.74
-176.42
-180.94
-184.03
-186.94
-188.25
-184.96
-174.54
-156.46
-132.47
-105.8
-79.56
-55.44
-33.12
-10.68
14.38
43.86
77.88
114.57
150.69
182.56
206.92
221.17
223.22
211.32
184.39
142.95
90
31.03
-27.11
-78.37
-119.41
-150.37
-174.15
-194.46
-213.85
-232.51
-248.55
-259.16
-262.19
-257.1
-244.83
-227
-204.86
-178.83
-148.87
-115.34
-79.61
-44.12
-11.55
16.26
39.09
58.11
75.13
91.41
106.97
120.71
131.16
137.42
139.82
140.05
140.6
143.99
151.82
164.3
180.06
196.6
210.96
220.56
223.74
220.04
209.95
194.61
175.42
153.79
131.16
108.93
88.37
70.39
55.33
42.94
32.59
23.68
15.96
9.6
5
2.3
1.08
0.33
-1.27
-4.8
-10.74
-18.92
-28.9
-40.48
-54
-70.08
-88.99
-109.9
-130.47
-147.27
-156.78
-156.62
-146.49
-128.32
-105.54
-81.99
-60.69
-43.1
-29.1
-17.44
-6.73
3.82
13.89
22.21
27.16
27.6
23.43
15.49
5.05
-6.91
-19.8
-33.05
-45.38
-54.45
-57.38
-51.98
-37.91
-17.17
6.59
29.48
48.74
63.28
73.29
79.32
81.54
79.68
73.65
64.19
53.1
42.69
34.84
30.14
27.7
25.74
22.42
16.62
8.05
-2.88
-15.55
-29.28
-43.09
-55.51
-64.61
-68.54
-66.27
-57.92
-44.65
-28.02
-9.33
10.38
29.74
46.41
56.89
57.49
45.91
22.7
-8.19
-40.52
-67.76
-85.28
-91.66
-88.57
-79.61
-68.66
-58.62
-50.85
-45.29
-41.12
-37.4
-33.34
-28.49
-22.52
-15.07
-5.71
6
20.29
36.79
54.22
70.48
82.96
89.54
89.37
83.43
74.31
65.19
58.38
54.28
51.24
46.36
36.93
21.7
1.28
-22.23
-46.05
-67.51
-84.4
-95.04
-98.38
-94.1
-82.84
-66.27
-46.91
-27.57
-10.75
1.78
9.32
12.23
11.92
10.62
10.9
14.91
23.52
35.72
48.88
59.68
65.54
65.79
61.95
56.98
54.04
55.19
60.77
69.56
79.47
88.42
94.9
98.2
98.28
95.61
90.83
84.61
77.51
69.92
62
53.8
45.27
36.36
27.04
17.32
7.26
-3.06
-13.54
-24.03
-34.36
-44.31
-53.61
-62.04
-69.5
-75.95
-81.22
-84.85
-86.21
-84.7
-80.26
-73.56
-65.85
-58.58
-52.93
-49.44
-48.08
-48.45
-49.95
-51.9
-53.68
-54.76
-54.76
-53.55
-51.18
-47.81
-43.72
-39.3
-34.96
-31.06
-27.62
-24.28
-20.44
-15.68
-10.17
-4.71
-0.43
1.94
2.43
1.89
1.43
1.68
2.44
2.73
1.44
-2.02
-7.45
-13.94
-20.35
-25.86
-30.36
-34.35
-38.71
-44.28
-51.53
-60.39
-70.27
-80.25
-89.3
-96.55
-101.4
-103.43
-102.22
-97.11
-87.29
-72.17
-52.02
-28.4
-4.1
17.52
33.55
42.22
43.29
37.87
28.13
16.97
7.6
2.99
4.93
13.25
25.52
37.74
45.89
47.56
42.95
34.48
25.46
18.46
14.37
12.54
11.66
10.74
9.39
7.47
4.43
-1.05
-10.7
-25.75
-46.06
-70.01
-95.09
-119.12
-140.99
-160.74
-178.8
-195.15
-208.85
-218.31
-222.08
-219.68
-211.96
-200.91
-188.98
-178.41
-170.56
-165.79
-163.61
-163.08
-163.15
-163.04
-162.27
-160.2
-155.79
-147.42
-133.32
-112.5
-85.71
-55.7
-26.65
-2.74
13.25
20.84
21.66
18.62
14.86
13.06
15.42
23.71
39.33
62.91
93.55
128.49
163.37
193.47
215.15
226.87
229.15
223.71
212.54
197.42
180.24
163.43
149.87
141.91
140.04
142.11
143.89
140.73
129.67
110.58
85.98
59.62
35.03
14.5
-0.85
-10.66
-14.95
-14.19
-9.48
-2.51
4.86
11.55
17.92
25.84
37.91
56.17
80.84
109.8
139.02
163.64
179.48
184.11
177.33
161.04
138.54
113.65
89.77
69.07
52.02
37.49
23.43
8.1
-8.86
-26
-40.64
-50.23
-53.71
-52.15
-48.4
-45.9
-47.39
-54.03
-65.33
-79.45
-93.44
-103.55
-105.7
-96.46
-74.48
-41.56
-2.66
35.53
66.99
88.53
100.59
106.18
108.74
110.04
109.65
105.84
97.51
85.49
72.45
61.41
53.95
49.28
44.9
38.23
28.28
16.17
4.37
-4.98
-11.33
-15.95
-20.86
-27.46
-35.53
-43.2
-47.77
-46.84
-39.15
-25
-6.17
14.42
33.42
47.86
56.06
58.18
56.12
52.73
50.63
51.14
53.96
57.54
60.07
60.3
58.08
54.19
49.86
46.27
44.07
43.37
43.76
44.6
45.28
45.53
45.56
46.17
48.57
53.97
63.03
75.3
89.01
101.46
109.73
111.6
106.19
94.07
76.78
56.22
34.29
12.47
-8.2
-27.36
-45.09
-61.31
-74.74
-82.01
-77.95
-57.44
-18.34
36.21
97.48
153.62
193.8
211.95
208.22
187.72
157.33
122.84
87.78
53.88
22.4
-5.26
-27.94
-45.43
-58.99
-70.92
-83.48
-97.77
-113.46
-129.32
-143.99
-156.66
-166.99
-174.53
-178.13
-175.93
-166.15
-148.3
-124.1
-97.52
-73.76
-57.65
-51.93
-56.23
-67.22
-79.94
-89.85
-94.53
-94.32
-91.53
-88.48
-85.91
-82.35
-75.34
-63.36
-47.47
-31.36
-19.56
-15.08
-17.72
-24.4
-31.17
-35.38
-36.69
-36.16
-34.44
-30.5
-22.22
-8.32
9.93
28.69
43.43
51.57
53.94
54.08
55.74
60.26
65.63
67.75
63.02
50.47
32.24
12.32
-5.56
-19.45
-29.37
-36.43
-41.66
-45.36
-47.23
-47.03
-45.15
-42.64
-40.57
-39.07
-36.83
-31.41
-20.66
-4.33
14.97
32.32
42.43
42.12
32.09
16.74
2.17
-6.71
-8.25
-4.46
0.26
1.35
-4.11
-16.49
-33.78
-52.26
-67.37
-74.83
-71.92
-58.7
-38.53
-17.34
-1.8
2.91
-5.21
-24.68
-51.65
-81.56
-110.39
-134.99
-152.76
-161.84
-161.75
-154.33
-143.74
-135.25
-133.17
-139.03
-151.25
-166.45
-181.36
-194.06
-204.17
-211.87
-217.08
-219.08
-216.99
-210.32
-199.11
-183.56
-163.34
-137.58
-105.52
-67.49
-25.28
18.18
59.88
97.6
130.35
158.33
182.65
205.21
228.64
255.82
288.82
327.58
369.13
407.83
436.97
451.01
447.38
427.04
393.64
351.91
306.2
259.59
213.82
169.48
126.35
83.79
41.42
-0.01
-38.07
-68.74
-87.68
-92.18
-82.78
-63.75
-42
-24.76
-17.3
-21.39
-35.16
-54.22
-73.42
-88.42
-96.88
-98.77
-95.72
-90.17
-84.55
-80.88
-80.61
-84.7
-93.34
-105.75
-120.11
-133.74
-143.89
-148.59
-147.3
-140.91
-131.17
-119.63
-106.89
-92.47
-75.21
-54.37
-30.35
-5.07
18.53
37.54
50.28
56.91
59.36
60.36
62.3
66.44
72.95
81.35
91.21
102.24
114.13
126.06
136.48
143.48
145.5
142.04
133.9
122.95
111.34
100.81
92.23
85.46
79.62
73.59
66.43
57.84
48.37
39.24
31.95
27.7
27.05
29.67
34.45
39.66
43.1
42.53
36.32
24.23
7.94
-9.13
-23.15
-31.41
-33.69
-32.16
-30.1
-30.05
-32.4
-35.45
-36.68
-34.33
-28.37
-20.32
-12.15
-5.24
-0.03
3.71
6.17
7.14
6.11
2.92
-1.87
-6.91
-10.44
-11.05
-8.27
-2.8
3.73
9.12
11.24
8.46
0.04
-13.53
-30.58
-48.6
-64.97
-77.76
-86.45
-91.98
-96.16
-100.62
-105.8
-110.49
-112.19
-108.06
-96.12
-75.95
-48.91
-17.67
14.5
44.44
69.53
87.94
98.61
101.29
96.59
85.97
71.64
56.13
41.7
29.87
21.12
15.07
10.79
7.26
3.7
-0.42
-5.36
-11.17
-17.7
-24.62
-31.42
-37.58
-42.78
-46.97
-50.34
-53.06
-54.94
-55.4
-53.5
-48.3
-39.22
-26.51
-11.41
3.89
16.79
24.85
26.45
21.15
9.85
-5.5
-22.27
-37.76
-49.7
-56.66
-58.21
-54.95
-48.21
-39.64
-30.84
-22.91
-16.4
-11.39
-7.86
-6.01
-6.23
-8.93
-14.05
-20.88
-28
-33.75
-36.79
-36.59
-33.36
-27.6
-19.61
-9.36
3.09
16.94
30.37
40.9
46.31
45.4
38.51
27.24
13.88
0.77
-10.13
-17.58
-21.09
-20.85
-17.35
-10.87
-1.1
12.9
31.97
56
83.19
110.37
133.88
150.93
160.32
162.31
158.02
148.7
135.54
119.66
102.27
84.57
67.53
51.93
38.54
28.54
23.52
24.88
32.78
45.18
57.87
65.57
64.08
52
31.33
6.37
-18.16
-38.96
-54.83
-66.13
-73.59
-77.47
-77.69
-74.53
-69.44
-65.05
-64.06
-67.98
-76.04
-85.47
-92.64
-94.78
-91.06
-82.65
-71.73
-60.01
-47.82
-33.97
-16.78
4.72
29.82
56.15
80.59
100.45
114.3
122.02
124.19
121.42
114.15
103
89.28
75.3
63.94
57.84
58.44
65.52
77.3
91.11
104.16
114.22
119.97
120.93
117.37
109.99
99.83
88.04
75.67
63.55
52.08
41.28
30.82
20.29
9.39
-2.03
-13.97
-26.42
-39.43
-53.08
-67.38
-82.22
-97.33
-112.34
-126.84
-140.28
-151.92
-160.81
-165.98
-166.77
-163.24
-156.12
-146.75
-136.58
-126.85
-118.35
-111.38
-105.76
-100.86
-95.61
-88.75
-79.2
-66.55
-51.45
-35.76
-22.19
-13.67
-12.61
-20.21
-36.09
-58.26
-83.44
-107.83
-127.96
-141.51
-147.71
-147.21
-141.44
-131.86
-119.36
-104.2
-86.26
-65.62
-42.9
-19.41
3.11
23.03
39.22
51.36
59.86
65.52
69.15
71.22
71.9
71.18
69.23
66.49
63.67
61.45
60.27
60.12
60.7
61.57
62.36
62.96
63.39
63.63
63.48
62.54
60.28
56.33
50.57
43.25
34.93
26.27
17.82
9.82
2.12
-5.64
-13.86
-22.63
-31.62
-40.12
-47.13
-51.68
-53.02
-50.87
-45.43
-37.36
-27.62
-17.24
-7.16
1.97
9.83
16.42
21.95
26.65
30.81
34.66
38.4
42.26
46.42
51.02
56.14
61.73
67.53
72.94
76.95
78.32
75.95
69.38
59.1
46.57
33.8
22.72
14.68
10.24
9.33
11.56
16.33
22.74
29.45
34.75
37
35.21
29.49
21.03
11.53
2.5
-5.28
-11.76
-17.3
-22.2
-26.52
-30.17
-33.11
-35.49
-37.6
-39.62
-41.57
-43.24
-44.39
-44.86
-44.71
-44.17
-43.53
-43.03
-42.7
-42.42
-41.94
-40.96
-39.34
-37.16
-34.71
-32.35
-30.32
-28.53
-26.73
-24.56
-21.87
-18.83
-15.84
-13.39
-11.76
-10.91
-10.57
-10.35
-9.98
-9.31
-8.32
-7
-5.29
-3.05
-0.26
2.91
6.04
8.59
10.04
10.17
9.07
7.13
4.81
2.5
0.39
-1.49
-3.13
-4.48
-5.46
-5.98
-6.09
-5.98
-5.88
-5.95
-6.16
-6.28
-6.01
-5.13
-3.66
-1.87
-0.22
0.9
1.33
1.19
0.9
0.91
1.52
2.83
4.67
6.77
8.79
10.39
11.25
11.05
9.56
6.81
3.19
-0.62
-3.82
-5.89
-6.79
-6.92
-6.91
-7.24
-8.05
-9.15
-10.3
-11.44
-12.73
-14.44
-16.68
-19.31
-21.98
-24.35
-26.22
-27.57
-28.46
-28.9
-28.81
-28.05
-26.57
-24.5
-22.12
-19.84
-18.06
-17.09
-17.04
-17.9
-19.45
-21.35
-23.22
-24.7
-25.56
-25.82
-25.71
-25.71
-26.36
-28.1
-31.06
-35.02
-39.4
-43.6
-47.26
-50.47
-53.69
-57.54
-62.4
-68.12
-73.76
-77.7
-77.79
-71.9
-58.54
-37.46
-9.92
21.48
53.49
83.07
107.99
127.06
139.79
146.01
145.75
139.49
128.52
115.04
101.67
90.59
82.65
77.12
72.23
66.04
57.46
46.63
34.63
22.85
12.33
3.5
-3.69
-9.39
-13.57
-16.06
-16.71
-15.63
-13.26
-10.24
-7.1
-4.13
-1.35
1.24
3.43
4.79
4.87
3.62
1.62
0.07
0.2
2.63
6.86
11.38
14.25
14.02
10.3
3.96
-3.39
-10.12
-15.23
-18.46
-20.13
-20.7
-20.39
-19.15
-16.85
-13.55
-9.73
-6.1
-3.43
-2.09
-1.91
-2.22
-2.18
-1.19
0.81
3.4
5.86
7.63
8.49
8.68
8.66
8.95
9.79
11.12
12.52
13.26
12.5
9.55
4.19
-3.19
-11.6
-19.93
-27.34
-33.66
-39.33
-45
-51.12
-57.59
-63.87
-69.19
-72.77
-73.95
-72.1
-66.77
-57.85
-45.89
-32.13
-18.17
-5.29
6.14
16.79
27.96
40.69
54.94
69.06
80.08
84.55
79.79
64.76
40.53
10.06
-22.55
-52.82
-76.75
-91.45
-95.61
-89.86
-76.6
-59.36
-41.77
-26.49
-14.59
-5.6
1.82
8.98
16.63
24.93
33.81
43.19
52.92
62.47
70.66
75.89
76.84
73.22
66.11
57.75
50.63
46.57
46.1
48.35
51.59
54.01
54.37
52.33
48.35
43.32
38.3
34.26
31.99
32.01
34.56
39.46
46.06
53.44
60.67
67.1
72.6
77.37
81.69
85.5
88.29
89.35
88.37
85.85
83.2
82.22
84.18
89.17
95.89
102.08
105.35
103.83
96.59
83.73
66.29
46.11
25.5
6.87
-7.78
-17.4
-22.06
-22.89
-21.59
-19.81
-18.76
-18.92
-20.14
-21.93
-23.76
-25.24
-26.31
-27.12
-27.94
-29.07
-30.72
-33.08
-36.23
-40.02
-43.84
-46.67
-47.3
-44.89
-39.53
-32.4
-25.41
-20.59
-19.41
-22.47
-29.56
-39.9
-52.41
-65.86
-78.85
-89.99
-98.09
-102.49
-103.36
-101.55
-98.25
-94.48
-90.68
-86.78
-82.46
-77.55
-72.16
-66.63
-61.13
-55.42
-48.91
-40.95
-31.17
-19.89
-8.08
2.97
11.99
18.12
21.04
20.9
18.27
13.95
8.8
3.61
-1.08
-5.14
-8.94
-13.37
-19.72
-29.38
-43.32
-61.4
-81.91
-101.47
-115.75
-120.7
-113.95
-95.76
-69.1
-38.58
-8.67
18
41.31
62.87
84.34
105.72
124.71
137.71
141.73
136.28
123.71
107.96
92.41
78.16
63.7
46.23
23.7
-3.82
-33.92
-62.84
-86.8
-102.79
-108.72
-103.33
-86.17
-58.19
-22.29
16.64
52.7
80.64
97.66
104.07
102.84
98.03
93.14
89.92
88.3
87.09
84.95
81.05
75.25
67.83
59.31
50.32
41.64
34.37
29.83
29.06
32.16
37.75
42.93
44.03
37.87
23.14
1.25
-23.89
-47.14
-63.83
-71.36
-69.86
-61.86
-51.03
-40.8
-33.36
-29.35
-28.21
-28.93
-30.62
-32.8
-35.31
-37.98
-40.45
-42.19
-42.75
-42.03
-40.48
-38.86
-37.99
-38.37
-39.91
-42.03
-43.9
-44.81
-44.4
-42.71
-40.05
-36.83
-33.4
-29.99
-26.6
-23.08
-19.06
-14
-7.41
0.98
10.92
21.54
31.49
39.29
43.78
44.43
41.48
35.74
28.41
20.65
13.43
7.35
2.63
-0.83
-3.26
-4.95
-6.08
-6.68
-6.69
-6.03
-4.75
-3.01
-1.1
0.62
1.85
2.4
2.21
1.41
0.24
-0.96
-1.87
-2.27
-2.14
-1.64
-1.04
-0.65
-0.73
-1.36
-2.48
-3.95
-5.58
-7.16
-8.52
-9.5
-10
-10.03
-9.7
-9.21
-8.78
-8.56
-8.5
-8.46
-8.24
-7.73
-6.94
-6.08
-5.37
-4.99
-4.98
-5.22
-5.55
-5.84
-6.02
-6.12
-6.27
-6.58
-7.2
-8.18
-9.49
-11.03
-12.59
-13.98
-15.04
-15.76
-16.29
-16.8
-17.47
-18.36
-19.42
-20.55
-21.72
-23
-24.55
-26.48
-28.84
-31.47
-34.16
-36.74
-39.1
-41.29
-43.41
-45.48
-47.46
-49.24
-50.72
-51.94
-53.07
-54.33
-55.97
-58.02
-60.26
-62.31
-63.71
-64.11
-63.36
-61.4
-58.14
-53.3
-46.4
-36.97
-24.77
-10.04
6.59
24.24
42.24
60.21
78.07
95.72
112.75
128.4
141.82
152.48
160.49
166.47
171.16
174.86
177.16
177.05
173.4
165.56
153.64
138.62
121.95
105.13
89.36
75.37
63.44
53.58
45.75
39.91
36.13
34.45
34.71
36.5
39.2
42.23
45.18
47.87
50.07
51.27
50.52
46.71
39.14
28.02
14.58
0.65
-12.17
-23.22
-33.04
-42.94
-54.14
-66.86
-80.08
-91.9
-100.53
-105.23
-106.64
-106.52
-106.9
-109.25
-114.06
-120.98
-129.05
-136.82
-142.24
-142.83
-136.31
-121.56
-99.44
-72.66
-44.71
-18.33
5.53
27.59
49.08
70.36
90.27
106.59
117.26
121.54
120.36
115.7
109.42
102.35
94.11
83.78
70.83
55.97
41.15
28.82
20.76
17.09
16.15
15.25
12.01
5.31
-4.37
-15.55
-26.68
-36.83
-45.76
-53.63
-60.56
-66.59
-71.69
-75.96
-79.48
-82.19
-83.76
-83.74
-81.96
-78.74
-74.9
-71.27
-68.34
-66.03
-64.04
-62.2
-60.74
-60.11
-60.62
-62.2
-64.51
-67.32
-70.68
-74.66
-78.78
-81.58
-80.99
-75.39
-64.73
-51.04
-37.53
-26.98
-20.21
-15.86
-11.42
-4.99
3.51
12.45
19.55
23.39
24.13
23.25
22.51
23.05
25
27.87
31.18
34.84
39.13
44.27
50.08
55.72
59.98
61.83
61
58.45
56.08
56.04
59.61
66.42
74.35
80.56
82.82
80.61
75.24
68.98
63.65
59.74
56.38
52.24
46.47
39.33
31.94
25.56
20.9
17.84
15.62
13.35
10.46
6.96
3.32
0.13
-2.19
-3.76
-5.19
-7.36
-10.93
-15.87
-21.39
-26.28
-29.58
-31.05
-31.32
-31.47
-32.39
-34.37
-37.05
-39.77
-41.99
-43.46
-44.26
-44.54
-44.45
-44.09
-43.52
-42.77
-41.77
-40.41
-38.57
-36.31
-33.89
-31.67
-29.82
-28.28
-26.75
-25.03
-23.13
-21.35
-19.99
-19.13
-18.53
-17.77
-16.56
-14.89
-12.94
-10.86
-8.65
-6.27
-3.91
-2.12
-1.61
-2.81
-5.48
-8.61
-10.95
-11.63
-10.71
-9.02
-7.67
-7.29
-7.75
-8.25
-7.95
-6.39
-3.64
-0.01
4.26
9.19
14.79
20.77
26.38
30.58
32.56
32.21
30.33
28.49
28.44
31.52
38.16
47.7
58.54
68.56
75.66
78.46
76.55
70.64
62.29
53.46
45.96
41.11
39.49
40.9
44.41
48.54
51.69
52.62
50.96
47.19
42.37
37.29
31.92
25.37
16.68
5.96
-4.88
-12.65
-14.35
-8.96
1.61
13.16
21.12
22.63
17.67
8.62
-1.32
-9.74
-15.76
-19.71
-22.2
-23.39
-22.93
-20.43
-16.06
-10.72
-5.8
-2.66
-2.07
-3.97
-7.58
-11.7
-15.13
-17.12
-17.56
-16.98
-16.25
-16.2
-17.14
-18.8
-20.43
-21.23
-20.69
-18.83
-16.08
-12.96
-9.82
-6.67
-3.3
0.47
4.52
8.34
11.26
12.72
12.59
11.26
9.47
8.07
7.79
9.08
12.06
16.48
21.75
26.99
31.32
34.09
35.24
35.29
35.15
35.67
37.29
39.83
42.7
45.22
46.97
47.84
47.97
47.53
46.69
45.67
44.82
44.52
44.88
45.57
45.75
44.59
41.88
38.48
36.09
36.44
40.2
46.36
52.39
55.2
52.33
42.84
27.5
8.43
-11.6
-29.93
-44.48
-54.19
-59.05
-60.1
-59.05
-57.75
-57.6
-59.25
-62.45
-66.29
-69.52
-70.9
-69.58
-65.4
-58.96
-51.4
-43.94
-37.37
-31.77
-26.74
-21.89
-17.4
-14.11
-13.05
-14.67
-18.36
-22.5
-25.18
-25.17
-22.54
-18.51
-14.89
-13.13
-13.88
-16.98
-22.06
-29.09
-38.64
-51.43
-67.59
-85.99
-104.22
-119.25
-128.48
-130.69
-126.3
-116.91
-104.36
-89.88
-73.77
-55.67
-35.22
-12.67
10.89
33.67
53.75
69.67
80.9
87.99
92.26
95.35
98.67
103.05
108.7
115.38
122.67
130.07
136.96
142.55
146.02
146.84
145.07
141.36
136.59
131.3
125.22
117.22
105.77
89.57
68.1
41.89
12.25
-19.07
-50.23
-79.48
-105.17
-125.75
-139.93
-146.9
-146.71
-140.29
-129.35
-115.98
-102.18
-89.47
-78.62
-69.78
-62.67
-56.84
-51.89
-47.56
-43.65
-40
-36.32
-32.28
-27.61
-22.18
-16.14
-9.88
-3.93
1.3
5.58
8.89
11.36
13.05
13.83
13.45
11.68
8.57
4.56
0.42
-3.02
-5.23
-6.14
-6.18
-6.07
-6.51
-7.94
-10.38
-13.52
-16.82
-19.76
-21.95
-23.22
-23.59
-23.25
-22.52
-21.87
-21.78
-22.71
-24.84
-28.03
-31.89
-36.14
-41.03
-47.56
-57.13
-70.65
-87.57
-105.35
-119.68
-125.87
-120.64
-103.77
-78.82
-52.33
-32.05
-24.48
-32.55
-54.43
-83.8
-111.53
-128.36
-127.66
-107.36
-70.48
-23.89
23.92
65.48
96.13
114.82
123.56
126.03
126.08
126.61
128.99
133.29
138.75
144.25
148.71
151.16
150.64
146.48
138.6
128.01
116.82
107.8
103.29
104.12
109
114.93
118.52
117.53
111.85
103.46
95.34
90.16
88.97
90.69
92.3
89.83
79.74
60.39
32.99
1.58
-28.16
-50.9
-63.55
-66.11
-61.3
-53.05
-44.81
-38.65
-35.2
-34.36
-35.97
-39.95
-46.13
-53.75
-61.45
-67.63
-71.01
-71.02
-68
-62.9
-56.98
-51.45
-47.33
-45.32
-45.73
-48.33
-52.44
-57.11
-61.43
-64.84
-67.27
-69.03
-70.49
-71.83
-73.08
-74.17
-75.23
-76.61
-78.76
-81.97
-86.2
-91.04
-95.9
-100.29
-103.94
-106.77
-108.66
-109.24
-107.85
-103.76
-96.52
-86.27
-73.79
-60.25
-46.73
-33.87
-21.76
-10.17
1.03
11.58
20.81
28.02
32.83
35.48
36.77
37.64
38.74
40.18
41.64
42.72
43.34
43.82
44.68
46.18
48.03
49.42
49.44
47.7
44.72
41.81
40.56
42.08
46.54
53.14
60.56
67.51
73.21
77.52
80.8
83.7
87.04
91.6
97.98
106.33
116.17
126.42
135.6
142.29
145.51
144.98
141.04
134.41
125.84
115.93
105.06
93.53
81.67
69.9
58.72
48.54
39.6
31.84
24.91
18.23
11.16
3.09
-6.4
-17.51
-30.11
-43.69
-57.47
-70.58
-82.24
-92.08
-100.14
-106.84
-112.68
-117.98
-122.66
-126.24
-128.03
-127.42
-124.14
-118.37
-110.72
-101.98
-92.89
-83.94
-75.33
-67.12
-59.29
-51.94
-45.23
-39.3
-34.09
-29.28
-24.34
-18.79
-12.48
-5.77
0.48
5.22
7.67
7.79
6.39
4.9
4.87
7.27
12.24
19.13
27.01
35.09
42.87
49.91
55.55
58.78
58.59
54.42
46.6
36.28
25.07
14.37
5.1
-2.39
-8.03
-11.8
-13.66
-13.76
-12.45
-10.33
-7.95
-5.61
-3.34
-0.96
1.61
4.25
6.7
8.67
10.11
11.21
12.37
14.03
16.52
19.95
24.14
28.74
33.3
37.36
40.64
43.04
44.71
46.07
47.58
49.61
52.17
54.91
57.13
58.11
57.39
55
51.44
47.48
43.83
40.86
38.49
36.36
34.14
31.62
28.94
26.35
24.15
22.56
21.76
21.9
23.02
24.81
26.32
25.88
21.44
11.35
-4.76
-25.51
-47.94
-68.49
-84.25
-93.85
-97.59
-96.79
-92.85
-86.6
-78.29
-68.14
-56.93
-46.12
-37.48
-32.22
-30.5
-31.32
-33.16
-34.73
-35.64
-36.31
-37.65
-40.3
-44.26
-48.85
-52.96
-55.55
-55.97
-54.14
-50.39
-45.2
-38.94
-31.72
-23.44
-13.96
-3.27
8.36
20.38
32.16
43.09
52.83
61.32
68.67
75.02
80.27
84.08
85.86
85.06
81.35
74.74
65.63
54.62
42.45
29.85
17.53
6.15
-3.7
-11.67
-17.66
-21.81
-24.46
-25.95
-26.52
-26.31
-25.39
-23.82
-21.73
-19.27
-16.6
-13.93
-11.45
-9.4
-7.99
-7.35
-7.48
-8.22
-9.31
-10.47
-11.5
-12.33
-12.97
-13.52
-14.03
-14.54
-15.01
-15.41
-15.71
-15.93
-16.05
-16.03
-15.75
-15.1
-14.04
-12.66
-11.17
-9.76
-8.52
-7.36
-6.01
-4.3
-2.23
-0.12
1.47
1.97
1.05
-1.16
-4.07
-6.92
-9.07
-10.33
-11.07
-12.04
-14.04
-17.52
-22.35
-27.85
-33.07
-37.22
-39.96
-41.5
-42.51
-43.7
-45.49
-47.77
-49.9
-50.93
-49.97
-46.54
-40.83
-33.71
-26.51
-20.78
-17.94
-18.74
-22.87
-28.69
-33.49
-34.34
-29.21
-17.99
-2.71
13.13
25.95
33.48
35.59
34.05
31.4
29.66
29.39
29.62
28.72
25.44
19.86
13.4
8.17
5.85
6.81
9.93
13.35
15.54
16.2
16.41
18.01
22.66
31.12
43.14
57.68
73.33
88.47
101.25
109.69
112.1
107.65
96.86
81.5
64.05
46.86
31.56
18.93
9.07
1.67
-3.81
-8.2
-12.42
-17.28
-23.04
-29.3
-35.19
-39.79
-42.65
-43.96
-44.32
-44.3
-44.08
-43.44
-41.87
-38.97
-34.63
-29.13
-23.02
-16.93
-11.37
-6.65
-2.83
0.12
2.25
3.54
4.02
3.81
3.29
2.95
3.13
3.78
4.34
4.02
2.24
-0.95
-4.8
-8.15
-9.99
-10.03
-8.79
-7.26
-6.26
-5.88
-5.31
-3.22
1.5
9
18.21
27.14
33.64
36.35
35.19
31.38
26.95
23.9
23.47
25.85
30.12
34.67
37.71
37.76
34.09
26.9
17.27
6.71
-3.47
-12.77
-21.8
-32
-44.91
-61.57
-82.06
-105.53
-130.27
-153.72
-172.33
-181.71
-177.87
-159.01
-127.09
-87.87
-48.9
-16.52
6.7
22.33
34.25
45.86
58.22
70.07
79.48
85.68
89.84
94.29
100.91
110
120.15
129.04
134.7
136.34
134.52
130.92
127.7
126.53
127.77
130.01
130.59
126.83
117.52
103.88
89.23
77.5
71.31
70.46
71.95
71.28
64.58
50.35
30.04
7.04
-15.17
-34.76
-52.12
-69.06
-87.26
-106.99
-126.89
-144.84
-159.43
-170.73
-180.11
-188.89
-197.2
-203.56
-205.59
-201.4
-190.63
-174.58
-155.42
-135.11
-114.75
-94.48
-74.06
-53.23
-31.94
-10.38
10.96
31.18
48.92
62.75
71.79
76.23
77.32
76.7
75.47
73.64
70.24
64.21
55.26
44.3
33.09
23.49
16.6
12.51
10.4
9.07
7.47
5.15
2.38
-0.03
-1.16
-0.63
1.17
3.26
4.64
4.96
4.61
4.35
4.59
5.04
4.92
3.64
1.52
-0.27
-0.45
1.26
3.62
4.21
0.83
-7.2
-18.38
-29.68
-38.01
-41.65
-40.93
-37.75
-34.37
-32.23
-31.42
-31.03
-29.88
-27.43
-24.1
-20.98
-19.18
-19.21
-20.64
-22.39
-23.25
-22.49
-20.24
-17.29
-14.66
-13.01
-12.28
-11.76
-10.6
-8.45
-5.75
-3.56
-2.95
-4.25
-6.7
-8.71
-8.64
-5.61
0.02
6.94
13.58
18.93
22.78
25.49
27.35
28.23
27.74
25.66
22.39
18.9
16.16
14.57
13.62
12.31
9.8
5.95
1.38
-3.06
-6.78
-9.78
-12.42
-14.95
-17.17
-18.55
-18.64
-17.36
-15.14
-12.64
-10.37
-8.54
-7.21
-6.42
-6.46
-7.78
-10.64
-14.78
-19.24
-22.55
-23.24
-20.52
-14.71
-7.18
-0.01
4.75
5.7
2.46
-4.31
-13.18
-22.28
-29.72
-33.94
-34.27
-31.27
-26.68
-22.85
-21.64
-23.32
-26.04
-26.54
-21.47
-9.14
9.44
30.66
49.57
61.88
65.56
61.52
53.04
44.56
40.24
42.91
53.39
70.31
90.35
108.82
120.95
123.2
114.6
97.06
74.59
51.65
31.35
14.59
0.38
-12.88
-26.11
-39.08
-50.8
-60.5
-68.28
-75.07
-81.94
-89.29
-96.28
-100.91
-100.48
-92.19
-73.7
-43.79
-2.97
45.98
98.12
147.26
187.64
215.5
229.95
232.59
226.18
213.19
195.13
172.86
147.51
121.06
95.92
73.69
54.18
35.35
14.73
-8.79
-33.8
-56.85
-74.3
-84.24
-87.53
-86.98
-85.63
-85.05
-84.89
-83.74
-80.58
-75.68
-70.44
-66.44
-64.37
-63.75
-63.39
-62.21
-59.8
-56.38
-52.43
-48.17
-43.43
-37.97
-31.71
-25.04
-18.79
-13.93
-11.24
-10.92
-12.48
-14.8
-16.51
-16.56
-14.61
-11.19
-7.44
-4.53
-3.08
-2.84
-2.74
-1.43
2.13
8.12
15.68
23.12
28.51
30.42
28.4
23.16
16.34
9.87
5.39
3.81
5.19
8.86
13.63
18.03
20.5
19.77
15.29
7.53
-2
-11.18
-18.11
-21.83
-22.7
-22.01
-21.13
-20.7
-20.22
-18.36
-13.85
-6.41
2.81
11.64
17.73
19.59
17.18
11.77
5.27
-0.59
-4.85
-7.38
-8.52
-8.67
-7.98
-6.46
-4.24
-1.71
0.42
1.41
0.85
-1.11
-3.86
-6.46
-8.06
-8.12
-6.64
-4.03
-0.97
1.95
4.33
6.11
7.45
8.62
9.89
11.47
13.48
15.92
18.58
21.03
22.77
23.43
23.03
22.03
21.14
20.92
21.4
22.11
22.4
21.93
20.9
19.85
19.16
18.69
17.71
15.38
11.3
5.9
0.21
-4.6
-7.86
-9.58
-10.3
-10.63
-10.95
-11.32
-11.65
-11.96
-12.31
-12.82
-13.45
-14.08
-14.52
-14.78
-14.93
-15.13
-15.44
-15.86
-16.4
-17.21
-18.56
-20.61
-23.2
-25.67
-27.08
-26.62
-24.01
-19.63
-14.45
-9.51
-5.51
-2.61
-0.46
1.48
3.49
5.44
6.78
6.86
5.27
2.12
-1.91
-5.88
-8.91
-10.55
-10.88
-10.37
-9.57
-8.93
-8.56
-8.4
-8.27
-8.09
-7.87
-7.67
-7.39
-6.7
-5.01
-1.78
3.19
9.52
16.22
22.07
26.02
27.6
26.96
24.7
21.5
17.93
14.38
11.15
8.58
6.98
6.49
6.9
7.69
8.19
7.9
6.73
5.05
3.47
2.61
2.83
4.05
5.83
7.59
8.82
9.29
9.14
8.75
8.51
8.64
9.07
9.47
9.51
9.01
8.04
6.92
6
5.51
5.44
5.53
5.42
4.86
3.85
2.68
1.8
1.55
1.99
2.81
3.5
3.56
2.75
1.22
-0.65
-2.38
-3.63
-4.26
-4.36
-4.15
-3.93
-3.97
-4.38
-5.04
-5.69
-5.98
-5.72
-4.99
-4.15
-3.63
-3.75
-4.49
-5.54
-6.48
-7
-7.12
-7.11
-7.32
-7.96
-9.02
-10.2
-11.18
-11.72
-11.73
-11.25
-10.41
-9.32
-8.13
-7.02
-6.18
-5.73
-5.61
-5.59
-5.37
-4.78
-3.94
-3.19
-2.96
-3.53
-4.85
-6.62
-8.38
-9.7
-10.28
-9.91
-8.48
-5.99
-2.6
1.28
5.11
8.27
10.25
10.8
10
8.27
6.29
4.79
4.36
5.27
7.35
10.03
12.64
14.56
15.57
15.82
15.75
15.82
16.2
16.68
16.74
15.83
13.66
10.43
6.75
3.39
0.89
-0.68
-1.71
-2.77
-4.22
-6.04
-7.83
-9.15
-9.76
-9.79
-9.58
-9.45
-9.44
-9.4
-9.1
-8.46
-7.59
-6.66
-5.68
-4.34
-2.06
1.71
7.19
14.1
21.59
28.54
33.85
36.83
37.38
35.96
33.37
30.35
27.36
24.38
21.07
17.09
12.33
7.12
2.13
-2
-4.92
-6.74
-7.86
-8.7
-9.37
-9.64
-9.1
-7.48
-4.86
-1.72
1.31
3.74
5.38
6.32
6.78
6.83
6.39
5.28
3.41
0.89
-1.94
-4.49
-6.05
-5.85
-3.31
1.63
8.22
14.89
19.69
21.05
18.64
13.62
8.2
4.53
3.67
5.1
7.2
8.32
7.7
5.8
3.75
2.38
1.66
0.62
-1.83
-6.21
-12.01
-17.96
-22.78
-25.83
-27.37
-28.27
-29.45
-31.3
-33.6
-35.79
-37.39
-38.39
-39.18
-40.12
-41.13
-41.48
-40.03
-35.82
-28.62
-19.1
-8.56
1.62
10.5
17.71
23.36
27.74
31.22
34.21
37.26
40.92
45.45
50.5
55.15
58.24
58.83
56.57
51.69
44.72
36.17
26.49
16.23
6.28
-2.2
-8.15
-11.14
-11.72
-11.2
-11.06
-12.25
-14.88
-18.36
-21.92
-25.1
-27.89
-30.53
-33.08
-35.25
-36.41
-35.9
-33.38
-29.01
-23.31
-16.96
-10.59
-4.56
0.9
5.7
9.77
13.01
15.3
16.49
16.58
15.81
14.69
13.91
13.99
14.95
16.2
16.74
15.61
12.41
7.38
1.24
-5.21
-11.48
-17.37
-22.78
-27.39
-30.62
-31.84
-30.65
-27.25
-22.33
-16.83
-11.5
-6.72
-2.42
1.67
5.81
9.97
13.81
16.8
18.45
18.63
17.82
17.05
17.52
20.05
24.57
29.95
34.43
36.34
34.96
30.8
25.3
20.04
16.01
13.24
11.03
8.57
5.47
2.01
-1.16
-3.42
-4.55
-4.76
-4.46
-3.95
-3.26
-2.26
-0.82
0.99
2.8
4.12
4.5
3.78
2.18
0.22
-1.41
-2.15
-1.71
-0.18
1.99
4.12
5.47
5.47
3.86
0.79
-3.21
-7.32
-10.69
-12.66
-12.95
-11.77
-9.68
-7.46
-5.78
-5.04
-5.33
-6.46
-8.1
-9.97
-11.73
-13.12
-13.87
-13.82
-13.01
-11.71
-10.35
-9.33
-8.86
-8.92
-9.38
-10.06
-10.88
-11.79
-12.73
-13.55
-14.05
-14.12
-13.78
-13.14
-12.28
-11.28
-10.2
-9.18
-8.54
-8.59
-9.59
-11.41
-13.57
-15.32
-15.91
-14.87
-12.18
-8.26
-3.85
0.2
3.19
4.63
4.42
2.75
0.06
-3.03
-5.87
-7.74
-7.93
-5.96
-1.82
3.81
9.6
13.88
15.07
12.35
5.98
-2.7
-11.68
-18.92
-23.04
-23.68
-21.48
-17.72
-13.96
-11.51
-11.16
-13
-16.53
-20.87
-25.11
-28.52
-30.54
-30.62
-28.11
-22.32
-12.91
-0.26
14.24
28.4
39.77
46.25
46.57
40.5
28.81
13.36
-3.1
-17.18
-25.73
-26.79
-20.48
-8.9
4.65
17.14
26.92
34.05
39.71
45.14
50.88
56.66
61.98
66.69
71.38
77.06
84.59
94.02
104.44
114.29
121.92
126.28
127.11
124.84
120.1
113.15
103.68
90.99
74.57
54.73
32.79
10.72
-9.75
-27.93
-44.39
-60.42
-77.07
-94.27
-110.72
-124.47
-133.89
-138.31
-138.03
-133.83
-126.32
-115.74
-102.19
-86.16
-68.88
-52.07
-37.39
-25.74
-16.86
-9.59
-2.48
5.37
13.78
21.56
27.1
29.3
28.15
24.82
21.11
18.71
18.58
20.72
24.44
28.83
33.15
37.06
40.53
43.84
47.53
52.35
58.95
67.5
77.17
86.15
92.01
92.59
86.92
75.69
60.95
45.1
29.47
13.34
-6.13
-32.71
-69.24
-115.56
-167.39
-216.75
-254.29
-272.54
-268.5
-244.42
-206.53
-162.3
-117.94
-77.17
-41.44
-10.91
14.65
35.78
53.43
68.97
83.62
97.76
110.39
119.53
123.05
119.67
109.34
93.06
72.47
49.57
26.68
6.02
-10.77
-23.27
-32.6
-41.03
-50.86
-63.23
-77.52
-91.61
-103.03
-109.98
-111.97
-109.65
-104.25
-96.94
-88.61
-79.96
-71.64
-64.16
-57.7
-52.11
-47.18
-43.26
-41.25
-41.83
-44.58
-47.65
-48.9
-47.64
-45.77
-47.05
-54.58
-68.1
-83.12
-92.57
-90.14
-73.23
-43.68
-6.16
34.4
74.74
113.39
149.5
181.63
207.61
225.39
234.13
234.67
229.12
219.88
208.89
197.01
184.16
169.84
153.87
136.91
120.53
106.48
95.92
88.9
84.59
82.03
80.79
80.87
82.23
84.19
85.39
84.41
80.64
74.57
67.44
60.35
53.49
46.24
37.86
28.32
18.59
10.13
3.93
-0.21
-3.74
-8.74
-17.04
-29.54
-46.02
-65.34
-85.78
-105.49
-122.84
-136.76
-147.21
-155.35
-163.29
-173.18
-186.19
-202
-219.11
-235.57
-249.81
-260.67
-267.09
-267.65
-260.65
-244.93
-220.69
-189.79
-155.03
-118.97
-82.87
-46.68
-9.82
27.68
64.34
97.34
123.31
139.54
145.1
141.33
131.79
121.22
114.02
112.74
117.21
124.87
131.97
135.21
132.83
124.73
111.73
94.73
74.41
51.68
28.21
6.68
-9.86
-18.99
-19.92
-13.9
-3.84
6.66
14.39
17.22
14.3
5.9
-6.87
-22.09
-36.95
-47.73
-50.24
-40.68
-16.82
21.03
69.63
123.31
175.27
219.31
251.23
269.51
275.03
270.26
258.13
241.38
222.13
201.87
181.59
161.68
141.92
121.46
98.97
73.05
42.71
7.8
-30.8
-71.25
-111.21
-148.43
-181.34
-209.38
-232.96
-252.91
-269.73
-283.13
-291.85
-294.29
-289.33
-277.07
-258.98
-237.4
-214.65
-192.34
-171.14
-150.93
-131.24
-111.49
-91.23
-70.15
-48.25
-25.86
-3.78
16.8
34.5
48.1
56.95
61.27
62.15
61.44
61.16
62.77
66.62
71.8
76.27
77.55
73.45
62.66
45.2
22.52
-2.54
-26.11
-44.14
-53.45
-52.73
-42.95
-26.95
-8.41
9.33
24.04
34.77
41.39
43.96
42.41
36.58
26.51
12.94
-2.53
-17.77
-30.72
-40.2
-46.31
-50.27
-53.8
-58.11
-63.22
-67.86
-70.15
-68.59
-62.85
-54.01
-44.1
-35.28
-28.93
-25.3
-23.63
-22.64
-21.2
-18.8
-15.72
-12.86
-11.24
-11.57
-13.83
-17.3
-20.81
-23.23
-23.97
-23.26
-22
-21.39
-22.37
-25.31
-29.97
-35.68
-41.57
-46.75
-50.56
-52.68
-53.43
-53.83
-55.32
-58.93
-64.37
-69.4
-69.95
-61.18
-39.33
-3.42
43.74
96.01
145.69
185.93
212.85
226.33
229.35
226.15
220.32
213.63
206.09
197.02
186.1
173.89
161.47
149.68
138.46
126.95
114.07
99.25
82.77
65.6
48.85
33.23
18.82
5.07
-8.74
-23.17
-38.27
-53.57
-68.27
-81.5
-92.65
-101.61
-108.73
-114.69
-120.2
-125.71
-131.33
-136.85
-141.89
-146.15
-149.61
-152.63
-155.88
-160.05
-165.3
-170.85
-174.92
-175.25
-170.14
-159.35
-144.45
-128.24
-113.7
-102.81
-96.1
-92.81
-91.44
-90.49
-88.88
-86.21
-82.75
-79.32
-76.98
-76.43
-77.41
-78.51
-77.4
-71.77
-60.39
-43.61
-23.2
-1.33
20.46
42.04
64.63
90.03
119.67
153.6
190.15
226.37
258.84
284.8
302.79
312.75
315.48
312.05
303.51
290.92
275.7
259.77
245.23
233.55
224.93
218.09
210.86
201.1
187.6
170.33
150.14
128.3
105.97
84.12
63.47
44.44
27.11
11.13
-4.14
-19.36
-34.88
-50.54
-65.74
-79.59
-91.18
-99.67
-104.44
-105.19
-102.18
-96.3
-88.9
-81.5
-75.33
-71.06
-68.82
-68.39
-69.43
-71.54
-74.2
-76.64
-78.04
-77.8
-75.89
-72.96
-70.12
-68.49
-68.87
-71.51
-76.17
-82.41
-89.7
-97.63
-105.77
-113.71
-120.92
-126.95
-131.59
-135
-137.77
-140.71
-144.55
-149.58
-155.49
-161.33
-165.87
-167.98
-166.96
-162.62
-155.18
-145.04
-132.66
-118.44
-102.65
-85.39
-66.6
-46.3
-24.76
-2.62
19.14
39.54
57.87
73.75
86.89
96.75
102.42
102.91
97.81
87.72
74.27
59.37
44.3
29.12
12.73
-6.36
-29.01
-54.71
-81.6
-107.04
-128.57
-144.81
-155.95
-163.59
-170.16
-178.05
-188.65
-201.59
-214.45
-223.08
-222.45
-207.9
-176.6
-128.69
-67.93
-1.15
63.28
117.73
157.32
181.12
191.78
194.28
193.95
194.97
199.62
208.37
220.49
234.58
248.98
261.88
271.41
276
274.87
268.42
258.19
246.51
235.93
228.48
225.3
226.51
231.33
238.36
246.01
252.98
258.69
263.5
268.25
273.47
278.54
281.26
278.34
266.77
245.1
214.09
176.1
133.7
88.51
40.92
-9.08
-60.53
-110.75
-155.65
-191.09
-214.42
-225.45
-226.36
-220.62
-211.76
-202.23
-192.96
-183.66
-173.44
-161.43
-147.35
-131.57
-115.02
-98.88
-84.24
-71.89
-62.24
-55.4
-51.1
-48.81
-47.77
-47.05
-45.71
-43
-38.46
-32.01
-23.96
-14.95
-5.94
2.01
7.98
11.6
13.19
13.8
14.76
17.27
22.01
29.27
39.03
51.33
66.36
84.21
104.62
126.72
149.08
170
187.99
201.89
210.97
214.78
213.08
205.96
193.94
178.14
160.08
141.46
123.59
107.14
92.02
77.51
62.67
46.84
29.85
12.23
-4.94
-20.11
-31.61
-37.98
-38.39
-32.93
-22.69
-9.44
4.88
18.58
30.4
39.31
44.25
44
37.51
24.36
5.14
-18.57
-44.71
-71.41
-97.42
-122.13
-145.2
-166.15
-184.26
-198.62
-208.48
-213.41
-213.41
-208.78
-200.08
-187.99
-173.35
-157.04
-139.84
-122.31
-104.75
-87.2
-69.74
-52.49
-35.68
-19.59
-4.68
8.26
17.94
22.71
21.09
12.53
-2.07
-20.58
-40.4
-59.48
-76.83
-92.29
-105.58
-115.58
-120.31
-117.86
-107.61
-90.96
-71.04
-51.54
-35.39
-24.01
-17.36
-14.52
-14.4
-16.23
-19.64
-24.55
-30.96
-38.82
-47.93
-57.88
-68.17
-78.38
-88.44
-98.65
-109.54
-121.44
-134.16
-146.92
-158.72
-168.78
-176.9
-183.32
-188.37
-192.08
-193.95
-193.14
-188.74
-180.26
-167.8
-152.3
-135.45
-119.48
-106.73
-98.98
-96.8
-99.25
-104.04
-108.34
-109.76
-107.17
-100.89
-92.27
-82.9
-73.94
-66.08
-59.75
-55.3
-52.91
-51.93
-50.39
-45.25
-33.62
-14.38
10.72
37.45
60.95
78.05
88.71
95.39
101.06
106.81
111
110.5
103
89.16
72.79
59.3
