0.29
-0.48
-1.25
-2.27
-3.77
-5.66
-7.57
-8.92
-9.21
-8.27
-6.38
-4.13
-2.04
-0.34
1.19
2.99
5.32
8.02
10.49
11.98
12.12
11.1
9.62
8.47
8.1
8.38
8.79
8.7
7.84
6.31
4.5
2.79
1.39
0.39
-0.2
-0.35
-0.11
0.31
0.46
-0.11
-1.63
-3.96
-6.53
-8.63
-9.71
-9.57
-8.42
-6.62
-4.56
-2.46
-0.35
1.78
3.91
5.92
7.65
8.95
9.63
9.62
8.93
7.71
6.3
5.1
4.49
4.7
5.64
7.01
8.35
9.17
9.17
8.32
6.9
5.33
3.99
3.04
2.39
1.87
1.33
0.8
0.39
0.16
-0.02
-0.4
-1.17
-2.23
-3.09
-3.22
-2.28
-0.41
1.88
4
5.61
6.75
7.75
8.87
10.11
11.23
11.8
11.49
10.2
8.17
5.89
3.87
2.47
1.63
0.96
0.01
-1.48
-3.29
-4.88
-5.7
-5.53
-4.73
-3.97
-3.81
-4.39
-5.4
-6.29
-6.67
-6.5
-6.05
-5.62
-5.36
-5.14
-4.69
-3.74
-2.17
-0.16
1.91
3.55
4.33
4.08
2.92
1.27
-0.4
-1.67
-2.38
-2.58
-2.46
-2.3
-2.28
-2.5
-2.93
-3.38
-3.7
-3.76
-3.64
-3.55
-3.74
-4.26
-4.98
-5.6
-5.91
-5.93
-5.97
-6.44
-7.53
-9.06
-10.51
-11.27
-10.96
-9.63
-7.68
-5.66
-4
-2.73
-1.63
-0.26
1.6
3.73
5.55
6.32
5.68
3.87
1.7
0.12
-0.31
0.28
1.16
1.5
0.87
-0.41
-1.54
-1.72
-0.72
1.07
2.75
3.53
3.04
1.48
-0.53
-2.33
-3.46
-3.84
-3.71
-3.44
-3.35
-3.56
-3.98
-4.35
-4.39
-3.95
-3.03
-1.85
-0.69
0.21
0.78
1.1
1.3
1.45
1.55
1.49
1.22
0.71
0.1
-0.4
-0.59
-0.36
0.24
0.98
1.52
1.58
0.97
-0.29
-2.06
-4.03
-5.96
-7.62
-8.85
-9.52
-9.48
-8.57
-6.74
-4.22
-1.43
1.04
2.77
3.67
4.04
4.34
4.84
5.55
6.18
6.41
6.08
5.3
4.29
3.22
2.05
0.62
-1.18
-3.25
-5.28
-6.83
-7.55
-7.32
-6.25
-4.64
-2.85
-1.33
-0.48
-0.62
-1.82
-3.83
-6.12
-8.04
-9.05
-8.89
-7.75
-6.05
-4.27
-2.67
-1.23
0.23
1.82
3.39
4.54
4.9
4.31
3.01
1.54
0.4
-0.18
-0.37
-0.65
-1.44
-2.89
-4.78
-6.66
-8.05
-8.62
-8.33
-7.39
-6.19
-5.12
-4.52
-4.49
-4.92
-5.5
-5.83
-5.67
-4.98
-3.99
-2.93
-1.93
-0.9
0.36
1.93
3.68
5.21
6.13
6.2
5.47
4.28
3.01
2.06
1.54
1.39
1.37
1.19
0.67
-0.19
-1.19
-2.03
-2.45
-2.43
-2.23
-2.28
-2.88
-4.06
-5.51
-6.8
-7.51
-7.45
-6.61
-5.12
-3.15
-0.91
1.42
3.63
5.56
7.11
8.17
8.75
8.84
8.49
7.69
6.56
5.25
3.96
2.92
2.27
2.03
2.04
2
1.57
0.55
-1.05
-2.97
-4.86
-6.41
-7.5
-8.23
-8.7
-9.01
-9.12
-8.93
-8.34
-7.31
-5.83
-3.94
-1.79
0.34
2.12
3.24
3.58
3.38
3.04
2.95
3.19
3.5
3.43
2.68
1.3
-0.23
-1.37
-1.77
-1.52
-1.02
-0.71
-0.83
-1.33
-2
-2.61
-3.08
-3.44
-3.66
-3.56
-2.91
-1.58
0.3
2.28
3.75
4.27
3.7
2.37
0.84
-0.32
-0.8
-0.7
-0.49
-0.72
-1.69
-3.24
-4.76
-5.52
-5
-3.28
-1.08
0.61
0.99
-0.14
-2.3
-4.57
-6.07
-6.34
-5.5
-4.08
-2.74
-1.87
-1.44
-1.1
-0.44
0.73
2.17
3.38
3.88
3.47
2.32
0.8
-0.72
-2.13
-3.47
-4.72
-5.67
-5.89
-5.01
-2.99
-0.26
2.38
4.01
3.91
1.85
-1.76
-6.02
-9.67
-11.55
-10.93
-7.92
-3.42
1.17
4.51
5.88
5.36
3.61
1.51
-0.3
-1.57
-2.31
-2.57
-2.45
-2.05
-1.68
-1.8
-2.79
-4.57
-6.48
-7.4
-6.33
-2.8
2.68
8.88
14.28
17.78
19.02
18.42
16.78
14.96
13.42
12.28
11.38
10.5
9.52
8.47
7.41
6.42
5.47
4.51
3.58
2.74
2.24
2.29
2.94
4.02
5.14
5.85
5.82
4.99
3.61
2.11
0.89
0.11
-0.4
-1.01
-2.05
-3.57
-5.21
-6.43
-6.78
-6.08
-4.63
-2.92
-1.4
-0.21
0.82
1.99
3.36
4.74
5.73
6.03
5.71
5.16
4.84
5.08
5.84
6.79
7.51
7.69
7.27
6.37
5.24
4.1
3.12
2.33
1.62
0.78
-0.39
-1.99
-3.94
-5.9
-7.45
-8.17
-7.8
-6.31
-3.93
-1.12
1.55
3.61
4.87
5.44
5.78
6.31
7.24
8.4
9.35
9.69
9.33
8.57
7.88
7.62
7.82
8.24
8.51
8.38
7.81
6.95
6
5.03
4.11
3.26
2.53
2.01
1.7
1.5
1.18
0.54
-0.5
-1.79
-3.09
-4.18
-4.86
-5.07
-4.8
-4.04
-2.74
-0.94
1.26
3.68
5.97
7.81
8.83
8.82
7.82
6.18
4.52
3.62
3.98
5.67
8.19
10.56
11.88
11.6
9.75
6.87
3.64
0.69
-1.73
-3.58
-4.93
-5.79
-6.1
-5.87
-5.27
-4.6
-4.08
-3.79
-3.51
-3.05
-2.43
-1.94
-1.95
-2.59
-3.63
-4.52
-4.82
-4.46
-3.77
-3.2
-2.89
-2.55
-1.63
0.16
2.54
4.72
5.83
5.47
3.98
2.27
1.25
1.36
2.38
3.65
4.45
4.41
3.54
2.14
0.54
-1.04
-2.41
-3.35
-3.6
-3.04
-1.79
-0.37
0.55
0.47
-0.66
-2.44
-4.13
-5.18
-5.33
-4.72
-3.72
-2.73
-1.96
-1.5
-1.39
-1.67
-2.37
-3.41
-4.62
-5.76
-6.57
-6.96
-6.98
-6.76
-6.39
-5.86
-4.97
-3.59
-1.66
0.58
2.69
4.08
4.31
3.25
1.09
-1.63
-4.19
-6.01
-6.76
-6.56
-5.86
-5.17
-4.89
-5.08
-5.46
-5.64
-5.38
-4.66
-3.77
-3.01
-2.56
-2.33
-2.09
-1.61
-0.85
0
0.68
0.93
0.64
-0.19
-1.4
-2.8
-4.17
-5.35
-6.21
-6.57
-6.35
-5.46
-3.97
-2.17
-0.53
0.52
0.77
0.35
-0.28
-0.57
-0.19
0.78
1.92
2.67
2.72
2.09
1.13
0.24
-0.36
-0.68
-0.83
-0.9
-0.94
-0.99
-1.17
-1.65
-2.46
-3.46
-4.27
-4.51
-4
-2.91
-1.65
-0.71
-0.33
-0.37
-0.55
-0.62
-0.52
-0.35
-0.21
-0.01
0.51
1.54
3.03
4.63
5.81
6.17
5.68
4.66
3.68
3.22
3.39
3.91
4.32
4.14
3.18
1.53
-0.41
-2.25
-3.58
-4.23
-4.15
-3.48
-2.46
-1.34
-0.36
0.28
0.44
0.05
-0.85
-2.12
-3.55
-4.92
-6
-6.68
-6.99
-7.15
-7.41
-8.01
-8.9
-9.79
-10.22
-9.77
-8.32
-6.17
-3.78
-1.57
0.29
1.89
3.38
4.69
5.54
5.54
4.66
3.32
2.2
1.92
2.58
3.81
4.98
5.64
5.69
5.29
4.62
3.63
2.21
0.38
-1.47
-2.74
-2.91
-2.01
-0.63
0.33
0.23
-0.98
-2.83
-4.64
-5.97
-6.74
-7.05
-7.07
-6.76
-5.99
-4.74
-3.2
-1.69
-0.52
0.25
0.73
1.06
1.25
1.1
0.33
-1.16
-3.22
-5.44
-7.29
-8.39
-8.61
-8.09
-7.1
-5.95
-4.91
-4.17
-3.84
-3.97
-4.46
-5.14
-5.76
-6.13
-6.24
-6.2
-6.19
-6.26
-6.33
-6.19
-5.65
-4.77
-3.75
-2.89
-2.32
-1.91
-1.26
-0.02
1.87
4.12
6.14
7.35
7.47
6.55
5.01
3.37
2.03
1.13
0.51
-0.07
-0.76
-1.47
-1.93
-1.87
-1.25
-0.29
0.59
0.93
0.54
-0.48
-1.8
-3
-3.77
-4.07
-4.01
-3.73
-3.32
-2.86
-2.38
-1.99
-1.8
-1.84
-1.98
-1.91
-1.31
0
1.95
4.19
6.2
7.53
8.03
7.74
6.96
5.96
4.98
4.11
3.4
2.88
2.64
2.73
3.19
3.88
4.47
4.6
4.02
2.75
1.05
-0.59
-1.71
-1.99
-1.42
-0.28
0.96
1.81
1.95
1.42
0.41
-0.78
-1.94
-2.99
-3.91
-4.66
-5.06
-4.94
-4.22
-3.08
-1.99
-1.39
-1.44
-1.95
-2.5
-2.82
-2.94
-3.18
-3.84
-4.81
-5.54
-5.39
-4.05
-1.86
0.36
1.74
1.92
1.19
0.19
-0.46
-0.62
-0.59
-0.8
-1.43
-2.35
-3.21
-3.78
-4.03
-4.12
-4.18
-4.12
-3.66
-2.58
-0.88
1.13
2.97
4.23
4.68
4.33
3.5
2.52
1.71
1.24
1.05
0.98
0.76
0.29
-0.36
-0.97
-1.33
-1.42
-1.44
-1.69
-2.38
-3.43
-4.44
-4.93
-4.51
-3.23
-1.51
-0
0.78
0.64
-0.13
-0.98
-1.42
-1.27
-0.76
-0.28
-0.13
-0.32
-0.57
-0.48
0.18
1.36
2.71
3.78
4.18
3.78
2.69
1.26
-0.13
-1.11
-1.43
-0.99
0.12
1.55
2.85
3.48
3.11
1.69
-0.39
-2.53
-4.07
-4.64
-4.33
-3.6
-3.03
-2.97
-3.39
-3.98
-4.38
-4.43
-4.25
-4.13
-4.28
-4.74
-5.29
-5.59
-5.33
-4.26
-2.37
0.21
3.07
5.72
7.55
8.14
7.35
5.48
3.17
1.15
-0
-0.24
0.16
0.66
0.91
0.87
0.82
1.1
1.83
2.81
3.57
3.69
2.96
1.51
-0.28
-2.03
-3.39
-4.26
-4.59
-4.41
-3.7
-2.5
-0.93
0.78
2.27
3.23
3.54
3.37
3.11
3.19
3.74
4.45
4.78
4.15
2.41
-0.01
-2.32
-3.67
-3.62
-2.28
-0.22
1.85
3.26
3.68
3.04
1.49
-0.53
-2.57
-4.21
-5.28
-5.86
-6.15
-6.27
-6.13
-5.44
-3.99
-1.87
0.49
2.52
3.9
4.68
5.27
6
6.86
7.39
6.91
5.06
2.08
-1.13
-3.51
-4.23
-3.27
-1.29
0.68
1.75
1.64
0.61
-0.71
-1.76
-2.22
-2.22
-2.12
-2.24
-2.78
-3.73
-4.96
-6.3
-7.57
-8.58
-9.11
-8.94
-7.9
-5.99
-3.42
-0.64
1.84
3.59
4.42
4.35
3.58
2.3
0.71
-1.02
-2.61
-3.74
-4.15
-3.74
-2.82
-1.88
-1.52
-2.06
-3.39
-5.07
-6.52
-7.39
-7.57
-7.3
-6.9
-6.67
-6.81
-7.43
-8.45
-9.7
-10.8
-11.33
-11.02
-9.78
-7.86
-5.61
-3.36
-1.33
0.46
2.01
3.29
4.15
4.52
4.4
4.01
3.62
3.42
3.45
3.54
3.51
3.26
2.83
2.31
1.78
1.34
1.11
1.23
1.73
2.56
3.35
3.61
2.94
1.19
-1.25
-3.71
-5.42
-5.95
-5.28
-3.86
-2.22
-0.77
0.35
1.29
2.18
3.04
3.65
3.75
3.2
2.07
0.71
-0.45
-1.11
-1.19
-0.84
-0.28
0.27
0.73
1.08
1.3
1.33
1.1
0.58
-0.21
-1.17
-2.24
-3.33
-4.41
-5.34
-5.95
-6.03
-5.55
-4.64
-3.57
-2.59
-1.79
-1.08
-0.23
0.84
2.08
3.24
4.09
4.42
4.2
3.58
2.83
2.19
1.92
2.08
2.54
3.08
3.41
3.4
3.03
2.47
1.94
1.58
1.48
1.59
1.78
1.79
1.32
0.1
-1.9
-4.32
-6.46
-7.53
-7.02
-5.02
-2.18
0.63
2.68
3.73
4.07
4.1
4.12
4.07
3.74
2.89
1.64
0.4
-0.21
0.2
1.67
3.8
5.9
7.29
7.59
6.85
5.49
4.07
3.04
2.56
2.5
2.52
2.31
1.61
0.46
-1.02
-2.55
-3.9
-4.84
-5.21
-4.97
-4.19
-2.97
-1.45
0.28
2.12
3.96
5.55
6.57
6.71
5.92
4.45
2.88
1.87
1.88
2.92
4.59
6.23
7.16
7.03
5.91
4.18
2.39
0.99
0.27
0.22
0.71
1.51
2.33
2.81
2.6
1.41
-0.73
-3.41
-5.91
-7.47
-7.64
-6.51
-4.7
-2.91
-1.58
-0.66
0.2
1.36
2.85
4.31
5.3
5.5
5.04
4.36
3.9
3.95
4.38
4.78
4.74
4.06
2.82
1.29
-0.14
-1.18
-1.69
-1.69
-1.39
-1.17
-1.41
-2.39
-4.02
-5.85
-7.08
-7.01
-5.41
-2.73
0.09
2.1
2.83
2.63
2.36
2.8
4.19
5.99
7.23
7.15
5.6
3.25
1.09
-0.06
0.02
0.9
1.8
2.02
1.33
0.02
-1.28
-1.94
-1.64
-0.54
0.79
1.6
1.32
-0.23
-2.73
-5.45
-7.61
-8.59
-8.19
-6.69
-4.57
-2.38
-0.53
0.84
1.76
2.4
2.87
3.26
3.54
3.66
3.62
3.52
3.52
3.81
4.42
5.21
5.85
6.06
5.69
4.88
3.96
3.3
3.09
3.22
3.35
3.13
2.32
0.94
-0.8
-2.61
-4.24
-5.5
-6.18
-6.15
-5.32
-3.77
-1.82
0.18
1.97
3.45
4.76
6.05
7.36
8.5
9.12
8.96
8.04
6.63
5.14
3.88
2.91
2.11
1.31
0.5
-0.15
-0.42
-0.21
0.28
0.64
0.38
-0.76
-2.72
-5.09
-7.37
-9.1
-10.13
-10.52
-10.29
-9.46
-7.89
-5.5
-2.35
1.19
4.66
7.56
9.59
10.68
10.93
10.5
9.59
8.44
7.38
6.84
7.12
8.16
9.54
10.54
10.52
9.17
6.7
3.77
1.17
-0.56
-1.32
-1.48
-1.71
-2.47
-3.91
-5.67
-7.14
-7.75
-7.26
-5.89
-4.13
-2.5
-1.19
-0.02
1.37
3.2
5.38
7.49
9.02
9.72
9.68
9.26
8.83
8.55
8.25
7.67
6.67
5.4
4.26
3.6
3.49
3.65
3.61
3.06
2.07
1.09
0.61
0.86
1.53
1.92
1.36
-0.31
-2.61
-4.59
-5.31
-4.33
-1.87
1.28
4.19
6.16
6.98
6.91
6.46
6.17
6.37
7.09
8.01
8.71
8.8
8.21
7.14
5.94
4.87
3.99
3.17
2.29
1.37
0.6
0.16
0.03
-0.03
-0.41
-1.35
-2.81
-4.42
-5.62
-5.99
-5.42
-4.17
-2.64
-1.22
-0.11
0.78
1.72
2.97
4.58
6.35
7.84
8.6
8.39
7.28
5.73
4.31
3.41
3.12
3.17
3.14
2.76
2
1.17
0.64
0.67
1.11
1.5
1.29
0.04
-2.25
-5.14
-7.95
-9.9
-10.49
-9.62
-7.65
-5.2
-2.83
-0.83
0.93
2.73
4.77
6.89
8.59
9.39
9.1
8.01
6.78
6.05
6.1
6.74
7.39
7.51
6.81
5.36
3.41
1.34
-0.59
-2.16
-3.21
-3.7
-3.74
-3.6
-3.64
-4.13
-5.06
-6.23
-7.3
-7.86
-7.6
-6.32
-3.98
-0.79
2.88
6.42
9.28
10.94
11.22
10.26
8.49
6.51
4.91
4.14
4.28
5.1
6.14
6.92
7.17
6.86
6.15
5.2
4.09
2.86
1.54
0.17
-1.2
-2.64
-4.29
-6.28
-8.52
-10.58
-11.84
-11.73
-10.08
-7.13
-3.45
0.33
3.76
6.49
8.28
8.9
8.26
6.59
4.46
2.66
1.9
2.44
4.03
5.98
7.58
8.34
8.13
7.16
5.64
3.81
1.87
0.05
-1.37
-2.2
-2.48
-2.55
-2.9
-3.95
-5.79
-8.08
-10.27
-11.69
-11.9
-10.83
-8.74
-6.19
-3.71
-1.64
-0.03
1.32
2.62
3.89
4.88
5.14
4.39
2.61
0.25
-2.03
-3.56
-3.94
-3.16
-1.5
0.62
2.71
4.38
5.42
5.89
6.05
6.24
6.67
7.24
7.63
7.43
6.45
4.83
2.91
1.07
-0.46
-1.57
-2.15
-1.96
-0.76
1.49
4.48
7.46
9.54
10.15
9.29
7.51
5.58
4.15
3.45
3.3
3.34
3.29
3.05
2.69
2.31
2.09
2.05
2.16
2.32
2.32
1.99
1.22
0.08
-1.2
-2.24
-2.71
-2.51
-1.86
-1.26
-1.25
-2.13
-3.85
-5.94
-7.73
-8.64
-8.31
-6.8
-4.42
-1.75
0.69
2.5
3.52
3.82
3.66
3.4
3.32
3.46
3.73
3.9
3.82
3.51
3.17
2.95
2.89
2.85
2.57
1.84
0.71
-0.56
-1.63
-2.18
-2.21
-1.88
-1.43
-1.1
-0.97
-1.09
-1.52
-2.35
-3.65
-5.4
-7.36
-9.16
-10.39
-10.75
-10.08
-8.43
-6.03
-3.22
-0.39
2.09
3.9
4.9
5.05
4.5
3.51
2.39
1.42
0.71
0.28
-0.01
-0.25
-0.47
-0.6
-0.5
-0.03
0.76
1.69
2.45
2.76
2.58
1.99
1.22
0.47
-0.16
-0.72
-1.33
-2.09
-3.09
-4.3
-5.65
-7.02
-8.25
-9.22
-9.67
-9.36
-8.08
-5.84
-2.83
0.47
3.49
5.75
6.97
7.12
6.38
5.1
3.55
2.04
0.74
-0.16
-0.65
-0.79
-0.77
-0.87
-1.29
-2.07
-3.04
-3.94
-4.5
-4.59
-4.14
-3.23
-2.01
-0.72
0.33
0.77
0.33
-1.03
-3.02
-5.18
-6.99
-8.15
-8.61
-8.44
-7.69
-6.3
-4.18
-1.39
1.71
4.53
6.42
7.07
6.51
5.16
3.59
2.15
1.08
0.41
0.14
0.24
0.64
1.11
1.37
1.17
0.43
-0.71
-1.95
-2.98
-3.62
-3.8
-3.61
-3.24
-2.85
-2.65
-2.85
-3.51
-4.6
-5.87
-6.99
-7.65
-7.71
-7.2
-6.29
-5.14
-3.86
-2.53
-1.15
0.17
1.3
2.09
2.46
2.43
2.1
1.65
1.27
1.05
0.99
1.02
0.98
0.77
0.32
-0.28
-0.9
-1.36
-1.55
-1.48
-1.21
-0.81
-0.37
0.1
0.54
0.89
0.98
0.66
-0.17
-1.44
-2.92
-4.32
-5.24
-5.41
-4.71
-3.28
-1.46
0.24
1.34
1.68
1.42
1
0.87
1.23
1.89
2.44
2.48
1.86
0.75
-0.48
-1.45
-1.99
-2.19
-2.24
-2.35
-2.6
-2.97
-3.34
-3.62
-3.79
-3.85
-3.81
-3.69
-3.56
-3.42
-3.37
-3.53
-4.04
-4.96
-6.15
-7.29
-7.95
-7.8
-6.75
-5.07
-3.19
-1.51
-0.31
0.41
0.75
0.81
0.61
0.18
-0.37
-0.87
-1.04
-0.74
-0.01
0.85
1.48
1.53
0.87
-0.33
-1.64
-2.55
-2.72
-2.09
-0.92
0.27
0.96
0.84
-0.13
-1.7
-3.49
-5.16
-6.43
-7.18
-7.27
-6.63
-5.22
-3.17
-0.82
1.36
2.84
3.35
2.82
1.57
0.06
-1.23
-1.89
-1.82
-1.1
-0.02
1.05
1.8
2.08
1.87
1.28
0.47
-0.43
-1.33
-2.2
-2.95
-3.47
-3.67
-3.55
-3.32
-3.24
-3.52
-4.17
-5.09
-6.01
-6.65
-6.83
-6.43
-5.5
-4.13
-2.56
-1
0.29
1.24
1.86
2.24
2.38
2.21
1.64
0.65
-0.53
-1.54
-2.03
-1.92
-1.46
-1.06
-1.04
-1.42
-1.91
-2.14
-1.9
-1.29
-0.61
-0.18
-0.07
-0.19
-0.41
-0.67
-1.13
-1.91
-3
-4.17
-4.99
-5.07
-4.26
-2.65
-0.55
1.69
3.74
5.34
6.34
6.55
5.94
4.6
2.81
1.07
-0.13
-0.45
0.12
1.3
2.53
3.19
2.87
1.46
-0.69
-2.99
-4.74
-5.42
-4.96
-3.8
-2.62
-2.16
-2.8
-4.39
-6.34
-7.9
-8.5
-7.99
-6.63
-4.83
-2.97
-1.27
0.2
1.38
2.14
2.39
2.18
1.74
1.45
1.55
1.98
2.41
2.43
1.82
0.76
-0.26
-0.7
-0.3
0.68
1.72
2.22
1.94
1.17
0.51
0.55
1.47
2.89
4.08
4.34
3.35
1.39
-0.86
-2.65
-3.57
-3.69
-3.46
-3.3
-3.31
-3.26
-2.8
-1.87
-0.83
-0.32
-0.81
-2.23
-3.99
-5.25
-5.5
-4.77
-3.61
-2.65
-2.18
-1.97
-1.57
-0.72
0.48
1.56
2.05
1.8
1.08
0.45
0.31
0.71
1.3
1.55
1.05
-0.24
-1.96
-3.55
-4.58
-5.03
-5.19
-5.46
-5.99
-6.57
-6.65
-5.69
-3.66
-0.98
1.55
3.23
3.88
3.84
3.68
3.84
4.36
4.86
4.9
4.24
3.06
1.8
0.94
0.72
1.06
1.64
2.08
2.15
1.74
0.95
-0.04
-1.05
-1.9
-2.52
-2.89
-3.07
-3.12
-3.14
-3.22
-3.39
-3.71
-4.18
-4.78
-5.37
-5.72
-5.52
-4.53
-2.72
-0.3
2.22
4.34
5.63
5.98
5.61
4.91
4.31
4.03
4.06
4.24
4.42
4.55
4.67
4.88
5.21
5.67
6.19
6.74
7.23
7.59
7.74
7.64
7.3
6.84
6.48
6.5
7.16
8.51
10.34
12.19
13.41
13.4
11.73
8.32
3.39
-2.47
-8.55
-14.2
-18.98
-22.81
-25.99
-28.94
-32
-35.27
-38.65
-41.93
-44.88
-47.29
-49
-49.86
-49.74
-48.6
-46.44
-43.25
-38.88
-33.14
-25.93
-17.36
-8.02
1.34
10.09
17.98
25.4
33.12
41.77
51.32
60.89
68.97
74.06
75.16
72.22
65.98
57.67
48.46
39.19
30.31
21.99
14.41
7.86
2.66
-0.99
-3.12
-3.96
-3.82
-2.97
-1.7
-0.44
0.13
-0.68
-3.3
-7.73
-13.35
-19.04
-23.68
-26.51
-27.47
-27.17
-26.58
-26.54
-27.3
-28.46
-29.29
-29.13
-27.86
-25.88
-23.93
-22.73
-22.59
-23.43
-24.87
-26.54
-28.11
-29.29
-29.66
-28.74
-26.2
-22.16
-17.41
-13.12
-10.49
-10.23
-12.35
-16.12
-20.38
-23.85
-25.45
-24.52
-20.97
-15.27
-8.42
-1.81
3.12
5.3
4.4
0.95
-3.82
-8.32
-11.15
-11.3
-8.37
-2.37
6.31
17.05
29.15
41.84
54.43
66.31
77
86.12
93.28
98.01
99.78
98.17
93
84.45
73.09
59.72
45.3
30.86
17.37
5.72
-3.36
-9.53
-12.89
-14.03
-13.91
-13.56
-13.78
-14.9
-16.78
-18.92
-20.7
-21.66
-21.52
-20.29
-18.17
-15.55
-12.99
-11.08
-10.3
-10.86
-12.55
-14.8
-16.88
-18.23
-18.59
-18.2
-17.47
-16.74
-16.12
-15.47
-14.56
-13.26
-11.68
-10.08
-8.69
-7.59
-6.73
-6.11
-5.74
-5.65
-5.76
-5.76
-5.2
-3.88
-2
-0.21
0.68
0.25
-1.23
-2.91
-3.7
-2.81
-0.07
4.06
8.81
13.35
17.08
19.59
20.66
20.25
18.49
15.74
12.42
8.98
5.86
3.44
1.94
1.37
1.51
1.75
1.46
0.2
-1.96
-4.45
-6.43
-7.27
-6.94
-5.86
-4.82
-4.38
-4.73
-5.63
-6.72
-7.68
-8.35
-8.66
-8.48
-7.69
-6.17
-4.03
-1.58
0.69
2.31
2.99
2.68
1.67
0.43
-0.49
-0.77
-0.37
0.32
0.71
0.31
-0.9
-2.39
-3.35
-3.19
-1.88
-0.1
1.18
1.09
-0.55
-3.25
-6.05
-7.99
-8.53
-7.64
-5.8
-3.66
-1.81
-0.53
0.21
0.77
1.51
2.65
4.11
5.52
6.43
6.54
5.85
4.66
3.37
2.37
1.79
1.53
1.3
0.81
-0.07
-1.36
-2.83
-4.18
-5.1
-5.38
-5.08
-4.46
-3.9
-3.71
-3.97
-4.44
-4.77
-4.59
-3.78
-2.45
-0.92
0.53
1.66
2.42
2.79
2.78
2.39
1.66
0.75
-0.07
-0.62
-0.84
-0.91
-1.11
-1.59
-2.28
-2.88
-3.16
-3.05
-2.75
-2.54
-2.57
-2.78
-3.05
-3.25
-3.41
-3.65
-3.96
-4.16
-3.92
-2.98
-1.25
0.95
3.1
4.66
5.32
5.06
4.11
2.79
1.42
0.23
-0.63
-1.15
-1.46
-1.73
-2.13
-2.71
-3.4
-4.05
-4.55
-4.82
-4.89
-4.79
-4.58
-4.4
-4.4
-4.75
-5.52
-6.6
-7.65
-8.22
-7.91
-6.51
-4.09
-1.06
2.08
4.75
6.46
6.87
5.95
3.93
1.4
-0.9
-2.33
-2.59
-1.87
-0.67
0.45
1.12
1.23
0.89
0.21
-0.83
-2.23
-4.04
-6.05
-7.92
-9.16
-9.42
-8.56
-6.75
-4.33
-1.69
0.86
3.1
4.92
6.23
7.01
7.32
7.27
7.01
6.6
6.02
5.2
4.06
2.7
1.32
0.3
-0.12
0.13
0.84
1.58
1.81
1.19
-0.45
-2.98
-5.94
-8.72
-10.74
-11.52
-10.88
-8.86
-5.7
-1.67
2.93
7.74
12.28
15.96
18.26
18.9
18.02
16.15
14.02
12.33
11.46
11.42
11.9
12.45
12.59
12.07
10.81
9.06
7.2
5.69
4.81
4.64
4.95
5.29
5.16
4.27
2.6
0.47
-1.59
-2.97
-3.2
-2.04
0.38
3.64
7.11
10.21
12.57
14.09
14.9
15.24
15.29
15.11
14.71
14.07
13.21
12.25
11.39
10.8
10.56
10.55
10.57
10.39
9.94
9.38
9
9.12
9.7
10.46
10.91
10.6
9.4
7.59
5.69
4.28
3.64
3.69
4.05
4.21
3.78
2.63
0.96
-0.85
-2.34
-3.21
-3.32
-2.7
-1.43
0.4
2.67
5.09
7.27
8.81
9.56
9.59
9.24
8.78
8.33
7.82
7.22
6.74
6.79
7.76
9.63
11.94
13.9
14.9
14.7
13.6
12.09
10.66
9.51
8.63
7.9
7.28
6.82
6.57
6.52
6.51
6.32
5.74
4.62
2.93
0.73
-1.79
-4.33
-6.58
-8.28
-9.24
-9.32
-8.44
-6.58
-3.95
-1.03
1.59
3.31
3.93
3.72
3.31
3.32
4.05
5.25
6.27
6.54
5.9
4.77
3.85
3.67
4.22
5.03
5.45
5.09
4.08
3
2.5
2.85
3.84
4.91
5.49
5.34
4.59
3.62
2.67
1.85
0.99
-0.1
-1.44
-2.88
-4.14
-4.93
-5.14
-4.84
-4.27
-3.67
-3.22
-2.94
-2.7
-2.37
-1.81
-1.03
-0.05
1.03
2.19
3.38
4.49
5.28
5.51
5.03
3.97
2.69
1.59
0.84
0.34
-0.2
-1.01
-1.97
-2.71
-2.88
-2.43
-1.71
-1.27
-1.59
-2.71
-4.27
-5.75
-6.73
-7.04
-6.79
-6.17
-5.43
-4.79
-4.48
-4.76
-5.75
-7.34
-9.08
-10.32
-10.48
-9.26
-6.88
-3.94
-1.21
0.77
1.78
2.01
1.79
1.37
0.8
0.01
-1.05
-2.2
-3.01
-3.09
-2.28
-0.83
0.77
2.01
2.56
2.44
1.8
0.82
-0.44
-1.97
-3.68
-5.38
-6.7
-7.38
-7.36
-6.91
-6.54
-6.67
-7.51
-8.83
-10.09
-10.67
-10.18
-8.64
-6.41
-4
-1.84
-0.21
0.79
1.11
0.78
-0.09
-1.26
-2.33
-2.89
-2.73
-1.99
-1.05
-0.38
-0.29
-0.77
-1.59
-2.37
-2.79
-2.71
-2.17
-1.37
-0.63
-0.25
-0.37
-0.95
-1.74
-2.46
-2.91
-3.04
-2.93
-2.67
-2.28
-1.71
-1.02
-0.33
0.14
0.22
-0.09
-0.59
-1.07
-1.3
-1.29
-1.16
-1.14
-1.38
-1.94
-2.72
-3.53
-4.17
-4.46
-4.36
-3.9
-3.28
-2.61
-2.08
-1.76
-1.71
-1.98
-2.61
-3.57
-4.68
-5.65
-6.18
-6.07
-5.38
-4.43
-3.65
-3.41
-3.85
-4.74
-5.58
-5.83
-5.08
-3.29
-0.88
1.48
3.21
4.04
4.15
4.02
3.98
4.1
4.05
3.42
2.05
0.17
-1.64
-2.83
-3.23
-3.02
-2.58
-2.17
-1.78
-1.19
-0.24
0.92
1.87
2.13
1.46
-0.01
-1.81
-3.38
-4.33
-4.56
-4.18
-3.42
-2.53
-1.72
-1.12
-0.89
-1.11
-1.63
-2.18
-2.41
-2.1
-1.26
-0.27
0.39
0.34
-0.39
-1.42
-2.21
-2.37
-1.9
-1.12
-0.51
-0.39
-0.77
-1.43
-2.1
-2.64
-3.12
-3.66
-4.32
-5.02
-5.53
-5.58
-5.04
-3.97
-2.65
-1.39
-0.46
0.03
0.24
0.37
0.6
0.94
1.27
1.26
0.76
-0.3
-1.7
-3.08
-4.1
-4.5
-4.26
-3.49
-2.5
-1.59
-1.04
-0.99
-1.42
-2.15
-2.89
-3.32
-3.21
-2.61
-1.78
-1.16
-1.21
-2.02
-3.39
-4.75
-5.52
-5.29
-4
-1.87
0.67
3.15
5.14
6.31
6.54
5.86
4.58
3.15
1.99
1.32
1.03
0.82
0.4
-0.3
-1.09
-1.65
-1.76
-1.45
-0.89
-0.33
0.17
0.61
1.06
1.43
1.47
0.95
-0.18
-1.64
-2.9
-3.44
-3.02
-1.74
-0.04
1.58
2.77
3.33
3.26
2.58
1.34
-0.33
-2.17
-3.75
-4.6
-4.39
-3.07
-0.93
1.51
3.61
4.89
5.17
4.58
3.47
2.29
1.34
0.72
0.23
-0.44
-1.56
-3.14
-4.96
-6.68
-7.9
-8.38
-7.98
-6.8
-5.03
-3.04
-1.24
0.01
0.46
0.12
-0.79
-1.94
-2.98
-3.57
-3.6
-3.06
-2.15
-1.12
-0.31
0.06
-0.06
-0.5
-0.93
-1.1
-0.94
-0.63
-0.46
-0.61
-1.08
-1.66
-2.05
-1.99
-1.44
-0.53
0.46
1.17
1.26
0.49
-1.25
-3.73
-6.5
-8.94
-10.52
-11
-10.54
-9.57
-8.48
-7.49
-6.43
-5.04
-3.08
-0.56
2.11
4.29
5.33
4.84
2.88
-0.03
-3.14
-5.72
-7.32
-7.89
-7.72
-7.15
-6.37
-5.41
-4.14
-2.53
-0.68
1.21
2.89
4.25
5.29
6.08
6.67
7.06
7.22
7.11
6.7
5.98
4.98
3.76
2.5
1.41
0.66
0.21
-0.09
-0.41
-0.68
-0.6
0.18
1.7
3.55
4.98
5.26
4.11
1.9
-0.63
-2.7
-3.9
-4.28
-4.2
-3.94
-3.54
-2.79
-1.52
0.22
2.02
3.35
3.76
3.15
1.77
0.07
-1.44
-2.5
-3.06
-3.31
-3.43
-3.52
-3.51
-3.24
-2.64
-1.86
-1.2
-0.96
-1.31
-2.17
-3.23
-4.07
-4.3
-3.72
-2.39
-0.65
1.04
2.19
2.6
2.3
1.58
0.86
0.43
0.38
0.56
0.78
0.84
0.79
0.69
0.65
0.66
0.64
0.55
0.45
0.49
0.74
1.11
1.36
1.17
0.46
-0.6
-1.6
-2.13
-2
-1.37
-0.63
-0.2
-0.37
-0.99
-1.72
-2.16
-2.1
-1.61
-0.97
-0.42
0.01
0.46
1.12
1.99
2.83
3.19
2.74
1.42
-0.42
-2.24
-3.52
-4.06
-3.97
-3.58
-3.18
-2.99
-3.01
-3.19
-3.48
-3.79
-4.07
-4.27
-4.37
-4.43
-4.54
-4.8
-5.22
-5.62
-5.77
-5.31
-4.08
-2.17
0
1.89
3.02
3.19
2.63
1.77
1.04
0.63
0.41
0.11
-0.52
-1.48
-2.52
-3.31
-3.66
-3.61
-3.41
-3.23
-3.06
-2.7
-1.88
-0.59
0.82
1.72
1.59
0.34
-1.59
-3.38
-4.29
-3.97
-2.62
-0.83
0.75
1.7
1.92
1.57
0.83
-0.11
-1.14
-2.15
-3.04
-3.66
-3.94
-3.89
-3.58
-3.09
-2.54
-2.06
-1.81
-1.88
-2.28
-3
-3.94
-5.03
-6.15
-7.17
-7.91
-8.18
-7.77
-6.62
-4.81
-2.54
-0.2
1.82
3.18
3.79
3.73
3.31
2.83
2.59
2.7
3.07
3.52
3.84
3.84
3.38
2.46
1.18
-0.27
-1.64
-2.69
-3.33
-3.56
-3.51
-3.43
-3.57
-4.11
-5.13
-6.55
-8.09
-9.24
-9.51
-8.58
-6.52
-3.81
-1.16
0.74
1.55
1.34
0.56
-0.3
-0.78
-0.73
-0.18
0.65
1.58
2.47
3.29
4.1
4.89
5.6
6.03
5.96
5.21
3.77
1.95
0.19
-0.97
-1.3
-0.89
-0.13
0.42
0.34
-0.51
-1.98
-3.77
-5.45
-6.67
-7.09
-6.53
-5.01
-2.81
-0.45
1.58
2.91
3.58
3.83
3.93
3.95
3.69
2.99
1.93
0.92
0.5
0.99
2.25
3.78
4.94
5.42
5.32
5.03
4.86
4.88
4.84
4.36
3.3
1.84
0.49
-0.29
-0.34
0.02
0.14
-0.56
-2.29
-4.67
-6.84
-7.88
-7.27
-5.08
-1.98
1.12
3.5
4.92
5.53
5.66
5.59
5.46
5.31
5.23
5.32
5.68
6.3
7.11
7.97
8.71
9.19
9.22
8.61
7.24
5.22
2.92
0.94
-0.22
-0.37
0.25
1.12
1.68
1.62
0.95
-0.13
-1.42
-2.77
-4.19
-5.61
-6.84
-7.59
-7.54
-6.56
-4.74
-2.45
-0.09
2.06
3.91
5.5
6.88
7.95
8.48
8.25
7.26
5.86
4.62
4.16
4.84
6.5
8.61
10.36
11.08
10.49
8.83
6.69
4.74
3.45
2.84
2.59
2.19
1.28
-0.17
-1.81
-3.11
-3.63
-3.25
-2.26
-1.15
-0.44
-0.33
-0.66
-1
-0.87
0.05
1.68
3.59
5.37
6.64
7.34
7.58
7.54
7.25
6.66
5.69
4.45
3.27
2.49
2.42
3
3.87
4.51
4.53
3.87
2.9
2.12
1.88
2.19
2.65
2.74
2.08
0.7
-1.01
-2.5
-3.45
-3.88
-4.07
-4.37
-4.96
-5.63
-5.99
-5.61
-4.26
-2.06
0.64
3.36
5.62
7.16
7.93
8.06
7.76
7.25
6.65
6.05
5.48
5.08
5.01
5.39
6.17
7.04
7.52
7.13
5.71
3.54
1.26
-0.38
-0.93
-0.35
0.92
2.23
3.03
3
2.09
0.42
-1.74
-4.1
-6.26
-7.81
-8.48
-8.24
-7.25
-5.84
-4.3
-2.79
-1.33
0.1
1.47
2.69
3.73
4.59
5.19
5.44
5.17
4.29
2.96
1.62
0.87
1.09
2.21
3.77
5.02
5.44
4.86
3.57
2.03
0.72
-0.12
-0.38
-0.07
0.7
1.68
2.55
2.92
2.53
1.3
-0.59
-2.81
-4.98
-6.85
-8.27
-9.25
-9.79
-9.93
-9.61
-8.84
-7.63
-6.16
-4.8
-4.03
-4.3
-5.84
-8.49
-11.64
-14.45
-16.12
-16.29
-15.37
-14.53
-15.38
-19.47
-27.42
-38.36
-49.83
-58.37
-60.45
-53.51
-36.73
-11.25
20.01
53.01
83.42
107.51
123.05
129.78
129.32
124.42
117.76
110.89
103.84
95.48
84.57
70.64
54.41
37.37
21.04
6.35
-6.39
-17.24
-26.15
-32.79
-36.74
-37.89
-36.81
-34.56
-32.42
-31.32
-31.51
-32.57
-33.66
-33.9
-32.79
-30.32
-26.97
-23.61
-21.14
-20.11
-20.57
-21.94
-23.38
-24.03
-23.53
-22.03
-20.11
-18.4
-17.33
-16.98
-17.04
-17.05
-16.55
-15.25
-13.21
-10.83
-8.68
-7.22
-6.55
-6.28
-5.77
-4.53
-2.53
-0.33
1.31
1.88
1.47
0.7
0.31
0.71
1.7
2.72
3.19
2.85
1.88
0.69
-0.3
-0.93
-1.26
-1.52
-1.83
-2.2
-2.55
-2.76
-2.82
-2.72
-2.53
-2.27
-1.96
-1.6
-1.19
-0.76
-0.34
0.06
0.54
1.2
2.16
3.43
4.75
5.77
6.09
5.5
4.08
2.21
0.41
-0.85
-1.28
-0.92
-0.02
1.02
1.84
2.19
1.99
1.34
0.48
-0.37
-1.07
-1.58
-1.94
-2.25
-2.63
-3.12
-3.7
-4.26
-4.58
-4.5
-3.9
-2.92
-1.85
-1.02
-0.65
-0.73
-0.96
-0.96
-0.52
0.3
1.15
1.69
1.66
1.1
0.27
-0.57
-1.19
-1.58
-1.85
-2.16
-2.59
-3.05
-3.36
-3.33
-2.91
-2.23
-1.65
-1.5
-2.02
-3.16
-4.61
-5.97
-6.87
-7.15
-6.86
-6.18
-5.25
-4.16
-2.94
-1.63
-0.33
0.86
1.82
2.6
3.24
3.83
4.39
4.78
4.87
4.52
3.79
2.84
1.97
1.52
1.64
2.26
3.1
3.77
3.95
3.5
2.48
1.15
-0.24
-1.4
-2.17
-2.48
-2.38
-2.14
-2.06
-2.44
-3.29
-4.34
-5.06
-5.03
-4.1
-2.59
-1.07
-0.05
0.32
0.29
0.26
0.51
0.99
1.39
1.33
0.72
-0.28
-1.2
-1.57
-1.19
-0.17
1.04
1.92
2.04
1.34
0.02
-1.41
-2.51
-2.98
-2.82
-2.3
-1.78
-1.52
-1.57
-1.86
-2.15
-2.22
-1.95
-1.35
-0.58
0.2
0.93
1.6
2.23
2.88
3.54
4.17
4.7
5.04
5.09
4.72
3.9
2.66
1.25
0.05
-0.62
-0.61
-0.1
0.5
0.71
0.33
-0.53
-1.47
-2.05
-2.08
-1.63
-1.11
-0.91
-1.26
-2.01
-2.72
-2.92
-2.41
-1.36
-0.34
0.06
-0.43
-1.54
-2.59
-2.76
-1.65
0.55
3.11
5.15
6.1
5.88
4.9
3.69
2.64
1.88
1.42
1.24
1.44
2.06
2.93
3.63
3.65
2.68
0.88
-1.15
-2.67
-3.28
-3
-2.37
-2.02
-2.33
-3.26
-4.43
-5.45
-5.99
-5.96
-5.36
-4.28
-2.82
-1.13
0.6
2.16
3.38
4.19
4.64
4.74
4.51
3.9
2.9
1.63
0.43
-0.28
-0.17
0.75
2.12
3.35
3.89
3.65
2.87
2.04
1.53
1.3
0.99
0.19
-1.25
-3.1
-4.82
-5.95
-6.24
-5.83
-5.06
-4.26
-3.6
-3.03
-2.42
-1.6
-0.53
0.77
2.15
3.4
4.29
4.61
4.26
3.29
1.94
0.52
-0.69
-1.51
-1.91
-1.98
-1.84
-1.6
-1.32
-1.06
-0.89
-0.93
-1.28
-1.96
-2.87
-3.79
-4.47
-4.75
-4.61
-4.19
-3.65
-3.09
-2.5
-1.75
-0.78
0.4
1.62
2.67
3.41
3.77
3.81
3.58
3.08
2.27
1.19
-0.04
-1.12
-1.75
-1.81
-1.42
-0.89
-0.53
-0.43
-0.44
-0.32
0.03
0.42
0.5
-0.07
-1.34
-3.06
-4.79
-6.16
-7.06
-7.61
-7.95
-8.05
-7.63
-6.42
-4.33
-1.67
0.93
2.87
3.85
3.99
3.75
3.59
3.74
4.11
4.34
4.05
3.1
1.61
-0.06
-1.52
-2.51
-3.01
-3.19
-3.28
-3.37
-3.37
-3.14
-2.66
-2.16
-2.16
-3.07
-4.9
-7.12
-8.8
-9.08
-7.66
-4.96
-1.84
0.81
2.55
3.48
4.03
4.59
5.23
5.68
5.66
5.06
4.08
3.06
2.3
1.82
1.47
1.02
0.31
-0.61
-1.63
-2.57
-3.3
-3.74
-3.86
-3.75
-3.5
-3.23
-3
-2.81
-2.54
-2.13
-1.62
-1.2
-1.16
-1.66
-2.61
-3.53
-3.83
-3.03
-1.08
1.57
4.21
6.17
7.13
7.13
6.51
5.57
4.49
3.36
2.21
1.24
0.66
0.66
1.15
1.78
2.11
1.79
0.8
-0.52
-1.65
-2.23
-2.13
-1.59
-0.97
-0.67
-0.89
-1.56
-2.55
-3.62
-4.61
-5.39
-5.84
-5.82
-5.17
-3.8
-1.81
0.54
2.87
4.82
6.12
6.65
6.37
5.38
3.87
2.09
0.33
-1.18
-2.26
-2.9
-3.17
-3.19
-3.02
-2.62
-1.99
-1.2
-0.42
0.1
0.16
-0.19
-0.77
-1.26
-1.51
-1.52
-1.55
-1.8
-2.4
-3.25
-4.06
-4.55
-4.53
-3.92
-2.73
-1.02
1.08
3.29
5.29
6.72
7.39
7.27
6.46
5.12
3.44
1.66
0.12
-0.75
-0.66
0.38
2.03
3.64
4.58
4.53
3.62
2.39
1.38
0.96
1.03
1.21
1.05
0.35
-0.79
-2
-2.97
-3.57
-3.98
-4.51
-5.31
-6.31
-7.13
-7.33
-6.61
-5.04
-2.99
-0.94
0.81
2.2
3.32
4.3
5.1
5.48
5.21
4.29
3.03
1.96
1.55
1.91
2.7
3.34
3.34
2.64
1.62
0.84
0.64
0.99
1.44
1.49
0.9
-0.25
-1.56
-2.64
-3.31
-3.62
-3.75
-3.84
-3.9
-3.85
-3.65
-3.28
-2.79
-2.21
-1.48
-0.58
0.39
1.23
1.72
1.85
1.82
1.94
2.41
3.07
3.54
3.37
2.43
0.99
-0.38
-1.17
-1.15
-0.57
0.14
0.59
0.69
0.64
0.72
1.04
1.45
1.66
1.34
0.44
-0.81
-2.01
-2.85
-3.26
-3.38
-3.48
-3.66
-3.85
-3.85
-3.48
-2.73
-1.78
-0.86
-0.13
0.37
0.67
0.87
1.03
1.16
1.33
1.63
2.18
2.99
3.89
4.6
4.82
4.4
3.41
2.13
0.94
0.13
-0.2
-0.1
0.3
0.84
1.44
1.97
2.26
2.12
1.41
0.15
-1.41
-2.93
-4.1
-4.76
-4.95
-4.81
-4.45
-3.89
-3.1
-2.03
-0.75
0.57
1.78
2.72
3.32
3.59
3.56
3.22
2.54
1.56
0.39
-0.67
-1.29
-1.24
-0.53
0.5
1.38
1.77
1.6
1.08
0.54
0.17
-0.07
-0.35
-0.79
-1.32
-1.75
-1.93
-1.9
-1.92
-2.32
-3.21
-4.41
-5.44
-5.8
-5.18
-3.58
-1.34
1
2.94
4.15
4.6
4.5
4.15
3.78
3.45
3.02
2.35
1.37
0.21
-0.8
-1.24
-0.82
0.47
2.34
4.23
5.53
5.78
4.89
3.11
0.96
-1.04
-2.61
-3.69
-4.36
-4.71
-4.76
-4.48
-3.96
-3.4
-3.07
-3.18
-3.7
-4.38
-4.85
-4.88
-4.41
-3.6
-2.69
-1.82
-1.11
-0.57
-0.21
0.01
0.11
0.17
0.23
0.26
0.13
-0.21
-0.7
-1.12
-1.17
-0.73
0.05
0.72
0.87
0.4
-0.36
-0.82
-0.5
0.61
2.07
3.18
3.45
2.83
1.67
0.44
-0.56
-1.37
-2.23
-3.28
-4.32
-4.86
-4.33
-2.51
0.27
3.21
5.39
6.24
5.69
4.27
2.56
1.06
0
-0.63
-0.89
-0.79
-0.32
0.44
1.3
2.05
2.5
2.59
2.34
1.78
0.93
-0.09
-1.04
-1.58
-1.54
-1.03
-0.54
-0.66
-1.73
-3.65
-5.81
-7.53
-8.23
-7.83
-6.58
-4.93
-3.29
-1.87
-0.71
0.28
1.21
2.14
2.98
3.6
3.77
3.34
2.33
0.97
-0.31
-1.11
-1.13
-0.4
0.78
2
2.89
3.22
2.98
2.29
1.35
0.36
-0.55
-1.23
-1.66
-1.86
-1.91
-1.96
-2.18
-2.67
-3.36
-4.04
-4.43
-4.27
-3.48
-2.14
-0.53
1
2.22
3.04
3.47
3.6
3.43
3.04
2.53
2.11
2
2.31
2.95
3.58
3.91
3.71
3.05
2.11
1.16
0.41
-0.04
-0.16
0.04
0.5
1.02
1.36
1.21
0.42
-0.95
-2.57
-4.01
-4.84
-4.78
-3.77
-2
0.1
2.07
3.47
4.11
4.15
3.88
3.63
3.48
3.27
2.72
1.67
0.17
-1.43
-2.72
-3.41
-3.37
-2.63
-1.34
0.27
1.89
3.12
3.62
3.23
2.1
0.59
-0.92
-2.13
-3.06
-3.79
-4.46
-5.08
-5.51
-5.63
-5.34
-4.64
-3.6
-2.31
-0.82
0.74
2.17
3.22
3.68
3.6
3.21
2.87
2.79
2.94
3.06
2.85
2.17
1.14
0.14
-0.53
-0.79
-0.85
-1.02
-1.6
-2.58
-3.71
-4.71
-5.41
-5.86
-6.27
-6.8
-7.36
-7.67
-7.34
-6.13
-4.04
-1.43
1.22
3.37
4.65
4.92
4.26
2.95
1.41
0.01
-0.89
-1.14
-0.79
-0.07
0.71
1.17
1.12
0.54
-0.36
-1.26
-1.9
-2.18
-2.19
-2.12
-2.16
-2.43
-2.94
-3.66
-4.5
-5.37
-6.17
-6.69
-6.66
-5.83
-4.05
-1.41
1.71
4.77
7.18
8.59
8.89
8.33
7.28
6.08
4.94
3.86
2.85
1.89
1.08
0.5
0.14
-0.15
-0.56
-1.23
-2.14
-3.13
-3.88
-4.06
-3.57
-2.54
-1.39
-0.62
-0.65
-1.58
-3.12
-4.71
-5.77
-5.94
-5.25
-4.04
-2.78
-1.77
-1.07
-0.5
0.11
0.91
1.85
2.87
3.86
4.76
5.56
6.25
6.77
7.02
6.89
6.29
5.22
3.71
1.87
-0.09
-1.9
-3.21
-3.7
-3.25
-2.15
-0.89
-0.07
-0.11
-1.08
-2.67
-4.29
-5.3
-5.27
-4.03
-1.82
0.87
3.39
5.23
6.06
5.94
5.12
3.96
2.81
1.91
1.4
1.38
1.88
2.83
3.97
4.92
5.24
4.72
3.44
1.82
0.46
-0.14
0.1
0.89
1.7
2.02
1.61
0.55
-0.82
-2.07
-2.89
-3.11
-2.77
-1.93
-0.73
0.73
2.3
3.81
5.08
5.99
6.55
6.84
7
7.05
7
6.73
6.15
5.26
4.16
3.11
2.31
1.85
1.64
1.53
1.37
1.07
0.6
-0.04
-0.87
-1.9
-3.03
-4.09
-4.95
-5.52
-5.92
-6.26
-6.63
-6.9
-6.79
-5.98
-4.4
-2.22
0.16
2.34
4.11
5.44
6.45
7.31
8.05
8.62
8.95
9.02
8.9
8.69
8.4
7.96
7.24
6.23
5.06
4.04
3.44
3.35
3.61
3.83
3.64
2.84
1.5
-0.09
-1.59
-2.81
-3.65
-4.14
-4.3
-4.09
-3.43
-2.29
-0.72
1.08
2.79
4.1
4.79
4.85
4.51
4.08
3.77
3.6
3.46
3.12
2.51
1.75
1.09
0.84
1.1
1.74
2.45
2.88
2.81
2.29
1.53
0.77
0.14
-0.46
-1.24
-2.38
-3.89
-5.51
-6.77
-7.31
-7.02
-6.04
-4.69
-3.22
-1.68
0.06
2.03
4.09
5.86
6.94
7.18
6.79
6.23
5.94
6.02
6.27
6.29
5.78
4.75
3.5
2.42
1.83
1.76
1.99
2.17
2
1.3
0.11
-1.34
-2.76
-3.86
-4.51
-4.76
-4.81
-4.79
-4.75
-4.62
-4.13
-3.11
-1.49
0.62
2.9
4.96
6.45
7.2
7.19
6.62
5.75
4.87
4.21
3.93
4.14
4.79
5.71
6.58
7.02
6.75
5.85
4.61
3.51
2.8
2.44
2.09
1.32
-0.04
-1.8
-3.42
-4.36
-4.32
-3.41
-2.03
-0.67
0.32
0.91
1.22
1.49
1.87
2.36
2.8
3.01
2.84
2.35
1.78
1.42
1.47
1.9
2.46
2.84
2.76
2.18
1.24
0.26
-0.49
-0.85
-0.87
-0.72
-0.68
-0.96
-1.65
-2.67
-3.79
-4.71
-5.23
-5.27
-4.93
-4.23
-3.09
-1.35
1.07
3.94
6.71
8.72
9.53
9.22
8.29
7.37
6.85
6.69
6.59
6.25
5.62
4.89
4.26
3.72
3.04
1.92
0.32
-1.46
-2.95
-3.7
-3.61
-2.82
-1.67
-0.54
0.24
0.37
-0.33
-1.82
-3.65
-5.06
-5.22
-3.66
-0.54
3.3
6.74
8.93
9.58
9.05
7.92
6.66
5.44
4.18
2.83
1.47
0.37
-0.21
-0.17
0.27
0.73
0.84
0.45
-0.29
-1.05
-1.46
-1.34
-0.74
0.02
0.56
0.62
0.15
-0.6
-1.33
-1.84
-2.04
-2
-1.81
-1.48
-0.98
-0.27
0.61
1.6
2.56
3.37
3.89
3.9
3.23
1.79
-0.26
-2.47
-4.24
-5.11
-4.96
-4.12
-3.1
-2.44
-2.33
-2.65
-3.02
-3.17
-3.04
-2.8
-2.74
-3.06
-3.68
-4.45
-5.07
-5.4
-5.35
-4.95
-4.22
-3.22
-2.06
-0.94
-0.04
0.51
0.78
1
1.45
2.26
3.27
4.09
4.26
3.5
1.85
-0.3
-2.37
-3.88
-4.49
-4.24
-3.42
-2.49
-1.89
-1.86
-2.39
-3.2
-3.94
-4.32
-4.14
-3.52
-2.7
-2.04
-1.88
-2.38
-3.45
-4.78
-5.94
-6.53
-6.36
-5.49
-4.17
-2.7
-1.31
-0.09
0.89
1.65
2.15
2.33
2.18
1.78
1.27
0.78
0.39
0.06
-0.26
-0.64
-1.07
-1.44
-1.71
-1.91
-2.14
-2.53
-3.12
-3.79
-4.35
-4.59
-4.46
-4.02
-3.47
-2.97
-2.65
-2.53
-2.59
-2.75
-2.89
-2.83
-2.44
-1.7
-0.7
0.35
1.22
1.77
1.97
1.95
1.84
1.73
1.59
1.34
0.86
0.14
-0.71
-1.54
-2.22
-2.71
-3.02
-3.2
-3.16
-2.77
-2
-1.01
-0.18
0.08
-0.44
-1.57
-2.84
-3.73
-4.02
-3.85
-3.56
-3.4
-3.27
-2.8
-1.6
0.38
2.73
4.76
5.85
5.69
4.48
2.74
1.03
-0.34
-1.3
-2.06
-2.8
-3.57
-4.23
-4.6
-4.54
-4.02
-3.16
-2.16
-1.23
-0.52
-0.07
0.15
0.23
0.27
0.32
0.32
0.12
-0.35
-1.09
-1.93
-2.62
-2.92
-2.72
-2.07
-1.1
0.11
1.52
3.14
4.86
6.46
7.62
8.02
7.41
5.82
3.47
0.85
-1.52
-3.19
-4.01
-4.15
-3.96
-3.78
-3.68
-3.52
-3.02
-2.12
-1
-0.03
0.41
0.22
-0.44
-1.26
-1.99
-2.54
-2.95
-3.26
-3.34
-2.98
-2.02
-0.52
1.26
2.92
4.07
4.51
4.16
3.16
1.71
0.01
-1.74
-3.28
-4.37
-4.77
-4.34
-3.24
-1.87
-0.83
-0.57
-1.23
-2.52
-3.91
-4.89
-5.29
-5.28
-5.3
-5.65
-6.36
-7.09
-7.39
-6.95
-5.79
-4.2
-2.58
-1.19
-0.13
0.66
1.28
1.72
1.88
1.61
0.83
-0.43
-1.98
-3.59
-4.95
-5.84
-6.22
-6.19
-5.98
-5.79
-5.66
-5.45
-5.03
-4.3
-3.38
-2.48
-1.81
-1.39
-1.09
-0.75
-0.28
0.16
0.37
0.2
-0.25
-0.7
-0.8
-0.33
0.69
2.06
3.46
4.57
5.13
5.01
4.23
2.97
1.58
0.42
-0.29
-0.49
-0.34
-0.12
-0.09
-0.4
-1.07
-2.01
-3.05
-4.01
-4.76
-5.21
-5.42
-5.49
-5.46
-5.33
-4.93
-4.11
-2.81
-1.12
0.7
2.36
3.67
4.65
5.37
5.84
5.95
5.51
4.5
3.09
1.73
0.85
0.7
1.16
1.81
2.17
1.96
1.24
0.3
-0.37
-0.46
0.05
0.89
1.61
1.76
1.11
-0.21
-1.79
-3.04
-3.48
-2.95
-1.63
0.06
1.65
2.79
3.36
3.43
3.12
2.53
1.69
0.66
-0.46
-1.48
-2.2
-2.52
-2.5
-2.33
-2.26
-2.48
-2.95
-3.54
-4.06
-4.4
-4.64
-4.97
-5.59
-6.55
-7.63
-8.42
-8.45
-7.37
-5.13
-2.07
1.18
3.93
5.68
6.3
5.98
5.06
3.9
2.81
2.02
1.67
1.77
2.2
2.68
2.89
2.54
1.61
0.22
-1.36
-2.82
-3.98
-4.74
-5.1
-5.14
-5.01
-4.92
-5
-5.17
-5.08
-4.36
-2.81
-0.67
1.48
3.04
3.71
3.56
2.92
2.13
1.39
0.7
0.11
-0.23
-0.18
0.29
0.93
1.3
1.07
0.21
-1
-2.08
-2.78
-3.11
-3.32
-3.74
-4.44
-5.28
-6.01
-6.38
-6.32
-5.89
-5.18
-4.27
-3.19
-1.92
-0.49
0.9
2.05
2.7
2.65
1.87
0.48
-1.25
-2.92
-4.2
-4.8
-4.63
-3.74
-2.32
-0.66
0.91
2.14
2.86
3.02
2.69
2.03
1.17
0.25
-0.61
-1.24
-1.55
-1.46
-1.05
-0.47
0.12
0.63
1.08
1.65
2.48
3.65
5.06
6.42
7.33
7.4
6.49
4.66
2.3
-0.05
-1.83
-2.69
-2.51
-1.46
0.1
1.78
3.12
3.77
3.51
2.35
0.59
-1.27
-2.64
-3.14
-2.73
-1.73
-0.69
-0.08
-0.06
-0.42
-0.63
-0.16
1.26
3.46
5.87
7.69
8.32
7.61
5.98
4.18
2.94
2.56
2.85
3.29
3.39
2.98
2.2
1.41
0.89
0.74
0.82
0.99
1.11
1.14
1.08
0.92
0.63
0.16
-0.43
-1.04
-1.49
-1.66
-1.43
-0.77
0.27
1.57
2.89
3.96
4.5
4.47
3.94
3.12
2.21
1.31
0.42
-0.48
-1.34
-2.07
-2.48
-2.48
-2.06
-1.33
-0.46
0.33
0.82
0.83
0.25
-0.92
-2.51
-4.24
-5.83
-7.11
-7.96
-8.32
-8.11
-7.19
-5.52
-3.29
-0.96
0.91
1.87
1.91
1.38
0.86
0.75
1.13
1.75
2.25
2.44
2.3
1.97
1.52
0.91
0.06
-1.01
-2.09
-2.88
-3.16
-2.91
-2.37
-1.89
-1.81
-2.29
-3.34
-4.81
-6.37
-7.62
-8.11
-7.54
-5.93
-3.62
-1.17
0.88
2.25
2.96
3.24
3.31
3.37
3.46
3.68
4.07
4.63
5.24
5.66
5.61
4.97
3.84
2.62
1.75
1.47
1.71
2.07
2.1
1.51
0.27
-1.44
-3.32
-5.21
-6.96
-8.37
-9.14
-8.93
-7.57
-5.29
-2.68
-0.49
0.65
0.57
-0.43
-1.74
-2.85
-3.39
-3.27
-2.58
-1.46
-0.08
1.34
2.56
3.4
3.76
3.69
3.39
3.01
2.64
2.28
1.9
1.53
1.23
1.1
1.11
1.08
0.78
0.01
-1.17
-2.46
-3.42
-3.65
-2.99
-1.51
0.46
2.53
4.38
5.71
6.39
6.37
5.73
4.66
3.46
2.38
1.61
1.24
1.23
1.46
1.82
2.15
2.36
2.37
2.22
2.03
1.92
1.93
1.93
1.68
0.93
-0.42
-2.19
-3.98
-5.32
-5.78
-5.26
-3.89
-2.09
-0.37
0.88
1.48
1.56
1.43
1.37
1.43
1.51
1.39
1.01
0.56
0.29
0.39
0.75
0.97
0.6
-0.54
-2.21
-3.81
-4.66
-4.44
-3.38
-2.09
-1.33
-1.57
-2.78
-4.48
-6.03
-6.96
-7.05
-6.3
-4.83
-2.76
-0.25
2.4
4.7
6.16
6.49
5.82
4.67
3.63
3.09
3
3.03
2.79
2.18
1.39
0.76
0.47
0.44
0.41
0.2
-0.14
-0.36
-0.15
0.54
1.39
1.88
1.55
0.26
-1.68
-3.65
-4.97
-5.22
-4.35
-2.72
-0.85
0.84
2.15
3.07
3.72
4.18
4.47
4.55
4.38
4.02
3.53
2.99
2.44
1.81
1.04
0.1
-0.97
-2.03
-2.97
-3.76
-4.41
-4.97
-5.47
-5.88
-6.29
-6.82
-7.62
-8.74
-9.98
-10.93
-11.1
-10.22
-8.38
-6.09
-4
-2.54
-1.7
-1.06
-0.11
1.38
3.19
4.74
5.49
5.32
4.56
3.79
3.47
3.66
4
4.03
3.56
2.76
2.16
2.19
2.98
4.11
4.9
4.75
3.49
1.45
-0.64
-2.04
-2.22
-1.06
1.18
3.91
6.5
8.37
9.19
8.99
8.06
6.81
5.61
4.65
3.93
3.38
2.91
2.56
2.43
2.56
2.88
3.16
3.11
2.57
1.6
0.46
-0.48
-0.9
-0.71
-0.02
0.85
1.55
1.87
1.77
1.43
1.09
0.98
1.21
1.79
2.59
3.45
4.21
4.72
4.91
4.8
4.48
4.08
3.8
3.84
4.3
5.1
5.99
6.6
6.69
6.24
5.54
5.05
5.07
5.56
6.11
6.07
4.95
2.7
-0.25
-3.17
-5.31
-6.15
-5.55
-3.66
-0.92
2.11
4.74
6.38
6.7
5.74
3.89
1.84
0.19
-0.7
-0.8
-0.31
0.43
1.1
1.49
1.49
1.14
0.54
-0.13
-0.73
-1.17
-1.48
-1.74
-1.98
-2.18
-2.24
-2.05
-1.56
-0.84
0
0.86
1.68
2.47
3.27
4.04
4.72
5.13
5.07
4.43
3.28
1.92
0.8
0.34
0.71
1.74
2.95
3.75
3.76
2.96
1.68
0.4
-0.56
-1.14
-1.45
-1.62
-1.58
-1.18
-0.29
1
2.41
3.59
4.34
4.65
4.71
4.68
4.52
4.08
3.22
2.02
0.79
-0.05
-0.24
0.15
0.76
1.14
0.99
0.3
-0.7
-1.67
-2.41
-2.84
-3.05
-3.22
-3.48
-3.92
-4.5
-5.11
-5.51
-5.4
-4.53
-2.83
-0.53
1.86
3.79
4.8
4.76
3.92
2.71
1.64
1
0.88
1.18
1.8
2.56
3.29
3.81
3.87
3.26
1.94
0.11
-1.7
-2.93
-3.12
-2.26
-0.69
0.89
1.83
1.76
0.68
-1.01
-2.74
-3.86
-3.96
-2.77
-0.43
2.58
5.51
7.57
8.21
7.4
5.64
3.62
1.98
0.93
0.33
-0.09
-0.52
-0.85
-0.88
-0.5
0.13
0.64
0.66
0.1
-0.8
-1.69
-2.25
-2.47
-2.54
-2.75
-3.2
-3.76
-4.13
-3.96
-3.11
-1.68
0.03
1.65
2.93
3.76
4.18
4.27
4.09
3.6
2.77
1.6
0.2
-1.29
-2.68
-3.83
-4.62
-5.01
-5.01
-4.7
-4.21
-3.61
-2.92
-2.08
-1.04
0.09
1.01
1.32
0.77
-0.59
-2.37
-3.92
-4.69
-4.44
-3.34
-1.8
-0.31
0.88
1.71
2.28
2.75
3.22
3.78
4.44
5.22
6.09
6.95
7.56
7.67
7.09
5.76
3.87
1.74
-0.23
-1.75
-2.68
-3.06
-3.12
-3.12
-3.27
-3.67
-4.24
-4.74
-4.88
-4.48
-3.51
-2.17
-0.76
0.38
1.15
1.59
1.89
2.22
2.59
2.8
2.62
1.86
0.58
-0.88
-2.15
-2.94
-3.16
-2.97
-2.56
-2.08
-1.61
-1.18
-0.89
-0.8
-0.97
-1.34
-1.71
-1.89
-1.76
-1.46
-1.19
-1.19
-1.55
-2.21
-2.9
-3.34
-3.28
-2.61
-1.42
-0.02
1.24
2.08
2.46
2.56
2.57
2.63
2.66
2.47
1.89
0.93
-0.22
-1.27
-1.99
-2.36
-2.5
-2.53
-2.48
-2.3
-1.91
-1.37
-0.89
-0.76
-1.17
-2.03
-3.03
-3.76
-3.93
-3.57
-2.92
-2.4
-2.2
-2.22
-2.09
-1.42
-0.08
1.69
3.34
4.31
4.25
3.24
1.63
-0.08
-1.47
-2.34
-2.64
-2.43
-1.86
-1.1
-0.39
0
-0.09
-0.69
-1.65
-2.65
-3.38
-3.64
-3.42
-2.89
-2.36
-2.14
-2.49
-3.41
-4.68
-5.79
-6.2
-5.51
-3.72
-1.29
1.03
2.52
2.9
2.37
1.52
0.89
0.75
0.88
0.83
0.3
-0.62
-1.47
-1.7
-1.09
0.05
1.11
1.44
0.83
-0.45
-1.82
-2.72
-2.94
-2.61
-2.18
-2.06
-2.5
-3.49
-4.72
-5.8
-6.28
-5.9
-4.69
-2.85
-0.79
1.2
2.97
4.54
5.96
7.19
8.03
8.19
7.46
5.83
3.55
1.09
-1.03
-2.39
-2.79
-2.35
-1.45
-0.56
-0.12
-0.31
-1.06
-2.09
-3.1
-3.91
-4.44
-4.7
-4.64
-4.29
-3.66
-2.93
-2.36
-2.23
-2.65
-3.46
-4.3
-4.64
-4.12
-2.7
-0.68
1.34
2.84
3.48
3.29
2.58
1.75
1.09
0.68
0.38
0.02
-0.46
-0.97
-1.3
-1.21
-0.62
0.37
1.42
2.1
2.04
1.11
-0.41
-1.99
-3.03
-3.13
-2.35
-1.1
-0.04
0.36
0
-0.89
-1.91
-2.76
-3.37
-3.82
-4.12
-4.09
-3.45
-2.02
0.07
2.35
4.18
5.03
4.75
3.56
1.85
0.03
-1.64
-3
-3.89
-4.12
-3.61
-2.5
-1.11
0.11
0.81
0.93
0.62
0.12
-0.45
-1.04
-1.58
-1.87
-1.63
-0.77
0.52
1.7
2.14
1.45
-0.19
-2.17
-3.7
-4.18
-3.52
-2.08
-0.41
1
2.06
2.89
3.73
4.56
5.21
5.4
4.99
4.16
3.35
2.98
3.19
3.72
4.04
3.66
2.47
0.8
-0.75
-1.67
-1.74
-1.21
-0.54
-0.14
-0.15
-0.52
-1.06
-1.63
-2.22
-2.86
-3.54
-4.02
-4.02
-3.39
-2.19
-0.83
0.24
0.73
0.81
0.93
1.55
2.79
4.23
5.07
4.7
3.04
0.71
-1.23
-1.86
-0.95
0.96
2.77
3.56
3.03
1.64
0.28
-0.22
0.48
2.07
3.86
5.13
5.44
4.7
3.18
1.34
-0.32
-1.28
-1
0.95
4.64
9.55
14.31
16.88
15.13
7.71
-5.36
-22.28
-40.2
-56.09
-67.77
-74.5
-76.9
-76.29
-73.96
-70.73
-66.9
-62.47
-57.42
-51.68
-44.89
-36.36
-24.95
-9.62
10.1
33.51
58.47
81.87
100.53
112.24
116.57
114.85
109.39
102.5
95.57
88.88
81.96
74.06
64.53
53.09
39.65
24.34
7.53
-10.13
-27.83
-44.77
-60.28
-74.05
-85.96
-95.84
-103.3
-107.6
-107.88
-103.53
-94.42
-81.16
-64.97
-47.29
-29.33
-11.65
6.01
24.32
43.64
63.31
81.54
95.99
104.7
106.96
103.44
95.86
86.1
75.73
65.61
56.12
47.42
39.57
32.42
25.55
18.12
9.19
-1.83
-14.76
-28.54
-41.53
-52.14
-59.41
-63.38
-65.08
-66.06
-67.83
-71.18
-76.06
-81.58
-86.45
-89.39
-89.44
-86.03
-78.99
-68.36
-54.41
-37.59
-18.57
1.84
22.84
43.94
64.96
86.09
107.34
127.96
146.08
158.87
163.33
157.46
141.22
116.65
87.45
57.71
30.99
9.41
-6.39
-16.96
-23.65
-28.04
-31.65
-35.71
-41.04
-47.97
-56.31
-65.3
-73.78
-80.29
-83.43
-81.99
-75.33
-63.57
-47.78
-29.94
-12.64
1.52
10.61
13.83
11.5
4.54
-6.28
-20.87
-39.72
-63.29
-91.11
-121.29
-150.72
-176.07
-194.9
-206.33
-210.87
-209.54
-203.13
-191.71
-174.94
-152.58
-124.95
-92.79
-56.72
-16.94
26.56
72.9
119.5
161.73
194.05
211.89
213.48
200.65
178.23
152.3
128.25
109.42
96.64
88.92
84.27
80.7
76.81
71.89
65.84
58.86
51.24
43.29
35.38
28.21
22.77
19.99
20.43
23.83
29.15
34.96
40.01
43.69
46.27
48.58
51.59
55.9
61.3
66.68
70.35
70.37
65.26
54.44
38.46
18.93
-1.99
-22.07
-39.55
-53.41
-63.24
-69.13
-71.44
-70.63
-67.24
-61.91
-55.38
-48.4
-41.58
-35.34
-29.77
-24.79
-20.27
-16.25
-12.99
-10.96
-10.54
-11.73
-14.02
-16.49
-18.17
-18.49
-17.45
-15.58
-13.63
-12.18
-11.4
-11.12
-10.99
-10.77
-10.32
-9.67
-8.82
-7.79
-6.6
-5.38
-4.37
-3.8
-3.76
-4.07
-4.35
-4.15
-3.08
-1.06
1.67
4.59
7.11
8.75
9.33
8.99
8.08
6.96
5.89
4.97
4.19
3.58
3.25
3.33
3.84
4.57
5.11
5.03
4.18
2.76
1.24
0.09
-0.42
-0.4
-0.21
-0.28
-0.84
-1.93
-3.3
-4.61
-5.44
-5.5
-4.71
-3.21
-1.38
0.35
1.66
2.5
2.95
3.25
3.49
3.59
3.41
2.88
2.14
1.51
1.3
1.63
2.34
3.06
3.47
3.41
3.01
2.57
2.34
2.4
2.58
2.54
1.98
0.88
-0.54
-1.89
-2.88
-3.43
-3.72
-4
-4.38
-4.68
-4.43
-3.19
-0.78
2.52
6.1
9.19
11.26
12.09
11.73
10.39
8.29
5.61
2.54
-0.57
-3.3
-5.17
-5.96
-5.74
-4.97
-4.27
-4.17
-4.83
-6.02
-7.25
-8.1
-8.38
-8.32
-8.26
-8.52
-9.12
-9.8
-10.17
-9.91
-8.88
-7.15
-4.89
-2.33
0.3
2.72
4.67
5.92
6.4
6.19
5.57
4.82
4.18
3.82
3.86
4.29
4.99
5.7
6.08
5.84
4.85
3.27
1.47
-0.12
-1.22
-1.84
-2.26
-2.85
-3.88
-5.37
-7.11
-8.74
-9.88
-10.32
-9.95
-8.81
-7.02
-4.77
-2.33
-0.03
1.78
2.86
3.2
2.92
2.32
1.68
1.26
1.21
1.61
2.35
3.22
3.87
4.03
3.55
2.56
1.35
0.3
-0.38
-0.76
-1.11
-1.83
-3.16
-5.08
-7.24
-9.09
-10.12
-10.02
-8.75
-6.63
-4.11
-1.68
0.29
1.63
2.38
2.67
2.66
2.51
2.25
1.86
1.29
0.58
-0.21
-0.91
-1.41
-1.65
-1.7
-1.75
-2
-2.58
-3.42
-4.3
-4.96
-5.22
-5.07
-4.68
-4.28
-4.07
-4.08
-4.21
-4.22
-3.85
-2.95
-1.52
0.28
2.24
4.09
5.69
7.02
8.11
9.03
9.72
10.02
9.73
8.84
7.55
6.31
5.59
5.55
6.01
6.52
6.61
6.05
4.96
3.62
2.31
1.14
0.16
-0.57
-0.92
-0.77
-0.12
0.76
1.38
1.34
0.54
-0.73
-1.84
-2.22
-1.66
-0.36
1.26
2.81
4.16
5.4
6.59
7.63
8.19
8.03
7.22
6.24
5.76
6.23
7.67
9.47
10.87
11.28
10.58
9.12
7.43
5.99
5.04
4.61
4.5
4.53
4.45
4.08
3.27
2.01
0.38
-1.37
-2.99
-4.23
-4.87
-4.77
-3.91
-2.33
-0.24
2.1
4.33
6.11
7.22
7.63
7.52
7.12
6.7
6.4
6.26
6.2
6.15
6.09
6.04
5.97
5.79
5.4
4.67
3.66
2.55
1.6
1
0.78
0.7
0.44
-0.33
-1.7
-3.54
-5.49
-7.14
-8.18
-8.43
-7.87
-6.64
-4.88
-2.75
-0.4
2.01
4.33
6.43
8.2
9.56
10.34
10.42
9.69
8.2
6.21
4.21
2.75
2.29
2.96
4.56
6.56
8.32
9.29
9.22
8.18
6.45
4.37
2.19
0.06
-1.91
-3.6
-4.89
-5.69
-6.09
-6.2
-6.15
-5.99
-5.58
-4.78
-3.52
-1.86
0.03
1.93
3.69
5.22
6.5
7.55
8.36
8.87
9.03
8.78
8.13
7.23
6.25
5.36
4.6
3.92
3.12
2.14
1.08
0.18
-0.31
-0.3
0.03
0.4
0.39
-0.23
-1.57
-3.58
-6
-8.46
-10.45
-11.47
-11.27
-9.91
-7.73
-5.16
-2.56
-0.04
2.38
4.64
6.59
7.93
8.47
8.19
7.34
6.36
5.59
5.31
5.53
6.11
6.79
7.29
7.42
7.13
6.46
5.54
4.56
3.68
2.96
2.41
1.9
1.18
0.03
-1.67
-3.85
-6.2
-8.31
-9.79
-10.41
-10.19
-9.25
-7.8
-5.95
-3.77
-1.27
1.53
4.59
7.76
10.74
13.12
14.44
14.38
13
10.86
8.81
7.69
7.94
9.34
11.14
12.44
12.68
11.83
10.34
8.78
7.54
6.64
5.85
5.03
4.21
3.58
3.23
2.97
2.28
0.62
-2.15
-5.61
-8.79
-10.69
-10.62
-8.62
-5.34
-1.71
1.5
3.93
5.65
6.91
7.9
8.61
8.85
8.45
7.49
6.28
5.25
4.74
4.81
5.23
5.67
5.85
5.68
5.29
4.89
4.6
4.44
4.28
3.97
3.37
2.48
1.38
0.2
-0.96
-2.08
-3.2
-4.36
-5.57
-6.71
-7.54
-7.77
-7.23
-5.85
-3.84
-1.53
0.65
2.36
3.46
4
4.23
4.46
4.85
5.42
5.99
6.34
6.37
6.09
5.69
5.33
5.07
4.83
4.46
3.86
3.04
2.16
1.4
0.93
0.77
0.81
0.89
0.79
0.36
-0.4
-1.34
-2.25
-2.92
-3.3
-3.49
-3.65
-3.91
-4.23
-4.42
-4.33
-3.83
-3.01
-2.04
-1.09
-0.29
0.3
0.72
0.97
1.08
1.04
0.87
0.62
0.36
0.21
0.23
0.44
0.77
1.04
1.06
0.68
-0.14
-1.27
-2.47
-3.48
-4.12
-4.34
-4.27
-4.07
-3.92
-3.94
-4.17
-4.6
-5.13
-5.63
-5.97
-6.07
-5.93
-5.59
-5.16
-4.77
-4.43
-4.02
-3.36
-2.32
-0.9
0.7
2.18
3.28
3.85
3.89
3.52
2.86
2.03
1.1
0.2
-0.51
-0.9
-0.93
-0.71
-0.53
-0.65
-1.29
-2.43
-3.88
-5.35
-6.59
-7.47
-7.99
-8.28
-8.4
-8.33
-7.95
-7.06
-5.61
-3.66
-1.46
0.63
2.32
3.37
3.72
3.35
2.37
0.98
-0.53
-1.75
-2.33
-2.09
-1.11
0.24
1.41
1.96
1.64
0.57
-0.9
-2.35
-3.45
-4.13
-4.48
-4.71
-5.01
-5.47
-6.05
-6.64
-7.12
-7.39
-7.42
-7.19
-6.67
-5.87
-4.77
-3.42
-1.96
-0.61
0.41
0.94
0.93
0.43
-0.38
-1.35
-2.27
-2.97
-3.3
-3.16
-2.57
-1.7
-0.9
-0.5
-0.69
-1.41
-2.38
-3.21
-3.66
-3.73
-3.62
-3.62
-3.93
-4.62
-5.58
-6.65
-7.65
-8.41
-8.71
-8.31
-7.03
-4.84
-2.08
0.66
2.65
3.47
3.14
2.14
1.18
0.75
0.89
1.25
1.37
1.03
0.42
-0.02
0.03
0.52
1.05
1.16
0.66
-0.27
-1.13
-1.52
-1.31
-0.78
-0.36
-0.45
-1.16
-2.4
-3.84
-5.19
-6.19
-6.67
-6.55
-5.83
-4.65
-3.17
-1.55
0.03
1.46
2.6
3.26
3.25
2.54
1.36
0.2
-0.4
-0.15
0.77
1.83
2.36
2
0.84
-0.61
-1.8
-2.39
-2.38
-2.06
-1.78
-1.75
-2
-2.49
-3.14
-3.94
-4.85
-5.82
-6.71
-7.36
-7.63
-7.44
-6.78
-5.77
-4.6
-3.5
-2.63
-1.98
-1.42
-0.72
0.21
1.29
2.23
2.72
2.57
1.87
0.9
-0.02
-0.71
-1.13
-1.41
-1.69
-2.01
-2.39
-2.82
-3.35
-4.11
-5.23
-6.76
-8.54
-10.28
-11.63
-12.34
-12.31
-11.65
-10.6
-9.43
-8.38
-7.6
-7.13
-6.88
-6.69
-6.36
-5.76
-4.97
-4.3
-4.24
-5.29
-7.64
-10.85
-13.82
-15
-12.89
-6.64
3.49
16.09
28.98
39.88
47.08
49.81
48.29
43.37
36.14
27.6
18.6
9.84
1.97
-4.45
-9.11
-11.96
-13.29
-13.58
-13.33
-12.93
-12.55
-12.24
-11.93
-11.54
-11.04
-10.44
-9.9
-9.57
-9.54
-9.74
-9.88
-9.57
-8.54
-6.75
-4.56
-2.54
-1.21
-0.87
-1.44
-2.53
-3.7
-4.6
-5.16
-5.48
-5.76
-6.1
-6.51
-6.87
-7.07
-7.05
-6.79
-6.35
-5.73
-4.92
-3.86
-2.6
-1.29
-0.21
0.32
0.1
-0.84
-2.24
-3.66
-4.68
-5.02
-4.68
-3.84
-2.87
-2.08
-1.73
-1.96
-2.74
-3.94
-5.22
-6.13
-6.08
-4.62
-1.67
2.28
6.18
8.83
9.38
7.87
5.23
2.9
2.07
3.15
5.57
8.24
10.15
10.82
10.48
9.74
9.14
8.85
8.65
8.14
7.03
5.41
3.57
2.06
1.26
1.23
1.66
1.97
1.63
0.42
-1.36
-3.09
-4.19
-4.4
-3.98
-3.39
-3.11
-3.21
-3.48
-3.56
-3.32
-2.93
-2.87
-3.56
-5.06
-6.99
-8.68
-9.5
-9.08
-7.45
-4.99
-2.13
0.77
3.56
6.18
8.44
10.04
10.53
9.66
7.59
4.87
2.32
0.58
-0.13
-0.12
0.07
-0
-0.37
-0.76
-0.78
-0.32
0.39
0.91
0.92
0.46
-0.19
-0.65
-0.77
-0.72
-0.88
-1.58
-2.86
-4.41
-5.69
-6.16
-5.6
-4.14
-2.24
-0.46
0.79
1.37
1.57
1.77
2.27
3.06
3.89
4.33
4.11
3.27
2.11
1.09
0.56
0.6
1.04
1.6
1.93
1.91
1.59
1.21
1
1.03
1.16
1.09
0.5
-0.74
-2.48
-4.31
-5.78
-6.52
-6.4
-5.54
-4.16
-2.46
-0.56
1.45
3.45
5.21
6.42
6.82
6.34
5.11
3.54
2.14
1.29
1.1
1.34
1.54
1.21
0.08
-1.69
-3.51
-4.64
-4.55
-3.2
-1.13
0.82
1.9
1.82
0.77
-0.78
-2.43
-4.06
-5.69
-7.35
-8.74
-9.41
-8.98
-7.46
-5.3
-3.15
-1.46
-0.31
0.54
1.38
2.24
2.83
2.79
2.02
0.84
-0.13
-0.43
0.03
0.89
1.62
1.88
1.75
1.5
1.42
1.47
1.38
0.88
0.02
-0.8
-1.15
-0.8
-0.07
0.38
-0.09
-1.72
-4.13
-6.5
-7.93
-7.8
-6.1
-3.29
-0.12
2.71
4.78
6.03
6.58
6.57
6.05
5.01
3.56
2
0.84
0.48
1.01
2.03
2.86
2.86
1.77
-0.11
-2.1
-3.47
-3.79
-3.06
-1.75
-0.55
-0.13
-0.91
-2.89
-5.57
-8.24
-10.09
-10.61
-9.76
-7.9
-5.65
-3.52
-1.73
-0.2
1.22
2.55
3.56
3.92
3.44
2.29
0.99
0.11
0.04
0.78
1.97
3.08
3.72
3.71
3.18
2.36
1.5
0.77
0.17
-0.36
-0.91
-1.65
-2.67
-4.02
-5.55
-6.98
-7.91
-7.99
-7.01
-5.09
-2.62
-0.16
1.79
2.93
3.29
3.14
2.75
2.3
1.82
1.26
0.6
-0.03
-0.48
-0.62
-0.47
-0.19
0.08
0.23
0.3
0.43
0.69
1.04
1.33
1.3
0.81
-0.23
-1.73
-3.51
-5.24
-6.54
-7.05
-6.61
-5.29
-3.45
-1.51
0.17
1.47
2.49
3.38
4.21
4.84
5.08
4.76
3.96
2.92
1.95
1.33
1.12
1.29
1.68
2.09
2.32
2.24
1.82
1.18
0.51
-0.04
-0.47
-0.94
-1.74
-3.06
-4.92
-7.02
-8.87
-9.91
-9.79
-8.48
-6.24
-3.53
-0.79
1.69
3.77
5.39
6.48
6.95
6.75
5.99
4.98
4.14
3.76
3.84
4.08
4.06
3.49
2.38
1.03
-0.15
-0.9
-1.19
-1.2
-1.25
-1.57
-2.26
-3.37
-4.82
-6.46
-8.07
-9.34
-9.95
-9.63
-8.36
-6.31
-3.76
-1.04
1.64
4.08
6.12
7.58
8.31
8.3
7.76
6.99
6.34
5.88
5.55
5.1
4.35
3.31
2.16
1.15
0.45
0.08
-0.08
-0.19
-0.37
-0.74
-1.41
-2.5
-4.06
-6.06
-8.28
-10.35
-11.83
-12.36
-11.71
-9.94
-7.34
-4.34
-1.44
1.05
3.01
4.48
5.59
6.37
6.84
6.89
6.52
5.83
5.09
4.58
4.42
4.56
4.7
4.55
3.93
2.96
1.91
1.13
0.78
0.78
0.84
0.63
-0.1
-1.43
-3.26
-5.35
-7.33
-8.75
-9.19
-8.41
-6.51
-3.93
-1.18
1.28
3.38
5.26
7.17
9.07
10.66
11.51
11.38
10.43
9.16
8.12
7.64
7.67
7.88
7.94
7.66
7.1
6.4
5.68
4.95
4.17
3.31
2.43
1.57
0.66
-0.44
-1.88
-3.66
-5.51
-6.99
-7.68
-7.34
-6.03
-4.08
-1.84
0.41
2.57
4.67
6.65
8.33
9.43
9.79
9.45
8.81
8.32
8.33
8.84
9.51
9.87
9.61
8.79
7.76
6.98
6.73
6.91
7.26
7.39
7.15
6.53
5.63
4.5
3.08
1.28
-0.9
-3.28
-5.52
-7.17
-7.83
-7.28
-5.59
-2.99
0.09
3.21
6.06
8.45
10.32
11.65
12.4
12.56
12.2
11.53
10.83
10.35
10.21
10.35
10.56
10.58
10.26
9.61
8.73
7.82
7.01
6.35
5.76
5.15
4.44
3.65
2.85
2.12
1.42
0.6
-0.6
-2.26
-4.24
-6.09
-7.23
-7.18
-5.83
-3.47
-0.65
2.04
4.23
5.89
7.18
8.27
9.2
9.85
10.03
9.66
8.85
7.86
6.97
6.38
6.08
6.05
6.21
6.52
6.95
7.41
7.68
7.56
6.94
5.91
4.76
3.78
3.1
2.62
1.98
0.85
-0.86
-2.91
-4.75
-5.81
-5.8
-4.75
-3
-1.07
0.62
1.83
2.61
3.16
3.7
4.27
4.74
4.84
4.34
3.19
1.66
0.16
-0.83
-1.05
-0.54
0.33
1.19
1.75
1.96
1.92
1.74
1.49
1.11
0.57
-0.14
-0.98
-1.81
-2.56
-3.23
-3.91
-4.73
-5.77
-6.89
-7.74
-7.89
-6.97
-4.95
-2.18
0.72
3.13
4.64
5.25
5.23
4.92
4.53
4.04
3.32
2.31
1.2
0.35
0.14
0.74
1.95
3.28
4.13
4.07
3.01
1.28
-0.58
-2.05
-2.84
-3
-2.79
-2.5
-2.38
-2.49
-2.84
-3.38
-4.1
-4.98
-5.92
-6.69
-6.99
-6.58
-5.38
-3.63
-1.72
-0.08
1.04
1.59
1.78
1.86
1.98
2.17
2.26
2.04
1.47
0.66
-0.14
-0.66
-0.83
-0.76
-0.67
-0.75
-1.01
-1.27
-1.27
-0.87
-0.21
0.35
0.38
-0.35
-1.68
-3.12
-4.04
-4.15
-3.57
-2.86
-2.66
-3.3
-4.48
-5.51
-5.62
-4.48
-2.39
-0.08
1.65
2.37
2.17
1.48
0.77
0.32
0.2
0.24
0.37
0.48
0.54
0.43
0.06
-0.59
-1.41
-2.11
-2.44
-2.26
-1.69
-1.01
-0.55
-0.55
-1.05
-1.94
-2.97
-3.96
-4.73
-5.22
-5.4
-5.36
-5.21
-5.13
-5.24
-5.54
-5.86
-5.95
-5.59
-4.72
-3.46
-2.11
-0.92
-0.01
0.66
1.22
1.7
2.03
1.97
1.44
0.49
-0.53
-1.27
-1.5
-1.32
-1.1
-1.25
-1.91
-2.87
-3.66
-3.84
-3.32
-2.44
-1.75
-1.76
-2.56
-3.89
-5.26
-6.31
-6.92
-7.21
-7.31
-7.23
-6.85
-6.04
-4.87
-3.6
-2.6
-2.03
-1.75
-1.38
-0.58
0.7
2.04
2.82
2.57
1.25
-0.63
-2.29
-3.07
-2.75
-1.6
-0.2
0.88
1.36
1.27
0.84
0.31
-0.21
-0.71
-1.2
-1.71
-2.18
-2.63
-3.11
-3.76
-4.68
-5.89
-7.21
-8.31
-8.8
-8.44
-7.21
-5.37
-3.35
-1.55
-0.26
0.44
0.7
0.72
0.7
0.71
0.68
0.46
-0.05
-0.83
-1.71
-2.41
-2.67
-2.44
-1.86
-1.25
-0.91
-1.04
-1.53
-2.14
-2.58
-2.74
-2.64
-2.48
-2.45
-2.61
-2.96
-3.4
-3.89
-4.42
-4.98
-5.47
-5.68
-5.39
-4.49
-3.09
-1.52
-0.15
0.79
1.22
1.33
1.28
1.14
0.85
0.28
-0.62
-1.75
-2.83
-3.51
-3.56
-2.94
-1.85
-0.68
0.2
0.51
0.24
-0.5
-1.42
-2.25
-2.79
-3.03
-3.05
-3.02
-3.06
-3.26
-3.66
-4.19
-4.77
-5.22
-5.37
-5.09
-4.41
-3.54
-2.73
-2.26
-2.19
-2.32
-2.32
-1.9
-0.96
0.24
1.25
1.68
1.4
0.62
-0.25
-0.86
-1.11
-1.14
-1.21
-1.44
-1.7
-1.73
-1.36
-0.64
0.18
0.75
0.88
0.59
-0.03
-0.86
-1.91
-3.22
-4.77
-6.35
-7.58
-7.99
-7.29
-5.49
-2.91
-0.07
2.47
4.34
5.38
5.62
5.22
4.33
3.12
1.76
0.45
-0.51
-0.9
-0.62
0.17
1.13
1.83
1.96
1.45
0.46
-0.7
-1.77
-2.57
-3.06
-3.31
-3.5
-3.81
-4.3
-4.92
-5.52
-5.89
-5.94
-5.69
-5.24
-4.68
-4.09
-3.39
-2.56
-1.58
-0.54
0.41
1.15
1.57
1.66
1.4
0.82
-0.04
-1.07
-2.07
-2.81
-3.21
-3.29
-3.28
-3.38
-3.69
-4.08
-4.31
-4.19
-3.8
-3.42
-3.43
-3.98
-4.92
-5.88
-6.49
-6.62
-6.41
-6.17
-6.15
-6.41
-6.74
-6.85
-6.46
-5.49
-4.06
-2.43
-0.93
0.2
0.8
0.93
0.79
0.68
0.84
1.37
2.22
3.22
4.18
4.84
4.91
4.05
2.02
-1.19
-5.23
-9.35
-12.7
-14.52
-14.52
-12.94
-10.47
-7.96
-6.05
-5.04
-4.78
-4.9
-4.95
-4.64
-3.85
-2.72
-1.43
-0.2
0.94
2.01
3.15
4.37
5.54
6.36
6.51
5.86
4.62
3.26
2.33
2.08
2.43
2.92
3.07
2.63
1.72
0.71
0.01
-0.2
0
0.34
0.53
0.43
0.04
-0.54
-1.22
-1.94
-2.62
-3.25
-3.7
-3.95
-3.91
-3.55
-2.85
-1.84
-0.61
0.7
1.92
2.89
3.47
3.63
3.39
2.81
2.07
1.38
0.97
0.99
1.5
2.38
3.36
4.15
4.56
4.51
4.12
3.53
2.87
2.16
1.33
0.32
-0.87
-2.07
-3.05
-3.67
-3.96
-4.15
-4.54
-5.3
-6.31
-7.22
-7.59
-7.12
-5.85
-4
-1.96
-0.06
1.52
2.74
3.57
3.98
4
3.69
3.22
2.74
2.42
2.26
2.25
2.35
2.57
2.97
3.54
4.18
4.69
4.87
4.58
3.91
3.01
2.11
1.3
0.56
-0.27
-1.36
-2.8
-4.52
-6.3
-7.8
-8.68
-8.75
-8.08
-6.9
-5.57
-4.32
-3.24
-2.21
-1.08
0.23
1.61
2.84
3.66
3.94
3.66
3
2.28
1.79
1.81
2.4
3.37
4.4
5.08
5.18
4.72
3.97
3.22
2.71
2.44
2.25
1.96
1.46
0.76
-0.07
-1
-2.1
-3.43
-4.97
-6.5
-7.61
-7.86
-6.96
-4.96
-2.32
0.32
2.35
3.47
3.72
3.51
3.27
3.32
3.74
4.41
5.09
5.56
5.68
5.45
4.94
4.34
3.82
3.51
3.4
3.37
3.25
2.9
2.26
1.43
0.5
-0.49
-1.52
-2.59
-3.64
-4.53
-5.16
-5.51
-5.78
-6.21
-6.93
-7.9
-8.79
-9.18
-8.68
-7.08
-4.51
-1.34
1.91
4.74
6.77
7.81
7.89
7.27
6.25
5.15
4.17
3.41
2.96
2.87
3.25
4.07
5.14
6.12
6.64
6.47
5.67
4.55
3.44
2.58
1.98
1.5
0.99
0.41
-0.17
-0.79
-1.57
-2.74
-4.43
-6.52
-8.57
-10.01
-10.35
-9.44
-7.49
-4.9
-2.15
0.39
2.52
4.2
5.44
6.28
6.75
6.84
6.51
5.81
4.88
3.95
3.33
3.23
3.64
4.35
5.03
5.37
5.26
4.8
4.23
3.78
3.53
3.47
3.41
3.14
2.51
1.46
0.06
-1.53
-3.15
-4.67
-6.03
-7.2
-8.12
-8.56
-8.3
-7.17
-5.19
-2.64
0.1
2.59
4.62
6.09
7.07
7.64
7.75
7.38
6.49
5.25
3.93
2.88
2.33
2.29
2.56
2.82
2.89
2.74
2.53
2.42
2.48
2.58
2.52
2.08
1.22
0.02
-1.32
-2.63
-3.8
-4.77
-5.57
-6.25
-6.85
-7.35
-7.6
-7.42
-6.6
-5.06
-2.96
-0.62
1.58
3.33
4.59
5.48
6.15
6.71
7.03
6.91
6.24
5.07
3.7
2.51
1.8
1.64
1.93
2.41
2.85
3.1
3.04
2.63
1.83
0.68
-0.63
-1.87
-2.81
-3.37
-3.68
-3.96
-4.38
-4.97
-5.53
-5.82
-5.61
-4.83
-3.56
-1.88
0.1
2.26
4.41
6.2
7.24
7.26
6.31
4.73
3.07
1.73
0.89
0.45
0.25
0.16
0.18
0.4
0.87
1.48
1.98
2.04
1.48
0.22
-1.65
-3.91
-6.28
-8.43
-10.06
-11.02
-11.35
-11.27
-11
-10.63
-10.05
-9.06
-7.52
-5.49
-3.12
-0.59
2
4.56
6.97
9.01
10.34
10.71
10.07
8.67
7
5.54
4.63
4.35
4.56
5
5.35
5.34
4.81
3.8
2.54
1.38
0.64
0.42
0.5
0.44
-0.27
-1.95
-4.58
-7.82
-11.06
-13.58
-14.82
-14.52
-12.77
-9.97
-6.74
-3.61
-0.9
1.37
3.3
4.98
6.33
7.08
7.01
6.14
4.84
3.71
3.27
3.67
4.62
5.53
5.78
5.06
3.5
1.61
0.03
-0.78
-0.75
-0.21
0.28
0.12
-0.99
-3.04
-5.72
-8.59
-11.24
-13.4
-14.85
-15.38
-14.72
-12.65
-9.22
-4.83
-0.2
3.88
6.95
8.92
10.11
10.92
11.53
11.84
11.68
10.96
9.87
8.79
8.05
7.69
7.48
7.03
6.12
4.9
3.71
2.91
2.66
2.81
3.01
2.9
2.25
0.9
-1.11
-3.74
-6.8
-9.95
-12.73
-14.68
-15.39
-14.69
-12.63
-9.45
-5.47
-1.09
3.29
7.2
10.23
12.15
12.91
12.72
11.9
10.76
9.58
8.53
7.76
7.44
7.65
8.27
9.02
9.4
9.03
7.84
6.16
4.65
3.93
4.18
5.05
5.86
5.89
4.8
2.67
-0.11
-3.16
-6.27
-9.27
-11.95
-13.86
-14.4
-13.08
-9.91
-5.38
-0.41
4.1
7.58
9.9
11.22
11.8
11.76
11.14
10.06
8.73
7.56
6.96
7.18
8.12
9.47
10.79
11.69
11.99
11.65
10.77
9.42
7.76
6
4.43
3.27
2.58
2.16
1.64
0.66
-0.98
-3.17
-5.63
-7.98
-9.88
-11.02
-11.14
-10.1
-7.95
-4.94
-1.56
1.69
4.47
6.71
8.56
10.28
11.96
13.49
14.62
15.07
14.75
13.74
12.31
10.81
9.54
8.71
8.34
8.32
8.42
8.36
7.94
7.07
5.82
4.42
3.1
2.01
1.12
0.32
-0.52
-1.45
-2.41
-3.39
-4.38
-5.39
-6.41
-7.25
-7.5
-6.73
-4.69
-1.54
2.19
5.78
8.64
10.56
11.68
12.34
12.73
12.82
12.34
11.05
8.96
6.54
4.52
3.63
4.15
5.74
7.52
8.6
8.45
7.2
5.47
3.92
2.88
2.17
1.32
-0.03
-1.94
-4.14
-6.23
-7.97
-9.31
-10.29
-10.82
-10.63
-9.44
-7.17
-4.08
-0.71
2.43
5.07
7.24
9.16
10.92
12.35
13.09
12.82
11.51
9.56
7.61
6.22
5.63
5.63
5.74
5.45
4.51
2.93
1.03
-0.71
-1.95
-2.51
-2.52
-2.24
-1.97
-2
-2.46
-3.38
-4.64
-6.09
-7.48
-8.65
-9.42
-9.71
-9.46
-8.67
-7.41
-5.75
-3.78
-1.56
0.81
3.17
5.31
6.99
8.01
8.22
7.65
6.44
4.9
3.41
2.29
1.74
1.79
2.23
2.75
2.99
2.71
1.93
0.89
-0.05
-0.66
-0.95
-1.16
-1.57
-2.39
-3.68
-5.33
-7.19
-9.05
-10.71
-11.85
-12.18
-11.49
-9.8
-7.36
-4.59
-1.85
0.65
2.9
4.88
6.52
7.65
8.13
7.96
7.35
6.62
6.03
5.63
5.29
4.76
3.89
2.72
1.53
0.68
0.42
0.78
1.49
2.16
2.38
1.97
0.97
-0.4
-1.88
-3.32
-4.75
-6.28
-7.92
-9.48
-10.63
-10.99
-10.36
-8.82
-6.66
-4.28
-2
0.04
1.8
3.35
4.69
5.72
6.28
6.21
5.52
4.44
3.38
2.74
2.75
3.29
3.93
4.19
3.81
2.92
1.92
1.27
1.17
1.49
1.82
1.77
1.17
0.09
-1.26
-2.76
-4.38
-6.21
-8.28
-10.43
-12.28
-13.3
-13.05
-11.39
-8.58
-5.15
-1.78
1
2.99
4.28
5.11
5.67
6.05
6.15
5.88
5.25
4.43
3.7
3.29
3.29
3.56
3.81
3.76
3.23
2.21
0.94
-0.27
-1.12
-1.54
-1.7
-1.94
-2.61
-3.81
-5.36
-6.85
-7.99
-8.79
-9.46
-10.3
-11.37
-12.29
-12.42
-11.21
-8.59
-5.06
-1.46
1.46
3.4
4.52
5.22
5.71
5.95
5.71
4.88
3.63
2.33
1.42
1.1
1.29
1.73
2.19
2.57
2.92
3.28
3.57
3.61
3.18
2.24
0.85
-0.73
-2.27
-3.56
-4.52
-5.19
-5.63
-5.99
-6.44
-7.04
-7.75
-8.32
-8.45
-7.86
-6.49
-4.59
-2.58
-0.84
0.45
1.41
2.33
3.4
4.53
5.39
5.55
4.8
3.32
1.6
0.22
-0.46
-0.48
-0.24
-0.18
-0.52
-1.09
-1.51
-1.45
-0.9
-0.26
-0.07
-0.67
-2.03
-3.74
-5.31
-6.47
-7.26
-7.93
-8.68
-9.44
-9.87
-9.63
-8.56
-6.87
-5.01
-3.42
-2.31
-1.6
-0.99
-0.22
0.69
1.52
1.92
1.67
0.87
-0.13
-0.81
-0.88
-0.39
0.3
0.7
0.48
-0.39
-1.59
-2.67
-3.28
-3.37
-3.16
-3.02
-3.26
-3.99
-5.12
-6.43
-7.77
-9.1
-10.39
-11.52
-12.19
-11.98
-10.57
-8.03
-4.74
-1.42
1.27
2.99
3.75
3.83
3.51
2.97
2.25
1.44
0.77
0.55
1.07
2.28
3.81
5.02
5.34
4.46
2.55
0.13
-2.08
-3.51
-3.92
-3.47
-2.58
-1.78
-1.48
-1.89
-3
-4.69
-6.77
-9.06
-11.31
-13.18
-14.27
-14.2
-12.79
-10.17
-6.75
-3.13
0.12
2.65
4.34
5.23
5.45
5.07
4.19
2.94
1.52
0.2
-0.79
-1.28
-1.28
-0.89
-0.29
0.28
0.7
0.91
0.94
0.95
1.06
1.28
1.46
1.31
0.53
-1.06
-3.36
-6.06
-8.74
-10.97
-12.43
-12.89
-12.24
-10.48
-7.85
-4.79
-1.85
0.49
2
2.8
3.24
3.61
4.01
4.32
4.37
4.09
3.65
3.33
3.3
3.5
3.63
3.36
2.56
1.39
0.21
-0.69
-1.2
-1.48
-1.76
-2.23
-2.9
-3.7
-4.52
-5.34
-6.28
-7.39
-8.66
-9.88
-10.66
-10.61
-9.5
-7.43
-4.73
-1.93
0.54
2.35
3.51
4.14
4.44
4.54
4.42
3.96
3.15
2.06
0.95
0.1
-0.29
-0.26
0
0.18
0.03
-0.54
-1.42
-2.33
-2.94
-3.09
-2.83
-2.46
-2.36
-2.83
-3.97
-5.67
-7.6
-9.44
-10.9
-11.81
-12.05
-11.55
-10.27
-8.2
-5.47
-2.3
0.92
3.75
5.78
6.69
6.43
5.24
3.62
2.14
1.29
1.16
1.57
2.13
2.43
2.28
1.72
0.95
0.23
-0.22
-0.37
-0.29
-0.18
-0.3
-0.9
-2.16
-4.09
-6.5
-9.05
-11.28
-12.77
-13.17
-12.35
-10.36
-7.51
-4.22
-0.96
1.87
3.99
5.26
5.71
5.39
4.57
3.57
2.77
2.47
2.73
3.36
3.95
4.13
3.72
2.82
1.74
0.84
0.33
0.24
0.43
0.67
0.67
0.18
-1.02
-3.04
-5.76
-8.84
-11.72
-13.75
-14.46
-13.76
-11.84
-9.13
-6.05
-2.87
0.28
3.29
6.01
8.19
9.59
10.06
9.68
8.68
7.39
6.14
5.18
4.65
4.59
4.9
5.39
5.76
5.71
5.09
3.91
2.47
1.16
0.3
0.05
0.25
0.55
0.53
-0.16
-1.65
-3.79
-6.24
-8.53
-10.17
-10.84
-10.34
-8.74
-6.28
-3.34
-0.34
2.42
4.7
6.41
7.54
8.08
8.13
7.84
7.37
6.91
6.56
6.36
6.28
6.25
6.19
6.04
5.77
5.37
4.88
4.38
3.97
3.62
3.24
2.7
1.96
1.11
0.31
-0.35
-0.99
-1.91
-3.31
-5.13
-6.93
-8.07
-8.03
-6.67
-4.33
-1.54
1.17
3.55
5.56
7.27
8.68
9.67
10.08
9.84
9.09
8.11
7.28
6.84
6.81
7
7.08
6.75
5.88
4.64
3.46
2.8
2.94
3.82
5.02
5.9
5.9
4.69
2.3
-0.94
-4.49
-7.84
-10.5
-12.14
-12.55
-11.72
-9.79
-7.1
-4.11
-1.24
1.26
3.35
5.2
6.94
8.51
9.74
10.36
10.23
9.48
8.49
7.68
7.33
7.46
7.82
8.05
7.87
7.18
6.11
4.92
3.87
3.14
2.74
2.5
2.17
1.45
0.19
-1.63
-3.81
-6.09
-8.17
-9.83
-10.95
-11.43
-11.2
-10.16
-8.26
-5.61
-2.47
0.74
3.65
6.01
7.74
8.86
9.34
9.11
8.19
6.8
5.44
4.67
4.86
5.98
7.58
9.04
9.85
9.86
9.26
8.31
7.21
5.95
4.53
3.01
1.57
0.38
-0.59
-1.59
-2.99
-5
-7.55
-10.17
-12.24
-13.1
-12.36
-10.02
-6.45
-2.33
1.6
4.69
6.66
7.58
7.76
7.57
7.25
6.84
6.31
5.71
5.25
5.24
5.85
6.95
8.13
8.8
8.6
7.54
6
4.56
3.63
3.26
3.19
2.99
2.42
1.48
0.36
-0.72
-1.71
-2.77
-4.12
-5.81
-7.57
-8.86
-9.07
-7.82
-5.22
-1.84
1.58
4.4
6.36
7.52
8.11
8.31
8.13
7.47
6.32
4.92
3.65
2.93
2.95
3.57
4.41
5.03
5.14
4.72
4
3.32
2.95
2.99
3.28
3.46
3.2
2.31
0.9
-0.71
-2.18
-3.31
-4.17
-4.91
-5.68
-6.4
-6.8
-6.59
-5.54
-3.7
-1.27
1.4
3.91
5.93
7.09
7.25
6.39
4.79
2.95
1.36
0.39
0.11
0.34
0.75
1.04
1
0.57
-0.15
-0.92
-1.4
-1.29
-0.36
1.22
3
4.31
4.59
3.65
1.76
-0.48
-2.47
-3.81
-4.49
-4.67
-4.51
-4.08
-3.33
-2.21
-0.8
0.7
2.06
3.07
3.66
3.87
3.83
3.64
3.37
3.06
2.7
2.24
1.66
0.96
0.18
-0.59
-1.2
-1.53
-1.5
-1.13
-0.5
0.23
0.88
1.25
1.18
0.58
-0.52
-2.03
-3.8
-5.62
-7.34
-8.75
-9.64
-9.8
-9.1
-7.57
-5.38
-2.89
-0.52
1.36
2.53
2.94
2.67
1.91
0.84
-0.35
-1.49
-2.35
-2.68
-2.31
-1.28
0.11
1.36
1.94
1.61
0.46
-1.08
-2.45
-3.3
-3.62
-3.69
-3.9
-4.5
-5.45
-6.53
-7.48
-8.13
-8.42
-8.3
-7.72
-6.61
-5.02
-3.11
-1.23
0.27
1.14
1.43
1.39
1.4
1.68
2.26
2.89
3.26
3.12
2.44
1.37
0.19
-0.85
-1.61
-2.06
-2.29
-2.4
-2.47
-2.55
-2.69
-2.94
-3.33
-3.85
-4.4
-4.85
-5.09
-5.07
-4.87
-4.63
-4.46
-4.4
-4.41
-4.36
-4.12
-3.56
-2.6
-1.2
0.56
2.46
4.18
5.27
5.39
4.41
2.55
0.36
-1.44
-2.32
-2.09
-1.03
0.3
1.34
1.77
1.58
0.95
0.14
-0.72
-1.54
-2.24
-2.76
-3.02
-3.1
-3.16
-3.42
-4.03
-4.92
-5.91
-6.72
-7.21
-7.33
-7.14
-6.71
-6.01
-5.01
-3.61
-1.81
0.24
2.19
3.62
4.14
3.59
2.23
0.65
-0.46
-0.64
0.05
1.07
1.75
1.68
0.95
0.18
0.02
0.78
2.17
3.43
3.77
2.75
0.53
-2.33
-5.1
-7.27
-8.57
-8.99
-8.59
-7.49
-5.88
-4.01
-2.26
-0.94
-0.24
-0.07
-0.16
-0.21
-0.09
0.14
0.25
0.06
-0.46
-1.15
-1.74
-2.05
-2.07
-2.02
-2.15
-2.64
-3.37
-4.05
-4.26
-3.82
-2.83
-1.69
-0.87
-0.66
-1.05
-1.8
-2.65
-3.5
-4.39
-5.33
-6.13
-6.42
-5.82
-4.29
-2.18
-0.17
1.11
1.41
0.91
0.1
-0.65
-1.18
-1.6
-1.97
-2.21
-2.09
-1.4
-0.14
1.42
2.89
3.97
4.52
4.55
4.15
3.33
2.04
0.31
-1.71
-3.72
-5.35
-6.38
-6.75
-6.59
-6.12
-5.55
-4.99
-4.44
-3.83
-3.03
-2
-0.79
0.48
1.6
2.42
2.85
2.92
2.71
2.32
1.84
1.35
0.94
0.63
0.49
0.46
0.44
0.35
0.16
-0.08
-0.24
-0.23
-0.13
-0.08
-0.25
-0.78
-1.63
-2.71
-3.83
-4.85
-5.62
-6.03
-5.97
-5.34
-4.11
-2.34
-0.27
1.76
3.39
4.34
4.49
3.9
2.75
1.29
-0.17
-1.4
-2.2
-2.46
-2.18
-1.53
-0.76
-0.18
0
-0.23
-0.71
-1.21
-1.49
-1.57
-1.56
-1.65
-1.96
-2.48
-3.07
-3.63
-4.1
-4.53
-4.86
-4.98
-4.69
-3.79
-2.28
-0.38
1.51
2.96
3.62
3.35
2.26
0.69
-0.86
-1.95
-2.31
-1.97
-1.27
-0.69
-0.63
-1.2
-2.22
-3.29
-4.01
-4.26
-4.14
-3.96
-3.98
-4.4
-5.18
-6.16
-7.11
-7.83
-8.22
-8.21
-7.86
-7.18
-6.2
-4.94
-3.51
-2.07
-0.84
0.01
0.43
0.5
0.39
0.22
0.07
-0.1
-0.27
-0.47
-0.66
-0.85
-1.1
-1.51
-2.1
-2.81
-3.45
-3.79
-3.7
-3.26
-2.8
-2.74
-3.38
-4.7
-6.4
-7.98
-8.95
-8.94
-7.83
-5.67
-2.74
0.56
3.67
6.08
7.42
7.62
6.91
5.71
4.36
3.1
1.97
1.07
0.58
0.72
1.61
3.03
4.46
5.26
5
3.74
2.01
0.5
-0.28
-0.27
0.07
0.05
-0.9
-2.87
-5.41
-7.69
-8.92
-8.68
-7.09
-4.7
-2.12
0.23
2.31
4.23
6.03
7.54
8.36
8.18
7
5.2
3.41
2.24
2
2.57
3.49
4.19
4.23
3.49
2.13
0.59
-0.69
-1.4
-1.49
-1.18
-0.83
-0.74
-1.08
-1.78
-2.63
-3.44
-4.06
-4.38
-4.3
-3.71
-2.54
-0.82
1.26
3.4
5.24
6.52
7.14
7.12
6.62
5.83
4.92
4.08
3.44
3.04
2.8
2.57
2.25
1.87
1.58
1.58
1.94
2.55
3.08
3.25
2.88
1.99
0.7
-0.82
-2.39
-3.86
-5.01
-5.59
-5.37
-4.3
-2.51
-0.35
1.86
3.88
5.59
6.95
7.92
8.43
8.47
8.07
7.43
6.76
6.29
6.13
6.27
6.58
6.91
7.1
7.09
6.92
6.64
6.32
5.97
5.53
4.9
4.02
2.9
1.58
0.15
-1.26
-2.55
-3.53
-4.03
-3.96
-3.32
-2.25
-1
0.23
1.33
2.29
3.2
4.08
4.8
5.22
5.16
4.62
3.79
2.98
2.46
2.35
2.64
3.18
3.78
4.32
4.7
4.86
4.72
4.24
3.5
2.62
1.82
1.24
0.88
0.59
0.13
-0.66
-1.8
-3.09
-4.17
-4.64
-4.08
-2.35
0.45
3.87
7.25
9.93
11.49
11.84
11.27
10.22
9.12
8.21
7.5
6.91
6.35
5.86
5.45
5.13
4.75
4.07
2.83
0.99
-1.32
-3.67
-5.55
-6.63
-6.82
-6.39
-5.85
-5.7
-6.25
-7.48
-9.07
-10.48
-11.23
-10.94
-9.53
-7.04
-3.71
0.16
4.22
8.02
11.12
13.03
13.45
12.42
10.31
7.8
5.62
4.29
3.9
4.19
4.63
4.79
4.46
3.76
3
2.53
2.5
2.87
3.41
3.84
3.95
3.67
3.02
2.11
1.03
-0.12
-1.26
-2.27
-2.96
-3.16
-2.68
-1.45
0.38
2.53
4.57
6.22
7.36
8.05
8.42
8.59
8.57
8.35
7.92
7.34
6.73
6.17
5.71
5.27
4.68
3.85
2.77
1.6
0.51
-0.38
-1.13
-1.94
-3.07
-4.61
-6.42
-8.11
-9.23
-9.47
-8.77
-7.35
-5.56
-3.71
-1.93
-0.25
1.4
3.06
4.72
6.24
7.46
8.2
8.39
8.11
7.63
7.28
7.31
7.76
8.4
8.87
8.8
8
6.57
4.76
2.97
1.46
0.34
-0.48
-1.26
-2.27
-3.66
-5.33
-6.92
-7.94
-7.97
-6.89
-4.91
-2.54
-0.37
1.06
1.57
1.2
0.26
-0.93
-2.1
-3.18
-4.22
-5.23
-6.09
-6.55
-6.32
-5.28
-3.61
-1.74
-0.19
0.71
0.97
0.86
0.72
0.72
0.76
0.59
-0.02
-1.01
-2.05
-2.68
-2.56
-1.66
-0.27
1.2
2.42
3.23
3.68
3.85
3.76
3.37
2.64
1.58
0.44
-0.48
-0.92
-0.77
-0.21
0.41
0.74
0.54
-0.2
-1.3
-2.42
-3.19
-3.38
-2.91
-1.96
-0.87
-0.1
0.09
-0.33
-1.06
-1.63
-1.66
-1.09
-0.21
0.51
0.65
0.15
-0.78
-1.76
-2.52
-2.96
-3.07
-2.85
-2.31
-1.48
-0.53
0.24
0.45
-0.08
-1.28
-2.85
-4.42
-5.72
-6.64
-7.19
-7.38
-7.19
-6.65
-5.84
-4.98
-4.32
-3.97
-3.87
-3.72
-3.22
-2.23
-0.81
0.7
1.89
2.45
2.33
1.77
1.14
0.77
0.76
1.04
1.32
1.37
1.08
0.47
-0.27
-0.97
-1.44
-1.65
-1.67
-1.58
-1.46
-1.29
-1.02
-0.66
-0.3
-0.1
-0.2
-0.57
-1.01
-1.23
-0.98
-0.22
0.8
1.72
2.19
2.05
1.33
0.24
-0.97
-2.12
-3.11
-3.88
-4.4
-4.52
-4.15
-3.25
-1.98
-0.7
0.12
0.13
-0.73
-2.15
-3.63
-4.7
-5.19
-5.12
-4.71
-4.12
-3.35
-2.37
-1.29
-0.4
-0.08
-0.5
-1.49
-2.61
-3.37
-3.54
-3.27
-2.94
-2.89
-3.2
-3.68
-4.08
-4.22
-4.07
-3.7
-3.18
-2.5
-1.68
-0.82
-0.11
0.33
0.42
0.24
-0.09
-0.54
-1.07
-1.69
-2.28
-2.59
-2.35
-1.47
-0.12
1.25
2.12
2.22
1.61
0.67
-0.14
-0.51
-0.36
0.08
0.5
0.64
0.38
-0.17
-0.88
-1.6
-2.22
-2.71
-3.01
-3.1
-2.99
-2.73
-2.48
-2.44
-2.68
-3.15
-3.63
-3.83
-3.54
-2.77
-1.71
-0.63
0.29
1
1.57
2.03
2.38
2.49
2.3
1.82
1.2
0.63
0.14
-0.33
-0.93
-1.72
-2.66
-3.56
-4.25
-4.65
-4.72
-4.5
-4.03
-3.41
-2.85
-2.61
-2.91
-3.74
-4.85
-5.85
-6.35
-6.13
-5.22
-3.78
-2.03
-0.26
1.26
2.2
2.43
2.04
1.41
1.06
1.38
2.43
3.84
4.99
5.38
4.83
3.53
1.9
0.36
-0.84
-1.67
-2.19
-2.44
-2.39
-1.93
-1.13
-0.27
0.26
0.17
-0.55
-1.56
-2.31
-2.42
-1.88
-1.06
-0.52
-0.54
-1.05
-1.54
-1.46
-0.53
1.04
2.69
3.75
3.9
3.2
2.07
1.03
0.4
0.15
0.04
-0.2
-0.65
-1.14
-1.42
-1.3
-0.82
-0.28
-0.02
-0.28
-1.05
-2.08
-3.05
-3.67
-3.76
-3.33
-2.52
-1.58
-0.79
-0.33
-0.25
-0.46
-0.83
-1.27
-1.69
-2.02
-2.14
-1.91
-1.24
-0.19
0.99
2.02
2.71
3.03
3.15
3.27
3.51
3.71
3.68
3.24
2.46
1.54
0.79
0.37
0.2
0.09
-0.15
-0.58
-1.08
-1.5
-1.75
-1.86
-1.91
-1.97
-1.99
-1.94
-1.85
-1.89
-2.23
-2.94
-3.8
-4.47
-4.67
-4.41
-4.03
-3.98
-4.53
-5.59
-6.65
-7.13
-6.63
-5.16
-3.17
-1.24
0.17
0.96
1.35
1.69
2.18
2.77
3.15
3.05
2.38
1.39
0.52
0.16
0.46
1.31
2.41
3.45
4.25
4.74
4.89
4.72
4.32
3.81
3.39
3.22
3.37
3.72
4.08
4.28
4.3
4.27
4.37
4.78
5.5
6.46
7.42
8.03
7.82
6.44
3.79
0.17
-3.67
-6.83
-8.63
-8.91
-8.08
-6.93
-6.18
-6.23
-7.05
-8.4
-10.14
-12.36
-15.34
-19.24
-23.86
-28.6
-32.65
-35.46
-37.01
-37.97
-39.43
-42.56
-48.06
-55.88
-65.18
-74.47
-82.02
-86.27
-86.25
-81.87
-74.07
-64.66
-55.86
-49.62
-46.92
