6.83
6.46
5.7
4.41
2.67
0.79
-0.96
-2.38
-3.48
-4.34
-5
-5.34
-5.14
-4.22
-2.57
-0.43
1.88
4.12
6.25
8.47
11.02
13.97
17.12
20.05
22.31
23.69
24.36
24.84
25.71
27.38
29.87
32.81
35.64
37.89
39.41
40.43
41.44
42.9
45.1
48.06
51.58
55.42
59.36
63.33
67.34
71.42
75.58
79.82
84.14
88.47
92.46
95.29
95.54
91.5
81.65
65.42
43.62
18.4
-7.37
-31.1
-51.31
-68
-82.31
-95.73
-109.29
-123.21
-137.19
-151.07
-165.37
-181.28
-199.91
-221.42
-244.53
-266.83
-285.68
-299.23
-306.98
-309.43
-307.34
-300.89
-289.42
-271.74
-246.75
-213.95
-173.61
-126.77
-75.2
-21.54
30.5
76.32
111.3
132.11
137.99
131.56
118.37
105.38
98.85
102.36
115.98
136.74
160.09
181.69
198.74
210.34
216.98
219.6
218.73
214.15
205.08
190.84
171.65
149.09
125.92
105.25
89.34
78.91
73.02
69.92
68.16
67.32
67.95
70.69
75.36
80.57
84.14
84.18
79.96
72.13
62.13
51.35
40.45
29.45
18.1
6.47
-4.86
-14.98
-23.08
-28.84
-32.42
-34.26
-34.74
-34.03
-32.17
-29.3
-25.95
-22.96
-21.15
-20.92
-21.95
-23.39
-24.24
-24.07
-23.32
-23.05
-24.37
-27.58
-31.74
-34.91
-34.95
-30.62
-22.29
-11.91
-2.27
4.3
6.86
6.09
3.73
1.52
0.34
-0.02
-0.32
-1.05
-1.83
-1.47
1.4
7.54
16.85
28.53
41.63
55.49
69.52
82.77
93.57
99.66
98.96
90.68
76.06
58.23
41.35
29.19
24.03
26.25
34.55
46.85
60.97
75.19
88.26
99.25
107.48
112.7
115.32
116.27
116.59
116.62
115.51
111.41
102.41
87.86
69.21
49.84
33.95
24.86
23.5
27.88
33.5
34.64
25.87
3.71
-32.22
-78.63
-129.11
-175.78
-211.63
-232.78
-239.65
-236.38
-228.85
-222.07
-218.14
-215.86
-212.01
-203.49
-189.18
-170.61
-150.91
-133.13
-118.84
-107.76
-98.77
-91.26
-86.04
-85.13
-90.43
-102.31
-119.01
-137.19
-153.39
-165.37
-172.63
-175.74
-175.21
-170.73
-161.26
-145.82
-124.45
-98.46
-70.01
-41.18
-13.48
12.22
35.14
54.16
67.94
75.69
77.75
75.85
72.38
69.23
66.81
64.01
58.95
50.21
37.65
22.64
7.29
-6.26
-16.54
-22.99
-25.69
-25.13
-21.96
-16.87
-10.58
-3.84
2.71
8.51
13.26
16.9
19.71
22.24
25.13
28.92
33.8
39.51
45.42
50.81
55.14
58.19
59.97
60.52
59.76
57.61
54.15
49.87
45.66
42.59
41.45
42.48
45.22
48.68
51.74
53.49
53.47
51.8
49.02
45.97
43.51
42.36
42.91
45.15
48.73
53.07
57.5
61.48
64.76
67.49
70.19
73.6
78.32
84.54
91.96
99.9
107.71
115.07
122.16
129.52
137.64
146.66
156.03
164.64
171.2
174.85
175.72
175.03
174.59
176.06
180.08
186.02
192.42
197.82
201.43
203.18
203.18
200.79
194.31
181.34
159.78
129.06
90.61
47.5
3.26
-39.25
-78.72
-115.55
-151.33
-188.27
-228.73
-274.86
-328.03
-387.74
-450.65
-510.18
-557.72
-585.01
-586.84
-562.78
-516.89
-455.92
-387.07
-316.49
-248.98
-188.38
-137.79
-99.37
-73.62
-59.16
-52.95
-50.95
-48.61
-41.36
-25.14
2.4
40.17
83.01
122.56
149.95
159.27
150
127.01
98.47
72.67
55.37
48.86
52.4
63.47
78.92
95.77
111.52
124.29
132.75
136.05
133.82
126.26
114.46
100.48
87.01
76.43
69.72
65.62
60.95
51.91
35.93
13.08
-13.79
-40.29
-62.39
-77.93
-87.03
-91.29
-92.59
-92.21
-90.67
-88.29
-85.9
-84.99
-87.29
-93.94
-104.74
-117.88
-130.32
-138.79
-140.86
-135.89
-125.2
-111.55
-97.93
-86.43
-77.57
-70.51
-64.03
-57.48
-51.28
-46.63
-44.84
-46.56
-51.5
-58.37
-65.21
-69.68
-69.57
-63.4
-51.18
-34.7
-17.09
-1.48
10.56
19.85
29.09
41.19
57.48
76.86
96.56
113.7
126.87
136.49
143.85
149.82
153.91
154.62
150.49
141.38
128.89
115.75
104.62
97.08
93.13
91.43
89.97
86.76
80.42
70.49
57.56
43.07
28.89
16.98
8.98
5.93
8.1
15.01
25.39
37.45
49.33
59.59
67.62
73.55
77.89
81.02
83.03
83.94
84.17
84.56
85.9
87.96
88.98
86.1
76.64
59.73
37.09
12.52
-9.77
-26.98
-38.54
-45.71
-50.22
-52.89
-53.38
-50.89
-45.39
-38.28
-32.2
-29.82
-32.59
-40.16
-50.72
-62.08
-72.75
-82.35
-91.32
-99.99
-107.95
-114
-116.81
-115.76
-111.51
-105.77
-100.47
-96.87
-94.9
-93.39
-90.79
-86.09
-79.4
-71.88
-65.18
-60.63
-58.63
-58.59
-59.28
-59.46
-58.34
-55.72
-51.83
-47.01
-41.36
-34.81
-27.18
-18.45
-8.84
1.24
11.42
21.39
31.01
40.16
48.52
55.66
61.07
64.35
65.43
64.52
62.04
58.42
53.99
49.03
43.83
38.78
34.3
30.72
28.16
26.51
25.54
25.04
24.9
25.12
25.67
26.39
26.91
26.79
25.71
23.58
20.65
17.37
14.22
11.56
9.54
8.14
7.31
6.96
7.02
7.39
7.88
8.22
8.16
7.56
6.49
5.17
3.91
2.97
2.46
2.33
2.41
2.49
2.42
2.17
1.82
1.53
1.46
1.69
2.19
2.83
3.39
3.7
3.65
3.3
2.84
2.49
2.44
2.71
3.22
3.81
4.38
4.84
5.13
5.07
4.38
2.78
0.17
-3.27
-7.11
-10.84
-14.07
-16.68
-18.72
-20.29
-21.32
-21.6
-20.89
-19.11
-16.5
-13.56
-10.86
-8.86
-7.64
-6.96
-6.34
-5.32
-3.65
-1.43
0.96
3.04
4.46
5.13
5.21
5.04
4.88
4.84
4.87
4.81
4.53
4.02
3.4
2.87
2.58
2.57
2.72
2.82
2.69
2.23
1.46
0.51
-0.49
-1.42
-2.22
-2.88
-3.36
-3.62
-3.57
-3.18
-2.41
-1.33
-0.03
1.33
2.57
3.57
4.28
4.68
4.82
4.73
4.42
3.84
2.95
1.77
0.39
-1
-2.22
-3.11
-3.64
-3.83
-3.78
-3.54
-3.15
-2.58
-1.87
-1.09
-0.36
0.21
0.62
0.97
1.4
1.97
2.63
3.19
3.48
3.41
3.02
2.45
1.84
1.26
0.75
0.31
0.02
-0.09
-0.02
0.13
0.19
0.05
-0.31
-0.74
-1.03
-1.02
-0.7
-0.21
0.29
0.64
0.85
1
1.2
1.52
1.94
2.36
2.67
2.81
2.76
2.57
2.28
1.93
1.49
0.91
0.11
-0.94
-2.17
-3.41
-4.38
-4.79
-4.4
-3.14
-1.16
1.19
3.52
5.45
6.81
7.61
8.05
8.34
8.63
8.93
9.13
9.11
8.76
8.06
7.05
5.8
4.4
2.91
1.43
0.07
-0.98
-1.55
-1.54
-0.95
0.14
1.56
3.19
4.94
6.73
8.42
9.84
10.76
11.04
10.72
10.02
9.31
8.95
9.14
9.84
10.88
11.99
12.96
13.71
14.34
15.04
16.07
17.57
19.49
21.64
23.73
25.63
27.42
29.49
32.25
35.91
40.28
44.77
48.63
51.16
51.83
50.28
46.29
39.87
31.52
22.37
14.17
8.8
7.71
11.3
18.69
28.08
37.45
45.27
50.93
54.47
56.11
55.86
53.53
49.26
43.97
39.45
37.82
40.51
47.33
56.2
63.76
66.56
62.13
49.53
29.3
3.08
-26.77
-57.47
-86.23
-110.68
-129.49
-142.51
-150.55
-154.8
-156.17
-155.19
-152.27
-148.23
-144.5
-142.68
-143.6
-146.63
-149.68
-149.92
-144.88
-133.03
-113.97
-88.27
-57.46
-24.12
8.01
34.73
52.6
60.44
59.97
55.11
50.1
47.48
47.24
47.38
45.73
41.56
36.04
31.29
28.97
29.16
30.44
30.94
29.48
26.26
22.58
19.94
19.17
20.01
21.33
21.83
20.73
18.1
14.74
11.67
9.68
8.99
9.19
9.66
9.8
9.4
8.66
8
7.84
8.27
9.09
9.82
10.04
9.54
8.42
6.98
5.54
4.3
3.34
2.6
2.08
1.81
1.76
1.81
1.73
1.29
0.41
-0.72
-1.73
-2.21
-1.88
-0.78
0.82
2.46
3.68
4.17
3.81
2.78
1.44
0.25
-0.48
-0.62
-0.39
-0.17
-0.29
-0.89
-1.78
-2.6
-2.99
-2.78
-2.02
-1.01
-0.03
0.66
0.95
0.82
0.36
-0.15
-0.33
0.26
1.88
4.44
7.39
9.84
10.91
10.07
7.48
3.92
0.57
-1.53
-1.8
-0.29
2.41
5.51
8.28
10.24
11.19
11.12
10.11
8.34
6.05
3.6
1.4
-0.23
-1.14
-1.44
-1.42
-1.38
-1.52
-1.84
-2.19
-2.37
-2.26
-1.86
-1.34
-0.93
-0.85
-1.16
-1.79
-2.5
-3.05
-3.32
-3.32
-3.17
-3.03
-2.98
-2.99
-2.98
-2.86
-2.62
-2.35
-2.14
-2.03
-2.01
-2.01
-1.96
-1.84
-1.68
-1.52
-1.4
-1.31
-1.22
-1.1
-0.92
-0.61
-0.12
0.6
1.52
2.55
3.48
4.11
4.31
4.09
3.56
2.9
2.24
1.61
0.96
0.24
-0.6
-1.5
-2.29
-2.79
-2.87
-2.53
-1.9
-1.19
-0.61
-0.29
-0.22
-0.29
-0.41
-0.48
-0.44
-0.15
0.61
2.07
4.33
7.24
10.35
12.95
14.41
14.32
12.71
10.06
7.04
4.33
2.35
1.16
0.56
0.2
-0.21
-0.85
-1.67
-2.54
-3.32
-3.96
-4.53
-5.17
-5.96
-6.84
-7.59
-7.89
-7.45
-6.19
-4.3
-2.26
-0.64
0.09
-0.26
-1.52
-3.22
-4.82
-5.95
-6.47
-6.52
-6.37
-6.21
-6.09
-5.89
-5.47
-4.75
-3.82
-2.77
-1.67
-0.42
1.12
3
5.04
6.79
7.73
7.46
6
3.75
1.44
-0.29
-1.06
-0.93
-0.29
0.39
0.8
0.87
0.77
0.69
0.75
0.93
1.17
1.44
1.84
2.49
3.44
4.53
5.48
5.97
5.79
4.97
3.71
2.31
1.03
0.04
-0.59
-0.88
-0.92
-0.84
-0.82
-1.01
-1.47
-2.06
-2.56
-2.72
-2.45
-1.83
-1.09
-0.48
-0.13
-0.05
-0.1
-0.19
-0.26
-0.33
-0.46
-0.7
-1.05
-1.46
-1.82
-2.06
-2.14
-2.11
-2.07
-2.17
-2.43
-2.73
-2.83
-2.52
-1.79
-0.84
0.01
0.46
0.44
0.06
-0.46
-0.9
-1.21
-1.42
-1.56
-1.63
-1.62
-1.52
-1.39
-1.32
-1.35
-1.45
-1.48
-1.31
-0.87
-0.18
0.66
1.52
2.26
2.78
3.03
3.02
2.82
2.54
2.23
1.92
1.51
0.92
0.09
-0.97
-2.12
-3.22
-4.17
-4.91
-5.44
-5.72
-5.64
-5.01
-3.67
-1.62
0.89
3.4
5.34
6.3
6.19
5.3
4.21
3.58
3.89
5.27
7.47
9.98
12.2
13.71
14.43
14.62
14.78
15.4
16.68
18.47
20.32
21.72
22.42
22.54
22.58
23.21
24.93
27.97
32.18
37.22
42.75
48.42
53.66
57.63
59.16
57.22
51.43
42.38
31.38
19.71
7.84
-4.79
-19.28
-36.2
-54.85
-73.28
-89.14
-101.06
-109.33
-115.61
-121.76
-128.37
-134.05
-135.93
-130.98
-117.59
-96.51
-70.69
-44.17
-20.6
-2.09
11.19
20.5
27.5
33.32
38.09
41.24
42.07
40.47
37.18
33.43
30.49
29.04
28.93
29.31
29.07
27.37
23.93
19.21
14.17
9.88
7.08
5.92
5.93
6.29
6.29
5.61
4.44
3.23
2.4
2.08
2.15
2.34
2.46
2.54
2.67
2.89
3.06
2.96
2.3
1.04
-0.66
-2.47
-3.97
-4.89
-5.07
-4.53
-3.39
-1.88
-0.33
0.93
1.62
1.62
0.98
-0.08
-1.26
-2.25
-2.82
-2.87
-2.43
-1.72
-1.03
-0.72
-0.94
-1.65
-2.6
-3.43
-3.88
-3.85
-3.45
-2.86
-2.23
-1.6
-0.94
-0.17
0.75
1.77
2.8
3.7
4.37
4.7
4.65
4.24
3.58
2.8
2.06
1.44
1
0.76
0.71
0.9
1.31
1.96
2.73
3.46
4.03
4.36
4.5
4.57
4.63
4.62
4.35
3.58
2.24
0.44
-1.51
-3.28
-4.65
-5.59
-6.17
-6.52
-6.78
-7.09
-7.59
-8.38
-9.4
-10.39
-10.86
-10.4
-8.86
-6.6
-4.41
-3.17
-3.42
-5.07
-7.38
-9.44
-10.5
-10.24
-8.75
-6.24
-2.84
1.46
6.63
12.5
18.63
24.39
29.08
32.02
32.66
30.75
26.46
20.48
13.9
7.87
3.12
-0.36
-3.3
-6.72
-11.47
-17.69
-24.82
-31.68
-36.98
-39.7
-39.45
-36.64
-32.42
-28.26
-25.39
-24.21
-24.05
-23.47
-20.84
-15.11
-6.16
5.2
17.61
29.68
40.24
48.44
53.63
55.32
53.24
47.49
38.72
28.18
17.47
8.13
1.23
-2.98
-5.02
-5.91
-6.72
-8.06
-9.89
-11.57
-12.31
-11.56
-9.27
-5.91
-2.26
0.96
3.32
4.71
5.31
5.32
4.95
4.29
3.41
2.46
1.68
1.32
1.58
2.43
3.63
4.75
5.32
5.02
3.82
1.99
-0.02
-1.74
-2.87
-3.3
-3.12
-2.47
-1.51
-0.33
0.93
2.05
2.77
2.86
2.29
1.27
0.16
-0.7
-1.13
-1.13
-0.87
-0.5
-0.09
0.3
0.64
0.82
0.7
0.21
-0.54
-1.35
-1.95
-2.21
-2.16
-1.93
-1.66
-1.37
-0.96
-0.28
0.75
2.01
3.29
4.29
4.77
4.62
3.87
2.64
1.14
-0.3
-1.36
-1.71
-1.24
-0.1
1.36
2.67
3.49
3.68
3.27
2.42
1.2
-0.35
-2.22
-4.26
-6.13
-7.38
-7.6
-6.58
-4.46
-1.69
1.14
3.45
4.81
5.07
4.27
2.6
0.26
-2.6
-5.86
-9.36
-12.9
-16.19
-19.01
-21.31
-23.22
-24.94
-26.59
-28.09
-29.18
-29.56
-29.17
-28.2
-27.01
-25.98
-25.38
-25.23
-25.55
-26.37
-27.72
-29.4
-30.91
-31.64
-31.36
-30.49
-30.13
-31.34
-34.39
-38.17
-40.44
-38.76
-31.71
-19.56
-4.14
11.97
26.63
38.78
48.47
56.31
62.9
68.46
72.94
76.33
78.8
80.65
82.09
83.01
82.91
81.21
77.56
72.19
65.86
59.49
53.76
48.76
43.98
38.67
32.27
24.73
16.6
8.85
2.6
-1.04
-1.15
2.84
10.88
22.04
34.3
44.67
49.89
47.52
36.92
19.73
-0.54
-19.78
-34.84
-44.61
-50.15
-53.73
-57.41
-61.78
-65.71
-67.07
-64.02
-56.04
-44.16
-30.44
-17.01
-5.37
3.71
9.85
12.65
11.73
7.17
0.11
-7.1
-11.46
-10.49
-3.5
7.92
20.32
29.87
33.86
31.86
25.63
18.07
11.76
7.84
5.91
4.6
2.51
-1.34
-7.47
-16.19
-27.68
-41.65
-56.87
-70.9
-80.53
-82.72
-75.69
-59.62
-36.48
-9.42
18.13
43.04
62.88
76.03
81.91
81.23
75.86
68.44
61.6
57.06
55.19
55.12
55.38
54.74
52.87
50.45
48.75
49.13
52.43
58.77
67.51
77.44
86.93
94.22
97.83
96.99
92.05
84.44
76.09
68.53
62.04
55.38
46.31
32.75
13.88
-9.28
-34.23
-57.99
-78.3
-94.24
-106.09
-114.61
-120.25
-122.78
-121.55
-116.21
-107.32
-96.54
-86.18
-78.31
-73.98
-73
-74.27
-76.58
-79.31
-82.7
-87.48
-94.21
-102.65
-111.74
-119.95
-126
-129.3
-129.94
-128.19
-123.95
-116.48
-104.62
-87.52
-65.27
-39.24
-11.77
14.48
37.22
55.08
67.62
75.15
78.41
78.4
76.15
72.72
68.99
65.51
62.39
59.4
56.21
52.65
48.92
45.48
42.82
41.2
40.41
39.91
38.99
37.12
34.16
30.35
26.19
22.17
18.66
15.81
13.69
12.33
11.7
11.73
12.16
12.57
12.51
11.6
9.73
7.08
4.03
1.06
-1.42
-3.14
-3.97
-3.94
-3.17
-1.84
-0.19
1.59
3.41
5.31
7.42
9.91
12.9
16.38
20.22
24.05
27.24
29.05
28.75
26.05
21.27
15.42
9.84
5.75
3.81
3.93
5.5
7.77
10.13
12.35
14.36
16.16
17.62
18.52
18.77
18.42
17.69
16.8
15.79
14.47
12.53
9.84
6.5
2.92
-0.38
-3.1
-5.18
-6.83
-8.33
-9.87
-11.5
-13.17
-14.79
-16.3
-17.6
-18.57
-19.03
-18.86
-18.08
-16.86
-15.41
-13.95
-12.54
-11.23
-10.11
-9.37
-9.25
-9.9
-11.24
-12.97
-14.61
-15.74
-16.14
-15.87
-15.27
-14.68
-14.28
-14.01
-13.63
-12.86
-11.39
-8.84
-4.65
1.78
10.79
21.94
33.73
43.87
50.03
50.79
46.36
38.43
29.4
21.32
15.17
10.86
7.73
5.28
3.45
2.53
2.73
3.88
5.38
6.48
6.69
6
4.79
3.55
2.59
1.99
1.56
1.07
0.29
-0.8
-2.11
-3.41
-4.48
-5.17
-5.44
-5.45
-5.39
-5.45
-5.71
-6.09
-6.47
-6.77
-6.99
-7.18
-7.44
-7.72
-7.89
-7.81
-7.38
-6.65
-5.81
-5.02
-4.4
-3.97
-3.63
-3.32
-2.99
-2.67
-2.4
-2.23
-2.16
-2.19
-2.34
-2.62
-3.02
-3.47
-3.87
-4.12
-4.14
-3.95
-3.62
-3.24
-2.88
-2.58
-2.33
-2.14
-1.96
-1.74
-1.45
-1.06
-0.55
0.01
0.53
0.9
1.02
0.82
0.28
-0.56
-1.59
-2.66
-3.55
-4.09
-4.2
-3.9
-3.38
-2.88
-2.58
-2.55
-2.7
-2.85
-2.88
-2.72
-2.45
-2.13
-1.81
-1.48
-1.1
-0.72
-0.47
-0.54
-1.05
-1.98
-3.17
-4.33
-5.19
-5.59
-5.51
-5.07
-4.47
-3.91
-3.58
-3.53
-3.69
-3.88
-3.87
-3.46
-2.58
-1.36
-0.03
1.08
1.74
1.82
1.34
0.44
-0.66
-1.73
-2.59
-3.11
-3.24
-3.02
-2.58
-2.06
-1.58
-1.17
-0.74
-0.15
0.75
1.95
3.37
4.81
6.04
6.91
7.3
7.17
6.55
5.51
4.23
2.93
1.86
1.18
0.94
1.01
1.23
1.43
1.51
1.4
1.03
0.35
-0.62
-1.77
-2.91
-3.79
-4.24
-4.21
-3.76
-3.04
-2.2
-1.4
-0.73
-0.26
0
0.13
0.24
0.43
0.76
1.17
1.53
1.66
1.44
0.85
-0.07
-1.17
-2.29
-3.23
-3.82
-3.96
-3.67
-3.04
-2.26
-1.47
-0.81
-0.38
-0.22
-0.32
-0.62
-1
-1.32
-1.42
-1.28
-0.95
-0.61
-0.42
-0.47
-0.71
-1.01
-1.19
-1.16
-0.93
-0.62
-0.39
-0.34
-0.45
-0.62
-0.66
-0.47
-0.04
0.52
1.02
1.37
1.57
1.73
1.95
2.32
2.8
3.31
3.74
4.01
4.05
3.87
3.5
3.03
2.61
2.33
2.25
2.34
2.48
2.58
2.6
2.63
2.79
3.19
3.85
4.71
5.69
6.72
7.77
8.79
9.72
10.42
10.69
10.31
9.14
7.15
4.46
1.33
-1.89
-4.89
-7.48
-9.63
-11.44
-13.04
-14.46
-15.59
-16.23
-16.19
-15.44
-14.13
-12.61
-11.27
-10.42
-10.18
-10.33
-10.39
-9.75
-7.98
-5
-1.21
2.68
5.99
8.35
9.79
10.56
11.01
11.4
12.12
13.61
16.37
20.61
25.83
30.84
34.12
34.52
31.7
26.24
19.17
11.37
3.23
-5.2
-13.77
-22.01
-29.09
-34.36
-37.72
-39.69
-41.15
-42.92
-45.35
-48.36
-51.54
-54.2
-55.33
-53.55
-47.32
-35.55
-18.31
2.71
24.67
44.51
60.22
71.51
79.56
86.03
92.02
97.47
101.37
102.53
100.31
94.9
87.16
78.09
68.54
58.99
49.57
39.99
29.48
16.88
1.04
-18.64
-41.56
-65.94
-89.26
-109.11
-123.96
-133.59
-138.98
-141.79
-143.53
-144.89
-145.25
-142.77
-134.96
-119.69
-96.17
-65.5
-30.55
4.82
36.87
62.81
81.26
92.19
96.49
95.47
90.51
82.8
73.24
62.55
51.4
40.56
30.84
22.91
17.06
13.14
10.7
9.37
9.06
9.96
12.19
15.36
18.45
19.97
18.54
13.58
5.73
-3.26
-11.06
-15.63
-16.01
-12.56
-6.8
-0.81
3.38
4.45
1.97
-3.53
-10.82
-18.25
-24.2
-27.67
-28.55
-27.69
-26.39
-25.83
-26.53
-28.18
-29.96
-31.06
-31.07
-30.14
-28.67
-27.1
-25.63
-24.21
-22.64
-20.71
-18.39
-15.84
-13.33
-11.2
-9.62
-8.54
-7.64
-6.5
-4.87
-2.85
-0.88
0.46
0.72
-0.11
-1.63
-3.19
-4.25
-4.59
-4.41
-4.13
-4.14
-4.6
-5.36
-6.13
-6.59
-6.58
-6.12
-5.35
-4.4
-3.38
-2.39
-1.58
-1.11
-1.13
-1.59
-2.21
-2.57
-2.28
-1.21
0.44
2.12
3.22
3.29
2.25
0.37
-1.87
-3.93
-5.49
-6.38
-6.69
-6.59
-6.27
-5.85
-5.35
-4.7
-3.79
-2.5
-0.77
1.29
3.42
5.24
6.38
6.61
5.91
4.54
2.91
1.44
0.44
0.03
0.11
0.49
0.96
1.39
1.74
2.04
2.35
2.78
3.39
4.25
5.39
6.76
8.18
9.42
10.21
10.38
9.85
8.73
7.22
5.57
4.01
2.69
1.66
0.88
0.29
-0.18
-0.54
-0.77
-0.85
-0.78
-0.64
-0.48
-0.34
-0.14
0.25
0.91
1.82
2.77
3.51
3.84
3.74
3.32
2.75
2.14
1.57
1.19
1.21
1.94
3.57
6.09
9.2
12.43
15.36
17.78
19.68
21.14
22.24
23.03
23.58
24.08
24.76
25.83
27.27
28.81
30.05
30.65
30.57
30.13
29.89
30.39
31.93
34.45
37.49
40.43
42.71
44.11
44.97
46.23
49.11
54.77
63.69
75.2
87.34
97.12
101.36
97.67
85.25
65.21
40.24
13.77
-10.84
-31.02
-45.27
-53.1
-54.85
-51.41
-43.98
-33.92
-22.54
-11.02
-0.23
9.22
16.96
22.73
26.29
27.36
25.75
21.38
14.38
5.15
-5.71
-17.58
-29.94
-42.59
-55.64
-69.35
-83.96
-99.56
-116.18
-133.83
-152.52
-171.96
-191.06
-207.54
-218
-218.72
-206.97
-182.27
-146.92
-105.4
-63.05
-24.43
7.66
32.3
49.84
61.12
67.03
68.52
66.85
63.68
60.74
59.3
59.69
61.24
62.6
62.43
59.93
55.15
48.83
42.1
36.02
31.27
28.05
26.11
24.95
23.99
22.74
20.99
18.77
16.4
14.29
12.75
11.84
11.29
10.64
9.5
7.65
5.19
2.43
-0.28
-2.67
-4.59
-5.94
-6.62
-6.48
-5.35
-3.27
-0.43
2.72
5.68
8.08
9.75
10.8
11.49
12.02
12.39
12.41
11.83
10.45
8.36
5.88
3.41
1.31
-0.26
-1.33
-2.02
-2.38
-2.39
-2.01
-1.25
-0.26
0.69
1.36
1.58
1.37
0.9
0.37
-0.01
-0.09
0.15
0.69
1.39
2.09
2.65
2.93
2.91
2.64
2.25
1.9
1.74
1.83
2.1
2.41
2.57
2.48
2.16
1.76
1.45
1.32
1.34
1.39
1.37
1.29
1.28
1.46
1.86
2.33
2.69
2.82
2.75
2.69
2.85
3.26
3.78
4.08
3.91
3.19
2.13
1.09
0.38
0.15
0.27
0.48
0.53
0.27
-0.27
-0.95
-1.56
-1.92
-1.88
-1.4
-0.56
0.47
1.38
1.9
1.88
1.39
0.72
0.18
-0.05
-0.09
-0.24
-0.84
-2
-3.52
-4.97
-5.9
-6.06
-5.5
-4.58
-3.7
-3.19
-3.1
-3.25
-3.29
-2.94
-2.09
-0.93
0.2
0.94
1.1
0.75
0.18
-0.24
-0.26
0.12
0.68
1.12
1.23
1.03
0.73
0.61
0.78
1.17
1.56
1.82
1.97
2.28
3.04
4.34
5.94
7.37
8.14
8.06
7.33
6.43
5.8
5.63
5.75
5.89
5.84
5.72
5.91
6.82
8.69
11.39
14.49
17.37
19.25
19.35
17.05
12.16
5.29
-2.1
-8.06
-10.88
-9.87
-5.79
-0.43
4.35
7.56
9.53
11.57
14.97
20.09
26.1
31.45
34.82
35.85
35.33
34.64
35.09
37.38
41.51
47.05
53.27
59.01
62.62
61.99
55.43
42.51
24.79
5.56
-11.48
-23.73
-30.92
-35.03
-39.1
-45.57
-55.09
-66.42
-77.33
-85.94
-91.6
-94.96
-97.23
-99.18
-100.41
-99.3
-93.69
-81.94
-63.83
-40.79
-15.46
9.3
31.35
49.72
64.47
76.12
85.19
91.89
96.23
98.18
97.84
95.4
91.11
85.19
77.93
69.67
60.85
51.84
42.85
33.89
24.98
16.28
8.23
1.42
-3.64
-6.74
-8.01
-7.77
-6.34
-3.98
-0.85
2.91
7.12
11.64
16.49
21.93
28.34
36.1
45.36
55.85
66.81
77.03
84.92
88.62
86.37
76.88
59.76
36
8.02
-20.62
-46.01
-64.77
-74.86
-76
-69.61
-58.31
-45.39
-34.14
-27.31
-26.63
-32.4
-43.37
-57.02
-70.33
-80.8
-87.43
-90.8
-92.68
-94.91
-98.49
-103.16
-107.74
-110.87
-111.75
-110.49
-107.93
-105.13
-102.86
-101.28
-99.92
-97.93
-94.36
-88.58
-80.4
-70.1
-58.35
-46.02
-33.97
-23.06
-14.11
-7.95
-5.28
-6.39
-10.83
-17.21
-23.26
-26.34
-24.19
-15.55
-0.67
18.76
40.08
60.48
77.87
91.36
101.4
109.37
116.85
125
134.06
143.45
152.22
159.72
166.07
172.24
179.47
188.26
197.46
204.11
204.2
194.34
173.49
143.71
109.56
76.28
47.8
25.5
8.49
-5.17
-17.08
-27.83
-37.33
-45.62
-53.4
-61.85
-71.94
-83.76
-96.34
-108.21
-118.08
-125.49
-130.81
-134.88
-138.51
-142.13
-145.66
-148.66
-150.5
-150.65
-148.84
-145.12
-139.8
-133.29
-125.98
-118.26
-110.6
-103.64
-98.04
-94.27
-92.28
-91.4
-90.6
-88.8
-85.33
-80.02
-73.21
-65.43
-57.21
-49.03
-41.29
-34.43
-28.65
-23.86
-19.46
-14.51
-8.16
-0.06
9.42
19.3
28.51
36.35
42.73
48.01
52.67
56.93
60.72
63.87
66.38
68.39
70.07
71.26
71.44
69.96
66.39
60.93
54.38
47.75
41.87
37.04
32.99
29.24
25.41
21.52
17.86
14.86
12.72
11.39
10.53
9.75
8.87
7.97
7.39
7.5
8.43
10
11.75
13.21
14.1
14.45
14.61
14.92
15.58
16.47
17.25
17.59
17.34
16.7
16.05
15.81
16.17
17.05
18.14
19.12
19.78
20.15
20.41
20.83
21.65
23.07
25.11
27.76
30.88
34.31
37.89
41.5
45.05
48.43
51.43
53.62
54.22
52.18
46.33
35.66
19.62
-1.62
-27.14
-55.21
-83.49
-109.19
-129.41
-141.58
-144.08
-136.68
-120.66
-98.55
-73.53
-48.75
-26.81
-9.43
2.52
9.12
11.24
10.52
9.02
8.68
10.71
15.11
20.71
25.61
27.98
26.8
22.23
15.56
8.57
2.79
-1.13
-3.56
-5.57
-8.23
-12
-16.43
-20.39
-22.53
-21.84
-18.03
-11.59
-3.59
4.68
12.08
17.91
21.92
24.27
25.33
25.37
24.57
22.92
20.5
17.5
14.26
11.09
8.16
5.39
2.66
-0.08
-2.64
-4.63
-5.61
-5.36
-3.94
-1.71
0.81
3.09
4.77
5.66
5.75
5.19
4.15
2.86
1.57
0.52
-0.12
-0.25
0.07
0.69
1.42
2.09
2.54
2.65
2.35
1.64
0.65
-0.33
-0.89
-0.66
0.54
2.56
4.99
7.34
9.23
10.58
11.54
12.38
13.25
14.08
14.58
14.52
13.85
12.88
12.18
12.29
13.42
15.21
16.82
17.23
15.81
12.7
8.93
6.09
5.63
8.18
13.05
18.44
22.15
22.35
18.39
11
2.01
-6.17
-11.19
-11.42
-6.24
3.64
16.17
28.25
36.39
37.76
31.3
18.28
1.98
-13.64
-25.59
-33.2
-38.23
-43.72
-52.16
-63.78
-76.08
-84.85
-86.1
-77.95
-61.49
-40.22
-18.52
0.04
13.66
22.32
27.04
28.97
28.81
26.81
23.2
18.54
13.86
10.32
8.75
9.18
10.81
12.37
12.65
11.13
8.19
4.98
2.84
2.67
4.59
7.84
11.25
13.66
14.45
13.63
11.76
9.61
7.84
6.79
6.4
6.34
6.17
5.62
4.67
3.61
2.83
2.62
3.02
3.78
4.48
4.75
4.45
3.69
2.77
2.05
1.8
2.13
2.97
4.08
5.12
5.79
5.89
5.44
4.69
3.96
3.52
3.47
3.62
3.65
3.2
2.06
0.29
-1.87
-4.02
-5.8
-6.94
-7.31
-6.86
-5.64
-3.85
-1.75
0.31
2.01
3.11
3.62
3.83
4.22
5.28
7.28
10.07
13.03
15.24
15.81
14.19
10.49
5.44
0.18
-4.17
-6.87
-7.73
-7.06
-5.39
-3.25
-1.04
0.93
2.39
3.07
2.77
1.53
-0.32
-2.2
-3.55
-3.97
-3.44
-2.23
-0.75
0.66
1.8
2.64
3.22
3.55
3.71
3.74
3.75
3.82
3.98
4.16
4.25
4.12
3.77
3.3
2.9
2.71
2.74
2.88
2.89
2.62
1.99
1.07
0.02
-1.05
-2.07
-3.08
-4.11
-5.14
-6.07
-6.71
-6.92
-6.65
-6.01
-5.23
-4.52
-3.96
-3.47
-2.83
-1.81
-0.29
1.62
3.67
5.52
6.95
7.9
8.5
8.92
9.27
9.52
9.57
9.31
8.72
7.89
6.97
6.07
5.21
4.34
3.36
2.21
0.91
-0.42
-1.61
-2.5
-2.99
-3.15
-3.17
-3.28
-3.62
-4.09
-4.39
-4.17
-3.18
-1.52
0.47
2.27
3.51
4.03
3.98
3.64
3.3
3.09
3.01
2.99
2.91
2.67
2.15
1.22
-0.18
-2.02
-3.99
-5.54
-5.96
-4.76
-1.92
1.99
5.93
8.79
9.83
8.91
6.5
3.36
0.3
-2.1
-3.52
-3.84
-3.11
-1.55
0.49
2.5
4
4.67
4.45
3.51
2.18
0.78
-0.36
-1.02
-1.05
-0.49
0.43
1.39
2.03
2.14
1.74
1.1
0.5
0.2
0.22
0.44
0.68
0.79
0.8
0.83
0.98
1.31
1.74
2.14
2.41
2.58
2.75
3.04
3.51
4.1
4.62
4.86
4.73
4.23
3.51
2.75
2.12
1.68
1.42
1.24
1.05
0.79
0.5
0.3
0.37
0.84
1.7
2.8
3.82
4.48
4.61
4.31
3.87
3.65
3.93
4.72
5.81
6.86
7.57
7.8
7.59
7.06
6.3
5.34
4.15
2.74
1.22
-0.19
-1.23
-1.69
-1.49
-0.76
0.19
0.97
1.22
0.81
-0.13
-1.23
-2.04
-2.32
-2.21
-2.16
-2.81
-4.66
-7.79
-11.82
-16.01
-19.64
-22.36
-24.4
-26.42
-29.18
-33.05
-37.66
-42
-44.82
-45.29
-43.42
-40.24
-37.38
-36.54
-38.71
-43.88
-50.95
-58.09
-63.28
-64.84
-62.01
-55.07
-45.46
-35.67
-29.06
-29.16
-38.57
-57.63
-83.59
-110.98
-133.29
-145.42
-145.59
-135.89
-120.87
-105.14
-91.26
-78.93
-65.83
-49.67
-29.87
-8.31
11.4
25.69
32.69
32.84
28.29
21.58
14.47
7.72
1.89
-1.63
-0.15
9.71
30.61
63.03
104.76
151.49
198.16
240.4
275.16
300.77
316.65
323.35
322.8
318.42
314.59
315.19
322.08
333.91
346
351.43
343.27
316.67
270.42
207.51
134.68
61.09
-3.79
-52.63
-82.3
-94.82
-96.43
-95.06
-97.19
-105.68
-119.32
-134.43
-147.14
-155.1
-157.89
-156.13
-150.51
-141.38
-129.09
-114.69
-100.18
-87.99
-79.92
-76.48
-76.57
-77.83
-77.66
-74.15
-66.67
-56.12
-44.54
-34.27
-27.15
-23.73
-23.2
-23.7
-23.11
-19.9
-13.71
-5.41
3.32
10.61
15.28
17.3
17.84
18.92
22.83
31.65
46.71
68.09
94.1
121.08
143.77
156.44
154.66
137
105.82
66.63
26.21
-9.62
-37.66
-57.51
-70.52
-78.23
-81.15
-78.49
-68.72
-50.65
-24.29
8.78
45.49
81.92
113.99
138.26
152.26
154.7
145.36
124.76
93.85
53.83
6.25
-46.7
-101.97
-155.69
-203.78
-242.9
-271.17
-288.31
-294.96
-291.6
-277.82
-252.43
-214.66
-165.6
-109.12
-51.48
0.33
40.72
67.13
80.06
82
75.78
63.41
46.02
24.39
0
-24.41
-45.03
-57.87
-60.13
-51.33
-33.84
-12.38
7.34
20.38
24.03
18.57
6.77
-7.29
-19.84
-28.53
-32.77
-33.18
-30.81
-26.44
-20.56
-13.69
-6.71
-0.92
2.25
1.9
-1.91
-8.01
-14.52
-19.5
-21.6
-20.43
-16.51
-10.96
-5.04
0.21
4.19
6.77
8.21
8.95
9.49
10.13
10.95
11.78
12.41
12.69
12.64
12.45
12.31
12.33
12.4
12.26
11.68
10.63
9.35
8.23
7.61
7.55
7.81
7.89
7.38
6.14
4.38
2.61
1.32
0.77
0.9
1.32
1.57
1.33
0.58
-0.42
-1.26
-1.66
-1.58
-1.21
-0.84
-0.71
-0.84
-1.1
-1.3
-1.35
-1.3
-1.3
-1.51
-2.01
-2.71
-3.45
-3.98
-4.11
-3.75
-2.97
-1.96
-0.92
-0.03
0.58
0.87
0.79
0.33
-0.49
-1.55
-2.61
-3.45
-3.89
-3.92
-3.66
-3.3
-3.05
-3.03
-3.25
-3.66
-4.14
-4.52
-4.63
-4.36
-3.69
-2.69
-1.5
-0.26
0.89
1.81
2.36
2.4
1.88
0.88
-0.33
-1.36
-1.91
-1.91
-1.58
-1.28
-1.33
-1.83
-2.56
-3.16
-3.3
-2.84
-1.94
-0.91
-0.08
0.37
0.45
0.33
0.18
0.13
0.2
0.38
0.61
0.85
1.1
1.39
1.74
2.16
2.62
3.01
3.19
3.04
2.56
1.84
1.09
0.48
0.08
-0.17
-0.43
-0.83
-1.36
-1.91
-2.27
-2.29
-1.98
-1.47
-0.93
-0.51
-0.23
-0.01
0.24
0.53
0.81
0.94
0.79
0.3
-0.4
-1.09
-1.53
-1.62
-1.38
-0.95
-0.51
-0.14
0.15
0.44
0.77
1.1
1.36
1.43
1.3
1.02
0.75
0.61
0.66
0.88
1.12
1.29
1.35
1.37
1.49
1.78
2.26
2.79
3.17
3.23
2.91
2.32
1.63
1.03
0.65
0.51
0.59
0.8
1.08
1.35
1.51
1.45
1.12
0.57
-0.02
-0.45
-0.55
-0.3
0.19
0.71
1.12
1.37
1.56
1.83
2.21
2.63
2.89
2.8
2.36
1.7
1.09
0.71
0.59
0.59
0.52
0.25
-0.19
-0.65
-0.92
-0.89
-0.59
-0.19
0.16
0.36
0.44
0.54
0.73
1.05
1.41
1.66
1.68
1.46
1.11
0.78
0.65
0.8
1.16
1.61
2.03
2.35
2.62
2.94
3.39
4.03
4.85
5.78
6.76
7.76
8.8
9.93
11.23
12.71
14.31
15.91
17.31
18.38
19.13
19.72
20.46
21.6
23.17
24.95
26.46
27.25
27.14
26.3
25.25
24.62
24.86
26.21
28.63
31.95
35.89
39.96
43.33
44.8
43.18
37.84
29.37
19.61
11.27
6.77
7.23
11.86
18.33
23.69
25.51
22.54
14.81
3.12
-11.41
-27.53
-43.83
-58.66
-70.29
-77.4
-79.5
-77.18
-71.85
-65.18
-58.49
-52.47
-47.17
-42.38
-37.98
-34.12
-31.19
-29.63
-29.72
-31.47
-34.61
-38.66
-43.09
-47.4
-51.09
-53.71
-54.9
-54.42
-52.3
-48.84
-44.54
-39.94
-35.48
-31.4
-27.81
-24.6
-21.51
-18.04
-13.55
-7.39
0.71
10.41
20.73
30.38
38.21
43.7
47.04
48.89
49.88
50.32
50.13
49.24
47.89
46.81
46.99
49.19
53.5
59.26
65.2
69.93
72.42
72.21
69.55
65.23
60.39
56.13
53.24
51.98
52
52.59
52.91
52.38
50.81
48.34
45.24
41.76
37.93
33.63
28.63
22.73
15.87
8.31
0.53
-6.81
-13.3
-19.04
-24.74
-31.43
-39.86
-50.03
-61.05
-71.62
-80.65
-87.7
-92.9
-96.42
-97.92
-96.35
-90.48
-79.6
-64.31
-46.6
-29.33
-15.31
-6.41
-3.1
-4.5
-8.83
-14.04
-18.49
-21.29
-22.43
-22.46
-22.12
-21.89
-21.77
-21.4
-20.45
-18.83
-16.8
-14.75
-12.89
-11.04
-8.7
-5.38
-0.96
4.22
9.4
13.75
16.76
18.4
19.09
19.47
20.07
21.03
22.04
22.55
22.03
20.25
17.5
14.4
11.56
9.3
7.43
5.43
2.74
-0.77
-4.72
-8.35
-10.95
-12.19
-12.34
-12.12
-12.39
-13.76
-16.4
-20.03
-24.09
-27.95
-31.2
-33.72
-35.72
-37.62
-39.86
-42.71
-46.21
-50.25
-54.67
-59.35
-64.08
-68.37
-71.47
-72.67
-71.77
-69.4
-66.82
-65.44
-66.11
-68.74
-72.43
-76.06
-78.83
-80.54
-81.41
-81.63
-80.96
-78.61
-73.54
-64.97
-52.89
-38.21
-22.58
-7.78
4.81
14.67
21.98
27.13
30.18
30.63
27.78
21.35
11.99
1.39
-8.24
-14.98
-17.88
-17.1
-13.52
-8.11
-1.34
6.92
17.13
29.53
43.57
57.94
70.88
80.93
87.55
91.33
93.75
96.52
100.88
107.15
114.68
122.16
128.14
131.68
132.76
132.31
131.86
132.72
135.34
139.04
142.34
143.84
143.01
140.54
137.98
137.01
138.56
142.47
147.6
152.36
155.31
155.65
153.33
148.91
143.31
137.44
131.96
127.14
122.67
117.42
109.24
94.97
71.25
35.91
-10.39
-63.28
-115.39
-158.61
-187.1
-199.47
-198.95
-191.52
-183.13
-177.35
-174.82
-174.22
-173.92
-173.01
-171.23
-168.26
-163.16
-154.52
-141.46
-124.48
-105.65
-87.89
-73.68
-63.97
-57.92
-53.48
-48.39
-41.15
-31.35
-19.54
-6.62
6.54
19.38
31.57
42.93
53.32
62.65
70.97
78.44
85.26
91.51
97.01
101.34
103.91
104.27
102.33
98.48
93.69
89.18
86.06
84.96
85.82
87.87
89.82
90.21
87.62
80.98
69.8
54.24
35.23
14.43
-6.08
-24.07
-37.6
-45.4
-47.1
-43.26
-35.2
-24.71
-13.74
-4.1
2.84
6.32
6.37
3.77
-0.1
-3.61
-5.42
-4.91
-2.48
0.65
2.9
3.05
0.65
-3.94
-9.95
-16.75
-24.23
-32.87
-43.43
-56.53
-72.24
-89.84
-107.88
-124.63
-138.49
-148.58
-154.95
-158.66
-161.54
-165.58
-172.41
-182.69
-195.93
-210.51
-223.97
-233.36
-235.59
-227.98
-208.9
-178.38
-138.38
-92.61
-45.85
-2.88
32.46
57.9
72.87
78.23
75.9
68.43
58.64
49.1
41.6
36.7
33.77
31.61
29.37
27.35
27.16
31.02
40.53
55.58
74.1
92.68
107.99
118.11
123.21
125.18
126.48
128.98
133.24
138.65
144.15
149.11
153.66
158.55
164.46
171.5
179.09
186.31
192.4
197.26
201.37
205.38
209.66
214.01
217.72
219.99
220.34
218.79
215.83
212.12
207.92
202.68
194.85
182.15
162.42
134.68
99.75
60.11
18.95
-21.19
-59.11
-94.86
-128.75
-160.35
-188.08
-209.77
-223.81
-230.02
-229.75
-225.15
-218.22
-210.3
-202.26
-194.98
-189.54
-186.72
-186.09
-185.51
-181.53
-170.91
-152.38
-127.7
-101.29
-78.43
-63.02
-56.05
-55.54
-57.84
-59.53
-58.69
-55.21
-50.03
-44.2
-38.18
-31.91
-25.3
-18.63
-12.68
-8.41
-6.44
-6.65
-8.16
-9.72
-10.19
-9.05
-6.53
-3.47
-0.87
0.53
0.56
-0.44
-1.77
-2.75
-2.96
-2.37
-1.25
-0.06
0.81
1.16
0.99
0.49
-0.07
-0.44
-0.41
0.08
1
2.17
3.34
4.19
4.5
4.25
3.7
3.35
3.82
5.58
8.78
13.14
18.01
22.56
26.02
27.89
28.07
26.85
24.86
22.85
21.5
21.16
21.82
23.07
24.44
25.62
26.63
27.75
29.25
31.11
32.94
34.17
34.37
33.49
31.88
30.14
28.83
28.29
28.6
29.66
31.19
32.84
34.2
34.8
34.24
32.33
29.08
24.65
19.05
11.94
2.48
-10.43
-27.66
-49.34
-74.33
-100.39
-124.58
-144.11
-157.13
-163.14
-162.84
-157.68
-149.27
-138.86
-127.24
-114.71
-101.27
-86.89
-71.68
-56.14
-41.02
-27.08
-14.74
-3.96
5.75
14.86
23.37
30.67
35.81
37.95
37
33.67
29.25
25.09
22.07
20.42
19.81
19.71
19.68
19.57
19.51
19.69
20.21
20.96
21.66
22.05
22.03
21.69
21.25
20.82
20.35
19.62
18.37
16.54
14.38
12.29
10.74
9.97
9.9
10.16
10.29
9.85
8.67
6.79
4.54
2.39
0.85
0.26
0.77
2.23
4.22
6.21
7.69
8.33
8.13
7.34
6.33
5.46
4.96
4.91
5.36
6.32
7.81
9.8
12.14
14.6
16.94
18.97
20.66
22
22.96
23.47
23.34
22.46
20.86
18.66
16.04
13.05
9.58
5.39
0.35
-5.47
-11.74
-17.89
-23.26
-27.18
-29.13
-28.78
-26.22
-22.01
-17.21
-13.07
-10.69
-10.62
-12.68
-15.99
-19.36
-21.74
-22.51
-21.65
-19.57
-16.85
-13.98
-11.21
-8.56
-5.99
-3.53
-1.34
0.35
1.37
1.74
1.73
1.67
1.84
2.3
2.89
3.42
3.74
3.84
3.81
3.77
3.79
3.86
3.89
3.8
3.56
3.18
2.76
2.4
2.18
2.11
2.13
2.09
1.9
1.52
1.05
0.67
0.54
0.71
1.12
1.64
2.13
2.48
2.63
2.58
2.3
1.84
1.28
0.76
0.39
0.22
0.15
-0.02
-0.46
-1.23
-2.25
-3.33
-4.32
-5.14
-5.81
-6.35
-6.73
-6.78
-6.27
-5.03
-2.99
-0.25
2.96
6.39
9.8
12.99
15.83
18.16
19.81
20.55
20.16
18.53
15.69
11.93
7.72
3.56
-0.08
-2.88
-4.68
-5.43
-5.22
-4.27
-2.94
-1.63
-0.72
-0.38
-0.5
-0.83
-1.04
-0.96
-0.6
-0.13
0.26
0.37
0.12
-0.54
-1.56
-2.83
-4.14
-5.23
-5.8
-5.65
-4.74
-3.19
-1.27
0.75
2.62
4.27
5.68
6.85
7.7
8.07
7.8
6.82
5.26
3.41
1.66
0.32
-0.46
-0.72
-0.58
-0.19
0.37
1.06
1.83
2.56
3.12
3.39
3.35
3.06
2.72
2.52
2.64
3.07
3.69
4.18
4.2
3.45
1.86
-0.33
-2.66
-4.56
-5.56
-5.49
-4.45
-2.74
-0.75
1.21
2.94
4.34
5.36
6.02
6.38
6.49
6.39
6.1
5.62
4.95
4.21
3.55
3.14
3.03
3.13
3.21
3
2.38
1.38
0.17
-1.02
-2.05
-2.84
-3.32
-3.38
-2.9
-1.87
-0.53
0.55
0.67
-0.68
-3.6
-7.58
-11.77
-15.34
-17.96
-19.92
-22.12
-25.62
-31.31
-39.55
-50.1
-62.16
-74.51
-85.66
-94.04
-98.27
-97.63
-92.54
-84.59
-76.06
-68.9
-63.61
-58.76
-51.54
-39.07
-20.01
4.51
31.08
55.27
73.11
82.22
82.02
73.34
57.94
38.25
17.25
-1.65
-15.32
-21.69
-20.52
-13.55
-3.67
6.14
13.94
19.23
22.67
25.33
28.02
30.99
34.08
37.06
39.75
42
43.54
43.9
42.52
39.09
33.89
27.9
22.54
19.09
18.18
19.52
22.03
24.2
24.66
22.59
17.98
11.65
4.94
-0.76
-4.48
-5.97
-5.71
-4.63
-3.71
-3.61
-4.5
-6.12
-8.03
-9.67
-10.52
-10.06
-7.91
-4.05
1.11
6.62
11.38
14.43
15.34
14.25
11.77
8.74
6.08
4.57
4.7
6.61
9.91
13.77
17.21
19.5
20.47
20.55
20.51
20.88
21.57
21.8
20.45
16.66
10.36
2.29
-6.29
-14.2
-20.82
-26.22
-30.97
-35.66
-40.49
-45.12
-48.92
-51.26
-51.91
-51.13
-49.54
-47.84
-46.53
-45.96
-46.63
-49.37
-55.13
-64.32
-75.85
-86.7
-92.37
-88.58
-73.21
-47.57
-15.97
16.17
44.71
68.18
87.42
103.76
117.23
125.93
127.29
120.08
105.99
89.39
75.46
67.72
66.57
69.43
72.46
72.55
68.64
61.58
53.18
44.99
37.53
30.47
23.2
15.46
7.63
0.56
-4.94
-8.48
-10.25
-10.84
-10.88
-10.74
-10.5
-10.02
-9.3
-8.62
-8.5
-9.5
-11.84
-15.15
-18.45
-20.48
-20.18
-17.25
-12.39
-7.14
-3.18
-1.61
-2.35
-4.22
-5.53
-4.97
-2.19
2.15
6.89
11.1
14.47
17.27
19.95
22.76
25.65
28.51
31.41
34.64
38.35
41.99
44.24
43.44
38.54
30.01
19.96
11.45
7.22
8.49
14.49
22.94
31.23
37.52
41.24
42.84
43.04
42.25
40.38
36.87
31.44
24.44
16.93
10.34
5.74
3.26
2.03
0.59
-2.88
-9.66
-19.95
-32.7
-45.74
-56.21
-60.99
-57.32
-43.45
-19.99
9.96
41.36
68.4
85.96
90.74
81.84
60.76
30.77
-4.66
-42.69
-81.26
-119
-154.97
-188.42
-218.61
-244.71
-260.48
-260.17
-241.52
-207.4
-164.86
-121.84
-84.48
-56.55
-39.73
-34.43
-37.16
-42.92
-45.78
-40.49
-24.3
1.86
33.71
64.59
86.2
93.03
84.64
65.32
41.1
17.12
-3.34
-18.51
-27.4
-29.33
-24.36
-13.9
-0.03
14.96
29.39
43.11
57.4
74.66
97.64
128.59
165.45
204.15
238.57
262.26
270.72
263.07
242.35
214.36
185.37
159.67
138.82
121.72
106.26
91.01
75.91
61.91
50.03
40.59
32.93
26.1
19.21
11.98
4.84
-1.47
-6.46
-10.22
-13.44
-17.09
-21.83
-27.76
-34.32
-40.49
-45.28
-48.1
-49.1
-49.01
-48.78
-49.11
-50.18
-51.68
-53.03
-53.75
-53.71
-53.16
-52.57
-52.4
-52.86
-53.85
-55.12
-56.33
-57.21
-57.6
-57.5
-57.02
-56.32
-55.58
-54.94
-54.46
-54.23
-54.41
-55.2
-56.8
-59.22
-62.24
-65.41
-68.24
-70.32
-71.47
-71.63
-70.85
-69.27
-67.23
-65.4
-64.6
-65.49
-68.14
-71.86
-75.45
-77.93
-79.04
-79.48
-80.52
-83.21
-87.84
-93.77
-99.83
-104.7
-106.97
-104.97
-96.66
-80.22
-55.2
-23.42
11.23
44.55
74.31
101.64
130.46
165.08
207.29
254.95
302.84
345.09
377.77
399.91
412.63
417.28
413.95
401.49
378.55
344.96
302.3
253.33
200.87
146.59
90.75
32.77
-27.43
-88.23
-145.65
-194.06
-227.93
-243.95
-242.56
-227.93
-206.4
-184.15
-165.3
-151.16
-140.88
-132.85
-125.89
-119.7
-114.49
-110.32
-106.72
-102.82
-97.8
-91.46
-84.35
-77.41
-71.54
-67.06
-63.61
-60.42
-56.72
-52.2
-47.11
-42.1
-37.81
-34.58
-32.27
-30.47
-28.77
-26.97
-25.16
-23.62
-22.65
-22.33
-22.59
-23.16
-23.71
-23.96
-23.76
-23.16
-22.43
-22.02
-22.36
-23.67
-25.77
-28.26
-30.72
-33.09
-35.77
-39.35
-44.19
-50
-55.77
-60.13
-61.87
-60.44
-56.05
-49.49
-41.7
-33.49
-25.41
-17.92
-11.43
-6.29
-2.73
-0.64
0.38
0.99
1.89
3.58
6.26
9.72
13.44
16.77
19.19
20.42
20.58
20.03
19.2
18.45
17.87
17.41
16.87
16.17
15.29
14.36
13.54
12.93
12.56
12.38
12.35
12.43
12.61
12.93
13.37
13.88
14.3
14.45
14.16
13.41
12.31
11.1
10.01
9.19
8.6
8.08
7.38
6.35
4.95
3.31
1.61
0.04
-1.25
-2.14
-2.55
-2.47
-1.98
-1.27
-0.62
-0.26
-0.32
-0.76
-1.37
-1.9
-2.16
-2.06
-1.62
-0.94
-0.19
0.47
0.86
0.89
0.58
0.11
-0.25
-0.29
0.08
0.76
1.52
2.2
2.7
3.14
3.67
4.44
5.44
6.61
7.78
8.88
9.87
10.77
11.61
12.37
12.97
13.31
13.35
13.04
12.44
11.65
10.75
9.87
9.03
8.28
7.67
7.28
7.23
7.65
8.54
9.81
11.22
12.6
13.93
15.5
17.76
21.14
25.61
30.53
34.62
36.4
34.78
29.55
21.64
12.79
4.95
-0.45
-2.88
-2.73
-0.99
1.16
2.57
2.25
-0.47
-5.8
-13.14
-21.13
-27.93
-31.96
-32.62
-30.65
-27.76
-25.77
-25.71
-27.34
-29.32
-30.02
-28.38
-24.53
-19.75
-15.85
-14.41
-16.03
-20.07
-24.93
-28.76
-30.28
-29.18
-26.16
-22.39
-18.89
-16.1
-13.84
-11.63
-9.16
-6.51
-4.08
-2.28
-1.23
-0.6
0.19
1.68
3.99
6.73
9.1
10.23
9.66
7.52
4.61
2.07
0.92
1.67
4.12
7.52
10.89
13.41
14.7
14.91
14.46
13.89
13.57
13.66
14.06
14.57
14.91
14.82
14.08
12.64
10.61
8.4
6.51
5.4
5.25
5.91
6.95
7.94
8.66
9.16
9.61
10.08
10.41
10.32
9.57
8.18
6.46
4.89
3.82
3.37
3.35
3.43
3.33
2.92
2.3
1.64
1.16
0.96
1.03
1.28
1.58
1.83
1.96
1.95
1.78
1.43
0.91
0.27
-0.32
-0.66
-0.57
-0.03
0.9
2.03
3.14
4.07
4.77
5.24
5.57
5.81
5.97
6.05
6.02
5.84
5.56
5.23
4.94
4.78
4.79
4.96
5.23
5.53
5.85
6.21
6.63
7.13
7.68
8.23
8.71
9.12
9.52
10.01
10.67
11.51
12.47
13.41
14.17
14.68
14.96
15.23
15.75
16.78
18.43
20.59
22.92
24.94
26.26
26.68
26.32
25.58
24.94
24.79
25.27
26.26
27.49
28.69
29.74
30.74
31.91
33.49
35.55
37.8
39.38
38.91
34.87
26.08
12.52
-4.3
-21.58
-36.06
-45.25
-48.3
-46.23
-41.58
-37.57
-37.22
-42.54
-53.86
-69.59
-86.63
-101.24
-110.3
-112.41
-108.3
-100.36
-91.58
-84.39
-80.02
-78.55
-79.36
-81.66
-84.64
-87.43
-89.14
-89.03
-86.87
-83.18
-79.11
-76.21
-75.97
-79.48
-87.11
-98.14
-110.63
-121.39
-126.56
-122.6
-107.5
-81.52
-47.25
-8.61
30.51
67.49
101.29
132.09
160.22
185.52
207.02
223.48
233.89
238.02
236.42
230.22
220.64
208.78
195.37
180.85
165.48
149.55
133.58
118.29
104.49
92.7
82.91
74.56
66.83
59.2
51.72
45.15
40.54
38.64
39.56
42.62
46.72
50.86
54.55
58.02
62.13
68.21
77.84
92.52
113.13
139.39
169.26
198.98
223.86
239.69
244.11
237.41
222.16
202.04
180.27
158.6
137.16
114.91
90.6
63.43
33.53
2
-29.39
-58.54
-83.6
-103.39
-117.58
-126.67
-131.65
-133.71
-134.04
-133.8
-134.05
-135.68
-139.17
-144.42
-150.73
-157.11
-162.67
-167.09
-170.69
-174.21
-178.43
-183.76
-190.02
-196.45
-202.1
-206.26
-208.74
-210.04
-211.01
-212.38
-214.27
-216.02
-216.44
-214.25
-208.61
-199.19
-186.11
-169.81
-150.99
-130.75
-110.67
-92.42
-77.27
-65.53
-56.59
-49.56
-44.07
-40.79
-40.89
-45.02
-52.2
-59.5
-62.85
-58.44
-44.17
-20.19
11.37
47.35
84.44
119.8
151.41
178.14
199.77
216.88
230.52
241.78
251.37
259.41
265.54
269.05
269.19
265.42
257.52
245.71
230.65
213.08
193.47
171.61
146.47
116.45
80.11
36.93
-12.02
-63.84
-114.02
-157.28
-188.73
-205.2
-206.23
-194.49
-175.23
-154.87
-139.03
-130.68
-129.29
-131.24
-131.61
-126.38
-114.06
-96.19
-76.3
-58.24
-44.6
-36.01
-31.45
-29.28
-28.22
-27.74
-27.74
-27.99
-27.78
-26.02
-21.81
-15.02
-6.5
2.08
8.9
12.75
13.51
12.19
10.43
9.69
10.66
12.98
15.59
17.23
17.18
15.45
12.72
9.99
8.02
7.11
7
7.14
7.05
6.51
5.68
4.91
4.53
4.67
5.27
6.11
6.96
7.7
8.26
8.63
8.78
8.65
8.24
7.68
7.15
6.9
7.03
7.49
8.06
8.45
8.49
8.18
7.63
7.06
6.66
6.51
6.57
6.61
6.15
4.6
1.43
-3.49
-9.61
-15.75
-20.41
-22.25
-20.61
-15.6
-8.04
0.98
10.45
19.63
28.02
35.28
41.18
45.57
48.44
49.92
50.23
49.68
48.6
47.33
46.04
44.66
42.67
39.12
32.89
23.18
10.04
-5.32
-20.73
-33.83
-43.19
-48.85
-52.12
-54.53
-56.61
-57.29
-54.44
-46.36
-33.31
-18.07
-5.05
1.61
-0.1
-9.31
-22.87
-36.69
-46.74
-49.57
-42.65
-25.06
1.4
31.2
55.48
64.47
51.27
15.2
-37.03
-93.26
-140.47
-169.56
-178.26
-171.05
-156.45
-143.35
-137.94
-142.22
-154.2
-169.21
-181.73
-186.79
-180.83
-162.11
-130.72
-88.77
-40.35
8.98
53.05
86.45
106.24
112.97
110.51
104.58
100.41
100.93
106.24
114.04
121.11
124.94
124.56
120.62
114.62
108.11
102.16
97.69
95.05
93.99
93.8
93.6
92.74
91.22
89.77
89.6
92.37
98.89
108.53
119.37
128.98
135.25
137.09
134.56
125.04
107.77
83.99
56.61
28.68
1.98
-22.62
-43.75
-58.2
-62.86
-54.86
-34.23
-4.79
26.84
53.82
71.68
78.05
73.86
61.72
44.85
25.19
3.04
-22.29
-51.28
-83.35
-116.38
-146.68
-169.97
-182.2
-181.35
-168.25
-146.57
-121.51
-98.11
-79.81
-67.71
-61
-57.56
-54.85
-50.34
-41.86
-27.93
-8.33
15.52
40.85
64.34
83.52
97.77
108.4
117.86
128.33
140.72
154.23
166.99
176.85
182.14
181.76
175.08
161.75
141.83
116.04
85.98
53.98
22.46
-6.72
-32.61
-54.99
-73.77
-88.76
-99.77
-107.19
-112.39
-117.63
-125.17
-136.37
-151.13
-168.02
-184.87
-199.33
-208.78
-210.09
-199.81
-175.13
-135.67
-84.93
-30.22
19.15
55.1
73.43
74.89
64.13
47.32
29.83
14.99
4.11
-2.82
-6.42
-7.6
-7.59
-7.78
-9.57
-13.87
-20.78
-29.42
-38.14
-44.77
-47.29
-44.51
-36.63
-25.14
-12.4
-0.69
8.57
15.14
19.69
23.21
26.54
30.1
34.03
38.33
42.91
47.65
52.38
56.99
61.47
65.82
69.77
72.5
72.52
68.11
58.03
42.18
21.9
-0.51
-22.48
-42.09
-58.53
-72.04
-83.47
-93.53
-102.26
-108.83
-111.91
-110.37
-104.09
-94.19
-82.75
-71.95
-63.05
-56.17
-50.73
-46.35
-43.29
-41.96
-41.87
-40.85
-35.55
-23.11
-3.05
22.07
47.84
70.48
88.79
104.29
119.25
134.07
146.1
150.81
144.71
128.09
105.6
84.34
70.54
66.86
71.76
80.85
89.31
93.87
93.57
89.15
82.02
73.44
64.18
54.73
45.54
37.03
29.51
23.1
17.8
13.57
10.6
9.31
10.23
13.76
19.81
27.74
36.29
43.59
47.4
45.48
36.47
20.67
0.56
-19.72
-35.87
-45.17
-47.76
-46.34
-44.78
-46.19
-51.89
-61.48
-73.92
-88.34
-104.02
-119.53
-131.95
-136.89
-129.67
-107.14
-68.95
-18.07
39.9
97.9
148.7
186.14
206.19
207.95
193.89
169.28
140.77
114.58
95.12
84.43
82.37
87.25
96.31
106.2
113.48
115.28
110.13
98.39
82.17
64.53
48.36
35.36
25.75
18.54
12.21
5.53
-2.14
-10.66
-19.47
-27.88
-35.42
-42
-47.81
-53.22
-58.51
-63.87
-69.33
-74.93
-80.87
-87.47
-95.1
-104.07
-114.5
-126.29
-139.22
-152.89
-166.54
-178.99
-188.71
-194.39
-195.62
-193.42
-189.96
-187.76
-188.23
-190.85
-193.13
-191.56
-183.13
-166.51
-142.41
-113.07
-81.31
-49.72
-20.24
5.75
27.29
43.78
55.09
61.75
64.85
65.9
66.32
67.13
68.71
70.88
73.13
74.91
75.86
75.91
75.22
74
72.43
70.54
68.36
65.95
63.46
61.12
59.04
57.12
54.99
52.15
48.25
43.23
37.42
31.48
26.14
21.95
19.2
17.85
17.66
18.28
19.26
20.15
20.52
20.06
18.71
16.68
14.36
12.2
10.54
9.56
9.29
9.64
10.46
11.55
12.7
13.69
14.41
14.99
15.8
17.32
19.94
23.7
28.23
32.87
36.82
39.51
40.7
40.62
39.91
39.47
40.19
42.63
46.71
51.7
56.36
59.41
59.91
57.52
52.49
45.46
37.28
28.82
20.95
14.46
9.91
7.37
6.48
6.4
6.18
5.1
2.95
0.08
-2.83
-5.02
-5.99
-5.65
-4.4
-2.9
-1.9
-1.94
-3.1
-4.88
-6.22
-5.7
-1.95
5.69
16.56
28.43
37.83
41.04
35.43
20.57
-1.54
-27.1
-51.83
-72.23
-86.34
-93.62
-94.49
-89.75
-80.41
-67.68
-53.08
-38.23
-24.44
-12.37
-1.94
7.36
15.98
23.98
30.9
36.08
38.99
39.53
38.08
35.32
32.11
29.21
27.16
26.17
26.12
26.39
25.76
22.45
14.54
0.82
-18.18
-39.86
-60.13
-74.9
-81.82
-81.26
-75.8
-68.81
-62.68
-57.98
-53.87
-49.3
-44
-38.68
-34.41
-31.77
-30.43
-29.55
-28.41
-26.88
-25.37
-24.46
-24.41
-25.1
-26.16
-27.31
-28.49
-29.94
-31.95
-34.81
-38.57
-43
-47.63
-51.86
-55.23
-57.6
-59.36
-61.38
-64.97
-71.44
-81.49
-94.4
-107.61
-116.99
-118.06
-107.59
-85.08
-53.18
-16.78
18.7
49.06
72.33
88.64
99.41
106.43
111.28
115.13
118.89
123.11
127.99
133.34
138.72
143.62
147.56
150.14
151.09
150.36
148.21
145.16
141.58
137.2
130.73
120.05
103.07
78.84
48.27
14.02
-20.42
-51.89
-78.39
-99.08
-113.57
-121.35
-121.42
-112.95
-96.17
-73.03
-47.11
-22.77
-3.89
7.05
9.23
3.07
-10.24
-29.13
-51.59
-75.02
-96.33
-112.36
-120.68
-120.38
-112.43
-99.54
-85.4
-73.62
-66.66
-64.95
-66.58
-67.89
-64.62
-53.5
-33.46
-6.08
25.07
55.71
82.37
103.33
118.81
130.4
140.15
149.8
160.27
171.67
183.55
195.07
205
211.76
213.43
208.19
194.91
173.83
146.76
116.59
86.26
57.55
30.43
3.21
-26.45
-60.21
-98.06
-137.97
-176.3
-208.77
-231.47
-241.93
-239.64
-226.12
-204.49
-178.62
-152.45
-129.31
-111.37
-99.26
-91.97
-87.29
-82.73
-76.69
-69.13
-61.62
-56.32
-54.89
-57.44
-62.64
-68.45
-73.29
-76.62
-78.78
-80.16
-80.49
-78.7
-73.5
-64.15
-50.99
-35.38
-19.12
-3.86
9.35
20.23
28.97
35.9
41.25
45.02
47.16
47.73
47.04
45.65
44.23
43.29
42.99
42.97
42.43
40.39
36.11
29.4
20.77
11.24
1.93
-6.4
-13.57
-19.88
-25.81
-31.7
-37.65
-43.62
-49.59
-55.66
-61.93
-68.15
-73.58
-77.03
-77.15
-73.01
-64.46
-52.36
-38.4
-24.66
-13.04
-4.82
-0.38
0.74
-0.37
-2.43
-4.37
-5.51
-5.68
-5.06
-3.96
-2.64
-1.19
0.41
2.17
3.99
5.63
6.8
7.38
7.4
7.11
6.74
6.36
5.86
5.02
3.75
2.16
0.54
-0.79
-1.73
-2.5
-3.46
-4.93
-6.9
-8.93
-10.37
-10.52
-9.03
-5.95
-1.81
2.66
6.78
10.2
12.92
15.17
17.18
18.99
20.48
21.46
21.92
22.01
22.07
22.36
22.91
23.54
23.96
24.08
24.07
24.34
25.3
27.15
29.71
32.51
35.01
36.91
38.29
39.52
41.02
42.83
44.5
45.26
44.35
41.54
37.23
32.32
27.76
24.26
22.11
21.22
21.27
21.92
22.74
23.35
23.5
23.17
22.7
22.62
23.39
25.04
27.22
29.38
31.15
32.63
34.25
36.53
39.66
43.33
46.9
49.78
51.75
53.1
54.42
56.19
58.37
60.42
61.63
61.56
60.3
58.26
55.62
51.94
46.19
37.48
25.83
12.52
-0.37
-10.91
-18.4
-23.62
-28.33
-34.18
-41.84
-50.69
-59.35
-66.37
-70.95
-73.26
-74.31
-75.63
-78.63
-84.12
-91.91
-100.97
-109.82
-117.16
-122.19
-124.64
-124.35
-120.95
-113.84
-102.56
-87.35
-69.28
-50.05
-31.35
-14.29
0.82
14.22
26.3
37.19
46.73
54.6
60.53
64.52
66.81
67.85
68.08
67.79
67.04
65.68
63.61
60.83
57.55
54.05
50.47
46.76
42.74
38.35
33.77
29.42
25.7
22.71
20.14
17.42
14.01
9.64
4.4
-1.47
-7.71
-14.09
-20.29
-25.79
-29.85
-31.78
-31.33
-28.88
-25.41
-22.08
-19.85
-19.15
-19.9
-21.67
-24.02
-26.57
-28.96
-30.83
-31.74
-31.29
-29.16
-25.23
-19.56
-12.39
-4.09
4.81
13.67
21.82
28.65
33.74
36.94
38.36
38.28
37.04
34.99
32.42
29.63
26.93
24.55
22.66
21.28
20.29
19.49
18.65
17.64
16.5
15.42
14.71
14.65
15.4
16.93
18.96
21.11
22.99
24.27
24.85
24.85
24.59
24.47
24.75
25.45
26.3
26.88
26.88
26.3
25.49
25.04
25.4
26.69
28.75
31.26
33.92
36.45
38.47
39.3
38.16
34.48
28.45
20.95
13.25
6.26
-0
-6.3
-13.64
-22.38
-31.77
-40.22
-46.14
-48.79
-48.67
-47.11
-45.5
-44.48
-43.78
-42.53
-39.99
-36.05
-31.33
-26.75
-22.99
-20.02
-17.2
-13.68
-8.95
-3.15
2.94
8.37
12.45
15.05
16.6
17.71
18.89
20.34
22.04
23.92
26.03
28.49
31.32
34.37
37.2
39.39
40.79
41.72
42.86
44.79
47.61
50.64
52.75
53.01
51.32
48.58
46.22
45.34
46
47.15
47.27
45.28
41.11
35.59
29.66
23.74
17.58
10.78
3.55
-2.97
-7.2
-8.1
-6.12
-3.28
-2.26
-4.94
-11.37
-19.88
-28.34
-35.58
-42.32
-50.69
-62.8
-79.24
-98.4
-116.95
-131.27
-138.87
-139.03
-132.5
-120.67
-104.79
-85.84
-64.79
-42.98
-22.23
-4.37
9.24
18.1
22.57
23.58
22.29
19.76
16.8
13.97
11.59
9.78
8.5
7.6
6.82
5.85
4.33
2.04
-0.98
-4.21
-6.67
-7.23
-5.14
-0.46
5.85
12.31
17.58
21.13
23.3
24.97
26.91
29.33
31.84
33.86
35.04
35.55
35.91
36.67
38.15
40.3
42.97
46.09
49.83
54.45
60.03
66.21
72.15
76.8
79.23
79.07
76.47
71.96
66.01
58.79
50.17
40
28.53
16.46
4.76
-5.82
-15.09
-23.45
-31.45
-39.32
-46.66
-52.68
-56.7
-58.65
-59.23
-59.64
-61.04
-64.13
-68.98
-75.22
-82.28
-89.53
-96.19
-101.14
-102.91
-100.18
-92.36
-80.07
-65.19
-50.15
-37.02
-26.67
-18.72
-11.92
-5.1
2.27
9.84
16.83
22.62
27.08
30.63
33.86
37.12
40.38
43.31
45.48
46.73
47.29
47.68
48.43
49.7
51.02
51.26
48.92
42.8
32.48
18.77
3.45
-11.28
-23.63
-32.78
-39.03
-43.41
-47.01
-50.48
-53.71
-56.09
-56.85
-55.55
-52.27
-47.51
-42.02
-36.52
-31.52
-27.3
-23.89
-21.09
-18.43
-15.26
-10.85
-4.7
3.19
12.12
20.82
27.85
32.24
33.98
34.08
34.13
35.53
38.88
43.72
48.92
53.2
55.67
55.95
54.01
49.93
43.78
35.88
26.9
17.96
10.36
5.19
2.98
3.62
6.5
10.76
15.47
19.72
22.72
23.9
23.02
20.15
15.54
9.46
2.3
-5.29
-12.13
-16.66
-17.5
-14.18
-7.73
-0.48
4.76
5.86
2.21
-5.19
-14.34
-23.14
-30.04
-34.38
-36.17
-35.89
-34.19
-31.79
-29.44
-27.9
-27.8
-29.42
-32.49
-36.13
-38.95
-39.48
-36.76
-30.87
-23.11
-15.43
-9.6
-6.32
-4.97
-4.17
-2.7
-0.31
2.21
3.59
2.79
-0.49
-5.77
-12.1
-18.3
-23.12
-25.35
-23.89
-18.11
-8.26
4.47
18.22
31.21
42.33
51.5
59.39
66.95
74.78
82.89
90.59
96.85
100.53
100.88
97.78
91.83
84.09
75.51
66.6
57.23
47
35.82
24.37
13.95
5.93
0.86
-1.84
-3.64
-5.99
-9.42
-13.27
-16.11
-16.72
-14.93
-11.8
-9.01
-8.01
-9.29
-12.33
-16.08
-19.5
-22.06
-23.71
-24.6
-24.84
-24.4
-23.28
-21.53
-19.34
-16.86
-14.09
-10.88
-7.06
-2.6
2.43
7.99
14.09
20.72
27.62
34.04
38.89
41.07
40.03
36.07
30.28
24.01
18.31
13.56
9.54
5.82
2.08
-1.71
-5.46
-9.17
-13.03
-17.25
-21.8
-26.19
-29.58
-31.11
-30.5
-28.31
-25.88
-24.74
-26.01
-29.93
-35.97
-43.27
-51.14
-59.36
-67.96
-76.75
-85.01
-91.63
-95.64
-96.9
-96.29
-95.18
-94.73
-95.07
-95.15
-93.29
-88
-78.79
-66.39
-52.38
-38.5
-25.84
-14.56
-4.16
6.03
16.17
25.67
33.35
38.04
39.21
37.31
33.65
29.9
27.3
26.22
25.94
25.07
22.04
15.75
5.97
-6.6
-20.55
-34.23
-46.18
-55.45
-61.55
-64.37
-63.9
-60.17
-53.4
-44.13
-33.39
-22.54
-13.03
-5.95
-1.76
-0.16
-0.22
-0.79
-0.88
-0.09
1.4
2.95
3.91
4.05
3.67
3.49
4.19
5.98
8.43
10.67
11.73
11.03
8.58
4.88
0.73
-3.13
-6.18
-8.23
-9.32
-9.64
-9.45
-8.96
-8.34
-7.7
-7.08
-6.47
-5.71
-4.52
-2.52
0.58
4.74
9.25
12.88
14.16
12.08
6.63
-1.04
-8.97
-15.24
-18.8
-19.92
-19.92
-20.48
-22.77
-27.01
-32.5
-38.07
-42.68
-45.63
-46.58
-45.27
-41.52
-35.34
-27.25
-18.34
-10
-3.43
0.97
3.75
6.12
9.25
13.73
19.22
24.68
28.92
31.08
31
29.2
26.6
24.17
22.63
22.25
22.94
24.29
25.89
27.37
28.59
29.52
30.25
30.85
31.41
31.97
32.6
33.45
34.79
36.86
39.82
43.48
47.24
50.18
51.32
49.95
46.06
40.28
33.78
27.8
23.34
20.86
20.32
21.18
22.61
23.66
23.49
21.65
18.19
13.64
8.88
4.79
1.97
0.64
0.64
1.53
2.81
3.98
4.66
4.7
4.21
3.63
3.55
4.52
6.77
10.04
13.68
16.79
18.63
18.83
17.53
15.26
12.81
10.9
10
10.26
11.42
13
14.47
15.36
15.49
14.93
13.99
13.03
12.42
12.35
12.82
13.66
14.59
15.28
15.44
15
14.11
13.15
12.55
12.55
13.04
13.61
13.76
13.2
11.94
10.22
8.19
5.67
2.24
-2.49
-8.41
-14.71
-20.05
-23.03
-22.9
-19.91
-15.35
-11.07
-8.86
-9.85
-14.2
-21.1
-29.09
-36.47
-41.7
-43.65
-41.8
-36.29
-28.05
-18.66
-10.09
-4.11
-1.71
-2.7
-5.83
-9.3
-11.52
-11.62
-9.66
-6.44
-2.97
-0.15
1.61
2.42
2.82
3.59
5.42
8.64
13.14
18.5
24.26
30.09
35.7
40.62
44.1
45.21
43.31
38.61
32.23
25.95
21.49
19.74
20.52
22.75
25
26.05
25.25
22.58
18.5
13.7
8.91
4.64
1.07
-2.02
-5.13
-8.7
-12.79
-16.85
-19.73
-20
-16.56
-9.1
1.65
14.01
25.96
35.69
42.19
45.28
45.47
43.48
39.92
35.23
29.9
24.67
20.59
18.66
19.33
22.08
25.48
27.69
27.3
23.94
18.29
11.61
5.04
-0.94
-6.5
-12.04
-17.76
-23.41
-28.46
-32.44
-35.24
-37.11
-38.5
-39.83
-41.39
-43.28
-45.47
-47.77
-49.74
-50.72
-49.98
-46.94
-41.42
-33.73
-24.61
-15
-5.93
1.57
6.5
8.01
5.64
-0.45
-9.27
-19.12
-27.91
-33.74
-35.32
-32.43
-25.93
-17.4
-8.65
-1.13
4.48
8.29
10.89
12.92
14.71
16.19
17.12
17.32
16.91
16.21
15.57
15.16
14.94
14.76
14.44
13.94
13.26
12.46
11.58
10.71
10.01
9.64
9.76
10.34
11.22
12.16
13.01
13.73
14.42
15.25
16.28
17.43
18.34
18.56
17.67
15.44
12.01
7.86
3.7
0.29
-1.81
-2.41
-1.64
0.11
2.32
4.52
6.38
7.67
8.32
8.31
7.67
6.46
4.81
2.9
1.03
-0.5
-1.43
-1.7
-1.43
-0.93
-0.51
-0.39
-0.68
-1.28
-2.06
-2.84
-3.54
-4.12
-4.66
-5.25
-5.99
-6.95
-8.1
-9.38
-10.71
-11.93
-12.89
-13.38
-13.2
-12.16
-10.21
-7.47
-4.26
-1.03
1.72
3.64
4.57
4.61
4.02
3.08
2.08
1.21
0.54
0.07
-0.29
-0.62
-0.97
-1.29
-1.44
-1.26
-0.58
0.7
2.51
4.56
6.32
7.18
6.67
4.86
2.44
0.52
0.03
1.2
3.23
4.55
3.62
-0.27
-6.58
-13.76
-19.94
-23.84
-25.17
-24.61
-23.25
-22.04
-21.4
-21.21
-21.05
-20.53
-19.49
-18.08
-16.6
-15.34
-14.36
-13.45
-12.25
-10.47
-8.06
-5.24
-2.46
-0.11
1.62
2.79
3.61
4.27
4.87
5.34
5.62
5.7
5.62
5.51
5.45
5.49
5.61
5.84
6.14
6.49
6.8
6.99
7.05
7.08
7.27
7.72
8.37
8.94
9.07
8.54
7.46
6.19
5.15
4.57
4.31
4.01
3.3
2.11
0.65
-0.68
-1.64
-2.23
-2.69
-3.31
-4.16
-5.06
-5.7
-5.83
-5.49
-4.95
-4.56
-4.52
-4.8
-5.16
-5.35
-5.25
-4.96
-4.68
-4.59
-4.76
-5.11
-5.51
-5.8
-5.89
-5.74
-5.39
-4.92
-4.45
-4.07
-3.86
-3.85
-3.96
-4.1
-4.2
-4.2
-4.07
-3.83
-3.52
-3.18
-2.88
-2.66
-2.54
-2.47
-2.37
-2.17
-1.91
-1.66
-1.52
-1.55
-1.68
-1.77
-1.72
-1.52
-1.24
-1.05
-1.07
-1.33
-1.72
-2.13
-2.44
-2.61
-2.65
-2.56
-2.31
-1.92
-1.44
-0.98
-0.67
-0.58
-0.67
-0.81
-0.86
-0.72
-0.44
-0.17
-0.03
-0.1
-0.3
-0.46
-0.37
0.06
0.79
1.61
2.28
2.64
2.69
2.61
2.69
3.1
3.87
4.86
5.81
6.58
7.15
7.68
8.39
9.38
10.56
11.69
12.51
12.89
12.92
12.87
13.05
13.66
14.73
16.09
17.6
19.19
20.95
23.02
25.47
28.21
30.97
33.48
35.48
36.89
37.76
38.21
38.3
37.88
36.58
34.02
30.19
25.73
21.79
19.46
18.95
19.1
17.72
12.72
3.38
-9.04
-21.92
-32.6
-39.76
-43.72
-45.58
-45.98
-44.4
-39.39
-29.83
-15.96
0.43
16.83
31.29
43.28
53.52
63.14
72.63
81.46
88.4
92.3
92.75
90.24
85.84
80.59
74.98
68.91
61.9
53.52
43.7
32.83
21.54
10.44
-0.08
-9.84
-18.73
-26.63
-33.36
-38.89
-43.47
-47.73
-52.58
-58.86
-66.94
-76.49
-86.61
-96.19
-104.48
-111.34
-117.28
-123.06
-129.21
-135.74
-142.15
-147.65
-151.65
-154
-155.1
-155.65
-156.37
-157.68
-159.45
-161.02
-161.29
-159.05
-153.33
-143.75
-130.69
-115.12
-98.33
-81.45
-65.15
-49.55
-34.45
-19.61
-5.03
8.97
21.86
33.15
42.57
50.2
56.37
61.48
65.89
69.72
72.91
75.33
76.87
77.6
77.77
77.82
78.22
79.3
81.11
83.42
85.78
87.78
89.21
90.19
91.2
92.84
95.7
100.13
106.11
113.21
120.7
127.71
133.51
137.73
140.6
142.92
145.91
150.9
158.83
169.75
182.34
193.85
200.46
198.36
184.99
160.21
126.61
88.84
52.25
21.25
-1.76
-16.63
-25.01
-29.43
-32.46
-36.18
-41.91
-50.21
-61.01
-73.95
-88.63
-104.93
-122.92
-142.52
-163.13
-183.49
-201.86
-216.59
-226.5
-231.14
-230.58
-225.12
-215
-200.46
-181.9
-160.03
-135.97
-110.91
-85.88
-61.47
-37.99
-15.83
4.17
20.69
32.41
38.54
39.41
36.47
31.76
27.2
23.97
22.32
21.92
22.35
23.39
25.1
27.51
30.43
33.41
35.89
37.52
38.34
38.85
39.67
41.33
43.74
46
46.61
43.97
37.2
26.72
14.23
2.21
-7.07
-12.4
-13.98
-13.11
-11.45
-10.33
-10.29
-11.16
-12.28
-12.88
-12.24
-9.91
-5.77
-0.16
6.06
11.7
15.53
16.71
15.03
10.97
5.49
-0.27
-5.22
-8.49
-9.52
-8.09
-4.48
0.47
5.47
9.07
10.08
7.93
2.87
-4.14
-11.72
-18.5
-23.4
-25.9
-26.11
-24.55
-22.01
-19.22
-16.63
-14.41
-12.48
-10.68
-8.96
-7.33
-5.88
-4.62
-3.39
-1.95
-0.09
2.1
4.27
5.83
6.3
5.46
3.51
0.89
-1.91
-4.58
-7.08
-9.5
-11.92
-14.3
-16.49
-18.38
-20.06
-21.76
-23.83
-26.47
-29.61
-32.88
-35.7
-37.44
-37.63
-36.07
-32.85
-28.31
-22.87
-16.9
-10.73
-4.57
1.43
7.17
12.6
17.72
22.53
27.03
31.18
34.79
37.6
39.24
39.37
37.84
34.76
30.62
26.21
22.48
20.17
19.58
20.44
22.04
23.56
24.54
25.03
25.7
27.57
31.56
38.18
47.3
58.14
69.49
80
88.46
94.03
96.34
95.42
91.66
85.66
78.18
69.95
61.62
53.57
45.86
38.29
30.43
21.92
12.55
2.4
-8.13
-18.42
-27.69
-35.19
-40.34
-42.94
-43.25
-42.01
-40.25
-39.07
-39.32
-41.49
-45.6
-51.31
-58.11
-65.5
-73.1
-80.61
-87.82
-94.43
-100.03
-104.15
-106.33
-106.26
-103.86
-99.32
-93.11
-85.89
-78.22
-70.43
-62.53
-54.28
-45.41
-35.89
-26.05
-16.57
-8.17
-1.35
3.78
7.54
10.47
13.04
15.51
17.82
19.69
20.73
20.64
19.32
16.92
13.74
10.18
6.53
2.98
-0.36
-3.29
-5.55
-6.79
-6.88
-6.03
-4.85
-4.15
-4.6
-6.46
-9.41
-12.76
-15.71
-17.63
-18.2
-17.42
-15.34
-11.93
-6.94
0.04
9.37
21.05
34.52
48.67
62.08
73.45
82.05
87.87
91.58
94.15
96.46
98.95
101.54
103.63
104.39
103.01
98.9
91.91
82.25
70.43
57.11
43.04
28.94
15.57
3.59
-6.5
-14.38
-19.94
-23.03
-23.36
-20.4
-13.77
-3.72
8.38
19.98
27.99
29.71
23.75
10.39
-8.67
-30.99
-54.16
-76.31
-96.2
-113.03
-126.11
-134.65
-137.92
-135.6
-128.28
-117.46
-105.25
-93.51
-83.03
-73.21
-62.37
-48.79
-31.64
-11.68
8.99
27.8
42.72
52.87
58.66
61.28
62.24
62.95
64.45
67.38
71.81
77.26
82.67
86.63
87.85
85.56
79.88
71.81
62.91
54.85
48.72
44.63
41.76
38.63
33.92
27.08
18.62
9.94
2.68
-1.89
-3.36
-2.12
0.82
4.17
6.63
7.08
4.83
-0.14
-6.94
-13.87
-19
-20.96
-19.5
-15.47
-10.01
-3.77
3.57
12.91
24.71
38.13
51.01
60.81
66.07
67.19
66.26
65.77
67.2
70.42
74.04
76.57
77.53
77.69
78.62
81.71
87.49
95.44
104.25
112.39
118.46
121.31
119.88
112.97
99.2
77.38
47.14
9.74
-31.5
-71.66
-105.49
-129.06
-141.11
-143.29
-139.27
-133.04
-127.48
-123.72
-121.56
-120.48
-120.58
-122.84
-128.67
-139.03
-153.53
-170.26
-186.17
-198.14
-204.17
-204.06
-199.49
-193.37
-188.92
-188.74
-194.2
-205.05
-219.36
-233.66
-243.69
-245.51
-237.02
-219
-195.21
-171.14
-151.87
-140.09
-135.15
-133.59
-130.66
-122.04
-104.83
-77.89
-41.47
3.23
54.14
108.5
163.02
214.5
260.43
299.32
330.45
353.29
367.05
370.69
363.51
345.8
319.03
285.57
247.83
207.47
165.04
120.58
74.58
28.93
-12.92
-46.86
-69.6
-80.02
-79.73
-72.46
-62.51
-53.13
-45.63
-39.68
-34.57
-30.61
-29.61
-33.87
-44.53
-60.05
-76.16
-87.35
-89.31
-80.94
-64.79
-45.86
-29.18
-17.79
-11.89
-9.52
-8.03
-5.27
-0.25
7.12
16.6
27.98
41.09
55.51
70.35
84.38
96.49
106.02
113.07
118.29
122.41
125.67
127.59
127.04
122.76
114.07
101.35
86.25
71.36
59.56
53.23
53.54
59.95
70.12
80.58
87.83
90
87.8
84.35
83.79
89.21
101.1
117.22
133.55
145.47
149.85
146.13
136.16
123.07
110.05
99.63
93.65
93.58
99.37
110.12
124.03
138.22
148.69
150.98
141.61
119.64
87.32
47.57
4.11
-39.69
-81.39
-119.94
-155.48
-188.91
-220.9
-251.6
-282.99
-316.54
-352.17
-387.74
-419.94
-445.91
-464.8
-477.14
-470.03
-434.85
-370.49
-285.54
-193.43
-105.6
-28.56
34.35
82.35
116.45
136.85
145.03
143.71
136.62
127.42
117.73
106.37
91.57
71.84
44.65
8.57
-35.53
-83.67
-129.25
-158.28
-162.21
-139.35
-95.55
-42.98
5.54
41.19
61.64
70.11
72
70.7
67.55
62.49
54.96
45.64
36.5
29.87
27.18
28.11
30.25
31.26
29.93
26.51
22.48
19.64
19.16
21.13
24.13
24.96
21.63
13.8
2.86
-8.69
-18.23
-24.03
-25.36
-23.16
-19.45
-15.86
-12.67
-8.79
-2.54
7.4
21.16
37.99
55.55
70.7
81.09
86.28
87.56
87.39
88.87
95.12
109.07
130.72
156.46
179.58
192.7
190.02
169.6
134.67
87.73
38.74
-1.96
-28.13
-43.33
-55.39
-72.41
-98.86
-134.39
-173.43
-206.09
-222.72
-216.79
-186.57
-134.85
-68.67
2.51
68.39
119.73
150.4
157.19
140.71
105.44
59.04
9.73
-36.36
-77.13
-114.54
-152.66
-195.55
-244.58
-296.64
-344.27
-378.42
-391.83
-381.91
-351.41
-306.65
-255.1
-202.96
-154.3
-111.58
-76.8
-51.73
-36.88
-30.09
-26.2
-18.62
-2.19
24.35
57.9
92.51
122.31
144.03
157.93
166.66
173.05
178.45
182.37
183.49
180.99
175.32
167.92
160.31
153.25
146.64
139.94
132.75
124.91
116.14
105.8
93.08
77.6
59.93
41.59
24.38
9.57
-2.45
-11.68
-17.74
-19.62
-16.4
-8.42
2.05
11.5
16.93
17.77
16.53
17.62
24.96
39.8
59.97
80.85
97.35
105.85
105.16
96.55
83.18
69.14
58.37
53.72
56.02
63.94
74.35
83.27
86.7
81.3
64.96
37.17
-0.5
-44.3
-88.93
-128.98
-160.49
-181.92
-193.93
-198.08
-195.65
-187.18
-173.17
-154.83
-134.36
-114.28
-96.15
-79.71
-63.1
-43.85
-20.38
6.96
35.73
61.92
80.99
89.14
84.6
68.52
45.18
20.95
2.31
-6.42
-4.57
4.98
17.39
28.05
34.22
35.34
32.27
26.23
18.24
9.34
1.18
-3.61
-2.09
7.9
26.48
51.33
78.37
103.36
123.42
137.89
148.15
156.41
164.08
170.77
174.37
172.28
163.3
148.95
133.44
122.17
119.17
125.14
136.86
148.46
153.8
148.79
132.47
106.78
75.28
41.59
8.44
-22.5
-50.06
-72.99
-89.86
-99.7
-102.77
-101.08
-98.35
-99.19
-107.99
-127.64
-158.53
-197.96
-240.4
-278.55
-305
-314.16
-303.72
-275.11
-232.89
-183.24
-132.42
-85.53
-45.66
-13.45
13.09
38.18
66.48
100.8
139.94
178.22
207.35
219.78
211.92
185.7
147.54
105.47
66
32.22
3.55
-23.11
-51.48
-84.14
-121.18
-159.54
-193.64
-217.02
-224.3
-213
-183.88
-139.66
-83.28
-17.02
56.84
134.2
207.8
267.86
304.83
313.03
292.85
250.49
195.31
136.48
80.77
32.01
-8.11
-38.81
-59.98
-72.48
-78.48
-80.72
-81.14
-79.63
-73.85
-60.76
-38.96
-10.21
20.46
46.55
63.1
68.67
65.64
58.44
51.15
45.83
42.71
41.66
43.56
50.29
63.12
80.83
99.19
112.3
115.32
106.87
89.59
68.5
48.43
31.95
19.13
8.67
-0.68
-9.21
-16.56
-22.7
-28.62
-36.19
-47.24
-62.37
-80.33
-98.45
-113.86
-124.81
-131.37
-134.98
-137.28
-138.87
-138.95
-136.06
-129.39
-119.76
-109.47
-101.16
-96.3
-94.62
-94.69
-95.42
-97.04
-101.18
-109.71
-123.29
-140.57
-158.42
-173.14
-181.87
-183.49
-178.79
-169.95
-159.74
-150.69
-144.38
-140.89
-138.59
-134.48
-124.79
-105.96
-75.66
-33.84
16.65
69.98
118.27
153.7
170.94
169.15
152.34
127.96
104.2
87.28
79.77
80.39
85.13
88.87
86.77
75.43
53.69
23.22
-11.3
-42.79
-63.49
-67.25
-51.65
-19.13
23.47
66.86
102.3
124.26
131.89
128.72
120.59
112.78
107.91
105.57
103.72
100.87
97.63
96.41
99.5
106.86
115.32
119.96
116.97
106.19
91.49
78.57
71.39
69.81
69.71
65.78
55.04
38.96
22.47
10.96
6.79
7.92
9.13
5.19
-6.18
-23.34
-42.13
-58.38
-69.78
-76.27
-79.02
-78.97
-76.32
-71.19
-64.53
-58.55
-55.91
-58.27
-65.06
-73.61
-80.53
-83.54
-82.57
-79.56
-77.16
-77.11
-79.5
-83.13
-86.65
-89.5
-92.14
-95.38
-99.43
-103.62
-107.23
-110.76
-116.6
-128.12
-147.21
-171.9
-195.77
-210.41
-209.63
-193.14
-166.96
-140.36
-120.68
-109.38
-101.82
-90.48
-69.52
-37.83
1.23
42.55
82.21
118.63
151.44
179.75
201.23
212.88
212.9
202.04
183.32
160.43
136.15
111.81
88.03
66
48.02
36.65
33.02
35.8
41.56
46.74
49.72
51.77
56.02
65.11
79.24
95.69
110.2
119.18
121.46
118.51
113.25
108.47
105.66
104.65
104
101.82
96.59
87.73
76
63.43
52.67
45.95
44.01
45.56
47.63
46.81
40.78
29.23
13.86
-2.59
-17.79
-30.82
-42.22
-53.01
-63.33
-71.61
-74.84
-69.98
-55.98
-35.12
-12.75
4.47
10.97
4.28
-14.4
-40.9
-69.56
-94.84
-112.3
-119.27
-114.9
-100.29
-78.28
-53.01
-28.9
-9.33
4.34
13.14
19.7
26.68
35.19
44.06
50.37
51.1
44.83
32.53
17.16
2.04
-10.6
-20.31
-27.85
-33.99
-38.73
-41.4
-41.5
-39.67
-37.7
-37.81
-41.27
-47.39
-53.71
-57.08
-55.2
-47.53
-35.42
-21.26
-7.39
4.71
14.51
21.99
27.07
29.45
28.9
25.75
21.29
17.48
16.1
17.71
20.85
22.25
17.9
4.88
-17.02
-44.48
-71.38
-90.85
-97.82
-91.06
-73.48
-50.67
-28.37
-9.99
4.38
16.97
30.23
44.83
58.98
69.6
74.36
73.4
69.56
66.89
68.31
73.75
80.04
82.5
77.51
64.67
47.29
31.07
21.65
21.94
30.7
42.84
51.38
50.08
35.86
10.12
-21.49
-50.74
-69.38
-71.87
-57.43
-30.71
-0.47
23.03
31.35
20.55
-7.86
-47.86
-91.18
-130.11
-159.42
-177.13
-184.15
-183.21
-177.7
-170.61
-163.66
-157.1
-150.04
-140.89
-128.01
-110.06
-86.38
-57.19
-23.88
10.87
43.47
70.4
89.36
100.13
104.47
104.95
103.04
97.82
86.22
64.83
32.57
-7.37
-47.71
-79.24
-93.98
-87.78
-61.41
-19.87
29.49
79.2
123.07
156.84
178.28
186.78
182.9
168.05
144.3
114.19
80.62
46.73
15.66
-9.76
-27.36
-35.83
-35.09
-26.56
-13.48
-0.65
6.45
3.57
-10.18
-31.41
-53.39
-68.81
-72.99
-65.44
-49.16
-28.14
-5
19.73
46.64
75.59
104.64
130.55
150.17
162.05
166.82
166.2
161.69
153.61
141.01
122.37
96.55
63.47
24.38
-18.11
-60.61
-99.85
-133.68
-161.62
-184.45
-203.12
-217.33
-225.26
-224.33
-212.76
-191.24
-163.34
-134.53
-110.24
-94.12
-87.43
-89.38
-98
-110.7
-124.23
-134.75
-138.18
-131.02
-111.75
-81.51
-43.77
-3.25
35.77
70.76
101.33
128.69
154.66
180.74
207.65
235.26
262.52
287.14
305.51
313.25
306.22
281.99
241.07
187.33
127.4
69.15
19.95
-14.96
-33.29
-35.72
-25.25
-6.18
17
40.49
61.77
79.7
94.04
104.95
112.44
116.23
115.93
111.58
104.01
94.89
86.28
79.69
75.16
71.18
65.51
56.74
45.51
34.47
26.84
24.37
26.14
28.95
29.14
24.72
16.41
6.97
-0.74
-5.66
-9.17
-14.14
-23.1
-36.54
-52.44
-67.04
-76.61
-78.83
-73.65
-63.18
-50.96
-41.02
-36.78
-40.13
-50.9
-66.87
-84.58
-100.67
-113.18
-122.19
-129.27
-136.14
-143.44
-150.26
-154.74
-155.25
-151.3
-143.67
-133.74
-122.76
-111.49
-100.3
-89.41
-78.87
-68.34
-56.95
-43.66
-27.78
-9.44
10.25
29.47
46.11
58.16
64.16
63.71
57.81
48.62
38.68
30.02
23.69
20.18
20.25
25.5
37.74
57.5
82.41
107.04
124.55
129.61
120.74
100.72
74.75
47.82
22.76
0.11
-20.54
-39.12
-54.53
-65.4
-71.29
-73.39
-74.09
-75.87
-80.02
-86.03
-91.92
-95.31
-94.48
-89.22
-80.96
-72.18
-65.49
-62.55
-63.44
-66.74
-70.26
-72.13
-71.66
-69.55
-67.47
-67.22
-70
-76.11
-85.19
-96.55
-109.22
-121.78
-132.18
-137.86
-136.38
-126.15
-106.92
-79.86
-47.2
-11.74
23.63
56.31
84.34
106.72
123.41
135.09
142.59
146.32
146.2
142
134.09
123.8
113.26
104.6
99.07
96.83
97.32
100.07
105
112.11
120.78
129.26
135.07
136
131.14
121.28
108.43
94.8
82
70.79
61.34
53.47
46.63
39.81
31.7
21.42
9.47
-1.79
-8.76
-8.25
0.75
16.06
32.8
45.14
48.43
40.6
22.43
-3.15
-32.24
-60.97
-86.07
-105.24
-117.22
-121.94
-120.33
-113.99
-104.82
-94.64
-84.94
-76.72
-70.4
-65.74
-61.87
-57.5
-51.45
-43.12
-32.8
-21.77
-11.88
-4.96
-2.18
-3.59
-8.06
-13.53
-17.45
-17.47
-12.04
-0.9
14.72
32.45
49.4
63.12
72.22
76.53
76.92
74.8
71.71
69.22
68.82
71.71
78.33
87.82
97.77
104.66
105.06
97.11
81.43
60.98
39.93
21.96
9.11
1.39
-2.61
-4.59
-5.74
-6.42
-6.63
-6.56
-7.12
-9.84
-16.36
-27.55
-43.04
-61.01
-78.82
-93.91
-104.78
-111.53
-115.62
-118.94
-122.81
-127.28
-131.19
-132.98
-131.69
-127.59
-122.07
-116.79
-112.77
-109.82
-106.79
-102.38
-95.83
-87.22
-77.16
-66.17
-54.46
-42.01
-29.16
-16.97
-7.09
-1.1
0.29
-2.31
-7.14
-12.09
-15.53
-16.89
-16.61
-15.65
-14.83
-14.25
-13.37
-11.28
-7.3
-1.42
5.67
12.93
19.36
24.47
28.38
31.53
34.53
37.89
42.04
47.35
54.12
62.55
72.58
83.78
95.43
106.73
116.95
125.71
132.94
138.6
142.28
142.85
138.65
128.13
110.71
87.36
60.53
33.54
9.56
-8.95
-20.5
-24.4
-20.7
-10.44
3.81
18.01
27.47
28.31
18.98
0.77
-22.81
-47.65
-70.51
-89.84
-105.27
-116.83
-124.12
-126.29
-122.79
-114.23
-102.56
-90.55
-80.7
-74.3
-71.24
-70.45
-70.65
-70.85
-70.34
-68.37
-64.05
-56.73
-46.68
-35.46
-25.58
-19.13
-16.55
-16.11
-14.6
-9.07
1.61
16.29
32.53
48.27
63.17
78.53
96.02
116.08
137.1
155.98
169.46
175.3
172.57
161.25
141.68
114.54
81.43
45.36
10.55
-18.64
-39.31
-50.97
-55.57
-56.31
-56.13
-56.74
-58.59
-61.41
-65.03
-69.68
-75.68
-82.9
-90.3
-96.19
-98.94
-97.94
-94.08
-89.31
-85.51
-83.17
-80.77
-75.19
-63.09
-42.52
-14.01
19.56
53.94
85.16
110.81
130.39
144.83
155.42
162.94
167.44
168.6
166.38
161.45
155.25
149.63
146.14
145.43
146.77
147.97
145.85
137.15
119.87
94.28
63.27
31.68
4.63
-14.3
-24.33
-27.33
-26.63
-25.37
-25.36
-27.19
-30.89
-36.8
-45.77
-58.47
-74.68
-92.94
-111.14
-127.51
-141.33
-152.65
-161.38
-166.41
-165.5
-156.43
-138.46
-113.14
-83.83
-54.34
-27.52
-4.73
13.73
27.75
36.93
40.9
40.11
36.39
32.75
32.28
36.88
46.43
58.8
70.57
78.16
78.79
71.16
55.76
34.67
11.1
-11.49
-30.41
-44.52
-54.35
-61.57
-67.94
-74.28
-80.2
-84.68
-87.03
-87.46
-86.83
-85.65
-83.24
-77.68
-66.78
-49.57
-27.31
-3.34
18.16
33.7
41.57
41.86
35.86
25.37
12.45
-0.61
-11.27
-17.08
-16.44
-9.33
2.62
16.73
30.26
41.35
49.59
55.7
60.82
65.89
71.31
77.26
84.13
92.77
104.18
118.72
135.23
150.56
160.27
159.93
146.78
120.69
83.89
39.62
-9.42
-61.87
-117.21
-174.32
-230.26
-280.15
-318.29
-340.14
-343.93
-331.32
-306.77
-275.87
-243.61
-213.08
-185.08
-158.47
-131.29
-101.83
-69.48
-34.87
0.51
34.92
66.9
95.23
118.72
136.02
145.94
148.16
143.74
135.05
124.92
115.37
107.09
99.44
91.48
82.79
73.84
65.64
59.03
54.31
51.47
50.65
52.36
57.31
65.73
76.55
87.17
93.99
93.67
84.38
66.56
42.63
16.16
-9.29
-30.95
-47.12
-57.04
-60.74
-58.88
-52.82
-44.56
-36.41
-30.4
-27.63
-27.73
-29.24
-30.29
-29.57
-26.91
-23.08
-19.31
-16.53
-14.95
-14.12
-13.23
-11.5
-8.38
-3.77
1.91
7.62
11.81
13
10.59
5.65
1.06
0.56
6.98
20.62
38.67
56.19
68.19
71.65
66.44
54.8
39.99
24.9
11.61
1.51
-4.28
-4.98
-0.66
7.21
15.74
21.55
22.08
16.62
6.54
-5.5
-16.7
-25.18
-30.33
-32.61
-32.98
-32.36
-31.26
-29.81
-27.94
-25.64
-23.15
-20.86
-18.98
-17.16
-14.38
-9.23
-0.62
11.71
27.08
44.06
60.94
75.91
87.06
92.34
89.8
78.23
57.73
30.1
-1.53
-33.38
-62
-84.98
-101.27
-111.1
-115.64
-116.47
-115.02
-112.13
-107.91
-102.08
-94.62
-86.26
-78.38
-72.23
-67.99
-64.34
-58.85
-49.27
-34.83
-16.73
2.46
20.09
34.68
46.33
56.16
65.18
73.45
79.99
83.45
83.03
78.85
71.85
63.18
53.89
45.04
37.86
33.66
33.32
36.51
41.46
45.49
46.18
42.62
35.74
27.72
20.78
16.07
13.33
11.44
9.35
6.75
4.17
2.47
2.26
3.46
5.52
7.76
9.92
12.29
15.62
20.54
27.16
34.81
42.14
47.73
50.55
50.47
48.23
45.13
42.37
40.58
39.49
38.13
35.38
30.53
23.76
16.04
8.62
2.38
-2.55
-6.65
-10.53
-14.45
-18.04
-20.46
-20.86
-18.79
-14.41
-8.48
-2.09
3.6
7.7
9.81
10.09
9.13
7.76
6.65
6.06
5.75
5.09
3.33
0.03
-4.69
-10.05
-14.84
-17.83
-18.35
-16.54
-13.38
-10.21
-8.2
-7.91
-9.14
-11.16
-13.17
-14.54
-14.89
-14.07
-12.04
-8.94
-5.1
-1.13
2.21
4.17
4.35
2.84
0.29
-2.34
-4.11
-4.49
-3.58
-2.08
-1.03
-1.42
-3.74
-7.81
-12.77
-17.28
-19.97
-19.86
-16.79
-11.63
-6.06
-1.96
-0.74
-2.83
-7.58
-13.68
-19.69
-24.51
-27.54
-28.58
-27.62
-24.72
-20.07
-14.07
-7.54
-1.53
2.91
5.1
5.08
3.64
2.07
1.69
3.25
6.56
10.58
13.93
15.56
15.21
13.5
11.5
10.18
9.95
10.57
11.38
11.69
11.14
9.84
8.26
6.96
6.38
6.64
7.59
8.91
10.24
11.19
11.26
9.9
6.63
1.37
-5.26
-11.97
-17.2
-19.62
-18.82
-15.46
-11.04
-7.28
-5.54
-6.38
-9.64
-14.58
-20.28
-25.86
-30.64
-34.06
-35.75
-35.47
-33.19
-29.17
-24.09
-18.86
-14.5
-11.71
-10.66
-10.93
-11.73
-12.27
-12.08
-11.09
-9.6
-7.99
-6.57
-5.47
-4.71
-4.24
-3.97
-3.8
-3.56
-3.11
-2.42
-1.53
-0.61
0.07
0.2
-0.54
-2.35
-4.97
-7.55
-8.73
-7.11
-2
6.13
15.8
25.15
32.79
38.28
41.9
44.01
44.5
42.76
38.26
31.31
23.21
15.88
10.81
8.37
7.73
7.48
6.54
4.68
2.46
0.67
-0.18
-0.12
0.36
0.69
0.49
-0.33
-1.73
-3.7
-6.28
-9.42
-12.88
-16.11
-18.34
-18.79
-17.01
-13.07
-7.67
-1.94
2.95
6.27
7.96
8.54
8.71
8.89
8.99
8.53
7.08
4.56
1.4
-1.59
-3.61
-4.23
-3.59
-2.27
-1.04
-0.51
-0.78
-1.47
-1.8
-1.05
1.02
3.91
6.49
7.3
5.11
-0.64
-9.54
-20.18
-30.4
-37.88
-40.83
-38.74
-32.64
-24.79
-17.79
-13.42
-12.01
-12.55
-13.5
-13.74
-13.19
-12.73
-13.55
-16.49
-21.68
-28.55
-36.17
-43.5
-49.66
-54.04
-56.46
-57.15
-56.74
-55.97
-55.31
-54.8
-54.1
-52.9
-51.28
-49.86
-49.6
-51.37
-55.41
-61.29
-67.99
-74.37
-79.69
-83.78
-87.03
-90.11
-93.78
-98.68
-105.31
-113.9
-124.13
-134.58
-142.53
-144.17
-135.74
-115.25
-83.83
-45.96
-7.98
24.53
49.3
68.31
86.41
108.49
136.55
168.67
200.24
226.71
245.97
259.19
269.53
279.79
290.54
299.88
304.57
302.04
291.63
274.8
254.04
231.67
208.91
185.96
162.64
139.21
116.8
97.14
81.86
71.69
66.01
63.04
60.58
56.92
51.45
44.72
37.96
32.29
28.11
24.9
21.44
16.46
9.12
-0.56
-11.86
-23.64
-34.85
-44.89
-53.73
-61.7
-69.21
-76.43
-83.26
-89.39
-94.57
-98.88
-102.8
-107.14
-112.96
-121.27
-132.84
-147.88
-165.56
-183.79
-199.26
-208.02
-206.66
-193.75
-170.69
-141.45
-111.12
-83.91
-61.88
-44.89
-31.79
-21.95
-15.88
-14.69
-18.7
-26.37
-34.36
-38.83
-37.33
-29.94
-19.15
-8.51
-0.9
2.64
2.91
1.79
1.17
2.29
5.46
10.21
15.76
21.34
26.41
30.62
33.76
35.54
35.66
33.82
30.15
25.36
20.83
18.17
18.62
22.42
28.6
35.36
40.87
44.04
44.86
44.13
42.88
41.7
40.59
39.12
36.88
33.79
30.12
26.31
22.65
19.18
15.72
11.96
7.75
3.13
-1.62
-6.18
-10.22
-13.56
-16.09
-17.8
-18.65
-18.61
-17.7
-16.05
-13.93
-11.73
-9.78
-8.29
-7.25
-6.47
-5.63
-4.4
-2.46
0.41
4.31
9.13
14.57
20.16
25.34
29.69
33.15
36.13
39.45
43.87
49.55
55.49
59.62
59.32
52.44
38.19
17.6
-6.81
-31.85
-54.65
-73.27
-86.97
-96.06
-101.69
-105.64
-110.07
-117.07
-128.06
-143.2
-161.28
-180.02
-196.87
-209.73
-217.41
-219.48
-215.91
-206.65
-191.62
-170.95
-145.39
-116.61
-86.99
-59.2
-35.55
-17.44
-5.13
2.15
5.8
7.27
7.69
7.62
7.23
6.58
5.95
5.8
6.44
7.53
7.73
4.97
-2.87
-16.77
-35.91
-57.55
-78.05
-94.34
-105.03
-110.66
-112.83
-112.76
-110.23
-103.6
-90.77
-70.64
-43.89
-12.83
19.88
52.57
85.2
118.6
152.95
186.36
214.55
232.28
235.63
223.98
200.61
171.42
142.63
118.45
100.06
86
73.83
61.64
48.88
36.18
24.51
14.43
5.8
-1.89
-9.04
-15.57
-20.74
-23.56
-23.23
-19.5
-12.81
-4.07
5.74
16.05
26.8
38.3
50.7
63.56
75.61
85.07
90.26
90.34
85.81
78.41
70.53
64.27
60.77
59.95
60.83
62.22
63.31
64
64.75
66.16
68.43
71.24
73.82
75.34
75.31
73.7
70.92
67.5
63.88
60.31
56.89
53.64
50.57
47.74
45.13
42.78
40.78
39.29
38.53
38.54
39.14
39.95
40.64
41.26
42.3
44.57
48.72
54.87
62.41
70.07
76.06
78.46
75.53
66.2
50.74
31.23
11.43
-4.1
-11.54
-9.34
1.14
16.02
30.35
39.76
41.49
34.55
19.28
-3.2
-31.06
-61.66
-91.4
-116.28
-132.83
-139.17
-135.58
-124.23
-108.22
-90.47
-73.1
-57.28
-43.56
-32.16
-23.09
-16.05
-10.4
-5.32
-0.04
5.95
12.89
20.79
29.61
39.2
49.37
59.96
70.97
82.79
95.96
110.7
126.21
140.28
149.57
150.69
141.6
122.64
96.61
67.83
40.59
17.81
0.58
-11.43
-18.95
-22.28
-21.07
-14.72
-3.18
12.41
29.61
45.03
55.04
56.68
48.44
30.7
5.56
-23.81
-54.33
-84.2
-113.36
-143.34
-176.61
-215.54
-261.39
-313.29
-367.4
-416.82
-452.84
-467.63
-457.76
-426.58
-383.79
-341.98
-311.32
-295.38
-290.23
-287.46
-279
-261.15
-235.48
-206.54
-178.37
-152.04
-125.87
-97.5
-66.38
-34.65
-6.34
15.09
28.88
37.57
46.04
59.43
81.14
111.81
149.43
190.16
229.6
263.68
289.27
304.62
309.39
304.55
291.9
273.47
250.9
225.42
197.98
169.71
142.26
117.55
97.17
81.84
71.23
64.38
60.23
57.96
56.99
56.87
56.95
56.2
53.01
44.96
28.74
0.88
-40.91
-95.63
-157.72
-217.34
-262.89
-284.89
-279.56
-250.3
-206.18
-158.26
-115.51
-82.32
-58.57
-41.39
-27.77
-16.14
-6.43
0.98
6.51
11.84
19.32
30.81
46.64
65.41
84.76
102.59
117.86
130.63
141.36
149.88
154.95
154.77
148.13
135.65
120.16
105.76
96.13
92.8
94.52
97.94
99.3
96.12
88.05
76.61
64.27
53.38
45.51
41.13
39.28
37.25
30.7
15.04
-12.26
-49.32
-88.95
-120.26
-132.54
-119.43
-81.47
-25.5
38.28
100.17
153.59
195.8
226.85
248.12
261.24
267.79
269.16
266.45
260.08
249.7
234.51
213.96
188.38
159.15
128.46
98.7
71.89
49.28
31.16
16.83
4.76
-6.94
-19.71
-34.06
-49.39
-64.46
-78.27
-90.78
-103.11
-117.18
-134.85
-157.11
-183.29
-210.66
-234.36
-248.27
-246.72
-226.69
-189.6
-141.54
-91.54
-48.35
-17.4
0.72
9.3
13.07
15.56
18.07
20.33
22.15
24.62
29.92
39.99
54.99
72.61
88.76
99.32
101.95
96.8
86
72.11
56.52
38.88
17.76
-7.9
-37.48
-68.4
-96.89
-119.54
-134.6
-142.54
-145.79
-147.88
-152.51
-162.5
-178.77
-199.5
-220.01
-233.74
-234.2
-217.21
-182.22
-132.42
-73.39
-11.49
47.63
99.74
142.19
173.8
194.68
205.73
208.09
202.74
190.57
172.88
151.83
130.28
110.7
93.78
77.88
59.87
37
8.84
-22.22
-52.29
-78.13
-98.99
-116.67
-134.09
-153.32
-174.32
-195.27
-213.81
-228.4
-238.71
-245.13
-247.69
-245.33
-236.12
-218.21
-191.21
-156.79
-118.54
-80.73
-46.89
-18.63
4.57
24.68
43.9
63.35
82.52
99.42
111.73
118.02
118.58
115.43
111.37
108.9
109.41
112.91
118.33
124.15
128.86
130.96
128.99
121.55
107.78
88
64.08
39.21
16.87
-0.38
-11.69
-17.81
-20.16
-19.6
-15.76
-7.12
7.88
29.48
55.54
81.42
100.93
108.24
100.13
77.51
45.41
11.26
-18.09
-38.97
-51.94
-60.61
-69
-78.82
-88.44
-93.99
-91.5
-79.03
-57.23
-28.8
2.64
33.19
59.25
77.36
84.3
77.88
57.78
25.85
-14.33
-58.65
-103.27
-144.61
-179.81
-207.26
-227.04
-240.77
-250.65
-258.24
-263.62
-265.29
-260.4
-247.07
-226.46
-202.71
-180.95
-164.06
-150.95
-137.19
-117.21
-85.43
-38.12
25.52
103.18
189.77
277.95
358.75
422.77
455.69
447.28
398.73
324.74
246.71
181.3
134.89
105.22
86.4
73.14
63.06
55.09
46.97
35.23
16.62
-8.83
-36.6
-59.19
-69.21
-62.26
-37.23
-1.86
31.96
54.04
60.33
53.48
40.02
26.48
17.24
13.79
14.97
18.54
21.77
22.05
17.34
6.72
-8.95
-26.91
-43.75
-56.06
-61.29
-58.49
-48.31
-32.59
-13.89
4.9
21.22
33.32
40.53
43.46
43.61
42.51
41.12
39.62
37.54
34.36
29.73
23.33
14.62
2.64
-13.82
-35.73
-62.27
-91.77
-122.09
-151.43
-178.99
-204.86
-229.21
-251.42
-269.61
-281.08
-283.6
-276.23
-259.62
-235.54
-206.07
-172.91
-137.24
-99.94
-61.78
-23.59
14.11
51.47
89.38
129.07
171.28
215.43
259.16
298.57
329.21
347.5
351.96
343.74
326.18
303.68
280.21
258.41
239.34
223.05
209.36
198.32
190.11
184.41
179.83
173.79
163.19
145.51
119.88
87.72
52.2
16.98
-15.34
-44.01
-69.99
-94.78
-119
-141.69
-160.51
-172.93
-177.38
-174.06
-164.72
-151.83
-137.64
-123.71
-110.96
-100.18
-92.27
-88.18
-88.49
-92.96
-100.4
-108.91
-116.53
-121.91
-124.75
-125.79
-126.27
-127.51
-130.45
-135.37
-141.82
-148.75
-154.91
-159.07
-160.57
-159
-154.87
-149.6
-145.32
-144.27
-147.89
-155.91
-165.98
-174.19
-175.68
-167.53
-150.06
-126.78
-102.5
-80.79
-62.23
-44.62
-24.62
1.35
34.32
72.74
113.95
156.11
199.3
244.71
292.67
340.97
386.55
424.93
452.03
465.68
466.23
456.14
438.77
417.07
382.35
330.14
261.55
184.24
108.93
44.14
-6.66
-44.27
-71.45
-91.07
-103.57
-109.25
-109.1
-105.25
-100.41
-96.79
-95.28
-95.51
-96.44
-95.81
-92.43
-86.5
-79.6
-73.71
-70.33
-70.23
-73.74
-81.54
-92.96
-105.91
-116.42
-119.72
-112.43
-94.75
-70.84
-47.14
-29.27
-18.51
-11.88
-4.25
8.32
26.08
45.67
62.01
71.05
71.2
64.34
54.39
45.26
39.2
36.48
36.81
40.28
48.96
65.23
90.91
124.65
160.03
186.78
194.97
180.32
146.91
105.37
65.9
34.68
11.89
-6.92
-27.27
-52.15
-80.63
-109.97
-138.71
-170.29
-208.98
-255.75
-305.84
-349.8
-376.94
-379.93
-358.09
-306.12
-231.86
-152.1
-83.65
-34.65
