-1.94
2.36
5.06
6.57
7.48
8.16
8.58
8.43
7.4
5.49
3.13
1
-0.35
-0.68
-0.23
0.45
0.78
0.39
-0.74
-2.36
-4.07
-5.57
-6.74
-7.73
-8.85
-10.44
-12.81
-16.02
-19.97
-24.29
-28.4
-31.57
-33.05
-32.24
-28.96
-23.55
-16.85
-9.95
-3.87
0.78
3.97
6
7.29
8.06
8.27
7.77
6.54
4.79
2.98
1.56
0.74
0.38
0.11
-0.49
-1.58
-3.06
-4.59
-5.8
-6.5
-6.77
-6.94
-7.41
-8.54
-10.48
-13.18
-16.4
-19.68
-22.41
-23.96
-23.75
-21.49
-17.33
-11.87
-5.98
-0.54
3.84
7
9.08
10.39
11.1
11.22
10.64
9.31
7.45
5.45
3.81
2.86
2.69
3.06
3.54
3.64
3.04
1.67
-0.21
-2.19
-3.85
-5.02
-5.89
-6.92
-8.68
-11.5
-15.29
-19.47
-23.14
-25.41
-25.68
-23.87
-20.41
-16.03
-11.54
-7.55
-4.34
-1.91
-0.05
1.45
2.72
3.71
4.3
4.32
3.67
2.41
0.8
-0.81
-2.1
-2.99
-3.68
-4.54
-5.96
-8.05
-10.55
-12.91
-14.58
-15.25
-15.04
-14.44
-14.14
-14.65
-16.09
-18.03
-19.56
-19.61
-17.3
-12.38
-5.36
2.6
10.15
16.2
20.26
22.43
23.18
22.94
21.98
20.43
18.36
16.02
13.78
12
10.8
10.04
9.35
8.36
6.87
4.94
2.81
0.77
-0.97
-2.37
-3.56
-4.86
-6.72
-9.56
-13.64
-18.84
-24.48
-29.44
-32.42
-32.48
-29.35
-23.66
-16.67
-9.8
-4.13
-0.11
2.49
4.23
5.62
6.87
7.84
8.2
7.72
6.47
4.84
3.27
2.06
1.18
0.35
-0.79
-2.4
-4.37
-6.4
-8.26
-9.93
-11.68
-13.88
-16.86
-20.68
-25
-29.16
-32.26
-33.43
-32.06
-28.14
-22.22
-15.35
-8.69
-3.1
1.03
3.86
5.79
7.17
8.15
8.65
8.55
7.8
6.5
4.93
3.3
1.81
0.48
-0.73
-1.95
-3.26
-4.67
-6.17
-7.79
-9.64
-11.98
-15.13
-19.35
-24.61
-30.54
-36.32
-40.84
-42.97
-41.92
-37.6
-30.62
-22.18
-13.62
-5.97
0.33
5.37
9.5
12.92
15.55
17.12
17.5
16.92
16
15.41
15.5
16.11
16.57
16.2
14.57
11.89
8.77
5.96
3.92
2.6
1.45
-0.33
-3.42
-8.15
-14.3
-21.09
-27.33
-31.72
-33.14
-31.03
-25.54
-17.55
-8.36
0.73
8.79
15.39
20.5
24.27
26.81
28.12
28.29
27.57
26.43
25.38
24.72
24.34
23.81
22.58
20.29
16.96
12.99
8.91
5.15
1.83
-1.26
-4.6
-8.71
-14.06
-20.76
-28.39
-35.9
-41.73
-44.23
-42.32
-35.95
-26.18
-14.86
-3.82
5.66
13.17
18.91
23.29
26.43
28.19
28.38
27.14
25.1
23.19
22.2
22.4
23.43
24.47
24.77
23.92
22.06
19.72
17.43
15.47
13.68
11.61
8.73
4.58
-0.99
-7.74
-14.94
-21.36
-25.55
-26.2
-22.71
-15.48
-5.8
4.61
14.27
22.41
29.07
34.66
39.52
43.49
46.09
46.84
45.71
43.31
40.63
38.6
37.62
37.45
37.41
36.79
35.27
32.98
30.46
28.2
26.4
24.82
22.9
20.03
15.75
9.89
2.62
-5.61
-14.02
-21.51
-26.83
-28.85
-26.97
-21.42
-13.22
-3.86
5.2
12.96
19.05
23.56
26.71
28.57
29.01
27.94
25.52
22.31
19.07
16.54
14.95
14.03
13.03
11.18
8.09
3.97
-0.46
-4.3
-6.93
-8.32
-8.96
-9.59
-10.88
-13.11
-16.07
-19.1
-21.29
-21.61
-19.28
-13.94
-5.85
4.15
14.8
24.81
33.2
39.45
43.48
45.45
45.57
44.02
40.99
36.83
32.04
27.23
22.85
19.11
15.87
12.76
9.41
5.64
1.52
-2.65
-6.59
-10.17
-13.45
-16.65
-20.05
-23.85
-28.05
-32.4
-36.31
-38.89
-39.14
-36.26
-30
-20.82
-9.85
1.52
12.13
21.33
28.92
34.94
39.29
41.75
42.13
40.6
37.85
34.87
32.53
31.21
30.69
30.31
29.39
27.57
24.94
21.83
18.64
15.55
12.49
9.2
5.36
0.65
-5.06
-11.57
-18.18
-23.82
-27.24
-27.51
-24.44
-18.75
-11.79
-5
0.65
4.9
8.1
10.72
12.99
14.7
15.41
14.83
13.04
10.58
8.18
6.36
5.24
4.52
3.71
2.39
0.46
-1.81
-4.06
-6.03
-7.73
-9.45
-11.64
-14.65
-18.62
-23.37
-28.31
-32.53
-34.97
-34.78
-31.57
-25.71
-18.2
-10.41
-3.49
2.01
6.19
9.53
12.46
14.96
16.63
16.96
15.73
13.21
10.07
7.09
4.71
2.95
1.44
-0.31
-2.6
-5.38
-8.31
-11
-13.17
-14.88
-16.49
-18.55
-21.55
-25.7
-30.86
-36.5
-41.83
-45.96
-48.12
-47.85
-45.14
-40.42
-34.45
-28.12
-22.18
-17.03
-12.65
-8.76
-5.03
-1.43
1.8
4.21
5.52
5.85
5.73
5.97
7.27
9.91
13.69
18.03
22.33
26.2
29.62
32.77
35.82
38.76
41.32
43.08
43.62
42.67
40.2
36.46
32.06
27.91
25.08
24.48
26.47
30.7
36.09
41.31
45.3
47.62
48.56
48.69
48.5
47.94
46.51
43.64
39.14
33.44
27.49
22.29
18.47
15.97
14.19
12.33
9.76
6.43
2.76
-0.64
-3.3
-5.2
-6.78
-8.71
-11.56
-15.59
-20.65
-26.3
-31.99
-37.11
-41.05
-43.23
-43.19
-40.8
-36.44
-30.95
-25.39
-20.65
-17.07
-14.47
-12.39
-10.47
-8.75
-7.62
-7.52
-8.49
-10.04
-11.35
-11.68
-10.81
-9.19
-7.72
-7.25
-8.2
-10.23
-12.56
-14.3
-14.94
-14.59
-13.88
-13.68
-14.63
-16.95
-20.36
-24.19
-27.48
-29.17
-28.36
-24.53
-17.82
-9.04
0.5
9.45
16.85
22.46
26.66
30.09
33.2
35.99
38.1
39.06
38.8
37.75
36.79
36.85
38.4
41.32
44.85
48
50.03
50.7
50.41
49.83
49.55
49.73
50.01
49.68
48.06
44.72
39.58
32.87
24.88
16.02
6.78
-2.19
-10.17
-16.53
-21.05
-24.03
-26.13
-28.16
-30.58
-33.44
-36.41
-39.13
-41.48
-43.65
-45.98
-48.6
-51.29
-53.46
-54.56
-54.34
-53.06
-51.39
-49.99
-49.23
-48.95
-48.64
-47.74
-46.03
-43.78
-41.64
-40.37
-40.54
-42.35
-45.53
-49.42
-53
-55.15
-54.88
-51.67
-45.79
-38.15
-30.12
-22.92
-17.25
-13.13
-10.16
-7.92
-6.32
-5.64
-6.24
-8.16
-10.98
-13.87
-16.01
-16.99
-17.02
-16.82
-17.29
-18.98
-21.94
-25.68
-29.45
-32.6
-34.87
-36.42
-37.66
-39.13
-41.24
-44.23
-48.1
-52.54
-56.94
-60.27
-61.43
-59.6
-54.58
-47.05
-38.31
-29.82
-22.58
-16.86
-12.24
-8.04
-3.81
0.46
4.37
7.47
9.53
10.71
11.48
12.36
13.75
15.86
18.74
22.41
26.99
32.61
39.31
46.86
54.65
61.68
66.84
69.17
68.15
63.84
56.79
47.82
37.91
28.06
19.33
12.66
8.75
7.76
9.23
12.14
15.31
17.89
19.64
20.91
22.31
24.18
26.38
28.3
29.21
28.61
26.56
23.55
20.34
17.57
15.55
14.17
13.08
11.94
10.57
9.05
7.61
6.47
5.69
5.05
4.14
2.51
-0.11
-3.72
-8.09
-12.79
-17.29
-21.03
-23.37
-23.75
-21.81
-17.55
-11.51
-4.54
2.38
8.56
13.76
18.11
21.9
25.26
27.96
29.55
29.6
28
25.06
21.46
17.93
15.02
12.86
11.12
9.18
6.42
2.53
-2.32
-7.55
-12.45
-16.54
-19.8
-22.62
-25.62
-29.31
-33.94
-39.4
-45.28
-50.89
-55.34
-57.71
-57.29
-53.89
-48
-40.7
-33.23
-26.55
-20.94
-16.13
-11.69
-7.37
-3.5
-0.74
0.31
-0.52
-2.74
-5.42
-7.62
-8.73
-8.74
-8.09
-7.41
-7.2
-7.6
-8.38
-9.15
-9.58
-9.63
-9.58
-9.92
-11.2
-13.75
-17.59
-22.36
-27.39
-31.73
-34.33
-34.32
-31.23
-25.26
-17.26
-8.45
-0.02
7.35
13.61
19.2
24.63
30.1
35.27
39.52
42.25
43.14
42.38
40.52
38.27
36.19
34.62
33.5
32.56
31.41
29.76
27.48
24.64
21.4
17.98
14.52
11.02
7.36
3.38
-1.08
-6.15
-11.79
-17.75
-23.5
-28.22
-31.02
-31.2
-28.57
-23.5
-16.85
-9.64
-2.74
3.35
8.54
13
16.97
20.56
23.71
26.21
27.73
27.99
26.85
24.45
21.18
17.61
14.22
11.29
8.77
6.42
3.93
1.19
-1.72
-4.56
-7.16
-9.43
-11.53
-13.69
-16.08
-18.73
-21.57
-24.5
-27.46
-30.38
-33.04
-34.91
-35.2
-33.08
-28.17
-20.75
-11.83
-2.75
5.32
11.89
17.15
21.71
26.14
30.58
34.68
37.87
39.69
40.04
39.17
37.55
35.61
33.62
31.65
29.71
27.77
25.83
23.85
21.77
19.46
16.81
13.82
10.6
7.39
4.41
1.82
-0.39
-2.44
-4.69
-7.49
-11.12
-15.47
-19.99
-23.64
-25.23
-23.81
-19.17
-11.96
-3.6
4.32
10.62
14.94
17.71
19.82
22.08
24.82
27.8
30.38
31.91
31.9
30.3
27.37
23.66
19.81
16.44
13.96
12.43
11.62
11.04
10.23
8.88
6.99
4.78
2.56
0.5
-1.41
-3.33
-5.49
-8.11
-11.35
-15.23
-19.56
-23.87
-27.3
-28.88
-27.78
-23.75
-17.34
-9.69
-2.21
4.05
8.66
11.85
14.23
16.31
18.23
19.76
20.44
19.96
18.37
16.08
13.73
11.93
11
10.85
11.07
11.11
10.57
9.3
7.49
5.48
3.58
1.91
0.36
-1.29
-3.27
-5.68
-8.46
-11.5
-14.74
-18.08
-21.3
-23.93
-25.23
-24.5
-21.33
-15.91
-9.09
-2.09
3.97
8.49
11.52
13.63
15.48
17.37
19.15
20.28
20.21
18.72
16.15
13.21
10.7
9.12
8.43
8.15
7.6
6.31
4.22
1.67
-0.84
-2.91
-4.45
-5.63
-6.8
-8.27
-10.19
-12.6
-15.49
-18.79
-22.27
-25.42
-27.46
-27.51
-25.05
-20.19
-13.75
-6.94
-0.86
3.94
7.49
10.27
12.7
14.88
16.55
17.29
16.86
15.39
13.32
11.28
9.81
9.14
9.18
9.52
9.61
8.97
7.43
5.19
2.72
0.58
-0.94
-1.9
-2.72
-3.97
-6.05
-9.07
-12.83
-16.93
-20.91
-24.26
-26.4
-26.72
-24.74
-20.39
-14.17
-7.11
-0.46
4.79
8.3
10.41
11.87
13.31
14.94
16.44
17.19
16.76
15.16
12.94
10.9
9.71
9.52
9.96
10.28
9.77
8.15
5.64
2.84
0.3
-1.7
-3.32
-4.95
-7.04
-9.83
-13.37
-17.5
-22.02
-26.55
-30.56
-33.29
-33.93
-31.94
-27.33
-20.79
-13.44
-6.53
-0.96
2.95
5.43
6.97
8
8.62
8.66
7.89
6.25
4.04
1.84
0.3
-0.25
0.12
0.9
1.44
1.26
0.3
-1.07
-2.35
-3.18
-3.51
-3.68
-4.19
-5.47
-7.71
-10.86
-14.69
-18.78
-22.54
-25.23
-26.02
-24.32
-20.04
-13.77
-6.68
0.03
5.45
9.37
12.09
14.07
15.58
16.51
16.57
15.57
13.65
11.28
9.05
7.39
6.39
5.82
5.25
4.36
3.02
1.4
-0.19
-1.41
-2.16
-2.65
-3.25
-4.36
-6.25
-8.94
-12.24
-15.86
-19.37
-22.19
-23.6
-22.89
-19.7
-14.27
-7.53
-0.74
5.01
9.21
12.09
14.23
16.16
17.89
19
19
17.78
15.79
13.96
13.15
13.7
15.23
16.87
17.72
17.35
15.96
14.3
13.18
13.06
13.76
14.65
14.93
14.07
12
9.14
6.15
3.75
2.59
3.15
5.78
10.54
17.19
25.15
33.63
41.81
49.11
55.29
60.46
64.88
68.76
72.03
74.37
75.35
74.8
72.98
70.6
68.44
66.8
65.08
62.05
56.49
48.24
38.59
30.05
25.28
25.7
30.7
37.63
42.82
42.92
36.2
23.04
5.77
-12.16
-27.2
-36.58
-38.8
-33.88
-23.21
-9.07
5.98
19.65
30.47
37.95
42.24
43.74
42.53
38.05
29.3
15.18
-5.21
-32.53
-67.17
-108.75
-155.22
-202.05
-242.28
-268.13
-273.7
-257.63
-224.2
-182.12
-141.38
-109.79
-90.83
-83.54
-84.16
-88.28
-92.12
-92.99
-88.87
-78.28
-60.55
-36.4
-8.23
20.35
45.48
64.4
76.19
81.78
83.18
82.45
80.87
78.75
75.83
71.72
66.5
60.64
54.83
49.59
44.98
40.69
36.22
31.22
25.62
19.71
13.85
8.32
3.17
-1.82
-7.04
-12.95
-19.84
-27.75
-36.26
-44.53
-51.39
-55.76
-57.01
-55.24
-51.29
-46.4
-41.8
-38.2
-35.78
-34.21
-32.96
-31.67
-30.19
-28.7
-27.52
-26.93
-27.07
-27.84
-28.92
-29.91
-30.45
-30.43
-29.98
-29.44
-29.23
-29.63
-30.8
-32.69
-35.14
-37.98
-41.04
-44.14
-46.94
-48.91
-49.29
-47.22
-42.13
-33.99
-23.48
-11.87
-0.57
9.31
17.3
23.56
28.64
32.99
36.77
39.7
41.37
41.51
40.17
37.8
34.98
32.15
29.39
26.45
23
18.83
14.11
9.31
4.96
1.32
-1.79
-4.97
-8.97
-14.35
-21.26
-29.33
-37.73
-45.37
-50.98
-53.51
-52.37
-47.65
-40.09
-30.91
-21.33
-12.2
-3.84
3.88
11.19
18.11
24.26
29.01
31.83
32.52
31.36
28.99
26.16
23.41
20.97
18.73
16.43
13.82
10.84
7.63
4.38
1.22
-1.97
-5.55
-10.01
-15.79
-23.04
-31.34
-39.64
-46.45
-50.23
-49.93
-45.45
-37.64
-27.95
-17.82
-8.11
1.01
9.88
18.83
27.77
36.15
43.08
47.83
50.09
50.12
48.6
46.27
43.71
41.14
38.49
35.5
31.98
27.94
23.6
19.34
15.45
12.01
8.8
5.36
1.14
-4.33
-11.3
-19.57
-28.49
-36.94
-43.56
-47.1
-46.8
-42.64
-35.4
-26.32
-16.65
-7.2
1.82
10.71
19.82
29.13
38.11
45.86
51.43
54.32
54.61
52.98
50.4
47.63
45.07
42.62
39.89
36.55
32.61
28.41
24.47
21.17
18.47
15.91
12.83
8.63
3.04
-3.9
-11.91
-20.58
-29.29
-37.14
-42.93
-45.41
-43.76
-37.95
-28.88
-18.04
-7
3.16
12.12
20.13
27.62
34.81
41.53
47.19
51.16
52.99
52.66
50.55
47.34
43.72
40.16
36.75
33.28
29.43
25.08
20.41
15.85
11.84
8.58
5.84
3.16
-0.03
-4.14
-9.3
-15.39
-22.09
-28.84
-34.76
-38.74
-39.62
-36.63
-29.78
-19.97
-8.72
2.39
12.28
20.67
27.92
34.56
40.82
46.43
50.73
53.05
53.12
51.21
48.1
44.7
41.71
39.41
37.51
35.52
32.99
29.84
26.38
23.13
20.44
18.28
16.19
13.5
9.68
4.54
-1.75
-8.76
-15.97
-22.79
-28.5
-32.22
-33.11
-30.7
-25.15
-17.36
-8.64
-0.24
7.12
13.34
18.76
23.75
28.28
31.95
34.15
34.52
33.21
30.88
28.46
26.66
25.72
25.28
24.63
23.09
20.39
16.77
12.86
9.33
6.56
4.44
2.44
-0.09
-3.68
-8.55
-14.57
-21.31
-28.13
-34.14
-38.35
-39.82
-38.01
-33.02
-25.68
-17.31
-9.19
-2.24
3.36
7.91
11.87
15.46
18.55
20.72
21.64
21.32
20.18
18.82
17.76
17.18
16.83
16.19
14.81
12.54
9.61
6.56
3.91
1.98
0.66
-0.56
-2.31
-5.1
-9.13
-14.25
-19.93
-25.45
-29.95
-32.56
-32.64
-29.93
-24.75
-17.9
-10.53
-3.65
2.16
6.81
10.6
13.79
16.38
18.1
18.59
17.81
16.13
14.26
12.87
12.27
12.25
12.21
11.52
9.87
7.41
4.68
2.32
0.68
-0.24
-0.85
-1.66
-3.13
-5.47
-8.67
-12.58
-16.87
-21.1
-24.54
-26.4
-25.95
-22.88
-17.54
-10.84
-3.98
2.01
6.6
9.81
11.95
13.34
14.1
14.12
13.34
11.84
9.97
8.16
6.74
5.66
4.66
3.37
1.57
-0.63
-2.89
-4.76
-6.04
-6.8
-7.44
-8.48
-10.4
-13.42
-17.48
-22.26
-27.15
-31.34
-33.92
-34.13
-31.6
-26.59
-19.98
-13.01
-6.82
-2.13
1
2.93
4.09
4.72
4.74
3.92
2.19
-0.14
-2.48
-4.18
-4.93
-4.89
-4.67
-4.97
-6.21
-8.31
-10.77
-12.93
-14.38
-15.14
-15.63
-16.4
-17.85
-20.05
-22.76
-25.52
-27.79
-29.03
-28.77
-26.73
-22.87
-17.54
-11.42
-5.34
0
4.24
7.41
9.82
11.78
13.43
14.62
15.1
14.72
13.63
12.24
11.08
10.55
10.6
10.85
10.71
9.74
7.94
5.77
3.87
2.7
2.26
2.09
1.51
-0.05
-2.76
-6.29
-9.98
-12.98
-14.55
-14.23
-12.01
-8.23
-3.57
1.24
5.63
9.31
12.28
14.64
16.44
17.61
18.03
17.6
16.42
14.76
12.95
11.24
9.79
8.52
7.28
5.91
4.35
2.7
1.21
0.18
-0.26
-0.27
-0.35
-1.14
-3.17
-6.64
-11.25
-16.27
-20.74
-23.74
-24.58
-22.99
-19.2
-13.91
-8.1
-2.69
1.67
4.82
6.98
8.5
9.58
10.14
9.97
8.9
7.04
4.85
2.89
1.62
1.12
1.15
1.26
1.06
0.36
-0.8
-2.25
-3.88
-5.71
-7.88
-10.58
-13.89
-17.76
-21.97
-26.1
-29.6
-31.87
-32.38
-30.88
-27.55
-22.98
-18.01
-13.47
-9.89
-7.34
-5.59
-4.28
-3.16
-2.21
-1.53
-1.24
-1.35
-1.76
-2.35
-2.99
-3.67
-4.43
-5.29
-6.24
-7.14
-7.86
-8.34
-8.63
-8.92
-9.48
-10.56
-12.3
-14.66
-17.36
-19.87
-21.44
-21.34
-19.1
-14.83
-9.2
-3.28
1.96
5.99
8.91
11.18
13.28
15.25
16.75
17.23
16.39
14.36
11.69
8.99
6.68
4.86
3.38
2.07
0.88
-0.16
-0.93
-1.38
-1.56
-1.64
-1.86
-2.49
-3.78
-5.85
-8.6
-11.62
-14.12
-15.1
-13.7
-9.51
-2.82
5.42
13.96
21.79
28.41
33.95
38.87
43.66
48.46
53.01
56.88
59.67
61.33
62.1
62.34
62.33
62.08
61.38
60
57.78
54.73
50.97
46.61
41.7
36.23
30.32
24.29
18.62
13.71
9.71
6.45
3.61
1.09
-0.72
-1.06
0.86
5.36
11.97
19.55
26.71
32.29
35.72
36.96
36.17
33.45
28.85
22.51
15.02
7.43
1.01
-3.27
-5.16
-5.27
-4.78
-4.93
-6.46
-9.38
-13.05
-16.66
-19.58
-21.7
-23.46
-25.57
-28.78
-33.58
-40.03
-47.71
-55.75
-62.96
-68.03
-69.86
-67.9
-62.44
-54.47
-45.44
-36.68
-29.04
-22.66
-17.19
-12.17
-7.41
-3.12
0.2
2.01
2.07
0.54
-2
-4.84
-7.33
-9.11
-10.22
-11
-11.84
-12.97
-14.35
-15.69
-16.69
-17.25
-17.52
-17.83
-18.62
-20.14
-22.45
-25.24
-27.91
-29.69
-29.86
-28.01
-24.24
-19.16
-13.63
-8.41
-3.86
0.08
3.7
7.18
10.38
12.79
13.84
13.18
10.91
7.6
4.09
1.21
-0.5
-0.99
-0.6
0.05
0.38
0.08
-0.75
-1.79
-2.63
-3.12
-3.43
-4.07
-5.6
-8.42
-12.6
-17.82
-23.46
-28.71
-32.76
-34.94
-34.93
-32.8
-29.1
-24.58
-19.92
-15.5
-11.27
-6.92
-2.14
3.08
8.36
13.04
16.51
18.43
18.93
18.45
17.55
16.58
15.6
14.37
12.58
10.06
6.91
3.5
0.32
-2.25
-4.11
-5.51
-6.94
-8.94
-11.99
-16.31
-21.85
-28.2
-34.6
-40.01
-43.36
-43.89
-41.43
-36.42
-29.8
-22.61
-15.62
-9.12
-3.04
2.82
8.47
13.59
17.72
20.48
21.84
22.18
22.13
22.2
22.59
23.05
23.1
22.27
20.41
17.86
15.26
13.35
12.52
12.66
13.17
13.16
11.83
8.71
3.78
-2.58
-9.71
-16.84
-23.13
-27.79
-30.18
-30.04
-27.58
-23.45
-18.62
-13.99
-10.08
-6.99
-4.49
-2.35
-0.46
1.07
2.1
2.61
2.84
3.14
3.83
4.97
6.26
7.17
7.16
5.99
3.88
1.54
-0.15
-0.51
0.57
2.59
4.59
5.5
4.58
1.56
-3.29
-9.37
-15.82
-21.65
-25.92
-27.84
-27.07
-23.81
-18.74
-12.79
-6.81
-1.26
3.71
8.17
12.16
15.6
18.35
20.28
21.42
21.92
22.05
21.96
21.73
21.34
20.74
19.9
18.86
17.68
16.39
15.02
13.52
11.84
9.84
7.35
4.22
0.34
-4.2
-9.13
-13.85
-17.59
-19.56
-19.17
-16.27
-11.24
-4.87
1.86
8.09
13.39
17.72
21.42
24.82
28.07
30.99
33.27
34.62
34.95
34.42
33.27
31.64
29.52
26.75
23.19
18.84
13.94
8.84
3.98
-0.37
-4.13
-7.51
-10.95
-14.96
-19.98
-26.06
-32.73
-39.03
-43.73
-45.75
-44.58
-40.51
-34.57
-28.07
-22.21
-17.57
-14.07
-11.12
-8.08
-4.59
-0.89
2.42
4.65
5.48
5.05
3.98
2.97
2.53
2.67
3
2.95
2.1
0.41
-1.79
-3.99
-5.7
-6.73
-7.18
-7.39
-7.85
-8.98
-11.08
-14.24
-18.28
-22.7
-26.72
-29.37
-29.77
-27.43
-22.53
-15.88
-8.68
-2.06
3.33
7.46
10.78
13.86
17.01
20.12
22.78
24.52
25.03
24.32
22.59
20.23
17.59
15.02
12.73
10.79
9.17
7.75
6.43
5.18
4.03
3.02
2.15
1.32
0.35
-0.92
-2.65
-4.91
-7.73
-11.11
-14.84
-18.44
-21.17
-22.15
-20.75
-16.9
-11.21
-4.77
1.26
6.1
9.52
11.85
13.6
15.2
16.72
17.87
18.27
17.62
15.94
13.63
11.27
9.47
8.54
8.37
8.51
8.4
7.63
6.17
4.35
2.63
1.3
0.34
-0.58
-1.9
-3.86
-6.48
-9.57
-12.87
-16.19
-19.3
-21.78
-22.97
-22.14
-18.8
-13.15
-6.11
0.94
6.77
10.76
13.16
14.75
16.29
18.1
19.93
21.15
21.23
20.08
18.03
15.68
13.59
12.02
10.86
9.76
8.37
6.51
4.31
2.13
0.42
-0.64
-1.13
-1.48
-2.2
-3.67
-5.98
-8.96
-12.23
-15.32
-17.7
-18.77
-17.88
-14.57
-8.82
-1.17
7.27
15.27
21.88
26.85
30.52
33.6
36.65
39.77
42.67
44.87
46.15
46.64
46.81
47.13
47.76
48.46
48.65
47.74
45.37
41.59
36.75
31.33
25.7
19.96
13.97
7.36
-0.27
-9.27
-19.78
-31.64
-44.38
-57.11
-68.67
-77.75
-83.23
-84.5
-81.75
-76.02
-68.85
-61.81
-55.94
-51.51
-48.11
-45.01
-41.65
-37.92
-34.16
-30.84
-28.23
-26.23
-24.42
-22.35
-19.82
-16.98
-14.23
-12.01
-10.63
-10.1
-10.18
-10.53
-10.82
-10.89
-10.75
-10.64
-10.87
-11.81
-13.75
-16.8
-20.76
-25.09
-28.86
-30.99
-30.5
-26.93
-20.58
-12.54
-4.33
2.57
7.27
9.75
10.78
11.49
12.85
15.33
18.72
22.42
25.67
27.91
28.96
28.94
28.21
27.13
25.98
24.79
23.48
21.88
19.86
17.38
14.5
11.37
8.16
4.99
1.89
-1.16
-4.24
-7.46
-10.84
-14.46
-18.39
-22.66
-27.09
-31.13
-33.85
-34.14
-31.21
-25.04
-16.54
-7.36
0.8
6.82
10.56
12.72
14.34
16.23
18.59
21.04
22.92
23.75
23.42
22.16
20.48
18.84
17.48
16.41
15.43
14.22
12.53
10.25
7.39
4.16
0.79
-2.43
-5.33
-7.86
-10.13
-12.39
-15.02
-18.44
-22.89
-28.34
-34.18
-39.3
-42.24
-41.75
-37.25
-29.14
-18.8
-8.03
1.52
8.94
14.19
17.9
20.88
23.65
26.29
28.46
29.76
29.99
29.29
28.05
26.74
25.63
24.71
23.81
22.73
21.44
20.09
18.82
17.65
16.33
14.47
11.74
8.13
3.94
-0.29
-4.1
-7.31
-10.11
-13.03
-16.73
-21.63
-27.68
-34.25
-40.04
-43.46
-43.13
-38.4
-29.77
-18.76
-7.43
2.44
9.9
15.07
18.8
22.07
25.42
28.76
31.53
33.2
33.58
32.97
31.95
31.1
30.73
30.86
31.26
31.74
32.14
32.41
32.48
32.23
31.49
30.1
28.11
25.7
23.25
21.13
19.6
18.65
17.96
17.02
15.17
11.98
7.44
2.25
-2.22
-4.4
-3.09
1.81
9.18
16.95
22.93
25.67
24.97
21.73
17.35
13.01
9.09
5.24
0.85
-4.5
-10.64
-16.9
-22.43
-26.63
-29.39
-31.07
-32.3
-33.65
-35.46
-37.77
-40.42
-43.18
-45.86
-48.39
-50.74
-52.93
-55
-57
-59.02
-61.23
-63.72
-66.38
-68.72
-69.81
-68.57
-64.13
-56.29
-45.73
-33.85
-22.25
-12.14
-3.95
2.66
8.4
13.86
19.09
23.64
26.81
28.12
27.63
25.95
24
22.61
22.16
22.46
22.89
22.77
21.68
19.62
16.93
14.06
11.26
8.56
5.76
2.71
-0.64
-4.23
-7.99
-12.04
-16.66
-22.08
-28.1
-33.9
-38.09
-39.15
-36.11
-29.05
-19.17
-8.4
1.37
8.97
14.31
18.13
21.47
25.01
28.79
32.23
34.56
35.24
34.3
32.23
29.76
27.5
25.72
24.3
22.87
21.1
18.82
16.01
12.85
9.53
6.19
2.9
-0.34
-3.59
-6.98
-10.67
-14.88
-19.84
-25.63
-31.97
-38.13
-42.96
-45.12
-43.59
-38.1
-29.3
-18.6
-7.69
2.05
9.98
16.24
21.44
26.16
30.67
34.7
37.75
39.32
39.25
37.83
35.64
33.34
31.39
29.92
28.75
27.58
26.15
24.4
22.42
20.4
18.48
16.67
14.79
12.63
9.92
6.54
2.49
-2.15
-7.25
-12.64
-18
-22.77
-26.13
-27.18
-25.38
-20.8
-14.3
-7.31
-1.23
3.04
5.43
6.59
7.41
8.49
9.87
11.05
11.28
10.07
7.45
4.02
0.7
-1.7
-2.83
-2.89
-2.51
-2.36
-2.89
-4.11
-5.71
-7.32
-8.73
-9.99
-11.36
-13.18
-15.72
-19.2
-23.71
-29.21
-35.41
-41.66
-46.89
-49.84
-49.4
-45.02
-37.01
-26.45
-14.93
-3.95
5.43
12.89
18.72
23.5
27.75
31.64
34.91
37.05
37.62
36.52
34.1
31.09
28.33
26.43
25.51
25.22
24.92
23.99
22.08
19.22
15.74
12.03
8.42
5.01
1.72
-1.6
-5.15
-9.12
-13.69
-19.01
-24.99
-31.14
-36.44
-39.52
-39.09
-34.48
-26.07
-15.24
-3.88
6.36
14.64
21.04
26.33
31.33
36.42
41.42
45.69
48.6
49.86
49.68
48.7
47.72
47.39
47.99
49.34
50.93
52.13
52.34
51.28
48.92
45.49
41.29
36.56
31.41
25.86
19.87
13.43
6.55
-0.81
-8.72
-17.19
-25.96
-34.22
-40.72
-44.1
-43.46
-38.83
-31.26
-22.46
-14.13
-7.34
-2.26
1.64
5.08
8.59
12.22
15.64
18.41
20.18
20.86
20.57
19.53
17.98
16.11
14.1
12.17
10.58
9.57
9.19
9.24
9.19
8.42
6.43
3.12
-1.17
-5.75
-9.96
-13.37
-16.04
-18.4
-21.14
-24.91
-30.11
-36.66
-43.85
-50.39
-54.71
-55.49
-52.12
-45.02
-35.49
-25.27
-15.88
-8.15
-2.15
2.61
6.8
10.9
15.05
19.14
22.79
25.6
27.13
27.15
25.66
22.97
19.65
16.36
13.64
11.81
10.84
10.45
10.13
9.35
7.7
5
1.38
-2.78
-6.97
-10.79
-14.07
-16.91
-19.71
-23
-27.23
-32.52
-38.39
-43.77
-47.19
-47.29
-43.42
-35.99
-26.41
-16.54
-8.02
-1.66
2.69
5.85
8.74
11.95
15.47
18.9
21.6
23.03
22.95
21.42
18.79
15.61
12.43
9.7
7.62
6.2
5.21
4.36
3.37
2.02
0.19
-2.11
-4.78
-7.65
-10.6
-13.55
-16.58
-19.91
-23.81
-28.44
-33.64
-38.78
-42.81
-44.51
-42.95
-37.83
-29.75
-19.96
-9.96
-1
6.28
11.9
16.34
20.19
23.87
27.4
30.49
32.66
33.5
32.83
30.88
28.16
25.36
23.01
21.34
20.23
19.31
18.22
16.71
14.72
12.34
9.67
6.77
3.62
0.23
-3.34
-6.93
-10.44
-13.88
-17.48
-21.65
-26.63
-32.16
-37.31
-40.61
-40.64
-36.7
-29.18
-19.6
-9.87
-1.58
4.59
8.94
12.37
15.74
19.43
23.21
26.47
28.52
28.95
27.76
25.31
22.18
18.98
16.18
13.99
12.36
11.03
9.74
8.3
6.65
4.86
3.04
1.26
-0.46
-2.14
-3.88
-5.82
-8.17
-11.14
-14.87
-19.24
-23.66
-27.1
-28.27
-26.08
-20.16
-11.09
-0.36
10.17
18.94
25.22
29.23
31.91
34.26
36.98
40.06
42.99
44.94
45.23
43.57
40.22
35.87
31.45
27.78
25.35
24.29
24.41
25.44
27.18
29.51
32.35
35.56
38.86
41.92
44.47
46.36
47.48
47.66
46.62
44.08
40.04
34.96
29.77
25.61
23.52
24.17
27.68
33.7
41.58
50.55
59.92
69.17
77.93
85.81
92.19
96.13
96.43
92.07
82.62
68.57
51.28
32.49
13.82
-3.58
-19.06
-32.17
-42.49
-49.65
-53.63
-54.87
-54.31
-53
-51.74
-50.74
-49.75
-48.25
-45.99
-43.09
-40.08
-37.62
-36.22
-36.04
-36.73
-37.46
-37.04
-34.17
-27.84
-17.8
-4.75
9.7
23.46
34.66
42.22
46.13
47.14
46.12
43.55
39.1
31.95
21.46
7.75
-8.05
-24.14
-38.67
-50.4
-58.94
-64.6
-67.87
-69.04
-68.08
-64.85
-59.46
-52.38
-44.45
-36.63
-29.65
-23.9
-19.43
-16.04
-13.41
-11.26
-9.41
-7.78
-6.39
-5.34
-4.75
-4.68
-5.14
-6.15
-7.69
-9.83
-12.6
-15.93
-19.6
-23.26
-26.52
-29.12
-31.08
-32.66
-34.26
-36.17
-38.41
-40.71
-42.64
-43.85
-44.23
-43.95
-43.27
-42.44
-41.61
-40.84
-40.18
-39.75
-39.66
-40
-40.72
-41.69
-42.8
-43.93
-45.03
-46.01
-46.68
-46.88
-46.49
-45.65
-44.67
-43.96
-43.81
-44.15
-44.59
-44.49
-43.17
-40.18
-35.33
-28.76
-20.76
-11.78
-2.31
7.07
15.73
23.08
28.59
32.11
33.81
34.24
34.13
34.08
34.45
35.16
35.92
36.36
36.33
35.91
35.41
35.06
34.94
34.83
34.29
32.86
30.26
26.49
21.76
16.44
10.9
5.44
0.25
-4.53
-8.83
-12.62
-15.92
-18.75
-21.18
-23.2
-24.8
-25.97
-26.72
-27.11
-27.27
-27.3
-27.24
-27.11
-26.9
-26.63
-26.45
-26.53
-26.96
-27.74
-28.69
-29.5
-29.91
-29.8
-29.29
-28.6
-28.06
-27.82
-27.95
-28.28
-28.64
-28.76
-28.51
-27.77
-26.6
-25.16
-23.67
-22.4
-21.54
-21.2
-21.29
-21.51
-21.28
-19.85
-16.41
-10.34
-1.44
10
23.3
37.62
52.22
66.47
79.79
91.45
100.54
106.13
107.71
105.44
100.29
93.65
86.9
80.86
75.74
71.23
66.92
62.65
58.48
54.69
51.37
48.47
45.73
42.83
39.43
35.23
29.98
23.49
15.73
6.94
-2.38
-11.54
-19.96
-27.3
-33.42
-38.41
-42.3
-45.12
-46.88
-47.62
-47.57
-47.05
-46.35
-45.66
-44.96
-44.1
-42.95
-41.59
-40.37
-39.86
-40.61
-42.88
-46.51
-50.91
-55.32
-59.06
-61.71
-63.21
-63.65
-63.21
-62.02
-60.26
-58.09
-55.77
-53.5
-51.39
-49.46
-47.63
-45.86
-44.21
-42.8
-41.74
-41.03
-40.57
-40.18
-39.66
-38.84
-37.66
-36.12
-34.31
-32.41
-30.6
-29.07
-27.86
-26.78
-25.41
-23.24
-19.79
-14.8
-8.29
-0.47
8.27
17.49
26.69
35.28
42.59
47.98
50.98
51.52
49.95
46.96
43.38
39.77
36.45
33.39
30.49
27.71
25.13
22.9
21.02
19.28
17.36
14.96
12.02
8.82
5.79
3.36
1.73
0.73
-0.04
-1.06
-2.66
-4.93
-7.68
-10.5
-12.92
-14.49
-14.85
-13.9
-11.72
-8.67
-5.24
-1.9
1.01
3.37
5.25
6.76
7.89
8.52
8.46
7.57
5.91
3.8
1.69
-0.01
-0.99
-1.21
-0.83
-0.16
0.43
0.63
0.3
-0.54
-1.68
-2.8
-3.64
-4.1
-4.28
-4.44
-4.89
-5.86
-7.51
-9.87
-12.83
-16.01
-18.73
-20.02
-18.84
-14.53
-7.19
2.21
12.19
21.21
28.31
33.35
36.8
39.34
41.29
42.53
42.63
41.27
38.56
35.07
31.67
29.01
27.28
26.16
25.01
23.18
20.31
16.39
11.72
6.68
1.65
-3.14
-7.52
-11.4
-14.75
-17.63
-20.21
-22.8
-25.79
-29.42
-33.55
-37.49
-40.1
-40.07
-36.6
-29.73
-20.6
-10.93
-2.44
3.92
8.15
10.93
13.02
14.66
15.46
14.71
11.93
7.31
1.73
-3.61
-7.67
-9.99
-10.86
-11.06
-11.59
-13.17
-16.04
-19.84
-23.86
-27.37
-29.98
-31.82
-33.43
-35.48
-38.46
-42.52
-47.53
-53.23
-59.26
-64.88
-68.84
-69.5
-65.31
-55.65
-41.29
-24.29
-7.2
7.93
20.32
30.46
39.39
47.87
55.76
62.08
65.69
65.94
63.12
58.31
52.88
47.92
43.88
40.44
36.88
32.45
26.79
20.09
12.94
6.04
-0.15
-5.61
-10.7
-15.9
-21.65
-28.1
-35.27
-43.09
-51.42
-59.81
-67.19
-71.87
-71.92
-65.97
-53.98
-37.42
-18.92
-1.12
14.22
26.75
37.18
46.49
55.07
62.39
67.36
69.01
67.17
62.6
56.86
51.51
47.57
45.11
43.33
41.04
37.24
31.69
24.97
18.15
12.2
7.46
3.5
-0.64
-5.86
-12.65
-21.03
-30.64
-41.02
-51.5
-60.96
-67.7
-69.69
-65.29
-54.16
-37.59
-18.14
1.3
18.67
33.26
45.56
56.41
66.23
74.59
80.5
83.07
82.01
77.95
72.02
65.55
59.54
54.48
50.36
46.88
43.56
39.9
35.51
30.13
23.7
16.42
8.72
1.16
-5.76
-11.8
-17
-21.7
-26.43
-31.76
-38.09
-45.45
-53.24
-60.11
-64.3
-64.1
-58.62
-48.21
-34.4
-19.31
-4.79
8.23
19.82
30.63
41.15
51.19
59.82
65.79
68.17
66.81
62.39
56.26
49.84
44.16
39.64
36
32.58
28.75
24.16
18.87
13.25
7.66
2.27
-3
-8.42
-14.18
-20.28
-26.57
-32.95
-39.42
-46.05
-52.55
-57.97
-60.77
-59.33
-52.71
-41.25
-26.53
-10.74
4.2
17.26
28.39
38
46.35
53.19
57.79
59.37
57.51
52.36
44.64
35.4
25.81
16.93
9.46
3.66
-0.69
-4.15
-7.43
-11.1
-15.49
-20.63
-26.32
-32.23
-38.02
-43.36
-48.06
-52.1
-55.7
-59.29
-63.48
-68.81
-75.37
-82.31
-87.89
-89.7
-85.71
-75.15
-59.03
-39.88
-20.73
-3.94
9.57
20.28
29.39
37.85
45.8
52.5
56.94
58.4
56.89
53.17
48.42
43.81
40.13
37.56
35.67
33.72
31.05
27.36
22.88
18.13
13.63
9.57
5.69
1.53
-3.42
-9.38
-16.36
-24.29
-33.07
-42.4
-51.45
-58.66
-61.95
-59.42
-50.27
-35.38
-17.16
1.3
17.49
30.29
40.07
48.03
55.2
61.77
67.07
70.03
70
67.05
62
56.07
50.38
45.66
42.08
39.45
37.31
35.12
32.41
28.95
24.72
19.98
15.04
10.17
5.47
0.82
-4.01
-9.28
-15.17
-21.84
-29.48
-38.06
-47
-54.88
-59.56
-58.8
-51.33
-37.64
-20.1
-2.16
13.04
23.92
30.83
35.53
39.99
45.26
50.95
55.55
57.35
55.41
49.91
42.14
33.82
26.37
20.43
15.67
11.25
6.27
0.35
-6.28
-12.88
-18.8
-23.74
-27.95
-32.03
-36.52
-41.71
-47.64
-54.3
-61.72
-69.9
-78.3
-85.5
-89.3
-87.33
-78.21
-62.35
-42.04
-20.67
-1.35
14.18
25.98
35.32
43.79
52.28
60.68
67.99
73.1
75.3
74.72
72.2
68.99
66.26
64.7
64.44
65.17
66.49
68.03
69.59
70.89
71.4
70.37
66.96
60.73
51.8
40.93
29.16
17.41
6.06
-5.03
-16.23
-27.5
-37.97
-45.9
-49.27
-46.75
-38.48
-26.31
-13.08
-1.61
6.43
11.01
13.27
14.74
16.27
17.74
18.15
16.28
11.45
3.87
-5.4
-14.86
-23.11
-29.33
-33.56
-36.47
-39.09
-42.36
-46.77
-52.29
-58.51
-64.85
-70.82
-76.13
-80.71
-84.76
-88.58
-92.54
-97.02
-102.36
-108.58
-115.18
-120.85
-123.65
-121.47
-112.96
-98.25
-79.19
-58.77
-39.91
-24.34
-12.02
-1.58
8.67
19.52
30.37
39.56
45.32
46.81
44.58
40.35
36.19
33.66
33.17
33.94
34.57
33.77
30.93
26.38
21.02
15.81
11.22
7.12
2.86
-2.24
-8.69
-16.65
-26.05
-36.66
-47.93
-58.64
-66.91
-70.46
-67.38
-57.15
-41.02
-21.86
-3.03
12.91
25
33.86
40.93
47.4
53.49
58.49
61.28
61.13
58.14
53.23
47.66
42.5
38.15
34.32
30.33
25.58
19.99
14.16
9.02
5.45
3.71
3.17
2.53
0.27
-4.75
-12.94
-23.82
-36.2
-48.26
-57.88
-62.98
-62
-54.46
-41.3
-24.72
-7.49
7.98
20.41
29.9
37.4
43.83
49.37
53.35
54.69
52.78
47.99
41.65
35.56
31.09
28.6
27.44
26.32
24.04
20.19
15.23
10.21
6.21
3.63
2.05
0.37
-2.63
-7.89
-15.67
-25.64
-36.87
-47.85
-56.58
-60.79
-58.52
-48.95
-32.94
-13.04
7.34
25.1
38.67
48.21
55.14
61.04
66.58
71.2
73.62
72.7
68.24
61.18
53.24
46.08
40.59
36.64
33.23
29.19
23.8
17.16
10.08
3.51
-1.99
-6.62
-11.18
-16.71
-23.9
-33.01
-43.87
-56.12
-69.1
-81.61
-91.65
-96.62
-94.17
-83.26
-65.05
-42.71
-20.39
-1.53
12.34
21.92
29.28
36.5
44.56
52.89
59.89
63.92
64.17
61.01
55.8
50.2
45.48
42.1
39.7
37.49
34.77
31.25
27.16
22.9
18.79
14.72
10.29
4.96
-1.65
-9.59
-18.69
-28.78
-39.79
-51.53
-63.33
-73.55
-79.81
-79.6
-71.43
-55.73
-35.01
-13.03
6.62
21.78
32.24
39.28
44.57
49.27
53.57
56.91
58.63
58.4
56.34
52.91
48.6
43.86
39.05
34.44
30.29
26.75
23.75
20.98
17.96
14.15
9.2
3.07
-3.96
-11.35
-18.5
-24.96
-30.62
-35.77
-41.18
-47.79
-56.33
-66.65
-77.25
-85.4
-87.92
-82.49
-68.77
-48.86
-26.51
-5.74
10.73
22.18
29.71
35.12
39.83
44.26
47.91
49.97
49.92
47.89
44.51
40.66
37.07
34.13
31.9
30.11
28.41
26.46
24.03
20.94
17.1
12.45
7.03
1.05
-5.13
-11.09
-16.53
-21.43
-26.12
-31.31
-37.87
-46.36
-56.53
-66.94
-75.02
-77.75
-72.91
-60.14
-41.39
-20.31
-0.87
14.16
24.04
29.9
33.71
37.06
40.47
43.42
44.93
44.31
41.54
37.29
32.52
28.1
24.46
21.56
18.95
16.04
12.41
7.95
2.85
-2.55
-7.92
-13.05
-17.85
-22.27
-26.23
-29.59
-32.38
-34.95
-37.94
-42.18
-48.15
-55.39
-62.17
-65.84
-63.72
-54.28
-38.03
-17.53
3.55
21.89
35.7
45.14
51.72
57.16
62.43
67.4
71.26
73.22
73.2
71.84
70.2
69.28
69.56
70.93
72.85
74.61
75.57
75.35
73.69
70.45
65.58
59.14
51.37
42.69
33.63
24.64
15.99
7.7
-0.39
-8.49
-16.8
-25.3
-33.51
-40.42
-44.49
-44.05
-38.07
-26.7
-11.57
4.79
19.73
31.51
39.7
44.91
47.97
49.09
47.58
42.19
31.94
16.87
-1.85
-22.08
-41.52
-58.3
-71.39
-80.61
-86.38
-89.44
-90.51
-90.3
-89.43
-88.45
-87.89
-88.1
-89.04
-90.21
-90.57
-88.74
-83.56
-74.48
-61.95
-47.24
-32.02
-17.72
-5.06
5.99
15.85
24.81
32.7
39.01
43.13
44.77
44.09
41.47
37.23
31.46
24.1
15.21
5.13
-5.52
-16.14
-26.45
-36.61
-46.96
-57.72
-68.54
-78.51
-86.44
-91.37
-93.07
-92.07
-89.5
-86.6
-84.45
-83.77
-85.12
-88.85
-94.97
-102.68
-110.08
-114.54
-113.56
-106.02
-92.9
-76.95
-61.46
-48.69
-39.05
-31.38
-24.16
-16.69
-9.44
-3.46
0.67
3.49
6.39
10.7
16.73
23.55
29.46
32.86
32.88
29.59
23.73
16.47
9.16
3.2
-0.16
-0.13
3.29
9.34
16.63
23.63
28.97
31.7
31.55
28.88
24.88
21.29
19.94
21.99
27.39
34.73
41.88
46.91
48.89
48.18
45.87
43.16
40.66
38.24
35.36
31.49
26.57
21.01
15.49
10.57
6.43
2.8
-0.92
-5.27
-10.41
-15.96
-21.18
-25.28
-27.93
-29.33
-30
-30.23
-29.77
-27.84
-23.64
-16.92
-8.32
0.98
9.9
17.97
25.38
32.6
39.74
46.29
51.36
54.31
55.3
55.37
55.86
57.71
60.89
64.32
66.39
65.77
61.94
55.43
47.54
39.8
33.29
28.22
23.98
19.48
13.87
6.88
-0.97
-8.81
-15.87
-21.92
-27.38
-33.08
-39.91
-48.49
-58.93
-70.69
-82.49
-92.47
-98.55
-99.18
-93.81
-83.25
-69.38
-54.4
-39.98
-26.69
-14.12
-1.36
12.19
26.37
40.18
52.2
61.2
66.67
68.92
68.91
67.74
66.15
64.29
61.83
58.31
53.49
47.58
41.11
34.65
28.53
22.65
16.55
9.58
1.11
-9.33
-21.98
-36.77
-53.07
-69.55
-84.15
-94.48
-98.54
-95.49
-86.03
-72.28
-56.91
-42.23
-29.46
-18.7
-9.31
-0.64
7.53
14.87
20.8
24.8
26.69
26.64
25.12
22.77
20.24
18
16.17
14.54
12.68
10.25
7.14
3.58
-0.08
-3.55
-6.85
-10.2
-13.86
-17.99
-22.61
-27.81
-33.97
-41.67
-51.39
-62.88
-74.74
-84.56
-89.64
-88.01
-79.28
-64.79
-47.06
-28.76
-11.83
2.99
15.97
27.93
39.53
50.95
61.72
70.93
77.56
80.82
80.55
77.29
72.16
66.53
61.44
57.33
53.96
50.7
46.86
42.01
36.07
29.16
21.45
13.12
4.27
-4.89
-14.12
-23.2
-32.11
-40.93
-49.68
-57.97
-64.81
-68.72
-68.3
-62.9
-53.02
-40.21
-26.41
-13.12
-0.93
10.47
21.73
33.14
44.23
53.89
60.89
64.36
64.15
60.85
55.48
49.2
43.02
37.64
33.38
30.1
27.26
24.05
19.7
13.7
6
-2.99
-12.59
-22
-30.52
-37.62
-43.05
-46.9
-49.74
-52.43
-55.76
-59.86
-63.78
-65.49
-62.52
-53.09
-37.01
-15.97
7.14
29.38
48.95
65.69
80.8
95.87
111.9
128.76
145.27
159.77
170.74
177.35
179.46
177.5
172.15
164.09
153.93
142.16
129.22
115.54
101.59
87.78
74.46
61.75
49.49
37.17
24.1
9.59
-6.79
-24.99
-44.35
-63.63
-81.07
-94.67
-102.58
-103.67
-97.97
-86.72
-72.07
-56.33
-41.2
-27.39
-14.73
-2.71
8.83
19.32
27.69
32.89
34.49
32.94
29.4
25.1
20.87
16.76
12.21
6.55
-0.43
-8.2
-15.59
-21.34
-24.78
-26.13
-26.5
-27.44
-30.32
-35.83
-43.73
-52.82
-61.31
-67.15
-68.59
-64.7
-55.62
-42.53
-27.22
-11.5
3.36
16.78
28.77
39.49
48.96
56.85
62.71
66.14
67.11
65.89
62.97
58.77
53.57
47.43
40.38
32.59
24.5
16.79
10.09
4.8
0.77
-2.7
-6.65
-12.12
-19.82
-29.88
-41.72
-53.92
-64.48
-71.19
-72.22
-66.76
-55.51
-40.49
-24.45
-9.81
2.06
11.17
18.47
25.07
31.46
37.33
41.8
44.02
43.62
40.89
36.5
31.23
25.57
19.83
14.16
8.77
3.95
-0.02
-3.05
-5.31
-7.36
-10.03
-14.17
-20.45
-28.87
-38.62
-48
-54.84
-57.17
-53.98
-45.58
-33.52
-19.95
-6.75
4.94
15.01
23.89
32.06
39.57
45.92
50.4
52.42
51.92
49.3
45.3
40.59
35.52
30.12
24.26
18.01
11.77
6.27
2.24
-0.06
-1.03
-1.75
-3.63
-7.88
-15
-24.52
-35.02
-44.4
-50.61
-52.13
-48.62
-40.9
-30.67
-19.89
-10.04
-1.74
5.22
11.53
17.75
24.01
29.92
34.82
38.18
39.79
39.8
38.64
36.7
34.27
31.44
28.21
24.5
20.33
15.74
10.85
5.71
0.23
-5.81
-12.84
-21.28
-31.41
-43.16
-55.88
-68.28
-78.66
-85.35
-87.29
-84.43
-77.77
-68.93
-59.5
-50.46
-42.03
-33.79
-25.24
-16.22
-7.09
1.32
8.16
12.93
15.76
17.46
19.23
22.12
26.56
32.07
37.46
41.35
42.81
41.77
38.9
35.18
31.31
27.35
22.93
17.56
11.03
3.56
-4.39
-12.33
-19.82
-26.39
-31.32
-33.65
-32.43
-27.21
-18.41
-7.28
4.38
14.92
23.33
29.48
33.97
37.69
41.31
45
48.44
50.96
51.97
51.21
48.9
45.66
42.23
39.15
36.6
34.43
32.38
30.35
28.44
26.74
25.05
22.67
18.66
12.32
3.69
-6.32
-16.27
-24.95
-31.88
-37.45
-42.36
-46.88
-50.39
-51.57
-49.12
-42.61
-32.91
-21.79
-11.17
-2.22
5
11.32
17.75
24.74
31.84
37.85
41.38
41.57
38.46
33.02
26.79
21.16
16.93
14.02
11.68
8.98
5.25
0.41
-5.13
-10.72
-15.77
-19.96
-23.24
-25.74
-27.71
-29.56
-31.84
-35.18
-40.03
-46.21
-52.77
-58
-60
-57.36
-49.73
-37.99
-23.88
-9.33
4.16
15.91
25.93
34.56
42.11
48.53
53.58
56.97
58.72
59.28
59.38
59.76
60.79
62.32
63.69
64.04
62.8
59.86
55.71
51.13
46.79
42.98
39.47
35.73
31.25
25.74
19.17
11.67
3.32
-5.77
-15.26
-24.25
-31.42
-35.31
-35.07
-30.94
-24.27
-17.03
-10.92
-6.77
-4.36
-2.97
-2.01
-1.51
-2.1
-4.52
-9.02
-15.01
-21.26
-26.33
-29.29
-30.09
-29.56
-29.02
-29.63
-31.94
-35.62
-39.78
-43.4
-45.85
-47.12
-47.78
-48.67
-50.62
-54.15
-59.48
-66.35
-73.97
-81.02
-85.81
-86.67
-82.51
-73.24
-60
-44.76
-29.73
-16.65
-6.31
1.35
6.91
10.89
13.45
14.4
13.54
10.98
7.32
3.4
-0.02
-2.69
-4.92
-7.36
-10.5
-14.29
-18.05
-20.79
-21.77
-20.94
-19.15
-17.84
-18.58
-22.42
-29.66
-39.68
-51.09
-61.93
-70.11
-73.9
-72.35
-65.72
-55.38
-43.38
-31.65
-21.3
-12.36
-4.02
4.55
13.57
22.35
29.59
34.12
35.57
34.57
32.47
30.66
29.93
30.19
30.69
30.46
28.97
26.35
23.31
20.64
18.76
17.42
15.76
12.63
7.13
-1.15
-12.03
-24.63
-37.53
-48.81
-56.41
-58.62
-54.75
-45.49
-32.8
-19.36
-7.44
1.79
8.48
13.73
18.6
23.51
27.89
30.64
30.77
28.01
23
17
11.23
6.4
2.36
-1.62
-6.35
-12.16
-18.62
-24.69
-29.26
-31.83
-32.8
-33.44
-35.3
-39.66
-47.01
-57.02
-68.54
-79.9
-89.04
-94
-93.21
-86.08
-73.22
-56.37
-37.8
-19.55
-2.76
12.41
26.41
39.67
52.04
62.7
70.56
74.78
75.21
72.48
67.64
61.74
55.38
48.63
41.2
32.89
23.87
14.78
6.48
-0.37
-5.69
-10.04
-14.49
-20.15
-27.82
-37.74
-49.55
-62.24
-74.26
-83.62
-88.34
-86.98
-79.15
-65.79
-48.93
-30.91
-13.66
1.91
15.83
28.6
40.47
51.12
59.69
65.35
67.83
67.65
65.93
63.89
62.29
61.18
60.02
58.13
55.11
51.12
46.72
42.59
39.09
36.06
32.8
28.36
21.85
12.69
0.87
-12.92
-27.27
-40.1
-49.16
-52.59
-49.68
-41.13
-28.96
-15.71
-3.52
6.56
14.69
21.72
28.37
34.61
39.51
41.73
40.32
35.28
27.65
19.09
11.18
4.74
-0.36
-4.9
-9.87
-15.85
-22.88
-30.59
-38.49
-46.32
-54.24
-62.66
-72.08
-82.82
-95.06
-108.78
-123.75
-139.34
-154.39
-167.31
-176.46
-180.81
-180.4
-176.5
-171.14
-166.36
-163.42
-162.42
-162.5
-162.17
-159.91
-154.39
-144.55
-129.67
-109.37
-83.88
-54.06
-21.41
12.28
45.13
75.62
102.84
126.48
146.71
163.84
178.1
189.46
197.7
202.58
203.95
201.86
196.41
187.63
175.38
159.47
139.85
117.16
92.85
69.14
48.49
32.71
22.39
16.7
13.78
11.69
9.21
6.25
3.58
2.17
2.49
4.27
6.67
8.8
10.11
10.54
10.44
10.26
10.43
11.25
12.82
15.01
17.36
19.11
19.28
16.98
11.78
3.93
-5.51
-14.95
-22.65
-27.41
-28.8
-27.26
-23.81
-19.61
-15.61
-12.36
-10.03
-8.56
-7.63
-6.62
-4.76
-1.33
4.08
11.34
19.81
28.66
37.23
45.25
52.9
60.52
68.32
76.03
83.02
88.53
91.99
93.39
93.19
92.13
90.86
89.72
88.7
87.58
86.14
84.35
82.28
79.95
77.24
73.86
69.54
64.15
57.74
50.48
42.43
33.45
23.21
11.37
-2.13
-16.79
-31.46
-44.49
-54.17
-59.2
-59.18
-54.72
-47.29
-38.56
-29.95
-22.14
-15.09
-8.3
-1.27
6.08
13.3
19.59
24.16
26.54
26.82
25.56
23.56
21.6
20.18
19.43
19.12
18.84
18.16
16.78
14.66
11.93
8.87
5.69
2.5
-0.79
-4.3
-8.17
-12.43
-17.09
-22.16
-27.68
-33.48
-39.09
-43.58
-45.81
-44.81
-40.33
-32.95
-23.97
-14.89
-6.84
-0.21
5.25
10.1
14.76
19.25
23.28
26.37
28.22
28.75
28.2
26.99
25.56
24.26
23.24
22.43
21.58
20.43
18.74
16.47
13.69
10.61
7.4
4.19
1.01
-2.22
-5.61
-9.33
-13.59
-18.61
-24.56
-31.24
-38.04
-43.83
-47.3
-47.39
-43.78
-37.08
-28.6
-19.91
-12.2
-5.98
-1.03
3.18
7.23
11.33
15.39
19.02
21.83
23.6
24.26
23.98
23.05
21.84
20.69
19.77
19.13
18.63
18.02
17.01
15.38
13.05
10.05
6.58
2.89
-0.74
-4.17
-7.42
-10.74
-14.51
-19.11
-24.73
-31.15
-37.66
-43.06
-46.1
-45.78
-41.86
-34.93
-26.3
-17.44
-9.52
-3.05
2.11
6.5
10.66
14.92
19.16
23
25.95
27.57
27.69
26.43
24.22
21.62
19.2
17.29
15.86
14.64
13.26
11.45
9.15
6.54
3.84
1.21
-1.35
-3.99
-6.82
-9.9
-13.17
-16.59
-20.3
-24.55
-29.54
-35.18
-40.77
-45.13
-46.97
-45.41
-40.44
-33
-24.62
-16.81
-10.48
-5.72
-1.97
1.49
5.12
8.89
12.3
14.72
15.73
15.3
13.8
11.83
9.96
8.57
7.72
7.22
6.76
6.08
5.07
3.76
2.28
0.7
-0.99
-2.89
-5.09
-7.6
-10.38
-13.39
-16.69
-20.43
-24.66
-29.19
-33.41
-36.36
-37.06
-34.88
-29.88
-22.86
-15.08
-7.8
-1.84
2.65
6.06
9.01
11.88
14.64
16.89
18.16
18.18
17.11
15.44
13.8
12.62
12
11.7
11.33
10.54
9.16
7.24
4.97
2.56
0.13
-2.26
-4.7
-7.28
-10.1
-13.25
-16.72
-20.56
-24.81
-29.4
-34.1
-38.35
-41.28
-41.97
-39.81
-34.79
-27.63
-19.59
-11.96
-5.66
-0.95
2.49
5.27
7.89
10.53
12.98
14.83
15.72
15.56
14.6
13.32
12.24
11.65
11.48
11.41
11.02
10.03
8.43
6.45
4.35
2.25
0.07
-2.39
-5.31
-8.7
-12.54
-16.78
-21.5
-26.82
-32.56
-38.13
-42.43
-44.2
-42.59
-37.59
-30.14
-21.8
-14.07
-7.87
-3.26
0.34
3.62
6.95
10.15
12.67
13.96
13.82
12.47
10.43
8.24
6.19
4.31
2.41
0.34
-1.91
-4.15
-6.06
-7.42
-8.21
-8.58
-8.83
-9.3
-10.31
-12.07
-14.7
-18.11
-21.85
-25.2
-27.19
-26.94
-24.01
-18.6
-11.58
-4.12
2.72
8.4
13
16.97
20.75
24.41
27.54
29.51
29.82
28.44
25.84
22.77
19.92
17.69
16
14.52
12.82
10.61
7.9
4.88
1.89
-0.8
-3.09
-5.15
-7.34
-10.03
-13.56
-18.06
-23.41
-29.24
-34.89
-39.44
-41.96
-41.71
-38.45
-32.65
-25.4
-18.03
-11.64
-6.74
-3.17
-0.38
2.18
4.67
6.86
8.38
8.98
8.72
8.06
7.5
7.36
7.58
7.79
7.45
6.27
4.37
2.2
0.43
-0.46
-0.47
-0.06
0.03
-0.9
-3.19
-6.72
-11.05
-15.53
-19.51
-22.35
-23.46
-22.45
-19.25
-14.26
-8.36
-2.64
2.06
5.43
7.82
9.93
12.36
15.16
17.77
19.36
19.31
17.66
15.05
12.42
10.5
9.42
8.74
7.72
5.82
2.92
-0.58
-4.05
-6.99
-9.23
-10.97
-12.61
-14.55
-17.03
-20.1
-23.73
-27.89
-32.5
-37.35
-41.94
-45.39
-46.71
-45.12
-40.41
-33.16
-24.53
-15.88
-8.28
-2.15
2.67
6.7
10.4
13.99
17.28
19.94
21.67
22.33
22.08
21.2
20.06
18.89
17.77
16.6
15.19
13.4
11.28
9.02
6.92
5.18
3.76
2.32
0.33
-2.7
-7.03
-12.53
-18.72
-24.86
-30.07
-33.5
-34.47
-32.67
-28.27
-21.95
-14.73
-7.66
-1.52
3.51
7.61
11.2
14.52
17.46
19.62
20.58
20.16
18.59
16.43
14.32
12.73
11.77
11.19
10.49
9.28
7.37
4.9
2.23
-0.26
-2.36
-4.11
-5.75
-7.55
-9.71
-12.3
-15.37
-18.93
-23.02
-27.43
-31.61
-34.61
-35.25
-32.63
-26.53
-17.71
-7.62
2.06
10.06
16
20.37
24.15
28.18
32.72
37.28
40.97
42.95
42.9
41.16
38.51
35.8
33.51
31.61
29.67
27.19
23.94
20.05
15.9
11.9
8.24
4.84
1.45
-2.27
-6.51
-11.42
-17.07
-23.44
-30.38
-37.4
-43.62
-47.94
-49.31
-47.19
-41.76
-33.92
-24.99
-16.22
-8.45
-1.89
3.67
8.62
13.25
17.54
21.17
23.79
25.19
25.46
24.98
24.28
23.82
23.78
24.05
24.25
23.99
22.98
21.14
18.68
15.89
13.11
10.53
8.18
5.93
3.55
0.77
-2.62
-6.78
-11.72
-17.22
-22.73
-27.32
-29.89
-29.47
-25.73
-19.12
-10.87
-2.5
4.7
10.15
13.98
16.8
19.25
21.61
23.7
25.07
25.32
24.41
22.71
20.85
19.48
18.9
18.97
19.16
18.81
17.53
15.35
12.74
10.29
8.36
6.85
5.34
3.24
0.22
-3.71
-8.28
-13.18
-18.19
-23.1
-27.48
-30.59
-31.5
-29.48
-24.48
-17.36
-9.53
-2.46
2.97
6.77
9.54
12.05
14.68
17.23
19.11
19.75
18.99
17.21
15.09
13.38
12.45
12.28
12.5
12.58
12.11
10.95
9.19
7.11
4.97
2.88
0.83
-1.33
-3.69
-6.29
-9.08
-12.02
-15.18
-18.68
-22.48
-26.26
-29.31
-30.78
-30.01
-26.86
-21.9
-16.16
-10.7
-6.22
-2.89
-0.36
1.83
3.95
5.91
7.35
7.88
7.37
6
4.3
2.83
2.03
1.97
2.45
3.09
3.55
3.63
3.36
2.85
2.21
1.43
0.45
-0.87
-2.61
-4.75
-7.28
-10.16
-13.39
-17.01
-20.84
-24.41
-26.96
-27.61
-25.76
-21.43
-15.3
-8.52
-2.25
2.74
6.32
8.93
11.2
13.59
16.15
18.55
20.32
21.11
20.91
20.03
18.94
18.01
17.42
17.03
16.57
15.82
14.72
13.41
12.09
10.89
9.8
8.61
7.14
5.22
2.79
-0.22
-3.9
-8.37
-13.67
-19.49
-25.1
-29.4
-31.36
-30.41
-26.76
-21.42
-15.73
-10.85
-7.31
-4.9
-2.91
-0.69
2.04
4.98
7.48
8.88
8.92
7.82
6.14
4.55
3.49
3.05
3.01
2.98
2.64
1.84
0.65
-0.74
-2.13
-3.44
-4.66
-5.87
-7.19
-8.77
-10.72
-13.14
-16.13
-19.71
-23.77
-27.94
-31.56
-33.81
-33.94
-31.59
-27.06
-21.18
-15.09
-9.79
-5.82
-3.07
-1.03
0.9
3.08
5.44
7.64
9.22
9.92
9.78
9.09
8.29
7.73
7.58
7.75
8.01
8.06
7.72
6.92
5.74
4.31
2.7
0.96
-0.96
-3.11
-5.56
-8.28
-11.22
-14.31
-17.51
-20.69
-23.54
-25.47
-25.82
-24.04
-20.03
-14.28
-7.79
-1.67
3.27
6.81
9.31
11.4
13.61
16.04
18.36
19.99
20.43
19.54
17.66
15.4
13.46
12.28
11.85
11.77
11.49
10.59
8.99
6.95
4.84
2.93
1.21
-0.5
-2.45
-4.8
-7.64
-10.98
-14.9
-19.46
-24.55
-29.7
-34.05
-36.51
-36.27
-33.14
-27.73
-21.29
-15.13
-10.15
-6.48
-3.63
-0.85
2.36
5.96
9.46
12.13
13.48
13.54
12.75
11.8
11.23
11.2
11.42
11.39
10.7
9.23
7.22
5.11
3.29
1.85
0.57
-0.98
-3.27
-6.55
-10.85
-15.96
-21.5
-26.93
-31.6
-34.73
-35.71
-34.17
-30.29
-24.72
-18.38
-12.21
-6.78
-2.18
1.81
5.54
9.17
12.51
15.16
16.68
16.85
15.88
14.29
12.71
11.62
11.07
10.75
10.12
8.76
6.62
4.02
1.46
-0.68
-2.31
-3.78
-5.65
-8.45
-12.45
-17.65
-23.71
-30.04
-35.88
-40.36
-42.64
-42.17
-38.91
-33.38
-26.54
-19.39
-12.61
-6.36
-0.42
5.57
11.65
17.43
22.24
25.42
26.69
26.31
24.96
23.38
22.07
21.12
20.23
18.97
17.02
14.36
11.24
8
4.94
2.09
-0.8
-4.11
-8.27
-13.55
-20.07
-27.67
-35.85
-43.79
-50.31
-54.17
-54.39
-50.74
-43.8
-34.9
-25.56
-16.9
-9.3
-2.41
4.4
11.59
19.06
26.14
31.94
35.73
37.2
36.63
34.74
32.37
30.23
28.61
27.38
26.14
24.4
21.88
18.59
14.8
10.77
6.69
2.49
-2.01
-7.03
-12.71
-19.14
-26.29
-33.94
-41.52
-48.04
-52.26
-53.05
-49.89
-43.15
-34.02
-24.03
-14.46
-5.95
1.63
8.85
16.18
23.74
31.14
37.68
42.73
45.94
47.35
47.36
46.49
45.25
43.99
42.78
41.52
39.97
37.95
35.41
32.51
29.45
26.37
23.24
19.82
15.79
10.9
5.05
-1.71
-9.28
-17.57
-26.43
-35.4
-43.64
-49.91
-53.03
-52.38
-48.27
-41.89
-34.82
-28.32
-22.82
-17.9
-12.69
-6.48
0.8
8.53
15.72
21.49
25.4
27.56
28.48
28.75
28.86
28.99
29.07
28.84
28.08
26.71
24.92
23.02
21.28
19.73
18.08
15.84
12.55
7.95
2.06
-4.84
-12.28
-19.57
-25.8
-29.87
-30.8
-28.06
-21.9
-13.29
-3.58
5.93
14.52
22.11
28.99
35.4
41.21
45.92
48.91
49.83
48.9
46.78
44.38
42.37
40.95
39.83
38.37
36.02
32.55
28.15
23.37
18.72
14.46
10.39
6.03
0.79
-5.71
-13.5
-22.22
-31.13
-39.29
-45.65
-49.24
-49.47
-46.31
-40.31
-32.5
-23.99
-15.66
-7.9
-0.65
6.32
13.15
19.62
25.25
29.47
31.94
32.71
32.19
30.97
29.55
28.14
26.67
24.86
22.52
19.68
16.65
13.84
11.57
9.8
8.16
6.06
2.97
-1.41
-7.04
-13.48
-20
-25.64
-29.39
-30.43
-28.4
-23.53
-16.64
-8.84
-1.13
5.87
12.02
17.54
22.64
27.32
31.29
34.18
35.76
36.13
35.66
34.79
33.77
32.55
30.76
27.99
24
18.91
13.26
7.78
3.09
-0.53
-3.27
-5.74
-8.77
-13.13
-19.32
-27.24
-36.21
-44.93
-51.84
-55.6
-55.49
-51.76
-45.51
-38.26
-31.33
-25.34
-20.21
-15.38
-10.39
-5.12
0.07
4.64
8.19
10.69
12.38
13.56
14.43
15
15.19
14.9
14.11
12.79
10.82
8.04
4.3
-0.36
-5.7
-11.23
-16.45
-21.03
-24.94
-28.37
-31.44
-33.89
-35.01
-33.85
-29.65
-22.38
-12.98
-3.14
5.26
10.89
13.4
13.57
12.92
13.03
14.98
18.94
24.24
29.69
34.15
36.97
38.12
38.03
37.16
35.73
33.63
30.68
27.02
23.19
20.02
18.06
17.3
16.97
15.88
12.87
7.33
-0.68
-10.41
-20.65
-30.08
-37.49
-42.06
-43.56
-42.37
-39.27
-35.17
-30.72
-26.13
-21.28
-16
-10.32
-4.66
0.37
4.18
6.51
7.44
7.29
6.39
5.01
3.29
1.31
-0.77
-2.75
-4.44
-5.79
-6.85
-7.85
-8.97
-10.43
-12.41
-15.07
-18.52
-22.68
-27.07
-30.88
-33.15
-33.17
-30.88
-26.89
-22.24
-17.83
-14.05
-10.68
-7.14
-3.01
1.74
6.65
11.11
14.62
16.98
18.28
18.75
18.66
18.21
17.64
17.17
16.97
17.23
18.11
19.73
22.09
24.96
27.72
29.4
28.97
25.82
20.2
13.3
6.99
3.13
2.92
6.45
12.81
20.46
27.81
33.72
37.62
39.51
39.67
38.45
36.21
33.28
29.96
26.52
23.16
19.99
17.08
14.53
12.47
11.06
10.32
10.06
9.87
9.34
8.17
6.31
3.85
0.9
-2.55
-6.56
-11.03
-15.44
-18.79
-19.98
-18.27
-13.69
-7.17
-0.14
6.09
10.77
13.97
16.24
18.17
20
21.59
22.53
22.55
21.67
20.19
18.48
16.73
14.96
13.06
10.97
8.75
6.58
4.63
2.94
1.4
-0.24
-2.18
-4.41
-6.69
-8.53
-9.37
-8.79
-6.68
-3.26
1.08
5.88
10.81
15.62
20.01
23.61
25.94
26.58
25.3
22.24
17.75
12.35
6.52
0.71
-4.74
-9.51
-13.46
-16.79
-20.1
-24.29
-30.05
-37.47
-45.84
-53.88
-60.32
-64.48
-66.54
-67.3
-67.63
-67.82
-67.46
-65.61
-61.4
-54.57
-45.6
-35.51
-25.45
-16.24
-8.2
-1.17
5.22
11.22
16.76
21.39
24.45
25.38
24.02
20.7
16.11
11.02
6.02
1.38
-2.84
-6.67
-10.08
-13.11
-15.88
-18.73
-22
-25.76
-29.56
-32.44
-33.26
-31.27
-26.54
-19.96
-12.96
-6.79
-2.08
1.34
4.19
7.08
10.26
13.4
15.9
17.21
17.16
15.92
13.88
11.46
9.05
7.04
5.84
5.66
6.4
7.34
7.42
5.54
1.05
-5.93
-14.45
-23.04
-30.18
-34.7
-36.1
-34.58
-30.86
-25.89
-20.57
-15.46
-10.7
-6.12
-1.4
3.55
8.53
12.97
16.16
17.46
16.56
13.6
9.18
4.2
-0.42
-4.06
-6.61
-8.43
-10.23
-12.72
-16.33
-21.11
-26.82
-33.06
-39.27
-44.7
-48.37
-49.19
-46.5
-40.47
-32.35
-24.13
-17.7
-14.06
-12.8
-12.46
-11.3
-8.25
-3.35
2.44
7.86
11.97
14.49
15.63
15.69
14.83
13.11
10.63
7.75
5.02
3
1.84
1.27
0.58
-1
-4.08
-8.98
-15.66
-23.74
-32.42
-40.45
-46.34
-48.77
-47.14
-41.87
-34.31
-26.11
-18.57
-12.15
-6.65
-1.7
2.82
6.54
8.93
9.69
9
7.41
5.44
3.36
1.11
-1.43
-4.24
-6.97
-9.12
-10.33
-10.57
-10.24
-9.98
-10.54
-12.47
-16.12
-21.46
-28.09
-35.15
-41.41
-45.49
-46.28
-43.33
-37.09
-28.77
-19.81
-11.41
-4.05
2.46
8.63
14.82
20.86
26.21
30.2
32.48
33.13
32.53
31.03
28.76
25.61
21.48
16.53
11.22
6.15
1.74
-1.96
-5.25
-8.64
-12.61
-17.51
-23.5
-30.51
-38.1
-45.3
-50.66
-52.6
-50.01
-42.82
-32.19
-20.11
-8.63
0.94
8.38
14.31
19.62
24.82
29.74
33.77
36.23
36.84
35.82
33.83
31.57
29.48
27.53
25.44
22.89
19.87
16.72
13.95
11.87
10.34
8.75
6.19
1.94
-4.3
-12.18
-20.71
-28.5
-33.99
-35.89
-33.53
-27.17
-18
-7.64
2.41
11.43
19.5
27.14
34.67
41.79
47.74
51.73
53.48
53.27
51.63
48.73
44.3
37.9
29.65
20.55
12.3
6.47
3.67
3.11
3.07
1.79
-1.73
-7.55
-15.07
-23.66
-32.8
-41.97
-50.17
-55.84
-57.28
-53.35
-44.21
-31.37
-17.18
-3.83
7.41
16.4
23.8
30.38
36.41
41.53
45.04
46.39
45.61
43.29
40.3
37.37
34.68
31.95
28.79
25.14
21.48
18.61
17.06
16.58
15.97
13.44
7.44
-2.62
-15.93
-30.42
-43.42
-52.47
-56.03
-53.74
-46.39
-35.52
-22.93
-10.31
1.17
10.91
18.85
25.37
30.87
35.66
39.75
42.96
45.05
45.89
45.56
44.29
42.37
39.94
37.01
33.5
29.45
25.08
20.73
16.71
12.99
9.11
4.25
-2.41
-11.26
-21.89
-32.97
-42.56
-48.64
-49.83
-45.79
-37.38
-26.23
-14.13
-2.41
8.36
18.26
27.69
36.83
45.39
52.64
57.72
60.09
59.89
57.95
55.44
53.32
51.91
50.7
48.72
45.07
39.5
32.57
25.38
19
13.93
9.83
5.8
0.76
-6.07
-14.89
-25.17
-35.74
-44.98
-51.16
-52.9
-49.67
-42
-31.34
-19.55
-8.19
1.95
10.98
19.46
27.87
36.16
43.71
49.65
53.37
54.76
54.3
52.69
50.58
48.36
46.09
43.67
40.94
37.83
34.34
30.47
26.19
21.4
15.93
9.61
2.33
-5.93
-15.04
-24.72
-34.43
-43.34
-50.3
-54.09
-53.76
-49.03
-40.54
-29.71
-18.31
-7.8
1.07
8.42
14.82
20.89
26.87
32.49
37.21
40.47
41.95
41.69
40
37.38
34.38
31.45
28.79
26.36
23.87
21.04
17.74
14.05
10.24
6.46
2.72
-1.23
-5.66
-10.74
-16.43
-22.52
-28.82
-35.16
-41.29
-46.78
-50.86
-52.58
-51.16
-46.34
-38.54
-28.7
-17.87
-6.97
3.47
13.1
21.61
28.65
33.93
37.3
38.87
39.02
38.16
36.64
34.73
32.64
30.59
28.78
27.3
25.99
24.51
22.52
19.82
16.53
12.93
9.33
5.89
2.47
-1.25
-5.66
-11.03
-17.37
-24.33
-31.23
-37.12
-41
-42.07
-39.98
-35
-27.98
-20.02
-12.2
-5.2
0.73
5.67
9.84
13.39
16.32
18.58
20.14
21.02
21.33
21.23
20.87
20.37
19.76
18.98
17.87
16.3
14.24
11.8
9.26
6.83
4.59
2.39
-0.05
-2.94
-6.24
-9.79
-13.35
-16.9
-20.66
-24.87
-29.47
-33.93
-37.19
-38.09
-35.86
-30.56
-23.07
-14.81
-7.1
-0.77
4.08
7.9
11.23
14.4
17.34
19.68
21.02
21.14
20.13
18.25
15.94
13.53
11.27
9.22
7.37
5.6
3.84
2.03
0.14
-1.88
-4.08
-6.53
-9.2
-12.01
-14.81
-17.47
-20.03
-22.7
-25.76
-29.35
-33.26
-36.87
-39.25
-39.49
-37.08
-32.12
-25.39
-17.99
-11.06
-5.3
-0.86
2.6
5.56
8.36
11
13.14
14.34
14.35
13.27
11.57
9.86
8.63
8.08
8.01
8.02
7.67
6.77
5.4
3.87
2.49
1.4
0.46
-0.64
-2.16
-4.26
-6.92
-10.05
-13.62
-17.6
-21.82
-25.77
-28.62
-29.42
-27.48
-22.83
-16.19
-8.88
-2.14
3.15
6.77
9.03
10.5
11.64
12.64
13.44
13.8
13.5
12.48
10.9
9.13
7.61
6.65
6.27
6.2
5.93
5.05
3.38
1.1
-1.38
-3.7
-5.71
-7.54
-9.46
-11.73
-14.48
-17.73
-21.41
-25.43
-29.59
-33.46
-36.35
-37.4
-35.95
-31.81
-25.54
-18.25
-11.21
-5.42
-1.26
1.44
3.14
4.23
4.8
4.71
3.83
2.3
0.53
-0.88
-1.49
-1.24
-0.47
0.23
0.34
-0.4
-1.85
-3.65
-5.43
-6.99
-8.42
-9.92
-11.72
-13.91
-16.51
-19.45
-22.73
-26.31
-29.99
-33.19
-35.07
-34.75
-31.75
-26.34
-19.46
-12.47
-6.53
-2.17
0.78
2.89
4.7
6.36
7.61
8.1
7.69
6.7
5.71
5.3
5.72
6.79
7.94
8.54
8.18
6.76
4.6
2.2
0.03
-1.59
-2.69
-3.57
-4.64
-6.3
-8.76
-11.98
-15.68
-19.39
-22.56
-24.56
-24.78
-22.86
-18.81
-13.1
-6.65
-0.47
4.62
8.3
10.79
12.64
14.4
16.28
18.11
19.49
20.06
19.79
18.96
18.08
17.55
17.46
17.47
17.13
16.04
14.16
11.73
9.2
6.92
4.98
3.23
1.38
-0.82
-3.54
-6.82
-10.64
-14.84
-19.07
-22.76
-25.15
-25.58
-23.81
-20.17
-15.54
-10.97
-7.28
-4.73
-3.02
-1.64
-0.22
1.23
2.3
2.57
1.9
0.57
-0.86
-1.92
-2.52
-2.99
-3.85
-5.5
-7.9
-10.58
-12.89
-14.28
-14.63
-14.24
-13.72
-13.73
-14.69
-16.78
-19.84
-23.52
-27.18
-30.07
-31.32
-30.27
-26.72
-21.08
-14.36
-7.74
-2.19
1.97
4.94
7.29
9.43
11.42
12.95
13.64
13.34
12.24
10.81
9.55
8.73
8.29
7.91
7.21
5.96
4.27
2.45
0.89
-0.15
-0.74
-1.18
-1.94
-3.41
-5.81
-9.15
-13.2
-17.51
-21.44
-24.23
-25.16
-23.82
-20.31
-15.26
-9.57
-4.13
0.52
4.28
7.37
10.01
12.23
13.85
14.57
14.25
13.11
11.69
10.69
10.63
11.67
13.37
14.88
15.25
13.82
10.59
6.15
1.44
-2.73
-6
-8.66
-11.28
-14.46
-18.44
-23.08
-28.01
-32.77
-36.96
-40.17
-41.96
-41.89
-39.67
-35.46
-29.82
-23.64
-17.79
-12.79
-8.69
-5.19
-1.93
1.28
4.32
6.9
8.75
9.76
10.12
10.2
10.4
10.93
11.7
12.3
12.2
10.99
8.59
5.29
1.65
-1.75
-4.57
-6.85
-8.98
-11.52
-14.97
-19.56
-25.12
-31.03
-36.34
-40
-41.12
-39.24
-34.52
-27.64
-19.63
-11.46
-3.87
2.83
8.67
13.85
18.48
22.5
25.67
27.67
28.29
27.56
25.79
23.5
21.28
19.55
18.47
17.87
17.39
16.7
15.6
14.12
12.42
10.64
8.78
6.67
4.08
0.83
-3.12
-7.73
-12.89
-18.47
-24.18
-29.48
-33.53
-35.35
-34.27
-30.22
-23.88
-16.41
-9.03
-2.48
3.1
8.07
12.91
17.86
22.79
27.26
30.75
32.81
33.25
32.13
29.79
26.74
23.6
20.84
18.65
16.92
15.36
13.66
11.69
9.53
7.4
5.43
3.59
1.66
-0.67
-3.67
-7.52
-12.17
-17.32
-22.39
-26.53
-28.81
-28.49
-25.25
-19.43
-12.02
-4.38
2.14
6.74
9.45
11.13
13.12
16.6
21.98
28.53
34.56
37.92
37
31.35
22.09
11.45
1.95
-4.49
-7.05
-6.13
-2.89
1.18
4.63
6.27
5.25
1.12
-6.01
-15.48
-26.15
-36.65
-45.65
-52.11
-55.37
-55.29
-52.3
-47.33
-41.62
-36.23
-31.6
-27.37
-22.66
-16.81
-9.89
-2.82
3.16
7.34
10.04
12.31
15.15
18.66
21.94
23.72
23.33
21.27
19.02
18.07
19.04
21.31
23.52
24.37
23.32
20.64
16.98
12.85
8.46
3.93
-0.34
-3.62
-5.07
-4.18
-1.09
3.44
8.34
12.71
16.07
18.47
20.39
22.35
24.66
27.21
29.44
30.63
30.21
28.09
24.66
20.65
16.77
13.56
11.34
10.31
10.56
11.98
14.1
16.05
16.74
15.34
11.71
6.63
1.58
-1.8
-2.32
0.32
5.58
12.32
19.34
25.7
30.87
34.69
37.21
38.5
38.59
37.54
35.44
32.52
29.07
25.41
21.7
17.99
14.21
10.32
6.48
2.94
0.02
-2.13
-3.65
-4.94
-6.54
-8.92
-12.36
-16.85
-22.13
-27.64
-32.51
-35.75
-36.45
-34.2
-29.27
-22.65
-15.71
-9.62
-5.01
-1.77
0.62
2.71
4.7
6.39
7.38
7.39
6.49
5.01
3.36
1.79
0.34
-1.12
-2.69
-4.29
-5.72
-6.82
-7.57
-8.19
-9.1
-10.59
-12.71
-15.09
-17.09
-18.03
-17.39
-15.12
-11.53
-7.23
-2.86
1.1
4.42
7.14
9.46
11.62
13.76
15.85
17.67
18.9
19.19
18.44
16.77
14.59
12.32
10.22
8.32
6.41
4.34
2.1
-0.18
-2.36
-4.59
-7.29
-10.93
-15.67
-21.04
-25.89
-28.77
-28.57
-25.08
-19.07
-12
-5.28
0.37
5.05
9.41
14.09
19.22
24.35
28.74
31.8
33.33
33.54
32.72
31.06
28.59
25.39
21.71
17.99
14.67
11.91
9.48
6.93
3.85
0.04
-4.43
-9.3
-14.23
-18.78
-22.39
-24.38
-24.17
-21.57
-17.04
-11.48
-5.93
-1.05
3.06
6.65
9.95
12.82
14.81
15.42
14.55
12.53
10.01
7.54
5.36
3.33
1.26
-0.95
-3.17
-5.17
-6.84
-8.28
-9.75
-11.45
-13.45
-15.61
-17.74
-19.72
-21.48
-22.94
-23.88
-23.83
-22.32
-19.07
-14.3
-8.74
-3.38
0.99
4.08
6.22
8.04
10.02
12.15
13.93
14.73
14.25
12.75
10.94
9.55
8.85
8.49
7.7
5.79
2.6
-1.42
-5.47
-8.92
-11.66
-14.15
-17.16
-21.25
-26.38
-31.82
-36.36
-38.8
-38.42
-35.29
-30.15
-24.15
-18.35
-13.34
-9.21
-5.69
-2.46
0.56
3.16
5.04
5.93
5.85
5.11
4.16
3.39
2.89
2.52
1.91
0.73
-1.15
-3.55
-6.14
-8.52
-10.56
-12.44
-14.65
-17.77
-22.13
-27.6
-33.47
-38.64
-41.88
-42.32
-39.72
-34.55
-27.77
-20.46
-13.43
-7.08
-1.43
3.63
8.05
11.63
14.07
15.16
14.98
13.9
12.42
10.97
9.74
8.65
7.43
5.83
3.74
1.3
-1.21
-3.55
-5.66
-7.75
-10.21
-13.49
-17.87
-23.38
-29.7
-36.17
-41.93
-46.01
-47.66
-46.52
-42.75
-36.99
-30.06
-22.68
-15.24
-7.86
-0.56
6.34
12.3
16.57
18.69
18.79
17.6
16.21
15.56
16.01
17.23
18.5
19.08
18.64
17.35
15.65
13.97
12.48
10.99
9.14
6.53
2.8
-2.33
-8.97
-16.96
-25.65
-33.9
-40.32
-43.72
-43.49
-39.78
-33.27
-24.82
-15.04
-4.3
7.07
18.5
29.06
37.68
43.45
46.05
45.88
43.77
40.71
37.46
34.38
31.44
28.39
24.95
21.01
16.65
12.13
7.77
3.78
0.17
-3.31
-7.04
-11.42
-16.59
-22.3
-27.88
-32.45
-35.12
-35.32
-32.87
-28.03
-21.3
-13.35
-4.82
3.78
12.04
19.59
26.09
31.18
34.56
36.15
36.25
35.45
34.58
34.23
34.51
34.97
34.76
33.16
30
25.72
21.13
16.97
13.45
10.28
6.92
2.87
-2.11
-8.03
-14.65
-21.49
-27.68
-32.03
-33.28
-30.65
-24.25
-15.19
-5.04
4.73
13.43
21.11
28.17
34.77
40.59
44.89
47.09
47.16
45.72
43.76
42.2
41.43
41.3
41.23
40.52
38.63
35.32
30.71
25.18
19.25
13.42
7.92
2.72
-2.5
-8.11
-14.28
-20.79
-26.97
-31.86
-34.56
-34.55
-31.85
-27.05
-21.03
-14.72
-8.77
-3.41
1.48
6.33
11.54
17.39
23.78
30.19
35.82
39.74
41.35
40.67
38.43
35.79
33.75
32.6
31.78
30.23
27.06
22.18
16.34
10.74
6.28
3.13
0.61
-2.27
-6.33
-11.74
-17.93
-23.8
-28.11
-29.88
-28.68
-24.83
-19.31
-13.3
-7.76
-2.93
1.62
6.57
12.3
18.54
24.4
28.89
31.41
31.99
31.15
29.5
27.43
24.99
22.06
18.55
14.49
10.08
5.6
1.43
-2.03
-4.44
-5.74
-6.3
-6.96
-8.76
-12.61
-18.77
-26.68
-35.06
-42.35
-47.15
-48.64
-46.74
-41.99
-35.34
-27.85
-20.34
-13.24
-6.61
-0.16
6.41
13.16
19.73
25.45
29.55
31.5
31.23
29.18
26.1
22.79
19.82
17.4
15.33
13.23
10.72
7.71
4.42
1.32
-1.13
-2.78
-3.88
-5.05
-7.01
-10.26
-14.93
-20.76
-27.04
-32.85
-37.11
-38.84
-37.41
-32.76
-25.52
-16.82
-7.91
0.27
7.36
13.49
19.01
24.12
28.67
32.28
34.54
35.31
34.75
33.25
31.24
29.13
27.14
25.36
23.73
22.13
20.36
18.29
15.88
13.27
10.68
8.25
5.99
3.68
1
-2.28
-6.22
-10.62
-15.08
-19.1
-22.13
-23.7
-23.5
-21.56
-18.21
-14.01
-9.57
-5.26
-1.18
2.85
7.1
11.64
16.3
20.67
24.25
26.63
27.56
27.1
25.55
23.39
21.15
19.21
17.66
16.34
14.91
13.05
10.6
7.65
4.41
1.14
-1.96
-4.81
-7.45
-10.01
-12.68
-15.73
-19.37
-23.7
-28.48
-33.15
-36.85
-38.71
-38.14
-35.07
-29.99
-23.78
-17.35
-11.37
-6.14
-1.61
2.48
6.32
9.93
13.09
15.48
16.78
16.92
16.11
14.79
13.5
12.65
12.34
12.34
12.18
11.35
9.53
6.69
3.08
-0.84
-4.63
-7.96
-10.67
-12.78
-14.44
-15.91
-17.49
-19.49
-22.17
-25.61
-29.55
-33.34
-36
-36.61
-34.6
-30.11
-23.95
-17.28
-11.19
-6.28
-2.56
0.4
3.12
5.94
8.84
11.55
13.67
14.86
15.01
14.19
12.71
10.93
9.22
7.8
6.68
5.67
4.5
2.94
0.89
-1.58
-4.31
-7.09
-9.75
-12.2
-14.35
-16.22
-17.89
-19.62
-21.76
-24.74
-28.74
-33.49
-38.18
-41.65
-42.78
-40.94
-36.29
-29.64
-22.1
-14.7
-8.01
-2.13
3.1
7.92
12.38
16.32
19.5
21.67
22.75
22.87
22.31
21.42
20.51
19.76
19.2
18.83
18.63
18.53
18.41
18.03
17.07
15.3
12.67
9.41
5.94
2.66
-0.2
-2.66
-4.97
-7.51
-10.6
-14.36
-18.58
-22.67
-25.77
-26.97
-25.71
-22.06
-16.72
-10.78
-5.29
-0.87
2.49
5.24
7.95
10.97
14.26
17.4
19.86
21.29
21.58
20.98
19.89
18.75
17.82
17.17
16.67
16.14
15.36
14.23
12.74
10.88
8.74
6.35
3.81
1.24
-1.24
-3.55
-5.62
-7.55
-9.46
-11.46
-13.57
-15.53
-16.82
-16.77
-14.9
-11.17
-6.13
-0.77
3.85
7.1
8.88
9.62
9.93
10.26
10.73
11.22
11.47
11.34
10.69
9.43
7.39
4.38
0.31
-4.66
-10.09
-15.32
-19.7
-22.82
-24.65
-25.55
-26.03
-26.55
-27.25
-28.05
-28.7
-29.07
-29.33
-29.81
-30.98
-33.16
-36.35
-40.21
-44.01
-46.78
-47.46
-45.26
-39.93
-31.93
-22.34
-12.51
-3.64
3.54
8.85
12.54
15.07
16.87
18.23
19.28
19.93
19.99
19.24
17.58
15.17
12.36
9.65
7.36
5.54
3.96
2.33
0.5
-1.43
-3.17
-4.47
-5.31
-5.92
-6.72
-8.06
-10.12
-12.88
-16.25
-20.21
-24.68
-29.42
-33.82
-36.95
-37.83
-35.92
-31.46
-25.42
-19.18
-13.93
-10.2
-7.72
-5.74
-3.46
-0.47
3.02
6.44
9.11
10.64
11.12
10.98
10.78
10.98
11.65
12.62
13.51
14.02
13.99
13.46
12.52
11.23
9.52
7.31
4.61
1.63
-1.36
-4.09
-6.56
-9.1
-12.17
-16.09
-20.68
-25.17
-28.43
-29.41
-27.56
-23.18
-17.27
-11.06
-5.62
-1.42
1.67
4.17
6.64
9.43
12.51
15.61
18.35
20.36
21.42
21.5
20.75
19.47
18.07
16.94
16.32
16.23
16.47
16.66
16.42
15.48
13.76
11.34
8.48
5.45
2.46
-0.43
-3.3
-6.38
-9.97
-14.35
-19.66
-25.66
-31.65
-36.55
-39.15
-38.57
-34.66
-28.18
-20.52
-13.2
-7.29
-3
0.26
3.46
7.38
12.25
17.58
22.5
26.1
27.88
27.87
26.53
24.54
22.48
20.69
19.19
17.83
16.35
14.56
12.33
9.63
6.51
3.01
-0.74
-4.54
-8.19
-11.53
-14.53
-17.45
-20.75
-24.93
-30.27
-36.53
-42.85
-47.89
-50.35
-49.44
-45.27
-38.8
-31.39
-24.27
-18.06
-12.75
-7.93
-3.15
1.79
6.74
11.4
15.41
18.52
20.57
21.47
21.27
20.12
18.42
16.68
15.38
14.78
14.81
15.08
15.06
14.25
12.32
9.23
5.18
0.59
-4.05
-8.32
-11.95
-15.01
-17.8
-20.87
-24.77
-29.81
-35.77
-41.74
-46.32
-48.04
-45.88
-39.74
-30.53
-19.87
-9.48
-0.59
6.38
11.79
16.46
21.18
26.41
32.17
38.09
43.64
48.21
51.26
52.33
51.24
48.1
43.33
37.6
31.61
26
21.12
17.09
13.85
11.29
9.33
7.95
7.05
6.39
5.57
4.08
1.48
-2.58
-8.26
-15.52
-24.23
-33.92
-43.71
-52.26
-57.96
-59.47
-56.22
-48.73
-38.55
-27.61
-17.55
-9.19
-2.41
3.5
9.25
15.09
20.72
25.39
28.32
29.08
27.73
24.85
21.37
18.24
16.08
14.96
14.41
13.59
11.74
8.49
4
-1.1
-6.08
-10.42
-14.01
-17.04
-19.83
-22.66
-25.66
-28.88
-32.46
-36.5
-40.95
-45.31
-48.61
-49.66
-47.5
-41.85
-33.28
-23.04
-12.52
-2.8
5.65
12.95
19.49
25.59
31.28
36.29
40.18
42.56
43.28
42.58
40.95
39.06
37.46
36.41
35.87
35.53
35.07
34.19
32.72
30.61
27.87
24.53
20.7
16.59
12.42
8.42
4.57
0.7
-3.6
-8.64
-14.4
-20.33
-25.33
-28.06
-27.49
-23.33
-16.18
-7.36
1.65
9.72
16.38
21.85
26.61
31.18
35.72
40.08
43.88
46.7
48.23
48.36
47.12
44.78
41.77
38.53
35.45
32.74
30.41
28.35
26.37
24.33
22.09
19.51
16.5
12.94
8.85
4.34
-0.35
-4.95
-9.3
-13.45
-17.74
-22.55
-28.03
-33.83
-39.03
-42.37
-42.8
-39.93
-34.26
-26.95
-19.39
-12.64
-7.09
-2.54
1.47
5.4
9.34
13.11
16.28
18.41
19.18
18.5
16.57
13.83
10.85
8.13
5.95
4.35
3.14
2.1
1.05
-0.07
-1.28
-2.57
-4
-5.65
-7.53
-9.58
-11.74
-13.99
-16.48
-19.52
-23.36
-27.97
-32.87
-37.09
-39.46
-39.05
-35.6
-29.62
-22.27
-14.85
-8.33
-3.11
1.08
4.81
8.62
12.76
17.08
21.16
24.44
26.47
27.07
26.41
24.95
23.34
22.13
21.59
21.53
21.51
20.99
19.69
17.67
15.24
12.72
10.21
7.56
4.6
1.27
-2.22
-5.55
-8.55
-11.38
-14.4
-17.85
-21.51
-24.59
-25.96
-24.76
-20.85
-14.95
-8.31
-2.15
2.79
6.51
9.52
12.44
15.67
19.18
22.67
25.73
28.03
29.41
29.88
29.55
28.64
27.42
26.09
24.76
23.36
21.69
19.55
16.94
14.07
11.3
8.93
7.03
5.34
3.39
0.71
-2.99
-7.68
-13.09
-18.74
-24
-28.16
-30.54
-30.68
-28.45
-24.16
-18.53
-12.42
-6.62
-1.57
2.66
6.23
9.42
12.36
14.96
16.95
18.02
18.02
17.06
15.48
13.68
11.96
10.39
8.79
6.9
4.58
1.94
-0.66
-2.83
-4.32
-5.19
-5.77
-6.51
-7.81
-9.84
-12.57
-15.83
-19.37
-22.84
-25.78
-27.61
-27.81
-26.1
-22.66
-18.08
-13.2
-8.73
-5
-1.87
0.98
3.88
6.89
9.86
12.45
14.39
15.53
15.85
15.43
14.37
12.81
10.9
8.73
6.37
3.79
0.97
-2.09
-5.23
-8.23
-10.88
-13.15
-15.23
-17.48
-20.3
-23.94
-28.31
-33.04
-37.47
-40.85
-42.54
-42.19
-39.82
-35.9
-31.1
-26.13
-21.35
-16.69
-11.71
-5.89
0.98
8.6
16.11
22.44
26.79
28.93
29.32
28.84
28.41
28.63
29.67
31.37
33.23
34.62
34.78
33.08
29.33
24.02
18.36
13.76
11.2
10.62
10.9
10.32
7.5
2.08
-5.04
-12.29
-18.19
-21.99
-23.82
-24.28
-23.88
-22.67
-20.27
-16.24
-10.56
-3.85
2.76
8.09
11.4
12.7
12.63
12.09
11.74
11.71
11.65
11.01
9.37
6.68
3.17
-0.71
-4.42
-7.39
-8.9
-8.27
-5.15
0.05
5.97
10.48
11.46
7.72
-0.23
-10.26
-19.47
-25.44
-27.33
-26.09
-23.72
-22.11
-22.01
-22.88
-23.41
-22.52
-19.87
-15.84
-10.9
-5.15
1.6
9.33
17.23
23.78
27.37
27.27
24.18
19.9
16.34
14.44
13.8
13.06
10.95
7.16
2.53
-1.43
-3.35
-2.68
0.13
3.81
6.88
8.15
7.2
4.3
0.28
-4.03
-8.12
-11.92
-15.6
-19.19
-22.44
-24.72
-25.44
-24.31
-21.35
-16.8
-10.83
-3.52
4.87
13.56
21.26
26.5
28.33
26.79
22.93
18.34
14.43
11.98
10.95
10.94
11.42
12.03
12.53
12.75
12.5
11.66
10.37
8.99
7.97
7.55
7.45
6.99
5.2
1.45
-4.24
-11.07
-17.75
-23.11
-26.61
-28.41
-29
-28.72
-27.39
-24.55
-19.89
-13.79
-7.36
-1.99
1.32
2.51
2.42
2.35
3.34
5.73
9.01
12.17
14.19
14.44
12.93
10.26
7.39
5.26
4.45
5.02
6.48
8.04
8.89
8.56
6.95
4.45
1.73
-0.43
-1.34
-0.53
2.12
6.22
10.91
14.78
16.27
14.16
8.2
-0.51
-9.75
-16.85
-19.8
-17.97
-12.36
-4.97
2.2
7.92
12.03
14.97
17.16
18.54
18.66
17.11
14.09
10.4
7.1
5.01
4.17
3.98
3.53
2.19
-0.1
-2.82
-5.22
-6.77
-7.4
-7.53
-7.82
-8.84
-10.88
-13.84
-17.4
-21.16
-24.73
-27.72
-29.69
-30.21
-28.98
-26.04
-21.82
-17.09
-12.54
-8.6
-5.16
-1.8
1.91
6.15
10.62
14.78
18
19.99
20.79
20.85
20.78
21.07
21.97
23.28
24.51
25.11
24.67
23.21
21.05
18.73
16.7
15.19
14.17
13.37
12.34
10.58
7.61
3.14
-2.76
-9.5
-16.04
-21.24
-24.15
-24.36
-22.13
-18.2
-13.52
-8.93
-4.91
-1.52
1.53
4.7
8.4
12.73
17.39
21.7
24.83
26.15
25.41
22.92
19.36
15.46
11.74
8.41
5.32
2.24
-1
-4.38
-7.72
-10.79
-13.39
-15.44
-16.93
-17.83
-18.14
-17.84
-17
-15.69
-13.98
-11.78
-8.84
-4.81
0.54
7.15
14.6
22.15
28.94
34.26
37.72
39.34
39.48
38.68
37.4
35.86
33.97
31.41
27.93
23.58
18.8
14.28
10.62
7.97
5.91
3.6
0.24
-4.46
-10.12
-15.78
-20.39
-23.3
-24.53
-24.81
-25.16
-26.46
-29.03
-32.68
-36.86
-40.96
-44.46
-46.97
-48.14
-47.68
-45.52
-41.96
-37.76
-33.79
-30.74
-28.69
-27.15
-25.33
-22.72
-19.44
-16.24
-14.15
-13.96
-15.92
-19.74
-24.78
-30.32
-35.82
-40.88
-45.32
-49.15
-52.6
-56.1
-60.1
-64.9
-70.46
-76.34
-81.86
-86.38
-89.47
-91.03
-91.27
-90.5
-89.11
-87.4
-85.49
-83.32
-80.69
-77.35
-73.19
-68.32
-63.11
-58.03
-53.56
-49.93
-47.22
-45.31
-44.13
-43.73
-44.33
-46.32
-50.11
-56.01
-63.95
-73.26
-82.41
-89.13
-90.94
-85.97
-73.7
-55.19
-32.74
-8.87
14.45
36.27
56.25
73.97
88.46
98.2
101.92
99.38
91.74
81.24
70.34
60.77
53.13
47.07
41.9
37.06
32.41
28.05
24.03
20.32
16.92
14.08
12.24
11.78
12.49
13.4
13.05
10.31
5.11
-1.27
-6.69
-9.23
-8.24
-4.57
0.04
3.98
6.77
9.2
12.76
18.58
26.66
35.61
43.23
47.34
46.59
40.91
31.53
20.47
9.92
1.5
-4.12
-7.24
-8.81
-9.89
-11.19
-12.81
-14.4
-15.44
-15.68
-15.29
-14.83
-14.9
-15.88
-17.7
-20.05
-22.57
-25.12
-27.59
-29.72
-30.81
-29.9
-26.28
-20.02
-12.19
-4.38
2.19
7.27
11.68
16.61
22.77
29.85
36.88
42.83
47.26
50.49
53.06
55.38
57.41
59.04
60.37
61.97
64.63
68.94
74.98
82.19
89.67
96.39
101.52
104.36
104.47
101.73
96.46
89.48
81.88
74.7
68.54
63.39
58.72
53.78
48.01
41.2
33.62
25.74
18.08
10.93
4.32
-1.92
-8.04
-14.31
-20.92
-27.77
-34.41
-39.99
-43.46
-43.96
-41.22
-35.82
-28.99
-22.17
-16.38
-11.92
-8.33
-4.79
-0.66
4.23
9.55
14.66
18.93
21.99
23.87
24.85
25.36
25.73
26.07
26.18
25.76
24.49
22.31
19.37
16.04
12.69
9.55
6.66
3.83
0.8
-2.74
-7.11
-12.49
-18.8
-25.5
-31.56
-35.64
-36.62
-34.09
-28.59
-21.39
-13.96
-7.29
-1.57
3.71
9.27
15.49
22.14
28.4
33.33
36.22
36.95
35.94
34
31.88
30.05
28.5
26.85
24.6
21.46
17.57
13.46
9.8
7.03
5.13
3.67
2.01
-0.38
-3.78
-8.15
-13.25
-18.78
-24.3
-29.24
-32.9
-34.6
-33.95
-31.08
-26.64
-21.54
-16.6
-12.16
-8.11
-4.06
0.24
4.69
8.81
12.02
13.97
14.66
14.42
13.65
12.63
11.41
9.83
7.78
5.29
2.63
0.18
-1.76
-3.11
-4.1
-5.1
-6.54
-8.72
-11.75
-15.57
-20.02
-24.97
-30.13
-35.06
-39.02
-41.11
-40.52
-36.91
-30.69
-22.92
-14.95
-7.91
-2.27
2.2
6.14
10.2
14.54
18.84
22.46
24.83
25.76
25.44
24.38
23.07
21.85
20.71
19.44
17.78
15.6
12.99
10.24
7.74
5.73
4.19
2.8
1.07
-1.52
-5.31
-10.36
-16.5
-23.27
-30.06
-36.05
-40.39
-42.35
-41.54
-38.16
-32.91
-26.81
-20.78
-15.34
-10.51
-5.98
-1.42
3.08
7.08
9.87
10.9
10.13
8.1
5.82
4.24
3.92
4.81
6.33
7.74
8.51
8.52
8.05
7.47
6.98
6.43
5.46
3.68
0.93
-2.66
-6.76
-11
-15.04
-18.57
-21.11
-22.03
-20.73
-16.93
-10.95
-3.66
3.81
10.64
16.56
21.88
27.03
32.1
36.66
39.89
41.15
40.41
38.4
36.23
34.8
34.32
34.25
33.66
31.81
28.6
24.63
20.94
18.41
17.4
17.49
17.78
17.22
15.04
10.96
5.15
-1.86
-9.24
-15.97
-20.92
-23.05
-21.83
-17.53
-11.31
-4.9
0.1
2.84
3.57
3.47
3.95
6.04
9.88
14.85
19.9
24.15
27.21
29.22
30.56
31.62
32.49
33.03
33
32.27
30.9
29.12
27.13
24.98
22.45
19.16
14.77
9.21
2.73
-4.15
-10.9
-17.04
-22.23
-26.13
-28.33
-28.44
-26.21
-21.82
-16.01
-9.81
-4.34
-0.27
2.27
3.67
4.47
5.04
5.42
5.35
4.56
2.99
0.9
-1.29
-3.23
-4.87
-6.52
-8.64
-11.57
-15.29
-19.38
-23.24
-26.38
-28.65
-30.21
-31.4
-32.5
-33.65
-34.84
-36.09
-37.52
-39.25
-41.17
-42.83
-43.41
-41.96
-37.89
-31.2
-22.65
-13.45
-4.81
2.45
8.21
12.89
17.17
21.56
26.2
30.8
34.89
38.09
40.26
41.56
42.28
42.74
43.07
43.23
43.09
42.41
41
38.79
35.79
32.14
28.04
23.68
19.15
14.49
9.59
4.39
-1.13
-6.75
-12.06
-16.45
-19.25
-19.89
-18.13
-14.18
-8.7
-2.64
3.04
7.65
10.98
13.27
15.02
16.67
18.34
19.76
20.51
20.24
18.95
16.96
14.82
12.97
11.57
10.46
9.26
7.65
5.46
2.8
-0.06
-2.81
-5.26
-7.33
-9.1
-10.76
-12.53
-14.62
-17.17
-20.27
-23.88
-27.85
-31.81
-35.16
-37.18
-37.21
-34.99
-30.8
-25.46
-19.95
-15.08
-11.21
-8.15
-5.48
-2.8
0.01
2.78
5.19
6.9
7.74
7.71
6.97
5.77
4.39
3.08
1.93
0.94
-0.05
-1.12
-2.3
-3.47
-4.5
-5.33
-6.07
-6.98
-8.35
-10.34
-12.92
-15.85
-18.8
-21.49
-23.67
-25.15
-25.66
-24.92
-22.78
-19.3
-14.9
-10.29
-6.19
-3.06
-0.9
0.68
2.21
3.96
5.8
7.27
7.79
7.16
5.58
3.72
2.32
1.86
2.27
3.01
3.31
2.59
0.76
-1.73
-4.15
-5.88
-6.66
-6.74
-6.69
-7.12
-8.41
-10.66
-13.6
-16.81
-19.73
-21.85
-22.62
-21.68
-18.92
-14.65
-9.58
-4.62
-0.58
2.18
3.77
4.67
5.47
6.5
7.75
8.85
9.35
8.89
7.44
5.26
2.88
0.75
-0.81
-1.85
-2.62
-3.54
-4.94
-6.93
-9.37
-11.97
-14.46
-16.65
-18.55
-20.23
-21.75
-23.14
-24.45
-25.8
-27.39
-29.41
-31.79
-34.04
-35.31
-34.71
-31.74
-26.62
-20.26
-13.9
-8.57
-4.7
-2.04
-0.01
1.95
4.08
6.22
7.98
9.07
9.38
9.08
8.48
7.91
7.58
7.55
7.72
7.94
8.1
8.17
8.18
8.23
8.34
8.46
8.43
8.09
7.28
5.91
4
1.6
-1.28
-4.63
-8.34
-12.11
-15.35
-17.26
-17.09
-14.54
-9.9
-4.07
1.8
6.72
10.22
12.39
13.72
14.77
15.91
17.29
18.77
20.13
21.13
21.59
21.36
20.42
18.86
16.87
14.78
12.89
11.42
10.35
9.47
8.4
6.84
4.67
2.04
-0.65
-2.97
-4.69
-5.85
-6.8
-7.98
-9.78
-12.38
-15.69
-19.29
-22.5
-24.5
-24.57
-22.34
-18.01
-12.27
-6.11
-0.44
4.17
7.63
10.18
12.2
13.89
15.2
15.89
15.71
14.59
12.77
10.7
8.88
7.62
6.85
6.18
5.02
3.03
0.22
-2.89
-5.63
-7.45
-8.24
-8.4
-8.62
-9.58
-11.69
-15.06
-19.49
-24.55
-29.6
-33.81
-36.24
-36.09
-33.01
-27.34
-20.13
-12.75
-6.42
-1.74
1.44
3.84
6.25
9.12
12.37
15.49
17.79
18.76
18.25
16.45
13.79
10.76
7.67
4.68
1.71
-1.36
-4.59
-7.9
-11.06
-13.82
-16.04
-17.85
-19.56
-21.58
-24.23
-27.58
-31.56
-36.02
-40.8
-45.71
-50.4
-54.28
-56.67
-57.13
-55.73
-53.13
-50.23
-47.67
-45.46
-42.97
-39.31
-33.93
-26.97
-19.3
-12.14
-6.49
-2.68
-0.27
1.74
4.4
8.33
13.41
18.83
23.49
26.52
27.75
27.71
27.36
27.47
28.16
28.86
28.59
26.5
22.17
15.77
7.71
-1.48
-11.26
-20.91
-29.47
-35.82
-39.1
-39.03
-36.12
-31.47
-26.2
-20.92
-15.64
-9.91
-3.47
3.42
9.91
15.01
18.02
19
18.64
17.92
17.61
17.9
18.43
18.55
17.75
15.95
13.55
11.18
9.38
8.3
7.64
6.82
5.22
2.46
-1.5
-6.36
-11.4
-15.62
-17.87
-17.17
-13.09
-5.98
3.06
12.59
21.34
28.62
34.46
39.41
44.16
49.21
54.67
60.27
65.47
69.66
72.31
73.12
72.09
69.51
65.79
61.42
56.79
52.2
47.85
43.88
40.28
36.9
33.41
29.3
24.06
17.32
9.02
-0.47
-10.26
-19.11
-25.65
-28.84
-28.37
-24.81
-19.44
-13.75
-8.85
-5.17
-2.42
0.05
2.75
5.7
8.38
10.01
9.99
8.31
5.61
2.9
1
0.19
0.02
-0.4
-1.91
-4.87
-9.06
-13.82
-18.45
-22.61
-26.41
-30.31
-34.75
-39.95
-45.66
-51.3
-56.05
-59.15
-60.1
-58.72
-55.19
-49.91
-43.43
-36.27
-28.88
-21.51
-14.22
-6.99
0.21
7.24
13.78
19.38
23.66
26.47
27.97
28.55
28.57
28.22
27.41
25.94
23.62
20.51
16.91
13.2
9.66
6.27
2.64
-1.79
-7.56
-14.86
-23.37
-32.27
-40.3
-46.14
-48.76
-47.78
-43.56
-37.1
-29.61
-22.04
-14.78
-7.66
-0.24
7.71
15.92
23.64
29.91
34.09
36.09
36.37
35.67
34.64
33.52
32.1
29.94
26.69
22.35
17.39
12.57
8.62
5.92
4.3
3.09
1.41
-1.55
-6.25
-12.59
-20.03
-27.51
-33.74
-37.43
-37.73
-34.51
-28.51
-21
-13.33
-6.37
-0.23
5.47
11.18
16.92
22.11
25.94
27.79
27.65
26.17
24.31
22.86
22.07
21.56
20.66
18.78
15.83
12.25
8.78
6.02
4.2
2.93
1.52
-0.81
-4.58
-9.88
-16.37
-23.29
-29.65
-34.34
-36.44
-35.49
-31.69
-25.92
-19.33
-12.92
-7.16
-1.93
3.3
8.91
14.9
20.77
25.79
29.33
31.17
31.57
31.13
30.47
30.01
29.82
29.6
28.95
27.64
25.76
23.73
22.07
21.17
20.98
21.08
20.84
19.64
17.13
13.38
8.88
4.46
1.15
-0.11
1.26
5.27
11.32
18.46
25.73
32.56
38.82
44.75
50.56
56.28
61.56
65.87
68.76
70.01
69.82
68.65
67.03
65.36
63.74
62
59.85
57.04
53.58
49.67
45.6
41.54
37.35
32.53
26.43
18.45
8.34
-3.63
-16.66
-29.59
-41.12
-50.06
-55.66
-57.68
-56.51
-52.94
-47.93
-42.3
-36.52
-30.72
-24.86
-18.92
-13.1
-7.77
-3.33
-0.03
2.17
3.45
4.11
4.4
4.4
4.17
3.75
3.27
2.88
2.66
2.56
2.37
1.76
0.48
-1.63
-4.58
-8.3
-12.73
-17.78
-23.27
-28.79
-33.68
-37.12
-38.48
-37.55
-34.72
-30.8
-26.71
-23.1
-20.17
-17.82
-15.81
-13.98
-12.27
-10.66
-9.04
-7.38
-5.79
-4.76
-5.14
-7.74
-12.94
-20.11
-27.59
-32.93
-33.62
-27.97
-15.75
1.56
21.18
39.8
54.53
63.72
67.16
65.9
61.76
56.71
52.48
50.23
50.46
52.94
56.76
60.59
63.05
63.09
60.27
54.78
47.34
38.79
29.91
21.29
13.34
6.34
0.49
-4.15
-7.72
-10.51
-12.86
-15.06
-17.28
-19.5
-21.66
-23.67
-25.59
-27.64
-30.18
-33.62
-38.29
-44.28
-51.29
-58.64
-65.36
-70.52
-73.52
-74.31
-73.37
-71.4
-68.95
-66.19
-62.95
-58.97
-54.18
-48.88
-43.54
-38.72
-34.77
-31.8
-29.74
-28.45
-27.74
-27.43
-27.29
-27.08
-26.68
-26.07
-25.46
-25.1
-25.12
-25.45
-25.87
-26.15
-26.28
-26.59
-27.54
-29.47
-32.19
-35.02
-36.91
-36.92
-34.67
-30.52
-25.39
-20.35
-16.11
-12.88
-10.44
-8.44
-6.71
-5.35
-4.58
-4.72
-5.84
-7.86
-10.48
-13.32
-16
-18.28
-20.08
-21.48
-22.68
-23.81
-24.92
-25.91
-26.72
-27.44
-28.34
-29.88
-32.33
-35.61
-39.14
-41.94
-42.98
-41.53
-37.46
-31.31
-24
-16.54
-9.62
-3.44
2.21
7.7
13.21
18.62
23.47
27.19
29.4
30
29.3
27.79
25.94
24.03
22.13
20.17
18.1
15.93
13.75
11.58
9.35
6.74
3.35
-1.19
-6.9
-13.38
-19.78
-25.02
-28.16
-28.76
-26.94
-23.32
-18.72
-13.76
-8.77
-3.74
1.48
6.94
12.48
17.69
22.1
25.31
27.17
27.81
27.47
26.43
24.84
22.77
20.26
17.47
14.68
12.12
9.91
7.88
5.62
2.68
-1.25
-6.24
-12.13
-18.67
-25.43
-31.79
-36.85
-39.65
-39.49
-36.33
-30.89
-24.36
-17.93
-12.21
-7.1
-2.03
3.5
9.51
15.45
20.45
23.8
25.26
25.1
23.89
22.21
20.4
18.56
16.62
14.55
12.39
10.22
8.07
5.82
3.23
0.08
-3.75
-8.29
-13.52
-19.44
-26.08
-33.24
-40.36
-46.41
-50.22
-50.87
-48.17
-42.83
-36.12
-29.25
-22.89
-16.97
-10.97
-4.46
2.51
9.32
15.12
19.32
21.91
23.37
24.44
25.59
26.81
27.63
27.47
26.06
23.62
20.89
18.66
17.34
16.59
15.41
12.53
7.07
-1.11
-11.33
-22.34
-32.8
-41.48
-47.44
-50.01
-48.91
-44.33
-37.03
-28.25
-19.3
-11.03
-3.6
3.47
10.77
18.54
26.27
32.97
37.57
39.48
38.87
36.53
33.47
30.39
27.53
24.65
21.45
17.82
14.01
10.46
7.46
4.88
2.19
-1.33
-6.25
-12.74
-20.58
-29.24
-38.02
-46.04
-52.3
-55.79
-55.72
-51.93
-44.95
-35.88
-25.92
-15.94
-6.23
3.36
13.08
22.89
32.27
40.48
46.85
51.12
53.49
54.53
54.78
54.54
53.67
51.74
48.35
43.5
37.61
31.54
26.08
21.63
17.92
14.14
9.25
2.45
-6.55
-17.32
-28.85
-39.68
-48.24
-53.2
-53.78
-50
-42.67
-33.09
-22.62
-12.2
-2.21
7.44
16.93
26.18
34.74
41.87
46.9
49.55
50.05
49.04
47.29
45.4
43.51
41.45
38.84
35.47
31.55
27.55
23.98
21.01
18.21
14.72
9.57
2.13
-7.59
-18.84
-30.34
-40.54
-47.94
-51.41
-50.49
-45.49
-37.41
-27.64
-17.43
-7.49
2.07
11.57
21.27
30.99
39.99
47.27
51.95
53.75
52.96
50.43
47.1
43.67
40.43
37.23
33.75
29.78
25.38
20.91
16.77
13.09
9.49
5.11
-1.09
-9.78
-20.88
-33.3
-45.1
-54.1
-58.46
-57.38
-51.27
-41.52
-29.94
-18.09
-6.83
3.74
13.95
24.11
34.19
43.68
51.9
58.21
62.25
64.08
63.91
62.04
58.71
54.07
48.34
41.79
34.88
28.15
22.08
16.89
12.44
8.17
3.23
