-11.39
-10.82
-10.01
-9.28
-8.96
-9.24
-10
-10.98
-11.95
-12.81
-13.58
-14.15
-14.17
-13.09
-10.42
-6.09
-0.61
5.1
10.02
13.57
15.71
16.82
17.35
17.5
17.09
15.86
13.74
11.05
8.44
6.55
5.65
5.55
5.67
5.38
4.33
2.59
0.5
-1.53
-3.29
-4.85
-6.52
-8.65
-11.48
-15.03
-19.02
-22.97
-26.18
-27.88
-27.49
-24.79
-20.16
-14.46
-8.77
-3.98
-0.51
1.75
3.19
4.15
4.72
4.74
4.01
2.62
0.99
-0.29
-0.75
-0.38
0.34
0.69
0.08
-1.67
-4.19
-6.78
-8.8
-9.95
-10.37
-10.61
-11.26
-12.79
-15.39
-18.92
-22.9
-26.63
-29.25
-29.89
-28.01
-23.65
-17.48
-10.66
-4.39
0.52
3.92
6.21
7.96
9.58
11.02
12.01
12.2
11.58
10.43
9.25
8.43
8.1
8.08
8.04
7.68
6.94
5.94
4.97
4.22
3.71
3.16
2.08
-0.06
-3.57
-8.42
-14.04
-19.47
-23.57
-25.39
-24.46
-20.99
-15.82
-10.08
-4.83
-0.71
2.22
4.28
5.89
7.29
8.37
8.87
8.6
7.66
6.46
5.54
5.24
5.5
5.96
6.07
5.49
4.14
2.28
0.31
-1.41
-2.81
-4.05
-5.58
-7.98
-11.7
-16.78
-22.69
-28.32
-32.27
-33.36
-31.09
-25.93
-19.1
-12.06
-5.99
-1.4
1.83
4.17
6
7.39
8.18
8.15
7.31
5.96
4.58
3.58
3.06
2.75
2.19
0.93
-1.22
-4.07
-7.28
-10.46
-13.49
-16.54
-20.01
-24.4
-30.04
-36.95
-44.72
-52.51
-59.16
-63.49
-64.76
-62.93
-58.87
-54.17
-50.62
-49.64
-51.81
-56.77
-63.42
-70.52
-77.03
-82.53
-87.01
-90.74
-93.9
-96.47
-98.32
-99.18
-98.82
-96.93
-93.01
-86.44
-76.64
-63.37
-46.97
-28.55
-9.73
7.7
22.2
32.91
39.95
44.46
48.31
53.56
61.61
72.65
85.39
97.59
106.92
111.94
112.52
109.73
105.28
100.88
97.77
96.53
97.06
98.51
99.53
98.69
95.07
88.89
81.51
74.99
71.05
70.2
71.35
72.18
70.13
63.44
52.04
37.62
23.14
11.99
6.91
9.13
17.79
30.21
42.69
51.78
55.46
53.74
48.37
42.05
37.39
36.24
39.37
46.6
56.98
69.01
80.86
90.75
97.41
100.63
101.32
101.12
101.73
104.06
107.95
112.5
116.58
119.35
120.45
119.58
116.16
109.14
97.31
79.89
57.06
30.14
1.27
-27.11
-52.82
-74.43
-91.52
-104.8
-115.86
-126.79
-139.54
-155.21
-173.6
-193.18
-211.69
-226.89
-237.26
-242.28
-242.25
-237.88
-229.86
-218.49
-203.43
-183.8
-158.63
-127.54
-91.45
-52.9
-15.54
16.87
41.62
57.8
66.22
68.73
67.19
62.86
56.2
47.19
35.68
21.45
4.12
-16.96
-42.42
-72.23
-105
-137.65
-165.92
-185.36
-192.89
-187.7
-171.47
-147.6
-119.77
-90.5
-60.47
-28.92
5.06
41.12
77.13
109.62
135.25
152.17
160.58
162.31
159.62
154.25
147.11
138.65
129.58
120.96
113.89
108.69
104.62
100.28
94.55
87.38
79.91
73.91
70.78
70.97
73.88
78.29
82.99
87.07
90.08
91.84
92.28
91.41
89.35
86.31
82.6
78.48
74.08
69.43
64.55
59.57
54.67
50.02
45.61
41.22
36.51
31.18
25.17
18.73
12.34
6.36
0.88
-4.36
-9.59
-14.79
-19.51
-23.16
-25.47
-26.73
-27.77
-29.47
-32.2
-35.58
-38.73
-40.86
-41.71
-41.69
-41.5
-41.66
-42.09
-42.3
-41.67
-39.88
-37.06
-33.54
-29.78
-26.12
-22.81
-20.06
-18.1
-17.14
-17.21
-18.13
-19.5
-20.9
-21.95
-22.52
-22.74
-22.97
-23.67
-25.21
-27.63
-30.52
-33.11
-34.48
-33.97
-31.36
-27
-21.62
-16.04
-10.85
-6.35
-2.59
0.46
2.74
4.11
4.43
3.7
2.16
0.24
-1.54
-2.7
-3.11
-2.91
-2.57
-2.62
-3.39
-4.88
-6.71
-8.39
-9.57
-10.21
-10.59
-11.22
-12.63
-15.13
-18.7
-22.9
-26.94
-29.82
-30.71
-29.24
-25.67
-20.87
-15.87
-11.49
-8.04
-5.34
-2.94
-0.52
1.95
4.14
5.66
6.3
6.13
5.5
4.81
4.35
4.14
3.95
3.45
2.42
0.85
-1
-2.77
-4.22
-5.37
-6.6
-8.42
-11.26
-15.28
-20.18
-25.29
-29.59
-32.09
-32.03
-29.22
-24.14
-17.76
-11.25
-5.49
-0.79
3.03
6.4
9.56
12.38
14.41
15.27
14.85
13.54
11.95
10.67
9.93
9.58
9.21
8.43
7.07
5.19
3.11
1.14
-0.52
-1.85
-3.06
-4.51
-6.58
-9.57
-13.6
-18.48
-23.67
-28.28
-31.25
-31.68
-29.19
-24.1
-17.44
-10.49
-4.33
0.55
4.31
7.48
10.49
13.37
15.76
17.2
17.54
17.05
16.36
16
16.15
16.5
16.49
15.64
13.87
11.49
9.04
6.99
5.47
4.26
2.91
0.94
-2
-6
-10.84
-16.02
-20.68
-23.85
-24.69
-22.82
-18.57
-12.86
-6.84
-1.46
2.91
6.42
9.5
12.47
15.25
17.47
18.73
18.9
18.29
17.45
16.9
16.84
17.09
17.18
16.63
15.25
13.2
10.92
8.88
7.33
6.15
4.88
2.94
-0.08
-4.26
-9.21
-14.24
-18.42
-20.92
-21.13
-18.9
-14.56
-8.87
-2.78
2.83
7.44
10.93
13.52
15.52
17.13
18.34
19.04
19.14
18.78
18.28
17.95
17.91
18.03
17.92
17.2
15.67
13.47
10.96
8.56
6.48
4.65
2.71
0.23
-3.16
-7.57
-12.74
-18.03
-22.49
-25.07
-24.95
-21.85
-16.18
-8.97
-1.47
5.23
10.57
14.49
17.24
19.03
19.93
19.89
18.93
17.36
15.71
14.53
14.12
14.39
14.86
14.96
14.27
12.71
10.54
8.2
6.12
4.48
3.18
1.85
0.06
-2.59
-6.25
-10.69
-15.3
-19.16
-21.3
-21.02
-18.15
-13.18
-7.02
-0.74
4.82
9.24
12.46
14.63
15.85
16.16
15.56
14.29
12.79
11.63
11.27
11.75
12.71
13.49
13.49
12.45
10.59
8.45
6.62
5.45
4.87
4.45
3.57
1.67
-1.59
-6.12
-11.37
-16.4
-20.03
-21.23
-19.43
-14.77
-8.07
-0.61
6.4
12.12
16.31
19.15
20.97
22.02
22.33
21.84
20.63
19
17.31
15.84
14.56
13.17
11.29
8.78
5.83
2.99
0.78
-0.52
-1.11
-1.54
-2.43
-4.2
-6.96
-10.55
-14.65
-18.82
-22.47
-24.85
-25.14
-22.74
-17.63
-10.47
-2.57
4.63
10.03
13.26
14.63
14.82
14.47
13.89
13.05
11.8
10.14
8.28
6.59
5.38
4.73
4.48
4.31
3.9
3.09
1.9
0.45
-1.19
-3.06
-5.34
-8.28
-12.02
-16.39
-20.77
-24.18
-25.52
-23.99
-19.51
-12.85
-5.38
1.42
6.53
9.69
11.34
12.19
12.79
13.24
13.31
12.71
11.38
9.62
7.91
6.62
5.87
5.47
5.06
4.31
3.05
1.35
-0.58
-2.54
-4.41
-6.33
-8.59
-11.54
-15.33
-19.58
-23.41
-25.61
-25.16
-21.72
-15.89
-8.93
-2.34
2.85
6.33
8.46
9.88
11.11
12.24
13.1
13.45
13.28
12.8
12.31
11.99
11.79
11.46
10.73
9.49
7.85
6.05
4.31
2.69
1.03
-0.96
-3.57
-6.94
-10.93
-15.11
-18.78
-21.07
-21.25
-18.9
-14.25
-8.05
-1.53
4.17
8.31
10.79
12.06
12.78
13.44
14.23
15.02
15.54
15.61
15.15
14.18
12.77
11.03
9.05
7.04
5.22
3.73
2.58
1.57
0.39
-1.24
-3.57
-6.66
-10.48
-14.82
-19.29
-23.2
-25.69
-26
-23.75
-19.24
-13.37
-7.32
-2.1
1.8
4.54
6.63
8.59
10.58
12.41
13.7
14.2
13.95
13.25
12.47
11.8
11.27
10.7
9.91
8.83
7.54
6.11
4.58
2.87
0.77
-1.87
-5.11
-8.88
-12.88
-16.63
-19.5
-20.82
-20.16
-17.48
-13.29
-8.44
-3.84
-0.08
2.75
5.02
7.2
9.57
12
14.05
15.24
15.33
14.51
13.23
11.97
11.06
10.47
9.94
9.11
7.76
5.88
3.66
1.37
-0.77
-2.73
-4.7
-6.99
-9.9
-13.6
-17.89
-22.18
-25.58
-27.15
-26.28
-22.94
-17.78
-11.8
-5.98
-0.93
3.27
6.92
10.38
13.69
16.58
18.55
19.21
18.54
16.94
15.05
13.48
12.5
12.01
11.65
10.99
9.84
8.26
6.55
5.01
3.72
2.51
0.97
-1.3
-4.56
-8.8
-13.75
-18.88
-23.44
-26.65
-27.82
-26.57
-23.02
-17.78
-11.8
-6.03
-1.07
2.98
6.39
9.56
12.69
15.61
17.9
19.2
19.36
18.64
17.54
16.61
16.12
16.02
15.92
15.31
13.9
11.68
9.01
6.43
4.33
2.8
1.52
-0.06
-2.48
-6.02
-10.63
-15.89
-21.14
-25.59
-28.42
-28.98
-26.96
-22.52
-16.34
-9.44
-2.79
2.88
7.39
10.92
13.78
16.14
17.9
18.86
18.89
18.14
17.02
15.98
15.38
15.26
15.34
15.26
14.63
13.31
11.38
9.04
6.6
4.29
2.25
0.5
-1.09
-2.71
-4.55
-6.72
-9.23
-11.98
-14.93
-17.95
-20.86
-23.27
-24.6
-24.28
-21.98
-17.87
-12.65
-7.26
-2.57
1.03
3.7
5.96
8.31
10.97
13.66
15.87
17.07
17.06
16.04
14.5
13
11.89
11.17
10.58
9.77
8.55
6.92
5.11
3.33
1.69
0.06
-1.77
-4.01
-6.68
-9.66
-12.8
-15.98
-19.13
-22.07
-24.4
-25.55
-24.96
-22.41
-18.21
-13.09
-7.85
-3.07
1.12
4.92
8.61
12.19
15.37
17.64
18.61
18.23
16.83
15
13.29
11.99
11.07
10.22
9.06
7.33
5.09
2.6
0.23
-1.74
-3.27
-4.52
-5.8
-7.41
-9.59
-12.47
-16.01
-19.89
-23.52
-26.11
-26.85
-25.36
-21.8
-16.93
-11.75
-7.11
-3.37
-0.32
2.5
5.51
8.73
11.82
14.27
15.73
16.16
15.86
15.25
14.62
14.06
13.41
12.42
10.89
8.83
6.47
4.13
2.13
0.6
-0.52
-1.5
-2.7
-4.42
-6.86
-10
-13.64
-17.38
-20.71
-22.99
-23.68
-22.48
-19.49
-15.24
-10.52
-6.09
-2.38
0.59
3.13
5.65
8.31
10.97
13.18
14.49
14.62
13.68
12.13
10.52
9.32
8.7
8.46
8.21
7.56
6.32
4.58
2.64
0.82
-0.72
-2.08
-3.54
-5.44
-7.98
-11.13
-14.73
-18.44
-21.88
-24.6
-26.1
-25.88
-23.68
-19.56
-14.06
-8.05
-2.45
2.12
5.5
7.96
9.97
11.9
13.86
15.7
17.15
17.99
18.19
17.86
17.21
16.43
15.67
15.03
14.55
14.25
14.04
13.76
13.19
12.13
10.4
8.01
5.1
1.98
-0.96
-3.42
-5.33
-6.87
-8.44
-10.52
-13.42
-17.12
-21.13
-24.55
-26.39
-25.92
-23.03
-18.27
-12.7
-7.44
-3.26
-0.34
1.69
3.43
5.42
7.85
10.54
13.06
14.94
15.83
15.63
14.48
12.74
10.86
9.2
7.93
6.94
5.97
4.7
2.97
0.79
-1.7
-4.31
-6.86
-9.32
-11.71
-14.07
-16.47
-18.92
-21.41
-23.81
-25.83
-27
-26.81
-24.89
-21.25
-16.37
-11.11
-6.36
-2.74
-0.35
1.16
2.35
3.69
5.32
7.04
8.48
9.35
9.61
9.46
9.22
9.16
9.34
9.61
9.67
9.3
8.36
6.97
5.34
3.72
2.22
0.8
-0.74
-2.64
-5.05
-8.02
-11.5
-15.42
-19.58
-23.7
-27.21
-29.39
-29.57
-27.37
-23
-17.23
-11.11
-5.55
-1.02
2.56
5.6
8.49
11.4
14.14
16.32
17.59
17.86
17.31
16.37
15.48
14.96
14.89
15.09
15.19
14.81
13.74
11.99
9.77
7.39
5.1
2.99
0.96
-1.23
-3.8
-6.87
-10.41
-14.31
-18.38
-22.38
-25.9
-28.37
-29.14
-27.72
-24.06
-18.65
-12.45
-6.5
-1.56
2.17
4.92
7.1
9.01
10.67
11.93
12.6
12.62
12.12
11.34
10.49
9.69
8.93
8.04
6.9
5.44
3.77
2.13
0.81
-0.04
-0.48
-0.84
-1.61
-3.25
-6.1
-10.16
-15.07
-20.06
-24.11
-26.16
-25.46
-21.87
-16.02
-9.09
-2.43
3
6.95
9.83
12.36
15.07
17.95
20.46
21.91
21.87
20.47
18.37
16.38
15.04
14.38
13.95
13.13
11.51
9.11
6.3
3.59
1.38
-0.31
-1.71
-3.2
-5.13
-7.62
-10.68
-14.19
-18.04
-22.03
-25.85
-28.9
-30.44
-29.76
-26.55
-21.13
-14.37
-7.4
-1.2
3.77
7.57
10.59
13.18
15.42
17.06
17.74
17.27
15.8
13.8
11.87
10.5
9.82
9.62
9.47
9
7.99
6.56
5.03
3.75
2.87
2.28
1.63
0.5
-1.47
-4.41
-8.17
-12.28
-16.04
-18.64
-19.33
-17.69
-13.82
-8.37
-2.36
3.11
7.32
10.09
11.76
12.85
13.72
14.33
14.38
13.57
11.88
9.75
7.88
6.87
6.9
7.63
8.3
8.17
6.81
4.38
1.49
-1.12
-2.94
-3.91
-4.42
-5.14
-6.61
-9.08
-12.5
-16.54
-20.71
-24.45
-27.08
-27.88
-26.3
-22.24
-16.19
-9.2
-2.51
2.91
6.69
9.1
10.76
12.18
13.57
14.73
15.38
15.37
14.82
14.03
13.32
12.8
12.36
11.67
10.41
8.47
6.08
3.7
1.84
0.79
0.46
0.33
-0.25
-1.8
-4.52
-8.24
-12.55
-16.96
-20.88
-23.69
-24.71
-23.41
-19.67
-13.94
-7.22
-0.69
4.69
8.53
10.96
12.45
13.42
13.99
14.11
13.66
12.68
11.47
10.42
9.85
9.86
10.21
10.44
10.07
8.77
6.56
3.8
1.03
-1.27
-2.93
-4.13
-5.3
-6.98
-9.58
-13.18
-17.54
-22
-25.66
-27.51
-26.79
-23.29
-17.5
-10.54
-3.77
1.74
5.53
7.85
9.32
10.51
11.61
12.43
12.61
12.01
10.8
9.51
8.65
8.46
8.79
9.13
8.91
7.8
5.83
3.43
1.19
-0.43
-1.36
-1.95
-2.83
-4.66
-7.79
-12.2
-17.47
-22.95
-27.82
-31.25
-32.51
-31.08
-26.92
-20.54
-12.97
-5.43
1.07
6.03
9.53
12.03
14.03
15.75
17.13
17.92
17.94
17.21
15.98
14.61
13.39
12.42
11.54
10.48
8.99
6.97
4.56
2.03
-0.32
-2.36
-4.11
-5.83
-7.82
-10.34
-13.56
-17.48
-21.89
-26.28
-29.82
-31.52
-30.57
-26.71
-20.4
-12.79
-5.23
1.22
6.1
9.62
12.31
14.67
16.85
18.66
19.74
19.85
19.04
17.6
16
14.6
13.64
13.06
12.64
12.05
10.97
9.28
7.12
4.78
2.66
1.03
-0.13
-1.1
-2.41
-4.53
-7.79
-12.21
-17.46
-22.9
-27.62
-30.63
-31.07
-28.53
-23.19
-15.98
-8.19
-1.11
4.49
8.51
11.4
13.73
15.82
17.55
18.53
18.4
17.2
15.35
13.49
12.16
11.59
11.59
11.75
11.58
10.75
9.22
7.16
4.91
2.78
0.96
-0.61
-2.14
-3.96
-6.42
-9.74
-14.02
-19.12
-24.55
-29.4
-32.53
-32.82
-29.66
-23.27
-14.75
-5.69
2.41
8.69
13.11
16.24
18.77
21.02
22.81
23.61
23
20.99
18.17
15.43
13.57
12.9
13.13
13.51
13.28
11.99
9.74
6.95
4.19
1.79
-0.24
-2.13
-4.17
-6.54
-9.34
-12.6
-16.35
-20.54
-24.96
-28.99
-31.7
-32.07
-29.41
-23.69
-15.68
-6.73
1.79
8.86
14.12
17.77
20.19
21.67
22.22
21.79
20.45
18.59
16.82
15.74
15.54
15.91
16.16
15.58
13.76
10.87
7.54
4.48
2.21
0.73
-0.4
-1.85
-4.26
-7.95
-12.85
-18.42
-23.78
-27.83
-29.54
-28.28
-23.99
-17.35
-9.45
-1.57
5.4
11.04
15.49
19.05
21.97
24.14
25.26
25.02
23.44
20.97
18.33
16.2
14.89
14.19
13.54
12.33
10.31
7.64
4.79
2.24
0.19
-1.58
-3.61
-6.51
-10.76
-16.49
-23.43
-30.75
-37.2
-41.37
-42.06
-38.85
-32.24
-23.66
-14.82
-7.18
-1.34
2.95
6.44
9.81
13.22
16.27
18.34
18.97
18.26
16.74
15.11
13.85
12.93
11.89
10.19
7.52
4.05
0.39
-2.75
-4.9
-6.09
-6.82
-7.87
-9.95
-13.48
-18.49
-24.54
-30.82
-36.18
-39.44
-39.62
-36.35
-30.03
-21.75
-12.93
-4.74
2.2
7.87
12.63
16.77
20.32
23.06
24.71
25.16
24.63
23.5
22.1
20.6
18.91
16.82
14.18
11.04
7.67
4.5
1.93
0.1
-1.17
-2.42
-4.35
-7.58
-12.44
-18.74
-25.72
-32.15
-36.57
-37.83
-35.38
-29.6
-21.63
-13
-5.03
1.56
6.85
11.36
15.63
19.76
23.38
25.81
26.59
25.71
23.71
21.43
19.55
18.37
17.65
16.89
15.54
13.4
10.64
7.65
4.89
2.65
0.88
-0.75
-2.78
-5.79
-10.2
-16.16
-23.31
-30.87
-37.65
-42.33
-43.82
-41.65
-36.13
-28.25
-19.39
-10.81
-3.3
2.97
8.26
12.96
17.23
20.92
23.68
25.22
25.53
24.9
23.86
22.8
21.92
21.04
19.8
17.9
15.26
12.18
9.13
6.54
4.59
3.08
1.55
-0.52
-3.48
-7.47
-12.36
-17.8
-23.23
-27.88
-30.83
-31.25
-28.66
-23.24
-15.85
-7.8
-0.36
5.65
10.12
13.46
16.3
18.96
21.41
23.22
23.92
23.31
21.6
19.25
16.81
14.64
12.84
11.28
9.76
8.13
6.38
4.59
2.85
1.21
-0.32
-1.87
-3.58
-5.62
-8.19
-11.4
-15.29
-19.69
-24.21
-28.09
-30.44
-30.33
-27.26
-21.36
-13.47
-4.92
2.99
9.39
14.08
17.39
19.88
21.93
23.62
24.71
24.96
24.29
22.91
21.2
19.58
18.29
17.33
16.49
15.51
14.18
12.45
10.39
8.19
6
3.93
1.93
-0.08
-2.19
-4.42
-6.78
-9.3
-12.13
-15.47
-19.4
-23.6
-27.27
-29.33
-28.78
-25.26
-19.26
-12.06
-5.16
0.26
3.85
6.01
7.55
9.09
10.82
12.41
13.32
13.22
12.14
10.45
8.71
7.36
6.55
6.14
5.77
5.14
4.1
2.78
1.44
0.38
-0.27
-0.63
-1.07
-1.99
-3.73
-6.37
-9.79
-13.66
-17.58
-21.08
-23.63
-24.62
-23.58
-20.29
-15.06
-8.67
-2.21
3.33
7.38
9.98
11.62
12.95
14.31
15.7
16.71
16.93
16.1
14.42
12.36
10.53
9.3
8.73
8.48
8.09
7.16
5.62
3.67
1.69
-0.05
-1.45
-2.68
-3.98
-5.53
-7.37
-9.43
-11.66
-14.14
-16.93
-19.91
-22.63
-24.23
-23.87
-21.01
-15.81
-9.2
-2.48
3.12
6.96
9.11
10.14
10.69
11.08
11.29
11.06
10.27
9.09
7.95
7.31
7.36
7.91
8.45
8.46
7.63
6.04
4.06
2.16
0.69
-0.3
-1.05
-1.95
-3.39
-5.6
-8.62
-12.28
-16.19
-19.79
-22.33
-23.07
-21.53
-17.7
-12.22
-6.2
-0.83
3.08
5.37
6.46
7.02
7.58
8.26
8.74
8.59
7.58
5.86
3.91
2.26
1.25
0.8
0.52
-0.12
-1.43
-3.35
-5.51
-7.4
-8.71
-9.45
-9.93
-10.6
-11.8
-13.64
-16.07
-18.88
-21.8
-24.44
-26.21
-26.48
-24.77
-21
-15.69
-9.75
-4.19
0.34
3.75
6.41
8.79
11.11
13.15
14.46
14.58
13.46
11.48
9.24
7.31
5.91
4.9
3.88
2.48
0.56
-1.69
-3.85
-5.49
-6.39
-6.65
-6.61
-6.79
-7.57
-9.19
-11.62
-14.64
-17.88
-20.82
-22.87
-23.41
-22
-18.57
-13.53
-7.72
-2.09
2.63
6.19
8.82
10.99
13.05
15.03
16.63
17.48
17.31
16.22
14.57
12.84
11.46
10.56
10.01
9.46
8.52
6.93
4.77
2.34
0.09
-1.64
-2.79
-3.63
-4.66
-6.28
-8.72
-11.86
-15.41
-18.98
-22.09
-24.26
-24.96
-23.75
-20.49
-15.51
-9.63
-3.87
0.88
4.29
6.55
8.23
9.92
11.83
13.79
15.32
15.99
15.6
14.37
12.74
11.26
10.23
9.66
9.23
8.52
7.25
5.43
3.37
1.47
-0.02
-1.17
-2.33
-3.92
-6.22
-9.21
-12.69
-16.31
-19.78
-22.8
-24.99
-25.88
-24.98
-22.07
-17.31
-11.41
-5.29
0.13
4.38
7.5
9.85
11.83
13.58
14.91
15.42
14.85
13.22
10.93
8.57
6.68
5.57
5.23
5.45
5.86
6.11
5.95
5.23
3.97
2.32
0.5
-1.27
-2.9
-4.45
-6.08
-8
-10.36
-13.24
-16.45
-19.66
-22.23
-23.5
-22.84
-20.04
-15.37
-9.63
-3.88
0.94
4.37
6.55
8.03
9.45
11.12
12.9
14.33
14.89
14.37
12.98
11.21
9.69
8.85
8.73
9.08
9.39
9.21
8.25
6.55
4.42
2.22
0.27
-1.33
-2.74
-4.18
-5.9
-7.96
-10.31
-12.83
-15.46
-18.11
-20.56
-22.36
-22.89
-21.62
-18.35
-13.49
-7.9
-2.58
1.78
5
7.4
9.55
11.83
14.26
16.48
17.97
18.29
17.35
15.41
13.05
10.84
9.27
8.52
8.41
8.57
8.57
8.08
7.02
5.51
3.84
2.19
0.63
-0.93
-2.66
-4.71
-7.21
-10.24
-13.82
-17.84
-21.92
-25.38
-27.33
-26.98
-23.95
-18.57
-11.83
-4.97
0.9
5.24
8.14
10.13
11.78
13.4
14.96
16.17
16.72
16.48
15.57
14.3
13.02
11.93
11.06
10.22
9.19
7.85
6.21
4.49
2.95
1.77
0.94
0.24
-0.67
-2.08
-4.17
-6.96
-10.33
-14.12
-18.1
-21.86
-24.77
-26.06
-25.01
-21.29
-15.27
-7.91
-0.54
5.71
10.28
13.28
15.26
16.86
18.32
19.52
20.07
19.67
18.35
16.51
14.71
13.43
12.78
12.5
12.06
11.01
9.18
6.84
4.56
2.82
1.81
1.26
0.56
-0.88
-3.35
-6.79
-10.84
-15.05
-19.03
-22.42
-24.82
-25.73
-24.7
-21.58
-16.7
-10.9
-5.22
-0.53
2.82
4.97
6.42
7.6
8.68
9.52
9.88
9.62
8.85
7.89
7.05
6.45
6.01
5.46
4.57
3.27
1.72
0.18
-1.06
-1.93
-2.6
-3.49
-5.1
-7.88
-11.97
-17.07
-22.29
-26.42
-28.21
-26.9
-22.56
-16.11
-8.95
-2.44
2.62
6.18
8.77
10.99
13.14
15.05
16.25
16.35
15.33
13.61
11.83
10.54
9.94
9.79
9.55
8.69
6.93
4.4
1.51
-1.17
-3.26
-4.69
-5.72
-6.87
-8.72
-11.68
-15.86
-20.99
-26.41
-31.18
-34.29
-34.89
-32.59
-27.7
-21.11
-14.04
-7.58
-2.33
1.74
5.09
8.17
11.13
13.7
15.38
15.81
15.02
13.5
11.92
10.79
10.21
9.88
9.34
8.24
6.59
4.68
2.89
1.48
0.42
-0.55
-1.85
-3.88
-6.91
-11
-16.02
-21.5
-26.7
-30.74
-32.69
-32.03
-28.78
-23.59
-17.46
-11.38
-5.94
-1.21
3.11
7.39
11.7
15.78
19.03
20.87
21.08
19.92
18
16.08
14.72
14.03
13.69
13.12
11.77
9.44
6.39
3.17
0.34
-1.8
-3.43
-5.06
-7.33
-10.71
-15.43
-21.36
-28.12
-35.01
-41.08
-45.2
-46.32
-43.83
-37.91
-29.57
-20.35
-11.67
-4.39
1.47
6.47
11.31
16.28
21.09
25.07
27.54
28.19
27.25
25.37
23.26
21.4
19.87
18.41
16.61
14.22
11.3
8.21
5.39
3.21
1.64
0.27
-1.52
-4.37
-8.61
-14.18
-20.64
-27.21
-32.91
-36.76
-37.96
-36.08
-31.3
-24.32
-16.24
-8.12
-0.65
5.96
11.94
17.59
22.96
27.68
31.13
32.71
32.2
29.95
26.75
23.56
21.14
19.73
19.07
18.54
17.52
15.68
13.13
10.25
7.51
5.12
2.95
0.55
-2.66
-7.11
-12.9
-19.78
-27.09
-33.93
-39.28
-42.17
-41.92
-38.38
-31.97
-23.65
-14.6
-5.84
2.07
9.05
15.37
21.22
26.43
30.49
32.75
32.87
31.1
28.27
25.4
23.3
22.18
21.62
20.9
19.38
16.93
13.92
10.96
8.54
6.7
4.98
2.62
-1.05
-6.37
-13.23
-21.13
-29.3
-36.79
-42.49
-45.37
-44.63
-40.11
-32.39
-22.71
-12.56
-3.18
4.87
11.74
17.86
23.54
28.63
32.56
34.73
34.98
33.73
31.88
30.36
29.71
29.82
30.07
29.68
28.1
25.27
21.59
17.62
13.83
10.34
6.93
3.19
-1.25
-6.62
-12.98
-20.21
-27.95
-35.53
-41.96
-46.08
-46.8
-43.62
-36.82
-27.45
-16.99
-6.8
2.33
10.3
17.45
24.15
30.37
35.7
39.48
41.28
41.14
39.68
37.72
35.97
34.73
33.75
32.5
30.48
27.54
23.98
20.35
17.17
14.6
12.38
9.92
6.56
1.91
-4.1
-11.24
-19.06
-26.92
-33.98
-39.21
-41.52
-40.2
-35.19
-27.31
-17.94
-8.62
-0.37
6.52
12.37
17.69
22.65
27.03
30.28
32
32.16
31.27
30.07
29.19
28.85
28.75
28.28
26.83
24.15
20.49
16.46
12.77
9.81
7.56
5.56
3.13
-0.35
-5.26
-11.61
-19.11
-27.1
-34.61
-40.44
-43.42
-42.73
-38.27
-30.73
-21.47
-11.95
-3.29
4.16
10.65
16.7
22.55
28.01
32.47
35.29
36.15
35.27
33.3
31.01
28.99
27.4
26.04
24.47
22.32
19.47
16.11
12.67
9.62
7.23
5.38
3.62
1.29
-2.14
-6.98
-13.11
-20.08
-27.16
-33.44
-37.89
-39.61
-38.02
-33.16
-25.75
-17
-8.2
-0.26
6.52
12.38
17.72
22.66
26.92
29.96
31.31
30.94
29.34
27.3
25.52
24.35
23.64
22.87
21.52
19.25
16.19
12.79
9.59
6.99
4.97
3.17
1.02
-1.95
-5.96
-10.89
-16.37
-21.86
-26.73
-30.25
-31.7
-30.56
-26.78
-20.85
-13.74
-6.53
-0.04
5.48
10.24
14.58
18.67
22.21
24.64
25.5
24.76
22.95
20.92
19.45
18.84
18.8
18.64
17.66
15.5
12.34
8.82
5.63
3.26
1.69
0.49
-0.97
-3.27
-6.69
-11.23
-16.6
-22.27
-27.53
-31.52
-33.38
-32.53
-28.87
-22.95
-15.77
-8.53
-2.13
3.04
7.14
10.62
13.82
16.79
19.2
20.62
20.81
19.91
18.41
16.89
15.76
15
14.24
12.99
10.99
8.35
5.56
3.15
1.46
0.36
-0.62
-2.08
-4.47
-7.88
-12.13
-16.81
-21.41
-25.34
-27.91
-28.47
-26.49
-21.96
-15.43
-7.96
-0.78
5.2
9.61
12.71
15.01
16.98
18.69
19.9
20.27
19.66
18.28
16.58
15.05
13.93
13.13
12.25
10.9
8.85
6.23
3.38
0.73
-1.45
-3.23
-4.93
-6.98
-9.71
-13.16
-17.13
-21.25
-25.13
-28.44
-30.83
-31.94
-31.41
-29.06
-24.99
-19.68
-13.88
-8.38
-3.71
-0.04
2.76
4.95
6.7
7.97
8.58
8.41
7.52
6.21
4.85
3.76
3.05
2.59
2.1
1.4
0.4
-0.78
-1.95
-3
-4.01
-5.3
-7.26
-10.24
-14.28
-19.02
-23.66
-27.15
-28.54
-27.3
-23.59
-18.16
-12.12
-6.49
-1.89
1.59
4.27
6.58
8.84
11.05
12.98
14.29
14.7
14.22
13.06
11.55
9.98
8.51
7.09
5.6
3.99
2.34
0.83
-0.4
-1.4
-2.45
-4.01
-6.53
-10.15
-14.6
-19.1
-22.62
-24.16
-23.14
-19.64
-14.42
-8.63
-3.39
0.58
3.12
4.59
5.52
6.38
7.33
8.27
8.95
9.17
8.87
8.09
6.96
5.59
4.04
2.37
0.65
-0.96
-2.31
-3.32
-4.1
-4.93
-6.2
-8.24
-11.21
-14.97
-19.11
-22.97
-25.77
-26.77
-25.5
-21.96
-16.7
-10.68
-4.96
-0.3
3.02
5.24
6.86
8.24
9.46
10.28
10.36
9.64
8.34
6.88
5.63
4.65
3.74
2.58
1.02
-0.86
-2.72
-4.24
-5.33
-6.2
-7.29
-9.03
-11.73
-15.37
-19.63
-23.87
-27.22
-28.8
-27.97
-24.65
-19.38
-13.21
-7.27
-2.36
1.35
4.24
6.8
9.4
11.9
13.89
14.91
14.8
13.82
12.4
10.97
9.62
8.18
6.4
4.19
1.73
-0.62
-2.51
-3.81
-4.65
-5.39
-6.41
-8.04
-10.47
-13.68
-17.34
-20.83
-23.26
-23.78
-21.93
-17.88
-12.49
-6.88
-2
1.74
4.53
6.89
9.19
11.44
13.28
14.27
14.21
13.28
11.95
10.71
9.77
9.02
8.16
6.86
5.05
2.95
0.92
-0.66
-1.61
-2.06
-2.45
-3.31
-5.11
-8.13
-12.29
-17.18
-22.02
-25.87
-27.76
-27.09
-23.8
-18.51
-12.3
-6.36
-1.47
2.19
5.03
7.65
10.43
13.26
15.65
16.99
17.07
16.14
14.83
13.74
13.17
12.96
12.64
11.75
10.07
7.77
5.25
2.95
1.15
-0.15
-1.25
-2.52
-4.31
-6.8
-10.01
-13.81
-17.94
-21.99
-25.4
-27.44
-27.46
-25.09
-20.48
-14.38
-7.96
-2.33
1.85
4.62
6.55
8.34
10.37
12.48
14.16
14.87
14.45
13.25
11.88
10.93
10.6
10.68
10.7
10.27
9.27
7.85
6.35
5.04
4.02
3.13
2.06
0.48
-1.85
-4.99
-8.78
-12.94
-17.08
-20.75
-23.46
-24.7
-24.11
-21.52
-17.21
-11.83
-6.3
-1.44
2.33
5.05
7.14
9.02
10.86
12.45
13.42
13.52
12.77
11.49
10.14
9.08
8.41
7.97
7.47
6.71
5.68
4.54
3.5
2.67
1.96
1.1
-0.23
-2.27
-5.02
-8.26
-11.56
-14.39
-16.2
-16.51
-15.07
-11.91
-7.45
-2.38
2.52
6.62
9.61
11.49
12.37
12.34
11.44
9.67
7.25
4.58
2.19
0.53
-0.33
-0.67
-0.96
-1.62
-2.74
-4.03
-5.04
-5.37
-4.99
-4.2
-3.59
-3.78
-5.18
-7.82
-11.28
-14.75
-17.24
-17.82
-15.96
-11.74
-5.86
0.61
6.54
11.21
14.32
16.03
16.56
16.08
14.66
12.42
9.73
7.19
5.45
4.81
5.03
5.39
5.05
3.47
0.71
-2.63
-5.73
-7.98
-9.27
-10.02
-10.9
-12.57
-15.32
-19.03
-23.15
-26.82
-29.15
-29.39
-27.18
-22.67
-16.51
-9.72
-3.35
1.83
5.54
7.93
9.46
10.59
11.54
12.24
12.48
12.13
11.23
10.08
9.03
8.26
7.71
7.05
5.95
4.31
2.36
0.55
-0.74
-1.42
-1.78
-2.41
-3.87
-6.54
-10.39
-15.03
-19.78
-23.75
-25.99
-25.8
-22.92
-17.74
-11.25
-4.72
0.78
4.75
7.38
9.3
11.13
13.12
15.03
16.32
16.57
15.71
14.09
12.36
11.04
10.43
10.38
10.47
10.19
9.23
7.58
5.51
3.46
1.73
0.36
-0.92
-2.55
-4.94
-8.22
-12.24
-16.67
-21.09
-25.02
-27.95
-29.27
-28.44
-25.18
-19.77
-13.02
-6.17
-0.3
3.99
6.8
8.76
10.59
12.68
14.88
16.73
17.75
17.78
17.05
16.08
15.42
15.25
15.42
15.46
14.87
13.36
10.98
8.12
5.22
2.65
0.48
-1.45
-3.48
-5.9
-8.89
-12.46
-16.5
-20.84
-25.1
-28.73
-30.98
-31.1
-28.64
-23.74
-17.12
-9.91
-3.27
2.05
5.9
8.65
10.86
12.93
14.88
16.44
17.21
17.01
16.03
14.73
13.64
13.1
13.05
13.12
12.83
11.86
10.19
8.13
6.11
4.42
3.07
1.8
0.23
-1.95
-4.87
-8.46
-12.49
-16.66
-20.51
-23.49
-24.93
-24.26
-21.23
-16.13
-9.78
-3.27
2.45
6.91
10.17
12.7
14.97
17.1
18.86
19.82
19.67
18.49
16.71
14.96
13.7
13.07
12.79
12.41
11.49
9.9
7.81
5.59
3.65
2.18
1.1
0.09
-1.27
-3.31
-6.2
-9.83
-13.92
-17.96
-21.35
-23.41
-23.59
-21.59
-17.57
-12.13
-6.16
-0.52
4.18
7.77
10.47
12.58
14.31
15.61
16.26
16.05
15.01
13.45
11.86
10.72
10.24
10.26
10.32
9.88
8.61
6.56
4.14
1.91
0.32
-0.58
-1.1
-1.79
-3.18
-5.55
-8.89
-12.98
-17.38
-21.61
-24.98
-26.77
-26.35
-23.42
-18.32
-11.9
-5.34
0.34
4.63
7.61
9.7
11.36
12.79
13.84
14.27
13.92
12.96
11.75
10.69
9.98
9.53
9.07
8.26
6.95
5.25
3.5
2.02
1.01
0.37
-0.33
-1.55
-3.74
-7.04
-11.29
-16.02
-20.5
-23.9
-25.46
-24.72
-21.69
-16.89
-11.23
-5.67
-0.9
2.82
5.6
7.74
9.4
10.55
11.01
10.7
9.77
8.6
7.63
7.11
6.96
6.8
6.18
4.8
2.76
0.47
-1.56
-2.93
-3.65
-4.06
-4.77
-6.33
-9.06
-12.94
-17.61
-22.39
-26.36
-28.58
-28.29
-25.3
-20.08
-13.72
-7.46
-2.31
1.4
4.05
6.36
8.97
12.04
15.2
17.8
19.23
19.22
17.95
15.95
13.85
12.13
10.99
10.32
9.76
8.89
7.46
5.41
2.96
0.43
-1.86
-3.84
-5.64
-7.58
-9.98
-13.01
-16.66
-20.72
-24.75
-28.16
-30.26
-30.43
-28.36
-24.23
-18.7
-12.77
-7.36
-3.04
0.21
2.8
5.19
7.63
10.04
12.07
13.41
13.94
13.8
13.3
12.75
12.37
12.13
11.86
11.3
10.24
8.63
6.69
4.73
3.04
1.72
0.58
-0.69
-2.45
-4.87
-7.95
-11.57
-15.65
-20.09
-24.62
-28.67
-31.34
-31.69
-29.16
-23.96
-17.11
-10.1
-4.21
-0.06
2.63
4.68
6.95
9.87
13.24
16.44
18.76
19.81
19.55
18.33
16.62
14.84
13.24
11.93
10.82
9.84
8.9
7.93
6.84
5.55
3.92
1.9
-0.5
-3.18
-5.96
-8.81
-11.81
-15.22
-19.22
-23.66
-27.94
-31.08
-32.15
-30.63
-26.71
-21.2
-15.22
-9.69
-5.08
-1.28
2.08
5.36
8.67
11.77
14.31
15.99
16.76
16.83
16.52
16.16
15.87
15.64
15.28
14.57
13.35
11.59
9.44
7.14
4.96
3.03
1.3
-0.53
-2.79
-5.74
-9.42
-13.67
-18.23
-22.73
-26.79
-29.87
-31.34
-30.65
-27.6
-22.6
-16.57
-10.66
-5.72
-1.98
0.96
3.76
6.86
10.23
13.35
15.58
16.56
16.42
15.68
14.93
14.59
14.63
14.74
14.44
13.42
11.67
9.5
7.39
5.72
4.56
3.63
2.41
0.37
-2.81
-7.15
-12.43
-18.15
-23.62
-27.97
-30.36
-30.18
-27.31
-22.28
-16.1
-9.93
-4.59
-0.32
3.2
6.52
9.95
13.41
16.41
18.44
19.25
19
18.19
17.42
17.07
17.17
17.44
17.39
16.61
14.92
12.5
9.74
7.08
4.81
2.93
1.15
-0.96
-3.79
-7.67
-12.62
-18.41
-24.48
-29.94
-33.75
-34.98
-33.13
-28.33
-21.43
-13.62
-6.01
0.66
6.31
11.21
15.75
20.02
23.72
26.35
27.5
27.17
25.82
24.22
23.05
22.54
22.44
22.11
20.97
18.74
15.66
12.29
9.26
6.93
5.28
3.9
2.22
-0.32
-4.08
-9.14
-15.28
-21.99
-28.49
-33.78
-36.82
-36.83
-33.56
-27.44
-19.52
-11.16
-3.5
2.81
7.78
11.9
15.66
19.31
22.64
25.25
26.77
27.15
26.71
25.94
25.34
25.1
25.18
25.26
25.02
24.16
22.61
20.41
17.73
14.79
11.76
8.74
5.69
2.44
-1.2
-5.43
-10.35
-15.96
-22.01
-27.92
-32.75
-35.38
-34.93
-31.11
-24.49
-16.4
-8.33
-1.38
4.11
8.59
12.76
17.06
21.35
25.04
27.44
28.25
27.69
26.43
25.26
24.68
24.71
24.98
24.85
23.8
21.7
18.81
15.69
12.86
10.61
8.78
6.97
4.69
1.56
-2.54
-7.5
-13.03
-18.67
-23.75
-27.38
-28.66
-26.99
-22.41
-15.65
-7.95
-0.58
5.64
10.57
14.53
18
21.19
23.86
25.52
25.79
24.67
22.66
20.55
19.01
18.35
18.39
18.55
18.23
17.01
14.88
12.2
9.52
7.27
5.64
4.49
3.42
1.92
-0.4
-3.78
-8.23
-13.5
-19.08
-24.14
-27.68
-28.74
-26.76
-21.89
-14.99
-7.42
-0.44
5.17
9.35
12.56
15.33
17.91
20.09
21.41
21.54
20.56
18.98
17.53
16.76
16.82
17.36
17.76
17.46
16.2
14.15
11.76
9.49
7.55
5.83
4
1.7
-1.32
-5.08
-9.49
-14.35
-19.33
-23.93
-27.42
-29.04
-28.22
-24.97
-19.91
-14.1
-8.59
-3.94
-0.15
3.27
6.8
10.48
13.88
16.3
17.23
16.66
15.17
13.58
12.53
12.23
12.38
12.42
11.85
10.53
8.69
6.77
5.13
3.88
2.83
1.66
0.06
-2.11
-4.89
-8.22
-11.95
-15.81
-19.32
-21.75
-22.4
-20.83
-17.17
-12.09
-6.61
-1.67
2.17
4.94
6.98
8.68
10.23
11.49
12.11
11.89
10.88
9.52
8.35
7.75
7.71
7.83
7.5
6.31
4.22
1.65
-0.77
-2.59
-3.73
-4.51
-5.46
-7.05
-9.49
-12.68
-16.34
-20.04
-23.23
-25.27
-25.49
-23.52
-19.44
-13.94
-8.07
-2.88
1.04
3.74
5.74
7.61
9.61
11.48
12.67
12.72
11.6
9.76
7.87
6.56
6.05
6.07
6.12
5.71
4.66
3.11
1.51
0.2
-0.68
-1.36
-2.23
-3.71
-6
-9.08
-12.77
-16.79
-20.87
-24.56
-27.23
-28.12
-26.65
-22.69
-16.82
-10.24
-4.27
0.11
2.67
3.9
4.6
5.5
6.78
8.17
9.16
9.42
8.96
8.14
7.42
7.12
7.22
7.42
7.31
6.59
5.25
3.51
1.76
0.31
-0.74
-1.54
-2.42
-3.76
-5.83
-8.73
-12.33
-16.32
-20.15
-23.11
-24.47
-23.73
-20.8
-16.13
-10.57
-5.14
-0.61
2.73
5.06
6.86
8.52
10.14
11.47
12.14
11.87
10.71
9
7.28
6
5.36
5.18
5.06
4.55
3.39
1.57
-0.64
-2.9
-4.92
-6.6
-8.05
-9.48
-11.12
-13.07
-15.31
-17.67
-19.78
-21.14
-21.24
-19.78
-16.78
-12.67
-8.13
-3.82
-0.19
2.7
4.99
6.89
8.45
9.54
9.92
9.43
8.14
6.35
4.53
3.07
2.17
1.71
1.33
0.68
-0.41
-1.79
-3.08
-3.87
-4.02
-3.77
-3.69
-4.37
-6.21
-9.15
-12.83
-16.62
-19.84
-21.86
-22.21
-20.71
-17.6
-13.49
-9.28
-5.76
-3.31
-1.72
-0.41
1.27
3.59
6.28
8.72
10.23
10.52
9.77
8.48
7.21
6.23
5.47
4.63
3.4
1.7
-0.22
-1.96
-3.15
-3.67
-3.79
-4.04
-4.98
-6.99
-10.13
-14.1
-18.35
-22.19
-24.83
-25.61
-24.22
-20.79
-15.97
-10.72
-5.97
-2.24
0.45
2.61
4.86
7.56
10.66
13.65
15.9
16.93
16.63
15.34
13.65
12.09
10.93
10.1
9.24
7.97
6.19
4.07
2.02
0.37
-0.81
-1.77
-2.92
-4.59
-6.91
-9.78
-13.02
-16.45
-19.84
-22.78
-24.71
-25
-23.3
-19.73
-14.96
-9.9
-5.32
-1.58
1.49
4.33
7.31
10.47
13.52
15.99
17.42
17.68
16.9
15.43
13.69
12.02
10.55
9.26
7.97
6.53
4.84
2.95
1.04
-0.7
-2.13
-3.29
-4.32
-5.47
-6.92
-8.78
-11.08
-13.79
-16.82
-20
-22.93
-25.03
-25.63
-24.25
-20.89
-16.1
-10.81
-5.92
-1.96
1.08
3.62
6.13
8.87
11.69
14.15
15.81
16.5
16.35
15.75
15.14
14.76
14.65
14.65
14.52
14.03
13.02
11.42
9.3
6.87
4.43
2.31
0.64
-0.68
-2.05
-3.95
-6.81
-10.75
-15.43
-20.14
-23.95
-26
-25.77
-23.24
-18.91
-13.67
-8.47
-3.96
-0.32
2.72
5.62
8.72
12.01
15.13
17.59
19.01
19.32
18.78
17.79
16.79
16.02
15.54
15.24
14.93
14.45
13.7
12.65
11.34
9.81
8.13
6.32
4.36
2.22
-0.14
-2.8
-5.86
-9.41
-13.46
-17.79
-21.82
-24.75
-25.75
-24.39
-20.8
-15.72
-10.17
-5.06
-0.83
2.61
5.67
8.72
11.76
14.44
16.24
16.8
16.15
14.71
13.12
11.85
11.05
10.44
9.59
8.19
6.27
4.17
2.35
1.14
0.48
0.04
-0.72
-2.19
-4.56
-7.74
-11.4
-15.09
-18.23
-20.24
-20.6
-19.06
-15.75
-11.27
-6.47
-2.16
1.18
3.59
5.4
7.02
8.63
10.08
11.02
11.16
10.54
9.5
8.54
8.04
7.96
7.96
7.5
6.18
3.96
1.25
-1.37
-3.38
-4.64
-5.41
-6.23
-7.67
-10.08
-13.5
-17.67
-22.05
-25.87
-28.33
-28.75
-26.79
-22.68
-17.1
-11.02
-5.35
-0.61
3.16
6.22
8.99
11.71
14.4
16.83
18.74
19.9
20.21
19.72
18.63
17.16
15.52
13.83
12.16
10.54
9
7.58
6.25
4.82
3.04
0.53
-2.97
-7.49
-12.73
-17.97
-22.29
-24.78
-24.85
-22.42
-18.04
-12.62
-7.18
-2.43
1.38
4.46
7.26
10.16
13.23
16.19
18.59
20.01
20.29
19.56
18.2
16.62
15.09
13.68
12.27
10.69
8.84
6.81
4.81
3.02
1.52
0.16
-1.38
-3.46
-6.35
-10.11
-14.5
-18.93
-22.62
-24.72
-24.62
-22.2
-17.88
-12.53
-7.13
-2.36
1.57
4.97
8.28
11.77
15.28
18.28
20.2
20.75
20.12
18.85
17.63
16.91
16.75
16.81
16.62
15.75
14.06
11.76
9.21
6.79
4.73
2.98
1.33
-0.56
-2.98
-6.08
-9.83
-13.93
-17.84
-20.85
-22.26
-21.6
-18.83
-14.42
-9.21
-4.11
0.25
3.7
6.46
8.92
11.24
13.31
14.78
15.33
14.94
13.98
13
12.46
12.51
12.85
12.94
12.28
10.7
8.47
6.13
4.23
3.02
2.3
1.56
0.2
-2.18
-5.65
-10
-14.81
-19.51
-23.47
-25.99
-26.42
-24.44
-20.25
-14.59
-8.51
-3.01
1.42
4.81
7.62
10.24
12.74
14.75
15.76
15.47
14.05
12.13
10.45
9.54
9.43
9.76
9.93
9.47
8.22
6.43
4.56
3.04
2.04
1.42
0.79
-0.29
-2.15
-4.9
-8.41
-12.42
-16.48
-20.01
-22.34
-22.86
-21.25
-17.64
-12.7
-7.34
-2.44
1.52
4.51
6.85
8.84
10.52
11.62
11.82
11.01
9.47
7.75
6.48
5.96
6.07
6.36
6.3
5.65
4.5
3.22
2.21
1.64
1.39
1.04
0.14
-1.66
-4.51
-8.35
-12.93
-17.76
-22.12
-25.14
-25.99
-24.26
-20.15
-14.45
-8.28
-2.61
2.06
5.68
8.53
10.86
12.67
13.67
13.58
12.3
10.13
7.69
5.71
4.7
4.72
5.35
5.84
5.5
4.04
1.66
-0.97
-3.14
-4.42
-4.93
-5.24
-6.07
-7.93
-10.97
-14.89
-19.2
-23.25
-26.4
-28.03
-27.62
-24.97
-20.3
-14.41
-8.37
-3.19
0.57
3.01
4.75
6.47
8.56
10.9
12.99
14.32
14.64
14.16
13.36
12.67
12.25
11.88
11.13
9.67
7.46
4.81
2.21
0.08
-1.44
-2.55
-3.66
-5.21
-7.52
-10.62
-14.34
-18.32
-22.02
-24.74
-25.75
-24.49
-20.84
-15.24
-8.64
-2.24
3.02
6.73
9.14
10.84
12.4
14.01
15.44
16.22
16.04
14.98
13.49
12.17
11.45
11.33
11.43
11.19
10.22
8.48
6.31
4.23
2.57
1.33
0.14
-1.51
-4.03
-7.49
-11.65
-16.09
-20.37
-24.06
-26.76
-28.04
-27.55
-25.18
-21.19
-16.27
-11.25
-6.81
-3.19
-0.19
2.56
5.23
7.65
9.36
9.97
9.41
8.14
6.86
6.21
6.42
7.22
8.05
8.37
7.99
7.08
6.09
5.39
5.02
4.66
3.73
1.7
-1.67
-6.25
-11.58
-16.97
-21.66
-24.83
-25.82
-24.31
-20.46
-14.98
-8.91
-3.26
1.38
4.99
7.96
10.68
13.24
15.27
16.19
15.61
13.67
11.01
8.57
7.07
6.77
7.33
8.04
8.16
7.2
5.15
2.4
-0.44
-2.81
-4.52
-5.79
-7.15
-9.21
-12.37
-16.65
-21.64
-26.58
-30.52
-32.58
-32.17
-29.21
-24.18
-17.95
-11.52
-5.63
-0.63
3.58
7.33
10.83
14.03
16.6
18.16
18.54
17.97
16.95
16.04
15.59
15.6
15.74
15.51
14.54
12.75
10.33
7.7
5.28
3.26
1.53
-0.27
-2.63
-5.95
-10.4
-15.79
-21.57
-26.91
-30.81
-32.41
-31.21
-27.27
-21.29
-14.33
-7.52
-1.63
3.13
7
10.41
13.59
16.41
18.43
19.26
18.83
17.54
16.05
15.02
14.8
15.27
15.94
16.21
15.69
14.29
12.28
10.13
8.14
6.41
4.63
2.39
-0.69
-4.71
-9.52
-14.77
-20.01
-24.69
-28.16
-29.71
-28.73
-25.02
-19.03
-11.78
-4.54
1.67
6.49
10.24
13.53
16.83
20.09
22.85
24.46
24.59
23.34
21.27
19.05
17.24
16
15.22
14.54
13.58
12.14
10.27
8.22
6.33
4.76
3.41
1.88
-0.34
-3.64
-8.07
-13.36
-18.95
-24.12
-28.12
-30.27
-30.02
-27.16
-21.89
-14.95
-7.42
-0.39
5.4
9.73
12.82
15
16.46
17.13
16.83
15.58
13.73
11.87
10.6
10.12
10.14
10.01
9.04
6.96
3.99
0.84
-1.71
-3.2
-3.77
-4.04
-4.93
-7.2
-11.14
-16.55
-22.66
-28.35
-32.4
-33.8
-32.05
-27.3
-20.4
-12.59
-5.08
1.32
6.37
10.3
13.46
16.07
18
18.97
18.8
17.67
16.09
14.78
14.21
14.45
15.03
15.19
14.23
11.91
8.56
4.89
1.65
-0.79
-2.63
-4.48
-7.01
-10.66
-15.44
-21.04
-26.85
-32.08
-35.77
-36.95
-34.99
-29.87
-22.38
-13.92
-5.98
0.45
5.23
8.94
12.33
15.82
19.26
22.06
23.65
23.89
23.14
22.07
21.28
20.99
20.95
20.62
19.47
17.28
14.25
10.98
8.08
5.92
4.42
3.09
1.24
-1.72
-6.05
-11.65
-18.05
-24.45
-29.82
-33.06
-33.26
-30.12
-24.11
-16.45
-8.67
-1.98
3.12
7
10.44
14.13
18.19
22.16
25.29
26.98
27.13
26.14
24.69
23.4
22.58
22.15
21.72
20.86
19.29
16.99
14.21
11.32
8.56
5.99
3.42
0.5
-3.06
-7.41
-12.5
-18.11
-23.82
-29.06
-33.06
-35
-34.24
-30.59
-24.53
-17.04
-9.43
-2.72
2.6
6.73
10.25
13.72
17.36
20.87
23.71
25.42
25.92
25.45
24.51
23.54
22.69
21.85
20.7
19.01
16.67
13.87
10.91
8.07
5.5
3.09
0.64
-2.1
-5.28
-8.96
-13.08
-17.53
-22.11
-26.43
-29.92
-31.83
-31.53
-28.72
-23.64
-17.07
-10.05
-3.54
1.86
6.09
9.46
12.37
15.06
17.43
19.16
19.88
19.39
17.88
15.83
13.83
12.28
11.22
10.33
9.21
7.59
5.61
3.71
2.36
1.72
1.56
1.24
0.05
-2.48
-6.43
-11.46
-16.91
-21.97
-25.77
-27.55
-26.78
-23.39
-17.81
-10.93
-3.83
2.56
7.74
11.66
14.67
17.14
19.29
21
21.97
21.88
20.63
18.52
16.16
14.23
13.16
12.95
13.1
12.9
11.75
9.5
6.47
3.22
0.29
-2.11
-4.17
-6.33
-8.98
-12.36
-16.42
-20.97
-25.74
-30.42
-34.63
-37.81
-39.28
-38.43
-35.02
-29.35
-22.32
-15.05
-8.51
-3.15
1.15
4.9
8.59
12.4
16.08
19.12
21.02
21.57
20.95
19.63
18.2
17.11
16.48
16.08
15.48
14.27
12.3
9.74
7.04
4.7
2.98
1.77
0.69
-0.78
-3.01
-6.13
-10.04
-14.52
-19.26
-23.85
-27.74
-30.23
-30.64
-28.55
-24.05
-17.85
-11.03
-4.65
0.61
4.71
8.04
11.21
14.64
18.35
21.96
24.87
26.57
26.81
25.73
23.79
21.62
19.77
18.55
17.9
17.48
16.81
15.47
13.31
10.43
7.15
3.83
0.72
-2.12
-4.74
-7.28
-9.83
-12.57
-15.71
-19.49
-23.93
-28.65
-32.72
-34.92
-34.23
-30.32
-23.79
-16.04
-8.62
-2.63
1.64
4.65
7.27
10.16
13.55
17.17
20.48
22.93
24.18
24.15
23.07
21.32
19.34
17.54
16.12
15.07
14.21
13.24
11.96
10.28
8.26
6.03
3.65
1.15
-1.49
-4.2
-6.89
-9.47
-12.03
-14.91
-18.46
-22.77
-27.36
-31.19
-32.99
-31.89
-27.79
-21.57
-14.7
-8.57
-3.96
-0.8
1.64
4.24
7.51
11.4
15.38
18.66
20.63
21.09
20.27
18.71
17.02
15.62
14.62
13.81
12.94
11.81
10.39
8.76
7.03
5.2
3.24
1.14
-1.01
-3.07
-4.94
-6.73
-8.76
-11.47
-15.18
-19.82
-24.78
-28.96
-31.17
-30.53
-26.85
-20.78
-13.58
-6.69
-1.14
2.72
5.21
7.04
8.87
10.96
13.18
15.11
16.33
16.66
16.2
15.24
14.17
13.25
12.59
12.12
11.61
10.82
9.58
7.88
5.87
3.79
1.86
0.17
-1.39
-3.02
-4.87
-7
-9.33
-11.74
-14.16
-16.61
-19
-21.02
-22.11
-21.57
-18.95
-14.32
-8.39
-2.29
2.86
6.47
8.6
9.88
11.03
12.49
14.19
15.69
16.53
16.5
15.82
14.94
14.3
14.11
14.22
14.23
13.72
12.45
10.41
7.81
4.98
2.2
-0.28
-2.35
-3.97
-5.23
-6.31
-7.48
-9.03
-11.21
-14.17
-17.82
-21.77
-25.32
-27.61
-27.86
-25.71
-21.38
-15.67
-9.66
-4.3
-0.12
2.96
5.33
7.4
9.33
10.91
11.76
11.61
10.52
8.89
7.31
6.25
5.89
5.99
6.05
5.55
4.25
2.31
0.18
-1.64
-2.91
-3.76
-4.58
-5.83
-7.72
-10.22
-13.07
-15.96
-18.57
-20.53
-21.42
-20.79
-18.34
-14.22
-9.05
-3.8
0.6
3.63
5.39
6.31
6.89
7.29
7.33
6.7
5.26
3.26
1.28
-0.08
-0.5
-0.06
0.74
1.31
1.21
0.38
-0.97
-2.43
-3.67
-4.64
-5.57
-6.87
-8.97
-12
-15.82
-19.88
-23.43
-25.67
-25.95
-24.02
-20.11
-14.94
-9.45
-4.51
-0.61
2.29
4.61
6.77
8.9
10.68
11.57
11.16
9.52
7.21
5.1
3.88
3.76
4.42
5.19
5.34
4.44
2.44
-0.32
-3.33
-6.09
-8.27
-9.84
-11.07
-12.42
-14.4
-17.41
-21.49
-26.25
-30.91
-34.42
-35.82
-34.48
-30.43
-24.3
-17.2
-10.3
-4.43
0.15
3.7
6.71
9.59
12.45
15.06
17.03
18.03
17.99
17.06
15.58
13.89
12.23
10.69
9.19
7.63
5.97
4.3
2.8
1.66
0.9
0.31
-0.45
-1.77
-3.89
-6.85
-10.53
-14.69
-19.06
-23.22
-26.6
-28.48
-28.2
-25.49
-20.66
-14.58
-8.36
-2.94
1.22
4.25
6.62
8.83
11.21
13.74
16.18
18.17
19.39
19.65
18.92
17.41
15.45
13.47
11.77
10.47
9.45
8.43
7.18
5.58
3.71
1.74
-0.25
-2.3
-4.55
-7.13
-10.07
-13.31
-16.81
-20.53
-24.51
-28.55
-32.13
-34.36
-34.33
-31.49
-26.04
-18.92
-11.47
-4.87
0.26
3.95
6.74
9.24
11.86
14.65
17.31
19.43
20.68
20.95
20.39
19.34
18.19
17.2
16.44
15.74
14.82
13.41
11.43
8.97
6.29
3.63
1.19
-0.99
-2.98
-4.94
-7.03
-9.45
-12.43
-16.18
-20.77
-26.02
-31.22
-35.25
-36.85
-35.12
-29.99
-22.29
-13.58
-5.5
0.86
5.19
8.05
10.34
12.86
15.95
19.35
22.44
24.57
25.31
24.68
23.1
21.17
19.45
18.24
17.54
17.07
16.54
15.68
14.41
12.68
10.48
7.74
4.43
0.67
-3.25
-6.96
-10.2
-12.96
-15.6
-18.72
-22.79
-27.81
-33.08
-37.31
-39.05
-37.32
-32.02
-24.1
-15.17
-6.86
-0.23
4.51
7.9
10.77
13.72
16.88
19.95
22.41
23.92
24.43
24.24
23.75
23.31
23.01
22.67
22.02
20.77
18.85
16.37
13.59
10.8
8.16
5.66
3.14
0.41
-2.65
-6.04
-9.67
-13.45
-17.42
-21.64
-26.1
-30.42
-33.79
-35.15
-33.6
-28.86
-21.61
-13.22
-5.26
1.1
5.58
8.7
11.37
14.28
17.58
20.88
23.54
25.07
25.37
24.74
23.68
22.65
21.94
21.56
21.35
21.04
20.35
19.07
17.1
14.42
11.18
7.55
3.76
-0
-3.59
-6.94
-10.12
-13.27
-16.64
-20.5
-24.82
-29.2
-32.8
-34.47
-33.25
-28.77
-21.58
-13
-4.68
2.04
6.64
9.5
11.51
13.55
16.01
18.67
20.95
22.3
22.59
22.16
21.63
21.49
21.8
22.17
21.97
20.73
18.39
15.32
12.12
9.25
6.86
4.72
2.45
-0.25
-3.52
-7.35
-11.73
-16.57
-21.61
-26.21
-29.43
-30.27
-28.15
-23.26
-16.55
-9.41
-3.02
2.03
5.87
9.01
11.95
14.8
17.24
18.8
19.21
18.6
17.46
16.37
15.73
15.51
15.39
14.9
13.72
11.82
9.45
6.97
4.65
2.52
0.35
-2.16
-5.33
-9.32
-14.09
-19.35
-24.52
-28.74
-31.08
-30.8
-27.66
-22.11
-15.12
-7.92
-1.46
3.84
8.09
11.65
14.79
17.48
19.41
20.26
19.92
18.68
17.09
15.74
14.94
14.68
14.52
13.94
12.58
10.4
7.75
5.19
3.16
1.77
0.73
-0.55
-2.71
-6.18
-11.05
-17.05
-23.58
-29.76
-34.57
-37.02
-36.48
-32.92
-27
-19.91
-12.93
-6.95
-2.2
1.67
5.19
8.77
12.34
15.53
17.91
19.29
19.76
19.58
18.99
18.1
16.86
15.21
13.21
11.01
8.91
7.21
6.06
5.42
5.01
4.34
2.87
0.17
-3.91
-9.1
-14.66
-19.59
-22.8
-23.43
-21.19
-16.45
-10.13
-3.37
2.8
7.88
11.88
15.26
18.46
21.63
24.55
26.71
27.63
27.14
25.45
23.12
20.81
19.02
17.95
17.42
17
16.21
14.8
12.75
10.34
7.86
5.51
3.34
1.15
-1.27
-4.11
-7.49
-11.46
-16.1
-21.3
-26.72
-31.64
-35.04
-35.94
-33.86
-29.04
-22.49
-15.52
-9.24
-4.12
0.02
3.79
7.73
11.98
16.21
19.79
22.16
23.09
22.72
21.54
20.08
18.76
17.74
16.93
16.07
14.94
13.47
11.78
10.11
8.64
7.34
5.98
4.23
1.82
-1.31
-4.99
-9
-13.12
-17.08
-20.57
-23.13
-24.21
-23.35
-20.45
-15.9
-10.46
-5
-0.12
3.95
7.38
10.49
13.48
16.33
18.73
20.37
20.95
20.45
19.09
17.27
15.46
14.07
13.26
12.96
12.84
12.49
11.56
9.9
7.59
4.89
2.11
-0.5
-2.87
-5.01
-7.1
-9.31
-11.82
-14.78
-18.29
-22.23
-26.17
-29.36
-30.89
-30.01
-26.51
-20.9
-14.23
-7.74
-2.39
1.52
4.28
6.55
8.89
11.51
14.17
16.45
17.93
18.38
17.88
16.72
15.3
14
13.03
12.41
11.97
11.48
10.7
9.52
7.92
6
3.85
1.54
-0.86
-3.25
-5.52
-7.52
-9.27
-10.97
-12.96
-15.55
-18.68
-21.87
-24.2
-24.72
-22.85
-18.73
-13.14
-7.25
-2.1
1.82
4.58
6.67
8.57
10.47
12.23
13.57
14.25
14.25
13.79
13.13
12.45
11.78
11.13
10.49
9.87
9.27
8.61
7.7
6.34
4.43
2.08
-0.4
-2.68
-4.49
-5.84
-6.87
-7.88
-9.11
-10.76
-12.89
-15.44
-18.13
-20.44
-21.65
-21.08
-18.33
-13.64
-7.81
-2.02
2.73
5.94
7.78
8.89
9.93
11.21
12.53
13.39
13.31
12.16
10.3
8.34
6.92
6.35
6.51
6.95
7.09
6.5
5.08
3.06
0.83
-1.2
-2.81
-4
-4.95
-5.89
-7.02
-8.48
-10.29
-12.41
-14.75
-17.14
-19.24
-20.51
-20.35
-18.33
-14.44
-9.26
-3.81
0.81
3.86
5.22
5.36
4.95
4.52
4.13
3.5
2.27
0.35
-1.9
-3.82
-4.77
-4.49
-3.2
-1.54
-0.26
0.16
-0.32
-1.3
-2.25
-2.84
-3.07
-3.28
-3.92
-5.28
-7.41
-10.13
-13.13
-16.08
-18.56
-20.07
-20.06
-18.15
-14.41
-9.42
-4.21
0.23
3.28
4.93
5.72
6.32
7.14
8.15
8.93
8.97
7.98
6.09
3.79
1.68
0.22
-0.43
-0.46
-0.24
-0.17
-0.44
-1.06
-1.84
-2.63
-3.37
-4.23
-5.43
-7.17
-9.49
-12.31
-15.47
-18.78
-22.04
-24.93
-26.99
-27.62
-26.37
-23.1
-18.16
-12.3
-6.44
-1.33
2.68
5.67
7.98
9.95
11.74
13.2
14.05
14.02
13.08
11.48
9.72
8.3
7.49
7.21
7.04
6.48
5.16
3.1
0.65
-1.69
-3.51
-4.72
-5.53
-6.34
-7.52
-9.28
-11.64
-14.48
-17.65
-20.9
-23.83
-25.83
-26.26
-24.67
-21.07
-16.02
-10.49
-5.46
-1.54
1.25
3.32
5.23
7.32
9.56
11.6
13.01
13.5
13.06
11.98
10.69
9.61
8.91
8.49
8.05
7.25
5.9
4.12
2.24
0.61
-0.61
-1.57
-2.64
-4.23
-6.5
-9.38
-12.65
-16.04
-19.4
-22.56
-25.26
-27.01
-27.24
-25.55
-21.94
-16.9
-11.27
-5.9
-1.33
2.36
5.43
8.18
10.75
12.97
14.44
14.81
13.97
12.18
9.99
8.06
6.92
6.72
7.21
7.81
7.92
7.15
5.48
3.24
0.89
-1.22
-3.02
-4.68
-6.49
-8.65
-11.2
-14.04
-17.09
-20.27
-23.51
-26.52
-28.74
-29.43
-27.95
-24.16
-18.58
-12.21
-6.19
-1.24
2.45
5.3
7.82
10.34
12.72
14.5
15.28
14.94
13.85
12.61
11.81
11.7
12.16
12.7
12.8
12.09
10.51
8.28
5.84
3.62
1.91
0.77
0.01
-0.75
-1.88
-3.75
-6.51
-10.16
-14.48
-19.01
-23.07
-25.82
-26.49
-24.63
-20.34
-14.34
-7.69
-1.48
3.63
7.56
10.63
13.3
15.81
17.99
19.42
19.68
18.73
16.9
14.89
13.37
12.69
12.76
13.08
13.07
12.28
10.64
8.36
5.86
3.5
1.43
-0.43
-2.27
-4.29
-6.62
-9.31
-12.38
-15.85
-19.67
-23.54
-26.86
-28.79
-28.57
-25.84
-20.89
-14.58
-8.01
-2.05
2.91
6.98
10.52
13.73
16.58
18.76
19.97
20.1
19.34
18.11
16.95
16.25
16.21
16.7
17.35
17.69
17.33
16.11
14.17
11.8
9.33
6.92
4.52
1.94
-1.04
-4.59
-8.77
-13.59
-18.96
-24.65
-30.1
-34.48
-36.76
-36.11
-32.24
-25.7
-17.71
-9.79
-3.14
1.79
5.33
8.29
11.37
14.77
18.13
20.78
22.22
22.42
21.8
20.98
20.43
20.26
20.21
19.86
18.93
17.38
15.44
13.51
11.85
10.59
9.52
8.27
6.4
3.56
-0.37
-5.33
-11.12
-17.44
-23.8
-29.49
-33.5
-34.83
-32.81
-27.51
-19.84
-11.36
-3.6
2.44
6.66
9.65
12.31
15.25
18.48
21.5
23.61
24.34
23.64
21.98
20.03
18.44
17.52
17.21
17.14
16.88
16.19
15.09
13.81
12.54
11.35
10.01
8.19
5.59
2.14
-1.99
-6.52
-11.27
-16.18
-21.19
-26.03
-30.03
-32.2
-31.62
-27.85
-21.32
-13.18
-4.93
2.22
7.77
11.95
15.38
18.55
21.53
23.91
25.16
25.03
23.77
22.01
20.46
19.58
19.38
19.46
19.28
18.39
16.64
14.19
11.41
8.67
6.21
3.97
1.69
-0.94
-4.19
-8.12
-12.63
-17.48
-22.42
-27.13
-31.15
-33.81
-34.37
-32.29
-27.51
-20.72
-13.1
-5.97
-0.21
4.04
7.29
10.29
13.58
17.1
20.3
22.5
23.24
22.58
21.12
19.59
18.61
18.31
18.36
18.19
17.24
15.34
12.71
9.84
7.22
5.1
3.34
1.54
-0.74
-3.85
-7.91
-12.83
-18.32
-23.92
-28.87
-32.24
-33.1
-30.84
-25.6
-18.24
-10.13
-2.65
3.32
7.66
10.81
13.41
15.88
18.17
19.94
20.82
20.75
20
19.11
18.57
18.61
18.99
19.19
18.67
17.11
14.59
11.6
8.71
6.36
4.62
3.19
1.6
-0.57
-3.53
-7.32
-11.78
-16.76
-21.94
-26.8
-30.55
-32.3
-31.38
-27.69
-21.87
-15.11
-8.71
-3.51
0.37
3.5
6.65
10.31
14.37
18.19
20.94
22.11
21.71
20.32
18.77
17.73
17.5
17.86
18.23
18.01
16.81
14.59
11.66
8.48
5.41
2.57
-0.13
-2.94
-6.05
-9.53
-13.36
-17.45
-21.7
-25.82
-29.29
-31.32
-31.14
-28.31
-23.06
-16.27
-9.16
-2.8
2.27
6.17
9.39
12.41
15.35
17.9
19.55
19.94
19.09
17.47
15.74
14.5
13.96
13.9
13.84
13.27
11.92
9.84
7.35
4.84
2.6
0.7
-0.95
-2.58
-4.46
-6.81
-9.84
-13.67
-18.23
-23.11
-27.56
-30.54
-31.13
-28.89
-24.07
-17.66
-10.95
-5.05
-0.48
2.91
5.63
8.16
10.61
12.73
14.09
14.43
13.88
12.87
11.95
11.56
11.85
12.63
13.53
14.1
14.02
13.14
11.55
9.47
7.21
4.97
2.78
0.51
-2.07
-5.16
-8.84
-13.08
-17.64
-22.12
-25.92
-28.33
-28.66
-26.53
-22.12
-16.14
-9.66
-3.7
1.16
4.94
8.14
11.23
14.4
17.32
19.43
20.25
19.72
18.29
16.65
15.4
14.8
14.71
14.7
14.28
13.13
11.2
8.73
6.11
3.74
1.81
0.26
-1.25
-3.1
-5.58
-8.74
-12.43
-16.39
-20.33
-23.94
-26.79
-28.32
-27.98
-25.48
-21.01
-15.31
-9.37
-4.05
0.23
3.59
6.4
8.96
11.3
13.13
14.15
14.21
13.52
12.57
11.84
11.68
12.09
12.76
13.17
12.88
11.67
9.68
7.28
4.94
3
1.49
0.17
-1.31
-3.23
-5.68
-8.56
-11.7
-15
-18.34
-21.48
-23.88
-24.81
-23.58
-19.97
-14.42
-7.99
-1.88
3.01
6.44
8.83
10.8
12.78
14.69
16.04
16.35
15.44
13.68
11.79
10.51
10.26
10.91
11.93
12.64
12.47
11.26
9.22
6.8
4.46
2.49
0.86
-0.7
-2.57
-5.03
-8.2
-11.97
-16.12
-20.38
-24.38
-27.6
-29.41
-29.14
-26.45
-21.53
-15.14
-8.38
-2.31
2.46
5.93
8.54
10.88
13.25
15.55
17.33
18.09
17.59
16.08
14.19
12.64
11.86
11.83
12.05
11.86
10.82
8.91
6.54
4.24
2.41
1.1
0.05
-1.12
-2.72
-4.88
-7.63
-10.93
-14.71
-18.87
-23.03
-26.56
-28.58
-28.32
-25.45
-20.32
-13.89
-7.43
-1.99
1.91
4.44
6.16
7.66
9.23
10.8
12.04
12.66
12.58
12.03
11.35
10.85
10.6
10.43
9.98
8.95
7.18
4.87
2.39
0.15
-1.58
-2.86
-3.95
-5.2
-6.83
-8.88
-11.26
-13.87
-16.62
-19.42
-21.94
-23.65
-23.86
-22.08
-18.29
-13
-7.17
-1.77
2.55
5.61
7.68
9.2
10.53
11.76
12.77
13.34
13.31
12.7
11.65
10.42
9.28
8.43
7.91
7.6
7.26
6.64
5.64
4.36
3.04
1.9
0.99
0.05
-1.33
-3.48
-6.52
-10.13
-13.88
-17.32
-20.25
-22.6
-24.23
-24.84
-23.95
-21.24
-16.8
-11.34
-5.86
-1.29
1.96
4.07
5.64
7.22
9.01
10.78
12.05
12.48
12
10.96
9.84
9.03
8.68
8.58
8.34
7.59
6.14
4.12
1.81
-0.36
-2.1
-3.31
-4.13
-4.89
-5.95
-7.58
-9.89
-12.88
-16.38
-20.07
-23.49
-25.98
-26.85
-25.65
-22.35
-17.53
-12.16
-7.28
-3.55
-1.03
0.75
2.47
4.55
6.95
9.21
10.75
11.22
10.68
9.58
8.45
7.75
7.58
7.74
7.86
7.58
6.71
5.28
3.48
1.58
-0.18
-1.71
-3.06
-4.44
-6.08
-8.22
-10.92
-14.13
-17.67
-21.18
-24.13
-25.82
-25.62
-23.17
-18.61
-12.69
-6.54
-1.25
2.56
4.9
6.34
7.62
9.19
10.97
12.51
13.26
13
11.95
10.68
9.75
9.44
9.53
9.51
8.83
7.2
4.78
2.1
-0.24
-1.87
-2.79
-3.32
-3.93
-4.99
-6.66
-9
-11.97
-15.44
-19.16
-22.58
-24.86
-25.14
-22.86
-18.15
-11.86
-5.28
0.42
4.61
7.34
9.2
10.79
12.42
13.95
14.99
15.16
14.41
13.04
11.56
10.46
9.94
9.84
9.72
9.07
7.52
5.07
2.12
-0.78
-3.12
-4.8
-6.05
-7.41
-9.44
-12.48
-16.52
-21.22
-25.97
-30.04
-32.74
-33.52
-32.13
-28.69
-23.72
-17.98
-12.26
-7.14
-2.89
0.55
3.31
5.49
7.04
7.92
8.14
7.92
7.56
7.37
7.41
7.51
7.28
6.42
4.85
2.84
0.84
-0.78
-1.93
-2.86
-4.08
-6.08
-9.18
-13.39
-18.44
-23.79
-28.69
-32.35
-34
-33.25
-30.15
-25.32
-19.65
-14.01
-8.87
-4.26
0.11
4.53
9
13.2
16.64
18.9
19.86
19.75
19.01
18.02
16.99
15.85
14.4
12.46
10.01
7.29
4.67
2.5
0.88
-0.37
-1.78
-4
-7.61
-12.77
-19.08
-25.55
-30.79
-33.55
-33.14
-29.72
-24.18
-17.78
-11.55
-5.99
-0.97
3.96
9.14
14.52
19.6
23.7
26.34
27.44
27.43
26.94
26.59
26.6
26.86
26.91
26.33
24.86
22.61
19.92
17.18
14.63
12.2
9.56
6.27
2.03
-3.24
-9.35
-15.87
-22.27
-27.91
-32.1
-34.18
-33.68
-30.55
-25.24
-18.6
-11.57
-4.9
1.14
6.71
12.09
17.39
22.35
26.44
29.1
30.07
29.57
28.18
26.64
25.45
24.69
24
22.85
20.87
18.12
15.09
12.44
10.6
9.5
8.59
7.08
4.3
0.03
-5.54
-11.84
-18.15
-23.63
-27.5
-29.1
-28.07
-24.51
-19.01
-12.46
-5.74
0.5
6.04
10.87
15.05
18.45
20.82
21.97
21.91
21.01
19.85
18.94
18.5
18.32
17.91
16.73
14.57
11.56
8.21
5.06
2.4
0.09
-2.34
-5.48
-9.74
-15.2
-21.48
-27.85
-33.31
-36.82
-37.54
-35.19
-30.2
-23.65
-16.86
-10.91
-6.16
-2.32
1.32
5.36
9.88
14.45
18.34
20.95
22.08
21.97
21.05
19.71
18.14
16.37
14.31
11.98
9.5
7.06
4.81
2.71
0.51
-2.24
-5.98
-10.97
-17.1
-23.77
-30.02
-34.64
-36.59
-35.35
-31.08
-24.62
-17.12
-9.63
-2.73
3.57
9.59
15.61
21.59
27.09
31.44
34.1
34.92
34.19
32.49
30.44
28.44
26.58
24.69
22.51
19.89
16.85
13.65
10.57
7.81
5.3
2.66
-0.66
-5.2
-11.18
-18.33
-25.8
-32.35
-36.68
-37.81
-35.46
-30.1
-22.82
-14.94
-7.49
-0.91
5
10.83
17
23.49
29.67
34.63
37.61
38.38
37.41
35.52
33.5
31.73
30.07
28.05
25.34
21.9
18.14
14.6
11.7
9.5
7.68
5.68
2.98
-0.78
-5.71
-11.69
-18.33
-24.93
-30.56
-34.17
-34.96
-32.68
-27.8
-21.36
-14.56
-8.28
-2.78
2.27
7.42
13.04
18.98
24.61
29.12
31.85
32.64
31.82
30.06
28
26.1
24.42
22.77
20.89
18.63
16.1
13.54
11.23
9.25
7.45
5.45
2.83
-0.7
-5.22
-10.59
-16.53
-22.64
-28.33
-32.87
-35.44
-35.37
-32.52
-27.34
-20.85
-14.19
-8.21
-3.11
1.44
6.06
11.09
16.34
21.16
24.76
26.61
26.72
25.57
23.83
22.12
20.76
19.72
18.77
17.6
16.05
14.09
11.9
9.72
7.74
6.01
4.36
2.5
0.14
-2.9
-6.62
-10.85
-15.32
-19.7
-23.48
-26.08
-26.86
-25.47
-21.96
-16.94
-11.36
-6.14
-1.82
1.63
4.65
7.76
11.21
14.78
17.93
20.03
20.74
20.12
18.62
16.86
15.37
14.39
13.82
13.28
12.41
11.02
9.13
7.03
4.97
3.15
1.55
-0.05
-1.89
-4.17
-6.95
-10.18
-13.72
-17.47
-21.2
-24.61
-27.14
-28.17
-27.17
-23.98
-19.02
-13.14
-7.37
-2.48
1.25
4.1
6.61
9.22
11.98
14.49
16.19
16.59
15.67
13.9
12.02
10.79
10.53
11.05
11.74
11.91
11.13
9.39
7.13
4.89
3.08
1.72
0.53
-0.98
-3.14
-6.08
-9.7
-13.75
-17.98
-22.03
-25.44
-27.57
-27.81
-25.76
-21.55
-15.88
-9.78
-4.26
0.1
3.3
5.79
8.08
10.44
12.69
14.37
15.04
14.55
13.11
11.23
9.43
8.05
7.11
6.38
5.49
4.16
2.3
0.09
-2.16
-4.09
-5.48
-6.39
-7.1
-8.02
-9.45
-11.53
-14.14
-16.98
-19.65
-21.64
-22.5
-21.82
-19.4
-15.41
-10.4
-5.21
-0.67
2.71
4.83
6
6.64
7.07
7.38
7.48
7.31
6.93
6.52
6.34
6.51
6.98
7.49
7.72
7.39
6.39
4.82
2.97
1.12
-0.51
-1.94
-3.36
-5.1
-7.39
-10.29
-13.65
-17.09
-20.15
-22.28
-23.05
-22.21
-19.8
-16.19
-12.01
-7.91
-4.4
-1.65
0.43
2.11
3.59
4.92
5.96
6.54
6.62
6.34
5.98
5.8
5.93
6.21
6.34
6.03
5.13
3.74
2.1
0.44
-1.18
-2.9
-4.95
-7.55
-10.68
-14.17
-17.67
-20.72
-22.77
-23.3
-21.96
-18.75
-14.07
-8.68
-3.41
1.04
4.39
6.71
8.27
9.25
9.69
9.48
8.59
7.15
5.5
4.02
2.92
2.18
1.55
0.69
-0.6
-2.28
-4.09
-5.68
-6.85
-7.63
-8.3
-9.21
-10.59
-12.52
-14.82
-17.1
-18.87
-19.58
-18.81
-16.42
-12.63
-8.01
-3.36
0.65
3.66
5.72
7.09
8.07
8.72
8.86
8.28
6.93
5.06
3.12
1.54
0.52
-0.07
-0.62
-1.54
-3.08
-5.14
-7.34
-9.26
-10.61
-11.41
-11.98
-12.78
-14.26
-16.62
-19.76
-23.23
-26.29
-28.08
-27.89
-25.41
-20.93
-15.26
-9.51
-4.6
-0.96
1.54
3.44
5.23
7.14
8.99
10.37
10.92
10.58
9.62
8.51
7.65
7.15
6.81
6.2
5
3.13
0.87
-1.32
-3.03
-4.15
-4.92
-5.76
-7.11
-9.24
-12.2
-15.91
-20.08
-24.14
-27.29
-28.62
-27.53
-23.97
-18.64
-12.67
-7.19
-2.82
0.44
3.1
5.66
8.34
10.91
12.9
13.95
13.95
13.15
11.99
10.86
9.94
9.13
8.17
6.8
4.98
2.91
1.01
-0.36
-1.11
-1.57
-2.33
-4
-6.91
-10.93
-15.63
-20.41
-24.71
-28.11
-30.2
-30.64
-29.2
-25.91
-21.19
-15.84
-10.67
-6.29
-2.78
0.2
3.1
6.18
9.22
11.68
13
12.94
11.8
10.23
8.97
8.49
8.77
9.4
9.76
9.39
8.14
6.23
4.02
1.87
-0.07
-1.93
-3.99
-6.54
-9.7
-13.49
-17.77
-22.35
-26.96
-31.16
-34.3
-35.57
-34.35
-30.51
-24.59
-17.65
-10.87
-5.05
-0.29
3.82
7.9
12.26
16.72
20.74
23.67
25.17
25.26
24.38
23.12
22
21.31
20.99
20.73
20.09
18.72
16.5
13.63
10.47
7.38
4.53
1.83
-0.99
-4.19
-7.91
-12.18
-16.94
-22.11
-27.47
-32.54
-36.48
-38.26
-37.06
-32.67
-25.72
-17.44
-9.3
-2.35
3.1
7.41
11.28
15.26
19.46
23.5
26.77
28.78
29.39
28.89
27.78
26.63
25.74
25.06
24.29
23.06
21.2
18.78
16.09
13.44
10.99
8.68
6.26
3.46
0.1
-3.78
-8.04
-12.54
-17.22
-21.98
-26.58
-30.41
-32.59
-32.21
-28.81
-22.62
-14.63
-6.25
1.31
7.36
11.95
15.58
18.79
21.79
24.42
26.31
27.15
26.97
26.12
25.12
24.39
24.1
24.1
24.07
23.63
22.6
20.95
18.87
16.58
14.23
11.89
9.5
6.99
4.26
1.26
-2.01
-5.65
-9.79
-14.55
-19.87
-25.22
-29.62
-31.87
-30.99
-26.73
-19.8
-11.62
-3.77
2.6
7.15
10.33
12.89
15.48
18.26
20.94
23
24.03
24
23.18
22.06
21.14
20.66
20.63
20.78
20.76
20.32
19.34
17.86
16.05
14.01
11.78
9.28
6.41
3.16
-0.38
-4.04
-7.68
-11.36
-15.24
-19.42
-23.65
-27.22
-29.09
-28.35
-24.64
-18.5
-11.19
-4.17
1.41
5.24
7.7
9.6
11.57
13.76
15.8
17.14
17.44
16.77
15.62
14.58
14.1
14.23
14.69
15.01
14.81
13.94
12.51
10.75
8.9
7.11
5.36
3.55
1.59
-0.59
-2.95
-5.49
-8.26
-11.43
-15.12
-19.21
-23.15
-25.99
-26.67
-24.58
-19.85
-13.41
-6.66
-0.88
3.33
6.11
8.16
10.15
12.33
14.42
15.88
16.25
15.46
13.91
12.21
10.91
10.27
10.22
10.44
10.51
10.12
9.11
7.55
5.66
3.73
1.97
0.46
-0.9
-2.34
-4.03
-6.09
-8.55
-11.41
-14.65
-18.11
-21.36
-23.71
-24.34
-22.63
-18.53
-12.66
-6.16
-0.24
4.3
7.25
8.97
10.1
11.12
12.18
13.07
13.49
13.24
12.38
11.25
10.26
9.68
9.53
9.57
9.43
8.78
7.54
5.88
4.12
2.57
1.38
0.46
-0.41
-1.54
-3.17
-5.47
-8.48
-12.2
-16.43
-20.73
-24.34
-26.38
-26.08
-23.25
-18.39
-12.56
-6.98
-2.56
0.5
2.59
4.37
6.32
8.47
10.42
11.61
11.68
10.67
9.06
7.55
6.71
6.74
7.32
7.84
7.66
6.47
4.45
2.16
0.25
-0.92
-1.44
-1.8
-2.57
-4.19
-6.75
-10.11
-13.99
-18.09
-22.02
-25.24
-27.05
-26.75
-24.04
-19.2
-13.08
-6.84
-1.43
2.67
5.58
7.74
9.53
11
11.84
11.71
10.48
8.45
6.28
4.7
4.16
4.63
5.65
6.49
6.57
5.64
3.95
1.99
0.27
-0.98
-1.88
-2.84
-4.31
-6.56
-9.6
-13.2
-17.01
-20.61
-23.54
-25.28
-25.35
-23.45
-19.67
-14.6
-9.11
-4.08
-0.02
3.03
5.43
7.54
9.47
10.99
11.7
11.37
10.14
8.58
7.31
6.75
6.93
7.46
7.83
7.59
6.58
4.96
3.06
1.24
-0.25
-1.38
-2.27
-3.15
-4.27
-5.84
-8.05
-10.99
-14.6
-18.55
-22.18
-24.6
-24.94
-22.72
-18.17
-12.21
-6.15
-1.13
2.32
4.4
5.79
7.14
8.64
10
10.67
10.25
8.91
7.24
6.01
5.7
6.28
7.14
7.51
6.81
4.96
2.39
-0.17
-2.15
-3.32
-4
-4.79
-6.29
-8.83
-12.38
-16.55
-20.85
-24.69
-27.49
-28.73
-28.04
-25.31
-20.8
-15.2
-9.31
-3.94
0.43
3.72
6.05
7.66
8.64
8.98
8.65
7.79
6.7
5.78
5.31
5.26
5.3
4.92
3.75
1.69
-0.97
-3.7
-5.97
-7.5
-8.47
-9.36
-10.93
-13.76
-18.11
-23.65
-29.48
-34.34
-36.93
-36.4
-32.71
-26.61
-19.4
-12.41
-6.48
-1.77
2.11
5.74
9.46
13.2
16.57
19.11
20.59
21.1
20.95
20.47
19.81
18.94
17.64
15.73
13.2
10.3
7.46
5.11
3.4
2.12
0.72
-1.46
-4.91
-9.75
-15.66
-21.91
-27.51
-31.4
-32.71
-30.97
-26.31
-19.48
-11.65
-4.06
2.43
7.5
11.38
14.49
17.09
19.12
20.3
20.37
19.33
17.54
15.53
13.77
12.44
11.39
10.27
8.79
6.91
4.8
2.85
1.29
0.08
-1.17
-3.05
-6.14
-10.75
-16.71
-23.38
-29.67
-34.32
-36.26
-34.94
-30.51
-23.79
-16.02
-8.38
-1.62
4.07
8.91
13.22
17.05
20.12
21.93
22.15
20.85
18.54
16.07
14.11
12.93
12.25
11.46
9.97
7.52
4.37
1.08
-1.8
-4.05
-5.93
-8.06
-11.16
-15.77
-22.02
-29.54
-37.42
-44.34
-48.88
-49.88
-46.93
-40.51
-31.86
-22.53
-13.73
-5.97
0.95
7.59
14.33
21.06
27.18
31.94
34.84
35.93
35.68
34.85
33.97
33.22
32.33
30.82
28.32
24.77
20.55
16.25
12.4
9.19
6.37
3.42
-0.2
-4.83
-10.56
-17.18
-24.31
-31.3
-37.18
-40.78
-41.03
-37.45
-30.47
-21.45
-12.13
-3.94
2.56
7.8
12.71
18.15
24.26
30.51
35.93
39.68
41.41
41.4
40.27
38.74
37.32
36.2
35.23
34.07
32.35
29.85
26.58
22.75
18.68
14.65
10.8
7.13
3.5
-0.29
-4.42
-9.06
-14.41
-20.6
-27.54
-34.7
-41.04
-45.17
-45.83
-42.43
-35.34
-25.83
-15.53
-5.78
2.83
10.43
17.57
24.65
31.66
38.13
43.38
46.87
48.41
48.19
46.65
44.37
41.86
39.5
37.39
35.42
33.36
30.98
28.17
25
21.62
18.23
14.89
11.58
8.25
4.81
1.18
-2.76
-7.23
-12.44
-18.49
-25.11
-31.5
-36.45
-38.67
-37.32
-32.36
-24.69
-15.77
-7.12
0.27
6.2
11.08
15.6
20.18
24.75
28.77
31.56
32.68
32.22
30.79
29.21
28.17
27.93
28.18
28.33
27.73
26.08
23.47
20.32
17.06
13.97
11
7.93
4.55
0.75
-3.4
-7.79
-12.37
-17.16
-22.12
-26.89
-30.73
-32.6
-31.64
-27.57
-20.96
-13.06
-5.29
1.32
6.48
10.55
14.13
17.55
20.72
23.13
24.29
24.06
22.75
21.04
19.59
18.8
18.61
18.62
18.29
17.17
15.12
12.29
9.06
5.82
2.79
-0.02
-2.84
-5.93
-9.48
-13.5
-17.98
-22.8
-27.83
-32.76
-36.98
-39.62
-39.79
-36.95
-31.24
-23.56
-15.22
-7.48
-1.12
3.81
7.76
11.37
15.02
18.62
21.72
23.78
24.45
23.78
22.23
20.41
18.87
17.88
17.33
16.9
16.2
14.99
13.21
11.03
8.67
6.32
4.05
1.81
-0.59
-3.36
-6.68
-10.63
-15.17
-20.16
-25.33
-30.23
-34.19
-36.4
-36.1
-32.94
-27.25
-20.01
-12.58
-6.09
-1.1
2.59
5.66
8.75
12.19
15.79
19.06
21.45
22.59
22.49
21.36
19.62
17.68
15.9
14.41
13.2
12.09
10.91
9.51
7.91
6.17
4.39
2.57
0.61
-1.6
-4.17
-7.1
-10.35
-13.87
-17.67
-21.7
-25.74
-29.27
-31.47
-31.56
-29.08
-24.22
-17.83
-11.09
-5.05
-0.32
3.16
5.85
8.3
10.83
13.38
15.57
16.98
17.34
16.72
15.47
14.06
12.9
12.19
11.84
11.6
11.18
10.35
9
7.17
4.96
2.56
0.2
-1.97
-3.89
-5.64
-7.45
-9.56
-12.13
-15.25
-18.89
-22.77
-26.38
-28.93
-29.53
-27.52
-22.86
-16.28
-9.11
-2.78
1.78
4.46
5.87
6.87
8.14
9.77
11.4
12.51
12.72
12.05
10.79
9.39
8.16
7.24
6.51
5.74
4.74
3.41
1.79
0.02
-1.7
-3.26
-4.61
-5.78
-6.85
-7.82
-8.73
-9.62
-10.66
-12.06
-14.1
-16.85
-20.06
-23.04
-24.87
-24.69
-22.11
-17.42
-11.52
-5.59
-0.63
2.87
5.03
6.33
7.29
8.25
9.2
9.92
10.15
9.84
9.16
8.4
7.89
7.77
7.9
7.94
7.53
6.48
4.85
2.91
0.97
-0.75
-2.24
-3.63
-5.07
-6.61
-8.19
-9.69
-11.16
-12.82
-15.01
-17.92
-21.38
-24.68
-26.8
-26.72
-24
-18.98
-12.73
-6.62
-1.76
1.4
3.15
4.19
5.2
6.45
7.72
8.54
8.47
7.5
5.98
4.53
3.65
3.47
3.78
4.07
3.91
3.08
1.67
-0.05
-1.76
-3.26
-4.47
-5.44
-6.29
-7.17
-8.25
-9.68
-11.56
-13.94
-16.81
-19.98
-23
-25.17
-25.68
-23.88
-19.7
-13.75
-7.22
-1.43
2.73
5.1
6.18
6.79
7.49
8.4
9.2
9.48
9.03
8.06
6.99
6.29
6.18
6.55
7.09
7.39
7.17
6.33
4.94
3.22
1.43
-0.24
-1.75
-3.19
-4.78
-6.75
-9.27
-12.3
-15.73
-19.32
-22.81
-25.86
-27.97
-28.53
-26.96
-23.01
-17.02
-9.92
-3.04
2.45
5.88
7.34
7.52
7.26
7.16
7.34
7.53
7.37
6.73
5.81
5.02
4.74
5.09
5.79
6.33
6.19
5.17
3.45
1.53
-0.11
-1.17
-1.71
-2.11
-2.81
-4.26
-6.65
-9.97
-13.97
-18.3
-22.41
-25.66
-27.36
-26.88
-23.96
-18.84
-12.32
-5.56
0.32
4.62
7.23
8.59
9.34
9.95
10.53
10.83
10.51
9.43
7.83
6.24
5.14
4.77
4.9
5.03
4.64
3.48
1.69
-0.32
-2.06
-3.28
-4.07
-4.83
-6.02
-7.98
-10.8
-14.34
-18.3
-22.31
-25.9
-28.48
-29.39
-28.13
-24.51
-18.92
-12.26
-5.68
-0.16
3.79
6.26
7.67
8.51
9.04
9.24
8.96
8.22
7.24
6.45
6.25
6.71
7.5
8.02
7.61
5.95
3.14
-0.23
-3.42
-5.78
-7.08
-7.55
-7.8
-8.61
-10.53
-13.79
-18.17
-23.1
-27.77
-31.34
-33.07
-32.47
-29.46
-24.42
-18.23
-12
-6.72
-2.94
-0.56
1.02
2.51
4.36
6.47
8.35
9.48
9.66
9.16
8.53
8.3
8.68
9.38
9.86
9.58
8.27
6.06
3.37
0.7
-1.61
-3.52
-5.32
-7.44
-10.31
-14.16
-19
-24.52
-30.2
-35.29
-38.91
-40.21
-38.65
-34.21
-27.55
-19.8
-12.23
-5.78
-0.75
3.11
6.39
9.5
12.5
15.04
16.68
17.24
16.97
16.47
16.38
17
18.1
19.06
19.18
18.06
15.84
13.13
10.65
8.83
7.56
6.3
4.35
1.24
-3.13
-8.48
-14.37
-20.36
-25.98
-30.68
-33.75
-34.44
-32.29
-27.4
-20.52
-12.83
-5.49
0.73
5.63
9.49
12.62
15.24
17.28
18.55
18.91
18.52
17.74
16.99
16.53
16.3
15.92
14.92
13.02
10.31
7.21
4.29
1.88
-0.01
-1.81
-4.1
-7.39
-11.91
-17.59
-23.96
-30.23
-35.35
-38.22
-37.99
-34.41
-27.97
-19.77
-11.14
-3.14
3.76
9.58
14.6
18.96
22.45
24.63
25.16
24.1
22.06
19.97
18.69
18.66
19.66
20.93
21.57
20.95
19.02
16.27
13.42
11
9.04
7.06
4.28
-0.04
-6.26
-14.21
-23.14
-31.83
-38.83
-42.79
-42.89
-39.1
-32.26
-23.81
-15.22
-7.43
-0.65
5.51
11.61
17.91
24.17
29.75
33.94
36.35
37.06
36.53
35.36
33.96
32.46
30.69
28.38
25.43
21.97
18.46
15.37
12.94
11.02
9.06
6.37
2.38
-3.16
-10.05
-17.75
-25.35
-31.68
-35.51
-35.89
-32.57
-26.13
-17.94
-9.58
-2.26
3.61
8.48
13.11
18.05
23.24
28.07
31.7
33.55
33.66
32.57
31.06
29.75
28.83
28.06
26.93
25.01
22.16
18.69
15.13
11.98
9.4
7.12
4.51
0.89
-4.22
-10.83
-18.54
-26.52
-33.66
-38.83
-41.1
-40.03
-35.86
-29.41
-21.83
-14.16
-7.02
-0.41
6.02
12.68
19.63
26.46
32.46
36.92
39.43
40.12
39.52
38.32
37.13
36.19
35.36
34.28
32.59
30.17
27.19
24.07
21.15
18.55
16.06
13.18
9.34
4.17
-2.37
-9.88
-17.51
-24.21
-28.89
-30.74
-29.51
-25.59
-19.86
-13.38
-6.99
-1.09
4.45
9.99
15.82
21.86
27.64
32.49
35.78
37.27
37.1
35.77
33.93
32.12
30.62
29.4
28.16
26.53
24.29
21.45
18.31
15.27
12.65
10.52
8.63
6.51
3.72
-0.03
-4.79
-10.32
-16.23
-21.91
-26.64
-29.62
-30.16
-27.93
-23.1
-16.42
-9.01
-1.94
4.09
8.96
13.04
16.8
20.49
23.95
26.68
28.21
28.34
27.35
25.81
24.38
23.41
22.9
22.51
21.81
20.52
18.67
16.49
14.27
12.24
10.34
8.33
5.85
2.61
-1.44
-6.14
-11.18
-16.28
-21.19
-25.66
-29.28
-31.49
-31.64
-29.37
-24.82
-18.7
-12.09
-6.02
-1.1
2.72
5.88
8.91
12.04
15
17.28
18.39
18.22
17.12
15.75
14.73
14.31
14.24
13.99
13.08
11.4
9.3
7.32
5.84
4.8
3.76
2.15
-0.37
-3.77
-7.73
-11.77
-15.49
-18.55
-20.59
-21.28
-20.33
-17.74
-13.85
-9.29
-4.77
-0.79
2.54
5.4
7.99
10.39
12.31
13.32
13.04
11.43
8.86
6.04
3.71
2.32
1.89
2.04
2.22
1.98
1.16
-0.13
-1.6
-2.98
-4.17
-5.31
-6.68
-8.59
-11.2
-14.52
-18.33
-22.25
-25.79
-28.38
-29.47
-28.69
-25.96
-21.58
-16.21
-10.65
-5.61
-1.43
1.93
4.78
7.44
9.95
12.09
13.45
13.71
12.85
11.18
9.25
7.56
6.45
5.84
5.43
4.77
3.57
1.79
-0.32
-2.41
-4.23
-5.72
-7.06
-8.51
-10.27
-12.37
-14.7
-17.12
-19.51
-21.81
-23.88
-25.44
-26.06
-25.32
-23
-19.26
-14.66
-9.88
-5.51
-1.81
1.23
3.86
6.29
8.58
10.66
12.33
13.43
13.82
13.48
12.44
10.87
9.03
7.29
5.96
5.14
4.74
4.47
3.98
3.02
1.52
-0.4
-2.58
-4.86
-7.19
-9.54
-11.92
-14.25
-16.48
-18.65
-20.87
-23.29
-25.9
-28.35
-30
-30.07
-28.01
-23.85
-18.21
-12.17
-6.8
-2.78
-0.18
1.53
3.07
5.03
7.57
10.45
13.17
15.26
16.43
16.6
15.87
14.44
12.52
10.39
8.3
6.54
5.28
4.53
4.08
3.56
2.56
0.81
-1.68
-4.67
-7.67
-10.24
-12.07
-13.12
-13.65
-14.12
-15.03
-16.78
-19.39
-22.51
-25.34
-26.93
-26.45
-23.61
-18.79
-12.97
-7.33
-2.78
0.39
2.47
4.09
5.79
7.8
9.97
11.95
13.41
14.16
14.19
13.55
12.36
10.78
9
7.28
5.85
4.85
4.25
3.84
3.32
2.39
0.88
-1.2
-3.62
-6.07
-8.27
-10.03
-11.4
-12.61
-13.99
-15.83
-18.26
-21.14
-24
-26.14
-26.77
-25.3
-21.64
-16.25
-10.13
-4.44
-0.07
2.61
3.87
4.42
5.02
6.18
7.96
10.02
11.79
12.76
12.69
11.64
10
8.28
6.95
6.23
6.05
6.12
6.08
5.68
4.84
3.6
2.08
0.39
-1.39
-3.13
-4.7
-6.02
-7.14
-8.27
-9.77
-11.96
-14.98
-18.62
-22.27
-25.07
-26.14
-24.97
-21.6
-16.73
-11.43
-6.74
-3.33
-1.23
0.08
1.24
2.71
4.52
6.32
7.66
8.25
8.12
7.52
6.76
6.06
5.47
4.97
4.51
4.07
3.69
3.41
3.17
2.82
2.19
1.14
-0.3
-1.99
-3.7
-5.25
-6.64
-8.04
-9.76
-12.14
-15.39
-19.39
-23.63
-27.22
-29.15
-28.66
-25.53
-20.26
-13.93
-7.81
-2.88
0.48
2.58
4.07
5.61
7.52
9.67
11.68
13.08
13.56
13.08
11.86
10.28
8.76
7.62
6.96
6.72
6.64
6.47
5.96
5.03
3.71
2.1
0.33
-1.56
-3.5
-5.48
-7.41
-9.24
-11.04
-12.96
-15.33
-18.33
-21.86
-25.23
-27.43
-27.38
-24.52
-19.14
-12.32
-5.52
0.12
4.12
6.77
8.74
10.66
12.71
14.63
15.95
16.36
15.86
14.76
13.56
12.69
12.32
12.42
12.66
12.64
12.06
10.78
8.9
6.74
4.58
2.59
0.74
-1.18
-3.37
-5.92
-8.77
-11.77
-14.87
-18.11
-21.52
-24.83
-27.42
-28.33
-26.69
-22.21
-15.45
-7.75
-0.71
4.46
7.43
8.73
9.34
10.05
11.04
11.9
12.03
11.08
9.3
7.41
6.2
6.08
6.87
7.87
8.3
7.67
5.99
3.72
1.46
-0.38
-1.7
-2.77
-3.98
-5.67
-8.02
-11.09
-14.78
-18.94
-23.25
-27.13
-29.75
-30.24
-28.01
-23.12
-16.38
-9.1
-2.64
2.22
5.4
7.48
9.18
10.86
12.41
13.36
13.27
12.14
10.42
8.82
7.9
7.81
8.24
8.56
8.2
6.83
4.57
1.84
-0.81
-2.93
-4.41
-5.51
-6.72
-8.61
-11.62
-15.86
-21.09
-26.74
-31.89
-35.53
-36.74
-35
-30.43
-23.82
-16.39
-9.38
-3.6
0.76
4.05
6.79
9.43
12.04
14.38
16.13
17.03
17.09
16.59
15.88
15.26
14.79
14.34
13.58
12.3
10.42
8.07
5.52
3.03
0.7
-1.58
-4.03
-6.88
-10.38
-14.68
-19.8
-25.56
-31.39
-36.37
-39.39
-39.54
-36.58
-31.05
-24.17
-17.25
-11.16
-6.04
-1.41
3.4
8.69
14.08
18.78
21.93
23.13
22.65
21.22
19.69
18.65
18.22
18.06
17.7
16.74
15.08
12.89
10.53
8.26
6.14
3.94
1.27
-2.2
-6.65
-12.11
-18.46
-25.45
-32.63
-39.29
-44.41
-46.92
-46.05
-41.7
-34.61
-26.04
-17.35
-9.47
-2.7
3.25
8.88
14.51
20.1
25.28
29.52
32.45
33.97
34.31
33.91
33.24
32.66
32.26
31.92
31.37
30.32
28.64
26.38
23.69
20.8
17.79
14.62
11.12
7.08
2.39
-3.01
-9.04
-15.59
-22.46
-29.31
-35.48
-40.08
-42.11
-40.88
-36.34
-29.19
-20.7
-12.22
-4.72
1.57
7.02
12.29
17.84
23.63
29.12
33.56
36.32
37.19
36.43
34.62
32.48
30.56
29.16
28.23
27.5
26.59
25.21
23.22
20.7
17.85
14.86
11.8
8.57
5.04
1.07
-3.35
-8.23
-13.56
-19.29
-25.1
-30.3
-33.77
-34.34
-31.21
-24.5
-15.24
-5.08
4.28
11.79
17.2
21.02
24
26.68
29.18
31.25
32.54
32.93
32.6
32.08
31.97
32.68
34.2
36.11
37.72
38.33
37.63
35.72
33.14
30.5
28.24
26.37
24.5
22.04
18.52
13.74
7.8
0.89
-6.8
-15.02
-23.23
-30.35
-34.83
-35.12
-30.28
-20.48
-7.04
8.08
22.96
36.38
47.97
57.99
66.83
74.64
81.17
85.92
88.57
89.13
88.04
85.91
83.18
79.99
76.19
71.57
66.16
60.36
54.81
50.04
46.12
42.54
38.5
33.36
26.9
19.53
11.91
4.62
-2.2
-8.78
-15.56
-22.96
-31.12
-39.87
-48.72
-56.91
-63.54
-67.73
-68.87
-66.78
-61.78
-54.46
-45.49
-35.35
-24.39
-13
-1.91
7.93
15.57
20.59
23.38
25.09
27.06
30.16
34.34
38.76
42.24
43.95
43.76
42.16
39.88
37.34
34.54
31.08
26.59
21.03
14.76
8.46
2.71
-2.32
-6.96
-11.9
-17.95
-25.64
-35.05
-45.61
-56.18
-65.3
-71.51
-73.79
-71.88
-66.41
-58.66
-50.24
-42.49
-36.16
-31.35
-27.7
-24.73
-22.1
-19.66
-17.36
-15.14
-12.9
-10.59
-8.36
-6.43
-5.01
-4.11
-3.57
-3.08
-2.5
-1.92
-1.7
-2.25
-3.86
-6.47
-9.75
-13.22
-16.43
-19.13
-21.3
-23.15
-25.02
-27.22
-29.98
-33.41
-37.48
-41.92
-46.22
-49.58
-51
-49.63
-45.14
-37.98
-29.32
-20.64
-13.2
-7.51
-3.26
0.33
4.04
8.15
12.38
16.07
18.59
19.65
19.39
18.26
16.78
15.32
14.09
13.18
12.62
12.43
12.56
12.85
12.99
12.62
11.43
9.34
6.54
3.41
0.41
-2.17
-4.35
-6.39
-8.8
-12
-16.13
-20.88
-25.41
-28.6
-29.38
-27.25
-22.46
-16
-9.21
-3.28
1.14
4.11
6.15
7.88
9.65
11.46
12.99
13.91
14.08
13.66
13
12.44
12.16
12.07
11.88
11.28
10.09
8.33
6.25
4.19
2.4
0.96
-0.26
-1.47
-2.94
-4.9
-7.49
-10.75
-14.59
-18.75
-22.72
-25.81
-27.23
-26.33
-22.89
-17.29
-10.45
-3.55
2.3
6.49
8.93
10
10.26
10.11
9.72
9.03
8
6.73
5.48
4.58
4.26
4.47
4.98
5.41
5.35
4.6
3.09
0.96
-1.56
-4.15
-6.53
-8.54
-10.13
-11.46
-12.76
-14.36
-16.53
-19.42
-23.06
-27.23
-31.38
-34.68
-36.12
-34.9
-30.77
-24.19
-16.32
-8.59
-2.16
2.44
5.41
7.38
9.06
10.81
12.57
13.99
14.67
14.43
13.37
11.78
10.04
8.44
7.13
6.06
5.12
4.15
3.1
1.99
0.9
-0.03
-0.82
-1.56
-2.45
-3.7
-5.4
-7.55
-10.11
-13.06
-16.41
-20.09
-23.76
-26.71
-27.99
-26.83
-22.98
-17
-10.08
-3.58
1.48
4.82
6.87
8.39
10.04
12.01
14.08
15.79
16.74
16.79
16.01
14.64
12.95
11.18
9.48
7.98
6.72
5.66
4.73
3.76
2.6
1.1
-0.72
-2.78
-4.89
-6.82
-8.4
-9.56
-10.48
-11.54
-13.2
-15.91
-19.83
-24.61
-29.4
-32.93
-33.93
-31.64
-26.08
-18.22
-9.56
-1.67
4.41
8.43
10.82
12.39
13.81
15.4
17.06
18.46
19.36
19.71
19.71
19.54
19.35
19.06
18.45
17.27
15.38
12.87
9.95
6.83
3.67
0.54
-2.51
-5.41
-7.99
-10.14
-11.87
-13.33
-14.83
-16.76
-19.46
-23.14
-27.69
-32.54
-36.71
-38.99
-38.33
-34.35
-27.54
-19.22
-11.06
-4.41
0.15
2.9
4.66
6.21
7.99
9.95
11.75
13.04
13.64
13.56
12.92
11.9
10.68
9.43
8.28
7.33
6.51
5.68
4.59
3.05
1
-1.49
-4.2
-6.9
-9.39
-11.59
-13.46
-15.1
-16.66
-18.38
-20.5
-23.19
-26.37
-29.49
-31.63
-31.78
-29.22
-23.98
-16.94
-9.48
-3
1.7
4.59
6.32
7.71
9.24
10.93
12.38
13.17
13.15
12.53
11.8
11.4
11.54
12.09
12.64
12.69
11.93
10.26
7.9
5.22
2.59
0.22
-1.83
-3.68
-5.49
-7.38
-9.41
-11.67
-14.29
-17.49
-21.39
-25.85
-30.22
-33.41
-34.22
-31.83
-26.22
-18.28
-9.55
-1.55
4.66
8.86
11.45
13.09
14.37
15.53
16.52
17.19
17.43
17.25
16.76
16.14
15.53
15.05
14.67
14.29
13.7
12.69
11.12
9.06
6.67
4.17
1.74
-0.54
-2.68
-4.78
-6.95
-9.37
-12.3
-16.01
-20.67
-26.15
-31.82
-36.63
-39.26
-38.7
-34.63
-27.7
-19.32
-11.11
-4.35
0.47
3.61
5.82
7.79
9.86
11.89
13.49
14.32
14.3
13.65
12.79
12.11
11.83
11.88
11.99
11.74
10.82
9.12
6.78
4.15
1.57
-0.74
-2.85
-5.04
-7.63
-10.87
-14.83
-19.4
-24.42
-29.58
-34.37
-37.98
-39.43
-37.88
-33.02
-25.4
-16.28
-7.27
0.29
5.8
9.44
11.88
13.85
15.69
17.32
18.32
18.41
17.57
16.22
14.96
14.36
14.57
15.27
15.79
15.5
14.09
11.75
9.03
6.46
4.28
2.31
0.11
-2.72
-6.36
-10.75
-15.68
-21.01
-26.6
-32.14
-37
-40.18
-40.63
-37.74
-31.63
-23.35
-14.42
-6.32
0.08
4.73
8.25
11.41
14.63
17.78
20.36
21.81
21.97
21.18
20.16
19.67
20.06
21.17
22.38
22.95
22.36
20.47
17.56
14.15
10.73
7.59
4.77
2.08
-0.75
-3.97
-7.69
-11.98
-16.84
-22.2
-27.84
-33.2
-37.33
-39.05
-37.42
-32.17
-24.01
-14.45
-5.22
2.38
7.93
11.92
15.2
18.45
21.77
24.79
26.98
28.08
28.25
27.95
27.68
27.68
27.87
27.92
27.44
26.23
24.3
21.84
19.08
16.24
13.4
10.59
7.74
4.79
1.69
-1.61
-5.15
-9.07
-13.54
-18.69
-24.41
-30.15
-34.9
-37.39
-36.57
-32.06
-24.53
-15.48
-6.73
0.34
5.29
8.69
11.61
14.92
18.83
22.78
25.87
27.4
27.3
26.16
24.88
24.23
24.45
25.21
25.85
25.72
24.42
22.02
18.92
15.61
12.43
9.52
6.76
3.98
1.08
-1.94
-5.09
-8.51
-12.49
-17.24
-22.55
-27.68
-31.35
-32.31
-29.87
-24.26
-16.61
-8.42
-0.98
5.16
10.11
14.39
18.41
22.19
25.35
27.43
28.21
27.87
26.98
26.15
25.84
26.09
26.58
26.81
26.37
25.09
23.09
20.66
18.05
15.44
12.79
9.98
6.9
3.53
-0.09
-3.94
-8.01
-12.44
-17.33
-22.63
-27.87
-32.2
-34.52
-33.88
-29.97
-23.36
-15.31
-7.38
-0.77
4.1
7.57
10.45
13.45
16.82
20.27
23.23
25.24
26.23
26.5
26.52
26.68
27.1
27.61
27.9
27.66
26.74
25.11
22.89
20.25
17.37
14.45
11.61
8.89
6.22
3.37
0.02
-4.12
-9.21
-15.09
-21.28
-26.96
-31.11
-32.76
-31.37
-27.02
-20.51
-13.08
-6.01
-0.2
4.13
7.39
10.26
13.27
16.5
19.54
21.77
22.74
22.44
21.34
20.15
19.45
19.47
19.95
20.35
20.1
18.92
16.87
14.28
11.56
8.98
6.63
4.46
2.35
0.2
-2.06
-4.5
-7.26
-10.5
-14.35
-18.76
-23.31
-27.19
-29.41
-29.04
-25.65
-19.55
-11.77
-3.74
3.24
8.45
11.93
14.35
16.49
18.87
21.5
23.96
25.73
26.44
26.1
25.04
23.67
22.31
21.08
19.9
18.7
17.46
16.2
14.92
13.53
11.89
9.88
7.56
5.1
2.74
0.63
-1.31
-3.33
-5.75
-8.92
-12.98
-17.82
-22.99
-27.66
-30.85
-31.61
-29.48
-24.67
-18.04
-10.86
-4.28
1.02
5.03
8.19
11.04
13.83
16.41
18.31
19.11
18.75
17.67
16.56
16.1
16.56
17.66
18.75
19.2
18.64
17.11
14.9
12.36
9.68
6.96
4.26
1.7
-0.54
-2.3
-3.66
-4.82
-6.2
-8.27
-11.26
-15.08
-19.1
-22.26
-23.41
-21.77
-17.31
-10.87
-3.85
2.36
6.91
9.8
11.61
13.11
14.72
16.32
17.43
17.53
16.37
14.14
11.27
8.25
5.39
2.76
0.31
-2.07
-4.44
-6.74
-8.88
-10.79
-12.45
-13.98
-15.63
-17.65
-20.28
-23.57
-27.32
-31.16
-34.59
-37.11
-38.27
-37.76
-35.43
-31.42
-26.14
-20.28
-14.62
-9.76
-5.92
-2.92
-0.42
1.87
3.91
5.42
6.09
5.77
4.7
3.37
2.26
1.64
1.41
1.2
0.68
-0.31
-1.64
-3.05
-4.27
-5.3
-6.33
-7.72
-9.75
-12.55
-16.05
-19.92
-23.61
-26.4
-27.61
-26.68
-23.53
-18.58
-12.65
-6.68
-1.33
3.1
6.76
9.88
12.63
14.9
16.39
16.82
16.09
14.42
12.27
10.17
8.47
7.28
6.33
5.25
3.73
1.78
-0.3
-2.09
-3.27
-3.91
-4.43
-5.44
-7.46
-10.67
-14.88
-19.6
-24.13
-27.7
-29.56
-29.18
-26.43
-21.68
-15.76
-9.65
-4.15
0.37
4.03
7.17
10.06
12.68
14.75
15.95
16.1
15.28
13.77
11.94
10.06
8.35
6.85
5.5
4.18
2.77
1.23
-0.4
-2.06
-3.7
-5.38
-7.24
-9.52
-12.41
-16
-20.21
-24.66
-28.71
-31.51
-32.22
-30.38
-26.12
-20.25
-13.95
-8.32
-3.91
-0.58
2.34
5.53
9.24
13.15
16.46
18.43
18.72
17.59
15.78
14.13
13.12
12.7
12.42
11.66
10.11
7.81
5.2
2.76
0.84
-0.54
-1.65
-2.88
-4.67
-7.31
-10.99
-15.75
-21.35
-27.25
-32.56
-36.18
-37.1
-34.86
-29.7
-22.55
-14.71
-7.41
-1.35
3.42
7.35
11
14.66
18.21
21.14
22.92
23.31
22.51
21.14
19.91
19.32
19.33
19.46
18.99
17.38
14.6
11.15
7.78
5.07
3.18
1.75
0.12
-2.27
-5.69
-10.11
-15.32
-21.05
-26.96
-32.4
-36.42
-37.86
-35.95
-30.65
-22.93
-14.39
-6.62
-0.59
3.7
6.96
10.04
13.39
16.82
19.7
21.36
21.55
20.52
18.96
17.61
16.96
17.03
17.33
17.2
16.05
13.75
10.64
7.43
4.8
3.06
2.05
1.18
-0.23
-2.65
-6.26
-10.92
-16.26
-21.72
-26.46
-29.48
-29.82
-26.96
-21.1
-13.33
-5.18
1.89
7.09
10.52
12.9
15.03
17.3
19.53
21.16
21.74
21.2
19.97
18.73
18.06
18.12
18.62
18.92
18.39
16.69
13.95
10.71
7.57
4.97
2.98
1.29
-0.59
-3.13
-6.59
-11.02
-16.29
-22.12
-28
-33.1
-36.35
-36.73
-33.63
-27.27
-18.68
-9.39
-0.85
6.07
11.24
15.16
18.42
21.39
23.99
25.81
26.47
25.87
24.35
22.49
20.94
20
19.59
19.23
18.33
16.53
13.87
