-29.95
-36.27
-44.35
-53.85
-63.77
-72.46
-77.95
-78.57
-73.48
-63.05
-48.68
-32.5
-16.57
-2.49
9.04
18.02
24.93
30.4
34.96
38.96
42.53
45.69
48.34
50.27
51.3
51.34
50.44
48.86
47.01
45.29
44.02
43.27
42.9
42.57
41.9
40.57
38.4
35.36
31.62
27.45
23.1
18.71
14.26
9.6
4.56
-0.95
-6.83
-12.84
-18.59
-23.79
-28.31
-32.28
-36.08
-40.33
-45.66
-52.5
-60.69
-69.26
-76.49
-80.28
-78.9
-71.63
-59.13
-43.26
-26.42
-10.81
2.15
12.05
19.21
24.3
27.96
30.7
32.86
34.71
36.38
37.93
39.25
40.2
40.6
40.45
39.89
39.15
38.52
38.17
38.11
38.1
37.79
36.73
34.6
31.34
27.17
22.6
18.13
14.12
10.6
7.3
3.81
-0.26
-4.97
-10.14
-15.35
-20.21
-24.47
-28.18
-31.69
-35.55
-40.35
-46.54
-54.09
-62.33
-69.88
-74.92
-75.65
-70.95
-60.86
-46.59
-30.3
-14.36
-0.66
9.8
17.02
21.68
24.68
26.76
28.34
29.55
30.41
30.94
31.26
31.47
31.65
31.7
31.57
31.24
30.78
30.36
30.14
30.09
30.03
29.62
28.54
26.6
23.84
20.43
16.63
12.64
8.52
4.21
-0.36
-5.28
-10.47
-15.73
-20.75
-25.28
-29.24
-32.86
-36.64
-41.24
-47.24
-54.71
-63.01
-70.7
-75.83
-76.55
-71.82
-61.77
-47.81
-32.05
-16.68
-3.33
7.25
15.12
20.78
24.88
28.02
30.64
33.02
35.34
37.55
39.5
40.95
41.73
41.85
41.51
41.02
40.63
40.5
40.62
40.83
40.93
40.71
39.97
38.62
36.61
33.95
30.7
26.95
22.82
18.43
13.95
9.53
5.39
1.62
-1.8
-5.05
-8.42
-12.14
-16.3
-20.75
-25.2
-29.39
-33.18
-36.63
-39.92
-43.29
-47.01
-51.37
-56.75
-63.37
-71
-78.7
-84.74
-87.1
-84.14
-75.28
-61.4
-44.55
-27.23
-11.62
0.98
10.3
16.79
21.2
24.29
26.62
28.59
30.44
32.27
34.07
35.7
37
37.79
37.99
37.62
36.85
35.94
35.19
34.82
34.89
35.22
35.49
35.32
34.39
32.55
29.84
26.38
22.39
18.09
13.73
9.64
6.08
3.21
0.91
-1.16
-3.53
-6.6
-10.54
-15.16
-20.02
-24.58
-28.48
-31.63
-34.27
-36.94
-40.29
-44.98
-51.39
-59.32
-67.84
-75.27
-79.61
-79.07
-72.82
-61.25
-45.95
-29.18
-13.19
0.44
11.1
19.05
25.01
29.79
33.91
37.56
40.7
43.37
45.71
48.07
50.81
54.08
57.74
61.36
64.44
66.7
68.25
69.56
71.31
73.97
77.57
81.61
85.25
87.65
88.43
87.75
86.32
85.06
84.72
85.7
88.12
91.8
96.34
100.88
103.89
103.14
96.22
81.17
57.13
24.53
-15.26
-60.49
-109.37
-159.98
-209.73
-254.97
-291.12
-313.53
-318.85
-306.24
-277.89
-238.56
-194.27
-150.77
-112.26
-80.81
-56.51
-38.21
-24.37
-13.7
-5.37
1.15
6.35
10.8
15.08
19.59
24.3
28.78
32.48
34.99
36.35
37.03
37.72
38.97
40.88
43.02
44.59
44.82
43.28
40.14
36.01
31.74
28.04
25.19
22.94
20.63
17.52
13.1
7.35
0.73
-5.98
-12.08
-17.25
-21.67
-25.9
-30.74
-36.88
-44.68
-53.99
-64
-73.28
-80.01
-82.36
-79.06
-69.91
-55.92
-39.08
-21.82
-6.3
6.12
14.96
20.65
24.05
26.15
27.76
29.3
30.88
32.34
33.55
34.4
35
35.48
35.93
36.35
36.6
36.53
36.09
35.3
34.23
32.95
31.47
29.74
27.63
25.02
21.76
17.72
12.86
7.3
1.33
-4.62
-10.17
-15.1
-19.46
-23.6
-27.99
-33.21
-39.65
-47.43
-56.08
-64.56
-71.24
-74.32
-72.36
-64.82
-52.39
-36.8
-20.27
-4.93
7.85
17.58
24.52
29.24
32.39
34.45
35.74
36.55
37.08
37.49
37.86
38.09
38.03
37.57
36.69
35.6
34.61
34.01
33.88
33.96
33.65
32.19
28.95
23.64
16.54
8.35
0
-7.7
-14.29
-19.73
-24.36
-28.75
-33.63
-39.68
-47.35
-56.52
-66.3
-74.96
-80.35
-80.55
-74.59
-62.95
-47.43
-30.52
-14.6
-1.17
9.32
17.26
23.44
28.55
32.97
36.8
39.96
42.35
43.89
44.5
44.21
43.11
41.45
39.59
37.88
36.58
35.68
35.05
34.5
33.84
32.97
31.78
30.11
27.67
24.21
19.59
13.93
7.59
1.06
-5.19
-10.91
-16.05
-20.73
-25.19
-29.71
-34.66
-40.48
-47.59
-56.07
-65.41
-74.3
-80.81
-82.88
-79.15
-69.43
-54.96
-37.96
-20.88
-5.61
6.93
16.76
24.46
30.65
35.77
40
43.42
46.15
48.36
50.23
51.8
52.95
53.44
53.13
52.04
50.46
48.78
47.45
46.69
46.46
46.38
45.87
44.42
41.67
37.7
32.88
27.81
23.03
18.82
15.08
11.46
7.45
2.66
-3.02
-9.34
-15.87
-22.11
-27.72
-32.66
-37.31
-42.3
-48.42
-56.22
-65.64
-75.78
-84.86
-90.69
-91.27
-85.58
-73.97
-58.09
-40.32
-23.06
-7.97
4.18
13.45
20.34
25.48
29.46
32.72
35.6
38.26
40.68
42.69
44.09
44.76
44.79
44.38
43.79
43.17
42.54
41.82
40.84
39.51
37.76
35.61
33.07
30.17
26.95
23.46
19.72
15.74
11.49
6.91
1.97
-3.32
-8.8
-14.24
-19.37
-24.07
-28.44
-32.93
-38.25
-45
-53.31
-62.46
-70.83
-76.28
-76.8
-71.31
-60.08
-44.7
-27.56
-11.03
3.19
14.36
22.63
28.64
33.15
36.69
39.53
41.72
43.18
43.91
43.98
43.59
42.91
42.13
41.36
40.66
40.11
39.81
39.8
40.03
40.31
40.3
39.61
37.94
35.14
31.29
26.63
21.55
16.47
11.74
7.57
3.9
0.43
-3.29
-7.62
-12.68
-18.24
-23.76
-28.64
-32.45
-35.11
-36.97
-38.66
-40.95
-44.6
-50.05
-57.33
-65.8
-74.17
-80.61
-83.22
-80.55
-72.15
-58.8
-42.31
-24.95
-8.82
4.67
15
22.35
27.33
30.67
33
34.79
36.28
37.57
38.58
39.17
39.21
38.67
37.7
36.6
35.68
35.21
35.28
35.79
36.45
36.9
36.75
35.72
33.71
30.85
27.41
23.68
19.82
15.82
11.53
6.77
1.46
-4.26
-10.1
-15.7
-20.79
-25.33
-29.49
-33.69
-38.47
-44.35
-51.52
-59.55
-67.3
-72.99
-74.8
-71.47
-62.84
-50
-34.87
-19.62
-5.97
5.08
13.32
18.99
22.54
24.49
25.33
25.58
25.67
25.88
26.26
26.65
26.77
26.36
25.32
23.72
21.81
19.96
18.48
17.57
17.15
16.84
16.06
14.25
11.1
6.7
1.54
-3.76
-8.67
-12.99
-16.93
-20.95
-25.66
-31.61
-39
-47.51
-56.15
-63.3
-67.08
-65.99
-59.43
-48.03
-33.55
-18.23
-4.09
7.59
16.45
22.76
27.03
29.74
31.2
31.68
31.47
30.93
30.43
30.19
30.27
30.52
30.67
30.49
29.86
28.86
27.73
26.75
26.09
25.66
25.05
23.69
20.99
16.63
10.74
3.83
-3.35
-10.1
-15.99
-21.02
-25.59
-30.38
-36.18
-43.54
-52.55
-62.63
-72.38
-79.82
-82.86
-79.97
-70.85
-56.67
-39.68
-22.5
-7.25
4.98
14.15
20.92
26.09
30.27
33.77
36.75
39.29
41.45
43.28
44.69
45.57
45.79
45.38
44.51
43.51
42.75
42.5
42.85
43.55
44.16
44.1
42.83
40.09
35.96
30.88
25.46
20.33
15.81
11.91
8.29
4.45
-0.06
-5.38
-11.34
-17.45
-23.16
-28.1
-32.28
-36.11
-40.3
-45.62
-52.66
-61.47
-71.43
-81.14
-88.58
-91.65
-88.83
-79.72
-65.34
-47.79
-29.6
-12.9
1.06
12.04
20.45
26.95
32.05
36.09
39.27
41.85
44.1
46.2
48.15
49.82
51
51.59
51.66
51.4
51.01
50.59
50.13
49.55
48.77
47.69
46.23
44.26
41.59
38.05
33.67
28.71
23.59
18.84
14.81
11.53
8.71
5.84
2.42
-1.83
-6.88
-12.4
-17.91
-23
-27.45
-31.35
-35.03
-39
-43.82
-49.92
-57.55
-66.45
-75.84
-84.24
-89.75
-90.53
-85.43
-74.47
-58.98
-41.23
-23.71
-8.41
3.64
12.4
18.53
22.95
26.43
29.41
32.06
34.3
36.01
37.1
37.57
37.52
37.16
36.64
36.06
35.45
34.82
34.28
33.94
33.96
34.3
34.67
34.57
33.45
30.98
27.2
22.61
17.9
13.74
10.46
7.87
5.42
2.46
-1.48
-6.42
-11.96
-17.44
-22.2
-25.95
-28.89
-31.58
-34.89
-39.56
-46.06
-54.24
-63.26
-71.6
-77.33
-78.63
-74.32
-64.36
-49.97
-33.29
-16.79
-2.48
8.53
16.21
21.28
24.76
27.57
30.23
32.87
35.36
37.5
39.15
40.27
40.94
41.25
41.24
40.95
40.36
39.52
38.6
37.77
37.16
36.7
36.06
34.8
32.53
29.12
24.79
20.02
15.39
11.33
7.98
5.12
2.27
-1.07
-5.25
-10.3
-15.91
-21.58
-26.78
-31.26
-35.04
-38.47
-42.06
-46.34
-51.75
-58.47
-66.34
-74.6
-81.9
-86.44
-86.44
-80.78
-69.55
-54.11
-36.75
-19.89
-5.35
6.04
14.45
20.62
25.41
29.44
33.04
36.26
39.03
41.26
42.87
43.81
44.1
43.86
43.25
42.43
41.57
40.71
39.93
39.21
38.54
37.87
37.11
36.09
34.62
32.54
29.78
26.39
22.58
18.56
14.58
10.78
7.27
3.99
0.83
-2.45
-6.08
-10.17
-14.71
-19.49
-24.22
-28.65
-32.67
-36.31
-39.77
-43.36
-47.52
-52.74
-59.36
-67.33
-75.86
-83.33
-87.66
-86.91
-80.14
-67.84
-51.83
-34.64
-18.62
-5.28
4.91
12.3
17.54
21.29
23.98
25.92
27.37
28.62
29.88
31.21
32.51
33.55
34.08
33.99
33.37
32.48
31.73
31.44
31.74
32.47
33.13
33.11
31.88
29.26
25.45
21
16.58
12.7
9.5
6.73
3.88
0.42
-3.96
-9.23
-15.03
-20.83
-26.18
-30.82
-34.85
-38.67
-42.92
-48.3
-55.22
-63.54
-72.25
-79.58
-83.38
-81.86
-74.27
-61.26
-44.72
-27.15
-10.81
2.84
13.31
20.87
26.13
29.7
32.09
33.68
34.82
35.77
36.67
37.52
38.14
38.37
38.09
37.33
36.27
35.21
34.46
34.22
34.51
35.09
35.51
35.16
33.6
30.66
26.6
21.97
17.33
13.07
9.16
5.21
0.7
-4.69
-10.98
-17.77
-24.43
-30.38
-35.24
-39.08
-42.37
-45.91
-50.61
-57.17
-65.73
-75.58
-85.08
-91.98
-94.08
-89.96
-79.57
-64.25
-46.29
-28.22
-12.05
1.12
11.03
18.07
22.89
26.21
28.66
30.75
32.78
34.86
36.9
38.74
40.21
41.2
41.7
41.72
41.36
40.79
40.28
40.12
40.43
41.09
41.67
41.59
40.29
37.52
33.37
28.32
22.95
17.81
13.23
9.24
5.56
1.78
-2.49
-7.52
-13.19
-19.11
-24.7
-29.48
-33.28
-36.52
-40
-44.73
-51.49
-60.42
-70.75
-80.79
-88.3
-91.07
-87.63
-77.77
-62.69
-44.7
-26.44
-10.14
2.94
12.65
19.59
24.65
28.52
31.53
33.72
35.01
35.44
35.22
34.66
34.08
33.62
33.32
33.08
32.78
32.35
31.81
31.21
30.59
29.95
29.11
27.8
25.7
22.51
18.12
12.66
6.56
0.41
-5.23
-10.02
-14.02
-17.63
-21.49
-26.27
-32.48
-40.34
-49.57
-59.29
-68.04
-73.98
-75.35
-71.08
-61.19
-46.89
-30.26
-13.61
1.22
13.18
22.05
28.26
32.39
35.06
36.73
37.68
38.11
38.1
37.65
36.72
35.3
33.38
31.13
28.8
26.67
24.99
23.77
22.83
21.76
20.06
17.35
13.47
8.59
3.07
-2.67
-8.31
-13.82
-19.44
-25.71
-33.2
-42.26
-52.73
-63.65
-73.29
-79.5
-80.37
-74.86
-63.3
-47.33
-29.39
-11.95
3.12
14.92
23.49
29.45
33.71
37.04
39.96
42.59
44.77
46.11
46.28
45.15
42.86
39.83
36.57
33.51
30.84
28.51
26.33
24.03
21.37
18.2
14.46
10.17
5.44
0.38
-4.92
-10.5
-16.59
-23.6
-32.05
-42.14
-53.45
-64.65
-73.62
-77.97
-75.91
-66.98
-52.33
-34.38
-15.97
0.53
13.79
23.71
30.92
36.35
40.74
44.54
47.82
50.5
52.38
53.27
53.05
51.74
49.51
46.68
43.65
40.72
38.06
35.59
33.05
30.17
26.75
22.72
18.14
13.13
7.83
2.31
-3.44
-9.59
-16.51
-24.67
-34.46
-45.79
-57.73
-68.48
-75.68
-77.15
-71.72
-59.76
-43.14
-24.65
-7
7.92
19.43
27.98
34.55
40.12
45.34
50.34
54.98
59.01
62.22
64.53
65.9
66.29
65.69
64.18
62.05
59.76
57.76
56.36
55.47
54.67
53.3
50.76
46.79
41.52
35.56
29.61
24.32
19.91
16.16
12.48
8.17
2.78
-3.75
-11.03
-18.4
-25.25
-31.24
-36.46
-41.39
-46.81
-53.52
-62.1
-72.55
-83.94
-94.31
-101.09
-101.79
-95.01
-81.08
-62.11
-41.28
-21.71
-5.52
6.64
15.41
22.02
27.63
32.89
37.95
42.6
46.54
49.56
51.59
52.69
53.07
53.01
52.85
52.81
52.99
53.29
53.49
53.38
52.88
52.01
50.89
49.55
47.84
45.48
42.18
37.82
32.66
27.3
22.52
19.04
17.17
16.72
16.97
16.92
15.66
12.72
8.25
2.99
-1.98
-5.52
-6.72
-4.88
0.46
9.52
22.36
38.63
57.65
78.49
100.35
122.69
145.15
166.98
186.5
201
207.28
202.89
187.21
161.78
129.77
94.55
58.27
21.16
-18.07
-60.76
-106.58
-152.44
-192.98
-222.2
-235.82
-233.23
-217.88
-196.01
-174.31
-157.45
-146.77
-140.67
-136.2
-130.81
-123.55
-114.99
-106.24
-98.04
-90.21
-82.03
-72.94
-63.1
-53.6
-45.98
-41.42
-40.29
-41.99
-45.39
-49.43
-53.58
-57.8
-62.15
-66.21
-68.81
-68.27
-63.03
-52.49
-37.37
-19.58
-1.65
14.18
26.5
35.06
40.44
43.59
45.5
46.86
48.07
49.27
50.43
51.42
52.01
51.97
51.14
49.53
47.34
44.96
42.88
41.49
40.97
41.13
41.45
41.26
39.93
37.22
33.31
28.78
24.34
20.57
17.6
15.18
12.72
9.6
5.46
0.34
-5.31
-10.84
-15.62
-19.37
-22.27
-24.93
-28.19
-32.85
-39.33
-47.41
-56.18
-64.15
-69.48
-70.56
-66.44
-57.27
-44.21
-29.19
-14.35
-1.37
8.81
16.1
21
24.23
26.44
28.04
29.16
29.83
30.09
30.07
29.98
30.02
30.23
30.48
30.47
29.91
28.69
27.03
25.28
23.8
22.68
21.67
20.23
17.81
14.14
9.31
3.78
-1.81
-6.93
-11.29
-14.99
-18.37
-21.94
-26.15
-31.41
-37.87
-45.42
-53.59
-61.39
-67.53
-70.52
-69.21
-63.19
-53.01
-40.12
-26.37
-13.51
-2.67
5.78
12.1
16.9
20.76
24.1
27.06
29.65
31.75
33.21
33.99
34.09
33.63
32.77
31.66
30.42
29.17
28.03
27.2
26.83
26.92
27.14
26.92
25.65
22.97
18.94
14.09
9.19
4.84
1.31
-1.63
-4.46
-7.67
-11.46
-15.66
-19.85
-23.6
-26.71
-29.32
-31.87
-35.01
-39.37
-45.33
-52.83
-61.15
-68.9
-74.26
-75.52
-71.57
-62.41
-49.18
-33.88
-18.66
-5.22
5.55
13.61
19.44
23.7
27
29.75
32.21
34.49
36.57
38.34
39.63
40.31
40.32
39.8
38.96
38.08
37.36
36.89
36.64
36.48
36.21
35.58
34.34
32.24
29.13
25.02
20.15
14.98
10.06
5.91
2.74
0.41
-1.61
-4.01
-7.33
-11.72
-16.85
-21.99
-26.44
-29.8
-32.22
-34.35
-37.09
-41.27
-47.33
-55.17
-64.03
-72.58
-79.11
-81.92
-79.76
-72.28
-60.19
-45.2
-29.5
-15.09
-3.36
5.3
11.25
15.33
18.38
21.01
23.45
25.65
27.43
28.63
29.25
29.46
29.5
29.56
29.7
29.82
29.75
29.37
28.69
27.81
26.88
25.94
24.84
23.3
21.05
17.94
14.08
9.75
5.31
0.98
-3.18
-7.2
-11.2
-15.23
-19.32
-23.63
-28.43
-34.1
-40.78
-48.08
-54.87
-59.38
-59.73
-54.56
-43.6
-27.87
-9.43
9.23
25.91
39.2
48.82
55.46
60.44
65.24
70.95
77.99
85.98
94.01
101.06
106.45
110.19
112.9
115.63
119.54
125.61
134.33
145.48
157.65
168.11
173.06
168.44
151.36
121.42
81.34
36.51
-6.68
-42.7
-68.41
-83.36
-89.04
-87.66
-81.16
-71.08
-58.99
-47
-37.78
-33.82
-36.35
-44.51
-55.54
-65.9
-72.94
-75.95
-76.22
-75.85
-76.16
-76.6
-74.79
-67.79
-53.69
-32.84
-7.87
17.34
39.18
55.51
66.08
71.98
74.82
75.86
75.61
73.95
70.56
65.3
58.47
50.66
42.54
34.54
26.77
19.2
11.97
5.59
0.91
-1.23
-0.53
2.46
6.45
9.83
11.33
10.53
7.9
4.45
1.24
-1.18
-2.93
-4.73
-7.6
-12.48
-19.98
-30.17
-42.53
-56.08
-69.53
-81.7
-91.8
-99.76
-106.17
-112.1
-118.6
-126.12
-134.1
-140.97
-144.66
-143.32
-136.13
-123.62
-107.58
-90.38
-74.2
-60.4
-49.32
-40.55
-33.36
-27.22
-21.94
-17.59
-14.28
-11.91
-10.06
-8.2
-5.91
-3.15
-0.29
2.06
3.37
3.52
2.83
1.89
1.16
0.64
-0.08
-1.61
-4.37
-8.36
-13.19
-18.34
-23.61
-29.17
-35.56
-43.28
-52.47
-62.76
-73.53
-84.31
-94.97
-105.75
-116.77
-127.64
-137.19
-143.71
-145.61
-142.09
-133.54
-121.41
-107.64
-93.98
-81.54
-70.66
-61.11
-52.33
-43.69
-34.57
-24.41
-12.88
0.08
14.18
28.84
43.22
56.46
67.9
77.28
84.81
91.15
97.09
103.34
110.18
117.39
124.33
130.12
133.88
134.85
132.52
126.61
117.17
104.63
89.85
74.1
58.77
45.03
33.52
24.19
16.45
9.47
2.44
-5.25
-14
-24.13
-35.77
-48.67
-61.81
-73.41
-81.3
-83.65
-79.9
-71.04
-59.34
-47.52
-37.75
-31.05
-27.28
-25.55
-24.84
-24.37
-23.7
-22.65
-21.09
-18.86
-15.81
-11.75
-6.45
0.24
8.38
17.88
28.31
39.02
49.21
58.11
65.2
70.28
73.48
75.19
75.88
75.88
75.36
74.36
72.97
71.45
70.38
70.53
72.5
76.24
80.49
82.93
80.68
71.35
54.18
30.56
3.79
-21.94
-42.88
-56.9
-63.85
-65.34
-64
-62.6
-63.37
-67.44
-74.55
-83.11
-90.6
-94.23
-91.84
-82.6
-67.15
-47.52
-26.43
-6.74
9.35
20.72
27.55
31.09
33.15
35.31
38.28
41.66
44.34
45.18
43.75
40.56
36.81
33.81
32.31
32.28
33.05
33.77
33.74
32.62
30.3
26.71
21.9
16.22
10.47
5.96
4.06
5.62
10.52
17.54
24.82
30.56
33.63
33.87
31.86
28.49
24.51
20.36
16.22
12.18
8.2
4.08
-0.7
-6.76
-14.44
-23.37
-32.1
-38.39
-39.86
-34.95
-23.61
-7.41
10.97
28.71
43.69
54.92
62.41
66.6
67.87
66.32
61.95
55.02
46.3
37.1
28.89
22.82
19.38
18.36
19.06
20.75
22.99
25.8
29.45
34.16
39.76
45.63
50.82
54.29
55.17
52.91
47.42
39.06
28.6
17.16
5.99
-3.82
-11.65
-17.5
-21.95
-25.92
-30.22
-35.42
-41.67
-48.75
-56.14
-63.13
-68.95
-73.03
-75.3
-76.17
-76.37
-76.35
-75.93
-74.11
-69.54
-61.22
-49.18
-34.67
-19.77
-6.62
3.39
9.99
13.98
16.69
19.51
23.36
28.49
34.52
40.69
46.18
50.51
53.65
56.07
58.35
60.91
63.8
66.71
69.2
70.95
71.75
71.49
69.88
66.39
60.43
51.72
40.6
27.99
15.17
3.2
-7.38
-16.58
-24.65
-31.69
-37.53
-41.87
-44.69
-46.53
-48.38
-51.24
-55.53
-60.85
-66.19
-70.52
-73.37
-75.24
-77.36
-81.22
-87.77
-96.89
-107.12
-115.86
-120.06
-117.09
-105.66
-86.38
-61.73
-35.37
-11.09
8.31
21.62
29.29
32.84
34.17
34.92
36.15
38.3
41.39
45.1
48.99
52.45
54.86
55.74
54.83
52.29
48.59
44.42
40.49
37.24
34.73
32.66
30.45
27.51
23.47
18.35
12.52
6.54
0.93
-4.03
-8.36
-12.38
-16.44
-20.77
-25.36
-30.01
-34.49
-38.69
-42.72
-46.86
-51.54
-57.19
-64.04
-71.91
-79.96
-86.65
-90.04
-88.42
-80.9
-67.87
-50.94
-32.4
-14.48
1.2
13.87
23.46
30.26
34.69
37.25
38.54
39.24
39.94
41.02
42.52
44.19
45.67
46.68
47.07
46.92
46.42
45.83
45.4
45.26
45.41
45.58
45.36
44.22
41.74
37.76
32.47
26.4
20.2
14.34
9.02
4.09
-0.72
-5.61
-10.56
-15.41
-20
-24.36
-28.83
-33.98
-40.39
-48.32
-57.5
-66.93
-75.08
-80.14
-80.51
-75.15
-63.9
-47.6
-27.85
-6.68
13.94
32.51
48.15
60.67
70.29
77.47
82.56
85.78
87.22
87
85.45
83.08
80.56
78.47
77.2
76.9
77.55
78.96
80.88
82.87
84.35
84.61
83.18
80.24
76.92
75.2
77.24
84.52
97.03
113.06
129.64
143.4
151.57
152.52
145.93
132.59
114.12
92.72
70.86
50.85
34.1
20.48
8.16
-5.91
-24.75
-50.19
-81.99
-117.84
-154.01
-186.4
-211.5
-227
-232
-227
-213.73
-194.9
-173.79
-153.47
-136.24
-123.04
-113.45
-106.18
-99.77
-93.2
-86.26
-79.51
-73.73
-69.51
-66.79
-64.91
-62.9
-60.02
-56.05
-51.43
-47.03
-43.69
-41.87
-41.49
-41.89
-42.16
-41.35
-38.76
-34.18
-27.94
-20.93
-14.24
-8.9
-5.39
-3.67
-3.29
-3.75
-4.82
-6.6
-9.25
-12.69
-16.36
-19.29
-20.48
-19.33
-16.01
-11.53
-7.52
-5.72
-7.26
-12.28
-19.52
-26.54
-30.39
-28.42
-19.06
-2.24
20.38
45.71
69.82
88.96
100.55
104.05
101.17
95.28
90.07
88.26
90.68
96.4
103.53
110.31
115.77
119.59
121.64
121.34
117.65
109.62
97.12
81.15
63.66
46.73
31.8
19.13
7.92
-2.9
-14.05
-25.41
-36.25
-45.75
-53.57
-60.09
-66.13
-72.37
-78.91
-85.22
-90.49
-94.21
-96.43
-97.83
-99.38
-101.86
-105.74
-111.03
-117.35
-123.94
-129.6
-132.68
-131.42
-124.44
-111.41
-93.27
-72.04
-50.16
-29.61
-11.46
4.19
17.84
30.04
40.97
50.41
57.85
62.91
65.46
65.69
64.11
61.34
58.02
54.72
51.78
49.27
46.98
44.44
41.16
36.82
31.3
24.73
17.38
9.58
1.67
-6.05
-13.31
-19.94
-25.83
-30.79
-34.42
-36.07
-35.04
-31.01
-24.56
-17.02
-10.19
-5.46
-3.43
-3.86
-6.21
-10.24
-16.35
-25.21
-37.17
-51.66
-67.14
-81.41
-92.32
-98.11
-97.68
-90.59
-77.15
-58.55
-36.9
-14.94
4.62
19.83
30.06
35.98
39.09
41.02
42.94
45.31
48.11
51.09
53.94
56.23
57.33
56.5
53.28
48.01
42.01
37.35
35.96
38.85
45.52
54.21
62.68
69.13
72.72
73.46
71.74
67.8
61.6
53.14
42.81
31.59
20.78
11.42
3.87
-2.42
-8.62
-15.98
-25.23
-36.24
-47.95
-58.64
-66.36
-69.49
-67.14
-59.46
-47.54
-33.15
-18.24
-4.46
7.17
16.31
23.14
28.16
31.93
34.96
37.59
40.08
42.53
44.93
47.16
49.05
50.35
50.88
50.57
49.48
47.89
46.13
44.39
42.63
40.52
37.58
33.4
27.86
21.17
13.84
6.45
-0.5
-6.8
-12.56
-18.22
-24.44
-31.92
-41.09
-51.74
-62.85
-72.57
-78.77
-79.78
-75.02
-65.26
-52.33
-38.48
-25.54
-14.58
-5.78
1.22
6.91
11.67
15.67
18.97
21.61
23.66
25.2
26.29
26.96
27.15
26.81
25.88
24.29
22.11
19.51
16.9
14.95
14.34
15.51
18.37
22.04
25.13
26.21
24.31
19.43
12.46
4.73
-2.59
-8.92
-14.33
-19.26
-24.19
-29.41
-35.1
-41.33
-48.01
-54.66
-60.19
-63.1
-61.88
-55.67
-44.73
-30.4
-14.71
0.37
13.41
23.78
31.53
37.13
41.22
44.42
47.21
49.84
52.24
54.19
55.36
55.56
54.84
53.45
51.71
49.92
48.25
46.7
45.25
43.78
42.17
40.26
37.89
34.95
31.4
27.29
22.66
17.54
11.93
5.85
-0.61
-7.21
-13.64
-19.57
-24.86
-29.64
-34.36
-39.68
-46.27
-54.53
-64.26
-74.48
-83.48
-89.19
-89.78
-84.34
-73.25
-58.08
-41.13
-24.7
-10.42
1.04
9.89
16.84
22.65
27.85
32.56
36.62
39.77
41.9
43.15
43.85
44.44
45.18
46.08
46.86
47.19
46.87
45.94
44.65
43.29
41.97
40.48
38.43
35.31
30.81
24.92
17.95
10.43
2.96
-4.01
-10.24
-15.79
-20.99
-26.34
-32.45
-39.8
-48.53
-58.23
-67.79
-75.5
-79.5
-78.36
-71.62
-59.98
-45.09
-28.97
-13.45
0.3
11.84
21.34
29.22
35.94
41.85
47.15
51.88
55.97
59.25
61.58
62.9
63.17
62.54
61.22
59.49
57.65
55.96
54.61
53.59
52.69
51.52
49.59
46.57
42.36
37.24
31.78
26.61
22.18
18.53
15.33
11.95
7.82
2.64
-3.45
-9.97
-16.33
-22.06
-27.02
-31.41
-35.74
-40.66
-46.82
-54.62
-64.03
-74.3
-83.9
-90.8
-93.04
-89.34
-79.67
-65.34
-48.5
-31.48
-16.11
-3.27
7.01
15.21
21.93
27.64
32.61
37.03
41
44.51
47.5
49.78
51.25
51.87
51.8
51.28
50.61
49.98
49.49
49.19
49.04
48.94
48.74
48.17
46.94
44.78
41.55
37.36
32.55
27.56
22.76
18.39
14.4
10.54
6.51
2.01
-3.08
-8.65
-14.4
-19.94
-24.91
-29.12
-32.66
-35.86
-39.29
-43.58
-49.3
-56.75
-65.75
-75.43
-84.27
-90.27
-91.58
-87.07
-76.85
-62.31
-45.72
-29.46
-15.3
-4.04
4.48
10.95
16.12
20.54
24.44
27.88
30.81
33.2
35.02
36.26
36.88
36.9
36.38
35.53
34.64
34.01
33.87
34.22
34.79
35.07
34.52
32.77
29.82
26.01
21.9
17.94
14.32
10.87
7.21
2.97
-1.96
-7.4
-12.86
-17.88
-22.17
-25.8
-29.18
-32.99
-37.9
-44.32
-52.16
-60.67
-68.43
-73.71
-74.9
-71.06
-62.3
-49.75
-35.32
-21.01
-8.41
1.69
9.29
14.94
19.33
23.07
26.51
29.68
32.41
34.43
35.49
35.51
34.7
33.45
32.29
31.61
31.55
32.02
32.79
33.64
34.48
35.27
35.89
36.09
35.53
33.88
31.05
27.21
22.8
18.34
14.14
10.25
6.43
2.29
-2.41
-7.66
-13.2
-18.58
-23.41
-27.53
-31.08
-34.43
-38.01
-42.2
-47.35
-53.62
-60.95
-68.81
-76.11
-81.25
-82.57
-78.93
-70.17
-57.33
-42.34
-27.32
-13.97
-3.15
5.15
11.4
16.19
19.94
22.89
25.23
27.15
28.86
30.48
32
33.24
33.98
34.1
33.64
32.81
31.82
30.82
29.82
28.73
27.41
25.76
23.71
21.22
18.22
14.7
10.58
5.93
0.9
-4.27
-9.32
-14.02
-18.19
-21.84
-25.14
-28.4
-32.09
-36.63
-42.34
-49.2
-56.69
-63.76
-68.91
-70.65
-67.9
-60.47
-49.14
-35.57
-21.67
-9.09
1.26
9.2
15.13
19.57
22.91
25.28
26.73
27.34
27.32
26.99
26.64
26.48
26.52
26.66
26.74
26.67
26.38
25.92
25.39
24.84
24.23
23.36
21.87
19.43
15.8
10.97
5.23
-0.94
-6.99
-12.52
-17.35
-21.63
-25.81
-30.51
-36.41
-43.93
-53.03
-62.99
-72.38
-79.32
-82.03
-79.38
-71.27
-58.81
-43.87
-28.54
-14.46
-2.53
7.1
14.82
21.14
26.5
31.14
35.13
38.43
40.96
42.63
43.42
43.47
43.02
42.4
41.86
41.53
41.38
41.23
40.86
40.13
38.94
37.25
35.02
32.18
28.62
24.25
19.02
13.02
6.42
-0.47
-7.37
-14.06
-20.45
-26.58
-32.58
-38.56
-44.71
-51.24
-58.39
-66.22
-74.31
-81.6
-86.45
-87.13
-82.52
-72.58
-58.58
-42.58
-26.78
-12.79
-1.32
7.7
14.76
20.41
25.05
28.95
32.27
35.13
37.52
39.33
40.42
40.74
40.38
39.51
38.25
36.69
34.86
32.85
30.89
29.27
28.17
27.46
26.69
25.17
22.34
17.96
12.31
6.01
-0.22
-5.86
-10.81
-15.29
-19.76
-24.7
-30.52
-37.46
-45.51
-54.26
-62.74
-69.46
-72.7
-71.09
-64.12
-52.46
-37.8
-22.27
-7.78
4.47
14.13
21.45
27.01
31.3
34.69
37.32
39.28
40.6
41.38
41.72
41.73
41.42
40.71
39.48
37.62
35.19
32.47
29.84
27.64
25.95
24.49
22.68
19.92
15.79
10.28
3.85
-2.81
-8.95
-14.12
-18.29
-21.88
-25.64
-30.4
-36.82
-45.13
-54.96
-65.21
-74.14
-79.74
-80.27
-74.87
-63.94
-49.04
-32.42
-16.34
-2.41
8.69
17.11
23.47
28.48
32.68
36.39
39.76
42.81
45.52
47.79
49.45
50.34
50.37
49.61
48.32
46.91
45.79
45.22
45.16
45.27
45
43.82
41.38
37.69
33.09
28.1
23.22
18.75
14.7
10.78
6.57
1.72
-3.88
-10.04
-16.35
-22.36
-27.77
-32.58
-37.11
-41.99
-47.96
-55.55
-64.78
-74.84
-84.03
-90.14
-91.16
-85.97
-74.91
-59.64
-42.66
-26.41
-12.59
-1.81
6.27
12.48
17.68
22.43
26.96
31.19
34.92
37.93
40.09
41.29
41.52
40.85
39.45
37.6
35.69
34.04
32.79
31.85
30.87
29.44
27.2
24
19.94
15.34
10.62
6.11
2.03
-1.66
-5.19
-8.87
-12.9
-17.05
-20.68
-22.93
-23.14
-21.38
-18.55
-16.24
-16.14
-19.54
-26.85
-37.46
-49.85
-61.88
-71.15
-75.56
-73.83
-65.9
-53.02
-37.42
-21.63
-7.72
3.22
11.1
16.54
20.45
23.68
26.85
30.29
34.11
38.2
42.25
45.79
48.37
49.67
49.65
48.54
46.77
44.81
42.99
41.39
39.86
38.17
36.09
33.48
30.3
26.51
22.02
16.78
10.81
4.38
-2.13
-8.23
-13.64
-18.32
-22.53
-26.76
-31.57
-37.46
-44.66
-52.98
-61.65
-69.27
-74.04
-74.32
-69.21
-58.96
-44.99
-29.4
-14.29
-1.13
9.5
17.79
24.29
29.54
33.88
37.43
40.23
42.34
43.86
44.91
45.55
45.74
45.4
44.52
43.17
41.65
40.31
39.42
39.01
38.82
38.32
36.99
34.48
30.83
26.4
21.72
17.28
13.34
9.8
6.32
2.48
-2.05
-7.37
-13.3
-19.43
-25.31
-30.6
-35.25
-39.53
-44.04
-49.54
-56.58
-65.14
-74.42
-82.79
-88.17
-88.69
-83.35
-72.48
-57.65
-41.2
-25.47
-12.13
-1.84
5.68
11.27
15.86
20.09
24.21
28.11
31.5
34.13
35.88
36.74
36.78
36.09
34.76
32.88
30.68
28.47
26.61
25.34
24.68
24.31
23.69
22.21
19.38
15.06
9.49
3.24
-2.98
-8.56
-13.23
-17.09
-20.64
-24.59
-29.66
-36.35
-44.72
-54.19
-63.54
-71.03
-74.87
-73.7
-67.1
-55.8
-41.48
-26.24
-11.95
0.21
9.93
17.56
23.71
28.9
33.35
37.01
39.66
41.16
41.54
41.01
39.9
38.54
37.17
35.88
34.65
33.36
31.95
30.41
28.8
27.18
25.54
23.71
21.47
18.48
14.48
9.42
3.5
-2.86
-9.11
-14.8
-19.69
-23.84
-27.6
-31.48
-36.08
-41.9
-49.14
-57.52
-66.13
-73.48
-77.84
-77.73
-72.47
-62.48
-49.17
-34.56
-20.63
-8.75
0.51
7.32
12.3
16.2
19.64
23.01
26.48
30.03
33.49
36.57
38.99
40.5
41.01
40.62
39.54
38.08
36.52
35.02
33.69
32.48
31.3
29.99
28.32
26.04
22.93
18.86
13.88
8.21
2.2
-3.77
-9.36
-14.45
-19.07
-23.44
-27.95
-33.06
-39.24
-46.84
-55.84
-65.63
-74.95
-81.96
-84.73
-81.89
-73.16
-59.57
-43.2
-26.44
-11.34
0.96
10.32
17.29
22.61
26.89
30.39
33.12
35.06
36.22
36.77
36.92
36.83
36.53
35.91
34.85
33.31
31.43
29.5
27.89
26.76
25.95
25.01
23.35
20.47
16.22
10.86
4.93
-0.86
-5.98
-10.22
-13.8
-17.28
-21.4
-26.89
-34.16
-43.11
-52.86
-61.9
-68.33
-70.4
-67.1
-58.56
-45.99
-31.29
-16.44
-2.91
8.58
17.98
25.57
31.69
36.55
40.28
43.05
45.05
46.54
47.69
48.54
49
48.96
48.37
47.35
46.12
44.91
43.83
42.81
41.58
39.81
37.28
33.96
30.07
25.94
21.87
17.92
13.97
9.73
4.93
-0.42
-6.09
-11.72
-17.03
-21.9
-26.5
-31.08
-35.95
-41.39
-47.67
-54.86
-62.74
-70.54
-76.83
-79.86
-78.05
-70.69
-58.34
-42.72
-26.15
-10.79
2.03
12
19.52
25.37
30.19
34.36
37.99
41.05
43.48
45.23
46.24
46.49
46.01
44.94
43.52
42.07
40.85
40.02
39.52
39.11
38.47
37.25
35.23
32.36
28.77
24.69
20.36
15.88
11.25
6.34
1.06
-4.53
-10.24
-15.75
-20.82
-25.34
-29.47
-33.6
-38.24
-43.83
-50.53
-58.05
-65.5
-71.42
-74.19
-72.41
-65.44
-53.77
-38.98
-23.24
-8.73
3.12
11.88
17.98
22.25
25.44
27.86
29.46
30.08
29.74
28.76
27.63
26.76
26.28
25.99
25.55
24.69
23.41
21.99
20.82
20.18
20
19.78
18.8
16.36
12.18
6.52
0.12
-6.08
-11.36
-15.48
-18.76
-21.94
-25.83
-31.1
-37.98
-46.11
-54.53
-61.7
-65.87
-65.55
-60.03
-49.73
-36.15
-21.39
-7.54
4.01
12.75
18.95
23.34
26.65
29.38
31.78
33.83
35.39
36.31
36.45
35.85
34.72
33.38
32.19
31.38
30.93
30.62
30.14
29.29
27.97
26.26
24.24
21.93
19.27
16.14
12.45
8.24
3.61
-1.27
-6.29
-11.37
-16.48
-21.55
-26.46
-31.12
-35.53
-39.99
-45.02
-51.16
-58.65
-66.89
-74.43
-79.25
-79.39
-73.78
-62.66
-47.58
-30.87
-14.82
-1.05
9.83
18.04
24.28
29.22
33.3
36.66
39.24
40.95
41.79
41.86
41.32
40.35
39.07
37.62
36.11
34.73
33.58
32.73
32.07
31.33
30.18
28.33
25.66
22.27
18.37
14.16
9.75
5.11
0.19
-5.03
-10.42
-15.74
-20.74
-25.3
-29.46
-33.46
-37.69
-42.62
-48.64
-55.92
-64.13
-72.3
-78.82
-81.78
-79.63
-71.81
-59.06
-43.3
-27
-12.3
-0.5
8.23
14.5
19.17
22.94
26.09
28.65
30.58
31.94
32.9
33.64
34.23
34.56
34.43
33.69
32.36
30.59
28.67
26.83
25.18
23.61
21.91
19.76
16.88
13.08
8.35
2.86
-3.05
-8.94
-14.41
-19.26
-23.55
-27.67
-32.21
-37.76
-44.67
-52.75
-61.12
-68.3
-72.45
-72.02
-66.28
-55.65
-41.64
-26.36
-11.87
0.45
10.08
17.28
22.72
27.01
30.53
33.36
35.46
36.78
37.4
37.5
37.29
36.91
36.37
35.62
34.6
33.28
31.75
30.16
28.65
27.29
26
24.54
22.59
19.75
15.77
10.62
4.6
-1.77
-7.89
-13.33
-17.99
-22.15
-26.38
-31.28
-37.36
-44.8
-53.4
-62.51
-70.88
-76.94
-78.98
-75.77
-67
-53.59
-37.48
-21
-6.14
6.02
15.39
22.54
28.19
32.86
36.76
39.93
42.34
44.1
45.38
46.33
47.02
47.37
47.27
46.67
45.62
44.36
43.22
42.5
42.38
42.77
43.35
43.69
43.45
42.48
40.86
38.83
36.62
34.39
32.2
30.06
28.02
26.15
24.61
23.48
22.73
22.07
21.2
20.03
19.03
19.38
22.81
31.01
45.14
65.44
91.19
121.01
152.92
184.32
211.84
231.71
240.5
236.2
219.08
191.6
157.64
121.18
85.4
52.32
23.25
-0.77
-18.59
-29.2
-32.22
-28.23
-18.85
-6.34
6.86
18.46
26.57
29.81
27.41
19.27
6
-11.2
-30.78
-51.22
-71.49
-91.18
-110.54
-130.13
-150.21
-170.27
-188.79
-203.61
-212.65
-214.71
-210.12
-200.66
-188.9
-177.32
-167.49
-159.8
-153.76
-148.54
-143.48
-138.22
-132.57
-126.26
-118.87
-109.99
-99.53
-87.81
-75.56
-63.64
-52.78
-43.38
-35.51
-28.87
-22.96
-17.11
-10.81
-3.86
3.41
10.2
15.49
18.55
19.25
18.18
16.37
14.89
14.37
14.92
16.12
17.35
17.87
16.87
13.41
6.55
-4.23
-18.47
-34.25
-48.38
-57.26
-58.1
-49.95
-34
-13.13
9.29
30.4
48.47
62.99
74.17
82.45
88.24
91.83
93.34
92.83
90.24
85.51
78.74
70.34
61.11
52.03
44.07
37.83
33.42
30.47
28.29
26.22
23.78
20.71
16.88
12.26
6.86
0.89
-5.22
-10.92
-15.91
-20.39
-25.19
-31.34
-39.56
-49.69
-60.7
-71.15
-79.9
-86.74
-92.34
-97.86
-104.3
-112.2
-121.43
-131.35
-140.84
-148.32
-151.96
-149.93
-141.14
-125.75
-105.31
-82.41
-59.79
-39.54
-22.64
-9.04
1.85
10.69
17.86
23.5
27.68
30.65
32.86
34.92
37.39
40.53
44.18
47.82
50.75
52.42
52.74
52.18
51.56
51.63
52.7
54.39
55.64
55.26
52.38
46.91
39.57
31.54
23.84
16.86
10.23
3.1
-5.33
-15.52
-27.48
-40.94
-55.4
-69.96
-82.99
-92.15
-94.77
-88.77
-73.63
-50.91
-23.82
3.83
28.92
49.82
66.51
79.98
91.38
101.47
110.33
117.65
122.89
125.58
125.5
122.69
117.45
110.41
102.47
94.76
88.53
84.73
83.84
85.6
88.98
92.41
94.22
93.07
88.33
80.15
69.31
56.94
44.19
31.93
20.73
10.72
1.72
-6.71
-15.11
-23.91
-33.22
-42.73
-51.81
-59.79
-66.28
-71.4
-75.86
-80.78
-87.24
-95.89
-106.57
-118.05
-128.19
-134.44
-134.51
-127.22
-112.92
-93.47
-71.64
-50.26
-31.37
-15.96
-3.95
5.27
12.49
18.37
23.34
27.59
31.2
34.1
36.15
37.21
37.19
36.15
34.31
31.99
29.65
27.71
26.48
25.97
25.85
25.47
24.14
21.32
16.85
10.96
3.96
-3.79
-12.18
-21.16
-30.72
-40.8
-51.23
-61.78
-72.23
-82.37
-92
-101.02
-109.47
-117.67
-126.18
-135.7
-146.85
-159.86
-174.26
-188.71
-201.05
-208.74
-209.45
-201.54
-184.42
-158.57
-125.33
-86.79
-45.58
-4.73
32.65
63.89
87.26
102.33
109.89
111.47
108.82
103.51
96.84
89.93
83.8
79.23
76.61
75.84
76.32
77.31
78.17
78.57
78.48
78
77.22
76.12
74.57
72.45
69.66
66.12
61.75
56.5
50.31
43.26
35.61
27.77
20.24
13.37
7.12
1.1
-5.38
-12.84
-21.28
-29.83
-36.94
-40.77
-39.84
-33.76
-23.34
-10.37
3.01
14.97
24.51
31.45
36.19
39.28
41.14
41.97
41.83
40.79
38.98
36.62
33.97
31.32
28.87
26.72
24.75
22.73
20.32
17.28
13.6
9.63
5.86
2.87
1.09
0.66
1.45
3.12
5.29
7.53
9.32
9.89
8.43
4.35
-2.32
-10.79
-19.75
-27.92
-34.56
-39.69
-43.8
-47.16
-49.36
-49.16
-45.02
-35.92
-22.11
-5.14
12.64
28.95
42.34
52.43
59.62
64.68
68.15
70.18
70.64
69.57
67.32
64.54
61.84
59.38
56.86
53.72
49.66
44.96
40.39
36.96
35.34
35.66
37.43
39.83
41.85
42.56
41.12
36.95
29.95
20.69
10.39
0.58
-7.44
-13.05
-16.51
-18.84
-21.4
-25.5
-31.96
-40.89
-51.5
-62.26
-71.14
-76.22
-76.22
-70.95
-61.3
-48.89
-35.53
-22.7
-11.27
-1.55
6.61
13.55
19.72
25.55
31.36
37.26
43.05
48.28
52.37
54.79
55.19
53.56
50.18
45.67
40.79
36.31
32.74
30.17
28.24
26.27
23.6
19.91
15.4
10.62
6.21
2.6
-0.24
-2.68
-5.32
-8.68
-13.04
-18.32
-24
-29.14
-32.53
-32.89
-29.4
-22.02
-11.61
0.24
11.93
22.47
31.9
41.17
51.56
63.91
78.17
93.36
107.88
120.16
129.18
134.84
137.98
140.26
143.64
149.94
160.12
173.85
189.29
203.39
212.72
214.72
208.68
196.13
180.27
164.65
151.7
141.66
132.53
120.93
103.59
78.79
47.06
10.95
-26
-60.59
-90.97
-116.95
-139.57
-160.21
-179.73
-197.99
-213.9
-225.97
-232.86
-233.71
-228.24
-216.62
-199.35
-177.32
-151.92
-125.05
-98.89
-75.36
-55.68
-40.11
-27.97
-17.99
-8.74
0.98
11.99
24.57
38.47
52.87
66.52
77.97
86.02
90.06
90.34
87.79
83.61
78.67
73.19
66.65
58.21
47.24
33.67
18.18
1.99
-13.67
-27.99
-40.87
-52.87
-64.9
-77.71
-91.58
-106.15
-120.71
-134.55
-147.29
-159.07
-170.44
-182.05
-194.28
-206.84
-218.6
-227.57
-231.14
-226.73
-212.57
-188.35
-155.57
-117.28
-77.34
-39.39
-6.12
21.14
42.2
57.67
68.45
75.47
79.66
81.82
82.7
82.79
82.29
81.11
79.01
75.77
71.32
65.78
59.42
52.6
45.72
39.15
33.15
27.79
22.83
17.75
11.87
4.66
-4.03
-13.81
-23.9
-33.46
-41.93
-49.33
-56.27
-63.64
-72.26
-82.56
-94.49
-107.6
-121.08
-133.77
-144.12
-150.35
-150.9
-144.98
-133.05
-116.76
-98.35
-79.82
-62.24
-45.71
-29.79
-14.04
1.66
17.25
32.82
48.78
65.75
84.16
103.84
123.82
142.31
157.07
165.84
167.03
160.26
146.53
127.86
106.5
84.16
61.55
38.57
14.92
-9.47
-34.21
-58.63
-81.77
-102.27
-118.27
-127.6
-128.63
-121.32
-107.8
-92.02
-78.47
-70.76
-70.77
-78.53
-92.63
-110.64
-129.28
-144.61
-152.74
-151.11
-139.57
-120.71
-98.87
-78.25
-61.19
-47.68
-36.28
-25.58
-15.43
-6.97
-1.57
0.29
-0.36
-1.37
-0.16
5.53
17.25
35.68
60.41
89.5
119.38
145.36
163.23
170.89
169.52
163.05
156.41
153.03
153.19
154.03
151.18
141.22
123.44
100.23
75.85
54.36
37.88
25.95
16.32
6.5
-4.92
-17.83
-31.22
-44.04
-55.78
-66.37
-75.45
-81.9
-83.94
-80.03
-69.78
-54.4
-36.4
-18.53
-2.7
10.56
22.05
33.25
45.61
59.87
75.78
92.12
107.11
119.15
127.46
132.5
135.62
138.26
141.05
143.31
143.5
140.05
132.33
120.83
106.76
91.2
74.59
56.89
38.15
19.04
0.94
-14.67
-27
-36.23
-43.36
-49.5
-55.31
-60.88
-66.08
-70.99
-76.1
-82.06
-89.2
-97.16
-104.81
-110.5
-112.61
-110.01
-102.47
-90.64
-75.93
-60.07
-44.6
-30.56
-18.33
-7.85
1.15
8.84
15.24
20.36
24.29
27.24
29.52
31.37
32.91
34.16
35.07
35.57
35.63
35.29
34.7
34.08
33.61
33.25
32.69
31.41
28.87
24.87
19.68
13.93
8.39
3.58
-0.38
-3.77
-7.2
-11.28
-16.59
-23.46
-31.8
-40.98
-49.79
-56.64
-59.91
-58.35
-51.62
-40.4
-26.34
-11.62
1.67
12.15
19.39
23.89
26.68
28.75
30.66
32.48
33.9
34.61
34.46
33.55
32.12
30.42
28.63
26.89
25.32
24.05
23.02
22.1
20.97
19.25
16.66
13.05
8.54
3.42
-1.89
-6.96
-11.55
-15.68
-19.68
-24.14
-29.62
-36.34
-43.83
-50.92
-55.89
-57.1
-53.6
-45.51
-34
-20.88
-7.95
3.5
12.91
20.36
26.25
31.05
35.05
38.37
41.03
42.97
44.15
44.54
44.17
43.07
41.37
39.26
36.97
34.8
33.02
31.78
30.99
30.32
29.24
27.24
24.06
19.77
14.81
9.73
4.98
0.74
-3.15
-7.09
-11.58
-17.05
-23.72
-31.55
-40.08
-48.42
-55.36
-59.59
-60.05
-56.31
-48.74
-38.45
-26.93
-15.68
-5.77
2.26
8.43
13.09
16.7
19.68
22.27
24.57
26.51
27.98
28.86
29.06
28.58
27.49
26
24.35
22.77
21.42
20.27
19.14
17.71
15.63
12.71
8.94
4.53
-0.14
-4.66
-8.71
-12.24
-15.48
-18.86
-22.95
-28.17
-34.6
-41.79
-48.74
-54.12
-56.6
-55.36
-50.26
-42
-31.82
-21.09
-10.98
-2.2
4.98
10.58
14.71
17.56
19.34
20.29
20.73
20.92
21.02
21.07
21.01
20.74
20.27
19.62
18.98
18.51
18.33
18.44
18.64
18.6
17.86
16.07
13.05
8.98
4.32
-0.34
-4.5
-7.96
-10.89
-13.84
-17.47
-22.4
-28.88
-36.67
-44.91
-52.25
-57.08
-58.09
-54.59
-46.92
-36.21
-24.04
-11.9
-0.77
8.91
17.17
24.2
30.22
35.48
40.2
44.62
48.81
52.64
55.74
57.73
58.42
57.99
56.85
55.39
53.77
51.85
49.32
46.02
42.03
37.65
33.21
28.81
24.26
19.28
13.64
7.48
1.09
-5.22
-11.41
-17.65
-24.16
-30.89
-37.29
-42.63
-46.36
-48.65
-50.4
-52.83
-56.68
-61.66
-66.33
-68.66
-67.03
-60.97
-51.4
-40.21
-29.4
-20.31
-13.19
-7.22
-1.01
6.6
16
26.31
35.63
41.77
43.14
39.54
32.26
23.49
15.55
10.17
8.34
10.43
16.29
25.09
35.08
43.6
47.71
45.32
36.22
22.28
6.57
-7.9
-19.46
-27.89
-33.92
-38.32
-41.5
-43.69
-45.44
-47.77
-51.78
-58.04
-66.2
-75.07
-83.06
-88.64
-90.46
-87.35
-78.61
-64.53
-46.86
-28.7
-13.4
-2.99
2.99
7.32
13.56
23.99
38.12
52.7
63.36
66.7
61.95
51.38
39.14
29.36
24.5
24.44
27
29.34
29.55
27.55
24.82
23.23
23.63
25.28
26.34
25.11
21.2
15.88
11.37
9.56
10.92
14.25
17.34
18.04
15.2
8.95
0.38
-9.04
-17.89
-25.05
-29.71
-31.37
-29.98
-26.07
-20.61
-14.62
-8.8
-3.29
2.16
7.68
12.98
17.38
20.14
21.04
20.47
19.16
17.67
16.07
13.91
10.74
6.47
1.64
-2.82
-6.12
-7.96
-8.78
-9.44
-10.87
-13.56
-17.38
-21.67
-25.68
-28.96
-31.62
-34.17
-37.13
-40.65
-44.44
-47.97
-50.88
-53.09
-54.6
-55.2
-54.2
-50.72
-44.16
-34.79
-23.85
-13.13
-4.25
2.01
5.82
7.94
9.17
9.9
10.06
9.39
7.79
5.5
3.03
0.93
-0.43
-0.87
-0.48
0.57
1.96
3.29
4.01
3.53
1.44
-2.29
-7.14
-12.27
-16.8
-20.21
-22.63
-24.82
-27.92
-32.91
-40.16
-49.02
-57.88
-64.54
-66.87
-63.56
-54.59
-41.24
-25.61
-10.04
3.5
13.76
20.33
23.56
24.38
23.93
23.19
22.71
22.42
21.87
20.52
18.03
14.47
10.21
5.73
1.46
-2.37
-5.78
-9.12
-12.95
-17.78
-23.68
-29.94
-35.17
-37.78
-36.66
-31.52
-22.77
-11.06
2.92
18.35
33.86
47.47
57.24
62.39
64.11
65.27
69.01
76.92
87.98
99.04
106.59
108.67
105.87
100.86
96.86
96
98.4
102.47
105.77
106.17
102.46
94.2
81.3
63.48
40.45
12.61
-18.26
-48.94
-76.06
-97.71
-114.62
-129.63
-145.7
-163.61
-181.05
-193.7
-198
-193.49
-183.4
-172.87
-165.87
-162.75
-160.01
-152.47
-136.62
-112.96
-86.08
-62.47
-47.45
-42.83
-46.68
-54.96
-63.83
-71.46
-77.92
-83.92
-89.24
-92.09
-89.9
-80.9
-65.43
-45.95
-25.97
-8.44
5.27
15.43
23.39
30.61
37.97
45.5
52.55
58.26
61.93
63.41
63.16
62.07
61.07
60.63
60.61
60.35
59.1
56.4
52.37
47.55
42.62
38
33.64
29.09
23.78
17.33
9.78
1.67
-6.22
-13.17
-18.92
-23.81
-28.7
-34.63
-42.41
-52.26
-63.61
-75.24
-85.48
-92.58
-95.13
-92.38
-84.48
-72.47
-58.01
-43.03
-29.14
-17.4
-8.09
-0.87
4.91
9.93
14.59
18.94
22.63
25.15
26.07
25.25
22.91
19.47
15.4
10.97
6.28
1.46
-3.27
-7.63
-11.53
-15.32
-19.67
-25.09
-31.37
-37.28
-41.19
-42.22
-41.17
-40.59
-43.53
-51.78
-64.44
-78.08
-88.29
-91.78
-87.7
-77.56
-63.83
-48.42
-31.78
-13.26
7.81
31.23
55.6
79.04
100.16
118.6
134.97
150.33
165.48
180.77
196.2
211.71
227.29
242.75
257.23
268.86
274.83
272.09
258.25
232.82
197.69
157.03
116.24
80.58
53.66
36.72
28.67
27.04
29.21
33.37
38.63
44.66
50.98
56.76
61.16
63.86
65.56
67.81
72.33
80.37
92.18
107.06
123.42
139.03
151.12
157.16
155.62
146.75
132.69
116.52
100.76
86.25
72.09
56.9
40.28
23.66
9.76
1.04
-1.8
-0.16
3.23
5.89
6.69
6.02
4.95
4.22
3.71
2.49
-0.47
-5.64
-12.63
-20.29
-27.23
-32.41
-35.63
-37.62
-39.68
-43.02
-47.99
-53.78
-58.73
-61.11
-59.96
-55.45
-48.84
-41.71
-35.41
-30.57
-27.13
-24.63
-22.58
-20.65
-18.73
-16.83
-15
-13.38
-12.08
-11.29
-11.16
-11.74
-12.95
-14.5
-16.03
-17.1
-17.39
-16.69
-15.03
-12.62
-9.91
-7.44
-5.73
-5.08
-5.49
-6.71
-8.36
-10.06
-11.64
-12.96
-13.97
-14.48
-14.28
-13.11
-10.88
-7.66
-3.65
0.86
5.5
9.83
13.34
15.47
15.76
13.89
9.77
3.59
-4.2
-12.84
-21.41
-28.89
-34.61
-38.3
-40.22
-41.02
-41.25
-41.25
-41.1
-40.78
-40.47
-40.68
-41.99
-44.75
-48.78
-53.34
-57.45
-60.35
-61.81
-62.15
-62.03
-62
-62.32
-62.82
-63.12
-62.94
-62.24
-61.25
-60.36
-60.01
-60.43
-61.69
-63.77
-66.5
-69.67
-73
-76.1
-78.69
-80.56
-81.7
-82.22
-82.25
-81.79
-80.69
-78.71
-75.67
-71.63
-67.03
-62.76
-59.88
-59.41
-61.78
-66.58
-72.38
-77.12
-78.72
-75.92
-68.83
-58.88
-48.37
-39.5
-33.73
-31.44
-32.2
-35.26
-39.98
-46.14
-53.76
-63.04
-74.12
-87.15
-102.16
-118.66
-135.19
-149.08
-156.68
-154.23
-139.35
-112.07
-75.37
-34.18
6.05
40.87
67.47
84.27
90.37
85.4
70.31
48.26
24.68
6
-2.62
0.99
15.55
37.77
64.2
92.39
120.34
145.07
161.85
165.27
152.03
123.36
85.54
47.52
16.96
-2.9
-13.72
-19.49
-23.14
-24.51
-21.04
-10.35
7.18
27.79
45.96
57.24
60.36
57.34
51.95
47.33
44.47
42.02
37.38
28.41
14.68
-2.2
-19.14
-32.72
-40.39
-41.47
-37.2
-30.06
-22.46
-15.68
-9.5
-2.73
5.71
15.96
26.88
36.49
42.97
45.48
44.59
41.92
39.42
38.39
39.09
40.78
42.27
42.66
41.62
39.36
36.18
32.2
27.27
21.32
14.57
7.49
0.52
-6.3
-13.35
-21.13
-29.67
-38.17
-45.06
-48.55
-47.27
-40.83
-29.89
-15.98
-1.03
13.09
25.01
34.03
40.23
44.11
46.18
46.63
45.28
41.87
36.62
30.42
24.57
20.23
17.63
16.03
14.16
11.15
7.27
4.06
3.56
7.24
15.2
25.99
37.34
46.99
53.25
55.19
52.34
44.62
32.49
17.45
2.1
-10.21
-16.5
-15.38
-7.57
4.34
16.97
27.47
34.46
38.05
39.53
40.33
41.49
43.29
45.4
47.17
48.06
47.72
45.97
42.69
37.78
31.22
23.42
15.18
7.64
1.81
-1.82
-3.6
-4.58
-6.08
-9.27
-14.73
-22.46
-31.88
-41.94
-51.27
-58.27
-61.33
-59.32
-51.83
-39.49
-23.9
-7.19
8.48
21.65
31.93
39.94
46.92
54
61.65
69.59
77.08
83.64
89.53
95.9
104.36
116.19
131.69
149.96
169.25
187.45
202.44
212.1
214.47
208.04
192.63
169.95
143.77
118.72
98.63
84.74
75.27
66.34
53.98
36.22
13.91
-9.82
-31.07
-46.99
-56.5
-60.27
-59.83
-56.69
-51.78
-45.53
-38.25
-30.49
-23.32
-18.18
-16.56
-19.61
-27.86
-41.1
-58.42
-78.24
-98.54
-117.09
-131.69
-140.76
-143.63
-140.91
-134.29
-126
-118.31
-112.73
-109.8
-109.07
-109.5
-109.81
-109.05
-106.76
-102.98
-97.97
-91.94
-84.87
-76.48
-66.55
-55.14
-42.68
-29.79
-16.99
-4.53
7.62
19.55
31.13
41.83
50.87
57.5
61.16
61.8
59.68
55.4
49.8
43.69
37.75
32.29
27.17
21.96
16.18
9.5
1.89
-6.46
-15.3
-24.47
-33.83
-43.24
-52.46
-61.27
-69.61
-77.8
-86.63
-97.15
-110.19
-125.76
-142.68
-158.55
-170.27
-174.93
-170.81
-157.96
-138.3
-114.9
-91
-68.98
-49.81
-33.24
-18.47
-4.97
7.03
16.56
22.55
24.49
22.99
19.82
17.43
18.3
24.15
35.49
51.51
70.32
89.41
106.26
118.91
126.2
127.89
124.58
117.45
108.08
98.08
88.7
80.38
72.6
64.2
54.08
42.08
29.44
18.51
11.83
11.09
16.32
25.94
37.25
47.43
54.36
56.97
55.21
49.71
41.44
31.36
20.31
8.92
-2.38
-13.36
-23.94
-34.12
-43.85
-53.08
-61.68
-69.55
-76.66
-82.97
-88.42
-92.79
-95.81
-97.26
-97.26
-96.39
-95.58
-95.91
-98.17
-102.73
-109.44
-117.6
-125.92
-132.5
-135.03
-131.37
-120.35
-102.53
-80.3
-57.18
-36.64
-20.76
-9.62
-1.62
5.68
14.35
25.48
38.99
54.04
69.63
85.02
99.81
113.8
126.71
138.06
147.24
153.7
157.14
157.65
155.73
152.05
147.31
142.14
137.02
132.25
127.97
123.98
119.68
114.09
105.95
94.21
78.6
59.97
40.45
22.92
10.12
3.72
3.69
8.36
15.07
21.16
24.84
25.47
23.41
19.35
13.8
6.83
-1.76
-12
-23.48
-35.33
-46.47
-56.12
-64.12
-70.92
-77.29
-83.9
-90.97
-98.34
-105.71
-113.01
-120.47
-128.51
-137.29
-146.62
-155.84
-164.3
-171.64
-177.93
-183.3
-187.4
-188.98
-185.94
-176.14
-158.37
-133.13
-102.64
-70.06
-38.39
-9.5
16.08
38.74
58.95
76.71
91.4
102.23
108.92
112.04
113.01
113.61
115.32
118.81
123.83
129.45
134.48
137.88
138.93
137.26
132.73
125.42
115.73
104.41
92.47
80.89
70.25
60.38
50.43
39.26
26.14
11.28
-3.97
-17.49
-27.16
-31.67
-30.95
-26.02
-18.47
-9.82
-1.08
7.23
14.88
21.69
27.44
31.86
34.79
36.2
36.11
34.58
31.75
27.91
23.58
19.25
15.28
11.57
7.61
2.77
-3.45
-11.03
-19.55
-28.34
-36.89
-45.05
-53.08
-61.51
-70.92
-81.78
-94.24
-108.02
-122.2
-135.18
-144.84
-149.07
-146.46
-136.91
-121.78
-103.42
-84.47
-66.95
-51.9
-39.55
-29.71
-22.36
-17.68
-15.98
-17.19
-20.64
-25.02
-28.78
-30.58
-29.76
-26.44
-21.23
-14.95
-8.17
-1.05
6.49
14.53
22.81
30.74
37.54
42.49
45.17
45.5
43.66
40.12
35.79
32.2
31.41
35.7
46.68
64.55
87.67
112.87
136.31
154.77
166.41
171.01
169.5
163.24
153.42
140.94
126.56
111.19
95.88
81.56
68.61
56.77
45.25
33.27
20.46
7.07
-6.24
-18.77
-30.11
-40.26
-49.59
-58.65
-67.95
-77.9
-88.7
-100.28
-112.16
-123.43
-132.77
-138.61
-139.53
-134.69
-124.1
-108.72
-90.3
-70.87
-52.2
-35.41
-20.86
-8.46
1.93
10.21
16.06
19.24
19.93
18.8
16.89
15.14
14.1
13.71
13.52
13.02
11.88
10.09
7.91
5.64
3.36
0.8
-2.64
-7.82
-15.6
-26.51
-40.37
-56.06
-71.53
-84.11
-91.22
-91.12
-83.51
-69.58
-51.63
-32.32
-13.86
2.33
15.74
26.32
34.17
39.29
41.67
41.52
39.41
36.24
32.88
29.91
27.36
24.82
21.72
17.71
12.89
7.76
2.97
-1.13
-4.77
-8.76
-14.23
-22.12
-32.89
-46.33
-61.74
-78.03
-93.78
-107.24
-116.47
-119.64
-115.49
-103.93
-86.12
-64.27
-40.99
-18.59
1.45
18.53
32.76
44.57
54.5
63.06
70.7
77.71
84.13
89.71
94.07
96.94
98.44
99.15
99.99
101.81
105.05
109.59
114.84
119.97
124.1
126.32
125.63
121.15
112.53
100.53
87.1
74.97
66.5
62.62
62.36
63.31
62.77
59.19
52.78
45.33
39.1
35.67
35.11
36.11
36.63
34.93
30.31
23.28
15.1
7.11
-0.05
-6.63
-13.43
-21.23
-30.12
-39.44
-48.07
-55.14
-60.59
-65.21
-70.27
-76.91
-85.68
-96.28
-107.72
-118.51
-126.97
-131.48
-130.87
-124.72
-113.61
-98.88
-82.27
-65.3
-48.93
-33.56
-19.38
-6.76
3.69
11.35
16.02
18.19
18.99
19.76
21.46
24.46
28.45
32.82
36.93
40.52
43.65
46.66
49.86
53.23
56.25
57.79
56.38
50.61
39.59
23.43
3.44
-17.92
-37.6
-52.59
-60.73
-61.31
-55.23
-44.64
-32.28
-20.61
-11.28
-4.8
-0.9
1.1
1.81
1.54
0.3
-1.94
-5.23
-9.52
-14.71
-20.7
-27.37
-34.51
-41.79
-48.82
-55.21
-60.72
-65.32
-69.05
-72.01
-74.31
-76.09
-77.61
-79.3
-81.64
-85.1
-89.83
-95.47
-100.98
-104.57
-103.89
-96.63
-81.2
-57.51
-27.24
6.59
40.59
72.08
99.85
124.04
145.41
164.46
180.98
194.21
203.53
209
211.61
212.92
214.5
217.49
222.39
229.05
236.78
244.32
249.79
251.02
246.08
234.13
215.94
193.85
170.84
149.53
131.12
115.21
100.14
83.84
64.55
41.18
13.55
-17.67
-50.85
-83.45
-112.38
-134.73
-148.72
-154.36
-153.53
-149.31
-144.93
-142.73
-143.68
-147.3
-152.18
-156.53
-158.85
-158.33
-154.93
-149.2
-141.92
-133.59
-124.25
-113.6
-101.51
-88.41
-75.51
-64.38
-56.39
-52.1
-51.14
-52.52
-55.23
-58.61
-62.47
-66.84
-71.63
-76.56
-81.23
-85.28
-88.46
-90.41
-90.38
-87.17
-79.5
-66.5
-48.26
-26
-1.64
22.72
45.54
66.05
84.16
100
113.55
124.43
132.03
135.95
136.33
133.97
130.18
126.46
123.93
123.22
124.29
126.48
128.68
129.46
127.37
121.33
110.96
96.79
80.15
62.68
45.77
30.06
15.4
1.11
-13.39
-28.13
-42.29
-54.42
-62.94
-66.73
-65.61
-60.4
-52.72
-44.46
-37.14
-31.63
-27.95
-25.67
-24.15
-22.95
-21.97
-21.42
-21.66
-22.95
-25.3
-28.44
-31.87
-35.15
-37.99
-40.34
-42.39
-44.31
-46.16
-47.9
-49.44
-50.83
-52.34
-54.33
-57.08
-60.79
-65.53
-71.4
-78.55
-86.95
-96.01
-104.3
-109.66
-109.78
-102.98
-88.89
-68.52
-43.79
-16.78
10.86
38.04
64.06
88.28
109.84
127.8
141.22
149.33
151.58
147.73
138.08
123.68
106.47
88.94
73.51
61.78
53.92
48.87
44.85
40.19
33.91
25.83
16.24
5.45
-6.4
-19.32
-33.27
-47.94
-62.85
-77.59
-92.08
-106.59
-121.36
-136.07
-149.55
-159.83
-164.72
-162.61
-153.01
-136.86
-116.1
-93.14
-70.15
-48.6
-29.27
-12.32
2.25
14.55
24.61
32.54
38.65
43.49
47.71
51.82
56.02
60.06
63.52
66.04
67.7
68.99
70.55
72.69
75.06
76.69
76.35
73.15
66.89
58.17
48.01
37.45
27.11
17.1
7.1
-3.37
-14.71
-26.99
-39.81
-52.11
-62.27
-68.41
-68.95
-63.26
-51.96
-36.86
-20.34
-4.64
8.76
19.38
27.42
33.36
37.63
40.5
42.25
43.23
43.91
44.63
45.42
45.98
45.78
44.37
41.61
37.68
32.99
27.96
22.82
17.67
12.46
7.04
1.23
-5.14
-12.18
-19.79
-27.6
-35.02
-41.45
-46.6
-50.68
-54.41
-58.8
-64.69
-72.36
-81.23
-89.84
-96.15
-98.2
-94.69
-85.49
-71.8
-55.81
-39.93
-26.13
-15.41
-7.88
-3.05
-0.35
0.57
-0.17
-2.52
-6.38
-11.57
-17.94
-25.47
-34.16
-43.89
-54.1
-63.66
-70.88
-73.93
-71.32
-62.51
-48.28
-30.71
-12.77
2.54
13.2
18.79
20.52
20.52
20.73
21.88
23.14
22.47
17.79
7.88
-6.95
-24.97
-43.53
-59.9
-71.91
-78.21
-78.37
-72.7
-62.05
-47.66
-30.95
-13.4
3.59
18.89
31.8
42.16
50.29
56.81
62.25
66.77
70.05
71.6
71.09
68.63
64.77
60.24
55.62
51.27
47.35
43.96
41.16
38.8
36.31
32.75
27.23
19.43
9.95
0.12
-8.65
-15.57
-20.94
-25.98
-32.2
-40.7
-51.65
-64.2
-76.76
-87.36
-94.04
-95.19
-89.95
-78.37
-61.77
-42.4
-22.95
-5.89
7.26
16.11
21.27
23.89
25.28
26.69
29.2
33.61
40.27
48.95
58.82
68.69
77.32
83.7
87.13
87.23
83.94
77.5
68.63
58.47
48.24
38.86
30.54
22.91
15.4
7.78
0.32
-6.43
-12.25
-17.68
-23.91
-32.15
-42.75
-54.59
-65.26
-71.86
-72.21
-65.8
-54.07
-39.89
-26.41
-15.97
-9.26
-5.37
-2.64
0.46
4.39
8.31
10.68
10.11
6.31
0.3
-5.81
-9.62
-9.19
-3.52
7.26
21.94
38.37
53.87
65.68
71.76
71.29
65.08
55.12
43.9
33.46
24.84
17.94
11.86
5.46
-2.27
-11.88
-23.3
-35.75
-47.59
-56.8
-61.32
-59.71
-51.71
-38.4
-21.97
-5.09
9.78
21.11
28.55
32.83
35.19
36.74
37.96
38.74
38.69
37.78
36.56
35.9
36.48
38.13
39.78
39.86
37.09
31.12
22.64
13.04
3.76
-4.06
-9.78
-13.1
-14.01
-12.82
-10.32
-7.67
-6.15
-6.58
-8.89
-11.89
-13.7
-12.29
-6.39
4
17.54
31.9
44.58
53.7
58.6
59.86
58.9
57.19
55.55
53.92
51.58
47.9
42.81
37.06
31.76
27.76
25.06
22.74
19.42
14.06
6.6
-1.91
-9.75
-15.35
-17.92
-17.83
-16.28
-14.77
-14.57
-16.42
-20.56
-26.78
-34.5
-42.76
-50.23
-55.44
-57.03
-54.27
-47.31
-37.18
-25.46
-13.81
-3.57
4.5
10.24
13.94
16.13
17.34
17.95
18.09
17.65
16.48
14.52
11.97
9.29
7.04
5.64
5.18
5.33
5.54
5.3
4.38
2.95
1.42
0.29
-0.17
0.02
0.44
0.52
-0.28
-2.06
-4.38
-6.14
-5.9
-2.37
5.09
16.14
29.61
43.95
57.84
70.61
82.17
92.74
102.39
110.77
117.24
121.1
121.86
119.31
113.45
104.33
92.1
77.1
60.09
42.26
25.11
10.04
-2.12
-11.33
-18.36
-24.39
-30.57
-37.56
-45.43
-53.83
-62.37
-71
-80.14
-90.43
-102.21
-115
-127.3
-136.87
-141.48
-139.87
-132.27
-120.38
-106.75
-93.71
-82.6
-73.45
-65.39
-57.3
-48.38
-38.44
-27.75
-16.78
-5.88
4.64
14.55
23.47
30.87
36.2
38.97
38.92
36.11
30.87
23.86
15.95
8.07
0.94
-5.03
-9.86
-13.94
-17.88
-22.46
-28.49
-36.62
-46.98
-58.87
-70.52
-79.52
-83.43
-80.79
-71.67
-57.66
-41.27
-24.84
-9.84
3.46
15.58
27.26
38.81
49.9
59.75
67.45
72.34
74.16
73.09
69.59
64.3
57.93
51.26
45.04
39.97
36.44
34.48
33.59
32.96
31.74
29.33
25.66
21.06
15.93
10.33
3.84
-4.27
-14.5
-26.52
-38.98
-49.74
-56.57
-58.05
-54.09
-45.97
-35.9
-26.11
-18.17
-12.57
-8.9
-6.15
-3.36
0.15
4.58
9.8
15.41
20.92
25.85
29.83
32.72
34.64
35.95
37.15
38.72
40.94
43.78
46.79
49.13
49.82
47.99
43.39
36.48
28.36
20.38
13.56
8.12
3.45
-1.55
-7.99
-16.38
-26.36
-36.7
-45.68
-51.5
-52.89
-49.5
-42.07
-32.12
-21.46
-11.59
-3.28
3.39
8.83
13.35
17.03
19.68
21.05
21.14
20.32
19.05
17.66
16.05
13.76
10.33
5.66
0.32
-4.65
-8.22
-9.89
-10.04
-9.69
-10.01
-11.72
-14.81
-18.68
-22.65
-26.29
-29.58
-32.74
-35.91
-39.12
-42.36
-45.87
-50.12
-55.56
-62.16
-69.11
-74.89
-77.72
-76.29
-70.18
-60.02
-47.25
-33.64
-20.91
-10.49
-3.31
0.27
0.51
-1.81
-5.65
-10.03
-14.28
-18.07
-21.22
-23.5
-24.57
-24.13
-22.08
-18.63
-14.19
-9.09
-3.46
2.69
9.35
16.23
22.73
28.12
31.74
33.27
32.77
30.55
26.98
22.24
16.22
8.62
-0.77
-11.8
-23.7
-35.04
-44.04
-49.13
-49.52
-45.5
-38.32
-29.73
-21.34
-14.11
-8.18
-3.11
1.78
6.93
12.34
17.58
22.01
25.09
26.49
26.08
23.85
19.8
14.05
6.99
-0.54
-7.29
-11.95
-13.64
-12.28
-8.66
-4.05
0.32
3.67
5.86
7.07
7.51
7.27
6.31
4.72
3
1.94
2.47
5.36
10.94
19.19
29.78
42.21
55.92
70.11
83.81
95.96
105.63
112.31
116.11
117.56
117.42
116.26
114.27
111.32
107.05
101.19
93.73
84.94
75.34
65.46
55.69
46.21
36.93
27.65
18.24
8.76
-0.44
-8.83
-15.94
-21.56
-25.88
-29.43
-32.94
-37.13
-42.42
-48.74
-55.46
-61.4
-65.13
-65.34
-61.33
-53.25
-42.11
-29.42
-16.72
-5.05
5.15
13.93
21.49
27.78
32.5
35.14
35.34
33.11
28.96
23.74
18.42
13.74
10.05
7.28
5.09
3.12
1.11
-1
-3.2
-5.46
-7.85
-10.59
-13.94
-18.2
-23.63
-30.32
-38.1
-46.37
-54.01
-59.6
-61.79
-59.81
-53.78
-44.72
-34.1
-23.34
-13.38
-4.56
3.15
9.88
15.61
20.17
23.35
25.12
25.62
25.2
24.21
22.97
21.59
20.04
18.13
15.61
12.37
8.47
4.17
-0.17
-4.24
-7.95
-11.5
-15.27
-19.82
-25.68
-33.23
-42.44
-52.77
-62.99
-71.41
-76.22
-76.05
-70.44
-60.04
-46.36
-31.32
-16.6
-3.26
8.34
18.36
27.13
34.83
41.38
46.48
49.81
51.27
50.99
49.41
47.07
44.44
41.81
39.2
36.5
33.53
30.26
26.81
23.48
20.53
18.11
16.06
13.96
11.14
6.94
0.89
-7.06
-16.46
-26.36
-35.53
-42.62
-46.54
-46.62
-42.89
-36.01
-27.19
-17.86
-9.28
-2.12
3.72
9
14.67
21.3
28.72
35.93
41.6
44.63
44.75
42.64
39.55
36.68
34.7
33.51
32.47
30.8
27.98
23.92
18.87
13.2
7.24
1.17
-4.9
-10.9
-16.8
-22.54
-28.21
-34
-40.27
-47.23
-54.7
-61.92
-67.56
-70.06
-68.22
-61.72
-51.36
-38.79
-25.92
-14.37
-4.94
2.34
7.97
12.54
16.4
19.61
22.01
23.38
23.59
22.67
20.74
18.02
14.74
11.23
7.83
4.89
2.6
0.91
-0.51
-2.19
-4.64
-8.21
-12.93
-18.57
-24.63
-30.52
-35.54
-39.11
-40.96
-41.34
-41
-40.89
-41.62
-42.95
-43.66
-42.07
-36.77
-27.46
-15.17
-1.92
10.14
19.53
25.93
30.01
32.9
35.56
38.38
41.17
43.38
44.55
44.54
43.58
42.14
40.6
39.1
37.46
35.31
32.36
28.6
24.31
19.88
15.67
11.7
7.7
3.21
-2.21
-8.85
-16.77
-25.82
-35.71
-45.87
-55.42
-63.14
-67.73
-68.16
-64.14
-56.29
-45.99
-34.93
-24.54
-15.59
-8.16
-1.84
3.79
8.98
13.63
17.41
19.97
21.14
21.02
20.03
18.69
17.52
16.84
16.66
16.71
16.58
15.87
14.39
12.18
9.47
6.51
3.46
0.26
-3.3
-7.54
-12.82
-19.44
-27.58
-37.16
-47.69
-58.1
-66.81
-71.99
-72.1
-66.43
-55.56
-41.15
-25.57
-11.09
0.72
9.29
14.93
18.48
20.84
22.65
24.26
25.73
26.99
27.95
28.52
28.66
28.3
27.48
26.27
24.85
23.43
22.19
21.11
19.96
18.32
15.75
11.99
7.1
1.49
-4.29
-9.74
-14.65
-19.19
-23.8
-29.06
-35.3
-42.38
-49.55
-55.49
-58.68
-57.9
-52.72
-43.62
-31.98
-19.46
-7.65
2.5
10.73
17.31
22.69
27.26
31.17
34.35
36.64
37.93
38.19
37.5
36.02
33.95
31.5
28.9
26.36
24.08
22.2
20.72
19.46
17.98
15.77
12.37
7.62
1.67
-4.95
-11.68
-18.02
-23.77
-29.15
-34.62
-40.8
-48.17
-56.85
-66.33
-75.49
-82.7
-86.23
-84.78
-77.93
-66.3
-51.32
-34.74
-18.12
-2.41
12.08
25.46
37.9
49.38
59.67
68.41
75.23
79.91
82.33
82.53
80.63
76.87
71.71
65.75
59.63
53.83
48.53
43.59
38.72
33.7
28.56
23.55
19
15.13
11.91
9.08
6.31
3.24
-0.37
-4.7
-9.8
-15.4
-20.88
-25.07
-26.58
-24.15
-17.21
-6.23
7.38
21.62
34.6
44.95
52.16
56.43
58.47
59.08
58.94
58.41
57.58
56.28
54.29
51.46
47.91
44
40.24
36.99
34.36
32
29.29
25.51
20.1
12.83
3.92
-6.07
-16.25
-25.55
-32.94
-37.63
-39.44
-38.94
-37.45
-36.61
-37.67
-40.91
-45.3
-48.87
-49.5
-45.77
-37.63
-26.37
-14.01
-2.49
6.97
14.02
18.95
22.18
23.91
24.04
22.42
19.13
14.64
9.76
5.33
1.91
-0.34
-1.67
-2.59
-3.59
-4.96
-6.7
-8.62
-10.44
-11.95
-13.19
-14.42
-16.03
-18.45
-21.95
-26.62
-32.36
-38.95
-45.96
-52.74
-58.3
-61.52
-61.4
-57.5
-50.19
-40.58
-30.17
-20.29
-11.78
-4.91
0.37
4.13
6.31
6.78
5.58
3
-0.43
-4.13
-7.76
-11.27
-14.71
-18.1
-21.13
-23.2
-23.61
-21.94
-18.35
-13.63
-9.01
-5.71
-4.47
-5.41
-7.98
-11.31
-14.33
-15.88
-14.87
-10.54
-3.03
6.34
15.08
20.46
20.8
16.5
10.22
5.75
6.24
12.74
23.73
36.05
46.61
53.72
57.6
59.74
61.72
64.25
66.78
67.96
66.31
61.02
52.22
40.95
28.71
16.97
6.73
-1.73
-8.84
-15.35
-22
-29.23
-37.19
-45.82
-55.03
-64.67
-74.26
-82.9
-89.2
-91.66
-89.27
-81.93
-70.64
-57.17
-43.48
-31.05
-20.6
-11.98
-4.56
2.39
9.32
16.24
22.77
28.35
32.48
34.83
35.41
34.43
32.25
29.34
26.18
23.26
20.87
19.08
17.6
15.88
13.19
8.82
2.33
-6.39
-16.98
-28.48
-39.38
-47.87
-52.19
-51.27
-45.09
-34.74
-22.12
-9.26
2.26
11.58
18.54
23.36
26.4
28.02
28.59
28.55
28.33
28.22
28.28
28.27
27.94
27.2
26.38
26.16
27.4
30.78
36.48
44.06
52.42
60.12
65.69
68.05
66.69
61.75
53.88
43.94
32.78
20.96
8.67
-4.24
-18.03
-32.71
-47.7
-61.64
-72.6
-78.59
-78.18
-71.2
-58.76
-43.01
-26.42
-11.01
2.09
12.68
21.14
27.96
33.42
37.51
40.1
41.19
40.95
39.73
37.81
35.32
32.21
28.41
23.98
19.19
14.54
10.43
7.03
4.07
0.96
-2.96
-8.11
-14.48
-21.61
-28.83
-35.62
-41.84
-47.83
-54.25
-61.67
-70.25
-79.42
-87.97
-94.23
-96.62
-94.12
-86.55
-74.61
-59.61
-43.07
-26.33
-10.4
4.06
16.58
26.83
34.61
39.91
42.98
44.23
44.16
43.21
41.75
40.06
38.32
36.65
34.98
33.17
31.01
28.45
25.6
22.82
20.54
19.04
18.33
17.97
17.31
15.6
12.36
7.46
1.26
-5.64
-12.6
-19.23
-25.47
-31.64
-38.25
-45.76
-54.4
-63.93
-73.62
-82.22
-88.19
-90.12
-87.23
-79.7
-68.68
-55.97
-43.42
-32.34
-23.28
-16.07
-10.18
-5.14
-0.73
2.98
5.8
7.55
8.17
7.76
6.45
4.42
1.87
-0.93
-3.68
-5.98
-7.44
-7.82
-7.05
-5.3
-2.81
0.19
3.52
6.91
9.88
11.73
11.7
9.31
4.65
-1.63
-8.6
-15.45
-21.8
-27.72
-33.51
-39.35
-45.22
-50.83
-55.74
-59.47
-61.4
-60.84
-57.08
-49.78
-39.13
-26.02
-11.84
1.96
14.2
24.28
32.15
38.13
42.7
46.31
49.29
51.81
53.97
55.79
57.29
58.44
59.16
59.35
58.86
57.62
55.69
53.26
50.53
47.67
44.55
40.87
36.22
30.34
23.19
15.11
6.65
-1.54
-8.88
-15.04
-20.05
-24.22
-28.13
-32.42
-37.61
-43.9
-51.08
-58.45
-64.88
-69.03
-69.71
-66.24
-58.77
-48.26
-36.21
-24.13
-13.15
-3.77
3.98
10.33
15.46
19.46
22.35
24.25
25.35
25.9
26.06
25.89
25.35
24.46
23.29
22
20.79
19.77
18.98
18.34
17.75
17.03
15.93
14.21
11.66
8.29
4.3
0.13
-3.72
-6.91
-9.45
-11.76
-14.58
-18.68
-24.54
-32.06
-40.45
-48.37
-54.24
-56.74
-55.08
-49.33
-40.31
-29.37
-18
-7.48
1.37
8.26
13.4
17.27
20.36
23.05
25.44
27.52
29.17
30.33
31.05
31.39
31.4
31.06
30.29
29.04
27.34
25.27
22.95
20.38
17.47
14.07
10.01
5.26
-0.02
-5.46
-10.65
-15.19
-18.97
-22.21
-25.5
-29.49
-34.67
-41.02
-47.83
-53.76
-57.19
-56.66
-51.39
-41.59
-28.42
-13.71
0.6
13
22.67
29.63
34.41
37.77
40.33
42.46
44.31
45.87
47.15
48.12
48.72
48.73
47.9
46.03
43.21
39.82
36.41
33.42
30.83
28.1
24.41
19.14
12.33
4.84
-1.91
-6.62
-8.64
-8.36
-6.96
-6
-6.79
-9.93
-15.05
-20.79
-25.05
-25.49
-20.18
-8.29
9.41
30.61
52.03
70.39
83.38
90.27
91.94
90.27
87.39
84.86
83.31
82.52
81.71
80.03
76.85
71.87
65.12
56.79
47.21
36.8
26.07
15.63
6.06
-2.24
-9.14
-14.84
-19.81
-24.62
-29.78
-35.58
-42.01
-48.83
-55.71
-62.27
-68.18
-73.06
-76.36
-77.42
-75.55
-70.39
-62.15
-51.68
-40.27
-29.22
-19.49
-11.5
-5.12
-0.01
4.07
7.15
8.99
9.34
8.13
5.68
2.62
-0.29
-2.44
-3.65
-4.2
-4.66
-5.64
-7.38
-9.69
-12.08
-14.06
-15.49
-16.64
-18.07
-20.3
-23.57
-27.64
-31.87
-35.35
-37.15
-36.45
-32.79
-26.19
-17.2
-6.9
3.48
12.78
20.35
26.18
30.79
34.88
39.01
43.32
47.46
50.85
52.83
53.01
51.3
47.92
43.29
37.82
31.76
25.17
18.02
10.25
2.03
-6.26
-14.07
-20.85
-26.28
-30.37
-33.57
-36.54
-40.02
-44.52
-50.13
-56.41
-62.35
-66.66
-68.07
-65.79
-59.77
-50.77
-40.04
-28.91
-18.35
-8.81
-0.24
7.55
14.68
21.05
26.35
30.31
32.82
33.99
34.11
33.56
32.67
31.65
30.6
29.49
28.22
26.68
24.85
22.75
20.49
18.22
15.99
13.75
11.29
8.32
4.53
-0.36
-6.39
-13.37
-20.67
-27.35
-32.17
-33.98
-32.02
-26.27
-17.44
-6.8
4.24
14.48
23.2
30.22
35.74
40.15
43.85
47.07
49.83
51.95
53.07
52.91
51.37
48.67
45.25
41.68
38.37
35.44
32.71
29.82
26.4
22.16
17.05
11.19
4.89
-1.42
-7.22
-12.02
-15.55
-17.83
-19.35
-21.06
-24.08
-29.25
-36.71
-45.67
-54.61
-61.92
-66.51
-68.23
-67.71
-65.82
-63.06
-59.28
-53.92
-46.59
-37.56
-27.88
-18.91
-11.76
-6.83
-3.76
-1.76
-0.06
1.79
3.83
5.93
7.94
9.99
12.4
15.54
19.58
24.33
29.07
32.79
34.59
33.91
30.89
26.12
20.31
13.93
7.03
-0.47
-8.38
-15.87
-21.53
-23.89
-22.02
-16
-6.93
3.52
13.78
22.86
30.51
37.02
42.76
47.94
52.38
55.66
57.33
57.05
54.73
50.6
45.11
38.93
32.77
27.26
22.78
19.35
16.63
14.1
11.17
7.43
2.7
-2.86
-8.88
-14.77
-19.76
-23.03
-23.92
-22.32
-19.04
-15.92
-15.44
-19.87
-30.42
-46.47
-65.79
-85.14
-101.38
-112.26
-116.7
-114.64
-106.61
-93.47
-76.34
-56.77
-36.58
-17.68
-1.52
11.17
20.42
26.81
31
33.55
34.76
34.87
34.26
33.39
32.8
32.86
33.58
34.57
35.14
34.44
31.82
27.12
20.71
13.48
6.45
0.49
-4
-7.18
-9.63
-12.16
-15.59
-20.53
-27.07
-34.72
-42.31
-48.24
-50.97
-49.51
-43.93
-35.24
-25.13
-15.2
-6.44
0.93
7.31
13.25
19.01
24.39
28.85
31.93
33.42
33.6
33.01
32.23
31.54
30.86
29.82
28.03
25.38
22.12
18.82
16.06
14.12
12.86
11.76
10.17
7.6
3.96
-0.44
-5.04
-9.34
-13.08
-16.39
-19.66
-23.39
-28.02
-33.8
-40.73
-48.64
-57.2
-65.86
-73.86
-80.26
-84.03
-84.42
-81.21
-74.86
-66.43
-57.33
-48.78
-41.52
-35.64
-30.62
-25.67
-20
-13.03
-4.52
5.45
16.53
28.15
39.59
50.13
59.12
66.12
70.95
73.66
74.46
73.6
71.37
68.07
64.07
59.73
55.3
50.9
46.35
41.32
35.38
28.29
20.08
11.16
2.25
-5.73
-11.92
-15.76
-17.15
-16.69
-15.6
-15.46
-17.76
-23.24
-31.5
-40.86
-48.92
-53.35
-52.81
-47.51
-39.02
-29.72
-21.8
-16.55
-14.06
-13.48
-13.61
-13.48
-12.74
-11.63
-10.71
-10.43
-10.86
-11.53
-11.64
-10.34
-7.11
-1.93
4.74
12.17
19.64
26.67
33.02
38.66
43.58
47.7
50.85
52.83
53.51
52.9
51.19
48.67
45.54
41.92
37.74
32.84
27.1
20.41
12.79
4.28
-4.96
-14.56
-23.82
-31.79
-37.42
-40
-39.49
-36.65
-32.79
-29.31
-27.16
-26.64
-27.44
-29.03
-30.93
-32.86
-34.65
-35.95
-36.2
-34.77
-31.25
-25.7
-18.63
-10.79
-2.89
4.6
11.4
17.26
21.8
24.58
25.25
23.73
20.2
14.94
8
-0.84
-11.87
-25.1
-39.9
-54.99
-68.78
-79.89
-87.58
-91.82
-92.98
-91.37
-86.99
-79.59
-69.05
-55.76
-40.55
-24.46
-8.28
7.63
23.25
38.44
52.81
65.57
75.9
83.24
87.38
88.46
86.71
82.53
76.63
70.3
65.22
62.93
64.13
68.19
73.31
77.1
77.59
73.75
65.64
54.03
39.92
24.22
7.69
-8.89
-24.61
-38.56
-50.18
-59.37
-66.52
-72.1
-76.35
-78.94
-79.15
-76.23
-69.96
-60.89
-50.27
-39.54
-29.88
-21.7
-14.73
-8.25
-1.48
5.99
14.11
22.29
29.63
35.08
37.78
37.37
34.15
28.98
23.02
17.34
12.53
8.64
5.29
1.95
-1.86
-6.41
-11.82
-18.04
-24.84
-31.78
-38.33
-44.02
-48.72
-52.76
-56.85
-61.77
-68
-75.43
-83.29
-90.29
-94.9
-95.79
-92.09
-83.74
-71.46
-56.59
-40.74
-25.33
-11.24
1.33
12.7
23.48
34.2
45.07
55.8
65.69
73.83
79.4
82.06
82.12
80.39
77.95
75.66
73.97
72.96
72.41
72.07
71.64
70.86
69.38
66.86
63.05
57.98
51.92
45.29
38.4
31.34
24.03
16.31
8.07
-0.61
-9.53
-18.49
-27.43
-36.6
-46.45
-57.37
-69.39
-81.71
-92.79
-100.66
-103.63
-100.96
-93.17
-81.85
-68.97
-56.17
-44.28
-33.4
-23.28
-13.79
-5.05
2.72
9.49
15.66
21.92
28.89
36.72
45.02
53
59.84
65.08
68.7
71.02
72.52
73.58
74.39
74.91
74.91
74.03
71.85
68
62.27
54.63
45.34
34.77
23.44
11.85
0.47
-10.23
-19.83
-27.96
-34.37
-38.92
-41.57
-42.45
-41.87
-40.27
-38.22
-36.2
-34.5
-33.03
-31.33
-28.77
-24.84
-19.37
-12.68
-5.42
1.74
8.44
14.69
20.82
27.2
34
41.1
48.12
54.55
59.88
63.77
66.07
66.85
66.44
65.24
63.61
61.69
59.37
56.39
52.57
47.93
42.74
37.31
31.89
26.51
21.08
15.53
9.94
4.55
-0.4
-4.75
-8.55
-12.04
-15.54
-19.34
-23.62
-28.43
-33.66
-39.1
-44.43
-49.38
-53.82
-57.85
-61.82
-66.21
-71.49
-77.86
-85.05
-92.16
-97.83
-100.5
-98.88
-92.43
-81.6
-67.73
-52.68
-38.19
-25.49
-14.95
-6.33
0.97
7.47
13.39
18.64
23.01
26.28
28.45
29.67
30.17
30.15
29.73
28.95
27.86
26.61
25.34
24.18
23.1
21.94
20.47
18.53
16.1
13.25
10.06
6.47
2.4
-2.18
-7.14
-12.13
-16.7
-20.5
-23.48
-25.92
-28.33
-31.24
-35.03
-39.75
-45.13
-50.59
-55.31
-58.54
-59.78
-59.09
-57.1
-54.88
-53.48
-53.48
-54.6
-55.71
-55.23
-51.66
-44.27
-33.29
-19.83
-5.47
8.27
20.29
30.14
37.85
43.81
48.4
51.99
54.77
56.9
58.48
59.65
60.5
61.09
61.45
61.49
61.15
60.39
59.22
57.75
56.18
54.72
53.48
52.46
51.41
49.96
47.76
44.6
40.63
36.27
32.09
28.54
25.78
23.53
21.29
18.46
14.68
9.86
4.3
-1.51
-7.02
-11.8
-15.7
-18.95
-22.16
-26.13
-31.58
-38.75
-47.23
-55.84
-63.01
-67.23
-67.56
-63.92
-57.11
-48.49
-39.55
-31.49
-24.97
-20
-16.16
-12.79
-9.3
-5.33
-0.88
3.78
8.18
11.83
14.44
15.96
16.61
16.71
16.56
16.27
15.78
14.98
13.83
12.39
10.81
9.05
6.88
3.88
-0.32
-5.71
-11.76
-17.52
-21.85
-24
-23.84
-21.94
-19.33
-17.05
-15.78
-15.67
-16.39
-17.43
-18.39
-19.09
-19.61
-20.24
-21.36
-23.29
-26.14
-29.68
-33.23
-35.71
-35.92
-32.91
-26.43
-17.11
-6.26
4.61
14.25
22.09
28.21
33.1
37.28
41.02
44.27
46.87
48.68
49.73
50.19
50.3
50.19
49.82
49.01
47.47
45.03
41.74
37.83
33.7
29.68
25.84
21.98
17.8
13.11
8.08
3.21
-0.91
-3.95
-5.98
-7.56
-9.38
-12.07
-15.92
-20.82
-26.3
-31.8
-36.76
-40.83
-43.98
-46.47
-48.81
-51.65
-55.57
-60.82
-67.15
-73.7
-79.1
-81.81
-80.54
-74.69
-64.57
-51.33
-36.65
-22.19
-9.26
1.47
9.96
16.61
22.02
26.72
31.01
34.86
38.05
40.33
41.59
41.97
41.8
41.46
41.18
41.03
40.88
40.59
40.06
39.25
38.07
36.4
34.09
31.04
27.3
23.11
18.77
14.5
10.35
6.22
1.9
-2.73
-7.61
-12.5
-17.11
-21.24
-24.98
-28.69
-33
-38.55
-45.68
-54.18
-63.08
-70.81
-75.63
-76.15
-71.85
-63.18
-51.42
-38.21
-25.06
-13
-2.56
6.16
13.29
19.06
23.75
27.61
30.89
33.74
36.17
38.07
39.32
39.84
39.66
38.93
37.9
36.81
35.85
35.08
34.4
33.54
32.11
29.73
26.24
21.74
16.61
11.4
6.57
2.41
-1.04
-3.91
-6.35
-8.49
-10.38
-12.03
-13.48
-14.77
-16.01
-17.37
-19.08
-21.44
-24.84
-29.56
-35.56
-42.3
-48.63
-53.02
-54
-50.62
-42.89
-31.81
-19.04
-6.41
4.73
13.8
20.98
26.89
32.19
37.3
42.24
46.78
50.59
53.38
55.02
55.55
55.16
54.09
52.62
50.99
49.33
47.63
45.73
43.48
40.74
37.6
34.27
31.06
28.14
25.5
22.9
20
16.56
12.54
8.11
3.51
-1.07
-5.59
-10.13
-14.76
-19.49
-24.28
-29.28
-34.74
-41.02
-48.19
-55.68
-62.29
-66.4
-66.64
-62.41
-54.23
-43.45
-31.77
-20.54
-10.37
-1.18
7.5
16.07
24.69
33.23
41.41
48.73
54.55
57.96
57.96
53.79
45.32
33.38
19.73
6.62
-3.87
-10.49
-13.12
-12.73
-10.87
-9.1
-8.57
-9.84
-12.92
-17.43
-22.85
-28.69
-34.63
-40.54
-46.47
-52.61
-59.06
-65.61
-71.61
-75.88
-77.07
-74.05
-66.42
-54.72
-40.33
-25.09
-10.75
1.48
11.11
18.32
23.6
27.55
30.6
32.9
34.45
35.2
35.18
34.46
33.17
31.45
29.48
27.58
26.21
25.93
27.14
29.92
33.81
37.93
41.13
42.38
40.95
36.65
29.79
21.05
11.2
0.88
-9.74
-20.9
-33.08
-46.48
-60.52
-73.66
-83.74
-88.74
-87.54
-80.51
-69.29
-56.24
-43.54
-32.57
-23.66
-16.33
-9.71
-2.97
4.36
12.34
20.66
28.8
36.12
42.12
46.57
49.44
50.91
51.18
50.36
48.45
45.47
41.52
36.87
31.91
27.03
22.47
18.25
14.3
10.62
7.47
5.26
4.36
4.72
5.7
6.17
4.86
0.77
-6.46
-16.45
-28.15
-39.96
-50.07
-56.71
-58.61
-55.32
-47.47
-36.63
-24.8
-13.81
-4.61
2.69
8.61
13.74
18.27
21.95
24.3
25
24.17
22.44
20.7
19.88
20.67
23.35
27.79
33.45
39.47
44.76
48.24
49.16
47.34
43.31
38.15
33.06
28.91
25.89
23.49
20.86
17.24
12.4
6.76
1.25
-3.09
-5.35
-4.98
-1.89
3.61
10.76
18.43
25.28
30.13
32.47
32.71
32.15
32.42
34.63
38.7
43.25
46.18
45.73
41.36
34.12
26.15
19.8
16.69
17.27
20.85
26.13
31.62
35.9
37.63
35.63
29.14
18.18
3.88
-11.56
-25.46
-35.28
-39.46
-37.65
-30.85
-21.02
-10.73
-2.54
1.48
0.28
-5.92
-15.75
-27.12
-37.98
-46.86
-53.14
-56.84
-58.23
-57.56
-54.98
-50.8
-45.76
-41.01
-37.84
-37.29
-39.79
-45.04
-51.93
-58.73
-63.32
-63.67
-58.56
-48.14
-34.19
-19.65
-7.57
0.05
3.03
2.76
1.28
0.38
0.96
3.17
6.68
10.89
14.87
17.4
17.22
13.62
6.96
-1.45
-10.12
-18.13
-25.41
-32.38
-39.03
-44.59
-47.75
-47.56
-44.09
-38.49
-32.22
-26.23
-20.56
-14.58
-7.72
0.03
8.19
16.09
23.36
29.97
35.97
41.28
45.52
48.12
48.42
45.91
40.22
31.5
20.58
9.04
-0.96
-7.34
-8.8
-5.34
1.75
10.4
18.6
25.04
29.36
31.99
33.66
35
36.26
37.39
38.15
38.4
38.09
37.37
36.53
35.88
35.63
35.88
36.54
37.39
38.2
38.68
38.51
37.33
34.81
30.84
25.69
19.98
14.44
9.36
4.36
-1.55
-9.24
-18.84
-29.32
-38.92
-46.01
-49.99
-51.58
-52.25
-53.37
-55.41
-57.98
-60.34
-61.99
-62.96
-63.37
-63
-60.95
-56.1
-47.71
-36.06
-22.44
-8.76
3.23
12.51
18.98
23.35
26.74
30.27
34.66
40.05
45.99
51.7
56.5
60.12
62.88
65.36
68
70.63
72.45
72.31
69.38
63.51
55.37
46.03
36.5
27.28
18.41
9.67
0.98
-7.45
-15.24
-22.08
-28.06
-33.72
-39.86
-47.04
-55.27
-63.72
-70.94
-75.28
-75.53
-71.42
-63.71
-53.99
-44.08
-35.43
-28.66
-23.6
-19.54
-15.68
-11.56
-7.11
-2.61
1.5
4.8
7.04
8.14
8.2
7.41
5.97
4.1
1.95
-0.39
-2.83
-5.27
-7.64
-9.99
-12.61
-15.92
-20.31
-25.81
-31.87
-37.4
-41.24
-42.64
-41.7
-39.39
-37.22
-36.59
-38.2
-41.82
-46.3
-50.01
-51.36
-49.29
-43.58
-34.84
-24.32
-13.48
-3.58
4.61
10.89
15.51
18.98
21.93
24.81
27.9
31.17
34.38
37.08
38.82
39.35
38.73
37.31
35.63
34.17
33.24
32.84
32.71
32.44
31.61
29.92
27.25
23.62
19.11
13.87
8.11
2.28
-3.01
-7.14
-9.79
-11.11
-11.78
-12.73
-14.78
-18.29
-23.14
-28.84
-34.8
-40.37
-44.84
-47.45
-47.45
-44.39
-38.35
-30.07
-20.74
-11.67
-3.91
2.03
6.19
9.01
11.09
12.96
14.9
16.9
18.72
20.05
20.68
20.69
20.39
20.16
20.35
21.04
22.13
23.45
24.81
26.07
27.03
27.4
26.86
25.14
22.23
18.45
14.32
10.35
6.85
3.74
0.77
-2.34
-5.7
-9.19
-12.5
-15.36
-17.61
-19.34
-20.89
-22.83
-25.77
-30.18
-36
-42.48
-48.19
-51.41
-50.68
-45.46
-36.32
-24.78
-12.76
-1.91
6.83
13.31
17.87
21
23.13
24.53
25.34
25.7
25.75
25.58
25.2
24.56
23.58
22.25
20.63
18.82
16.95
15.23
13.86
13.08
13.02
13.6
14.47
15.06
14.84
13.55
11.27
8.39
5.44
2.76
0.4
-1.86
-4.39
-7.42
-11.01
-14.98
-19.04
-22.89
-26.3
-29.22
-31.72
-34.06
-36.61
-39.77
-43.84
-48.86
-54.44
-59.7
-63.37
-64.14
-61.09
-53.99
-43.5
-30.98
-18.03
-6.09
3.99
12.02
18.25
23.13
27.05
30.28
33.02
35.45
37.7
39.89
42.01
43.89
45.38
46.37
46.92
47.21
47.43
47.66
47.83
47.8
47.43
46.71
45.65
44.25
42.42
40.07
37.13
33.75
30.24
26.95
24.14
21.77
19.58
17.16
14.2
10.6
6.58
2.52
-1.19
-4.31
-6.87
-9.12
-11.45
-14.28
-17.98
-22.77
-28.6
-35.05
-41.26
-46.06
-48.25
-46.96
-42.07
-34.23
-24.68
-14.81
-5.71
2.11
8.6
14.03
18.66
22.62
25.86
28.33
30.1
31.49
33.04
35.35
38.81
43.4
48.68
53.91
58.31
61.32
62.75
62.69
61.42
59.14
55.84
51.26
44.99
36.7
26.4
14.55
2.08
-9.83
-20.12
-28.2
-34.14
-38.48
-42.01
-45.35
-48.72
-51.94
-54.62
-56.47
-57.44
-57.87
-58.35
-59.51
-61.87
-65.58
-70.4
-75.65
-80.28
-83.02
-82.67
-78.42
-70.2
-58.75
-45.55
-32.31
-20.51
-10.96
-3.67
1.93
6.6
10.98
15.35
19.68
23.78
27.45
30.56
33.09
35.03
36.35
37.01
37.08
36.79
36.54
36.64
37.24
38.17
39
39.14
38.07
35.46
31.24
25.6
19
12.08
5.55
0.01
-4.3
-7.58
-10.39
-13.39
-17
-21.25
-25.84
-30.33
-34.44
-38.08
-41.29
-44.19
-46.89
-49.53
-52.37
-55.59
-59.2
-62.66
-64.9
-64.58
-60.66
-53.01
-42.54
-30.99
-20.2
-11.44
-5
-0.37
3.4
7.11
11.15
15.55
20.15
24.78
29.38
33.9
38.21
42.02
44.99
46.8
47.34
46.84
45.96
45.68
46.96
50.27
55.23
60.63
64.87
66.67
65.48
61.58
55.66
48.3
39.72
29.93
19.1
7.9
-2.57
-11.27
-17.74
-22.33
-26.03
-29.92
-34.63
-40.14
-45.76
-50.43
-53.1
-52.93
-49.47
-42.85
-33.7
-23.04
-12.1
-1.99
6.59
13.45
18.81
23.09
26.65
29.63
31.91
33.2
33.34
32.43
30.9
29.44
28.66
28.81
29.7
30.8
31.44
31.11
29.59
26.92
23.23
18.59
13
6.43
-1.02
-9.02
-17.12
-24.88
-32.08
-38.76
-45.21
-51.82
-58.81
-65.96
-72.46
-76.97
-78.03
-74.56
-66.36
-54.27
-39.97
-25.4
-12.18
-1.21
7.45
14.3
20.02
25.08
29.65
33.64
36.92
39.51
41.59
43.5
45.57
47.96
50.53
52.98
54.91
56.06
56.45
56.38
56.26
56.34
56.45
56.1
54.63
51.59
46.97
41.27
35.28
29.71
24.86
20.36
15.25
8.2
-1.91
-15.54
-32.08
-49.93
-66.81
-80.48
-89.31
-92.66
-90.82
-84.71
-75.47
-64.16
-51.72
-39.01
-26.8
-15.7
-6.07
2
8.64
14.04
18.4
21.83
24.48
26.54
28.2
29.56
30.52
30.86
30.34
28.9
26.62
23.69
20.2
16.08
11.08
5
-2.1
-9.86
-17.66
-24.88
-31.14
-36.45
-41.17
-45.89
-51.15
-57.36
-64.68
-72.91
-81.41
-89
-94.12
-95.15
-91.02
-81.65
-68.16
-52.61
-37.23
-23.69
-12.55
-3.41
4.71
12.7
20.94
29.28
37.28
44.58
51.02
56.63
61.45
65.35
68.12
69.63
70.01
69.8
69.73
70.42
72.12
74.53
76.95
78.59
78.9
77.71
75.2
71.69
67.47
62.71
57.52
52.11
46.83
42.08
38.14
34.98
32.21
29.22
25.41
20.41
14.2
6.98
-0.99
-9.53
-18.64
-28.4
-38.8
-49.6
-60.23
-69.87
-77.68
-83.03
-85.76
-86.22
-85.03
-82.79
-79.84
-76.14
-71.52
-65.87
-59.31
-52.15
-44.73
-37.28
-29.8
-22.25
-14.62
-7.08
0.12
6.65
12.35
17.11
20.87
23.58
25.18
25.69
25.34
24.7
24.74
26.6
31.1
38.31
47.25
56.08
62.77
65.92
65.35
61.99
57.25
52.13
46.64
39.98
31.11
19.57
5.91
-8.45
-21.89
-33.23
-42.2
-49.24
-55.13
-60.58
-65.92
-71.22
-76.39
-81.25
-85.44
-88.25
-88.57
-85.24
-77.53
-65.49
-50.24
-33.56
-17.38
-3.1
8.73
18.33
26.38
33.52
40.07
46.01
51.05
54.84
57.04
57.27
55.22
50.76
44.13
36.22
28.39
22.17
18.69
18.23
20.15
23.19
26.05
27.81
28.08
26.81
24.04
19.71
13.78
6.41
-1.78
-9.82
-16.72
-21.77
-24.89
-26.57
-27.61
-28.7
-30.06
-31.37
-32.01
-31.51
-29.87
-27.63
-25.68
-24.84
-25.57
-27.83
-31.22
-35.03
-38.45
-40.51
-40.24
-36.97
-30.6
-21.81
-11.93
-2.45
5.63
12.1
17.56
22.92
28.84
35.37
41.94
47.7
51.82
53.81
53.59
51.45
47.9
43.57
39.1
34.99
31.58
28.98
27.11
25.74
24.55
23.16
21.24
18.6
15.26
11.55
7.9
4.82
2.59
1.27
0.69
0.49
0.27
-0.4
-1.9
-4.48
-8.05
-12.04
-15.46
-17.18
-16.52
-13.6
-9.47
-5.69
-3.73
-4.42
-7.62
-12.49
-17.82
-22.5
-25.74
-27.18
-26.77
-24.77
-21.68
-18.2
-15.12
-12.98
-11.95
-11.72
-11.69
-11.13
-9.54
-6.7
-2.76
1.86
6.62
10.98
14.55
17.11
18.79
19.94
21.03
22.49
24.54
27.09
29.82
32.26
33.96
34.59
33.98
32.12
29.13
25.21
20.65
15.75
10.71
5.71
0.87
-3.76
-8.14
-12.24
-16.11
-19.82
-23.51
-27.25
-31.15
-35.2
-39.52
-44.3
-49.73
-55.93
-62.62
-69.02
-73.92
-76.05
-74.56
-69.38
-61.33
-51.87
-42.6
-34.82
-29.08
-25.25
-22.7
-20.66
-18.43
-15.59
-12
-7.75
-3.06
1.74
6.3
10.33
13.64
16.23
18.33
20.23
22.22
24.4
26.69
28.9
30.85
32.58
34.3
36.22
38.36
40.39
41.69
41.64
39.92
36.68
32.44
27.86
23.43
19.31
15.35
11.21
6.53
0.95
-5.86
-14.12
-23.61
-33.42
-41.96
-47.42
-48.39
-44.57
-36.9
-27.2
-17.42
-8.88
-2.09
3.14
7.18
10.27
12.51
13.98
14.93
15.73
16.59
17.47
17.95
17.61
16.26
14.08
11.57
9.35
7.88
7.48
8.26
10.18
12.98
16.15
18.95
20.64
20.8
19.66
18.06
17.16
17.86
20.4
24.14
27.9
30.42
30.78
28.65
24.17
17.77
10
1.52
-7.02
-15.02
-21.92
-27.35
-31.1
-32.99
-32.86
-30.5
-25.84
-19.17
-11.28
-3.46
2.83
6.37
6.62
3.85
-0.88
-6.16
-10.71
-13.82
-15.49
-16.19
-16.53
-16.73
-16.6
-15.72
-13.78
-10.88
-7.51
-4.25
-1.44
1.08
3.78
7.05
10.82
14.47
17.12
18.04
17.12
14.89
12.27
10.18
9.13
9.08
9.47
9.47
8.29
5.44
1.03
-4.14
-8.77
-11.4
-11.06
-7.55
-1.66
5.26
11.75
16.73
19.7
20.65
19.78
17.41
13.93
9.97
6.49
4.43
4.44
6.37
9.3
11.9
12.92
11.74
8.54
4.03
-1.02
-6.1
-11.09
-16.15
-21.37
-26.64
-31.69
-36.23
-40.07
-43.2
-45.67
-47.54
-48.94
-50.08
-51.28
-52.94
-55.18
-57.56
-59.13
-58.66
-55.23
-48.7
-39.82
-29.97
-20.46
-12.08
-4.87
1.67
8.04
14.46
20.73
26.43
31.21
34.9
37.43
38.8
39.02
38.17
36.52
34.51
32.64
31.22
30.24
29.31
27.8
24.99
20.23
13.24
4.29
-5.53
-14.43
-20.5
-22.44
-20.28
-15.57
-10.88
-8.75
-10.74
-16.86
-25.79
-35.49
-44.09
-50.33
-53.76
-54.43
-52.6
-48.42
-41.92
-33.08
-22.02
-9.24
4.37
17.67
29.56
39.32
46.69
51.81
54.97
56.4
56.25
54.69
52.07
48.94
45.93
43.54
41.99
41.18
40.77
40.28
39.29
37.55
35.04
31.94
28.44
24.64
20.46
15.73
10.41
4.69
-0.97
-6.01
-10.02
-12.99
-15.24
-17.31
-19.75
-22.96
-27.1
-32.06
-37.39
-42.26
-45.57
-46.33
-44.05
-39.08
-32.56
-25.9
-20.24
-15.94
-12.54
-9.08
-4.7
1.02
7.79
14.88
21.42
26.71
30.53
33
34.6
35.82
37.04
38.47
40.06
41.76
43.48
45.16
46.65
47.69
47.82
46.56
43.56
38.8
32.58
25.45
18.06
10.88
4.27
-1.67
-6.96
-11.64
-15.76
-19.32
-22.34
-24.87
-27.04
-29.06
-31.22
-33.88
-37.42
-42.15
-48.06
-54.75
-61.23
-66.16
-68.14
-66.24
-60.42
-51.64
-41.52
-31.81
-23.71
-17.54
-12.82
-8.67
-4.29
0.64
5.99
11.35
16.23
20.35
23.58
25.89
27.32
27.95
27.88
27.27
26.36
25.43
24.73
24.48
24.74
25.42
26.24
26.75
26.48
25.1
22.61
19.35
15.85
12.59
9.77
7.25
4.69
1.72
-1.82
-5.86
-10.12
-14.26
-18.11
-21.74
-25.42
-29.48
-34.13
-39.36
-44.91
-50.36
-55.2
-58.89
-60.83
-60.47
-57.36
-51.39
-42.98
-33.11
-23.16
-14.54
-8.21
-4.34
-2.37
-1.25
0.04
2.08
4.89
8.01
10.82
12.89
14.17
14.96
15.68
16.6
17.75
18.9
19.76
20.15
20.13
19.91
19.73
19.67
19.6
19.27
18.39
16.81
14.6
12.04
9.47
7.23
5.46
4.08
2.92
1.7
0.23
-1.58
-3.65
-5.89
-8.24
-10.8
-13.76
-17.34
-21.6
-26.38
-31.18
-35.25
-37.69
-37.63
-34.44
-28.01
-18.86
-8.09
2.84
12.48
19.79
24.28
26.06
25.68
23.84
21.26
18.47
15.77
13.25
10.89
8.58
6.25
3.93
1.71
-0.29
-1.95
-3.24
-4.11
-4.54
-4.54
-4.26
-4.02
-4.18
-4.96
-6.22
-7.48
-8.06
-7.5
-5.79
-3.41
-1.08
0.68
1.82
2.84
4.45
7.18
11.05
15.49
19.66
22.7
24.04
23.51
21.29
17.81
13.77
10.04
7.53
6.95
8.48
11.63
15.25
17.87
18.25
15.85
11.07
5.07
-0.63
-4.78
-6.8
-6.88
-5.81
-4.56
-3.84
-3.88
-4.49
-5.23
-5.73
-5.72
-4.96
-3.17
0.03
5.02
11.89
20.26
29.32
38.04
45.53
51.25
55
56.74
56.29
53.36
47.69
39.35
28.98
17.67
6.81
-2.38
-9.15
-13.39
-15.56
-16.4
-16.61
-16.46
-15.6
-13.13
-7.9
1
13.68
29.35
46.41
63.06
77.83
90.05
99.78
107.62
114.24
120.14
125.55
130.53
135.16
139.66
144.36
149.63
155.67
162.4
169.48
176.39
182.59
187.53
190.54
190.67
186.72
177.38
161.72
139.66
112.14
80.96
48.3
15.9
-15.42
-45.84
-76.12
-106.78
-137.52
-166.96
-193.21
-214.54
-230.11
-239.93
-244.36
-243.35
-236.14
-221.84
-200.48
-173.95
-145.9
-120.69
-101.54
-89.32
-82.43
-77.99
-73.54
-68.19
-62.74
-58.79
-57.52
-58.9
-61.77
-64.67
-66.62
-67.7
-68.71
-70.58
-73.75
-77.8
-81.66
-84.07
-84.15
-81.61
-76.83
-70.65
-64.07
-58.11
-53.64
-51.36
-51.7
-54.73
-60.11
-67.1
-74.66
-81.65
-86.95
-89.54
-88.7
-84.06
-75.82
-64.85
-52.63
-40.97
-31.53
-25.33
-22.37
-21.86
-22.66
-23.68
-24.25
-24.04
-22.68
-19.62
-14.26
-6.31
3.75
14.71
25.15
34.15
41.75
48.65
55.5
62.03
66.8
67.75
63.26
53.15
39.01
23.58
9.62
-1.16
-8.54
-13.48
-17.3
-21.03
-25.07
-29.4
-33.89
-38.35
-42.49
-45.62
-46.54
-43.95
-37.13
-26.54
-14
-2.16
6.46
10.47
9.99
6.52
2.13
-1.36
-2.88
-2.27
-0.06
3.01
6.19
8.99
11.13
12.55
13.4
14.11
15.26
17.5
21.22
26.38
32.48
38.67
44.13
48.25
50.81
51.89
51.83
51.14
50.35
49.91
50.02
50.54
50.99
50.76
49.37
46.7
43
38.79
34.63
31.07
28.71
28.28
30.55
36.11
44.93
56.15
68.14
78.95
86.94
91.33
92.27
90.69
87.82
84.84
82.81
82.67
85.28
90.84
