-55.93
-35.49
-16.09
0.37
13.18
22.57
29.33
34.26
37.97
40.82
43.01
44.67
45.92
46.87
47.59
48.11
48.45
48.53
48.29
47.71
46.84
45.83
44.87
44.08
43.39
42.53
41.07
38.63
35.03
30.37
25.09
19.74
14.81
10.53
6.76
3.14
-0.79
-5.34
-10.54
-16.15
-21.8
-27.11
-31.81
-35.85
-39.37
-42.74
-46.49
-51.27
-57.61
-65.62
-74.69
-83.3
-89.32
-90.55
-85.56
-74.26
-58.12
-39.67
-21.7
-6.36
5.32
13.46
18.88
22.59
25.32
27.46
29.13
30.36
31.2
31.73
32.06
32.29
32.47
32.7
33.02
33.5
34.12
34.76
35.15
34.91
33.7
31.3
27.78
23.4
18.62
13.82
9.21
4.78
0.38
-4.15
-8.91
-13.94
-19.26
-24.87
-30.7
-36.55
-42.15
-47.32
-52.17
-57.17
-62.84
-69.24
-75.55
-80.06
-80.72
-75.91
-65.32
-50.1
-32.52
-15.05
0.42
13.01
22.79
30.32
36.2
40.8
44.26
46.61
47.97
48.52
48.48
48.12
47.58
46.95
46.23
45.39
44.42
43.33
42.17
41.05
40
38.98
37.79
36.12
33.65
30.23
25.95
21.2
16.56
12.57
9.46
7.12
5.02
2.47
-1.11
-5.93
-11.77
-18.09
-24.25
-29.77
-34.45
-38.41
-42.02
-45.81
-50.37
-56.29
-63.83
-72.61
-81.41
-88.15
-90.5
-86.65
-76.07
-59.88
-40.57
-21.08
-3.88
9.73
19.65
26.59
31.5
35.13
37.92
40.14
42.01
43.75
45.54
47.36
49
50.2
50.77
50.78
50.49
50.25
50.34
50.74
51.2
51.28
50.55
48.74
45.82
42.05
37.77
33.33
28.93
24.66
20.51
16.47
12.56
8.79
5.12
1.39
-2.6
-7.07
-12.09
-17.52
-23.07
-28.38
-33.19
-37.51
-41.55
-45.78
-50.78
-57
-64.7
-73.6
-82.75
-90.49
-94.81
-93.93
-86.9
-74.11
-57.23
-38.66
-20.87
-5.59
6.39
15.18
21.4
25.79
28.89
31.08
32.61
33.68
34.42
34.91
35.11
34.98
34.5
33.74
32.87
32.17
31.93
32.33
33.35
34.67
35.71
35.76
34.21
30.84
25.91
20.13
14.44
9.55
5.79
2.88
0.16
-3.06
-7.22
-12.27
-17.74
-23
-27.52
-31.14
-34.1
-36.96
-40.47
-45.29
-51.79
-59.71
-68.01
-74.96
-78.51
-76.94
-69.51
-56.87
-40.81
-23.79
-8.09
4.82
14.42
21.04
25.39
28.15
29.85
30.75
31.09
31.04
30.78
30.45
30.13
29.8
29.42
28.98
28.5
28.06
27.72
27.42
27.02
26.22
24.69
22.21
18.73
14.46
9.77
5.08
0.65
-3.52
-7.64
-12.06
-17.04
-22.6
-28.57
-34.51
-40.03
-44.85
-49
-52.85
-57.03
-62.32
-69.24
-77.76
-86.89
-94.84
-99.37
-98.58
-91.6
-78.99
-62.53
-44.58
-27.31
-12.04
0.79
11.46
20.48
28.23
34.88
40.48
45.1
48.9
52.16
55.06
57.65
59.8
61.3
62.02
62.04
61.68
61.31
61.26
61.53
61.84
61.68
60.55
58.15
54.54
50.06
45.19
40.44
36.09
32.15
28.43
24.55
20.15
15.04
9.29
3.25
-2.63
-7.99
-12.72
-17.06
-21.54
-26.92
-33.91
-42.9
-53.62
-64.96
-74.94
-81.3
-82.04
-76.28
-64.57
-48.78
-31.47
-15.07
-1.18
9.63
17.64
23.5
27.9
31.27
33.82
35.66
36.86
37.56
37.88
37.89
37.57
36.87
35.78
34.42
33.06
31.99
31.37
31.07
30.73
29.88
28.22
25.72
22.66
19.4
16.18
13
9.61
5.75
1.28
-3.71
-8.95
-14.13
-19.03
-23.59
-27.91
-32.21
-36.84
-42.18
-48.65
-56.37
-64.92
-73.11
-79.07
-80.75
-76.61
-66.36
-51.18
-33.41
-15.79
-0.51
11.31
19.7
25.49
29.62
32.84
35.42
37.36
38.54
38.96
38.75
38.16
37.48
36.96
36.73
36.82
37.14
37.46
37.56
37.23
36.38
34.99
33.07
30.6
27.5
23.7
19.15
13.95
8.28
2.39
-3.47
-9.12
-14.45
-19.43
-24.07
-28.52
-33.08
-38.28
-44.72
-52.72
-61.98
-71.28
-78.63
-81.82
-79.2
-70.34
-56.28
-39.21
-21.64
-5.65
7.63
17.99
25.76
31.43
35.38
37.87
39.16
39.59
39.56
39.41
39.28
39.1
38.71
37.97
36.89
35.62
34.47
33.68
33.29
33.11
32.68
31.44
28.98
25.22
20.51
15.57
11.17
7.84
5.68
4.25
2.84
0.7
-2.58
-6.96
-12.01
-17.17
-22.01
-26.4
-30.52
-34.73
-39.43
-45.07
-52
-60.38
-69.77
-78.97
-86.01
-88.64
-85.16
-75.17
-59.86
-41.63
-23.23
-6.84
6.44
16.55
24.05
29.6
33.67
36.57
38.5
39.73
40.52
41.11
41.61
41.95
42.01
41.67
40.95
40.05
39.27
38.9
39.01
39.33
39.32
38.33
35.93
32.1
27.25
22.01
16.97
12.41
8.24
4.12
-0.32
-5.31
-10.85
-16.69
-22.49
-27.91
-32.7
-36.86
-40.63
-44.58
-49.44
-55.92
-64.2
-73.63
-82.51
-88.47
-89.2
-83.31
-71.01
-54.07
-35.26
-17.36
-2.3
9.21
17.51
23.45
27.84
31.13
33.4
34.53
34.46
33.21
30.99
28.18
25.28
22.82
21.25
20.78
21.32
22.5
23.84
24.92
25.54
25.6
25.06
23.76
21.47
18.01
13.34
7.69
1.48
-4.81
-10.81
-16.35
-21.41
-26.14
-30.71
-35.42
-40.66
-46.85
-54.13
-62.15
-69.73
-75.06
-76.13
-71.53
-61.05
-45.91
-28.34
-10.84
4.61
17.02
26.4
33.26
38.21
41.65
43.78
44.75
44.84
44.4
43.82
43.3
42.79
42.09
41.02
39.58
38.01
36.7
35.92
35.68
35.6
35.11
33.67
31.02
27.32
23.07
18.81
14.89
11.27
7.56
3.3
-1.81
-7.67
-13.87
-19.8
-25.05
-29.53
-33.55
-37.71
-42.74
-49.23
-57.52
-67.37
-77.83
-87.16
-93.15
-93.67
-87.48
-74.79
-57.3
-37.73
-18.88
-2.81
9.57
18.51
24.85
29.53
33.27
36.43
39.17
41.48
43.36
44.78
45.67
46.02
45.82
45.16
44.22
43.27
42.55
42.24
42.26
42.34
41.95
40.59
37.89
33.82
28.75
23.27
17.94
13.03
8.45
3.8
-1.4
-7.43
-14.23
-21.36
-28.21
-34.21
-39.14
-43.22
-47.17
-51.98
-58.62
-67.64
-78.69
-90.35
-100.29
-105.89
-104.98
-96.75
-81.99
-62.9
-42.4
-23.17
-7.02
5.38
14.27
20.43
24.68
27.66
29.75
31.08
31.7
31.67
31.09
30.23
29.35
28.69
28.33
28.21
28.11
27.84
27.27
26.37
25.19
23.71
21.87
19.48
16.33
12.24
7.2
1.41
-4.67
-10.51
-15.63
-19.8
-23.13
-26.08
-29.26
-33.35
-38.91
-46.28
-55.3
-65.22
-74.52
-81.17
-83.08
-78.83
-68.2
-52.4
-33.68
-14.63
2.63
16.83
27.7
35.64
41.36
45.5
48.55
50.83
52.52
53.75
54.62
55.22
55.6
55.79
55.79
55.64
55.39
55.1
54.77
54.33
53.53
52.05
49.56
45.89
41.1
35.39
28.99
22.08
14.71
6.91
-1.14
-9.22
-16.96
-24.1
-30.62
-36.75
-42.99
-49.94
-58.2
-68.08
-79.34
-90.88
-100.79
-106.63
-106.22
-98.38
-83.52
-63.57
-41.32
-19.54
-0.23
15.68
28.2
37.82
45.13
50.64
54.75
57.83
60.21
62.14
63.73
64.88
65.43
65.29
64.48
63.25
61.98
61.08
60.81
61.17
61.78
61.99
61.05
58.37
53.83
47.8
41.05
34.38
28.34
22.93
17.66
11.86
5.02
-2.91
-11.51
-20.05
-27.87
-34.56
-40.19
-45.24
-50.5
-56.92
-65.31
-75.95
-88.19
-100.29
-109.61
-113.34
-109.43
-97.37
-78.46
-55.44
-31.55
-9.55
8.86
23.22
33.93
41.76
47.48
51.67
54.77
57.08
58.85
60.23
61.28
61.97
62.19
61.94
61.33
60.62
60.1
59.99
60.22
60.4
59.88
58.01
54.38
49.13
42.78
36.12
29.75
23.85
18.12
11.94
4.77
-3.53
-12.65
-21.95
-30.76
-38.67
-45.66
-52.1
-58.66
-66.07
-74.94
-85.36
-96.63
-107.07
-114.29
-115.81
-109.99
-96.7
-77.47
-55.13
-32.8
-13
2.94
14.92
23.65
30.08
34.95
38.59
41.05
42.29
42.47
41.99
41.39
41.16
41.5
42.27
43.02
43.36
43.09
42.36
41.54
40.87
40.29
39.35
37.35
33.7
28.21
21.24
13.52
5.91
-0.93
-6.73
-11.66
-16.16
-20.89
-26.49
-33.54
-42.37
-52.8
-63.83
-73.68
-80.02
-80.66
-74.38
-61.42
-43.52
-23.39
-3.82
13.14
26.56
36.52
43.72
48.92
52.62
55.02
56.18
56.2
55.34
53.97
52.45
51.02
49.72
48.5
47.33
46.27
45.5
45.12
45.03
44.88
44.14
42.31
39.12
34.67
29.32
23.59
17.83
12.14
6.37
0.27
-6.3
-13.26
-20.32
-27.13
-33.41
-39.17
-44.68
-50.46
-57.1
-65.12
-74.68
-85.32
-95.77
-104.02
-107.8
-105.24
-95.67
-79.97
-60.32
-39.56
-20.2
-3.8
9.2
19.17
26.76
32.53
36.78
39.74
41.72
43.15
44.46
45.85
47.22
48.21
48.47
47.91
46.76
45.54
44.7
44.42
44.41
44.14
42.96
40.48
36.62
31.64
25.95
19.9
13.63
7.06
0.05
-7.52
-15.57
-23.82
-31.86
-39.25
-45.64
-50.93
-55.33
-59.34
-63.79
-69.63
-77.63
-87.91
-99.51
-110.23
-116.98
-116.71
-107.47
-89.22
-64.02
-35.31
-6.96
17.96
37.71
52.01
61.54
67.44
70.81
72.49
73.09
72.96
72.3
71.16
69.46
67.13
64.16
60.67
56.95
53.37
50.25
47.75
45.76
43.96
41.86
39.02
35.21
30.45
24.96
19.1
13.14
7.21
1.32
-4.63
-10.69
-16.82
-22.89
-28.75
-34.31
-39.62
-44.89
-50.42
-56.6
-63.75
-71.86
-80.31
-87.78
-92.42
-92.35
-86.4
-74.62
-58.37
-39.96
-21.85
-5.99
6.63
15.9
22.32
26.59
29.29
30.88
31.61
31.71
31.34
30.66
29.77
28.77
27.72
26.66
25.6
24.5
23.23
21.66
19.64
17.14
14.2
11.02
7.78
4.64
1.58
-1.59
-5.11
-9.19
-13.86
-18.95
-24.16
-29.13
-33.63
-37.62
-41.33
-45.21
-49.85
-55.8
-63.28
-71.91
-80.55
-87.34
-90.15
-87.23
-77.84
-62.61
-43.38
-22.65
-2.87
14.2
27.73
37.74
44.76
49.53
52.71
54.84
56.26
57.18
57.72
57.9
57.72
57.16
56.17
54.81
53.17
51.46
49.91
48.66
47.6
46.44
44.73
42.11
38.45
33.89
28.77
23.52
18.38
13.37
8.36
3.12
-2.45
-8.27
-14.11
-19.66
-24.67
-29.1
-33.15
-37.27
-42.02
-48
-55.52
-64.31
-73.27
-80.57
-84.03
-81.85
-73.31
-59.16
-41.44
-22.78
-5.55
8.76
19.76
27.83
33.65
37.75
40.48
42.03
42.66
42.7
42.54
42.46
42.56
42.76
42.93
43.02
43.04
43.11
43.28
43.48
43.42
42.77
41.18
38.49
34.74
30.24
25.38
20.59
16.08
11.82
7.51
2.8
-2.55
-8.5
-14.72
-20.68
-25.93
-30.26
-33.88
-37.33
-41.43
-47
-54.46
-63.52
-72.95
-80.74
-84.61
-82.78
-74.63
-61
-43.94
-26
-9.43
4.41
15.13
23.06
28.79
32.8
35.36
36.57
36.6
35.71
34.32
32.85
31.65
30.9
30.54
30.41
30.31
30.03
29.46
28.55
27.24
25.51
23.29
20.47
16.95
12.63
7.51
1.71
-4.49
-10.73
-16.58
-21.77
-26.21
-30.01
-33.51
-37.17
-41.51
-47.09
-54.19
-62.67
-71.7
-79.66
-84.48
-84.24
-77.8
-65.35
-48.34
-29.07
-9.9
7.3
21.55
32.65
40.88
46.7
50.63
53.15
54.76
55.91
56.93
57.96
58.92
59.58
59.72
59.2
58.08
56.6
55.11
53.88
52.99
52.23
51.15
49.21
46.05
41.63
36.25
30.38
24.48
18.81
13.37
7.98
2.38
-3.56
-9.82
-16.2
-22.39
-28.1
-33.13
-37.54
-41.64
-46.03
-51.4
-58.33
-66.95
-76.57
-85.74
-92.39
-94.46
-90.58
-80.58
-65.57
-47.59
-28.97
-11.65
3.27
15.49
25.33
33.26
39.73
45.08
49.5
53.14
56.1
58.36
59.79
60.21
59.44
57.48
54.6
51.3
48.17
45.63
43.8
42.41
40.97
38.96
36.11
32.43
28.24
23.94
19.87
16.1
12.5
8.8
4.73
0.16
-4.87
-10.21
-15.63
-20.95
-26.04
-30.86
-35.53
-40.32
-45.65
-51.89
-59.02
-66.41
-72.64
-75.84
-74.31
-67.21
-55.03
-39.48
-22.95
-7.75
4.61
13.62
19.66
23.56
26.11
27.81
28.8
29
28.34
26.96
25.25
23.73
22.79
22.52
22.63
22.64
22.21
21.3
20.22
19.4
19.04
18.89
18.28
16.43
12.79
7.38
0.74
-6.22
-12.65
-18.01
-22.25
-25.69
-28.95
-32.66
-37.31
-43.24
-50.45
-58.65
-67
-74.18
-78.51
-78.4
-72.88
-62.03
-47.14
-30.31
-13.83
0.5
11.76
19.94
25.59
29.46
32.11
33.89
34.92
35.28
35.09
34.54
33.82
33.12
32.53
32.03
31.53
31
30.48
30.08
29.83
29.61
29.12
27.97
25.85
22.72
18.86
14.72
10.71
7
3.41
-0.45
-4.94
-10.22
-16.08
-22.1
-27.7
-32.49
-36.37
-39.63
-42.94
-47.21
-53.24
-61.36
-71.07
-80.86
-88.41
-91.3
-87.77
-77.45
-61.57
-42.5
-23.02
-5.46
8.89
19.73
27.49
32.91
36.69
39.4
41.42
43.03
44.4
45.62
46.7
47.57
48.15
48.33
48.07
47.36
46.32
45.16
44.14
43.38
42.81
42.09
40.76
38.42
34.93
30.52
25.68
21.04
17.03
13.79
11.11
8.53
5.56
1.83
-2.73
-7.9
-13.26
-18.37
-22.91
-26.81
-30.27
-33.7
-37.64
-42.64
-49.08
-56.97
-65.66
-73.75
-79.29
-80.33
-75.58
-65
-49.88
-32.47
-15.21
-0.02
12.19
21.36
27.95
32.53
35.54
37.27
38.05
38.22
38.11
38.02
38.01
38.04
38
37.82
37.52
37.16
36.84
36.62
36.55
36.54
36.41
35.82
34.38
31.72
27.72
22.6
16.91
11.39
6.66
2.94
0.04
-2.61
-5.67
-9.53
-14.19
-19.32
-24.38
-28.93
-32.79
-36.08
-39.17
-42.6
-46.94
-52.67
-59.9
-68.14
-76.14
-82.01
-83.72
-79.79
-69.92
-55.15
-37.63
-19.9
-4.17
8.24
17.03
22.67
26.02
27.88
28.79
28.99
28.54
27.48
25.98
24.32
22.92
22.08
21.87
22.16
22.59
22.82
22.64
22.04
21.17
20.15
18.99
17.44
15.15
11.78
7.22
1.65
-4.45
-10.52
-16.04
-20.72
-24.55
-27.76
-30.75
-33.97
-37.9
-42.9
-49.14
-56.34
-63.67
-69.71
-72.71
-71.2
-64.4
-52.67
-37.46
-20.91
-5.17
8.14
18.31
25.48
30.27
33.45
35.6
37.03
37.85
38.1
37.87
37.32
36.64
35.96
35.41
35
34.73
34.52
34.28
33.87
33.09
31.71
29.55
26.5
22.64
18.2
13.5
8.87
4.47
0.23
-4.02
-8.48
-13.18
-18.02
-22.74
-27.1
-31.09
-34.92
-39.04
-44.01
-50.3
-58
-66.56
-74.65
-80.42
-81.86
-77.59
-67.38
-52.31
-34.52
-16.49
-0.3
12.88
22.82
29.91
34.83
38.19
40.45
41.95
42.97
43.77
44.51
45.21
45.74
45.87
45.4
44.3
42.76
41.08
39.61
38.56
37.9
37.36
36.5
34.85
32.13
28.3
23.67
18.74
14.07
9.99
6.51
3.26
-0.32
-4.65
-9.86
-15.64
-21.43
-26.66
-31.03
-34.61
-37.81
-41.27
-45.68
-51.57
-59.08
-67.69
-76.14
-82.5
-84.68
-81.13
-71.52
-56.92
-39.55
-21.95
-6.28
6.3
15.6
22.1
26.5
29.43
31.33
32.52
33.2
33.52
33.49
33.14
32.5
31.68
30.84
30.16
29.73
29.55
29.57
29.65
29.62
29.27
28.34
26.6
23.93
20.4
16.17
11.48
6.52
1.39
-3.8
-8.95
-13.89
-18.47
-22.55
-26.21
-29.71
-33.52
-38.2
-44.24
-51.75
-60.14
-68.02
-73.42
-74.34
-69.52
-58.98
-44.08
-27.08
-10.33
4.42
16.37
25.59
32.58
37.84
41.66
44.15
45.38
45.53
44.97
44.13
43.37
42.92
42.82
42.89
42.94
42.84
42.6
42.33
42.14
42.05
41.87
41.27
39.83
37.26
33.45
28.6
23.15
17.66
12.65
8.38
4.75
1.35
-2.41
-6.99
-12.53
-18.72
-24.98
-30.69
-35.44
-39.3
-42.73
-46.49
-51.41
-58.09
-66.52
-75.98
-84.9
-91.18
-92.79
-88.33
-77.69
-62.12
-43.91
-25.57
-9.13
4.32
14.68
22.45
28.29
32.8
36.32
39.05
41.15
42.75
43.88
44.6
44.91
44.96
44.97
45.22
45.92
47.04
48.4
49.64
50.43
50.52
49.86
48.45
46.4
43.75
40.51
36.66
32.22
27.33
22.25
17.34
12.92
9.09
5.74
2.49
-1.1
-5.31
-10.17
-15.44
-20.67
-25.45
-29.57
-33.08
-36.33
-39.76
-43.88
-49.17
-55.9
-63.98
-72.72
-80.69
-85.94
-86.51
-81.19
-70.03
-54.47
-36.91
-19.85
-5.18
6.24
14.5
20.21
24.12
26.84
28.83
30.42
31.87
33.25
34.47
35.34
35.68
35.44
34.75
33.91
33.24
32.91
32.89
32.92
32.59
31.49
29.35
26.17
22.19
17.84
13.58
9.69
6.22
2.94
-0.45
-4.23
-8.49
-13.11
-17.82
-22.35
-26.49
-30.19
-33.63
-37.18
-41.4
-46.76
-53.42
-60.84
-67.67
-72.04
-72.06
-66.65
-56
-41.63
-25.81
-10.81
1.89
11.78
19.17
24.7
28.95
32.2
34.55
36.03
36.8
37.1
37.24
37.4
37.66
37.9
38.01
37.92
37.66
37.34
37.08
36.9
36.66
36.12
34.98
32.97
29.98
26.06
21.49
16.69
12.2
8.51
5.89
4.19
2.87
1.21
-1.43
-5.25
-9.98
-15.01
-19.76
-23.95
-27.72
-31.52
-35.91
-41.37
-48.14
-56.22
-65.11
-73.73
-80.45
-83.37
-80.91
-72.43
-58.62
-41.33
-23.01
-5.96
8.35
19.35
27.26
32.73
36.47
39.11
41.11
42.73
44.07
45.04
45.5
45.39
44.76
43.83
42.82
41.92
41.16
40.46
39.71
38.88
38.01
37.13
36.16
34.84
32.82
29.78
25.66
20.77
15.67
11.02
7.25
4.39
2.07
-0.31
-3.29
-7.11
-11.71
-16.73
-21.75
-26.38
-30.39
-33.73
-36.56
-39.28
-42.47
-46.79
-52.74
-60.34
-68.93
-77.04
-82.69
-83.96
-79.59
-69.5
-54.91
-37.92
-20.88
-5.67
6.66
15.91
22.49
27.01
30.07
32.1
33.44
34.29
34.79
34.99
34.89
34.49
33.84
33.05
32.27
31.67
31.38
31.48
31.99
32.81
33.65
34.07
33.57
31.74
28.51
24.21
19.47
15.01
11.3
8.33
5.71
2.75
-1.1
-6.03
-11.75
-17.62
-22.95
-27.31
-30.67
-33.41
-36.15
-39.6
-44.35
-50.65
-58.23
-66.05
-72.43
-75.43
-73.38
-65.63
-52.85
-36.85
-20.04
-4.59
8.11
17.64
24.29
28.67
31.38
32.9
33.6
33.76
33.65
33.42
33.12
32.72
32.17
31.49
30.76
30.12
29.64
29.28
28.89
28.15
26.79
24.58
21.46
17.56
13.14
8.48
3.82
-0.71
-5.08
-9.34
-13.57
-17.83
-22.1
-26.36
-30.51
-34.48
-38.28
-42.09
-46.34
-51.55
-58.05
-65.6
-73.16
-78.95
-80.96
-77.67
-68.73
-55.12
-38.87
-22.34
-7.45
4.7
13.96
20.72
25.58
29.11
31.75
33.81
35.51
36.98
38.19
39.05
39.46
39.41
39.05
38.62
38.37
38.4
38.66
39.02
39.35
39.48
39.24
38.42
36.72
33.89
29.9
25.03
19.84
15.01
11.04
7.97
5.44
2.74
-0.72
-5.21
-10.53
-16.17
-21.51
-26.17
-30.13
-33.68
-37.37
-41.78
-47.47
-54.85
-63.88
-73.88
-83.34
-90.17
-92.19
-87.96
-77.37
-61.79
-43.64
-25.52
-9.42
3.74
13.94
21.75
27.77
32.5
36.2
39.12
41.44
43.34
44.88
45.99
46.58
46.62
46.23
45.64
45.15
44.96
45.07
45.34
45.53
45.41
44.8
43.65
41.94
39.68
36.9
33.58
29.72
25.4
20.79
16.18
11.85
7.98
4.53
1.27
-2.19
-6.09
-10.54
-15.4
-20.4
-25.24
-29.71
-33.74
-37.42
-41.07
-45.14
-50.27
-57
-65.45
-74.91
-83.78
-89.87
-91.01
-85.94
-74.75
-58.94
-40.94
-23.2
-7.57
5.09
14.82
22.18
27.79
32.15
35.57
38.2
40.21
41.76
42.96
43.91
44.61
45.05
45.17
44.99
44.55
44
43.48
43.11
42.88
42.65
42.08
40.8
38.46
34.95
30.39
25.21
19.96
15.19
11.26
8.18
5.66
3.15
0.07
-3.91
-8.78
-14.15
-19.41
-24.04
-27.82
-30.93
-33.96
-37.64
-42.7
-49.59
-58.23
-67.91
-77.22
-84.22
-86.97
-84.04
-75.11
-61.13
-44.09
-26.43
-10.29
3
13.04
20.19
25.14
28.58
30.97
32.59
33.61
34.18
34.42
34.46
34.36
34.12
33.77
33.36
33.01
32.83
32.85
32.96
32.91
32.35
31
28.71
25.58
21.82
17.72
13.49
9.21
4.84
0.27
-4.61
-9.81
-15.21
-20.59
-25.67
-30.27
-34.37
-38.25
-42.44
-47.63
-54.34
-62.54
-71.36
-79.06
-83.43
-82.54
-75.48
-62.78
-46.29
-28.54
-11.85
2.34
13.54
22.06
28.5
33.39
37.05
39.68
41.46
42.62
43.39
43.95
44.39
44.76
45.04
45.23
45.29
45.2
44.95
44.61
44.23
43.8
43.19
42.15
40.37
37.65
33.98
29.6
24.93
20.44
16.47
13.16
10.33
7.59
4.41
0.32
-4.89
-11.09
-17.82
-24.43
-30.32
-35.17
-39.03
-42.37
-45.89
-50.41
-56.59
-64.66
-74.17
-83.84
-91.66
-95.39
-93.23
-84.54
-70.17
-52.16
-33.17
-15.52
-0.64
11.08
20.04
26.92
32.35
36.73
40.3
43.21
45.63
47.62
49.11
50.01
50.22
49.82
49.05
48.27
47.8
47.77
48.06
48.34
48.22
47.4
45.78
43.45
40.67
37.72
34.85
32.14
29.48
26.65
23.39
19.58
15.24
10.59
5.89
1.28
-3.26
-7.88
-12.76
-17.86
-22.97
-27.76
-31.95
-35.48
-38.56
-41.62
-45.19
-49.83
-55.96
-63.69
-72.52
-81.25
-88.04
-90.8
-87.85
-78.58
-63.74
-45.3
-25.83
-7.7
7.48
19.15
27.61
33.67
38.16
41.73
44.7
47.07
48.75
49.63
49.69
49.1
48.1
46.97
45.96
45.23
44.8
44.66
44.69
44.79
44.79
44.57
43.91
42.59
40.42
37.3
33.3
28.69
23.89
19.32
15.26
11.69
8.33
4.7
0.45
-4.6
-10.27
-16.11
-21.58
-26.26
-30.08
-33.26
-36.31
-39.83
-44.4
-50.42
-58.01
-66.85
-75.95
-83.76
-88.32
-87.85
-81.38
-69.18
-52.82
-34.67
-17.17
-2.14
9.62
18.15
24.04
27.97
30.54
32.11
32.96
33.28
33.22
32.88
32.34
31.77
31.3
31.14
31.43
32.22
33.36
34.57
35.48
35.7
34.98
33.16
30.35
26.72
22.61
18.32
14.02
9.73
5.33
0.63
-4.52
-10.09
-15.93
-21.76
-27.26
-32.31
-36.99
-41.72
-47.06
-53.59
-61.47
-70.18
-78.38
-84.15
-85.55
-81.26
-71.21
-56.52
-39.28
-21.75
-5.79
7.56
18.06
25.99
31.87
36.13
39.18
41.25
42.55
43.24
43.48
43.43
43.22
42.94
42.59
42.17
41.6
40.91
40.21
39.66
39.38
39.34
39.29
38.82
37.51
35.05
31.46
27.04
22.37
18.01
14.34
11.36
8.64
5.56
1.53
-3.69
-9.88
-16.45
-22.66
-27.93
-32.1
-35.44
-38.61
-42.4
-47.57
-54.59
-63.36
-73.05
-82.06
-88.24
-89.51
-84.51
-73.22
-57.04
-38.38
-19.87
-3.6
9.4
19.05
25.92
30.79
34.31
36.99
39.17
41.15
43.06
44.88
46.4
47.38
47.66
47.26
46.39
45.34
44.4
43.73
43.34
43.17
43.06
42.83
42.27
41.19
39.42
36.87
33.6
29.72
25.46
21.03
16.68
12.57
8.76
5.21
1.72
-1.99
-6.23
-11.17
-16.75
-22.69
-28.57
-33.99
-38.71
-42.82
-46.6
-50.6
-55.37
-61.39
-68.74
-76.83
-84.33
-89.25
-89.54
-83.83
-72
-55.35
-36.25
-17.33
-0.71
12.47
22.07
28.67
33.09
36.03
38.01
39.28
39.98
40.16
39.85
39.12
38.01
36.65
35.13
33.59
32.18
31.08
30.47
30.36
30.56
30.63
30.02
28.24
25.06
20.66
15.54
10.37
5.68
1.7
-1.71
-4.98
-8.6
-12.88
-17.8
-23.02
-28.01
-32.34
-35.78
-38.53
-41.09
-44.24
-48.75
-55.05
-62.96
-71.37
-78.41
-81.85
-79.86
-71.7
-58.08
-41
-23.05
-6.58
6.98
17.24
24.65
29.98
33.96
37.02
39.35
41.04
42.18
42.88
43.26
43.38
43.32
43.08
42.7
42.25
41.81
41.46
41.24
41.14
41.02
40.66
39.8
38.19
35.69
32.25
28
23.18
18.19
13.42
9.23
5.76
2.88
0.23
-2.71
-6.34
-10.86
-16.18
-21.92
-27.63
-32.91
-37.52
-41.54
-45.25
-49.18
-53.97
-60.2
-68.16
-77.39
-86.55
-93.51
-95.9
-91.92
-81.12
-64.65
-44.94
-24.87
-6.81
7.92
19.11
27.3
33.27
37.65
40.86
43.19
44.87
46.13
47.05
47.62
47.71
47.26
46.33
45.2
44.23
43.73
43.84
44.41
45.1
45.51
45.32
44.34
42.56
40.06
36.93
33.28
29.23
24.9
20.49
16.2
12.2
8.58
5.24
1.98
-1.56
-5.63
-10.41
-15.83
-21.57
-27.17
-32.22
-36.5
-40.12
-43.49
-47.2
-51.84
-57.87
-65.4
-74.01
-82.65
-89.64
-92.99
-90.97
-82.73
-68.76
-50.78
-31.3
-12.83
2.79
14.75
23.19
28.78
32.33
34.51
35.72
36.24
36.25
35.92
35.4
34.81
34.18
33.48
32.73
32.01
31.5
31.4
31.78
32.45
33.03
32.93
31.67
29.04
25.21
20.71
16.15
12.05
8.57
5.46
2.24
-1.62
-6.3
-11.62
-17.01
-21.83
-25.73
-28.78
-31.53
-34.78
-39.33
-45.67
-53.73
-62.73
-71.21
-77.24
-78.91
-74.98
-65.32
-51.07
-34.28
-17.29
-2.02
10.42
19.78
26.44
30.96
33.88
35.6
36.42
36.62
36.48
36.3
36.28
36.5
36.91
37.34
37.66
37.86
38.06
38.47
39.16
39.95
40.31
39.57
37.18
33.02
27.52
21.5
15.88
11.23
7.56
4.32
0.77
-3.7
-9.21
-15.34
-21.43
-26.92
-31.53
-35.49
-39.32
-43.64
-49.04
-55.88
-64.1
-73.09
-81.52
-87.46
-88.83
-84.18
-73.26
-57.34
-38.8
-20.38
-4.22
8.57
18.07
25.01
30.27
34.44
37.76
40.28
41.96
42.9
43.24
43.17
42.79
42.13
41.23
40.08
38.82
37.64
36.76
36.34
36.33
36.44
36.17
34.97
32.43
28.45
23.24
17.3
11.24
5.59
0.64
-3.61
-7.44
-11.33
-15.74
-20.94
-26.93
-33.45
-40.13
-46.6
-52.66
-58.23
-63.44
-68.59
-74.17
-80.79
-88.95
-98.54
-108.51
-116.82
-120.91
-118.6
-108.99
-92.98
-72.99
-52.1
-33.01
-17.28
-5.18
3.96
11.19
17.47
23.43
29.43
35.66
42.16
48.83
55.4
61.52
66.9
71.44
75.3
78.86
82.45
86.19
89.85
92.89
94.61
94.49
92.31
88.29
82.94
76.8
70.25
63.38
56.12
48.36
40.2
31.97
24.17
17.2
11.13
5.65
0.14
-6.13
-13.73
-22.82
-33.06
-43.52
-52.86
-59.5
-62.03
-59.7
-52.66
-42.04
-29.6
-17.2
-6.29
2.43
8.93
13.59
16.86
19.05
20.25
20.5
19.9
18.76
17.48
16.46
15.94
15.83
15.83
15.55
14.77
13.56
12.28
11.3
10.76
10.4
9.59
7.6
3.98
-1.31
-7.86
-14.99
-22.04
-28.52
-34.24
-39.33
-44.16
-49.32
-55.44
-62.98
-71.86
-81.19
-89.29
-94
-93.42
-86.59
-73.93
-57.18
-38.78
-21.1
-5.7
6.92
17.07
25.43
32.51
38.46
43.14
46.42
48.43
49.55
50.28
50.97
51.66
52.09
51.87
50.78
48.95
46.83
44.92
43.49
42.35
40.87
38.28
33.98
27.85
20.29
12.07
4.02
-3.3
-9.66
-15.21
-20.27
-25.32
-30.96
-37.8
-46.35
-56.62
-67.8
-78.21
-85.62
-87.97
-84.13
-74.36
-60.21
-44.02
-28.13
-14.31
-3.5
4.13
8.99
11.74
13.23
14.2
15.21
16.41
17.63
18.51
18.75
18.28
17.22
15.79
14.08
12.08
9.8
7.37
5.17
3.67
3.27
4.12
6.03
8.58
11.27
13.67
15.44
16.35
16.31
15.23
13.11
9.99
5.9
0.95
-4.75
-11.11
-18.13
-25.81
-34.01
-42.2
-49.33
-53.99
-54.77
-50.85
-42.41
-30.6
-17.13
-3.68
8.56
19.1
27.98
35.53
42.2
48.48
54.83
61.64
69.07
76.93
84.68
91.57
96.79
99.74
100.03
97.54
92.35
84.85
75.64
65.52
55.29
45.51
36.39
27.8
19.48
11.3
3.47
-3.51
-9.07
-12.9
-15.17
-16.51
-17.82
-19.89
-23.13
-27.43
-32.31
-37.2
-41.75
-46.03
-50.47
-55.73
-62.4
-70.7
-80.19
-89.68
-97.33
-101.08
-99.21
-90.98
-76.93
-58.79
-38.99
-19.92
-3.28
10.2
20.63
28.57
34.65
39.26
42.66
44.98
46.38
47.1
47.41
47.53
47.53
47.32
46.66
45.39
43.48
41.13
38.75
36.77
35.42
34.63
33.97
32.76
30.39
26.51
21.22
14.98
8.5
2.41
-2.9
-7.42
-11.45
-15.52
-20.22
-26.08
-33.47
-42.37
-52.13
-61.4
-68.23
-70.6
-67.13
-57.67
-43.42
-26.63
-9.8
5.11
17.11
26.19
32.95
38.03
41.85
44.56
46.15
46.7
46.46
45.75
44.92
44.1
43.15
41.75
39.58
36.58
33
29.33
26.07
23.41
21.13
18.66
15.39
10.94
5.35
-0.95
-7.42
-13.6
-19.25
-24.33
-28.98
-33.39
-37.89
-42.95
-49.07
-56.57
-65.18
-73.83
-80.77
-83.99
-82.02
-74.43
-62.18
-47.21
-31.82
-17.97
-6.79
1.43
7.03
10.62
12.91
14.55
16.1
18.04
20.63
23.84
27.35
30.61
33.12
34.57
35.05
35
34.99
35.47
36.51
37.75
38.57
38.34
36.71
33.71
29.7
25.09
20.2
15.1
9.68
3.75
-2.78
-9.81
-17.08
-24.26
-31.09
-37.59
-44.12
-51.32
-59.79
-69.7
-80.42
-90.45
-97.68
-100.05
-96.35
-86.63
-72.23
-55.31
-38.06
-22.09
-8.2
3.48
13.17
21.1
27.43
32.37
36.19
39.23
41.76
43.91
45.57
46.55
46.71
46.04
44.76
43.15
41.52
40.12
39.13
38.62
38.48
38.44
38.07
36.91
34.64
31.18
26.69
21.54
16.08
10.59
5.13
-0.47
-6.55
-13.55
-21.83
-31.55
-42.36
-53.3
-62.75
-68.83
-69.9
-65.16
-54.99
-40.92
-25.12
-9.85
3.22
13.2
19.97
23.94
25.78
26.21
25.84
25.15
24.4
23.6
22.59
21.11
18.98
16.26
13.19
10.14
7.46
5.34
3.76
2.52
1.27
-0.31
-2.54
-5.62
-9.52
-14.05
-18.89
-23.7
-28.36
-33
-38.15
-44.46
-52.36
-61.6
-71.02
-78.67
-82.33
-80.32
-72.12
-58.66
-41.98
-24.55
-8.53
4.77
14.97
22.37
27.53
31.01
33.26
34.67
35.54
36.13
36.51
36.57
36.05
34.74
32.53
29.57
26.29
23.21
20.78
19.15
18.1
17.03
15.21
12
7.15
0.92
-6.07
-13.07
-19.46
-25.03
-30.02
-35.05
-40.99
-48.62
-58.34
-69.77
-81.6
-91.65
-97.43
-96.95
-89.48
-75.84
-58.24
-39.39
-21.66
-6.44
5.95
15.96
24.22
31.2
37.07
41.81
45.39
47.83
49.23
49.68
49.37
48.44
47.12
45.53
43.66
41.37
38.49
35.08
31.43
28.17
25.82
24.65
24.39
24.35
23.66
21.75
18.46
14.09
9.09
3.79
-1.76
-7.78
-14.59
-22.46
-31.6
-42.18
-54.33
-67.89
-82.13
-95.52
-105.84
-110.77
-108.67
-99.22
-83.58
-64.02
-43.13
-23.15
-5.54
9.03
20.48
29.1
35.32
39.76
43.05
45.78
48.26
50.49
52.18
52.97
52.58
50.96
48.38
45.35
42.51
40.43
39.42
39.33
39.62
39.48
38.21
35.47
31.41
26.6
21.69
17.06
12.66
8.08
2.8
-3.53
-10.91
-19.06
-27.47
-35.66
-43.31
-50.34
-56.93
-63.58
-71.06
-80.18
-91.41
-104.43
-117.77
-128.94
-135.03
-133.63
-123.7
-105.94
-82.58
-56.64
-30.99
-7.71
12.13
28.39
41.47
51.96
60.43
67.29
72.78
76.99
79.91
81.62
82.22
81.92
80.94
79.53
77.88
76.11
74.32
72.56
70.78
68.83
66.48
63.53
59.84
55.35
50.13
44.19
37.55
30.21
22.26
13.88
5.36
-2.94
-10.81
-18.25
-25.48
-33.01
-41.46
-51.47
-63.38
-76.88
-90.74
-102.72
-110.1
-110.39
-102.31
-86.27
-64.33
-39.49
-14.78
7.59
26.5
41.76
53.68
62.68
69.08
73.12
75.06
75.25
74.13
72.17
69.83
67.46
65.2
63
60.69
58.1
55.21
52.22
49.42
47.01
44.87
42.5
39.19
34.24
27.31
18.59
8.75
-1.28
-10.68
-18.98
-26.23
-32.97
-40.12
-48.69
-59.45
-72.54
-87.08
-101.15
-112
-116.85
-113.7
-102.04
-83.14
-59.57
-34.45
-10.57
10.29
27.4
40.88
51.32
59.37
65.56
70.2
73.4
75.2
75.63
74.8
72.98
70.46
67.56
64.49
61.37
58.24
55.15
52.14
49.18
46.16
42.87
39.06
34.52
29.14
22.9
15.87
8.19
0.09
-8.12
-16.12
-23.66
-30.66
-37.27
-43.79
-50.67
-58.41
-67.55
-78.49
-91.08
-104.33
-116.22
-123.97
-124.84
-117.09
-100.74
-77.66
-51.02
-24.22
0.05
20.33
36.36
48.64
57.95
64.99
70.33
74.33
77.22
79.08
79.9
79.65
78.36
76.25
73.67
71.03
68.66
66.74
65.2
63.81
62.15
59.77
56.28
51.5
45.58
38.87
31.88
24.91
18.04
11.04
3.56
-4.63
-13.51
-22.78
-32.02
-40.85
-49.12
-56.94
-64.73
-73.13
-82.8
-94.13
-106.69
-119.03
-128.7
-132.89
-129.41
-117.5
-98.31
-74.49
-49.24
-25.38
-4.6
12.61
26.52
37.68
46.48
53.13
57.72
60.44
61.57
61.59
60.93
59.97
58.88
57.69
56.3
54.63
52.67
50.56
48.48
46.58
44.91
43.29
41.38
38.79
35.18
30.31
24.17
16.92
8.94
0.69
-7.37
-14.91
-21.84
-28.34
-34.87
-42.06
-50.64
-61.11
-73.38
-86.44
-98.25
-106.14
-107.6
-101.15
-87
-66.99
-44.01
-21.04
-0.31
17.05
30.91
41.68
49.84
55.72
59.47
61.25
61.31
60.02
57.79
55.04
52.11
49.26
46.66
44.38
42.38
40.57
38.84
37.06
35.19
33.17
30.91
28.25
24.96
20.82
15.69
9.59
2.7
-4.62
-11.97
-19.01
-25.51
-31.47
-37.1
-42.9
-49.53
-57.69
-67.78
-79.56
-91.79
-102.29
-108.45
-107.97
-99.73
-84.26
-63.61
-40.64
-18.16
1.87
18.55
31.84
42.19
50.04
55.8
59.75
62.18
63.44
63.88
63.73
63.09
61.92
60.16
57.86
55.21
52.6
50.41
48.84
47.82
46.97
45.75
43.66
40.42
36.07
30.95
25.53
20.22
15.28
10.65
6.03
0.94
-5.01
-12.03
-19.96
-28.29
-36.44
-43.9
-50.57
-56.87
-63.57
-71.64
-81.71
-93.64
-106.2
-117.16
-123.8
-123.76
-115.84
-100.44
-79.49
-55.77
-32.08
-10.5
7.85
22.75
34.46
43.5
50.33
55.43
59.19
61.95
63.95
65.31
66.07
66.22
65.77
64.72
63.12
61.06
58.73
56.38
54.3
52.66
51.4
50.16
48.41
45.59
41.45
36.12
30.15
24.26
19.03
14.6
10.59
6.3
1.04
-5.49
-13.08
-21.07
-28.68
-35.36
-41.06
-46.19
-51.49
-57.77
-65.69
-75.5
-86.77
-98.27
-107.94
-113.37
-112.49
-104.27
-89.19
-69.17
-46.89
-25.04
-5.56
10.59
23.28
32.89
39.95
44.97
48.38
50.57
51.86
52.46
52.45
51.86
50.68
48.99
46.98
44.96
43.24
42.01
41.2
40.54
39.57
37.91
35.32
31.85
27.7
23.14
18.28
13.09
7.46
1.3
-5.29
-12.09
-18.8
-25.15
-30.99
-36.34
-41.36
-46.4
-52.02
-58.79
-67.08
-76.59
-86.13
-93.68
-96.88
-93.86
-83.99
-68.18
-48.64
-28.08
-8.92
7.32
20.15
29.85
37.01
42.19
45.72
47.81
48.55
48.08
46.62
44.51
42.11
39.76
37.72
36.09
34.85
33.88
33.05
32.27
31.44
30.44
29.09
27.1
24.14
19.99
14.58
8.13
1.07
-6.06
-12.78
-18.86
-24.31
-29.49
-34.89
-41.08
-48.55
-57.54
-67.77
-78.29
-87.39
-92.95
-92.99
-86.35
-73.21
-55.17
-34.79
-14.8
2.68
16.54
26.76
33.95
38.94
42.4
44.72
46.18
46.99
47.4
47.63
47.75
47.69
47.28
46.39
45.13
43.81
42.86
42.57
42.9
43.45
43.58
42.73
40.6
37.28
33.11
28.45
23.45
17.96
11.63
4.11
-4.79
-14.87
-25.62
-36.33
-46.29
-55.04
-62.46
-68.83
-74.76
-81.09
-88.6
-97.61
-107.64
-117.23
-124.16
-126.06
-121.17
-109.1
-91
-69.25
-46.63
-25.5
-7.26
7.79
20.03
30.08
38.41
45.27
50.74
54.9
57.94
60.11
61.71
62.91
63.72
64.03
63.7
62.7
61.17
59.47
58.01
57.05
56.53
56.01
54.83
52.37
48.4
43.14
37.2
31.32
26.01
21.36
16.99
12.33
6.79
0.17
-7.39
-15.39
-23.25
-30.47
-36.86
-42.53
-47.86
-53.45
-59.94
-67.82
-77.2
-87.38
-96.84
-103.38
-104.81
-99.65
-87.75
-70.47
-50.17
-29.47
-10.51
5.48
18.16
27.77
34.84
39.93
43.54
46.11
47.99
49.35
50.21
50.5
50.19
49.32
48.06
46.64
45.29
44.16
43.27
42.53
41.68
40.36
38.16
34.81
30.32
25.05
19.58
14.46
9.93
5.81
1.66
-3.06
-8.61
-14.87
-21.4
-27.68
-33.35
-38.38
-43.15
-48.32
-54.67
-62.76
-72.63
-83.48
-93.62
-100.78
-102.7
-97.94
-86.37
-69.35
-49.26
-28.76
-10.09
5.45
17.5
26.44
32.94
37.67
41.1
43.42
44.72
44.99
44.36
43.09
41.57
40.13
38.99
38.09
37.24
36.25
35.03
33.69
32.38
31.15
29.8
27.99
25.3
21.41
16.29
10.23
3.72
-2.66
-8.51
-13.65
-18.26
-22.79
-27.83
-34.02
-41.84
-51.44
-62.36
-73.43
-82.76
-88.12
-87.6
-80.34
-66.86
-49
-29.31
-10.2
6.67
20.63
31.81
40.76
48.01
53.94
58.74
62.49
65.25
67.05
67.99
68.21
67.88
67.23
66.39
65.47
64.51
63.62
62.93
62.6
62.63
62.71
62.27
60.6
57.2
52.05
45.67
38.97
32.85
27.81
23.75
20.08
16.04
11.02
4.74
-2.63
-10.69
-18.91
-26.81
-34.13
-40.85
-47.3
-54.09
-62.04
-71.79
-83.43
-96.06
-107.81
-116.16
-118.74
-114.09
-102.28
-84.89
-64.48
-43.72
-24.69
-8.5
4.65
15.1
23.34
29.82
34.9
38.87
42.01
44.5
46.36
47.46
47.71
47.12
45.96
44.71
43.86
43.7
44.19
45.04
45.8
46.13
45.86
45.02
43.65
41.73
39.15
35.81
31.78
27.32
22.85
18.68
14.97
11.52
7.95
3.82
-1.12
-6.83
-12.91
-18.88
-24.32
-29.09
-33.35
-37.47
-41.91
-47.06
-53.31
-60.94
-69.99
-79.92
-89.51
-96.79
-99.57
-96.09
-85.8
-69.66
-49.87
-29.18
-10.04
6
18.45
27.67
34.44
39.52
43.5
46.71
49.28
51.26
52.67
53.53
53.8
53.48
52.59
51.21
49.54
47.85
46.42
45.39
44.72
44.23
43.68
42.86
41.63
39.89
37.5
34.28
30.15
25.2
19.74
14.25
9.14
4.59
0.42
-3.78
-8.37
-13.56
-19.18
-24.85
-30.11
-34.65
-38.39
-41.44
-44.19
-47.1
-50.78
-55.84
-62.65
-71.03
-79.96
-87.56
-91.54
-89.91
-81.78
-67.75
-49.74
-30.4
-12.18
3.25
15.21
23.91
29.91
33.87
36.3
37.59
38.07
38.05
37.74
37.25
36.51
35.38
33.78
31.79
29.64
27.63
26.03
24.87
24.02
23.11
21.72
19.53
16.47
12.73
8.64
4.59
0.68
-3.23
-7.49
-12.49
-18.31
-24.68
-31.06
-36.84
-41.64
-45.45
-48.57
-51.56
-55.02
-59.48
-65.18
-71.81
-78.32
-82.98
-83.78
-79.1
-68.44
-52.74
-34.02
-14.83
2.71
17.34
28.78
37.41
43.88
48.73
52.3
54.79
56.33
57.07
57.18
56.82
56.12
55.16
54.04
52.82
51.63
50.54
49.63
48.82
47.94
46.59
44.33
40.77
35.73
29.35
21.98
14.12
6.17
-1.61
-9.18
-16.55
-23.74
-30.67
-37.2
-43.22
-48.73
-53.91
-59.13
-64.95
-71.9
-80.22
-89.5
-98.54
-105.38
-107.87
-104.34
-94.3
-78.7
-59.65
-39.72
-21.11
-5.18
7.7
17.81
25.69
31.84
36.67
40.46
43.49
46.02
48.19
50.04
51.44
52.18
52.06
51.02
49.24
47.07
44.96
43.3
42.26
41.72
41.27
40.36
38.48
35.31
30.88
25.5
19.71
14.06
8.86
4.08
-0.65
-5.9
-12.11
-19.36
-27.29
-35.27
-42.7
-49.25
-55.05
-60.58
-66.52
-73.47
-81.74
-91.19
-100.99
-109.66
-115.2
-115.6
-109.49
-96.77
-78.74
-57.76
-36.53
-17.23
-1.03
11.87
21.97
29.9
36.2
41.18
45.08
48.09
50.44
52.28
53.58
54.18
53.91
52.72
50.76
48.41
46.15
44.4
43.39
43.11
43.23
43.26
42.63
40.89
37.83
33.61
28.65
23.53
18.68
14.26
10.01
5.48
0.2
-6
-12.94
-20.14
-27.04
-33.25
-38.64
-43.46
-48.18
-53.43
-59.84
-67.78
-77.11
-86.86
-95.29
-100.22
-99.67
-92.67
-79.62
-62.21
-42.87
-23.93
-7.01
7.21
18.75
27.98
35.23
40.73
44.58
46.96
48.11
48.32
47.91
47.1
46.06
44.92
43.83
42.94
42.41
42.36
42.8
43.61
44.51
45.03
44.71
43.14
40.14
35.83
30.61
25.07
19.82
15.24
11.4
7.99
4.44
0.23
-4.83
-10.53
-16.3
-21.52
-25.9
-29.56
-33.04
-37.13
-42.49
-49.55
-58.27
-68.04
-77.67
-85.45
-89.49
-88.31
-81.32
-69.14
-53.48
-36.58
-20.43
-6.36
5.21
14.44
21.74
27.46
31.85
35.1
37.45
39.18
40.45
41.32
41.73
41.62
41.05
40.24
39.43
38.85
38.58
38.59
38.87
39.4
40.15
40.98
41.61
41.61
40.6
38.37
35.04
30.94
26.5
22.06
17.71
13.34
8.69
3.5
-2.35
-8.83
-15.77
-22.88
-29.87
-36.44
-42.43
-47.8
-52.7
-57.6
-63.11
-69.89
-78.21
-87.59
-96.62
-103.13
-104.77
-99.91
-88.23
-70.98
-50.57
-29.7
-10.61
5.5
18.42
28.52
36.34
42.29
46.6
49.49
51.23
52.19
52.65
52.74
52.41
51.49
49.86
47.62
45.12
42.89
41.48
41.2
41.95
43.22
44.26
44.26
42.76
39.75
35.7
31.23
26.89
23
19.55
16.41
13.37
10.27
6.95
3.21
-1.13
-6.12
-11.63
-17.41
-23.27
-29.31
-35.95
-43.69
-52.61
-61.96
-70.08
-74.79
-74.19
-67.36
-54.86
-38.51
-20.75
-3.96
10.27
21.3
29.33
34.98
38.94
41.69
43.43
44.23
44.16
43.29
41.82
39.91
37.75
35.48
33.26
31.28
29.75
28.88
28.73
29.17
29.85
30.27
29.94
28.57
26.13
22.82
18.97
14.84
10.52
5.93
0.86
-4.81
-11
-17.43
-23.69
-29.44
-34.52
-38.98
-43.13
-47.5
-52.68
-59.17
-67
-75.46
-82.97
-87.4
-86.72
-79.74
-66.66
-49.07
-29.4
-10.11
7
21.11
32.18
40.64
46.97
51.57
54.76
56.91
58.44
59.75
61.05
62.3
63.18
63.3
62.39
60.5
58
55.57
53.92
53.59
54.85
57.58
61.31
65.42
69.25
72.32
74.34
75.26
75.13
73.97
71.75
68.3
63.5
57.32
49.88
41.43
32.32
22.91
13.47
4.16
-4.98
-13.94
-22.73
-31.3
-39.72
-48.22
-57.27
-67.49
-79.13
-91.71
-103.76
-112.96
-116.94
-114.11
-104.34
-89.13
-71.05
-52.92
-36.93
-24.26
-15.05
-8.78
-4.65
-1.86
0.27
2.27
4.54
7.26
10.31
13.37
15.97
17.79
18.64
18.6
17.9
16.83
15.62
14.41
13.2
11.89
10.29
8.12
5.2
1.43
-3.02
-7.69
-11.97
-15.32
-17.53
-18.85
-20.03
-21.91
-25.12
-29.77
-35.36
-41.06
-46.02
-49.81
-52.51
-54.77
-57.48
-61.49
-67.36
-75.08
-83.88
-92.33
-98.47
-100.25
-96.14
-85.63
-69.58
-49.98
-29.4
-10.31
5.65
17.85
26.52
32.4
36.25
38.71
40.1
40.63
40.51
39.92
39.16
38.45
37.98
37.78
37.8
37.9
37.99
37.99
37.89
37.71
37.42
36.93
36.05
34.61
32.4
29.27
25.09
19.81
13.5
6.41
-0.99
-8.16
-14.56
-19.88
-24.07
-27.46
-30.71
-34.65
-40
-46.99
-54.98
-62.35
-66.78
-65.91
-58.24
-43.73
-23.94
-1.59
20.32
39.36
54.21
64.73
71.62
75.92
78.51
79.92
80.33
79.66
77.77
74.55
70.03
64.3
57.58
50.2
42.62
35.41
29.1
24.03
20.3
17.67
15.73
14.03
12.18
9.92
7.13
3.81
0.03
-4.02
-8.02
-11.66
-14.74
-17.31
-19.68
-22.35
-25.76
-30.12
-35.33
-41
-46.67
-52.04
-57.09
-62.03
-67.29
-73.32
-80.39
-88.5
-97.16
-105.26
-111.12
-112.86
-108.93
-98.83
-83.37
-64.55
-44.95
-26.95
-12.12
-1.01
6.61
11.38
14.04
15.27
15.77
16.17
17.03
18.62
20.86
23.35
25.5
26.8
26.92
25.87
23.93
21.57
19.3
17.49
16.18
15.09
13.65
11.24
7.41
2.03
-4.6
-11.77
-18.5
-23.7
-26.5
-26.52
-24.09
-20.15
-15.99
-12.82
-11.36
-11.69
-13.43
-16.08
-19.44
-23.65
-29.14
-36.38
-45.59
-56.51
-68.27
-79.37
-87.85
-91.72
-89.49
-80.69
-66.22
-48
-28.51
-9.97
6.15
19.31
29.7
37.89
44.45
49.88
54.49
58.5
61.96
64.82
66.94
68.21
68.6
68.26
67.47
66.53
65.67
64.97
64.28
63.36
61.92
59.75
56.68
52.62
47.52
41.3
33.9
25.41
16.09
6.44
-2.92
-11.41
-18.75
-25.01
-30.61
-36.21
-42.49
-50.01
-59.09
-69.6
-80.73
-90.99
-98.32
-100.67
-96.64
-86.07
-70.15
-51.11
-31.46
-13.26
2.34
15.03
25.07
32.94
39.09
43.96
47.99
51.55
54.83
57.74
59.94
61.05
60.93
59.83
58.31
57.09
56.66
57.12
58.12
59.07
59.27
58.24
55.75
51.92
47.13
41.87
36.58
31.49
26.59
21.65
16.39
10.65
4.51
-1.74
-7.78
-13.35
-18.55
-23.76
-29.64
-36.93
-46.2
-57.56
-70.36
-83.08
-93.49
-99.22
-98.48
-90.72
-76.83
-58.97
-39.76
-21.56
-5.8
7.07
17.4
25.83
32.98
39.2
44.61
49.22
53
55.94
58.01
59.25
59.7
59.44
58.61
57.42
56.09
54.82
53.71
52.74
51.77
50.6
49.02
46.82
43.86
40.08
35.49
30.32
24.91
19.64
14.8
10.4
6.13
1.47
-4.11
-10.86
-18.59
-26.7
-34.46
-41.23
-46.79
-51.31
-55.3
-59.4
-64.29
-70.57
-78.63
-88.43
-99.15
-109.09
-115.88
-117.17
-111.41
-98.65
-80.59
-60.03
-39.89
-22.26
-7.86
3.83
13.93
23.46
32.86
41.93
50.11
56.83
61.76
64.9
66.46
66.7
65.86
64.13
61.78
59.2
56.85
55.13
54.23
54.07
54.26
54.28
53.61
51.89
48.93
44.76
39.59
33.77
27.74
21.94
16.71
12.16
8.08
3.99
-0.63
-6.15
-12.62
-19.65
-26.64
-32.99
-38.33
-42.7
-46.54
-50.58
-55.57
-62.12
-70.49
-80.33
-90.56
-99.4
-104.7
-104.45
-97.53
-84.11
-65.78
-45.08
-24.68
-6.71
7.83
18.95
27.32
33.79
39
43.29
46.74
49.31
50.95
51.63
51.37
50.32
48.68
46.76
44.92
43.39
42.31
41.6
41.08
40.45
39.45
37.84
35.5
32.48
28.87
24.87
20.55
15.93
10.94
5.56
-0.14
-5.95
-11.57
-16.78
-21.5
-25.83
-30.1
-34.82
-40.59
-47.85
-56.51
-65.69
-73.68
-78.32
-77.71
-70.98
-58.66
-42.61
-25.28
-8.95
4.97
16.07
24.65
31.36
36.72
41.06
44.46
46.95
48.54
49.28
49.2
48.4
47.05
45.38
43.75
42.49
41.82
41.76
42.06
42.28
41.9
40.5
37.91
34.27
29.92
25.25
20.47
15.61
10.53
5.02
-1.01
-7.52
-14.34
-21.23
-28.02
-34.61
-41.06
-47.63
-54.76
-62.93
-72.35
-82.59
-92.45
-99.99
-103.1
-100.19
-90.81
-75.87
-57.35
-37.74
-19.25
-3.31
9.56
19.55
27.24
33.3
38.24
42.42
45.94
48.83
51.02
52.48
53.18
53.15
52.45
51.21
49.62
47.94
46.44
45.33
44.67
44.27
43.74
42.64
40.56
37.34
33.05
28.01
22.64
17.37
12.5
8.09
4.04
0.01
-4.38
-9.4
-15.07
-21.15
-27.2
-32.74
-37.49
-41.47
-45
-48.64
-53.06
-58.87
-66.36
-75.22
-84.4
-92.1
-96.18
-94.79
-87.06
-73.45
-55.7
-36.24
-17.48
-1.09
12.19
22.47
30.3
36.33
41.01
44.63
47.37
49.38
50.79
51.72
52.23
52.35
52.07
51.49
50.74
50.01
49.48
49.22
49.14
49.03
48.63
47.7
46.12
43.87
41.03
37.66
33.86
29.69
25.24
20.66
16.08
11.66
7.43
3.28
-1.03
-5.74
-10.97
-16.61
-22.39
-27.93
-32.92
-37.29
-41.21
-45.1
-49.54
-55.14
-62.3
-71
-80.45
-89.09
-94.81
-95.55
-90.08
-78.54
-62.46
-44.29
-26.53
-10.96
1.67
11.53
19.26
25.51
30.7
35.02
38.55
41.32
43.37
44.65
45.11
44.74
43.66
42.09
40.36
38.76
37.48
36.6
36.1
35.84
35.57
34.93
33.54
31.13
27.66
23.37
18.74
14.26
10.25
6.69
3.24
-0.61
-5.28
-10.9
-17.19
-23.53
-29.23
-33.8
-37.19
-39.88
-42.71
-46.63
-52.24
-59.56
-67.71
-75.08
-79.64
-79.53
-73.7
-62.28
-46.65
-29.02
-11.78
3.21
15
23.57
29.51
33.6
36.48
38.53
39.89
40.58
40.67
40.24
39.47
38.54
37.63
36.85
36.26
35.84
35.5
35.11
34.57
33.76
32.64
31.18
29.34
27.01
24.03
20.21
15.46
9.86
3.68
-2.68
-8.81
-14.53
-19.94
-25.31
-31.06
-37.56
-45.11
-53.82
-63.42
-73.07
-81.34
-86.4
-86.61
-81.09
-70.2
-55.55
-39.42
-24.04
-10.9
-0.55
7.26
13.08
17.46
20.78
23.32
25.34
27.09
28.71
30.18
31.31
31.86
31.74
31.07
30.23
29.71
29.93
31.13
33.23
35.79
38.17
39.62
39.6
37.89
34.75
30.8
26.81
23.42
20.92
19.14
17.55
15.49
12.49
8.39
3.45
-1.78
-6.69
-10.9
-14.4
-17.61
-21.25
-26.08
-32.69
-41.16
-50.86
-60.47
-68.09
-71.73
-69.93
-62.23
-49.42
-33.34
-16.3
-0.41
13.01
23.52
31.45
37.43
42.1
45.83
48.84
51.21
52.99
54.19
54.78
54.66
53.74
52.05
49.8
47.38
45.23
43.65
42.67
41.98
41.1
39.58
37.24
34.2
30.77
27.36
24.17
21.18
18.16
14.82
10.95
6.52
1.76
-3.05
-7.61
-11.77
-15.65
-19.54
-23.88
-29.01
-35.06
-41.93
-49.3
-56.68
-63.5
-69.19
-73.44
-76.47
-79.13
-82.73
-88.41
-96.4
-105.42
-112.94
-115.98
-112.33
-101.56
-85.14
-65.78
-46.34
-28.84
-14.1
-2.1
7.6
15.35
21.34
25.73
28.85
31.15
33.1
34.95
36.63
37.85
38.33
37.86
36.57
34.82
33.2
32.32
32.67
34.35
37.03
39.94
42.13
42.8
41.63
38.85
35.16
31.32
27.83
24.7
21.5
17.63
12.64
6.47
-0.53
-7.72
-14.45
-20.26
-25.04
-29.05
-32.83
-37.02
-42.28
-49.11
-57.63
-67.33
-77.01
-84.83
-88.76
-87.22
-79.59
-66.61
-50.12
-32.5
-15.94
-1.87
9.29
17.89
24.7
30.51
35.86
40.97
45.8
50.16
53.81
56.58
58.46
59.54
60.05
60.22
60.25
60.28
60.26
60.09
59.59
58.57
56.93
54.61
51.6
47.94
43.65
38.78
33.45
27.86
22.26
16.89
11.85
7.07
2.3
-2.82
-8.53
-14.94
-21.96
-29.33
-36.75
-43.96
-50.79
-57.23
-63.43
-69.76
-76.72
-84.9
-94.75
-106.2
-118.43
-129.76
-137.99
-140.96
-137.36
-127.23
-111.95
-93.87
-75.46
-58.69
-44.56
-33.21
-24.26
-17.09
-11.19
-6.2
-1.83
2.09
5.63
8.71
11.13
12.7
13.35
13.28
13.02
13.21
14.51
17.33
21.75
27.54
34.19
41.04
47.43
52.83
56.85
59.36
60.39
60.12
58.85
56.89
54.57
52.12
49.69
47.27
44.62
41.51
37.67
32.98
27.52
21.5
15.14
8.65
2.1
-4.53
-11.38
-18.76
-27.09
-36.78
-47.95
-60
-71.5
-80.35
-84.42
-82.25
-73.72
-60.04
-43.46
-26.36
-10.69
2.54
13.15
21.54
28.26
33.81
38.42
42.15
44.91
46.56
47.01
46.32
44.75
42.74
40.76
39.28
38.63
38.89
39.87
41.21
42.41
43.02
42.74
41.55
39.66
37.37
34.9
32.25
29.17
25.28
20.22
13.9
6.51
-1.5
-9.56
-17.24
-24.35
-31.07
-37.95
-45.76
-55.25
-66.75
-79.72
-92.61
-103.03
-108.37
-106.66
-97.33
-81.41
-61.17
-39.36
-18.41
0.17
15.8
28.55
38.82
47.02
53.47
58.38
61.94
64.23
65.34
65.4
64.59
63.22
61.63
60.13
58.94
58.2
57.99
58.29
58.98
59.66
59.76
58.6
55.72
51.01
44.89
38.08
31.34
25.1
19.27
13.38
6.81
-0.73
-9.11
-17.83
-26.26
-33.91
-40.71
-47.06
-53.75
-61.72
-71.74
-83.93
-97.47
-110.39
-120
-123.55
-119.19
-106.59
-87.12
-63.34
-38.21
-14.32
6.61
23.8
37.25
47.45
55.16
61.2
66.26
70.7
74.54
77.51
79.28
79.68
78.85
77.2
75.26
73.47
72.12
71.28
70.87
70.7
70.54
70.09
69.03
67.04
63.88
59.43
53.82
47.4
40.69
34.19
28.22
22.79
17.62
12.22
6.11
-0.99
-9.09
-17.86
-26.8
-35.33
-43.04
-49.75
-55.64
-61.23
-67.25
-74.5
-83.54
-94.39
-106.25
-117.44
-125.51
-127.99
-123.1
-110.45
-91.26
-68.08
-43.94
-21.4
-2.01
13.87
26.71
37.27
46.2
53.79
60.17
65.35
69.37
72.29
74.18
75.08
75.08
74.32
73.03
71.5
70.01
68.79
67.96
67.48
67.14
66.58
65.36
63.06
59.45
54.53
48.61
42.17
35.71
29.66
24.16
19.06
13.94
8.33
1.87
-5.53
-13.57
-21.75
-29.51
-36.49
-42.64
-48.28
-54.03
-60.62
-68.74
-78.72
-90.21
-101.98
-111.98
-117.76
-117.22
-109.38
-94.82
-75.5
-54.17
-33.43
-15.11
0.05
12.19
21.85
29.63
35.86
40.68
44.12
46.18
46.99
46.74
45.71
44.25
42.77
41.57
40.83
40.52
40.45
40.38
40.09
39.44
38.31
36.54
33.94
30.29
25.51
19.66
13.02
5.99
-1.07
-7.85
-14.24
-20.28
-26.1
-31.95
-38.12
-44.96
-52.84
-62
-72.35
-83.2
-93.15
-100.26
-102.52
-98.5
-87.93
-71.9
-52.51
-32.26
-13.29
3.15
16.76
27.85
37
44.63
50.87
55.67
58.97
60.85
61.59
61.6
61.21
60.6
59.8
58.72
57.43
56.11
55.08
54.59
54.63
54.83
54.53
53.07
50.02
45.42
39.7
33.55
27.59
22.22
17.4
12.74
7.72
1.86
-5
-12.68
-20.67
-28.38
-35.31
-41.26
-46.51
-51.64
-57.49
-64.84
-74.16
-85.16
-96.74
-106.92
-113.3
-113.76
-107.16
-93.82
-75.48
-54.77
-34.34
-16.23
-1.39
10.2
19.15
26.26
32.12
37.15
41.51
45.25
48.33
50.71
52.35
53.22
53.39
53.01
52.29
51.52
50.92
50.65
50.71
50.96
51.14
50.94
50.09
48.4
45.87
42.58
38.8
34.84
31.02
27.51
24.38
21.47
18.47
15.05
10.89
5.84
-0.02
-6.46
-13.1
-19.55
-25.52
-30.9
-35.75
-40.4
-45.35
-51.3
-58.95
-68.74
-80.41
-92.72
-103.53
-110.34
-111.11
-105.1
-93.17
-77.47
-60.61
-44.76
-31.14
-20.02
-11.12
-4.03
1.71
6.61
11.32
16.45
22.29
28.54
34.37
38.82
41.29
41.87
41.27
40.39
39.99
40.35
41.31
42.51
43.67
44.53
44.88
44.43
42.92
40.18
36.4
32.01
27.57
23.53
19.93
16.4
12.35
7.28
1.02
-6.18
-13.72
-20.9
-27.22
-32.57
-37.24
-41.88
-47.25
-54.01
-62.36
-71.85
-81.21
-88.56
-91.9
-89.68
-81.38
-67.79
-50.76
-32.69
-15.82
-1.69
9.16
16.97
22.44
26.34
29.3
31.65
33.56
35.07
36.17
36.87
37.14
36.94
36.3
35.34
34.28
33.38
32.84
32.68
32.66
32.47
31.72
30.16
27.66
24.24
19.92
14.77
8.94
2.61
-3.91
-10.3
-16.33
-21.91
-27.14
-32.24
-37.54
-43.43
-50.3
-58.4
-67.53
-76.82
-84.68
-89.19
-88.57
-81.96
-69.8
-53.72
-36
-18.85
-3.75
8.72
18.73
26.81
33.4
38.77
42.97
46.04
48.05
49.23
49.77
49.86
49.59
49.01
48.14
47.03
45.8
44.57
43.46
42.51
41.69
40.91
39.96
38.56
36.39
33.2
28.95
23.85
18.35
12.97
8.11
3.88
0.11
-3.6
-7.65
-12.28
-17.53
-23.2
-29
-34.63
-39.86
-44.63
-49
-53.17
-57.48
-62.38
-68.35
-75.74
-84.39
-93.46
-101.25
-105.58
-104.39
-96.57
-82.38
-63.51
-42.48
-21.83
-3.4
11.9
24.03
33.41
40.57
46.01
50.13
53.3
55.76
57.59
58.75
59.11
58.61
57.41
55.81
54.21
52.92
52.13
51.82
51.85
52.02
52.07
51.69
50.56
48.41
45.1
40.74
35.74
30.68
26.14
22.36
19.17
16.01
12.22
7.35
1.46
-4.97
-11.24
-16.82
-21.58
-25.79
-29.96
-34.56
-39.95
-46.39
-54.05
-62.98
-72.8
-82.52
-90.46
-94.57
-93.15
-85.53
-72.45
-55.83
-38.17
-21.7
-7.84
2.98
11.05
17
21.4
24.7
27.18
29.05
30.49
31.65
32.62
33.4
33.92
34.1
33.94
33.59
33.33
33.49
34.3
35.63
37.04
37.84
37.4
35.43
32.1
27.97
23.77
20.04
16.93
14.13
11.04
7.03
1.75
-4.74
-11.95
-19.17
-25.75
-31.33
-35.98
-40.2
-44.79
-50.56
-58.05
-67.17
-76.89
-85.41
-90.46
-90.08
-83.33
-70.67
-53.86
-35.38
-17.6
-2.16
10.24
19.73
26.83
32.21
36.41
39.84
42.75
45.22
47.17
48.43
48.85
48.4
47.24
45.71
44.17
42.96
42.28
42.22
42.71
43.61
44.69
45.59
45.98
45.54
44.17
41.95
39.12
35.9
32.38
28.52
24.17
19.26
13.83
8.07
2.26
-3.45
-9
-14.46
-19.89
-25.27
-30.5
-35.41
-39.91
-44.04
-48.03
-52.31
-57.43
-63.84
-71.69
-80.41
-88.68
-94.52
-95.87
-91.29
-80.51
-64.61
-45.67
-26.16
-8.18
6.98
18.81
27.46
33.42
37.33
39.87
41.7
43.29
44.86
46.31
47.38
47.81
47.53
46.72
45.65
44.56
43.49
42.43
41.36
40.36
39.55
38.95
38.37
37.36
35.41
32.2
27.81
22.68
17.48
12.77
8.78
5.45
2.5
-0.42
-3.56
-7.11
-11.17
-15.73
-20.67
-25.74
-30.59
-34.9
-38.54
-41.72
-45.02
-49.24
-55.11
-62.97
-72.4
-82.17
-90.37
-94.92
-94.17
-87.45
-75.3
-59.3
-41.58
-24.25
-8.91
3.56
12.94
19.58
24.1
27.17
29.39
31.09
32.32
32.88
32.55
31.21
29.02
26.46
24.15
22.7
22.5
23.57
25.56
27.87
29.84
30.98
31.06
30.09
28.26
25.74
22.58
18.72
14.17
9.01
3.44
-2.24
-7.82
-13.19
-18.39
-23.57
-28.93
-34.77
-41.49
-49.45
-58.62
-68.35
-77.22
-83.28
-84.66
-80.25
-70.17
-55.75
-39.13
-22.54
-7.73
4.38
13.6
20.38
25.39
29.35
32.81
36.05
39.11
41.82
43.99
45.51
46.36
46.59
46.24
45.33
44.02
42.64
41.62
41.4
42.09
43.36
44.47
44.63
43.28
40.4
36.49
32.33
28.57
25.48
22.81
19.98
16.34
11.46
5.34
-1.64
-8.82
-15.53
-21.37
-26.18
-30.26
-34.16
-38.65
-44.5
-52.23
-61.76
-72.13
-81.58
-87.85
-88.95
-83.85
-72.91
-57.75
-40.73
-24.09
-9.41
2.69
12.31
19.91
25.93
30.6
33.89
35.68
35.93
34.9
33.19
31.63
31.02
31.71
33.51
35.73
37.58
38.54
38.69
38.44
38.32
38.51
38.75
38.46
37.12
34.58
31.09
27.22
23.51
20.28
17.51
14.92
12.11
8.73
4.6
-0.25
-5.58
-11.06
-16.39
-21.36
-25.98
-30.37
-34.78
-39.47
-44.7
-50.78
-57.99
-66.41
-75.63
-84.58
-91.56
-94.64
-92.25
-83.84
-70.13
-52.97
-34.73
-17.58
-3.01
8.41
16.89
23.08
27.74
31.5
34.78
37.72
40.28
42.29
43.54
43.94
43.54
42.55
41.37
40.37
39.92
40.16
40.99
42.03
42.73
42.48
40.87
37.83
33.62
28.8
23.93
19.33
15
10.6
5.74
0.21
-5.84
-12
-17.78
-22.88
-27.37
-31.61
-36.12
-41.43
-47.89
-55.62
-64.27
-72.93
-80.05
-83.75
-82.31
-74.92
-62.07
-45.51
-27.68
-10.95
3.12
14
21.98
27.74
31.96
35.09
37.36
38.88
39.76
40.12
40.1
39.81
39.4
38.93
38.46
37.96
37.4
36.71
35.91
35.04
34.13
33.18
32.05
30.5
28.24
25.01
20.75
15.66
10.14
4.66
-0.36
-4.74
-8.59
-12.22
-16.09
-20.63
-26.27
-33.33
-41.89
-51.59
-61.44
-69.8
-74.72
-74.48
-68.3
-56.67
-41.3
-24.51
-8.55
5.11
15.91
24.09
30.2
34.78
38.13
40.33
41.47
41.65
41.04
39.86
38.27
36.38
34.27
32.03
29.77
27.66
25.8
24.25
22.88
21.47
19.67
17.17
13.82
9.66
4.99
0.25
-4.12
-7.86
-10.98
-13.85
-16.93
-20.65
-25.12
-30.11
-35.06
-39.39
-42.71
-45.03
-46.81
-48.71
-51.47
-55.69
-61.59
-68.87
-76.62
-83.27
-86.86
-85.53
-78.14
-64.73
-46.66
-26.23
-6
11.93
26.37
37.16
44.85
50.29
54.25
57.23
59.46
60.94
61.62
61.4
60.21
58.03
54.91
51.01
46.64
42.27
38.4
35.47
33.62
32.62
31.86
30.56
28.07
24.12
18.91
13.04
7.24
2.06
-2.34
-6.22
-10.04
-14.22
-18.91
-23.98
-29.1
-33.95
-38.45
-42.71
-47.08
-51.96
-57.75
-64.71
-72.73
-81.14
-88.57
-93.1
-92.84
-86.52
-74.19
-57.23
-38.06
-19.28
-2.9
10.03
19.5
26.03
30.33
32.97
34.38
34.9
34.84
34.54
34.16
33.77
33.27
32.57
31.67
30.7
29.93
29.6
29.8
30.38
31.01
31.27
30.93
29.9
28.34
26.48
24.4
21.98
18.92
14.99
10.14
4.66
-0.99
-6.39
-11.33
-15.87
-20.36
-25.22
-30.91
-37.77
-45.97
-55.28
-64.94
-73.55
-79.28
-80.3
-75.43
-64.63
-49.16
-31.22
-13.29
2.59
15.32
24.8
31.65
36.73
40.8
44.29
47.28
49.7
51.37
52.12
51.9
50.78
48.86
46.26
43.14
39.71
36.41
33.82
32.49
32.74
34.27
36.28
37.68
37.61
35.79
32.71
29.2
26.07
23.71
21.91
20.16
17.88
14.79
10.84
6.19
1.07
-4.34
-9.83
-15.26
-20.48
-25.42
-30.14
-34.88
-40.07
-46.21
-53.76
-62.72
-72.42
-81.32
-87.28
-88.23
-82.88
-71.36
-55.28
-37.19
-19.83
-5.22
5.76
13.38
18.56
22.41
25.73
28.89
31.83
34.29
36.03
36.94
37.13
36.77
36.07
35.08
33.83
32.37
30.93
29.89
29.63
30.3
31.64
33.01
33.6
32.75
30.23
26.35
21.75
17.2
13.19
9.83
6.81
3.53
-0.57
-5.75
-11.86
-18.37
-24.59
-29.96
-34.29
-37.81
-41.08
-44.87
-49.87
-56.49
-64.71
-73.79
-82.28
-88.22
-89.65
-85.28
-74.98
-59.95
-42.38
-24.7
-8.92
3.83
13.38
20.14
24.82
28.04
30.19
31.49
32.09
32.09
31.58
30.62
29.19
27.34
25.21
23.1
21.46
20.78
21.4
23.32
26.17
29.29
31.93
33.49
33.62
32.28
29.62
25.89
21.42
16.57
11.72
7.22
3.33
0.17
-2.43
-4.85
-7.73
-11.81
-17.74
-25.87
-35.8
-46.3
-55.39
-60.78
-60.69
-54.39
-42.58
-27.15
-10.49
5.21
18.53
28.95
36.66
42.13
45.91
48.4
49.86
50.45
50.19
49.08
47.08
44.3
41.02
37.6
34.47
31.94
30.26
29.51
29.68
30.58
31.82
32.83
32.94
31.61
28.66
24.35
19.28
14.22
9.74
6.05
2.9
-0.26
-4.07
-9
-15.05
-21.86
-28.76
-35.05
-40.32
-44.63
-48.55
-53
-58.91
-66.88
-76.75
-87.46
-97.09
-103.33
-104.12
-98.38
-86.4
-69.77
-50.9
-32.24
-15.62
-1.94
8.73
16.84
22.96
27.57
30.98
33.41
34.97
35.78
35.93
35.56
34.82
33.88
32.88
31.88
30.95
30.19
29.72
29.71
30.24
31.21
32.27
32.91
32.62
31.09
28.24
24.33
19.79
15.14
10.87
7.27
4.44
2.16
0.01
-2.51
-5.78
-9.89
-14.62
-19.5
-24.04
-27.91
-31.1
-33.97
-37.08
-41.15
-46.67
-53.72
-61.63
-68.94
-73.6
-73.52
-67.27
-54.72
-37.16
-17.01
2.93
20.32
33.75
42.95
48.38
50.89
51.35
50.42
48.58
46.15
43.33
40.2
36.76
33.06
29.18
25.39
22.01
19.38
17.7
16.97
16.97
17.35
17.7
17.6
16.78
15.11
12.69
9.75
6.57
3.31
-0.05
-3.74
-8
-12.95
-18.48
-24.24
-29.85
-35.05
-39.89
-44.76
-50.27
-57.07
-65.5
-75.23
-85.12
-93.27
-97.51
-96.02
-88.04
-74.26
-56.57
-37.56
-19.64
-4.45
7.48
16.46
23.28
28.67
33.11
36.65
39.2
40.7
41.28
41.27
41.04
40.81
40.62
40.32
39.75
38.93
38.04
37.34
36.98
36.87
36.67
35.95
34.3
31.58
27.9
23.59
19.09
14.79
10.96
7.6
4.55
1.41
-2.21
-6.59
-11.73
-17.41
-23.21
-28.73
-33.69
-38.11
-42.23
-46.53
-51.65
-58.2
-66.57
-76.49
-86.86
-95.67
-100.48
-99.17
-90.79
-75.99
-56.87
-36.25
-16.7
0.15
13.81
24.59
33.15
40.02
45.57
50.04
53.71
56.85
59.61
61.92
63.59
64.38
64.27
63.54
62.7
62.28
62.55
63.46
64.65
65.64
66.01
65.49
64.02
61.61
58.33
54.26
49.5
44.25
38.77
33.33
28.06
22.94
17.75
12.17
5.9
-1.1
-8.73
-16.58
-24.2
-31.19
-37.34
-42.67
-47.44
-52.07
-57.06
-62.94
-70.13
-78.71
-88.21
-97.37
-104.23
-106.59
-102.73
-92.04
-75.46
-55.23
-34.16
-14.82
1.16
13.31
22.03
28.15
32.5
35.74
38.24
40.26
41.97
43.46
44.71
45.62
46.04
45.85
45.12
44.13
43.28
43
43.49
44.6
45.79
46.33
45.51
43
38.93
33.9
28.63
23.63
19.02
14.49
9.5
3.62
-3.25
-10.88
-18.75
-26.31
-33.13
-38.98
-43.9
-48.19
-52.46
-57.44
-63.67
-71.1
-78.74
-84.8
-87.14
-84.1
-75.18
-61.29
-44.36
-26.68
-10.08
4.41
16.58
26.63
34.85
41.39
46.28
49.61
51.66
53.02
54.49
56.95
61.14
67.44
75.61
84.74
93.35
99.68
102.16
99.82
92.48
80.63
65.22
47.3
27.89
7.91
-11.69
-29.85
-45.42
-57.4
-65.3
-69.31
-70.4
-70.09
-70.06
-71.64
-75.38
-80.77
-86.36
-90.03
-89.65
-83.71
-71.81
-54.75
-34.33
-12.71
8.13
26.87
42.88
56.1
66.74
75.02
81.06
84.92
86.69
86.52
84.6
81.02
75.71
68.56
59.56
48.99
37.58
26.41
16.63
9.13
4.19
1.4
-0.18
-1.7
-4.11
-7.92
-13.25
-19.89
-27.57
-35.91
-44.45
-52.7
-60.28
-67.09
-73.47
-79.86
-86.35
-92.14
-95.59
-94.81
-88.74
-77.94
-64.66
-52.02
-42.68
-37.8
-36.74
-37.7
-38.67
-38.15
-35.55
-30.89
-24.53
-16.94
-8.8
-1.01
5.32
9.21
10.17
8.55
5.41
2.22
0.27
0.18
1.7
3.86
5.46
5.55
3.77
0.36
-4.15
-9.11
-14.02
-18.57
-22.68
-26.5
-30.54
-35.49
-41.86
-49.52
-57.21
-62.74
-63.52
-57.74
-45.08
-27.06
-6.5
13.59
30.9
44.51
54.66
62.31
68.41
73.53
77.74
80.79
82.4
82.44
80.96
78.18
74.35
69.63
64.1
57.84
51.02
43.98
37.15
30.81
24.85
18.74
11.58
2.63
-8.27
-20.43
-32.48
-42.93
-50.87
-56.38
-60.52
-64.89
-70.9
-79.13
-88.94
-98.55
-105.43
-107.03
-101.46
-88.17
-68.06
-43.36
-16.99
8.18
30.02
47.49
60.61
70.08
76.83
81.74
85.45
88.42
90.9
92.97
94.48
95.07
94.24
91.53
86.74
79.98
71.75
62.7
53.44
44.47
36.05
28.33
21.37
15.22
9.87
5.32
1.58
-1.32
-3.24
-4.11
-3.99
-3.19
-2.3
-2
-2.68
-4.26
-6.18
-7.7
-8.34
-8.16
-7.8
-8.1
-9.67
-12.46
-15.87
-19.06
-21.48
-23.21
-24.92
-27.61
-32.06
-38.48
-46.43
-54.98
-63.02
-69.65
-74.44
-77.48
-79.41
-81.25
-84.19
-89.19
-96.47
-105.19
-113.28
-117.87
-116.18
-106.45
-88.7
-64.74
-37.62
-10.64
13.59
33.54
48.84
59.94
67.72
73.26
77.65
81.87
86.6
92.08
98.05
103.92
109.02
112.94
115.65
117.46
118.89
120.43
122.41
124.91
127.81
130.71
133.03
134.1
133.22
129.95
124.27
116.65
107.87
98.75
89.75
80.78
71.31
60.57
48.07
33.73
18.01
1.64
-14.65
-30.31
-45.07
-58.79
-71.34
-82.47
-91.88
-99.32
-104.74
-108.28
-110.27
-111.1
-111.26
-111.33
-112.09
-114.47
-119.28
-126.68
-135.72
-144.11
-148.76
-146.67
-136.05
-117.08
-91.9
-63.85
-36.4
-12.16
7.51
22.37
32.9
39.85
44.01
46.26
47.46
48.36
49.46
50.8
52.12
52.97
53.05
52.26
50.85
49.22
47.83
47
46.9
47.43
48.29
49.01
49.03
47.93
45.51
41.95
37.74
33.48
29.66
26.47
23.75
21.08
18.06
14.47
10.42
6.27
2.42
-0.87
-3.65
-6.26
-9.13
-12.54
-16.57
-21.05
-25.67
-30.12
-34.17
-37.76
-40.89
-43.74
-46.62
-50.03
-54.54
-60.43
-67.35
-73.96
-78.13
-77.37
-69.79
-54.87
-33.81
-9.22
15.66
37.93
55.71
68.27
75.84
79.12
78.9
75.9
70.77
64.13
56.5
48.25
39.51
30.24
20.44
10.36
0.71
-7.4
-12.82
-14.67
-12.79
-7.83
-1.06
6
12.1
16.5
19.08
20.19
20.34
20.06
19.68
19.37
19.13
18.8
18.2
17.14
15.58
13.61
11.44
9.24
6.99
4.48
1.36
-2.65
-7.58
-13.17
-19.02
-24.83
-30.55
-36.36
-42.6
-49.64
-57.76
-67.15
-77.7
-88.86
-99.34
-107.17
-110.08
-106.26
-95.05
-77.43
-55.77
-33.05
-12.02
5.58
19.18
28.99
35.57
39.4
40.76
39.85
36.95
32.48
26.91
20.69
14.19
7.69
1.6
-3.57
-7.24
-8.93
-8.46
-6.11
-2.52
1.48
5.15
7.99
9.85
10.86
11.3
11.45
11.45
11.22
10.52
9.08
6.76
3.77
0.57
-2.26
-4.28
-5.48
-6.27
-7.32
-9.17
-11.98
-15.45
-18.98
-22.06
-24.43
-26.27
-28.07
-30.52
-34.37
-40.3
-48.61
-58.89
-69.78
-79.02
-83.95
-82.41
-73.45
-57.77
-37.48
-15.32
6.19
25.4
41.65
54.99
65.81
74.48
81.18
85.88
88.39
88.44
85.76
80.23
72.01
61.57
49.68
37.21
25.06
13.96
4.44
-3.25
-9.14
-13.52
-16.95
-20.08
-23.48
-27.45
-31.9
-36.52
-40.92
-44.9
-48.58
-52.33
-56.57
-61.62
-67.49
-73.87
-80.33
-86.47
-92.07
-97.06
-101.53
-105.61
-109.5
-113.39
-117.24
-120.57
-122.29
-120.82
-114.56
-102.61
-85.27
-64.23
-42.04
-21.36
-4.18
8.67
17.4
22.79
25.68
26.64
25.93
23.68
20.1
15.59
10.81
6.47
3.06
0.81
-0.46
-1.11
-1.43
-1.49
-1.1
0.01
1.87
4.09
5.84
6.15
4.26
0.06
-5.85
-12.37
-18.39
-23.25
-27.12
-30.93
-36.03
-43.74
-54.86
-69.39
-86.42
-104.14
-120.06
-131.48
-136.07
-132.45
-120.57
-101.77
-78.33
-52.83
-27.53
-4.05
16.67
34.3
48.93
61.04
71.25
80.2
88.15
94.86
99.6
101.61
100.49
96.58
90.86
84.53
78.51
73.16
68.5
64.54
61.53
59.86
59.61
60.27
60.77
60.01
57.49
53.52
48.99
44.69
40.69
36.25
30.33
22.32
12.51
2.04
-7.88
-16.68
-24.98
-34.31
-46.3
-61.71
-79.59
-97.3
-111.27
-118.19
-116.18
-105.38
-87.68
-65.88
-42.68
-20.03
0.99
19.91
36.45
50.3
61.18
69
74.12
77.22
79.23
81.08
83.43
86.58
90.42
94.57
98.56
102.06
104.95
107.4
109.67
111.95
114.25
116.33
117.81
118.3
117.46
115.07
111.03
105.28
97.86
88.91
78.77
67.98
57.13
46.65
36.53
26.38
15.62
3.85
-8.81
-21.74
-34.1
-45.29
-55.27
-64.56
-73.94
-84.15
-95.64
-108.6
-122.99
-138.4
-153.77
-167.2
-176.05
-177.57
-169.83
-152.58
-127.48
-97.66
-66.72
-37.82
-12.91
7.28
23.04
35.17
44.59
52.12
58.39
63.85
68.8
73.4
77.69
81.62
85.13
88.16
90.78
93.09
95.26
97.39
99.45
101.26
102.5
102.93
102.36
100.76
98.14
94.48
89.77
84
77.39
70.36
63.46
57.15
51.62
46.58
41.4
35.31
27.73
18.31
7.08
-5.62
-19.07
-32.16
-43.49
-51.9
-57.01
-59.67
-61.76
-65.36
-71.44
-79.09
-85.63
-87.62
-82.41
-69.31
-49.83
-26.94
-3.84
17.04
34.5
48.37
58.99
66.83
72.23
75.47
76.84
76.7
75.53
73.84
72.09
70.58
69.42
68.54
67.78
66.94
65.94
64.76
63.41
61.83
59.95
57.67
54.91
51.66
47.91
43.7
39.02
33.92
28.43
22.73
16.99
11.47
6.4
1.89
-2.09
-5.78
-9.69
-14.56
-21.21
-30.08
-40.76
-51.65
-60.06
-62.93
-58.01
-44.76
-24.76
-1.33
21.53
40.37
53.16
59.47
60.18
56.78
50.76
43.31
35.18
26.88
18.72
10.9
3.55
-3.28
-9.64
-15.65
-21.32
-26.57
-31.05
-34.38
-36.25
-36.65
-35.91
-34.6
-33.33
-32.47
-32.16
-32.33
-32.84
-33.57
-34.44
-35.36
-36.1
-36.33
-35.69
-34
-31.36
-28.21
-25.26
-23.2
-22.56
-23.6
-26.25
-30.23
-35.25
-41.07
-47.66
-55.19
-63.99
-74.32
-86.1
-98.6
-110.14
-118.34
-120.61
-115.02
-101.1
-80.2
-55.1
-29.19
-5.43
14.43
29.95
41.68
50.53
57.23
62.14
65.36
67
67.25
66.45
64.87
62.69
59.88
56.43
52.51
48.53
45.1
42.79
41.82
41.9
42.25
41.93
40.21
36.87
32.24
26.95
21.7
16.94
12.83
9.25
6.04
3
0.03
-2.94
-6.09
-9.62
-13.75
-18.62
-24.23
-30.46
-37.12
-43.91
-50.52
-56.53
-61.47
-65.07
-67.36
-68.94
-70.96
-74.86
-81.74
-91.67
-103.25
-113.74
-119.82
-118.7
-109.13
-91.88
-69.34
-44.74
-21.1
-0.53
16.04
28.59
37.64
43.87
47.99
50.61
52.24
53.24
53.73
53.69
53.02
51.67
49.71
47.32
44.77
42.34
40.29
38.82
38.05
37.9
38.06
38.04
37.23
35.22
31.86
27.42
22.42
17.52
13.24
9.84
7.25
5.09
2.78
-0.28
-4.48
-9.85
-16.02
-22.37
-28.31
-33.51
-38.03
-42.28
-46.93
-52.65
-59.98
-69.01
-79.12
-88.78
-95.77
-97.68
-92.78
-80.68
-62.67
-41.26
-19.46
0.26
16.44
28.71
37.45
43.37
47.06
48.96
49.38
48.62
47.03
45
42.89
40.94
39.24
37.72
36.29
34.89
33.6
32.62
32.12
32.1
32.38
32.59
32.28
31.08
28.84
25.63
21.75
17.62
13.67
10.21
7.24
4.53
1.62
-1.97
-6.58
-12.31
-18.99
-26.43
-34.43
-43
-52.22
-62.16
-72.81
-84.02
-95.65
-107.48
-119.17
-129.93
-138.31
-142.33
-139.97
-130.05
-112.85
-90.25
-65.16
-40.55
-18.51
0.06
15.29
27.73
37.85
45.92
52.11
56.71
60.16
62.87
65.01
66.43
66.83
65.96
63.93
61.23
58.52
56.38
55.09
54.56
54.4
54.11
53.31
51.81
49.62
46.9
43.73
40.08
35.81
30.77
24.95
18.56
11.99
5.66
-0.13
-5.36
-10.26
-15.2
-20.58
-26.68
-33.59
-41.14
-48.97
-56.59
-63.54
-69.57
-74.82
-79.86
-85.55
-92.65
-101.31
-110.65
-118.67
-122.69
-120.27
-110.1
-92.59
-69.81
-44.85
-20.79
0.1
16.77
29.27
38.15
44.16
47.91
50
50.97
51.45
51.93
52.71
53.93
55.69
58.15
61.57
66.21
72.08
78.83
85.78
92.15
97.3
100.83
102.6
102.56
100.67
96.83
90.94
83.04
73.41
62.57
51.23
40.04
29.51
19.94
11.51
4.36
-1.41
-5.8
-8.96
-11.28
-13.22
-15.26
-17.63
-20.45
-23.88
-28.32
-34.55
-43.48
-55.88
-71.89
-90.65
-110.16
-127.5
-139.45
-143.38
-138.13
-124.51
-105.22
-84.05
-64.69
-49.68
-39.8
-34.28
-31.42
-29.52
-27.3
-24.09
-19.64
-13.94
-7.13
0.36
7.72
13.99
18.3
20.32
20.53
20.03
20.17
21.93
25.54
30.4
35.45
39.55
41.96
42.46
41.3
38.92
35.77
32.16
28.3
24.38
20.63
17.31
14.65
12.72
11.38
10.25
8.84
6.63
3.17
-1.93
-9.02
-18.29
-29.67
-42.44
-55.02
-64.98
-69.59
-66.66
-55.38
-36.81
-13.58
10.89
33.44
51.99
65.72
74.86
80.17
82.45
82.36
80.47
77.28
73.27
68.8
64.11
59.31
54.48
49.74
45.27
41.22
37.69
34.69
32.17
30.03
28.08
26
23.35
19.68
14.71
8.55
1.67
-5.25
-11.55
-16.91
-21.37
-25.36
-29.42
-34.03
-39.5
-45.82
-52.76
-59.92
-66.83
-73.09
-78.49
-83.11
-87.28
-91.62
-96.96
-104.11
-113.49
-124.66
-135.98
-144.65
-147.48
-141.96
-127.35
-105.15
-78.7
-51.94
-28.11
-8.87
5.72
16.62
25.11
32.28
38.99
45.95
53.63
62.16
71.08
79.29
85.37
88.13
87.17
83.17
77.61
72.23
68.49
67.04
67.71
69.71
72.05
73.78
74.27
73.15
70.18
65.22
58.28
49.7
40.2
30.82
22.62
16.28
11.82
8.6
5.61
1.9
-3.01
-9.03
-15.6
-22.01
-27.77
-32.74
-37.17
-41.64
-46.84
-53.48
-61.95
-72.05
-82.63
-91.58
-96.2
-94.06
-83.93
-66.4
-43.84
-19.59
3.1
21.97
36.17
45.99
52.31
56.1
58.16
59.18
59.75
60.32
61.14
62.08
62.77
62.7
61.5
59.1
55.83
52.23
48.94
46.5
45.2
44.93
45.23
45.37
44.55
42.21
38.13
32.6
26.26
19.92
14.18
9.31
5.06
0.85
-4.03
-10.14
-17.64
-26.24
-35.35
-44.25
-52.3
-59.18
-64.92
-69.88
-74.74
-80.3
-87.38
-96.35
-106.81
-117.3
-125.4
-128.4
-124.13
-111.9
-92.81
-69.47
-45.13
-22.68
-3.91
10.66
21.44
29.35
35.19
39.58
42.85
45.23
46.87
47.95
48.62
48.96
49.01
48.76
48.2
47.46
46.79
46.52
46.97
48.21
49.88
51.32
51.68
50.34
47.13
42.46
37.18
32.22
28.21
25.16
22.45
19.11
14.26
7.48
-0.95
-10.21
-19.32
-27.51
-34.51
-40.68
-46.83
-54.02
-63.22
-74.91
-88.69
-103.02
-115.39
-122.87
-123.04
-114.88
-99.25
-78.58
-56.11
-34.85
-16.83
-2.86
7.23
14.12
18.6
21.33
22.85
23.57
23.78
23.64
23.18
22.35
21
19.02
16.36
13.09
9.45
5.74
2.23
-0.98
-4.04
-7.25
-10.78
-14.51
-17.99
-20.57
-21.65
-20.92
-18.34
-14.02
-8.18
-1.1
6.65
14.18
20.37
24.2
25.22
23.76
20.78
17.48
14.69
12.63
10.81
8.3
4.1
-2.65
-12.33
-24.6
-38.12
-50.62
-59.2
-61.18
-55.01
-40.95
-21.12
1.24
22.83
41.31
55.7
66.22
73.65
78.72
81.77
82.88
82.08
79.68
76.27
72.5
68.9
65.61
62.4
58.89
54.79
50.17
45.5
41.46
38.63
37.22
36.89
36.85
36.19
34.2
30.62
25.73
20.13
14.4
8.94
3.81
-1.27
-6.64
-12.61
-19.38
-27.05
-35.57
-44.69
-53.75
-61.77
-67.63
-70.65
-71.08
-70.27
-70.39
-73.56
-80.94
-92.03
-104.6
-115.33
-120.83
-118.72
-108.27
-90.44
-67.43
-41.96
-16.6
6.67
26.54
42.43
54.22
62.21
66.98
69.33
70.06
69.91
69.29
68.34
67
65.2
63.03
60.79
58.86
57.62
57.2
57.51
58.15
58.55
58.11
56.37
53.15
48.54
42.92
36.81
30.66
24.69
18.83
12.7
5.89
-1.86
-10.45
-19.45
-28.28
-36.46
-43.83
-50.65
-57.54
-65.33
-74.74
-86.08
-98.86
-111.62
-122.09
-127.72
-126.42
-117.38
-101.39
-80.62
-58
-36.24
-17.22
-1.61
10.85
20.95
29.51
37.02
43.65
49.3
53.76
56.83
58.4
58.45
57.15
54.74
51.68
48.49
45.76
44.03
43.59
44.49
46.41
48.84
51.12
52.7
53.17
52.36
50.29
47.12
43.05
38.35
33.28
28.12
23.03
17.98
12.73
6.93
0.27
-7.31
-15.48
-23.64
-31.1
-37.41
-42.56
-46.95
-51.32
-56.57
-63.54
-72.8
-84.37
-97.36
-109.95
-119.58
-123.64
-120.36
-109.52
-92.6
-72.35
-51.83
-33.46
-18.48
-6.92
1.91
8.95
14.93
20.33
25.41
30.33
35.22
40.01
44.58
48.65
51.98
54.49
56.31
57.77
59.25
60.98
62.92
64.87
66.49
67.45
67.54
66.58
64.44
61.09
56.65
51.45
46.01
40.85
36.23
32.1
28.03
23.52
18.1
11.6
4.11
-4.1
-12.68
-21.37
-29.81
-37.77
-45.1
-51.91
-58.6
-65.8
-74.06
-83.39
-92.91
-100.82
-104.8
-102.7
-93.38
-77.25
-56.22
-33.08
-10.69
8.89
24.74
36.99
46.34
53.54
59.08
63.17
65.93
67.47
68.02
67.84
67.1
65.9
64.23
62.12
59.65
56.99
54.3
51.66
49.13
46.7
44.4
42.31
40.48
38.81
36.88
33.99
29.41
22.65
13.79
3.59
-6.79
-16.21
-24.07
-30.46
-36.08
-41.88
-48.69
-57.03
-67.07
-78.54
-90.53
-101.39
-108.83
-110.5
-104.79
-91.54
-72.35
-50.01
-27.6
-7.48
9.25
22.63
33.34
42.12
49.44
55.45
60.2
63.77
66.33
68.01
68.89
68.96
68.26
66.88
65.03
63
61.04
59.17
57.24
54.91
51.82
47.75
42.6
36.48
29.56
22.03
14.04
5.67
-3.02
-12.04
-21.4
-31.15
-41.24
-51.51
-61.63
-71.2
-79.95
-87.85
-95.31
-103.05
-111.72
-121.48
-131.49
-139.9
-144.16
-141.91
-131.8
-114.13
-90.8
-64.74
-38.99
-15.93
3.13
17.77
28.1
34.43
37.03
36.34
33.17
28.85
25.07
23.45
24.98
29.7
36.61
44.12
50.74
55.56
58.51
60.12
60.92
61.07
60.11
57.35
52.24
44.85
35.92
26.7
18.41
11.92
7.51
4.83
3.12
1.54
-0.56
-3.4
-6.81
-10.39
-13.87
-17.28
-21.09
-26.1
-33.09
-42.53
-54.17
-66.89
-78.74
-87.33
-90.41
-86.6
-75.95
-59.92
-41.01
-21.87
-4.59
9.84
21.45
30.84
38.69
45.43
51.01
55.18
57.59
57.99
56.39
53.11
48.87
44.57
41.05
38.75
37.51
36.65
35.34
32.94
29.36
24.93
20.2
15.55
11.06
6.5
1.62
-3.67
-9.28
-14.98
-20.59
-26.13
-31.69
-37.4
-43.28
-49.26
-55.32
-61.58
-68.28
-75.54
-82.97
-89.51
-93.46
-93.03
-87.01
-75.32
-59.12
-40.51
-21.85
-5.03
8.86
19.57
27.5
33.26
37.44
40.51
42.78
44.43
45.59
46.32
46.65
46.59
46.15
45.34
44.17
42.71
41.12
39.64
38.46
37.61
36.9
35.86
33.9
30.58
25.72
19.54
12.61
5.64
-0.71
-6.12
-10.82
-15.54
-21.4
-29.56
-40.6
-54.16
-68.68
-81.72
-90.55
-93.08
-88.45
-77.26
-61.3
-42.93
-24.37
-7.33
7.23
19.01
28.17
35.18
40.63
45.03
48.74
51.86
54.32
56
56.84
56.84
56.09
54.62
52.45
49.67
46.53
43.49
41
39.32
38.3
37.36
35.7
32.55
27.56
20.83
13
4.95
-2.48
-8.83
-14.14
-19.01
-24.3
-30.92
-39.46
-50.02
-62.04
-74.29
-84.92
-91.75
-92.79
-86.87
-74.11
-56.13
-35.54
-15.21
2.67
17.1
28.23
36.91
44.06
50.26
55.62
60.02
63.32
65.55
66.84
67.44
67.48
66.98
65.89
64.17
61.94
59.56
57.48
56.16
55.79
56.13
56.61
56.47
55.08
52.15
47.8
42.44
36.59
30.7
25.03
19.65
14.46
9.2
3.54
-2.77
-9.78
-17.26
-24.68
-31.51
-37.41
-42.42
-46.96
-51.68
-57.22
-64.07
-72.44
-82.18
-92.56
-102.08
-108.66
-110.06
-104.68
-92.28
-74.25
-53.22
-32.22
-13.72
1
11.86
19.54
24.94
28.79
31.55
33.48
34.79
35.61
36.02
36.03
35.62
34.81
33.7
32.46
31.28
30.31
29.63
29.22
28.99
28.79
28.42
27.62
26.16
23.82
20.36
15.66
9.71
2.73
-4.83
-12.32
-19.09
-24.66
-28.95
-32.28
-35.3
-38.78
-43.45
-49.75
-57.6
-66.21
-74.07
-79.14
-79.44
-73.7
-61.91
-45.46
-26.68
-8.11
8.29
21.57
31.74
39.39
45.2
49.64
52.87
54.89
55.68
55.37
54.21
52.54
50.63
48.61
46.42
43.91
40.97
37.67
34.25
31.03
28.29
26.05
24.06
21.76
18.52
13.78
7.26
-0.88
-10.12
-19.61
-28.51
-36.17
-42.33
-47.18
-51.25
-55.37
-60.43
-67.16
-75.79
-85.7
-95.32
-102.37
-104.5
-100.08
-88.87
-72.1
-52.06
-31.34
-12.07
4.48
17.95
28.52
36.63
42.79
47.44
50.95
53.63
55.62
56.93
57.43
56.99
55.63
53.52
51.11
48.97
47.64
47.48
48.47
50.19
51.94
52.9
52.43
50.28
46.66
42.12
37.33
32.91
29.12
25.9
22.85
19.3
14.64
8.45
0.75
-8
-17
-25.43
-32.77
-38.95
-44.47
-50.18
-57.05
-65.84
-76.74
-89.04
-101.11
-110.56
-114.87
-112.16
-101.88
-85.05
-64
-41.52
-20.11
-1.32
14.27
26.84
36.82
44.68
50.74
55.22
58.38
60.48
61.75
62.32
62.19
61.27
59.48
56.89
53.75
50.5
47.6
45.36
43.88
42.97
42.25
41.3
39.78
37.57
34.68
31.22
27.33
23.17
18.84
14.38
9.75
4.85
-0.54
-6.6
-13.45
-21.07
-29.19
-37.39
-45.13
-51.98
-57.76
-62.69
-67.44
-72.91
-79.99
-89.08
-99.72
-110.37
-118.69
-122.15
-118.81
-108.05
-90.8
-69.25
-46.2
-24.23
-5.19
10.08
21.61
29.99
35.97
40.22
43.24
45.35
46.74
47.58
48.05
48.29
48.37
48.23
47.75
46.83
45.61
44.36
43.42
42.95
42.82
42.62
41.82
40.1
37.41
33.98
30.18
26.27
22.27
17.99
13.2
7.78
1.82
-4.4
-10.49
-16.18
-21.4
-26.43
-31.88
-38.49
-46.89
-57.24
-68.88
-80.24
-89.03
-92.88
-90.06
-80.1
-64
-43.9
-22.4
-1.81
16.36
31.46
43.56
53.02
60.32
65.8
69.72
72.26
73.55
73.74
73.01
71.53
69.49
66.98
64.14
61.16
58.38
56.1
54.52
53.47
52.39
50.5
47.12
42.02
35.5
28.35
21.39
15.24
10.04
5.49
1.04
-3.9
-9.73
-16.51
-24
-31.64
-38.89
-45.34
-50.91
-55.94
-61.12
-67.28
-75.17
-85.06
-96.47
-107.95
-117.3
-122.05
-120.12
-110.64
-94.25
-72.94
-49.46
-26.48
-5.94
11.26
25.12
36.16
45.02
52.23
58.07
62.64
66.01
68.26
69.6
70.23
70.34
69.97
69.15
67.9
66.4
64.96
63.86
63.27
63.02
62.72
61.85
59.94
56.72
52.21
46.62
40.29
33.59
26.87
20.37
14.18
8.25
2.38
-3.68
-10.12
-16.99
-24.14
-31.23
-37.93
-44.04
-49.62
-55.16
-61.41
-69.27
-79.31
-91.35
-104.11
-115.35
-122.33
-122.73
-115.44
-100.98
-81.32
-59.2
-37.25
-17.42
-0.68
12.71
22.97
30.47
35.75
39.44
42.21
44.53
46.53
47.96
48.4
47.55
45.5
42.75
39.99
37.77
36.3
35.35
34.47
33.22
31.39
28.96
26.08
22.89
19.48
15.84
11.94
7.79
3.37
-1.35
-6.45
-11.98
-17.87
-23.89
-29.67
-34.89
-39.45
-43.58
-47.84
-53
-59.69
-68.09
-77.56
-86.58
-92.96
-94.51
-89.65
-78.08
-60.92
-40.36
-19.07
0.61
17.15
30.02
39.46
46.13
50.74
53.77
55.49
55.93
55.15
53.29
50.65
47.66
44.7
42.01
39.66
37.55
35.62
33.87
32.38
31.2
30.25
29.3
28.03
26.16
23.54
20.2
16.3
12
7.42
2.61
-2.48
-7.87
-13.61
-19.69
-26.11
-32.91
-40.29
-48.58
-58.17
-69.18
-81.05
-92.29
-100.66
-103.77
-99.99
-89.04
-72.29
-52.16
-31.39
-12.13
4.43
18
28.81
37.21
43.5
48
51.11
53.26
54.84
55.98
56.57
56.37
55.17
53.04
50.31
47.57
45.4
44.16
43.9
44.26
44.65
44.38
42.91
40.04
35.94
31.04
25.93
20.99
16.31
11.63
6.51
0.54
-6.41
-14.15
-22.18
-29.94
-37
-43.27
-49.05
-55
-61.88
-70.38
-80.62
-91.98
-102.88
-111.09
-114.3
-110.89
-100.48
-84.15
-64.09
-42.89
-22.82
-5.32
9.02
20.38
29.2
36.06
41.41
45.61
48.91
51.41
53.12
53.95
53.83
52.8
51.08
49.02
47.07
45.62
44.89
44.81
45.05
45.12
44.46
42.71
39.75
35.73
31
25.9
20.6
15.07
9.1
2.49
-4.78
-12.47
-20.14
-27.33
-33.76
-39.4
-44.56
-49.84
-55.98
-63.6
-72.93
-83.43
-93.66
-101.43
-104.43
-101.03
-90.97
-75.49
-56.91
-37.8
-20.1
-4.77
8.14
19.01
28.17
35.66
41.33
45.09
47.13
47.92
48.03
47.95
47.89
47.81
47.56
47
46.14
45.08
44.05
43.22
42.64
42.19
41.55
40.31
38.04
34.45
29.48
23.3
16.33
9.11
2.14
-4.25
-9.98
-15.22
-20.36
-25.9
-32.5
-40.71
-50.88
-62.73
-75.17
-86.29
-93.76
-95.44
-90.21
-78.27
-61.16
-41.18
-20.66
-1.41
15.59
30.03
42.03
51.78
59.51
65.4
69.63
72.36
73.77
74.08
73.51
72.34
70.77
68.89
66.66
63.99
60.88
57.52
54.19
51.15
48.4
45.51
41.78
36.51
29.35
20.57
10.96
1.54
-6.95
-14.25
-20.79
-27.28
-34.39
-42.29
-50.5
-58.01
-63.71
-66.85
-67.4
-66.04
-64.06
-62.93
-64.06
-68.43
-76.37
-87.3
-99.6
-110.75
-117.83
-118.36
-111.05
-96.31
-76.08
-53.17
-30.28
-9.35
8.67
23.68
35.95
45.82
53.63
59.7
64.46
68.27
71.36
73.72
75.13
75.42
74.61
73.02
71.2
69.63
68.58
68.01
67.69
67.33
66.74
65.84
64.57
62.81
60.33
56.88
52.37
46.93
40.95
34.93
29.2
23.81
18.38
12.35
5.22
-3.17
-12.58
-22.43
-32.07
-40.98
-48.97
-56.15
-62.89
-69.74
-77.24
-85.87
-95.75
-106.34
-116.24
-123.31
-125.12
-119.84
-107.07
-88.11
-65.69
-43
-22.57
-5.59
8.09
19.42
29.17
37.54
44.08
48.1
49.18
47.39
43.24
37.59
31.62
26.64
23.94
24.42
28.2
34.43
41.44
47.43
51.12
52.24
51.37
49.44
46.99
43.88
39.46
33.11
24.75
14.98
4.76
-5.1
-14.33
-23.28
-32.58
-42.65
-53.38
-64.21
-74.47
-83.86
-92.61
-101.21
-109.91
-118.2
-124.7
-127.5
-124.82
-115.78
-100.72
-81.19
-59.43
-37.81
-18.25
-1.99
10.4
18.91
23.98
26.45
27.34
27.77
28.63
30.39
32.94
35.68
37.79
38.57
37.77
35.76
33.57
32.44
33.49
37.08
42.58
48.44
52.76
54.03
51.73
46.63
40.31
34.47
30.17
27.34
24.92
21.34
15.1
5.38
-7.79
-23.47
-40.01
-55.29
-67.11
-73.61
-73.74
-67.55
-56.17
-41.56
-25.93
-11.21
1.38
11.43
19.21
25.35
30.48
35.01
39.06
42.58
45.57
48.13
50.58
53.37
56.89
61.37
66.78
72.82
78.93
84.35
88.26
90
89.23
86.07
80.96
74.43
66.88
58.34
48.68
37.81
25.93
13.58
1.41
-10.09
-20.77
-30.84
-40.61
-50.29
-59.95
-69.63
-79.48
-89.61
-99.79
-109.07
-115.68
-117.5
-112.84
-101.21
-83.66
-62.48
-40.38
-19.68
-1.75
12.97
24.67
33.81
40.83
46.17
50.27
53.55
56.33
58.76
60.79
62.29
63.17
63.5
63.47
63.32
63.28
63.45
63.78
64.14
64.26
63.83
62.52
60.07
56.34
51.32
45.15
38.08
30.43
22.55
14.76
7.31
0.3
-6.39
-13
-19.76
-26.76
-33.85
-40.72
-47.09
-52.92
-58.54
-64.55
-71.68
-80.4
-90.66
-101.66
-111.8
-119.02
-121.33
-117.48
-107.32
-91.94
-73.26
-53.47
-34.43
-17.33
-2.61
9.75
19.99
28.44
35.29
40.65
44.56
46.95
47.79
47.14
45.18
42.33
39.06
35.86
33.07
30.91
29.39
28.35
27.56
26.7
25.5
23.79
21.47
18.51
14.83
10.39
5.19
-0.62
-6.71
-12.62
-17.89
-22.3
-25.9
-29.03
-32.23
-36.11
-41.26
-48.25
-57.31
-68.01
-78.98
-87.95
-92.29
-89.86
-79.89
-63.32
-42.59
-20.73
-0.45
16.45
29.38
38.63
44.89
48.98
51.62
53.35
54.56
55.44
56
56.15
55.76
54.77
53.17
51.14
48.9
46.78
45.03
43.71
42.66
41.47
39.6
36.62
32.44
27.3
21.76
16.34
11.39
6.87
2.45
-2.38
-7.97
-14.4
-21.45
-28.68
-35.66
-42.16
-48.16
-53.94
-59.98
-66.88
-75.11
-84.73
-95
-104.4
-110.78
-112.05
-106.95
-95.54
-79.32
-60.64
-42.02
-25.26
-11.26
-0.01
8.93
16.07
21.78
26.36
30.06
33.23
36.23
39.27
42.37
45.33
47.76
49.43
50.26
50.46
50.43
50.56
51.1
52.12
53.5
55.02
56.44
57.42
57.64
56.79
54.68
51.38
47.21
42.6
37.83
32.88
27.4
20.92
13.21
4.45
-4.7
-13.42
-21
-27.18
-32.25
-36.88
-41.96
-48.33
-56.58
-66.96
-79.16
-92.18
-104.34
-113.43
-117.29
-114.51
-104.97
-89.96
-71.76
-52.93
-35.52
-20.63
-8.47
1.38
9.49
16.32
22.18
27.3
31.79
35.71
39.02
41.56
43.17
43.78
43.53
42.8
42.07
41.85
42.43
43.81
45.61
47.19
47.79
46.87
44.18
39.94
34.69
29.11
23.73
18.81
14.24
9.61
4.48
-1.48
-8.39
-16.07
-24.15
-32.19
-39.81
-46.84
-53.38
-59.91
-67.12
-75.73
-86.06
-97.67
-109.19
-118.47
-123.18
-121.57
-113.03
-98.37
-79.56
-59.04
-39.05
-21.17
-6.14
5.96
15.44
22.7
28.09
31.92
34.4
35.76
36.19
35.89
35.07
33.96
32.78
31.74
31
30.63
30.63
31
31.75
32.9
34.46
36.26
37.93
38.93
38.64
36.59
32.65
27.06
20.36
13.2
6.04
-1.01
-8.16
-15.89
-24.7
-34.95
-46.79
-59.93
-73.54
-86.16
-95.81
-100.44
-98.49
-89.45
-74.15
-54.46
-32.85
-11.65
7.42
23.46
36.27
46.16
53.62
59.19
63.35
66.41
68.52
69.75
70.15
69.89
69.12
67.98
66.53
64.75
62.71
60.63
58.87
57.65
56.89
56.08
54.44
51.31
46.49
40.36
33.69
27.3
21.62
16.54
11.5
5.85
-0.83
-8.5
-16.67
-24.64
-31.8
-37.88
-43.08
-47.98
-53.4
-60.08
-68.58
-79.02
-90.98
-103.25
-113.9
-120.45
-120.54
-112.63
-96.7
-74.35
-48.42
-22.11
1.9
22.12
38.25
50.89
60.88
68.9
75.26
80.03
83.2
84.83
85.1
84.27
82.61
80.34
77.61
74.61
71.58
68.83
66.57
64.92
63.77
62.83
61.71
60.05
57.54
54
49.35
43.69
37.27
30.47
23.73
17.34
11.45
5.94
0.56
-4.97
-10.88
-17.22
-23.87
-30.6
-37.09
-43.15
-48.76
-54.21
-60.07
-67.08
-75.92
-86.86
-99.46
-112.34
-123.27
-129.66
-129.25
-120.86
-104.93
-83.32
-58.88
-34.47
-12.32
6.38
21.38
33.04
41.97
48.78
54.03
58.22
61.7
64.59
66.8
68.14
68.37
67.44
65.52
63.01
60.44
58.33
57.06
56.7
56.94
57.17
56.72
55.07
52.06
47.95
43.2
38.26
33.32
28.3
22.94
16.99
10.35
3.15
-4.35
-11.81
-18.95
-25.63
-31.94
-38.23
-45.17
-53.41
-63.25
-74.07
-84.2
-91.17
-92.46
-86.42
-72.93
-53.47
-30.49
-6.6
16.2
36.75
54.49
69.15
80.46
88.27
92.7
94.26
93.79
92.08
89.65
86.55
82.56
77.4
71.01
63.72
56.22
49.33
43.76
39.78
37.1
34.98
32.46
28.82
23.85
17.89
11.61
5.59
0.03
-5.35
-11.05
-17.49
-24.7
-32.32
-39.74
-46.47
-52.29
-57.32
-61.96
-66.73
-72.24
-79.14
-87.98
-98.91
-111.28
-123.42
-132.81
-136.84
-133.65
-122.89
-105.86
-84.99
-63.05
-42.24
-23.87
-8.33
4.57
15.21
23.98
31.2
37.15
42.02
45.91
48.83
50.75
51.71
51.84
51.36
50.49
49.44
48.35
47.32
46.43
45.7
45.01
44.08
42.51
39.89
36.1
31.32
26.09
21.03
16.54
12.54
8.56
3.94
-1.79
-8.69
-16.37
-24.24
-31.76
-38.72
-45.23
-51.67
-58.57
-66.52
-76.11
-87.67
-100.94
-114.81
-127.31
-136.02
-138.71
-133.9
-121.31
-101.94
-77.75
-51.27
-25.02
-1.07
19.31
35.65
48.21
57.61
64.48
69.21
71.98
73.02
72.72
71.76
70.89
70.57
70.83
71.28
71.33
70.48
68.6
65.85
62.67
59.45
56.45
53.62
50.74
47.47
43.52
38.76
33.19
26.9
19.95
12.38
4.29
-4.2
-12.81
-21.31
-29.55
-37.73
-46.46
-56.53
-68.49
-82.09
-96
-107.91
-115.26
-116.12
-109.88
-97.54
-81.27
-63.63
-46.77
-31.95
-19.49
-9.12
-0.32
7.39
14.29
20.42
25.69
29.9
32.84
34.48
34.9
34.35
33.13
31.52
29.77
28.07
26.65
25.66
25.09
24.75
24.16
22.73
19.91
