27.99
23.43
17.72
11.43
5.4
0.32
-3.55
-6.68
-10.04
-14.67
-21.31
-30.01
-40.12
-50.58
-60.32
-68.57
-75.08
-80.11
-84.3
-88.47
-93.46
-99.83
-107.52
-115.62
-122.33
-125.36
-122.63
-113.06
-97.15
-76.93
-55.39
-35.46
-19.21
-7.31
0.73
6.13
10.2
13.92
17.8
21.88
25.92
29.59
32.57
34.71
36.08
36.84
37.18
37.19
36.85
36.07
34.81
33.21
31.53
30.16
29.39
29.33
29.83
30.53
30.95
30.69
29.51
27.34
24.29
20.53
16.29
11.87
7.6
3.87
0.94
-1.24
-3.18
-5.9
-10.65
-18.49
-29.84
-44.01
-59.13
-72.49
-81.23
-83.25
-77.88
-66.17
-50.45
-33.54
-17.88
-4.89
5.14
12.78
18.93
24.41
29.67
34.77
39.37
42.97
45
45.06
43.12
39.52
35.01
30.56
27.16
25.59
26.26
29.1
33.54
38.64
43.3
46.51
47.6
46.38
43.08
38.18
32.16
25.32
17.79
9.53
0.68
-8.39
-17.04
-24.56
-30.45
-34.66
-37.67
-40.33
-43.6
-48.3
-54.85
-63.04
-72.02
-80.21
-85.64
-86.47
-81.6
-71.25
-56.91
-40.88
-25.43
-12.06
-1.2
7.65
15.29
22.5
29.61
36.66
43.55
50.1
56.13
61.3
65.23
67.52
68.01
66.87
64.65
62.11
59.99
58.88
58.98
60.06
61.48
62.34
61.77
59.25
54.81
49.08
43.01
37.41
32.74
28.83
25.11
20.85
15.58
9.23
2.13
-5.14
-12.03
-18.22
-23.7
-28.85
-34.32
-40.87
-49.09
-59
-69.75
-79.61
-86.33
-87.84
-82.99
-72.06
-56.72
-39.43
-22.62
-8.02
3.74
12.92
20.31
26.76
32.99
39.31
45.76
52.11
57.97
62.94
66.73
69.29
70.79
71.59
72.1
72.59
73.23
73.99
74.78
75.39
75.65
75.32
74.22
72.29
69.63
66.55
63.5
60.97
59.24
58.3
57.74
56.89
55.07
51.91
47.58
42.77
38.49
35.57
34.38
34.61
35.38
35.6
34.25
30.63
24.6
16.66
7.94
0.05
-5.33
-7.01
-4.76
0.52
7.2
13.51
18.14
20.66
21.4
21.26
21.33
22.48
25.13
29.08
33.41
36.76
37.78
35.69
30.58
23.38
15.36
7.62
0.77
-5.09
-10.09
-14.4
-18.15
-21.63
-25.42
-30.37
-37.3
-46.49
-57.45
-68.88
-79.15
-86.84
-91.24
-92.61
-91.96
-90.62
-89.78
-90.14
-91.91
-94.95
-99.11
-104.41
-111.15
-119.63
-129.77
-140.69
-150.59
-157.06
-157.8
-151.53
-138.51
-120.66
-100.8
-81.74
-65.36
-52.29
-42.03
-33.46
-25.47
-17.32
-8.8
-0.1
8.35
16.09
22.88
28.69
33.75
38.32
42.65
46.85
50.96
54.99
58.95
62.9
66.79
70.42
73.42
75.35
75.81
74.69
72.11
68.39
63.9
58.78
52.96
46.18
38.21
29.08
19.17
9.12
-0.38
-8.99
-16.84
-24.59
-33.21
-43.51
-55.79
-69.45
-82.97
-94.18
-100.92
-101.75
-96.55
-86.59
-74.06
-61.35
-50.19
-41.35
-34.72
-29.74
-25.89
-22.92
-20.74
-19.23
-18.09
-16.78
-14.78
-11.75
-7.61
-2.58
2.88
8.24
13.06
17.22
21.03
25.19
30.41
36.89
44.07
50.61
54.99
56.18
54.11
49.68
44.21
38.84
33.96
29.35
24.45
18.92
12.81
6.4
-0.07
-6.75
-14
-22.2
-31.36
-41.08
-50.66
-59.41
-66.82
-72.39
-75.45
-75.01
-70
-59.81
-44.82
-26.54
-7.28
10.65
25.68
37.39
46.34
53.58
60.08
66.39
72.6
78.49
83.67
87.66
89.84
89.48
86.03
79.42
70.25
59.85
49.81
41.34
34.85
29.73
24.7
18.6
10.93
2.13
-6.75
-14.72
-21.51
-27.74
-34.54
-42.97
-53.33
-65.07
-77.04
-88.09
-97.6
-105.58
-112.46
-118.61
-124
-128.16
-130.38
-129.95
-126.32
-119.13
-108.26
-93.78
-76.25
-56.69
-36.61
-17.63
-1.05
12.51
23.25
31.89
39.25
45.86
51.73
56.44
59.45
60.35
59.18
56.46
53.02
49.74
47.27
45.87
45.3
45.11
44.75
43.93
42.64
41.04
39.27
37.29
34.88
31.9
28.48
25.15
22.69
21.69
22.25
23.83
25.4
25.83
24.31
20.59
15.07
8.77
3.18
-0.06
0.52
5.74
15.48
28.63
43.33
57.47
69.27
77.68
82.47
84.13
83.5
81.48
78.72
75.48
71.6
66.71
60.43
52.63
43.64
34.1
24.84
16.59
9.83
4.64
0.69
-2.71
-6.56
-11.91
-19.75
-30.63
-44.47
-60.43
-77.03
-92.46
-105.03
-113.66
-118.19
-119.34
-118.41
-116.65
-114.59
-111.85
-107.26
-99.51
-87.84
-72.58
-54.96
-36.71
-19.35
-3.73
10.01
22.23
33.37
43.81
53.72
63.1
71.82
79.54
85.87
90.46
93.29
94.7
95.43
96.2
97.51
99.39
101.46
103.06
103.48
101.99
98.01
91.16
81.48
69.45
56
42.12
28.6
15.69
3.12
-9.65
-23
-36.79
-50.04
-61.08
-67.8
-68.3
-61.56
-47.92
-29.11
-7.84
13.04
31.38
46.14
57.33
65.58
71.52
75.62
78.05
78.91
78.34
76.49
73.5
69.43
64.31
58.32
51.76
45.13
38.88
33.29
28.4
24
19.84
15.79
11.82
7.98
4.08
-0.44
-6.38
-14.36
-24.24
-34.84
-44.2
-50.45
-52.81
-52.14
-50.59
-50.58
-53.44
-58.86
-65.05
-69.62
-70.72
-67.58
-60.55
-50.7
-39.32
-27.55
-16.15
-5.4
4.93
15.44
26.71
38.93
51.54
63.3
72.55
77.87
78.51
74.81
68.08
60.22
53
47.28
42.65
37.66
30.62
20.66
8.35
-4.45
-15.44
-23.05
-27.08
-28.62
-29.16
-29.79
-30.76
-31.65
-32.03
-32.05
-32.48
-34.44
-38.8
-45.82
-55.08
-65.71
-76.69
-86.97
-95.57
-101.5
-103.94
-102.59
-97.82
-90.78
-82.97
-75.62
-69.23
-63.41
-57.21
-49.74
-40.69
-30.37
-19.59
-9.23
-0.05
7.27
12.13
13.94
12.31
7.3
-0.47
-10.02
-20.3
-30.61
-40.65
-50.2
-58.73
-64.94
-66.79
-62.01
-48.96
-27.54
0.41
31.3
60.83
85.28
102.55
112.51
116.58
116.63
114.09
109.51
102.68
93.34
81.63
68.37
54.89
42.74
33.38
27.92
26.89
30.06
36.34
43.98
51.15
56.53
59.72
61.23
62.01
62.78
63.8
64.77
65.17
64.49
62.33
58.48
52.75
45.16
35.89
25.35
14.13
2.83
-7.95
-17.71
-26.17
-33.35
-39.67
-45.81
-52.32
-59.29
-66.06
-71.53
-74.66
-75.1
-73.36
-70.61
-68.01
-66.24
-65.24
-64.52
-63.56
-62.24
-60.83
-59.81
-59.63
-60.56
-62.69
-65.94
-70.09
-74.55
-78.28
-79.9
-78.13
-72.23
-62.53
-50.33
-37.54
-25.94
-16.57
-9.53
-4.14
0.57
5.47
11.04
17.38
24.27
31.35
38.18
44.36
49.56
53.64
56.62
58.77
60.46
62.07
63.77
65.47
66.65
66.54
64.29
59.21
51.11
40.38
28.02
15.39
3.85
-5.69
-13.1
-19.05
-24.76
-31.58
-40.51
-51.67
-64.17
-76.23
-85.57
-90.13
-88.69
-81.43
-69.86
-56.45
-43.7
-33.39
-26.12
-21.36
-18.03
-15.06
-11.88
-8.48
-5.16
-2.22
0.28
2.49
4.64
6.87
9.12
11.1
12.46
12.92
12.37
10.86
8.53
5.5
1.76
-2.78
-8.26
-14.76
-22.23
-30.47
-39.18
-48.08
-57.05
-66.22
-75.75
-85.54
-94.98
-102.75
-107.21
-106.95
-101.49
-91.63
-79.24
-66.52
-55.18
-45.9
-38.36
-31.68
-25.09
-18.23
-11.28
-4.58
1.53
6.94
11.75
16.12
20.26
24.36
28.62
33.22
38.25
43.66
49.18
54.4
58.89
62.24
64.17
64.55
63.41
61.07
57.99
54.74
51.8
49.31
47
44.17
40.01
33.88
25.69
16
5.89
-3.42
-11.03
-16.68
-20.82
-24.29
-27.87
-31.76
-35.43
-37.8
-37.75
-34.76
-29.14
-21.96
-14.57
-8.07
-3
0.62
3.02
4.4
4.81
4.31
3.13
1.8
1.04
1.52
3.58
7.04
11.3
15.45
18.61
20.12
19.82
17.99
15.32
12.53
10.02
7.66
4.66
-0.13
-7.93
-19.5
-34.87
-53.14
-72.51
-90.65
-105.21
-114.44
-117.7
-115.62
-109.76
-101.96
-93.57
-84.97
-75.61
-64.37
-50.27
-33.01
-13.16
7.94
28.61
47.21
62.62
74.28
82.26
87.1
89.58
90.54
90.71
90.55
90.32
90.05
89.68
89.15
88.37
87.16
85.23
82.18
77.64
71.41
63.6
54.56
44.79
34.72
24.62
14.53
4.48
-5.42
-14.83
-23.31
-30.51
-36.42
-41.55
-46.8
-52.94
-60.12
-67.4
-72.89
-74.37
-70.26
-60.47
-46.54
-31.14
-16.93
-5.66
2.46
8.53
14.39
21.77
31.81
44.84
60.36
77.36
94.57
110.73
124.83
136.32
145.14
151.56
156.03
159.03
160.83
161.5
160.97
159.06
155.69
151.01
145.48
139.76
134.44
129.67
124.85
118.52
108.7
93.5
71.94
44.56
13.51
-17.97
-46.57
-69.84
-86.85
-98.01
-104.39
-106.91
-105.94
-101.5
-93.96
-84.47
-74.98
-67.45
-62.98
-61.2
-60.57
-59.3
-56.35
-51.96
-47.45
-44.5
-44.25
-47.05
-52.44
-59.64
-67.91
-76.64
-85.28
-93.3
-100.22
-105.86
-110.46
-114.67
-119.23
-124.67
-131.05
-138.07
-145.18
-151.83
-157.38
-161.09
-162.01
-159.32
-152.71
-142.79
-131.1
-119.58
-109.74
-102.06
-95.95
-90.26
-84.21
-77.89
-72.22
-68.45
-67.42
-69.05
-72.3
-75.45
-76.39
-73.06
-63.72
-47.38
-24.29
3.81
33.76
61.67
84.02
98.73
105.73
106.78
104.45
100.95
97.17
92.56
85.95
76.69
65.62
55
47.51
44.73
46.23
49.63
51.91
51.01
47.02
42
38.76
39.31
43.86
50.93
58.32
64.39
68.76
72.21
75.97
80.82
86.68
92.63
97.4
99.85
99.19
94.92
86.77
74.63
58.75
40.01
19.93
0.39
-16.9
-30.94
-41.74
-50.09
-57.26
-64.47
-72.7
-82.6
-94.44
-107.96
-122.02
-134.58
-142.88
-144.33
-137.49
-122.76
-102.35
-79.34
-56.5
-35.27
-15.69
3.09
21.83
40.58
58.63
74.99
88.95
100.34
109.47
116.74
122.44
126.62
129.32
130.57
130.48
129.11
126.51
122.72
117.85
111.97
104.96
96.43
85.89
73.05
58.15
41.97
25.58
9.78
-5.19
-19.62
-33.91
-48.22
-62.22
-75.43
-87.54
-98.76
-109.72
-121.19
-133.57
-146.5
-158.91
-169.12
-175.33
-176.06
-170.57
-158.95
-142.12
-121.49
-98.66
-75.14
-52.14
-30.53
-10.89
6.53
21.74
34.96
46.53
56.68
65.49
72.88
78.77
83.24
86.69
89.76
93.08
96.99
101.35
105.58
109.03
111.27
112.38
112.98
113.82
115.48
118.1
121.42
124.83
127.62
128.82
127.24
121.61
111.14
96.08
78.01
59.54
43.42
31.58
24.41
20.91
19.37
18.39
17.39
16.64
16.7
17.77
19.42
20.76
20.91
19.34
16.11
11.58
6.09
-0.32
-7.94
-17.12
-27.98
-40.13
-52.85
-65.31
-76.92
-87.5
-97.19
-106.24
-114.72
-122.46
-129.03
-133.93
-136.58
-136.46
-133.07
-126.05
-115.25
-100.76
-82.92
-62.3
-39.72
-16.28
6.53
26.97
43.42
54.86
61.35
63.99
64.61
64.96
66.12
68.16
70.4
71.91
71.99
70.49
67.7
64.13
60.25
56.39
52.78
49.63
47.06
44.99
43.05
40.51
36.58
30.67
22.72
13.21
3
-7.09
-16.65
-25.84
-35.52
-46.88
-61.04
-78.57
-99.08
-121.19
-142.73
-161.46
-175.69
-184.84
-189.4
-190.49
-189.21
-186.13
-181.17
-173.84
-163.59
-150.14
-133.5
-113.94
-91.93
-68.18
-43.62
-19.34
3.66
24.68
43.46
60.1
74.81
87.71
98.7
107.63
114.44
119.31
122.63
124.86
126.35
127.24
127.36
126.37
123.9
119.74
114.05
107.37
100.48
94.11
88.68
84.03
79.52
74.25
67.4
58.55
47.84
36.03
24.47
14.87
9
8.22
13.08
22.98
36.24
50.59
63.87
74.59
82.37
87.69
91.58
94.99
98.46
101.93
104.93
106.83
107.11
105.55
102.17
97.23
91.08
84.12
76.79
69.54
62.71
56.39
50.32
43.9
36.49
27.7
17.62
6.89
-3.55
-12.88
-20.7
-27.08
-32.47
-37.43
-42.38
-47.51
-52.77
-58.02
-63.09
-67.93
-72.67
-77.7
-83.5
-90.4
-98.22
-105.98
-112
-114.35
-111.52
-103.03
-89.73
-73.53
-56.73
-41.26
-28.16
-17.46
-8.49
-0.41
7.44
15.26
22.86
29.88
35.87
40.52
43.64
45.23
45.41
44.48
42.83
40.96
39.42
38.66
38.96
40.22
41.95
43.27
43.16
40.76
35.75
28.5
19.98
11.44
3.86
-2.35
-7.46
-12.16
-17.14
-22.7
-28.6
-34.35
-39.45
-43.76
-47.49
-51.12
-55.24
-60.34
-66.68
-74.18
-82.29
-89.83
-95.27
-97.04
-94.23
-86.95
-76.45
-64.64
-53.38
-43.94
-36.72
-31.46
-27.64
-24.85
-22.97
-22.09
-22.37
-23.84
-26.18
-28.75
-30.58
-30.76
-28.71
-24.59
-19.27
-14.07
-10.23
-8.52
-9.04
-11.29
-14.58
-18.28
-22.06
-25.77
-29.35
-32.76
-35.92
-38.82
-41.66
-44.92
-49.17
-54.94
-62.35
-70.92
-79.54
-86.61
-90.63
-90.61
-86.52
-79.45
-71.19
-63.74
-58.54
-55.91
-54.89
-53.57
-49.73
-41.62
-28.49
-10.84
9.92
32
53.83
74.3
92.79
108.91
122.31
132.59
139.44
142.79
142.82
139.94
134.54
127
117.71
107.22
96.28
85.78
76.38
68.36
61.38
54.67
47.26
38.32
27.34
14.17
-0.91
-17.26
-34
-50.17
-64.97
-77.89
-88.67
-97.16
-103.18
-106.47
-106.76
-104.04
-98.75
-91.83
-84.63
-78.48
-74.29
-72.1
-71.09
-69.79
-66.65
-60.59
-51.42
-39.88
-27.35
-15.36
-5.24
2.18
6.59
8.28
8.1
7.39
7.65
10.06
15.01
21.84
29.1
35.17
38.95
40.31
40.02
39.33
39.4
40.84
43.63
47.28
51.12
54.56
57.27
59.18
60.36
60.95
60.92
60.12
58.43
55.83
52.45
48.53
44.22
39.47
34
27.54
19.89
11.1
1.35
-9.11
-19.9
-30.42
-39.63
-46.21
-48.79
-46.56
-39.68
-29.33
-17.37
-5.67
4.46
12.52
18.73
23.67
27.94
31.95
35.88
39.77
43.52
46.81
49.16
50.01
48.94
45.97
41.66
37.05
33.39
31.76
32.65
35.81
40.3
44.85
48.23
49.71
49.21
47.12
44.02
40.34
36.11
31.04
24.71
16.82
7.34
-3.42
-14.97
-26.72
-38.12
-48.76
-58.5
-67.53
-76.33
-85.46
-95.2
-105.16
-114.15
-120.37
-121.94
-117.59
-107.16
-91.69
-73.19
-53.91
-35.77
-19.94
-6.76
4.01
12.95
20.7
27.82
34.74
41.66
48.47
54.8
60.14
64.03
66.26
66.94
66.41
65.15
63.66
62.31
61.24
60.29
58.89
56.25
51.67
44.92
36.46
27.37
18.93
12.08
7.06
3.39
0.2
-3.3
-7.59
-12.67
-18.32
-24.23
-30.16
-35.92
-41.44
-46.7
-51.8
-56.99
-62.55
-68.57
-74.82
-80.5
-84.45
-85.44
-82.68
-76.11
-66.49
-55.13
-43.39
-32.28
-22.19
-12.97
-4.24
4.33
12.86
21.2
29.03
36.03
41.87
46.35
49.39
51.07
51.68
51.62
51.29
51.05
51.03
51.19
51.36
51.31
50.81
49.71
47.86
45.21
41.82
37.85
33.55
29.1
24.59
19.97
15.14
10.02
4.64
-0.85
-6.23
-11.33
-16.08
-20.61
-25.27
-30.56
-36.98
-44.76
-53.55
-62.26
-69.27
-72.86
-71.95
-66.57
-57.96
-48.19
-39.32
-32.72
-28.68
-26.54
-25.1
-23.24
-20.3
-16.18
-11.25
-6.07
-1.14
3.14
6.64
9.48
11.99
14.67
18.03
22.44
28.03
34.58
41.57
48.36
54.38
59.22
62.74
64.91
65.82
65.55
64.21
62.04
59.39
56.62
54.02
51.63
49.25
46.45
42.78
37.94
31.84
24.69
16.83
8.78
1.16
-5.32
-9.95
-12.15
-11.69
-8.89
-4.5
0.4
4.8
8.05
10.05
11.13
11.83
12.65
13.8
15.19
16.48
17.27
17.24
16.27
14.43
11.86
8.64
4.71
-0.15
-6.08
-12.93
-20.12
-26.79
-32.03
-35.3
-36.68
-36.82
-36.7
-37.31
-39.29
-42.88
-47.95
-54.13
-60.97
-67.88
-74.14
-78.89
-81.35
-81.12
-78.51
-74.5
-70.34
-66.96
-64.31
-61.29
-56.17
-47.52
-34.9
-19.22
-2.27
13.96
28.04
39.4
48.31
55.4
61.33
66.43
70.55
73.12
73.35
70.56
64.55
55.88
45.75
35.66
26.85
19.87
14.47
9.94
5.52
0.75
-4.53
-10.19
-15.93
-21.22
-25.36
-27.57
-27.41
-25.11
-21.7
-18.83
-18.16
-20.74
-26.51
-34.28
-42.07
-47.73
-49.65
-47.13
-40.6
-31.35
-21.08
-11.41
-3.45
2.38
6.1
7.97
8.39
7.81
6.73
5.68
5.04
4.73
4.29
3.02
0.49
-3.17
-7.18
-10.49
-12.29
-12.51
-11.85
-11.43
-12.25
-14.76
-18.58
-22.87
-26.71
-29.57
-31.58
-33.39
-35.81
-39.39
-44.08
-49.1
-53.13
-54.63
-52.19
-45.05
-33.33
-18.14
-1.39
14.84
28.91
40.11
48.7
55.59
61.67
67.3
72.22
75.76
77.35
76.87
74.73
71.56
67.89
63.95
59.76
55.35
50.98
47.14
44.28
42.64
41.94
41.45
40.21
37.35
32.52
25.92
18.38
10.93
4.51
-0.43
-4.15
-7.46
-11.39
-16.75
-23.68
-31.51
-38.86
-44.04
-45.65
-43.01
-36.45
-27.17
-16.86
-7.06
1.2
7.6
12.47
16.43
20.09
23.84
27.79
31.71
35.2
37.71
38.8
38.24
36.15
32.91
29.02
24.87
20.62
16.26
11.84
7.56
3.8
0.92
-0.96
-2.11
-3.03
-4.27
-6.13
-8.57
-11.29
-13.89
-16.14
-18.12
-20.15
-22.71
-26.23
-30.92
-36.68
-43.09
-49.42
-54.6
-57.48
-57.05
-52.78
-44.9
-34.4
-22.74
-11.37
-1.27
7.29
14.58
21.13
27.36
33.38
39.04
44.08
48.28
51.52
53.86
55.41
56.38
57.02
57.55
58.17
59.06
60.29
61.83
63.42
64.6
64.8
63.57
60.81
56.83
52.2
47.45
42.82
38.12
32.88
26.51
18.6
9.05
-1.78
-12.99
-23.21
-30.84
-34.51
-33.6
-28.59
-21.09
-13.2
-6.86
-3.14
-2.03
-2.64
-3.81
-4.69
-4.97
-4.99
-5.44
-6.94
-9.85
-13.98
-18.79
-23.49
-27.46
-30.27
-31.84
-32.24
-31.56
-29.84
-27.24
-24.2
-21.54
-20.31
-21.3
-24.74
-30
-35.77
-40.58
-43.28
-43.43
-41.36
-37.86
-33.83
-29.88
-26.21
-22.66
-18.92
-14.66
-9.73
-4.07
2.24
9.01
15.85
22.11
26.89
29.16
28.16
23.72
16.47
7.55
-1.81
-10.94
-19.89
-29.26
-39.61
-50.94
-62.71
-74.09
-84.51
-93.83
-102.19
-109.57
-115.38
-118.72
-118.89
-116.1
-111.75
-107.97
-106.72
-108.67
-112.75
-116.49
-117.04
-112.47
-102.58
-89.04
-74.67
-62.4
-54.31
-51.18
-52.58
-57.26
-63.59
-69.8
-74.11
-74.96
-71.37
-63.23
-51.5
-37.87
-24.26
-12.15
-2.19
5.84
12.72
19.38
26.47
34.12
41.94
49.19
55.01
58.87
60.67
60.77
59.81
58.4
56.95
55.59
54.31
53.15
52.26
51.86
52.1
52.91
54.02
55.01
55.49
55.17
53.9
51.61
48.22
43.68
37.96
31.17
23.52
15.28
6.64
-2.34
-11.76
-21.74
-32.37
-43.54
-55
-66.23
-76.46
-84.64
-89.64
-90.55
-87
-79.48
-69.24
-57.87
-46.82
-36.88
-28.07
-19.81
-11.33
-2.04
8.17
19.03
29.97
40.37
49.65
57.42
63.4
67.55
70.08
71.37
71.98
72.44
73.03
73.7
74.13
73.91
72.75
70.68
67.99
65.01
61.95
58.68
54.83
49.97
43.9
36.82
29.3
22.12
15.81
10.51
5.88
1.2
-4.3
-11.23
-19.86
-29.87
-40.27
-49.42
-55.21
-55.74
-50.08
-38.81
-24.17
-9.27
2.93
10.8
14.37
15.14
15.19
16.29
19.45
24.74
31.53
38.82
45.54
50.75
53.87
54.78
53.78
51.46
48.51
45.53
43.03
41.36
40.64
40.63
40.76
40.19
38.25
34.74
30.07
25.11
20.64
16.97
13.8
10.42
6.2
0.96
-4.89
-10.56
-15.21
-18.33
-19.95
-20.63
-21.32
-23.02
-26.39
-31.42
-37.33
-42.73
-46.09
-46.33
-43.19
-37.31
-29.93
-22.37
-15.6
-10
-5.47
-1.69
1.54
4.18
5.94
6.48
5.6
3.4
0.25
-3.4
-7.25
-11.23
-15.48
-20.05
-24.64
-28.53
-30.76
-30.48
-27.32
-21.65
-14.45
-7.02
-0.59
3.98
6.41
6.83
5.74
3.69
1.07
-1.91
-5.33
-9.39
-14.2
-19.6
-25.01
-29.46
-31.76
-30.96
-26.61
-19
-9.05
2.05
13.27
24.08
34.36
44.23
53.64
62.15
69.05
73.53
75.02
73.35
68.78
61.95
53.73
45.1
36.99
30.16
24.98
21.41
19.03
17.2
15.27
12.76
9.39
5.09
-0.11
-6.11
-12.69
-19.53
-26.26
-32.62
-38.57
-44.35
-50.31
-56.6
-62.87
-68.19
-71.14
-70.37
-65.11
-55.59
-43.01
-29.14
-15.72
-3.84
6.35
15.52
24.75
34.9
46.18
57.98
69.09
78.23
84.5
87.74
88.27
86.66
83.43
78.99
73.83
68.68
64.21
60.53
56.65
50.55
40.04
24.01
3.3
-19.38
-40.69
-58.15
-71.15
-80.84
-89.04
-96.89
-104.1
-109.15
-110.14
-105.94
-96.75
-84.04
-69.91
-56.25
-44.15
-33.71
-24.28
-14.96
-5.18
5.05
15.16
24.42
32.31
38.73
43.82
47.8
50.69
52.33
52.6
51.62
49.88
48.06
46.66
45.63
44.12
40.74
34.13
23.65
9.92
-5.33
-19.85
-31.75
-40.07
-44.92
-47.19
-48.08
-48.69
-49.77
-51.58
-53.72
-55.16
-54.42
-50
-41.01
-27.64
-11.06
6.93
24.59
40.75
54.91
67.13
77.67
86.81
94.68
101.21
105.93
108.02
106.39
100.18
89.25
74.57
58.11
42.28
29.06
19.37
12.83
8.25
4.3
0.13
-4.39
-8.86
-12.86
-16.32
-19.53
-22.96
-26.9
-31.24
-35.58
-39.59
-43.24
-46.94
-51.11
-55.69
-59.75
-61.62
-59.49
-52.26
-40.17
-24.8
-8.5
6.55
18.98
28.56
35.84
41.63
46.51
50.63
53.83
55.87
56.69
56.43
55.39
53.92
52.29
50.58
48.77
46.76
44.55
42.25
40.06
38.06
36.1
33.76
30.48
25.85
19.81
12.76
5.4
-1.59
-7.84
-13.44
-18.85
-24.69
-31.52
-39.57
-48.63
-57.89
-66.04
-71.53
-73
-69.82
-62.39
-52.12
-40.93
-30.63
-22.27
-15.95
-11.05
-6.72
-2.38
2.07
6.27
9.69
11.88
12.71
12.39
11.4
10.25
9.26
8.39
7.27
5.34
2.04
-2.94
-9.53
-17.26
-25.35
-32.88
-38.99
-43.08
-44.97
-44.81
-43.19
-40.87
-38.8
-37.81
-38.38
-40.34
-42.69
-43.79
-41.85
-35.65
-25.05
-11.16
4.06
18.55
30.84
40.37
47.43
52.74
57.03
60.69
63.72
65.74
66.24
64.81
61.35
56.17
50.02
43.75
38.05
33.06
28.32
22.97
16.15
7.44
-2.79
-13.51
-23.34
-31
-35.8
-37.81
-37.85
-37.23
-37.41
-39.71
-45
-53.34
-63.83
-74.53
-82.86
-86.21
-82.99
-73.22
-58.74
-42.56
-27.66
-15.83
-7.09
0.02
7.54
17
28.74
41.91
54.96
66.32
74.92
80.32
82.6
82.12
79.28
74.55
68.47
61.72
55.14
49.39
44.87
41.39
38.26
34.47
29.18
22.07
13.47
4.15
-5.05
-13.69
-21.93
-30.43
-40
-51.11
-63.45
-75.85
-86.39
-93.02
-94.18
-89.4
-79.48
-66.17
-51.65
-37.77
-25.68
-15.81
-8.05
-2.13
2.26
5.34
7.37
8.63
9.42
10.06
10.81
11.98
13.95
17.01
21.28
26.54
32.14
37.17
40.69
41.98
40.75
37.08
31.36
24.17
16.19
8.16
0.87
-4.96
-8.89
-10.92
-11.6
-11.89
-12.88
-15.47
-20.17
-26.99
-35.48
-44.73
-53.42
-59.95
-62.76
-60.8
-53.99
-43.3
-30.52
-17.68
-6.33
2.88
10.16
16.24
21.83
27.33
32.7
37.66
41.93
45.37
48.08
50.34
52.45
54.67
57.13
59.76
62.44
64.9
66.91
68.24
68.7
68.16
66.63
64.21
61.11
57.56
53.78
49.94
46.1
42.2
38.09
33.53
28.31
22.32
15.7
8.83
2.19
-3.81
-9.13
-14.14
-19.48
-25.72
-32.87
-40.19
-46.28
-49.58
-48.97
-44.22
-36.14
-26.24
-16.16
-7.13
0.28
6.2
11.08
15.43
19.48
23.14
26.12
28.07
28.76
28.2
26.7
24.73
22.78
21.24
20.21
19.55
19.01
18.36
17.53
16.61
15.73
14.91
13.93
12.45
10.06
6.49
1.74
-3.95
-10.22
-16.71
-23.2
-29.64
-36.12
-42.73
-49.56
-56.67
-64.01
-71.38
-78.26
-83.86
-87.09
-86.96
-82.9
-75.1
-64.64
-53.1
-42.11
-32.82
-25.57
-20.11
-15.9
-12.61
-10.31
-9.35
-10.04
-12.34
-15.52
-18.28
-19.08
-16.64
-10.47
-1.13
9.94
20.96
30.36
37.3
41.72
44.02
44.71
44.01
41.91
38.37
33.59
28.06
22.4
17.1
12.31
7.89
3.46
-1.31
-6.55
-12.22
-18.18
-24.36
-30.83
-37.85
-45.59
-53.93
-62.18
-69.13
-73.41
-74.02
-70.8
-64.53
-56.66
-48.71
-41.74
-36.01
-31.12
-26.43
-21.45
-16.04
-10.37
-4.81
0.34
4.84
8.53
11.32
13.16
14.04
14.06
13.39
12.29
11.08
10.19
10.05
11.12
13.71
17.9
23.44
29.66
35.63
40.33
42.97
43.2
41.23
37.75
33.64
29.73
26.57
24.32
22.7
21.08
18.55
14.07
6.83
-3.48
-16.3
-30.22
-43.21
-53.26
-59.02
-60.16
-57.38
-52.14
-46.03
-40.39
-36.04
-33.24
-31.84
-31.37
-31.3
-31.15
-30.64
-29.75
-28.74
-27.9
-27.47
-27.47
-27.65
-27.58
-26.66
-24.29
-19.89
-13.13
-4.1
6.54
17.57
27.5
34.93
38.98
39.54
37.18
32.91
27.87
23.09
19.31
16.93
15.91
15.85
16.04
15.65
13.98
10.68
5.89
0.28
-5
-8.58
-9.15
-5.91
1.07
10.78
21.46
31.17
38.35
42.32
43.3
42.17
40.04
37.91
36.5
36.21
37.17
39.31
42.38
45.95
49.52
52.52
54.38
54.74
53.41
50.6
46.83
42.82
39.24
36.53
34.77
33.66
32.53
30.4
26.12
18.63
7.4
-7.09
-23.15
-38.22
-49.69
-55.98
-57.27
-55.59
-54.13
-55.97
-62.82
-74.25
-87.82
-100.01
-107.41
-107.83
-100.82
-87.49
-69.99
-50.66
-31.58
-14.37
-0.11
10.61
17.72
21.73
23.79
25.37
27.9
32.31
38.76
46.63
54.74
61.68
66.22
67.71
66.24
62.64
58.2
54.22
51.64
50.7
50.96
51.5
51.39
49.97
47.12
43.24
38.92
34.68
30.66
26.42
21.09
13.62
3.11
-10.77
-27.63
-46.41
-65.62
-83.68
-99.19
-111.07
-118.67
-121.75
-120.51
-115.53
-107.74
-98.09
-87.35
-75.92
-63.84
-51.08
-37.83
-24.72
-12.67
-2.66
4.71
9.34
11.63
12.23
11.79
10.77
9.46
8.06
6.73
5.69
5.04
4.81
4.85
4.9
4.64
3.77
2.16
-0.17
-2.98
-5.96
-8.81
-11.35
-13.62
-15.84
-18.36
-21.55
-25.71
-30.94
-37.03
-43.31
-48.7
-51.96
-51.98
-48.27
-41.15
-31.69
-21.37
-11.54
-3.09
3.79
9.34
14.07
18.4
22.58
26.62
30.41
33.72
36.27
37.88
38.42
38.01
36.93
35.63
34.48
33.73
33.39
33.24
32.98
32.29
30.98
29.01
26.48
23.62
20.66
17.81
15.1
12.44
9.64
6.55
3.09
-0.64
-4.43
-8.09
-11.49
-14.69
-17.91
-21.49
-25.76
-30.86
-36.59
-42.26
-46.77
-48.9
-47.72
-42.99
-35.34
-25.99
-16.4
-7.75
-0.59
5.09
9.65
13.54
17.09
20.52
23.96
27.48
31.03
34.45
37.44
39.68
40.96
41.27
40.81
39.95
39.07
38.51
38.34
38.49
38.6
38.28
37.16
35.1
32.22
28.85
25.42
22.24
19.36
16.58
13.58
10.08
5.98
1.41
-3.25
-7.57
-11.26
-14.29
-16.93
-19.68
-23.09
-27.53
-32.92
-38.65
-43.65
-46.62
-46.5
-42.82
-35.91
-26.87
-17.18
-8.21
-0.79
4.88
9.19
12.73
15.92
18.94
21.7
24
25.68
26.62
26.87
26.49
25.68
24.62
23.54
22.58
21.78
21.03
20.09
18.78
17.01
14.86
12.5
10.16
7.9
5.64
3.23
0.54
-2.38
-5.26
-7.68
-9.29
-9.98
-9.96
-9.67
-9.64
-10.28
-11.82
-14.37
-17.92
-22.27
-26.93
-31.02
-33.42
-33.04
-29.2
-22
-12.33
-1.62
8.61
17.29
23.91
28.61
31.89
34.26
36.11
37.58
38.73
39.63
40.47
41.48
42.76
44.13
45.04
44.77
42.7
38.67
33.03
26.56
20.14
14.35
9.26
4.55
-0.26
-5.44
-10.81
-15.87
-20.05
-22.98
-24.81
-26.15
-27.85
-30.73
-35.33
-41.68
-49.3
-57.15
-63.88
-68.1
-68.81
-65.71
-59.36
-51.01
-42.14
-33.96
-27.05
-21.34
-16.36
-11.68
-7.04
-2.49
1.76
5.53
8.69
11.15
12.7
13.05
11.95
9.39
5.71
1.59
-2.2
-5.09
-6.93
-8.04
-9.03
-10.55
-13.07
-16.75
-21.46
-26.82
-32.33
-37.39
-41.43
-44.01
-45
-44.7
-43.93
-43.77
-45.21
-48.61
-53.31
-57.76
-59.96
-58.32
-52.29
-42.61
-30.91
-18.9
-7.74
2.29
11.47
20.2
28.5
35.95
41.98
46.28
48.94
50.4
51.06
51.02
50.04
47.7
43.79
38.55
32.78
27.58
23.88
22.15
22.2
23.35
24.75
25.71
25.82
25.06
23.59
21.6
19.26
16.59
13.5
9.85
5.55
0.6
-4.82
-10.42
-15.95
-21.32
-26.67
-32.18
-37.77
-42.9
-46.52
-47.43
-44.85
-38.77
-30.01
-19.91
-9.78
-0.42
7.93
15.4
22.23
28.5
34.17
39.2
43.63
47.5
50.69
52.87
53.65
52.76
50.37
46.96
43.18
39.51
36.14
33.05
30.17
27.47
24.89
22.33
19.49
16.02
11.72
6.74
1.62
-2.94
-6.4
-8.66
-10.14
-11.63
-13.95
-17.59
-22.53
-28.21
-33.78
-38.47
-41.91
-44.27
-46.14
-48.28
-51.32
-55.64
-61.17
-67.41
-73.4
-77.8
-79.08
-76.09
-68.38
-56.59
-42.29
-27.57
-14.32
-3.63
4.43
10.59
15.94
21.28
26.87
32.35
37.05
40.38
42.18
42.77
42.78
42.85
43.32
44.17
45.12
45.89
46.4
46.8
47.29
47.88
48.34
48.25
47.31
45.46
42.97
40.24
37.58
35.03
32.41
29.52
26.27
22.85
19.62
16.9
14.81
13.3
12.14
11.11
10.09
9.01
7.86
6.55
4.92
2.64
-0.8
-5.97
-13.42
-23.31
-35.15
-47.61
-58.68
-66.17
-68.4
-64.76
-55.95
-43.72
-30.17
-17.17
-5.88
3.3
10.52
16.17
20.61
24.08
26.71
28.49
29.37
29.27
28.18
26.23
23.72
21.03
18.55
16.5
14.96
13.9
13.27
13
12.91
12.72
11.99
10.38
7.73
4.26
0.39
-3.4
-6.76
-9.58
-11.97
-14.1
-16.16
-18.33
-20.71
-23.39
-26.38
-29.58
-32.82
-35.92
-38.83
-41.69
-44.74
-48.26
-52.41
-57.14
-62.22
-67.26
-71.69
-74.76
-75.55
-73.19
-67.1
-57.32
-44.62
-30.33
-15.97
-2.7
8.91
18.88
27.65
35.62
42.96
49.58
55.22
59.6
62.57
64.14
64.47
63.85
62.76
61.76
61.39
61.97
63.4
65.16
66.49
66.63
65.18
62.19
58.1
53.54
48.94
44.42
39.77
34.69
29.11
23.34
17.99
13.65
10.54
8.33
6.38
4.06
1.22
-1.71
-3.91
-4.65
-3.71
-1.5
1.13
3.12
3.46
1.27
-4.05
-12.49
-23.05
-33.74
-41.87
-45.08
-42.3
-34.38
-23.89
-14.14
-7.95
-6.75
-10.38
-17.44
-25.96
-34
-40.04
-43.14
-43.1
-40.4
-36.05
-31.27
-27
-23.74
-21.51
-20.15
-19.52
-19.59
-20.29
-21.3
-22.03
-21.81
-20.27
-17.6
-14.47
-11.77
-10.15
-9.83
-10.54
-11.83
-13.33
-14.95
-16.8
-19
-21.53
-24.21
-26.85
-29.41
-32.16
-35.6
-40.1
-45.56
-51.17
-55.52
-56.99
-54.42
-47.57
-37.3
-25.27
-13.37
-3.08
4.9
10.69
15.01
18.65
22.21
25.86
29.46
32.72
35.33
37.15
38.2
38.63
38.6
38.19
37.41
36.2
34.55
32.52
30.36
28.36
26.74
25.47
24.25
22.58
20.05
16.49
12.12
7.52
3.28
-0.18
-2.77
-4.76
-6.53
-8.51
-11.04
-14.39
-18.82
-24.39
-30.85
-37.35
-42.55
-44.87
-43.2
-37.36
-28.41
-18.3
-9.17
-2.59
0.97
2.1
1.92
1.51
1.46
1.87
2.52
3.28
4.23
5.57
7.46
9.82
12.24
14.22
15.34
15.54
15.15
14.69
14.65
15.25
16.23
16.98
16.72
14.88
11.36
6.57
1.36
-3.33
-6.83
-8.94
-9.93
-10.48
-11.39
-13.38
-16.85
-21.74
-27.5
-33.09
-37.17
-38.43
-36.03
-29.91
-20.91
-10.52
-0.37
8.25
14.78
19.37
22.68
25.39
27.98
30.54
32.95
35.07
36.88
38.52
40.17
41.86
43.44
44.72
45.55
46.01
46.41
47.09
48.31
49.95
51.55
52.36
51.57
48.36
42.19
32.82
20.49
5.94
-9.58
-24.72
-38.29
-49.66
-58.8
-65.98
-71.38
-74.87
-76.03
-74.44
-70.15
-63.76
-56.18
-48.2
-40.07
-31.48
-21.93
-11.14
0.55
12.24
22.79
31.21
36.97
40.1
41.04
40.43
38.97
37.25
35.77
34.89
34.76
35.35
36.37
37.37
37.91
37.7
36.76
35.46
34.19
33.22
32.36
31
28.38
23.84
17.08
8.21
-2.38
-13.99
-25.62
-35.89
-43.2
-46.22
-44.37
-38.28
-29.63
-20.5
-12.53
-6.29
-1.28
3.56
9.08
15.45
22.12
28.23
32.95
35.74
36.37
34.76
30.97
25.35
18.66
12.1
6.92
3.96
3.12
3.31
2.83
0.09
-5.65
-13.88
-23.01
-30.97
-36.05
-37.49
-35.78
-32.39
-29.32
-28.42
-30.79
-36.42
-44.11
-51.78
-57.09
-58.11
-53.97
-45.16
-33.53
-21.83
-12.9
-8.7
-9.49
-13.55
-17.83
-19.06
-15.14
-5.88
7.01
20.82
33.06
42.3
48.29
51.49
52.45
51.48
48.85
45.09
41.24
38.5
37.68
38.69
40.27
40.46
37.28
29.55
17.55
2.99
-11.53
-23.48
-31.29
-34.96
-35.94
-36.42
-38.4
-42.84
-49.34
-56.39
-62.09
-64.87
-64.06
-59.98
-53.56
-45.92
-37.87
-29.76
-21.55
-13.1
-4.43
4.25
12.58
20.25
27.08
33.08
38.37
43.11
47.48
51.58
55.41
58.84
61.55
63.17
63.43
62.35
60.2
57.46
54.47
51.29
47.67
43.3
38
32
25.81
20.01
14.98
10.66
6.58
2.04
-3.64
-10.91
-19.8
-29.92
-40.35
-49.77
-56.73
-60.01
-59.11
-54.4
-47.11
-38.87
-31.12
-24.66
-19.57
-15.43
-11.8
-8.56
-5.97
-4.45
-4.24
-5.11
-6.43
-7.37
-7.29
-6.05
-4.04
-1.96
-0.47
0.05
-0.3
-1.13
-1.97
-2.47
-2.59
-2.5
-2.51
-2.9
-3.77
-5
-6.29
-7.3
-7.85
-8.1
-8.6
-10.12
-13.35
-18.56
-25.32
-32.47
-38.42
-41.55
-40.75
-35.78
-27.29
-16.68
-5.52
4.83
13.63
20.79
26.62
31.5
35.64
38.93
41.11
41.92
41.28
39.27
36.18
32.34
28.08
23.62
19.04
14.2
8.84
2.58
-4.9
-13.64
-23.32
-33.12
-41.82
-48
-50.33
-48.03
-41.26
-31.32
-20.38
-11.03
-5.39
-4.46
-7.77
-13.6
-19.63
-23.71
-24.47
-21.58
-15.65
-7.75
0.88
9.27
16.79
23.17
28.44
32.84
36.69
40.35
44.11
48.11
52.25
56.22
59.49
61.51
61.83
60.32
57.21
53.09
48.71
44.81
41.8
39.7
38.09
36.34
33.85
30.27
25.66
20.38
15
10.05
5.86
2.4
-0.68
-4.01
-8.25
-13.79
-20.47
-27.37
-33.03
-35.79
-34.42
-28.6
-19.14
-7.73
3.6
13.08
19.64
23.1
24.01
23.34
22.09
21.1
20.94
22.03
24.63
28.87
34.62
41.37
48.24
54.03
57.62
58.24
55.84
51.06
45.04
39.02
33.95
30.3
28.1
27.04
26.69
26.47
25.65
23.51
19.5
13.66
6.66
-0.35
-6.35
-11.25
-16.04
-22.45
-31.93
-44.65
-59.01
-72.23
-81.43
-84.89
-82.51
-75.53
-65.74
-54.71
-43.54
-33.06
-23.99
-17.02
-12.4
-9.76
-8.11
-6.32
-3.67
-0.23
3.11
5.04
4.49
0.98
-5.13
-12.75
-20.51
-27.08
-31.77
-34.78
-37.16
-40.33
-45.3
-51.95
-58.59
-62.27
-59.74
-48.74
-28.98
-2.64
26.07
52.09
71
80.24
79.73
71.7
59.76
47.84
39.09
35.08
35.69
39.44
44.06
47.28
47.54
44.23
37.67
28.72
18.32
7.26
-3.88
-14.63
-24.42
-32.67
-39
-43.43
-46.39
-48.5
-50.19
-51.63
-52.78
-53.76
-55.13
-57.79
-62.6
-69.85
-79.1
-89.34
-99.56
-109.05
-117.43
-124.33
-129.01
-130.37
-127.34
-119.47
-107.21
-91.73
-74.42
-56.17
-37.31
-17.93
1.6
20.11
35.8
46.74
51.72
50.76
45.16
37.03
28.56
21.33
16.03
12.55
10.44
9.32
9.25
10.58
13.64
18.3
23.82
28.95
32.51
33.85
33.2
31.52
30.06
29.76
30.87
32.86
34.56
34.46
30.94
22.6
8.56
-11.08
-34.86
-59.95
-82.63
-99.2
-107.01
-105.25
-95.01
-78.82
-59.69
-40.26
-22.25
-6.4
7.11
18.31
26.96
32.6
34.68
33.06
28.23
21.37
14.02
7.57
2.78
-0.34
-2.34
-3.93
-5.55
-7.28
-8.95
-10.38
-11.63
-12.98
-14.8
-17.4
-20.87
-25.12
-30.01
-35.43
-41.33
-47.6
-53.85
-59.34
-62.96
-63.61
-60.49
-53.47
-43.25
-31.08
-18.36
-6.26
4.62
14.19
22.63
30.08
36.5
41.58
44.96
46.45
46.06
44.14
41.16
37.63
34
30.63
27.77
25.68
24.52
24.33
24.89
25.73
26.2
25.74
24.05
21.37
18.31
15.62
13.88
13.17
12.99
12.46
10.67
7.08
1.91
-3.77
-8.19
-9.46
-6.11
2.31
15
30.09
45.03
57.33
65.09
67.44
64.62
57.77
48.63
38.99
30.42
23.82
19.45
16.95
15.63
14.77
13.85
12.64
11.2
9.79
8.72
8.22
8.37
8.95
9.49
9.33
7.8
4.45
-0.7
-7.23
-14.33
-21.13
-26.98
-31.72
-35.73
-39.78
-44.71
-50.88
-57.95
-64.69
-69.37
-70.36
-66.68
-58.51
-47.09
-34.21
-21.59
-10.29
-0.6
7.73
15.1
21.79
27.84
33.15
37.62
41.25
44.04
45.99
47.08
47.26
46.65
45.44
43.92
42.34
40.88
39.61
38.53
37.58
36.59
35.27
33.16
29.82
25.03
18.88
11.92
4.95
-1.26
-6.28
-10.17
-13.42
-16.73
-20.78
-25.94
-32.27
-39.39
-46.51
-52.43
-55.81
-55.45
-50.88
-42.51
-31.65
-20.06
-9.3
-0.27
7
13.06
18.69
24.39
30.25
35.99
41.11
45.21
48.03
49.61
50.12
49.87
49.16
48.2
47.16
46.08
44.95
43.69
42.16
40.2
37.65
34.45
30.64
26.36
21.83
17.22
12.68
8.27
3.99
-0.19
-4.31
-8.44
-12.55
-16.62
-20.62
-24.59
-28.78
-33.59
-39.38
-46.19
-53.47
-59.99
-64.18
-64.63
-60.69
-52.7
-41.94
-30.19
-19.06
-9.58
-2.07
3.81
8.65
13.02
17.26
21.48
25.55
29.21
32.2
34.35
35.57
35.87
35.37
34.31
33
31.8
31.05
30.89
31.27
31.84
32.07
31.43
29.64
26.72
23.04
19.18
15.62
12.59
10.04
7.62
4.92
1.65
-2.2
-6.43
-10.64
-14.55
-18.05
-21.31
-24.76
-28.86
-34.02
-40.28
-47.16
-53.65
-58.37
-59.94
-57.51
-51.1
-41.7
-30.91
-20.43
-11.5
-4.53
0.73
4.99
8.92
12.94
17.05
21.03
24.57
27.41
29.41
30.55
30.9
30.55
29.65
28.39
26.99
25.72
24.84
24.49
24.57
24.77
24.54
23.38
21.06
17.79
14.08
10.58
7.76
5.63
3.82
1.7
-1.19
-4.94
-9.22
-13.44
-17.04
-19.78
-21.77
-23.42
-25.3
-27.96
-31.76
-36.76
-42.62
-48.46
-53.02
-54.97
-53.35
-48.03
-39.81
-30.18
-20.83
-13.02
-7.22
-3.16
-0.15
2.5
5.25
8.2
11.23
14.12
16.64
18.6
19.82
20.25
20
19.33
18.57
18
17.67
17.45
17.05
16.22
14.85
12.99
10.82
8.57
6.42
4.42
2.49
0.46
-1.87
-4.62
-7.74
-11.05
-14.31
-17.33
-20.16
-23.02
-26.29
-30.34
-35.39
-41.33
-47.65
-53.41
-57.5
-58.8
-56.64
-51.05
-42.84
-33.4
-24.19
-16.32
-10.22
-5.7
-2.21
0.87
3.88
6.9
9.71
12.03
13.63
14.49
14.72
14.58
14.33
14.11
13.95
13.78
13.49
13.07
12.51
11.84
10.96
9.66
7.58
4.46
0.23
-4.85
-10.25
-15.39
-19.82
-23.46
-26.5
-29.39
-32.6
-36.48
-41.23
-46.84
-53.05
-59.3
-64.7
-68.09
-68.44
-65.12
-58.28
-48.83
-38.19
-27.82
-18.73
-11.29
-5.25
-0.1
4.69
9.4
14.05
18.49
22.57
26.22
29.37
32.04
34.12
35.51
36.16
36.1
35.54
34.77
34.08
33.63
33.35
32.98
32.2
30.68
28.26
25.02
21.17
17.09
13.2
9.81
7.03
4.64
2.12
-1.23
-5.94
-12.14
-19.3
-26.33
-31.83
-34.61
-34.1
-30.57
-25.02
-18.8
-13.19
-9.02
-6.53
-5.46
-5.3
-5.56
-6.01
-6.72
-7.99
-10.19
-13.47
-17.72
-22.46
-27.01
-30.8
-33.48
-35.11
-36.09
-37
-38.39
-40.6
-43.64
-47.25
-51.08
-54.9
-58.76
-63.09
-68.44
-75.25
-83.53
-92.65
-101.29
-107.62
-109.54
-105.04
-92.69
-72.15
-44.49
-12.23
21.36
53.29
81.93
107.46
131.44
155.43
179.9
203.61
224.24
239.57
248.53
251.41
249.25
242.82
232.05
216.24
194.83
168.28
138.31
107.47
78.16
51.98
29.3
9.55
-8.23
-24.85
-40.62
-55.34
-68.55
-79.74
-88.41
-94.13
-96.27
-94.06
-86.79
-74.14
-56.69
-36.01
-14.47
5.39
21.35
32.09
37.42
38.08
35.54
31.61
27.94
25.74
25.58
27.41
30.79
35.12
39.8
44.36
48.35
51.3
52.7
52.16
49.54
45.11
39.54
33.67
28.32
24.09
21.43
20.65
21.95
25.29
30
34.55
36.69
34.22
26.09
13.17
-1.74
-14.99
-23.66
-26.87
-25.96
-23.59
-22.29
-23.29
-26.29
-29.98
-32.92
-34.1
-33.03
-29.57
-23.85
-16.37
-8.11
-0.43
5.34
8.43
9
8.04
6.84
6.32
6.45
6.28
4.4
-0.39
-8.48
-19.1
-30.55
-40.8
-48.17
-52.01
-52.93
-52.73
-53.89
-58.85
-69.09
-84.47
-102.97
-120.97
-134.37
-139.88
-136.25
-124.81
-109.07
-93.48
-81.96
-76.55
-76.88
-80.53
-83.98
-83.77
-77.38
-63.59
-42.65
-16.2
12.72
40.05
61.29
72.65
72.34
61.3
43.19
23.05
5.63
-6.19
-11.94
-13.1
-11.89
-10.19
-8.97
-8.49
-8.67
-9.48
-11
-13.25
-15.98
-18.47
-19.75
-18.94
-15.57
-9.89
-2.79
4.52
11.02
16.27
20.56
24.58
29.06
34.31
40.1
45.93
51.26
55.73
59.12
61.18
61.63
60.19
56.81
51.86
46.01
40.09
34.8
30.6
27.73
26.22
25.96
26.53
27.24
27.27
25.95
23.09
19.04
14.63
10.63
7.47
4.91
2.23
-1.49
-6.84
-13.68
-21.08
-27.57
-31.64
-32.42
-29.94
-25.19
-19.7
-14.93
-11.78
-10.34
-10.05
-10.13
-9.96
-9.36
-8.51
-7.72
-7.14
-6.67
-6
-4.84
-3.16
-1.18
0.72
2.22
3.18
3.64
3.71
3.42
2.71
1.55
-0.06
-1.98
-4.05
-6.24
-8.66
-11.55
-15.18
-19.65
-24.76
-29.93
-34.22
-36.49
-35.78
-31.68
-24.55
-15.62
-6.54
1.15
6.52
9.54
10.86
11.36
11.74
12.24
12.78
13.07
12.94
12.35
11.43
10.41
9.5
8.88
8.59
8.54
8.55
8.34
7.68
6.46
4.74
2.68
0.53
-1.45
-3.11
-4.43
-5.57
-6.88
-8.8
-11.72
-15.81
-20.87
-26.21
-30.82
-33.55
-33.49
-30.34
-24.53
-17.19
-9.68
-3.2
1.7
5.12
7.6
9.74
11.82
13.67
14.87
15.07
14.22
12.66
10.88
9.38
8.42
7.96
7.79
7.62
7.21
6.38
5.08
3.36
1.33
-0.88
-3.16
-5.47
-7.81
-10.33
-13.2
-16.63
-20.76
-25.52
-30.5
-34.97
-37.97
-38.62
-36.43
-31.53
-24.64
-16.81
-9.05
-1.98
4.19
9.61
14.48
18.86
22.66
25.67
27.76
28.98
29.53
29.63
29.42
28.96
28.19
26.97
25.22
22.87
19.96
16.61
13.05
9.52
6.23
3.22
0.32
-2.81
-6.48
-10.87
-15.96
-21.6
-27.6
-33.79
-39.86
-45.27
-49.18
-50.65
-49
-44.08
-36.46
-27.18
-17.44
-8.32
-0.46
5.89
10.8
14.58
17.59
20.11
22.31
24.13
25.41
26.04
26.05
25.66
25.12
24.6
24.04
23.27
22.03
20.24
18
15.59
13.32
11.34
9.62
7.89
5.84
3.13
-0.45
-5.07
-10.8
-17.57
-25.02
-32.41
-38.65
-42.46
-42.89
-39.61
-33.14
-24.67
-15.66
-7.29
-0.11
5.88
11.09
15.86
20.25
24.02
26.75
28.15
28.22
27.3
25.94
24.65
23.76
23.29
23
22.55
21.7
20.42
18.87
17.29
15.78
14.23
12.33
9.7
6.09
1.48
-3.95
-9.84
-15.82
-21.41
-26.05
-29.02
-29.61
-27.4
-22.46
-15.5
-7.7
-0.27
5.92
10.58
13.97
16.61
18.95
21.1
22.9
24
24.18
23.46
22.11
20.61
19.46
18.96
19.18
19.92
20.83
21.6
22.03
22.14
22.04
21.82
21.46
20.81
19.68
17.94
15.58
12.65
9.23
5.41
1.41
-2.31
-5.07
-6.13
-4.98
-1.65
3.25
8.67
13.59
17.39
20.01
21.78
23.12
24.16
24.72
24.47
23.22
21.18
18.9
17.05
16.02
15.81
15.96
15.86
15.07
13.43
11.13
8.5
5.85
3.35
1.02
-1.22
-3.52
-6.04
-9.03
-12.74
-17.33
-22.65
-28.16
-32.93
-35.89
-36.19
-33.51
-28.18
-21.12
-13.46
-6.21
-0.01
4.97
8.79
11.65
13.72
15.08
15.81
16.03
15.87
15.44
14.77
13.86
12.66
11.17
9.45
7.67
6.07
4.82
4.05
3.73
3.63
3.4
2.6
0.82
-2.19
-6.39
-11.39
-16.42
-20.53
-22.77
-22.47
-19.53
-14.4
-7.99
-1.36
4.72
9.9
14.27
18.13
21.64
24.67
26.83
27.7
27.12
25.33
22.88
20.34
18.09
16.17
14.32
12.23
9.78
7.08
4.41
2.08
0.22
-1.29
-2.75
-4.5
-6.85
-9.97
-13.94
-18.69
-23.89
-29.01
-33.19
-35.51
-35.25
-32.15
-26.6
-19.51
-12.01
-5.04
0.9
5.75
9.74
13.11
15.91
17.97
19.1
19.23
18.58
17.55
16.52
15.68
14.94
13.98
12.5
10.41
7.86
5.23
2.9
1.04
-0.43
-1.89
-3.86
-6.82
-11.07
-16.51
-22.63
-28.52
-33.12
-35.47
-35.06
-31.94
-26.68
-20.15
-13.23
-6.57
-0.51
4.87
9.58
13.62
16.86
19.1
20.21
20.2
19.28
17.78
16.04
14.23
12.37
10.35
8.08
5.59
3.07
0.75
-1.22
-2.87
-4.4
-6.15
-8.5
-11.75
-16.06
-21.39
-27.36
-33.22
-37.98
-40.53
-40.11
-36.53
-30.29
-22.39
-14
-6.06
0.94
6.94
12.1
16.56
20.24
22.94
24.43
24.6
23.58
21.76
19.59
17.51
15.72
14.14
12.43
10.14
6.95
2.8
-2.03
-7.07
-11.85
-16.1
-19.86
-23.4
-27.13
-31.38
-36.25
-41.52
-46.61
-50.61
-52.55
-51.65
-47.62
-40.84
-32.22
-22.9
-13.9
-5.79
1.34
7.67
13.42
18.65
23.2
26.86
29.45
30.94
31.43
31.06
30.02
28.48
26.62
24.63
22.73
21.1
19.85
18.98
18.35
17.65
16.52
14.6
11.73
8.03
3.85
-0.33
-4.1
-7.39
-10.46
-13.8
-17.94
-23.18
-29.38
-35.92
-41.7
-45.45
-46.14
-43.27
-37.1
-28.59
-19.08
-9.82
-1.62
5.3
11.15
16.31
21.02
25.31
29.04
32.02
34.15
35.44
35.96
35.84
35.19
34.11
32.77
31.3
29.91
28.78
27.99
27.48
27.04
26.36
25.14
23.21
20.57
17.43
14.09
10.85
7.92
5.35
2.97
0.51
-2.39
-6.02
-10.48
-15.6
-21.09
-26.58
-31.89
-37.1
-42.56
-48.57
-55.12
-61.64
-67
-69.83
-68.92
-63.67
-54.39
-42.16
-28.46
-14.8
-2.25
8.62
17.67
24.96
30.57
34.54
36.89
37.81
37.54
36.46
34.95
33.23
31.42
29.56
27.69
25.9
24.26
22.79
21.4
19.91
18.15
16.06
13.68
11.12
8.5
5.84
3.1
0.3
-2.46
-4.95
-6.96
-8.37
-9.24
-9.75
-10.1
-10.43
-10.82
-11.33
-12.18
-13.59
-15.74
-18.51
-21.25
-22.92
-22.36
-18.72
-11.9
-2.59
7.9
18.2
27.27
34.83
41.27
47.35
53.78
60.82
68.18
75.2
81.17
85.75
89.09
91.91
95.13
99.62
105.77
113.32
121.33
128.4
133.14
134.57
132.63
128.29
123.31
119.75
119.21
122.28
128.26
135.34
141.15
143.62
141.63
135.42
126.32
116.19
106.7
98.77
92.5
87.52
83.4
79.98
77.21
74.92
72.47
68.65
61.88
50.43
32.6
6.96
-27.03
-68.21
-113.02
-155.68
-189.5
-208.87
-211.29
-198.05
-173.51
-143.23
-112.09
-83.4
-59.04
-40.15
-27.5
-21.34
-20.74
-23.5
-26.61
-27.41
-24.7
-18.98
-11.91
-5.4
-0.75
1.66
2.13
1.19
-0.65
-2.94
-5.16
-6.89
-8.02
-8.99
-10.81
-14.64
-21.08
-29.77
-39.33
-47.97
-54.27
-57.76
-59.04
-59.4
-60.21
-62.33
-65.85
-70.09
-73.79
-75.57
-74.25
-69.36
-61.31
-51.32
-40.93
-31.38
-23.24
-16.33
-10.12
-4.05
2.1
8.13
13.51
17.54
19.67
19.66
17.9
15.34
13.24
12.69
14.01
16.58
19.05
20.14
19.37
17.43
15.81
15.76
17.16
17.9
14.3
2.57
-19.27
-49.88
-84.44
-115.99
-137.74
-145.14
-137.23
-116.65
-88.69
-59.8
-36.06
-21.63
-17.71
-22.14
-30.18
-36.48
-37.42
-32.62
-24.93
-18.65
-17.27
-21.89
-31.04
-41.72
-50.64
-55.09
-53.25
-44.25
-28.45
-7.81
14.03
32.48
43.44
44.83
37.47
24.65
10.71
-0.77
-8.13
-11.86
-13.81
-15.85
-18.8
-22.01
-23.98
-23.47
-20.38
-16.01
-12.29
-10.8
-11.92
-14.91
-18.6
-22.07
-24.91
-26.97
-27.84
-26.84
-23.44
-18.05
-12.41
-9.2
-10.95
-18.6
-30.82
-44.45
-55.82
-62.44
-63.92
-61.62
-57.35
-52.3
-46.47
-39.15
-29.67
-17.87
-3.97
11.58
28.28
45.2
60.66
72.6
79.52
81.59
80.85
80.19
81.6
84.83
87.59
87.08
81.88
72.95
63
54.99
50.61
49.66
50.44
50.58
47.45
38.4
20.93
-6.6
-43.58
-86.09
-126.85
-157.18
-170.14
-163.64
-141.55
-112.47
-86.13
-69.75
-65.77
-72.12
-84.3
-97.82
-109.66
-118.26
-122.7
-122.05
-115.51
-103.13
-86.3
-67.63
-50.11
-36.12
-26.65
-21.41
-19.22
-18.54
-18.17
-17.41
-16.17
-14.78
-13.76
-13.48
-14.04
-15.11
-16.17
-16.75
-16.5
-15.48
-14.01
-12.64
-12
-12.68
-15.17
-19.66
-26.08
-33.95
-42.54
-51.03
-58.77
-65.49
-71.33
-76.8
-82.67
-89.81
-98.99
-110.6
-124.25
-138.46
-150.69
-157.8
-157.18
-147.89
-131.25
-110.64
-90.52
-75.05
-66.88
-66.57
-72.44
-81.11
-88.41
-90.5
-85.1
-72.14
-53.73
-33.31
-14.4
0.35
9.32
11.69
7.27
-3.08
-16.96
-30.29
-38.55
-38.68
-30.62
-17.37
-3.39
7.54
13.82
15.95
15.32
12.86
8.63
2.48
-5.13
-12.89
-19.38
-24.1
-27.91
-32.23
-37.68
-43.17
-46.15
-44.09
-35.98
-23.09
-8.45
4.65
14.23
20.38
24.97
30.56
39.02
50.79
64.9
79.57
92.96
103.87
111.97
117.6
121.48
124.19
125.86
126.17
124.64
121.07
115.98
110.52
106
103.4
102.93
104.16
106.19
107.92
108.12
105.56
99.22
88.79
75
59.63
44.82
32.14
21.76
12.5
2.66
-8.75
-21.1
-32.21
-39.3
-40.3
-34.76
-23.98
-10.41
3.28
15.15
24.49
31.92
38.78
46.34
54.98
63.78
70.93
74.64
74.21
70.59
66.09
63.32
63.91
67.72
73.06
77.77
80.28
80.49
79.46
78.7
79.09
80.39
81.43
80.79
77.62
72.05
65.13
58.14
51.96
46.63
41.46
35.43
27.74
18.16
7.06
-4.67
-15.81
-24.97
-30.8
-32.17
-28.52
-20
-7.46
7.77
24.31
41.06
57.34
72.68
86.59
98.34
106.97
111.71
112.31
109.33
104.06
98.12
92.93
89.39
87.78
88.15
90.68
96
104.84
117.49
133.12
149.55
163.69
172.48
173.79
166.89
152.31
131.23
105.02
74.94
42.19
8.05
-26.19
-59.43
-90.81
-119.52
-144.45
-163.84
-175.52
-177.69
-169.89
-153.6
-132.08
-109.36
-88.84
-72.34
-59.82
-49.96
-41.2
-32.56
-23.95
-15.99
-9.46
-4.9
-2.41
-1.77
-2.65
-4.68
-7.4
-10.08
-11.77
-11.44
-8.42
-2.8
4.41
11.5
16.53
17.99
15.31
9.03
0.45
-8.83
-17.5
-24.96
-31.32
-37.27
-43.72
-51.37
-60.42
-70.37
-79.99
-87.62
-91.54
-90.55
-84.33
-73.55
-59.67
-44.44
-29.38
-15.43
-2.82
8.73
19.69
30.39
40.81
50.63
59.29
66.29
71.3
74.29
75.52
75.46
74.65
73.65
72.83
72.36
72.13
71.82
70.97
69.18
66.23
62.14
57.1
51.43
45.45
39.33
33.17
26.93
20.56
14.01
7.45
1.14
-4.49
-9.13
-12.66
-15.31
-17.55
-19.96
-22.94
-26.6
-30.79
-35.18
-39.46
-43.48
-47.28
-51.14
-55.54
-61.1
-68.36
-77.44
-87.66
-97.41
-104.46
-106.62
-102.65
-92.67
-78.21
-61.59
-45.04
-29.95
-16.69
-4.83
6.37
17.43
28.44
39.07
48.83
57.24
64.01
69.09
72.65
74.95
76.25
76.89
77.23
77.68
78.61
80.22
82.32
84.33
85.49
85.15
83.14
79.82
75.94
72.25
69.16
66.61
64.23
61.73
59.07
56.53
54.53
53.34
52.92
52.94
53
52.87
52.49
51.91
51.01
49.43
46.65
42.25
36.13
28.52
19.83
10.22
-0.48
-12.71
-26.65
-41.71
-56.4
-68.51
-75.87
-77.15
-72.36
-62.85
-50.75
-38.23
-26.79
-17
-8.44
-0.09
9.21
20.34
33.6
48.55
64.17
79.35
93.13
105.06
115.08
123.38
130.14
135.61
140.14
144.25
148.4
152.45
155.28
154.85
148.95
136.18
116.71
92.28
65.36
38.16
11.8
-13.64
-38.64
-63.57
-88.41
-112.85
-136.59
-159.46
-181.13
-200.79
-217.03
-228.18
-232.93
-231.02
-223.39
-211.99
-199.11
-186.93
-177.17
-171.05
-169.2
-171.43
-176.5
-182
-184.85
-182.13
-172.17
-155.17
-133.15
-109.15
-86.09
-65.87
-49.01
-35
-22.89
-11.86
-1.54
7.9
16.01
22.25
26.25
28.02
28.02
27.11
26.31
26.51
28.21
31.53
36.24
41.91
47.98
53.74
58.38
61.2
61.76
60.2
57.17
53.56
50.16
47.36
45.04
42.81
40.29
37.21
33.47
29.04
23.78
17.54
10.24
2.11
-6.37
-14.52
-21.73
-27.71
-32.6
-36.95
-41.54
-47.23
-54.64
-63.95
-74.66
-85.49
-94.52
-99.66
-99.21
-92.54
-80.35
-64.49
-47.38
-31.16
-17.17
-5.76
3.42
10.98
17.52
23.38
28.89
34.36
40.03
46.03
52.22
58.27
63.71
68.12
71.26
73.1
73.86
73.88
73.58
73.29
73.07
72.67
71.48
68.68
63.5
55.51
44.7
31.58
16.99
1.88
-12.98
-27.13
-40.49
-53.25
-65.61
-77.65
-89.04
-99.37
-108.19
-115.36
-121.05
-125.66
-129.62
-133.2
-136.58
-140.03
-144.03
-149.13
-155.49
-162.34
-167.76
-169.11
-164.01
-151.41
-132.07
-108.44
-83.61
-60.1
-39.13
-20.57
-3.57
12.71
28.52
43.53
57.08
68.61
77.96
85.39
91.36
96.42
101.01
105.38
109.59
113.6
117.39
120.96
124.39
127.84
131.41
135.12
139.01
143.04
146.95
150.18
151.78
150.63
145.84
137.15
125.16
111.16
96.59
82.61
69.69
57.8
46.52
35.4
23.99
11.77
-1.85
-17.41
-35.24
-55.35
-77.41
-100.92
-125.12
-148.84
-170.22
-186.82
-196.23
-196.93
-189.11
-174.78
-157.12
-139.29
-123.37
-109.97
-98.54
-88.1
-77.92
-67.74
-57.69
-48.01
-38.93
-30.61
-23.24
-16.88
-11.44
-6.51
-1.48
4.35
11.49
20.29
30.82
42.93
56.22
69.93
82.96
94.05
102.18
106.92
108.67
108.43
107.52
107.02
107.52
109.11
111.44
113.78
115.09
114.16
110
102.2
91.29
78.6
65.77
54.02
43.56
33.46
22.21
8.49
-8.04
-26.41
-44.66
-60.57
-72.42
-79.65
-82.92
-83.85
-84.3
-85.67
-88.41
-91.95
-95.07
-96.55
-95.71
-92.62
-87.99
-82.75
-77.7
-73.31
-69.69
-66.85
-64.81
-63.64
-63.36
-63.79
-64.53
-65.1
-65.08
-64.4
-63.3
-62.12
-61.07
-59.89
-57.86
-53.99
-47.47
-38.15
-26.65
-14.4
-3.15
5.6
11.1
13.52
13.72
12.83
11.66
10.4
8.62
5.43
-0.13
-8.71
-20.29
-33.92
-47.72
-59.18
-65.8
-65.87
-59.03
-46.51
-30.7
-14.45
-0.34
10.14
17.05
22.05
27.92
37.38
51.89
70.67
90.83
108.4
120.09
124.61
123
117.76
111.44
105.53
100.23
95.02
89.45
83.62
78.01
73.07
68.76
64.53
59.61
53.33
45.34
35.72
25.01
14.07
3.95
-4.33
-10.15
-13.53
-15.2
-16.34
-18.19
-21.73
-27.52
-35.69
-45.93
-57.57
-69.29
-79.25
-85.35
-85.83
-80.02
-68.79
-54.26
-39.07
-25.34
-13.99
-4.75
3.33
11.22
19.32
27.43
35.02
41.57
46.79
50.62
53.15
54.51
54.87
54.47
53.66
52.9
52.69
53.43
55.25
57.9
60.71
62.75
63.14
61.35
57.44
51.98
45.75
39.42
33.31
27.36
21.35
15.11
8.64
2.08
-4.42
-10.88
-17.47
-24.51
-32.34
-41.33
-51.71
-63.42
-75.87
-87.71
-96.97
-101.48
-99.71
-91.4
-77.86
-61.51
-45.1
-30.79
-19.64
-11.72
-6.45
-3.02
-0.63
1.58
4.46
8.77
14.85
22.29
29.97
36.41
40.28
40.94
38.71
34.62
30.05
26.19
23.68
22.51
22.2
22.2
22.11
21.93
21.9
22.36
23.48
25.17
27.11
28.88
30.11
30.6
30.35
29.65
28.9
28.57
28.96
30.01
31.16
31.47
29.76
25.03
16.77
5.37
-7.91
-20.98
-31.46
-37.33
-37.61
-32.76
-24.57
-15.6
-8.25
-4.07
-3.44
-5.61
-9.18
-12.54
-14.36
-13.84
-10.97
-6.49
-1.77
1.65
2.62
0.77
-3.28
-8.31
-12.96
-16.28
-18
-18.45
-18.24
-17.87
-17.6
-17.43
-17.15
-16.56
-15.55
-14.12
-12.29
-10.02
-7.24
-3.89
-0.17
3.51
6.46
8.08
8.09
6.6
3.94
0.31
-4.38
-10.39
-17.72
-25.69
-32.69
-36.75
-36.24
-30.67
-20.93
-8.97
3.08
13.69
22.32
29.32
35.34
40.8
45.66
49.5
51.91
52.87
52.89
52.81
53.41
55.06
57.43
59.61
60.34
58.5
53.41
45.13
34.39
22.49
10.97
1.15
-6.25
-11.39
-15.29
-19.5
-25.5
-34.22
-45.65
-58.75
-71.73
-82.51
-89.32
-91.27
-88.71
-83.24
-77.31
-73.42
-73.24
-77.02
-83.35
-89.7
-93.26
-91.9
-84.76
-72.34
-56.15
-38.23
-20.59
-4.82
8.11
17.95
25.05
30.16
34.24
38.2
42.65
47.76
53.28
58.71
63.49
67.28
69.97
71.77
73.12
74.55
76.55
79.33
82.67
85.8
87.57
86.65
82.1
73.76
62.48
49.98
38.3
29.14
23.25
20.25
18.8
17.07
13.3
6.24
-4.46
-18.18
-33.38
-47.96
-59.75
-67.12
-69.41
-67.16
-61.84
-55.26
-48.85
-43.21
-38.08
-32.64
-26.15
-18.33
-9.49
-0.34
8.48
16.55
23.76
30.16
35.71
40.25
43.62
45.87
47.46
49.11
51.55
55.15
59.64
64.12
67.4
68.45
66.81
62.66
56.65
49.36
41
31.21
19.36
4.95
-11.94
-30.6
-49.82
-68.18
-84.32
-97.08
-105.6
-109.39
-108.56
-103.91
-96.82
-88.93
-81.58
-75.33
-69.85
-64.12
-56.96
-47.61
-36.04
-23.02
-9.85
2.11
11.88
19.13
24.21
27.81
30.63
33.01
34.85
35.76
35.41
33.76
31.24
28.53
26.36
25.19
25.12
25.9
27.04
27.91
27.89
26.39
23.02
17.74
11.06
4.07
-1.63
-4.38
-2.96
2.9
12.35
23.62
34.61
43.53
49.42
52.19
52.36
50.64
47.54
43.28
37.94
31.58
24.42
16.88
9.45
2.69
-2.87
-6.82
-8.95
-9.39
-8.65
-7.6
-7.26
-8.59
-12.18
-18.17
-26.25
-35.75
-45.84
-55.74
-64.99
-73.47
-81.5
-89.54
-97.88
-106.17
-113.31
-117.64
-117.52
-112.06
-101.49
-87.19
-71.21
-55.52
-41.48
-29.62
-19.74
-11.28
-3.61
3.71
10.85
17.73
24.1
29.64
34.14
37.61
40.33
42.72
45.15
47.56
49.55
50.39
49.39
46.22
41.14
34.87
28.39
22.57
17.87
14.28
11.47
8.97
6.47
3.91
1.35
-1.08
-3.44
-5.96
-8.97
-12.77
-17.48
-22.92
-28.64
-33.91
-37.85
-39.49
-38
-32.96
-24.43
-13.17
-0.33
12.77
25.02
35.76
44.79
52.28
58.57
64.08
69.21
74.27
79.4
84.46
88.98
92.23
93.52
92.52
89.5
85.33
81.21
78.13
76.47
75.82
75.21
73.57
70.16
64.75
57.54
49
39.6
29.83
20.12
10.85
2.29
-5.53
-12.77
-19.64
-26.29
-32.68
-38.71
-44.32
-49.54
-54.45
-59.05
-63.13
-66.43
-68.67
-69.6
-68.95
-66.34
-61.37
-53.77
-43.79
-32.28
-20.47
-9.56
-0.21
7.58
14.32
20.47
26.19
31.13
34.82
36.97
37.75
37.7
37.42
37.26
37.27
37.31
37.31
37.38
37.79
38.8
40.45
42.52
44.68
46.62
48.18
49.27
49.9
50.08
49.87
49.38
48.69
47.77
46.47
44.59
42.08
39.08
36
33.28
31.21
29.84
29.12
29.04
29.64
30.93
32.66
34.11
34.03
30.85
23.18
10.45
-6.56
-25.57
-43.35
-56.67
-63.39
-63.19
-57.53
-48.81
-39.26
-30.15
-21.64
-13.25
-4.62
4.13
12.45
19.81
26.07
31.51
36.47
40.92
44.28
45.52
43.81
39
31.97
24.43
18.48
15.93
17.76
23.88
33.09
43.4
52.51
58.29
59.19
54.52
44.71
31.25
16.46
2.88
-7.37
-13.4
-15.78
-16.34
-17.47
-20.97
-27.37
-35.75
-44.26
-51.03
-55.05
-56.55
-56.84
-57.93
-61.9
-70.47
-84.5
-103.59
-125.84
-148.06
-166.43
-177.59
-179.66
-172.78
-158.87
-140.81
-121.38
-102.64
-85.68
-71.01
-58.79
-49.05
-41.63
-35.98
-31.18
-26.14
-19.97
-12.27
-3.18
6.73
16.73
26.17
34.68
42.17
48.81
54.82
60.37
65.43
69.77
73.02
74.88
75.27
74.34
72.39
69.75
66.67
63.27
59.51
55.24
50.13
43.81
36.02
26.87
16.88
6.94
-2.09
-9.69
-15.99
-21.64
-27.56
-34.64
-43.4
-53.96
-66.01
-78.72
-90.69
-100.11
-105.07
-104.23
-97.36
-85.68
-71.48
-57.39
-45.53
-36.86
-31.18
-27.5
-24.64
-21.71
-18.4
-14.8
-11.25
-8.06
-5.42
-3.37
-1.86
-0.8
-0.14
0.27
0.58
1.04
1.86
3.17
4.76
6.17
6.85
6.33
4.53
1.7
-1.63
-4.95
-7.89
-10.3
-12.2
-13.73
-15.07
-16.45
-18.14
-20.5
-23.78
-28.03
-33.08
-38.47
-43.73
-48.5
-52.66
-56.43
-60.23
-64.62
-70.14
-77.12
-85.48
-94.58
-103.15
-109.45
-111.7
-108.71
-100.38
-87.88
-73.41
-59.44
-47.93
-39.78
-34.76
-31.95
-30.23
-28.78
-27.2
-25.46
-23.62
-21.78
-19.96
-18.11
-16.24
-14.31
-12.3
-10.15
-7.82
-5.24
-2.36
0.8
4.29
8.05
12.01
15.92
19.38
21.97
23.33
23.3
22.02
19.97
17.74
15.91
14.68
13.75
12.41
9.8
5.34
-0.96
-8.51
-16.41
-23.81
-30.32
-36.07
-41.64
-47.66
-54.63
-62.72
-71.73
-81.03
-89.48
-95.47
-97.21
-93.19
-82.81
-66.82
-47.19
-26.66
-7.82
7.58
19.14
27.62
34.56
41.5
49.48
58.67
68.37
77.32
84.09
87.65
87.69
84.78
80.19
75.49
71.96
70.21
70.12
71.04
72.15
72.79
72.52
71.07
68.16
63.55
57.19
49.57
41.79
35.25
31.08
29.43
29.36
29.2
27.36
23.2
17.25
10.85
5.28
1.05
-2.34
-6.02
-11.05
-17.85
-26.24
-35.65
-45.59
-55.67
-65.36
-73.59
-78.65
-78.56
-71.93
-58.76
-40.73
-20.78
-2.07
13.12
24.01
31.36
36.72
41.51
46.35
50.84
53.88
54.35
51.64
45.89
37.85
28.54
19.06
10.54
4.21
1.34
2.79
8.56
17.23
26.3
32.93
35
31.98
24.92
15.78
6.37
-2.33
-10.3
-17.9
-25.16
-31.47
-35.71
-36.94
-34.85
-30.1
-24.08
-18.43
-14.52
-13.16
-14.58
-18.63
-25.08
-33.57
-43.44
-53.31
-61.12
-64.37
-61.02
-50.36
-33.5
-13.16
7.32
25.19
39.12
49.26
56.73
62.77
68.22
73.45
78.41
82.9
86.54
88.69
88.45
84.96
77.7
66.82
53.22
38.34
23.73
10.77
0.36
-7.16
-11.99
-14.77
-16.32
-17.4
-18.53
-19.91
-21.67
-23.92
-26.94
-30.95
-35.87
-41.21
-46.13
-49.82
-51.88
-52.6
-52.82
-53.55
-55.58
-59.22
-64.37
-70.63
-77.41
-83.87
-88.76
-90.39
-87.03
-77.66
-62.73
-44.33
-25.48
-8.71
5.32
18.21
32.92
52.01
75.88
102.25
127.12
146.75
159.36
165.67
167.92
168.27
167.46
164.84
159.34
150.7
139.98
129
119.24
110.97
103.27
94.86
85.19
74.86
65.19
57.24
51.01
45.31
38.63
30.18
20.4
10.78
2.9
-2.6
-6.34
-9.9
-14.91
-22.28
-31.91
-42.98
-54.36
-64.88
-73.32
-78.28
-78.34
-72.48
-60.64
-44.06
-24.94
-5.78
11.52
26.04
37.79
47.19
54.5
59.6
62.03
61.38
57.63
51.34
43.58
35.63
28.6
23.16
19.47
17.21
15.92
15.18
14.67
13.99
12.47
9.25
3.52
-5.06
-16.1
-28.57
-41.3
-53.35
-64.35
-74.32
-83.53
-92.27
-100.96
-110.21
-120.81
-133.24
-146.99
-160.17
-169.85
-173.16
-168.58
-156.74
-140.28
-122.8
-107.53
-96.36
-89.68
-86.84
-86.83
-88.73
-91.59
-94.26
-95.13
-92.35
-84.49
-71.18
-53.5
-33.71
-14.52
1.79
14.17
22.88
29.19
34.49
39.63
44.61
48.75
51.21
51.55
49.92
46.96
43.49
40.15
37.21
34.56
31.79
28.38
23.88
17.97
10.74
2.8
-4.69
-10.14
-11.86
-8.6
-0.02
13.22
29.53
46.99
63.86
79.08
92.34
103.98
114.56
124.55
134.07
142.94
150.77
157.21
162.12
165.63
168.06
169.69
170.59
170.48
168.84
165.02
158.56
149.31
137.55
123.82
108.75
92.86
76.47
59.79
43.04
26.56
10.85
-3.77
-17.31
-30.3
-43.45
-57.15
-70.94
-83.25
-91.92
-95.01
-91.64
-82.43
-69.31
-54.8
-41.25
-30.19
-22.25
-17.18
-14.24
-12.55
-11.31
-10.05
-8.56
-6.95
-5.5
-4.54
-4.38
-5.33
-7.55
-11.05
-15.67
-21.02
-26.61
-32.06
-37.2
-42.16
-47.27
-52.96
-59.55
-67.18
-75.73
-84.85
-94.01
-102.71
-110.56
-117.46
-123.57
-129.06
-133.93
-137.72
-139.58
-138.56
-133.96
-125.69
-114.33
-100.82
-86.22
-71.41
-56.97
-43.27
-30.61
-19.43
-10.38
-4.19
-1.5
-2.65
-7.41
-14.87
-23.56
-31.55
-36.87
-37.84
-33.64
-24.69
-12.88
-1.22
6.89
8.89
3.95
-6.64
-19.92
-32.07
-39.43
-39.51
-32.07
-19.51
-6.88
-0.63
-6.41
-26.75
-59.61
-98.8
-136.12
-164.12
-178.22
-177.25
-162.68
-137.47
-105.23
-70.03
-36.17
-7.28
14.7
30.4
42.39
53.59
65.66
78.25
89.5
97.44
101.23
101.41
99.23
95.69
91.15
85.57
78.83
71.18
63.13
55.13
47.5
40.61
35.06
31.64
30.82
32.05
33.69
33.55
29.97
22.81
13.82
6.14
3.19
7.41
19.38
37.64
59.12
80.12
97.37
108.76
113.71
112.9
107.78
99.89
90.34
79.4
66.55
50.83
31.41
8.29
-17.4
-43.31
-66.53
-84.42
-95.23
-98.36
-94.06
-83.12
-66.64
-46.12
-23.64
-1.82
16.78
30.4
38.64
42.4
43.28
42.84
42.03
40.99
39.26
36.17
31.06
23.69
14.48
4.64
-3.99
-9.3
-9.68
-4.64
5.03
17.45
30.33
41.75
50.69
57.1
61.69
65.33
68.77
72.32
75.98
79.48
82.53
84.85
86.19
86.32
85.1
82.49
78.68
73.99
68.87
63.68
58.71
54.1
50.03
46.74
44.49
43.38
43.22
43.41
43.23
42.08
39.83
36.83
33.75
31.29
29.95
29.83
30.72
32.12
33.17
32.69
29.44
22.51
11.9
-1.28
-14.83
-26.14
-33.04
-34.49
-30.91
-23.69
-14.39
-3.79
8.42
23.25
41.64
63.53
87.61
111.58
132.88
149.39
159.86
163.92
161.99
155.08
144.62
132.37
119.96
108.43
97.95
87.95
77.63
66.59
55.01
43.51
32.79
23.22
14.83
7.48
1.12
-4.29
-8.81
-12.81
-16.93
-21.86
-28.02
-35.3
-43.02
-50.28
-56.35
-61.06
-64.81
-68.39
-72.46
-77.19
-81.92
-85.26
-85.32
-80.43
-69.73
-53.88
-35.25
-17.35
-3.66
3.76
5.17
2.85
-0.01
-0.7
2.25
9.09
19.41
32.42
46.74
59.94
68.52
68.78
58.26
37.13
8.42
-22.92
-51.88
-75.06
-91.44
-102.15
-109.35
-115.03
-120.15
-124.33
-126.24
-124.4
-117.58
-104.93
-85.97
-60.6
-29.62
4.69
38.26
66.06
83.64
88.96
83.21
70.09
53.84
37.35
21.39
5.33
-11.28
-27.63
-41.7
-51.28
-55.15
-53.53
-47.74
-39.28
-29.14
-17.65
-5.01
7.93
19.49
27.56
30.7
29.11
24.89
21.25
21.07
25.48
33.44
42.45
50.06
55.1
57.83
58.96
58.39
54.75
45.93
30.46
8.58
-17.77
-45.73
-72.63
-96.44
-115.44
-127.62
-130.63
-122.85
-104.76
-79.89
-54.02
-33.02
-20.61
-16.98
-19.13
-22.75
-24.18
-21.93
-16.69
-10.5
-5.39
-2.46
-1.61
-1.92
-2.48
-3.14
-4.85
-9.35
-18.12
-31.26
-46.68
-60.37
-67.98
-66.55
-56.01
-39.13
-20.25
-3.3
9.89
19.91
29.01
39.33
51.55
64.59
76.35
85.14
90.72
94.48
98.43
104.03
111.17
118.11
122.35
121.9
116.23
106.61
95.42
84.99
76.62
70.17
64.56
58.61
51.84
44.63
37.82
31.94
26.77
21.29
14.25
4.79
-7.1
-20.61
-34.45
-47.29
-58.04
-66.02
-70.98
-72.83
-71.49
-66.83
-58.93
-48.42
-36.72
-25.82
-17.67
-13.41
-12.99
-15.14
-17.97
-19.66
-19.04
-16.07
-11.8
-8.15
-7.23
-10.6
-18.55
-30.02
-43.11
-56.09
-68.19
-79.67
-91.32
-103.86
-117.89
-134.16
-153.8
-177.64
-205.19
-233.82
-259.09
-276.56
-283.88
-282.15
-275.3
-268.07
-263.67
-262.55
-262.89
-262.11
-258.35
-251.09
-240.64
-227.21
-210.3
-188.76
-161.36
-127.45
-87.29
-42.34
4.76
50.36
90.26
120.58
138.72
144.22
138.86
125.92
108.94
90.41
71.44
52.03
32.15
12.55
-4.99
-18.29
-25.75
-27.11
-23.51
-16.91
-9.19
-1.51
5.9
13.21
20.42
27.14
32.82
37.24
40.97
45.13
50.72
57.7
64.63
69.15
69.32
64.81
57.42
50.2
45.7
44.57
45.24
45.05
41.92
35.41
26.4
15.8
3.63
-10.93
-28.34
-47.49
-65.6
-79.52
-87.68
-91.24
-93.58
-98.45
-107.9
-121.44
-136.78
-151.52
-164.48
-176.06
-187.45
-199.52
-212.03
-223.63
-232.27
-235.91
-233.08
-223.22
-206.97
-185.99
-162.52
-138.74
-116
-94.4
-72.89
-50.12
-25.55
-0.2
23.52
42.92
56.47
64.59
69.55
74.16
80.46
88.66
97.4
104.68
109.02
110.1
108.58
105.37
100.89
94.93
87.02
77.07
65.86
55.08
46.77
42.49
42.45
45.29
48.56
49.71
47.32
41.45
33.38
24.72
16.55
9.38
3.61
0.09
0.34
5.86
17.15
33.02
50.82
67.56
81.2
91.51
99.72
107.54
115.93
124.69
132.68
138.63
141.87
142.55
141.3
138.86
135.65
131.9
127.75
123.45
119.37
115.74
112.51
109.23
105.24
99.97
93.22
85.25
76.68
68.25
60.52
53.69
47.42
41.02
33.56
24.3
12.95
0.03
-13.09
-24.32
-31.42
-32.69
-27.55
-16.81
-2.46
13
27.37
39.33
48.61
55.75
61.55
66.58
70.93
74.2
75.86
75.55
73.38
69.94
66.13
62.75
60.26
58.59
57.29
55.79
53.66
50.78
47.25
43.3
39.07
34.62
29.83
24.56
18.6
11.73
3.7
-5.62
-16.01
-26.74
-36.44
-43.39
-45.97
-43.3
-35.53
-23.91
-10.3
3.4
15.87
26.51
35.35
42.64
48.53
52.78
54.95
54.64
51.81
46.96
41.11
35.5
31.13
28.44
27.17
26.49
25.48
23.49
20.46
16.72
12.8
9.02
5.33
1.37
-3.27
-8.9
-15.66
-23.52
-32.31
-41.66
-50.8
-58.51
-63.26
-63.59
-58.65
-48.62
-34.71
-18.87
-3.13
10.95
22.63
31.9
39.23
45.22
50.28
54.59
58.1
60.64
62.05
62.29
61.43
59.64
57.19
54.37
51.49
48.86
46.66
44.89
43.28
41.32
38.42
34.11
28.31
21.3
13.7
6.16
-0.86
-7.28
-13.44
-19.96
-27.49
-36.42
-46.65
-57.33
-66.94
-73.59
-75.53
-71.76
-62.5
-49.12
-33.69
-18.34
-4.56
7.08
16.81
25.23
32.86
39.89
46.21
51.6
55.94
59.25
61.61
63.09
63.69
63.39
62.28
60.66
58.97
57.61
56.82
56.51
56.34
55.83
54.55
52.25
48.93
44.77
40.09
35.23
30.46
25.91
21.54
17.09
12.3
6.92
0.93
-5.44
-11.76
-17.6
-22.71
-27.13
-31.19
-35.44
-40.42
-46.59
-54.12
-62.78
-71.82
-79.99
-85.65
-87.21
-83.63
-74.91
-62.08
-47.01
-31.77
-17.98
-6.44
2.85
10.47
17.07
23.13
28.83
34.16
39.03
43.31
46.85
49.43
50.81
50.86
49.64
47.55
45.18
43.17
41.96
41.67
42.02
42.44
42.31
41.13
38.7
35.11
30.7
25.95
21.29
17.02
13.25
9.89
6.71
3.44
-0.17
-4.18
-8.54
-13.03
-17.39
-21.39
-24.97
-28.32
-31.84
-36.09
-41.57
-48.44
-56.26
-63.93
-69.85
-72.42
-70.66
-64.53
-55.05
-43.88
-32.72
-22.8
-14.6
-7.95
-2.35
2.64
7.33
11.74
15.8
19.34
22.22
24.34
25.61
26.05
25.72
24.83
23.63
22.43
21.5
20.98
20.87
20.93
20.82
20.13
18.57
16.03
12.63
8.7
4.69
1.03
-1.96
-4.17
-5.75
-7.07
-8.58
-10.65
-13.47
-17
-21.02
-25.35
-29.99
-35.13
-40.94
-47.29
-53.44
-58.17
-60.09
-58.25
-52.59
-44.06
-34.27
-24.9
-17.04
-10.99
-6.29
-2.23
1.8
6
10.23
14.18
17.58
20.31
22.32
23.62
24.21
24.12
23.47
22.48
21.47
20.68
20.29
20.26
20.48
20.7
20.67
20.12
18.91
16.95
14.29
11.14
7.79
4.59
1.83
-0.36
-2.06
-3.56
-5.23
-7.4
-10.23
-13.62
-17.3
-20.85
-23.98
-26.59
-28.77
-30.82
-33.05
-35.8
-39.26
-43.48
-48.21
-52.8
-56.23
-57.37
-55.35
-49.97
-41.84
-32.27
-22.71
-14.38
-7.8
-2.89
0.9
4.14
7.28
10.48
13.67
16.7
19.36
21.42
22.72
23.17
22.83
21.92
20.75
19.63
18.76
18.22
17.91
17.64
17.25
16.63
15.81
14.87
13.86
12.79
11.62
10.28
8.75
7.06
5.28
3.47
1.67
-0.15
-2.03
-4.04
-6.21
-8.57
-11.1
-13.74
-16.41
-19.02
-21.49
-23.8
-26.01
-28.27
-30.82
-33.91
-37.78
-42.46
-47.61
-52.49
-56.04
-57.18
-55.2
-50.03
-42.4
-33.51
-24.75
-17.16
-11.28
-7.09
-4.18
-2
-0.1
1.84
3.97
6.35
8.9
11.47
13.8
15.65
16.84
17.3
17.15
16.62
16.01
15.51
15.2
15.06
14.92
14.62
14.02
13.1
11.92
10.61
9.29
8.07
6.95
5.9
4.82
3.63
2.29
0.76
-0.95
-2.8
-4.73
-6.68
-8.65
-10.64
-12.67
-14.75
-16.83
-18.82
-20.64
-22.27
-23.81
-25.51
-27.66
-30.49
-34.14
-38.46
-42.98
-46.91
-49.3
-49.31
-46.45
-40.85
-33.24
-24.82
-16.84
-10.27
-5.49
-2.37
-0.39
0.99
2.2
3.44
4.74
6.07
7.39
8.72
10.05
11.38
12.63
13.67
14.41
14.85
15.07
15.24
15.52
15.97
16.51
16.97
17.08
16.66
15.64
14.1
12.25
10.26
8.26
6.3
4.37
2.51
0.75
-0.86
-2.33
-3.78
-5.42
-7.51
-10.2
-13.48
-17.12
-20.77
-24.08
-26.83
-28.99
-30.77
-32.52
-34.69
-37.62
-41.44
-45.87
-50.15
-53.2
-53.89
-51.47
-45.95
-38.11
-29.32
-20.96
-13.99
-8.7
-4.79
-1.69
1.12
3.91
6.67
9.31
11.68
13.69
15.27
16.38
16.99
17.13
16.95
16.62
16.35
16.27
16.48
16.98
17.72
18.54
19.2
19.39
18.85
17.46
15.3
12.67
9.94
7.48
5.51
4.01
2.78
1.52
-0.07
-2.21
-4.94
-8.13
-11.54
-14.84
-17.79
-20.28
-22.45
-24.58
-27.09
-30.37
-34.66
-39.92
-45.75
-51.36
-55.68
-57.6
-56.35
-51.74
-44.35
-35.36
-26.12
-17.83
-11.07
-5.85
-1.77
1.66
4.78
7.72
10.47
13.01
15.36
17.56
19.6
21.41
22.86
23.84
24.34
24.48
24.44
24.49
24.84
25.59
26.64
27.73
28.5
28.6
27.8
26.1
23.71
20.98
18.2
15.56
13.1
10.65
8.05
5.16
1.96
-1.44
-4.85
-8.11
-11.08
-13.76
-16.26
-18.81
-21.76
-25.49
-30.23
-35.84
-41.67
-46.55
-49.17
-48.49
-44.21
-36.88
-27.77
-18.36
-9.89
-3
2.33
6.47
9.93
13.11
16.19
19.2
22.09
24.83
27.35
29.5
31.15
32.16
32.43
32.09
31.38
30.61
30.06
29.81
29.76
29.65
29.15
28.04
26.22
23.79
20.99
18.09
15.28
12.61
9.98
7.21
4.12
0.59
-3.39
-7.75
-12.33
-16.88
-21.13
-24.79
-27.73
-30.11
-32.38
-35.13
-38.77
-43.15
-47.41
-50.17
-49.96
-45.87
-37.93
-27.18
-15.31
-4.09
5.23
12.17
17.1
20.92
24.62
28.92
34.04
39.62
45.02
49.61
53.06
55.38
56.87
58.03
59.45
61.83
65.84
71.71
78.85
85.56
89.3
87.56
78.91
63.79
44.27
23.16
2.66
-16.47
-34.91
-53.67
-73.06
-92.02
-108.44
-120.14
-125.96
-126.19
-122.38
-116.53
-110.26
-104.55
-99.7
-95.72
-92.49
-89.75
-86.95
-83.12
-77.13
-68.09
-55.84
-41.2
-25.74
-11.27
0.8
9.84
16.15
20.57
24.18
27.75
31.58
35.54
39.25
42.35
44.64
46.13
46.93
47.09
46.58
45.28
43.18
40.48
37.64
35.22
33.56
32.66
32.06
31.1
29.18
26.09
22.1
17.86
14.03
11.01
8.83
7.11
5.38
3.18
0.21
-3.72
-8.64
-14.37
-20.37
-25.7
-29.12
-29.49
-26.23
-19.71
-11.14
-2.24
5.48
11.26
15.2
18.07
20.74
23.74
27.08
30.32
32.93
34.49
34.92
34.48
33.5
32.29
31.02
29.6
27.95
25.97
23.72
21.34
18.96
16.6
14.1
11.15
7.47
2.97
-2.19
-7.6
-12.71
-17.1
-20.61
-23.37
-25.8
-28.36
-31.44
-35.21
-39.54
-43.95
-47.73
-50.03
-50.05
-47.31
-41.83
-34.23
-25.56
-17.09
-9.81
-4.25
-0.28
2.63
5.16
7.78
10.61
13.38
15.66
17.12
17.64
17.4
16.72
15.94
15.24
14.65
14.05
13.31
12.35
11.12
9.63
7.83
5.68
3.12
0.2
-2.95
-6.15
-9.19
-12.09
-15.02
-18.35
-22.41
-27.21
-32.27
-36.62
-39.06
-38.59
-34.87
-28.35
-20.23
-12.05
-5.11
-0.12
2.98
4.78
6.1
7.53
9.39
11.63
14.07
16.48
18.67
20.45
21.63
21.99
21.45
20.11
18.32
16.48
14.94
13.77
12.79
11.58
9.76
7.07
3.53
-0.61
-5
-9.26
-13.19
-16.88
-20.68
-25.09
-30.56
-37.13
-44.25
-50.78
-55.28
-56.53
-53.91
-47.75
-39.11
-29.47
-20.21
-12.16
-5.58
-0.2
4.5
8.99
13.56
18.27
22.97
27.38
31.18
34.1
36.02
36.95
37.05
36.52
35.58
34.44
33.24
32.08
30.95
29.75
28.33
26.52
24.17
21.23
17.73
13.73
9.37
4.78
0.18
-4.26
-8.36
-12.07
-15.48
-18.81
-22.36
-26.43
-31.29
-37.13
-43.96
-51.54
-59.21
-65.87
-70.18
-70.95
-67.6
-60.39
-50.45
-39.32
-28.48
-18.87
-10.8
-4.04
1.9
7.49
13.11
18.9
24.85
30.69
36
40.32
43.38
45.16
45.95
46.18
46.19
46.11
45.86
45.34
44.51
43.46
42.34
41.15
39.74
37.88
35.37
32.17
28.43
24.4
20.35
16.5
12.91
9.53
6.13
2.51
-1.51
-5.91
-10.51
-14.99
-19.12
-22.84
-26.33
-29.94
-34.12
-39.22
-45.47
-52.72
-60.36
-67.28
-72.03
-73.19
-69.91
-62.31
-51.46
-39.1
-26.96
-16.26
-7.43
-0.23
5.9
11.52
17.02
22.51
27.92
33.07
37.69
41.5
44.3
46.01
46.72
46.71
46.3
45.77
45.3
44.95
44.72
44.59
44.46
44.14
43.39
41.98
39.76
36.79
33.32
29.73
26.37
23.39
20.76
18.21
15.41
12.06
8.02
3.34
-1.72
-6.77
-11.46
-15.55
-19.06
-22.19
-25.32
-28.86
-33.25
-38.81
-45.55
-53.02
-60.17
-65.51
-67.5
-65.07
-58.17
-47.79
-35.69
-23.72
-13.25
-4.78
1.94
7.57
12.81
18.04
23.35
28.54
33.33
37.43
40.6
42.77
43.99
44.42
44.35
44.05
43.72
43.5
43.41
43.37
43.27
42.94
42.22
40.98
39.12
36.67
33.74
30.49
27.13
23.87
20.85
18.1
15.53
12.92
10.07
6.83
3.22
-0.64
-4.53
-8.26
-11.73
-14.92
-17.96
-21
-24.32
-28.25
-33.13
-39.11
-46
-53.01
-58.88
-62.16
-61.66
-56.96
-48.6
-37.93
-26.66
-16.29
-7.69
-0.96
4.37
9
13.53
18.2
22.95
27.47
31.37
34.32
36.16
36.86
36.58
35.61
34.28
32.99
32.05
31.66
31.78
32.09
32.1
31.3
29.4
26.43
22.7
18.68
14.82
11.42
8.63
6.44
4.83
3.71
2.95
2.29
1.42
0
-2.09
-4.73
-7.49
-9.8
-11.13
-11.23
-10.36
-9.3
-9.1
-10.71
-14.44
-19.64
-24.65
-27.36
-25.84
-19.12
-7.56
7.27
23
37.18
47.9
54.27
56.61
56.32
55.46
56.04
59.22
64.97
72.11
79
84.47
88.55
92.59
98.78
109.37
125.73
147.83
173.96
200.85
224.29
240.06
245.1
238.46
221.59
197.83
171.18
144.99
121.21
100.43
82.5
67.37
55.36
46.93
42.2
40.43
40.09
39.21
35.86
28.5
16.19
-1.18
-22.5
-45.24
-65.55
-79.16
-82.71
-75.21
-58.84
-38.54
-20.47
-10.11
-10.57
-22.07
-42.5
-68.68
-97.62
-127.12
-155.74
-182.39
-206.06
-225.81
-241.05
-251.73
-258.33
-261.3
-260.49
-254.84
-242.63
-222.35
-193.68
-158.19
-119.25
-81.21
-48.06
-22.28
-4.28
7.35
15.04
21.24
27.62
34.84
42.74
50.74
58.29
65.03
70.82
75.64
79.45
82.12
83.45
83.22
81.45
78.47
74.78
70.7
65.86
59.03
48.41
32.48
10.93
-14.85
-42.15
-67.87
-89.63
-106.47
-118.65
-126.97
-131.96
-133.55
-131.23
-124.55
-113.58
-98.9
-81.55
-62.71
-43.61
-25.47
-9.36
3.96
14.28
22.04
28.15
33.65
39.36
45.69
52.66
60.06
67.64
75.26
82.88
90.51
98.11
105.57
112.74
119.43
125.61
131.38
137.01
142.73
148.49
153.79
157.7
159.08
156.96
150.82
140.68
127.03
110.66
92.55
73.74
55.16
37.41
20.41
3.16
-16.14
-39.42
-67.77
-100.57
-135.19
-167.61
-193.67
-210.45
-217.17
-215.27
-207.6
-197.43
-187.46
-179.39
-173.86
-170.65
-168.87
-167.12
-163.84
-157.6
-147.71
-134.37
-118.71
-102.37
-86.96
-73.57
-62.61
-53.88
-46.81
-40.72
-34.94
-28.91
-22.32
-15.25
-8.14
-1.81
2.86
5.19
5.05
2.88
-0.43
-3.87
-6.64
-8.39
-9.29
-9.91
-10.95
-12.99
-16.22
-20.48
-25.29
-30.08
-34.45
-38.29
-41.81
-45.44
-49.77
-55.29
-62.22
-70.33
-78.7
-85.79
-89.72
-88.83
-82.3
-70.57
-55.37
-39.13
-24.25
-12.34
-3.92
1.59
5.28
8.33
11.59
15.35
19.57
23.93
28.08
31.7
34.59
36.66
37.84
38.18
37.72
36.61
35.11
33.58
32.36
31.73
31.65
31.88
31.97
31.48
30.22
28.37
26.34
24.56
23.18
21.93
20.2
17.31
12.84
6.9
0.05
-6.87
-13.02
-17.97
-21.73
-24.81
-28.07
-32.47
-38.78
-47.32
-57.63
-68.33
-77.46
-82.89
-83.13
-77.76
-67.62
-54.5
-40.43
-27.15
-15.6
-5.97
2.05
8.99
15.34
21.45
27.47
33.41
39.09
44.24
48.55
51.79
53.96
55.21
55.8
55.89
55.56
54.83
53.76
52.5
51.3
50.4
49.82
49.34
48.57
47.1
44.73
41.54
37.89
34.22
30.84
27.77
24.72
21.22
16.82
11.35
4.95
-1.91
-8.67
-14.84
-20.23
-24.97
-29.5
-34.48
-40.6
-48.42
-58.09
-69.05
-79.95
-88.77
-93.29
-91.9
-84.2
-71.2
-55.05
-38.29
-23.02
-10.4
-0.58
7.07
13.47
19.49
25.73
32.44
39.49
46.48
52.76
57.77
61.22
63.16
63.99
64.25
64.38
64.65
65.13
65.76
66.5
67.24
67.78
67.79
66.79
64.33
60.27
54.8
48.54
42.35
36.96
32.68
29.24
25.91
21.83
16.46
9.85
2.61
-4.46
-10.69
-15.93
-20.53
-25.21
-30.77
-37.77
-46.56
-57
-68.46
-79.69
-88.82
-93.77
-92.81
-85.31
-72.12
-55.43
-38.04
-22.47
-10.17
-1.26
5.18
10.49
15.81
21.69
28.09
34.55
40.52
45.56
49.42
52.06
53.57
54.08
53.82
53.08
52.27
51.84
52.15
53.34
55.13
56.86
57.67
56.83
54.04
49.55
44.07
38.51
33.64
29.74
26.55
23.38
19.4
14.07
7.36
-0.22
-7.84
-14.72
-20.44
-25.06
-29.05
-33.12
-37.97
-44.2
-52.05
-61.2
-70.55
-78.34
-82.44
-81.11
-73.66
-60.87
-44.79
-28
-12.8
-0.52
8.64
15.35
20.61
25.33
30.05
34.91
39.78
44.34
48.27
51.32
53.4
54.59
55.04
54.95
54.51
53.86
53.15
52.49
51.99
51.57
51.02
49.95
47.95
44.74
40.37
35.2
29.85
24.96
20.91
17.71
14.97
12.12
8.56
3.99
-1.53
-7.54
-13.44
-18.7
-23.09
-26.75
-30.17
-34.06
-39.11
-45.85
-54.49
-64.7
-75.46
-85.05
-91.35
-92.41
-87.16
-75.95
-60.53
-43.55
-27.6
-14.45
-4.6
2.56
8.18
13.35
18.75
24.52
30.42
36.05
41.01
44.92
47.54
48.85
49.04
48.58
48.01
47.79
48.16
49.05
50.15
51.04
51.34
50.73
49.03
46.2
42.32
37.63
32.48
27.3
22.52
18.42
15.05
12.13
9.16
5.57
0.99
-4.63
-10.89
-17.2
-22.95
-27.81
-31.86
-35.54
-39.52
-44.48
-50.96
-59.18
-68.85
-79
-88.06
-94.04
-95.17
-90.52
-80.46
-66.62
-51.37
-36.97
-24.93
-15.68
-8.71
-3.19
1.68
6.37
10.98
15.48
19.72
23.56
26.81
29.28
30.83
31.48
31.41
30.95
30.41
30.06
29.98
30.17
30.5
30.77
30.76
30.23
28.99
27.03
24.51
21.76
19.13
16.89
15.04
13.36
11.44
8.86
5.36
0.97
-4.06
-9.26
-14.16
-18.44
-22.06
-25.27
-28.6
-32.76
-38.43
-46.06
-55.52
-65.95
-75.7
-82.69
-85.03
-81.72
-73.05
-60.61
-46.61
-33.19
-21.68
-12.42
-5.01
1.26
6.94
12.32
17.48
22.44
27.23
31.83
36.06
39.56
41.93
42.91
42.52
41.14
39.37
37.84
36.99
36.92
37.38
37.85
37.75
36.63
34.35
31.12
27.4
23.71
20.46
17.78
15.45
13.02
10.03
6.11
1.23
-4.28
-9.89
-15.02
-19.35
-22.93
-26.24
-30.14
-35.44
-42.66
-51.58
-61.03
-69.1
-73.58
-72.78
-66.11
-54.45
-39.85
-24.83
-11.51
-1.03
6.66
12.37
17.18
21.89
26.84
31.97
36.99
41.5
45.08
47.47
48.44
48.02
46.52
44.44
42.44
41.01
40.38
40.42
40.71
40.7
39.95
38.3
35.78
32.67
29.25
25.73
22.18
18.55
14.72
10.6
6.19
1.52
-3.33
-8.26
-13.17
-18.02
-22.82
-27.7
-32.94
-38.82
-45.49
-52.64
-59.38
-64.34
-66.03
-63.4
-56.33
-45.74
-33.34
-21.04
-10.32
-1.88
4.42
9.24
13.42
17.6
22.04
26.72
31.3
35.39
38.64
40.86
42.05
42.4
42.21
41.75
41.21
40.66
40.09
39.4
38.49
37.21
35.39
32.95
29.9
26.42
22.82
19.42
16.4
13.71
11.03
7.97
4.19
-0.3
-5.25
-10.18
-14.67
-18.53
-21.92
-25.24
-29.03
-33.84
-39.97
-47.33
-55.23
-62.43
-67.26
-68.18
-64.36
-56.07
-44.71
-32.33
-20.91
-11.64
-4.71
0.52
4.92
9.17
13.51
17.81
21.81
25.33
28.27
30.61
32.28
33.21
33.36
32.79
31.64
30.07
28.27
26.35
24.46
22.74
21.24
19.85
18.23
15.92
12.54
8.04
2.79
-2.5
-7.14
-10.73
-13.44
-15.84
-18.75
-22.89
-28.68
-36
-44.21
-52.18
-58.4
-61.4
-60.16
-54.55
-45.45
-34.52
-23.65
-14.3
-7.13
-1.93
1.97
5.33
8.56
11.71
14.51
16.65
17.93
18.32
17.96
17.07
15.93
14.81
13.94
13.44
13.28
13.22
12.93
12.02
10.19
7.37
3.66
-0.68
-5.33
-9.99
-14.49
-18.81
-23.15
-27.94
-33.63
-40.42
-47.9
-54.9
-59.68
-60.51
-56.41
-47.63
-35.71
-22.89
-11.3
-2.17
4.36
9.05
13.01
17.07
21.54
26.22
30.68
34.44
37.15
38.58
38.66
37.46
35.28
32.59
29.97
27.85
26.41
25.43
24.45
22.97
20.69
17.58
13.84
9.74
5.42
0.85
-4.23
-10.16
-17.26
-25.62
-34.96
-44.44
-52.73
-58.26
-59.69
-56.39
-48.74
-38.01
-25.96
-14.32
-4.21
3.94
10.33
15.56
20.19
24.65
29.1
33.43
37.34
40.47
42.39
42.84
41.8
39.47
36.36
33.07
30.16
27.94
26.37
25.12
23.62
21.31
17.84
13.19
7.73
2.03
-3.34
-8.05
-12.14
-16.06
-20.51
-26.21
-33.53
-42.28
-51.51
-59.62
-64.78
-65.45
-61.01
-52
-40
-27.11
-15.23
-5.44
2.2
8.38
14.05
19.92
26.19
32.64
38.82
44.29
48.71
51.86
53.65
54.09
53.42
52.06
50.56
49.45
49.03
49.31
49.99
50.61
50.68
49.85
47.97
45.17
41.79
38.31
35.13
32.46
30.16
27.87
25.15
21.72
17.65
13.31
9.18
5.65
2.76
0.18
-2.66
-6.32
-11.07
-16.83
-23.12
-29.28
-34.72
-39.17
-42.81
-46.18
-50.02
-55.07
-61.77
-70.02
-79.02
-87.28
-92.87
-93.95
-89.47
-79.58
-65.76
-50.27
-35.41
-22.77
-12.91
-5.42
0.54
5.8
10.85
15.88
20.9
25.86
30.66
35.07
38.81
41.58
43.19
43.72
43.48
42.93
42.49
42.41
42.7
43.17
43.5
43.37
42.58
41.04
38.76
35.88
32.54
28.83
24.89
20.84
16.82
13.01
9.47
6.21
3.07
-0.14
-3.6
-7.42
-11.6
-16.01
-20.5
-24.86
-28.97
-32.75
-36.3
-39.98
-44.29
-49.77
-56.61
-64.36
-71.75
-76.95
-78.1
-74.07
-64.93
-52.02
-37.54
-23.71
-12.17
-3.53
2.54
6.95
10.67
14.41
18.47
22.79
27.09
30.97
34.09
36.22
37.33
37.59
37.3
36.85
36.54
36.55
36.88
37.39
37.82
37.95
37.63
36.83
35.59
33.96
32.03
29.8
27.27
24.45
21.37
18.16
14.95
11.87
8.96
6.12
3.18
-0.04
-3.65
-7.56
-11.54
-15.36
-18.86
-22.09
-25.26
-28.76
-32.98
-38.24
-44.7
-52.22
-60.17
-67.39
-72.27
-73.25
-69.37
-60.76
-48.74
-35.42
-22.98
-12.89
-5.58
-0.49
3.39
7.01
10.87
14.96
18.91
22.38
25.15
27.23
28.8
30.08
31.2
32.2
33
33.51
33.72
33.65
33.36
32.94
32.43
31.79
30.9
29.62
27.77
25.24
22.03
18.34
14.49
10.88
7.76
5.18
2.9
0.52
-2.37
-5.97
-10.19
-14.69
-19.04
-22.88
-26.12
-28.92
-31.64
-34.72
-38.6
-43.6
-49.78
-56.82
-63.86
-69.51
-72.23
-70.73
-64.6
-54.52
-42.11
-29.42
-18.18
-9.29
-2.76
2.01
5.85
9.31
12.61
15.65
18.23
20.17
21.46
22.17
22.47
22.46
22.18
21.63
20.82
19.81
18.8
18.03
17.68
17.71
17.81
17.48
16.27
13.97
10.82
7.41
4.44
2.43
1.47
1.14
0.72
-0.54
-3.08
-6.87
-11.42
-16.04
-20.07
-23.2
-25.51
-27.47
-29.78
-33.19
-38.3
-45.3
-53.77
-62.51
-69.76
-73.56
-72.43
-65.92
-54.9
-41.27
-27.39
-15.25
-5.93
0.48
4.67
7.6
10.15
12.87
15.92
19.23
22.59
25.7
28.26
30.02
30.89
30.93
30.35
29.51
28.77
28.41
28.51
28.89
29.2
29.02
27.97
26
23.3
20.24
17.21
14.43
11.86
9.29
6.4
2.93
-1.18
-5.86
-10.9
-16.03
-21.09
-25.99
-30.87
-36.11
-42.2
-49.52
-57.9
-66.45
-73.5
-77.1
-75.76
-69.04
-57.86
-44.2
-30.34
-18.12
-8.42
-1.2
4.22
8.7
12.91
17.22
21.67
26.06
30.12
33.56
36.17
37.95
39.04
39.66
40.03
40.28
40.45
40.51
40.41
40.08
39.49
38.56
37.27
35.59
33.57
31.29
28.84
26.32
23.8
21.28
18.73
16.05
13.2
10.22
7.19
4.22
1.28
-1.86
-5.61
-10.3
-15.84
-21.46
-25.73
-26.89
-23.43
-14.57
-0.59
17.31
37.36
57.55
75.93
90.68
100.12
102.97
98.67
87.76
72.03
54.2
37.32
23.88
15.19
11.16
10.57
11.75
13.36
14.87
16.57
19.2
23.5
29.77
37.84
47.17
56.88
65.89
72.84
76.05
73.96
65.52
50.8
30.92
7.66
-17.54
-44.18
-72.84
-104.6
-140.03
-178.42
-217.44
-253.63
-283.17
-302.78
-310.43
-305.63
-289.4
-264.04
-232.65
-198.59
-164.95
-134.03
-106.95
-83.54
-62.54
-42.28
-21.33
0.54
21.88
39.72
50.53
51.72
42.84
26.1
5.58
-14.22
-29.96
-40.29
-45.75
-47.85
-47.99
-46.71
-43.33
-36.17
-23.15
-2.9
23.89
53.57
79.59
94.05
90.45
66.52
25.85
-22.78
-68.14
-100.24
-113.19
-106.2
-82.5
-47.01
-4.19
42.71
90.87
136.64
174.97
200.58
210.2
204.58
188.84
170.49
156.08
148.35
145.65
143.64
138.43
128.77
116.4
104.36
94.72
87.12
79.04
67.32
49.88
26.77
-0.11
-27.9
-53.98
-76.89
-96.64
-114.28
-131.15
-148.13
-165.04
-180.56
-192.65
-199.28
-199.15
-192.09
-179.08
-161.93
-142.61
-122.8
-103.55
-85.24
-67.86
-51.3
-35.52
-20.64
-6.82
5.8
17.1
26.93
35.16
41.63
46.26
49.17
50.63
51.08
51.02
50.88
50.95
51.3
51.72
51.72
50.64
47.89
43.17
36.67
29.03
21.16
13.85
7.52
2.04
-3.23
-9.21
-16.83
-26.53
-38.04
-50.15
-60.91
-68.12
-69.97
-65.78
-56.21
-43.07
-28.63
-14.84
-2.72
7.74
17.16
26.25
35.37
44.38
52.82
60.2
66.27
70.97
74.43
76.79
78.16
78.62
78.29
77.4
76.29
75.32
74.72
74.52
74.53
74.38
73.69
72.15
69.59
66.08
61.77
56.95
51.97
47.14
42.63
38.45
34.31
29.82
24.58
18.47
11.69
4.77
-1.76
-7.52
-12.5
-17.06
-21.78
-27.35
-34.33
-43.07
-53.48
-64.83
-75.72
-84.21
-88.28
-86.57
-78.91
-66.51
-51.51
-36.23
-22.38
-10.59
-0.56
8.5
17.32
26.19
35.01
43.41
51.06
57.67
63.02
66.98
69.43
70.42
70.25
69.43
68.57
68.18
68.43
69.19
70
70.28
69.51
67.46
64.2
60.05
55.47
50.85
46.39
42.1
37.87
33.59
29.26
24.97
20.84
16.91
13.07
9.1
4.78
-0.01
-5.21
-10.61
-15.92
-20.94
-25.56
-29.92
-34.32
-39.22
-45.13
-52.5
-61.37
-71.14
-80.53
-87.68
-90.74
-88.48
-80.82
-68.89
-54.66
-40.22
-27.11
-15.98
-6.66
1.49
9.12
16.64
24.16
31.54
38.52
44.76
49.89
53.62
55.84
56.68
56.48
55.73
54.84
54.07
53.44
52.81
52
50.92
49.51
47.81
45.84
43.58
40.97
37.97
34.59
30.95
27.3
23.87
20.82
18.16
15.64
12.9
9.58
5.45
0.57
-4.81
-10.3
-15.53
-20.22
-24.33
-27.99
-31.51
-35.35
-40.03
-45.95
-53.19
-61.26
-69.04
-74.93
-77.25
-74.88
-67.65
-56.5
-43.16
-29.58
-17.3
-7.06
1.14
7.84
13.62
18.92
23.96
28.76
33.3
37.52
41.24
44.22
46.22
47.14
47.1
46.47
45.67
45.08
44.87
44.98
45.24
45.42
45.29
44.68
43.5
41.69
39.27
36.33
32.97
29.3
25.42
21.47
17.58
13.93
10.56
7.43
4.33
1.01
-2.71
-6.78
-11.03
-15.19
-19.07
-22.68
-26.17
-29.74
-33.62
-38.01
-43.1
-49.06
-55.81
-62.83
-69.07
-73.05
-73.35
-69.17
-60.69
-49.12
-36.28
-24
-13.54
-5.3
1
6.07
10.59
15.04
19.54
24
28.17
31.75
34.52
36.36
37.3
37.55
37.45
37.33
37.45
37.92
38.63
39.35
39.82
39.79
39.14
37.85
35.95
33.54
30.72
27.59
24.23
20.74
17.18
13.65
10.22
6.99
4.06
1.48
-0.82
-3
-5.33
-8.04
-11.24
-14.84
-18.58
-22.12
-25.28
-28.05
-30.71
-33.76
-37.77
-43.18
-50.08
-57.89
-65.34
-70.7
-72.27
-69.02
-61.08
-49.73
-37
-24.92
-14.84
-7.15
-1.45
3
6.88
10.49
13.93
17.22
20.36
23.39
26.24
28.7
30.48
31.37
31.37
30.76
29.98
29.47
