-132.56
-210.25
-263.06
-296.68
-312.59
-313.56
-304.94
-292.04
-279.8
-269.02
-264.52
-264.91
-268.5
-271.66
-272.47
-270.87
-268.17
-266.26
-265.26
-267.78
-272.61
-278.5
-282.92
-284.34
-282.33
-277.35
-270.64
-263.2
-257.71
-255.09
-256.21
-260.91
-268.73
-279
-290.88
-303.84
-317.65
-332.98
-350.34
-370.71
-395.27
-425.47
-462.39
-505.65
-552.37
-596.88
-631.69
-649.39
-645.42
-619.81
-577.05
-524.32
-468.78
-415.49
-366.73
-322.7
-282.82
-246.78
-214.65
-186.4
-161.18
-137.5
-113.73
-88.88
-63.11
-37.62
-14.14
5.81
21.5
33.33
42.27
49.46
55.57
60.59
63.92
64.71
62.27
56.32
47.53
36.96
25.71
14.74
4.71
-3.93
-10.88
-15.91
-18.92
-18.65
-14.03
-4.46
10.03
28.86
51.21
76.12
102.4
128.42
154.92
182.44
211.14
240.56
269.99
298.82
326.69
353.07
376.67
400.24
426.01
455.14
487.27
520.93
554.68
588.22
622.46
658.78
704.07
762.42
832.2
905.18
969.19
1013
1030.8
1023.3
968.84
859.92
700.33
506.04
300.33
105.51
-63.45
-200.17
-299.89
-373.22
-425.39
-459.5
-477.74
-483.43
-481.36
-476.96
-474.44
-478.5
-494.22
-520.4
-554.02
-590.54
-624.19
-648.26
-656.53
-638.11
-589.74
-518.75
-437.16
-358.68
-292.48
-240.98
-201.46
-170.08
-144.35
-124.81
-113.09
-107.6
-104.73
-100.28
-91.3
-76.1
-54.86
-29.07
-1.27
26.32
53.51
81.4
111.61
142.43
172.33
199.4
221.86
237.72
245.57
245.24
237.89
225.54
210.59
195.58
182.23
171.36
163.02
157.17
153.67
151.72
148.88
141.1
124.26
95.99
57.52
13.85
-27.92
-61.53
-83.96
-96.09
-101.32
-102.97
-102.84
-100.96
-96.76
-90.37
-83.17
-77.13
-73.64
-72.58
-72.45
-71.26
-67.57
-61.29
-53.63
-46.39
-41.16
-38.64
-38.41
-39.1
-39.01
-36.66
-31.28
-23.07
-13.1
-2.99
5.64
11.7
14.97
16.15
16.45
16.95
18.08
19.43
20.21
19.68
17.7
14.79
11.9
9.86
9.02
9.12
9.38
8.9
6.75
2.32
-4.46
-12.99
-22.09
-30.32
-36.51
-40.28
-41.81
-41.83
-40.98
-39.47
-37.07
-33.45
-28.61
-22.61
-16.68
-11.53
-7.39
-3.94
-0.56
3.2
7.46
11.99
16.33
20
22.9
25.08
26.83
28.45
30.16
32.02
33.96
35.84
37.49
38.98
40.33
41.66
43.1
44.66
46.22
47.61
48.61
48.96
48.47
46.8
43.79
39.29
33.25
25.78
17.16
7.87
-1.6
-10.28
-18.12
-25
-30.93
-35.97
-40.08
-43.1
-44.78
-45.24
-44.28
-42.41
-40.33
-38.84
-38.49
-39.33
-40.86
-42.22
-42.63
-41.66
-39.75
-37.86
-37.07
-38.17
-41.16
-45.19
-48.95
-51.34
-51.79
-50.78
-49.33
-48.64
-49.64
-52.98
-59.02
-67.55
-77.21
-84.99
-86.79
-78.72
-59.22
-30.41
2.16
31.53
52.18
62.11
63.1
59.02
53.6
48.7
44.26
39.39
33.7
27.87
23.14
20.45
19.6
19.42
18.45
15.49
10.43
4.13
-2.1
-7.09
-10.31
-12.07
-13.26
-14.92
-17.74
-21.74
-26.32
-30.6
-33.71
-35.17
-34.96
-33.38
-30.87
-27.79
-24.26
-20.13
-15.21
-9.42
-2.87
4.14
11.22
17.94
23.94
28.91
32.67
35.11
36.26
36.27
35.51
34.53
33.75
33.34
33.13
32.72
31.57
29.36
26.21
22.71
19.97
18.79
19.42
21.35
23.54
24.77
24.24
22
18.96
16.93
17.23
20.28
25.34
30.83
35.2
37.45
37.8
37.5
38.82
43.51
52.77
67.19
86.57
109.32
131.88
148.75
150.76
133.8
98.82
52.13
3.44
-37.84
-66.1
-80.89
-85.71
-85.25
-82.22
-77.4
-70.35
-60.89
-50.14
-40.16
-32.81
-28.68
-26.86
-25.14
-21.65
-15.73
-8.08
-0.36
5.7
9.07
9.91
9.38
9.37
11.22
15.26
20.74
26.17
30.04
31.53
30.72
28.43
25.89
23.85
22.25
20.13
16.03
8.9
-1.49
-14.36
-28.09
-40.79
-51.07
-58.6
-63.96
-68.48
-73.1
-77.95
-82.3
-84.84
-84.47
-80.76
-74.43
-67.11
-61.07
-58.12
-59.69
-66.59
-78.59
-93.79
-108.35
-117.18
-113.81
-97.05
-69.82
-38.75
-11.65
5.82
12.44
11.4
8.07
6.86
9.09
13.47
17.65
20.25
21.84
24.52
30.28
39.55
50.47
59.7
63.67
60.38
50.34
36.63
23.64
15.22
13.68
19.36
31.92
50.35
72.69
95.68
113.97
120.91
111.32
84.92
47.79
11.87
-10.58
-12
8.53
45.99
93.12
144.35
197.83
250.25
298.38
336.01
355.03
350.22
322.29
278.76
231.11
190.39
159.55
140.11
131.4
126.47
120.21
111.96
103.89
98.13
95.37
94.16
92.53
87.7
77.31
61.68
43.23
25.23
8.89
-5.6
-18.75
-30.79
-42.56
-55.45
-70.47
-88.71
-111.2
-140.49
-175.54
-210.45
-236.15
-246.18
-240.88
-227.26
-216.12
-217.13
-238.87
-281.2
-335.47
-389.07
-432.34
-462.29
-481.07
-492.91
-501.44
-515.01
-539.48
-576.67
-624
-676.45
-727.67
-769.52
-793.26
-755.77
-640.19
-463.58
-268.49
-96.12
32.01
114.42
161.13
184.53
194.27
190.42
172.63
143.08
109.94
81.26
61.52
51.67
50.25
54.81
58.87
58.74
55.41
54.09
60.47
75.13
96.43
121.31
146.57
166.96
179.4
184.03
183.8
181.85
180.09
179.52
180.65
183.93
188.55
194.16
200.9
209.36
219.46
230.32
241.06
251.14
260.66
269.93
279.94
292.11
307.74
326.84
347.46
366.19
378.86
382.01
374.07
355.78
329.88
300.06
269.66
240.75
213.83
188.05
161.99
134.69
106.37
78.53
53.39
32.87
17.66
7.17
0.1
-4.53
-6.69
-5.73
-1.46
4.95
11.01
13.96
12.4
7.1
0.76
-3.49
-3.82
-0.8
2.51
2.02
-5.32
-19.77
-38.52
-56.77
-69.74
-74.61
-71.4
-62.97
-53.27
-45.39
-40.4
-37.77
-36.36
-35.15
-33.23
-29.32
-22.25
-11.65
1.66
15.48
26.6
32.33
32.1
27.9
23.09
19.42
15.07
6.12
-10.94
-36.99
-69.54
-103.6
-134.07
-154.01
-158.55
-148.9
-130.47
-108.49
-85.1
-60.09
-32.98
-4.93
21.43
42.32
52.3
48.56
32.49
8.88
-16.77
-40.54
-61.39
-80.78
-99.78
-121.9
-149.66
-183.48
-221.82
-262.01
-300.52
-332.93
-353.77
-347.29
-306.71
-237.85
-157.52
-84.04
-28.8
6.22
25.23
34.92
40.72
43.42
42.47
38.11
32.31
27.19
24.6
24.86
28.3
35.31
45.26
58.4
76.39
102.03
137.53
182.97
230.99
271.26
293
288.15
256.09
204.59
147.14
97.09
62.83
45.44
41.07
43.88
48.72
53.41
58.09
63.77
69.65
73.72
73.84
69.66
62.58
54.76
48.34
44.42
42.86
41.86
38.83
31.95
21.39
8.94
-3.1
-13.35
-22.34
-28.26
-31.6
-34.76
-39.52
-45.88
-52.16
-56.43
-57.59
-55.84
-52.23
-48.17
-46.97
-50.57
-58.6
-68.69
-78.56
-87.38
-95.86
-105.38
-117.23
-134.98
-160.62
-193.6
-231.27
-271.25
-312.97
-357.56
-406.61
-439.77
-444.18
-419.79
-378.62
-333.45
-289.07
-242.57
-189.08
-126.99
-60.13
0.14
42.9
63.23
64.06
53.29
39.16
27.04
18.01
12.21
6.61
-0.55
-8.69
-15.55
-19.46
-20.74
-21.59
-24.4
-30.5
-41.51
-57.26
-75.7
-93.65
-108.23
-117.72
-123.82
-128.06
-131.46
-135.11
-138.77
-140.79
-138.55
-129.49
-112.13
-86.5
-53.74
-15.98
23.98
63.61
101.29
136.28
168.48
197.83
223.83
245.82
263.16
275.67
284.26
291
298.65
310.2
328.27
354.93
391.39
437.15
488.89
540.16
582.28
606.74
607.97
585.44
543.84
490.89
434.15
378.48
325.3
273.95
223.69
174.87
128.66
86.34
47.82
11.39
-25.09
-63.41
-104.21
-147.03
-190.59
-233.1
-272.5
-306.86
-334.97
-357.23
-376.13
-395.26
-417.53
-442.97
-467.9
-486.33
-492.81
-484.92
-464.24
-435.35
-403.54
-372.71
-344.52
-318.86
-294.96
-272.02
-249.18
-225.24
-198.84
-168.7
-134.86
-99.74
-67.44
-42.43
-27.46
-21.78
-21.19
-19.52
-11.19
6.34
31.62
60.25
87.37
110.25
129.04
146.09
163.91
183.52
203.68
222.37
238.09
251.12
263.1
275.98
290.87
307.67
325.5
343.29
360.09
374.22
382.78
381.53
366.38
335.59
291.37
239.51
186.91
138.49
94.82
52.57
6.79
-45.43
-102.58
-158.71
-205.33
-234.23
-240.13
-222.29
-184.31
-133.58
-79.74
-31.9
3.6
24.7
33.39
34.09
29.87
21.31
7.29
-11.95
-32.49
-47.25
-48.92
-34.35
-6.12
27.05
54.71
69.93
72.27
66.41
58.17
51.03
44.68
39.1
34.36
31.38
31.21
34.53
41.53
52.09
66.05
82.55
103.51
129.06
156.96
183.22
205
222.93
240.92
263.43
292.23
329.6
373.77
419.37
459.64
489.72
509.14
520.6
526.75
496.88
411.43
269.98
95.68
-76.47
-217.37
-313.64
-367.41
-390.76
-396.94
-395.81
-391.47
-384.8
-376.26
-366.38
-354.5
-338.83
-318.4
-293.33
-264.05
-234.02
-208.05
-189.83
-180.36
-177.8
-179.35
-183.29
-189.43
-196.16
-201.25
-202.55
-199.38
-192.85
-185.28
-179.02
-176.02
-176.99
-180.3
-183.32
-183.01
-177.56
-166.88
-152.29
-135.56
-118.71
-103.42
-90.53
-79.91
-70.94
-63.03
-55.85
-49.4
-43.49
-38.26
-33.94
-30.79
-28.64
-26.63
-23.3
-16.42
-6.76
6.02
21.86
40.14
59.79
79.75
99.44
119
139.29
161.58
187.6
218.58
254.79
295.21
337.27
377
409.75
431.33
439.43
434.96
421.67
404.88
389.27
376.8
365.83
351.92
330.2
297.84
255.69
207.73
159.24
114.61
75.82
42.43
12.56
-15.9
-44.18
-72.29
-99.06
-122.48
-140.01
-149.2
-148.53
-138.07
-119.59
-96.05
-70.68
-46.17
-24.21
-5.67
9.19
20.42
28.44
33.97
37.77
40.07
40.31
37.18
29.18
15.4
-3.98
-27.59
-52.98
-76.99
-96.23
-107.61
-109.14
-100.7
-84.44
-64.63
-46.5
-34.77
-32.48
-40.34
-56.77
-78.31
-100.28
-118.04
-128.57
-131.83
-131.26
-132.88
-143.07
-165.79
-200.43
-241.6
-280.86
-310.17
-324.96
-325.69
-317.25
-306.56
-299.59
-299.19
-304.61
-312.88
-321.2
-328.74
-337.02
-348.01
-361.46
-373.23
-375.95
-362.09
-327.69
-274.73
-210.51
-144.48
-84.09
-32.17
12.9
54.53
94.68
132.32
164.02
186
196.1
194.4
182.98
164.92
143.7
123.02
106.5
96.72
94.11
96.43
99.86
101.4
100.69
100.29
103.61
112.35
124.66
135.57
139.67
134.21
120.8
104.18
89.3
78.18
70.09
62.76
54.35
44.51
34.05
23.77
13.32
1.08
-15.27
-36
-58.78
-80.02
-97.01
-109.5
-119.56
-130.22
-143.62
-160.24
-177
-188.28
-188.3
-173.51
-143.68
-101.75
-52.69
3.28
59.57
106.63
136.97
148.71
144.67
129.45
107.32
82.47
58.06
36.93
22.77
19.24
28.49
50.35
82.42
119.62
154.95
180.8
190.59
181.87
156.93
121.32
81.2
41.03
2.73
-33.53
-67.78
-99.26
-125.54
-143.44
-150.71
-147.32
-135.51
-118.99
-101.87
-87.93
-80.15
-79.75
-86.01
-96.54
-108.11
-117.49
-121.91
-119.02
-106.72
-83.29
-47.99
-2.13
50.01
101.49
144.55
173.35
186.34
186.8
181.44
177.45
179.64
188.89
202.58
216.44
226.75
231.76
231.66
227.63
220.58
210.49
196.84
179.44
159.2
138.27
119.17
103.53
91.26
80.69
69.72
57.28
44.22
33.17
27.16
28.12
35.71
47.29
58.83
66.35
67.34
61.32
49.69
34.95
19.75
6.24
-4.1
-10.34
-12.08
-9.72
-4.92
-0.46
0.51
-4.17
-14.54
-28.27
-41.64
-51.07
-54.55
-52.15
-45.54
-36.81
-27.51
-18.29
-9.19
-0.25
7.94
14.16
16.99
15.59
10.5
3.88
-0.84
-0.19
7.89
22.99
42.34
61.97
78.31
89.67
96.53
100.95
105.06
109.62
113.21
112.62
104.11
84.73
53.42
11.29
-38.66
-92.33
-145.06
-192.13
-229.08
-252.34
-260.38
-254.25
-237.64
-215.67
-193.5
-174.86
-161.5
-153.37
-149.31
-148.57
-151.48
-159.46
-173.91
-194.83
-219.56
-242.56
-256.31
-253.44
-230.05
-187.53
-132
-71.48
-12.9
39.64
84.66
122.4
153.48
176.84
189.35
186.6
164.85
122.71
61.81
-13.24
-95.37
-170.27
-221.51
-236.86
-215.51
-168.35
-110.5
-53.46
-2.37
41.96
79.96
110.43
130.99
139.69
137.11
126.84
114.16
103.82
98.57
98.86
102.49
106.12
106.79
103.46
97.58
91.88
89.12
90.83
96.83
104.84
111.71
113.71
108.23
94.61
73.96
48.77
22.18
-2.7
-23.58
-39.2
-49.31
-54.15
-54.05
-49.43
-40.69
-28.56
-14.65
-1.28
8.4
11.17
4.76
-10.07
-32.29
-60.05
-90.98
-121.95
-148.44
-164.87
-165.84
-148.41
-114.06
-69.31
-23.59
14.33
39.27
51.02
52.91
49.46
44.08
38.31
32.26
25.89
19.82
14.97
12.05
10.72
9.87
8.37
5.35
1.71
-0.25
2.7
13.43
32.9
58.42
83.79
101.14
103.98
90.33
63.84
32.68
5.88
-10.11
-13.84
-8.14
2.47
13.91
23.53
29.62
30.87
26.48
17.44
6.6
-1.42
-1.93
7.14
23.89
43.14
59.13
68.55
72.1
72.48
72.72
74.59
78.23
82.06
83.75
81.22
73.6
61.66
46.04
27.82
8.93
-5.24
-8.78
1.65
24.46
50.19
74.92
96.99
115.58
131.04
142.39
148
146.42
137.2
121.69
103.12
84.18
66.65
51.12
36.89
22.23
5.16
-15.83
-40.49
-66.84
-93.11
-117.9
-140.76
-162.25
-183.72
-206.91
-233.9
-265.83
-303.27
-346.06
-392
-436.41
-472.56
-493.48
-494.52
-475.62
-440.08
-394.52
-346.21
-300.48
-259.92
-224.7
-193.92
-166.76
-143.45
-122.9
-104.42
-87.08
-69.99
-53.13
-37.56
-25.26
-14.72
-13.37
-20.59
-35.19
-54.82
-76.57
-97.84
-116.77
-132.45
-144.73
-154.21
-159.97
-161.67
-158.78
-150.98
-138.48
-122.18
-103.44
-83.9
-65.18
-47.18
-29.75
-12.25
5.97
25.15
44.95
64.6
83.15
99.82
115.22
130.26
146.25
164.28
184.78
207.3
230.76
253.78
275.21
294.91
313.46
332.12
352.49
376.27
404.45
436.59
469.95
499.64
519.9
526.15
517
494.81
465
433.59
405.03
380.39
357.47
332.16
300.4
259.51
208.64
149.29
85.29
22.16
-34.28
-79.97
-114.03
-138.14
-155.93
-171.23
-186.4
-201.81
-216.27
-227.81
-234.31
-233.44
-221.39
-195.41
-155.25
-103.8
-46.58
10.08
61.13
104.13
139.16
169.89
199.47
229.03
258.08
285.67
311.57
336.58
361.56
386.13
410.53
431.4
442.58
437.48
412.26
367.96
310.34
247.5
169.05
74.03
-31.04
-133.66
-221.17
-286.28
-327.81
-348.67
-353.49
-347.11
-331.18
-308.29
-282.21
-256.96
-235.69
-219.55
-207.07
-196.68
-187.16
-175.86
-162.55
-149.14
-138.6
-133.48
-135.19
-144.21
-160.58
-183.91
-209.24
-229.67
-238.02
-229.18
-202.46
-162.3
-116.98
-75.53
-44.78
-26.9
-20.48
-22.87
-31.46
-44.32
-59.57
-75.22
-87.14
-90.6
-82.07
-61.47
-33.14
-4.67
15.68
22.54
14.97
-1.53
-17.65
-25.05
-20.37
-6.44
10.21
23.58
31.25
35.11
39.11
46.23
56.16
66.36
72.48
71.46
62.45
46.21
24.72
0.36
-24.25
-46.39
-62.99
-71.97
-74.01
-72.8
-73.04
-77.35
-84.99
-92.11
-95.52
-94.95
-94.06
-98.14
-111.3
-133.63
-160.06
-182.3
-192.37
-185.64
-161.9
-125.23
-82.27
-40.89
-7.87
13.41
22.98
23.83
20.51
18.15
17.89
22.16
32.63
49.3
71.41
95.87
118.06
133.57
140.69
141.34
140.45
142.91
151.35
167.53
190.93
219.8
252.11
286.15
320.32
352.96
381.64
390.57
369.98
318.62
244.76
161.42
80.11
7.01
-56.6
-112.5
-162.86
-206.63
-241.57
-265.45
-277.5
-278.81
-271.42
-257.97
-241.37
-223.92
-205.35
-184.59
-160.57
-133.03
-102.49
-69.9
-36.14
-4.07
24.3
48.26
67.03
79.28
83.44
78.71
66.1
48.73
30.83
16.3
7.08
2.2
-1.47
-7.17
-16.21
-27.15
-36.59
-41.25
-39.46
-32.04
-21.49
-10.51
-0.54
8.42
17.01
25.32
32.21
36.04
35.83
32.62
29.48
30.2
37.13
49.55
63.62
74.08
76.84
70.79
58.09
42.71
28.43
17.22
8.96
2.34
-3.88
-9.98
-15.3
-18.81
-19.93
-18.98
-17.1
-15.83
-16.35
-18.77
-22.05
-24.37
-24.08
-20.59
-14.59
-7.67
-1.26
4.13
9.3
15.81
25.11
37.84
53.59
71.11
88.67
104.23
115.64
120.81
117.99
106.31
86.16
59.45
29.44
0.19
-24.21
-40.49
-46.56
-41.68
-26.31
-1.77
30.34
68.72
112.07
158.38
203.83
242.3
266.26
268.73
245.76
198.38
132.74
58.08
-16.63
-85.58
-147.03
-201.08
-246.03
-278.22
-293.45
-289.49
-268.18
-235.15
-197.69
-161.94
-131.01
-104.93
-82.13
-61.26
-42.17
-25.93
-13.83
-6.4
-2.71
-0.44
3.3
10.53
21.6
34.87
47.39
56.13
59.63
57.71
51.7
43.6
34.83
25.7
15.44
2.7
-13.69
-34.36
-59.39
-88.09
-117.09
-142.48
-159.1
-161.68
-147.31
-117.54
-78.55
-39.31
-8.19
10.15
15.55
11.61
3.07
-6.85
-17.26
-28.55
-40.72
-52.54
-61.74
-66.41
-66.13
-61.5
-54.21
-46.2
-38.5
-30.95
-22.56
-12.08
0.9
15.7
30.57
43.26
51.79
55.37
54.55
50.88
46.44
42.66
39.88
37.32
33.5
26.98
17.23
5.03
-7.62
-17.8
-23.03
-21.98
-14.79
-2.79
12.3
29.39
48.8
70.64
96.44
127.79
165.45
208.66
254.66
298.89
335.79
360.16
368.49
360.25
337.52
304.07
264.07
221.1
177.86
136.32
98.11
64.3
35.13
9.28
-15.97
-43.36
-74.37
-108.25
-142.6
-174.74
-202.87
-225.32
-239.39
-240.5
-223.39
-185.56
-130.93
-70.73
-19.97
9.26
14.07
2.46
-11.23
-14.61
-4.3
12.89
24.87
22.42
5.23
-17.56
-32.35
-28.39
-2.74
39.03
86.6
129.76
161.95
181.16
188.39
185.74
175.26
158.78
137.87
113.96
87.89
59.67
29.01
-3.76
-36.6
-66.09
-88.66
-102.8
-110.41
-116.47
-126.96
-145.86
-173.19
-204.62
-233.2
-251.83
-255.66
-243.28
-217.02
-182.22
-145.46
-112.43
-85.71
-63.8
-41.76
-13.92
22.66
65.73
107.97
139.69
152.82
144.38
117.6
81.09
46.11
23.06
18.9
34.99
66.49
103.28
133.17
146.75
141.64
124.28
107.09
102.35
115.73
143.32
173.61
193.76
196.16
181.27
155.91
127.73
100.56
72.52
38.82
-3.59
-52.58
-101.06
-140.51
-165.34
-175.41
-175.75
-174.15
-178.25
-192.98
-219.23
-253.35
-287.83
-312.82
-318.93
-300.62
-258.85
-201.9
-143
-95.94
-70.08
-67.81
-84.7
-112.71
-144.17
-174.27
-201.7
-227.31
-252.73
-278.59
-304.15
-327.11
-344.22
-352.18
-348.51
-332.6
-306.16
-273.01
-237.99
-205.24
-177.31
-155.01
-138.1
-126.07
-118.4
-113.92
-110.2
-103.59
-90.26
-67.93
-36.93
-0.33
37.36
71.82
100.72
124.4
145.7
168.81
197.83
234.99
279.27
325.77
366.6
393.31
399.84
384.95
352.75
311
268.13
230.21
199.64
175.67
156.42
140.67
128.62
121.33
119.53
122.92
130.17
139.7
150.34
161.52
172.88
183.81
193.04
198.81
199.53
194.32
183.56
168.71
152
135.77
121.91
111.45
104.45
100.17
97.31
94.49
90.57
84.85
77.22
68.01
57.93
47.77
38.28
29.77
22.17
15.05
7.74
-0.53
-10.72
-24.09
-42.26
-66.9
-99.28
-139.58
-186.47
-237.05
-287.3
-333.05
-370.77
-398.41
-415.47
-422.7
-421.52
-413.58
-400.5
-383.8
-365.2
-346.59
-329.65
-315.17
-302.47
-289.54
-273.91
-254.01
-229.77
-202.78
-175.39
-149.48
-125.15
-100.5
-72.55
-38.68
1.96
48.21
97.08
144.74
187.43
222.64
249.61
268.93
281.89
289.99
294.97
298.26
300.07
298.33
288.66
265.48
224
162.55
84.2
-0.63
-75.87
-125.04
-139.01
-120.4
-80.93
-34.12
10.62
49.42
82.2
109.44
130.45
143.7
148.32
145.48
138.4
131.37
128.02
130.37
137.83
147.52
155.24
157.3
152.38
140.9
125.17
108.31
93.23
81.56
73.32
67.07
61.08
54.55
48.31
44.74
47.03
57.84
77.9
105.67
137.03
166.42
188.78
200.48
199.77
186.2
159.84
121.37
73.35
20.04
-33.53
-83.28
-128.12
-170.34
-214.02
-261.53
-310.44
-352.78
-377.95
-377.33
-348.39
-295.75
-228.83
-157.99
-91.53
-34.77
8.84
36.17
44.33
31.83
-0.05
-46.5
-99.69
-150.39
-189.31
-208.61
-203.79
-175.56
-130.72
-80.76
-37.86
-9.84
2.88
6.19
7.53
10.67
13.79
12.32
4.04
-7.07
-11.5
0.85
34.72
86.71
147.25
206.01
256.84
298.94
334.25
363.74
385.22
394.25
387.34
364.86
331.74
295.72
263.79
239.36
221.56
206.41
189.23
166.83
138.76
107.74
79.51
61.59
60.88
80.73
118.62
166
211.21
243.87
258.6
256.44
243.1
225.36
207.97
192.51
178.83
167.01
158.31
154.19
154.54
156.57
155.48
146.6
127.44
99.23
66.33
34.33
7.42
-12.93
-28.42
-42.7
-59.89
-83.34
-114.29
-150.71
-186.75
-213.6
-221.86
-205.65
-166.1
-112.33
-58.92
-20.41
-5.56
-14.3
-38.92
-68.62
-94.58
-112.95
-124.48
-132.03
-137.75
-142.07
-144.29
-144.05
-142.47
-141.86
-144.55
-151.54
-161.96
-172.95
-180.94
-182.76
-176.75
-163.23
-144.35
-123.35
-103.61
-87.97
-78.05
-74.2
-75.77
-81.48
-90.14
-101.24
-115.17
-132.91
-155.54
-183.48
-216.44
-253.64
-294.76
-340.04
-389.26
-439.96
-486.47
-521.45
-538.76
-536.94
-520.06
-495.74
-470.76
-447.57
-423.5
-393.37
-353.7
-305.3
-252.91
-202.23
-156.35
-114.51
-73.33
-29.83
16.83
64.87
112.13
158.11
204.73
254.97
310.08
367.69
421.39
463.41
487.56
491.57
477.22
448.66
410.99
369.14
328.06
292.58
266.67
251.46
243.91
237.31
223.62
197.48
158.2
109.68
57.73
6.86
-41.47
-88.53
-135.96
-183.88
-229.67
-269.69
-301.79
-327.14
-349.67
-373.55
-400.18
-426.38
-445.87
-452.29
-442.61
-418.44
-384.68
-346.57
-307.18
-267.02
-225.54
-183.39
-143.32
-109.34
-84.98
-71.64
-68.68
-73.86
-84.65
-98.8
-114.4
-129.97
-144.12
-155.54
-162.93
-165.22
-161.87
-153.01
-139.49
-122.72
-104.4
-86.26
-69.73
-55.64
-44.29
-35.61
-29.31
-24.94
-22.08
-20.35
-19.37
-18.85
-18.56
-18.48
-18.79
-19.78
-21.82
-25.16
-29.95
-35.97
-42.71
-49.68
-56.36
-62.36
-67.41
-71.4
-74.36
-76.41
-77.57
-77.68
-76.65
-74.21
-70.11
-64.16
-56.29
-46.71
-35.93
-24.72
-13.99
-4.83
1.91
5.6
5.99
3.23
-2.01
-8.71
-15.69
-21.77
-26.06
-27.83
-26.89
-23.45
-18.03
-11.33
-4.08
3.02
9.31
14.24
17.51
18.87
18.38
16.4
13.49
10.44
8.21
7.59
9.1
12.94
18.87
26.45
35.25
45.03
55.67
67.18
79.53
92.34
105.01
116.67
126.78
135.36
143.22
151.82
162.82
177.38
195.62
216.39
237.51
256.74
272.66
285.36
296.35
307.96
322.27
340.08
360.6
381.49
399.99
413.91
422.36
425.92
426.65
427.58
431.73
440.91
453.91
465.84
468.83
454.72
418.22
359.48
284.82
205.14
132.31
75.25
37.53
17.48
9.92
9.01
10.38
11.8
13.35
16.88
25.02
40.13
62.64
90.01
117.41
139.56
153.23
158.93
160.17
160.79
161.8
160.2
150.84
130.84
102.97
75.54
58.2
56.11
66.31
78.4
79.46
60.5
20.29
-34.81
-94.13
-146.82
-185.05
-204.92
-205.29
-187.28
-153.77
-110.45
-66.32
-32.5
-18.95
-30.27
-62.85
-105.63
-144.7
-168.81
-174.75
-167.22
-154.18
-140.99
-127.19
-108.39
-80.51
-44.76
-6.18
27.9
53.02
70.25
85
102.71
124.11
146.09
163.19
175.4
185.77
198.64
216.56
239.28
265.18
291.9
320.93
354.23
398.26
455.53
523.51
595.47
663.64
722.78
768.22
799.95
817.09
825.39
828.97
829.71
827.35
820.28
808.04
788.85
766.46
692.72
539.84
306.27
22.54
-263.66
-512.15
-683.36
-789.73
-849.34
-878.59
-882.89
-866.85
-839.97
-811.96
-792.06
-784.82
-791.12
-801.83
-806.65
-792.75
-754.68
-695.66
-625.21
-554.84
-492.56
-442.89
-402.12
-365.1
-324.58
-277.39
-225.46
-174.86
-134.01
-109.86
-106.75
-121.62
-147.09
-172.26
-187.65
-187.9
-172.72
-146.02
-112.84
-77.92
-43.2
-10.07
19.56
41.93
52.71
49.63
34.48
13.85
-3.49
-10.02
-3.17
13.61
32.99
47.33
51.81
45.49
30.88
12.38
-5.21
-17.95
-23.78
-23.21
-19.31
-16.66
-19.47
-29.51
-45.51
-63.93
-81.09
-94.77
-104.48
-110.66
-113.63
-113.29
-109.88
-104.88
-101.13
-101.51
-107.02
-115.28
-120.92
-117.63
-101
-70.7
-30.75
11.95
50.32
79.71
99.49
112.78
124.81
140.24
160.88
184.69
206.84
222.08
227.35
223.3
213.93
204.75
200.38
202.61
210.3
220.33
229.57
235.89
238.48
237.11
231.09
219.15
200.15
174.49
144.7
115.23
90.79
74.53
67.1
66.79
70.65
75.68
79.76
81.95
82.28
81.22
79.32
76.68
72.5
65.14
52.63
33.2
6.1
-27.92
-66.32
-104.66
-136.91
-156.6
-158.49
-141.05
-108.01
-67.69
-30.35
-4.53
5.59
0.46
-16.75
-41.9
-70.8
-98.72
-119.81
-127.98
-119.25
-94.61
-60.83
-28.53
-7.68
-3.75
-15.83
-38.05
-63
-84.6
-99.12
-105.09
-102.68
-93.28
-79.56
-64.89
-52
-41.73
-32.69
-22.49
-9.82
3.92
15.09
20.08
17.87
11.01
4.11
0.7
1.29
3.72
5.27
4.97
3.89
3.55
4.11
3.73
-0.31
-9.46
-22.45
-35.42
-44.13
-46.19
-42.44
-36.19
-31.22
-29.7
-31.21
-33.58
-34.45
-32.89
-29.93
-28.17
-30.23
-37.37
-48.57
-60.53
-69.08
-71.06
-65.63
-54.47
-40.79
-27.53
-16.04
-6.04
3.65
13.67
23.55
32.06
38.16
41.05
39.97
33.51
20.04
-0.5
-25.02
-47.43
-61.31
-63.49
-56.52
-47.94
-46.55
-58.06
-81.86
-111.71
-138.98
-156.72
-162.19
-156.59
-143
-124.35
-103.05
-81.5
-63.01
-51.44
-49.5
-57.18
-71.05
-85.19
-93.15
-90.54
-76.34
-53.09
-25.24
2.54
26.66
44.73
55.14
57
50.38
37.03
20.31
4.58
-6.15
-9.81
-6.83
-0.1
6.33
8.74
5.21
-3.94
-16.58
-29.61
-40.4
-47.48
-50.37
-49.01
-42.99
-31.36
-13.52
9.32
33.23
51.62
56.76
42.65
7.45
-45.43
-107.99
-169.72
-220.67
-253.84
-266.73
-261.21
-241.99
-214.51
-182.86
-148.71
-111.25
-68.89
-21.19
29.9
80.24
125.31
161.86
188.96
207.78
220.9
231.7
243.73
259.91
281.33
306.47
330.42
345.54
343.79
319.72
273.1
209.56
139.07
72.84
21.32
-9.19
-18.42
-12.34
-1.26
4
-3.86
-25.72
-55.85
-82.66
-93.8
-80.83
-42.02
18.28
92.52
173.01
253.88
321.36
362.01
367.06
336.84
280.11
209.23
135.68
67.98
11.47
-31.99
-62.4
-82.04
-94.8
-105.1
-116.45
-130.05
-144.88
-158.3
-167.39
-168.87
-160.23
-140.41
-110.64
-74.85
-39.02
-11.64
0.28
-5.74
-25.73
-51.06
-72.37
-83.69
-84.28
-77.56
-68.42
-60.06
-53.3
-47.22
-40.84
-34.39
-29.17
-26.46
-26.38
-27.84
-28.99
-28.24
-25.33
-21.28
-17.74
-16.16
-16.99
-19.28
-21.31
-21.29
-18.32
-13.09
-7.87
-5.38
-7.55
-13.89
-21.09
-24.09
-17.72
0.88
31.03
68.42
106.17
136.51
152.82
151.4
132.53
100.74
63.31
28.02
0.81
-15.88
-23.34
-25.15
-25.3
-26.45
-29.32
-33.25
-37.45
-41.27
-44.31
-46.27
-46.53
-44.39
-39.57
-32.2
-23.37
-14.61
-7.52
-3.31
-2.17
-3.3
-5.17
-6.39
-6.03
-4.11
-1.35
1.33
3.03
3.43
2.88
2.08
1.78
2.43
3.98
5.98
7.85
9.19
9.89
10.23
10.69
11.84
14.05
17.52
22.25
28.08
34.92
42.51
50.54
58.45
65.46
70.44
72.29
70.23
64.01
54.1
41.4
27.11
12.22
-2.5
-17.03
-31.72
-46.89
-62.55
-78.18
-92.9
-105.53
-115.87
-123.3
-127.99
-130.36
-130.54
-128.06
-121.93
-111.02
-94.58
-73.13
-48.62
-23.95
-2.09
14.56
24.62
27.67
24.41
16.94
8.48
2.95
3.79
12.4
27.22
44.17
58.23
65.93
66.7
62.38
56.12
50.7
47.34
45.89
45.25
44.42
42.88
40.75
37.6
32.46
23.93
10.91
-6.45
-25.72
-42.38
-51.25
-47.41
-29.37
0.77
37.63
73.85
102.31
117.34
115.84
95.08
60.78
21.74
-12.49
-35.34
-45.21
-45.13
-41.13
-38.36
-38.99
-39.66
-36.53
-27.53
-13.42
-0.61
4.73
-1.36
-17.91
-38.97
-55.12
-59.58
-50.64
-31.93
-10.39
8.29
21.56
30.5
38.31
48.03
60.09
72.94
84.44
92.1
94.78
92.32
85.62
75.43
61.64
42.68
17.24
-13.22
-44.15
-67.63
-75.91
-65.5
-40.3
-10.99
9.46
12.63
-1.92
-27.8
-55.68
-78.85
-96.33
-109.33
-119.87
-128.19
-131.78
-128.26
-118
-104.55
-92.36
-83.58
-76.51
-65.07
-46.41
-20.61
8.24
33.29
48.18
50.05
40.73
25.35
9.36
-3.64
-12.16
-16.49
-16.92
-13.36
-5.49
6.45
21.36
37.22
51.83
63.79
73.21
80.9
88.01
95.3
102.54
108.43
111.2
109.3
100.8
87.77
72.77
58.2
45.32
33.89
22.38
9.1
-7.04
-25.56
-44.24
-60.63
-71.83
-75.4
-69.86
-55.09
-32.83
-7.14
16.31
31.59
34.3
25.02
8.84
-6.81
-15.6
-14.95
-6.67
5.21
17.15
27.7
37.97
49.56
62.85
76.1
86.63
91.28
88.7
79.55
65.83
49.93
33.31
16.2
-1.85
-21.16
-41.97
-63.94
-86.5
-108.67
-128.17
-141.71
-145.14
-135.2
-111.69
-78.49
-42.22
-9.95
13.68
27.61
32.81
30.63
21.1
3.38
-22.42
-53.37
-84.15
-109
-124.21
-129.17
-125.18
-113.48
-94.19
-67.37
-34.54
-0.37
28.51
46.16
50.12
43.09
31.89
24.29
25.71
37.01
53.86
69.49
77.79
75.7
64.25
47.4
29.88
15.51
6.43
3.66
7.74
18.79
35.74
55.05
71.2
78.26
72.46
53.89
26.34
-4.64
-33.93
-57.97
-74.6
-83.04
-83.37
-76.97
-64.96
-49.5
-33.41
-19.21
-8.19
0.3
7.58
14.9
22.58
30.07
36.23
39.41
38.73
34.86
30.11
27.51
30.05
39.93
58.05
82.96
109.86
131.58
140.79
132.47
105.92
65.08
14.95
-37.25
-81.8
-111.35
-123.95
-122.62
-112.27
-96.53
-77.03
-54.7
-31.2
-9.67
6.22
14.43
16.17
15.12
16.01
22.29
34.58
51.46
68.32
79.6
80.53
68.96
45.12
11.91
-25.57
-61.18
-87.02
-98.3
-95.58
-84.74
-73.51
-68.49
-72.17
-82.65
-94.23
-100.93
-99.14
-87.04
-69.01
-49.62
-33.5
-24.01
-22.65
-29.17
-42.14
-59.07
-76.36
-89.35
-92.37
-80.83
-52.84
-10.63
39.65
87.96
124.56
144.23
147.83
141.68
133.83
131.38
138.87
157.85
186.61
220.98
254.47
278.27
283.43
264.96
225.41
175.85
131.86
106.05
102.19
114.48
129.87
134.94
122.9
95.88
61.6
27.17
-6.28
-42.48
-84.19
-129.91
-172.88
-202.98
-211.98
-198.12
-167.01
-129.94
-98.62
-79.3
-74.41
-83.92
-106.06
-137.43
-173.07
-200.27
-206.36
-196.12
-175.97
-147.66
-116.01
-86.6
-64.28
-51.67
-48.71
-54.1
-64.97
-75.35
-80.02
-76.31
-64.69
-47.59
-26.94
-2.34
27.72
64.56
110.97
161.06
208.59
246.03
265.59
263.63
244.95
220.97
203.19
197.44
201.28
207.59
210.81
209.42
206.18
204.59
204.89
203.59
195.41
175.39
142.05
97.44
46.18
-4.37
-48.09
-81.79
-106.17
-124.24
-139.7
-155.16
-173.05
-196.25
-223.18
-250.25
-270.58
-276.7
-262.91
-228.95
-180.89
-131.24
-95.49
-80.43
-87.17
-109.97
-141.31
-173.39
-200.12
-216.45
-220.62
-215.75
-202.15
-185.15
-171.5
-168.35
-177.23
-193.03
-205.08
-188.02
-158.48
-116.7
-71.01
-19.68
32.83
82.08
116.82
141.48
162.77
183.4
204.52
222.15
232.03
230.3
216.42
191.69
157.83
118.24
74.94
36.84
12.3
6.1
15.9
33.64
48.21
48.46
30.76
-4.64
-49.32
-94.59
-136.09
-173.99
-209.44
-229.84
-245.35
-247.59
-231.58
-195.25
-133.46
-55.49
18.71
70.04
91.18
85.21
65.11
40.79
17.26
-5.21
-29.04
-54.54
-79.57
-97.92
-107.06
-103.85
-89.63
-68.65
-45.67
-25.28
-9.37
3.48
16.77
30.27
44.21
57.57
68.86
77.87
85.54
94.33
108.36
131.83
163.35
203.02
250.87
307.26
363.62
409.98
437.02
439.35
434.16
421.08
397.87
365.77
320.17
265.79
210
158.2
112.42
71.15
27.48
-22.04
-77.14
-135.05
-190.95
-240.41
-280.45
-309.09
-319.06
-307.77
-276.13
-230.71
-180.77
-132.95
-90.49
-55.74
-25.88
0.85
22.71
38.74
49.39
56.24
60.85
63.8
64.49
61.38
51.81
31.67
-1.71
-47.36
-100.18
-153.18
-200.28
-236.58
-257.03
-257.04
-234.96
-193.37
-139.6
-84.07
-36.83
-4.23
12.96
18.62
18.04
14.97
10.79
5.4
-1.3
-8.67
-15.41
-20.46
-23.66
-26.1
-29.8
-36.58
-46.97
-60
-73.62
-85.53
-93.96
-98.78
-99.82
-97.81
-93.72
-88.19
-81.47
-73.38
-63.86
-53.36
-42.78
-33.3
-26.29
-22.69
-22.81
-26.34
-32.23
-39.41
-47.16
-55.12
-63.2
-71.63
-80.55
-89.98
-99.79
-109.27
-117.87
-125.19
-130.98
-134.87
-136.44
-134.87
-128.83
-120.37
-110.14
-98.72
-86.77
-74.98
-63.89
-53.83
-44.76
-36.38
-28.36
-19.98
-11.08
-2.03
6.45
13.72
19.54
24.33
28.98
34.42
41.52
50.16
59.25
67.21
72.8
75.83
77.48
79.92
85.45
95.67
110.45
128.01
145.73
161.42
174.34
185.56
197.33
212.04
231.4
255.9
284.85
316.3
346.95
371.9
385.38
382.64
362.36
328.33
288.69
252.78
226.63
209.98
196.48
177.45
146.96
105.16
58.19
14.51
-19.46
-42.02
-55.62
-64.02
-69.28
-70.66
-65.56
-51.72
-28.97
0.78
34.61
69.99
105.21
138.93
169.5
194.5
211.55
219.5
219.39
214.05
206.72
199.42
192.29
184.55
175.72
166.43
157.93
150.76
143.67
133.85
118.77
98.34
75.96
57.06
45.83
42.67
43.73
42.76
34.39
16.54
-8.97
-37.98
-66.81
-94.41
-122.41
-153.53
-189.52
-229.97
-272.26
-312.39
-346.99
-371.05
-380.39
-374.06
-355.07
-328.69
-299.75
-271.2
-244.64
-218.41
-191.17
-163.39
-137.32
-116.34
-103.96
-103.07
-116.02
-142.07
-176.59
-211.9
-239.56
-253.26
-251.3
-236.94
-216.73
-197.45
-182.76
-172
-161.51
-146.95
-125.35
-95.92
-59.47
-18.04
25.1
65.38
97.41
116.48
121.25
115.37
106.82
104.84
115.55
138.97
169.2
197.59
216.97
224.68
222.63
214.85
204.66
193.26
180.59
167.12
154.69
145.58
140.64
137.86
133.03
122.1
103.69
80.11
56.16
36.62
24.14
18.82
19.21
23.55
30.38
38.2
44.9
48.09
46.04
38.75
28.18
17.18
7.86
0.55
-6.06
-13.83
-23.65
-34.79
-45.41
-53.83
-59.63
-63.9
-68.5
-75.07
-84.24
-95.6
-108.21
-121.13
-133.6
-144.76
-153.32
-157.68
-156.64
-150.25
-139.88
-127.49
-114.5
-101.06
-86.54
-70.63
-54.36
-40.11
-30.43
-26.51
-27.4
-30.46
-32.84
-32.93
-30.79
-27.46
-23.93
-20.35
-16.03
-10.05
-1.85
8.5
20.21
31.91
41.8
48.13
49.98
48
44.43
42.15
43.21
47.58
53.23
57.49
58.79
57.63
55.92
55.37
56.31
57.63
57.96
57.05
56.08
56.76
59.9
64.58
68.74
70.52
69.3
65.64
60.25
53.05
43.29
30.61
15.91
1.4
-10.78
-19.88
-27.06
-34.32
-42.8
-51.67
-58.5
-61.02
-58.69
-53.25
-47.65
-44.26
-43.6
-44.37
-44.6
-43.12
-40.3
-37.73
-37.19
-39.56
-44.14
-48.79
-50.71
-47.84
-39.86
-28.64
-17.31
-8.83
-4.31
-2.48
-0.58
3.93
11.65
20.81
28.29
31.54
30.01
25.38
20.61
18.29
19.39
22.97
26.87
28.94
28.15
24.86
20.41
16.37
13.73
12.58
12.45
12.73
13.12
13.62
14.22
14.77
14.87
14.19
12.69
10.69
8.56
6.45
4.09
1.06
-2.75
-7.01
-10.99
-14.02
-15.78
-16.43
-16.34
-15.79
-14.73
-12.81
-9.73
-5.49
-0.43
4.86
9.85
14.21
17.96
21.32
24.49
27.41
29.71
30.75
29.96
27.22
23.14
18.93
16.11
15.81
18.2
22.39
26.86
30.12
31.41
30.88
29.42
27.98
27.08
26.68
26.46
26.44
27.22
29.89
35.43
44.18
55.49
68.1
80.67
92.41
103.21
113.43
123.37
133.01
141.99
150.13
157.66
165.37
174.08
183.93
193.74
201.01
202.44
195.18
177.8
150.65
115.65
75.53
33.13
-9.1
-49.04
-84.89
-115.17
-139.09
-157.13
-171.14
-184.03
-199.37
-220.66
-250.65
-290.25
-337.54
-387.4
-432.18
-463.82
-476.56
-469.14
-445.23
-411.83
-376.48
-344.54
-318.27
-297.45
-281.18
-269.12
-261.53
-258.08
-256.64
-253.29
-243.4
-223.68
-193.72
-156.08
-115.23
-75.45
-38.94
-5.15
28.34
64.43
105.25
151.26
201.05
251.26
296.56
329.98
344.03
332.9
295.74
238.83
174.71
118
79.36
61.29
58.24
61.19
63.84
66.35
74.13
92.67
122.34
156.49
184.6
197.93
194.13
177.85
157.43
139.95
128.09
120.37
113.49
105.05
94.72
83.96
74.7
68.17
64.2
61.32
57.62
51.65
43.13
33.14
23.49
15.52
9.28
3.49
-3.44
-12.13
-21.74
-30.97
-39.81
-50.88
-68.46
-95.71
-131.38
-168.57
-196.15
-203.18
-183.79
-140.22
-82.87
-26.85
13.73
31.2
27.39
13.1
2.78
7.74
31.2
67.58
106.21
137.16
155.89
163.95
166.86
168.84
170.06
167.58
159.42
147.56
137.45
134.07
137.96
145.3
149.77
146.41
134.47
117.31
99.56
83.56
67.52
42.06
2.03
-49.09
-99.32
-135.66
-152.28
-152.29
-143.16
-131.67
-120.81
-109.27
-94.71
-76.73
-57.34
-39.68
-26.5
-18.42
-14.26
-11.57
-6.88
2.34
16.43
33.44
50.22
63.36
71.47
73.15
68.66
59.92
49.56
39.7
31.28
24.22
17.45
10.24
1.15
-10.25
-22.77
-34.02
-41.59
-44.29
-42.32
-37.83
-33.33
-32.84
-39.03
-51.93
-69.21
-88.05
-107.29
-123.28
-136.35
-148.04
-162.61
-183.49
-212.13
-247.55
-287.26
-327.72
-363.8
-389.85
-386.11
-342.58
-265.39
-175.42
-95.86
-41.24
-14.35
-9.35
-18.18
-34.24
-56.63
-86.67
-124.53
-166.6
-207.28
-242.75
-269.51
-286.69
-295.11
-298.26
-299.18
-298.9
-295.5
-286.6
-271.01
-248.86
-222.38
-194.21
-167.54
-143.5
-126.36
-115.99
-110.19
-105.84
-99.62
-89.25
-73.38
-52.22
-26.7
2.03
33.89
68.78
106.64
147.43
190.54
234.72
277.78
316.96
349.57
374.17
390.01
397.05
395.94
387.59
373.51
356.4
339.75
327.03
320.12
317.46
314.36
305.49
288.7
267.25
249.2
243.17
254.02
279.42
310.78
337.69
352.67
353.71
342.85
322.71
293.86
255.54
207.82
153.6
98.51
48.49
6.78
-27.03
-55.43
-80.09
-99.06
-107.23
-98.95
-71.34
-25.97
31.19
91.6
146.38
188.45
213.83
222.84
219.41
209.68
199.02
188.96
176.05
153.75
117.08
67.06
11.79
-36.83
-68.97
-81.45
-79.31
-72.07
-67.95
-69.8
-75.28
-80.75
-85.1
-89.44
-92.73
-91.03
-77.73
-46.69
3.38
66.12
127.7
170.9
184.15
169.34
138.54
107.73
89.23
86.92
95.69
104.41
101.5
83.68
61.36
50.52
63.8
104
164.45
234.13
303.3
366.02
393.75
370.08
296.32
190.55
73.82
-39.82
-141.8
-218.68
-270.77
-298.05
-299.95
-281.56
-254.13
-231.46
-223.75
-233.69
-256.45
-284.68
-309.37
-321.24
-315.88
-294.99
-265.69
-236.86
-215.28
-203.06
-197.58
-190.54
-171.5
-135.26
-85.98
-35.21
5.03
29.07
39.83
44.93
51.54
61.77
71.31
72.48
60.68
38.29
13.07
-6.38
-15.2
-13
-2.16
13.84
29.46
40.15
43.48
39.67
30.87
20.12
8.83
-4.01
-21.81
-51.71
-97.07
-154.05
-212.97
-263.88
-301.22
-326.81
-346.4
-365.94
-392.88
-429.24
-469.98
-505.23
-525.3
-523.48
-499.46
-457.5
-380.97
-272.21
-151.83
-46.5
29.33
72.28
97.38
113.81
123.28
123.41
109.72
80.73
42.07
5.68
-15.66
-12.54
17.17
70.53
140.83
215.78
279.7
316.12
315.98
281.96
225.77
159.19
90.51
24.19
-39.14
-97.35
-147.87
-185.53
-206.24
-209.79
-200.3
-182.83
-160.68
-135.36
-107.13
-75.25
-38.53
2.64
45.57
85.65
118.57
141.64
153.87
156.21
151.73
145.85
144.34
150.68
163.9
178.54
186.74
182.13
163.23
135.13
108.11
93.02
96.74
120.15
159.03
206.96
257.59
304.96
342.82
364.04
361.5
330.79
273.25
196.96
114.59
38.8
-22.28
-67.54
-101.78
-131.75
-161.4
-188.84
-206.77
-206.14
-180.72
-130.5
-62.31
12.37
80.76
132.2
160.19
163.21
144.33
110.19
69.45
31.02
2.54
-10.73
-6.15
16.22
53.6
100.13
146.8
182.52
196.79
183.16
142.22
82.42
17.5
-38.24
-74.98
-90.48
-89.74
-81.83
-75.88
-77.99
-90.26
-111.59
-139.08
-168.82
-195.55
-212.75
-214.23
-197
-163.98
-124.08
-88.54
-65.36
-54.84
-49.6
-38.69
-14.37
23.59
68.03
108.79
138.5
155.68
163.5
165.57
162.36
149.89
122.19
75.73
12.82
-57.7
-122.65
-168.53
-185.54
-170.39
-126.99
-64.84
3.83
67.09
115.95
145.65
155.19
146.1
121.33
85.21
43.66
3.91
-27.58
-47.2
-55.7
-57.22
-56.09
-53.77
-47.59
-32.62
-5.26
33.15
75.98
113.69
137.52
142.53
128.42
99.12
61.13
22
-11.58
-35.59
-50.7
-62.33
-78.06
-103.64
-139.14
-177.79
-208.65
-221.62
-211.99
-182.37
-141.47
-100.27
-68.07
-49.49
-43.62
-45.21
-47.2
-43.76
-32.96
-17.46
-2.79
5.54
5.13
-2.15
-11.63
-18.74
-22.08
-24.04
-29.17
-40.83
-58.75
-78.54
-93.49
-97.82
-89.19
-69.76
-44.95
-21.02
-2.5
9.25
15.92
20.85
26.89
34.96
43.81
51.07
54.9
54.91
52.14
48.14
44.12
40.61
37.92
36.7
37.67
41.12
46.09
50.62
52.83
52.31
50.49
49.8
51.98
56.74
62.13
65.89
67.02
65.8
62.68
56.8
45.56
26.09
-2.27
-36.03
-67.98
-90.03
-97.06
-89.5
-73.27
-56.88
-47.48
-48
-56.26
-66.77
-73.58
-73.14
-65.56
-54.16
-43.39
-36.62
-34.64
-35.51
-36.09
-33.87
-28.27
-20.71
-13.14
-6.46
0.47
9.75
22.42
36.65
47.79
50.54
42.21
24.99
5.2
-9.77
-15.21
-11.02
-1.06
9.81
18.88
26.84
36.61
50.43
67.81
85.22
98.08
103.44
101.88
97.04
93.17
92.97
96.57
102.68
110.58
120.84
134.06
148.83
160.43
162.43
151.03
129.15
107.09
98.07
110.94
144.31
186.2
219.63
231.34
218.43
188.95
156.19
130.68
114.79
102.49
84.3
53.78
11.68
-34.66
-75.4
-103.69
-118.62
-124.9
-129.46
-137.86
-152.21
-171.11
-191.27
-209.23
-222.17
-228.26
-226.62
-217.65
-203.07
-185.28
-165.98
-144.86
-119.72
-88.7
-52.86
-17.86
6.91
12.09
-7.29
-49.49
-106.83
-169.24
-227.66
-275.86
-310.44
-330.74
-338.35
-337.41
-334.31
-336.01
-347.1
-367.47
-391.92
-412.3
-421.55
-416.25
-397.13
-367.4
-330.3
-287.63
-240
-188.22
-134.42
-82.36
-36.39
-0.49
22.67
32.52
30.52
19.87
4.84
-10.12
-20.78
-23.7
-16.27
3.34
36.4
83.18
142.15
209.11
277.36
338.71
385.63
413.17
419.59
405.96
374.3
326.42
264.56
193.49
122.19
62.94
27.37
20.95
39.79
71.49
100.75
116.08
114.66
102.12
88.18
80.89
83.23
93.39
107.35
121.66
134.47
144.85
151.68
153.71
150.45
142.84
133.06
122.89
112.13
98.2
77.63
48.85
14.68
-17.47
-38.24
-40.58
-23.67
5.91
36.36
55.49
55.62
36.46
4.79
-29.09
-55.52
-68.51
-66.41
-50.87
-25.21
6.65
40.54
71.97
96.51
110.91
114.15
107.94
96.21
83.81
74.86
71.69
74.36
80.82
87.77
91.53
89.06
78.73
60.99
38.24
14.3
-6.72
-21.85
-30.04
-32.38
-31.34
-29.6
-29.07
-30.4
-33.3
-37.08
-41.22
-45.49
-49.74
-53.69
-56.91
-58.9
-59.36
-58.39
-56.47
-54.47
-53.22
-53.22
-54.3
-55.66
-56.23
-55.15
-52.22
-47.87
-43.04
-38.67
-35.47
-33.69
-33.18
-33.61
-34.57
-35.72
-36.77
-37.6
-38.24
-38.9
-39.82
-41.1
-42.53
-43.65
-43.82
-42.58
-39.81
-35.91
-31.7
-28.38
-27.16
-29.04
-34.23
-41.53
-48.04
-49.83
-43.45
-27.53
-3.61
24.62
52.99
78.52
100.18
118.16
132.93
144.5
152.75
158.54
164.3
173.44
188.39
209.11
232.72
255.19
273.01
283.93
286.21
276.93
251.97
208.21
147.03
76.3
8.86
-42.25
-70.01
-76.59
-72.1
-69.22
-77.11
-97.75
-126.63
-156.36
-180.49
-195.61
-200.8
-197
-185.37
-166.83
-141.7
-110.06
-72.17
-29.31
14.57
53.49
80.3
90.44
84.86
70.3
56.65
52.33
60.3
76.37
92.19
98.67
90.05
66.06
31.14
-8.03
-45.73
-79.16
-112.12
-146.61
-181.33
-211.49
-231.31
-237.41
-230.4
-215.9
-197.87
-178.21
-155.13
-125.52
-88.22
-46.58
-10.1
9.76
4.99
-23.79
-67
-109.38
-137.4
-145.1
-135.4
-116.52
-95.81
-75.82
-54.04
-26.79
7.29
45.43
82.58
114.56
140.47
162.74
185.04
209.82
236.58
262.66
284.17
297.43
299.78
289.48
266.65
234.09
198.34
168.31
152.47
154.77
171.33
190.9
198.68
183.67
144.26
89.26
33.4
-9.91
-34.49
-43.39
-45.7
-51.72
-66.45
-87.97
-109.89
-125.94
-132.84
-130.48
-120.4
-104.21
-84.63
-64.71
-48.72
-42.06
-49.61
-73.2
-109.83
-153.07
-196.06
-235.56
-270.61
-300.11
-320.64
-326.11
-309.82
-267.86
-202.55
-115.24
-19.27
65.19
121.43
145.32
145.21
133.75
120.98
111.95
104.86
94.91
78.86
55.77
25.89
-10.06
-51.51
-95.42
-136.48
-168.1
-185.56
-187.24
-174.93
-152.75
-125.18
-95.46
-65.37
-36.79
-12.94
1.37
3
-6.55
-19.65
-25.59
-15.88
10.16
43.92
72.36
84.89
78.61
58.09
31.64
6.45
-13.93
-28.82
-39.45
-46.32
-49.03
-46.68
-39.09
-26.98
-12.04
4.04
20.18
36.73
55.88
78.89
106.86
139.13
172.68
202.43
222.7
228.99
219.72
197.05
166.17
133.93
106.37
87.15
76.61
72.22
69.74
64.88
54.92
39.27
19.61
-1.38
-21.15
-38.23
-52.4
-64.07
-73.67
-81.14
-85.95
-87.26
-84.44
-77.31
-66.06
-51.21
-33.52
-14.27
4.63
20.85
32.25
37.35
35.9
29.16
19.83
11.47
7.02
7.67
12.25
17.89
21.51
21.48
18.57
15.76
16.57
22.69
32.39
41.35
45.05
41.22
31.01
18.57
9.63
9.2
19.03
36.15
53.54
62.3
54.58
26.06
-22.63
-85.31
-149.4
-199.69
-225.31
-224.86
-205.25
-175.81
-143.22
-110.34
-77.71
-46.14
-18.19
2.71
14.09
16.27
12.37
7.04
4.22
6.04
12.25
20.47
27.51
30.81
29.76
25.81
21.42
18.8
19.16
22.31
26.95
31.35
34.09
34.94
34.84
35.23
37.28
41.58
47.81
54.91
61.56
66.44
68.9
69.13
67.76
65.58
63.42
61.9
61.3
61.59
62.2
62.34
61.12
57.66
51.2
41.38
28.39
13.15
-2.66
-17.28
-28.66
-34.98
-35
-28.15
-14.98
3.31
25.38
50.38
76.6
102.59
127.15
149.72
170.2
188.45
204.5
218.53
231.16
241.7
249.16
252.41
250.6
243.23
229.38
208.43
179.91
149.25
119.64
93.35
71.59
55.01
43.48
34.12
24.34
13.26
3.93
-3.61
-10.21
-17.41
-25.77
-35.36
-50.4
-73.54
-103.7
-132.47
-157.19
-177.81
-196.35
-213.52
-229.48
-250.89
-282.12
-321.69
-356.82
-383.61
-402.52
-417.89
-432.33
-447.67
-473.67
-517.01
-576.04
-633.51
-682.09
-718.94
-745.48
-760.5
-703.16
-542.73
-295.75
-71.55
105.39
235.73
342.09
428.21
495.23
543.07
563.62
550.67
516.67
485.99
469.03
467.11
473.89
486.2
491.82
485.54
464.91
432
397.81
363.15
335.07
311.99
293.12
277.64
261.66
241.17
215.69
191.61
170.76
153.27
136.3
119
101.41
82.79
61.68
37.99
14.52
-8.25
-30.66
-54.75
-81.19
-109.5
-138.44
-166.82
-192.67
-212.88
-225.38
-228.93
-223.98
-211.33
-192.14
-167.57
-139.49
-109.81
-80.31
-52.42
-27.27
-6.01
10.62
22.51
30.17
34.43
36.35
36.9
36.68
35.59
32.87
27.39
18.27
5.27
-11
-29.15
-47.74
-65.8
-83.37
-101.43
-121.67
-145.65
-174.1
-206.65
-242.06
-278.81
-315.7
-352.38
-389.21
-427.21
-467.8
-512.62
-563.1
-619.48
-679.46
-737.36
-784.75
-812.62
-814.69
-789.86
-742.77
-681.89
-616.22
-552.33
-493.12
-438.64
-387.85
-340.24
-296.27
-256.62
-221.36
-189.48
-159.36
-129.7
-100.01
-70.81
-43.21
-18.37
3.25
21.9
38.38
53.71
68.72
83.88
99.3
114.85
130.24
145.16
159.2
171.94
183.11
192.77
201.5
210.37
220.68
233.37
248.59
265.65
282.98
298.77
311.58
320.97
327.84
334.63
344.78
361.91
388.04
421.68
457.12
484.96
494.57
477.35
429.75
354.79
261.7
163.71
74.6
5.39
-38.22
-56.59
-55.27
-42.81
-28.2
-18.6
-18.01
-27.17
-44.34
-66.49
-90.08
-111.28
-126.52
-133.01
-129.36
-115.89
-94.27
-66.65
-35.16
-1.23
34.26
70.6
107.09
142.69
176.45
207.75
236.68
264.29
292.75
325.21
364.93
413.75
470.19
528.46
579.1
612.12
620.48
602.8
563.93
512.8
458.88
408.61
364.1
323.9
285.76
248.33
211.81
177.2
144.99
114.53
84.03
51.52
15.84
-22.05
-59.76
-94.54
-124.48
-149.05
-169.24
-187.29
-205.93
-227.68
-252.74
-281.37
-314.73
-354.33
-399.94
-447.7
-490.23
-518.81
-526.58
-507.75
-462.92
-399.25
-327.54
-257.52
-194.53
-139.77
-92.41
-51.6
-11.3
32.82
81.78
133.14
183.56
231.04
275
315.37
352.2
392.81
442.42
501.1
563.31
622.08
672.74
713.45
743.67
715.99
604.54
416.3
189.68
-32.52
-224.19
-377.68
-495.91
-585.85
-653.99
-698
-718.15
-716.88
-700.64
-676.66
-649.58
-620.97
-590.68
-556.09
-508.64
-444.92
-367.57
-284.92
-206.36
-138.64
-84.96
-45.99
-17.45
8.62
36.85
66.99
94.76
115.71
127.81
131.24
127.67
124.73
130.79
149.34
178.27
212.32
247
280.65
313.53
347.08
389.83
449.14
525.76
613.27
701.5
781.07
845.75
891.3
870.1
757.13
560.68
319.23
77.59
-134.71
-307.25
-441.1
-544.29
-621.4
-673.87
-699.76
-699.21
-677.08
-641.08
-598.43
-552.37
-507.37
-464.73
-418.8
-363.47
-296.72
-221.68
-143.91
-67.69
8.21
79.75
145.59
205.28
256.08
293.18
312.94
316.94
312.72
314.21
323.68
341.81
365.03
388.34
408.49
425.95
443.82
438.92
443.08
444.1
433.47
405.7
361.66
307.71
252.71
203.93
164.22
135.68
109.37
81.79
50.68
16.71
-17.72
-50.06
-78.92
-104.53
-124.83
-144.22
-162.49
-181.02
-201.23
-224.03
-249.42
-276.45
-303.83
-327.87
-348.74
-364.25
-375.75
-385.75
-396.74
-410.32
-427.48
-449.86
-478.61
-515.85
-542.1
-539.23
-496.72
-418
-317.24
-211.59
-115.85
-39.64
13.32
45.71
61.67
66.08
63.04
55.52
45.83
35.97
27.92
23.79
25.39
31.64
39.94
47.61
53.02
56.34
58.89
62.25
68.32
78
90.88
105.52
120.43
134.64
148.3
162.57
175.37
186.09
188.96
180.2
158.46
125.56
85.57
43.03
1.5
-36.98
-69.13
-95.48
-115.64
-128.82
-133.92
-130.01
-116.39
-92.59
-59.12
-18.13
26.03
68.83
105.78
134.13
153.06
163.33
166.41
163.55
156.02
144.63
130.92
116.37
102.86
91.86
84.25
80.12
78.62
78.35
77.69
75.97
73.06
70.02
68.06
68.17
71.01
76.82
85.63
96.74
110.12
121.39
125.73
118.66
98.32
66.71
29.4
-6.43
-35.09
-54.23
-65.31
-71.3
-75.29
-78.28
-79.15
-75.94
-67.58
-55.07
-41
-28.47
-19.14
-13.61
-11.04
-9.99
-9.32
-8.49
-7.95
-8.43
-10.76
-12
-11.38
-9.79
-9.37
-12.23
-18.74
-27.6
-34.95
-35.77
-25.92
-5.01
23.6
54.14
80.68
98.98
105.03
97.33
77.1
48.05
14.57
-18.97
-48.74
-71.69
-86.06
-95.16
-103.22
-113.15
-125.29
-138.5
-151.57
-163.91
-175.51
-186.82
-203
-228.39
-264.07
-307.33
-353.71
-399.44
-442.14
-480.48
-485.57
-439.23
-342.59
-216.99
-89.13
23.5
114.88
186.33
241.97
286.39
318.94
338.77
347.2
347.94
345.86
344.31
344.87
347.5
351.58
353
348.66
338.28
323.97
309.31
297.01
288.25
282.81
279.63
274.85
264.23
249.66
232.8
215.82
200.23
186.67
175.1
165.24
155.77
145.63
134.72
123.12
111.43
100.11
89.33
78.98
68.86
58.42
47.18
35.03
21.69
7.23
-8.13
-24.08
-40.25
-56.25
-71.72
-86.41
-100.18
-113.37
-126.17
-138.66
-150.71
-162.1
-172.58
-182.05
-190.57
-198.39
-206.05
-214.15
-223.39
-234.36
-247.37
-261.99
-276.89
-289.87
-298.47
-300.9
-296.62
-286.72
-273.34
-258.91
-245.24
-233.1
-222.37
-212.56
-203.39
-194.93
-187.37
-180.56
-173.83
-166.23
-156.94
-145.76
-133.31
-120.79
-109.46
-100.08
-92.96
-87.68
-83.26
-78.61
-72.85
-65.93
-58.38
-51.03
-44.89
-41.09
-40.33
-42.67
-47.48
-53.59
-59.7
-64.28
-65.75
-63.09
-56.79
-48.51
-40.38
-34.22
-30.53
-28.91
-27.65
-24.59
-18.41
-10.85
-4.58
-1.34
-1.03
-1.42
-1.38
0.07
3.57
8.8
11.62
8.67
-0.04
-10.92
-17.42
-17.24
-10
3.13
18.85
28.09
23.96
5.92
-20.11
-43.36
-59.69
-67.56
-66.84
-59.58
-55.29
-62
-81.94
-111.33
-141.17
-170.09
-197.73
-222.77
-202.08
-113.33
30.52
189.28
304.74
382.85
435.49
470.39
497.16
517.45
524.92
515.36
490.83
459.06
431.57
409.99
392.77
378.01
363.22
342.07
310.73
270.52
227.25
189.77
159.47
135.44
116.54
101.08
84.89
65.19
42.24
19
0.41
-13.26
-23.05
-30.08
-35.89
-43.16
-53.79
-67.97
-84.13
-99.3
-112.67
-124.27
-134.75
-145.3
-157.31
-171.09
-185.29
-197.17
-203.59
-203.13
-195.99
-183.62
-167.98
-150.44
-131.41
-110.55
-87.42
-62.12
-35.3
-7.77
20.19
48.92
78.56
108.2
135.04
154.4
160.67
149.52
119.51
73.04
15.38
-47.43
-110.16
-169.28
-222.51
-268.12
-304.08
-328.6
-341.73
-346.56
-349.79
-358.77
-377.92
-406.13
-436.83
-460.45
-468.3
-456.01
-424.79
-382.03
-335.54
-289.58
-243.39
-193.46
-136.15
-69.69
4.9
83.83
157.33
216.12
255.09
274.49
277.98
270.93
259.81
251.22
250.37
253.49
255.47
254.15
250.72
246.11
238.74
225.24
201.99
166.54
110.61
30.74
-67.5
-171.58
-270
-357.34
-434.24
-505.24
-525.58
-472.36
-361.73
-237.64
-135
-64.07
-18.01
16.29
51.36
95.45
142.52
182.58
208.98
221.41
223.23
218.99
213.54
210.56
211.11
207.52
192.56
165.26
131.98
101.38
79.83
69.9
70.69
78.6
86.76
89.06
82.91
68.82
47.67
20.02
-12.81
-47.9
-81.11
-110.15
-135
-157.12
-178.29
-199.34
-218.73
-232.18
-234.37
-222.02
-196.13
-162.56
-129.05
-101.79
-83.3
-72.08
-63.63
-52.72
-40.47
-27.73
-16.12
-6.74
0.69
7.81
16.55
27.92
41.37
55.04
67.42
77.34
84.87
91.15
97.97
106.87
118.56
132.72
148.27
164.53
181.01
197.76
215.33
234.41
255.42
278.21
302.12
326.23
350.39
375.17
401.88
431.87
465.34
500.38
532.72
556.63
566.54
558.91
532.98
490.76
435.94
372.77
305.04
235.69
166.94
100.42
37.24
-22.28
-78.48
-132
-183.02
-230.72
-273.34
-308.72
-335.27
-352.65
-361.94
-365.12
-364.13
-360.12
-353.3
-343.31
-329.85
-313.14
-294.04
-273.64
-252.88
-232.29
-212.11
-192.5
-173.88
-156.94
-142.45
-130.9
-122.05
-114.95
-108.17
-100.43
-91.22
-81.06
-71.24
-63.11
-57.34
-53.5
-50.32
-46.38
-40.85
-33.93
-26.7
-20.45
-15.9
-12.8
-10.13
-6.74
-2.11
3.29
8.13
10.85
10.38
6.56
0.14
-7.67
-15.64
-22.86
-28.7
-32.68
-34.35
-33.42
-29.94
-24.46
-17.75
-10.56
-3.13
4.75
13.46
23.03
32.76
41.33
47.32
49.86
49.19
46.64
44.16
43.54
45.87
51.16
58.65
67.22
75.76
83.33
89.07
92.06
91.36
86.36
77.12
64.71
51.1
38.57
28.98
23.34
21.62
23.05
26.54
30.96
35.18
38.08
38.56
35.83
29.7
20.8
10.46
0.41
-7.81
-13.22
-15.46
-14.78
-11.84
-7.46
-2.58
1.9
5.19
6.73
6.31
4.09
0.54
-3.61
-7.62
-10.77
-12.55
-12.74
-11.33
-8.66
-5.38
-2.21
0.34
2.03
3
3.36
3.02
2
0.41
-1.35
-2.7
-3
-1.94
0.44
3.65
6.96
10.25
13.54
16.71
19.19
20.1
18.37
13.74
6.66
-1.71
-8.56
-11.45
-9.34
-2.84
6.42
16.08
24.89
31.86
36.24
40.24
46.11
54.89
65.85
77.28
86.23
91.71
93.22
90.8
89.44
94.09
106.92
126.14
147.58
165.17
177.12
183.8
187.4
196.7
219.78
259.79
313.63
374.39
432.22
482.27
521.61
517.26
451.52
330.34
181.86
38.51
-64.52
-132.22
-174.17
-199.49
-216.17
-228.4
-238
-247.28
-259.4
-271.89
-279.59
-274.36
-254.49
-225.22
-191.36
-156.2
-121.51
-87.85
-56.02
-30.36
-14.15
-10.88
-21.97
-44.83
-74.83
-108.34
-143.52
-180.71
-218.73
-254.14
-284.46
-308.99
-329.5
-347.42
-362.13
-369.98
-365.15
-342.83
-301.48
-251.98
-198.36
-145.06
-94.93
-49.03
-7.53
28.75
57.01
73.03
73.17
58.16
30.7
-2.55
-34.43
-60.22
-78.44
-89.23
-92.5
-87.28
-72.2
-49.45
-24.33
-3.57
8.29
12.01
13.92
22.82
44.26
76.76
110.25
131.6
131.6
110.84
80.59
57.5
54.78
74.46
105.74
129.95
130.74
102.66
53.79
1.18
-38.72
-58.5
-62.36
-61.97
-68.75
-87.19
-113.22
-137.23
-149.63
-145.15
-123.77
-88.63
-43.3
9.66
68.18
129.34
188.31
238.94
274.91
291.74
287.8
264.54
226.34
179.82
132.96
93.36
66.19
52.44
48.78
49.22
47.93
41.81
31.42
19.86
10.44
4.52
1.02
-2.44
-7.75
-15.15
-23.18
-29.8
-33.51
-34.13
-32.66
-30.81
-29.96
-30.48
-31.58
-31.76
-29.66
-24.99
-18.85
-13.28
-10.23
-10.36
-12.66
-14.95
-14.95
-11.45
-4.79
3.44
11.35
17.54
21.64
24.12
25.73
26.95
27.78
27.87
26.92
25.07
22.97
21.54
21.43
22.61
24.37
25.63
25.52
23.7
20.54
16.78
13.15
10.02
7.31
4.7
1.82
-1.52
-5.3
-9.3
-13.21
-16.68
-19.37
-20.94
-21.1
-19.73
-16.97
-13.2
-8.98
-4.85
-1.23
1.76
4.21
6.39
8.57
11.01
13.82
16.91
19.96
22.32
23.28
22.2
18.92
13.8
7.78
2.03
-2.4
-4.94
-5.71
-5.41
-5.12
-5.84
-8.17
-12
-16.59
-20.87
-23.93
-25.46
-26.05
-27
-30
-36.64
-48.03
-64.56
-85.98
-111.42
-139.63
-169.19
-198.76
-227.26
-253.93
-278.05
-298.43
-313.04
-319.11
-313.67
-294.67
-261.92
-217.65
-166.24
-113.28
-64.19
-22.82
9.46
33.92
53.53
71.73
90.81
111.24
131.78
150.35
165.27
175.86
182.43
185.66
185.96
183.37
177.85
169.75
159.99
149.64
139.36
128.95
117.36
103.26
85.89
65.65
44.41
24.86
9.72
0.68
-2.03
0.36
5.87
12.63
19.37
25.65
31.57
37.69
44.83
54.09
66.55
82.69
101.77
121.61
139.3
152.32
159.77
162.81
164.03
166.23
171.2
179.23
189.2
199.25
207.03
209.87
204.92
189.75
163.56
128.12
87.82
48.23
14.04
-12.85
-33.71
-51.61
-69.36
-87.88
-105.86
-120.74
-130.42
-134.1
-132.31
-126.04
-116.05
-102.89
-87.45
-71.53
-57.76
-48.85
-46.5
-50.88
-60.61
-73.3
-86.33
-97.36
-104.78
-107.91
-107.13
-103.78
-99.68
-96.47
-94.89
-94.52
-93.7
-90.28
-82.43
-69.23
-51.03
-29.39
-6.74
14.22
31.09
42.52
48.32
49.37
47.13
43.1
38.61
34.91
33.13
33.9
37.09
41.36
44.56
44.55
40.19
31.91
21.39
10.6
0.99
-6.92
-13.26
-18.29
-22
-24.23
-24.86
-23.95
-21.64
-17.95
-12.86
-6.55
0.25
6.22
9.7
9.52
5.73
-0.17
-5.96
-9.71
-10.81
-10.11
-9.3
-9.78
-11.72
-14.03
-15.23
-14.57
-12.65
-11.11
-11.49
-14.08
-17.44
-18.92
-16.01
-7.56
5.53
20.77
34.99
45.61
51.35
52.49
50.29
46.27
41.45
36.16
30.27
23.71
16.99
11.35
8.29
8.83
12.91
19.45
26.73
33.04
37.21
38.88
38.35
36.28
33.42
30.29
27.1
23.74
19.99
15.75
11.26
7.11
4.03
2.56
2.68
3.79
4.99
5.48
4.99
3.76
2.27
0.82
-0.76
-2.99
-6.29
-10.68
-15.5
-19.74
-22.44
-23.18
-22.3
-20.82
-19.93
-20.5
-22.75
-26.22
-30.04
-33.26
-35.28
-35.92
-35.38
-34
-32.15
-30.12
-28.12
-26.38
-24.88
-23.25
-20.77
-16.65
-10.53
-3.03
4.34
9.7
11.77
10.66
7.93
5.74
5.72
8.19
12.08
15.73
17.83
18.04
16.86
15.06
13.12
11.02
8.6
5.91
3.5
2.18
2.56
4.46
6.92
8.55
8.28
5.75
1.48
-3.44
-7.87
-11.09
-13.04
-14.1
-14.76
-15.4
-16.11
-16.88
-17.76
-18.97
-20.8
-23.32
-26.2
-28.7
-29.99
-29.44
-27.02
-23.28
-19.1
-15.24
-11.97
-8.98
-5.68
-1.66
3
7.68
11.6
14.2
15.42
15.65
15.49
15.32
15.17
14.77
13.83
12.24
10.17
8.02
6.22
5.1
4.75
5.1
5.93
6.87
7.53
7.62
7.07
6.11
5.19
4.72
4.84
5.31
5.61
5.28
4.16
2.43
0.46
-1.45
-3.26
-5.05
-6.93
-8.83
-10.56
-11.92
-13.01
-14.11
-15.56
-17.49
-19.54
-21.17
-21.84
-21.35
-20.09
-18.83
-18.36
-18.93
-20.08
-20.64
-19.54
-16.33
-11.54
-6.58
-3.07
-1.97
-3.09
-5.05
-5.89
-4.35
-0.28
5.15
9.91
12.12
10.91
6.88
1.93
-1.18
-1.07
2.51
8.05
12.86
14.44
11.38
4.24
-4.9
-12.61
-17.62
-19.23
-17.83
-14.32
-9.55
-4.85
-1.97
-2.56
-5.7
-10.18
-10.43
0.59
27.95
71.9
125.47
176.78
213.71
230.52
225.81
206.31
181.47
158.87
142.02
129.01
115.17
87.05
56.79
26.44
2
-11.49
-17.55
-20.18
-25.36
-38.59
-61.46
-88.31
-113.31
-129.82
-135.8
-134.46
-131.31
-131.51
-136.49
-143.56
-146.74
-143.46
-132.94
-117.94
-103.46
-93.5
-90.63
-93.31
-97.19
-96.18
-86.76
-66.86
-36.8
1.09
43.3
83.51
114.61
130.44
128.4
110.04
81.9
52.76
30.02
17.02
12.17
11.44
11.2
10.66
11.45
15.87
24.48
35.17
44.07
47.33
43.44
33.64
20.18
6.1
-5.7
-12.4
-11.7
-2.57
13.65
33
49.65
58.1
55.53
42.76
23.87
4.25
-11.24
-19.53
-19.53
-12.07
0.3
13.79
24.48
29.94
30.47
29.27
30.77
37.74
49.38
61.52
68.61
66.25
53.78
32.99
7.03
-21.39
-50.35
-77.56
-98.89
-108.82
-103.07
-81.98
-52.51
-26.44
-15.79
-27.03
-57.69
-97.44
-133.13
-155.39
-163.19
-164.09
-169.73
-189.56
-225.15
-268.78
-306.76
-325.63
-318.17
-286.09
-238.11
-184.7
-133.32
-86.66
-44.13
-5.17
28.9
55.02
70.68
75.24
69.7
55.05
31.2
-1.92
-42.35
-84.45
-120.21
-142.22
-147.01
-136.38
-115.57
-89.99
-62.28
-32.37
0.89
37.17
74.08
108.46
138.58
165.51
192.15
221.08
251.98
281.17
303.41
314.93
316.56
314.01
315.64
327.45
349.39
374.51
392.08
392.97
373.91
338.94
296.82
256.49
223.24
197.78
177.81
160.69
145.15
130.8
117.8
105.22
90.77
71.45
45.23
12.24
-25.07
-62.89
-98.71
-131.26
-160.96
-189.48
-218.67
-249.06
-279
-304.98
-322.86
-330.81
-328.28
-316.54
-298.71
-279.39
-263.71
-256.12
-259.11
-272.2
-293.25
-316.05
-332.24
-334.57
-319.91
-290.32
-251.86
-212.04
-166.58
-117.92
-71.81
-33.95
-7.12
8.69
14.77
13.11
6.3
-2.65
-12.99
-24.03
-35.05
-45.86
-56.61
-67.46
-78.03
-87.37
-94.22
-98.94
-101.43
-101.08
-98.49
-94.19
-88.7
-82.14
-74.23
-64.36
-52.87
-39.89
-25.3
-9.16
8.54
27.59
47.83
69.19
91.91
116.08
142.52
172.37
206.08
242.71
279.35
312.13
338.09
356.96
371.21
384.31
398.25
411.73
421.13
422.96
416.49
403.94
388.3
370.48
348.11
317.54
277.09
229.56
181.24
138.31
103.3
74.23
47.25
20.2
-5.18
-24.37
-33.58
-33.07
-27.66
-24.69
-30.97
-50.36
-83.52
-128.1
-179.6
-231.57
-275.67
-303.18
-307.24
-285.3
-240.05
-178.56
-109.61
-41.95
16.68
60.37
85.34
90.69
78.63
54.79
26.88
3.27
-10.36
-13.15
-8.68
-2.9
-1.38
-7.42
-21.18
-40.39
-60.69
-78.55
-93.35
-106.86
-121.32
-136.9
-150.61
-156.94
-150.77
-128.92
-93.21
-53.36
-23.37
-15.26
-31.17
-62.35
-91.64
-112.14
-122.92
-126.54
-126.36
-124.29
-119.11
-107.85
-88.04
-59.36
-24.45
13.46
51.55
88.35
124.85
162.71
202.34
241.84
277.28
304.31
321.43
329.75
331.13
326.95
315.59
293.56
258.13
209.73
152.33
92.84
37.98
-12.09
-54.16
-85.05
-102.8
-107.24
-99.58
-82.27
-58.18
-30.54
-2.7
23.32
45.39
62.35
74.22
82.76
88.86
93.07
95.3
94.95
91.83
84.87
73.7
59.1
42.88
27.09
13.33
1.78
-9.37
-18.31
-25.82
-33.01
-40.38
-47.59
-54.05
-59.32
-63.86
-69.3
-77.93
-93.18
-118.29
-156.06
-208.18
-274.47
-351.55
-432.26
-506.62
-564.11
-597.7
-605.67
-592.13
-565.04
-533.01
-502.25
-475.59
-453.07
-433.71
-417.22
-403.81
-393.42
-384.91
-375.96
-363.84
-346.73
-324.38
-298.13
-270.34
-243.04
-217.06
-191.71
-165.31
-136.06
-102.93
-66.04
-26.59
13.81
53.99
93.77
133.84
175.31
218.77
263.78
308.68
350.95
387.92
417.64
439.45
454.17
463.95
471.76
480.52
492.07
506.24
520.3
529.19
526.6
506.91
467.24
409.1
338.66
265.26
198.65
146.05
110.15
89.17
78.52
72.95
68.16
61.3
50.63
35.25
15.69
-5.53
-23.48
-32
-25.89
-3.39
32.92
77.06
122.22
163.51
199.12
229.94
257.58
282.91
305.36
323.55
336.39
343.87
347.25
348.4
349.01
349.74
350.05
348.42
343.09
332.76
317
296.36
271.84
244.45
214.86
183.3
149.97
115.47
80.97
47.96
17.68
-9.37
-33.62
-56.02
-77.44
-98.22
-118.05
-136.01
-151.12
-162.79
-171.12
-177.14
-182.52
-189.28
-198.99
-212.05
-227.08
-241.37
-252.01
-257.48
-258.91
-259.85
-264.77
-276.82
-296.12
-319.39
-341.36
-356.69
-361.97
-356.62
-342.55
-323.29
-303.33
-287.79
-281.86
-289.49
-311.35
-343.45
-377.53
-403.55
-413.44
-404.44
-380.02
-347.94
-316.51
-290.99
-272.12
-257.18
-242.56
-226.2
-208.52
-191.36
-176.41
-163.71
-151.48
-136.89
-117.13
-90.29
-55.51
-12.83
36.59
89.76
141.06
182.63
206.19
206.35
183.43
144.33
100.72
64.99
46.04
46.8
64.54
93.28
126.73
160.32
191.65
219.76
244
263.43
276.91
283.75
284.32
280.3
274.17
268.11
262.99
257.89
250.67
239.14
222.41
201.53
179.1
158.14
140.76
127.49
117.17
107.64
96.75
83.42
68.22
53.24
41.14
33.79
31.29
31.91
33.01
32.52
30.01
26.49
23.41
21.1
18.35
13.31
5.05
-5.47
-15.67
-22.82
-25.72
-25.11
-23.32
-22.16
-21.58
-19.65
-14.33
-5.17
6.18
16.66
24.08
27.46
27.7
26.72
26.28
26.84
27.65
28.2
28.56
30.27
34
39.44
45.19
49.68
51.45
49.35
43.26
32.98
19.14
1.06
-21.95
-49.83
-81.09
-113.72
-146.25
-177.2
-206.13
-220.05
-206.69
-161.48
-92.02
-12.51
64.38
127.21
177.29
215.83
243.27
257.76
256.95
238.64
203.39
153.77
93.06
24.81
-49.48
-129.22
-215.74
-309.88
-409.5
-507.32
-591.97
-651.38
-676.39
-665.38
-623.9
-563.58
-497.29
-434.64
-379.03
-328.71
-279.9
-229.46
-177.31
-125.09
-74.77
-26.48
21.66
71.85
123.84
173.73
215.36
243.57
257.75
262.12
263.12
265.01
267.12
264.56
252.35
230.05
203.41
181.88
173.08
178.1
190.85
202.03
204.69
197.81
185.76
174.32
166.57
160.88
152.46
137.22
114.92
89.73
67.7
53.27
46.83
44.8
41.95
34.52
22
6.96
-6.89
-16.86
-22.43
-25.05
-26.95
-29.76
-33.84
-38.35
-41.95
-43.52
-42.58
-39.44
-35.13
-31.06
-28.51
-28.22
-29.94
-32.52
-34.42
-34.64
-33.37
-31.94
-32.01
-34.64
-39.72
-46.06
-52.13
-56.74
-59.36
-59.84
-58.25
-54.87
-50.32
-45.75
-42.39
-40.89
-40.64
-39.73
-35.9
-27.8
-15.97
-2.59
9.48
18.19
23.1
25.27
26.3
27.33
28.42
28.91
28.13
26.01
23.14
20.23
17.45
14.25
9.81
3.8
-3.06
-9.08
-12.51
-12.53
-9.91
-6.71
-5.23
-6.76
-10.89
-15.87
-19.61
-20.93
-20.09
-18.42
-17.55
-18.48
-21.3
-25.38
-29.94
-34.24
-37.74
-39.84
-39.92
-37.61
-33.04
-27.03
-20.74
-15.18
-10.69
-6.97
-3.29
1.01
6.13
11.81
17.42
22.23
25.65
27.49
27.93
27.52
26.86
26.14
25.09
23.13
19.94
15.95
12.46
10.97
12.24
15.62
19.04
20.1
17.19
10.29
0.82
-9.24
-18.3
-25.81
-32.09
-37.91
-43.85
-50.35
-57.95
-67.59
-80.57
-97.75
-118.81
-141.82
-163.69
-181.26
-192.52
-197.05
-195.58
-189.01
-177.42
-160.16
-136.77
-108.29
-77.98
-50.36
-29.45
-16.66
-10.16
-5.82
0.62
11.38
25.72
40.64
52.72
59.95
62.64
62.96
63.78
67.54
75.66
88.54
105.77
126.17
147.62
167.1
181.23
187.29
184.14
172.85
156.46
138.72
123.05
111.55
104.79
102.24
102.62
104.21
104.91
102.53
95.28
82.55
65.66
47.82
33.33
25.98
27.55
36.91
50.49
63.47
71.74
73.21
68.07
58.31
46.51
34.81
24.55
16.47
11.07
8.64
8.97
10.89
12.47
11.68
7.58
1.02
-5.59
-9.51
-9.11
-4.6
2.28
9.58
16.26
22.56
29.39
37.27
45.69
53.22
58.42
60.61
60.17
58.12
55.48
52.75
49.84
46.42
42.24
37.42
32.35
27.61
23.74
21
19.35
18.42
17.64
16.48
14.85
13.09
11.78
11.29
11.47
11.55
10.58
7.94
3.69
-1.39
-6.22
-9.92
-12.19
-13.32
-13.97
-14.84
-16.3
-18.41
-20.92
-23.54
-26.08
-28.48
-30.84
-33.27
-35.74
-37.99
-39.63
-40.26
-39.75
-38.27
-36.2
-33.96
-31.75
-29.54
-27.13
-24.27
-20.81
-16.75
-12.25
-7.5
-2.81
1.51
5.12
7.75
9.35
10.16
10.66
11.48
13.17
16.07
20.31
25.77
32.18
39.12
45.94
51.8
55.82
57.33
56.15
52.68
47.81
42.37
36.94
31.49
25.68
19.16
11.93
4.4
-2.85
-9.31
-14.95
-20.03
-24.83
-29.25
-32.82
-34.9
-35.11
-33.72
-31.57
-29.84
-29.42
-30.61
-33.01
-35.83
-38.35
-40.26
-41.77
-43.36
-45.39
-47.75
-49.89
-51.04
-50.71
-48.95
-46.43
-44.03
-42.38
-41.49
-40.71
-39.13
-36.05
-31.31
-25.44
-19.35
-13.98
-9.94
-7.45
-6.26
-5.93
-6.01
-6.11
-5.98
-5.49
-4.67
-3.63
-2.58
-1.71
-1.17
-0.95
-0.9
-0.86
-0.78
-0.85
-1.47
-2.99
-5.52
-8.63
-11.56
-13.51
-14.11
-13.64
-12.93
-13
-14.54
-17.56
-21.24
-24.4
-25.96
-25.45
-23.18
-20.17
-17.59
-16.41
-17.09
-19.61
-23.53
-27.96
-31.54
-32.41
-28.91
-20.49
-8.75
2.5
8.49
5.59
-6.7
-25.25
-44.77
-60.31
-69.54
-73.28
-74.43
-75.68
-77.96
-80.36
-81.4
-80.56
-78.98
-78.97
-82.83
-91.86
-105.93
-124.19
-145.58
-168.95
-192.56
-213.68
-228.52
-233.07
-224.58
-202.67
-169.85
-130.84
-91.11
-55.43
-26.79
-5.94
8.41
18.89
28.7
40.52
55.74
74.1
93.93
113.01
129.8
144.5
159.03
176.71
201.36
236.54
284.92
347.49
422.78
506.02
589.06
661.55
713.73
739.28
737.38
712.58
672.31
623.82
571.71
517.61
461.52
403.81
346.28
291.72
242.45
199.09
160.44
124.63
90.62
58.94
31.39
9.69
-5.98
-17.43
-28.15
-41.45
-58.9
-79.27
-99.54
-116.21
-127.07
-132.26
-134.24
-137.03
-144.05
-156.34
-171.66
-185.95
-194.85
-195.81
-189.2
-178.19
-168.22
-164.69
-171.34
-188.66
-214.62
-243.98
-268.67
-279.04
-267.34
-232.89
-182.49
-128.68
-83.7
-58.15
-56.24
-75.16
-106.96
-143.44
-183.11
-228.35
-282.16
-341.22
-402.08
-459.14
-505.72
-533.88
-537.57
-519.69
-486.84
-446.04
-396.77
-342.66
-288.25
-238.41
-195.34
-160.56
-142.39
-148.13
-179.84
-225.3
-275.63
-324.1
-367.37
-402.17
-388.03
-302.16
-150.47
-10.08
95.97
166.78
222.15
268.98
309.54
342.52
358.19
347.61
307.3
247.98
176.82
100.04
23.18
-45.13
-96.21
-129.37
-148.16
-157.98
-157.8
-151.09
-141.55
-131.86
-120.83
-106.21
-89.67
-73.84
-60.22
-44.4
-24.04
1.84
32.62
68.15
108.18
150.77
194.16
237.48
282.14
326.87
367.93
399.46
415.65
412.18
387.24
342.66
283.63
217.74
151.04
86.78
25.02
-35.92
-97.4
-158.76
-216.81
-266.56
-303.03
-323.03
-326.16
-314.48
-291.42
-260.41
-224.06
-184.32
-143.17
-103.06
-66.75
-36.49
-12.81
5.91
23.2
43.21
69.39
103.37
144.22
188.38
230.63
265.32
288
297.17
295.31
288.31
283.15
285.1
295.6
311.88
328.49
339.62
341.34
333.14
317.15
296.98
276.1
256.72
239.06
221.22
199.56
170.18
131.75
86.01
37.8
-6.56
-41.7
-65.75
-80.79
-91.29
-101.74
-113.03
-123.58
-130.34
-131.09
-125.69
-115.68
-102.69
-87.25
-68.74
-44.89
-15.54
16.68
47.2
72.22
91.25
107.3
124.86
134.7
128.12
99.42
50.33
-10.79
-73.87
-131.2
-179.35
-218.68
-251.66
-278.8
-299.57
-312.98
-319.09
-319.36
-316.29
-312.73
-311.39
-312.78
-314.87
-315.02
-311.21
-302.96
-291.42
-278.79
-267.48
-258.84
-253.17
-248.93
-243.97
-236.21
-224.18
-207.05
-183.94
-156.82
-126.08
-91.42
-51.82
-6.43
44.82
101.04
160.5
221.1
280.91
338.99
394.8
448.18
499.08
547.38
592.51
633.03
666.13
687.66
693.17
678.94
643.62
589.26
521.23
446.78
372.96
304.85
244.83
193.26
149.31
112.01
80.68
54.93
34.38
18.24
5.5
-4.9
-13.57
-20.73
-26.19
-29.7
-31.26
-31.03
-29.35
-26.34
-21.83
-15.59
-8.08
-1.11
2.19
-2.02
-16.85
-43.56
-80.68
-124.24
-168.77
-208.6
-239.32
-258.51
-266.05
-263.68
-254.21
-240.49
-224.74
-208.36
-192.12
-176.58
-162.3
-149.79
-139.15
-130.02
-121.66
-113.45
-105.26
-97.47
-90.73
-85.5
-81.87
-79.43
-77.43
-74.93
-71.04
-65.29
-57.79
-49.53
-42.28
-38.04
-38.14
-42.43
-49.44
-56.73
-62.02
-63.94
-62.3
-57.65
-50.61
-41.59
-30.99
-19.75
-9.59
-2.65
-0.46
-3
-8.42
-13.98
-17.47
-18.41
-18.22
-19.07
-22.36
-27.65
-32.92
-35.68
-34.52
-29.94
-23.89
-18.61
-15.45
-14.32
-14.1
-13.38
-11.31
-7.88
-3.71
0.34
3.58
5.68
6.75
7.22
7.63
8.3
9.23
9.92
9.62
7.73
4.2
-0.44
-5.35
-9.73
-13.2
-15.75
-17.42
-17.96
-16.78
-13.18
-6.97
1.11
9.41
15.97
19.38
19.4
17.05
14.08
12.12
11.96
13.4
15.63
17.93
20.22
22.96
26.61
30.97
34.86
36.62
34.89
29.46
21.37
12.46
4.58
-1.13
-4.47
-5.84
-5.85
-4.99
-3.56
-1.94
-0.68
-0.39
-1.41
-3.62
-6.4
-8.89
-10.42
-10.69
-9.93
-8.77
-7.96
-8.02
-9
-10.48
-11.81
-12.38
-11.92
-10.54
-8.72
-7.16
-6.61
-7.63
-10.3
-14.05
-17.65
-19.65
-18.9
-15.1
-8.87
-1.49
5.78
12.1
17.38
22.08
26.81
32.04
37.84
43.92
49.68
54.45
57.77
59.75
61.17
63.17
66.75
72.24
79.01
85.66
90.6
92.84
92.41
90.33
88.22
87.64
89.43
93.17
96.87
97.19
90.14
72.31
42.33
1.83
-44.37
-89.46
-126.54
-150.69
-160.26
-157.06
-145.3
-130.11
-116.11
-106.43
-102.91
-106
-114.96
-127.77
-141.18
-151.17
-154.15
-148.53
-135.55
-118.85
-102.72
-89.92
-79.97
-69.23
-52.59
-25.71
12.91
61.44
115.45
169.29
217.32
255.17
280.67
294.15
298.23
296.48
292.16
287.22
282.26
276.56
269.74
262.68
256.83
253.32
250.4
244.17
230.56
207.52
175.1
136.17
95.05
55.86
22.14
-6.01
-29.92
-50.43
-67.45
-81.88
-94.54
-106.19
-117.14
-125.66
-132.58
-139.4
-147.08
-156.25
-169.31
-188.11
-213.09
-242.61
-271.25
-296.64
-317.83
-334.09
-329.48
-292.19
-219.93
-123.3
-34.09
40.08
99.13
144.53
181.62
211.76
233.25
244.48
245.41
238.22
228.63
218.91
209.37
199.68
188.98
175.32
157.55
135.95
112.43
91.24
73.46
58.23
44.02
29.08
11.52
-9.5
-33.63
-59.42
-84.08
-107.04
-129.08
-151.4
-175.66
-203.81
-237.25
-275.86
-316.98
-354.93
-383.27
-396.33
-391.01
-368.11
-332.2
-289.84
-247.5
-209.7
-178.37
-153.79
-135.35
-121.99
-112.5
-104.99
-97.11
-86.43
-71.04
-50.31
-25.08
2.35
28.62
50.3
64.96
71.96
72.68
69.91
66.49
64.15
62.92
61.53
58.58
53.45
46.71
39.75
33.94
29.98
27.77
26.8
26.5
26.66
27.38
28.83
31.2
34.57
38.6
42.68
45.93
47.39
46.51
43.48
39.17
35
32.25
31.63
33.07
35.91
39.08
41.64
43.12
43.61
43.63
43.65
43.9
43.99
43.46
42.16
40.69
40.01
40.35
40.57
38.16
30.66
17.36
0.44
-15.73
-26.58
-29.67
-25.85
-18.57
-11.81
-8.09
-7.67
-9.38
-11.97
-15.33
-20.35
-28.15
-38.87
-51.33
-63.58
-73.71
-80.52
-83.87
-84.45
-83.11
-81.09
-79.7
-80.57
-85.77
-97.22
-116.14
-141.87
-171.22
-198.6
-217.58
-222.87
-212.19
-187.23
-152.92
-115.87
-82.15
-55.66
-37.73
-27.82
-24.62
-26.65
-32.47
-40.24
-47.52
-51.76
-51.08
-44.62
-32.96
-17.39
1.45
24.33
53.38
90.85
137.04
189.32
241.92
287.57
319.21
332.35
325.47
300.91
264.61
224.26
188.05
162.03
148.77
147.52
156.11
171.21
188.84
204.64
213.28
210.88
195.7
168.87
134.17
97.28
61.48
27.39
-5.74
-38.25
-65.48
-79.6
-73.83
-46.6
-2.12
49.19
95.04
126.44
139.37
137.97
130.81
125.86
115.53
92.57
52.19
-4.09
-58.85
-105.82
-142.1
-166.01
-180.39
-187.49
-187.78
-180.71
-164.24
-135.19
-92.55
-36.98
23.32
75.58
107.92
116.67
106.42
84.98
57.88
32.41
7.6
-15.43
-31.68
-34.02
-16.33
22.41
74.06
122.26
150.31
148.21
118.16
71.17
19.92
-26.68
-65.7
-98.23
-126.06
-149.31
-166.74
-176.07
-176.51
-169.49
-157.99
-146.02
-135.92
-128.17
-120.98
-111.61
-96.89
-75.36
-48.08
-17.87
11.6
37.35
57.66
72.72
83.91
93.49
103.81
114.49
126.41
140.58
157.25
173.97
185.85
187.03
173.2
143.75
102.35
55.92
9.48
-30.83
-61.27
-81.39
-93.15
-98.86
-99.7
-95.76
-86.98
-74.13
-58.51
-41.81
-25.74
-10.72
2.86
13.75
19.58
17
2.52
-25.4
-65.13
-109.46
-146.42
-164.48
-158.15
-130.64
-92.62
-57.17
-33.85
-25.59
-28.52
-35.46
-40.57
-41.02
-36.12
-26.26
-11.65
7.4
29.08
49.27
61.78
60.99
43.73
14.99
-13.58
-29.71
-27.27
-9.48
13.95
32.88
43.17
47.24
50.3
55.57
62.3
67.22
67.9
65.52
63.93
66.85
74.84
84.97
91.54
90.04
79.4
62.09
42.89
26.56
16.33
13.66
18.86
31.09
47.78
64.1
74.25
73.82
61.73
40.78
16.13
-7.66
-28.3
-46.35
-63.28
-78.82
-89.69
-91.14
-80.33
-59.14
-34.66
-16.04
-10.05
-17.73
-34.92
-56.01
-77.62
-100.44
-127.4
-159.71
-193.7
-221.06
-232.53
-222.24
-190.44
-142.57
-87
-32.32
14.81
50.8
74.49
85.58
83.36
66.67
36.37
-3.08
-42.89
-72.26
-82.76
-72.68
-48.97
-24.41
-11.05
-13.19
-25.24
-35.1
-31.18
-8.67
28.64
71.42
109.75
135.14
144.9
142.73
135.28
127.46
120.12
111.67
100.68
87.3
72.92
59.75
49.08
40.54
32.33
22.54
10.17
-4.36
-19.65
-34.08
-45.43
-52.38
-53.82
-49.5
-40.19
-27.12
-11.31
7.46
30.69
60.58
96.71
134.78
166.73
184.14
182.33
162.94
134.65
104.95
78.98
57.46
38.29
19.41
1.54
-11.61
-16.02
-10.74
0.18
9.85
11.22
1.3
-17.51
-39
-56.21
-65.16
-66.44
-64.66
-63.19
-65.9
-75.24
-92.15
-115.97
-143.72
-169.45
-184.61
-180.52
-151.85
-100.7
-37.26
22.89
64
75.45
55.18
9.41
-50.37
-110.95
-160.72
-190.64
-195.11
-172.81
-128.04
-70.83
-15.64
22.27
31.44
8.27
-41.33
-103.78
-161.98
-200.86
-211.57
-193.07
-151.2
-95.68
-37.05
15.83
57.13
84.83
100.56
108.56
113.4
117.73
121.11
120.38
112.03
94.95
71.76
47.92
28.81
17.04
11.61
9.29
7.15
4.43
2.65
3.91
9
16.72
24.6
30.58
34.29
37.23
41.81
49.91
61.83
76.23
91.16
105.33
118.79
132.47
147.06
162.03
175.36
184.44
187.57
184.91
178.11
169.37
160.41
152.15
144.99
139.24
134.81
130.44
123.42
110.38
89.11
60
26.12
-8.27
-39.83
-67.1
-90.28
-109.9
-125.79
-137.3
-144.75
-150.68
-159.03
-172.66
-190.04
-204.4
-205.8
-185.44
-140.1
-73.81
3.82
81.1
147.29
194.56
218.62
218.72
197.65
161.29
117.55
74.18
36.53
6.14
-18.6
-40.28
-59.57
-73.97
-78.77
-69.97
-47.51
-17.05
11.05
25.73
20.49
-2.55
-32.12
-52.77
-52.44
-29.49
5.54
34.89
43.02
24.71
-12.8
-54.48
-86.06
-100.89
-101.16
-94.21
-87.13
-83.6
-84.07
-87.91
-94.82
-104.64
-115.77
-124.72
-127.52
-122.31
-110.66
-96.78
-84.73
-75.73
-67.84
-58.06
-45.37
-32.03
-22.22
-19.06
-22.15
-27.42
-29.26
-23.79
-10.64
7.22
25.07
38.61
45.4
45.08
39.01
29.52
19.29
10.66
4.82
1.39
-1.31
-5.25
-11.29
-18.22
-23.31
-24.07
-20.12
-13.86
-9.34
-9.57
-14.81
-22.33
-28.26
-30.03
-27.76
-23.98
-21.91
-23.47
-28.34
-34.55
-39.93
-43.31
-44.89
-45.27
-44.56
-42.19
-37.68
-31.67
-26.26
-24.03
-26.36
-32.13
-37.76
-39.22
-34.66
-26.07
-18.67
-18.19
-27.34
-44.21
-63.22
-78.26
-85.94
-86.75
-83.57
-78.88
-72.28
-60.47
-39.4
-6.77
36.51
87.05
140.16
191.16
235.43
268.31
285.45
284.02
264.42
231.09
191.74
154.5
124.68
102.43
83.22
60.86
31.33
-4.34
-39.61
-64.71
-70.76
-55.04
-23.01
13.7
43.15
59.06
63.26
63.01
64.91
69.53
69.35
52.83
12.21
-49.48
-117.9
-173.01
-198.05
-186.1
-141.33
-76.57
-7.64
51.88
93.49
113.65
112.51
92.54
55.42
8.24
-37.51
-70.82
-86.51
-85.84
-73.21
-53.2
-29.8
-6.64
13.22
27.01
33.11
32.14
27.15
22.27
20.9
24
30.34
37.73
43.7
46.46
45.53
41.91
37.37
33.66
30.72
27.44
22.45
14.26
1.95
-14.12
-31.78
-47.41
-57.08
-58.19
-50.44
-36.07
-19.14
-3.95
6.57
12.03
14.16
15.51
17.74
20.86
23.45
23.76
20.81
14.99
8.25
3.04
1.13
2.83
6.77
10.52
11.81
9.55
4.27
-2.06
-6.57
-7.24
-3.81
1.89
6.66
7.73
4.05
-3.31
-11.55
-17.09
-17.36
-11.22
0.79
16.68
33.37
46.3
48.88
33.9
-3.81
-62.11
-128.41
-184.96
-217.75
-221.94
-202.77
-172.16
-147.49
-133.87
-130.22
-131.61
-132.2
-127.59
-115.11
-93.87
-64.51
-26.12
20.05
70.57
121.11
166.91
199.68
212.43
202.88
174.35
134.24
91.21
51.78
19.7
-4.19
-21.3
-33.68
-43.07
-50.83
-57.81
-64.5
-71.61
-79.67
-88.46
-97.55
-105.63
-110.96
-112.27
-109.21
-102.48
-93.77
-84.75
-76.25
-68.31
-60.18
-51.04
-40.95
-30.96
-22.59
-16.85
-15.6
-17.9
-20.88
-21
-15.43
-2.83
16.77
42.37
71.71
100.68
123.34
133.64
127.69
106.32
75.96
47.15
30.77
33.55
55.65
91.35
133.19
174.34
210.29
238.55
257.59
266.29
264.04
251.88
233.41
216.34
209.23
218.42
245.14
284.47
326.46
359.47
374.06
355.36
299.42
214.24
117.42
28.05
-41.73
-89.67
-119.84
-137.48
-146.43
-146.77
-138.13
-121.62
-100.51
-78.93
-60.59
-46.64
-36.88
-31.37
-29.16
-29.73
-33.33
-40.78
-52.72
-69.8
-91.71
-117.38
-146.7
-178.93
-213.09
-248.39
-284.75
-318.03
-346.11
-367.73
-374.14
-360.05
-324.18
-269.94
-204.31
-135.03
-68.33
-8.45
42.66
83.37
113.23
130.59
134.05
123.62
101.23
70.52
36.09
3.27
-21.68
-34.35
-33.61
-21.5
-2.74
17.13
33.92
46.32
56.6
68.61
83.96
99.88
110.52
109.32
92.32
60.02
17.42
-27.23
-63.17
-82.12
-82.83
-70.59
-52.84
-34.34
-16.12
3.05
23.95
45.49
64.71
78.44
85.63
87.98
88.86
91.06
96.27
102.98
107.81
107.03
98.06
80.68
56.88
29.62
1.23
-27.4
-55.08
-81.5
-107.29
-133.5
-160.52
-186.89
-208.75
-220.45
-216.56
-194.55
-157.05
-111.45
-67.66
-34.3
-15.59
-10.38
-13.59
-19.38
-23.66
-25.73
-25.59
-23.17
-17.74
-8.22
5.82
23.32
41.55
57.12
66.71
67.34
58.99
43.35
22.8
-0.53
-25.17
-50.54
-76.38
-102.18
-126.83
-148.6
-165.38
-175.12
-176.4
-168.87
-153.31
-131.33
-104.89
-76.11
-46.53
-17.75
8.67
31.32
49.02
60.91
66.51
65.72
58.72
46.69
30.79
12.24
-7.57
-27.05
-44.44
-57.89
-65.56
-70.17
-72.36
-72.52
-70.91
-67.38
-61.45
-52.51
-40.28
-25.12
-8.17
9.67
27.38
44.15
59.95
75.39
91.42
109.02
129.01
151.97
178.6
208.47
239.63
268.61
291.07
303.15
303
291.69
273.02
252.44
234.65
222.05
214.44
209.69
205.23
199.25
190.98
180.07
165.72
146.05
118.54
81.43
34.95
-18.25
-73.81
-127.42
-176.4
-220.26
-259.78
-295.25
-324.8
-344.3
-348.82
-334.78
-302.13
-254.63
-198.55
-140.25
-84.37
-33.3
11.89
50.12
79.73
99.04
107.68
107.65
103.2
99.44
100.53
108.14
121.14
136.34
149.71
157.75
158.26
150.69
136.05
116.5
94.66
72.89
52.63
34.4
18.31
4.55
-6.41
-14.02
-18.22
-19.87
-20.57
-22.04
-25.3
-30.12
-35.19
-38.74
-39.41
-36.91
-32.15
-26.94
-23.34
-23.3
-28.11
-37.93
-51.28
-64.8
-73.44
-72.09
-57.55
-30.25
5.05
40.71
69.42
87.61
97.12
103.73
113.09
126.94
141.67
150.17
145.78
125.85
92.69
51.76
8.75
-32.95
-72.48
-109.91
-144.47
-174.45
-198.58
-217.72
-234.76
-252.31
-270.49
-285.38
-289.95
-277.08
-242.95
-189.62
-124.92
-59.7
-3.1
39.29
66.5
81.5
89.74
97.42
109.86
130.07
157.8
190.25
220.66
239.87
240.1
219.12
182.39
141.87
111.71
103.18
122.29
165.92
222.84
277.8
316.76
330.62
316.94
279.2
214.76
129.72
36.65
-49.59
-117.56
-162.48
-185.53
-190.66
-182.93
-168.19
-150.74
-134.5
-123.75
-121.43
-127.8
-140.32
-154.05
-163.28
-163.01
-148.96
-119.52
-78.75
-35.71
-0.39
20.47
25.78
18.85
4.64
-11.6
-26.37
-37.46
-43.53
-42.56
-33.1
-15.68
6.81
30.16
51.05
67.16
77.05
80.47
78.88
74.94
73.57
79.92
96.22
119.29
139.96
145.85
127.01
81.2
15.29
-57.58
-123.89
-175.01
-208.84
-228.38
-238.5
-243.38
-245.41
-246.32
-248.51
-255.52
-270.43
-293.14
-319.05
-339.91
-346.83
-333.52
-299.18
-248.64
-190.29
-132.82
-81.93
-39.56
-4.33
23.51
42.64
51.37
49.46
40.71
29.11
17.97
9.28
3.74
0.04
-2.31
-2.79
0.26
8.97
25.02
49.46
82.41
122.75
167.61
212.6
251.89
279.3
290.17
283.28
261.83
232.45
202.36
176.28
155.41
137.9
121.05
103.49
85.89
70.19
57.94
49.1
41.95
34.6
26.1
16.84
8.16
1.38
-2.95
-5.16
-6.25
-7.67
-10.65
-15.85
-22.91
-30.29
-35.71
-37.32
-34.6
-29.03
-23.41
-20.47
-21.47
-25.61
-30.48
-33.53
-33.42
-30.55
-26.58
-23.33
-21.82
-21.84
-22.11
-20.82
-16.72
-9.71
-0.94
7.88
15.56
22.19
28.98
37.39
47.92
59.5
70.35
79.78
89.38
102.42
121.48
145.79
170.57
189.1
195.82
189.12
171.71
148.6
124.1
100.04
76.22
52.55
31.12
15.5
8.4
9.24
13.39
13.78
3.86
-19.68
-57.2
-103.05
-147.58
-181.14
-198.23
-199.09
-188.04
-170.41
-150.17
-129.34
-108.33
-87.46
-67.69
-50.65
-37.69
-29.02
-23.61
-19.65
-15.31
-9.07
-0.48
9.9
20.88
31.25
40.59
49.28
58.03
67.28
76.96
86.43
94.4
99.38
99.95
95.67
87.29
76.38
64.87
54.71
47.64
44.88
47.27
54.47
65.82
80.29
96.63
113.24
128.54
141.1
149.87
154.53
154.59
150.28
142.29
131.57
118.96
104.92
89.32
71.05
53.7
38.74
27.16
19.59
16.36
17.52
22.86
31.87
43.69
57.38
71.11
83.16
92.06
96.59
95.98
89.93
78.63
62.57
42.75
19.68
-5.95
-33.21
-61.11
-88.38
-113.59
-135.13
-151.4
-160.78
-162.28
-155.43
-140.32
-117.83
-89.46
-57.32
-23.84
8.44
37.26
60.68
77.4
87.01
89.78
86.71
79.22
68.99
57.6
46.44
36.45
28.1
21.52
16.42
12.42
9.11
6.12
3.19
0.15
-3.15
-6.8
-10.85
-15.39
-20.36
-25.57
-30.72
-35.39
-39.28
-42.24
-44.36
-45.95
-47.34
-48.8
-50.29
-51.54
-51.98
-51.23
-49.26
-46.6
-44.29
-43.58
-45.7
-51.41
-61.06
-74.44
-91.38
-111.88
-136.32
-165.24
-198.9
-236.83
-277.4
-318.15
-356.16
-388.95
-415.1
-434.58
-448.77
-460.07
-471.76
-487.31
-509.53
-538.92
-572.66
-604.47
-626.16
-630.53
-614.03
-578.29
-529.18
-474.39
-420.38
-370.65
-325.81
-284.92
-247.15
-212.24
-180.35
-151.17
-123.91
-97.64
-72.07
-47.96
-26.35
-8.05
7.39
21.42
36.04
52.78
72.09
93.47
115.63
137.31
157.41
175.35
190.88
204.11
215.51
225.8
236.06
247.33
260.78
276.82
295.1
314.06
331.21
343.68
348.75
344.84
331.38
309.36
280.85
248.88
216.91
188.36
165.99
151.25
144.46
144.82
151.46
163.38
179.68
199.33
220.74
241.88
260.09
272.53
275.93
267.04
243.11
202.48
145.68
75.87
-0.56
-74.93
-137.78
-181.69
-203.39
-204.69
-191.63
-171.83
-152.14
-136.42
-125.63
-119.09
-116.51
-118.57
-126.28
-139.33
-154.45
-166.03
-167.81
-156.02
-131.25
-98.71
-66.49
-42.07
-29.39
-26.95
-29.15
-28.62
-20.56
-5.36
11.65
22.74
21.6
5.69
-22.95
-59.56
-98.33
-134.64
-165.39
-188.28
-201.34
-202.58
-191.36
-169.15
-140.06
-108.79
-79.99
-56.93
-40.78
-30.73
-24.61
-20.26
-16.18
-11.71
-4.67
6.68
23.06
44.02
68.35
94.99
122.77
150.33
176.25
203.84
236.06
273.78
315.05
356.8
397.12
435.37
471.39
503.91
537.12
571.57
602.77
622.32
623.74
607.44
580.8
554.17
536.14
539.89
571.11
626.95
697.16
770.65
840.26
902.88
956.78
940.8
818.93
594.27
311.94
28.49
-216.93
-409.9
-553.1
-656.59
-731.86
-776.91
-794.47
-788.78
-768.39
-742.63
-717.95
-697
-679.75
-664.71
-642.33
-605.15
-551.32
-486.99
-421.75
-364.22
-319.76
-290.41
-276.09
-271.04
-270.5
-265.33
-257.04
-249.21
-244.12
-242.02
-241.75
-241.43
-236.03
-220.14
-196.2
-165.75
-129.77
-89.01
-44.51
2.07
48.48
93.26
135.35
174.26
210.11
243.93
276.9
309.67
342.13
373.48
402.73
429.24
452.99
474.71
495.75
517.77
542.44
570.65
601.5
631.29
653.56
660.58
646.44
609.35
552.95
485.38
416.4
354.12
302.9
263.25
233.28
210.75
194.07
182.27
174.19
168.01
161.23
151.57
137.75
119.9
99.41
78.18
57.72
38.57
20.32
1.91
-17.64
-38.8
-61.27
-84.21
-106.67
-127.85
-147.25
-164.45
-178.99
-190.29
-197.75
-201.11
-200.54
-196.73
-190.73
-183.65
-176.43
-169.68
-163.57
-157.86
-152.09
-145.77
-138.65
-130.92
-123.12
-115.96
-110.05
-105.6
-102.47
-100.3
-98.64
-97.11
-95.36
-93.06
-89.99
-86.14
-81.82
-77.61
-74.19
-72
-71.09
-71.17
-71.84
-72.86
-74.26
-76.23
-79.4
-84.18
-90.48
-97.74
-105.11
-111.76
-116.89
-119.89
-120.53
-119.66
-118.66
-118.91
-121.18
-125.39
-130.61
-135.56
-139.14
-141.07
-143.11
-147.48
-155.53
-166.99
-180.26
-193.33
-204.4
-212.46
-217.38
-222.42
-230.34
-241.81
-255.54
-270.14
-285.24
-300.75
-315.16
-324.97
-331.84
-337.13
-340.56
-340.48
-336.21
-329.46
-322.9
-318
-314.24
-319.42
-338.8
-370.88
-407.22
-437.53
-454.88
-456.98
-445.12
-423.45
-411.1
-425.75
-474.99
-553.84
-650.12
-751.41
-847.92
-932.8
-923.08
-772.72
-495.77
-163.11
148.06
395.37
572.28
691.5
770.79
825.75
854.41
852.31
823.31
777.59
726.84
678.16
633.64
592.68
554.77
511.22
458.77
403.87
357.19
325.69
307.81
296.91
286.68
274.86
257.45
234.32
207.63
180.64
156.48
136.88
123.38
117.49
120.42
129.47
142.23
156.88
172.17
187.17
197.84
199.81
188.82
162.44
116.15
55.26
-6.41
-53.9
-79.46
-84.82
-76.84
-62.93
-47.96
-33.9
-20.49
-8.2
1.52
7.21
8.66
7.7
6.81
8.11
12.59
20.62
29.89
36.55
36.6
28.08
12.57
-4.99
-17.85
-19.89
-8.44
13.04
36.84
54.52
60.7
54.64
39.39
19.52
-1.03
-19.84
-35.68
-47.23
-53.09
-51.32
-41.66
-26.86
-12.41
-4.51
-7.36
-20.36
-37.71
-50.31
-49.94
-33.51
-4.78
26.9
50.77
60.06
53.74
37.48
21.26
15.69
27.21
54.68
88.82
115.83
122.59
102.72
59.04
1.5
-56.56
-103.11
-130.7
-136.79
-122.56
-92.47
-53.38
-14.26
14.37
24.72
14.28
-13.38
-47.93
-77.12
-93.41
-96.5
-85.9
-67.86
-48.89
-29.89
-6.99
19.93
47.08
65.9
69.81
59.66
42.32
28.65
28.94
48.3
84.5
128.2
164.8
180.65
167.97
125.56
58.61
-23.41
-109.69
-184.48
-228.16
-230.88
-199.47
-150
-96.48
-45.82
0.77
43.42
81.35
112.08
132.2
140.78
140.87
138.6
138.03
140.7
144.93
147.25
143.18
128.56
101.89
65.75
26.87
-8.73
-36.91
-56.65
-68.75
-75.37
-79.34
-82.44
-84.67
-85.07
-83.27
-79.04
-73.42
-67.69
-63.15
-61.08
-61.56
-63.39
-64.81
-67.04
-67.3
-64.47
-58.04
-47.93
-34.88
-19.4
-2.26
15.1
30.52
42.03
47.35
45.14
38
26.23
11.56
-3.73
-17.97
-30.53
-41.28
-50.91
-59.87
-67.89
-74.55
-78.79
-80.07
-78.93
-76.88
-75.44
-75.91
-78.74
-83.63
-90.44
-98.7
-107.43
-114.82
-117.68
-112.51
-97.48
-73.94
-46.4
-20.74
-1.77
11.54
22.66
35.45
51.05
66.45
75.95
74.97
63.59
47.6
36.13
36.54
50.8
74.51
99.88
119.45
129.36
129.72
123.41
112.48
98.1
81.33
63.98
48.68
37.62
31.08
27.3
22.62
13.69
-0.61
-18.89
-38.38
-56.41
-71.59
-83.83
-92.06
-94.44
-88.75
-73.64
-50.18
-22.24
4.79
25.97
38.58
43.5
44.29
45.11
49.46
58.92
73.18
90.72
108.35
121.46
124.29
111.73
81.91
39.24
-5.38
-38.06
-48.13
-33.99
-4.42
25.24
40.8
35.52
12.97
-16.78
-43.76
-63.12
-75.9
-84.76
-89.46
-84.96
-65.19
-28.49
18.53
62.58
90.21
94.96
80.88
58.05
39.5
33.04
37.9
47.26
53.67
53.62
47.79
38.36
26.48
12.85
-0.63
-9.09
-5.87
13.27
45.79
81.17
104.57
103.31
72.48
16.38
-53.57
-122.81
-177.78
-209.01
-213.16
-193.62
-158.87
-118.84
-81.09
-48
-17.03
16.32
54.5
95.11
131.32
154.88
159.84
144.8
112.57
68.31
17.08
-37.35
-92.43
-145.98
-195.63
-238.92
-273.86
-299.14
-314.19
-318.66
-312.22
-294.68
-266.41
-228.95
-185.19
-138.72
-92.91
-50.2
-11.96
20.87
47.52
67.65
82.18
93.97
107.28
126.18
152.36
183.83
215.42
240.88
255.54
258.3
251.66
240.42
229.58
222.6
220.64
222.71
226.41
228.95
228.24
223.64
216.18
208.09
201.58
197.84
196.11
194.01
188.25
176.03
155.83
127.52
91.91
49.85
1.7
-52.44
-112.19
-175.86
-239.57
-297.16
-341.12
-364.9
-365.64
-346.05
-314.32
-281.63
-258.22
-249.61
-254.96
-267.97
-279.87
-283.02
-273.26
-250.74
-218.85
-182.39
-145.6
-111.07
-79.33
-49.39
-20.03
9.23
37.38
62.36
82.11
95.86
104.59
110.61
116.68
125.14
137.97
156.98
183.57
217.94
257.78
297.92
331.46
352.29
357.52
348.72
