7.59
5.57
3.34
0.89
-1.76
-4.71
-8.09
-12.03
-16.51
-21.3
-26.01
-30.12
-33.08
-34.5
-34.09
-31.81
-27.88
-22.74
-16.91
-10.92
-5.18
0.04
4.55
8.26
11.08
13.04
14.22
14.86
15.29
15.84
16.82
18.33
20.3
22.4
24.12
24.91
24.36
22.47
19.64
16.58
13.96
12.16
11.03
10.03
8.56
6.26
3.13
-0.48
-4.06
-7.19
-9.64
-11.45
-12.87
-14.25
-15.97
-18.25
-21.06
-24.11
-26.87
-28.74
-29.24
-28.14
-25.55
-21.83
-17.41
-12.73
-8.08
-3.55
0.81
5.09
9.31
13.45
17.35
20.76
23.49
25.38
26.44
26.76
26.52
25.84
24.9
23.91
23.07
22.54
22.3
22.17
21.83
21.01
19.52
17.33
14.54
11.22
7.44
3.22
-1.32
-5.98
-10.48
-14.58
-18.26
-21.65
-24.96
-28.21
-31.17
-33.31
-34.01
-32.9
-30
-25.81
-21.07
-16.5
-12.39
-8.62
-4.78
-0.51
4.12
8.5
11.86
13.66
13.89
13.19
12.37
11.99
12.08
12.19
11.77
10.58
8.83
7.03
5.64
4.83
4.39
3.93
3.04
1.47
-0.86
-3.88
-7.38
-11.01
-14.43
-17.36
-19.69
-21.56
-23.31
-25.29
-27.82
-30.97
-34.58
-38.22
-41.23
-42.75
-42.04
-38.67
-32.81
-25.25
-17.19
-9.81
-3.84
0.64
4.12
7.3
10.65
14.19
17.51
20.04
21.38
21.51
20.75
19.56
18.25
16.96
15.67
14.29
12.87
11.57
10.53
9.82
9.4
9.1
8.81
8.52
8.25
8.12
8.22
8.66
9.53
10.81
12.38
13.89
14.93
15.07
14.15
12.39
10.38
8.82
8.22
8.65
9.79
11.2
12.57
13.88
15.36
17.26
19.6
22.2
24.85
27.29
29.37
30.79
31.16
30.05
27.32
23.34
18.92
15.06
12.42
11.12
10.57
9.97
8.75
6.84
4.63
2.52
0.73
-0.9
-2.63
-4.73
-7.17
-9.54
-11.28
-11.87
-11.3
-10.03
-8.89
-8.54
-9.81
-13.01
-17.49
-21.75
-23.97
-22.98
-18.54
-11.31
-2.37
6.5
13.57
18.21
21.23
24.28
28.71
35.15
43.52
53.24
62.12
67.47
67.81
63.96
58.31
53.3
50.55
50.65
53.19
54.71
50.39
36.22
10.79
-25.29
-70.44
-122.23
-177.14
-221.88
-241.94
-230.45
-193.84
-144.78
-93.4
-44.43
0.84
42.48
80.42
110.56
129.02
134.84
130.78
121.04
108.94
95.86
81.67
65.26
41.43
5.08
-46.38
-108.01
-172.92
-234.87
-289.58
-334.49
-351.67
-332.36
-281.61
-215.03
-147.47
-87.22
-36.77
4.28
37.26
63.51
81.3
89.35
88.64
82.78
75.76
70.27
67.52
67.54
69.83
71.5
70.28
65.7
59.39
53.37
48.9
46.5
46.01
47
47.69
46.73
43.83
39.92
36.17
33.28
31.72
31.59
32.83
34.82
37.18
39.9
43.42
48.1
53.68
59.71
65.33
68.97
68.95
63.81
52.82
36.07
14.51
-10.51
-36.53
-60.92
-81.32
-95.8
-103.04
-102.39
-93.95
-77.17
-55.06
-29.7
-3.2
22.06
43.87
60.53
71.43
76.48
76.46
72.16
65.24
56.84
47.32
36.51
23.95
9.45
-6.59
-22.23
-36.59
-48.54
-57.54
-63.92
-68.4
-71.81
-74.89
-78.12
-81.85
-86.65
-91.94
-95.86
-95.14
-85.92
-65.98
-36.46
-1.86
31.42
57.25
72.62
78.21
77.15
73.3
69.26
65.85
62.9
60.45
59.32
60.86
65.62
72.11
76.77
75.15
63.81
42.7
15.78
-10.23
-28.5
-35.17
-30.95
-20.62
-9.74
-2.47
0.13
-0.4
-1.94
-3.65
-6.56
-12.63
-23.14
-37.46
-53.17
-66.9
-75.88
-78.93
-76.71
-71.43
-65.85
-62.57
-63.13
-67.44
-74.19
-81.42
-87.59
-92.27
-95.49
-96.64
-93.98
-85.5
-70.86
-52.69
-36.14
-26.12
-24.32
-27.68
-30.07
-26.41
-16.02
-4.13
1.26
-5.2
-21.86
-39.85
-47.41
-36.46
-7.18
31.99
68.72
92.77
100.6
95.71
85.3
76.13
70.84
68.04
64.44
57.59
47.24
35.14
23.5
13.67
5.81
-0.66
-6.34
-11.48
-15.84
-19.33
-22
-24.05
-25.36
-25.61
-24.4
-21.77
-18.53
-15.76
-14.65
-15.74
-18.68
-22.38
-25.75
-28.33
-30.65
-33.97
-38.99
-45.82
-53.69
-61.2
-66.82
-69.78
-70.23
-69.27
-68.5
-68.68
-70.14
-72.29
-73.74
-72.63
-67.22
-56.12
-38.3
-17.69
3.67
24.22
43.58
62.3
81.56
102.46
125.62
151.13
178.47
207.35
236.39
263.56
286.04
300.92
305.84
299.93
284.28
261.47
235.34
208.99
184.77
163.81
146.27
131.39
117.79
104.18
89.31
72.26
51.76
27.2
-0.99
-30.61
-57.73
-77.43
-85.01
-77.91
-56.93
-30.4
-8.89
-1.49
-10.67
-32.11
-58.73
-84.54
-106.38
-123.5
-136.66
-146.2
-151.81
-152.79
-149.06
-141.56
-132.09
-122.94
-116.05
-112.63
-112.43
-114.01
-115.51
-115.71
-114.26
-111.53
-108.13
-104.52
-100.87
-96.74
-92.04
-85.68
-77.3
-67.21
-56.15
-45.02
-34.56
-25.37
-17.71
-11.62
-6.87
-3.24
-0.14
3.02
6.9
11.85
17.72
23.77
28.93
32.29
33.33
32.69
31.58
31.65
34.24
39.99
48.56
59.2
71.38
83.45
95.58
108.81
124.68
144.76
170.49
202.73
241.11
282.93
322.58
352.73
365.87
357.39
327.64
282.06
229.09
177.01
131.12
93.09
62.58
38.75
21.76
12.68
12.38
20.22
33.87
50.21
66.51
81.84
96.65
111.99
128.6
146.06
162.71
176.15
184.09
184.81
177.76
163.31
142.34
116.05
85.37
51.01
13.69
-25.35
-64.31
-100.74
-132.02
-155.87
-170.56
-175.51
-171
-158.11
-138.28
-113.09
-83.92
-52.05
-18.74
14.71
46.76
75.82
100.59
120.09
133.88
142.13
145.3
143.89
138.47
129.4
116.79
100.81
81.67
59.9
36.53
12.84
-10.23
-32.16
-53.37
-75.08
-98.68
-125.39
-155.52
-188.23
-221.46
-252.79
-280.45
-304.23
-326.12
-349.66
-378.81
-415.28
-457.08
-498.56
-532.35
-552.08
-554.55
-540.46
-513.41
-478.71
-441.81
-407.28
-378.24
-355.62
-337.18
-317.52
-289.84
-249.19
-196.07
-137.79
-86.68
-55.41
-51.29
-72.6
-109.12
-146.12
-170
-173.12
-155.38
-122.12
-80.17
-34.48
12.44
58.83
101.74
136.42
158.8
169.03
173
180.09
198.16
227.78
260.94
284.92
288.75
268.43
227.97
175.91
120.65
68.47
23.9
-8.39
-23.46
-18.76
2.58
30.57
51.39
53.81
35.46
4.32
-25.13
-39.4
-32.37
-7.53
24.88
53.6
71.89
79.45
80.51
80.21
81.6
84.25
85.22
80.93
69.12
50.16
26.56
1.78
-20.78
-38.22
-48.52
-49.76
-40.22
-18.94
13.42
53.32
94.01
126.05
139.98
129.76
96.06
47.34
-2.44
-38.72
-51.8
-40.44
-11.09
26.07
61.73
90.86
112.61
126.88
131.95
124.28
101.62
66.62
27.98
-2.8
-16.92
-13.4
0.26
12.72
15.2
6.32
-8.06
-19.45
-21.97
-15.14
-2.99
9.29
18.86
25.58
30.16
31.74
27.05
12.59
-11.22
-38.19
-58.18
-61.63
-45.56
-15.76
16.06
37.82
42.83
32.15
12.4
-8.92
-26.76
-39.82
-48.83
-54.51
-56.57
-54.22
-47.65
-38.58
-29.85
-24.1
-22.96
-26.54
-33.84
-42.93
-51.19
-55.84
-54.97
-48.52
-38.87
-30.44
-27.84
-33.63
-47.12
-64.38
-79.88
-88.71
-88.35
-79.28
-64.59
-48.25
-33.19
-20.84
-11.07
-2.72
5.39
13.66
21.87
29.85
37.57
45.46
53.49
60.75
65.35
65.38
60.2
51.51
42.8
37.7
38.12
42.95
48.39
49.92
45.05
34.62
22.42
12.61
7.3
5.78
5
1.76
-5.13
-14.16
-21.94
-25.34
-23.38
-17.78
-11.9
-8.74
-9.19
-11.47
-12.2
-8.4
0.68
13.03
24.97
32.81
34.74
32.02
28.18
27.04
30.55
37.48
44.11
46.17
41.33
30.73
18.83
11.16
11.15
18.65
30.08
40.18
44.91
42.93
35.74
26.24
17.09
9.31
2.41
-4.29
-10.85
-16.32
-19.51
-20.01
-18.92
-18.46
-20.2
-23.71
-26.33
-24.7
-16.88
-4.39
8.42
16.83
18.5
15.23
11.51
11.59
16.35
23.03
27.11
25.55
19.16
11.89
8.14
9.53
13.8
16.26
13.37
5.27
-4.22
-9.73
-8.18
-0.48
8.99
15.25
15.56
10.5
3.02
-4.02
-9.46
-14.34
-19.95
-26.38
-31.74
-33.23
-29.05
-19.68
-7.95
2.73
9.85
12.87
12.91
11.47
9.65
7.96
6.69
6.59
8.94
14.41
22.5
30.81
36.01
35.53
29.21
19.75
11.26
7.49
9.64
16.09
23.48
28.55
29.41
25.81
18.89
10.19
1.49
-5.52
-9.31
-8.93
-4.47
2.7
10.27
15.65
16.78
13
5.08
-4.73
-13.58
-18.93
-19.2
-14.35
-5.51
5.29
16
24.83
30.31
31.47
27.85
20.26
10.89
2.96
-0.55
2.03
10.2
21.68
33.42
42.6
47.31
46.58
40.3
29.19
15.09
0.77
-10.79
-17.28
-18.11
-14.37
-8.54
-3.29
-0.7
-1.64
-5.97
-12.56
-19.56
-24.96
-27.03
-24.84
-18.32
-8.17
4.76
19.89
36.56
53.25
66.89
73.74
71.18
59.85
44.41
31.69
27.39
33.1
45.42
57.8
64.09
61.45
50.83
35.76
20.11
6.85
-2.3
-6.53
-5.73
-0.8
5.82
10.57
10.32
3.9
-7.48
-20.79
-32.67
-40.72
-44.14
-43.54
-40.39
-36.27
-32.62
-30.44
-29.81
-30.39
-31.74
-34
-38.03
-44.76
-54.26
-65.14
-74.84
-80.48
-80.57
-75.22
-66.08
-55.43
-45.08
-35.62
-26.34
-15.88
-2.51
14.58
34.61
54.65
69.91
75.4
68.34
50.1
26.02
3.64
-10.46
-12.68
-2.93
16.19
40.93
66.83
89.05
102.83
105.12
96.46
81.73
68.29
62.32
65.38
72.76
76.04
67.7
45.19
12.2
-23.15
-52.34
-70.38
-76.8
-74.83
-68.34
-59.25
-46.86
-29.28
-6.3
18.78
39.73
50.2
47.18
33.09
15.13
1.63
-1.55
6.28
21.15
37.16
49.5
55.94
56.54
52.1
42.81
28.37
8.79
-14.32
-36.97
-53.44
-58.24
-48.32
-24.83
6.37
36.83
58.36
65.78
58.09
38.07
10.42
-20.17
-49.81
-75.66
-95.53
-107.9
-112.15
-108.74
-99.47
-86.68
-72.52
-58.37
-44.98
-32.67
-21.95
-13.64
-8.69
-8.05
-11.93
-19.69
-29.4
-38.22
-43.11
-41.98
-34.65
-23.26
-11.8
-3.8
-0.47
-0.09
0.52
3.76
9.15
13.33
12.78
6.26
-3.76
-12.48
-15.47
-11.36
-2.36
7.41
14.34
17.09
16.4
13.79
9.96
4.7
-2.12
-9.53
-15.03
-15.86
-10.41
0.3
12.77
22.23
24.95
20.15
10.26
-0.12
-6.53
-6.8
-1.87
5.21
10.75
12.06
8.55
1.32
-7.27
-14.49
-18.14
-17.35
-13.05
-7.49
-3.36
-2.21
-3.87
-6.5
-8.2
-8.26
-7.5
-7.35
-8.5
-10.11
-10.1
-6.96
-0.76
6.76
13.02
16.05
15.38
12.08
8.05
5.17
4.8
7.69
13.65
21.44
29.18
34.89
37.36
36.74
34.28
31.68
30.14
30.06
31.06
32.72
34.83
37.33
39.89
41.67
41.7
39.16
34.19
27.66
20.87
14.92
10.05
5.64
0.64
-5.7
-13.39
-21.52
-28.67
-33.52
-35.57
-35.25
-33.34
-30.51
-26.98
-22.57
-17.1
-10.85
-4.65
0.63
4.32
6.46
7.85
9.6
12.51
16.55
20.81
23.79
24.5
22.69
19.31
15.83
13.42
12.45
12.4
12.37
11.74
10.54
8.8
6.25
2.15
-3.93
-11.45
-18.48
-22.42
-21.71
-17.09
-11.58
-8.92
-11.71
-19.91
-31.04
-41.7
-49.08
-51.97
-50.2
-44.12
-34.27
-21.7
-8.67
1.74
6.8
5.75
0.48
-5.06
-6.83
-2.9
5.55
14.95
21.49
22.85
19.38
13.22
7.16
3.04
1.19
0.42
-1
-4.38
-9.85
-15.91
-20.48
-21.69
-19.03
-13.88
-8.69
-5.65
-5.56
-7.74
-10.6
-13.08
-15.15
-17.43
-20.12
-22.06
-21.05
-15.16
-4.49
8.48
19.98
26.8
28.08
25.32
21.18
17.8
15.55
13.1
9.04
3.19
-3.07
-7.56
-8.88
-7.15
-4.06
-1.49
-0.24
0.51
2.23
5.69
10.01
12.65
11.02
4.18
-6.16
-16.15
-22.05
-22.04
-17.13
-10.24
-4.43
-1.41
-1.15
-2.57
-4.41
-6.09
-7.62
-9.07
-10.17
-10.36
-8.92
-5.56
-0.71
4.68
9.36
12.3
13.51
14.1
15.92
20.42
27.24
33.71
35.98
31.26
19.97
5.98
-5.13
-9.03
-5.07
3.61
12.2
16.86
16.01
10.33
1.33
-9.58
-20.88
-30.46
-35.25
-32.45
-21.33
-4.5
12.9
25.31
29.19
24.44
13.7
0.36
-13.35
-26.67
-39.53
-51.02
-58.83
-60.1
-52.99
-38.09
-18.65
0.33
14.14
20.33
19.45
14.34
8.62
5.13
4.63
6.16
8.14
9.44
9.87
10.02
10.73
12.49
15.4
19.1
22.98
26.07
27.42
26.37
22.96
18.62
15.53
15.85
20.13
26.42
31.11
30.85
24.64
14.48
4.78
-0.83
-1.69
-0.44
-1.15
-6.41
-15.26
-23.53
-26.67
-22.5
-12.73
-1.59
6.85
11.08
12.34
13.02
14.74
17.19
19.16
19.79
19.27
18.68
18.45
17.95
15.6
10.64
4.27
-0.77
-1.7
2.48
10.13
17.4
20.3
16.47
6.13
-8
-22.1
-32.89
-38.61
-39.31
-36.52
-32.03
-27.33
-23.22
-19.87
-17.13
-15.03
-14.06
-14.58
-16.91
-20.57
-24.31
-26.53
-25.6
-20.94
-13.18
-4.26
3.27
7.12
6.69
3.38
0.13
-0.07
4.1
11.55
19.17
23.5
22.86
18.11
12.29
8.65
8.64
11.04
12.86
11.51
6.44
-0.43
-5.8
-6.94
-3.62
2.12
7.25
9.5
8.6
5.91
3.35
2
1.8
1.94
1.74
1.11
0.3
-0.7
-2.59
-6.08
-11.28
-16.91
-20.77
-20.66
-15.54
-6.35
4.4
13.42
18.11
17.62
13.06
6.91
1.69
-1.23
-2.24
-2.89
-4.83
-8.58
-12.79
-15.43
-14.84
-10.97
-5.23
0.26
4.03
5.52
4.91
3.19
0.94
-1.49
-3.71
-4.91
-4.16
-0.5
6.48
16.73
30.32
46.38
63.37
79.35
93.51
107.31
124.54
149.07
176.89
200.52
209.55
195.67
156.92
98.89
31.81
-33.84
-91.6
-139.57
-178.1
-209.85
-236.32
-257
-270.14
-273.48
-264.9
-243.83
-209.78
-161.5
-98.12
-19.11
67.74
148.12
206.1
236.35
239.27
221
192.32
165.13
145.92
137.8
138.25
140.4
136.08
118.39
85.35
40.81
-7.92
-53.2
-89.99
-117.3
-137.3
-153.54
-170.27
-190.72
-216.26
-246.27
-277.67
-304.43
-318.68
-312.62
-281.86
-229.03
-163.69
-99.38
-48.37
-16.35
0.22
11.72
30.06
61.81
104.32
147.32
178.61
190.59
183.96
166.9
150.27
142.63
146.61
159.09
174
184.97
187.62
180.12
163.42
140.39
115.19
92.28
75.17
65.1
60.35
57.34
52.46
43.9
32.44
20.82
11.71
5.88
1.9
-3.09
-11.1
-21.78
-32.04
-37.91
-37.06
-30.85
-24.02
-22
-27.89
-40.48
-55.59
-69.23
-80.09
-90.05
-101.67
-115.27
-127.69
-134.34
-132.83
-125.22
-116.82
-112.76
-114.41
-118.23
-118.26
-110.49
-95.45
-77.73
-62.43
-51.76
-43.27
-31.76
-11.78
19.77
62.89
114.61
169.84
221.92
263.93
290.52
299.41
292.46
274.18
249.13
219.84
186.22
147.21
103.05
56.84
13.44
-23.23
-52.5
-76.89
-100.04
-123.55
-145.01
-158.93
-159.42
-143.73
-114.55
-79.18
-46.63
-23.62
-12.26
-9.69
-10.75
-10.79
-7.54
-1.85
3.66
6.14
3.96
-3.38
-14.95
-28.86
-42.36
-52.46
-57.14
-56.16
-51.55
-46.78
-45.28
-48.87
-57.38
-69.2
-81.94
-93.41
-101.44
-104.24
-100.32
-89.32
-72.53
-52.6
-32.83
-15.95
-3.48
4.88
10.06
12.88
13.96
13.73
12.8
11.71
11.31
12.49
16.07
21.9
28.83
34.51
35.58
29.11
14.09
-7.49
-30.9
-50.29
-61.43
-63.51
-59.03
-52.29
-47.07
-44.81
-44.17
-42.75
-38.95
-32.89
-26.16
-20.79
-18.36
-19.24
-22.73
-27.55
-32.42
-36.29
-38.21
-37.54
-34.22
-28.68
-21.35
-12.59
-2.38
9.48
22.91
36.98
50.04
60.31
66.44
68.4
66.9
62.8
56.65
48.6
38.79
27.71
16.4
6.06
-2.58
-9.7
-15.66
-20.64
-24.37
-26.43
-26.9
-26.75
-27.23
-29.02
-31.64
-33.8
-34.48
-34.06
-34.12
-36.12
-39.97
-43.6
-43.8
-38.42
-28.24
-17.07
-10.12
-11.16
-20.96
-37.05
-55.33
-72.2
-85.93
-96.7
-105.58
-113.26
-119.83
-125.44
-130.87
-137.54
-146.55
-157.38
-167.3
-172.29
-169.13
-157.27
-139.61
-121.26
-106.94
-98.85
-95.72
-93.56
-87.49
-74.1
-52.7
-25.19
5.09
34.88
62.25
87.22
111.15
136.02
163.17
192.88
224.37
255.88
285.29
310.34
328.67
337.57
334.44
317.1
284.91
239.76
186.41
132.3
85.88
54.54
41.72
45.66
59.78
75.01
83.66
82.07
71.58
57.16
44.76
38.61
39.94
47.12
56.76
65.48
70.55
70.45
64.8
54.38
40.75
25.99
12.13
0.27
-9.43
-17.69
-25.44
-33.43
-42.12
-51.77
-62.79
-75.4
-89.12
-102.51
-113.37
-119.41
-119.09
-112.41
-100.59
-85.65
-70.01
-55.93
-45.08
-38.3
-35.26
-34.49
-33.77
-30.75
-24.06
-13.87
-1.55
11.03
22.21
30.99
37.17
40.84
42.23
41.74
40.07
38.3
37.53
38.61
41.57
45.42
48.48
49.14
46.72
42.03
37.08
33.92
33.7
36.12
39.56
41.92
41.7
38.67
33.81
28.51
23.8
20.18
17.57
15.96
15.68
17.2
20.74
25.65
30.38
32.87
31.35
24.99
14.58
2.55
-7.97
-14.21
-14.69
-9.63
-0.79
9.39
18.53
25.25
29.23
30.77
30.18
27.21
21.59
13.48
3.99
-5
-11.49
-14.45
-14.29
-12.36
-10.64
-10.74
-13.57
-19.42
-28.28
-40.08
-54.46
-70.47
-86.03
-98.13
-103.47
-99.67
-86.6
-67.03
-45.94
-28.79
-19.47
-18.64
-23.71
-30.16
-33.71
-32.09
-25.54
-16.34
-7.37
-0.81
2.58
3.44
3.39
4.05
6.34
10.28
14.75
18.13
18.96
16.67
11.59
4.48
-3.75
-12.44
-20.7
-27.39
-31.17
-30.93
-26.81
-20.24
-13.5
-8.42
-5.6
-4.02
-1.92
2.03
7.86
14.23
19.3
21.72
21.5
19.58
17.05
14.43
11.61
8.21
4
-0.78
-5.76
-10.59
-15.11
-19.18
-22.51
-24.58
-24.86
-23.4
-20.7
-17.74
-15.34
-13.74
-12.79
-12.06
-11.2
-9.87
-7.75
-4.26
1.05
7.99
15.48
21.75
25.21
25.1
22.17
18.21
15.19
14.38
15.88
18.83
22.09
24.71
25.96
25.6
23.63
20.56
17.14
13.98
11.29
8.6
5.26
1
-3.59
-7.13
-8.08
-5.54
0.31
8.11
15.55
20.4
21.11
17.32
10.13
1.74
-5.3
-9.18
-9.41
-7.38
-5.69
-6.93
-12.19
-20.33
-28.47
-33.4
-33.41
-29.19
-23.39
-18.96
-17.46
-18.39
-19.41
-17.97
-12.97
-5.34
2.66
8.87
12.28
13.35
13.11
12.16
10.62
8.29
5.2
1.68
-1.78
-4.84
-7.55
-10.37
-13.77
-17.13
-19.19
-18.99
-16.61
-13.25
-10.68
-10.33
-12.96
-18.62
-25.54
-30.99
-32.69
-29.99
-23.91
-16.58
-10.35
-7.2
-8.08
-10.51
-9.07
2.57
29.24
72.6
130.55
197.84
267.17
320.04
339.11
315.07
251.08
160.31
58.27
-43.15
-136.91
-219.19
-286.84
-339.46
-375.73
-395.11
-399.25
-391.85
-377.08
-358.04
-336.41
-312.33
-285.32
-254.58
-220.23
-183.58
-146.59
-110.85
-76.58
-43.36
-10.93
20.86
52.3
83.13
112.77
140.64
166.64
191.78
217.27
244.11
273.06
304.67
338.15
370.61
397.5
413.42
415.45
404.04
383.19
359.25
338.71
325.14
317.69
312.15
302.6
285.97
261.99
232.55
199.5
163.13
121.8
73.3
17.81
-48.46
-120.27
-186.36
-234.01
-255.62
-251.56
-228.7
-196.13
-159.04
-121.53
-85.77
-55.01
-33.43
-24.66
-29.56
-44.96
-68.79
-92.44
-107.74
-110.18
-102.48
-92.24
-87.33
-91.79
-104.62
-121.62
-137.63
-150.48
-160.01
-167.77
-175.06
-182.45
-189.91
-197.28
-204.49
-210.71
-216.65
-221.32
-223.45
-221.33
-213.81
-200.66
-182.41
-160.28
-135.03
-107.51
-77.91
-46.13
-10.89
29.26
74.97
125.11
176.21
223.28
261.29
287.89
300.02
300.15
293.6
285.63
279.05
273.66
267.42
258.17
245.18
228.75
210.04
189.06
164.72
136.13
103.98
71.32
42.52
21.49
9.67
5.37
3.52
-2.73
-19.79
-51.52
-97.75
-153.93
-211.65
-260.29
-289.17
-290.92
-264.15
-214.38
-152.86
-93.33
-47.72
-22.63
-17.98
-27.93
-43.96
-58.09
-65.09
-63.17
-53.37
-38.43
-21.77
-6.75
3.85
8.45
6.97
0.9
-7.61
-17.09
-27.89
-42
-61.63
-87.21
-116.1
-143.24
-163.34
-173.4
-173.99
-168.36
-160.11
-150.86
-139.68
-124.25
-103.09
-77.1
-49.58
-24.71
-5.61
6.83
14.3
20.06
27.81
40.53
59.63
84.52
112.75
141.08
166.9
189.53
210.33
231.58
254.42
277.29
295.86
304.6
299.59
280.47
250.93
217.26
185.79
160.64
142.65
129.98
119.57
108.64
95.74
80.73
64.16
46.54
27.81
7.26
-15.79
-41.31
-68.12
-94.02
-116.62
-134.36
-147.23
-156.69
-165.07
-174.46
-185.91
-199.09
-212.49
-224.05
-231.95
-235.32
-234.42
-230.48
-225.01
-219.17
-213.13
-205.95
-195.81
-180.55
-158.31
-127.81
-88.51
-40.68
14.67
75.41
138.47
199.99
255.92
302.59
337.58
360.3
371.86
374.33
369.43
357.53
337.4
307.14
265.44
212.87
152.19
87.39
22.22
-41.16
-102.19
-160.22
-211.78
-250.9
-271.38
-269.88
-248.04
-211.95
-169.41
-127.11
-88.8
-55.71
-27.44
-3.53
16.17
31.61
42.96
51.13
57.7
64.96
74.93
88.93
106.96
127.87
149.78
170.21
188.01
201.51
209.7
212.03
208.26
198.19
181.84
159.62
131.88
99.88
65.41
30.96
-0.97
-28.18
-49.38
-64.18
-73.01
-77.77
-80.29
-82.21
-84.52
-87.85
-92.66
-99.88
-111.39
-124.68
-140
-157.86
-178.85
-203.2
-230.72
-260.27
-289.61
-315.36
-333.47
-341.16
-337.11
-322.48
-300.51
-275.5
-251.07
-229.1
-209.43
-190.63
-171.81
-152.48
-132.99
-113.98
-95.84
-78.37
-60.89
-42.71
-23.37
-3.39
16.36
34.87
51.37
65.51
77.28
86.91
94.45
99.85
102.67
102.75
100.36
96.35
91.93
88.28
86.08
85.02
83.96
81.11
74.93
64.87
51.95
38.61
27.89
22.29
22.69
27.99
35.5
42.11
45.48
44.83
41.05
36.1
32.17
30.8
32.4
36.21
40.66
44.31
46.31
46.92
47.13
48.12
50.46
53.86
57.41
60.14
61.66
62.12
61.85
60.75
58.14
53.02
44.79
33.86
21.64
10.03
0.56
-6.14
-10.38
-12.95
-14.55
-15.55
-15.88
-15.48
-14.39
-12.82
-11.09
-9.41
-7.97
-6.82
-6.13
-5.93
-6.18
-6.52
-6.33
-4.86
-1.54
3.82
10.96
19.15
27.56
35.38
42.07
47.35
51.03
52.97
52.98
51.02
47.21
42.12
36.49
31.09
26.42
22.46
18.82
14.99
10.66
5.86
0.9
-3.91
-8.53
-13.08
-17.85
-22.9
-28.09
-33.01
-37.32
-40.85
-43.58
-45.54
-46.56
-46.26
-44.1
-39.82
-33.56
-25.95
-17.89
-10.23
-3.58
1.83
5.99
9.07
11.24
12.7
13.73
14.55
15.47
16.67
18.3
20.35
22.72
25.22
27.54
29.34
30.25
30.04
28.61
26.11
22.81
19.07
15.28
11.76
8.79
6.41
4.5
2.73
0.73
-1.79
-4.82
-8.03
-10.93
-12.94
-13.74
-13.16
-11.25
-8.2
-4.21
0.36
5.13
9.56
13.25
15.92
17.58
18.48
18.93
19.25
19.55
19.9
20.27
20.71
21.25
21.9
22.63
23.24
23.59
23.52
23.05
22.24
21.21
20.01
18.53
16.64
14.16
11.09
7.48
3.62
-0.14
-3.52
-6.31
-8.62
-10.7
-12.99
-15.78
-19.2
-22.98
-26.53
-29.09
-29.87
-28.46
-24.82
-19.39
-12.91
-6.16
0.18
5.79
10.64
14.99
18.98
22.7
25.94
28.46
30.07
30.74
30.63
29.93
28.85
27.46
25.82
23.98
22.03
20.15
18.41
16.86
15.34
13.68
11.57
8.78
5.22
0.93
-3.74
-8.3
-12.2
-15.12
-17.06
-18.44
-19.79
-21.64
-24.26
-27.49
-30.89
-33.79
-35.5
-35.48
-33.47
-29.54
-24.04
-17.63
-10.86
-4.31
1.68
6.93
11.32
14.81
17.36
18.92
19.49
19.21
18.23
16.87
15.45
14.31
13.69
13.56
13.65
13.5
12.74
11.14
8.87
6.33
3.94
2.07
0.78
-0.02
-0.57
-1.04
-1.6
-2.34
-3.37
-4.9
-7.12
-10.18
-13.99
-18.19
-22.09
-24.86
-25.77
-24.37
-20.84
-15.72
-9.92
-4.27
0.67
4.71
8.05
11.02
13.9
16.7
19.23
21.07
21.89
21.62
20.54
19.25
18.34
18.18
18.71
19.58
20.27
20.39
19.78
18.4
16.35
13.68
10.5
6.92
3.19
-0.39
-3.59
-6.25
-8.43
-10.15
-11.48
-12.43
-13.05
-13.42
-13.63
-13.81
-14.09
-14.66
-15.71
-17.55
-20.34
-24
-28.1
-31.78
-34.18
-34.62
-32.97
-29.62
-25.27
-20.58
-15.94
-11.43
-6.86
-2.18
2.62
7.25
11.35
14.6
16.85
18.22
18.92
19.33
19.7
20.28
21.13
22.15
23.14
23.71
23.49
22.12
19.52
15.94
11.94
8.25
5.43
3.74
2.94
2.54
1.9
0.65
-1.28
-3.62
-5.92
-7.88
-9.34
-10.48
-11.51
-12.67
-13.99
-15.38
-16.7
-17.78
-18.66
-19.42
-20.24
-21.28
-22.63
-24.35
-26.38
-28.55
-30.43
-31.52
-31.2
-29.1
-25.14
-19.66
-13.34
-6.96
-1.35
3.03
5.98
7.67
8.47
8.75
8.92
9.18
9.75
10.64
11.9
13.42
15.03
16.49
17.5
17.9
17.57
16.67
15.43
14.19
13.2
12.58
12.27
12.01
11.57
10.68
9.28
7.39
5.19
2.95
0.88
-0.81
-2.07
-2.95
-3.62
-4.31
-5.23
-6.52
-8.18
-10.15
-12.24
-14.34
-16.29
-18.07
-19.69
-21.26
-23.01
-25.03
-27.32
-29.53
-31.09
-31.34
-29.86
-26.57
-21.78
-16.17
-10.37
-4.95
-0.19
3.74
6.76
8.81
9.89
10.19
9.96
9.65
9.56
9.9
10.67
11.72
12.86
13.87
14.64
15
14.96
14.53
13.86
13.2
12.68
12.39
12.11
11.6
10.54
8.86
6.7
4.42
2.44
0.98
0.07
-0.58
-1.23
-2.18
-3.52
-5.21
-7.18
-9.23
-11.29
-13.19
-14.85
-16.23
-17.46
-18.83
-20.62
-22.99
-25.7
-28.24
-29.89
-30.08
-28.56
-25.44
-21.17
-16.18
-10.91
-5.62
-0.57
4.03
7.94
10.94
12.96
13.97
14.2
13.87
13.32
12.84
12.74
13.22
14.29
15.83
17.5
19
20.05
20.55
20.48
19.84
18.63
16.81
14.46
11.7
8.85
6.13
3.73
1.67
-0.2
-2.03
-3.96
-5.96
-7.98
-9.89
-11.68
-13.36
-15.01
-16.78
-18.75
-20.97
-23.36
-25.86
-28.39
-30.97
-33.7
-36.55
-39.35
-41.61
-42.74
-42.12
-39.52
-35.12
-29.5
-23.46
-17.61
-12.38
-7.83
-3.93
-0.57
2.28
4.63
6.53
8.02
9.27
10.33
11.3
12.2
13.13
14.2
15.47
16.98
18.55
19.98
20.95
21.22
20.7
19.43
17.67
15.76
14.13
13.04
12.7
13.03
13.74
14.47
14.78
14.44
13.37
11.76
9.85
7.9
6.09
4.38
2.68
0.79
-1.35
-3.72
-6.2
-8.69
-11.16
-13.62
-16.21
-19
-22.05
-25.23
-28.33
-31.02
-32.87
-33.43
-32.31
-29.43
-25.03
-19.7
-14.19
-9.2
-5.22
-2.27
-0.15
1.66
3.5
5.58
7.69
9.25
9.64
8.38
5.54
1.66
-2.29
-5.45
-7.16
-7.26
-5.86
-3.12
0.83
5.85
11.55
17.26
22.05
25.12
26.08
25.06
22.73
19.9
17.32
15.38
14.09
13.18
12.27
11.04
9.3
7.13
4.76
2.58
0.91
-0.13
-0.71
-1.2
-2.01
-3.47
-5.59
-8.21
-11.02
-13.82
-16.57
-19.33
-22.1
-24.65
-26.61
-27.46
-27
-25.31
-22.86
-20.25
-17.82
-15.54
-13
-9.83
-5.87
-1.51
2.63
6.02
8.45
10.27
12.01
14.08
16.51
18.93
20.81
21.79
21.91
21.52
21.15
21.2
21.78
22.71
23.57
23.88
23.2
21.45
18.79
15.74
12.88
10.63
9.01
7.58
5.71
2.73
-1.76
-8.06
-16.31
-26.57
-38.46
-51.02
-62.71
-71.75
-76.77
-77.16
-73.29
-66.09
-56.7
-46.17
-35.34
-25.04
-16.02
-8.76
-3.16
1.54
6.52
12.94
21.4
31.94
43.96
56.57
68.7
79.17
86.9
90.97
91.01
87.19
80.33
71.49
61.66
51.32
40.47
28.87
16.47
3.8
-8.13
-18.08
-25.19
-29.22
-30.64
-30.4
-29.42
-28.38
-27.56
-27.17
-27.4
-28.52
-30.61
-33.31
-35.65
-36.2
-33.52
-26.63
-15.52
-1.34
13.86
27.56
37.51
42.27
41.53
36.18
28.17
20.1
14.43
12.76
15.11
19.91
24.47
26.18
23.44
16.4
6.6
-3.89
-13.37
-21
-26.57
-29.95
-30.75
-28.43
-22.78
-14.4
-4.79
4.23
11.21
15.69
18.3
20.31
22.96
26.9
32.03
37.66
43
47.45
50.82
53.31
55.25
56.99
58.62
59.98
60.59
59.9
57.39
52.93
46.93
40.18
33.63
27.8
22.74
17.95
12.95
7.6
2.21
-2.65
-6.64
-9.89
-13.07
-16.91
-21.83
-27.67
-33.82
-39.61
-44.5
-48.36
-51.17
-52.97
-53.77
-53.67
-53.05
-52.54
-52.84
-54.37
-57.08
-60.24
-62.87
-63.95
-62.82
-59.41
-54.14
-47.81
-41.22
-35.08
-29.73
-25.3
-21.69
-18.7
-16.14
-13.75
-11.34
-8.76
-6.01
-3.14
-0.27
2.49
5.2
7.85
10.48
12.96
15.01
16.32
16.68
16.1
14.72
12.82
10.58
8.16
5.75
3.64
2.21
1.75
2.33
3.6
5.03
5.96
6.06
5.27
3.85
2.16
0.34
-1.57
-3.7
-6.14
-8.92
-11.85
-14.75
-17.45
-19.64
-21.02
-21.16
-19.67
-16.41
-11.66
-6.08
-0.54
4.04
7.2
8.8
9.2
8.91
8.39
7.96
7.73
7.68
7.68
7.62
7.35
6.83
6.11
5.33
4.79
4.63
4.9
5.44
5.97
6.12
5.67
4.56
2.85
0.78
-1.46
-3.69
-5.82
-7.8
-9.67
-11.45
-13.16
-14.85
-16.56
-18.43
-20.55
-23.02
-25.87
-29.03
-32.41
-35.76
-38.82
-41.16
-42.33
-41.88
-39.56
-35.5
-30.11
-24.13
-18.27
-13.12
-8.86
-5.41
-2.51
0.08
2.43
4.56
6.4
8
9.36
10.51
11.43
12.08
12.59
13.22
14.37
16.36
19.27
22.81
26.32
29.14
30.73
30.94
29.87
27.89
25.32
22.46
19.52
16.59
13.75
10.96
8.22
5.42
2.57
-0.32
-3.17
-5.85
-8.34
-10.6
-12.73
-14.8
-17
-19.43
-22.19
-25.25
-28.21
-30.51
-31.38
-30.26
-26.94
-21.8
-15.6
-9.22
-3.4
1.6
5.86
9.65
13.25
16.76
20.08
23.02
25.38
27.02
27.99
28.39
28.4
28.25
28.06
27.88
27.56
26.92
25.73
24.04
21.97
19.82
17.86
16.14
14.64
13.15
11.58
9.87
8.19
6.71
5.48
4.47
3.36
1.94
0
-2.43
-5.18
-7.96
-10.53
-12.8
-14.74
-16.58
-18.54
-20.92
-23.94
-27.69
-31.99
-36.32
-39.84
-41.59
-40.9
-37.55
-31.96
-25.03
-17.78
-11.07
-5.31
-0.53
3.61
7.38
11.04
14.64
18.07
21.23
23.94
26.2
27.99
29.43
30.56
31.42
31.99
32.21
32.11
31.7
31.11
30.42
29.71
28.95
28.1
27.08
25.84
24.43
22.9
21.38
19.95
18.67
17.48
16.24
14.81
13.04
10.89
8.4
5.71
2.96
0.25
-2.4
-5.01
-7.59
-10.16
-12.71
-15.27
-17.94
-20.87
-24.24
-28.04
-32.06
-35.75
-38.35
-39.12
-37.6
-33.8
-28.22
-21.7
-15.08
-9.05
-3.91
0.39
4.1
7.47
10.61
13.52
16.05
18.14
19.76
21.04
22.13
23.1
23.9
24.34
24.24
23.53
22.47
21.41
20.76
20.75
21.25
21.97
22.55
22.81
22.69
22.26
21.51
20.36
18.64
16.32
13.62
10.93
8.72
7.17
6.14
5.14
3.59
1.19
-2.02
-5.57
-8.92
-11.68
-13.79
-15.52
-17.32
-19.58
-22.38
-25.6
-28.91
-31.89
-34.21
-35.53
-35.51
-33.88
-30.55
-25.67
-19.78
-13.61
-7.89
-3.14
0.5
3.17
5.22
6.97
8.63
10.25
11.75
13.03
13.95
14.48
14.69
14.79
15.06
15.75
17.03
18.82
20.93
22.95
24.47
25.09
24.58
23.01
20.63
17.89
15.19
12.79
10.67
8.73
6.76
4.64
2.33
-0.25
-3.12
-6.38
-9.91
-13.41
-16.33
-18.13
-18.59
-17.98
-17.08
-16.81
-17.92
-20.57
-24.37
-28.55
-32.2
-34.62
-35.28
-33.96
-30.6
-25.48
-19.19
-12.6
-6.63
-1.87
1.53
4.01
6.23
8.8
11.89
15.29
18.41
20.68
21.8
21.81
21.18
20.43
19.99
20.03
20.34
20.57
20.34
19.52
18.21
16.68
15.18
13.87
12.72
11.54
10.21
8.6
6.84
5.09
3.57
2.38
1.43
0.45
-0.96
-3.07
-5.93
-9.22
-12.45
-15.15
-17.13
-18.63
-20.11
-22.17
-25.12
-28.95
-33.28
-37.43
-40.66
-42.34
-42.08
-39.79
-35.73
-30.38
-24.41
-18.47
-13.02
-8.29
-4.2
-0.51
3.07
6.66
10.29
13.8
16.97
19.65
21.73
23.15
23.93
24.15
23.98
23.64
23.37
23.25
23.28
23.25
22.9
22.1
20.86
19.3
17.64
16.01
14.39
12.77
11.07
9.27
7.38
5.41
3.36
1.19
-0.99
-3.11
-5
-6.58
-7.89
-9.07
-10.35
-11.85
-13.64
-15.58
-17.59
-19.62
-21.8
-24.33
-27.36
-30.96
-34.85
-38.55
-41.35
-42.57
-41.72
-38.67
-33.75
-27.57
-20.94
-14.51
-8.74
-3.74
0.53
4.27
7.67
10.76
13.62
16.14
18.29
19.99
21.3
22.33
23.22
24.15
25.08
25.93
26.48
26.56
26.11
25.2
24.01
22.71
21.41
20.06
18.59
16.92
15
12.92
10.78
8.76
6.93
5.31
3.8
2.32
0.79
-0.86
-2.62
-4.59
-6.84
-9.43
-12.28
-15.22
-17.95
-20.25
-22.17
-23.86
-25.75
-28.13
-31.13
-34.54
-37.83
-40.28
-41.16
-39.98
-36.57
-31.31
-24.89
-18.17
-11.91
-6.51
-2.04
1.76
5.17
8.39
11.43
14.18
16.5
18.37
19.88
21.16
22.32
23.33
24.13
24.6
24.76
24.72
24.63
24.64
24.71
24.74
24.5
23.81
22.52
20.63
18.26
15.59
12.93
10.48
8.41
6.62
4.86
2.77
0.06
-3.26
-6.96
-10.61
-13.87
-16.58
-18.87
-21.05
-23.34
-25.93
-28.83
-31.97
-35.2
-38.24
-40.65
-41.84
-41.3
-38.65
-34.02
-27.93
-21.14
-14.38
-8.19
-2.8
1.8
5.66
8.92
11.64
13.93
15.86
17.56
19.07
20.35
21.35
21.99
22.31
22.41
22.47
22.58
22.72
22.79
22.61
22.06
21
19.51
17.67
15.68
13.76
12.03
10.55
9.22
7.89
6.33
4.42
2.16
-0.36
-2.96
-5.59
-8.27
-11.13
-14.23
-17.55
-20.94
-24.33
-27.73
-31.09
-34.3
-36.88
-38.16
-37.46
-34.46
-29.4
-23.08
-16.51
-10.45
-5.28
-0.88
3.05
6.68
10.02
12.87
15.04
16.5
17.44
18.07
18.61
19.16
19.68
20.17
20.63
21.19
21.89
22.75
23.52
23.88
23.48
22.11
19.89
17.14
14.38
11.96
10.05
8.47
6.91
5.12
2.97
0.61
-1.76
-3.97
-6.04
-8.13
-10.45
-13.14
-16.22
-19.68
-23.39
-27.18
-30.73
-33.51
-34.91
-34.34
-31.61
-26.9
-20.92
-14.47
-8.3
-2.86
1.8
5.83
9.48
12.81
15.78
18.18
19.88
20.86
21.26
21.38
21.42
21.56
21.74
21.86
21.82
21.54
21.07
20.38
19.45
18.12
16.35
14.18
11.83
9.6
7.68
6.11
4.67
3.08
1.09
-1.3
-3.95
-6.64
-9.11
-11.35
-13.43
-15.59
-18.06
-20.99
-24.34
-27.86
-31.16
-33.68
-34.9
-34.34
-31.81
-27.38
-21.49
-14.8
-8.09
-2.05
2.94
6.77
9.75
12.27
14.68
17.09
19.34
21.12
22.1
22.18
21.53
20.54
19.7
19.28
19.29
19.42
19.31
18.69
17.51
15.89
14.02
12.03
9.93
7.66
5.12
2.3
-0.73
-3.79
-6.72
-9.44
-11.92
-14.27
-16.51
-18.66
-20.66
-22.45
-24.13
-25.95
-28.26
-31.15
-34.36
-37.04
-38.16
-36.88
-32.99
-27.09
-20.3
-13.81
-8.34
-4.07
-0.62
2.46
5.51
8.53
11.25
13.45
15.04
16.18
17.11
18.02
18.93
19.71
20.16
20.15
19.73
19.06
18.32
17.54
16.64
15.43
13.73
11.53
8.95
6.28
3.76
1.54
-0.45
-2.42
-4.65
-7.42
-10.81
-14.62
-18.4
-21.51
-23.29
-23.21
-21.18
-17.45
-12.64
-7.46
-2.63
1.45
4.66
7.18
9.32
11.35
13.41
15.39
17.1
18.26
18.75
18.61
18.05
17.35
16.74
16.28
15.87
15.38
14.68
13.71
12.56
11.3
9.93
8.29
6.14
3.27
-0.3
-4.3
-8.37
-12.09
-15.31
-18.1
-20.84
-23.83
-27.14
-30.41
-32.95
-33.92
-32.7
-29.18
-23.73
-17.1
-10.16
-3.5
2.59
8.11
13.09
17.45
20.83
22.9
23.56
23.01
21.85
20.77
20.29
20.53
21.22
21.82
21.89
21.23
19.93
18.3
16.59
14.89
13.09
10.99
8.4
5.3
1.84
-1.77
-5.23
-8.41
-11.24
-13.79
-16.19
-18.59
-21.16
-23.98
-27.09
-30.33
-33.38
-35.76
-36.89
-36.29
-33.67
-29.14
-23.1
-16.28
-9.46
-3.34
1.68
5.57
8.52
10.89
12.97
14.97
16.91
18.78
20.54
22.15
23.59
24.75
25.54
25.87
25.76
25.29
24.6
23.84
23.09
22.37
21.59
20.64
19.37
17.71
15.61
13.09
10.23
7.09
3.78
0.42
-2.8
-5.71
-8.14
-10.04
-11.6
-13.1
-14.93
-17.35
-20.49
-24.22
-28.14
-31.71
-34.23
-35.06
-33.78
-30.38
-25.29
-19.34
-13.43
-8.24
-4.06
-0.69
2.29
5.31
8.48
11.64
14.44
16.54
17.79
18.3
18.33
18.17
17.98
17.82
17.64
17.46
17.23
16.97
16.58
15.95
14.89
13.28
11.12
8.51
5.67
2.81
0.13
-2.22
-4.19
-5.8
-7.15
-8.37
-9.63
-11.03
-12.72
-14.76
-17.22
-20.08
-23.17
-26.16
-28.49
-29.67
-29.3
-27.36
-24.12
-20.11
-15.82
-11.57
-7.41
-3.25
0.96
5.2
9.31
13.07
16.4
19.23
21.64
23.61
25.09
25.92
26.05
25.49
24.39
23.02
21.5
19.97
18.37
16.66
14.74
12.49
9.95
7.09
4.06
0.96
-2.01
-4.72
-7.05
-8.97
-10.56
-11.93
-13.27
-14.71
-16.47
-18.62
-21.05
-23.46
-25.29
-25.99
-25.06
-22.39
-18.16
-12.89
-7.22
-1.68
3.35
7.76
11.56
14.88
17.75
20.24
22.23
23.62
24.3
24.22
23.48
22.23
20.71
19.07
17.48
15.99
14.66
13.58
12.69
11.9
10.93
9.52
7.5
4.93
2.11
-0.63
-3.03
-5.14
-7.17
-9.51
-12.4
-15.94
-19.99
-24.17
-28.02
-30.93
-32.4
-31.98
-29.62
-25.62
-20.57
-15.2
-10.12
-5.7
-1.93
1.37
4.44
7.47
10.44
13.21
15.59
17.37
18.38
18.57
18.01
16.84
15.4
13.98
12.87
12.13
11.63
11.03
9.94
8.08
5.39
2.13
-1.33
-4.56
-7.3
-9.45
-11.09
-12.51
-14.01
-15.94
-18.49
-21.6
-24.86
-27.63
-29.16
-28.9
-26.72
-22.9
-18.1
-13
-8.18
-3.9
-0.2
3.01
5.84
8.31
10.44
12.16
13.51
14.51
15.19
15.64
15.85
15.84
15.55
15.01
14.19
13.13
11.92
10.64
9.35
8
6.54
4.87
3
0.94
-1.28
-3.6
-6.01
-8.43
-10.8
-12.97
-14.88
-16.55
-18.21
-20.18
-22.65
-25.56
-28.4
-30.46
-31.02
-29.73
-26.65
-22.29
-17.34
-12.36
-7.78
-3.72
-0.15
3.01
5.82
8.34
10.59
12.6
14.41
15.99
17.31
18.33
19.01
19.3
19.15
18.59
17.64
16.42
15.05
13.67
12.37
11.17
10.07
8.98
7.8
6.37
4.63
2.55
0.24
-2.15
-4.46
-6.56
-8.43
-10.07
-11.63
-13.21
-15.03
-17.25
-19.95
-23.08
-26.28
-29.01
-30.59
-30.51
-28.52
-24.83
-19.95
-14.53
-9.25
-4.5
-0.44
3.03
6.15
9.12
12.03
14.82
17.28
19.15
20.27
20.61
20.31
19.57
18.6
17.53
16.39
15.19
13.92
12.66
11.47
10.39
9.44
8.5
7.47
6.1
4.27
1.87
-1
-4.09
-7.09
-9.64
-11.61
-13.06
-14.34
-15.89
-18.07
-21.01
-24.46
-27.9
-30.54
-31.72
-31
-28.33
-24.07
-18.84
-13.33
-8.13
-3.61
0.15
3.25
5.89
8.26
10.4
12.29
13.81
14.91
15.62
16.1
16.42
16.62
16.67
16.47
16.03
15.39
14.7
14.02
13.31
12.4
11.03
9.05
6.36
3.1
-0.5
-4.04
-7.18
-9.68
-11.49
-12.79
-13.82
-14.92
-16.28
-18.03
-20.15
-22.5
-24.81
-26.62
-27.37
-26.51
-23.76
-19.26
-13.57
-7.57
-2.02
2.56
6.13
8.91
11.22
13.26
15
16.35
17.2
17.54
17.51
17.33
17.16
17.05
16.93
16.61
15.9
14.71
13.14
11.38
9.73
8.3
7.02
5.64
3.83
1.44
-1.47
-4.58
-7.54
-10.1
-12.22
-14.1
-16.03
-18.26
-20.83
-23.6
-26.13
-27.86
-28.28
-27.01
-24.02
-19.59
-14.26
-8.58
-3.13
1.8
6.08
9.68
12.68
15.07
16.89
18.07
18.64
18.64
18.11
17.19
15.93
14.45
12.79
11.05
9.28
7.59
5.97
4.34
2.61
0.64
-1.55
-3.88
-6.16
-8.28
-10.2
-12.01
-13.87
-15.82
-17.9
-20.02
-22.17
-24.28
-26.3
-28.11
-29.43
-29.96
-29.41
-27.75
-25.08
-21.62
-17.54
-12.95
-7.98
-2.77
2.35
7.04
10.96
13.97
16.1
17.52
18.45
19.08
19.57
20.08
20.73
21.58
22.48
23.15
23.21
22.4
20.64
18.15
15.17
11.97
8.73
5.45
2.14
-1.25
-4.69
-8.23
-11.95
-15.91
-20.13
-24.42
-28.4
-31.51
-33.25
-33.29
-31.62
-28.41
-24.01
-18.73
-12.82
-6.53
-0.07
6.2
11.94
16.92
21.01
24.26
26.65
28.12
28.47
27.62
25.68
23.06
20.36
18.06
16.39
15.2
14.13
12.75
10.82
8.32
5.33
1.94
-1.83
-5.9
-10.18
-14.36
-18.15
-21.38
-24.01
-26.21
-28.17
-29.93
-31.25
-31.7
-30.88
-28.57
-24.92
-20.35
-15.4
-10.46
-5.71
-1.13
3.35
7.6
11.35
14.14
15.67
15.91
15.21
14.15
13.31
13.09
13.56
14.59
15.89
17.22
18.33
19.07
19.29
18.9
17.88
16.29
14.28
11.92
9.37
6.7
4
1.36
-1.26
-3.96
-7.02
-10.59
-14.72
-19.08
-23.08
-26.04
-27.33
-26.72
-24.33
-20.59
-16.11
-11.47
-7.09
-3.19
0.2
3.3
6.27
9.33
12.5
15.59
18.25
20.1
20.89
20.57
19.42
17.78
16.14
14.78
13.85
13.28
12.87
12.4
11.56
10.21
8.21
5.57
2.39
-1.17
-4.86
-8.46
-11.87
-15.15
-18.43
-21.85
-25.29
-28.39
-30.65
-31.53
-30.72
-28.2
-24.26
-19.33
-13.82
-8.04
-2.23
3.42
8.68
13.28
16.94
19.51
20.91
21.23
20.68
19.59
18.32
17.28
16.74
16.86
17.51
18.32
18.76
18.33
16.78
14.15
10.8
7.18
3.67
0.53
-2.2
-4.6
-6.88
-9.28
-12
-15.19
-18.78
-22.53
-25.96
-28.53
-29.65
-28.91
-26.11
-21.43
-15.3
-8.35
-1.36
5.14
10.81
15.61
19.62
22.98
25.63
27.49
28.47
28.57
28.04
27.13
26.14
25.16
24.14
22.96
21.54
19.97
18.39
16.94
15.61
14.25
12.63
10.54
7.99
5.11
2.21
-0.47
-2.76
-4.68
-6.38
-8.01
-9.73
-11.65
-13.84
-16.31
-19.02
-21.68
-23.84
-24.92
-24.32
-21.78
-17.4
-11.76
-5.61
0.28
5.43
9.68
13.09
15.82
17.93
19.51
20.53
21.05
21.17
21
20.67
20.24
19.82
19.41
19
18.55
17.91
17
15.79
14.37
12.83
11.23
9.47
7.32
4.65
1.44
-2.06
-5.46
-8.42
-10.79
-12.7
-14.45
-16.34
-18.56
-21.12
-23.78
-26.13
-27.64
-27.75
-26.07
-22.53
-17.44
-11.46
-5.4
0.05
4.53
8.04
10.89
13.34
15.64
17.74
19.48
20.59
20.85
20.22
18.83
17
15.03
13.24
11.78
10.64
9.75
8.94
8.04
6.91
5.51
3.8
1.85
-0.25
-2.47
-4.81
-7.37
-10.22
-13.39
-16.72
-19.98
-22.87
-25.11
-26.45
-26.67
-25.61
-23.19
-19.58
-15.09
-10.21
-5.36
-0.83
3.28
7.08
10.62
13.83
16.49
18.3
19.1
18.94
18.12
17.03
16.04
15.29
14.69
14.03
13.1
11.81
10.14
8.19
5.96
3.51
0.86
-1.92
-4.76
-7.57
-10.29
-12.93
-15.53
-18.17
-20.9
-23.73
-26.53
-29.05
-30.81
-31.25
-29.97
-26.8
-22.05
-16.33
-10.44
-4.98
-0.22
3.77
7.2
10.14
12.61
14.51
15.72
16.17
15.88
15.03
13.77
12.35
10.95
9.75
8.78
7.92
7.01
5.83
4.31
2.48
0.51
-1.48
-3.41
-5.31
-7.27
-9.28
-11.34
-13.36
-15.35
-17.32
-19.33
-21.31
-23.01
-24.05
-24.03
-22.68
-19.92
-15.93
-11.02
-5.61
-0.15
5
9.49
13.21
16.1
18.21
19.59
20.19
19.98
18.93
17.28
15.33
13.47
11.93
10.74
9.8
8.85
7.87
6.83
5.79
4.68
3.31
1.49
-0.93
-3.8
-6.85
-9.64
-11.88
-13.49
-14.68
-15.8
-17.16
-18.94
-21.04
-23.18
-24.88
-25.69
-25.2
-23.21
-19.74
-15
-9.46
-3.63
1.91
6.76
10.71
13.75
16.01
17.56
18.5
18.79
18.48
17.68
16.58
15.42
14.37
13.54
12.86
12.3
11.74
11.16
10.53
9.75
8.72
7.25
5.29
2.84
0.1
-2.76
-5.49
-7.98
-10.19
-12.1
-13.78
-15.27
-16.63
-17.97
-19.42
-21.02
-22.64
-23.9
-24.25
-23.24
-20.62
-16.57
-11.55
-6.16
-0.89
4.02
8.53
12.73
16.59
20
22.71
24.45
25.14
24.81
23.72
22.14
20.38
18.56
16.82
15.1
13.34
11.5
9.6
7.72
5.91
4.2
2.5
0.69
-1.26
-3.31
-5.26
-6.93
-8.15
-8.96
-9.5
-10.03
-10.88
-12.23
-14.2
-16.64
-19.26
-21.54
-22.9
-22.87
-21.11
-17.73
-13.05
-7.64
-2.05
3.26
8.07
12.35
16.16
19.58
22.52
24.83
26.24
26.6
25.91
24.41
22.51
20.61
19
17.71
16.65
15.6
14.36
12.9
11.25
9.55
7.91
6.43
5.11
3.95
2.93
2
1.17
0.39
-0.34
-1.11
-1.97
-3.01
-4.24
-5.61
-7.07
-8.49
-9.83
-11.08
-12.36
-13.78
-15.46
-17.37
-19.26
-20.76
-21.36
-20.65
-18.45
-14.9
-10.35
-5.26
-0.03
5.07
9.84
14.12
17.71
20.34
21.86
22.28
21.79
20.77
19.68
18.83
18.37
18.17
17.86
17.02
15.3
12.68
9.4
5.97
2.88
0.5
-1.03
-1.84
-2.04
-1.77
-1.13
-0.37
0.17
0.06
-1.02
-3.08
-5.94
-9.13
-12.24
-14.96
-17.19
-18.86
-19.87
-20.09
-19.5
-18.3
-16.84
-15.59
-14.89
-14.88
-15.43
-16.14
-16.56
-16.13
-14.52
-11.54
-7.42
-2.64
2.17
6.49
10.15
13.3
16.33
19.38
22.22
24.24
24.75
23.48
20.76
17.5
14.72
13.13
12.8
13.23
13.75
13.87
13.6
13.23
13.13
13.32
13.45
12.93
11.27
8.31
4.27
-0.34
-5.07
-9.48
-13.31
-16.33
-18.36
-19.41
-19.67
-19.58
-19.61
-20.05
-20.74
-21.1
-20.36
-17.95
-13.76
-8.2
-2.11
3.64
8.38
11.76
13.78
14.52
14.11
12.62
10.14
6.89
3.26
-0.29
-3.4
-5.85
-7.68
-8.91
-9.59
-9.7
-9.37
-8.97
-9.02
-10.08
-12.3
-15.47
-19.09
-22.74
-26.13
-29.12
-31.42
-32.45
-31.59
-28.48
-23.51
-17.75
-12.57
-9.02
-7.33
-7.1
-7.54
-8.13
-8.55
-8.77
-8.62
-7.72
-5.64
-2.12
2.61
7.94
12.91
16.74
18.88
19.15
17.73
14.93
11.22
7.06
2.98
-0.66
-3.58
-5.7
-7.13
-7.91
-7.99
-7.15
-5.14
-1.92
2.1
6.03
8.89
9.81
8.41
4.64
-1.25
-8.86
-17.49
-26.03
-33.02
-36.83
-36.6
-32.64
-26.7
-21.28
-18.71
-20.29
-25.97
-34.6
-44.46
-54.15
-62.94
-70.93
-78.42
-85.31
-90.78
-93.39
-91.48
-83.71
-70.09
-52.55
-34.82
-21.24
-15.29
-18.15
-28.53
-42.89
-56.76
-66.45
-70.38
-69.24
-64.75
-58.5
-51.27
-43.82
-36.82
-30.48
-23.98
-15.58
-3.28
14.25
36.82
63.92
90.85
110.43
116.83
109.45
91.9
68.48
41.37
9.76
-26.28
-63.75
-96.74
-117.99
-120.86
-101.13
-60.1
-4.11
57.43
114.09
156.07
176.94
176.64
163.53
151.26
152.55
173.19
208.73
246.23
269.64
267.46
232.58
170.66
97.7
32.33
-13.46
-38.56
-49.29
-52.85
-52.14
-46.2
-32.42
-11.02
13.79
35.35
48.24
51.38
47.93
44.39
46.6
58.08
77.66
101.33
121.65
131.97
129.39
114.58
91.4
64.79
39.07
16.21
-4.15
-24.32
-47.08
-74.51
-108.05
-146.57
-186.27
-220.94
-244.05
-251.09
-241.78
-220.94
-191.92
-161.95
-137.05
-119.21
-106.31
-94.02
-78.19
-56.14
-27.2
8.02
47.68
89.8
131.82
169.63
198.3
213.69
213.8
198.69
170.11
130.12
81.52
27.6
-28.29
-82.68
-131.81
-167
-179.9
-166.33
-129.39
-77.14
-18.61
39.31
92.66
139.72
179.44
212.1
236.84
252.42
258.93
258.21
252.98
245.96
238.94
232.66
227.24
222.07
216.63
210.94
205.65
201.35
198.23
195.46
191.39
183.86
170.62
150.31
122.97
90.57
56.26
24.02
-2.64
-21.82
-33.23
-38.33
-39.52
-39.87
-42.06
-48.06
-58.64
-73.21
-90.72
-109.71
-128.88
-146.64
-161.42
-171.5
-175.43
-172.23
-161.59
-144.63
-123.12
-99.13
-73.99
-48.71
-24.97
-6.02
3.61
0.09
-18.51
-47.92
-78.49
-98.17
-98.83
-81.11
-55.02
-35.09
-33.89
-60.69
-115.37
-189.14
-267.58
-335.62
-381.68
-399.51
-388.22
-352.27
-306.75
-269.45
-255.59
-273.15
-321.4
-391.9
-469.96
-538.38
-582.61
-603.57
-612.04
-623.69
-651.16
-698.71
-761.04
-824.38
-873.22
-853.08
-737.1
-535.7
-294.35
-65.64
118.04
249.83
338.88
396.41
429.66
434.82
409.37
357.66
292.68
230.99
182.58
153.37
142.24
143.6
145.71
140.02
124.38
103.45
84.45
72.05
66.77
65.08
62.14
51.15
28.96
-3.95
-41.62
-75.89
-100.3
-111.4
-109.38
-96.53
-77.18
-54.96
-31.43
-6.19
21.63
51.86
83.01
112.56
137.89
156.78
168.4
174.41
177.84
181.67
187.6
196.02
206.36
217.88
230.28
243.68
260.64
283.33
312.2
345.43
379.37
410.04
434.72
452.79
465.34
478.52
498.12
527.06
563.97
603.58
638.98
664.33
676.2
673.8
663.84
654.19
651.55
659.32
677.23
702.5
731.03
757.89
747.1
674.65
533.8
341.61
131.98
-61.06
-216.54
-329.31
-405.79
-456.4
-485.2
-493.27
-480.95
-451.15
-410.32
-366.58
-326.97
-294.93
-272.64
-256.3
-241.83
-226.65
-210.4
-193.79
-177.07
-159.58
-141.73
-126.07
-114.45
-108.46
-107.67
-109.49
-110.13
-107.02
-97.44
-82.67
-66.92
-54.75
-49
-49.58
-54.63
-62.08
-71.19
-81.82
-94.69
-109.8
-126.96
-144.45
-159.32
-168.89
-172.1
-170.62
-167.44
-167.07
-172.79
-188.11
-213.12
-244.27
-276.17
-303.63
-324.09
-336.91
-344.52
-349.4
-356.44
-368.99
-387.82
-411.42
-436.23
-457.71
-470.07
-469.74
-433.46
-353.11
-240
-120.48
-20.57
47.55
80.22
91.56
93.94
95.72
98.56
102.96
113.34
133.21
164.46
205.39
251.56
292.91
317.57
314.66
280.66
220.52
144.36
63.24
-14.35
-82.82
-140.74
-189.55
-231.84
-268.48
-298.66
-320.99
-334.41
-339
-335.68
-326.82
-314.42
-299.51
-283.38
-267.01
-251.14
-236.21
-222.5
-209.86
-198.17
-186.8
-174.74
-160.84
-144.04
-123.66
-99.47
-71.79
-41.36
-9.45
22.55
53.14
80.69
103.63
120.68
131.12
135.08
133.39
127.26
117.99
106.73
94.26
81.07
67.61
54.43
42.42
32.62
25.75
21.87
20.45
20.69
22.1
25.07
31.14
42.73
62.38
91.47
129.44
173.48
219.44
263.14
301.41
332.93
357.88
377.4
392.81
405.37
416.18
426.67
437.66
447.64
451.84
443.45
417.05
372.44
316.56
261.62
220.4
200.18
199.37
208.78
217.02
216.85
208.15
196.11
186.01
178.78
170.47
155.76
133.03
106.28
82.93
68.79
63.56
60.52
50.45
27.91
-4.78
-37.95
-60.36
-65.55
-55.26
-38.12
-24.35
-20.28
-25.98
-36.81
-47.15
-54.18
-58.72
-63.25
-69.23
-75.42
-78.85
-77.29
-71.58
-65.55
-63.67
-67.93
-76.27
-84.02
-86.69
-82.59
-73.19
-61.58
-50.05
-39.15
-28.25
-17.02
-6.69
0.25
1.73
-2.21
-9.18
-15.83
-19.73
-20.56
-19.67
-18.85
-18.86
-19.06
-18.25
-15.64
-11.69
-7.75
-5.08
-3.81
-3.03
-1.34
2.11
7.03
12.15
15.96
17.45
16.49
13.84
10.71
8.32
7.54
8.49
10.5
12.36
12.67
10.25
4.59
-3.86
-13.85
-23.65
-31.54
-36.25
-37.26
-34.86
-30.19
-24.89
-20.52
-17.98
-17.27
-17.62
-17.95
-17.37
-15.5
-12.52
-8.86
-5.04
-1.7
0.52
0.92
-0.87
-4.64
-9.34
-13.33
-14.93
-13.21
-8.7
-3.24
0.71
1.2
-2.3
-8.69
-15.69
-21.12
-23.81
-24.19
-23.57
-23.31
-24.05
-25.48
-26.83
-27.47
-27.24
-26.28
-24.65
-21.98
-17.73
-11.67
-4.19
3.69
10.75
16.02
19.15
20.4
20.39
19.75
18.88
18.04
17.28
16.52
15.6
14.36
12.74
10.86
9.18
8.25
8.52
9.96
11.97
13.63
14
12.71
10.14
7.32
5.29
4.71
5.53
7.18
9.13
11.13
13.32
15.86
18.69
21.55
24.23
26.8
29.63
33.09
36.98
40.33
41.77
40.24
35.62
28.97
22.03
16.47
13.29
12.6
13.75
15.73
17.43
17.64
15.39
9.97
1.48
-8.85
-18.93
-27.15
-33.47
-39.84
-50
-67.96
-96.48
-135.43
-181.35
-228.16
-268.8
-296.75
-307.62
-300.02
-275.98
-240.55
-200.34
-161.08
-125.64
-93.4
-61.23
-25.94
13.63
55.58
95.21
127.08
147.44
155.63
153.84
145.64
134.15
120.79
106.34
91.44
76.89
63.3
50.03
34.59
13.69
-14.24
-46.59
-75.86
-92.54
-89.75
-67.33
-32.35
4.58
35.07
56.72
73.2
90.63
112.88
139.49
166.54
189.32
205.18
214.14
216.96
212.88
199.22
173.27
135.13
89.41
43.97
7.48
-12.91
-13.53
5.76
42.22
91.43
148.41
208.16
266.15
318.91
363.82
398.68
421.12
428.44
418.41
390.83
348.62
297.99
246.62
201.12
165.24
139.71
123.13
113.06
106.92
101.83
95.03
83.78
65.91
40.73
9.62
-24.69
-59.82
-94.78
-130.43
-168.18
-208.47
-250.03
-290.03
-325.68
-355.86
-381.54
-404.27
-424.02
-437.14
-437.24
-418.84
-381.34
-331.05
-279.19
-236.61
-208.73
-193.97
-186.38
-180.94
-177.57
-180.79
-195.63
-222.33
-253.64
-277.08
-280.52
-257.6
-210.15
-146.47
-77
-9.99
50.39
103.65
150.86
192.28
226.03
248.18
254.25
241.53
210.36
164.4
109.33
50.61
-8.27
-66.07
-122.87
-178.05
-228.51
-269.02
-294.34
-301.62
-291.32
-267.08
-234.46
-199.32
-166.58
-139.52
-120.15
-109.68
-108.65
-116.31
-129.89
-144.52
-153.99
-152.34
-135.98
-105.06
-63.42
-17.03
28.52
70.09
106.94
139.17
165.55
183.15
188.91
182.62
168.18
151.66
138.06
128.63
120.97
111.47
98.76
85.32
76.04
74.71
80.63
88.43
91.42
85.76
72.92
58.54
48.81
46.49
49.34
51.93
49.48
40.98
29.35
19.11
13.35
12.05
12.67
12.16
8.99
3.99
-0.31
-1.28
2.51
10.68
21.34
31.49
38.06
38.94
33.82
24.55
14.31
6.36
2.48
2.31
3.77
4.4
2.84
-0.83
-5.25
-8.75
-10.13
-9.09
-6.19
-2.52
0.7
2.61
2.9
2
0.8
0.36
1.58
5.01
10.69
18.23
26.82
35.32
42.37
46.65
47.26
43.99
37.5
29.25
20.82
13.36
7.17
2.05
-2.31
-5.82
-7.96
-8.35
-7.35
-6.04
-5.88
-7.86
-11.92
-16.87
-21.05
-23.28
-23.46
-22.65
-22.38
-23.83
-27.12
-31.11
-34.2
-35.11
-33.69
-30.91
-28.31
-27.05
-27.29
-28.11
-28.11
-26.15
-21.99
-16.28
-10.1
-4.38
0.52
4.78
8.84
12.98
17
20.33
22.32
22.69
21.8
20.59
19.85
19.83
19.84
18.71
15.46
9.93
2.99
-3.93
-9.46
-12.86
-14.14
-13.81
-12.49
-10.61
-8.39
-5.89
-3.1
-0.11
2.85
5.35
7
7.51
6.98
5.78
4.42
3.28
2.57
2.4
2.74
3.36
3.73
3.14
0.99
-2.64
-6.73
-9.62
-9.78
-6.62
-0.68
6.59
13.69
19.57
23.88
26.72
28.28
28.66
27.92
26.3
24.27
22.3
20.73
19.51
18.37
17.03
15.51
14.04
12.88
12.2
11.82
11.35
10.28
8.16
4.89
0.87
-3.17
-6.51
-8.81
-10.18
-11.01
-11.58
-11.83
-11.53
-10.6
-9.25
-7.99
-7.29
-7.34
-8.04
-9.21
-10.57
-11.78
-12.32
-11.46
-8.74
-4.31
0.8
5.17
7.64
7.99
7.03
6.02
5.86
6.62
7.64
8.13
7.73
6.63
5.32
4.16
3.25
2.42
1.6
1.06
1.29
2.62
4.96
7.6
9.53
9.88
8.42
5.48
1.73
-2.3
-6.35
-10.3
-14.02
-17.12
-19.3
-20.59
-21.6
-23.19
-25.97
-29.82
-33.97
-37.49
-39.71
-40.54
-40.2
-39.01
-37.2
-35.21
-33.82
-34.02
-36.7
-42.07
-49.43
-57.5
-65.04
-71.12
-75.45
-78.1
-79.21
-78.9
-77.36
-74.93
-71.92
-68.55
-64.91
-60.83
-55.51
-47.37
-34.47
-15.19
10.9
42.4
75.99
107.34
132.71
150.05
159.12
160.56
155.06
143.16
125.87
105.49
85.74
70.55
62.4
61.08
63.77
66.71
66.65
62
52.77
40.26
26.56
13.93
4.3
-1.34
-3.53
-4.51
-7.04
-12.73
-20.82
-28.38
-32.07
-30.14
-23.64
-15.99
-11.06
-11.11
-15.7
-22.18
-27.27
-28.71
-26.03
-20.4
-13.91
-8.48
-5.1
-3.61
-3.09
-2.39
-0.87
1.36
3.63
5.2
5.62
4.88
3.46
2.04
1.4
2
3.71
5.85
7.31
7.31
5.94
4.17
3.31
4.22
6.72
9.66
11.57
11.38
9.05
5.49
2.11
0.14
0.12
1.69
3.75
5.01
4.45
1.92
-1.83
-5.46
-7.79
-8.23
-6.91
-4.63
-2.32
-0.91
-1.05
-2.95
-6.37
-10.59
-14.62
-17.58
-18.93
-18.58
-16.82
-13.92
-10.08
-5.65
-1.15
2.72
5.39
6.81
7.45
7.95
8.79
10.02
11.24
12.1
12.43
12.3
11.8
10.94
9.7
8.15
6.56
5.14
4.04
3.26
2.75
2.56
2.78
3.32
3.8
3.69
2.68
0.97
-0.87
-2.22
-2.75
-2.57
-1.98
-1.24
-0.49
0.21
0.67
0.49
-0.68
-2.82
-5.45
-7.74
-8.89
-8.57
-7.07
-5.25
-4.12
-4.47
-6.44
-9.43
-12.31
-13.99
-13.98
-12.54
-10.46
-8.47
-6.8
-5.19
-3.35
-1.32
0.39
1.19
0.96
0.15
-0.43
-0.13
1.12
2.95
4.8
6.28
7.2
7.64
7.68
7.37
6.88
6.5
6.51
7.11
8.31
9.8
11.04
11.42
10.44
8.03
4.66
1.2
-1.44
-2.7
-2.69
-2.04
-1.5
-1.55
-2.25
-3.43
-4.91
-6.6
-8.31
-9.76
-10.65
-10.87
-10.72
-10.78
-11.61
-13.31
-15.34
-16.84
-17.02
-15.57
-12.71
-8.94
-4.75
-0.57
3.25
6.36
8.39
9.1
8.51
6.98
5.16
3.87
3.68
4.72
6.55
8.31
9.12
8.54
6.76
4.54
2.8
2.13
2.57
3.64
4.69
5.17
4.89
3.85
2.22
0.24
-1.79
-3.51
-4.71
-5.39
-5.79
-6.24
-7.02
-8.18
-9.55
-10.89
-12
-12.84
-13.49
-14.12
-14.85
-15.73
-16.6
-17.24
-17.41
-16.99
-15.98
-14.42
-12.36
-9.81
-6.93
-4
-1.39
0.58
1.82
2.54
2.96
3.15
3.01
2.5
1.85
1.58
2.27
4.11
6.71
9.23
10.9
11.44
11.22
10.97
11.17
11.72
12.09
11.66
10.17
7.84
5.23
2.83
0.92
-0.44
-1.34
-1.85
-2.13
-2.29
-2.47
-2.72
-3.07
-3.51
-4.12
-5.07
-6.6
-8.79
-11.35
-13.63
-14.92
-14.88
-13.81
-12.49
-11.58
-11.16
-10.6
-8.97
-5.78
-1.43
2.92
6.02
7.28
7.05
6.34
6.1
6.64
7.62
8.49
8.91
9.06
9.35
9.97
10.79
11.35
11.27
10.5
9.31
8.07
7.02
6.17
5.33
4.46
3.76
3.6
4.2
5.45
6.79
7.48
7.06
5.58
3.65
2.04
1.36
1.71
2.63
3.32
3.08
1.59
-1.04
-4.38
-7.99
-11.44
-14.38
-16.5
-17.62
-17.8
-17.33
-16.57
-15.71
-14.75
-13.55
-12.11
-10.65
-9.59
-9.16
-9.15
-8.84
-7.4
-4.34
0.07
4.93
9.14
11.95
13.2
13.31
12.91
12.56
12.55
12.91
13.5
14.08
14.42
14.3
13.55
12.16
10.29
8.27
6.47
5.11
4.2
3.53
2.76
1.58
-0.07
-2.01
-3.96
-5.66
-7.04
-8.15
-9.08
-9.87
-10.46
-10.75
-10.66
-10.17
-9.31
-8.17
-6.87
-5.66
-4.83
-4.63
-5.05
-5.86
-6.6
-6.79
-6.12
-4.56
-2.35
0.16
2.63
4.73
6.19
6.9
7
6.79
6.67
6.91
7.46
8.03
8.25
7.97
7.36
6.8
6.52
6.48
6.36
5.81
4.7
3.25
1.86
0.87
0.38
0.31
0.52
0.81
0.93
0.64
-0.21
-1.57
-3.11
-4.36
-4.96
-4.85
-4.36
-3.9
-3.69
-3.59
-3.38
-2.96
-2.56
-2.61
-3.42
-4.86
-6.52
-7.85
-8.57
-8.72
-8.47
-7.94
-7.03
-5.6
-3.66
-1.53
0.39
1.85
3.01
4.34
6.19
8.43
10.43
11.45
11.19
10.03
8.73
8.02
8.12
8.65
9.01
8.77
8.07
7.39
7.22
7.67
8.37
8.74
8.37
7.28
5.92
4.87
4.53
4.88
5.52
5.89
5.53
4.37
2.71
1.07
-0.16
-0.9
-1.36
-1.81
-2.41
-3.06
-3.61
-4
-4.51
-5.46
-6.96
-8.64
-9.74
-9.66
-8.34
-6.4
-4.79
-4.26
-4.87
-5.93
-6.53
-6.06
-4.59
-2.82
-1.52
-1.05
-1.09
-0.81
0.64
3.54
7.42
11.26
13.92
14.71
13.71
11.65
9.47
7.96
7.42
7.64
8.08
8.15
7.5
6.25
4.62
2.81
0.92
-1.01
-2.93
-4.6
-5.8
-6.37
-6.54
-7.04
-8.77
-12.4
-17.77
-23.94
-29.64
-34.14
-37.57
-40.88
-45.31
-51.6
-59.37
-66.71
-70.64
-68.44
-59.42
-46.02
-33.5
-27.98
-33.35
-48.98
-69.39
-86.09
-91.13
-80.53
-55.56
-21.6
14.57
47.19
72.4
87.82
91.99
84.19
64.93
36.59
3.13
-31.06
-62.87
-91.87
-119.84
-148.57
-177.48
-201.95
-214.13
-206.02
-173.48
-119.02
-51.91
15.03
70.17
107.34
127.19
135.32
138.49
141.18
144.45
147.02
147.71
146.86
146.5
149.11
156.09
166.96
179.52
190.86
198.32
200.06
195.12
183.56
166.54
146.03
124.37
103.52
84.42
67.05
51.07
36.53
24.23
15.37
10.49
8.81
8.09
5.56
-1.04
-12.27
-26.67
-41.2
-52.59
-59.16
-61.56
-62.57
-65.5
-72.24
-82.05
-92.02
-98.48
-98.89
-92.92
-82.08
-68.61
-54.24
-39.89
-26.02
-13.44
-3.56
1.98
2.24
-2.55
-11
-21.28
-31.75
-41.27
-49.16
-54.95
-58.14
-58.32
-55.48
-50.21
-43.67
-37.23
-32.01
-28.37
-25.81
-23.31
-20.04
-15.94
-11.96
-9.68
-10.4
-14.31
-20.2
-25.95
-29.59
-30.34
-28.83
-26.46
-24.32
-22.43
-19.76
-14.94
-7.29
2.68
13.35
22.82
29.74
33.78
35.6
36.26
36.69
37.05
36.79
34.96
30.9
24.85
18.03
12.3
9.21
9.18
11.17
13.31
13.77
11.87
8.24
4.32
1.45
0.07
-0.33
-0.76
-1.85
-3.6
-5.43
-6.7
-7.19
-7.16
-7.22
-7.91
-9.4
-11.42
-13.4
-14.82
-15.35
-15.04
-14.11
-12.82
-11.27
-9.37
-6.98
-4.12
-1.11
1.43
2.84
2.8
1.55
-0.11
-1.19
-1.04
0.39
2.42
4.2
5.06
4.97
4.5
4.42
5.22
6.68
8.1
8.65
7.94
6.27
4.5
3.56
3.78
4.71
5.32
4.74
2.8
0.18
-2.01
-2.94
-2.6
-1.85
-1.84
-3.26
-5.92
-8.84
-10.95
-11.64
-11.2
-10.48
-10.47
-11.65
-13.77
-16
-17.32
-17.06
-15.09
-11.93
-8.34
-5.03
-2.33
-0.06
2.24
5.01
8.38
12.09
15.63
18.51
20.48
21.48
21.66
21.25
20.59
20.12
20.15
20.68
21.33
21.58
21.02
19.74
18.26
17.31
17.31
18.11
19.09
19.49
18.91
17.27
14.6
10.75
5.43
-1.38
-9.06
-16.45
-22.28
-25.82
-27.23
-27.36
-27.18
-27.21
-27.36
-27.13
-26.05
-24.17
-21.97
-20.13
-19.06
-18.68
-18.49
-17.96
-16.75
-14.82
-12.48
-10.18
-8.3
-7.04
-6.31
-5.78
-5.01
-3.74
-1.96
0.08
1.95
3.31
4.09
4.42
4.61
4.85
5.14
5.33
5.27
5.07
5.06
5.58
6.73
8.15
9.28
9.68
9.28
8.39
7.44
6.76
6.39
6.27
6.27
6.32
6.29
5.99
5.21
3.87
2.21
0.55
-0.85
-2.04
-3.3
-4.84
-6.5
-7.72
-7.94
-7.11
-5.99
-5.69
-7.07
-10.05
-13.53
-16.04
-16.55
-15.08
-12.56
-10.22
-8.73
-7.92
-7.07
-5.46
-2.93
-0.05
2.26
3.31
3.07
2.25
1.84
2.51
4.21
6.2
7.5
7.53
6.46
4.98
3.93
3.73
4.17
4.72
4.96
4.92
4.99
5.53
6.5
7.39
7.55
6.6
4.76
2.61
0.78
-0.41
-1.06
-1.45
-1.71
-1.84
-1.71
-1.34
-1.01
-1.12
-1.85
-3.06
-4.3
-5.01
-5.03
-4.6
-4.3
-4.66
-5.87
-7.61
-9.24
-10.13
-9.93
-8.72
-6.88
-4.88
-3.04
-1.46
-0.09
1.09
1.93
2.19
1.66
0.45
-0.95
-1.82
-1.6
-0.16
2.03
4.15
5.43
5.53
4.69
3.47
2.45
1.93
1.84
1.97
2.14
2.33
2.62
3.08
3.67
4.2
4.45
4.21
3.4
2.08
0.48
-1.08
-2.29
-3.01
-3.36
-3.69
-4.38
-5.6
-7.24
-8.97
-10.41
-11.35
-11.83
-11.93
-11.65
-10.78
-9.05
-6.42
-3.22
-0.12
2.23
3.49
3.78
3.58
3.41
3.55
3.97
4.4
4.59
4.41
3.95
3.42
3.05
2.98
3.26
3.81
4.47
5.09
5.49
5.58
5.34
4.81
4.07
3.2
2.22
1.15
0.07
-0.89
-1.53
-1.74
-1.55
-1.26
-1.23
-1.8
-3.05
-4.79
-6.62
-8.07
-8.85
-8.85
-8.26
-7.38
-6.56
-5.96
-5.49
-4.88
-3.81
-2.14
-0.07
1.95
3.46
4.28
4.61
4.81
5.14
5.58
5.86
5.77
5.37
4.91
4.64
4.55
4.42
4.01
3.35
2.77
2.6
2.83
3.03
2.6
1.18
-1.03
-3.39
-5.15
-5.89
-5.68
-4.92
-4.11
-3.53
-3.27
-3.29
-3.52
-3.91
-4.32
-4.55
-4.32
-3.52
-2.21
-0.66
0.74
1.65
1.91
1.69
1.35
1.32
1.81
2.71
3.67
4.32
4.59
4.73
5.23
6.28
7.64
8.64
8.67
7.59
5.87
4.32
3.5
3.43
3.58
3.34
2.45
1.13
-0.08
-0.8
-0.9
-0.6
-0.18
0.12
0.23
0.14
-0.13
-0.49
-0.69
-0.47
0.21
1.14
1.83
1.98
1.59
1.1
1.05
1.7
2.84
3.9
4.44
4.35
4.03
3.97
4.39
5.2
6.02
6.58
6.78
6.73
6.4
5.68
4.28
2.07
-0.76
-3.78
-6.48
-8.58
-10
-10.94
-11.61
-12.11
-12.56
-13
-13.59
-14.36
-15.17
-15.62
-15.26
-13.79
-11.32
-8.36
-5.46
-2.99
-0.88
1.26
3.73
6.52
9.23
11.3
12.32
12.37
11.84
11.26
10.99
10.96
10.84
10.27
9.13
7.57
5.94
4.51
3.43
2.66
2.06
1.5
0.89
0.21
-0.61
-1.62
-2.84
-4.21
-5.52
-6.58
-7.29
-7.69
-7.96
-8.27
-8.58
-8.65
-8.17
-6.98
-5.18
-3.16
-1.35
0
0.93
1.73
2.67
3.78
4.78
5.28
5.02
4.02
2.62
1.26
0.33
-0.07
-0.13
-0.17
-0.49
-1.17
-2.06
-2.96
-3.73
-4.39
-5
-5.56
-5.87
-5.7
-4.95
-3.78
-2.55
-1.61
-1.14
-1.03
-1.09
-1.13
-1.08
-0.99
-0.77
-0.26
0.72
2.17
3.78
5.14
5.97
6.33
6.49
6.71
7.03
7.25
7.16
6.72
6.15
5.73
5.6
5.63
5.54
5.07
4.28
3.5
3.1
3.33
4.07
4.94
5.45
5.36
4.73
3.88
3.19
2.89
2.97
3.22
3.43
3.43
3.21
2.89
2.59
2.4
2.32
2.29
2.22
2.11
2.08
2.28
2.94
4.14
5.9
7.95
9.94
11.47
12.33
12.6
12.57
12.6
12.86
13.3
13.59
13.47
12.87
12.07
11.47
11.27
11.35
11.04
9.65
6.73
2.46
-2.48
-7.24
-11.25
-14.45
-17.12
-19.61
-21.96
-23.84
-24.78
-24.47
-23.01
-20.86
-18.59
-16.45
-14.33
-11.83
-8.58
-4.51
0.07
4.51
8.19
10.62
11.72
11.7
11
10.1
9.36
8.99
8.97
9.14
9.2
8.97
8.43
7.73
7.07
6.55
6.09
5.49
4.65
3.66
2.86
2.57
2.78
3.2
3.23
2.37
0.49
-2.03
-4.55
-6.49
-7.67
-8.35
-8.94
-9.76
-10.8
-11.88
-12.78
-13.49
-14.16
-14.92
-15.71
-16.21
-16.1
-15.19
-13.62
-11.74
-9.92
-8.27
-6.59
-4.61
-2.17
0.49
2.9
4.55
5.24
5.21
4.98
5.11
5.78
6.74
7.5
7.62
7
5.9
4.77
4.01
3.78
4
4.46
4.9
5.14
5.07
4.6
3.71
2.47
1.16
0.12
-0.39
-0.48
-0.6
-1.33
-2.97
-5.25
-7.4
-8.47
-7.96
-6.12
-3.82
-2.05
-1.31
-1.35
-1.38
-0.66
1.04
3.27
5.23
6.22
6.09
5.25
4.39
4.11
4.53
5.33
5.95
5.93
5.26
4.27
3.5
3.3
3.67
4.28
4.71
4.75
4.33
3.6
2.7
1.65
0.44
-0.89
-2.2
-3.37
-4.35
-5.23
-6.16
-7.2
-8.27
-9.22
-9.92
-10.39
-10.72
-10.91
-10.89
-10.5
-9.55
-8.02
-5.99
-3.61
-1.05
1.53
3.9
5.74
6.68
6.62
5.73
4.58
3.82
3.83
4.58
5.64
6.47
6.71
6.35
5.61
4.74
3.9
3.12
2.37
1.68
1.14
0.82
0.7
0.64
0.49
0.18
-0.28
-0.85
-1.5
-2.19
-2.86
-3.45
-3.96
-4.44
-4.98
-5.75
-6.75
-7.83
-8.72
-9.21
-9.27
-9.14
-9.17
-9.59
-10.44
-11.49
-12.35
-12.72
-12.47
-11.7
-10.68
-9.65
-8.68
-7.67
-6.44
-4.86
-3.01
-1.1
0.6
1.89
2.72
3.21
3.49
3.64
3.66
3.52
3.3
3.13
3.23
3.67
4.36
4.98
5.25
5.02
4.4
3.72
3.34
3.47
3.96
4.44
4.47
3.82
2.67
1.46
0.67
0.46
0.62
0.65
0.1
-1.12
-2.72
-4.18
-5.07
-5.27
-5.02
-4.73
-4.81
-5.51
-6.85
-8.64
-10.53
-12.12
-13.06
-13.14
-12.37
-10.97
-9.16
-7.17
-5.19
-3.35
-1.79
-0.59
0.21
0.75
1.2
1.72
2.41
3.2
3.97
4.61
5.09
5.35
5.42
5.16
4.48
3.42
2.17
1.12
0.59
0.73
1.33
2
2.36
2.28
1.87
1.41
1.12
0.98
0.85
0.57
0.12
-0.4
-0.81
-1.08
-1.35
-1.82
-2.66
-3.84
-5.14
-6.26
-6.91
-7.06
-6.82
-6.55
-6.51
-6.84
-7.39
-7.86
-8
-7.7
-7.1
-6.44
-5.9
-5.48
-4.98
-4.19
-3.01
-1.59
-0.2
0.87
1.45
1.58
1.39
1.11
0.95
1.12
1.71
2.73
4.02
5.28
6.21
6.59
6.39
5.77
5.01
4.31
3.74
3.19
2.52
1.74
1
0.53
0.46
0.75
1.09
1.15
0.74
-0.08
-1.06
-2.02
-2.95
-4.01
-5.35
-6.89
-8.35
-9.34
-9.73
-9.75
-9.96
-10.82
-12.39
-14.18
-15.41
-15.46
-14.2
-11.99
-9.46
-7.14
-5.23
-3.68
-2.33
-1.05
0.16
1.28
2.34
3.36
4.43
5.55
6.68
7.66
8.32
8.46
7.98
6.98
5.75
4.81
4.61
5.33
6.76
8.37
9.46
9.57
8.62
6.98
5.22
3.82
2.91
2.32
1.74
0.9
-0.2
-1.34
-2.19
-2.56
-2.48
-2.27
-2.22
-2.55
-3.29
-4.3
-5.37
-6.33
-7.02
-7.38
-7.46
-7.29
-6.98
-6.57
-5.92
-4.77
-2.9
-0.33
2.55
5.07
6.6
6.92
6.32
5.43
4.84
4.8
5.15
5.55
5.74
5.77
5.91
6.37
7.08
7.66
7.72
7.12
6.04
4.9
3.98
3.35
2.87
2.4
1.95
1.65
1.54
1.48
1.18
0.49
-0.54
-1.55
-2.19
-2.31
-2.07
-1.75
-1.65
-1.83
-2.23
-2.81
-3.54
-4.53
-5.79
-7.24
-8.6
-9.59
-9.94
-9.58
-8.6
-7.15
-5.51
-3.92
-2.57
-1.47
-0.45
0.69
2
3.35
4.49
5.24
5.68
6.08
6.74
7.74
8.85
9.68
9.9
9.5
8.76
8.06
7.63
7.35
6.93
6.05
4.71
3.17
1.87
1.14
1.05
1.37
1.73
1.82
1.51
0.91
0.23
-0.34
-0.72
-0.96
-1.14
-1.25
-1.32
-1.42
-1.73
-2.49
-3.79
-5.48
-7.12
-8.19
-8.38
-7.81
-7.02
-6.67
-7.1
-8.09
-8.82
-8.31
-5.96
-1.99
2.6
6.4
8.31
8
6.01
3.44
1.37
0.41
0.44
0.76
0.53
-0.72
-2.92
-5.63
-8.33
-10.6
-11.76
-10.55
-5.19
6.39
25.62
52.15
83.17
114.28
141.08
161.21
175.11
184.61
191.07
194.02
191.74
182.78
168.05
151.2
137.31
130.09
128.79
127.56
117.74
91.94
47.45
-12.53
-80.42
-147.69
-204.45
-243.15
-261.26
-261.59
-249.74
-230.46
-206.11
-177.63
-146.26
-114.53
-86.38
-65.2
-52.22
-45.97
-43.26
-40.77
-36.55
-30.34
-23.06
-16.47
-12.1
-10.49
-11
-12.18
-12.59
-11.44
-8.8
-5.32
-2.04
0.11
0.69
-0.06
-1.4
-2.51
-2.84
-2.25
-0.93
0.62
1.82
2.25
1.81
0.65
-0.75
-1.97
-2.72
-2.78
-1.99
-0.17
2.83
6.99
11.87
17.04
22.41
28.49
36.2
46.23
58.18
70.6
80.88
86.52
86.1
79.65
68.32
53.87
38.12
22.69
9.12
-1.48
-8.7
-13.15
-16.26
-19.63
-23.82
-28.06
-30.72
-30.41
-26.94
-21.45
-15.78
-11.43
-9.16
-8.66
-9.12
-9.65
-9.36
-7.54
-3.74
1.8
7.9
12.49
13.78
11.45
7.18
4.26
5.78
12.97
24.21
35.86
43.85
46.03
42.99
37.65
33.69
33.95
39.33
48.94
60.77
72.25
81.2
86.21
86.45
81.79
73.11
62.49
52.75
49.64
57.14
76.05
102.72
129.64
148.26
153.05
144.67
129.79
117.62
114.22
119.36
126.83
128.42
119.03
99.51
75.55
53.54
36.66
23.29
9.46
-7.23
-25.36
-40.56
-48.79
-49.74
-47.59
-48.54
-57.32
-74.34
-95.49
-114.23
-124.76
-123.81
-111.07
-88.45
-59.12
-27.29
1.66
22.02
29.33
22.24
3.48
-20.67
-43.18
-59.17
-67.98
-73.06
-79.34
-90.27
-105.73
-122.3
-135.34
-141.68
-141.28
-136.95
-132.55
-130.46
-130.48
-130.24
-127.13
-120.32
-111.65
-104.73
-102.7
-106.24
-112.93
-118.3
-118.24
-111.07
-98.38
-84.18
-72.97
-67.68
-68.61
-73.4
-78.57
-81.3
-80.95
-79.61
-81.22
-89.6
-106.59
-130.97
-158.75
-184.62
-204.15
-215.24
-218.84
-218.04
-216.55
-216.86
-219.2
-221.21
-218.62
-206.7
-181.95
-143.53
-93.65
-37.02
20.6
74.07
120.05
157.67
188.11
214.01
238.35
263.72
291.36
320.15
346.19
363.36
365.47
349.29
316.96
276.13
237.23
208.87
193.84
188.14
183.64
173.19
154.58
131.53
110.94
97.97
92.75
90.86
86.41
75.53
58.18
37.39
17.14
0.68
-10.55
-16.77
-19.46
-20.91
-24.2
-32.75
-48.73
-71.73
-98.15
-122.61
-140.56
-150.36
-153.61
-153.15
-150.6
-144.96
-133.78
-115.33
-90.77
-64.44
-42.29
-29.21
-26.37
-30.61
-36.11
-37.36
-31.81
-20.68
-7.81
2.59
7.98
8.76
7.63
7.98
11.81
18.66
25.79
29.7
27.94
20.39
9.5
-0.88
-7.42
-8.86
-6.32
-2.18
1.34
3.24
3.57
2.82
1.17
-1.49
-4.99
-8.67
-11.41
-12.32
-11.35
-9.53
-8.32
-8.79
-10.88
-13.48
-15.19
-15.42
-14.6
-13.83
-14.08
-15.56
-17.8
-19.92
-21.23
-21.39
-20.52
-18.96
-16.99
-14.87
-12.86
-11.38
-10.91
-11.47
-12.4
-12.38
-9.98
-4.55
3.02
10.52
15.52
16.5
13.84
9.47
5.83
4.35
4.76
5.57
5.28
3.28
0.38
-1.87
-2.03
0.27
4.24
8.42
11.33
12.18
10.99
8.27
4.8
1.31
-1.65
-3.71
-4.67
-4.43
-3.07
-0.67
2.82
7.44
12.9
18.37
22.72
24.91
24.5
21.92
18.44
15.9
15.64
17.94
21.99
26.17
28.83
28.87
26.22
21.71
16.63
12.14
8.86
6.81
5.56
4.48
3.08
1.23
-0.86
-2.93
-4.89
-6.8
-8.95
-11.49
-14.33
-17.17
-19.49
-20.99
-21.65
-21.64
-21.05
-19.78
-17.75
-15
-12.02
-9.56
-8.12
-7.53
-6.92
-5.34
-2.38
1.37
4.58
5.65
3.55
-1.59
-8.5
-15.35
-20.6
-23.54
-24.52
-24.63
-25.21
-27.14
-30.58
-35.12
-40.2
-45.55
-51.01
-55.64
-57.11
-52.11
-38.23
-16.06
9.76
31.92
43.43
41.32
28.6
13.19
4.21
7.86
25.38
53.58
87.23
121.04
150.3
170.74
178.19
169.27
142.8
101.35
51.43
1.78
-39.19
-65.27
-73.62
-64.91
-42.88
-13.33
16.66
40.39
53.02
52.5
39.37
16.24
-13.03
-43.23
-68.29
-82.62
-82.97
-69.91
-47.92
-23.82
-3.92
8.17
12.78
12.66
10.54
7.4
2.59
-4.77
-14.68
-25.61
-35.25
-41.51
-43.93
-44.01
-44.72
-49
-58.66
-73.6
-91.69
-109.83
-124.63
-133.92
-137.26
-135.12
-127.21
-112.72
-91.87
-67.04
-43.58
-26.82
-20.7
-26.2
-40.02
-54.22
-60.21
-53.29
-34.69
-10.95
12.55
32.73
48.44
59.01
64.31
62.39
49.91
25.22
-9.73
-44.35
-66.72
-70.06
-54.6
-22.97
21.69
77.28
142.72
215.11
294.12
376.15
453.37
498.91
490.67
427.02
329.42
240.07
164.85
101.56
47.64
-0.59
-41.38
-68.51
-76.55
-65.39
-41.89
-19.78
-9.2
-17.55
-48.47
-98.54
-152.95
-191.37
-199.46
-177.09
-136.95
-91.09
-47.99
-11.43
19.23
47.57
75.82
104.15
129.63
148.28
160.45
167.96
172.48
174.84
175.68
173.46
165.33
147.96
117.03
76.07
31.93
-9.02
-42.74
-67.24
-83.85
-94.79
-102.07
-106.32
-107.24
-104.57
-98.78
-96.3
-96.23
-98.16
-100.93
-102.47
-99.93
-91.97
-78.78
-62.61
-47.05
-36.28
-34.67
-44.82
-67.53
-94.82
-121.13
-141.31
-151.39
-149.69
-138.25
-121.8
-105.22
-92.47
-86.04
-87.78
-97.37
-112.51
-129.79
-147.48
-164.5
-179.39
-190.46
-195.93
-194.39
-183.55
-161.09
-113.95
-42.63
37.74
105.79
147.2
160.82
154.97
140.81
126.67
115.95
105.75
92.63
76.07
58.55
43.12
31.57
23.63
17.62
11.52
2.14
-11.73
-28.34
-44.27
-57.48
-65.28
-66.56
-61.47
-50.96
-37.58
-23.52
-9.47
4.8
19.73
36.04
54.1
74.13
96.44
120.8
144.86
168.65
191.88
212.07
224.2
222.15
201.85
164.55
116.84
69.01
31.28
9.26
2.45
6.04
14.05
22.29
29.96
38.23
48.25
60.8
73.63
83.59
88.27
86.61
78.54
64.54
44.18
16.63
-18.64
-57.97
-94.91
-121.75
-132.34
-125.22
-104.54
-78.99
-57.92
-47.47
-49.17
-60.27
-75.84
-91.13
-103.9
-111.66
-112.31
-104.22
-87.01
-63.53
-40.08
-24.2
-21.29
-32.04
-50.34
-66.31
-70.37
-57.23
-28.01
10.9
51.15
86.37
112.8
128.62
132.91
125.87
109.29
87.09
64.63
45.94
34.16
27.73
21.86
11.44
-5.91
-28.78
-52.77
-73.38
-86.95
-91.56
-87.27
-74.95
-55.55
-30.34
-1.51
27.94
54.64
76.28
92.06
102.79
111.07
120.28
133.15
150.33
169.84
187.24
197.07
194.61
177.22
145.89
105.34
62.38
23.59
-6.59
-27.22
-40.15
-46.35
-47.35
-44.49
-39.04
-33.27
-30.93
-36.53
-53.73
-82.94
-120.24
-158.67
-190.48
-209.8
-214.82
-208.05
-194.91
-181.92
-175.04
-178.95
-196.48
-227.3
-266.81
-306.23
-334.28
-340.57
-320
-275.38
-216.85
-157.86
-109.03
-73.91
-48.69
-25.64
1.92
35.75
72.41
106.22
133.21
153.69
171.81
192.96
220.85
255.68
293.83
329.08
354.33
363.07
351.07
317.7
266.85
206.08
144.77
91.37
51.3
26.16
14.18
11.63
14.31
18.53
21.62
22.13
19.57
14.18
6.44
-3.29
-14.69
-26.99
-38.71
-47.79
-52.52
-52.99
-52.09
-54.33
-63.81
-81.41
-103.39
-122.57
-131.39
-125.31
-104.97
-75.7
-44.86
-18.72
-0.3
10.86
17.25
21.57
25.46
29.43
33.48
37.71
42.11
46.35
49.6
50.77
49.18
45.28
40.66
37.51
37.64
41.63
48.61
56.78
63.95
68.15
67.94
62.45
51.7
36.85
20.27
5.17
-5.55
-10.54
-10.69
-8.79
-8.17
-11.09
-17.88
-27.16
-37
-46.06
-54.1
-61.47
-68.4
-74.69
-80.13
-85.25
-91.48
-100.34
-111.9
-123.63
-130.69
-127.93
-112.69
-86.74
-55.96
-28.06
-9.1
-0.86
-0.6
-2.74
-1.93
4.94
18.01
35.38
54.29
72.22
87.17
97.78
103.3
103.82
100.15
93.51
85.02
75.43
65.3
55.42
47.1
41.67
39.75
40.47
41.61
40.58
35.98
28.41
19.85
12.53
7.52
4.54
2.43
0.52
-0.94
-0.99
1.09
4.85
8.75
11.02
10.98
9.58
8.76
9.92
12.43
13.52
9.42
-2.33
-21.53
-45.09
-68.45
-87.5
-99.78
-104.88
-103.55
-97.07
-86.74
-74.01
-60.39
-47.42
-36.37
-27.87
-22.26
-19.6
-20.05
-23.37
-28.64
-33.97
-37.03
-36.25
-31.36
-23.79
-15.61
-8.51
-3.01
1.25
4.75
7.43
8.61
8.01
6.35
6.1
10.9
23.95
46.4
76.13
107.98
135.03
151.09
152.71
140.03
116.03
84.96
50.91
16.88
-14.83
-42
-61.88
-72.21
-72.57
-65.48
-56.01
-49.17
-47.23
-47.91
-45.7
-35.3
-15.67
8.41
28.42
36.63
30.58
14.28
-4.08
-16.87
-20.8
-18.45
-16.21
-20.27
-33.31
-53.13
-73.63
-87.76
-90.76
-82.03
-65.17
-46.16
-30.61
-21.44
-18
-17.5
-17.4
-17.74
-21.09
-30.6
-47.04
-67.21
-84.7
-92.58
-86.58
-66.76
-37.28
-4.64
24.51
45.19
55.43
56.27
51.22
44.93
41.49
42.97
48.85
56.67
63.57
67.84
69.18
68.01
64.24
56.9
45.03
29.39
13.42
2.32
0.37
8.21
21.96
34.94
40.82
36.54
22.97
3.47
-18.38
-40.06
-59.45
-73.49
-77.94
-69.21
-47.04
-16.23
14.41
35.61
41.63
32.61
13.64
-7.96
-25.74
-35.24
-33.59
-18.84
9.61
49.08
92.2
127.8
144.86
137.54
108.55
68.44
30.98
7.25
1.13
9.01
22.81
34.68
40.4
40.3
37.65
35.94
36.58
37.92
36.35
28.63
14.33
-2.81
-15.55
-16.19
-0.56
29.28
65.13
95.93
112.46
111.34
95.73
72.8
49.1
27.31
5.86
-18.44
-46.64
-75.64
-98.97
-110.13
-106.33
-90.25
-68.59
-48.45
-33.99
-25.13
-19
-12.59
-4.87
2.92
8.61
11.12
11.2
10.6
10.54
10.7
9.2
3.81
-6.72
-21.61
-38.03
-52.07
-60.23
-61.02
-55.82
-48.44
-43.31
-43.13
-47.32
-52.21
-53.18
-47.04
-33.92
-17.03
-0.88
10.93
17.15
18.7
17.8
16.74
17.31
20.66
27.33
36.98
48.07
58.02
63.91
63.66
56.94
45.28
31.4
18.07
7.46
0.7
-1.96
-1.02
2.42
6.62
9.51
9.42
5.76
-0.47
-7.07
-11.28
-11.02
-5.85
2.94
12.86
21.48
27.27
30.08
30.78
30.41
29.53
27.97
25.34
21.78
18.48
17.29
19.71
25.68
33.01
38.26
38.42
33
24.76
18.62
19.01
27.4
41.26
55.01
62.92
61.91
52.78
39.31
25.92
15.69
9.35
5.74
2.91
-1.16
-8.54
-21.63
-42.87
-73.56
-112.14
-153.32
-188.94
-210.66
-213.14
-196.29
-165.32
-128.54
-94.02
-66.92
-48.39
-36.55
-28.4
-21.6
-15.38
-10.1
-6.12
-3.12
-0.17
3.63
8.26
12.6
14.67
12.79
6.53
-2.95
-13.18
-21.57
-26.62
-28.57
-29.45
-31.8
-37.02
-43.87
-48.69
-47.06
-36.62
-19.05
0.09
13.95
18.15
13.4
5.3
1.32
6.56
20.96
39.53
55.28
62.98
61.56
54.09
45.55
40.22
40.03
44.37
50.89
56.45
57.81
52.19
38.03
15.74
-11.32
-37.18
-54.78
-58.49
-46.53
-22.2
7.07
32.46
46.83
47.14
34.72
13.85
-10.34
-33.43
-52.16
-64.04
-67.03
-60.05
-44.17
-23.45
-4.37
6.67
6.23
-3.71
-16.22
-22.07
-14.03
9.8
44.82
81.56
109.54
121.24
115.14
95.74
71.13
49.02
33.4
23.39
14.77
3.36
-12.16
-29.27
-43.09
-49.25
-46.27
-35.78
-21.08
-5.25
10.17
24.97
39.11
51.74
61.43
67.23
69.55
70.15
70.96
72.54
73.52
71.35
63.95
51.42
36.5
23.65
17.15
19.22
29.6
46.16
66.01
85.88
102.18
111.22
110.19
99.19
82.44
67.58
62.66
72.17
94.03
119.72
137.8
139.05
120.91
88.61
52.91
25.21
12.89
16.67
31.22
47.86
58.08
56.61
42.7
19.79
-6.29
-29.44
-45.05
-51
-47.54
-36.81
-21.66
-4.82
11.42
24.82
32.6
31.55
19.25
-4.35
-36.12
-70.47
-102.07
-128.19
-149.73
-169.63
-189.98
-210.08
-226.73
-237.15
-241.62
-244.47
-251.66
-266.94
-288.89
-311.31
-326.62
-329.61
-319.64
-299.9
-275.04
-248.99
-223.91
-200.25
-177.28
-153.56
-127.34
-97.69
-65.32
-33.05
-4.95
15.73
28.23
34.7
38.66
42.94
47.89
51.76
52.56
49.93
46.08
44.38
47.41
55.16
65.03
73.14
76.68
75.47
71.98
70.02
72.43
79.25
87.64
93.49
93.81
88.33
79.52
70.74
64.31
60.29
57.16
53.38
48.71
44.43
42.29
43.05
45.86
48.63
49.23
46.77
42.2
37.67
35.43
36.64
40.68
45.55
48.72
48.41
44.35
37.87
31.09
25.77
22.47
20.43
18.16
14.47
9.31
3.78
-0.47
-2.33
-1.73
0.44
2.74
3.98
3.6
1.83
-0.68
-3.27
-5.51
-7.2
-8.39
-9.15
-9.46
-9.34
-8.9
-8.45
-8.58
-9.74
-12.08
-15.07
-17.75
-19
-18.01
-14.66
-9.38
-2.92
4.08
11.09
17.52
22.53
25.15
24.8
21.82
17.71
14.5
13.91
16.36
20.77
25.2
27.86
28.18
27.03
26.15
26.98
29.82
33.69
36.91
37.88
35.71
30.51
23.08
14.71
6.74
0.44
-3.28
-4.19
-2.93
-0.9
0.45
0.3
-1.1
-2.68
-3.26
-2.23
0.2
3.34
6.49
9.42
12.26
15.24
18.15
20.22
20.37
17.64
11.67
2.72
-8.59
-21.69
-36.14
-51.54
-67.08
-81.1
-91.22
-94.81
-90.13
-77.45
-59.32
-39.78
-22.87
-11.09
-4.49
-1.3
0.99
4.31
9.45
16.18
23.86
31.93
39.88
47.06
52.32
54.28
51.91
45.08
34.96
23.7
13.76
6.83
3.34
2.32
1.95
0.29
-3.92
-10.83
-19.52
-28.17
-34.59
-36.65
-32.85
-22.9
-7.97
9.36
25.85
38.7
46.63
50.03
50.53
49.96
49.31
48.63
47.51
45.78
43.82
42.13
40.56
37.97
32.59
22.99
9.33
-6.39
-20.98
-31.5
-36.49
-36.55
-33.75
-30.64
-29.36
-31.06
-35.91
-43.17
-51.02
-56.63
-56.83
-49.19
-33.43
-12.33
8.93
24.44
29.74
23.53
8.16
-11.08
-27.44
-34.73
-29.36
-11.71
13.73
39.73
59.2
67.95
66.54
59.64
53.32
51.73
55.31
61.01
64.44
62.47
54.52
42.36
28.76
16.3
6.61
0.05
-4.16
-7.43
-11.21
-16.11
-21.15
-23.89
-21.68
-13.57
-1.7
8.89
12.35
4.97
-12.75
-35.76
-56.07
-65.47
-58.3
-33.48
5.14
49.58
89.7
115.83
121.96
107.25
75.91
35.55
-5.22
-38.59
-58.87
-63.13
-51.8
-29.43
-3.99
15.83
24.42
21.98
14.35
9.24
11.34
19.47
27.6
29.08
21.19
6.94
-7.05
-14.98
-15.45
-11.85
-9.46
-11.71
-17.88
-23.91
-25.31
-20.5
-11.91
-4.83
-4.28
-11.85
-24.33
-34.96
-36.66
-26.07
-5.65
16.91
32.42
34.63
24.01
8.09
-1.51
5.34
31.9
72.47
114.5
144.11
152.12
137.31
105.53
66.24
28.35
-2.32
-23.14
-33.63
-34.15
-25.73
-10.48
8.23
26.59
41.49
51.35
56.27
56.92
53.62
46.2
34.27
18.03
-1.67
-23.83
-48.37
-76.35
-109.53
-148.28
-189.38
-225.26
-245.62
-241.8
-211.74
-162.73
-109.81
-70.53
-58.08
-76.43
-119.39
-173.64
-224.39
-260.17
-275.47
-270.1
-247.25
-210.95
-165.27
-114.73
-64.8
-22.03
7.53
20.76
19.53
10.76
4.11
7.73
24.48
50.56
77.25
95.3
99.32
90.03
73.53
58.02
49.96
51.55
60.61
72.4
82.32
87.98
89.35
87.75
84.17
78.63
70.45
59.71
48.35
40.25
39.52
47.76
62.65
78.17
87.15
84.68
70.58
49.5
28.98
16.22
15.25
26.21
45.77
68.61
88.64
99.86
97.44
79.54
49.01
13.37
-17.48
-35.51
-38.66
-31.76
-23.76
-22.58
-30.85
-44.88
-58.06
-65.61
-67.73
-69.04
-74.8
-86.92
-102.1
-113.39
-113.59
-98.81
-70.06
-33.02
3.81
31.81
45.06
42.54
28.61
11.2
-2.03
-7.08
-5.41
-2.68
-5.08
-15.54
-31.76
-47.22
-54.74
-50.27
-34.68
-12.65
10.02
29.42
44.48
56.14
65.4
72.12
74.87
72.48
65.69
57.72
53.27
56.03
66.49
81.08
94.12
100.67
98.96
90.92
80.53
71.51
65.25
60.61
55.12
47.37
38.33
31.02
28.66
32.39
40.32
48.29
52.22
50.64
45.6
41.26
41.23
46.12
52.75
56.22
53.04
43.25
30.63
20.46
16.63
19.53
26.25
32.67
36.02
36.16
34.81
33.77
33.44
32.91
31.14
28.32
25.94
25.76
28.35
32.13
34.25
32.01
24.61
13.48
1.51
-8.58
-15.54
-20.06
-24.28
-30.48
-40.1
-52.97
-66.98
-78.84
-85.48
-85.61
-80.57
-73.79
-69.22
-69.5
-75.06
-84.3
-94.83
-104.57
-112.17
-116.72
-117.31
-113.23
-104.5
-92.44
-79.39
-67.72
-58.59
-51.46
-44.69
-36.62
-26.82
-16.11
-6.03
2.27
8.51
13.08
16.42
18.71
19.86
20.04
20.14
21.57
25.51
32
39.47
45.34
47.08
43.55
35.52
25.46
16.62
11.79
12.32
17.44
24.52
29.93
30.56
25.22
15.4
4.48
-4.03
-8.21
-8.62
-7.76
-8.7
-13.63
-23.3
-36.98
-52.96
-68.6
-80.36
-84.6
-79.13
-65.08
-47.72
-35.2
-35.28
-51.71
-81.66
-116.28
-144.21
-156.6
-150.96
-131.96
-108.44
-88.67
-76.17
-68.6
-60.17
-45.89
-25.06
-1.92
16.99
26.98
28.09
25.45
26.71
38.44
63.2
98.91
139.63
177.61
205.93
220.6
221.6
212.41
197.65
180.38
160.99
138.38
112.76
87.79
69.87
64.61
73
89.87
106.64
116.35
117.57
114.37
112.54
114.68
117.85
115.69
103.09
80.3
53.59
31.92
22.21
26.09
39.64
55.55
66.57
67.97
58.85
41.64
20.43
-1.12
-21.37
-41.03
-62.39
-87.03
-114.51
-142.15
-166.44
-185.28
-199.42
-212.5
-229.08
-251.87
-279.81
-308.08
-329.61
-337.56
-327.93
-301.18
-262.6
-220.65
-183.69
-156.68
-139.35
-126.42
-110.43
-85.39
-48.97
-3.11
47.56
97.73
142.67
177.9
198.81
201.24
182.73
144.9
94.42
41.84
-2.18
-30.8
-43.55
-45.58
-44.37
-45.93
-52.11
-60.33
-65.66
-63.78
-53.21
-35.88
-15.99
2.02
15.23
22.65
24.44
21.11
13.13
1.69
-10.26
-17.92
-16.27
-2.41
22.64
53.58
82.84
103.62
112.7
111.27
103.69
94.92
88.39
85.16
84
82.3
77.26
67.17
52.17
34.43
17.58
4.92
-2.13
-4.8
-6.16
-9.36
-15.86
-24.62
-33.3
-39.89
-43.97
-46.45
-48.18
-48.69
-46.31
-39.66
-29.12
-17.53
-8.76
-5.28
-6.59
-9.39
-9.46
-4.27
5.41
16.08
23.55
25.43
22.17
16.69
12.42
11.45
13.64
17.07
19.41
19.19
16.46
12.56
9.17
7.47
7.64
8.97
10.27
10.52
9.44
7.56
5.9
5.31
5.86
6.75
6.69
4.57
0.23
-5.4
-10.84
-14.75
-16.55
-16.88
-17.15
-18.48
-21.22
-24.44
-26.37
-25.3
-20.53
-12.72
-3.72
4.34
9.88
12.4
12.59
11.8
11.33
11.95
13.64
15.66
17.08
17.13
15.72
13.56
11.78
11.36
12.49
14.3
15.22
13.97
10.18
4.73
-0.76
-4.78
-6.6
-6.45
-5.05
-3.21
-1.21
0.98
3.37
5.61
6.84
6.18
3.16
-1.72
-7.17
-11.41
-13.06
-11.79
-8.5
-5.12
-3.62
-5.17
-9.48
-14.96
-19.36
-20.78
-18.49
-13.1
-6.27
0.21
5.05
7.84
8.98
9.18
9.07
9.04
9.35
10.14
11.49
13.19
14.81
15.8
15.85
15.29
14.94
15.65
17.52
19.7
20.68
19.17
15.06
9.48
4.39
1.46
1.22
2.88
4.79
5.34
3.73
0.2
-4.36
-8.92
-12.71
-15.39
-16.79
-16.7
-14.94
-11.59
-7.33
-3.58
-2.01
-3.73
-8.34
-13.77
-17.02
-15.64
-9.08
0.93
11.17
18.67
22.09
22.12
20.61
19.31
18.94
19.27
19.77
20.31
21.34
23.42
26.52
29.64
31.11
29.55
24.63
17.62
10.83
6.69
6.49
9.75
14.41
17.74
17.7
13.91
7.7
1.21
-3.83
-6.93
-8.65
-9.7
-10.12
-9.18
-6.09
-1
4.52
8.01
7.46
2.52
-5.03
-12.1
-15.75
-14.64
-9.45
-2.4
4.04
8.4
10.56
11.56
12.67
14.46
16.52
17.71
17.02
14.28
10.4
6.76
4.49
3.71
3.51
2.5
-0.2
-4.39
-8.97
-12.52
-14.23
-14.29
-13.79
-14.07
-15.96
-19.43
-23.64
-27.54
-30.26
-31.55
-31.58
-30.81
-29.53
-27.65
-24.82
-20.67
-15.2
-8.9
-2.79
2.08
5.02
5.94
5.48
4.68
4.63
6.13
9.46
14.29
19.72
24.66
28.01
29.14
28.08
25.46
22.16
19.03
16.52
14.68
13.37
12.42
11.91
11.87
12.23
12.59
12.29
10.69
7.67
3.78
0.11
-2.21
-2.71
-1.9
-0.95
-1.12
-2.87
-5.6
-7.82
-8.06
-5.72
-1.55
2.71
5.28
5.34
3.42
1.01
-0.45
-0.48
0.27
0.67
0.07
-1.13
-1.76
-0.69
2.29
6.22
9.59
11.18
10.76
9.01
6.91
5.17
4
3.3
2.91
2.84
3
3.05
2.43
0.63
-2.45
-6.4
-10.5
-14.16
-17.15
-19.74
-22.33
-25.14
-27.99
-30.24
-31.12
-29.99
-26.73
-21.81
-16.19
-10.93
-6.73
-3.77
-1.7
0.03
1.88
4.07
6.54
9
11.1
12.53
13.08
12.86
12.33
12.17
12.9
14.59
16.7
18.37
18.85
18.03
16.41
14.74
13.53
12.75
11.98
10.81
9.16
7.35
5.7
4.31
2.91
1.07
-1.45
-4.54
-7.79
-10.81
-13.53
-16.28
-19.6
-23.93
-29.26
-34.94
-39.89
-43
-43.64
-41.89
-38.48
-34.34
-30.11
-25.79
-20.96
-15.24
-8.76
-2.37
2.79
5.86
6.8
6.39
5.81
5.94
7.05
8.72
10.24
10.98
10.67
9.34
7.3
4.97
2.84
1.44
1.1
1.84
3.18
4.47
5.19
5.42
5.83
7.32
10.46
15.02
20.02
24.07
26.04
25.44
22.6
18.32
13.46
8.64
4.13
0.04
-3.49
-6.22
-7.9
-8.43
-7.94
-6.74
-5.14
-3.24
-0.98
1.58
4.21
6.45
7.98
8.92
9.84
11.4
13.92
16.98
19.52
20.57
19.77
17.72
15.6
14.38
14.23
14.39
13.73
11.52
7.9
3.74
0.13
-2.21
-3.26
-3.53
-3.64
-3.97
-4.68
-5.8
-7.51
-10.06
-13.38
-16.86
-19.4
-20
-18.4
-15.43
-12.57
-11.2
-11.82
-13.87
-16.27
-17.97
-18.56
-18.04
-16.41
-13.28
-8.11
-0.7
8.33
17.45
24.89
29.38
30.83
30.36
29.72
30.33
32.57
35.65
37.96
38
35.15
30.02
24.08
18.9
15.32
13.04
10.89
7.59
2.43
-4.41
-12.18
-20.13
-27.85
-35.29
-42.54
-49.39
-55.37
-60
-63.13
-65.12
-66.54
-67.97
-69.46
-70.54
-70.79
-70.37
-70.27
-71.88
-76.31
-83.52
-91.78
-98.11
-99.51
-94.27
-82.84
-67.59
-51.8
-38.44
-28.89
-22.42
-16.56
-8
5.97
26.32
51.66
78.57
102.66
120.23
129.76
132.48
131.65
130.64
131.5
133.92
135.9
135.25
130.89
123.26
113.55
102.88
91.7
79.93
67.91
56.89
48.82
45.38
46.86
51.73
57.24
60.76
61.11
59.34
