-30.56
-30.43
-28.57
-25.11
-20.55
-15.56
-10.76
-6.54
-3.03
-0.14
2.31
4.42
6.26
7.83
9.11
10.17
11.12
12.08
13.09
14.08
14.87
15.3
15.32
15.07
14.82
14.8
15.11
15.62
16.05
16.12
15.71
14.87
13.75
12.52
11.23
9.87
8.44
7.02
5.76
4.79
4.15
3.71
3.2
2.31
0.85
-1.21
-3.67
-6.29
-8.73
-10.81
-12.45
-13.73
-14.88
-16.2
-17.98
-20.32
-23.13
-26.04
-28.49
-29.94
-29.92
-28.23
-24.94
-20.46
-15.31
-10.1
-5.37
-1.45
1.51
3.59
4.99
5.96
6.74
7.48
8.26
9.16
10.19
11.38
12.72
14.12
15.5
16.72
17.71
18.4
18.77
18.85
18.66
18.26
17.68
16.97
16.16
15.25
14.26
13.16
11.99
10.75
9.51
8.3
7.15
6.01
4.77
3.33
1.6
-0.45
-2.72
-5.08
-7.37
-9.47
-11.35
-13.06
-14.73
-16.53
-18.62
-21.13
-24.11
-27.41
-30.65
-33.23
-34.49
-33.91
-31.3
-26.96
-21.53
-15.81
-10.48
-5.94
-2.28
0.62
2.96
4.94
6.7
8.34
9.96
11.59
13.23
14.85
16.38
17.76
18.94
19.87
20.52
20.89
21
20.92
20.71
20.43
20.09
19.63
18.98
18.14
17.11
15.96
14.76
13.56
12.35
11.13
9.9
8.64
7.34
5.97
4.53
2.98
1.3
-0.51
-2.45
-4.52
-6.68
-8.88
-11.04
-13.12
-15.09
-17.02
-19.04
-21.32
-23.96
-26.92
-29.89
-32.39
-33.81
-33.65
-31.66
-27.98
-23.06
-17.54
-12.08
-7.15
-2.99
0.36
3.06
5.31
7.28
9.07
10.72
12.23
13.63
14.98
16.28
17.53
18.64
19.5
20.05
20.35
20.51
20.63
20.77
20.82
20.66
20.2
19.45
18.5
17.47
16.41
15.3
14.04
12.59
10.99
9.33
7.71
6.21
4.79
3.36
1.78
-0.06
-2.16
-4.42
-6.69
-8.8
-10.67
-12.38
-14.13
-16.15
-18.68
-21.76
-25.28
-28.89
-32.14
-34.49
-35.48
-34.75
-32.24
-28.15
-22.98
-17.38
-11.95
-7.11
-3.03
0.38
3.27
5.78
7.93
9.7
11.07
12.07
12.86
13.65
14.59
15.78
17.15
18.52
19.65
20.36
20.61
20.48
20.12
19.68
19.2
18.62
17.84
16.8
15.55
14.19
12.85
11.59
10.36
9.07
7.59
5.84
3.8
1.49
-1
-3.55
-6.03
-8.31
-10.32
-12.11
-13.82
-15.66
-17.83
-20.42
-23.44
-26.72
-29.93
-32.56
-34.03
-33.81
-31.62
-27.53
-22.06
-15.99
-10.16
-5.15
-1.18
1.88
4.32
6.41
8.3
10
11.52
12.89
14.19
15.49
16.8
18.05
19.11
19.86
20.29
20.48
20.57
20.66
20.72
20.62
20.11
19.01
17.3
15.14
12.88
10.84
9.23
8.03
7.02
5.9
4.42
2.55
0.37
-1.87
-4.01
-5.92
-7.62
-9.24
-10.92
-12.8
-15
-17.61
-20.64
-24.01
-27.4
-30.32
-32.12
-32.19
-30.23
-26.4
-21.27
-15.67
-10.39
-5.92
-2.35
0.56
3.13
5.61
8.03
10.27
12.19
13.72
14.9
15.88
16.82
17.77
18.7
19.47
19.96
20.14
20.09
19.95
19.85
19.8
19.65
19.15
18.09
16.41
14.32
12.15
10.26
8.83
7.79
6.78
5.45
3.51
1
-1.84
-4.67
-7.25
-9.52
-11.59
-13.65
-15.86
-18.29
-21
-24.03
-27.34
-30.74
-33.78
-35.82
-36.22
-34.6
-31
-25.94
-20.22
-14.58
-9.56
-5.32
-1.75
1.4
4.35
7.21
9.99
12.59
14.89
16.81
18.3
19.41
20.25
20.91
21.47
21.93
22.22
22.32
22.22
21.97
21.67
21.37
21.07
20.69
20.15
19.4
18.43
17.26
15.9
14.37
12.68
10.95
9.29
7.79
6.46
5.15
3.69
1.92
-0.15
-2.4
-4.61
-6.68
-8.57
-10.41
-12.38
-14.68
-17.42
-20.65
-24.29
-28.11
-31.69
-34.47
-35.87
-35.48
-33.2
-29.3
-24.31
-18.83
-13.35
-8.2
-3.5
0.7
4.36
7.42
9.9
11.86
13.48
14.95
16.42
17.93
19.43
20.78
21.88
22.63
23.04
23.15
23.05
22.86
22.73
22.72
22.82
22.89
22.71
22.06
20.86
19.23
17.41
15.72
14.39
13.48
12.84
12.26
11.49
10.41
9
7.38
5.66
3.92
2.16
0.33
-1.61
-3.65
-5.71
-7.67
-9.49
-11.19
-12.88
-14.72
-16.84
-19.33
-22.21
-25.38
-28.65
-31.65
-33.87
-34.78
-34.02
-31.49
-27.41
-22.32
-16.82
-11.51
-6.8
-2.86
0.37
3.05
5.41
7.61
9.72
11.73
13.56
15.12
16.32
17.18
17.74
18.09
18.34
18.53
18.68
18.77
18.75
18.6
18.3
17.87
17.33
16.63
15.7
14.45
12.89
11.11
9.33
7.74
6.46
5.4
4.33
2.99
1.22
-0.96
-3.3
-5.54
-7.47
-9.07
-10.53
-12.11
-14.09
-16.57
-19.55
-22.87
-26.25
-29.32
-31.61
-32.64
-32
-29.61
-25.67
-20.72
-15.44
-10.42
-6.03
-2.35
0.75
3.49
6.07
8.59
11.04
13.31
15.26
16.74
17.69
18.16
18.25
18.15
18.03
17.97
17.98
17.99
17.94
17.77
17.51
17.17
16.77
16.25
15.52
14.45
13.01
11.26
9.38
7.6
6.1
4.95
4.09
3.38
2.6
1.57
0.15
-1.67
-3.77
-6
-8.16
-10.16
-12.02
-13.85
-15.83
-18.11
-20.78
-23.85
-27.21
-30.58
-33.51
-35.44
-35.8
-34.25
-30.85
-26.06
-20.6
-15.2
-10.37
-6.32
-2.95
-0.06
2.54
4.98
7.34
9.6
11.75
13.75
15.52
16.99
18.11
18.86
19.3
19.56
19.75
19.99
20.28
20.59
20.76
20.67
20.22
19.41
18.34
17.16
16.02
14.99
14.06
13.15
12.14
10.95
9.54
7.97
6.36
4.86
3.51
2.26
0.96
-0.58
-2.46
-4.64
-6.95
-9.15
-11.09
-12.76
-14.29
-15.85
-17.66
-19.84
-22.44
-25.38
-28.47
-31.33
-33.45
-34.27
-33.35
-30.56
-26.14
-20.73
-15.1
-9.96
-5.7
-2.36
0.27
2.53
4.66
6.76
8.75
10.57
12.12
13.42
14.49
15.39
16.11
16.61
16.84
16.75
16.4
15.88
15.34
14.88
14.52
14.18
13.67
12.86
11.64
10.07
8.33
6.66
5.26
4.19
3.3
2.38
1.17
-0.41
-2.29
-4.28
-6.13
-7.72
-9.06
-10.28
-11.6
-13.17
-15.11
-17.44
-20.09
-22.86
-25.39
-27.22
-27.84
-26.87
-24.24
-20.24
-15.42
-10.49
-6.04
-2.38
0.47
2.72
4.62
6.34
7.92
9.33
10.5
11.44
12.19
12.8
13.29
13.59
13.63
13.41
13.05
12.73
12.61
12.7
12.85
12.79
12.25
11.11
9.42
7.38
5.28
3.34
1.71
0.38
-0.73
-1.71
-2.67
-3.72
-4.96
-6.46
-8.24
-10.24
-12.37
-14.49
-16.56
-18.7
-21.1
-23.9
-27
-30
-32.22
-33.02
-31.97
-29.07
-24.73
-19.58
-14.3
-9.43
-5.26
-1.89
0.76
2.84
4.56
6.08
7.52
8.92
10.27
11.52
12.62
13.51
14.13
14.44
14.4
14.05
13.51
12.92
12.41
12.03
11.7
11.25
10.57
9.61
8.46
7.3
6.27
5.4
4.57
3.57
2.2
0.38
-1.78
-4.03
-6.06
-7.68
-8.86
-9.82
-10.88
-12.38
-14.58
-17.56
-21.16
-24.95
-28.29
-30.45
-30.82
-29.15
-25.59
-20.73
-15.31
-10.07
-5.46
-1.66
1.42
3.97
6.19
8.2
10.04
11.7
13.13
14.28
15.11
15.7
16.14
16.59
17.14
17.77
18.42
18.92
19.16
19.05
18.58
17.74
16.57
15.11
13.47
11.75
10.13
8.73
7.64
6.82
6.16
5.46
4.56
3.39
1.94
0.3
-1.43
-3.18
-4.93
-6.7
-8.53
-10.46
-12.53
-14.78
-17.25
-19.95
-22.86
-25.84
-28.65
-30.91
-32.17
-32.02
-30.22
-26.84
-22.23
-16.97
-11.74
-7.07
-3.3
-0.44
1.67
3.32
4.79
6.26
7.78
9.28
10.63
11.66
12.32
12.67
12.82
12.94
13.06
13.12
12.98
12.56
11.88
11.06
10.26
9.55
8.92
8.24
7.43
6.44
5.34
4.17
2.96
1.64
0.12
-1.6
-3.45
-5.33
-7.13
-8.87
-10.66
-12.69
-15.07
-17.81
-20.72
-23.43
-25.41
-26.14
-25.25
-22.65
-18.65
-13.84
-8.9
-4.4
-0.64
2.38
4.81
6.82
8.47
9.78
10.72
11.32
11.72
12.05
12.45
13
13.69
14.46
15.17
15.65
15.72
15.28
14.32
13.02
11.59
10.22
8.97
7.7
6.23
4.41
2.26
-0.06
-2.31
-4.33
-6.08
-7.68
-9.29
-11.08
-13.14
-15.52
-18.23
-21.25
-24.42
-27.43
-29.79
-30.94
-30.48
-28.29
-24.62
-20.01
-15.11
-10.48
-6.43
-3
-0.05
2.64
5.24
7.78
10.18
12.28
13.96
15.13
15.83
16.18
16.35
16.51
16.74
17.05
17.32
17.44
17.26
16.75
15.89
14.74
13.35
11.74
9.92
7.88
5.71
3.53
1.45
-0.45
-2.19
-3.88
-5.65
-7.62
-9.93
-12.65
-15.82
-19.38
-23.07
-26.45
-28.91
-29.91
-29.09
-26.44
-22.33
-17.35
-12.17
-7.31
-3.07
0.49
3.48
6.05
8.28
10.22
11.84
13.12
14.12
14.9
15.57
16.17
16.62
16.85
16.76
16.34
15.67
14.89
14.15
13.52
12.98
12.38
11.51
10.16
8.22
5.75
2.97
0.18
-2.33
-4.42
-6.16
-7.74
-9.45
-11.52
-14.08
-17.07
-20.21
-23.07
-25.06
-25.66
-24.51
-21.63
-17.41
-12.51
-7.61
-3.2
0.53
3.67
6.42
8.93
11.18
13.03
14.39
15.25
15.8
16.26
16.78
17.36
17.82
17.96
17.63
16.87
15.84
14.77
13.82
13.01
12.19
11.15
9.69
7.74
5.35
2.75
0.19
-2.12
-4.08
-5.78
-7.42
-9.22
-11.41
-14.1
-17.25
-20.65
-23.86
-26.37
-27.61
-27.17
-24.97
-21.23
-16.49
-11.36
-6.45
-2.19
1.27
4.01
6.22
8.17
10.03
11.85
13.52
14.91
15.96
16.67
17.17
17.6
18.03
18.46
18.78
18.91
18.83
18.59
18.27
17.92
17.49
16.88
15.95
14.64
12.99
11.13
9.2
7.26
5.27
3.15
0.85
-1.57
-3.96
-6.15
-8.11
-9.93
-11.86
-14.15
-16.96
-20.27
-23.88
-27.4
-30.32
-32.1
-32.26
-30.57
-27.09
-22.22
-16.62
-11.03
-6
-1.85
1.45
4.12
6.45
8.66
10.83
12.93
14.89
16.59
17.95
18.91
19.39
19.39
18.98
18.34
17.73
17.33
17.19
17.16
16.96
16.35
15.26
13.81
12.28
10.93
9.83
8.88
7.81
6.41
4.55
2.33
-0.06
-2.36
-4.4
-6.17
-7.78
-9.38
-11.13
-13.14
-15.44
-18.01
-20.73
-23.32
-25.31
-26.15
-25.39
-22.89
-18.89
-14.01
-8.97
-4.37
-0.5
2.64
5.26
7.55
9.56
11.18
12.29
12.78
12.75
12.42
12.08
11.99
12.27
12.84
13.47
13.92
14
13.67
13.04
12.23
11.38
10.5
9.52
8.32
6.88
5.17
3.29
1.32
-0.62
-2.45
-4.09
-5.5
-6.73
-7.91
-9.26
-10.96
-13.13
-15.67
-18.28
-20.49
-21.82
-21.84
-20.38
-17.52
-13.61
-9.11
-4.58
-0.44
3.04
5.77
7.83
9.32
10.34
10.96
11.25
11.3
11.27
11.29
11.46
11.76
12.07
12.29
12.32
12.14
11.82
11.42
10.98
10.47
9.84
9
7.92
6.57
4.99
3.18
1.19
-0.94
-3.1
-5.16
-7.02
-8.63
-10.06
-11.48
-13.09
-15.08
-17.5
-20.26
-23.14
-25.82
-27.85
-28.79
-28.25
-26.06
-22.35
-17.54
-12.25
-7.13
-2.63
1.03
3.87
6.06
7.76
9.12
10.22
11.08
11.73
12.21
12.61
13.01
13.51
14.12
14.76
15.31
15.64
15.69
15.5
15.18
14.81
14.41
13.93
13.26
12.32
11.07
9.6
8.02
6.46
4.98
3.57
2.13
0.55
-1.27
-3.31
-5.46
-7.52
-9.38
-10.99
-12.5
-14.15
-16.19
-18.76
-21.82
-25.09
-28.05
-30.12
-30.73
-29.52
-26.47
-21.92
-16.48
-10.87
-5.69
-1.29
2.26
5.04
7.21
8.92
10.25
11.25
11.98
12.51
12.88
13.12
13.25
13.24
13.13
12.92
12.67
12.47
12.36
12.31
12.19
11.8
10.97
9.66
8.01
6.29
4.76
3.56
2.64
1.79
0.83
-0.33
-1.66
-3.04
-4.38
-5.59
-6.73
-7.87
-9.13
-10.64
-12.51
-14.76
-17.27
-19.76
-21.71
-22.6
-21.95
-19.55
-15.57
-10.54
-5.2
-0.31
3.58
6.3
8
9.04
9.76
10.33
10.76
11.01
11.07
11.03
11.01
11.1
11.31
11.57
11.75
11.8
11.68
11.39
10.94
10.34
9.59
8.74
7.81
6.76
5.52
3.98
2.12
-0.01
-2.24
-4.42
-6.41
-8.19
-9.79
-11.31
-12.86
-14.6
-16.66
-19.12
-21.9
-24.64
-26.82
-27.79
-27.07
-24.52
-20.36
-15.18
-9.71
-4.62
-0.38
2.8
4.99
6.37
7.21
7.75
8.14
8.46
8.71
8.89
9.03
9.16
9.33
9.54
9.75
9.87
9.83
9.58
9.14
8.58
7.98
7.36
6.67
5.8
4.61
2.98
0.96
-1.32
-3.58
-5.6
-7.26
-8.64
-9.97
-11.55
-13.58
-16.11
-19
-21.94
-24.5
-26.24
-26.75
-25.75
-23.2
-19.35
-14.65
-9.7
-5.09
-1.16
1.94
4.27
5.98
7.24
8.14
8.82
9.36
9.9
10.53
11.22
11.89
12.36
12.46
12.12
11.38
10.41
9.39
8.46
7.67
6.95
6.14
5.06
3.61
1.75
-0.38
-2.63
-4.79
-6.77
-8.56
-10.28
-12.08
-14.11
-16.4
-18.88
-21.29
-23.23
-24.23
-23.87
-21.96
-18.61
-14.22
-9.36
-4.61
-0.36
3.19
6.01
8.16
9.69
10.63
11.05
11.08
10.88
10.66
10.58
10.7
11.01
11.39
11.73
11.87
11.78
11.45
10.98
10.38
9.63
8.57
7.06
5.05
2.63
0.03
-2.46
-4.68
-6.62
-8.46
-10.42
-12.72
-15.46
-18.56
-21.72
-24.5
-26.33
-26.74
-25.42
-22.44
-18.18
-13.26
-8.34
-3.89
-0.16
2.83
5.12
6.78
7.84
8.33
8.4
8.26
8.15
8.3
8.74
9.39
10.05
10.54
10.78
10.82
10.75
10.62
10.38
9.85
8.83
7.22
5.11
2.71
0.34
-1.82
-3.71
-5.43
-7.2
-9.22
-11.65
-14.52
-17.7
-20.89
-23.63
-25.33
-25.52
-23.96
-20.81
-16.53
-11.78
-7.2
-3.19
0.08
2.67
4.72
6.38
7.75
8.84
9.64
10.12
10.31
10.27
10.13
10.04
10.07
10.25
10.45
10.51
10.3
9.78
8.97
7.9
6.6
5.07
3.33
1.45
-0.42
-2.13
-3.59
-4.86
-6.13
-7.65
-9.66
-12.2
-15.07
-17.84
-19.93
-20.79
-20.06
-17.67
-13.86
-9.19
-4.3
0.21
3.92
6.74
8.79
10.35
11.64
12.78
13.72
14.33
14.53
14.35
13.97
13.58
13.35
13.29
13.31
13.24
12.91
12.23
11.15
9.73
8.04
6.21
4.27
2.26
0.12
-2.15
-4.56
-7.09
-9.74
-12.55
-15.53
-18.65
-21.65
-24.09
-25.39
-25.07
-22.98
-19.31
-14.59
-9.49
-4.6
-0.27
3.37
6.37
8.84
10.86
12.43
13.54
14.22
14.6
14.83
15.08
15.43
15.82
16.11
16.14
15.8
15.08
14.1
13.01
11.9
10.76
9.5
7.96
6.07
3.89
1.56
-0.66
-2.58
-4.16
-5.52
-6.96
-8.84
-11.45
-14.87
-18.86
-22.89
-26.25
-28.26
-28.45
-26.76
-23.53
-19.34
-14.8
-10.38
-6.26
-2.41
1.32
5.03
8.65
12.01
14.87
17.06
18.59
19.66
20.53
21.42
22.4
23.36
24.08
24.41
24.33
23.96
23.51
23.12
22.75
22.23
21.33
19.91
18.04
15.97
13.98
12.31
10.99
9.84
8.6
7.03
5.02
2.69
0.24
-2.05
-4
-5.57
-6.86
-8.1
-9.58
-11.56
-14.22
-17.54
-21.28
-24.99
-28.07
-29.96
-30.19
-28.64
-25.46
-21.12
-16.19
-11.24
-6.66
-2.63
0.89
4.02
6.89
9.5
11.77
13.58
14.87
15.68
16.19
16.58
17
17.47
17.93
18.27
18.44
18.41
18.21
17.85
17.35
16.69
15.88
14.93
13.86
12.68
11.4
10.03
8.6
7.13
5.63
4.09
2.51
0.88
-0.77
-2.37
-3.87
-5.25
-6.57
-8
-9.73
-11.95
-14.77
-18.13
-21.7
-24.92
-27.09
-27.55
-25.96
-22.38
-17.36
-11.7
-6.21
-1.46
2.32
5.2
7.39
9.14
10.57
11.76
12.74
13.56
14.31
15.06
15.82
16.54
17.04
17.2
16.96
16.4
15.65
14.89
14.22
13.61
12.94
12.01
10.71
8.99
6.91
4.64
2.34
0.18
-1.75
-3.4
-4.78
-5.99
-7.19
-8.54
-10.2
-12.27
-14.71
-17.36
-19.88
-21.8
-22.66
-22.14
-20.17
-16.93
-12.87
-8.5
-4.26
-0.42
2.91
5.76
8.15
10.1
11.61
12.7
13.42
13.84
14.09
14.23
14.32
14.38
14.42
14.46
14.54
14.68
14.84
14.96
14.9
14.53
13.76
12.54
10.92
9.03
7.06
5.2
3.59
2.27
1.17
0.14
-1.01
-2.36
-3.91
-5.54
-7.11
-8.48
-9.66
-10.76
-11.98
-13.56
-15.64
-18.26
-21.22
-24.19
-26.65
-28.08
-28.08
-26.45
-23.37
-19.22
-14.57
-9.93
-5.69
-2.03
1.05
3.63
5.77
7.48
8.75
9.63
10.25
10.81
11.47
12.27
13.11
13.8
14.21
14.3
14.19
14.05
13.98
13.96
13.84
13.48
12.77
11.8
10.72
9.68
8.74
7.84
6.84
5.65
4.22
2.63
0.99
-0.62
-2.21
-3.87
-5.72
-7.83
-10.15
-12.54
-14.84
-16.92
-18.81
-20.65
-22.59
-24.77
-27.25
-30.02
-33.02
-36.16
-39.25
-42.02
-44.05
-44.9
-44.24
-41.94
-38.19
-33.41
-28.14
-22.91
-18.11
-14.03
-10.86
-8.71
-7.61
-7.45
-7.88
-8.35
-8.17
-6.82
-4.14
-0.51
3.31
6.48
8.51
9.48
10.03
11.01
13.21
17.07
22.75
30.24
39.54
50.57
62.99
76
88.33
98.49
105.23
107.92
106.75
102.65
96.86
90.62
84.91
80.46
77.69
76.57
76.29
75.06
70.35
59.65
41.68
17.31
-10.46
-37.41
-59.75
-75.52
-85
-90.06
-92.82
-94.5
-95.1
-94.02
-90.98
-86.57
-82.16
-79.01
-77.6
-77.41
-77.28
-76.24
-74.19
-71.89
-70.46
-70.66
-72.38
-74.5
-75.34
-73.24
-67.14
-56.99
-43.84
-29.61
-16.53
-6.46
-0.26
2.51
3.24
3.7
5.16
8.01
11.63
14.81
16.26
15.1
11.01
4.31
-4.21
-13.51
-22.55
-30.6
-37.38
-42.99
-47.71
-51.68
-54.79
-56.74
-57.38
-56.87
-55.69
-54.32
-52.88
-51.01
-48
-43.21
-36.5
-28.32
-19.65
-11.52
-4.6
1.1
6.05
10.92
16.02
20.95
24.55
25.27
21.69
13.2
0.3
-15.35
-31.45
-45.69
-56.43
-63.16
-66.83
-69.93
-76.17
-89.34
-111.66
-142.11
-175.64
-204.16
-219.02
-214.33
-189.24
-148.54
-100.8
-55.3
-19.02
4.91
17.02
20.22
18.38
15.49
15.35
21.39
36.15
60.53
93.25
130.93
168.94
202.77
229.38
247.77
258.71
263.88
264.95
263.04
258.57
251.51
241.74
229.26
214.35
197.7
180.33
163.56
148.68
136.67
127.85
121.75
117.34
113.33
108.64
102.65
95.32
87.04
78.36
69.79
61.58
53.75
46.19
38.92
32.27
27.05
24.35
25.18
30.03
38.52
49.33
60.5
69.89
75.6
76.41
71.84
62.18
48.34
31.65
13.59
-4.41
-21.26
-36.51
-50.55
-64.54
-80.13
-98.79
-121.18
-146.67
-173.47
-198.98
-220.43
-235.38
-242.03
-239.47
-227.83
-208.47
-183.92
-157.41
-132.25
-110.9
-94.5
-82.85
-74.78
-68.71
-63.07
-56.61
-48.5
-38.58
-27.38
-16.11
-6.17
1.34
6.15
8.78
10.2
11.35
12.76
14.53
16.68
19.34
22.82
27.39
33.05
39.36
45.53
50.75
54.39
56.21
56.34
55.09
52.87
50.06
46.99
43.94
41.1
38.58
36.38
34.39
32.55
30.84
29.37
28.34
27.88
28.01
28.55
29.09
29.11
28.17
25.97
22.47
17.96
12.99
8.31
4.77
3.06
3.5
5.84
9.35
13.04
16.06
18.08
19.3
20.3
21.65
23.7
26.57
30.27
34.97
40.9
48.16
56.43
64.84
72.19
77.39
79.84
79.53
76.87
72.43
66.65
59.87
52.44
44.76
37.3
30.39
24.16
18.57
13.5
8.81
4.27
-0.5
-6.02
-12.69
-20.45
-28.63
-35.98
-41.19
-43.36
-42.41
-39.15
-34.95
-31.36
-29.79
-31.17
-35.7
-42.65
-50.34
-56.59
-59.44
-58
-52.88
-46.04
-39.89
-36.22
-35.56
-37.03
-39.09
-40.4
-40.51
-39.85
-39.28
-39.34
-39.82
-39.88
-38.46
-34.92
-29.36
-22.57
-15.66
-9.49
-4.38
-0.04
4.08
8.45
13.07
17.63
21.75
25.33
28.69
32.29
36.46
40.98
45.18
48.22
49.47
48.65
45.69
40.38
32.24
20.81
6.24
-10.27
-26.54
-40.18
-49.61
-54.73
-56.76
-57.38
-57.72
-57.78
-56.73
-53.71
-48.6
-42.27
-36.09
-31.14
-27.64
-24.9
-21.87
-17.81
-12.65
-7.06
-2.02
1.62
3.43
3.48
2.25
0.34
-1.69
-3.54
-5.2
-6.91
-9.04
-11.87
-15.47
-19.61
-23.78
-27.35
-29.7
-30.41
-29.33
-26.69
-22.97
-18.81
-14.83
-11.38
-8.5
-5.96
-3.47
-0.85
1.86
4.36
6.29
7.35
7.5
6.92
5.96
4.95
4.09
3.39
2.77
2.08
1.22
0.23
-0.8
-1.69
-2.24
-2.26
-1.67
-0.54
0.94
2.44
3.69
4.48
4.81
4.81
4.7
4.58
4.43
4.07
3.25
1.79
-0.37
-3.11
-6.16
-9.16
-11.74
-13.6
-14.59
-14.72
-14.18
-13.22
-12.08
-10.92
-9.8
-8.73
-7.68
-6.55
-5.23
-3.52
-1.23
1.72
5.28
9.15
12.91
16.03
18.07
18.73
17.88
15.56
11.94
7.35
2.19
-3.07
-7.93
-11.96
-14.85
-16.41
-16.61
-15.5
-13.29
-10.24
-6.71
-3.14
0.1
2.77
4.9
6.69
8.44
10.36
12.41
14.38
15.94
16.9
17.25
17.19
16.95
16.67
16.35
15.86
15.06
13.88
12.41
10.9
9.6
8.72
8.3
8.23
8.23
7.94
6.96
4.93
1.61
-3.06
-8.92
-15.57
-22.4
-28.64
-33.55
-36.56
-37.37
-36.05
-32.96
-28.67
-23.81
-18.95
-14.55
-10.86
-7.92
-5.58
-3.58
-1.65
0.42
2.64
4.83
6.74
8.18
9.09
9.61
9.94
10.22
10.48
10.6
10.49
10.17
9.77
9.55
9.68
10.18
10.88
11.55
11.96
12.02
11.73
11.11
10.19
8.99
7.54
5.89
4.12
2.29
0.41
-1.51
-3.49
-5.5
-7.44
-9.22
-10.73
-11.81
-12.33
-12.09
-10.95
-8.89
-6.1
-2.93
0.19
2.9
5.01
6.49
7.49
8.12
8.41
8.31
7.71
6.6
5.09
3.42
1.89
0.7
-0.07
-0.56
-0.95
-1.41
-2.01
-2.68
-3.24
-3.55
-3.56
-3.35
-3.13
-3.1
-3.39
-4.06
-5.03
-6.24
-7.62
-9.1
-10.57
-11.8
-12.5
-12.41
-11.38
-9.53
-7.17
-4.68
-2.36
-0.31
1.46
2.99
4.2
4.89
4.88
4.11
2.75
1.2
-0.11
-0.86
-0.91
-0.33
0.68
1.86
2.93
3.64
3.76
3.16
1.87
0.09
-1.88
-3.79
-5.49
-6.96
-8.27
-9.44
-10.46
-11.26
-11.86
-12.35
-12.83
-13.28
-13.49
-13.14
-11.89
-9.65
-6.64
-3.3
-0.19
2.28
3.91
4.74
4.97
4.86
4.68
4.66
4.98
5.69
6.72
7.87
8.91
9.65
10.02
10.03
9.81
9.45
8.97
8.36
7.55
6.51
5.21
3.68
2
0.25
-1.47
-3.08
-4.5
-5.7
-6.71
-7.58
-8.37
-9.09
-9.63
-9.78
-9.32
-8.06
-6.01
-3.39
-0.57
2.1
4.33
5.97
6.96
7.23
6.71
5.37
3.3
0.72
-2.04
-4.62
-6.79
-8.45
-9.64
-10.44
-10.89
-10.95
-10.57
-9.73
-8.49
-7.11
-5.9
-5.28
-5.52
-6.75
-8.83
-11.42
-14.09
-16.37
-17.94
-18.64
-18.52
-17.78
-16.62
-15.12
-13.22
-10.69
-7.3
-3
2.04
7.44
12.76
17.69
22.12
26.1
29.72
32.94
35.56
37.28
37.87
37.28
35.68
33.35
30.66
27.85
25.04
22.25
19.43
16.54
13.53
10.41
7.14
3.73
0.21
-3.39
-6.99
-10.44
-13.59
-16.27
-18.32
-19.65
-20.21
-20.06
-19.37
-18.38
-17.38
-16.55
-15.93
-15.34
-14.46
-12.94
-10.55
-7.32
-3.47
0.61
4.55
8.05
10.96
13.2
14.79
15.79
16.35
16.69
16.98
17.34
17.71
17.97
17.96
17.6
16.9
15.94
14.75
13.27
11.38
8.96
6.04
2.85
-0.3
-3.11
-5.39
-7.15
-8.46
-9.37
-9.87
-9.87
-9.31
-8.25
-6.85
-5.35
-3.97
-2.84
-1.96
-1.27
-0.66
-0.02
0.73
1.65
2.78
4.06
5.42
6.7
7.78
8.54
8.96
9.06
8.91
8.58
8.1
7.48
6.71
5.83
4.91
4.04
3.32
2.78
2.4
2.1
1.79
1.4
0.88
0.21
-0.63
-1.61
-2.7
-3.81
-4.89
-5.92
-6.95
-8.04
-9.24
-10.53
-11.88
-13.22
-14.53
-15.81
-17
-18.02
-18.66
-18.72
-18.02
-16.5
-14.29
-11.64
-8.88
-6.27
-4
-2.13
-0.6
0.66
1.74
2.7
3.57
4.32
4.93
5.39
5.72
5.98
6.27
6.65
7.16
7.73
8.26
8.62
8.72
8.58
8.24
7.82
7.4
7.01
6.66
6.34
6
5.62
5.17
4.61
3.95
3.22
2.47
1.73
0.97
0.05
-1.13
-2.67
-4.49
-6.44
-8.28
-9.8
-10.84
-11.31
-11.14
-10.32
-8.93
-7.1
-5.09
-3.15
-1.41
0.12
1.55
2.99
4.42
5.7
6.63
7.12
7.25
7.25
7.39
7.76
8.33
8.9
9.3
9.47
9.45
9.34
9.19
8.98
8.68
8.28
7.82
7.34
6.85
6.31
5.67
4.92
4.09
3.27
2.49
1.69
0.82
-0.18
-1.31
-2.48
-3.61
-4.65
-5.63
-6.56
-7.49
-8.45
-9.48
-10.62
-11.93
-13.41
-15
-16.55
-17.91
-18.93
-19.46
-19.36
-18.49
-16.77
-14.27
-11.21
-7.94
-4.86
-2.21
-0.06
1.74
3.39
5.04
6.73
8.37
9.83
11.01
11.93
12.66
13.3
13.88
14.4
14.79
14.98
14.93
14.66
14.24
13.77
13.3
12.84
12.36
11.78
11.04
10.12
9.11
8.1
7.26
6.7
6.5
6.62
6.96
7.35
7.56
7.44
6.95
6.2
5.38
4.74
4.37
4.17
3.88
3.19
1.95
0.22
-1.64
-3.22
-4.15
-4.21
-3.41
-1.92
-0.02
1.99
3.84
5.28
6.16
6.45
6.19
5.49
4.49
3.26
1.86
0.37
-1.1
-2.35
-3.2
-3.5
-3.25
-2.6
-1.81
-1.19
-0.95
-1.18
-1.76
-2.48
-3.12
-3.6
-3.98
-4.4
-4.95
-5.61
-6.2
-6.45
-6.13
-5.1
-3.34
-0.96
1.79
4.51
6.68
7.76
7.35
5.36
2.07
-1.91
-5.88
-9.25
-11.73
-13.3
-14.08
-14.16
-13.51
-11.98
-9.4
-5.79
-1.44
3.12
7.16
10.05
11.4
11.19
9.74
7.53
5.01
2.47
0
-2.42
-4.76
-6.91
-8.66
-9.79
-10.2
-9.89
-8.93
-7.36
-5.21
-2.57
0.35
3.2
5.58
7.25
8.24
8.82
9.38
10.22
11.45
12.9
14.3
15.29
15.61
15.09
13.65
11.3
8.19
4.56
0.77
-2.82
-5.88
-8.29
-10.04
-11.27
-12.07
-12.41
-12.08
-10.77
-8.22
-4.4
0.42
5.73
10.85
15.2
18.34
20.05
20.29
19.18
16.92
13.82
10.25
6.57
3.09
-0.02
-2.69
-4.92
-6.73
-8.09
-8.89
-9
-8.26
-6.57
-4
-0.73
2.84
6.23
8.96
10.63
10.99
9.99
7.74
4.44
0.36
-4.18
-8.89
-13.51
-17.84
-21.67
-24.79
-26.95
-27.83
-27.21
-24.94
-21.06
-15.77
-9.42
-2.56
4.13
9.85
13.91
15.89
15.78
13.97
11.12
7.89
4.74
1.9
-0.57
-2.59
-3.99
-4.57
-4.13
-2.61
-0.08
3.26
7.16
11.27
15.18
18.37
20.3
20.58
19.04
15.83
11.37
6.21
0.83
-4.36
-9.14
-13.32
-16.76
-19.29
-20.77
-21.13
-20.36
-18.49
-15.53
-11.58
-6.85
-1.75
3.06
6.81
8.79
8.58
6.18
2.04
-3.11
-8.44
-13.21
-16.9
-19.24
-20.19
-19.87
-18.45
-16.17
-13.2
-9.66
-5.64
-1.29
3.15
7.33
10.79
13.13
14.17
13.96
12.78
11.02
9.08
7.24
5.66
4.41
3.55
3.11
3.14
3.66
4.64
6.02
7.71
9.59
11.62
13.72
15.74
17.42
18.35
18
15.91
11.83
5.84
-1.68
-10.05
-18.5
-26.25
-32.6
-36.99
-39.07
-38.74
-36.1
-31.51
-25.44
-18.49
-11.27
-4.39
1.63
6.42
9.78
11.73
12.41
12.07
10.95
9.31
7.41
5.5
3.81
2.5
1.64
1.21
1.2
1.72
2.94
5.02
7.95
11.48
15.11
18.37
20.89
22.58
23.57
24.02
24.06
23.64
22.6
20.76
18.09
14.66
10.67
6.35
1.84
-2.81
-7.59
-12.48
-17.33
-21.82
-25.59
-28.25
-29.53
-29.3
-27.52
-24.34
-19.99
-14.93
-9.75
-5.12
-1.58
0.61
1.45
1.16
0.04
-1.62
-3.5
-5.27
-6.55
-7.05
-6.66
-5.51
-3.88
-2.03
-0.1
1.98
4.32
7
9.97
13.03
15.93
18.42
20.24
21.23
21.23
20.16
18.07
15.11
11.55
7.69
3.78
0.02
-3.54
-6.85
-9.86
-12.5
-14.62
-16.08
-16.74
-16.53
-15.52
-13.92
-12.03
-10.21
-8.76
-7.8
-7.28
-7.01
-6.76
-6.38
-5.83
-5.14
-4.38
-3.58
-2.75
-1.87
-0.94
-0.01
0.89
1.74
2.58
3.46
4.45
5.55
6.7
7.8
8.75
9.51
10.11
10.63
11.13
11.67
12.24
12.76
13.18
13.42
13.44
13.2
12.66
11.79
10.6
9.2
7.72
6.31
5.07
4.03
3.17
2.43
1.76
1.13
0.52
-0.14
-0.88
-1.75
-2.76
-3.93
-5.28
-6.87
-8.77
-11.04
-13.71
-16.68
-19.77
-22.72
-25.21
-26.98
-27.81
-27.6
-26.37
-24.29
-21.62
-18.65
-15.64
-12.75
-10.01
-7.42
-4.98
-2.71
-0.67
1.09
2.56
3.83
5.02
6.25
7.56
8.89
10.12
11.09
11.72
11.99
11.99
11.85
11.69
11.59
11.55
11.46
11.24
10.83
10.25
9.56
8.88
8.25
7.65
7.03
6.33
5.53
4.7
3.94
3.37
3.06
3
3.1
3.21
3.1
2.61
1.66
0.25
-1.49
-3.38
-5.19
-6.69
-7.62
-7.81
-7.17
-5.79
-3.91
-1.85
0.09
1.73
3.04
4.08
4.9
5.5
5.86
5.96
5.89
5.81
5.87
6.15
6.63
7.19
7.67
8
8.15
8.2
8.18
8.1
7.92
7.61
7.19
6.74
6.35
6.06
5.83
5.57
5.19
4.66
4.03
3.39
2.8
2.24
1.63
0.9
0.03
-0.91
-1.81
-2.59
-3.29
-4.03
-4.94
-6.09
-7.46
-8.93
-10.37
-11.71
-12.9
-13.89
-14.59
-14.78
-14.3
-13.05
-11.16
-8.9
-6.61
-4.6
-2.99
-1.78
-0.81
0.05
0.89
1.72
2.47
3.07
3.49
3.76
3.98
4.25
4.66
5.21
5.83
6.38
6.76
6.9
6.88
6.77
6.64
6.48
6.26
5.92
5.46
4.92
4.35
3.83
3.37
3
2.69
2.39
2.05
1.6
1.01
0.28
-0.51
-1.27
-1.93
-2.5
-3.03
-3.57
-4.2
-4.92
-5.74
-6.66
-7.72
-8.93
-10.29
-11.74
-13.16
-14.47
-15.53
-16.27
-16.59
-16.44
-15.81
-14.74
-13.36
-11.81
-10.26
-8.79
-7.47
-6.27
-5.14
-4.04
-2.95
-1.89
-0.92
-0.06
0.68
1.37
2.12
2.99
3.98
5.03
6.07
7.06
7.97
8.78
9.46
9.95
10.19
10.17
9.94
9.59
9.22
8.9
8.67
8.47
8.23
7.88
7.34
6.54
5.47
4.18
2.75
1.35
0.13
-0.82
-1.48
-1.92
-2.27
-2.64
-3.1
-3.64
-4.24
-4.87
-5.51
-6.22
-7.05
-8.07
-9.25
-10.45
-11.42
-11.87
-11.55
-10.41
-8.63
-6.58
-4.64
-3.11
-2.03
-1.24
-0.51
0.28
1.09
1.75
2.15
2.28
2.31
2.49
2.99
3.82
4.88
6.02
7.13
8.24
9.39
10.6
11.79
12.8
13.51
13.85
13.86
13.65
13.34
13.02
12.71
12.36
11.92
11.33
10.55
9.53
8.27
6.78
5.12
3.39
1.68
0.02
-1.63
-3.46
-5.7
-8.56
-12.07
-16.06
-20.15
-23.88
-26.79
-28.54
-28.94
-27.96
-25.7
-22.41
-18.44
-14.22
-10.17
-6.6
-3.68
-1.36
0.47
1.96
3.19
4.15
4.83
5.22
5.38
5.41
5.39
5.35
5.27
5.09
4.75
4.26
3.63
2.93
2.21
1.48
0.77
0.11
-0.42
-0.7
-0.6
0.02
1.23
3.05
5.35
7.85
10.09
11.59
11.96
11.05
9.03
6.28
3.24
0.22
-2.71
-5.61
-8.6
-11.62
-14.48
-16.92
-18.7
-19.75
-20.08
-19.77
-18.82
-17.24
-15.13
-12.74
-10.48
-8.8
-7.99
-8.07
-8.83
-9.89
-10.91
-11.62
-11.85
-11.5
-10.52
-8.89
-6.71
-4.14
-1.42
1.26
3.74
5.91
7.73
9.19
10.28
11.02
11.45
11.55
11.31
10.67
9.67
8.41
7.12
6.02
5.23
4.76
4.43
4.05
3.42
2.5
1.36
0.14
-1.01
-1.98
-2.79
-3.54
-4.3
-5.12
-5.99
-6.83
-7.62
-8.33
-8.97
-9.56
-10
-10.18
-9.93
-9.11
-7.72
-5.85
-3.67
-1.36
0.94
3.14
5.2
7.04
8.58
9.75
10.51
10.91
11.12
11.31
11.65
12.19
12.89
13.65
14.36
14.99
15.55
16.08
16.57
16.98
17.21
17.2
16.93
16.41
15.65
14.69
13.56
12.31
10.95
9.48
7.82
5.84
3.45
0.55
-2.84
-6.62
-10.68
-14.83
-18.84
-22.48
-25.47
-27.58
-28.7
-28.87
-28.3
-27.31
-26.19
-25.13
-24.11
-22.94
-21.34
-19.01
-15.81
-11.79
-7.24
-2.58
1.73
5.38
8.27
10.48
12.2
13.68
15.05
16.38
17.62
18.67
19.42
19.77
19.68
19.14
18.22
17.01
15.63
14.17
12.65
11
9.1
6.82
4.08
0.94
-2.32
-5.31
-7.52
-8.53
-7.99
-5.76
-1.82
3.75
10.72
18.7
26.99
34.65
40.57
43.72
43.49
39.87
33.51
25.53
17.19
9.54
3.16
-1.91
-6.1
-10.04
-14.29
-19.11
-24.39
-29.59
-33.8
-35.82
-34.34
-28.18
-16.76
-0.73
17.71
35.07
47.63
52.88
50.63
43.13
33.98
26.44
22.08
20.41
19.67
18.05
14.64
9.4
2.7
-5.24
-14.33
-24.19
-33.71
-41.29
-45.54
-46.13
-44.13
-41.39
-39.69
-39.83
-41.44
-43.34
-44.29
-43.44
-40.49
-35.42
-28.35
-19.56
-9.61
0.59
9.97
17.67
23.36
27.41
30.67
34.12
38.43
43.82
50.04
56.57
62.87
68.48
73.08
76.39
78.12
78
75.73
71.01
63.44
52.64
38.38
20.83
0.71
-20.71
-41.93
-61.62
-78.99
-93.93
-106.83
-118.23
-128.43
-137.37
-144.61
-149.55
-151.62
-150.42
-145.78
-137.82
-126.89
-113.51
-98.23
-81.57
-63.94
-45.74
-27.42
-9.51
7.36
22.66
36.03
47.41
56.96
64.9
71.36
76.31
79.6
81.15
81.06
79.62
77.28
74.41
71.26
67.87
64.18
60.07
55.5
50.5
45.14
39.52
33.73
27.93
22.25
16.84
11.8
7.17
2.94
-0.88
-4.28
-7.27
-9.92
-12.4
-14.9
-17.5
-20.1
-22.38
-23.9
-24.26
-23.28
-21.08
-18.06
-14.79
-11.82
-9.56
-8.18
-7.58
-7.46
-7.5
-7.45
-7.22
-6.87
-6.53
-6.3
-6.15
-6.04
-5.87
-5.62
-5.27
-4.79
-4.09
-3.02
-1.43
0.73
3.42
6.51
9.82
13.16
16.39
19.38
22
24.11
25.67
26.72
27.4
27.88
28.26
28.56
28.62
28.28
27.44
26.16
24.62
23.12
21.85
20.87
20.07
19.21
18.02
16.32
14.06
11.32
8.28
5.16
2.13
-0.7
-3.29
-5.64
-7.74
-9.58
-11.14
-12.46
-13.63
-14.75
-15.88
-16.92
-17.61
-17.64
-16.76
-14.93
-12.38
-9.52
-6.81
-4.51
-2.68
-1.14
0.33
1.94
3.71
5.59
7.44
9.18
10.76
12.18
13.43
14.46
15.21
15.65
15.82
15.82
15.78
15.81
15.92
16.1
16.32
16.59
16.93
17.41
17.99
18.59
19.04
19.19
18.99
18.49
17.82
17.13
16.5
15.9
15.22
14.34
13.16
11.67
9.93
8.06
6.21
4.52
3.06
1.86
0.83
-0.15
-1.21
-2.44
-3.85
-5.41
-7.02
-8.58
-10.02
-11.35
-12.64
-13.95
-15.4
-16.99
-18.67
-20.27
-21.53
-22.21
-22.07
-21.03
-19.17
-16.74
-14.06
-11.46
-9.22
-7.46
-6.16
-5.18
-4.37
-3.57
-2.74
-1.88
-1.04
-0.22
0.6
1.49
2.45
3.44
4.36
5.09
5.55
5.76
5.81
5.78
5.69
5.51
5.16
4.64
3.99
3.37
2.88
2.61
2.5
2.45
2.33
2.06
1.63
1.08
0.44
-0.29
-1.14
-2.08
-3.04
-3.87
-4.44
-4.72
-4.81
-4.89
-5.14
-5.65
-6.33
-7.03
-7.57
-7.85
-7.88
-7.77
-7.68
-7.75
-8.07
-8.65
-9.44
-10.29
-10.97
-11.23
-10.9
-9.92
-8.42
-6.68
-4.97
-3.51
-2.36
-1.5
-0.81
-0.24
0.2
0.45
0.49
0.33
0.05
-0.22
-0.4
-0.42
-0.29
-0.08
0.13
0.27
0.3
0.23
0.08
-0.09
-0.25
-0.35
-0.41
-0.43
-0.49
-0.63
-0.86
-1.16
-1.47
-1.7
-1.78
-1.75
-1.67
-1.65
-1.72
-1.84
-1.93
-1.96
-1.98
-2.14
-2.6
-3.4
-4.42
-5.42
-6.13
-6.43
-6.36
-6.17
-6.1
-6.31
-6.83
-7.54
-8.33
-9.08
-9.74
-10.21
-10.35
-9.97
-8.97
-7.37
-5.4
-3.4
-1.68
-0.47
0.25
0.58
0.71
0.77
0.8
0.74
0.56
0.26
-0.08
-0.27
-0.15
0.3
0.95
1.55
1.84
1.7
1.24
0.72
0.41
0.43
0.72
1.1
1.38
1.49
1.41
1.24
0.98
0.63
0.19
-0.34
-0.87
-1.3
-1.54
-1.57
-1.42
-1.16
-0.85
-0.59
-0.47
-0.58
-0.96
-1.56
-2.26
-2.86
-3.25
-3.43
-3.54
-3.77
-4.29
-5.15
-6.22
-7.25
-7.93
-8.01
-7.42
-6.29
-4.88
-3.5
-2.33
-1.42
-0.72
-0.15
0.29
0.53
0.51
0.27
-0.04
-0.2
-0.08
0.33
0.91
1.45
1.81
1.96
2
2.02
2.13
2.35
2.64
2.92
3.12
3.17
3.04
2.72
2.23
1.61
0.93
0.25
-0.34
-0.82
-1.2
-1.52
-1.87
-2.3
-2.83
-3.41
-4
-4.55
-5.06
-5.52
-5.94
-6.35
-6.79
-7.31
-7.97
-8.77
-9.63
-10.38
-10.85
-10.89
-10.41
-9.43
-8.05
-6.4
-4.63
-2.93
-1.49
-0.46
0.06
0.11
-0.15
-0.5
-0.73
-0.74
-0.52
-0.13
0.34
0.81
1.23
1.57
1.8
1.88
1.78
1.57
1.32
1.14
1.08
1.1
1.09
0.95
0.67
0.32
-0.01
-0.28
-0.55
-0.95
-1.6
-2.52
-3.57
-4.56
-5.31
-5.8
-6.12
-6.44
-6.91
-7.65
-8.69
-9.99
-11.43
-12.81
-13.84
-14.25
-13.9
-12.84
-11.29
-9.55
-7.87
-6.36
-5.02
-3.79
-2.67
-1.72
-1.03
-0.64
-0.51
-0.54
-0.58
-0.57
-0.48
-0.35
-0.23
-0.15
-0.08
0.02
0.16
0.35
0.58
0.83
1.11
1.4
1.7
1.93
2.01
1.89
1.58
1.19
0.78
0.39
-0.07
-0.71
-1.6
-2.72
-3.94
-5.07
-6.04
-6.9
-7.77
-8.79
-9.97
-11.13
-11.96
-12.18
-11.6
-10.26
-8.38
-6.29
-4.32
-2.71
-1.53
-0.71
-0.13
0.33
0.78
1.25
1.79
2.43
3.21
4.13
5.15
6.16
7.03
7.67
7.99
8.03
7.87
7.59
7.3
7.05
6.86
6.71
6.54
6.29
5.86
5.12
3.96
2.34
0.33
-1.86
-3.95
-5.69
-6.99
-7.91
-8.68
-9.51
-10.53
-11.73
-12.96
-14.03
-14.74
-14.9
-14.39
-13.19
-11.34
-9.05
-6.53
-4.06
-1.79
0.19
1.89
3.33
4.56
5.57
6.33
6.88
7.27
7.6
7.97
8.41
8.9
9.36
9.75
10.06
10.32
10.61
10.97
11.35
11.58
11.49
10.99
10.08
8.92
7.74
6.76
6.09
5.71
5.47
5.18
4.67
3.89
2.84
1.63
0.39
-0.81
-1.9
-2.9
-3.84
-4.79
-5.76
-6.73
-7.68
-8.61
-9.58
-10.61
-11.63
-12.47
-12.87
-12.59
-11.55
-9.93
-8.04
-6.24
-4.74
-3.55
-2.55
-1.57
-0.51
0.62
1.76
2.84
3.87
4.88
5.89
6.85
7.7
8.41
8.97
9.47
9.98
10.52
11.01
11.36
11.49
11.4
11.15
10.83
10.47
10.05
9.53
8.93
8.32
7.79
7.41
7.16
6.91
6.51
5.84
4.86
3.63
2.3
1
-0.18
-1.21
-2.11
-2.91
-3.64
-4.31
-4.94
-5.61
-6.45
-7.54
-8.91
-10.42
-11.82
-12.78
-13.03
-12.45
-11.05
-9.01
-6.56
-3.96
-1.46
0.71
2.42
3.63
4.46
5.08
5.66
6.29
6.95
7.53
7.96
8.23
8.44
8.71
9.1
9.58
10.03
10.27
10.23
9.91
9.45
9.01
8.72
8.6
8.56
8.51
8.32
8.01
7.58
7.13
6.71
6.33
5.98
5.65
5.31
4.97
4.62
4.22
3.7
3.01
2.13
1.1
-0
-1.06
-1.98
-2.72
-3.28
-3.74
-4.24
-4.99
-6.13
-7.7
-9.58
-11.49
-13.04
-13.88
-13.82
-12.88
-11.3
-9.39
-7.45
-5.68
-4.17
-2.92
-1.9
-1.06
-0.34
0.35
1.09
1.94
2.91
3.91
4.82
5.5
5.94
6.21
6.45
6.8
7.32
7.99
8.7
9.37
9.9
10.24
10.32
10.07
9.41
8.34
6.95
5.47
4.15
3.18
2.58
2.21
1.83
1.23
0.35
-0.74
-1.82
-2.73
-3.35
-3.72
-3.97
-4.24
-4.62
-5.13
-5.7
-6.28
-6.88
-7.54
-8.35
-9.33
-10.38
-11.28
-11.72
-11.5
-10.53
-8.97
-7.11
-5.25
-3.63
-2.34
-1.37
-0.66
-0.1
0.39
0.87
1.38
1.92
2.51
3.14
3.82
4.56
5.38
6.22
7.01
7.64
8.08
8.32
8.49
8.67
8.9
9.12
9.13
8.8
8.01
6.83
5.44
4.11
3.02
2.23
1.65
1.07
0.35
-0.58
-1.62
-2.61
-3.41
-4.01
-4.5
-4.99
-5.56
-6.23
-6.96
-7.77
-8.68
-9.7
-10.75
-11.65
-12.09
-11.84
-10.8
-9.11
-7.06
-4.97
-3.1
-1.52
-0.17
1.07
2.24
3.28
4.04
4.42
4.41
4.16
3.92
3.88
4.16
4.69
5.31
5.84
6.18
6.35
6.4
6.43
6.47
6.5
6.45
6.28
5.96
5.5
4.95
4.34
3.67
2.94
2.15
1.37
0.67
0.11
-0.32
-0.69
-1.17
-1.9
-2.88
-4
-5.04
-5.84
-6.38
-6.84
-7.46
-8.46
-9.86
-11.47
-12.97
-14.08
-14.59
-14.49
-13.86
-12.81
-11.43
-9.81
-8
-6.12
-4.29
-2.64
-1.28
-0.24
0.53
1.16
1.78
2.48
3.33
4.28
5.28
6.26
7.15
7.93
8.57
9.05
9.37
9.51
9.48
9.32
9.03
8.65
8.16
7.59
6.97
6.34
5.72
5.12
4.56
4.06
3.65
3.34
3.06
2.71
2.17
1.33
0.18
-1.19
-2.64
-4.01
-5.14
-5.95
-6.45
-6.7
-6.88
-7.21
-7.89
-9.05
-10.61
-12.32
-13.81
-14.68
-14.66
-13.67
-11.86
-9.55
-7.12
-4.91
-3.09
-1.66
-0.5
0.6
1.81
3.19
4.68
6.13
7.37
8.27
8.77
8.94
8.94
8.97
9.16
9.56
10.06
10.51
10.73
10.63
10.23
9.6
8.88
8.2
7.63
7.19
6.83
6.47
6.06
5.55
4.95
4.28
3.59
2.92
2.27
1.63
0.99
0.28
-0.58
-1.65
-2.9
-4.26
-5.6
-6.83
-7.94
-8.97
-10.04
-11.22
-12.57
-14.05
-15.57
-16.98
-18.1
-18.69
-18.58
-17.72
-16.2
-14.28
-12.28
-10.42
-8.79
-7.35
-6.02
-4.82
-3.83
-3.19
-3
-3.21
-3.7
-4.25
-4.72
-5.02
-5.16
-5.17
-5.01
-4.59
-3.82
-2.63
-1.12
0.57
2.2
3.61
4.74
5.62
6.31
6.87
7.29
7.57
7.75
7.88
8
8.11
8.12
7.88
7.34
6.53
5.64
4.93
4.55
4.51
4.63
4.6
4.14
3.1
1.51
-0.46
-2.5
-4.29
-5.51
-5.92
-5.4
-4.03
-2.03
0.3
2.62
4.65
6.25
7.38
8.1
8.51
8.73
8.88
9.05
9.33
9.74
10.26
10.79
11.24
11.53
11.63
11.59
11.49
11.39
11.3
11.15
10.86
10.37
9.68
8.85
7.93
6.98
5.97
4.86
3.62
2.27
0.89
-0.46
-1.68
-2.78
-3.78
-4.76
-5.8
-6.96
-8.33
-9.93
-11.79
-13.85
-15.94
-17.74
-18.92
-19.14
-18.28
-16.47
-14.07
-11.56
-9.33
-7.57
-6.21
-5.01
-3.7
-2.19
-0.54
1.08
2.48
3.57
4.41
5.12
5.81
6.49
7.14
7.66
8.01
8.21
8.32
8.38
8.41
8.35
8.12
7.66
6.95
6.07
5.12
4.22
3.39
2.62
1.82
0.94
-0.01
-0.94
-1.82
-2.65
-3.52
-4.52
-5.7
-7
-8.33
-9.65
-11.04
-12.68
-14.71
-17.13
-19.69
-21.94
-23.38
-23.66
-22.68
-20.64
-17.94
-15.02
-12.24
-9.78
-7.62
-5.67
-3.78
-1.9
-0.06
1.64
3.13
4.42
5.59
6.78
8.09
9.53
11
12.37
13.49
14.28
14.73
14.87
14.78
14.52
14.16
13.76
13.31
12.78
12.08
11.18
10.09
8.92
7.83
6.94
6.23
5.58
4.78
3.65
2.19
0.55
-1.03
-2.38
-3.43
-4.3
-5.16
-6.16
-7.38
-8.81
-10.47
-12.36
-14.48
-16.74
-18.87
-20.43
-20.98
-20.26
-18.34
-15.58
-12.53
-9.74
-7.5
-5.83
-4.51
-3.25
-1.88
-0.42
0.95
2.02
2.7
3.05
3.26
3.53
3.97
4.58
5.28
5.97
6.64
7.35
8.15
9.06
10
10.81
11.34
11.51
11.31
10.83
10.2
9.6
9.13
8.85
8.73
8.63
8.37
7.8
6.86
5.64
4.33
3.16
2.3
1.72
1.24
0.59
-0.45
-1.97
-3.88
-6.01
-8.12
-10.02
-11.55
-12.52
-12.75
-12.08
-10.51
-8.19
-5.45
-2.67
-0.09
2.23
4.35
6.38
8.32
10.03
11.39
12.31
12.88
13.28
13.73
14.32
15.01
15.65
16.03
16.02
15.56
14.67
13.47
12.07
10.61
9.2
7.92
6.86
6.05
5.5
5.16
4.92
4.62
4.06
3.15
1.9
0.44
-1.02
-2.27
-3.25
-3.99
-4.68
-5.55
-6.77
-8.39
-10.34
-12.45
-14.47
-16.17
-17.3
-17.66
-17.13
-15.72
-13.61
-11.07
-8.46
-6.03
-3.92
-2.12
-0.52
0.99
2.53
4.1
5.7
7.28
8.77
10.08
11.19
12.08
12.79
13.38
13.91
14.42
14.89
15.32
15.67
15.92
16.04
15.97
15.7
15.2
14.45
13.5
12.38
11.18
10
8.89
7.9
6.97
6.06
5.08
4.02
2.85
1.6
0.27
-1.16
-2.67
-4.28
-5.93
-7.58
-9.21
-10.87
-12.65
-14.67
-16.92
-19.27
-21.42
-23
-23.64
-23.14
-21.47
-18.84
-15.63
-12.28
-9.18
-6.52
-4.33
-2.49
-0.83
0.79
2.41
4.02
5.59
7.1
8.53
9.86
11.02
11.96
12.63
13.07
13.38
13.68
14.07
14.58
15.14
15.64
16
16.16
16.13
15.99
15.81
15.65
15.49
15.24
14.78
14.02
12.95
11.66
10.27
8.91
7.64
6.4
5.09
3.6
1.83
-0.16
-2.28
-4.31
-6.1
-7.53
-8.64
-9.57
-10.53
-11.74
-13.33
-15.36
-17.7
-20.09
-22.15
-23.44
-23.62
-22.53
-20.29
-17.25
-13.88
-10.61
-7.72
-5.27
-3.15
-1.24
0.55
2.19
3.6
4.71
5.56
6.26
6.98
7.82
8.79
9.8
10.72
11.44
11.94
12.27
12.5
12.64
12.66
12.46
11.97
11.2
10.25
9.32
8.57
8.11
7.92
7.84
7.65
7.16
6.3
5.11
3.72
2.31
1.01
-0.11
-1.08
-1.98
-2.94
-4.03
-5.31
-6.8
-8.52
-10.45
-12.55
-14.68
-16.59
-17.96
-18.46
-17.87
-16.19
-13.63
-10.59
-7.54
-4.83
-2.68
-1.07
0.16
1.25
2.39
3.67
5
6.21
7.15
7.76
8.12
8.4
8.76
9.26
9.8
10.25
10.49
10.5
10.33
10.06
9.75
9.31
8.63
7.64
6.41
5.11
3.96
3.09
2.47
1.93
1.27
0.37
-0.74
-1.94
-3.11
-4.18
-5.15
-6.09
-7.07
-8.12
-9.3
-10.67
-12.28
-14.21
-16.45
-18.86
-21.18
-23.04
-24.03
-23.84
-22.38
-19.84
-16.65
-13.37
-10.48
-8.23
-6.57
-5.23
-3.9
-2.42
-0.77
0.9
2.43
3.75
4.91
6.02
7.16
8.33
9.42
10.32
10.95
11.36
11.67
11.99
12.34
12.58
12.49
11.91
10.78
9.26
7.65
6.28
5.33
4.78
4.44
4.02
3.27
2.09
0.55
-1.18
-2.9
-4.5
-5.96
-7.32
-8.66
-9.98
-11.33
-12.74
-14.3
-16.06
-17.96
-19.79
-21.19
-21.82
-21.46
-20.1
-17.96
-15.36
-12.6
-9.88
-7.3
-4.87
-2.58
-0.42
1.56
3.33
4.81
5.97
6.82
7.48
8.07
8.71
9.46
10.24
10.91
11.33
11.46
11.4
11.29
11.28
11.36
11.38
11.15
10.49
9.45
8.16
6.9
5.84
5.03
4.39
3.76
2.97
1.94
0.67
-0.78
-2.28
-3.74
-5.05
-6.18
-7.2
-8.26
-9.54
-11.2
-13.27
-15.59
-17.88
-19.74
-20.82
-20.9
-19.93
-18.05
-15.53
-12.68
-9.77
-7.04
-4.63
-2.58
-0.85
0.69
2.18
3.73
5.36
6.98
8.41
9.5
10.21
10.6
10.86
11.14
11.53
11.97
12.35
12.55
12.51
12.26
11.85
11.32
10.63
9.77
8.69
7.46
6.18
4.99
4.01
3.24
2.58
1.89
1.01
-0.13
-1.49
-2.92
-4.27
-5.48
-6.65
-8.01
-9.76
-11.94
-14.31
-16.44
-17.81
-18.07
-17.14
-15.24
-12.74
-10.01
-7.3
-4.71
-2.22
0.16
2.39
4.4
6.13
7.55
8.72
9.69
10.55
11.39
12.24
13.08
13.81
14.3
14.43
14.16
13.56
12.82
12.16
11.74
11.59
11.59
11.57
11.34
10.83
10.04
9.06
7.97
6.81
5.58
4.28
2.92
1.53
0.21
-1.01
-2.16
-3.3
-4.56
-5.99
-7.6
-9.28
-10.95
-12.55
-14.14
-15.81
-17.65
-19.59
-21.43
-22.76
-23.18
-22.43
-20.53
-17.79
-14.68
-11.67
-9.01
-6.67
-4.49
-2.27
0
2.24
4.26
5.98
7.44
8.77
10.04
11.24
12.25
12.94
13.27
13.34
13.34
13.42
13.65
13.95
14.18
14.2
13.95
13.45
12.8
12.11
11.42
10.72
9.99
9.2
8.37
7.54
6.7
5.85
4.99
4.12
3.32
2.63
2.05
1.45
0.68
-0.39
-1.8
-3.43
-5.13
-6.76
-8.31
-9.82
-11.38
-13.04
-14.81
-16.7
-18.72
-20.77
-22.65
-23.99
-24.34
-23.39
-21.09
-17.78
-14.03
-10.45
-7.44
-5.08
-3.18
-1.4
0.5
2.62
4.85
6.97
8.76
10.06
10.86
11.27
11.51
11.76
12.16
12.73
13.41
14.04
14.48
14.63
14.45
14.01
13.39
12.76
12.21
11.8
11.52
11.3
11.02
10.57
9.92
9.06
8
6.81
5.52
4.24
3.05
2.07
1.33
0.78
0.23
-0.52
-1.64
-3.12
-4.78
-6.34
-7.57
-8.4
-8.96
-9.49
-10.26
-11.45
-13.14
-15.24
-17.53
-19.66
-21.17
-21.7
-21.08
-19.49
-17.42
-15.48
-14.16
-13.65
-13.75
-14.01
-13.92
-13.11
-11.51
-9.29
-6.8
-4.41
-2.34
-0.65
0.8
2.22
3.8
5.58
7.45
9.25
10.89
12.38
13.85
15.42
17.1
18.8
20.3
21.38
21.88
21.69
20.81
19.33
17.42
15.33
13.3
11.54
10.09
8.83
7.54
5.99
4.12
1.99
-0.19
-2.2
-3.95
-5.43
-6.74
-7.95
-9.12
-10.32
-11.62
-13.08
-14.67
-16.19
-17.28
-17.55
-16.74
-14.86
-12.22
-9.29
-6.49
-4.09
-2.18
-0.72
0.37
1.13
1.61
1.88
2.1
2.46
3.12
4.16
5.52
7.05
8.5
9.68
10.41
10.68
10.61
10.42
10.34
10.52
10.97
11.59
12.17
12.52
12.5
12.09
11.33
10.32
9.18
7.97
6.7
5.39
4.03
2.59
1.09
-0.44
-1.97
-3.45
-4.88
-6.26
-7.62
-9
-10.47
-12.12
-14.06
-16.32
-18.84
-21.35
-23.5
-24.85
-25.02
-23.9
-21.58
-18.42
-14.88
-11.37
-8.15
-5.34
-2.92
-0.83
0.93
2.42
3.64
4.64
5.5
6.27
6.99
7.66
8.3
8.89
9.46
10
10.43
10.67
10.63
10.3
9.77
9.18
8.64
8.19
7.76
7.24
6.57
5.75
4.93
4.24
3.77
3.5
3.31
2.98
2.33
1.28
-0.14
-1.77
-3.39
-4.78
-5.86
-6.67
-7.36
-8.14
-9.21
-10.7
-12.63
-14.9
-17.26
-19.34
-20.7
-20.97
-19.94
-17.72
-14.68
-11.33
-8.15
-5.46
-3.35
-1.73
-0.39
0.82
2.05
3.3
4.58
5.83
6.98
8.03
8.96
9.78
10.48
11.04
11.42
11.63
11.7
11.73
11.76
11.75
11.61
11.17
10.3
8.93
7.11
4.92
2.52
0.07
-2.35
-4.7
-7.03
-9.43
-11.94
-14.61
-17.39
-20.15
-22.7
-24.9
-26.6
-27.82
-28.68
-29.41
-30.22
-31.19
-32.23
-33.08
-33.5
-33.31
-32.53
-31.33
-29.92
-28.45
-26.97
-25.49
-23.95
-22.32
-20.53
-18.48
-16.08
-13.28
-10.14
-6.81
-3.47
-0.27
2.76
5.62
8.37
10.97
13.35
15.39
17.01
18.26
19.22
20.05
20.85
21.67
22.46
23.2
23.84
24.44
25.09
25.87
26.79
27.69
28.29
28.23
27.23
25.21
22.34
18.95
15.41
11.92
8.51
5.07
1.53
-1.95
-5.03
-7.24
-8.28
-8.14
-7.13
-5.81
-4.67
-4
-3.75
-3.68
-3.52
-3.15
-2.71
-2.48
-2.7
-3.37
-4.21
-4.68
-4.24
-2.52
0.5
4.42
8.6
12.34
15.23
17.28
19.02
21.3
24.94
30.35
37.29
44.98
52.42
58.82
63.99
68.39
72.8
77.95
84.1
90.85
97.09
101.05
100.31
92.14
74.12
45.15
6.44
-38.21
-83.08
-122.19
-151.07
-167.91
-173.43
-169.81
-159.34
-143.66
-123.91
-101.37
-77.98
-56.15
-38
-24.56
-15.44
-9.3
-4.59
-0.33
3.88
8.07
12.45
17.48
23.71
31.29
39.78
48.22
55.62
61.41
65.64
68.84
71.67
74.56
77.56
80.44
82.92
84.86
86.24
87.06
87.28
86.65
84.87
81.6
76.66
70.15
62.5
54.38
46.57
39.73
34.31
30.52
28.38
27.72
28.05
28.57
28.13
25.54
20.16
12.35
3.66
-3.69
-7.64
-7.43
-4.13
-0.38
0.64
-3.4
-12.79
-25.6
-38.43
-47.8
-51.45
-49.11
-42.21
-33.15
-24.52
-18.51
-16.59
-19.17
-25.38
-33.04
-39.28
-41.81
-40.35
-37.14
-36.02
-40.27
-50.47
-63.66
-74.68
-78.89
-74.94
-65.9
-58.23
-59.2
-73.93
-103.27
-143.15
-185.52
-220.62
-239.78
-238.06
-215.67
-177.72
-132.48
-88.58
-52.64
-28.04
-15.12
-12.31
-17.13
-26.7
-37.78
-46.79
-50.24
-45.76
-33.04
-14.17
6.89
25.56
38.24
43.44
42.1
37.01
31.47
27.93
27.22
28.53
30.18
30.63
29.23
26.4
23.19
20.67
19.27
18.72
18.22
17.01
14.81
12
9.45
8
7.99
9.08
10.45
11.32
11.42
11.27
11.85
14.08
18.31
24.11
30.45
36.31
41.05
44.67
47.61
50.38
53.23
56.06
58.53
60.38
61.6
62.37
62.98
63.65
64.3
64.6
63.91
61.39
56.12
47.36
34.84
19.08
1.48
-15.93
-31.02
-42.16
-48.64
-50.67
-49.12
-45.13
-39.69
-33.55
-27.29
-21.34
-16.1
-11.88
-8.82
-6.94
-6.13
-6.18
-6.9
-8.04
-9.34
-10.53
-11.38
-11.74
-11.52
-10.66
-9.13
-6.88
-3.85
-0.06
4.38
9.25
14.17
18.68
22.32
24.75
25.83
25.71
24.79
23.59
22.55
21.93
21.7
21.67
21.52
20.99
19.93
18.26
15.97
13.11
9.82
6.29
2.65
-1.12
-5.22
-9.96
-15.57
-22.04
-29.06
-36.07
-42.3
-46.88
-48.83
-47.22
-41.35
-31.1
-17.16
-0.97
15.53
30.43
42.27
50.23
54.17
54.46
51.78
47.07
41.4
35.83
31.23
28.12
26.51
26.05
26.06
25.83
24.84
22.92
20.38
17.9
16.29
16.15
17.6
20.25
23.32
26.07
28.08
29.36
30.23
31
31.67
31.82
30.69
27.57
22.16
14.87
6.77
-0.72
-6.39
-9.68
-10.9
-11.04
-11.36
-12.87
-15.94
-20.25
-24.97
-29.01
-31.42
-31.5
-29
-24.22
-18
-11.64
-6.61
-4.06
-4.48
-7.44
-11.83
-16.36
-20.1
-22.86
-25.06
-27.29
-29.84
-32.39
-34.23
-34.71
-33.66
-31.57
-29.32
-27.75
-27.25
-27.62
-28.28
-28.55
-27.99
-26.54
-24.43
-22.12
-20.18
-19.18
-19.57
-21.34
-23.79
-25.38
-23.93
-17.13
-3.25
18.24
46.33
78.68
112.03
142.85
167.99
185.01
192.5
190.21
179.14
161.39
139.88
117.66
97.28
80.21
66.62
55.55
45.43
34.78
22.89
10.14
-2.12
-12.1
-18.4
-20.73
-20.5
-20.9
-26.23
-40.37
-64.81
-97.02
-130.19
-154.96
-162.73
-149.16
-116.29
-71.96
-26.7
10.23
33.85
44.07
44.02
37.36
26.42
11.91
-5.84
-25.34
-43.29
-55.36
-58.04
-50.36
-34.66
-15.84
0.67
11.11
14.74
13.75
11.77
11.86
14.95
19.64
23.22
23.29
19.1
11.79
3.6
-3.32
-7.92
-10.36
-11.51
-12.17
-12.62
-12.74
-12.45
-12.04
-12.15
-13.3
-15.48
-17.91
-19.33
-18.64
-15.44
-10.25
-4.26
1.17
5.04
6.96
7.11
6.02
4.27
2.29
0.29
-1.65
-3.4
-4.68
-5.13
-4.46
-2.73
-0.43
1.64
2.68
2.26
0.51
-1.93
-4.29
-6.03
-7.09
-7.83
-8.74
-10.14
-11.93
-13.63
-14.64
-14.55
-13.32
-11.27
-8.94
-6.81
-5.19
-4.13
-3.51
-3.12
-2.78
-2.38
-1.88
-1.33
-0.78
-0.3
0.12
0.57
1.16
2
3.06
4.16
4.96
5.2
4.72
3.63
2.28
1.06
0.32
0.23
0.73
1.58
2.48
3.15
3.36
3.01
2.11
0.81
-0.69
-2.16
-3.43
-4.42
-5.12
-5.61
-5.97
-6.33
-6.86
-7.73
-9.04
-10.71
-12.4
-13.67
-14.1
-13.52
-12.05
-10.04
-7.88
-5.87
-4.1
-2.58
-1.26
-0.18
0.62
1.08
1.28
1.33
1.38
1.55
1.84
2.22
2.6
2.93
3.18
3.37
3.52
3.61
3.58
3.31
2.74
1.91
0.95
0.07
-0.58
-0.95
-1.17
-1.41
-1.83
-2.44
-3.21
-4.02
-4.81
-5.61
-6.44
-7.32
-8.22
-9.06
-9.8
-10.44
-11.05
-11.61
-11.99
-11.9
-11.06
-9.32
-6.83
-4.02
-1.42
0.54
1.73
2.28
2.42
2.37
2.18
1.81
1.25
0.62
0.16
0.12
0.63
1.61
2.81
3.94
4.77
5.19
5.23
5.01
4.67
4.31
4
3.68
3.25
2.6
1.72
0.68
-0.34
-1.19
-1.79
-2.18
-2.46
-2.69
-2.89
-3.01
-3.04
-3.04
-3.16
-3.55
-4.29
-5.31
-6.37
-7.16
-7.41
-6.94
-5.75
-3.98
-1.85
0.42
2.65
4.71
6.53
8.05
9.24
10.08
10.58
10.82
10.86
10.79
10.65
10.43
10.17
9.89
9.63
9.45
9.35
9.28
9.15
8.86
8.37
7.68
6.86
5.97
5.07
4.21
3.42
2.69
2.03
1.39
0.74
0.03
-0.74
-1.52
-2.22
-2.73
-3.03
-3.21
-3.44
-3.94
-4.8
-5.95
-7.11
-7.95
-8.19
-7.75
-6.74
-5.4
-3.93
-2.49
-1.15
0.07
1.13
2.01
2.66
3.11
3.42
3.68
4
4.43
4.99
5.67
6.43
7.21
7.94
8.53
8.91
9.01
8.82
8.37
7.72
6.92
6.04
5.13
4.23
3.43
2.85
2.61
2.78
3.26
3.84
4.23
4.22
3.75
2.91
1.87
0.77
-0.37
-1.6
-2.92
-4.3
-5.61
-6.83
-8.04
-9.42
-11.14
-13.18
-15.27
-16.96
-17.81
-17.54
-16.17
-13.97
-11.32
-8.59
-6.02
-3.68
-1.54
0.42
2.21
3.77
5
5.82
6.17
6.08
5.66
5.02
4.33
3.74
3.35
3.24
3.41
3.81
4.3
4.77
5.02
4.89
4.23
2.96
1.14
-1.02
-3.14
-4.8
-5.68
-5.71
-5.09
-4.25
-3.66
-3.63
-4.2
-5.13
-6.13
-6.98
-7.64
-8.27
-9.05
-10.03
-11.05
-11.81
-11.99
-11.44
-10.23
-8.61
-6.86
-5.21
-3.74
-2.44
-1.26
-0.17
0.82
1.72
2.55
3.3
3.94
4.39
4.54
4.35
3.87
3.29
2.87
2.79
3.08
3.62
4.21
4.68
4.96
5.05
4.96
4.62
3.97
2.94
1.61
0.15
-1.22
-2.35
-3.22
-3.93
-4.57
-5.21
-5.82
-6.35
-6.75
-7.07
-7.35
-7.64
-7.98
-8.33
-8.66
-8.91
-8.98
-8.78
-8.21
-7.24
-5.92
-4.42
-2.94
-1.64
-0.58
0.23
0.85
1.34
1.75
2.11
2.47
2.86
3.28
3.74
4.2
4.61
4.95
5.21
5.4
5.5
5.49
5.32
4.98
4.5
3.92
3.31
2.7
2.1
1.55
1.07
0.67
0.4
0.23
0.14
0.08
-0
-0.15
-0.42
-0.93
-1.77
-2.98
-4.49
-6.08
-7.48
-8.45
-8.8
-8.49
-7.54
-6.04
-4.13
-1.98
0.17
2.12
3.73
4.99
5.97
6.77
7.44
7.94
8.2
8.16
7.85
7.41
6.99
6.76
6.74
6.87
7.03
7.05
6.83
6.38
5.75
5.02
4.29
3.55
2.79
1.94
1
-0
-0.95
-1.73
-2.24
-2.49
-2.6
-2.78
-3.27
-4.22
-5.65
-7.39
-9.15
-10.59
-11.41
-11.43
-10.63
-9.13
-7.18
-5.08
-3.14
-1.51
-0.26
0.69
1.5
2.29
3.12
3.94
4.64
5.12
5.36
5.42
5.45
5.61
6.01
6.63
7.37
8.01
8.39
8.43
8.12
7.53
6.76
5.86
4.86
3.78
2.7
1.69
0.81
0.08
-0.56
-1.17
-1.82
-2.57
-3.46
-4.51
-5.74
-7.15
-8.75
-10.48
-12.22
-13.82
-15.03
-15.6
-15.39
-14.36
-12.68
-10.63
-8.52
-6.57
-4.85
-3.3
-1.81
-0.32
1.16
2.53
3.72
4.66
5.39
5.95
6.41
6.77
7
7.08
6.98
6.73
6.41
6.13
5.94
5.83
5.73
5.51
5.05
4.33
3.42
2.45
1.57
0.87
0.36
-0.04
-0.43
-0.93
-1.59
-2.36
-3.14
-3.76
-4.15
-4.38
-4.62
-5.11
-6.04
-7.45
-9.23
-11.12
-12.83
-14.04
-14.52
-14.12
-12.83
-10.8
-8.28
-5.62
-3.09
-0.93
0.8
2.08
2.97
3.52
3.8
3.94
4.13
4.55
5.3
6.35
7.53
8.6
9.38
9.8
9.98
10.14
10.51
11.18
12.04
12.78
13.04
12.67
11.71
10.5
9.46
8.83
8.69
8.88
9.2
9.4
9.26
8.52
6.96
4.5
1.34
-1.98
-4.83
-6.69
-7.46
-7.49
-7.36
-7.6
-8.41
-9.63
-10.91
-11.9
-12.35
-12.17
-11.36
-10.01
-8.24
-6.25
-4.24
-2.37
-0.75
0.6
1.68
2.47
2.93
3.07
2.96
2.75
2.59
2.59
2.74
2.95
3.12
3.14
3.02
2.86
2.79
2.96
3.44
4.23
5.23
6.31
7.32
8.07
8.4
8.15
7.29
5.96
4.45
3.14
2.3
2.02
2.12
2.33
2.41
2.3
2.13
2.03
2.04
2.02
1.77
1.14
0.13
-1.13
-2.45
-3.68
-4.77
-5.69
-6.39
-6.74
-6.58
-5.81
-4.44
-2.62
-0.62
1.26
2.8
3.89
4.55
4.9
5.08
5.19
5.26
5.35
5.47
5.66
5.93
6.26
6.55
6.68
6.59
6.32
6.01
5.83
5.85
5.99
6.03
5.72
4.91
3.62
2.08
0.58
-0.61
-1.38
-1.82
-2.12
-2.49
-3.06
-3.84
-4.77
-5.74
-6.65
-7.45
-8.12
-8.71
-9.32
-10.06
-11.02
-12.22
-13.52
-14.67
-15.32
-15.14
-13.98
-11.89
-9.12
-6.07
-3.16
-0.67
1.28
2.76
3.97
5.07
6.14
7.05
7.64
7.72
7.3
6.55
5.77
5.23
5.07
5.24
5.58
5.9
6.07
6.07
5.9
5.56
5.03
4.26
3.25
2.07
0.85
-0.29
-1.23
-1.97
-2.57
-3.11
-3.63
-4.13
-4.59
-4.99
-5.43
-6.02
-6.83
-7.83
-8.84
-9.62
-10.02
-10.1
-10.14
-10.47
-11.27
-12.41
-13.47
-13.92
-13.37
-11.72
-9.24
-6.42
-3.79
-1.74
-0.42
0.24
0.48
0.59
0.8
1.23
1.83
2.49
3.06
3.49
3.82
4.15
4.54
4.99
5.44
5.79
6.01
6.09
6.05
5.93
5.75
5.55
5.37
5.21
5.02
4.69
4.15
3.35
2.37
1.31
0.21
-0.93
-2.22
-3.78
-5.62
-7.62
-9.55
-11.18
-12.38
-13.18
-13.77
-14.4
-15.31
-16.58
-18.21
-20.03
-21.84
-23.44
-24.69
-25.45
-25.64
-25.16
-23.97
-22.05
-19.49
-16.47
-13.25
-10.13
-7.46
-5.55
-4.6
-4.54
-4.99
-5.27
-4.52
-2
2.67
9.34
17.32
25.6
33.12
39.13
43.26
45.57
46.38
46.14
45.24
43.86
41.98
39.38
35.82
31.29
26.04
20.63
15.64
11.51
8.29
5.71
3.38
1.08
-1.13
-2.94
-4.02
-4.3
-4.01
-3.71
-3.96
-5.17
-7.38
-10.28
-13.34
-15.93
-17.52
-17.79
-16.67
-14.32
-11.12
-7.57
-4.27
-1.7
-0.16
0.36
0.24
0.04
0.27
1.18
2.64
4.22
5.46
6.07
6.05
5.62
5.01
4.37
3.67
2.86
1.98
1.21
0.88
1.23
2.32
3.9
5.52
6.69
7.04
6.45
5.03
3.09
0.95
-1.11
-2.95
-4.56
-5.93
-7.09
-8
-8.66
-9.15
-9.68
-10.49
-11.75
-13.45
-15.27
-16.78
-17.54
-17.3
-16.05
-13.98
-11.36
-8.52
-5.71
-3.17
-1.07
0.51
1.65
2.55
3.45
4.51
5.76
7.02
8.05
8.66
8.78
8.49
7.95
7.32
6.68
6.07
5.51
5.04
4.69
4.49
4.39
4.27
3.99
3.38
2.39
1.06
-0.47
-2.04
-3.49
-4.78
-5.92
-7.01
-8.15
-9.44
-10.87
-12.39
-13.87
-15.1
-15.89
-16.05
-15.45
-14.08
-12.02
-9.43
-6.58
-3.72
-1.13
0.97
2.42
3.21
3.42
3.25
2.92
2.63
2.53
2.7
3.17
3.92
4.84
5.78
6.52
6.89
6.8
6.32
5.59
4.8
4.05
3.36
2.68
1.95
1.12
0.22
-0.68
-1.52
-2.29
-3.03
-3.8
-4.69
-5.72
-6.91
-8.26
-9.76
-11.38
-13.05
-14.6
-15.83
-16.5
-16.43
-15.58
-14.09
-12.17
-10.06
-7.94
-5.88
-3.91
-2.03
-0.24
1.42
2.93
4.28
5.48
6.55
7.5
8.29
8.96
9.58
10.26
11.1
12.07
13.02
13.67
13.79
13.32
12.4
11.35
10.41
9.71
9.2
8.7
8.1
7.35
6.55
5.79
5.07
4.3
3.36
2.21
0.87
-0.53
-1.92
-3.27
-4.61
-5.99
-7.35
-8.5
-9.17
-9.1
-8.21
-6.59
-4.55
-2.43
-0.52
1.06
2.39
3.6
4.82
6.07
7.23
8.15
8.72
8.95
8.99
9.03
9.23
9.6
9.98
10.15
9.92
9.27
8.33
7.34
6.51
5.93
5.52
5.12
4.57
3.74
2.64
1.34
-0.03
-1.35
-2.51
-3.47
-4.26
-4.97
-5.7
-6.55
-7.53
-8.61
-9.7
-10.74
-11.64
-12.28
-12.51
-12.16
-11.12
-9.41
-7.23
-4.88
-2.68
-0.8
0.71
1.99
3.16
4.31
5.44
6.48
7.42
8.26
9.05
9.81
10.54
11.2
11.73
12.05
12.15
12.02
11.72
11.28
10.79
10.29
9.81
9.35
8.88
8.38
7.81
7.16
6.44
5.68
4.91
4.14
3.37
2.53
1.6
0.54
-0.6
-1.74
-2.79
-3.72
-4.53
-5.26
-5.89
-6.37
-6.65
-6.75
-6.84
-7.22
-8.16
-9.76
-11.87
-14.08
-15.86
-16.8
-16.69
-15.58
-13.73
-11.48
-9.14
-6.96
-5.06
-3.5
-2.25
-1.23
-0.31
0.59
1.55
2.52
3.48
4.34
5.07
5.66
6.14
6.52
6.84
7.08
7.24
7.33
7.31
7.19
6.93
6.59
6.26
6.05
6.07
6.34
6.77
7.22
7.55
7.67
7.58
7.35
7.01
6.57
6
5.27
4.45
3.65
3.05
2.72
2.65
2.63
2.43
1.81
0.68
-0.86
-2.58
-4.2
-5.45
-6.21
-6.45
-6.25
-5.68
-4.82
-3.73
-2.46
-1.1
0.23
1.39
2.31
2.96
3.39
3.7
3.97
4.27
4.6
4.94
5.29
5.64
5.98
6.3
6.55
6.66
6.58
6.32
5.91
5.39
4.83
4.25
3.68
3.14
2.62
2.13
1.6
1.01
0.32
-0.44
-1.22
-1.94
-2.56
-3.14
-3.72
-4.4
-5.16
-5.98
-6.77
-7.49
-8.13
-8.74
-9.37
-10.04
-10.76
-11.47
-12.1
-12.52
-12.62
-12.28
-11.45
-10.16
-8.49
-6.59
-4.63
-2.75
-1.05
0.44
1.71
2.79
3.72
4.55
5.3
5.94
6.38
6.54
6.39
5.98
5.49
5.11
4.96
5.08
5.37
5.7
5.97
6.15
6.3
6.44
6.54
6.46
6.1
5.38
4.33
3.14
1.99
1.07
0.44
0.12
0.05
0.15
0.26
0.25
-0.01
-0.56
-1.32
-2.13
-2.8
-3.22
-3.43
-3.57
-3.89
-4.61
-5.93
-7.87
-10.31
-12.99
-15.6
-17.81
-19.37
-20.13
-20.07
-19.23
-17.71
-15.66
-13.23
-10.62
-8.04
-5.66
-3.6
-1.87
-0.38
1
2.38
3.81
5.2
6.4
7.29
7.82
8.07
8.19
8.35
8.59
8.84
8.93
8.74
8.27
7.64
7.05
6.63
6.41
6.26
6.03
5.59
4.94
4.15
3.36
2.65
2.1
1.7
1.42
1.2
0.97
0.62
0.11
-0.55
-1.25
-1.8
-2.03
-1.91
-1.56
-1.22
-1.19
-1.64
-2.63
-4.08
-5.83
-7.69
-9.52
-11.19
-12.6
-13.62
-14.11
-13.94
-13.01
-11.38
-9.26
-6.98
-4.91
-3.33
-2.32
-1.77
-1.43
-1.08
-0.64
-0.15
0.29
0.62
0.9
1.3
1.94
2.84
3.89
4.86
5.58
6.02
6.3
6.62
7.12
7.77
8.35
8.6
8.34
7.58
6.51
5.39
4.48
3.87
3.55
3.4
3.32
3.22
3.07
2.86
2.58
2.19
1.67
1.07
0.45
-0.09
-0.43
-0.57
-0.55
-0.54
-0.77
-1.45
-2.71
-4.48
-6.5
-8.37
-9.68
-10.12
-9.6
-8.22
-6.25
-4.01
-1.84
0.05
1.5
2.51
3.13
3.49
3.72
3.93
4.15
4.38
4.6
4.86
5.21
5.7
6.28
6.81
7.11
7.06
6.73
6.25
5.81
5.5
5.28
5.01
4.59
4.03
3.43
2.92
2.54
2.21
1.8
1.17
0.31
-0.7
-1.69
-2.52
-3.12
-3.51
-3.79
-4.08
-4.52
-5.12
-5.86
-6.62
-7.3
-7.86
-8.32
-8.87
-9.68
-10.92
-12.56
-14.45
-16.26
-17.64
-18.29
-18.05
-16.93
-15.11
-12.83
-10.39
-8.06
-6.05
-4.45
-3.24
-2.31
-1.48
-0.63
0.28
1.2
2.01
2.65
3.1
3.45
3.79
4.19
4.64
5.11
5.54
5.91
6.23
6.51
6.7
6.72
6.5
5.98
5.19
4.25
3.31
2.53
1.97
1.62
1.36
1.09
0.73
0.29
-0.18
-0.58
-0.89
-1.08
-1.16
-1.15
-1.07
-0.97
-0.92
-1.02
-1.31
-1.79
-2.36
-2.9
-3.29
-3.56
-3.95
-4.76
-6.35
-8.81
-11.9
-15.03
-17.47
-18.63
-18.31
-16.8
-14.63
-12.38
-10.41
-8.77
-7.32
-5.91
-4.48
-3.06
-1.72
-0.44
0.89
2.35
3.92
5.43
6.61
7.23
7.29
6.99
6.72
6.83
7.5
8.62
9.84
10.75
11
10.5
9.37
7.89
6.39
5.16
4.4
4.16
4.4
5
5.79
6.61
7.36
7.94
8.29
8.37
8.17
7.62
6.61
4.95
2.44
-0.92
-4.9
-8.96
-12.43
-14.78
-15.88
-15.96
-15.5
-14.91
-14.29
-13.49
-12.24
-10.41
-8.1
-5.55
-3.07
-0.89
0.79
1.71
1.54
-0.02
-3.04
-7.17
-11.63
-15.41
-17.55
-17.52
-15.34
-11.5
-6.78
-2.02
2.19
5.5
7.86
9.46
10.57
11.46
12.36
13.4
14.63
15.97
17.27
18.21
18.46
17.77
16.14
13.91
11.65
9.97
9.32
9.8
11.21
13.18
15.31
17.21
18.54
18.87
17.76
14.83
9.96
3.45
-4.02
-11.49
-17.95
-22.56
-24.89
-24.96
-23.24
-20.45
-17.27
-14.12
-10.99
-7.51
-3.26
1.9
7.65
13.29
18.06
21.51
23.72
25.17
26.39
27.5
28.08
27.39
24.87
20.51
14.95
9.08
3.68
-0.91
-4.67
-7.6
-9.5
-10.05
-9.1
-6.93
-4.28
-2.04
-0.82
-0.71
-1.39
-2.37
-3.41
-4.47
-5.57
-6.62
-7.34
-7.5
-7.1
-6.49
-6.14
-6.25
-6.58
-6.41
-4.96
-1.78
3.03
9.02
15.71
22.87
30.4
38.01
44.82
49.41
50.45
47.46
41.24
33.63
26.55
21.15
17.43
14.64
12.15
10.05
8.98
9.39
10.67
10.97
7.86
-0.23
-12.93
-27.63
-40.33
-47.38
-46.99
-39.97
-29.26
-18.48
-10.37
-5.88
-4.39
-4.77
-6.41
-9.51
-14.6
-21.63
-29.63
-37.1
-42.97
-47.18
-50.48
-53.42
-55.42
-54.75
-49.63
-39.84
-27.53
-16.55
-10.52
-10.83
-15.9
-22.09
-25.78
-25.23
-21.29
-16.55
-13.76
-14.3
-17.61
-21.74
-24.48
-24.54
-22.11
-18.64
-16.02
-15.61
-17.72
-21.5
-25.62
-28.86
-30.57
-30.71
-29.45
-26.78
-22.49
-16.37
-8.57
0.28
9.24
17.39
24.24
29.69
33.94
37.27
40
42.53
45.33
48.89
53.38
58.51
63.47
67.09
68.22
66.15
60.92
53.42
45.2
38
33.06
30.58
29.56
28.22
24.75
18.24
9.1
-1.15
-10.5
-17.42
-21.39
-22.88
-23.04
-23.02
-23.58
-24.9
-26.74
-28.61
-30.03
-30.56
-29.93
-28.02
-24.94
-21.03
-16.8
-12.86
-9.74
-7.79
-7.11
-7.52
-8.67
-10.05
-11.14
-11.49
-10.8
-8.95
-6
-2.15
2.29
6.95
11.46
15.51
18.85
21.34
22.9
23.47
23.03
21.6
19.27
16.17
12.54
8.62
4.67
0.84
-2.73
-5.96
-8.75
-11.06
-12.88
-14.23
-15.13
-15.5
-15.19
-13.97
-11.74
-8.57
-4.8
-0.87
2.8
6.02
8.87
11.59
14.48
17.72
21.36
25.33
29.53
33.76
37.53
40.12
40.68
38.6
33.94
27.49
20.59
14.59
10.3
7.77
6.43
5.5
4.41
3.02
1.51
0.15
-0.92
-1.72
-2.34
-2.84
-3.2
-3.38
-3.34
-3.1
-2.76
-2.47
-2.41
-2.85
-4.02
-6.03
-8.72
-11.61
-14.04
-15.47
-15.75
-15.34
-15.07
-15.72
-17.56
-20.15
-22.56
-23.84
-23.65
-22.44
-21.21
-20.96
-22.08
-24.13
-26.01
-26.49
-24.71
-20.54
-14.68
-8.4
-3.13
-0.02
0.39
-1.61
-5.03
-8.58
-11.18
-12.45
-12.81
-13.35
-15.27
-19.35
-25.56
-32.98
-40.17
-45.63
-48.3
-47.77
-44.32
-38.69
-31.82
-24.74
-18.32
-13.19
-9.53
-6.99
-4.8
-2.02
2.03
7.41
13.51
19.27
23.69
26.27
27.17
27.2
27.37
28.53
31.01
34.53
38.44
41.94
44.45
45.67
45.58
44.24
41.7
37.95
33.11
27.53
21.85
16.8
13.04
10.89
10.36
11.2
12.99
15.25
17.44
19.08
19.82
19.61
18.69
17.41
16.09
14.81
13.46
11.89
10.14
8.41
7.04
6.26
6.08
6.29
6.63
6.91
7.01
6.9
6.49
5.65
4.26
2.35
0.13
-2.02
-3.7
-4.66
-4.9
-4.62
-4.16
-3.82
-3.77
-4.03
-4.52
-5.13
-5.72
-6.24
-6.62
-6.84
-6.95
-7.02
-7.16
-7.49
-8.08
-8.93
-9.89
-10.78
-11.34
-11.35
-10.7
-9.4
-7.6
-5.51
-3.36
-1.33
0.49
2.07
3.46
4.66
5.67
6.46
6.96
7.15
7.1
6.96
6.9
7.07
7.45
7.9
8.18
8.13
7.68
6.93
6.08
5.3
4.64
4.08
3.53
2.98
2.45
2.01
1.65
1.32
0.86
0.17
-0.74
-1.71
-2.56
-3.16
-3.53
-3.83
-4.24
-4.86
-5.62
-6.39
-7.03
-7.53
-7.94
-8.4
-9.01
-9.85
-10.92
-12.22
-13.66
-15.09
-16.3
-16.99
-16.94
-16.03
-14.33
-12.08
-9.59
-7.17
-5.06
-3.37
-2.07
-1.07
-0.22
0.58
1.39
2.17
2.89
3.46
3.84
3.99
3.91
3.62
3.22
2.84
2.64
2.71
3.02
3.39
3.56
3.37
2.81
2.12
1.62
1.65
2.3
3.47
4.83
5.99
6.7
6.87
6.66
6.29
5.99
5.79
5.58
5.09
4.14
2.68
0.92
-0.86
-2.4
-3.66
-4.82
-6.18
-7.97
-10.14
-12.37
-14.14
-15.01
-14.77
-13.6
-11.9
-10.11
-8.53
-7.15
-5.75
-4.04
-1.87
0.65
3.2
5.34
6.76
7.43
7.6
7.69
8.02
8.63
9.24
9.45
8.95
7.73
6.08
4.43
3.13
2.23
1.49
0.48
-1.19
-3.7
-6.89
-10.34
-13.53
-16
-17.48
-17.98
-17.64
-16.75
-15.59
-14.45
-13.6
-13.15
-12.88
-12.1
-9.91
-5.53
1.07
8.98
16.5
21.8
23.75
22.3
18.46
13.69
9.29
5.94
3.64
1.94
0.26
-1.8
-4.46
-7.62
-10.97
-14.02
-16.31
-17.65
-18.26
-18.61
-19.15
-19.95
-20.55
-20.13
-17.81
-12.96
-5.41
4.44
15.58
26.44
35.14
39.93
39.91
35.45
28.24
20.61
14.43
10.36
7.7
5.12
1.71
-2.32
-5.75
-7.05
-5.23
-0.36
6.39
13.28
18.58
21.01
20.1
16.23
10.54
4.61
-0.14
-3.04
-4.43
-5.44
-7.33
-10.72
-15.19
-19.36
-21.53
-20.36
-15.45
-7.58
1.51
9.56
14.46
14.98
11.27
4.87
-1.92
-6.96
-9.29
-9.52
-9.24
-9.98
-12.18
-14.89
-16.31
-14.93
-10.27
-3.06
5.29
13.4
20.34
25.52
28.44
28.62
25.82
20.44
13.62
6.87
1.28
-2.95
-6.46
-9.96
-13.36
-15.54
-14.86
-10.26
-2.15
7.54
16.11
21.41
22.6
20.27
15.83
10.66
5.66
1.26
-2.26
-4.59
-5.52
-5.26
-4.59
-4.6
-6.15
-9.34
-13.45
-17.34
-19.96
-20.9
-20.28
-18.56
-16.15
-13.32
-10.27
-7.31
-4.9
-3.52
-3.39
-4.26
-5.51
-6.39
-6.39
-5.55
-4.44
-3.87
-4.43
-6.17
-8.34
-9.69
-8.92
-5.19
1.45
10.04
18.98
26.46
31.09
32.29
30.44
26.77
22.84
20.02
18.94
19.29
19.94
19.58
17.26
12.82
6.98
0.87
-4.49
-8.59
-11.55
-13.87
-15.97
-17.91
-19.43
-20.1
-19.71
-18.42
-16.7
-15.09
-13.8
-12.67
-11.24
-9.11
-6.21
-2.87
0.3
2.76
4.23
4.83
4.94
5
5.32
6
6.95
7.96
8.84
9.47
9.86
10.09
10.23
10.34
10.38
10.24
9.83
9.11
8.11
6.97
5.8
4.69
3.7
2.84
2.1
1.42
0.76
0.04
-0.82
-1.88
-3.13
-4.51
-5.9
-7.13
-8.06
-8.59
-8.75
-8.68
-8.6
-8.72
-9.13
-9.73
-10.31
-10.6
-10.41
-9.69
-8.5
-6.95
-5.13
-3.14
-1.1
0.84
2.52
3.81
4.7
5.31
5.81
6.35
6.96
7.59
8.14
8.57
8.88
9.12
9.3
9.4
9.36
9.15
8.79
8.36
7.94
7.56
7.2
6.84
6.44
6.04
5.66
5.35
5.09
4.88
4.74
4.7
4.79
4.97
5.16
5.21
5.02
4.56
3.91
3.2
2.52
1.91
1.29
0.6
-0.2
-1.09
-1.99
-2.86
-3.68
-4.49
-5.34
-6.27
-7.23
-8.07
-8.59
-8.61
-7.99
-6.72
-4.95
-2.94
-0.97
0.73
2.06
3.07
3.91
4.69
5.44
6.07
6.43
6.43
6.08
5.52
4.92
4.43
4.1
3.93
3.84
3.8
3.82
3.88
3.92
3.81
3.37
2.46
1.1
-0.58
-2.34
-3.95
-5.31
-6.4
-7.34
-8.23
-9.08
-9.85
-10.47
-10.9
-11.16
-11.26
-11.24
-11.08
-10.79
-10.43
-10.15
-10.11
-10.41
-10.95
-11.51
-11.73
-11.35
-10.25
-8.56
-6.57
-4.6
-2.91
-1.6
-0.63
0.18
0.97
1.83
2.71
3.5
4.04
4.25
4.15
3.88
3.65
3.6
3.76
4
4.12
3.98
3.58
3.02
2.47
2.01
1.6
1.09
0.37
-0.6
-1.71
-2.78
-3.61
-4.15
-4.39
-4.47
-4.51
-4.65
-4.95
-5.46
-6.17
-7.03
-8.04
-9.14
-10.28
-11.39
-12.33
-12.92
-13
-12.47
-11.34
-9.76
-7.94
-6.12
-4.45
-2.96
-1.59
-0.25
1.07
2.34
3.42
4.22
4.7
4.95
5.15
5.44
5.88
6.41
6.89
7.16
7.12
6.75
6.13
5.38
4.61
3.9
3.28
2.74
2.26
1.8
1.32
0.76
0.08
-0.7
-1.55
-2.42
-3.3
-4.16
-5.02
-5.88
-6.76
-7.69
-8.71
-9.84
-11.1
-12.43
-13.66
-14.55
-14.79
-14.18
-12.67
-10.41
-7.69
-4.85
-2.17
0.2
2.21
3.92
5.37
6.6
7.56
8.19
8.48
8.44
8.18
7.81
7.47
7.25
7.19
7.26
7.39
7.48
7.47
7.38
7.27
7.23
7.28
7.41
7.53
7.51
7.25
6.68
5.73
4.43
2.84
1.09
-0.65
-2.19
-3.38
-4.12
-4.4
-4.32
-4.08
-3.9
-4.02
-4.57
-5.54
-6.75
-7.87
-8.57
-8.6
-7.92
-6.71
-5.27
-3.93
-2.91
-2.27
-1.93
-1.73
-1.54
-1.32
-1.1
-0.95
-0.86
-0.76
-0.5
0.05
0.9
1.96
3.09
4.19
5.24
6.33
7.55
8.91
10.34
11.7
12.84
13.68
14.19
14.37
14.15
13.47
12.26
10.55
8.46
6.19
3.93
1.82
-0.09
-1.84
-3.5
-5.18
-6.96
-8.85
-10.79
-12.58
-13.96
-14.64
-14.44
-13.39
-11.74
-9.87
-8.14
-6.79
-5.83
-5.12
-4.48
-3.75
-2.87
-1.86
-0.79
0.31
1.39
2.42
3.38
4.21
4.91
5.44
5.87
6.22
6.56
6.91
7.21
7.4
7.4
7.17
6.76
6.24
5.67
5.13
4.66
4.24
3.89
3.55
3.18
2.68
2.02
1.18
0.22
-0.76
-1.68
-2.53
-3.33
-4.13
-4.95
-5.79
-6.64
-7.55
-8.55
-9.66
-10.77
-11.65
-12.03
-11.7
-10.64
-9.02
-7.16
-5.37
-3.82
-2.53
-1.4
-0.28
0.9
2.15
3.34
4.37
5.13
5.59
5.8
5.87
5.95
6.12
6.43
6.81
7.17
7.38
7.34
7.01
6.43
5.77
5.19
4.82
4.63
4.51
4.28
3.81
3.13
2.34
1.65
1.13
0.8
0.52
0.18
-0.3
-0.89
-1.5
-2.06
-2.54
-2.96
-3.32
-3.64
-3.9
-4.11
-4.36
-4.72
-5.31
-6.13
-7.09
-7.99
-8.58
-8.64
-8.03
-6.69
-4.72
-2.34
0.12
2.34
4.03
5.12
5.7
5.98
6.2
6.5
6.87
7.2
7.41
7.5
7.55
7.65
7.79
7.87
7.75
7.32
6.63
5.85
5.18
4.73
4.43
4.11
3.59
2.78
1.73
0.65
-0.24
-0.74
-0.79
-0.51
-0.11
0.11
-0.05
-0.64
-1.47
-2.29
-2.82
-3.01
-3
-3.1
-3.62
-4.69
-6.24
-7.99
-9.58
-10.71
-11.19
-10.95
-10
-8.49
-6.67
-4.78
-3.08
-1.77
-0.96
-0.63
-0.67
-0.84
-0.79
-0.14
1.41
3.9
7.13
10.6
13.7
15.88
16.85
16.6
15.35
13.44
11.2
8.85
6.52
4.27
2.2
0.4
-1
-1.95
-2.44
-2.63
-2.69
-2.85
-3.24
-3.91
-4.8
-5.75
-6.59
-7.19
-7.51
-7.59
-7.58
-7.64
-7.87
-8.28
-8.82
-9.36
-9.79
-10.04
-10.06
-9.83
-9.3
-8.43
-7.19
-5.65
-3.9
-2.12
-0.47
0.96
2.12
3.03
3.74
4.26
4.62
4.82
4.92
4.94
5
5.14
5.38
5.65
5.84
5.87
5.71
5.39
5.02
4.64
4.24
3.76
3.11
2.31
1.45
0.71
0.21
0
-0.04
-0.09
-0.33
-0.83
-1.57
-2.44
-3.33
-4.13
-4.77
-5.23
-5.57
-5.85
-6.18
-6.64
-7.26
-8.01
-8.79
-9.56
-10.27
-10.88
-11.31
-11.44
-11.1
-10.21
-8.82
-7.15
-5.49
-4.05
-2.86
-1.77
-0.58
0.83
2.39
3.87
5.06
5.79
6.09
6.09
5.94
5.75
5.6
5.53
5.61
5.91
6.44
7.11
7.73
8.11
8.12
7.75
7.11
6.35
5.6
4.91
4.25
3.57
2.84
2.07
1.33
0.69
0.22
-0.08
-0.27
-0.45
-0.71
-1.09
-1.56
-2.01
-2.34
-2.48
-2.46
-2.36
-2.32
-2.41
-2.68
-3.14
-3.74
-4.47
-5.22
-5.87
-6.23
-6.14
-5.46
-4.2
-2.47
-0.54
1.3
2.82
3.91
4.63
5.16
5.69
6.37
7.19
8
8.54
8.62
8.16
7.27
6.18
5.14
4.36
3.89
3.68
3.59
3.5
3.32
3.06
2.75
2.41
2.02
1.53
0.89
0.16
-0.52
-0.97
-1.07
-0.81
-0.33
0.12
0.35
0.23
-0.2
-0.82
-1.5
-2.16
-2.76
-3.35
-3.97
-4.67
-5.45
-6.28
-7.13
-7.94
-8.66
-9.23
-9.56
-9.57
-9.14
-8.22
-6.77
-4.88
-2.74
-0.59
1.29
2.71
3.64
4.14
4.39
4.56
4.74
4.95
5.15
5.31
5.39
5.43
5.43
5.38
5.25
5.02
4.7
4.3
3.86
3.39
2.88
2.31
1.69
0.99
0.24
-0.57
-1.42
-2.31
-3.18
-3.99
-4.66
-5.18
-5.59
-5.97
-6.37
-6.77
-7.15
-7.46
-7.74
-8.08
-8.63
-9.47
-10.61
-11.91
-13.14
-14.03
-14.39
-14.11
-13.22
-11.86
-10.2
-8.47
-6.83
-5.37
-4.09
-2.88
-1.62
-0.22
1.3
2.83
4.19
5.27
6.01
6.47
6.74
6.86
6.86
6.71
6.43
6.1
5.85
5.78
5.9
6.11
6.25
6.16
5.8
5.22
4.52
3.84
3.26
2.8
2.41
2.02
1.57
1.03
0.41
-0.25
-0.92
-1.57
-2.21
-2.91
-3.73
-4.74
-5.98
-7.48
-9.21
-11.1
-12.98
-14.64
-15.81
-16.29
-15.99
-15.03
-13.63
-12.06
-10.52
-9.04
-7.55
-5.96
-4.25
-2.55
-1.03
0.13
0.85
1.17
1.21
1.1
0.94
0.81
0.81
1.01
1.45
2.1
2.9
3.82
4.94
6.38
8.19
10.28
12.43
14.41
16.08
17.41
18.42
19.02
19.02
18.25
16.67
14.5
12.13
9.95
8.18
6.82
5.77
4.91
4.23
3.77
3.5
3.33
3.1
2.61
1.73
0.43
-1.25
-3.13
-5
-6.64
-7.84
-8.51
-8.63
-8.21
-7.31
-6
-4.4
-2.71
-1.16
0.1
1.02
1.71
2.27
2.76
3.17
3.45
3.69
4.09
4.89
6.18
7.75
9.18
10.02
10.05
9.41
8.48
7.64
7.02
6.51
5.85
4.87
3.58
2.17
0.83
-0.34
-1.38
-2.4
-3.48
-4.63
-5.83
-7.06
-8.32
-9.55
-10.64
-11.45
-11.87
-11.84
-11.46
-10.81
-9.92
-8.71
-7.03
-4.7
-1.66
2.03
6.17
10.43
14.4
17.62
19.67
20.37
19.8
18.33
16.52
14.84
13.55
12.65
11.98
11.41
10.89
10.47
10.13
9.75
9.11
8.02
6.51
4.84
3.42
2.6
2.52
3.03
3.77
4.31
4.36
3.89
3.15
2.53
2.46
3.14
4.55
6.33
8.03
9.23
9.81
10.02
10.46
11.9
14.97
19.93
26.43
33.55
40.05
44.77
47.09
47.25
46.35
46.13
48.41
54.42
64.15
75.94
86.44
91.26
86.03
67.9
36.68
-4.64
-50.51
-94.3
-130.17
-154.38
-165.83
-165.58
-155.96
-139.73
-119.66
-98.5
-79.04
-63.93
-55.24
-53.8
-58.75
-67.63
-76.89
-82.92
-83.08
-76.3
-63.32
-46.19
-27.48
-9.37
6.95
21.4
34.48
46.64
57.84
67.43
74.6
78.88
80.68
81.31
82.8
87.17
95.77
108.71
124.48
140.11
151.8
155.94
150.09
133.65
107.96
75.84
40.73
5.9
-26.24
-54.65
-79.86
-103.73
-128.61
-156.17
-186.22
-216.05
-240.83
-255.14
-254.96
-239.44
-211.26
-175.7
-138.73
-105.15
-77.58
-56.61
-41.57
-31.41
-25.14
-21.75
-19.85
-17.67
-13.44
-6.1
4.09
15.52
25.95
33.6
38.11
40.74
43.73
49.22
57.97
68.95
79.74
87.71
91.25
90.44
86.79
82.22
78.08
74.65
71.37
67.61
63.27
58.94
55.39
53.02
51.41
49.51
46.21
40.86
33.64
25.45
17.44
10.56
5.27
1.55
-0.85
-2.22
-2.68
-2.23
-0.89
1.12
3.41
5.48
6.94
7.59
7.52
6.96
6.23
5.53
4.94
4.41
3.82
3.16
2.48
1.91
1.58
1.51
1.58
1.58
1.3
0.64
-0.41
-1.8
-3.5
-5.51
-7.76
-10
-11.76
-12.5
-11.86
-9.85
-6.96
-3.97
-1.67
-0.55
-0.67
-1.67
-3.02
-4.25
-5.07
-5.43
-5.43
-5.18
-4.79
-4.31
-3.73
-3.06
-2.29
-1.33
0.06
2.24
5.55
10.07
15.55
21.38
26.78
31.13
34.09
35.62
35.86
34.9
32.78
29.54
25.39
20.76
16.23
12.35
9.43
7.52
6.47
6.06
6.06
6.27
6.5
6.57
6.32
5.68
4.65
3.3
1.7
-0.03
-1.77
-3.35
-4.59
-5.35
-5.68
-5.77
-5.95
-6.47
-7.36
-8.41
-9.3
-9.72
-9.6
-9.08
-8.44
-7.9
-7.56
-7.36
-7.13
-6.78
-6.3
-5.74
-5.21
-4.78
-4.49
-4.32
-4.29
-4.41
-4.69
-5.1
-5.59
-6.02
-6.28
-6.26
-6.02
-5.67
-5.42
-5.46
-5.85
-6.51
-7.26
-7.87
-8.19
-8.15
-7.76
-7.04
-5.99
-4.64
-3.07
-1.43
0.08
1.26
2.04
2.45
2.65
2.79
3
3.32
3.68
3.97
4.07
3.91
3.55
3.12
2.79
2.66
2.73
2.89
3.01
3.03
2.93
2.77
2.58
2.33
1.93
1.34
0.6
-0.1
-0.59
-0.75
-0.62
-0.36
-0.15
-0.16
-0.41
-0.91
-1.64
-2.56
-3.62
-4.71
-5.64
-6.18
-6.16
-5.56
-4.48
-3.06
-1.45
0.27
1.96
3.46
4.53
5
4.87
4.29
3.57
2.97
2.63
2.51
2.48
2.42
2.28
2.15
2.07
2.08
2.15
2.28
2.48
2.77
3.13
3.44
3.52
3.16
2.32
1.09
-0.32
-1.66
-2.79
-3.65
-4.27
-4.69
-4.92
-4.96
-4.85
-4.73
-4.78
-5.16
-5.89
-6.81
-7.6
-7.91
-7.46
-6.23
-4.43
-2.43
-0.62
0.74
1.6
2.09
2.37
2.57
2.73
2.81
2.77
2.62
2.4
2.18
2.01
1.93
1.95
2.06
2.19
2.29
2.22
1.94
1.48
0.97
0.54
0.31
0.22
0.15
-0.08
-0.54
-1.2
-1.9
-2.51
-2.98
-3.35
-3.72
-4.2
-4.79
-5.42
-5.98
-6.36
-6.52
-6.44
-6.16
-5.66
-4.95
-4.01
-2.88
-1.65
-0.44
0.61
1.42
1.97
2.3
2.43
2.39
2.18
1.81
1.34
0.87
0.55
0.43
0.5
0.62
0.63
0.44
0.03
-0.48
-0.91
-1.16
-1.22
-1.23
-1.36
-1.73
-2.35
-3.1
-3.81
-4.32
-4.63
-4.86
-5.16
-5.73
-6.64
-7.88
-9.32
-10.75
-11.91
-12.58
-12.55
-11.78
-10.34
-8.45
-6.39
-4.42
-2.7
-1.24
-0
1.09
2.05
2.86
3.44
3.77
3.87
3.81
3.75
3.81
4.03
4.37
4.69
4.82
4.68
4.3
3.81
3.37
3.04
2.78
2.48
2.03
1.38
0.6
-0.22
-1
-1.7
-2.32
-2.91
-3.44
-3.91
-4.31
-4.7
-5.16
-5.79
-6.66
-7.78
-9.03
-10.23
-11.15
-11.53
-11.19
-10.1
-8.38
-6.31
-4.24
-2.46
-1.1
-0.16
0.47
0.92
1.28
1.58
1.82
2.04
2.27
2.56
2.86
3.13
3.29
3.33
3.28
3.23
3.26
3.39
3.57
3.74
3.84
3.89
3.87
3.76
3.55
3.17
2.62
1.95
1.28
0.74
0.41
0.28
0.26
0.19
-0.06
-0.57
-1.38
-2.49
-3.9
-5.55
-7.37
-9.2
-10.76
-11.75
-11.92
-11.17
-9.65
-7.67
-5.62
-3.75
-2.22
-0.96
0.1
1.04
1.83
2.42
2.79
3.06
3.39
3.94
4.74
5.66
6.47
6.98
7.1
6.89
6.48
6
5.5
4.98
4.41
3.83
3.3
2.89
2.61
2.35
1.98
1.38
0.58
-0.29
-1.02
-1.47
-1.64
-1.69
-1.9
-2.5
-3.57
-4.98
-6.42
-7.56
-8.17
-8.12
-7.47
-6.32
-4.84
-3.16
-1.44
0.21
1.69
2.9
3.86
4.59
5.12
5.51
5.76
5.86
5.85
5.86
6.04
6.54
7.4
8.49
9.56
10.34
10.67
10.55
10.08
9.4
8.58
7.6
6.39
4.96
3.36
1.76
0.31
-0.88
-1.78
-2.44
-2.97
-3.52
-4.24
-5.24
-6.54
-7.97
-9.29
-10.23
-10.6
-10.32
-9.49
-8.23
-6.73
-5.09
-3.42
-1.83
-0.38
0.87
1.9
2.72
3.35
3.8
4.05
4.13
4.06
3.92
3.83
3.88
4.08
4.38
4.66
4.78
4.67
4.32
3.79
3.18
2.56
1.94
1.31
0.57
-0.3
-1.27
-2.27
-3.19
-3.96
-4.59
-5.15
-5.78
-6.59
-7.63
-8.9
-10.3
-11.71
-13.01
-14.03
-14.61
-14.6
-13.88
-12.46
-10.49
-8.28
-6.13
-4.37
-3.14
-2.44
-2.12
-1.95
-1.71
-1.26
-0.57
0.24
0.99
1.51
1.71
1.63
1.4
1.17
0.98
0.73
0.24
-0.69
-2.13
-4.01
-6.21
-8.55
-10.89
-12.96
-14.37
-14.63
-13.24
-9.88
-4.56
2.43
10.58
19.22
27.56
34.59
39.25
40.49
37.67
30.77
20.41
7.62
-6.45
-20.84
-34.9
-48.08
-59.84
-69.57
-76.63
-80.55
-81.09
-78.22
-72
-62.47
-49.88
-34.87
-18.63
-2.68
11.68
24.01
34.92
45.76
57.65
70.63
83.3
93.32
98.58
98.37
94.03
88.45
84.92
85.75
91.49
101.08
112.69
124.75
136.39
147.22
156.83
164.37
168.84
169.84
168.37
167.01
168.95
176.37
189
203.62
215.09
218.43
210.87
192.96
168.23
141.59
117.33
97.69
82.37
69.11
54.96
37.53
15.83
-9.62
-37.04
-64.03
-88.43
-109.06
-126.39
-142.94
-163.04
-191.64
-231.91
-282.89
-338.4
-388.03
-420.72
-428.97
-411.86
-374.99
-327.9
-280.2
-238.5
-205.09
-178.6
-155.4
-131.17
-102.33
-67.52
-29.05
6.8
31.27
36.83
21.33
-9.3
-42.28
-62.46
-58.53
-27.92
22.28
78.36
125.48
152.79
156.24
138.29
105.63
66.1
26.75
-6.94
-30.94
-42.7
-41.5
-29.21
-10.45
8.37
21.24
24.7
18.98
7.19
-6.59
-19.18
-29.24
-36.54
-40.97
-41.9
-38.79
-32.18
-24.5
-19.44
-19.99
-26.51
-36.32
-45.6
-52.3
-57.71
-65.71
-79.62
-98.82
-117.58
-127.47
-121.97
-100.63
-69.71
-38.59
-14.34
2.24
16.09
33.33
55.46
76.38
84.3
67.88
22.88
-44.64
-120.23
-186.98
-232.45
-252.81
-252.42
-239.83
-222.95
-205.86
-188.76
-169.98
-148.62
-126.05
-105.26
-89.03
-78.02
-70
-60.79
-46.21
-23.75
6.68
43.45
84.42
128.06
173.86
221.75
271.26
320.63
366.72
405.62
433.73
448.79
450.55
440.84
423.14
401.69
380.48
362.41
348.7
338.81
330.69
321.55
308.68
290.32
265.89
236.02
202.03
165.56
128.18
91.01
54.35
17.57
-20.63
-61.54
-105.55
-151.55
-196.56
-236.34
-266.86
-285.77
-293.21
-291.59
-284.56
-275.76
-267.73
-260.83
-253.25
-241.8
-223.24
-195.83
-160.02
-118.88
-76.09
-37.13
-7.06
11.62
19.83
21.24
19.66
17.23
13.67
7.23
-3.88
-20.22
-40.63
-62.44
-81.34
-91.74
-87.44
-64.44
-23.64
28.11
79.53
118.87
138.59
138.04
120.52
94.3
67.98
47.02
33.2
26.01
25.29
32.52
49.98
78.73
117.27
160.59
199.16
223.24
225.58
204.31
163.85
113.41
63.43
22.66
-5.07
-21.9
-31.36
-36.43
-38.49
-37.48
-33.11
-26.19
-17.9
-11.43
-10.14
-15.7
-27.61
-43.45
-59.9
-74
-83.8
-88.19
-86.78
-79.21
-64.98
-44.24
-18.13
11.44
42.13
71.46
96.83
115.14
122.9
117.52
98.7
69.64
36.81
7.8
-11.28
-17.6
-11.8
3.4
24.72
48.77
71.92
90.22
99.81
98.32
85.98
65.61
41.41
17.33
-4.67
-24.36
-41.94
-57.62
-71.13
-82.38
-92.12
-101.83
-112.95
-127.62
-148.3
-177.08
-215.73
-263.79
-317.34
-368.84
-408.75
-427.95
-422.2
-392.42
-342.67
-278.55
-205.07
-126.7
-48.85
21.13
75.76
107.91
115.05
107.57
99.94
106.43
134.39
180.8
228.69
268.18
294.08
304.87
301.12
285.35
259.04
224.45
186.21
151.48
129.02
123.61
133.95
153.07
170.51
177.02
168.46
146.81
117.87
88.2
60.33
32.98
3.5
-29.85
-66.28
-102.8
-136.11
-164.5
-188.3
-210.88
-237.45
-272.71
-318.61
-372.73
-427.53
-472.02
-495.21
-489.65
-454.54
-395.83
-323.97
-250.68
-186.04
-136.37
-103.47
-84.87
-74.71
-65.55
-50.48
-25.22
10.15
50.85
88.87
115.98
127.03
121.87
105.37
85.24
68.93
60.86
61.35
67.56
75.46
81.97
85.78
87.05
86.56
85.12
83.77
84.15
88.41
98.27
113.93
133.62
153.88
170.65
180.57
181.72
173.88
158.15
136.4
110.73
83.2
55.73
29.9
6.79
-13.13
-29.98
-44.23
-56.29
-66.04
-72.74
-75.42
-73.44
-67
-57.16
-45.43
-32.96
-20.09
-6.62
7.62
22.12
35.56
46.25
52.71
54.24
51.1
44.52
36.31
28.37
22.09
17.94
15.49
13.9
12.49
11.1
9.96
9.03
7.68
4.87
-0.17
-7.26
-15.16
-22.18
-27.16
-30.11
-31.9
-33.32
-34.16
-32.98
-27.95
-18.17
-4.82
8.96
19.09
22.46
18.26
