35.35
16.19
14.78
23.67
32.03
29.56
10.27
-25.44
-71.48
-118.87
-159.37
-187.97
-203.42
-206.82
-199.94
-184.23
-161.16
-133.14
-103.92
-77.98
-58.94
-48.1
-43.8
-42.31
-39.56
-32.87
-21.79
-7.91
6.06
17.37
24.02
25.13
21.06
13.23
3.69
-5.44
-12.67
-17.6
-20.98
-24.19
-28.67
-35.41
-44.72
-56.29
-69.09
-81.52
-91.5
-97.02
-96.77
-90.74
-80.58
-69.13
-59.62
-54.33
-53.63
-55.6
-56.35
-51
-35.07
-5.95
35.88
86.31
138.26
183.38
214.44
227.61
223.62
207.5
186.77
168.8
158.29
155.76
157.7
158.16
151.15
132.78
102.59
63.37
20.01
-22.14
-58.67
-86.95
-106.03
-116.23
-118.78
-115.51
-108.74
-101.06
-94.81
-91.46
-91.26
-93.28
-95.86
-97.48
-97.36
-95.78
-93.87
-93
-94.17
-97.54
-102.22
-106.46
-107.96
-104.5
-94.6
-78.03
-56.07
-31.2
-6.37
15.87
34.11
48.19
58.83
66.97
73.25
77.79
80.43
81.08
79.98
77.71
74.97
72.33
70.13
68.36
66.9
65.51
63.98
62.16
59.97
57.43
54.65
51.68
48.55
45.13
41.24
36.83
32.02
27.15
22.63
18.77
15.58
12.79
10
6.83
3.09
-1.21
-5.99
-11.13
-16.44
-21.56
-25.93
-28.8
-29.54
-27.89
-24.11
-18.98
-13.43
-8.23
-3.72
0.12
3.5
6.56
9.21
11.26
12.57
13.19
13.42
13.65
14.15
14.95
15.86
16.61
17.01
17.04
16.82
16.54
16.32
16.17
15.96
15.54
14.76
13.48
11.63
9.18
6.22
2.95
-0.36
-3.44
-6.12
-8.41
-10.48
-12.63
-15.12
-18.18
-21.88
-26.13
-30.64
-34.86
-38.07
-39.49
-38.57
-35.09
-29.32
-21.94
-13.84
-5.86
1.36
7.55
12.69
16.95
20.51
23.46
25.8
27.51
28.64
29.34
29.87
30.48
31.32
32.33
33.32
34.01
34.15
33.64
32.51
30.86
28.79
26.36
23.56
20.39
16.93
13.37
9.97
6.99
4.55
2.6
0.96
-0.61
-2.28
-4.14
-6.17
-8.39
-10.87
-13.8
-17.39
-21.69
-26.45
-31.08
-34.72
-36.53
-35.93
-32.83
-27.62
-21.01
-13.79
-6.61
0.1
6.06
11.14
15.28
18.45
20.71
22.18
22.98
23.26
23.2
22.96
22.73
22.65
22.8
23.15
23.58
23.95
24.15
24.11
23.8
23.17
22.19
20.81
19.11
17.21
15.26
13.32
11.37
9.23
6.76
3.92
0.85
-2.2
-4.98
-7.38
-9.48
-11.5
-13.7
-16.29
-19.4
-23.07
-27.08
-31.05
-34.39
-36.39
-36.45
-34.24
-29.82
-23.61
-16.32
-8.73
-1.54
4.74
9.88
13.84
16.76
18.75
19.92
20.33
20.06
19.28
18.34
17.6
17.36
17.7
18.46
19.36
20.15
20.7
20.97
21.04
20.91
20.53
19.83
18.79
17.47
16
14.48
12.92
11.22
9.25
6.92
4.3
1.6
-0.97
-3.24
-5.25
-7.25
-9.59
-12.57
-16.29
-20.53
-24.77
-28.3
-30.44
-30.67
-28.79
-24.96
-19.61
-13.37
-6.88
-0.71
4.71
9.13
12.46
14.72
16.02
16.52
16.44
16.02
15.47
14.97
14.6
14.39
14.33
14.4
14.6
14.91
15.32
15.72
16.01
16.12
15.94
15.4
14.45
13.08
11.3
9.22
6.99
4.78
2.72
0.83
-0.94
-2.7
-4.54
-6.46
-8.43
-10.38
-12.31
-14.22
-16.14
-17.99
-19.53
-20.41
-20.23
-18.73
-15.88
-12
-7.65
-3.38
0.36
3.41
5.82
7.72
9.2
10.22
10.73
10.74
10.39
9.93
9.62
9.63
9.94
10.38
10.71
10.78
10.51
9.94
9.16
8.27
7.34
6.5
5.91
5.79
6.32
7.53
9.28
11.19
12.78
13.64
13.55
12.55
10.95
9.08
7.21
5.32
3.23
0.64
-2.64
-6.6
-10.97
-15.25
-18.87
-21.35
-22.36
-21.77
-19.7
-16.39
-12.22
-7.59
-2.91
1.41
5.08
7.86
9.67
10.55
10.65
10.24
9.57
8.85
8.22
7.71
7.3
6.95
6.67
6.49
6.47
6.68
7.15
7.83
8.57
9.17
9.38
9.07
8.21
6.9
5.34
3.7
2.06
0.4
-1.33
-3.18
-5.16
-7.22
-9.35
-11.58
-13.94
-16.49
-19.25
-22.14
-24.98
-27.5
-29.37
-30.23
-29.81
-28.02
-24.97
-20.98
-16.52
-12.02
-7.84
-4.12
-0.92
1.77
3.93
5.54
6.57
7.03
7.01
6.61
6.03
5.4
4.89
4.61
4.59
4.77
5
5.11
4.89
4.21
3.08
1.54
-0.33
-2.49
-4.97
-7.82
-11.14
-14.98
-19.32
-24.09
-29.05
-33.96
-38.57
-42.75
-46.64
-50.59
-55.1
-60.62
-67.39
-75.24
-83.67
-91.96
-99.36
-105.34
-109.74
-112.78
-114.98
-116.9
-118.87
-120.85
-122.39
-122.79
-121.33
-117.34
-110.21
-99.42
-84.63
-65.8
-43.22
-17.44
10.99
41.62
74.06
107.66
141.2
172.88
200.75
223.51
241.08
254.57
265.63
275.55
284.56
291.79
295.86
295.61
290.59
281.2
268.52
254.15
239.89
227.32
217.36
209.77
203.18
195.76
186.26
174.79
162.75
151.71
142.13
132.5
119.64
100.17
71.99
34.83
-10.2
-61.59
-117.59
-175.6
-231.13
-277.67
-308.34
-318.72
-309.43
-286.73
-260.39
-239.8
-230.48
-232.39
-241.09
-250.4
-255.15
-252.41
-241.23
-221.57
-193.64
-158.24
-117.5
-75.41
-37.17
-7.94
9.11
13.98
9.67
0.9
-7.71
-13.19
-14.81
-13.5
-10.91
-8.34
-6.23
-4.37
-2.29
0.26
3.16
6.02
8.48
10.46
12.15
13.94
16.1
18.8
22.12
26.29
31.74
38.86
47.54
56.82
64.81
69.21
68.1
60.84
48.53
33.78
20.12
10.94
8.59
13.68
24.86
39.16
52.7
61.79
63.96
58.56
46.72
30.81
13.6
-2.55
-16.01
-25.9
-31.94
-34.33
-33.68
-31
-27.58
-24.71
-23.32
-23.8
-25.86
-28.85
-32.03
-34.87
-37.13
-38.79
-39.81
-39.95
-38.82
-36.07
-31.64
-25.9
-19.61
-13.58
-8.43
-4.39
-1.37
0.89
2.59
3.75
4.35
4.36
3.91
3.22
2.55
2.08
1.87
1.9
2.17
2.67
3.43
4.42
5.51
6.52
7.24
7.58
7.6
7.46
7.28
7.06
6.65
5.9
4.68
3.01
1.06
-1.01
-3.05
-4.98
-6.79
-8.49
-10.08
-11.68
-13.38
-15.24
-17.11
-18.64
-19.3
-18.63
-16.47
-12.97
-8.62
-3.99
0.47
4.5
7.97
10.8
12.91
14.25
14.87
14.95
14.74
14.5
14.38
14.45
14.69
15.07
15.5
15.89
16.18
16.29
16.21
15.96
15.6
15.13
14.49
13.58
12.3
10.64
8.62
6.35
3.93
1.44
-1.06
-3.49
-5.81
-7.97
-9.99
-11.98
-14.05
-16.3
-18.72
-21.17
-23.36
-24.94
-25.52
-24.77
-22.45
-18.46
-12.93
-6.27
0.82
7.52
13.06
17
19.32
20.39
20.67
20.57
20.23
19.62
18.74
17.69
16.75
16.19
16.08
16.25
16.36
16.08
15.24
13.91
12.29
10.64
9.14
7.89
6.87
6.04
5.3
4.54
3.67
2.69
1.7
0.88
0.39
0.31
0.53
0.9
1.29
1.66
2.13
2.83
3.84
5.16
6.75
8.7
11.28
14.88
19.84
26.29
33.98
42.39
50.83
58.74
65.8
71.96
77.37
82.29
87.03
91.84
96.88
102.05
107.05
111.33
114.37
115.92
116.2
115.97
116.21
117.73
120.67
124.27
126.91
126.62
121.73
111.55
96.57
78.33
58.73
39.3
20.65
2.51
-15.85
-34.92
-54.45
-73.46
-90.41
-103.92
-113.52
-120.25
-126.78
-137.26
-156.43
-188.2
-233.8
-290.32
-350.48
-404.03
-440.88
-454.25
-442.95
-411.19
-366.44
-316.24
-265.64
-216.21
-166.85
-115.64
-61.78
-6.65
46.33
92.81
128.95
152.58
163.74
164.5
158.02
147.41
134.89
121.73
108.62
96.33
85.97
78.64
74.79
73.71
73.68
72.63
69.17
63.1
55.4
47.76
41.66
37.8
35.82
34.62
32.95
29.94
25.5
20.21
15.02
10.71
7.62
5.48
3.62
1.43
-1.33
-4.34
-6.89
-8.12
-7.48
-4.88
-0.73
4.25
9.3
13.9
17.8
21.05
23.88
26.53
29.18
31.86
34.45
36.8
38.83
40.63
42.42
44.53
47.15
50.29
53.74
57.12
60.07
62.27
63.53
63.76
62.94
61.08
58.28
54.69
50.5
45.96
41.25
36.45
31.47
26.07
20.1
13.59
6.86
0.29
-6.08
-12.81
-21.06
-32.1
-46.62
-64.07
-82.57
-99.47
-112.23
-119.07
-119.15
-112.35
-99.01
-80.05
-57.06
-32.51
-9.3
10.03
24.17
33.27
38.57
41.5
42.86
42.68
40.62
36.65
31.5
26.46
22.73
20.83
20.45
20.76
20.97
20.75
20.38
20.43
21.38
23.23
25.53
27.58
28.77
28.84
27.9
26.32
24.49
22.68
20.99
19.44
18.02
16.73
15.53
14.34
13.04
11.5
9.55
7.01
3.71
-0.39
-5.11
-9.96
-14.26
-17.33
-18.77
-18.61
-17.27
-15.3
-13.19
-11.24
-9.58
-8.3
-7.5
-7.21
-7.33
-7.6
-7.69
-7.35
-6.57
-5.56
-4.65
-4.17
-4.33
-5.21
-6.73
-8.63
-10.57
-12.09
-12.79
-12.44
-11.12
-9.21
-7.31
-6.05
-5.89
-6.91
-8.79
-10.88
-12.47
-13.11
-12.83
-12.18
-11.97
-12.83
-14.84
-17.42
-19.6
-20.54
-20.04
-18.66
-17.52
-17.63
-19.32
-21.89
-23.88
-23.7
-20.45
-14.49
-7.41
-1.45
1.53
0.89
-2.48
-6.6
-9.34
-9.38
-6.63
-2
3
6.38
5.48
-2.88
-21.32
-50.03
-85.31
-119.59
-143.85
-151.3
-140.51
-116.03
-86.1
-58.75
-38.56
-25.78
-17.95
-12.5
-8.5
-6.61
-7.75
-11.63
-16.49
-19.97
-20.4
-17.73
-13.37
-9.48
-7.86
-9.16
-12.8
-17.31
-21.08
-22.97
-22.7
-20.72
-17.95
-15.18
-12.83
-10.77
-8.57
-5.76
-2.14
2.1
6.42
10.12
12.69
13.92
14.02
13.49
12.89
12.66
12.95
13.66
14.52
15.29
15.85
16.25
16.57
16.86
17.05
16.96
16.42
15.32
13.77
11.99
10.24
8.69
7.31
5.97
4.41
2.49
0.2
-2.29
-4.74
-6.94
-8.79
-10.34
-11.77
-13.31
-15.14
-17.39
-20.03
-22.85
-25.43
-27.21
-27.64
-26.36
-23.33
-18.89
-13.59
-8.04
-2.68
2.25
6.66
10.51
13.69
16.07
17.51
17.96
17.54
16.52
15.29
14.26
13.75
13.93
14.76
16.05
17.42
18.5
18.98
18.67
17.61
15.97
13.94
11.69
9.33
6.91
4.51
2.24
0.24
-1.37
-2.57
-3.47
-4.28
-5.21
-6.41
-7.93
-9.81
-12.08
-14.74
-17.76
-20.97
-24.06
-26.56
-27.95
-27.8
-25.91
-22.35
-17.49
-11.91
-6.2
-0.88
3.74
7.52
10.49
12.67
14.07
14.68
14.56
13.87
12.92
12.13
11.82
12.23
13.38
15.05
16.88
18.51
19.59
19.99
19.71
18.92
17.81
16.56
15.28
14.01
12.7
11.24
9.54
7.54
5.26
2.82
0.42
-1.74
-3.58
-5.18
-6.82
-8.82
-11.48
-14.92
-19
-23.32
-27.22
-29.91
-30.7
-29.18
-25.42
-19.99
-13.77
-7.6
-2.09
2.58
6.51
9.86
12.64
14.72
15.91
16.2
15.83
15.21
14.83
15.02
15.86
17.23
18.94
20.78
22.57
24.22
25.57
26.45
26.75
26.35
25.31
23.75
21.86
19.8
17.6
15.23
12.62
9.73
6.59
3.31
0.04
-3.12
-6.07
-8.77
-11.21
-13.45
-15.59
-17.86
-20.42
-23.31
-26.29
-28.8
-30.12
-29.56
-26.73
-21.74
-15.17
-7.86
-0.72
5.57
10.58
14.16
16.35
17.33
17.32
16.69
15.86
15.27
15.33
16.25
17.99
20.23
22.47
24.18
24.99
24.81
23.85
22.52
21.18
20.04
19.04
17.94
16.54
14.73
12.61
10.4
8.25
6.22
4.24
2.22
0.11
-2.03
-4.1
-6.05
-7.91
-9.84
-12.02
-14.63
-17.8
-21.47
-25.34
-28.89
-31.39
-32.08
-30.47
-26.42
-20.3
-12.81
-4.73
3.22
10.59
17.12
22.65
27.07
30.28
32.29
33.27
33.57
33.63
33.88
34.64
36.11
38.3
41.09
44.24
47.44
50.34
52.66
54.16
54.66
54.03
52.18
49.12
44.93
39.87
34.23
28.37
22.5
16.69
10.87
4.94
-1.12
-7.15
-12.88
-18.02
-22.38
-25.97
-28.92
-31.49
-33.98
-36.62
-39.52
-42.55
-45.31
-47.14
-47.27
-45.13
-40.57
-34.07
-26.53
-19.01
-12.37
-6.98
-2.75
0.63
3.39
5.54
6.93
7.39
6.96
6.04
5.18
4.89
5.38
6.51
7.9
9.18
10.16
10.88
11.52
12.23
13.02
13.73
14.16
14.11
13.54
12.52
11.23
9.85
8.51
7.25
6.04
4.76
3.29
1.53
-0.56
-2.99
-5.76
-8.89
-12.35
-15.99
-19.46
-22.2
-23.55
-22.96
-20.19
-15.48
-9.49
-3.08
2.9
7.89
11.64
14.22
15.78
16.5
16.49
15.79
14.55
12.97
11.45
10.38
10.06
10.56
11.66
12.97
14.07
14.67
14.71
14.3
13.66
12.98
12.3
11.55
10.6
9.34
7.76
5.91
3.91
1.86
-0.18
-2.17
-4.11
-5.99
-7.83
-9.7
-11.71
-14.02
-16.7
-19.61
-22.34
-24.26
-24.73
-23.33
-20.03
-15.21
-9.53
-3.7
1.71
6.34
10.03
12.78
14.57
15.45
15.47
14.78
13.67
12.55
11.81
11.77
12.48
13.78
15.33
16.79
17.89
18.52
18.72
18.52
17.96
17.03
15.71
14.03
12.04
9.83
7.46
4.98
2.48
0.05
-2.22
-4.28
-6.08
-7.69
-9.18
-10.65
-12.25
-14.09
-16.28
-18.8
-21.4
-23.66
-25.01
-24.9
-23.05
-19.54
-14.8
-9.48
-4.19
0.59
4.61
7.82
10.28
12.04
13.15
13.63
13.52
12.95
12.16
11.44
11.09
11.33
12.17
13.44
14.82
15.95
16.6
16.66
16.2
15.34
14.22
12.87
11.3
9.51
7.53
5.48
3.45
1.56
-0.19
-1.83
-3.39
-4.84
-6.16
-7.31
-8.33
-9.35
-10.64
-12.4
-14.71
-17.43
-20.14
-22.29
-23.28
-22.71
-20.47
-16.77
-12.12
-7.13
-2.38
1.67
4.8
6.96
8.23
8.77
8.78
8.46
8
7.56
7.25
7.13
7.2
7.37
7.61
7.88
8.2
8.61
9.08
9.51
9.74
9.62
9.06
8.05
6.72
5.17
3.5
1.81
0.19
-1.22
-2.32
-3.1
-3.65
-4.2
-4.95
-6.02
-7.35
-8.83
-10.34
-11.92
-13.7
-15.81
-18.22
-20.68
-22.7
-23.72
-23.33
-21.38
-18.07
-13.87
-9.38
-5.13
-1.43
1.6
4.02
5.91
7.34
8.3
8.77
8.79
8.46
8.01
7.68
7.66
7.99
8.6
9.33
10
10.48
10.69
10.62
10.22
9.46
8.28
6.67
4.73
2.7
0.82
-0.68
-1.73
-2.38
-2.8
-3.11
-3.4
-3.7
-4.05
-4.6
-5.51
-6.91
-8.81
-11.04
-13.34
-15.43
-17.09
-18.16
-18.48
-17.87
-16.2
-13.49
-9.96
-6.06
-2.28
0.96
3.44
5.17
6.25
6.79
6.89
6.65
6.27
5.95
5.91
6.23
6.78
7.36
7.69
7.63
7.25
6.75
6.38
6.3
6.47
6.68
6.66
6.22
5.31
4.02
2.52
0.95
-0.64
-2.27
-3.96
-5.73
-7.5
-9.16
-10.62
-11.87
-12.93
-13.9
-14.84
-15.85
-16.98
-18.31
-19.87
-21.65
-23.5
-25.12
-26.03
-25.74
-23.87
-20.36
-15.55
-10.12
-4.86
-0.42
2.91
5.22
6.82
8.03
8.98
9.6
9.74
9.36
8.61
7.82
7.37
7.49
8.17
9.23
10.33
11.22
11.74
11.92
11.84
11.58
11.12
10.41
9.43
8.18
6.79
5.43
4.21
3.17
2.2
1.12
-0.22
-1.88
-3.87
-6.08
-8.4
-10.71
-12.89
-14.88
-16.64
-18.17
-19.46
-20.44
-20.95
-20.78
-19.72
-17.61
-14.53
-10.79
-6.88
-3.28
-0.35
1.78
3.23
4.27
5.15
6.03
6.95
7.88
8.75
9.57
10.38
11.32
12.49
13.99
15.78
17.74
19.67
21.32
22.5
23.12
23.24
23.05
22.8
22.72
22.93
23.34
23.61
23.32
22.05
19.69
16.44
12.78
9.21
6.11
3.52
1.27
-0.93
-3.31
-6.01
-9.01
-12.23
-15.39
-18.04
-19.5
-19.08
-16.42
-11.82
-6.31
-1.37
1.61
1.86
-0.4
-4.16
-8.03
-10.86
-11.98
-11.23
-8.8
-5
-0.12
5.39
10.98
15.93
19.58
21.55
21.95
21.35
20.58
20.15
19.87
18.62
14.79
7.08
-4.66
-18.99
-33.23
-44.53
-50.99
-52.33
-49.78
-45.19
-40.05
-34.98
-29.83
-24.33
-18.65
-13.62
-10.39
-9.87
-12.28
-17.13
-23.37
-29.88
-35.78
-40.54
-43.85
-45.45
-45.07
-42.58
-38.16
-32.41
-26.21
-20.46
-15.73
-12.13
-9.41
-7.1
-4.69
-1.74
2.09
6.95
12.56
18.17
22.66
25.03
24.86
22.55
19.17
16.01
13.94
13.21
13.5
14.28
15.05
15.53
15.62
15.36
14.92
14.62
14.78
15.54
16.68
17.67
17.9
17.01
15.04
12.36
9.39
6.32
3.16
-0.18
-3.67
-7.07
-10.08
-12.47
-14.26
-15.67
-16.99
-18.43
-20.06
-21.83
-23.61
-25.33
-26.93
-28.47
-30.04
-31.79
-33.8
-35.95
-37.8
-38.65
-37.82
-34.91
-30.07
-24
-17.68
-11.94
-7.2
-3.34
0.02
3.26
6.44
9.36
11.74
13.49
14.79
15.97
17.29
18.75
20.03
20.71
20.5
19.34
17.47
15.29
13.14
11.19
9.43
7.66
5.68
3.35
0.69
-2.14
-4.99
-7.74
-10.38
-12.91
-15.23
-16.99
-17.58
-16.39
-13
-7.53
-0.58
6.84
13.76
19.52
23.87
27.04
29.34
31.15
32.85
34.87
37.62
41.3
45.57
49.44
51.45
50.25
45.27
37.07
27.13
17.27
8.92
2.7
-1.5
-4.14
-5.61
-6.15
-5.95
-5.42
-5.16
-5.8
-7.65
-10.56
-13.95
-17.11
-19.54
-21.11
-21.99
-22.49
-22.89
-23.34
-23.94
-24.74
-25.79
-27.03
-28.23
-28.95
-28.67
-27.01
-23.9
-19.57
-14.49
-9.18
-4.07
0.56
4.54
7.76
10.17
11.79
12.7
13.09
13.18
13.19
13.25
13.43
13.72
14.1
14.54
15
15.51
16.05
16.63
17.2
17.63
17.76
17.43
16.57
15.25
13.59
11.8
9.99
8.21
6.44
4.66
2.88
1.1
-0.63
-2.34
-4.06
-5.82
-7.65
-9.57
-11.6
-13.75
-16.01
-18.28
-20.34
-21.83
-22.43
-21.86
-20.04
-17.13
-13.46
-9.47
-5.63
-2.31
0.25
2.02
3.11
3.68
3.86
3.73
3.35
2.8
2.31
2.14
2.5
3.45
4.84
6.37
7.72
8.66
9.12
9.15
8.85
8.32
7.56
6.52
5.14
3.4
1.36
-0.8
-2.87
-4.68
-6.16
-7.35
-8.42
-9.57
-10.95
-12.68
-14.79
-17.24
-19.93
-22.63
-24.98
-26.54
-26.89
-25.74
-23.07
-19.12
-14.36
-9.26
-4.3
0.23
4.13
7.29
9.67
11.23
12.02
12.16
11.87
11.38
10.86
10.4
10
9.71
9.58
9.75
10.32
11.23
12.31
13.22
13.65
13.43
12.57
11.21
9.54
7.69
5.7
3.57
1.34
-0.88
-2.99
-4.87
-6.48
-7.83
-9.02
-10.22
-11.71
-13.76
-16.6
-20.28
-24.57
-28.96
-32.69
-35
-35.28
-33.34
-29.38
-24.02
-18.03
-12.13
-6.85
-2.41
1.24
4.29
6.93
9.24
11.21
12.74
13.8
14.45
14.85
15.23
15.77
16.56
17.61
18.83
20.11
21.31
22.29
22.9
22.98
22.41
21.2
19.47
17.49
15.49
13.63
11.92
10.26
8.44
6.36
3.95
1.3
-1.42
-4.01
-6.31
-8.24
-9.82
-11.21
-12.67
-14.54
-17.15
-20.63
-24.75
-28.98
-32.49
-34.41
-34.14
-31.52
-26.85
-20.84
-14.31
-7.97
-2.26
2.68
6.87
10.37
13.24
15.47
17.05
18.05
18.62
18.96
19.29
19.73
20.32
21
21.68
22.29
22.77
23.11
23.26
23.15
22.64
21.6
20.01
17.93
15.58
13.23
11.07
9.18
7.49
5.84
4.09
2.22
0.33
-1.45
-3.04
-4.49
-5.95
-7.62
-9.66
-12.17
-15.16
-18.53
-22.07
-25.38
-27.97
-29.29
-28.88
-26.54
-22.35
-16.73
-10.34
-3.91
1.94
6.76
10.42
13.03
14.81
15.99
16.72
17.06
17.03
16.77
16.52
16.59
17.22
18.44
20.04
21.6
22.69
23.04
22.61
21.63
20.43
19.27
18.22
17.13
15.77
13.92
11.51
8.68
5.68
2.81
0.25
-1.92
-3.73
-5.32
-6.85
-8.51
-10.48
-12.9
-15.88
-19.39
-23.18
-26.78
-29.47
-30.56
-29.52
-26.22
-21.01
-14.61
-7.85
-1.42
4.27
9.1
13.12
16.36
18.77
20.31
21.02
21.11
20.93
20.85
21.13
21.84
22.88
24.03
25.07
25.8
26.11
25.96
25.35
24.37
23.16
21.86
20.5
19.03
17.35
15.37
13.14
10.86
8.83
7.22
6.01
4.92
3.56
1.56
-1.24
-4.8
-8.98
-13.66
-18.83
-24.45
-30.24
-35.62
-39.78
-41.96
-41.74
-39.27
-35.18
-30.3
-25.41
-21.02
-17.38
-14.6
-12.68
-11.59
-11.17
-11.06
-10.81
-10
-8.43
-6.29
-3.98
-2.01
-0.69
-0.03
0.33
0.87
2.03
4.01
6.69
9.71
12.68
15.24
17.2
18.47
19.06
18.95
18.09
16.46
14.1
11.19
8.04
4.99
2.38
0.33
-1.2
-2.5
-3.96
-5.94
-8.68
-12.13
-15.98
-19.63
-22.37
-23.54
-22.69
-19.76
-15.08
-9.26
-3.08
2.71
7.46
10.79
12.58
13.07
12.73
12.11
11.69
11.65
11.88
12.12
12.11
11.74
11.08
10.29
9.51
8.79
8.14
7.58
7.17
6.95
6.92
6.98
6.97
6.78
6.41
5.91
5.37
4.79
4.08
3.08
1.62
-0.3
-2.5
-4.69
-6.54
-7.92
-8.9
-9.84
-11.16
-13.2
-16.03
-19.36
-22.65
-25.19
-26.33
-25.64
-22.91
-18.22
-11.99
-4.97
1.9
7.68
11.78
14.13
15.29
16.09
17.34
19.38
22.02
24.68
26.76
27.94
28.29
28.09
27.57
26.7
25.2
22.78
19.32
15.11
10.67
6.6
3.28
0.85
-0.77
-1.7
-1.99
-1.72
-1.04
-0.27
0.15
-0.12
-1.21
-2.95
-5
-7.03
-8.93
-10.75
-12.64
-14.71
-16.94
-19.24
-21.48
-23.64
-25.68
-27.47
-28.79
-29.24
-28.47
-26.23
-22.57
-17.8
-12.43
-7.01
-2.04
2.17
5.51
8
9.75
10.87
11.47
11.7
11.7
11.68
11.82
12.22
12.89
13.76
14.69
15.52
16.15
16.52
16.65
16.57
16.32
15.97
15.53
15
14.35
13.54
12.55
11.43
10.27
9.24
8.48
8.05
7.87
7.7
7.22
6.15
4.29
1.69
-1.42
-4.69
-7.77
-10.39
-12.42
-13.76
-14.37
-14.24
-13.35
-11.81
-9.81
-7.64
-5.61
-3.93
-2.6
-1.5
-0.42
0.75
1.97
3.01
3.66
3.86
3.78
3.78
4.19
5.16
6.55
8.04
9.32
10.19
10.67
10.84
10.78
10.43
9.69
8.51
6.94
5.15
3.32
1.56
-0.14
-1.82
-3.48
-5.01
-6.28
-7.22
-7.87
-8.44
-9.18
-10.27
-11.74
-13.48
-15.33
-17.1
-18.67
-19.89
-20.62
-20.66
-19.82
-17.99
-15.25
-11.87
-8.27
-4.89
-2.01
0.28
2.05
3.41
4.44
5.1
5.33
5.14
4.64
4.09
3.76
3.84
4.41
5.37
6.59
7.83
8.91
9.64
9.94
9.82
9.36
8.67
7.79
6.7
5.29
3.49
1.32
-1.12
-3.62
-5.99
-8.05
-9.71
-10.92
-11.69
-12.16
-12.61
-13.45
-15.13
-17.95
-21.83
-26.27
-30.37
-33.16
-33.88
-32.24
-28.59
-23.67
-18.38
-13.43
-9.18
-5.64
-2.65
-0.09
2.03
3.6
4.55
4.94
5.01
5.04
5.24
5.63
6.03
6.3
6.36
6.32
6.34
6.57
6.93
7.18
7.09
6.51
5.5
4.19
2.75
1.19
-0.53
-2.52
-4.78
-7.13
-9.34
-11.14
-12.44
-13.27
-13.83
-14.38
-15.13
-16.26
-17.86
-19.95
-22.38
-24.88
-27.02
-28.31
-28.3
-26.75
-23.73
-19.57
-14.86
-10.15
-5.87
-2.17
0.98
3.75
6.22
8.41
10.28
11.82
13.1
14.24
15.37
16.54
17.7
18.8
19.81
20.73
21.57
22.25
22.6
22.43
21.67
20.4
18.84
17.27
15.85
14.57
13.3
11.86
10.17
8.27
6.24
4.18
2.13
0.1
-1.89
-3.79
-5.56
-7.22
-8.89
-10.77
-13.09
-15.97
-19.3
-22.71
-25.6
-27.34
-27.41
-25.63
-22.17
-17.54
-12.42
-7.46
-3.13
0.36
3.05
5.08
6.58
7.68
8.43
8.89
9.16
9.38
9.66
10.11
10.76
11.53
12.32
12.96
13.32
13.31
12.94
12.33
11.57
10.77
9.94
9
7.89
6.61
5.29
4.15
3.43
3.23
3.5
3.97
4.27
4.09
3.25
1.78
-0.07
-1.99
-3.72
-5.15
-6.39
-7.73
-9.55
-12.13
-15.47
-19.26
-22.85
-25.46
-26.41
-25.37
-22.46
-18.26
-13.5
-8.86
-4.7
-1.09
2.13
5.09
7.78
10.04
11.63
12.44
12.62
12.52
12.58
13.11
14.18
15.63
17.14
18.41
19.28
19.7
19.73
19.42
18.75
17.73
16.36
14.74
13.02
11.31
9.71
8.24
6.84
5.47
4.12
2.74
1.32
-0.19
-1.84
-3.61
-5.44
-7.2
-8.76
-10.06
-11.14
-12.18
-13.41
-15.05
-17.22
-19.88
-22.78
-25.5
-27.5
-28.27
-27.48
-25.07
-21.33
-16.79
-12.02
-7.51
-3.54
-0.18
2.55
4.69
6.28
7.37
8.07
8.53
8.89
9.24
9.61
10.02
10.52
11.18
12.04
13.08
14.13
15
15.48
15.47
15.02
14.21
13.13
11.79
10.19
8.42
6.62
5.01
3.77
2.91
2.25
1.44
0.18
-1.68
-3.98
-6.37
-8.48
-10.05
-11.13
-12.01
-13.1
-14.77
-17.15
-20.11
-23.23
-25.93
-27.66
-27.99
-26.76
-24.05
-20.18
-15.54
-10.53
-5.52
-0.76
3.52
7.12
9.92
11.92
13.23
14.12
14.9
15.76
16.75
17.75
18.58
19.15
19.47
19.62
19.7
19.69
19.52
19.1
18.38
17.34
15.97
14.27
12.19
9.77
7.15
4.64
2.6
1.34
0.98
1.35
2.03
2.52
2.36
1.41
-0.19
-2.06
-3.77
-5.04
-5.87
-6.49
-7.22
-8.31
-9.92
-12.08
-14.78
-17.92
-21.22
-24.25
-26.39
-27.05
-25.89
-22.97
-18.71
-13.71
-8.55
-3.59
1
5.11
8.52
10.92
11.99
11.52
9.62
6.72
3.48
0.61
-1.3
-1.98
-1.5
-0.19
1.48
3.11
4.46
5.51
6.34
7.08
7.69
8.07
8.02
7.4
6.21
4.67
3.09
1.77
0.9
0.42
0.14
-0.2
-0.76
-1.58
-2.59
-3.71
-4.89
-6.23
-7.82
-9.63
-11.45
-12.87
-13.43
-12.81
-10.94
-8.07
-4.62
-1.05
2.32
5.34
8
10.33
12.22
13.51
13.99
13.55
12.3
10.64
9.11
8.2
8.2
9.06
10.42
11.79
12.72
13.01
12.7
12.04
11.32
10.74
10.27
9.77
9
7.78
6.1
4.08
1.95
-0.12
-2.01
-3.69
-5.21
-6.58
-7.85
-9.07
-10.33
-11.69
-13.12
-14.42
-15.21
-15.08
-13.72
-11.05
-7.21
-2.53
2.63
7.97
13.29
18.47
23.44
28.02
31.98
35.04
37.02
37.93
38.07
37.98
38.24
39.33
41.35
44.04
46.75
48.75
49.38
48.31
45.56
41.56
36.99
32.55
28.84
26.11
24.35
23.3
22.74
22.56
22.87
23.85
25.61
27.84
29.91
30.92
29.97
26.54
20.56
12.4
2.71
-7.69
-17.96
-27.38
-35.51
-42.37
-48.43
-54.59
-61.82
-70.78
-81.46
-93.14
-104.72
-115.15
-123.96
-131.66
-139.75
-150.34
-165.22
-184.76
-206.97
-227.45
-240.42
-240.48
-224.39
-192.13
-146.76
-93.45
-38.2
13.3
56.42
87.99
106.66
113.05
109.56
99.79
87.54
75.76
66.01
58.5
52.65
47.63
42.81
37.83
32.62
27.25
21.99
17.15
12.98
9.53
6.56
3.64
0.4
-3.25
-6.93
-9.89
-11.28
-10.49
-7.44
-2.59
3.23
9.12
14.38
18.63
21.8
24.03
25.48
26.38
26.92
27.24
27.43
27.46
27.2
26.53
25.44
24.08
22.73
21.69
21.16
21.07
21.17
21.09
20.51
19.35
17.72
15.86
14.07
12.48
11.11
9.87
8.6
7.18
5.56
3.78
1.88
-0.06
-2.03
-4.04
-6.18
-8.52
-11.13
-14.07
-17.31
-20.79
-24.33
-27.66
-30.32
-31.79
-31.57
-29.38
-25.28
-19.73
-13.46
-7.25
-1.67
3.04
6.9
10.07
12.7
14.76
16.23
17.1
17.54
17.83
18.29
19.07
20.14
21.26
22.2
22.81
23.12
23.22
23.21
23.08
22.71
21.95
20.75
19.17
17.38
15.57
13.89
12.41
11.09
9.84
8.52
7.01
5.21
3.11
0.8
-1.57
-3.83
-5.91
-7.8
-9.63
-11.55
-13.71
-16.26
-19.26
-22.64
-26.14
-29.25
-31.33
-31.74
-30.13
-26.58
-21.59
-15.89
-10.19
-4.94
-0.27
3.88
7.57
10.74
13.19
14.73
15.31
15.18
14.78
14.65
15.15
16.38
18.16
20.13
21.96
23.44
24.54
25.31
25.78
25.91
25.57
24.66
23.2
21.33
19.28
17.3
15.52
14.01
12.69
11.47
10.24
8.95
7.54
5.99
4.31
2.55
0.79
-0.88
-2.44
-3.91
-5.38
-7.05
-9.08
-11.59
-14.55
-17.68
-20.56
-22.64
-23.46
-22.78
-20.62
-17.32
-13.32
-9.13
-5.18
-1.83
0.68
2.18
2.65
2.2
1.12
-0.23
-1.49
-2.33
-2.59
-2.2
-1.21
0.21
1.78
3.21
4.27
4.88
5.19
5.47
6.02
6.94
8.16
9.46
10.62
11.55
12.32
13.03
13.74
14.38
14.79
14.85
14.53
14
13.46
13.1
12.99
13.02
12.99
12.54
11.38
9.21
5.92
1.62
-3.29
-8.21
-12.34
-14.89
-15.24
-13.1
-8.6
-2.28
5.05
12.56
19.59
25.75
30.89
34.95
37.89
39.61
40.04
39.33
37.85
36.13
34.74
34.01
33.97
34.27
34.39
33.86
32.42
30.12
27.25
24.19
21.23
18.43
15.72
12.94
10.01
7.02
4.14
1.57
-0.65
-2.66
-4.71
-7.06
-9.79
-12.75
-15.63
-18.07
-19.81
-20.84
-21.38
-21.82
-22.59
-24
-26.18
-28.96
-31.9
-34.38
-35.8
-35.66
-33.78
-30.3
-25.67
-20.45
-15.21
-10.4
-6.28
-2.96
-0.41
1.48
2.82
3.73
4.33
4.79
5.26
5.95
7.04
8.61
10.64
12.94
15.25
17.24
18.66
19.36
19.34
18.74
17.73
16.49
15.15
13.81
12.52
11.34
10.24
9.09
7.65
5.64
2.94
-0.27
-3.51
-6.22
-8.05
-9.21
-10.53
-13.18
-18.18
-26.01
-36.37
-48.3
-60.51
-71.67
-80.68
-86.78
-89.55
-88.97
-85.49
-79.99
-73.61
-67.49
-62.32
-58.24
-54.76
-51.02
-46.18
-39.69
-31.6
-22.46
-13.22
-4.82
2.1
7.38
11.33
14.51
17.4
20.21
22.79
24.84
26.11
26.62
26.52
26.06
25.36
24.38
23.07
21.43
19.58
17.69
15.89
14.1
12.15
9.84
7.17
4.27
1.43
-1.11
-3.28
-5.17
-6.96
-8.88
-11.12
-13.88
-17.28
-21.35
-25.87
-30.32
-33.91
-35.87
-35.69
-33.34
-29.31
-24.34
-19.22
-14.5
-10.42
-7.05
-4.38
-2.45
-1.31
-0.86
-0.85
-0.88
-0.53
0.38
1.82
3.63
5.74
8.33
11.77
16.42
22.24
28.63
34.58
38.99
41.12
40.8
38.39
34.5
29.74
24.57
19.42
14.82
11.33
9.46
9.35
10.69
12.76
14.72
15.89
15.97
15.04
13.39
11.35
9.14
6.77
4.1
0.85
-3.3
-8.49
-14.48
-20.6
-25.77
-28.91
-29.3
-26.95
-22.55
-17.28
-12.29
-8.43
-6.13
-5.42
-6.23
-8.32
-11.23
-14.15
-15.96
-15.55
-12.25
-6.24
1.48
9.33
15.83
20.1
22.18
22.8
22.97
23.41
24.33
25.44
26.23
26.31
25.62
24.33
22.69
20.76
18.36
15.2
11.08
6.1
0.71
-4.43
-8.69
-11.68
-13.42
-14.2
-14.48
-14.71
-15.21
-16.19
-17.84
-20.37
-23.93
-28.43
-33.42
-38.07
-41.32
-42.26
-40.45
-36.11
-30.06
-23.38
-17.02
-11.51
-6.91
-2.99
0.54
3.79
6.66
8.97
10.54
11.38
11.68
11.78
11.98
12.5
13.42
14.65
16.01
17.34
18.46
19.31
19.89
20.19
20.21
19.89
19.18
18.1
16.76
15.35
14.1
13.16
12.49
11.94
11.21
9.98
8.12
5.68
2.96
0.41
-1.59
-2.89
-3.61
-4.2
-5.19
-7.03
-9.91
-13.7
-17.93
-21.89
-24.82
-26.01
-25
-21.74
-16.58
-10.21
-3.51
2.74
8.05
12.25
15.45
17.91
19.85
21.45
22.82
24.07
25.37
26.89
28.7
30.74
32.74
34.39
35.44
35.81
35.69
35.33
34.97
34.69
34.35
33.71
32.52
30.66
28.14
25.13
21.88
18.65
15.62
12.84
10.23
7.55
4.51
0.83
-3.66
-8.92
-14.69
-20.53
-25.99
-30.68
-34.46
-37.45
-39.99
-42.47
-45.1
-47.87
-50.38
-52.06
-52.31
-50.75
-47.32
-42.29
-36.18
-29.56
-22.96
-16.76
-11.18
-6.27
-2.05
1.51
4.45
6.82
8.73
10.37
11.97
13.73
15.71
17.82
19.83
21.55
22.85
23.75
24.38
24.82
25.05
24.98
24.49
23.5
22.05
20.25
18.24
16.12
14
11.97
10.09
8.43
6.96
5.6
4.21
2.73
1.16
-0.44
-1.94
-3.29
-4.52
-5.69
-6.96
-8.44
-10.27
-12.53
-15.26
-18.38
-21.67
-24.68
-26.79
-27.39
-26.05
-22.76
-17.94
-12.34
-6.81
-2.01
1.75
4.48
6.39
7.68
8.39
8.52
8.09
7.26
6.38
5.9
6.16
7.32
9.23
11.56
13.88
15.81
17.13
17.8
17.85
17.38
16.49
15.25
13.74
12.06
10.3
8.5
6.69
4.8
2.79
0.68
-1.44
-3.41
-5.09
-6.44
-7.55
-8.57
-9.72
-11.13
-12.89
-14.99
-17.35
-19.76
-21.88
-23.28
-23.49
-22.19
-19.32
-15.15
-10.24
-5.25
-0.73
2.97
5.76
7.76
9.17
10.18
10.91
11.42
11.72
11.87
11.94
12.04
12.28
12.72
13.31
13.91
14.35
14.49
14.26
13.7
12.86
11.81
10.57
9.13
7.52
5.77
3.99
2.24
0.56
-1.1
-2.77
-4.49
-6.22
-7.85
-9.26
-10.43
-11.47
-12.61
-14.11
-16.16
-18.8
-21.81
-24.77
-27.14
-28.36
-28.03
-26.01
-22.48
-17.92
-12.95
-8.19
-4.05
-0.68
1.99
4.16
5.96
7.43
8.48
9.08
9.23
9.12
8.96
8.97
9.28
9.9
10.76
11.76
12.82
13.81
14.61
15.07
15.04
14.41
13.21
11.56
9.69
7.78
5.97
4.31
2.81
1.46
0.23
-0.95
-2.24
-3.78
-5.65
-7.77
-9.97
-12.02
-13.89
-15.73
-17.84
-20.42
-23.44
-26.43
-28.68
-29.43
-28.2
-24.95
-20.06
-14.23
-8.18
-2.55
2.28
6.11
8.97
10.93
12.14
12.73
12.87
12.72
12.46
12.25
12.21
12.47
13.08
14.02
15.14
16.22
16.99
17.24
16.86
15.89
14.42
12.59
10.51
8.24
5.85
3.44
1.18
-0.79
-2.4
-3.67
-4.76
-5.85
-7.11
-8.66
-10.55
-12.85
-15.57
-18.72
-22.22
-25.82
-29.03
-31.24
-31.8
-30.31
-26.78
-21.7
-15.78
-9.78
-4.18
0.84
5.35
9.4
12.9
15.56
17.02
17.08
15.81
13.6
10.99
8.57
6.78
5.87
5.88
6.66
7.97
9.51
10.99
12.17
12.95
13.33
13.48
13.63
14.02
14.75
15.77
16.79
17.43
17.36
16.45
14.79
12.68
10.41
8.14
5.76
3.01
-0.37
-4.45
-8.99
-13.41
-17.03
-19.26
-19.85
-18.87
-16.65
-13.56
-9.91
-5.87
-1.59
2.71
6.68
9.9
12.08
13.09
13.12
12.51
11.66
10.91
10.45
10.39
10.8
11.64
12.83
14.17
15.38
16.15
16.28
15.72
14.56
13
11.17
9.17
6.97
4.51
1.71
-1.44
-4.84
-8.31
-11.63
-14.61
-17.18
-19.49
-21.96
-25.21
-29.87
-36.35
-44.46
-53.42
-61.9
-68.38
-71.59
-70.88
-66.33
-58.67
-49.04
-38.66
-28.61
-19.68
-12.31
-6.6
-2.3
1.04
3.94
6.75
9.6
12.35
14.71
16.46
17.54
18.07
18.3
18.43
18.64
18.96
19.45
20.13
21.04
22.13
23.22
23.99
24.1
23.36
21.82
19.81
17.74
15.98
14.68
13.8
13.13
12.45
11.57
10.41
8.92
7.15
5.2
3.24
1.43
-0.13
-1.51
-2.9
-4.61
-6.94
-9.98
-13.64
-17.53
-21.1
-23.66
-24.6
-23.53
-20.43
-15.7
-10.1
-4.49
0.42
4.27
7.13
9.29
11.04
12.45
13.42
13.78
13.52
12.92
12.47
12.59
13.46
14.87
16.39
17.58
18.25
18.5
18.52
18.49
18.33
17.84
16.83
15.33
13.61
12.09
11.04
10.48
10.12
9.56
8.46
6.77
4.64
2.41
0.35
-1.35
-2.67
-3.71
-4.62
-5.58
-6.81
-8.49
-10.74
-13.55
-16.65
-19.63
-21.93
-23.01
-22.5
-20.32
-16.69
-12.14
-7.37
-3.01
0.5
2.97
4.47
5.2
5.37
5.12
4.53
3.68
2.72
1.86
1.37
1.47
2.23
3.66
5.6
7.83
10.05
11.99
13.36
13.98
13.83
12.95
11.55
9.85
8.09
6.45
5.02
3.8
2.7
1.6
0.36
-1.09
-2.72
-4.42
-6.03
-7.49
-8.8
-10.11
-11.6
-13.37
-15.42
-17.54
-19.46
-20.88
-21.51
-21.12
-19.58
-16.85
-13.05
-8.51
-3.7
0.81
4.5
7.05
8.43
8.8
8.47
7.75
6.87
6
5.25
4.7
4.48
4.64
5.23
6.14
7.19
8.14
8.8
9.07
8.98
8.66
8.23
7.72
7.04
6.09
4.81
3.21
1.45
-0.33
-2.01
-3.55
-5
-6.38
-7.69
-8.92
-10.09
-11.27
-12.67
-14.51
-16.95
-20.02
-23.43
-26.71
-29.16
-30.17
-29.3
-26.49
-22.09
-16.73
-11.16
-6
-1.65
1.79
4.41
6.36
7.72
8.52
8.8
8.67
8.35
8.11
8.17
8.63
9.44
10.49
11.64
12.82
13.95
14.91
15.56
15.75
15.39
14.5
13.23
11.76
10.27
8.84
7.49
6.14
4.71
3.11
1.31
-0.68
-2.74
-4.73
-6.51
-8.02
-9.31
-10.59
-12.1
-14.12
-16.76
-19.88
-23.08
-25.71
-27.07
-26.59
-24.03
-19.53
-13.63
-7.08
-0.64
5.05
9.62
12.96
15.15
16.42
17.07
17.42
17.77
18.35
19.26
20.5
21.88
23.16
24.08
24.54
24.59
24.47
24.39
24.42
24.34
23.72
22.14
19.39
15.65
11.38
7.09
3.1
-0.69
-4.66
-9.29
-14.87
-21.37
-28.37
-35.31
-41.65
-47.13
-51.78
-55.93
-60.04
-64.61
-70.02
-76.44
-83.51
-90.1
-94.27
-93.73
-86.72
-72.91
-53.86
-32.65
-12.86
2.74
13.01
18.49
20.7
21.23
21.05
20.52
19.64
18.48
17.36
16.71
16.81
17.66
19.02
20.44
21.61
22.4
22.97
23.59
24.48
25.61
26.73
27.38
27.13
25.81
23.6
20.93
18.35
16.27
14.81
13.83
13
11.94
10.48
8.6
6.46
4.26
2.13
0.06
-2.06
-4.39
-7.1
-10.28
-13.97
-18.06
-22.26
-26.09
-28.94
-30.15
-29.29
-26.29
-21.53
-15.73
-9.72
-4.21
0.4
4.01
6.78
8.9
10.51
11.62
12.21
12.29
11.96
11.42
10.94
10.8
11.14
11.97
13.14
14.37
15.37
15.88
15.77
15.03
13.76
12.14
10.38
8.7
7.29
6.25
5.54
5.02
4.47
3.66
2.48
0.98
-0.73
-2.48
-4.18
-5.84
-7.56
-9.5
-11.8
-14.58
-17.82
-21.37
-24.81
-27.62
-29.14
-28.86
-26.55
-22.4
-16.96
-11
-5.29
-0.35
3.57
6.47
8.51
9.85
10.57
10.7
10.27
9.36
8.2
7.07
6.33
6.2
6.74
7.76
8.9
9.73
9.95
9.43
8.22
6.49
4.43
2.15
-0.31
-2.95
-5.78
-8.75
-11.79
-14.79
-17.65
-20.27
-22.57
-24.54
-26.2
-27.63
-28.98
-30.39
-32.02
-33.91
-35.98
-37.93
-39.28
-39.45
-37.88
-34.31
-28.77
-21.74
-13.95
-6.21
0.84
6.88
11.94
16.3
20.25
23.99
27.53
30.78
33.65
36.19
38.59
41.11
43.89
46.85
49.67
51.97
53.4
53.84
53.39
52.27
50.7
48.83
46.66
44.11
41.14
37.75
34.07
30.29
26.6
23.09
19.76
16.5
13.22
9.86
6.52
3.32
0.41
-2.27
-4.93
-7.89
-11.41
-15.49
-19.81
-23.76
-26.64
-27.84
-27.08
-24.4
-20.17
-14.94
-9.29
-3.76
1.18
5.25
8.33
10.44
11.72
12.37
12.58
12.46
12.16
11.75
11.37
11.17
11.21
11.5
11.97
12.51
13.01
13.37
13.53
13.43
13.06
12.42
11.58
10.61
9.58
8.51
7.36
6.08
4.68
3.19
1.71
0.31
-0.97
-2.18
-3.38
-4.63
-6
-7.54
-9.32
-11.44
-14
-17.01
-20.27
-23.32
-25.51
-26.14
-24.74
-21.25
-16.07
-9.98
-3.85
1.61
5.96
9.11
11.13
12.2
12.5
12.16
11.4
10.44
9.58
9.09
9.17
9.88
11.11
12.58
13.93
14.84
15.13
14.88
14.31
13.71
13.21
12.78
12.21
11.36
10.19
8.85
7.54
6.39
5.38
4.38
3.28
2.07
0.87
-0.19
-1.1
-1.96
-2.98
-4.3
-5.85
-7.36
-8.39
-8.55
-7.55
-5.34
-2.1
1.83
6
9.88
12.97
14.81
15.05
13.52
10.3
5.82
0.84
-3.7
-7
-8.66
-8.92
-8.58
-8.62
-9.77
-12.1
-15.02
-17.57
-19.05
-19.4
-19.29
-19.78
-21.87
-26.06
-32.32
-40.25
-49.11
-57.67
-64.02
-65.84
-61.22
-49.83
-33.63
-16.53
-2.95
4.12
4.35
0.04
-5.33
-8.87
-9.47
-7.77
-5.14
-2.54
-0.02
2.96
6.79
11.15
15.14
17.71
18.26
16.95
14.6
12.31
10.97
10.93
11.97
13.47
14.75
15.42
15.46
15.21
15.09
15.33
15.86
16.31
16.21
15.23
13.37
10.91
8.3
5.92
3.96
2.32
0.8
-0.86
-2.76
-4.91
-7.19
-9.49
-11.73
-14.01
-16.51
-19.45
-22.94
-26.89
-30.85
-34.09
-35.78
-35.27
-32.33
-27.27
-20.84
-13.95
-7.42
-1.76
2.84
6.45
9.24
11.36
12.91
13.92
14.45
14.6
14.54
14.53
14.75
15.34
16.2
17.13
17.88
18.3
18.39
18.29
18.09
17.8
17.31
16.44
15.1
13.37
11.45
9.6
7.95
6.46
4.92
3.1
0.85
-1.75
-4.47
-7.03
-9.24
-11.15
-12.97
-15.06
-17.71
-21.07
-24.97
-29
-32.5
-34.79
-35.28
-33.65
-29.95
-24.53
-18.03
-11.17
-4.62
1.12
5.73
9.17
11.54
13.09
14.09
14.75
15.23
15.57
15.81
16.03
16.34
16.84
17.54
18.36
19.15
19.79
20.27
20.63
20.9
20.99
20.7
19.83
18.32
16.31
14.06
11.83
9.73
7.68
5.5
3.03
0.26
-2.7
-5.68
-8.52
-11.15
-13.55
-15.74
-17.83
-20.05
-22.7
-26.08
-30.23
-34.84
-39.17
-42.25
-43.17
-41.42
-37.02
-30.57
-23
-15.26
-8.04
-1.74
3.59
8
11.56
14.28
16.12
17.12
17.46
17.41
17.34
17.53
18.08
18.89
19.76
20.55
21.21
21.85
22.57
23.39
24.13
24.51
24.25
23.18
21.37
19.02
16.38
13.7
11.1
8.62
6.25
3.93
1.62
-0.69
-2.99
-5.21
-7.3
-9.24
-11.07
-12.92
-14.92
-17.26
-20.12
-23.63
-27.8
-32.38
-36.83
-40.3
-41.93
-41.04
-37.46
-31.56
-24.14
-16.18
-8.52
-1.74
3.91
8.42
11.92
14.54
16.4
17.59
18.18
18.28
18.06
17.76
17.59
17.75
18.29
19.15
20.18
21.18
22.04
22.69
23.11
23.28
23.08
22.35
20.93
18.81
16.15
13.25
10.49
8.14
6.29
4.85
3.6
2.26
0.68
-1.18
-3.25
-5.36
-7.38
-9.25
-11.02
-12.83
-14.93
-17.53
-20.81
-24.85
-29.5
-34.43
-39.02
-42.5
-44.05
-43.09
-39.44
-33.43
-25.81
-17.52
-9.43
-2.17
3.95
8.83
12.53
15.15
16.77
17.54
17.64
17.32
16.87
16.57
16.62
17.12
18.04
19.28
20.66
22.04
23.3
24.33
25.05
25.37
25.25
24.61
23.45
21.76
19.59
17.08
14.44
11.94
9.78
8.03
6.55
5.06
3.28
1.09
-1.46
-4.16
-6.77
-9.15
-11.29
-13.31
-15.36
-17.66
-20.35
-23.55
-27.25
-31.22
-35.01
-37.95
-39.32
-38.53
-35.29
-29.73
-22.41
-14.21
-6.06
1.23
7.19
11.69
14.85
16.92
18.09
18.44
18.06
17.15
16.08
15.32
15.31
16.25
18.01
20.2
22.41
24.33
25.86
27.08
28.08
28.87
29.34
29.35
28.81
27.77
26.42
25
23.74
22.76
21.99
21.23
20.21
18.64
16.31
13.21
9.5
5.52
1.66
-1.74
-4.49
-6.57
-8.12
-9.37
-10.64
-12.22
-14.38
-17.2
-20.46
-23.6
-25.79
-26.21
-24.32
-20.12
-14.17
-7.36
-0.58
5.5
10.61
14.68
17.72
19.62
20.27
19.58
17.71
15.04
12.07
9.32
7.06
5.39
4.25
3.55
3.17
3.06
3.05
2.95
2.48
1.42
-0.33
-2.72
-5.54
-8.53
-11.47
-14.27
-16.94
-19.55
-22.2
-24.92
-27.68
-30.35
-32.72
-34.6
-35.82
-36.37
-36.38
-36.19
-36.2
-36.8
-38.22
-40.37
-42.82
-44.88
-45.7
-44.57
-41.12
-35.41
-27.98
-19.64
-11.26
-3.57
2.97
8.2
12.13
14.86
16.52
17.24
17.13
16.42
15.42
14.51
14.03
14.23
15.14
16.58
18.24
19.79
21.02
21.86
22.32
22.42
22.11
21.29
19.89
17.93
15.54
12.97
10.41
8
5.69
3.38
0.93
-1.75
-4.6
-7.47
-10.17
-12.58
-14.65
-16.48
-18.31
-20.44
-23.14
-26.55
-30.54
-34.68
-38.27
-40.46
-40.53
-38.1
-33.24
-26.48
-18.63
-10.57
-2.99
3.67
9.19
13.53
16.72
18.82
19.91
20.12
19.71
19
18.37
18.13
18.51
19.52
21.05
22.85
24.62
26.07
27.01
27.37
27.18
26.51
25.46
24.1
22.42
20.42
18.09
15.5
12.78
10.12
7.67
5.47
3.46
1.49
-0.58
-2.79
-5.11
-7.43
-9.63
-11.63
-13.42
-15.07
-16.74
-18.65
-21.04
-24.17
-28.05
-32.39
-36.58
-39.76
-41.15
-40.2
-36.83
-31.38
-24.49
-16.95
-9.48
-2.67
3.1
7.65
10.99
13.28
14.79
15.76
16.44
16.98
17.44
17.88
18.32
18.86
19.6
20.66
22.06
23.68
25.25
26.45
26.99
26.77
25.87
24.49
22.87
21.16
19.39
17.56
15.62
13.58
11.47
9.36
7.33
5.42
3.64
1.96
0.26
-1.54
-3.52
-5.71
-8.02
-10.31
-12.47
-14.43
-16.27
-18.17
-20.38
-23.18
-26.72
-30.92
-35.36
-39.28
-41.77
-42.01
-39.58
-34.61
-27.74
-19.9
-12.03
-4.82
1.37
6.45
10.43
13.33
15.2
16.12
16.32
16.13
15.92
15.98
16.44
17.27
18.3
19.35
20.25
20.94
21.41
21.69
21.81
21.78
21.57
21.14
20.43
19.39
17.98
16.18
14.09
11.82
9.56
7.46
5.61
4
2.54
1.17
-0.14
-1.43
-2.79
-4.33
-6.22
-8.48
-11
-13.52
-15.8
-17.71
-19.39
-21.2
-23.53
-26.61
-30.35
-34.27
-37.66
-39.68
-39.64
-37.2
-32.48
-25.98
-18.51
-10.91
-3.86
2.22
7.21
11.14
14.11
16.19
17.47
18.09
18.3
18.45
18.89
19.9
21.54
23.62
25.82
27.77
29.24
30.2
30.81
31.28
31.77
32.22
32.44
32.14
31.11
29.37
27.15
24.89
23.04
21.98
21.82
22.35
23.09
23.37
22.6
20.46
17
12.57
7.72
2.95
-1.36
-5.05
-8.12
-10.7
-13.02
-15.39
-18.15
-21.42
-25.01
-28.32
-30.42
-30.41
-27.81
-22.88
-16.57
-10.27
-5.23
-2.08
-0.69
-0.34
-0.17
0.29
0.97
1.3
0.67
-1.16
-3.86
-6.67
-8.78
-9.7
-9.51
-8.76
-8.15
-8.24
-9.23
-10.97
-13.13
-15.33
-17.12
-17.9
-16.92
-13.48
-7.29
1.29
11.11
20.63
28.4
33.6
36.17
36.71
36.04
34.83
33.45
32.09
30.9
30.05
29.68
29.78
30.16
30.52
30.61
30.28
29.53
28.45
27.23
26.13
25.51
25.75
27.06
29.38
32.31
35.26
37.66
39.22
39.91
39.79
38.83
36.69
32.9
27.09
19.43
10.71
2.2
-4.79
-9.32
-11.21
-11.01
-9.81
-8.79
-8.88
-10.49
-13.53
-17.56
-22.1
-26.85
-31.82
-37.23
-43.27
-50.01
-57.31
-65.01
-73
-81.34
-90.1
-99.22
-108.49
-117.66
-126.64
-135.54
-144.52
-153.27
-160.56
-164.17
-161.35
-149.94
-129.37
-101.29
-69.22
-37.51
-9.89
11.56
26.65
36.55
42.81
46.69
48.82
49.56
49.29
48.67
48.4
48.94
50.14
51.37
51.83
50.96
48.75
45.78
42.95
41.13
40.79
41.84
43.6
45.14
45.61
44.55
42.02
38.51
34.69
31.02
27.6
24.14
20.17
15.32
9.57
3.31
-2.82
-8.27
-12.8
-16.56
-19.96
-23.46
-27.35
-31.65
-36.24
-41.04
-45.96
-50.94
-55.79
-60.18
-63.76
-66.34
-68.16
-69.83
-72.09
-75.38
-79.45
-83.29
-85.5
-84.8
-80.59
-73.15
-63.44
-52.55
-41.28
-29.97
-18.64
-7.39
3.42
13.1
21.04
26.98
31.32
34.88
38.57
42.98
48.13
53.48
58.19
61.46
62.83
62.29
60.27
57.4
54.25
51.2
48.3
45.43
42.38
39.08
35.64
32.27
29.17
26.37
23.72
20.97
17.92
14.55
11.06
7.74
4.98
3.07
2.2
2.42
3.69
5.89
8.84
12.31
16.03
19.77
23.32
26.58
29.5
32.08
34.24
35.88
36.86
37.07
36.53
35.48
34.3
33.52
33.66
35.02
37.62
41.04
44.55
47.22
48.24
47.24
44.35
40.2
35.53
30.89
26.35
21.5
15.76
8.66
0.08
-9.71
-20.2
-30.79
-40.94
-50.14
-57.89
-63.72
-67.28
-68.53
-67.73
-65.43
-62.27
-58.83
-55.49
-52.51
-50.03
-48.11
-46.67
-45.48
-44.17
-42.3
-39.66
-36.37
-32.92
-29.86
-27.57
-26.04
-24.82
-23.32
-21.14
-18.28
-15.08
-11.98
-9.24
-6.75
-4.22
-1.42
1.63
4.64
7.3
9.52
11.48
13.48
15.63
17.67
19.03
19.21
18
15.68
12.92
10.38
8.44
7.04
5.79
4.22
1.99
-0.95
-4.39
-7.93
-11.13
-13.55
-14.93
-15.27
-14.84
-14.16
-13.89
-14.66
-16.72
-19.87
-23.39
-26.25
-27.38
-26.05
-22.1
-15.98
-8.53
-0.7
6.77
13.46
19.26
24.25
28.48
31.94
34.51
36
36.26
35.22
32.93
29.57
25.47
21
16.53
12.41
8.92
6.23
4.48
3.69
3.78
4.5
5.49
6.35
6.81
6.8
6.52
6.27
6.34
6.89
7.9
9.23
10.73
12.28
13.82
15.26
16.48
17.28
17.42
16.69
14.94
12.12
8.21
3.34
-2.26
-8.17
-13.79
-18.43
-21.46
-22.51
-21.61
-19.13
-15.74
-12.15
-8.93
-6.39
-4.56
-3.26
-2.24
-1.26
-0.16
1.14
2.66
4.36
6.23
8.26
10.41
12.55
14.48
15.95
16.76
16.89
16.48
15.77
14.99
14.21
13.33
12.18
10.62
8.68
6.54
4.52
2.85
1.59
0.58
-0.46
-1.75
-3.36
-5.13
-6.84
-8.24
-9.3
-10.18
-11.2
-12.71
-14.92
-17.82
-21.15
-24.49
-27.24
-28.86
-28.96
-27.41
-24.44
-20.46
-15.98
-11.46
-7.16
-3.28
0.08
2.82
4.86
6.19
6.87
7.06
6.94
6.66
6.32
6
5.82
5.92
6.4
7.32
8.53
9.81
10.88
11.5
11.57
11.07
10.12
8.85
7.47
6.22
5.31
4.98
5.3
6.18
7.31
8.26
8.68
8.4
7.51
6.28
5.01
3.88
2.87
1.79
0.39
-1.58
-4.26
-7.65
-11.53
-15.44
-18.75
-20.83
-21.22
-19.8
-16.85
-12.92
-8.69
-4.69
-1.24
1.56
3.76
5.42
6.56
7.17
7.28
7.03
6.69
6.59
7.01
8.05
9.56
11.21
12.64
13.64
14.25
14.74
15.39
16.35
17.49
18.46
18.87
18.46
17.31
15.75
14.27
13.21
12.68
12.41
11.95
10.86
8.91
6.14
2.83
-0.69
-4.21
-7.67
-11.1
-14.57
-18.06
-21.53
-24.91
-28.13
-31.14
-33.69
-35.43
-35.87
-34.63
-31.63
-27.19
-21.91
-16.5
-11.48
-7.05
-3.17
0.24
3.19
5.5
6.97
7.55
7.37
6.81
6.27
6.07
6.29
6.83
7.4
7.78
7.82
7.59
7.31
7.32
7.91
9.15
10.84
12.56
13.84
14.36
14.16
13.52
12.86
12.48
12.44
12.54
12.48
11.96
10.86
9.17
7.05
4.68
2.26
-0.06
-2.27
-4.42
-6.67
-9.16
-11.95
-14.91
-17.78
-20.17
-21.63
-21.76
-20.36
-17.44
-13.26
-8.29
-3.09
1.82
6.07
9.45
11.92
13.55
14.49
14.89
14.9
14.65
14.25
13.78
13.31
12.95
12.78
12.87
13.18
13.63
14.11
14.48
14.63
14.46
13.88
12.8
11.23
9.28
7.22
5.36
3.93
3
2.45
2.05
1.57
0.87
-0.09
-1.23
-2.48
-3.79
-5.13
-6.58
-8.19
-10.09
-12.34
-15.02
-17.97
-20.9
-23.27
-24.5
-24.18
-22.2
-18.82
-14.62
-10.25
-6.2
-2.71
0.2
2.61
4.58
6.08
7.03
7.39
7.25
6.78
6.21
5.74
5.52
5.61
6
6.63
7.39
8.12
8.7
9.05
9.14
9.04
8.79
8.46
8.05
7.47
6.66
5.55
4.12
2.37
0.28
-2.14
-4.91
-7.97
-11.15
-14.24
-17.07
-19.6
-21.97
-24.38
-26.99
-29.66
-32.02
-33.48
-33.49
-31.73
-28.19
-23.25
-17.45
-11.41
-5.66
-0.58
3.66
7.02
9.59
11.49
12.88
13.86
14.53
14.97
15.24
15.42
15.57
15.72
15.87
16.02
16.16
16.27
16.37
16.4
16.35
16.18
15.83
15.3
14.56
13.62
12.45
11.02
9.33
7.44
5.49
3.66
2.15
1.02
0.16
-0.63
-1.62
-2.98
-4.75
-6.85
-9.07
-11.12
-12.71
-13.51
-13.2
-11.52
-8.44
-4.12
1.01
6.44
11.65
16.27
20.2
23.47
26.2
28.4
29.94
30.54
29.96
28.13
25.18
21.42
17.22
12.81
8.35
3.9
-0.37
-4.21
-7.26
-9.29
-10.28
-10.44
-10.14
-9.7
-9.3
-8.92
-8.44
-7.77
-6.93
-6.1
-5.51
-5.38
-5.75
-6.47
-7.28
-7.95
-8.37
-8.67
-9.16
-10.18
-11.99
-14.56
-17.63
-20.69
-23.19
-24.6
-24.59
-23.02
-20.02
-15.96
-11.37
-6.8
-2.69
0.76
3.55
5.85
7.83
9.56
10.99
12.01
12.6
12.88
13.08
13.49
14.29
15.53
17.09
18.76
20.37
21.83
23.07
24.1
24.91
25.48
25.79
25.83
25.58
25.05
24.23
23.2
22.06
20.92
19.8
18.54
16.76
13.98
9.81
4.17
-2.63
-9.96
-17.15
-23.61
-29.01
-33.19
-36.02
-37.36
-37.03
-35.03
-31.55
-27.06
-22.12
-17.25
-12.73
-8.64
-4.89
-1.38
1.95
5.06
7.89
10.37
12.48
14.26
15.7
16.81
17.52
17.73
17.41
16.61
15.48
14.17
12.8
11.33
9.68
7.75
5.55
3.28
1.2
-0.45
-1.61
-2.49
-3.44
-4.81
-6.81
-9.37
-12.25
-15.07
-17.53
-19.51
-21.08
-22.45
-23.87
-25.52
-27.41
-29.39
-31.2
-32.49
-32.89
-32.09
-29.87
-26.23
-21.41
-15.89
-10.29
-5.19
-0.97
2.29
4.69
6.43
7.69
8.54
9.06
9.42
9.83
10.49
11.47
12.67
13.82
14.71
15.25
15.55
15.82
16.22
16.73
17.18
17.32
16.97
16.09
14.84
13.45
12.15
11.04
10.02
8.91
7.47
5.59
3.32
0.87
-1.49
-3.55
-5.26
-6.79
-8.38
-10.36
-12.94
-16.18
-19.92
-23.77
-27.15
-29.46
-30.24
-29.28
-26.83
-23.39
-19.64
-16.17
-13.38
-11.29
-9.69
-8.29
-6.88
-5.51
-4.49
-4.27
-5.15
-7.12
-9.66
-11.92
-13.06
-12.63
-10.86
-8.58
-6.87
-6.4
-7.14
-8.23
-8.48
-7
-3.68
0.64
4.62
7.04
7.44
6.23
4.45
3.24
3.43
5.41
9.19
14.44
20.27
25.04
26.44
22.23
11.37
-5.02
-23.63
-40.05
-50.58
-53.75
-50.65
-43.87
-35.88
-27.83
-19.44
-9.97
0.58
11.03
19.46
24.27
25.16
23.27
20.62
18.98
19.19
20.77
22.38
22.46
19.99
14.92
8.26
1.66
-3.18
-5.2
-4.37
-1.55
1.93
4.99
7.17
8.7
10.12
11.8
13.6
14.92
15.05
13.63
10.93
7.79
5.26
4.09
4.39
5.61
6.83
7.23
6.45
4.71
2.6
0.78
-0.36
-0.84
-1.01
-1.45
-2.7
-5.12
-8.72
-13.17
-17.78
-21.71
-24.2
-24.82
-23.65
-21.23
-18.28
-15.39
-12.79
-10.27
-7.4
-3.9
0.16
4.29
7.74
9.87
10.37
9.48
7.8
6.17
5.27
5.5
6.84
8.91
11.06
12.62
13.04
12.07
9.84
6.79
3.59
0.85
-0.98
-1.76
-1.58
-0.66
0.71
2.25
3.64
4.48
4.32
2.78
-0.24
-4.41
-9.02
-13.22
-16.34
-18.18
-19.03
-19.45
-20.02
-21.03
-22.5
-24.25
-26.04
-27.62
-28.72
-28.98
-28.06
-25.76
-22.2
-17.83
-13.32
-9.24
-5.94
-3.41
-1.48
0.08
1.41
2.54
3.56
4.56
5.71
7.11
8.75
10.5
12.19
13.67
14.91
16.02
17.12
18.29
19.52
20.69
21.6
22.14
22.24
21.95
21.33
20.49
19.46
18.28
16.97
15.6
14.26
12.96
11.62
10.12
8.32
6.22
3.96
1.7
-0.46
-2.55
-4.81
-7.46
-10.57
-14
-17.31
-19.96
-21.44
-21.47
-19.98
-17.17
-13.44
-9.29
-5.27
-1.77
0.95
2.9
4.23
5.15
5.8
6.23
6.34
6.12
5.6
4.98
4.54
4.53
5.03
5.97
7.14
8.28
9.2
9.84
10.17
10.21
9.91
9.12
7.78
5.9
3.64
1.32
-0.74
-2.34
-3.44
-4.22
-4.92
-5.76
-6.83
-8.08
-9.36
-10.56
-11.68
-12.83
-14.22
-15.95
-17.95
-19.89
-21.21
-21.34
-19.91
-16.89
-12.65
-7.8
-2.98
1.32
4.92
7.83
10.17
12.01
13.31
13.99
14.06
13.63
13.01
12.55
12.49
12.9
13.61
14.37
14.94
15.21
15.21
14.98
14.52
13.76
12.63
11.14
9.47
7.92
6.74
6.03
5.63
5.15
4.19
2.52
0.22
-2.39
-4.86
-6.89
-8.41
-9.61
-10.83
-12.33
-14.26
-16.61
-19.27
-22.01
-24.51
-26.32
-26.93
-25.94
-23.21
-19.03
-14
-8.92
-4.45
-0.98
1.49
3.19
4.44
5.47
6.32
6.97
7.35
7.52
7.61
7.79
8.17
8.72
9.29
9.72
9.98
10.18
10.52
11.12
11.85
12.37
12.2
11.02
8.82
5.9
2.72
-0.3
-2.97
-5.33
-7.52
-9.62
-11.65
-13.52
-15.15
-16.51
-17.66
-18.68
-19.65
-20.67
-21.82
-23.24
-24.96
-26.89
-28.68
-29.76
-29.5
-27.42
-23.36
-17.61
-10.83
-3.83
2.61
8.04
12.31
15.62
18.26
20.5
22.43
24
25.13
25.79
26.08
26.18
26.29
26.51
26.86
27.26
27.54
27.61
27.39
26.88
26.09
25.03
23.68
21.97
19.84
17.31
14.52
11.71
9.12
6.88
4.98
3.27
1.51
-0.4
-2.44
-4.39
-6
-7.09
-7.72
-8.17
-8.91
-10.36
-12.78
-16.15
-20.16
-24.37
-28.2
-31.08
-32.49
-32.02
-29.53
-25.2
-19.55
-13.35
-7.34
-2.06
2.3
5.82
8.73
11.19
13.28
14.94
16.13
16.91
17.37
17.64
17.79
17.78
17.49
16.83
15.78
14.38
12.79
11.14
9.51
7.87
6.14
4.28
2.32
0.39
-1.31
-2.61
-3.43
-3.86
-4.02
-4.09
-4.2
-4.45
-4.9
-5.6
-6.62
-7.98
-9.68
-11.68
-13.89
-16.17
-18.34
-20.24
-21.8
-23.08
-24.31
-25.75
-27.56
-29.58
-31.25
-31.79
-30.49
-27
-21.54
-14.79
-7.69
-1.1
4.41
8.64
11.72
13.91
15.43
16.45
17.05
17.27
17.25
17.17
17.25
17.63
18.28
19.01
19.6
19.91
19.95
19.89
19.95
20.19
20.49
20.57
20.15
19.09
17.44
15.43
13.29
11.26
9.41
7.76
6.25
4.79
3.29
1.68
-0.1
-2.05
-4.13
-6.21
-8.15
-9.83
-11.23
-12.41
-13.56
-14.9
-16.67
-19.04
-21.99
-25.26
-28.32
-30.48
-31.07
-29.7
-26.39
-21.61
-16.09
-10.64
-5.87
-2.08
0.75
2.86
4.54
5.96
7.21
8.24
9.01
9.58
10.15
10.99
12.28
14.01
15.95
17.72
18.99
19.64
19.81
19.79
19.82
19.96
20.07
19.92
19.34
18.33
17.01
15.56
14.1
12.67
11.24
9.74
8.14
6.42
4.57
2.61
0.59
-1.41
-3.31
-5.15
-7.05
-9.26
-12.02
-15.41
-19.34
-23.49
-27.44
-30.72
-32.87
-33.52
-32.42
-29.54
-25.11
-19.66
-13.88
-8.45
-3.83
-0.16
2.66
4.89
6.68
8.12
9.17
9.85
10.27
10.64
11.23
12.22
13.65
15.35
17.09
18.64
19.89
20.82
21.45
21.75
21.63
20.97
19.72
17.93
15.8
13.63
11.64
10
8.71
7.7
6.84
5.97
4.95
3.62
1.88
-0.28
-2.73
-5.21
-7.51
-9.43
-10.94
-12.18
-13.37
-14.81
-16.78
-19.42
-22.64
-26.02
-28.89
-30.45
-30.09
-27.61
-23.32
-17.88
-12.1
-6.64
-1.85
2.17
5.45
7.99
9.76
10.77
11.08
10.96
10.74
10.77
11.24
12.19
13.43
14.7
15.74
16.36
16.56
16.48
16.31
16.19
16.15
16.06
15.71
14.92
13.6
11.87
9.97
8.23
6.89
6.07
5.63
5.26
4.61
3.42
1.66
-0.44
-2.55
-4.36
-5.73
-6.78
-7.79
-9.18
-11.28
-14.2
-17.79
-21.61
-25
-27.26
-27.82
-26.45
-23.33
-19
-14.12
-9.23
-4.66
-0.52
3.18
6.35
8.83
10.43
11.08
10.88
10.12
9.18
8.39
8
8.08
8.61
9.48
10.56
11.71
12.79
13.68
14.29
14.51
14.21
13.29
11.74
9.68
7.41
5.27
3.57
2.41
1.69
1.12
0.37
-0.78
-2.33
-4.09
-5.77
-7.14
-8.15
-9
-10.02
-11.56
-13.8
-16.66
-19.85
-22.89
-25.3
-26.64
-26.61
-25.06
-22.05
-17.88
-13
-7.97
-3.26
0.79
4.04
6.49
8.21
9.25
9.67
9.54
9.01
8.36
7.92
7.98
8.65
9.86
11.36
12.86
14.14
15.14
15.9
16.45
16.78
16.78
16.29
15.25
13.7
11.82
9.9
8.2
6.91
6.06
5.52
5.04
4.31
3.06
1.16
-1.27
-3.98
-6.6
-8.84
-10.54
-11.78
-12.8
-13.95
-15.56
-17.79
-20.54
-23.45
-25.91
-27.26
-27.01
-24.96
-21.28
-16.44
-11.02
-5.62
-0.73
3.36
6.47
8.59
9.81
10.34
10.38
10.19
10
10.01
10.39
11.2
12.38
13.72
14.97
15.92
16.47
16.68
16.7
16.63
16.47
16.14
15.51
14.56
13.34
11.99
10.6
9.23
7.85
6.43
4.94
3.39
1.8
0.17
-1.5
-3.2
-4.89
-6.45
-7.82
-8.97
-10.02
-11.16
-12.63
-14.58
-17.07
-19.93
-22.86
-25.45
-27.21
-27.73
-26.75
-24.27
-20.52
-15.97
-11.17
-6.63
-2.72
0.43
2.81
4.51
5.65
6.29
6.54
6.54
6.45
6.47
6.74
7.33
8.17
9.12
10.02
10.71
11.09
11.17
10.99
10.64
10.22
9.76
9.21
8.47
7.45
6.16
4.77
3.55
2.76
2.52
2.74
3.1
3.23
2.85
1.89
0.49
-1.1
-2.66
-4.07
-5.33
-6.57
-7.94
-9.62
-11.73
-14.35
-17.4
-20.57
-23.35
-25.06
-25.15
-23.34
-19.87
-15.36
-10.64
-6.46
-3.22
-0.9
0.79
2.18
3.47
4.63
5.52
6.03
6.19
6.19
6.28
6.63
7.25
8
8.66
9.11
9.3
9.33
9.35
9.45
9.58
9.58
9.22
8.3
6.75
4.68
2.39
0.26
-1.38
-2.36
-2.75
-2.87
-3.1
-3.76
-4.91
-6.37
-7.77
-8.74
-9.1
-8.92
-8.53
-8.36
-8.81
-10.05
-12.11
-14.75
-17.58
-20.08
-21.65
-21.79
-20.22
-17
-12.58
-7.64
-2.87
1.22
4.39
6.63
8.08
8.89
9.25
9.35
9.47
9.87
10.71
11.97
13.43
14.79
15.76
16.2
16.14
15.68
14.99
14.21
13.43
12.7
12.04
11.38
10.61
9.58
8.27
6.77
5.28
4.02
3.1
2.49
2.01
1.46
0.71
-0.25
-1.34
-2.45
-3.54
-4.66
-5.92
-7.43
-9.24
-11.27
-13.39
-15.4
-17.15
-18.48
-19.24
-19.26
-18.34
-16.39
-13.46
-9.84
-5.99
-2.39
0.62
2.91
4.59
5.83
6.73
7.33
7.59
7.53
7.24
6.91
6.72
6.78
7.12
7.74
8.57
9.55
10.59
11.57
12.29
12.56
12.29
11.46
10.19
8.67
7.11
5.64
4.32
3.14
2.02
0.92
-0.17
-1.23
-2.2
-3.03
-3.71
-4.3
-4.93
-5.81
-7.15
-9.05
-11.45
-14.09
-16.59
-18.58
-19.76
-19.98
-19.22
-17.56
-15.14
-12.15
-8.82
-5.46
-2.4
0.05
1.73
2.6
2.8
2.59
2.25
2.03
2.13
2.64
3.55
4.74
5.99
7.11
7.91
8.3
8.32
8.06
7.63
7.09
6.5
5.83
5.09
4.33
3.57
2.85
2.12
1.28
0.26
-0.95
-2.24
-3.42
-4.28
-4.74
-4.87
-4.87
-4.99
-5.48
-6.43
-7.86
-9.64
-11.62
-13.54
-15.09
-15.91
-15.65
-14.08
-11.18
-7.27
-2.91
1.24
4.63
6.98
8.31
8.91
9.1
9.13
9.09
8.93
8.6
8.12
7.55
7.04
6.64
6.35
6.09
5.8
5.49
5.24
5.14
5.2
5.35
5.43
5.31
4.92
4.28
3.5
2.67
1.88
1.22
0.69
0.29
-0.04
-0.41
-0.88
-1.46
-2.02
-2.45
-2.65
-2.76
-3.01
-3.73
-5.15
-7.29
-9.91
-12.58
-14.78
-16.02
-16.04
-14.76
-12.44
-9.53
-6.56
-3.95
-1.94
-0.52
0.5
1.31
2.03
2.69
3.22
3.64
3.98
4.33
4.76
5.26
5.78
6.26
6.75
7.37
8.3
9.6
11.16
12.71
13.85
14.29
13.91
12.8
11.17
9.24
7.15
4.97
2.72
0.46
-1.68
-3.56
-5.1
-6.29
-7.2
-7.97
-8.75
-9.72
-11.04
-12.83
-15.13
-17.77
-20.44
-22.67
-23.98
-24
-22.56
-19.77
-15.94
-11.55
-7.13
-3.09
0.29
2.93
4.93
6.48
7.72
8.73
9.45
9.77
9.65
9.19
8.59
8.1
7.89
7.98
8.23
8.45
8.45
8.2
7.78
7.32
6.88
6.41
5.78
4.85
3.58
2.09
0.64
-0.54
-1.34
-1.85
-2.35
-3.17
-4.55
-6.45
-8.6
-10.61
-12.15
-13.12
-13.7
-14.26
-15.21
-16.76
-18.87
-21.24
-23.4
-24.85
-25.16
-24.09
-21.64
-18.04
-13.77
-9.42
-5.51
-2.35
0.01
1.77
3.2
4.54
5.89
7.2
8.38
9.39
10.27
11.13
12.05
13.08
14.17
15.23
16.16
16.92
17.44
17.66
17.5
16.9
15.81
14.29
12.49
10.6
8.77
7.08
5.54
4.12
2.79
1.53
0.28
-1.02
-2.45
-4.05
-5.8
-7.58
-9.28
-10.85
-12.37
-14
-15.89
-18.02
-20.19
-21.96
-22.91
-22.66
-21.08
-18.28
-14.57
-10.43
-6.32
-2.69
0.25
2.41
3.93
4.98
5.74
6.27
6.6
6.74
6.76
6.81
7.04
7.52
8.22
9.01
9.76
10.41
10.98
11.5
11.97
12.29
12.3
11.88
10.98
9.7
8.2
6.7
5.34
4.23
3.33
2.57
1.81
0.92
-0.21
-1.61
-3.21
-4.94
-6.71
-8.5
-10.33
-12.26
-14.36
-16.61
-18.98
-21.33
-23.47
-25.07
-25.77
-25.25
-23.35
-20.16
-16.07
-11.64
-7.39
-3.68
-0.66
1.68
3.44
4.72
5.6
6.23
6.75
7.35
8.16
9.25
10.56
12.01
13.43
14.7
15.69
16.32
16.56
16.45
16.06
15.49
14.8
13.95
12.89
11.56
9.99
8.35
6.83
5.59
4.73
4.16
3.74
3.28
2.63
1.72
0.56
-0.74
-2.03
-3.16
-4.08
-4.85
-5.72
-6.98
-8.88
-11.47
-14.52
-17.6
-20.16
-21.7
-21.93
-20.71
-18.11
-14.37
-9.91
-5.22
-0.82
2.86
5.61
7.46
8.63
9.39
9.93
10.29
10.34
9.99
9.26
8.37
7.69
7.52
7.96
8.81
9.71
10.28
10.34
9.96
9.4
8.91
8.64
8.52
8.35
7.95
7.22
6.24
5.18
4.23
3.46
2.87
2.34
1.75
1.06
0.27
-0.55
-1.32
-2
-2.6
-3.21
-3.9
-4.78
-5.98
-7.57
-9.58
-11.91
-14.28
-16.31
-17.55
-17.68
-16.56
-14.33
-11.31
-7.91
-4.52
-1.4
1.3
3.53
5.28
6.56
7.37
7.75
7.73
7.36
6.76
6.06
5.44
5.05
5.03
5.41
6.16
7.15
8.19
9.12
9.75
9.99
9.82
9.29
8.49
7.5
6.36
5.11
3.74
2.3
0.87
-0.46
-1.59
-2.53
-3.34
-4.08
-4.8
-5.5
-6.23
-7.09
-8.24
-9.86
-12.02
-14.56
-17.07
-18.96
-19.68
-18.88
-16.59
-13.17
-9.2
-5.29
-1.84
1.01
3.35
5.38
7.2
8.8
10.02
10.71
10.81
10.42
9.79
9.21
8.93
9.06
9.57
10.33
11.14
11.87
12.42
12.77
12.87
12.67
12.1
11.1
9.73
8.17
6.64
5.32
4.2
3.11
1.81
0.18
-1.75
-3.73
-5.5
-6.88
-7.94
-8.9
-10.05
-11.66
-13.82
-16.49
-19.45
-22.35
-24.77
-26.24
-26.4
-25.03
-22.17
-18.12
-13.34
-8.38
-3.78
0.06
2.97
4.97
6.31
7.23
7.95
8.57
9.12
9.6
10.04
10.51
11.05
11.7
12.39
13.05
13.6
14.03
14.33
14.49
14.43
14.03
13.2
11.92
10.29
8.48
6.71
5.14
3.84
2.79
1.84
0.85
-0.35
-1.77
-3.38
-5.06
-6.64
-8.03
-9.26
-10.48
-11.99
-14.07
-16.89
-20.31
-23.9
-26.97
-28.81
-28.91
-27.11
-23.71
-19.26
-14.39
-9.62
-5.27
-1.48
1.72
4.28
6.17
7.36
7.94
8.08
8.05
8.12
8.5
9.28
10.39
11.68
12.95
13.99
14.63
14.79
14.41
13.57
12.33
10.82
9.18
7.55
6.05
4.79
3.8
3.08
2.6
2.27
2.01
1.7
1.21
0.4
-0.84
-2.52
-4.51
-6.55
-8.4
-9.89
-11.06
-12.1
-13.31
-14.97
-17.17
-19.81
-22.53
-24.77
-25.93
-25.56
-23.47
-19.87
-15.32
-10.51
-6.04
-2.27
0.79
3.31
5.48
7.38
8.96
10.11
10.81
11.19
11.49
11.97
12.78
13.86
15.01
16
16.7
17.14
17.44
17.72
17.96
17.98
17.57
16.56
15.01
13.15
11.35
9.93
9.03
8.59
8.37
8.1
7.48
6.39
4.84
2.98
1.04
-0.74
-2.26
-3.52
-4.68
-5.96
-7.6
-9.76
-12.51
-15.74
-19.18
-22.34
-24.65
-25.6
-24.88
-22.53
-18.92
-14.66
-10.32
-6.32
-2.79
0.26
2.88
5.07
6.79
7.99
8.76
9.24
9.62
10.08
10.67
11.37
12.12
12.85
13.56
14.27
14.98
15.7
16.37
16.85
16.96
16.58
15.67
14.35
12.91
11.61
10.64
9.99
9.48
8.89
8.02
6.83
5.38
3.78
2.14
0.49
-1.14
-2.76
-4.41
-6.23
-8.39
-11.09
-14.33
-17.85
-21.11
-23.43
-24.26
-23.35
-20.83
-17.11
-12.74
-8.24
-4.01
-0.31
2.68
4.9
6.38
7.24
7.65
7.79
7.81
7.84
8
8.39
9.09
10.06
11.17
12.22
12.98
13.32
13.26
12.92
12.49
12.05
11.61
11.05
10.23
9.1
7.67
6.01
4.2
2.31
0.36
-1.57
-3.39
-4.95
-6.21
-7.21
-8.18
-9.38
-11.04
-13.31
-16.09
-19.13
-22.05
-24.33
-25.5
-25.14
-23.11
-19.54
-14.87
-9.73
-4.77
-0.53
2.74
5.03
6.54
7.53
8.19
8.66
8.98
9.2
9.42
9.8
10.49
11.56
12.9
14.26
15.34
15.93
16.02
15.75
15.34
14.95
14.53
13.91
12.87
11.29
9.29
7.15
5.19
3.64
2.52
1.62
0.69
-0.48
-1.94
-3.6
-5.31
-6.92
-8.41
-9.85
-11.43
-13.34
-15.68
-18.43
-21.3
-23.83
-25.46
-25.66
-24.16
-21.01
-16.61
-11.51
-6.36
-1.66
2.25
5.23
7.35
8.72
9.5
9.83
9.85
9.69
9.54
9.58
9.97
10.78
11.95
13.28
14.56
15.59
16.27
16.59
16.61
16.38
15.92
15.27
14.4
13.34
12.11
10.77
9.37
8.01
6.7
5.43
4.14
2.78
1.34
-0.12
-1.46
-2.57
-3.41
-4.06
-4.71
-5.59
-6.86
-8.65
-10.99
-13.83
-17.02
-20.23
-23.03
-24.89
-25.43
-24.41
-21.92
-18.3
-14
-9.49
-5.16
-1.3
1.91
4.41
6.19
7.33
7.93
8.1
7.98
7.72
7.54
7.63
8.13
9.07
10.35
11.76
13.13
14.33
15.34
16.14
16.69
16.92
16.72
16.04
15
13.8
12.7
11.86
11.24
10.63
9.75
8.39
6.52
4.27
1.86
-0.54
-2.8
-4.85
-6.63
-8.1
-9.29
-10.36
-11.55
-13.18
-15.42
-18.2
-21.19
-23.88
-25.76
-26.42
-25.71
-23.72
-20.66
-16.9
-12.79
-8.66
-4.81
-1.45
1.32
3.45
5.02
6.13
6.92
7.51
7.98
8.38
8.74
9.15
9.69
10.44
11.4
12.5
13.6
14.58
15.33
15.81
15.96
15.7
14.95
13.67
11.9
9.81
7.64
5.59
3.82
2.3
0.92
-0.44
-1.86
-3.33
-4.72
-5.94
-6.94
-7.78
-8.63
-9.71
-11.23
-13.27
-15.86
-18.89
-22.2
-25.59
-28.78
-31.41
-33.05
-33.27
-31.78
-28.67
-24.37
-19.56
-14.96
-11.09
-8.1
-5.8
-3.89
-2.17
-0.69
0.36
0.78
0.59
0.08
-0.31
-0.16
0.68
2.09
3.73
5.27
6.51
7.43
8.09
8.54
8.74
8.62
8.12
7.26
6.17
4.97
3.76
2.6
1.46
0.36
-0.69
-1.65
-2.46
-3.1
-3.58
-3.95
-4.27
-4.61
-5.06
-5.69
-6.61
-7.91
-9.64
-11.79
-14.28
-16.91
-19.37
-21.23
-22.03
-21.39
-19.14
-15.35
-10.38
-4.78
0.81
5.81
9.79
12.53
14.02
14.45
14.1
13.27
12.19
11
9.79
8.68
7.85
7.5
7.76
8.62
9.83
11.09
12.09
12.68
12.9
12.83
12.5
11.88
10.85
9.39
7.59
5.69
3.98
2.59
1.49
0.49
-0.6
-1.84
-3.17
-4.38
-5.27
-5.76
-5.91
-5.93
-6.1
-6.7
-7.95
-9.95
-12.62
-15.64
-18.51
-20.64
-21.49
-20.76
-18.45
-14.93
-10.73
-6.43
-2.52
0.74
3.28
5.17
6.55
7.52
8.15
8.44
8.45
8.25
7.98
7.84
7.96
8.37
8.99
9.65
10.23
10.67
11
11.3
11.6
11.83
11.86
11.53
10.74
9.54
8.07
6.54
5.13
3.94
2.96
2.06
1.08
-0.12
-1.62
-3.36
-5.18
-6.88
-8.33
-9.55
-10.68
-12
-13.78
-16.2
-19.19
-22.47
-25.53
-27.77
-28.64
-27.82
-25.28
-21.32
-16.48
-11.33
-6.39
-2.01
1.65
4.56
6.71
8.1
8.74
8.73
8.33
7.87
7.72
8.1
9.04
10.34
11.68
12.73
13.35
13.6
13.7
13.9
14.36
15
15.58
15.73
15.09
13.43
10.74
7.23
3.29
-0.58
-4
-6.68
-8.52
-9.61
-10.11
-10.2
-10.02
-9.67
-9.24
-8.85
-8.68
-8.96
-9.97
-11.89
-14.75
-18.32
-22.09
-25.39
-27.54
-28.06
-26.8
-23.93
-19.88
-15.17
-10.32
-5.73
-1.65
1.74
4.39
6.35
7.73
8.73
9.53
10.3
11.22
12.41
14
16.04
18.47
21.11
23.65
25.81
27.31
27.99
27.72
26.4
23.97
20.42
15.92
10.83
5.64
0.89
-2.99
-5.78
-7.43
-8.09
-8.01
-7.54
-6.97
-6.53
-6.3
-6.2
-6.13
-6
-5.93
-6.16
-7.02
-8.73
-11.3
-14.46
-17.72
-20.43
-21.98
-21.86
-19.85
-16.04
-10.88
-5.08
0.63
5.64
9.64
12.67
14.94
16.73
18.22
19.47
20.47
21.33
22.32
23.86
26.41
30.22
35.17
40.81
46.45
51.44
55.38
58.22
60.17
61.46
62.13
61.92
60.38
57.04
51.69
44.43
35.71
26.1
16.17
6.39
-2.87
-11.29
-18.61
-24.66
-29.42
-32.96
-35.48
-37.19
-38.31
-39.11
-39.92
-41.15
-43.11
-45.9
-49.27
-52.66
-55.38
-56.91
-57.05
-55.98
-54.15
-52.09
-50.27
-48.94
-48.12
-47.54
-46.73
-45.14
-42.36
-38.3
-33.29
-27.94
-22.87
-18.46
-14.65
-11
-6.92
-1.89
4.32
11.6
19.54
27.53
34.9
41.03
45.45
47.9
48.33
46.86
43.77
39.37
34.12
28.5
22.97
17.89
13.39
9.4
5.76
2.32
-0.96
-3.98
-6.63
-8.87
-10.83
-12.76
-14.95
-17.61
-20.77
-24.17
-27.29
-29.46
-30.05
-28.69
-25.41
-20.71
-15.33
-10.05
-5.39
-1.61
1.35
3.6
5.24
6.23
6.54
6.2
5.42
4.58
4.11
4.31
5.32
7.01
9.1
11.28
13.29
14.93
16.12
16.79
16.92
16.52
15.63
14.32
12.68
10.78
8.71
6.59
4.56
2.75
1.22
-0.04
-1.12
-2.14
-3.18
-4.33
-5.62
-7.15
-8.99
-11.17
-13.6
-15.98
-17.87
-18.8
-18.41
-16.62
-13.6
-9.74
-5.51
-1.38
2.34
5.45
7.88
9.62
10.69
11.09
10.9
10.22
9.3
8.42
7.88
7.83
8.25
8.98
9.74
10.36
10.72
10.83
10.71
10.38
9.75
8.79
7.46
5.85
4.07
2.22
0.33
-1.66
-3.8
-6.11
-8.49
-10.79
-12.84
-14.56
-15.95
-17.13
-18.27
-19.57
-21.2
-23.24
-25.65
-28.15
-30.32
-31.55
-31.27
-29.05
-24.83
-18.97
-12.12
-5.08
1.44
7.01
11.51
15.06
17.85
19.98
21.49
22.35
22.63
22.51
22.29
22.28
22.63
23.36
24.29
25.18
25.77
25.82
25.13
23.57
21.1
17.85
14.1
10.18
6.41
2.98
-0.03
-2.61
-4.75
-6.47
-7.85
-9.04
-10.22
-11.54
-13.01
-14.49
-15.81
-16.85
-17.71
-18.61
-19.77
-21.38
-23.48
-25.98
-28.63
-31
-32.52
-32.52
-30.5
-26.3
-20.28
-13.26
-6.19
0.09
5.17
9.08
12.13
14.7
16.99
19.02
20.65
21.78
22.37
22.57
22.58
22.6
22.76
23.12
23.62
24.2
24.73
25.06
25.06
24.62
23.71
22.39
20.73
18.83
16.76
14.58
12.34
10.17
8.21
6.58
5.32
4.33
3.44
2.48
1.31
-0.09
-1.65
-3.29
-4.88
-6.36
-7.69
-8.95
-10.21
-11.51
-12.78
-13.88
-14.64
-14.89
-14.51
-13.34
-11.15
-7.68
-2.8
3.21
9.63
15.35
19.33
21
20.49
18.55
16.21
14.27
13.07
12.48
12.14
11.75
11.32
11.06
11.28
12.07
13.29
14.53
15.36
15.5
14.89
13.71
12.21
10.55
8.79
6.81
4.5
1.89
-0.86
-3.5
-5.77
-7.57
-9.02
-10.37
-11.93
-13.86
-16.13
-18.5
-20.61
-22.17
-23.03
-23.25
-23.11
-22.99
-23.32
-24.37
-26.11
-28.2
-29.94
-30.59
-29.51
-26.49
-21.79
-16.04
-10.01
-4.36
0.58
4.68
8.01
10.67
12.66
13.98
14.67
14.91
14.95
15.05
15.39
16.02
16.81
17.61
18.29
18.76
19.03
19.12
19.04
18.8
18.36
17.67
16.71
15.43
13.88
12.12
10.3
8.55
6.98
5.64
4.47
3.34
2.14
0.72
-0.96
-2.85
-4.83
-6.7
-8.28
-9.46
-10.31
-11.09
-12.17
-13.89
-16.41
-19.59
-23
-26.02
-27.99
-28.42
-27.1
-24.13
-19.92
-15.02
-10
-5.32
-1.25
2.17
5
7.36
9.33
10.9
12.02
12.66
12.89
12.89
12.9
13.12
13.63
14.33
15.01
15.52
15.77
15.87
16
16.32
16.76
17.09
16.95
16.06
14.38
12.18
9.86
7.85
6.33
5.18
4.07
2.68
0.79
-1.54
-4.04
-6.4
-8.34
-9.75
-10.71
-11.46
-12.29
-13.49
-15.26
-17.69
-20.65
-23.79
-26.56
-28.35
-28.6
-27
-23.61
-18.84
-13.38
-7.95
-3.12
0.8
3.82
6.11
7.88
9.25
10.24
10.82
11.02
11.01
11.01
11.21
11.69
12.3
12.84
13.1
13.08
12.94
12.93
13.2
13.7
14.18
14.29
13.75
12.57
10.9
9.08
7.36
5.89
4.6
3.29
1.82
0.13
-1.7
-3.47
-4.99
-6.22
-7.23
-8.23
-9.41
-10.82
-12.41
-14.02
-15.58
-17.19
-19.03
-21.19
-23.46
-25.36
-26.14
-25.26
-22.49
-18.13
-12.85
-7.48
-2.69
1.12
3.85
5.59
6.55
6.96
7.05
7.02
7.05
7.26
7.69
8.29
9
9.73
10.43
11.06
11.63
12.14
12.54
12.79
12.86
12.73
12.37
11.79
10.99
9.99
8.84
7.64
6.48
5.43
4.47
3.51
2.41
1.04
-0.64
-2.54
-4.45
-6.11
-7.33
-8.06
-8.47
-8.88
-9.65
-11.07
-13.27
-16.17
-19.53
-22.94
-25.88
-27.79
-28.13
-26.6
-23.22
-18.42
-12.95
-7.63
-3.14
0.2
2.4
3.73
4.54
5.08
5.51
5.87
6.19
6.51
6.89
7.41
8.09
8.91
9.82
10.78
11.69
12.52
13.22
13.78
14.17
14.33
14.21
13.7
12.78
11.45
9.83
8.05
6.31
4.78
3.56
2.65
1.98
1.4
0.69
-0.31
-1.66
-3.31
-5.06
-6.67
-8.01
-9.03
-9.91
-10.87
-12.14
-13.89
-16.14
-18.78
-21.56
-24.05
-25.76
-26.19
-25.03
-22.28
-18.26
-13.55
-8.76
-4.36
-0.61
2.45
4.85
6.62
7.79
8.37
8.45
8.17
7.72
7.27
6.95
6.86
7.03
7.47
8.14
8.97
9.86
10.74
11.55
12.23
12.69
12.82
12.51
11.67
10.4
8.84
7.25
5.8
4.61
3.64
2.81
2.01
1.18
0.27
-0.75
-1.9
-3.17
-4.47
-5.67
-6.65
-7.44
-8.17
-9.1
-10.48
-12.48
-15.08
-18.1
-21.19
-23.85
-25.6
-25.98
-24.73
-21.86
-17.65
-12.64
-7.46
-2.68
1.33
4.43
6.66
8.14
8.99
9.31
9.21
8.84
8.42
8.18
8.31
8.89
9.84
10.95
12.01
12.85
13.43
13.78
14
14.11
14.08
13.86
13.39
12.65
11.69
10.6
9.41
8.16
6.88
5.58
4.27
2.99
1.74
0.48
-0.81
-2.16
-3.49
-4.77
-5.96
-7.1
-8.3
-9.71
-11.49
-13.71
-16.32
-19.11
-21.73
-23.66
-24.42
-23.64
-21.25
-17.52
-13
-8.32
-4
-0.36
2.55
4.81
6.45
7.48
7.85
7.55
6.75
5.76
4.99
4.79
5.32
6.46
7.93
9.35
10.42
11.06
11.34
11.41
11.47
11.56
11.65
11.6
11.25
10.54
9.48
8.2
6.85
5.58
4.41
3.31
2.23
1.15
0.08
-0.93
-1.85
-2.7
-3.55
-4.48
-5.59
-6.88
-8.38
-10.09
-12
-14.11
-16.29
-18.32
-19.87
-20.55
-20.03
-18.17
-15.06
-11.01
-6.49
-2.04
1.94
5.19
7.6
9.17
9.89
9.83
9.05
7.79
6.36
5.18
4.58
4.74
5.61
6.96
8.45
9.79
10.81
11.51
11.98
12.35
12.64
12.77
12.58
11.93
10.78
9.25
7.53
5.82
4.24
2.82
1.5
0.31
-0.7
-1.4
-1.72
-1.68
-1.48
-1.38
-1.63
-2.4
-3.71
-5.38
-7.08
-8.35
-8.63
-7.44
-4.55
-0.05
5.56
11.53
17.02
21.45
24.56
26.48
27.57
28.19
28.57
28.74
28.58
28.02
27.04
25.75
24.21
22.47
20.49
18.24
15.84
13.51
11.57
10.19
9.34
8.71
7.86
6.46
4.41
1.86
-0.89
-3.54
-5.92
-8.02
-9.87
-11.49
-12.91
-14.12
-15.21
-16.32
-17.62
-19.28
-21.32
-23.68
-26.24
-28.87
-31.42
-33.74
-35.6
-36.72
-36.78
-35.55
-33.01
-29.42
-25.28
-21.17
-17.59
-14.8
-12.79
-11.39
-10.39
-9.69
-9.3
-9.21
-9.34
-9.45
-9.22
-8.41
-7.04
-5.43
-4.04
-3.27
-3.28
-3.86
-4.53
-4.81
-4.41
-3.37
-2.04
-0.89
-0.31
-0.54
-1.59
-3.32
-5.6
-8.23
-11.07
-13.9
-16.46
-18.49
-19.84
-20.53
-20.74
-20.82
-21.15
-22.05
-23.6
-25.64
-27.68
-29.07
-29.12
-27.38
-23.79
-18.69
-12.77
-6.75
-1.24
3.43
7.2
10.16
12.47
14.27
15.75
17.13
18.68
20.63
23.06
25.9
28.9
31.8
34.44
36.81
39.06
41.38
43.96
46.99
50.62
54.92
59.79
64.85
69.45
72.84
74.46
74.22
72.56
70.23
68.01
66.47
65.93
66.65
69.07
73.92
82.16
94.68
112.12
134.42
160.62
188.93
217
242.46
263.36
278.46
287
288.4
281.87
266.43
241.3
206.62
164.17
117.43
70.88
28.5
-7.59
-37.8
-64.63
-91.3
-120.31
-152.89
-189.29
-229.34
-272.56
-317.27
-359.46
-392.6
-409.61
-406.27
-384.33
-352.06
-321.32
-302.49
-300.11
-311.69
-330.15
-347.97
-360.51
-366.54
-366.33
-359.19
-342.47
-312.92
-269.42
-215.22
-157.97
-107.2
-70.65
-51.01
-45.02
-45.19
-43.23
-33.58
-15.4
7.84
30.75
48.91
60.94
68.66
75.52
84.51
96.55
110.33
123.37
133.39
139.38
141.82
142.07
141.42
140.4
138.66
135.31
129.62
121.61
112.19
102.83
94.94
89.29
85.7
83.27
80.84
77.59
73.35
68.61
64.21
60.84
58.77
57.73
57.03
55.87
53.64
50.12
45.47
40.2
34.93
30.17
26.16
22.81
19.78
16.68
13.26
9.53
5.8
2.48
-0.17
-2.14
-3.79
-5.66
-8.22
-11.75
-16.11
-20.88
-25.43
-29.07
-31.24
-31.55
-29.87
-26.34
-21.37
-15.57
-9.59
-4.03
0.72
4.53
7.44
9.6
11.18
12.27
12.94
13.26
13.37
13.44
13.61
13.96
14.51
15.21
15.99
16.8
17.59
18.28
18.78
19.03
18.99
18.67
18.11
17.35
16.38
15.22
13.87
12.4
10.93
9.56
8.34
7.24
6.13
4.85
3.3
1.49
-0.44
-2.26
-3.79
-4.99
-6.02
-7.22
-8.95
-11.48
-14.82
-18.68
-22.5
-25.55
-27.16
-26.86
-24.57
-20.65
-15.68
-10.35
-5.2
-0.5
3.72
7.52
10.89
13.69
15.72
16.85
17.13
16.88
16.54
16.56
17.21
18.55
20.44
22.6
24.68
26.34
27.33
27.49
26.87
25.75
24.47
23.34
22.48
21.67
20.55
18.78
16.21
12.98
9.42
5.83
2.33
-1.14
-4.71
-8.4
-12
-15.26
-17.9
-19.84
-21.14
-21.97
-22.52
-22.92
-23.27
-23.65
-24.07
-24.41
-24.38
-23.64
-21.88
-19.02
-15.2
-10.77
-6.07
-1.36
3.25
7.73
12.03
16
19.45
22.18
24.07
25.15
25.55
25.49
25.26
25.11
25.21
25.56
26
26.24
26.07
25.32
24
22.23
20.17
17.95
15.65
13.37
11.17
9.15
7.39
5.94
4.78
3.78
2.81
1.73
0.47
-0.94
-2.43
-3.87
-5.21
-6.47
-7.74
-9.16
-10.78
-12.65
-14.72
-16.91
-19.08
-21.05
-22.58
-23.37
-23.11
-21.57
-18.67
-14.63
-9.86
-4.93
-0.43
3.24
5.93
7.72
8.85
9.52
9.86
9.9
9.64
9.21
8.84
8.78
9.21
10.07
11.16
12.22
13.12
13.84
14.47
15.07
15.56
15.78
15.53
14.72
13.44
11.88
10.31
8.9
7.69
6.58
5.44
4.19
2.82
1.4
0.03
-1.23
-2.4
-3.56
-4.8
-6.2
-7.85
-9.85
-12.31
-15.21
-18.38
-21.32
-23.36
-23.89
-22.52
-19.33
-14.82
-9.7
-4.66
-0.15
3.67
6.82
9.41
11.49
13.05
14.04
14.44
14.36
13.99
13.55
13.22
13.06
13.01
12.95
12.76
12.45
12.12
11.93
11.94
12.11
12.22
12.04
11.39
10.26
8.79
7.16
5.56
4.05
2.61
1.19
-0.24
-1.66
-3.01
-4.21
-5.27
-6.23
-7.15
-8.11
-9.19
-10.47
-11.99
-13.8
-15.88
-18.06
-20.08
-21.54
-22.05
-21.28
-19.14
-15.74
-11.41
-6.6
-1.81
2.57
6.24
9.06
11.05
12.26
12.85
12.98
12.83
12.56
12.32
12.22
12.32
12.64
13.15
13.76
14.37
14.93
15.41
15.81
16.13
16.35
16.35
16
15.2
13.96
12.39
10.73
9.15
7.77
6.53
5.3
3.92
2.35
0.6
-1.26
-3.14
-5
-6.78
-8.44
-9.88
-11.12
-12.27
-13.57
-15.3
-17.6
-20.32
-23.04
-25.15
-26.07
-25.43
-23.19
-19.61
-15.14
-10.35
-5.71
-1.6
1.77
4.35
6.2
7.41
8.1
8.38
8.34
8.16
8
8.05
8.45
9.2
10.22
11.32
12.32
13.08
13.53
13.73
13.71
13.53
13.18
12.6
11.75
10.61
9.22
7.71
6.21
4.81
3.54
2.35
1.15
-0.13
-1.56
-3.11
-4.67
-6.1
-7.26
-8.11
-8.71
-9.23
-9.94
-11.08
-12.82
-15.18
-18.01
-20.98
-23.64
-25.49
-26.07
-25.07
-22.45
-18.43
-13.48
-8.22
-3.23
1.02
4.27
6.49
7.8
8.43
8.6
8.55
8.43
8.36
8.37
8.52
8.81
9.29
9.96
10.83
11.86
12.96
14.03
14.99
15.74
16.18
16.22
15.78
14.86
13.58
12.11
10.66
9.36
8.27
7.35
6.55
5.83
5.18
4.6
4.01
3.3
2.38
1.25
0.05
-1.05
-1.9
-2.53
-3.12
-3.95
-5.25
-7.09
-9.35
-11.77
-13.96
-15.5
-16
-15.09
-12.57
-8.42
-2.86
3.63
10.4
16.81
22.35
26.78
30.19
32.96
35.55
38.41
41.68
45.27
48.88
52.22
55.17
57.82
60.36
62.89
65.22
67.01
67.86
67.55
66.03
63.39
59.69
54.94
49.27
43.03
36.84
31.4
27.23
24.32
22.11
19.75
16.54
12.32
7.57
3.21
0.1
-1.34
-1.3
-0.46
0.42
0.82
0.69
0.38
0.4
1.24
3.17
6.32
10.56
15.29
19.11
19.81
14.92
2.83
-16.2
-39.63
-63.25
-82.76
-95.35
-100.52
-99.8
-95.6
-90.17
-85.21
-82.23
-83.08
-89.93
-104.73
-128.43
-160.58
-199.37
-242.08
-285.47
-325.92
-359.47
-382.13
-390.48
-382.53
-358.25
-319.5
-269.31
-211.17
-148.66
-85.47
-25.48
27.6
71
103.73
126.83
142.95
155.24
166.21
176.99
187.32
196.06
202.11
204.96
204.95
203.09
200.55
198.23
196.35
194.31
190.91
184.86
175.28
162.11
146.12
128.56
110.75
93.61
77.58
62.74
49.11
36.91
26.52
18.34
12.45
8.47
5.59
2.72
-1.2
-7.08
-15.76
-27.92
-43.91
-63.42
-85.01
-106.01
-122.98
-132.63
-132.85
-123.51
-106.51
-85.12
-62.99
-43.23
-27.81
-17.43
-11.73
-9.71
-10.06
-11.54
-13.14
-14.19
-14.36
-13.59
-11.99
-9.79
-7.2
-4.35
-1.25
2.21
6.07
10.18
14.13
17.26
18.99
19.11
17.89
16.03
14.34
13.37
13.24
13.74
14.57
15.61
16.97
18.89
21.47
24.49
27.44
29.78
31.12
31.48
31.18
30.63
30.05
29.37
28.24
26.33
23.55
20.18
16.82
14.14
12.62
12.32
12.89
13.74
14.32
14.41
14.09
13.72
13.59
13.75
13.94
13.78
13
11.58
9.83
8.12
6.75
5.78
5.06
4.35
3.49
2.47
1.39
0.33
-0.67
-1.55
-2.16
-2.23
-1.42
0.48
3.33
6.7
9.94
12.56
14.53
16.37
18.94
23.09
29.23
37.06
45.61
53.47
59.39
62.71
63.67
63.39
63.48
65.41
69.91
76.55
83.69
88.85
89.52
83.99
72.2
55.96
38.66
24.21
15.55
13.34
15.22
16.23
10.32
-7.57
-39.47
-83.29
-133.37
-182.24
-223
-251.29
-265.93
-268.33
-261.08
-246.85
-227.82
-205.81
-182.57
-160
-139.82
-123.1
-109.77
-98.55
-87.35
-73.97
-56.78
-35.16
-9.77
17.57
44.42
68.43
88.09
103.12
114.24
122.54
128.94
133.82
137.08
138.54
138.04
135.42
130.3
122.07
110.17
94.66
76.77
58.86
43.85
34.15
30.76
32.95
38.54
44.68
48.73
48.82
44.15
34.95
22.37
8.19
-5.43
-16.4
-23.24
-25.53
-24.14
-21.02
-18.48
-18.39
-21.29
-25.99
-29.92
-30.29
-25.48
-16.23
-5.77
1.24
0.7
-9.01
-25.97
-45.16
-60.21
-65.87
-60.07
-44.7
-24.96
-7.33
2.74
2.81
-6.01
-19.79
-33.49
-42.8
-45.41
-41.31
-32.21
-20.55
-8.63
1.79
9.58
14.06
14.91
12.29
6.91
0.02
-6.88
-12.41
-15.77
-16.97
-16.77
-16.39
-16.96
-19.04
-22.42
-26.21
-29.35
-31.12
-31.53
-31.29
-31.43
-32.73
-35.37
-38.72
-41.65
-42.95
-41.83
-38.17
-32.48
-25.68
-18.79
-12.55
-7.32
-3.03
0.6
3.91
7.07
10.09
12.83
15.16
17.06
18.63
20.03
21.38
22.68
23.85
24.79
25.47
25.97
26.36
26.66
26.8
26.62
25.93
24.63
22.76
20.5
18.18
16.1
14.44
13.18
12.08
10.78
9.01
6.69
3.99
1.26
-1.2
-3.25
-5.01
-6.79
-8.91
-11.62
-14.99
-18.93
-23.08
-26.93
-29.77
-30.96
-30.07
-27.08
-22.4
-16.73
-10.84
-5.36
-0.55
3.58
7.2
10.47
13.41
15.92
17.91
19.35
20.34
21.13
21.9
22.78
23.75
24.68
25.48
26.15
26.76
27.38
28.01
28.5
28.64
28.26
27.3
25.81
23.97
21.93
19.83
17.69
15.5
13.22
10.82
8.36
5.91
3.58
1.46
-0.41
-2.05
-3.58
-5.09
-6.71
-8.59
-10.84
-13.58
-16.86
-20.58
-24.44
-27.91
-30.38
-31.27
-30.27
-27.42
-23.06
-17.78
-12.19
-6.81
-1.96
2.22
5.78
8.81
11.42
13.68
15.61
17.18
18.34
19.11
19.58
19.89
20.19
20.56
20.99
21.43
21.82
22.14
22.36
22.44
22.24
21.64
20.51
18.84
16.8
14.59
12.47
10.57
8.86
7.27
5.67
4.02
2.37
0.79
-0.66
-2.03
-3.47
-5.19
-7.43
-10.29
-13.71
-17.41
-20.88
-23.56
-24.94
-24.73
-22.95
-19.88
-16
-11.84
-7.85
-4.28
-1.19
1.52
3.98
6.28
8.36
10.1
11.36
12.07
12.36
12.45
12.59
12.89
13.35
13.81
14.17
14.42
14.71
15.23
16.04
17.02
17.83
18.11
17.61
16.32
14.54
12.62
10.87
9.4
8.11
6.79
5.3
3.56
1.64
-0.33
-2.16
-3.66
-4.61
-4.82
-4.29
-3.28
-2.34
-2.18
-3.42
-6.27
-10.37
-14.78
-18.26
-19.66
-18.35
-14.54
-9.13
-3.46
1.22
4.24
5.55
5.73
5.53
5.57
6.17
7.28
8.55
9.4
9.15
7.27
3.64
-1.34
-6.78
-11.76
-15.63
-18.21
-19.53
-19.38
-16.98
-11.15
-0.94
13.5
30.52
47.34
60.98
69.2
71.04
66.7
57.19
43.98
28.91
14.12
1.57
-7.63
-13.99
-19.75
-28.04
-41.17
-59.03
-78.42
-94
-100.48
-94.95
-78.11
-53.88
-27.62
-4.06
14.02
25.92
32.32
34.18
32.28
27.24
19.98
11.95
4.92
0.36
-1.18
-0.32
1.54
2.85
2.61
0.76
-1.96
-4.44
-5.74
-5.56
-4.25
-2.61
-1.47
-1.28
-1.99
-3.14
-4.11
-4.46
-4.02
-2.89
-1.39
0.17
1.52
2.51
3.2
3.72
4.28
5.01
5.89
6.71
7.15
6.93
5.94
4.24
2.01
-0.59
-3.46
-6.63
-10.08
-13.67
-17.1
-19.92
-21.65
-21.9
-20.5
-17.57
-13.49
-8.84
-4.28
-0.34
2.63
4.55
5.54
5.82
5.66
5.27
4.86
4.61
4.7
5.23
6.2
7.48
8.87
10.2
11.37
12.47
13.69
15.26
17.35
19.98
23.03
26.16
28.97
30.97
31.73
30.93
28.43
24.32
18.85
12.4
5.44
-1.54
-8.02
-13.49
-17.51
-19.74
-20.08
-18.78
-16.39
-13.71
-11.51
-10.29
-10.13
-10.65
-11.15
-10.91
-9.52
-6.95
-3.65
-0.29
2.49
4.29
5.11
5.16
4.69
3.87
2.7
1.11
-0.88
-3.06
-5.12
-6.76
-7.82
-8.38
-8.67
-8.96
-9.39
-9.98
-10.62
-11.22
-11.79
-12.47
-13.42
-14.76
-16.45
-18.25
-19.78
-20.7
-20.82
-20.19
-19.07
-17.82
-16.74
-15.93
-15.34
-14.85
-14.37
-13.91
-13.57
-13.48
-13.68
-14.1
-14.56
-14.79
-14.53
-13.57
-11.82
-9.33
-6.27
-2.92
0.41
3.48
6.09
8.16
9.67
10.59
10.94
10.75
10.15
9.31
8.48
7.87
7.55
7.51
7.61
7.72
7.81
7.95
8.3
8.99
10.06
11.31
12.41
12.93
12.52
11.04
8.66
5.76
2.86
0.44
-1.19
-1.96
-1.99
-1.54
-0.9
-0.35
-0.12
-0.33
-1.06
-2.27
-3.82
-5.6
-7.53
-9.65
-12.06
-14.78
-17.68
-20.36
-22.28
-22.9
-21.93
-19.47
-15.97
-12.08
-8.37
-5.14
-2.41
-0.02
2.12
3.99
5.41
6.21
6.42
6.27
6.2
6.61
7.7
9.39
11.33
13.17
14.69
15.85
16.76
17.53
18.14
18.44
18.23
17.42
16.01
14.13
11.96
9.6
7.06
4.34
1.52
-1.24
-3.7
-5.63
-6.93
-7.62
-7.93
-8.15
-8.63
-9.62
-11.31
-13.74
-16.8
-20.2
-23.44
-25.93
-27.09
-26.62
-24.52
-21.19
-17.21
-13.19
-9.55
-6.46
-3.86
-1.59
0.47
2.33
3.87
5.03
5.8
6.31
6.83
7.61
8.79
10.34
12.09
13.83
15.44
16.88
18.25
19.58
20.78
21.71
22.17
22.08
21.48
20.51
19.33
18.05
16.79
15.6
14.52
13.56
12.66
11.61
10.13
7.89
4.67
0.43
-4.64
-10.17
-15.76
-21.1
-25.97
-30.27
-33.87
-36.6
-38.27
-38.68
-37.73
-35.53
-32.36
-28.61
-24.74
-21.12
-18.03
-15.63
-13.95
-12.9
-12.27
-11.77
-11.1
-9.95
-8.1
-5.39
-1.79
2.58
7.44
12.38
16.92
20.7
23.48
25.3
26.33
26.84
27.03
26.97
26.64
25.93
24.77
23.19
21.29
19.23
17.19
15.32
13.71
12.38
11.33
10.49
9.84
9.3
8.8
8.26
7.68
7.17
6.96
7.28
8.27
9.71
11.01
11.33
9.89
6.31
0.76
-6.12
-13.44
-20.39
-26.42
-31.26
-34.74
-36.82
-37.5
-36.87
-35.27
-33.18
-31.16
-29.63
-28.73
-28.25
-27.75
-26.75
-24.84
-21.94
-18.21
-14.04
