-31.27
-24.99
-18.7
-14.08
-12.74
-15.51
-22.05
-30.97
-40.39
-48.57
-54.22
-56.62
-55.61
-51.74
-46.58
-42.68
-42.72
-48.14
-57.9
-68.32
-74.66
-73.59
-65.15
-52.95
-42.09
-36.24
-35.32
-35.1
-28.83
-10.2
24.09
72.63
129.2
184.31
227.67
250.99
250.39
227.44
188.71
143.79
102.57
72.41
56.38
52.57
55.12
56.22
48.47
27.22
-7.81
-52.08
-97.38
-133.92
-153.88
-154.17
-137.66
-112.46
-89.55
-79.63
-90.04
-122.71
-173.07
-231.69
-286.65
-326.72
-344.14
-336.24
-305.51
-257.85
-200.12
-137.26
-72.63
-9.08
49.22
96.13
125.16
132.2
117.7
86.85
50.28
19
1.22
-0.9
8.43
22.59
36.78
49.37
58.28
63.27
61.85
50.45
27.13
-6.12
-42.83
-74
-89.66
-84.52
-59.22
-20.69
21
56.41
79.91
90.98
93.05
90.91
88.08
86.03
83.83
79.78
72.79
63.2
52.77
43.71
37.49
34.08
32.53
31.42
29.95
28.22
27.01
27.12
28.8
31.47
33.94
35.14
34.53
32.31
29.16
25.85
22.87
20.3
17.88
15.26
12.38
9.44
6.86
4.93
3.7
2.84
1.8
0.05
-2.66
-6.14
-9.75
-12.56
-13.72
-12.7
-9.54
-4.73
0.98
6.83
12.32
17.13
21.09
24.04
25.83
26.38
25.8
24.43
22.73
21.11
19.78
18.77
18
17.43
17.12
17.24
17.87
18.89
19.97
20.64
20.51
19.41
17.39
14.72
11.67
8.4
4.97
1.35
-2.46
-6.41
-10.43
-14.49
-18.58
-22.66
-26.49
-29.65
-31.49
-31.41
-29.08
-24.62
-18.57
-11.74
-4.91
1.4
6.94
11.61
15.33
17.96
19.34
19.4
18.34
16.59
14.74
13.36
12.79
13.12
14.14
15.51
16.84
17.92
18.65
19.08
19.31
19.35
19.11
18.36
16.94
14.71
11.74
8.23
4.49
0.83
-2.5
-5.44
-8.13
-10.86
-13.98
-17.76
-22.15
-26.82
-31.05
-33.93
-34.52
-32.09
-26.35
-17.53
-6.43
5.72
17.44
27.31
34.28
37.92
38.41
36.44
32.89
28.55
23.93
19.25
14.61
10.15
6.12
2.84
0.55
-0.66
-0.86
-0.19
1.23
3.32
5.99
9.04
12.08
14.6
16.15
16.43
15.4
13.25
10.3
6.91
3.38
-0.02
-3.13
-5.86
-8.2
-10.32
-12.5
-15.16
-18.73
-23.49
-29.43
-36.07
-42.57
-47.9
-51.06
-51.4
-48.71
-43.24
-35.53
-26.3
-16.25
-6.03
3.83
12.91
20.9
27.59
32.85
36.63
38.93
39.92
39.84
39.06
38.01
37.07
36.51
36.42
36.77
37.38
38.06
38.56
38.67
38.24
37.18
35.5
33.31
30.73
27.91
24.89
21.69
18.34
14.86
11.33
7.86
4.53
1.36
-1.69
-4.65
-7.57
-10.39
-13.08
-15.73
-18.57
-21.93
-25.99
-30.64
-35.28
-38.99
-40.77
-39.93
-36.34
-30.46
-23.16
-15.36
-7.89
-1.25
4.24
8.44
11.34
13.03
13.77
13.94
13.89
13.85
13.82
13.61
13.02
11.92
10.42
8.78
7.32
6.24
5.53
4.89
3.87
2.07
-0.69
-4.2
-7.93
-11.29
-13.97
-16.17
-18.59
-22.02
-26.85
-32.69
-38.45
-42.6
-43.67
-40.44
-32.04
-17.99
1.53
25.29
50.8
74.61
93.21
104.2
107.17
103.67
96.37
87.71
78.97
70.07
60.29
49.3
37.75
27.19
19.28
14.89
13.63
14
14.15
12.76
9.48
4.92
0.1
-4.19
-7.71
-10.7
-13.53
-16.25
-18.46
-19.51
-18.89
-16.5
-12.83
-8.75
-5.15
-2.69
-1.61
-1.7
-2.52
-3.56
-4.44
-4.94
-5.03
-4.82
-4.49
-4.26
-4.34
-4.86
-5.8
-7
-8.23
-9.21
-9.77
-9.95
-9.99
-10.24
-10.96
-12.29
-14.14
-16.37
-18.78
-21.14
-23.16
-24.4
-24.33
-22.45
-18.61
-13.08
-6.53
0.15
6.19
11.14
14.9
17.65
19.63
21.04
21.94
22.33
22.17
21.51
20.49
19.37
18.41
17.83
17.7
17.95
18.44
19.03
19.64
20.24
20.77
21.06
20.89
20.06
18.5
16.36
13.95
11.63
9.69
8.18
6.99
5.83
4.43
2.62
0.4
-2.05
-4.43
-6.46
-7.99
-9.02
-9.8
-10.7
-12.15
-14.41
-17.51
-21.15
-24.69
-27.39
-28.53
-27.73
-24.99
-20.72
-15.55
-10.12
-4.96
-0.36
3.53
6.65
8.98
10.53
11.32
11.44
11.04
10.33
9.59
9.09
9.08
9.65
10.74
12.1
13.41
14.45
15.11
15.46
15.6
15.55
15.24
14.48
13.09
11.07
8.63
6.13
3.94
2.27
1.11
0.21
-0.75
-2.02
-3.7
-5.65
-7.66
-9.48
-11.01
-12.3
-13.56
-15.02
-16.86
-19.08
-21.54
-23.93
-25.85
-26.84
-26.54
-24.73
-21.4
-16.81
-11.42
-5.83
-0.66
3.64
6.76
8.63
9.36
9.17
8.3
7.03
5.63
4.41
3.66
3.59
4.21
5.36
6.74
8.09
9.28
10.34
11.34
12.26
12.89
12.94
12.16
10.49
8.15
5.51
2.95
0.71
-1.17
-2.77
-4.18
-5.41
-6.42
-7.12
-7.48
-7.59
-7.65
-7.87
-8.49
-9.61
-11.23
-13.23
-15.48
-17.88
-20.32
-22.63
-24.52
-25.54
-25.23
-23.3
-19.8
-15.14
-9.99
-5.01
-0.67
2.87
5.68
7.87
9.46
10.4
10.64
10.27
9.62
9.11
9.14
9.84
11.1
12.56
13.87
14.8
15.34
15.6
15.79
15.96
16.06
15.85
15.05
13.41
10.83
7.38
3.32
-1.05
-5.43
-9.69
-13.83
-17.96
-22.2
-26.47
-30.53
-33.99
-36.47
-37.72
-37.76
-36.75
-34.99
-32.78
-30.39
-28.07
-26.09
-24.69
-23.95
-23.7
-23.42
-22.41
-20.08
-16.22
-11.09
-5.38
0.14
4.83
8.36
10.7
11.93
12.11
11.31
9.62
7.27
4.61
2
-0.25
-2.03
-3.39
-4.44
-5.35
-6.26
-7.34
-8.6
-9.94
-10.97
-11.1
-9.76
-6.6
-1.7
4.53
11.39
18.15
24.14
28.76
31.55
32.22
30.72
27.41
22.92
18
13.26
8.98
5.1
1.41
-2.25
-5.92
-9.46
-12.66
-15.28
-17.09
-17.83
-17.32
-15.53
-12.68
-9.26
-5.89
-3.13
-1.26
-0.19
0.45
1.17
2.27
3.75
5.34
6.62
7.26
7.14
6.4
5.35
4.31
3.56
3.24
3.4
3.99
4.88
5.89
6.79
7.41
7.63
7.43
6.89
6.09
5.1
3.98
2.76
1.45
0.03
-1.54
-3.28
-5.18
-7.12
-8.93
-10.44
-11.54
-12.32
-12.99
-13.79
-14.96
-16.52
-18.24
-19.76
-20.62
-20.47
-19.15
-16.83
-13.89
-10.8
-7.98
-5.61
-3.64
-1.92
-0.28
1.26
2.52
3.25
3.33
2.85
2.13
1.59
1.61
2.34
3.72
5.45
7.16
8.54
9.37
9.58
9.19
8.3
6.98
5.32
3.39
1.29
-0.79
-2.67
-4.11
-4.99
-5.36
-5.41
-5.48
-5.86
-6.77
-8.29
-10.36
-12.8
-15.42
-17.98
-20.25
-22.01
-23.04
-23.16
-22.28
-20.4
-17.64
-14.23
-10.48
-6.65
-3.02
0.23
2.94
4.98
6.22
6.61
6.22
5.3
4.29
3.65
3.7
4.53
5.94
7.57
9.07
10.2
10.95
11.4
11.65
11.7
11.44
10.71
9.46
7.76
5.83
3.9
2.14
0.56
-0.92
-2.43
-4.01
-5.61
-7.08
-8.29
-9.2
-9.92
-10.77
-12.05
-13.97
-16.48
-19.19
-21.47
-22.65
-22.27
-20.22
-16.82
-12.59
-8.12
-3.85
-0.05
3.17
5.73
7.6
8.82
9.49
9.77
9.87
9.93
10
10.06
10.14
10.3
10.65
11.25
12.06
12.94
13.68
14.14
14.25
14.06
13.6
12.87
11.81
10.36
8.54
6.47
4.37
2.46
0.89
-0.3
-1.18
-1.86
-2.47
-3.08
-3.7
-4.37
-5.13
-6.1
-7.45
-9.3
-11.6
-14.09
-16.24
-17.41
-17.07
-15.03
-11.53
-7.14
-2.52
1.81
5.54
8.56
10.85
12.4
13.16
13.16
12.56
11.67
10.81
10.27
10.19
10.56
11.23
11.99
12.59
12.8
12.44
11.45
9.92
8.03
6.07
4.24
2.67
1.38
0.35
-0.45
-1.06
-1.5
-1.87
-2.29
-2.9
-3.78
-4.88
-6.09
-7.2
-8.09
-8.74
-9.23
-9.72
-10.32
-11.13
-12.19
-13.52
-15.09
-16.74
-18.09
-18.65
-17.95
-15.75
-12.18
-7.74
-3.09
1.17
4.66
7.28
9.09
10.18
10.64
10.5
9.9
9.06
8.28
7.87
7.99
8.57
9.43
10.28
10.9
11.24
11.39
11.5
11.71
11.97
12.09
11.77
10.76
8.99
6.56
3.75
0.91
-1.67
-3.82
-5.49
-6.72
-7.58
-8.12
-8.37
-8.39
-8.22
-7.93
-7.59
-7.31
-7.18
-7.35
-7.95
-9.06
-10.66
-12.56
-14.45
-15.91
-16.58
-16.2
-14.73
-12.31
-9.18
-5.6
-1.83
1.89
5.32
8.2
10.35
11.64
12.11
11.93
11.36
10.7
10.17
9.92
10.02
10.43
11.06
11.79
12.48
12.97
13.19
13.09
12.69
12.03
11.16
10.15
9.06
7.98
7
6.19
5.59
5.12
4.67
4.09
3.22
1.96
0.29
-1.76
-4.06
-6.44
-8.66
-10.54
-11.98
-13.02
-13.85
-14.68
-15.71
-17
-18.39
-19.59
-20.27
-20.18
-19.23
-17.46
-15.06
-12.25
-9.26
-6.28
-3.48
-1
1
2.47
3.42
3.96
4.31
4.68
5.25
6.09
7.15
8.23
9.14
9.73
10.01
10.11
10.27
10.63
11.16
11.68
11.9
11.6
10.74
9.42
7.89
6.34
4.89
3.54
2.24
0.92
-0.45
-1.82
-3.14
-4.31
-5.23
-5.8
-6.02
-5.94
-5.79
-5.84
-6.39
-7.62
-9.56
-12.03
-14.76
-17.41
-19.61
-21.02
-21.35
-20.42
-18.19
-14.82
-10.7
-6.3
-2.09
1.6
4.62
6.95
8.66
9.79
10.35
10.31
9.68
8.54
7.07
5.5
4.13
3.21
2.97
3.53
4.91
6.99
9.49
12.07
14.37
16.05
16.92
16.89
16.06
14.57
12.62
10.39
8
5.55
3.1
0.67
-1.76
-4.28
-6.92
-9.61
-12.09
-13.92
-14.67
-14.07
-12.24
-9.64
-6.94
-4.77
-3.53
-3.31
-3.99
-5.44
-7.52
-10.07
-12.78
-15.16
-16.59
-16.58
-14.99
-12.09
-8.49
-4.85
-1.66
0.86
2.74
4.17
5.28
6.14
6.71
6.95
6.89
6.68
6.47
6.45
6.72
7.26
7.97
8.7
9.27
9.59
9.6
9.36
8.99
8.63
8.34
8.12
7.85
7.4
6.72
5.87
5.01
4.32
3.82
3.43
2.92
2.13
1.03
-0.25
-1.52
-2.64
-3.61
-4.56
-5.62
-6.85
-8.19
-9.55
-10.91
-12.36
-14.03
-15.96
-18
-19.71
-20.58
-20.19
-18.4
-15.48
-11.96
-8.49
-5.54
-3.3
-1.67
-0.47
0.48
1.22
1.65
1.75
1.6
1.43
1.5
1.97
2.81
3.83
4.8
5.56
6.12
6.54
6.91
7.16
7.19
6.85
6.13
5.18
4.22
3.45
2.94
2.58
2.21
1.65
0.88
-0.03
-0.91
-1.67
-2.25
-2.7
-3
-3.11
-2.96
-2.58
-2.18
-2.13
-2.76
-4.2
-6.3
-8.73
-11.15
-13.39
-15.44
-17.34
-19.02
-20.23
-20.61
-19.89
-18.03
-15.23
-11.83
-8.26
-4.83
-1.72
0.93
3.1
4.79
5.99
6.72
6.97
6.79
6.33
5.81
5.49
5.53
5.91
6.46
6.92
7.12
7.08
6.94
6.89
6.99
7.13
7.13
6.81
6.14
5.2
4.18
3.23
2.47
1.9
1.45
0.98
0.34
-0.58
-1.83
-3.31
-4.83
-6.19
-7.29
-8.17
-9.01
-10.02
-11.29
-12.81
-14.36
-15.7
-16.62
-16.93
-16.51
-15.27
-13.14
-10.14
-6.43
-2.37
1.58
4.97
7.47
8.97
9.57
9.51
9.03
8.35
7.65
7.07
6.74
6.7
6.88
7.1
7.17
6.98
6.59
6.22
6.1
6.31
6.77
7.2
7.36
7.16
6.65
6
5.37
4.85
4.43
4.04
3.62
3.15
2.58
1.84
0.84
-0.45
-2
-3.6
-5
-6
-6.55
-6.82
-7.1
-7.69
-8.78
-10.4
-12.39
-14.48
-16.35
-17.65
-18.08
-17.41
-15.58
-12.76
-9.31
-5.67
-2.23
0.77
3.25
5.22
6.69
7.62
8.01
7.95
7.63
7.33
7.27
7.54
8.05
8.6
9.03
9.24
9.27
9.22
9.12
8.97
8.69
8.17
7.39
6.41
5.34
4.31
3.43
2.76
2.3
2
1.79
1.55
1.18
0.6
-0.21
-1.21
-2.3
-3.36
-4.31
-5.13
-5.96
-6.97
-8.34
-10.14
-12.2
-14.18
-15.62
-16.14
-15.54
-13.91
-11.52
-8.73
-5.82
-2.96
-0.27
2.15
4.13
5.55
6.32
6.51
6.3
5.91
5.53
5.24
5.06
5
5.04
5.27
5.71
6.38
7.21
8.07
8.79
9.21
9.24
8.84
8.1
7.16
6.16
5.23
4.41
3.69
3.01
2.29
1.47
0.52
-0.56
-1.76
-3.01
-4.2
-5.24
-6.06
-6.69
-7.24
-7.9
-8.85
-10.18
-11.82
-13.58
-15.13
-16.14
-16.33
-15.61
-14.01
-11.71
-8.94
-5.94
-2.94
-0.13
2.3
4.22
5.52
6.19
6.29
5.96
5.38
4.72
4.18
3.89
3.96
4.38
5.08
5.93
6.75
7.4
7.76
7.79
7.48
6.94
6.29
5.69
5.26
5.01
4.88
4.68
4.28
3.57
2.53
1.18
-0.46
-2.35
-4.39
-6.35
-7.93
-8.84
-9.01
-8.61
-8
-7.63
-7.76
-8.45
-9.58
-10.92
-12.23
-13.32
-13.97
-13.96
-13.1
-11.28
-8.62
-5.45
-2.24
0.54
2.53
3.53
3.45
2.26
0.04
-3
-6.46
-9.7
-12.04
-12.94
-12.2
-10.02
-6.93
-3.57
-0.45
2.15
4.17
5.67
6.8
7.71
8.59
9.66
11.05
12.74
14.51
15.99
16.78
16.62
15.44
13.4
10.74
7.78
4.8
2.03
-0.39
-2.39
-3.99
-5.25
-6.22
-6.94
-7.46
-7.86
-8.31
-8.96
-9.91
-11.08
-12.23
-12.99
-13.05
-12.21
-10.47
-8.01
-5.08
-1.95
1.18
4.12
6.76
8.98
10.74
12.05
12.97
13.62
14.1
14.47
14.76
14.95
15.04
15.07
15.09
15.15
15.3
15.5
15.67
15.76
15.71
15.5
15.14
14.69
14.21
13.73
13.22
12.53
11.49
9.96
7.91
5.5
2.99
0.62
-1.44
-3.13
-4.44
-5.38
-5.93
-6.08
-5.97
-5.88
-6.19
-7.25
-9.13
-11.58
-14.08
-16
-16.8
-16.21
-14.28
-11.37
-7.91
-4.36
-1.04
1.84
4.2
6
7.23
7.87
7.94
7.53
6.83
6.1
5.61
5.54
5.9
6.58
7.37
8.11
8.68
9.06
9.21
9.13
8.76
8.07
7.04
5.75
4.31
2.85
1.46
0.23
-0.84
-1.79
-2.74
-3.79
-5
-6.35
-7.76
-9.08
-10.21
-11.07
-11.65
-11.98
-12.16
-12.3
-12.53
-12.99
-13.69
-14.53
-15.3
-15.67
-15.39
-14.3
-12.46
-10.07
-7.43
-4.8
-2.37
-0.25
1.5
2.83
3.74
4.22
4.36
4.3
4.24
4.3
4.61
5.18
5.98
6.93
7.94
8.88
9.62
10.06
10.14
9.87
9.3
8.51
7.58
6.56
5.5
4.42
3.35
2.3
1.26
0.2
-0.93
-2.14
-3.4
-4.6
-5.64
-6.38
-6.83
-7.09
-7.38
-7.94
-8.96
-10.49
-12.42
-14.54
-16.57
-18.23
-19.22
-19.28
-18.24
-16.08
-12.98
-9.32
-5.56
-2.13
0.72
2.92
4.57
5.76
6.53
6.88
6.81
6.45
6.03
5.82
5.99
6.56
7.39
8.27
9.09
9.8
10.43
10.98
11.39
11.53
11.28
10.65
9.75
8.75
7.8
6.97
6.23
5.49
4.7
3.86
3.01
2.17
1.27
0.22
-1.01
-2.37
-3.72
-4.92
-5.88
-6.72
-7.62
-8.84
-10.52
-12.6
-14.83
-16.82
-18.2
-18.67
-18.15
-16.67
-14.42
-11.68
-8.67
-5.62
-2.69
-0.05
2.17
3.85
4.91
5.38
5.34
4.97
4.49
4.07
3.84
3.91
4.34
5.15
6.27
7.52
8.62
9.35
9.6
9.44
9.07
8.65
8.26
7.82
7.17
6.18
4.89
3.49
2.27
1.39
0.85
0.44
-0.09
-0.89
-1.91
-2.97
-3.82
-4.32
-4.48
-4.46
-4.47
-4.67
-5.14
-5.9
-7
-8.46
-10.3
-12.4
-14.48
-16.14
-16.98
-16.72
-15.32
-12.92
-9.83
-6.38
-2.93
0.22
2.82
4.74
5.97
6.64
6.89
6.89
6.67
6.21
5.56
4.86
4.33
4.25
4.74
5.73
6.98
8.16
9.01
9.44
9.49
9.27
8.9
8.44
7.89
7.22
6.44
5.59
4.73
3.92
3.16
2.41
1.6
0.67
-0.37
-1.44
-2.45
-3.34
-4.1
-4.77
-5.42
-6.12
-6.97
-8.02
-9.31
-10.86
-12.57
-14.23
-15.52
-16.11
-15.77
-14.44
-12.25
-9.49
-6.54
-3.73
-1.32
0.6
2.06
3.14
3.94
4.54
4.9
5.01
4.88
4.62
4.43
4.47
4.86
5.55
6.42
7.29
8.05
8.68
9.2
9.61
9.87
9.85
9.49
8.79
7.85
6.82
5.81
4.85
3.86
2.74
1.41
-0.1
-1.62
-2.96
-3.9
-4.41
-4.6
-4.7
-5
-5.68
-6.76
-8.12
-9.57
-10.99
-12.34
-13.7
-15.04
-16.21
-16.92
-16.83
-15.72
-13.61
-10.79
-7.68
-4.72
-2.18
-0.13
1.46
2.72
3.69
4.34
4.64
4.58
4.29
3.94
3.8
4.02
4.62
5.42
6.16
6.58
6.58
6.24
5.82
5.59
5.74
6.28
7.02
7.65
7.9
7.62
6.86
5.81
4.71
3.67
2.69
1.64
0.36
-1.19
-2.9
-4.54
-5.83
-6.61
-6.86
-6.75
-6.54
-6.52
-6.9
-7.81
-9.27
-11.23
-13.53
-15.88
-17.89
-19.13
-19.21
-17.92
-15.35
-11.82
-7.84
-3.94
-0.49
2.33
4.54
6.23
7.49
8.3
8.64
8.48
7.81
6.77
5.6
4.6
4.06
4.18
5.01
6.4
8.1
9.82
11.36
12.59
13.49
14.02
14.1
13.62
12.51
10.8
8.74
6.64
4.8
3.42
2.52
1.94
1.49
0.97
0.25
-0.68
-1.8
-3.01
-4.21
-5.36
-6.48
-7.65
-8.98
-10.56
-12.39
-14.37
-16.25
-17.73
-18.46
-18.2
-16.81
-14.38
-11.19
-7.63
-4.13
-1.02
1.48
3.34
4.63
5.48
5.98
6.23
6.32
6.33
6.39
6.65
7.18
8.01
9.06
10.2
11.28
12.22
12.98
13.58
14.03
14.3
14.35
14.09
13.45
12.4
11.01
9.37
7.67
6.07
4.69
3.53
2.51
1.51
0.39
-0.85
-2.14
-3.34
-4.31
-4.98
-5.4
-5.75
-6.27
-7.2
-8.71
-10.78
-13.26
-15.83
-18.1
-19.69
-20.29
-19.77
-18.16
-15.64
-12.5
-9.03
-5.54
-2.25
0.69
3.14
5.03
6.3
6.98
7.17
7.03
6.81
6.69
6.76
7.04
7.44
7.87
8.29
8.74
9.26
9.89
10.57
11.16
11.49
11.45
10.96
10.1
8.97
7.74
6.53
5.4
4.34
3.32
2.36
1.53
0.95
0.72
0.76
0.85
0.66
-0.01
-1.23
-2.78
-4.39
-5.82
-7.07
-8.33
-9.87
-11.86
-14.23
-16.69
-18.78
-20.06
-20.18
-19.02
-16.68
-13.47
-9.78
-6.05
-2.6
0.4
2.91
4.94
6.47
7.44
7.75
7.45
6.75
6.04
5.72
6.01
6.89
8.13
9.42
10.53
11.37
11.99
12.45
12.76
12.86
12.67
12.13
11.27
10.15
8.88
7.53
6.17
4.85
3.65
2.63
1.8
1.11
0.44
-0.36
-1.38
-2.66
-4.09
-5.52
-6.79
-7.82
-8.66
-9.47
-10.47
-11.86
-13.7
-15.85
-17.95
-19.47
-19.89
-18.91
-16.54
-13.14
-9.23
-5.34
-1.83
1.16
3.61
5.56
6.95
7.71
7.82
7.35
6.54
5.71
5.19
5.17
5.73
6.74
8
9.3
10.49
11.51
12.36
13.07
13.64
14.04
14.17
13.91
13.16
11.93
10.29
8.43
6.54
4.81
3.35
2.14
1.1
0.09
-0.99
-2.16
-3.38
-4.58
-5.72
-6.81
-7.89
-9.03
-10.27
-11.65
-13.16
-14.79
-16.46
-18.02
-19.2
-19.67
-19.11
-17.38
-14.58
-11.01
-7.13
-3.41
-0.15
2.47
4.48
5.95
6.98
7.64
8.01
8.16
8.2
8.26
8.47
8.88
9.48
10.18
10.85
11.38
11.71
11.9
12.02
12.12
12.19
12.12
11.77
11.06
9.95
8.51
6.91
5.28
3.76
2.44
1.35
0.51
-0.08
-0.48
-0.75
-1.03
-1.41
-1.98
-2.8
-3.89
-5.26
-6.85
-8.62
-10.51
-12.51
-14.63
-16.83
-18.91
-20.58
-21.43
-21.12
-19.51
-16.75
-13.17
-9.2
-5.24
-1.54
1.74
4.49
6.59
7.96
8.6
8.64
8.35
8.05
8.03
8.42
9.2
10.21
11.27
12.18
12.9
13.43
13.85
14.17
14.35
14.33
14.02
13.41
12.55
11.51
10.41
9.28
8.18
7.11
6.08
5.12
4.21
3.35
2.45
1.42
0.19
-1.26
-2.87
-4.52
-6.1
-7.57
-8.94
-10.35
-11.91
-13.72
-15.73
-17.8
-19.69
-21.15
-21.94
-21.87
-20.83
-18.73
-15.61
-11.67
-7.29
-2.98
0.77
3.6
5.43
6.41
6.81
6.93
6.93
6.91
6.85
6.81
6.87
7.16
7.78
8.71
9.86
11
11.94
12.49
12.62
12.36
11.83
11.12
10.24
9.2
7.99
6.65
5.34
4.22
3.35
2.73
2.18
1.55
0.72
-0.31
-1.45
-2.61
-3.75
-4.87
-5.95
-6.98
-7.92
-8.74
-9.52
-10.4
-11.54
-13.06
-14.91
-16.91
-18.73
-20
-20.36
-19.6
-17.72
-14.89
-11.46
-7.81
-4.3
-1.14
1.52
3.65
5.21
6.22
6.67
6.65
6.33
5.93
5.71
5.84
6.44
7.43
8.68
9.97
11.08
11.86
12.26
12.32
12.1
11.71
11.15
10.42
9.49
8.37
7.17
6.03
5.06
4.3
3.64
2.92
1.95
0.67
-0.85
-2.42
-3.81
-4.85
-5.57
-6.09
-6.69
-7.64
-9.1
-11.13
-13.61
-16.37
-19.15
-21.66
-23.58
-24.61
-24.51
-23.17
-20.68
-17.33
-13.5
-9.57
-5.8
-2.32
0.8
3.53
5.8
7.57
8.78
9.5
9.87
10.05
10.21
10.44
10.76
11.15
11.57
12
12.42
12.82
13.19
13.48
13.63
13.53
13.09
12.25
11.01
9.45
7.72
6.03
4.58
3.49
2.82
2.49
2.38
2.3
2.14
1.77
1.09
0.02
-1.54
-3.69
-6.42
-9.72
-13.43
-17.37
-21.38
-25.24
-28.65
-31.25
-32.56
-32.16
-29.78
-25.52
-19.78
-13.28
-6.81
-1.05
3.65
7.19
9.73
11.5
12.66
13.25
13.29
12.82
12.01
11.11
10.33
9.82
9.53
9.34
9.07
8.66
8.15
7.66
7.31
7.16
7.22
7.42
7.67
7.86
7.87
7.59
7
6.15
5.2
4.3
3.56
2.92
2.26
1.44
0.4
-0.77
-1.89
-2.8
-3.45
-3.95
-4.53
-5.42
-6.8
-8.7
-11.03
-13.62
-16.22
-18.52
-20.2
-20.93
-20.43
-18.6
-15.53
-11.55
-7.12
-2.76
1.1
4.2
6.48
8.04
9.03
9.61
9.9
9.98
9.96
9.96
10.1
10.46
11.01
11.69
12.36
12.98
13.52
14.06
14.65
15.28
15.84
16.11
15.9
15.11
13.76
12.02
10.16
8.43
7.01
5.93
5.06
4.18
3.09
1.63
-0.18
-2.2
-4.19
-5.95
-7.37
-8.46
-9.32
-10.09
-10.93
-11.98
-13.34
-15.06
-17.04
-18.97
-20.37
-20.71
-19.62
-17.03
-13.24
-8.85
-4.52
-0.79
2.06
4.04
5.35
6.24
6.93
7.49
7.88
8.08
8.12
8.09
8.18
8.55
9.26
10.27
11.42
12.47
13.24
13.61
13.57
13.18
12.57
11.8
10.9
9.86
8.65
7.31
5.98
4.79
3.86
3.2
2.66
2.02
1.06
-0.32
-2.06
-4
-5.9
-7.53
-8.72
-9.41
-9.59
-9.38
-8.97
-8.63
-8.58
-8.98
-9.86
-11.05
-12.24
-12.97
-12.83
-11.51
-8.97
-5.45
-1.45
2.49
5.89
8.51
10.31
11.47
12.16
12.47
12.41
11.98
11.28
10.48
9.77
9.29
9.04
8.87
8.69
8.44
8.21
8.09
8.16
8.4
8.71
8.99
9.16
9.13
8.79
8.02
6.75
5.01
3.03
1.15
-0.31
-1.16
-1.5
-1.58
-1.8
-2.41
-3.47
-4.84
-6.26
-7.54
-8.6
-9.51
-10.43
-11.51
-12.77
-14.11
-15.38
-16.42
-17.08
-17.2
-16.63
-15.22
-12.97
-10.01
-6.67
-3.36
-0.47
1.77
3.29
4.17
4.53
4.45
4.01
3.29
2.45
1.72
1.34
1.44
2
2.83
3.68
4.43
5.08
5.74
6.5
7.33
8.04
8.38
8.15
7.35
6.14
4.72
3.3
1.97
0.76
-0.33
-1.27
-2.06
-2.73
-3.36
-4.09
-4.97
-6.07
-7.38
-8.87
-10.53
-12.32
-14.16
-15.83
-17.03
-17.38
-16.64
-14.72
-11.81
-8.31
-4.68
-1.34
1.48
3.71
5.38
6.54
7.18
7.25
6.78
5.89
4.84
3.97
3.53
3.63
4.2
5.04
5.92
6.68
7.22
7.48
7.44
7.03
6.25
5.14
3.81
2.45
1.23
0.24
-0.54
-1.23
-1.98
-2.9
-3.96
-5.08
-6.14
-7.04
-7.77
-8.34
-8.78
-9.2
-9.74
-10.58
-11.88
-13.64
-15.7
-17.64
-18.96
-19.22
-18.23
-16.05
-12.98
-9.46
-5.87
-2.51
0.46
2.97
4.96
6.42
7.32
7.64
7.42
6.83
6.05
5.31
4.8
4.61
4.76
5.26
6.08
7.18
8.41
9.55
10.3
10.43
9.83
8.6
6.96
5.22
3.59
2.2
1.03
0.03
-0.93
-1.9
-2.93
-4.01
-5.07
-6
-6.74
-7.28
-7.74
-8.27
-9.07
-10.22
-11.74
-13.5
-15.33
-16.98
-18.18
-18.67
-18.24
-16.8
-14.37
-11.15
-7.45
-3.65
-0.15
2.8
5.02
6.53
7.44
7.92
8.17
8.3
8.31
8.19
7.92
7.59
7.34
7.31
7.54
7.95
8.36
8.59
8.52
8.2
7.7
7.15
6.62
6.14
5.71
5.35
5.02
4.68
4.22
3.48
2.36
0.84
-1.01
-2.99
-4.9
-6.53
-7.74
-8.56
-9.16
-9.86
-10.98
-12.75
-15.15
-17.87
-20.41
-22.17
-22.73
-21.91
-19.84
-16.81
-13.22
-9.44
-5.81
-2.56
0.14
2.23
3.75
4.83
5.63
6.25
6.72
7.05
7.24
7.38
7.62
8.1
8.86
9.77
10.65
11.3
11.6
11.56
11.24
10.74
10.11
9.38
8.55
7.63
6.66
5.67
4.72
3.84
3.02
2.24
1.43
0.51
-0.52
-1.6
-2.63
-3.53
-4.34
-5.2
-6.32
-7.86
-9.81
-12.01
-14.24
-16.24
-17.81
-18.74
-18.83
-17.85
-15.69
-12.45
-8.49
-4.32
-0.48
2.66
4.99
6.6
7.69
8.39
8.77
8.89
8.81
8.7
8.77
9.22
10.13
11.43
12.92
14.35
15.48
16.19
16.46
16.35
15.99
15.45
14.75
13.83
12.59
11
9.13
7.18
5.43
4.06
3.13
2.52
2.05
1.53
0.86
0.04
-0.9
-1.91
-3
-4.21
-5.57
-7.07
-8.7
-10.46
-12.36
-14.4
-16.47
-18.29
-19.44
-19.45
-18.02
-15.16
-11.23
-6.88
-2.77
0.6
3.07
4.73
5.85
6.66
7.24
7.6
7.65
7.43
7.02
6.59
6.3
6.29
6.59
7.2
8.01
8.91
9.75
10.44
10.89
11.06
10.9
10.37
9.44
8.18
6.7
5.22
3.92
2.93
2.25
1.78
1.37
0.87
0.21
-0.67
-1.75
-2.97
-4.23
-5.46
-6.58
-7.67
-8.84
-10.27
-11.98
-13.81
-15.39
-16.26
-16.03
-14.53
-11.88
-8.45
-4.69
-1.03
2.24
4.96
7.04
8.39
8.95
8.75
7.87
6.59
5.26
4.25
3.82
4.04
4.81
5.9
7.06
8.07
8.84
9.31
9.47
9.32
8.83
8.03
6.97
5.79
4.64
3.65
2.84
2.09
1.24
0.14
-1.24
-2.78
-4.31
-5.62
-6.62
-7.33
-7.92
-8.61
-9.63
-11.12
-13.02
-15.09
-16.89
-17.97
-17.94
-16.71
-14.41
-11.34
-7.9
-4.44
-1.23
1.53
3.69
5.16
5.93
6.1
5.88
5.53
5.3
5.34
5.65
6.14
6.66
7.14
7.62
8.21
9
9.95
10.87
11.45
11.44
10.81
9.71
8.43
7.2
6.09
5.02
3.83
2.45
0.98
-0.39
-1.49
-2.32
-3.05
-3.95
-5.22
-6.85
-8.65
-10.35
-11.82
-13.11
-14.45
-16.01
-17.73
-19.27
-20.11
-19.77
-18.05
-15.08
-11.31
-7.25
-3.36
0.12
3.07
5.47
7.29
8.5
9.11
9.18
8.87
8.39
7.96
7.76
7.84
8.22
8.82
9.57
10.39
11.2
11.91
12.41
12.61
12.45
11.91
11.01
9.82
8.41
6.83
5.14
3.37
1.59
-0.13
-1.68
-3
-4.03
-4.81
-5.43
-6.04
-6.8
-7.85
-9.25
-11.02
-13.09
-15.3
-17.4
-19.05
-19.82
-19.37
-17.56
-14.53
-10.67
-6.56
-2.73
0.49
3.01
4.96
6.48
7.65
8.43
8.77
8.69
8.34
7.97
7.84
8.04
8.55
9.17
9.75
10.17
10.45
10.64
10.82
10.95
10.93
10.65
10.02
9.02
7.7
6.17
4.59
3.17
2.05
1.31
0.87
0.54
0.07
-0.72
-1.82
-3.08
-4.28
-5.27
-6.08
-6.85
-7.83
-9.19
-10.98
-13.12
-15.4
-17.57
-19.35
-20.43
-20.59
-19.65
-17.55
-14.43
-10.56
-6.37
-2.34
1.13
3.82
5.71
6.98
7.84
8.45
8.85
8.98
8.79
8.33
7.81
7.49
7.62
8.27
9.33
10.59
11.79
12.78
13.45
13.77
13.68
13.14
12.11
10.68
9.04
7.46
6.18
5.29
4.73
4.29
3.76
2.99
1.94
0.68
-0.73
-2.21
-3.73
-5.21
-6.54
-7.64
-8.48
-9.2
-10.06
-11.36
-13.22
-15.52
-17.87
-19.73
-20.6
-20.18
-18.47
-15.72
-12.31
-8.63
-5.01
-1.68
1.17
3.41
4.97
5.83
6.11
6.03
5.91
6.03
6.6
7.65
9.03
10.47
11.71
12.61
13.16
13.49
13.72
13.92
14.04
13.96
13.51
12.6
11.25
9.59
7.83
6.2
4.86
3.9
3.29
2.91
2.61
2.22
1.59
0.7
-0.43
-1.69
-2.97
-4.18
-5.33
-6.5
-7.81
-9.41
-11.35
-13.56
-15.81
-17.75
-18.95
-19.07
-17.91
-15.57
-12.4
-8.91
-5.61
-2.8
-0.57
1.25
2.87
4.44
5.92
7.13
7.89
8.09
7.82
7.31
6.87
6.75
7.06
7.76
8.67
9.55
10.2
10.54
10.55
10.32
9.93
9.41
8.76
7.94
6.95
5.85
4.77
3.85
3.18
2.79
2.62
2.53
2.39
2.07
1.52
0.74
-0.23
-1.32
-2.49
-3.71
-4.92
-6.09
-7.16
-8.13
-9.09
-10.15
-11.44
-12.96
-14.54
-15.85
-16.53
-16.3
-15.06
-12.95
-10.25
-7.26
-4.28
-1.57
0.68
2.37
3.44
3.95
4.01
3.82
3.55
3.37
3.36
3.56
3.97
4.6
5.39
6.27
7.13
7.83
8.29
8.51
8.54
8.56
8.72
9.09
9.6
10.07
10.27
10.01
9.28
8.22
7.01
5.83
4.77
3.74
2.66
1.5
0.29
-0.78
-1.54
-1.95
-2.08
-2.15
-2.46
-3.17
-4.35
-5.91
-7.71
-9.6
-11.46
-13.19
-14.62
-15.51
-15.59
-14.63
-12.59
-9.66
-6.25
-2.84
0.15
2.44
3.96
4.81
5.15
5.13
4.88
4.48
3.95
3.4
2.96
2.82
3.1
3.82
4.8
5.77
6.49
6.83
6.86
6.71
6.54
6.43
6.34
6.17
5.84
5.33
4.69
3.99
3.28
2.57
1.79
0.91
-0.12
-1.27
-2.46
-3.56
-4.47
-5.12
-5.54
-5.86
-6.27
-6.95
-7.99
-9.43
-11.2
-13.09
-14.85
-16.12
-16.59
-16.05
-14.46
-12
-9.04
-5.96
-3.13
-0.79
0.98
2.17
2.79
2.92
2.62
2.06
1.44
0.94
0.67
0.69
0.95
1.4
2
2.7
3.43
4.07
4.45
4.49
4.19
3.68
3.17
2.77
2.46
2.16
1.68
0.94
-0.04
-1.14
-2.22
-3.2
-4.03
-4.76
-5.42
-6.03
-6.61
-7.25
-8.06
-9.15
-10.59
-12.31
-14.09
-15.59
-16.45
-16.38
-15.27
-13.21
-10.46
-7.42
-4.47
-1.95
-0
1.36
2.26
2.81
3.1
3.11
2.85
2.43
2.1
2.16
2.87
4.23
5.96
7.59
8.71
9.08
8.77
8.03
7.11
6.11
5
3.66
2.09
0.4
-1.18
-2.47
-3.43
-4.17
-4.91
-5.76
-6.69
-7.51
-8.03
-8.22
-8.24
-8.41
-9.06
-10.39
-12.33
-14.57
-16.68
-18.21
-18.87
-18.5
-17.16
-15.02
-12.34
-9.41
-6.48
-3.72
-1.22
0.99
2.89
4.44
5.61
6.37
6.74
6.84
6.83
6.86
7.04
7.43
8.03
8.81
9.73
10.69
11.59
12.23
12.48
12.3
11.74
10.92
9.98
9
8
6.99
5.97
4.97
3.97
2.89
1.62
0.1
-1.65
-3.44
-5.12
-6.58
-7.93
-9.4
-11.23
-13.53
-16.12
-18.58
-20.38
-20.99
-20.11
-17.75
-14.21
-10.02
-5.78
-1.99
1.06
3.3
4.86
5.96
6.79
7.49
8.11
8.64
8.99
9.13
9.03
8.77
8.46
8.28
8.35
8.76
9.44
10.27
11.07
11.64
11.84
11.59
10.83
9.63
8.11
6.46
4.88
3.54
2.46
1.54
0.63
-0.41
-1.64
-3.05
-4.57
-6.15
-7.76
-9.42
-11.14
-12.94
-14.81
-16.68
-18.45
-19.94
-20.92
-21.08
-20.17
-18.05
-14.83
-10.86
-6.64
-2.66
0.68
3.24
5.08
6.35
7.22
7.8
8.13
8.18
7.97
7.61
7.22
6.98
7.06
7.52
8.35
9.38
10.38
11.13
11.5
11.41
10.91
10.09
9.04
7.85
6.58
5.3
4.03
2.81
1.63
0.48
-0.64
-1.73
-2.82
-3.92
-5.1
-6.4
-7.88
-9.57
-11.48
-13.58
-15.81
-18.01
-19.9
-21.14
-21.38
-20.38
-18.09
-14.74
-10.71
-6.51
-2.57
0.8
3.51
5.59
7.12
8.19
8.82
9
8.84
8.51
8.29
8.4
8.97
9.91
11.05
12.17
13.12
13.83
14.25
14.33
13.97
13.11
11.75
10.04
8.17
6.36
4.77
3.45
2.4
1.56
0.87
0.26
-0.34
-1.05
-1.93
-3.01
-4.33
-5.88
-7.65
-9.67
-11.98
-14.55
-17.3
-19.98
-22.24
-23.65
-23.84
-22.6
-19.97
-16.23
-11.84
-7.28
-2.96
0.82
3.94
6.34
8.03
9.07
9.58
9.74
9.77
9.85
10.14
10.69
11.52
12.54
13.62
14.58
15.27
15.55
15.4
14.93
14.27
13.6
12.97
12.35
11.62
10.68
9.53
8.3
7.13
6.14
5.28
4.39
3.27
1.83
0.12
-1.64
-3.25
-4.62
-5.82
-7.09
-8.71
-10.86
-13.47
-16.31
-18.97
-21
-21.97
-21.64
-19.9
-16.89
-12.93
-8.46
-3.94
0.21
3.74
6.52
8.54
9.87
10.62
10.91
10.94
10.93
11.05
11.44
12.06
12.77
13.4
13.82
14.03
14.15
14.3
14.54
14.82
14.99
14.89
14.43
13.65
12.66
11.58
10.48
9.38
8.23
7.01
5.69
4.28
2.8
1.23
-0.41
-2.11
-3.8
-5.4
-6.84
-8.15
-9.46
-10.99
-12.97
-15.47
-18.29
-20.98
-22.91
-23.51
-22.45
-19.76
-15.84
-11.29
-6.72
-2.57
0.91
3.69
5.91
7.69
9.16
10.35
11.28
11.96
12.43
12.77
13.05
13.32
13.57
13.79
13.95
14.06
14.17
14.32
14.53
14.72
14.78
14.57
14.03
13.16
12.05
10.76
9.4
8.05
6.78
5.63
4.6
3.67
2.8
1.92
0.98
-0.06
-1.2
-2.39
-3.58
-4.71
-5.76
-6.78
-7.93
-9.38
-11.28
-13.65
-16.31
-18.84
-20.73
-21.49
-20.78
-18.53
-14.98
-10.6
-5.97
-1.61
2.15
5.19
7.58
9.45
10.9
12.05
12.98
13.84
14.76
15.89
17.27
18.8
20.29
21.59
22.68
23.68
24.8
26.2
27.87
29.61
31.12
32.15
32.63
32.7
32.68
32.88
33.49
34.58
36.01
37.56
38.95
39.85
39.93
39.01
37.21
35.06
33.26
32.25
31.73
30.34
26.03
16.75
1.48
-18.99
-41.98
-63.53
-79.6
-87.23
-85.46
-75.44
-60.02
-42.78
-27.08
-15.22
-8.08
-5.23
-5.32
-6.71
-8.01
-8.6
-8.89
-10.39
-15.33
-25.86
-43.06
-66.02
-91.58
-114.96
-131.17
-136.78
-131.01
-115.87
-95.2
-73.05
-52.42
-34.66
-19.79
-7.19
3.62
12.84
20.48
26.75
32.13
37.21
42.33
47.2
50.96
52.56
51.29
47.21
41.27
34.95
29.62
26.02
23.98
22.66
21
18.31
14.63
10.66
7.4
5.72
6
8.02
11.21
14.83
18.26
21.07
23.04
24.08
24.15
23.3
21.65
19.42
16.95
14.59
12.63
11.21
10.36
9.94
9.78
9.66
9.44
9.03
8.44
7.76
7.1
6.5
5.93
5.27
4.34
3.1
1.58
-0.07
-1.69
-3.2
-4.62
-6.04
-7.54
-9.1
-10.59
-11.84
-12.79
-13.43
-13.9
-14.32
-14.73
-15.01
-14.95
-14.32
-13.02
-11.08
-8.72
-6.17
-3.63
-1.22
0.99
2.94
4.49
5.47
5.73
5.19
3.92
2.08
-0.01
-2.03
-3.61
-4.47
-4.44
-3.54
-2.05
-0.39
1
1.82
2.03
1.84
1.53
1.35
1.3
1.2
0.79
-0.17
-1.67
-3.54
-5.44
-7.06
-8.19
-8.85
-9.28
-9.81
-10.76
-12.3
-14.37
-16.68
-18.84
-20.43
-21.16
-20.9
-19.68
-17.65
-15.05
-12.12
-9.1
-6.16
-3.37
-0.71
1.87
4.41
6.9
9.2
11.04
12.09
12.06
10.78
8.36
5.13
1.61
-1.63
-4.11
-5.55
-5.87
-5.19
-3.76
-1.93
-0.12
1.29
2.07
2.25
2.07
1.94
2.21
3.03
4.28
5.65
6.71
7.15
6.78
5.56
3.57
0.94
-2.19
-5.71
-9.46
-13.28
-16.88
-19.92
-21.99
-22.77
-22.12
-20.12
-17.06
-13.32
-9.32
-5.37
-1.68
1.58
4.29
6.4
7.91
8.9
9.51
9.87
10.04
10.06
9.94
9.7
9.37
8.98
8.5
7.93
7.24
6.48
5.74
5.09
4.6
4.31
4.19
4.16
4.11
3.9
3.37
2.44
1.16
-0.31
-1.74
-2.95
-3.85
-4.53
-5.13
-5.84
-6.8
-8.09
-9.73
-11.64
-13.67
-15.59
-17.09
-17.9
-17.86
-16.93
-15.22
-12.87
-10.02
-6.82
-3.46
-0.2
2.69
4.95
6.45
7.22
7.47
7.44
7.37
7.39
7.51
7.71
7.96
8.31
8.8
9.51
10.39
11.34
12.17
12.66
12.63
11.98
10.81
9.31
7.72
6.27
5.06
4.09
3.29
2.56
1.85
1.17
0.55
0.04
-0.42
-0.92
-1.6
-2.63
-4.13
-6.19
-8.76
-11.64
-14.44
-16.66
-17.8
-17.56
-15.99
-13.39
-10.26
-7.04
-4.04
-1.36
0.98
3.03
4.74
6.08
6.99
7.47
7.58
7.44
7.23
7.14
7.31
7.79
8.49
9.21
9.73
9.94
9.86
9.62
9.33
9.03
8.67
8.11
7.25
6.07
4.65
3.13
1.66
0.36
-0.67
-1.41
-1.92
-2.3
-2.72
-3.28
-4.07
-5.11
-6.41
-7.96
-9.69
-11.43
-12.86
-13.64
-13.48
-12.28
-10.19
-7.47
-4.51
-1.6
1.03
3.31
5.19
6.67
7.75
8.44
8.69
8.46
7.74
6.61
5.28
4.07
3.28
3.13
3.6
4.49
5.45
6.19
6.55
6.49
6.07
5.38
4.46
3.34
2.03
0.59
-0.9
-2.34
-3.65
-4.8
-5.8
-6.69
-7.58
-8.54
-9.64
-10.91
-12.32
-13.79
-15.17
-16.27
-16.87
-16.76
-15.76
-13.8
-10.95
-7.47
-3.74
-0.19
2.8
5.04
6.48
7.21
7.4
7.19
6.71
6.06
5.3
4.5
3.77
3.26
3.08
3.32
3.95
4.84
5.85
6.8
7.57
8.12
8.39
8.3
7.75
6.67
5.09
3.19
1.25
-0.45
-1.77
-2.75
-3.59
-4.57
-5.91
-7.66
-9.7
-11.78
-13.56
-14.74
-15.12
-14.63
-13.31
-11.28
-8.7
-5.68
-2.4
0.93
4.03
6.56
8.26
9.05
9.02
8.48
7.78
7.21
6.91
6.91
7.12
7.44
7.76
7.99
8.08
7.98
7.7
7.25
6.69
6.02
5.28
4.45
3.53
2.53
1.48
0.41
-0.68
-1.75
-2.75
-3.62
-4.3
-4.84
-5.37
-6.12
-7.29
-8.99
-11.14
-13.5
-15.73
-17.47
-18.46
-18.47
-17.41
-15.32
-12.34
-8.75
-4.91
-1.19
2.09
4.76
6.72
8.01
8.68
8.85
8.62
8.15
7.6
7.14
6.87
6.87
7.11
7.54
8.12
8.8
9.55
10.31
10.96
11.36
11.34
10.77
9.64
8.09
6.39
4.81
3.55
2.58
1.7
0.71
-0.51
-1.9
-3.22
-4.24
-4.88
-5.31
-5.83
-6.75
-8.2
-10.13
-12.33
-14.47
-16.21
-17.22
-17.26
-16.19
-14.09
-11.23
-8
-4.82
-1.98
0.37
2.24
3.67
4.69
5.3
5.48
5.29
4.9
4.52
4.34
4.47
4.91
5.53
6.21
6.88
7.51
8.17
8.85
9.42
9.69
9.5
8.84
7.85
6.79
5.86
5.09
4.36
3.49
2.33
0.9
-0.69
-2.3
-3.77
-5.02
-5.98
-6.65
-7.09
-7.42
-7.85
-8.6
-9.75
-11.22
-12.67
-13.67
-13.79
-12.77
-10.63
-7.6
-4.1
-0.58
2.6
5.17
7.03
8.15
8.54
8.3
7.59
6.72
6.06
5.91
6.43
7.52
8.9
10.26
11.35
12.13
12.68
13.07
13.35
13.42
13.17
12.56
11.67
10.65
9.66
8.77
7.96
7.15
6.2
5.04
3.68
2.16
0.59
-0.94
-2.36
-3.64
-4.8
-5.94
-7.15
-8.55
-10.18
-12.01
-13.86
-15.5
-16.65
-17.01
-16.43
-14.91
-12.6
-9.8
-6.82
-3.94
-1.33
0.91
2.68
3.83
4.25
3.9
2.91
1.64
0.57
0.15
0.67
2.11
4.23
6.59
8.78
10.48
11.55
11.97
11.79
11.16
10.23
9.16
8.12
7.27
6.69
6.39
6.25
6.07
5.65
4.87
3.7
2.23
0.66
-0.82
-2.09
-3.11
-3.97
-4.84
-5.9
-7.31
-9.12
-11.28
-13.54
-15.52
-16.76
-16.89
-15.72
-13.3
-9.99
-6.26
-2.63
0.49
2.89
4.54
5.51
5.94
5.96
5.69
5.25
4.74
4.3
4.08
4.21
4.73
5.58
6.57
7.49
8.17
8.58
8.77
8.86
8.87
8.69
8.14
7.02
5.33
3.33
1.41
-0.01
-0.71
-0.79
-0.58
-0.47
-0.81
-1.68
-3
-4.54
-6.07
-7.43
-8.57
-9.5
-10.25
-10.91
-11.5
-11.91
-11.95
-11.3
-9.7
-7.08
-3.64
0.13
3.66
6.42
8.08
8.54
7.93
6.55
4.92
3.75
3.79
5.5
8.75
12.68
15.9
17.12
15.68
11.91
6.97
2.23
-1.25
-3.18
-3.87
-3.93
-3.81
-3.67
-3.42
-2.99
-2.45
-2.05
-2.05
-2.59
-3.55
-4.67
-5.62
-6.2
-6.33
-6.15
-5.94
-5.96
-6.42
-7.37
-8.68
-10.14
-11.48
-12.55
-13.21
-13.43
-13.15
-12.36
-10.99
-9.08
-6.7
-3.97
-1.1
1.72
4.23
6.2
7.44
7.87
7.56
6.78
5.87
5.16
4.82
4.87
5.2
5.66
6.11
6.53
6.9
7.27
7.63
7.97
8.19
8.17
7.8
7.03
5.9
4.53
3.07
1.63
0.3
-0.93
-2.02
-2.92
-3.59
-4.02
-4.35
-4.77
-5.54
-6.77
-8.46
-10.4
-12.3
-13.85
-14.79
-14.93
-14.2
-12.61
-10.31
-7.53
-4.57
-1.71
0.84
2.95
4.56
5.67
6.28
6.42
6.17
5.64
4.99
4.38
3.95
3.82
4.06
4.66
5.54
6.53
7.42
7.98
8.1
7.8
7.17
6.35
5.47
4.58
3.69
2.83
2.03
1.3
0.59
-0.17
-1.05
-2.09
-3.22
-4.33
-5.35
-6.29
-7.31
-8.55
-10.14
-12
-13.9
-15.52
-16.51
-16.67
-15.91
-14.33
-12.15
-9.62
-7
-4.47
-2.13
-0.01
1.82
3.29
4.3
4.78
4.75
4.38
3.89
3.53
3.46
3.75
4.36
5.22
6.21
7.21
8.08
8.7
8.95
8.8
8.25
7.34
6.17
4.8
3.36
1.95
0.67
-0.45
-1.41
-2.26
-3.1
-4.01
-5.01
-6.13
-7.35
-8.64
-9.97
-11.29
-12.6
-13.88
-15.07
-16.04
-16.58
-16.44
-15.46
-13.65
-11.23
-8.53
-5.86
-3.41
-1.28
0.49
1.83
2.61
2.76
2.34
1.56
0.75
0.15
-0.15
-0.22
-0.21
-0.24
-0.29
-0.31
-0.25
-0.15
-0.12
-0.28
-0.7
-1.35
-2.24
-3.41
-4.94
-6.93
-9.36
-12.05
-14.71
-16.99
-18.69
-19.81
-20.58
-21.35
-22.39
-23.75
-25.25
-26.54
-27.29
-27.32
-26.65
-25.46
-23.96
-22.27
-20.45
-18.53
-16.6
-14.83
-13.46
-12.71
-12.66
-13.29
-14.48
-16.16
-18.29
-20.8
-23.56
-26.26
-28.47
-29.76
-29.91
-28.98
-27.23
-25.04
-22.61
-19.88
-16.57
-12.25
-6.61
0.45
8.84
18.32
28.67
39.68
51.05
62.27
72.54
80.85
86.27
88.35
87.37
84.32
80.58
77.37
75.31
74.23
73.31
71.45
67.76
61.8
53.76
44.37
34.71
25.93
19
14.45
12.26
11.94
12.75
13.94
15
15.66
15.88
15.64
14.86
13.49
11.56
9.29
7.02
5.11
3.78
3.02
2.64
2.37
1.97
1.36
0.57
-0.31
-1.09
-1.67
-1.96
-1.97
-1.85
-1.8
-2.05
-2.74
-3.87
-5.24
-6.55
-7.51
-7.94
-7.83
-7.34
-6.79
-6.49
-6.75
-7.71
-9.31
-11.29
-13.27
-14.91
-16.05
-16.79
-17.4
-18.12
-18.93
-19.5
-19.35
-18.06
-15.55
-12.18
-8.54
-5.18
-2.36
0.02
2.25
4.52
6.79
8.81
10.33
11.43
12.66
14.95
19.21
25.89
34.64
44.42
53.82
61.6
66.99
69.79
70.1
68.06
63.79
57.46
49.52
40.69
31.74
23.15
14.88
6.46
-2.63
-12.62
-23.2
-33.65
-43.15
-51.07
-57.18
-61.58
-64.59
-66.59
-67.92
-68.88
-69.77
-70.86
-72.29
-73.95
-75.39
-75.88
-74.57
-70.91
-64.89
-57.17
-48.83
-40.97
-34.26
-28.8
-24.28
-20.22
-16.26
-12.19
-7.89
-3.26
1.69
6.65
10.97
13.83
14.72
13.91
12.53
12.16
14.15
18.82
25.26
31.75
36.5
38.48
37.7
35.04
31.65
28.29
25.06
21.49
16.8
10.43
2.25
-7.35
-17.5
-27.1
-35.03
-40.36
-42.6
-41.74
-38.31
-33.2
-27.49
-22.2
-18.12
-15.66
-14.86
-15.36
-16.56
-17.65
-17.91
-16.8
-14.26
-10.69
-6.96
-4.06
-2.76
-3.32
-5.36
-8.01
-10.34
-11.65
-11.72
-10.76
-9.27
-7.73
-6.49
-5.68
-5.26
-5.14
-5.21
-5.37
-5.63
-6.04
-6.69
-7.69
-9.12
-10.96
-13.06
-15.08
-16.49
-16.7
-15.22
-11.87
-6.81
-0.44
6.75
14.43
22.38
30.35
37.93
44.42
49.03
51.1
50.48
47.58
43.23
38.42
33.95
30.27
27.46
25.38
23.79
22.47
21.26
20.04
18.72
17.25
15.55
13.63
11.46
9.07
6.52
3.95
1.57
-0.35
-1.5
-1.67
-0.8
0.94
3.24
5.75
8.15
10.2
11.7
12.51
12.51
11.69
10.19
8.3
6.37
4.72
3.53
2.76
2.21
1.63
0.82
-0.25
-1.46
-2.61
-3.52
-4.16
-4.64
-5.17
-5.92
-6.95
-8.17
-9.41
-10.45
-11.18
-11.48
-11.29
-10.52
-9.1
-7.03
-4.41
-1.5
1.36
3.84
5.72
6.95
7.61
7.82
7.73
7.41
6.98
6.55
6.28
6.31
6.68
7.32
8.05
8.65
8.98
9
8.77
8.4
7.94
7.42
6.83
6.18
5.46
4.71
3.97
3.22
2.46
1.7
0.98
0.3
-0.32
-0.9
-1.52
-2.23
-3.09
-4.15
-5.43
-6.9
-8.49
-10.04
-11.37
-12.28
-12.59
-12.2
-11.1
-9.37
-7.18
-4.76
-2.38
-0.24
1.48
2.73
3.54
3.98
4.15
4.12
3.97
3.76
3.59
3.58
3.83
4.41
5.28
6.28
7.22
7.92
8.28
8.32
8.1
7.69
7.16
6.56
5.89
5.16
4.38
3.49
2.43
1.21
-0.15
-1.54
-2.81
-3.9
-4.82
-5.68
-6.63
-7.72
-8.88
-9.95
-10.7
-10.94
-10.55
-9.51
-7.92
-5.96
-3.83
-1.73
0.25
2.03
3.59
4.85
5.71
6.02
5.75
5.01
4.07
3.23
2.75
2.69
2.96
3.34
3.67
3.87
3.96
3.98
3.94
3.77
3.37
2.67
1.72
0.62
-0.45
-1.38
-2.14
-2.77
-3.35
-3.94
-4.59
-5.31
-6.11
-7.02
-8.07
-9.27
-10.59
-11.95
-13.25
-14.33
-14.99
-15.03
-14.33
-12.87
-10.81
-8.38
-5.83
-3.35
-1.04
0.99
2.66
3.8
4.27
4.08
3.45
2.72
2.26
2.29
2.77
3.45
4.04
4.36
4.41
4.39
4.49
4.79
5.22
5.56
5.57
5.1
4.17
2.93
1.63
0.5
-0.29
-0.76
-1.06
-1.47
-2.25
-3.56
-5.37
-7.48
-9.58
-11.37
-12.55
-12.86
-12.14
-10.4
-7.87
-5.05
-2.51
-0.59
0.88
2.7
6
11.84
20.68
32.13
45.12
58.34
70.71
81.68
91.44
100.73
110.68
122.52
137.1
154.65
174.74
196.38
218.22
238.56
255.31
265.89
267.6
258.24
237.02
205
164.83
119.63
71.65
21.64
-30.84
-86.08
-142.85
-197.68
-245.3
-279.97
-297.38
-296.09
-278.24
-248.95
-214.86
-182.18
-155.07
-134.98
-121.24
-112.18
-106.43
-103.35
-102.77
-104.14
-106.06
-106.44
-103.38
-96.25
-86.03
-74.88
-65.04
-57.85
-53.06
-49.12
-43.97
-36.09
-25.39
-13.24
-1.93
6.43
10.86
12.05
11.91
12.45
14.47
16.74
16.16
8.86
-8.38
-37.21
-77.39
-126.99
-182.42
-238.33
-287.72
-322.81
-336.82
-326.29
-292.47
-240.97
-179.65
-115.7
-53.62
5.02
60.13
111.21
156.32
192.63
217.81
231.36
234.85
231.03
222.51
210.93
196.91
180.61
162.66
144.48
127.98
114.83
105.79
100.31
96.91
93.8
89.59
83.76
76.59
68.87
61.31
54.3
47.8
41.59
35.46
29.51
24.11
19.78
16.93
15.74
16.05
17.44
19.25
20.8
21.43
20.64
18.18
14.09
8.69
2.57
-3.59
-9.06
-13.34
-16.2
-17.7
-18.15
-17.93
-17.4
-16.86
-16.56
-16.84
-18.14
-20.86
-25.11
-30.49
-36.04
-40.4
-42.28
-40.9
-36.21
-28.99
-20.49
-12.11
-5
0.06
2.8
3.36
2.09
-0.51
-3.95
-7.73
-11.38
-14.46
-16.52
-17.2
-16.29
-13.94
-10.56
-6.88
-3.67
-1.58
-0.97
-1.92
-4.4
-8.35
-13.61
-19.72
-25.78
-30.56
-32.93
-32.4
-29.39
-25.15
-21.18
-18.55
-17.56
-17.71
-18.22
-18.46
-18.3
-17.97
-17.86
-18.19
-18.95
-19.97
-20.99
-21.77
-22.03
-21.6
-20.3
-18.08
-15.03
-11.35
-7.34
-3.35
0.27
3.25
5.42
6.73
7.28
7.21
6.72
6.01
5.27
4.66
4.31
4.28
4.62
5.31
6.23
7.22
8.07
8.64
8.79
8.53
7.87
6.87
5.57
3.95
1.97
-0.4
-3.14
-6.13
-9.13
-11.89
-14.13
-15.72
-16.71
-17.34
-17.94
-18.82
-20.12
-21.8
-23.63
-25.28
-26.4
-26.7
-25.94
-23.99
-20.86
-16.7
-11.85
-6.76
-1.9
2.36
5.85
8.53
10.47
11.75
12.48
12.82
12.98
13.23
13.86
15.03
16.78
18.94
21.24
23.43
25.41
27.22
29.09
31.19
33.49
35.62
36.95
36.77
34.61
30.46
24.73
18.11
11.27
4.78
-1
-5.76
-9.3
-11.6
-12.99
-14.32
-16.75
-21.34
-28.62
-38.19
-48.81
-58.75
-66.33
-70.38
-70.56
-67.23
-61.27
-53.72
-45.56
-37.51
-30.13
-23.77
-18.66
-14.9
-12.34
-10.63
-9.28
-7.78
-5.82
-3.43
-0.84
1.6
3.69
5.5
7.25
9.2
11.46
13.91
16.29
18.32
19.79
20.56
20.55
19.64
17.72
14.79
10.96
6.46
1.62
-3.23
-7.8
-11.85
-15.26
-18.01
-20.22
-22.2
-24.25
-26.62
-29.29
-31.9
-33.9
-34.65
-33.68
-30.82
-26.28
-20.5
-14.07
-7.56
-1.41
4.08
8.75
12.49
15.27
17.08
17.97
18.08
17.6
16.85
16.16
15.89
16.3
17.49
19.33
21.56
23.79
25.71
27.12
27.96
28.25
28.01
27.25
25.94
24.05
21.62
18.79
15.72
12.64
9.73
7.1
4.78
2.73
0.79
-1.21
-3.44
-6.07
-9.18
-12.71
-16.38
-19.71
-22.1
-22.93
-21.83
-18.76
-14.11
-8.51
-2.67
2.83
7.61
11.5
14.44
16.42
17.47
17.62
17.02
15.94
14.75
13.84
13.53
13.97
15.06
16.57
18.12
19.49
20.54
21.32
21.92
22.41
22.71
22.64
22.02
20.7
18.69
16.16
13.35
10.5
7.78
5.28
3
0.91
-1.02
-2.85
-4.72
-6.82
-9.34
-12.36
-15.68
-18.77
-20.87
-21.2
-19.29
-15.19
-9.45
-2.98
3.3
8.7
12.89
15.88
17.83
18.88
19.11
18.62
17.62
16.48
15.68
15.63
16.47
18.01
19.84
21.49
22.7
23.44
23.82
23.97
23.92
23.57
22.8
21.6
20.09
18.41
16.64
14.75
12.61
10.1
7.27
4.3
1.49
-0.92
-2.83
-4.36
-5.76
-7.32
-9.32
-11.9
-15.06
-18.6
-22.07
-24.87
-26.29
-25.79
-23.13
-18.51
-12.53
-5.95
0.45
6.13
10.83
14.47
17.15
18.93
19.93
20.28
20.17
19.86
19.59
19.55
19.81
20.33
21.04
21.82
22.62
23.42
24.19
24.83
25.18
25.02
24.19
22.69
20.69
18.46
16.33
14.49
13.02
11.81
10.67
9.39
7.85
6.03
4.03
1.99
0.02
-1.84
-3.65
-5.56
-7.67
-10.07
-12.78
-15.68
-18.57
-21.06
-22.64
-22.8
-21.16
-17.7
-12.8
-7.11
-1.37
3.86
8.26
11.77
14.43
16.3
17.44
17.91
17.85
17.52
17.24
17.26
17.7
18.55
19.61
20.71
21.67
22.36
22.73
22.76
22.46
21.85
21.01
20.02
18.98
17.92
16.81
15.6
14.24
12.75
11.19
9.61
8.05
6.47
4.86
3.24
1.68
0.32
-0.8
-1.74
-2.65
-3.76
-5.22
-7.05
-9.19
-11.54
-13.99
-16.46
-18.75
-20.5
-21.25
-20.53
-18.14
-14.27
-9.48
-4.53
-0.05
3.59
6.38
8.5
10.18
11.53
12.49
12.98
12.99
12.63
12.15
11.8
11.78
12.13
12.77
13.5
14.08
14.31
14.12
13.57
12.87
12.2
11.69
11.3
10.88
10.24
9.29
8.09
6.81
5.69
4.87
4.34
3.93
3.43
2.68
1.62
0.32
-1.06
-2.39
-3.54
-4.5
-5.31
-6.06
-6.8
-7.58
-8.46
-9.52
-10.91
-12.69
-14.78
-16.83
-18.29
-18.61
-17.43
-14.79
-11.12
-7.08
-3.31
-0.2
2.11
3.75
4.9
5.71
6.25
6.55
6.64
6.57
6.38
6.2
6.11
6.18
6.45
6.88
7.39
7.94
8.5
9.06
9.62
10.07
10.28
10.03
9.2
7.81
6.1
4.34
2.82
1.64
0.76
0.02
-0.74
-1.58
-2.46
-3.28
-4.02
-4.72
-5.48
-6.36
-7.33
-8.26
-9.04
-9.63
-10.18
-10.88
-11.9
-13.22
-14.6
-15.66
-15.97
-15.3
-13.62
-11.18
-8.33
-5.47
-2.89
-0.74
0.94
2.16
2.96
3.35
3.34
2.97
2.36
1.72
1.28
1.2
1.54
2.2
3.04
3.91
4.74
5.53
6.27
6.92
7.41
7.63
7.51
7.03
6.2
5.07
3.74
2.3
0.89
-0.37
-1.43
-2.3
-3.07
-3.8
-4.53
-5.23
-5.84
-6.3
-6.62
-6.84
-7.03
-7.29
-7.75
-8.55
-9.8
-11.47
-13.41
-15.28
-16.68
-17.24
-16.71
-15.04
-12.4
-9.1
-5.55
-2.17
0.69
2.81
4.14
4.79
4.94
4.79
4.45
4.02
3.54
3.08
2.75
2.63
2.76
3.12
3.64
4.22
4.78
5.28
5.71
6.05
6.26
6.27
6.02
5.49
4.69
3.74
2.79
2.04
1.66
1.77
2.31
3.1
3.91
4.53
4.92
5.21
5.64
6.38
7.45
8.65
9.7
10.37
10.62
10.62
10.68
11.11
12.18
13.99
16.56
19.88
23.97
28.91
34.81
41.73
49.61
58.2
66.99
75.3
82.46
88.03
92.02
94.93
97.64
101.05
105.72
111.54
117.71
123.02
126.44
127.67
127.4
127.16
128.5
132.47
138.85
145.85
150.42
148.72
136.86
111.81
72.5
20.96
-37.45
-94.93
-143.45
-177.31
-194.87
-198.63
-193.72
-185.6
-178.33
-173.98
-173.21
-176.04
-182.19
-190.95
-200.68
-208.87
-212.62
-209.72
-199.4
-182.47
-160.89
-136.96
-113.03
-90.83
-71.32
-54.74
-40.63
-28.26
-16.92
-6.2
3.81
12.75
20.12
25.51
28.75
29.99
29.7
28.68
27.92
28.21
29.8
32.09
33.72
33.11
29.27
22.5
14.65
8.54
6.79
10.78
19.83
31.33
41.49
46.49
43.64
32.13
13.28
-9.73
-32.63
-51.09
-61.95
-64.09
-58.92
-49.81
-41.01
-36.01
-36.36
-41.26
-48.22
-54.25
-57.22
-56.42
-52.54
-47.11
-41.76
-37.72
-35.55
-35.14
-35.79
-36.34
-35.48
-31.98
-25.02
-14.49
-1.09
13.72
28.09
40.05
48.01
51.11
49.47
44.08
36.47
28.24
20.66
14.5
10.04
7.28
6
5.84
6.3
6.9
7.26
7.28
7.13
7.14
7.56
8.43
9.52
10.49
11.04
11.09
10.67
9.82
8.42
6.22
2.88
-1.73
-7.42
-13.64
-19.66
-24.83
-28.73
-31.2
-32.22
-31.8
-29.96
-26.75
-22.36
-17.11
-11.43
-5.68
-0.15
4.95
9.44
13.13
15.83
17.52
18.33
18.58
18.64
18.8
19.17
19.67
20.14
20.47
20.59
20.55
20.42
20.26
20.09
19.89
19.59
19.13
18.46
17.58
16.53
15.35
14.03
12.53
10.75
8.61
6.18
3.65
1.3
-0.62
-2.07
-3.24
-4.47
-6.14
-8.46
-11.48
-15.14
-19.23
-23.54
-27.72
-31.25
-33.56
-34.1
-32.6
-29.21
-24.48
-19.18
-14.01
-9.46
-5.66
-2.5
0.13
2.31
4.01
5.16
5.78
6.06
6.29
6.75
7.64
8.92
10.42
11.92
13.24
14.35
15.26
16.09
16.86
17.56
18.06
18.19
17.76
16.67
14.95
12.78
10.45
8.26
6.37
4.76
3.25
1.63
-0.17
-2.04
-3.75
-5.15
-6.24
-7.22
-8.43
-10.14
-12.46
-15.36
-18.68
-22.19
-25.63
-28.63
-30.74
-31.46
-30.43
-27.56
-23.08
-17.46
-11.33
-5.26
0.3
5.1
9.06
12.15
14.39
15.82
16.53
16.64
16.36
15.97
15.7
15.74
16.07
16.61
17.2
17.79
18.41
19.12
19.9
20.58
20.9
20.59
19.54
17.84
15.72
13.44
11.2
9.07
6.99
4.86
2.61
0.24
-2.15
-4.44
-6.49
-8.2
-9.6
-10.81
-12.05
-13.59
-15.61
-18.21
-21.35
-24.81
-28.23
-31.11
-32.93
-33.19
-31.58
-28.13
-23.15
-17.24
-11.09
-5.33
-0.39
3.53
6.49
8.61
10.06
10.98
11.51
11.8
12.06
12.52
13.34
14.51
15.85
17.1
17.98
18.43
18.53
18.5
18.57
18.77
18.92
18.73
17.9
16.33
14.17
11.73
9.34
7.22
5.37
3.66
1.91
0.08
-1.8
-3.63
-5.33
-6.94
-8.55
-10.27
-12.21
-14.45
-17.05
-20.03
-23.35
-26.8
-29.94
-32.22
-33.07
-32.12
-29.33
-25.03
-19.73
-14
-8.34
-3.05
1.7
5.81
9.21
11.84
13.68
14.81
15.42
15.81
16.26
16.99
18.05
19.36
20.7
21.88
22.81
23.55
24.19
24.81
25.33
25.57
25.3
24.35
22.75
20.66
18.36
16.04
13.8
11.64
9.48
7.24
4.88
2.4
-0.13
-2.62
-4.94
-7
-8.77
-10.31
-11.83
-13.61
-15.91
-18.89
-22.48
-26.36
-29.93
-32.49
-33.36
-32.1
-28.69
-23.49
-17.17
-10.52
-4.22
1.25
5.66
9
11.4
13.07
14.26
15.19
16.02
16.81
17.56
18.22
18.74
19.15
19.51
19.88
20.26
20.62
20.9
21.08
21.18
21.21
21.1
20.73
19.92
18.56
16.63
14.3
11.79
9.36
7.16
5.21
3.51
1.95
0.45
-1.07
-2.74
-4.6
-6.6
-8.6
-10.4
-11.88
-13.1
-14.27
-15.78
-17.94
-20.9
-24.5
-28.3
-31.62
-33.73
-33.98
-32.03
-27.89
-22.05
-15.28
-8.52
-2.58
2.06
5.32
7.47
8.96
10.18
11.35
12.46
13.38
13.98
14.31
14.55
14.96
15.73
16.86
18.15
19.3
20.08
20.41
20.37
20.14
19.86
19.53
19.07
18.29
17.04
15.31
13.24
11.08
9.14
7.61
6.55
5.79
5.08
4.13
2.8
1.11
-0.77
-2.67
-4.45
-6.1
-7.71
-9.37
-11.18
-13.19
-15.5
-18.18
-21.26
-24.61
-27.83
-30.32
-31.44
-30.74
-28.15
-23.99
-18.85
-13.34
-7.96
-3
1.44
5.3
8.53
11.09
12.97
14.19
14.87
15.17
15.26
15.31
15.46
15.76
16.18
16.61
16.95
17.15
17.25
17.36
17.54
17.8
18
17.9
17.24
15.89
13.91
11.55
9.17
7.06
5.41
4.17
3.21
2.34
1.44
0.42
-0.79
-2.28
-4.1
-6.21
-8.44
-10.51
-12.14
-13.19
-13.78
-14.22
-14.94
-16.28
-18.3
-20.74
-23.03
-24.52
-24.62
-23.06
-19.93
-15.68
-10.93
-6.26
-2.13
1.26
3.9
5.88
7.28
8.13
8.42
8.21
7.63
6.93
6.4
6.22
6.46
7.04
7.83
8.71
9.66
10.67
11.66
12.48
12.87
12.63
11.71
10.24
8.55
6.96
5.67
4.71
3.91
3.06
1.97
0.58
-1.02
-2.69
-4.25
-5.64
-6.87
-8.02
-9.19
-10.47
-11.94
-13.67
-15.7
-18.01
-20.46
-22.68
-24.18
-24.44
-23.12
-20.22
-16.12
-11.48
-6.96
-3.07
0.01
2.29
3.97
5.22
6.17
6.82
7.17
7.2
7
6.73
6.66
7.04
7.98
9.41
11.07
12.61
13.7
14.2
14.13
13.66
12.91
11.93
10.72
9.21
7.46
5.56
3.65
1.84
0.16
-1.43
-2.97
-4.48
-5.96
-7.38
-8.71
-9.96
-11.19
-12.52
-14.07
-15.96
-18.23
-20.72
-23.09
-24.85
-25.46
-24.62
-22.29
-18.73
-14.4
-9.79
-5.31
-1.21
2.37
5.35
7.67
9.29
10.22
10.55
10.44
10.09
9.7
9.43
9.41
9.69
10.31
11.22
12.33
13.44
14.38
14.95
15.04
14.63
13.81
12.66
11.3
9.75
8.03
6.17
4.25
2.43
0.89
-0.32
-1.25
-2.08
-3
-4.07
-5.27
-6.51
-7.74
-9.05
-10.65
-12.75
-15.43
-18.46
-21.41
-23.69
-24.78
-24.38
-22.47
-19.31
-15.31
-10.93
-6.59
-2.6
0.85
3.61
5.62
6.88
7.49
7.62
7.49
7.36
7.39
7.68
8.24
9.01
9.9
10.82
11.71
12.51
13.15
13.53
13.57
13.2
12.4
11.26
9.89
8.46
7.06
5.75
4.5
3.22
1.85
0.33
-1.31
-2.98
-4.56
-5.9
-6.89
-7.53
-7.92
-8.25
-8.78
-9.76
-11.31
-13.44
-15.97
-18.52
-20.61
-21.75
-21.56
-19.89
-16.92
-13.04
-8.74
-4.47
-0.55
2.85
5.63
7.71
8.99
9.41
9.02
8
6.72
5.56
4.87
4.84
5.44
6.46
7.65
8.77
9.66
10.3
10.67
10.77
10.61
10.17
9.46
8.51
7.37
6.09
4.69
3.21
1.67
0.13
-1.3
-2.55
-3.57
-4.4
-5.09
-5.74
-6.43
-7.22
-8.16
-9.33
-10.81
-12.64
-14.79
-17.04
-19.01
-20.21
-20.23
-18.85
-16.15
-12.46
-8.29
-4.14
-0.43
2.61
4.88
6.39
7.22
7.46
7.26
6.75
6.14
5.61
5.36
5.49
6.04
6.96
8.15
9.46
10.75
11.88
12.73
13.22
13.3
12.98
12.26
11.19
9.81
8.15
6.32
4.44
2.62
0.95
-0.59
-2.05
-3.47
-4.85
-6.09
-7.09
-7.83
-8.43
-9.17
-10.35
-12.2
-14.73
-17.68
-20.56
-22.75
-23.72
-23.14
-21.02
-17.65
-13.54
-9.22
-5.14
-1.55
1.48
3.93
5.8
7.09
7.79
7.96
7.73
7.36
7.11
7.23
7.8
8.78
9.97
11.13
12.06
12.71
13.1
13.34
13.5
13.55
13.38
12.88
11.94
10.58
8.94
7.27
5.77
4.56
3.62
2.77
1.81
0.55
-1.01
-2.74
-4.42
-5.84
-6.95
-7.86
-8.86
-10.28
-12.34
-15.1
-18.38
-21.8
-24.83
-26.88
-27.47
-26.3
-23.38
-19.05
-13.9
-8.57
-3.65
0.48
3.68
5.99
7.52
8.39
8.75
8.8
8.8
9.05
9.76
10.94
12.43
13.87
14.99
15.62
15.83
15.83
15.8
15.83
15.82
15.62
15.06
14.14
12.93
11.6
10.26
8.95
7.65
6.33
4.99
3.68
2.42
1.2
0
-1.23
-2.52
-3.85
-5.19
-6.53
-7.91
-9.41
-11.15
-13.25
-15.74
-18.52
-21.33
-23.73
-25.24
-25.45
-24.12
-21.35
-17.43
-12.88
-8.21
-3.84
-0.04
3.1
5.61
7.6
9.19
10.43
11.3
11.78
11.88
11.71
11.45
11.33
11.47
11.92
12.61
13.38
14.08
14.61
14.92
14.98
14.77
14.28
13.51
12.5
11.3
9.99
8.65
7.32
6.01
4.72
3.47
2.26
1.15
0.16
-0.76
-1.73
-2.83
-4.1
-5.49
-6.88
-8.16
-9.3
-10.39
-11.63
-13.24
-15.36
-17.96
-20.77
-23.33
-25.05
-25.44
-24.21
-21.42
-17.46
-12.88
-8.28
-4.04
-0.39
2.62
5
6.76
7.9
8.48
8.64
8.56
8.48
8.54
8.82
9.24
9.74
10.21
10.59
10.92
11.21
11.46
11.66
11.77
11.72
11.48
11.02
10.3
9.32
8.13
6.83
5.6
4.6
3.92
3.48
3.06
2.37
1.25
-0.28
-2.02
-3.67
-5.05
-6.14
-7.13
-8.25
-9.7
-11.52
-13.67
-16.02
-18.44
-20.78
-22.81
-24.17
-24.5
-23.49
-21.05
-17.35
-12.85
-8.11
-3.69
0.01
2.84
4.84
6.23
7.26
8.13
8.91
9.59
10.09
10.39
10.56
10.74
11.04
11.53
12.14
12.75
13.22
13.44
13.37
13
12.36
11.5
10.48
9.45
8.47
7.63
6.88
6.14
5.31
4.38
3.43
2.59
1.97
1.57
1.26
0.85
0.16
-0.84
-2.1
-3.46
-4.79
-6.02
-7.19
-8.39
-9.8
-11.58
-13.89
-16.79
-20.16
-23.64
-26.7
-28.71
-29.14
-27.76
-24.66
-20.26
-15.21
-10.14
-5.58
-1.86
0.96
2.98
4.41
5.48
6.28
6.86
7.19
7.25
7.15
7.08
7.23
7.69
8.43
9.28
10.08
10.74
11.25
11.69
12.09
12.38
12.41
12.07
11.32
10.28
9.14
8.06
7.12
6.29
5.47
4.6
3.65
2.64
1.64
0.68
-0.24
-1.17
-2.15
-3.17
-4.22
-5.29
-6.42
-7.7
-9.28
-11.25
-13.63
-16.27
-18.96
-21.44
-23.44
-24.72
-25.03
-24.13
-21.87
-18.29
-13.75
-8.83
-4.23
-0.47
2.19
3.82
4.71
5.17
5.44
5.64
5.8
5.99
6.3
6.8
7.54
8.49
9.52
10.49
11.27
11.82
12.13
12.23
12.12
11.75
11.1
10.16
8.99
7.75
6.65
5.84
5.38
5.16
4.98
4.59
3.78
2.5
0.82
-1.04
-2.84
-4.4
-5.65
-6.64
-7.53
-8.54
-9.85
-11.53
-13.58
-15.9
-18.29
-20.48
-22.12
-22.8
-22.17
-20.06
-16.59
-12.18
-7.48
-3.11
0.47
3.13
5.02
6.36
7.35
8.03
8.36
8.31
7.97
7.55
7.31
7.38
7.77
8.38
9.1
9.86
10.68
11.57
12.43
13.1
13.38
13.13
12.37
11.22
9.84
8.41
7.03
5.75
4.54
3.34
2.1
0.8
-0.59
-2
-3.38
-4.63
-5.69
-6.5
-7.04
-7.34
-7.53
-7.83
-8.52
-9.85
-11.93
-14.58
-17.36
-19.68
-20.91
-20.66
-18.82
-15.63
-11.52
-7.05
-2.71
1.08
4.13
6.37
7.89
8.84
9.35
9.51
9.32
8.82
8.1
7.37
6.93
6.98
7.6
8.61
9.71
10.58
11.03
11.05
10.8
10.46
10.1
9.65
8.94
7.83
6.3
4.53
2.84
1.5
0.66
0.23
-0.05
-0.47
-1.18
-2.11
-3.09
-3.91
-4.5
-4.94
-5.44
-6.21
-7.39
-8.94
-10.81
-12.89
-15.13
-17.47
-19.74
-21.67
-22.9
-23.06
-21.96
-19.66
-16.41
-12.62
-8.68
-4.91
-1.51
1.4
3.69
5.31
6.25
6.59
6.5
6.19
5.83
5.49
5.2
4.99
4.93
5.12
5.67
6.52
7.5
8.34
8.76
8.66
8.11
7.28
6.39
5.53
4.7
3.83
2.85
1.8
0.75
-0.19
-0.95
-1.51
-1.96
-2.37
-2.84
-3.4
-4.04
-4.78
-5.66
-6.75
-8.17
-9.93
-11.89
-13.71
-14.95
-15.18
-14.21
-12.16
-9.37
-6.29
-3.28
-0.56
1.81
3.82
5.42
6.46
6.79
6.34
5.24
3.79
2.38
1.4
1.04
1.37
2.28
3.56
4.99
6.35
7.43
8.11
8.32
8.07
7.43
6.48
5.31
3.98
2.55
1.09
-0.31
-1.56
-2.65
-3.65
-4.69
-5.85
-7.17
-8.58
-10
-11.36
-12.67
-13.98
-15.31
-16.56
-17.52
-17.87
-17.28
-15.56
-12.72
-9.05
-5.03
-1.2
2.02
4.49
6.27
7.57
8.57
9.26
9.56
9.37
8.77
7.99
7.36
7.1
7.26
7.71
8.22
8.68
9.03
9.38
9.79
10.21
10.49
10.41
9.82
8.69
7.17
5.45
3.74
2.15
0.64
-0.94
-2.66
-4.53
-6.42
-8.15
-9.58
-10.71
-11.65
-12.64
-13.93
-15.69
-17.91
-20.38
-22.66
-24.2
-24.52
-23.34
-20.67
-16.84
-12.33
-7.66
-3.28
0.53
3.61
5.91
7.48
8.43
8.91
9.13
9.27
9.52
9.98
10.65
11.44
12.17
12.7
12.96
13
12.93
12.84
12.76
12.58
12.18
11.48
10.51
9.38
8.18
6.97
5.73
4.41
3.01
1.56
0.12
-1.28
-2.68
-4.12
-5.68
-7.37
-9.18
-11.12
-13.2
-15.49
-17.99
-20.55
-22.83
-24.38
-24.72
-23.57
-20.89
-16.97
-12.29
-7.43
-2.87
1.04
4.17
6.54
8.32
9.68
10.79
11.73
12.52
13.19
13.79
14.41
15.15
16.04
17.01
17.88
18.51
18.8
18.81
18.63
18.34
17.88
17.1
15.89
14.23
12.27
10.27
8.47
6.95
5.63
4.26
2.63
0.7
-1.44
-3.51
-5.25
-6.55
-7.5
-8.37
-9.57
-11.42
-14.03
-17.21
-20.44
-23.06
-24.42
-24.16
-22.3
-19.24
-15.53
-11.69
-7.98
-4.41
-0.84
2.84
6.6
10.31
13.76
16.74
19.06
20.47
20.76
19.78
17.67
14.86
12.04
9.91
8.93
9.15
10.25
11.72
13.05
13.87
13.95
13.21
11.65
9.4
6.66
3.76
1.05
-1.15
-2.68
-3.57
-3.99
-4.23
-4.59
-5.25
-6.2
-7.25
-8.03
-8.24
-7.79
-7
-6.54
-7.18
-9.44
-13.24
-17.82
-21.99
-24.56
-24.79
-22.66
-18.8
-14.13
-9.49
-5.36
-1.84
1.17
3.77
5.92
7.45
8.22
8.21
7.63
6.88
6.42
6.59
7.52
9.05
10.84
12.49
13.73
14.45
14.73
14.72
14.57
14.33
14.01
13.57
13.01
12.29
11.42
10.35
9.07
7.52
5.72
3.63
1.28
-1.31
-4.02
-6.63
-8.86
-10.48
-11.37
-11.59
-11.35
-10.93
-10.65
-10.72
-11.25
-12.15
-13.16
-13.92
-14.08
-13.41
-11.85
-9.54
-6.75
-3.76
-0.85
1.76
3.88
5.34
6.06
6.09
5.63
5.01
4.59
4.68
5.42
6.82
8.67
10.65
12.44
13.7
14.28
14.12
13.33
12.06
10.47
8.74
7.04
5.54
4.38
3.63
3.25
3.08
2.89
2.44
1.57
0.18
-1.71
-3.99
-6.46
-8.85
-10.87
-12.27
-12.96
-13.03
-12.69
-12.14
-11.53
-10.83
-9.92
-8.64
-6.92
-4.79
-2.39
0.07
2.33
4.16
5.36
5.82
5.6
4.9
3.99
3.22
2.81
2.91
3.52
4.53
5.78
7.04
8.14
8.9
9.24
9.16
8.76
8.21
7.69
7.35
7.2
7.12
6.86
6.18
4.91
3.13
1.06
-0.96
-2.64
-3.86
-4.68
-5.28
-5.82
-6.45
-7.24
-8.28
-9.68
-11.51
-13.73
-16.11
-18.21
-19.52
-19.63
-18.33
-15.68
-11.97
-7.57
-2.92
1.6
5.62
8.88
11.19
12.5
12.92
12.6
11.75
10.53
9.06
7.5
6.05
4.95
4.42
4.56
5.27
6.29
7.28
7.92
8.06
7.71
6.99
6.06
5
3.87
2.64
1.29
-0.19
-1.74
-3.29
-4.74
-6.03
-7.15
-8.17
-9.19
-10.34
-11.71
-13.36
-15.24
-17.3
-19.39
-21.26
-22.58
-22.94
-22.03
-19.76
-16.31
-12.15
-7.86
-3.92
-0.61
2.05
4.21
5.99
7.41
8.39
8.8
8.63
8.07
7.43
7.1
7.33
8.14
9.33
10.55
11.47
11.96
12.1
12.15
12.41
13.11
14.27
15.74
17.15
18.11
18.24
17.41
15.79
13.9
12.46
12.14
13.26
15.52
18.09
19.95
20.39
19.37
17.63
16.39
16.88
19.85
25.25
32.03
38.24
41.4
39.04
29.79
14.32
-4.16
-20.57
-29.82
-29.22
-20.19
-8.31
-1.35
-6.41
-27.3
-63.55
-110.93
-162.81
-211.81
-251.06
-275.27
-281.57
-270.24
-244.71
-210.76
-174.87
-142.44
-116.48
-97.36
-83.55
-72.8
-63.14
-53.5
-43.58
-33.39
-22.73
-10.87
3.39
21.13
42.59
66.67
91.11
113.35
131.55
145.17
154.65
160.74
163.68
162.94
157.73
147.52
132.46
113.44
91.94
69.94
49.73
33.33
21.8
14.59
9.49
3.61
-5.13
-16.72
-28.9
-38.34
-42.54
-41.15
-36.18
-30.65
-26.88
-25.29
-24.44
-22.13
-16.7
-7.77
4.04
17.72
32.58
48.47
65.51
83.47
101.33
117.45
130.14
138.44
142.53
143.7
143.64
143.56
143.68
143.15
140.6
134.84
125.65
114.02
102.14
92.78
88.34
89.94
96.72
106.04
114.15
117.37
113.1
100.29
79.33
51.65
19.33
-15.02
-48.34
-77.35
-99.15
-111.94
-115.72
-112.28
-104.63
-96.02
-89.03
-85.01
-84.11
-85.6
-88.41
-91.53
-94.25
-96.26
-97.41
-97.49
-96.12
-92.68
-86.62
-77.71
-66.36
-53.65
-41
-29.72
-20.56
-13.49
-7.86
-2.78
2.45
8.05
13.87
19.51
24.56
28.76
31.97
34.16
35.42
36.01
36.3
36.72
37.48
38.37
38.7
37.43
33.44
25.88
14.44
-0.51
-17.9
-36.14
-53.39
-67.88
-78.27
-83.9
-84.88
-82.07
-76.75
-70.31
-63.84
-57.94
-52.69
-47.84
-42.98
-37.75
-31.92
-25.37
-18.17
-10.46
-2.59
5.01
11.78
17.27
21.19
23.49
24.32
23.96
22.73
20.89
18.63
16.06
13.15
9.84
6.17
2.32
-1.29
-4.24
-6.3
-7.61
-8.62
-9.87
-11.67
-13.94
-16.32
-18.44
-20.2
-21.82
-23.68
-26.04
-28.82
-31.63
-33.91
-35.23
-35.42
-34.61
-33.08
-31.14
-29.01
-26.87
-24.92
-23.39
-22.59
-22.76
-24
-26.18
-29.04
-32.24
-35.44
-38.36
-40.71
-42.22
-42.72
-42.35
-41.5
-40.75
-40.5
-40.73
-40.95
-40.47
-38.93
-36.58
-34.26
-32.92
-33
-34.07
-34.88
-33.72
-28.89
-19.07
-3.47
17.98
44.52
74.48
105.25
133.73
157.02
173.08
181.27
182.35
178.02
170.22
160.51
149.55
137.15
122.52
104.79
83.61
59.54
34.08
9.28
-12.74
-30.51
-43.42
-51.78
-56.51
-58.67
-59.13
-58.4
-56.72
-54.29
-51.4
-48.44
-45.85
-43.89
-42.5
-41.43
-40.37
-39.22
-38.1
-37.26
-36.77
-36.27
-34.99
-31.94
-26.43
-18.4
-8.65
1.44
10.45
17.38
22.05
25
27.07
28.89
30.57
31.7
31.72
30.29
27.55
24.04
20.42
17.16
14.49
12.41
10.91
10.05
10
10.86
12.6
14.98
17.63
20.18
22.33
23.84
24.61
24.54
23.67
22.15
20.3
18.56
17.36
16.98
17.42
18.41
19.56
20.4
20.68
20.29
19.34
17.97
16.38
14.73
13.19
11.88
10.84
9.97
9.06
7.95
6.67
5.56
5.13
5.79
7.58
10.06
12.48
14.15
14.86
14.95
15.17
16.16
18.27
21.31
24.83
28.33
31.53
34.36
36.87
39.03
40.7
41.61
41.4
39.8
36.67
32.1
26.36
19.87
13.03
6.1
-0.78
-7.54
-14.03
-19.95
-24.92
-28.65
-31.1
-32.42
-32.88
-32.65
-31.72
-30
-27.47
-24.33
-20.98
-17.85
-15.32
-13.59
-12.75
-12.83
-13.92
-16.12
-19.56
-24.36
-30.54
-37.98
-46.23
-54.43
-61.35
-65.61
-66.09
-62.29
-54.5
-43.75
-31.59
-19.62
-9.2
-1.07
4.64
8.4
10.91
12.71
13.82
13.53
10.67
4.19
-6.11
-19.09
-32.48
-43.71
-50.96
-54.04
-54.44
-54.61
-56.93
-62.88
-72.64
-85.32
-99
-110.73
-116.6
-112.3
-94.59
-62.99
-20.91
24.89
66.44
97.39
115.15
121.03
118.69
111.82
102.51
91.09
77.23
61.22
44.61
29.7
18.49
11.63
8.28
6.62
4.92
2.38
-0.7
-3.27
-4.38
-3.79
-2.14
-0.61
-0.28
-1.5
-3.77
-6.06
-7.36
-7.21
-5.95
-4.39
-3.39
-3.43
-4.4
-5.75
-6.84
-7.25
-6.98
-6.31
-5.64
-5.23
-5.17
-5.37
-5.71
-6.05
-6.27
-6.3
-6.11
-5.74
-5.31
-5.02
-4.99
-5.18
-5.39
-5.26
-4.48
-2.88
-0.52
2.33
5.28
8
10.24
11.85
12.81
13.14
12.94
12.32
11.42
10.38
9.37
8.52
7.94
7.7
7.77
8.1
8.57
9.1
9.61
10.06
10.39
10.52
10.33
9.67
8.5
6.85
4.87
2.78
0.74
-1.17
-2.93
-4.64
-6.35
-8.02
-9.54
-10.75
-11.55
-11.98
-12.25
-12.7
-13.64
-15.26
-17.47
-19.96
-22.25
-23.78
-24.08
-22.83
-19.98
-15.73
-10.54
-5.03
0.17
4.61
8.11
10.71
12.65
14.11
15.21
15.97
16.45
16.77
17.21
17.96
19.05
20.18
20.84
20.47
18.66
15.26
10.39
4.3
-2.65
-10.02
-17.26
-23.81
-29.12
-32.89
-35.1
-36.03
-36.02
-35.38
-34.24
-32.57
-30.37
-27.73
-24.86
-22.03
-19.38
-16.95
-14.66
-12.46
-10.45
-8.89
-8.04
-8.02
-8.58
-9.24
-9.33
-8.37
-6.22
-3.12
0.48
4.06
7.29
10.02
12.27
14.15
15.68
16.84
17.57
17.79
17.5
16.77
15.81
14.89
14.26
14.07
14.27
14.69
15.06
15.22
15.12
14.91
14.77
14.83
15.05
15.26
15.28
14.98
14.41
13.68
12.94
12.25
11.61
10.98
10.33
9.74
9.27
9.04
9.06
9.3
9.7
10.18
10.71
11.21
11.59
11.63
11.14
10.02
8.4
6.71
5.55
5.49
6.83
9.44
12.79
16.13
18.77
20.29
20.59
19.78
18.07
15.67
12.75
9.47
5.98
2.38
-1.44
-5.67
-10.61
-16.39
-22.9
-29.74
-36.37
-42.22
-46.92
-50.36
-52.69
-54.27
-55.39
-56.01
-55.68
-53.68
-49.36
-42.62
-34.03
-24.66
-15.71
-7.97
-1.72
3.19
6.97
9.68
11.18
11.39
10.51
9.05
7.68
6.91
6.81
7.08
7.22
6.8
5.72
4.25
2.9
2.21
2.52
3.84
5.87
8.19
10.4
12.25
13.71
14.84
15.71
16.37
16.76
16.82
16.47
15.75
14.84
14.01
13.62
13.95
15.14
17.08
19.46
21.83
23.73
24.82
24.9
24.01
22.36
20.26
18.01
15.84
13.87
12.12
10.52
9.02
7.6
6.24
4.98
3.82
2.81
1.98
1.33
0.84
0.4
-0.18
-1.17
-2.76
-5
-7.77
-10.75
-13.55
-15.8
-17.23
-17.73
-17.28
-15.96
-13.86
-11.09
-7.77
-4.14
-0.63
2.08
3.1
1.5
-3.35
-11.47
-22.07
-33.64
-44.4
-52.78
-57.87
-59.58
-58.53
-55.71
-52.18
-48.75
-45.81
-43.24
-40.38
-36.12
-29.15
-18.46
-3.8
14
33.03
50.83
64.98
73.85
76.89
74.7
68.6
60.22
51.04
42.15
34.19
27.39
21.68
16.8
12.39
8.1
3.74
-0.7
-4.97
-8.62
-11.16
-12.2
-11.65
-9.78
-7.18
-4.57
-2.58
-1.5
-1.26
-1.53
-1.92
-2.2
-2.36
-2.5
-2.73
-3.04
-3.31
-3.39
-3.21
-2.81
-2.3
-1.79
-1.3
-0.76
-0.09
0.73
1.6
2.35
2.78
2.8
2.46
1.91
1.37
0.93
0.59
0.24
-0.31
-1.11
-2.11
-3.16
-4.06
-4.7
-5.08
-5.33
-5.62
-6.12
-6.93
-8.07
-9.47
-10.96
-12.32
-13.32
-13.75
-13.46
-12.4
-10.63
-8.26
-5.5
-2.61
0.17
2.59
4.48
5.79
6.54
6.83
6.77
6.44
5.91
5.24
4.52
3.89
3.52
3.51
3.88
4.51
5.16
5.58
5.55
5.02
4.05
2.78
1.38
0.02
-1.22
-2.32
-3.29
-4.2
-5.13
-6.12
-7.16
-8.18
-9.1
-9.92
-10.73
-11.74
-13.18
-15.21
-17.77
-20.62
-23.42
-25.86
-27.89
-29.79
-32.06
-35.22
-39.58
-44.98
-50.82
-56.21
-60.3
-62.68
-63.54
-63.71
-64.3
-66.3
-70.18
-75.74
-82.3
-89.01
-95.32
-101.07
-106.56
-112.29
-118.75
-126.29
-134.91
-144.04
-152.25
-157.19
-156.1
-146.8
-128.72
-103.47
-74.46
-45.75
-20.51
0.01
16.64
31.49
46.65
63.08
80.32
96.8
110.7
120.71
126.35
127.79
125.58
120.35
112.84
103.98
94.95
87.18
82
80.24
81.85
85.74
89.96
92.34
91.15
85.78
77.06
66.95
57.8
51.41
48.42
48.19
49.3
50.28
50.24
49.02
47.03
44.85
43.12
42.37
42.95
45.02
48.49
53
58.12
63.45
68.71
73.68
78.14
81.89
84.82
87.07
89.03
91.24
94.2
98.07
102.66
107.48
111.98
115.69
118.3
119.57
119.21
116.83
112.08
104.9
95.65
85.14
74.35
64
54.28
44.79
34.81
23.67
11.11
-2.7
-17.37
-32.49
-47.76
-62.77
-76.84
-88.82
-97.38
-101.53
-101.12
-97.17
-91.52
-86.24
-82.82
-81.63
-81.92
-82.28
-81.38
-78.52
-73.88
-68.27
-62.71
-58.1
-55.14
-54.42
-56.43
-61.37
-68.69
-76.87
-83.65
-86.96
-85.93
-81.34
-75.17
-69.38
-64.69
-60.3
-54.62
-46.63
-36.85
-27.3
-20.32
-17.09
-16.72
-16.6
-13.86
-6.95
3.43
14.76
23.92
28.77
28.89
25.51
20.56
15.61
11.14
6.69
1.46
-4.91
-11.82
-17.94
-21.75
-22.4
-20.14
-16.25
-12.47
-10.19
-9.9
-10.97
-12.23
-12.57
-11.6
-9.73
-7.74
-6.2
-5.17
-4.3
-3.33
-2.51
-2.55
-4.19
-7.55
-11.88
-15.71
-17.5
-16.22
-11.73
-4.59
4.31
14.18
24.44
34.6
44.06
52.06
57.78
60.61
60.28
57.03
51.42
44.27
36.46
28.79
21.7
15.25
8.99
2.25
-5.58
-14.55
-24.03
-32.76
-39.39
-42.92
-43.09
-40.4
-35.79
-30.24
-24.53
-19.13
-14.29
-10.2
-7.05
-5.01
-4.08
-4.08
-4.61
-5.16
-5.29
-4.73
-3.46
-1.71
0.23
2.07
3.7
5.15
6.54
7.91
9.16
10.07
10.37
9.91
8.72
6.98
4.99
3
1.2
-0.34
-1.62
-2.68
-3.58
-4.39
-5.23
-6.19
-7.42
-9.08
-11.24
-13.91
-16.9
-19.85
-22.33
-23.85
-24.08
-22.86
-20.27
-16.58
-12.18
-7.5
-2.95
1.16
4.57
7.15
8.83
9.69
9.85
9.52
8.9
8.24
7.74
7.61
7.99
8.96
10.49
12.42
14.5
16.44
17.99
19.01
19.44
19.34
18.84
18.08
17.16
16.13
14.96
13.55
11.78
9.59
7.01
4.2
1.41
-1.12
-3.23
-4.9
-6.25
-7.52
-8.96
-10.81
-13.22
-16.22
-19.64
-23.06
-25.9
-27.52
-27.41
-25.35
-21.56
-16.54
-11
-5.52
-0.5
3.91
7.65
10.71
13
14.45
15.05
14.96
14.44
13.8
13.33
13.24
13.6
14.46
15.77
17.44
19.28
21.06
22.5
23.34
23.41
22.67
21.19
19.15
16.78
14.33
11.94
9.66
7.47
5.29
3.08
0.86
-1.31
-3.38
-5.33
-7.18
-8.99
-10.81
-12.72
-14.85
-17.36
-20.32
-23.64
-26.89
-29.4
-30.37
-29.24
-25.84
-20.55
-14.13
-7.46
-1.26
4.04
8.29
11.55
13.86
15.27
15.85
15.74
15.22
14.64
14.35
14.59
15.4
16.67
18.2
19.78
21.23
22.45
23.33
23.84
23.91
23.52
22.7
21.5
19.97
18.22
16.31
14.35
12.37
10.42
8.46
6.45
4.32
2.04
-0.4
-2.96
-5.53
-8.07
-10.56
-13.1
-15.87
-18.99
-22.45
-26
-29.13
-31.21
-31.64
-30.1
-26.59
-21.52
-15.5
-9.22
-3.26
1.99
6.33
9.72
12.2
13.83
14.67
14.87
14.7
14.47
14.54
15.13
16.31
17.94
19.78
21.53
23.02
24.13
24.85
25.23
25.31
25.05
24.41
23.31
21.71
19.65
17.28
14.83
12.55
10.58
8.89
7.3
5.53
3.4
0.91
-1.73
-4.2
-6.28
-7.89
-9.2
-10.5
-12.09
-14.22
-16.98
-20.28
-23.84
-27.18
-29.67
-30.66
-29.7
-26.66
-21.84
-15.89
-9.57
-3.55
1.67
5.88
9.08
11.39
12.98
13.98
14.49
14.58
14.36
14.01
13.82
14.09
15.01
16.53
18.4
20.22
21.68
22.61
23.08
23.22
23.15
22.81
22.05
20.7
18.74
16.31
13.72
11.3
9.31
7.83
6.74
5.81
4.77
3.4
1.59
-0.59
-2.98
-5.29
-7.31
-8.94
-10.26
-11.48
-12.92
-14.87
-17.46
-20.64
-24.11
-27.31
-29.57
-30.21
-28.81
-25.35
-20.24
-14.2
-8.08
-2.55
2
5.47
7.96
9.63
10.61
11.01
10.98
10.71
10.48
10.55
11.09
12.12
13.53
15.12
16.66
18.02
19.14
20.01
20.62
20.91
20.79
20.18
19.05
17.46
15.56
13.5
11.46
9.54
7.83
6.33
4.97
3.68
2.34
0.88
-0.73
-2.47
-4.24
-5.95
-7.52
-8.9
-10.1
-11.23
-12.44
-13.94
-15.89
-18.31
-21.03
-23.63
-25.54
-26.21
-25.27
-22.65
-18.66
-13.86
-8.85
-4.17
-0.15
3.05
5.43
7.03
7.9
8.2
8.14
8.04
8.17
8.68
9.58
10.73
11.92
13.02
13.94
14.69
15.27
15.67
15.87
15.84
15.58
15.06
14.26
13.14
11.73
10.09
8.4
6.88
5.68
4.89
4.4
3.98
3.39
2.44
1.1
-0.54
-2.27
-3.86
-5.21
-6.35
-7.43
-8.67
-10.29
-12.41
-15.01
-17.9
-20.79
-23.27
-24.92
-25.37
-24.4
-21.99
-18.39
-14
-9.37
-5.02
-1.35
1.44
3.27
4.2
4.34
3.85
2.98
2.02
1.33
1.19
1.81
3.13
4.95
6.96
8.84
10.41
11.63
12.53
13.17
13.58
13.68
13.39
12.68
11.61
10.36
9.15
8.17
7.53
7.22
7.1
7
6.71
6.08
5.05
3.66
2.03
0.37
-1.21
-2.61
-3.88
-5.13
-6.5
-8.12
-10.04
-12.23
-14.56
-16.76
-18.47
-19.3
-18.97
-17.36
-14.62
-11.15
-7.41
-3.89
-0.9
1.4
2.98
3.92
4.28
4.16
3.66
2.94
2.23
1.74
1.67
2.08
2.93
4.08
5.31
6.46
7.36
7.92
8.07
7.8
7.14
6.2
5.15
4.13
3.19
2.27
1.22
-0.1
-1.74
-3.6
-5.49
-7.2
-8.63
-9.7
-10.45
-10.9
-11.08
-11.07
-11.03
-11.15
-11.6
-12.37
-13.31
-14.04
-14.21
-13.52
-11.93
-9.62
-6.91
-4.2
-1.77
0.21
1.73
2.85
3.68
4.28
4.66
4.81
4.7
4.39
3.96
3.56
3.3
3.25
3.39
3.66
3.93
4.11
4.1
3.86
3.41
2.81
2.17
1.57
1.05
0.57
0.01
-0.75
-1.79
-3.09
-4.58
-6.11
-7.57
-8.86
-9.94
-10.8
-11.53
-12.27
-13.2
-14.49
-16.14
-17.97
-19.6
-20.58
-20.5
-19.26
-16.97
-13.99
-10.78
-7.72
-5
-2.66
-0.67
1.04
2.47
3.58
4.34
4.75
4.94
5.04
5.25
5.64
6.19
6.77
7.25
7.58
7.79
7.98
8.17
8.33
8.29
7.91
7.15
6.12
5.06
4.21
3.7
3.52
3.47
3.32
2.87
2.04
0.9
-0.4
-1.7
-2.87
-3.88
-4.77
-5.63
-6.57
-7.68
-9
-10.49
-12.02
-13.35
-14.14
-14.09
-13.04
-11.05
-8.43
-5.67
-3.21
-1.39
-0.29
0.24
0.49
0.77
1.3
2.12
3.1
4.04
4.71
5.03
5.11
5.14
5.32
5.7
6.16
6.47
6.44
6.02
5.31
4.5
3.71
2.98
2.26
1.52
0.75
0.01
-0.7
-1.43
-2.27
-3.29
-4.47
-5.72
-6.89
-7.93
-8.84
-9.73
-10.7
-11.83
-13.14
-14.59
-16.09
-17.48
-18.51
-18.85
-18.23
-16.52
-13.92
-10.83
-7.79
-5.21
-3.29
-1.97
-1.04
-0.3
0.3
0.67
0.67
0.26
-0.44
-1.18
-1.68
-1.72
-1.28
-0.49
0.4
1.12
1.47
1.39
0.92
0.19
-0.65
-1.47
-2.25
-3
-3.76
-4.54
-5.3
-5.94
-6.41
-6.72
-6.99
-7.32
-7.76
-8.25
-8.69
-8.98
-9.12
-9.22
-9.42
-9.75
-10.05
-9.97
-9.15
-7.33
-4.51
-0.98
2.79
6.32
9.28
11.58
13.29
14.56
15.53
16.27
16.77
17.07
17.25
17.5
18.06
19.06
20.48
22.1
23.58
24.59
24.96
24.69
23.94
22.86
21.52
19.87
17.84
15.4
12.66
9.86
7.25
4.94
2.88
0.85
-1.36
-3.8
-6.29
-8.55
-10.35
-11.67
-12.71
-13.83
-15.29
-17.18
-19.38
-21.6
-23.48
-24.69
-24.93
-24.02
-21.95
-18.92
-15.31
-11.61
-8.24
-5.41
-3.13
-1.27
0.28
1.54
2.49
3.09
3.36
3.44
3.46
3.59
3.91
4.44
5.17
5.98
6.76
7.4
7.8
7.94
7.83
7.51
6.99
6.31
5.5
4.62
3.71
2.78
1.76
0.54
-0.89
-2.47
-3.99
-5.21
-6.02
-6.45
-6.71
-7.09
-7.84
-9.04
-10.63
-12.43
-14.15
-15.47
-16.11
-15.85
-14.6
-12.43
-9.56
-6.31
-3.03
0.02
2.62
4.68
6.14
7.03
7.42
7.42
7.2
6.93
6.78
6.88
7.26
7.87
8.62
9.39
10.03
10.47
10.62
10.49
10.08
9.45
8.63
7.64
6.5
5.22
3.86
2.53
1.31
0.25
-0.74
-1.79
-3.07
-4.6
-6.25
-7.8
-9.06
-10.02
-10.85
-11.87
-13.33
-15.35
-17.91
-20.83
-23.89
-26.77
-29.1
-30.46
-30.53
-29.19
-26.63
-23.29
-19.73
-16.42
-13.58
-11.19
-9.06
-6.93
-4.67
-2.21
0.41
3.14
5.96
8.88
11.93
15.06
18.17
21.05
23.45
25.18
26.15
26.42
26.14
25.47
24.49
23.19
21.56
19.58
17.33
14.97
12.69
10.64
8.84
7.26
5.75
4.22
2.6
0.88
-0.92
-2.8
-4.78
-6.85
-9
-11.24
-13.61
-16.16
-18.9
-21.62
-23.92
-25.25
-25.13
-23.35
-20.12
-15.95
-11.46
-7.18
-3.38
-0.12
2.64
4.94
6.77
8.11
9
9.54
9.83
10.01
10.12
10.2
10.3
10.49
10.84
11.39
12.09
12.83
13.46
13.86
13.98
13.77
13.24
12.39
11.21
9.78
8.18
6.58
5.11
3.79
2.58
1.34
-0.07
-1.72
-3.56
-5.47
-7.26
-8.79
-10.05
-11.11
-12.22
-13.65
-15.58
-17.93
-20.37
-22.32
-23.19
-22.53
-20.23
-16.6
-12.18
-7.6
-3.37
0.22
3.1
5.33
7.02
8.24
9.02
9.4
9.46
9.32
9.12
9.01
9.06
9.26
9.58
9.99
10.46
10.97
11.52
12.04
12.48
12.73
12.72
12.36
11.63
10.56
9.27
7.9
6.59
5.42
4.3
3.09
1.62
-0.13
-2.05
-3.91
-5.48
-6.67
-7.56
-8.41
-9.49
-11
-13.01
-15.44
-18.04
-20.43
-22.17
-22.8
-22.04
-19.84
-16.44
-12.33
-8.05
-4.1
-0.76
1.88
3.88
5.33
6.31
6.92
7.27
7.51
7.79
8.22
8.81
9.51
10.22
10.89
11.51
12.11
12.73
13.32
13.82
14.08
14.01
13.53
12.66
11.46
10.05
8.55
7.12
5.82
4.69
3.7
2.79
1.85
0.83
-0.35
-1.65
-3.04
-4.43
-5.73
-6.89
-7.91
-8.9
-10.03
-11.48
-13.33
-15.49
-17.66
-19.39
-20.24
-19.93
-18.4
-15.84
-12.58
-9.05
-5.59
-2.45
0.26
2.5
4.28
5.62
6.53
7.05
7.22
7.14
6.95
6.82
6.87
7.18
7.74
8.47
9.27
10.08
10.83
11.47
11.91
12.03
11.78
11.17
10.29
9.29
8.28
7.27
6.19
4.98
3.61
2.19
0.89
-0.13
-0.83
-1.33
-1.87
-2.68
-3.87
-5.36
-6.97
-8.48
-9.78
-10.9
-12.02
-13.32
-14.9
-16.71
-18.5
-19.93
-20.66
-20.43
-19.13
-16.81
-13.69
-10.05
-6.26
-2.69
0.35
2.64
4.12
4.88
5.14
5.13
5.05
4.99
4.95
4.93
4.94
5.07
5.48
6.25
7.41
8.84
10.31
11.58
12.47
12.91
12.94
12.6
11.96
10.99
9.69
8.11
6.39
4.78
3.49
2.61
2.01
1.42
0.52
-0.84
-2.64
-4.65
-6.58
-8.18
-9.38
-10.27
-11.01
-11.8
-12.83
-14.26
-16.17
-18.5
-20.96
-23.03
-24.13
-23.78
-21.8
-18.4
-14.06
-9.37
-4.84
-0.8
2.55
5.12
6.89
7.9
8.29
8.26
8.01
7.69
7.4
7.18
7.07
7.2
7.65
8.45
9.51
10.64
11.65
12.41
12.88
13.09
13.06
12.75
12.12
11.18
9.99
8.66
7.31
5.98
4.67
3.36
2.02
0.68
-0.66
-1.99
-3.33
-4.73
-6.16
-7.56
-8.87
-10.1
-11.33
-12.74
-14.49
-16.64
-19.07
-21.44
-23.31
-24.21
-23.84
-22.1
-19.21
-15.58
-11.69
-7.99
-4.74
-2.05
0.11
1.79
2.99
3.68
3.82
3.47
2.82
2.16
1.78
1.91
2.54
3.48
4.43
5.1
5.33
5.18
4.87
4.58
4.4
4.15
3.49
2.03
-0.47
-3.91
-7.89
-11.83
-15.21
-17.8
-19.77
-21.58
-23.75
-26.6
-30.17
-34.16
-38.15
-41.66
-44.28
-45.73
-45.85
-44.75
-42.89
-41
-39.88
-39.82
-40.26
-39.72
-36.27
-28.33
-15.44
1.49
20.42
39.03
55.48
68.83
79.02
86.39
91.24
93.62
93.42
90.68
85.81
79.64
73.22
67.48
62.93
59.6
57.11
54.98
52.87
50.75
48.75
47.05
45.52
43.78
41.27
37.55
32.59
26.89
21.33
16.81
13.94
12.73
12.63
12.73
12.09
10.09
6.65
2.26
-2.28
-6.16
-8.96
-10.88
-12.76
-15.75
-20.91
-28.69
-38.71
-49.69
-59.9
-67.61
-71.68
-71.74
-68.25
-62.15
-54.6
-46.68
-39.27
-33.11
-28.69
-26.3
-25.83
-26.83
-28.61
-30.45
-31.84
-32.61
-32.9
-32.98
-33.1
-33.36
-33.75
-34.14
-34.47
-34.78
-35.24
-36.19
-37.9
-40.41
-43.22
-45.18
-44.71
-40.31
-31.23
-17.93
-2.02
14.3
29.07
41.2
50.5
57.27
61.63
63.23
61.45
56.02
47.65
37.98
29.15
22.84
19.65
19
19.63
20.33
20.53
20.31
20.12
20.27
20.65
20.75
19.99
18.03
14.92
11.11
7.15
3.48
0.29
-2.31
-4.24
-5.19
-4.76
-2.58
1.41
6.81
12.8
18.42
22.84
25.65
26.87
26.77
25.66
23.74
21.05
17.65
13.68
9.42
5.22
1.36
-1.98
-4.78
-7.08
-8.91
-10.21
-10.95
-11.14
-10.96
-10.68
-10.67
-11.23
-12.52
-14.46
-16.7
-18.75
-20.06
-20.21
-19.04
-16.7
-13.55
-10.07
-6.69
-3.67
-1.17
0.79
2.25
3.22
3.74
3.86
3.65
3.21
2.7
2.25
2.01
2.06
2.4
2.97
3.66
4.35
4.95
5.38
5.58
5.48
5
4.08
2.71
1
-0.84
-2.53
-3.81
-4.6
-4.94
-4.92
-4.53
-3.52
-1.48
1.96
6.77
12.3
17.41
20.79
21.45
19.07
14.09
7.52
0.58
-5.67
-10.42
-13.23
-13.99
-12.92
-10.53
-7.47
-4.45
-1.96
-0.23
0.81
1.39
1.75
2.09
2.51
3.03
3.64
4.33
5.04
5.69
6.19
6.53
6.75
6.98
7.35
7.91
8.6
9.2
9.47
9.21
8.4
7.13
5.64
4.18
2.91
1.87
0.98
0.1
-0.92
-2.15
-3.56
-5.04
-6.48
-7.78
-8.95
-10.05
-11.18
-12.41
-13.75
-15.16
-16.53
-17.68
-18.4
-18.41
-17.55
-15.81
-13.36
-10.54
-7.7
-5.07
-2.72
-0.62
1.24
2.82
3.97
4.56
4.58
4.2
3.69
3.33
3.29
3.62
4.25
5.06
5.93
6.79
7.61
8.34
8.95
9.34
9.39
9.02
8.26
7.25
6.16
5.17
4.35
3.66
2.98
2.19
1.23
0.14
-1.01
-2.18
-3.34
-4.52
-5.69
-6.81
-7.86
-8.84
-9.87
-11.08
-12.62
-14.46
-16.36
-17.92
-18.68
-18.31
-16.7
-14.05
-10.77
-7.31
-4.04
-1.17
1.27
3.33
5.01
6.31
7.17
7.59
7.65
7.54
7.41
7.37
7.45
7.59
7.74
7.92
8.16
8.47
8.79
8.98
8.88
8.44
7.73
6.91
6.17
5.63
5.33
5.19
5.12
5.02
4.82
4.44
3.8
2.85
1.55
0.02
-1.58
-3.02
-4.16
-4.96
-5.56
-6.16
-7
-8.22
-9.82
-11.65
-13.45
-14.88
-15.64
-15.5
-14.36
-12.32
-9.67
-6.79
-4.09
-1.83
-0.13
1.08
1.92
2.56
3.07
3.49
3.81
4.01
4.12
4.21
4.37
4.67
5.1
5.61
6.06
6.35
6.45
6.4
6.31
6.25
6.17
5.99
5.59
4.95
4.17
3.44
2.9
2.63
2.58
2.57
2.42
2.01
1.31
0.39
-0.64
-1.64
-2.54
-3.31
-4
-4.74
-5.67
-6.89
-8.34
-9.87
-11.18
-11.97
-11.99
-11.18
-9.57
-7.37
-4.8
-2.13
0.37
2.48
4.02
4.96
5.35
5.36
5.13
4.77
4.31
3.79
3.29
2.93
2.87
3.18
3.8
4.57
5.29
5.86
6.23
6.46
6.6
6.61
6.36
5.75
4.75
3.45
2.12
0.97
0.17
-0.28
-0.5
-0.68
-0.96
-1.38
-1.95
-2.61
-3.32
-4.02
-4.67
-5.25
-5.76
-6.22
-6.74
-7.42
-8.37
-9.6
-10.98
-12.23
-12.98
-12.94
-11.95
-10.1
-7.69
-5.11
-2.72
-0.72
0.87
2.08
2.98
3.57
3.81
3.67
3.24
2.64
2.09
1.78
1.78
2.09
2.62
3.25
3.91
4.54
5.13
5.68
6.15
6.47
6.53
6.2
5.42
4.24
2.81
1.4
0.22
-0.58
-1.06
-1.38
-1.77
-2.39
-3.26
-4.27
-5.25
-6.03
-6.54
-6.81
-6.97
-7.21
-7.71
-8.53
-9.69
-11.06
-12.42
-13.53
-14.13
-14.02
