8.01
5.64
3.87
2.47
1.07
-0.5
-2.15
-3.56
-4.46
-4.89
-5.28
-6.21
-8.04
-10.69
-13.58
-16.08
-17.89
-19.31
-21.06
-23.7
-27.17
-30.59
-32.62
-32.19
-29.03
-23.81
-17.73
-11.97
-7.16
-3.36
-0.29
2.34
4.63
6.49
7.81
8.51
8.57
8.08
7.2
6.22
5.49
5.41
6.22
7.93
10.27
12.83
15.18
16.96
17.95
18.06
17.36
16.03
14.35
12.65
11.19
10.12
9.32
8.55
7.45
5.77
3.44
0.68
-2.1
-4.52
-6.33
-7.53
-8.21
-8.62
-8.96
-9.55
-10.73
-12.81
-15.98
-20.01
-24.35
-28.08
-30.37
-30.63
-28.69
-24.75
-19.33
-13.11
-6.8
-1.12
3.44
6.62
8.52
9.47
9.84
9.9
9.72
9.33
8.77
8.19
7.88
8.06
8.81
9.96
11.26
12.4
13.24
13.8
14.17
14.44
14.51
14.15
13.12
11.3
8.79
5.93
3.22
1.13
-0.07
-0.44
-0.35
-0.31
-0.74
-1.87
-3.6
-5.63
-7.63
-9.4
-10.88
-12.13
-13.27
-14.43
-15.81
-17.63
-19.99
-22.71
-25.16
-26.49
-25.91
-23.09
-18.26
-12.22
-5.94
-0.25
4.3
7.54
9.62
10.77
11.35
11.61
11.73
11.78
11.65
11.21
10.46
9.56
8.91
8.91
9.78
11.44
13.49
15.39
16.58
16.74
15.81
14.03
11.82
9.52
7.39
5.52
3.89
2.49
1.19
-0.17
-1.78
-3.75
-5.93
-8.03
-9.63
-10.45
-10.48
-10.09
-9.82
-10.26
-11.79
-14.47
-18.04
-21.98
-25.6
-28.12
-28.88
-27.53
-24.2
-19.45
-14.1
-8.85
-4.13
-0.11
3.22
5.9
7.89
9.2
9.91
10.21
10.23
10.1
9.79
9.28
8.67
8.22
8.26
9.05
10.66
12.8
15.03
16.8
17.74
17.71
16.8
15.26
13.43
11.55
9.84
8.38
7.24
6.4
5.68
4.87
3.74
2.22
0.37
-1.57
-3.33
-4.83
-6.11
-7.38
-8.86
-10.62
-12.58
-14.66
-16.86
-19.29
-22.05
-24.98
-27.6
-29.12
-28.78
-26.16
-21.46
-15.42
-9.1
-3.47
0.92
4.02
6.13
7.65
8.82
9.66
10.04
9.91
9.46
9.09
9.24
10.18
11.85
13.82
15.54
16.55
16.72
16.24
15.52
14.97
14.7
14.52
14.02
12.87
11
8.76
6.68
5.21
4.49
4.22
3.93
3.16
1.8
0.06
-1.68
-3.13
-4.19
-4.98
-5.7
-6.53
-7.54
-8.74
-10.14
-11.85
-14.07
-16.92
-20.24
-23.53
-26
-26.85
-25.61
-22.36
-17.75
-12.7
-8.02
-4.06
-0.75
2.32
5.4
8.45
11.12
12.99
13.8
13.63
12.8
11.75
10.81
10.17
9.82
9.74
9.87
10.26
10.94
11.85
12.8
13.59
13.99
13.81
13.05
11.82
10.35
8.91
7.74
6.95
6.47
6.09
5.5
4.45
2.86
0.87
-1.17
-2.88
-3.99
-4.46
-4.58
-4.71
-5.22
-6.24
-7.72
-9.54
-11.67
-14.25
-17.43
-21.18
-25.03
-28.17
-29.68
-28.86
-25.55
-20.24
-13.91
-7.65
-2.37
1.51
4.11
5.82
7.06
8.01
8.52
8.35
7.49
6.34
5.59
5.84
7.15
9.01
10.59
11.29
11.13
10.71
10.74
11.57
12.92
14.01
14.19
13.17
11.26
9.08
7.24
6.05
5.45
5.16
4.8
4.07
2.82
1.01
-1.14
-3.39
-5.46
-7.25
-8.8
-10.17
-11.34
-12.17
-12.55
-12.63
-12.92
-14.06
-16.5
-20.03
-23.82
-26.65
-27.53
-26.07
-22.63
-17.99
-12.97
-8.07
-3.54
0.5
3.82
6.16
7.34
7.5
7.06
6.59
6.58
7.2
8.33
9.63
10.8
11.64
12.14
12.33
12.27
11.97
11.44
10.81
10.3
10.18
10.56
11.33
12.12
12.47
12.02
10.63
8.43
5.8
3.21
1.04
-0.44
-1.21
-1.47
-1.54
-1.69
-2.11
-2.74
-3.42
-4.06
-4.78
-5.88
-7.69
-10.32
-13.64
-17.21
-20.6
-23.51
-25.76
-27.21
-27.7
-26.93
-24.65
-20.82
-15.73
-10.04
-4.66
-0.42
2.23
3.36
3.54
3.56
3.98
4.95
6.16
7.15
7.59
7.48
7.13
6.85
6.89
7.28
7.96
8.83
9.87
11.05
12.3
13.46
14.32
14.66
14.36
13.38
11.87
10.09
8.42
7.15
6.41
6.04
5.7
5.04
3.94
2.54
1.2
0.16
-0.5
-1
-1.72
-2.95
-4.78
-7.01
-9.22
-11.1
-12.52
-13.76
-15.33
-17.73
-21.02
-24.74
-27.92
-29.57
-29.08
-26.48
-22.33
-17.47
-12.58
-8.09
-4.1
-0.62
2.32
4.68
6.42
7.56
8.19
8.42
8.36
8.12
7.89
7.87
8.26
9.11
10.3
11.55
12.53
13
12.91
12.42
11.78
11.2
10.79
10.5
10.24
9.87
9.34
8.57
7.59
6.4
5.12
3.83
2.62
1.47
0.3
-0.96
-2.36
-3.88
-5.42
-6.86
-8.12
-9.23
-10.28
-11.45
-12.91
-14.74
-16.86
-19.02
-20.8
-21.81
-21.71
-20.35
-17.8
-14.27
-10.13
-5.76
-1.61
1.97
4.73
6.63
7.79
8.34
8.37
7.83
6.73
5.21
3.69
2.67
2.62
3.68
5.59
7.85
9.89
11.32
12.05
12.22
12.08
11.87
11.65
11.34
10.76
9.68
8.01
5.84
3.49
1.35
-0.24
-1.16
-1.54
-1.64
-1.76
-2.08
-2.7
-3.58
-4.72
-6.18
-8.03
-10.27
-12.8
-15.47
-18.07
-20.38
-22.27
-23.64
-24.39
-24.41
-23.57
-21.8
-19.12
-15.72
-11.93
-8.12
-4.64
-1.73
0.62
2.51
4.19
5.74
7.05
7.88
8.03
7.51
6.61
5.82
5.58
6.13
7.37
9.04
10.75
12.28
13.53
14.54
15.34
15.86
15.89
15.21
13.72
11.62
9.33
7.43
6.34
6.14
6.5
6.77
6.31
4.76
2.21
-0.83
-3.71
-5.92
-7.29
-8.04
-8.63
-9.59
-11.26
-13.78
-16.99
-20.6
-24.24
-27.54
-30.07
-31.37
-31.01
-28.78
-24.79
-19.55
-13.78
-8.19
-3.3
0.63
3.6
5.71
7.13
8.03
8.53
8.72
8.65
8.49
8.37
8.47
8.88
9.48
10.04
10.31
10.26
10.14
10.38
11.3
12.83
14.45
15.41
15.12
13.49
11.01
8.42
6.44
5.34
4.96
4.81
4.38
3.36
1.73
-0.28
-2.38
-4.39
-6.26
-8.07
-9.88
-11.73
-13.66
-15.79
-18.29
-21.3
-24.75
-28.15
-30.72
-31.55
-29.97
-25.83
-19.7
-12.63
-5.88
-0.41
3.27
5.28
6.16
6.59
7.12
7.99
9.13
10.3
11.2
11.65
11.65
11.41
11.16
11.1
11.3
11.71
12.23
12.76
13.17
13.37
13.24
12.68
11.67
10.35
8.89
7.54
6.38
5.39
4.4
3.27
1.93
0.52
-0.74
-1.75
-2.48
-3.12
-3.94
-5.28
-7.3
-9.96
-13.04
-16.15
-18.97
-21.23
-22.86
-23.8
-23.97
-23.15
-21.16
-17.89
-13.56
-8.66
-3.75
0.69
4.4
7.36
9.67
11.35
12.34
12.61
12.14
11.1
9.81
8.65
7.95
7.89
8.55
9.81
11.46
13.1
14.3
14.78
14.48
13.68
12.78
12.15
11.89
11.84
11.69
11.22
10.35
9.19
7.78
6.09
3.97
1.42
-1.37
-3.98
-5.94
-7.01
-7.3
-7.28
-7.64
-8.99
-11.64
-15.6
-20.42
-25.35
-29.43
-31.74
-31.69
-29.14
-24.47
-18.38
-11.74
-5.3
0.43
5.17
8.77
11.19
12.46
12.78
12.54
12.27
12.39
13.06
14.11
15.21
16.05
16.62
17.11
17.83
18.91
20.24
21.48
22.33
22.64
22.46
21.89
21
19.73
18.06
16.12
14.2
12.69
11.83
11.56
11.5
11.14
10.04
8.07
5.45
2.65
0.07
-2.09
-3.94
-5.78
-7.86
-10.27
-12.92
-15.68
-18.5
-21.42
-24.39
-27.16
-29.19
-29.88
-28.8
-25.93
-21.62
-16.4
-10.79
-5.17
0.11
4.77
8.53
11.19
12.81
13.63
13.95
14.06
14.11
14.23
14.51
15.1
16.07
17.42
19
20.56
21.83
22.65
22.9
22.55
21.61
20.17
18.36
16.45
14.75
13.52
12.86
12.73
12.87
12.93
12.63
11.83
10.64
9.3
8.1
7.14
6.36
5.51
4.35
2.73
0.8
-1.21
-2.93
-4.12
-4.78
-5.18
-5.82
-7.24
-9.8
-13.47
-17.85
-22.22
-25.84
-28.19
-29.04
-28.46
-26.56
-23.44
-19.14
-13.81
-7.81
-1.82
3.45
7.39
9.79
10.85
10.98
10.62
10.11
9.65
9.44
9.61
10.31
11.41
12.62
13.53
13.88
13.79
13.66
13.99
14.99
16.46
17.78
18.34
17.72
16
13.65
11.24
9.23
7.76
6.72
5.85
5.01
4.14
3.38
2.87
2.58
2.38
2.02
1.29
0.16
-1.17
-2.43
-3.42
-4.17
-5.07
-6.57
-9.09
-12.69
-16.96
-21.1
-24.17
-25.42
-24.52
-21.67
-17.42
-12.49
-7.55
-3.17
0.32
2.78
4.25
5.03
5.49
6.05
6.9
7.98
9.01
9.71
9.94
9.85
9.72
9.77
10.04
10.37
10.59
10.67
10.75
11.04
11.63
12.34
12.86
12.86
12.2
10.99
9.51
7.99
6.58
5.31
4.2
3.31
2.74
2.53
2.49
2.25
1.41
-0.21
-2.43
-4.8
-6.83
-8.31
-9.45
-10.68
-12.39
-14.67
-17.28
-19.78
-21.84
-23.28
-24.14
-24.46
-24.1
-22.87
-20.54
-17.07
-12.73
-8.01
-3.46
0.45
3.43
5.41
6.48
6.8
6.53
5.81
4.82
3.83
3.2
3.3
4.36
6.28
8.66
10.91
12.49
13.12
12.81
11.77
10.35
8.9
7.69
6.95
6.75
7.01
7.51
7.93
7.94
7.35
6.13
4.35
2.23
0.04
-1.86
-3.08
-3.4
-2.9
-1.99
-1.28
-1.35
-2.47
-4.46
-6.85
-9.06
-10.78
-12
-13
-14.16
-15.62
-17.39
-19.22
-20.77
-21.75
-21.97
-21.23
-19.47
-16.63
-12.78
-8.17
-3.3
1.2
4.69
6.78
7.51
7.26
6.68
6.35
6.59
7.39
8.52
9.62
10.45
10.89
11
10.85
10.58
10.31
10.17
10.23
10.52
10.95
11.28
11.25
10.67
9.55
8.06
6.53
5.14
3.89
2.58
0.99
-0.87
-2.62
-3.77
-3.93
-3.13
-1.91
-0.98
-0.97
-2.03
-3.81
-5.71
-7.17
-8
-8.39
-8.71
-9.34
-10.48
-12.06
-13.92
-15.84
-17.66
-19.17
-20.22
-20.64
-20.29
-19.05
-16.96
-14.07
-10.64
-6.96
-3.36
-0.15
2.45
4.34
5.53
6.09
6.15
5.83
5.31
4.8
4.57
4.7
5.15
5.63
5.82
5.56
5.05
4.69
4.85
5.61
6.63
7.36
7.32
6.33
4.68
2.84
1.25
0.1
-0.7
-1.3
-1.74
-1.93
-1.75
-1.2
-0.53
-0.1
-0.23
-0.94
-2.03
-3.11
-3.93
-4.49
-4.99
-5.77
-7.07
-8.97
-11.36
-14.06
-16.84
-19.46
-21.55
-22.63
-22.31
-20.34
-16.88
-12.44
-7.78
-3.58
-0.27
2.08
3.67
4.79
5.62
6.13
6.24
5.87
5.2
4.59
4.34
4.54
4.96
5.21
5.06
4.61
4.22
4.26
4.82
5.62
6.15
6.05
5.28
4.14
3.03
2.21
1.63
1.04
0.22
-0.82
-1.89
-2.7
-3.02
-2.85
-2.36
-1.85
-1.61
-1.86
-2.71
-4.14
-6.07
-8.35
-10.86
-13.5
-16.21
-18.86
-21.24
-23.09
-24.13
-24.1
-22.87
-20.4
-16.83
-12.47
-7.81
-3.44
0.08
2.36
3.39
3.41
2.93
2.46
2.32
2.54
3
3.45
3.77
3.95
4.15
4.56
5.36
6.59
8.09
9.56
10.62
10.96
10.59
9.73
8.79
8.06
7.55
7.07
6.3
5.09
3.51
1.84
0.31
-0.9
-1.8
-2.52
-3.19
-3.95
-4.85
-5.94
-7.18
-8.48
-9.75
-10.95
-12.23
-13.87
-16.09
-18.97
-22.29
-25.47
-27.9
-28.99
-28.4
-26.2
-22.67
-18.4
-14.05
-10.18
-7.14
-5.01
-3.61
-2.66
-1.92
-1.2
-0.41
0.49
1.53
2.7
3.95
5.22
6.49
7.8
9.17
10.55
11.84
12.94
13.75
14.23
14.41
14.29
13.86
13.11
12.06
10.76
9.23
7.49
5.55
3.5
1.52
-0.1
-1.12
-1.47
-1.35
-1.08
-1
-1.28
-1.91
-2.83
-4.06
-5.64
-7.64
-9.94
-12.36
-14.68
-16.81
-18.88
-21.14
-23.74
-26.55
-29.08
-30.62
-30.5
-28.38
-24.38
-19.06
-13.2
-7.6
-2.88
0.64
2.89
4.05
4.33
4.05
3.54
3.12
3.04
3.45
4.35
5.62
7.16
8.83
10.6
12.43
14.2
15.73
16.79
17.27
17.19
16.71
16.11
15.59
15.2
14.9
14.51
13.84
12.74
11.22
9.43
7.61
6.06
4.88
3.97
3.09
1.99
0.52
-1.29
-3.34
-5.52
-7.71
-9.82
-11.72
-13.32
-14.73
-16.24
-18.32
-21.31
-25.07
-28.92
-31.78
-32.62
-30.97
-27.04
-21.63
-15.76
-10.17
-5.28
-1.16
2.23
4.94
6.92
8.17
8.73
8.78
8.49
8.09
7.78
7.76
8.24
9.32
10.94
12.88
14.87
16.71
18.38
19.94
21.43
22.76
23.65
23.78
22.96
21.15
18.6
15.75
13.05
10.88
9.42
8.62
8.28
8.09
7.74
7.01
5.87
4.44
2.94
1.5
0.08
-1.54
-3.71
-6.63
-10.24
-14.27
-18.35
-22.23
-25.86
-29.31
-32.55
-35.2
-36.59
-35.99
-32.99
-27.77
-21.13
-14.12
-7.68
-2.27
2.09
5.61
8.4
10.46
11.63
11.9
11.49
10.87
10.5
10.67
11.39
12.52
13.96
15.68
17.75
20.15
22.62
24.73
26.11
26.59
26.32
25.65
24.85
23.93
22.63
20.64
17.83
14.42
10.98
8.13
6.33
5.65
5.7
5.89
5.66
4.78
3.36
1.76
0.21
-1.24
-2.88
-5.04
-7.88
-11.35
-15.19
-19.22
-23.38
-27.66
-31.9
-35.54
-37.74
-37.67
-34.93
-29.81
-23.17
-16.08
-9.37
-3.45
1.65
5.97
9.51
12.13
13.74
14.45
14.59
14.65
15.01
15.87
17.18
18.75
20.35
21.84
23.14
24.23
25.08
25.67
25.97
25.97
25.7
25.17
24.49
23.72
22.91
22.06
21.06
19.81
18.21
16.24
14
11.68
9.51
7.59
5.89
4.26
2.5
0.56
-1.47
-3.43
-5.19
-6.79
-8.47
-10.53
-13.16
-16.4
-20.13
-24.09
-28.04
-31.66
-34.59
-36.33
-36.34
-34.29
-30.11
-24.17
-17.19
-9.97
-3.27
2.41
6.89
10.25
12.64
14.28
15.28
15.64
15.41
14.73
13.93
13.44
13.68
14.8
16.66
18.82
20.78
22.17
22.89
23.11
23.1
23.07
23.05
22.92
22.49
21.59
20.24
18.56
16.74
15
13.45
12.07
10.72
9.25
7.57
5.73
3.87
2.19
0.81
-0.31
-1.38
-2.59
-4.03
-5.69
-7.51
-9.48
-11.75
-14.62
-18.22
-22.44
-26.83
-30.77
-33.65
-35.05
-34.73
-32.6
-28.68
-23.19
-16.63
-9.82
-3.67
1.12
4.38
6.41
7.81
9.05
10.23
11.09
11.27
10.64
9.46
8.37
7.97
8.71
10.54
13.12
15.9
18.35
20.13
21.09
21.27
20.8
19.8
18.41
16.75
14.89
12.97
11.08
9.3
7.73
6.44
5.43
4.69
4.1
3.46
2.62
1.48
0.03
-1.68
-3.65
-5.86
-8.29
-10.83
-13.28
-15.49
-17.4
-19.24
-21.36
-24.01
-27.11
-30.15
-32.37
-33.03
-31.68
-28.3
-23.28
-17.24
-10.91
-4.98
0.05
3.91
6.65
8.5
9.76
10.63
11.2
11.41
11.27
10.86
10.36
10.02
10.03
10.39
10.99
11.7
12.43
13.19
14.09
15.16
16.31
17.22
17.47
16.69
14.83
12.21
9.44
7.19
5.79
5.19
4.97
4.59
3.67
2.14
0.14
-2.03
-4.17
-6.15
-7.95
-9.56
-11
-12.34
-13.78
-15.59
-18.08
-21.38
-25.35
-29.51
-33.07
-35.11
-34.91
-32.18
-27.24
-20.92
-14.32
-8.4
-3.72
-0.3
2.2
4.19
5.96
7.59
9.02
10.19
11.08
11.75
12.23
12.52
12.62
12.66
12.83
13.42
14.58
16.22
18.05
19.65
20.66
20.87
20.29
19.04
17.31
15.27
13.09
10.92
8.87
6.94
5.08
3.27
1.54
-0.01
-1.25
-2.21
-3.01
-3.86
-4.95
-6.26
-7.66
-8.95
-10.15
-11.57
-13.72
-16.99
-21.42
-26.47
-31.17
-34.51
-35.75
-34.66
-31.49
-26.73
-20.97
-14.76
-8.59
-2.96
1.69
5.11
7.27
8.39
8.81
8.88
8.85
8.85
8.99
9.35
10.03
11.05
12.35
13.84
15.36
16.68
17.63
18.06
17.92
17.35
16.62
16.04
15.87
16.07
16.42
16.61
16.34
15.5
14.07
12.12
9.76
7.06
4.17
1.31
-1.25
-3.33
-4.88
-6.04
-7.12
-8.39
-10
-11.91
-13.87
-15.59
-17.01
-18.32
-19.95
-22.31
-25.5
-29.14
-32.36
-34.15
-33.72
-30.88
-26.02
-20.07
-13.99
-8.5
-3.96
-0.3
2.67
5.2
7.39
9.19
10.46
11.06
10.94
10.19
9.04
7.78
6.79
6.4
6.88
8.29
10.56
13.41
16.42
19.13
21.08
21.92
21.49
19.89
17.5
14.82
12.32
10.33
8.93
7.99
7.31
6.74
6.13
5.39
4.29
2.63
0.3
-2.58
-5.61
-8.33
-10.45
-12.02
-13.41
-15.02
-17.11
-19.69
-22.64
-25.84
-29.16
-32.38
-35
-36.22
-35.28
-31.81
-26.12
-19.14
-12.08
-5.93
-1.13
2.44
5.22
7.6
9.64
11.14
11.82
11.58
10.62
9.36
8.3
7.83
8.1
9.06
10.55
12.33
14.24
16.09
17.7
18.9
19.51
19.43
18.7
17.4
15.64
13.56
11.22
8.73
6.18
3.72
1.47
-0.49
-2.12
-3.48
-4.63
-5.62
-6.48
-7.25
-8
-8.87
-10.01
-11.49
-13.32
-15.48
-17.98
-20.84
-24.03
-27.4
-30.61
-33.11
-34.24
-33.41
-30.37
-25.31
-18.87
-11.9
-5.28
0.45
5.11
8.71
11.34
12.93
13.36
12.66
11.15
9.38
7.98
7.35
7.55
8.36
9.56
11.1
13.03
15.27
17.51
19.23
19.94
19.47
18.1
16.4
14.93
13.92
13.23
12.49
11.37
9.76
7.81
5.83
4.1
2.79
1.87
1.17
0.45
-0.45
-1.6
-2.99
-4.58
-6.44
-8.62
-11.2
-14.08
-17.09
-20.03
-22.88
-25.77
-28.84
-31.96
-34.61
-35.9
-35.02
-31.58
-25.9
-18.94
-11.86
-5.57
-0.49
3.42
6.4
8.64
10.19
11
11.12
10.73
10.16
9.71
9.66
10.08
10.98
12.19
13.59
15.06
16.47
17.68
18.54
18.9
18.65
17.82
16.53
15.01
13.46
11.92
10.35
8.61
6.67
4.66
2.84
1.45
0.53
-0.09
-0.82
-2.01
-3.86
-6.23
-8.78
-11.17
-13.24
-15.12
-17.16
-19.71
-22.78
-26.09
-29.06
-31.04
-31.54
-30.3
-27.36
-22.94
-17.47
-11.43
-5.39
0.09
4.55
7.73
9.63
10.44
10.42
9.87
9.05
8.18
7.52
7.24
7.41
8
8.86
9.91
11.07
12.31
13.53
14.59
15.33
15.61
15.35
14.56
13.28
11.57
9.49
7.17
4.83
2.73
0.98
-0.51
-2.04
-3.93
-6.3
-8.89
-11.19
-12.78
-13.6
-14.08
-14.92
-16.78
-19.91
-24.05
-28.5
-32.37
-34.88
-35.54
-34.17
-30.93
-26.17
-20.34
-13.97
-7.58
-1.66
3.41
7.31
9.92
11.23
11.48
11.09
10.63
10.58
11.17
12.33
13.66
14.74
15.3
15.39
15.33
15.51
16.16
17.28
18.56
19.6
19.96
19.39
17.74
15.13
11.93
8.66
5.88
3.86
2.49
1.38
0.07
-1.64
-3.64
-5.61
-7.33
-8.85
-10.44
-12.41
-14.87
-17.69
-20.68
-23.78
-27.11
-30.77
-34.56
-37.94
-40.07
-40.2
-37.91
-33.36
-27.09
-19.91
-12.56
-5.65
0.35
5.19
8.75
11.07
12.37
13
13.33
13.69
14.21
14.88
15.57
16.21
16.83
17.66
18.9
20.61
22.55
24.22
25.05
24.72
23.26
21.09
18.77
16.75
15.24
14.12
13.15
12.16
11.12
10.06
8.92
7.55
5.7
3.21
0.22
-2.89
-5.57
-7.44
-8.51
-9.19
-10.14
-12.07
-15.3
-19.78
-25.02
-30.27
-34.69
-37.41
-37.77
-35.38
-30.32
-23.21
-15.02
-6.94
0.1
5.53
9.34
11.83
13.36
14.18
14.38
14.07
13.54
13.24
13.68
15.1
17.36
19.93
22.2
23.78
24.56
24.77
24.73
24.63
24.48
24.16
23.53
22.49
21.09
19.44
17.65
15.83
14.04
12.26
10.51
8.85
7.42
6.34
5.59
4.95
4.09
2.69
0.68
-1.86
-4.65
-7.57
-10.61
-13.92
-17.64
-21.73
-25.94
-29.81
-32.83
-34.44
-34.09
-31.37
-26.16
-18.78
-10.09
-1.35
6.18
11.72
15.13
16.82
17.4
17.3
16.66
15.54
14.14
12.95
12.56
13.36
15.23
17.63
19.83
21.32
22.1
22.48
22.88
23.45
23.99
24.17
23.64
22.35
20.43
18.12
15.69
13.4
11.44
9.94
8.89
8.06
7.11
5.67
3.59
0.97
-1.84
-4.48
-6.72
-8.54
-10.16
-11.84
-13.8
-16.24
-19.29
-23.01
-27.14
-31.15
-34.12
-35.15
-33.59
-29.41
-23.26
-16.22
-9.43
-3.65
0.87
4.3
7.04
9.42
11.57
13.41
14.77
15.51
15.57
15.05
14.2
13.39
13.02
13.31
14.25
15.55
16.71
17.29
17.17
16.6
16.03
15.84
16.08
16.46
16.54
16.01
14.89
13.42
11.89
10.38
8.79
6.87
4.55
1.96
-0.56
-2.66
-4.21
-5.32
-6.31
-7.49
-9.07
-11.17
-13.78
-16.86
-20.28
-23.91
-27.49
-30.64
-32.81
-33.44
-32.1
-28.67
-23.57
-17.5
-11.35
-5.75
-0.96
3.13
6.72
9.83
12.24
13.59
13.77
13.05
12.02
11.27
11.14
11.55
12.2
12.79
13.25
13.74
14.45
15.39
16.36
17.05
17.22
16.85
16.09
15.16
14.19
13.12
11.84
10.26
8.46
6.73
5.43
4.79
4.74
4.87
4.64
3.65
1.85
-0.46
-2.84
-4.88
-6.44
-7.7
-8.86
-10.14
-11.58
-13.17
-14.94
-17.04
-19.57
-22.54
-25.62
-28.19
-29.56
-29.19
-26.98
-23.17
-18.24
-12.73
-7.02
-1.42
3.8
8.3
11.69
13.59
13.87
12.7
10.61
8.31
6.51
5.68
5.95
7.2
9.01
10.85
12.23
12.79
12.47
11.52
10.43
9.62
9.35
9.46
9.53
9.18
8.2
6.8
5.42
4.51
4.23
4.3
4.19
3.38
1.72
-0.56
-2.91
-4.79
-5.97
-6.63
-7.26
-8.3
-10.02
-12.35
-15.02
-17.72
-20.23
-22.44
-24.25
-25.51
-25.98
-25.36
-23.4
-20.08
-15.6
-10.4
-5.07
-0.25
3.55
6.1
7.46
7.99
8.1
8.13
8.22
8.3
8.34
8.34
8.44
8.77
9.36
10.09
10.73
11.1
11.08
10.73
10.19
9.61
9.06
8.49
7.69
6.46
4.69
2.5
0.26
-1.6
-2.75
-3.2
-3.2
-3.19
-3.53
-4.28
-5.3
-6.33
-7.23
-7.99
-8.79
-9.81
-11.21
-13.06
-15.43
-18.29
-21.5
-24.66
-27.2
-28.48
-27.97
-25.55
-21.49
-16.39
-11.01
-5.99
-1.79
1.31
3.27
4.19
4.29
3.95
3.59
3.56
4.11
5.22
6.73
8.37
9.86
10.94
11.42
11.25
10.49
9.39
8.34
7.76
7.94
8.87
10.15
11.19
11.39
10.42
8.46
6.03
3.78
2.16
1.28
0.86
0.43
-0.4
-1.75
-3.47
-5.33
-7.1
-8.76
-10.3
-11.69
-12.84
-13.64
-14.14
-14.63
-15.57
-17.27
-19.71
-22.42
-24.61
-25.49
-24.62
-22.05
-18.28
-13.92
-9.54
-5.48
-2
0.72
2.61
3.73
4.32
4.82
5.54
6.53
7.5
8.04
7.9
7.27
6.71
6.88
8.15
10.31
12.74
14.64
15.51
15.27
14.25
12.93
11.67
10.52
9.36
7.95
6.21
4.25
2.34
0.77
-0.33
-1.06
-1.69
-2.53
-3.66
-4.89
-5.86
-6.3
-6.32
-6.45
-7.41
-9.68
-13.15
-17.14
-20.73
-23.22
-24.49
-24.93
-25.1
-25.21
-24.97
-23.67
-20.72
-16.04
-10.2
-4.21
1
4.91
7.48
9.02
9.89
10.23
10.06
9.3
8.05
6.62
5.52
5.25
6.02
7.68
9.7
11.42
12.31
12.24
11.53
10.71
10.27
10.33
10.6
10.6
9.94
8.55
6.64
4.56
2.62
0.96
-0.41
-1.57
-2.57
-3.5
-4.45
-5.54
-6.85
-8.4
-10.04
-11.65
-13.13
-14.59
-16.31
-18.45
-20.97
-23.45
-25.23
-25.65
-24.39
-21.56
-17.65
-13.31
-9.04
-5.13
-1.66
1.31
3.72
5.43
6.39
6.68
6.52
6.21
6.04
6.14
6.48
6.9
7.23
7.39
7.46
7.61
8.06
8.83
9.75
10.55
10.93
10.72
9.91
8.58
6.84
4.78
2.59
0.51
-1.12
-2
-2.05
-1.5
-0.8
-0.53
-1.14
-2.74
-5.15
-7.87
-10.32
-12.11
-13.16
-13.76
-14.57
-16.21
-18.98
-22.62
-26.41
-29.4
-30.83
-30.35
-28.02
-24.19
-19.28
-13.74
-8.04
-2.68
1.92
5.49
7.98
9.51
10.25
10.33
9.82
8.87
7.78
6.99
6.81
7.38
8.52
9.87
11.13
12.17
13.05
13.82
14.47
14.82
14.71
14.09
13.09
11.9
10.7
9.58
8.42
7.1
5.46
3.47
1.26
-1.02
-3.18
-5.11
-6.84
-8.53
-10.35
-12.38
-14.63
-16.95
-19.25
-21.53
-23.95
-26.63
-29.54
-32.3
-34.22
-34.55
-32.74
-28.76
-23.1
-16.64
-10.27
-4.7
-0.18
3.38
6.25
8.66
10.67
12.13
12.81
12.63
11.79
10.74
10.08
10.29
11.54
13.55
15.73
17.44
18.3
18.22
17.51
16.56
15.71
15.07
14.55
13.92
13.02
11.84
10.53
9.3
8.25
7.28
6.15
4.59
2.4
-0.39
-3.49
-6.47
-8.89
-10.53
-11.47
-12.09
-12.85
-14.12
-16.08
-18.74
-22.01
-25.67
-29.45
-32.86
-35.24
-35.8
-33.92
-29.45
-22.85
-15.13
-7.58
-1.24
3.31
6.13
7.62
8.33
8.65
8.81
8.92
9.17
9.74
10.73
12.14
13.69
15.13
16.32
17.35
18.39
19.52
20.55
21.12
20.91
19.88
18.27
16.5
14.82
13.26
11.64
9.86
7.93
6.1
4.62
3.53
2.65
1.61
0.09
-2.07
-4.72
-7.53
-10.1
-12.23
-13.96
-15.56
-17.44
-19.88
-22.94
-26.34
-29.55
-31.86
-32.71
-31.71
-28.82
-24.31
-18.67
-12.49
-6.42
-0.96
3.61
7.16
9.72
11.36
12.13
12.11
11.42
10.27
8.99
7.94
7.43
7.6
8.46
9.87
11.67
13.65
15.65
17.51
19.04
20.06
20.39
19.92
18.65
16.72
14.36
11.89
9.58
7.57
5.85
4.32
2.89
1.46
-0.04
-1.73
-3.76
-6.27
-9.21
-12.35
-15.31
-17.84
-20.01
-22.25
-25.08
-28.79
-33.13
-37.24
-40.04
-40.57
-38.51
-34.19
-28.44
-22.19
-16.13
-10.62
-5.67
-1.23
2.72
6.1
8.74
10.6
11.73
12.41
12.95
13.64
14.61
15.87
17.37
19
20.68
22.32
23.92
25.43
26.8
27.9
28.52
28.45
27.54
25.84
23.55
20.97
18.42
16.09
13.99
12.04
10.1
8.01
5.7
3.08
0.13
-3.05
-6.27
-9.29
-12
-14.55
-17.3
-20.66
-24.92
-29.91
-35.1
-39.65
-42.7
-43.61
-42.04
-38.16
-32.41
-25.47
-18.06
-10.83
-4.29
1.23
5.58
8.78
11.03
12.66
13.98
15.19
16.35
17.32
18.01
18.49
18.98
19.85
21.36
23.52
26.06
28.53
30.45
31.52
31.71
31.17
30.13
28.73
26.95
24.72
22.01
18.99
16.04
13.54
11.67
10.31
9.09
7.6
5.64
3.28
0.78
-1.65
-3.97
-6.36
-9.05
-12.24
-15.96
-20.16
-24.73
-29.59
-34.54
-39.16
-42.79
-44.6
-43.85
-40.13
-33.6
-25.04
-15.6
-6.44
1.53
7.9
12.71
16.13
18.38
19.54
19.68
19.02
17.96
17.04
16.79
17.51
19.17
21.46
23.97
26.32
28.24
29.62
30.36
30.44
29.85
28.63
26.95
24.99
22.94
20.95
19.09
17.38
15.81
14.29
12.72
10.95
8.83
6.29
3.37
0.24
-2.8
-5.51
-7.73
-9.55
-11.3
-13.47
-16.5
-20.6
-25.57
-30.84
-35.62
-39.2
-41.01
-40.7
-38.17
-33.45
-26.85
-18.94
-10.52
-2.44
4.6
10.23
14.5
17.61
19.81
21.24
21.95
22.02
21.58
20.88
20.22
19.96
20.34
21.47
23.3
25.53
27.74
29.54
30.61
30.81
30.17
28.72
26.53
23.63
20.15
16.3
12.41
8.9
6.13
4.27
3.18
2.44
1.46
-0.3
-3.04
-6.54
-10.18
-13.3
-15.43
-16.64
-17.45
-18.64
-20.97
-24.79
-30
-35.96
-41.71
-46.21
-48.49
-47.91
-44.22
-37.64
-28.86
-18.87
-8.87
0.04
7.12
12.14
15.35
17.32
18.64
19.6
20.2
20.25
19.58
18.33
16.92
15.91
15.85
16.96
19.17
22.06
25.11
27.78
29.67
30.57
30.47
29.51
27.89
25.78
23.24
20.25
16.85
13.23
9.77
6.86
4.71
3.2
1.93
0.46
-1.51
-3.93
-6.5
-8.88
-10.89
-12.59
-14.22
-16.11
-18.49
-21.49
-25.08
-29.05
-32.99
-36.33
-38.4
-38.6
-36.53
-32.12
-25.61
-17.68
-9.24
-1.35
5.13
9.78
12.7
14.37
15.37
15.99
16.23
15.94
15.09
13.97
13.06
12.81
13.35
14.53
15.99
17.49
18.94
20.39
21.85
23.19
24.12
24.38
23.85
22.56
20.71
18.46
16.01
13.47
11
8.72
6.67
4.73
2.72
0.45
-2.1
-4.74
-7.12
-8.97
-10.25
-11.27
-12.58
-14.77
-18.27
-23.08
-28.76
-34.52
-39.39
-42.5
-43.32
-41.72
-37.94
-32.4
-25.67
-18.33
-11.04
-4.42
1.06
5.19
8.12
10.24
11.97
13.51
14.74
15.34
15.1
14.1
12.67
11.35
10.6
10.65
11.52
13.09
15.15
17.46
19.8
21.86
23.31
23.78
23.02
21.02
18.11
14.84
11.84
9.59
8.22
7.49
6.89
5.91
4.26
1.86
-1.12
-4.39
-7.61
-10.47
-12.76
-14.5
-15.9
-17.41
-19.48
-22.34
-25.97
-29.96
-33.62
-36.19
-37.01
-35.62
-31.93
-26.2
-19.05
-11.37
-4.07
2.03
6.5
9.32
10.82
11.48
11.69
11.67
11.48
11.09
10.6
10.26
10.34
11.1
12.47
14.12
15.54
16.34
16.39
15.84
15.03
14.24
13.63
13.15
12.66
11.99
11.07
9.88
8.52
7.06
5.6
4.14
2.66
1.08
-0.72
-2.81
-5.1
-7.36
-9.31
-10.78
-11.99
-13.38
-15.53
-18.77
-23.06
-27.85
-32.43
-36.01
-38.09
-38.4
-36.97
-33.95
-29.56
-24.13
-18.05
-11.77
-5.75
-0.35
4.19
7.75
10.33
12.02
12.97
13.43
13.68
13.99
14.51
15.29
16.27
17.23
18
18.45
18.6
18.65
18.83
19.27
19.86
20.27
20.13
19.19
17.4
14.99
12.23
9.36
6.56
4.03
1.96
0.59
-0.08
-0.31
-0.61
-1.48
-3.18
-5.56
-8.24
-10.86
-13.28
-15.66
-18.27
-21.29
-24.71
-28.32
-31.82
-34.87
-37.13
-38.2
-37.69
-35.23
-30.73
-24.46
-17.04
-9.37
-2.33
3.36
7.38
9.77
10.95
11.43
11.66
11.87
12.09
12.21
12.18
12.03
11.93
11.97
12.21
12.67
13.27
13.99
14.84
15.83
16.89
17.89
18.6
18.81
18.38
17.3
15.65
13.57
11.19
8.68
6.25
4.1
2.38
1.09
0.06
-1.05
-2.52
-4.45
-6.66
-8.82
-10.63
-11.99
-13.07
-14.18
-15.69
-17.85
-20.81
-24.54
-28.81
-33.12
-36.76
-38.89
-38.84
-36.35
-31.69
-25.53
-18.76
-12.14
-6.14
-0.94
3.5
7.2
10.15
12.22
13.27
13.32
12.57
11.44
10.36
9.67
9.48
9.76
10.44
11.42
12.71
14.2
15.68
16.9
17.63
17.81
17.58
17.14
16.67
16.16
15.54
14.76
13.85
12.9
11.89
10.63
8.82
6.27
3.09
-0.27
-3.21
-5.32
-6.55
-7.25
-7.93
-9.03
-10.74
-13.01
-15.77
-18.95
-22.59
-26.66
-30.88
-34.74
-37.54
-38.7
-37.9
-35.12
-30.56
-24.66
-17.97
-11.2
-5.02
0.02
3.68
6.09
7.65
8.73
9.51
9.93
9.81
9.06
7.86
6.74
6.32
7.09
9.14
12.12
15.34
18.05
19.74
20.32
20.19
19.81
19.55
19.34
18.79
17.46
15.15
12.15
9.07
6.57
4.99
4.14
3.51
2.45
0.58
-2.09
-5.22
-8.33
-11.01
-13.05
-14.43
-15.4
-16.33
-17.69
-19.94
-23.33
-27.82
-32.88
-37.62
-40.98
-42.02
-40.28
-35.82
-29.27
-21.6
-13.84
-6.86
-1.24
2.88
5.72
7.62
9.01
10.12
11.04
11.78
12.34
12.78
13.23
13.81
14.57
15.51
16.57
17.7
18.84
19.86
20.61
21
21.05
20.84
20.49
19.97
19.01
17.3
14.68
11.34
7.81
4.8
2.84
2.05
2.08
2.3
2.15
1.31
-0.21
-2.2
-4.54
-7.19
-10.21
-13.61
-17.23
-20.72
-23.79
-26.39
-28.81
-31.51
-34.75
-38.24
-41.14
-42.3
-40.78
-36.32
-29.48
-21.37
-13.24
-6.01
-0.08
4.66
8.52
11.76
14.44
16.44
17.62
17.98
17.7
17.15
16.61
16.28
16.12
16.03
16
16.19
16.79
17.93
19.43
20.84
21.67
21.63
20.7
19.13
17.2
15.02
12.57
9.83
6.94
4.22
2.02
0.46
-0.58
-1.4
-2.32
-3.5
-4.93
-6.52
-8.23
-10.01
-11.86
-13.65
-15.3
-16.81
-18.48
-20.71
-23.89
-27.95
-32.29
-35.83
-37.42
-36.35
-32.54
-26.64
-19.68
-12.71
-6.42
-1.07
3.43
7.35
10.79
13.56
15.25
15.48
14.2
11.83
9.22
7.27
6.62
7.37
9.14
11.38
13.61
15.6
17.31
18.74
19.75
20.22
19.99
19.04
17.49
15.49
13.21
10.82
8.53
6.5
4.76
3.18
1.48
-0.62
-3.22
-6.18
-9.17
-11.8
-13.9
-15.54
-16.95
-18.51
-20.51
-23.13
-26.28
-29.67
-32.79
-35.02
-35.8
-34.73
-31.81
-27.33
-21.79
-15.74
-9.62
-3.69
1.88
6.96
11.32
14.63
16.57
16.96
15.99
14.23
12.44
11.3
11.2
12.13
13.75
15.66
17.54
19.15
20.46
21.44
22.11
22.42
22.22
21.4
19.91
17.89
15.63
13.5
11.67
10.06
8.29
5.9
2.68
-1.19
-5.15
-8.63
-11.29
-13.18
-14.58
-15.78
-16.94
-18.12
-19.49
-21.4
-24.23
-28.15
-32.81
-37.3
-40.39
-40.97
-38.49
-33.2
-25.97
-18.03
-10.45
-3.83
1.69
6.36
10.45
14.1
17.17
19.32
20.26
19.96
18.73
17.13
15.81
15.28
15.68
16.88
18.52
20.22
21.67
22.75
23.48
23.92
24.04
23.68
22.54
20.52
17.78
14.84
12.33
10.67
9.8
9.22
8.23
6.4
3.79
0.99
-1.38
-2.99
-3.96
-4.79
-6.01
-7.8
-10.06
-12.55
-15.19
-18.25
-22.13
-27.01
-32.55
-37.79
-41.48
-42.45
-40.2
-34.96
-27.7
-19.61
-11.74
-4.74
1.13
5.91
9.68
12.45
14.23
15.14
15.44
15.54
15.75
16.3
17.16
18.18
19.19
20.15
21.08
22.04
22.97
23.73
24.13
24.14
23.88
23.58
23.4
23.28
22.83
21.65
19.54
16.66
13.52
10.61
8.22
6.29
4.57
2.82
0.99
-0.79
-2.35
-3.61
-4.69
-5.8
-7.14
-8.77
-10.67
-12.83
-15.25
-18.08
-21.38
-25.15
-29.14
-32.82
-35.36
-35.85
-33.61
-28.5
-21.14
-12.7
-4.53
2.26
7.2
10.46
12.51
13.84
14.65
14.85
14.31
13.14
11.73
10.66
10.38
10.99
12.29
13.91
15.54
17.13
18.74
20.42
22.09
23.47
24.21
24.06
22.96
21.03
18.56
15.93
13.52
11.63
10.4
9.73
9.26
8.54
7.19
5.11
2.47
-0.36
-3
-5.26
-7.13
-8.75
-10.32
-12.02
-13.94
-16.15
-18.67
-21.53
-24.72
-28.08
-31.23
-33.56
-34.33
-32.9
-29.01
-22.95
-15.56
-7.97
-1.23
4.09
8
10.91
13.36
15.5
17.12
17.78
17.18
15.45
13.14
11.02
9.74
9.59
10.49
12.1
13.99
15.81
17.25
18.09
18.27
17.86
17.05
16.05
14.97
13.75
12.21
10.19
7.71
5.01
2.41
0.15
-1.75
-3.38
-4.92
-6.49
-8
-9.3
-10.25
-10.83
-11.22
-11.73
-12.71
-14.42
-17.01
-20.41
-24.42
-28.6
-32.36
-35
-35.84
-34.46
-30.84
-25.35
-18.65
-11.57
-4.81
1.1
5.93
9.66
12.42
14.35
15.56
16.19
16.34
16.22
15.98
15.74
15.52
15.25
14.91
14.54
14.33
14.53
15.32
16.6
18.03
19.12
19.46
18.85
17.37
15.36
13.17
11.14
9.43
8.04
6.77
5.38
3.67
1.58
-0.72
-2.96
-4.87
-6.37
-7.56
-8.64
-9.82
-11.15
-12.58
-14.04
-15.53
-17.24
-19.38
-22.07
-25.19
-28.36
-30.95
-32.33
-32.01
-29.84
-25.94
-20.75
-14.87
-8.91
-3.34
1.54
5.59
8.82
11.18
12.57
12.91
12.29
11
9.53
8.4
7.97
8.32
9.25
10.43
11.57
12.54
13.39
14.18
14.93
15.53
15.73
15.32
14.19
12.45
10.36
8.35
6.82
5.98
5.7
5.6
5.13
3.88
1.78
-0.91
-3.61
-5.8
-7.12
-7.69
-7.92
-8.32
-9.26
-10.89
-13.14
-15.84
-18.86
-22.05
-25.23
-28.04
-29.95
-30.34
-28.73
-24.93
-19.24
-12.42
-5.47
0.65
5.27
8.19
9.62
10.06
10.01
9.8
9.46
8.92
8.12
7.19
6.43
6.19
6.68
7.95
9.81
11.99
14.16
15.95
17.1
17.44
16.96
15.79
14.17
12.3
10.36
8.42
6.55
4.86
3.43
2.29
1.35
0.38
-0.81
-2.31
-4.08
-5.92
-7.72
-9.43
-11.13
-12.99
-15.13
-17.66
-20.6
-23.86
-27.19
-30.1
-31.91
-31.91
-29.62
-25.07
-18.88
-11.99
-5.42
0.15
4.46
7.64
9.9
11.39
12.02
11.72
10.51
8.68
6.76
5.28
4.56
4.68
5.49
6.73
8.23
9.85
11.49
12.94
13.93
14.17
13.54
12.17
10.45
8.84
7.63
6.71
5.7
4.21
2.12
-0.22
-2.19
-3.34
-3.65
-3.63
-4
-5.16
-7.03
-9.1
-10.87
-12.23
-13.56
-15.44
-18.33
-22.13
-26.25
-29.86
-32.19
-32.79
-31.56
-28.65
-24.39
-19.14
-13.3
-7.33
-1.71
3.13
6.88
9.39
10.76
11.27
11.26
11.04
10.77
10.49
10.22
10.03
10.07
10.52
11.43
12.68
14.02
15.14
15.79
15.88
15.48
14.8
14.11
13.59
13.22
12.71
11.69
9.9
7.45
4.8
2.58
1.25
0.82
0.83
0.6
-0.34
-2.07
-4.25
-6.44
-8.32
-9.81
-11.06
-12.29
-13.72
-15.54
-17.89
-20.78
-24.05
-27.2
-29.52
-30.22
-28.8
-25.26
-20.12
-14.24
-8.51
-3.52
0.48
3.59
6
7.94
9.48
10.58
11.2
11.35
11.19
11
11.04
11.49
12.34
13.39
14.37
15.11
15.63
16.07
16.63
17.36
18.04
18.31
17.81
16.44
14.47
12.37
10.6
9.37
8.57
7.77
6.56
4.74
2.38
-0.15
-2.41
-4.02
-4.81
-4.87
-4.48
-4.07
-4.11
-4.93
-6.68
-9.26
-12.41
-15.88
-19.48
-23.11
-26.54
-29.34
-30.92
-30.69
-28.37
-24.17
-18.74
-12.93
-7.55
-3.13
0.19
2.55
4.18
5.35
6.17
6.7
6.93
6.93
6.84
6.87
7.31
8.25
9.73
11.61
13.71
15.84
17.77
19.26
19.97
19.67
18.36
16.32
14
11.84
10.07
8.68
7.51
6.37
5.21
4.04
2.88
1.77
0.66
-0.47
-1.66
-2.89
-4.14
-5.37
-6.49
-7.4
-7.95
-8.23
-8.43
-8.97
-10.23
-12.47
-15.62
-19.27
-22.82
-25.53
-26.78
-26.12
-23.4
-18.78
-12.82
-6.3
-0.15
4.81
8.09
9.6
9.71
8.94
7.88
6.92
6.22
5.81
5.58
5.55
5.79
6.4
7.4
8.67
10.01
11.22
12.16
12.82
13.29
13.64
13.95
14.17
14.1
13.53
12.31
10.44
8.16
5.85
3.75
2.01
0.55
-0.77
-2.03
-3.19
-4.15
-4.84
-5.31
-5.75
-6.32
-7.11
-8.19
-9.55
-11.22
-13.29
-15.84
-18.85
-22.16
-25.4
-28.1
-29.8
-30.18
-29.21
-27.03
-23.89
-19.97
-15.45
-10.47
-5.39
-0.69
3.16
5.88
7.61
8.71
9.58
10.34
10.85
10.87
10.38
9.66
9.2
9.45
10.57
12.33
14.26
15.9
16.87
17.07
16.62
15.7
14.54
13.29
12.05
10.91
9.95
9.3
8.98
8.89
8.71
8.11
6.84
4.98
2.89
1.07
-0.09
-0.53
-0.51
-0.44
-0.69
-1.5
-2.93
-4.89
-7.25
-9.85
-12.5
-15.1
-17.54
-19.81
-21.94
-23.97
-25.83
-27.35
-28.15
-27.83
-25.99
-22.45
-17.38
-11.33
-5.14
0.31
4.31
6.56
7.21
6.74
5.69
4.61
3.91
3.86
4.54
5.85
7.58
9.36
10.96
12.32
13.58
14.9
16.32
17.58
18.3
18.2
17.31
15.91
14.38
12.97
11.71
10.46
9.14
7.8
6.56
5.46
4.41
3.24
1.8
0.15
-1.49
-2.85
-3.74
-4.17
-4.29
-4.31
-4.46
-4.87
-5.67
-7.01
-8.97
-11.64
-14.98
-18.81
-22.78
-26.38
-28.92
-29.85
-28.75
-25.62
-20.84
-15.09
-9.12
-3.6
0.99
4.46
6.83
8.25
8.87
8.86
8.32
7.36
6.19
5
4.04
3.5
3.49
4.06
5.18
6.76
8.62
10.47
11.99
12.88
13.04
12.5
11.48
10.21
8.94
7.83
6.97
6.4
6.03
5.65
5.01
3.92
2.41
0.7
-0.85
-1.98
-2.67
-3.14
-3.67
-4.54
-5.87
-7.71
-10.04
-12.78
-15.74
-18.65
-21.22
-23.24
-24.62
-25.35
-25.35
-24.52
-22.7
-19.85
-16.16
-11.94
-7.55
-3.25
0.88
4.76
8.22
10.92
12.49
12.78
11.95
10.5
9.01
7.95
7.45
7.37
7.46
7.47
7.36
7.24
7.31
7.79
8.7
9.91
11.12
11.98
12.17
11.43
9.74
7.24
4.36
1.69
-0.25
-1.11
-0.94
-0.07
0.9
1.41
1.08
-0.24
-2.41
-5.08
-7.74
-9.88
-11.22
-11.85
-12.26
-13.2
-15.3
-18.68
-22.85
-26.81
-29.58
-30.43
-29.23
-26.28
-22.13
-17.32
-12.23
-7.11
-2.14
2.48
6.56
9.87
12.25
13.55
13.76
13.02
11.66
10.18
9.08
8.78
9.38
10.73
12.49
14.22
15.61
16.45
16.71
16.45
15.82
15
14.09
13.22
12.35
11.43
10.32
8.94
7.32
5.62
4.11
2.99
2.31
1.84
1.29
0.36
-1.01
-2.72
-4.5
-6.14
-7.59
-8.94
-10.46
-12.44
-15.04
-18.27
-21.84
-25.39
-28.4
-30.36
-30.88
-29.74
-26.96
-22.81
-17.72
-12.23
-6.89
-2.1
1.9
5.17
7.88
10.28
12.44
14.24
15.45
15.94
15.79
15.26
14.68
14.24
13.96
13.77
13.68
13.86
14.57
15.85
17.44
18.8
19.35
18.8
17.27
15.17
12.97
10.94
9.07
7.26
5.53
4.02
2.97
2.5
2.43
2.37
1.94
0.98
-0.34
-1.62
-2.57
-3.18
-3.71
-4.53
-5.9
-7.85
-10.28
-13.11
-16.27
-19.68
-23.03
-25.78
-27.31
-27.28
-25.76
-23.23
-20.25
-17.13
-13.76
-9.85
-5.35
-0.62
3.56
6.45
7.73
7.73
7.2
6.92
7.36
8.52
10.05
11.56
12.84
13.96
15.05
16.24
17.44
18.38
18.8
18.51
17.53
16.1
14.48
12.87
11.33
9.83
8.29
6.71
5.21
3.9
2.82
1.87
0.85
-0.43
-2.01
-3.69
-5.16
-6.13
-6.49
-6.46
-6.46
-7.06
-8.68
-11.45
-15.12
-19.12
-22.67
-25.01
-25.65
-24.44
-21.66
-17.84
-13.67
-9.7
-6.23
-3.3
-0.79
1.48
3.57
5.42
6.89
7.82
8.15
7.9
7.26
6.47
5.83
5.6
5.98
7.04
8.74
10.9
13.22
15.34
16.87
17.59
17.45
16.54
15.12
13.48
11.88
10.47
9.25
8.12
6.86
5.29
3.38
1.24
-0.84
-2.6
-3.9
-4.83
-5.63
-6.69
-8.23
-10.3
-12.71
-15.15
-17.42
-19.5
-21.49
-23.53
-25.61
-27.45
-28.56
-28.38
-26.53
-23.03
-18.3
-13.03
-7.93
-3.48
0.2
3.2
5.69
7.73
9.24
10.15
10.44
10.31
10.02
9.79
9.67
9.55
9.32
9.03
9.04
9.82
11.67
14.45
17.5
19.92
20.94
20.24
18.12
15.29
12.55
10.48
9.25
8.66
8.23
7.51
6.19
4.24
1.87
-0.56
-2.72
-4.43
-5.67
-6.58
-7.34
-8.07
-8.79
-9.52
-10.37
-11.65
-13.75
-16.89
-20.95
-25.32
-29.09
-31.34
-31.57
-29.71
-26.19
-21.61
-16.52
-11.33
-6.3
-1.65
2.44
5.79
8.32
10.04
11.05
11.49
11.53
11.35
11.15
11.08
11.18
11.45
11.92
12.7
13.98
15.84
18.08
20.24
21.68
21.92
20.87
18.83
16.31
13.84
11.7
10.02
8.77
7.94
7.44
7.14
6.83
6.24
5.26
3.9
2.32
0.72
-0.73
-1.97
-2.94
-3.65
-4.16
-4.72
-5.68
-7.5
-10.46
-14.58
-19.43
-24.32
-28.48
-31.28
-32.43
-31.88
-29.72
-26.09
-21.18
-15.33
-9.05
-3.01
2.13
6
8.59
10.15
10.99
11.34
11.34
11.09
10.81
10.82
11.39
12.57
14.09
15.63
16.92
17.96
18.86
19.64
20.14
20.05
19.16
17.53
15.55
13.73
12.41
11.57
10.92
10.06
8.7
6.84
4.73
2.73
1.13
0.02
-0.73
-1.44
-2.45
-3.92
-5.75
-7.64
-9.23
-10.34
-11.07
-11.71
-12.71
-14.35
-16.71
-19.51
-22.31
-24.55
-25.69
-25.34
-23.29
-19.56
-14.48
-8.64
-2.82
2.21
5.81
7.77
8.25
7.76
6.93
6.32
6.25
6.78
7.8
9.12
10.54
11.9
13.15
14.32
15.44
16.57
17.65
18.53
19.06
19.08
18.56
17.57
16.25
14.77
13.27
11.88
10.66
9.69
8.89
8.11
7.12
5.76
4.09
2.37
0.92
-0.07
-0.67
-1.12
-1.76
-2.73
-4.06
-5.55
-7.04
-8.54
-10.24
-12.43
-15.3
-18.81
-22.65
-26.36
-29.47
-31.57
-32.43
-31.8
-29.62
-25.96
-21.11
-15.62
-10.21
-5.43
-1.55
1.51
4.08
6.46
8.69
10.48
11.52
11.68
11.25
10.76
10.74
11.48
12.76
14.22
15.51
16.52
17.38
18.23
19.07
19.66
19.72
19.08
17.83
16.27
14.67
13.13
11.57
9.85
7.97
6.14
4.6
3.57
3.11
3.1
3.38
3.83
4.37
4.9
5.25
5.06
3.95
1.7
-1.65
-5.69
-9.84
-13.49
-16.27
-18.23
-19.75
-21.36
-23.36
-25.69
-27.77
-28.85
-28.37
-26.22
-22.76
-18.59
-14.23
-9.93
-5.78
-1.78
1.87
4.82
6.76
7.65
7.73
7.5
7.48
7.9
8.74
9.73
10.6
11.23
11.72
12.3
13.22
14.55
16.05
17.34
18
17.84
16.99
15.8
14.66
13.8
13.2
12.63
11.9
10.88
9.63
8.28
6.98
5.83
4.81
3.84
2.84
1.76
0.57
-0.69
-1.94
-3.02
-3.83
-4.37
-4.83
-5.53
-6.85
-9.01
-12.04
-15.68
-19.57
-23.28
-26.44
-28.81
-30.21
-30.5
-29.59
-27.4
-23.98
-19.45
-14.15
-8.53
-3.15
1.41
4.75
6.73
7.61
7.86
8.05
8.6
9.58
10.76
11.68
12.05
11.77
11.11
10.51
10.4
11.02
12.37
14.11
15.87
17.23
17.95
17.96
17.25
15.94
14.14
12.03
9.85
7.77
5.94
4.36
3.04
1.94
1.06
0.41
0
-0.18
-0.24
-0.4
-0.91
-2.03
-3.85
-6.24
-8.86
-11.27
-13.18
-14.59
-15.82
-17.37
-19.54
-22.28
-25.11
-27.27
-28.05
-26.99
-24.08
-19.68
-14.38
-8.92
-3.93
0.17
3.26
5.46
6.98
7.96
8.38
8.17
7.4
6.4
5.71
5.78
6.71
8.14
9.45
10.13
10.08
9.59
9.19
9.22
9.75
10.49
11.1
11.31
10.97
10.05
8.64
6.85
4.93
3.13
1.67
0.52
-0.46
-1.52
-2.78
-4.09
-5.21
-5.98
-6.48
-7
-7.87
-9.24
-10.93
-12.66
-14.23
-15.76
-17.58
-19.95
-22.77
-25.45
-27.07
-26.88
-24.6
-20.54
-15.47
-10.22
-5.32
-0.98
2.83
6.13
8.83
10.7
11.52
11.2
9.92
8.06
6.17
4.83
4.53
5.52
7.67
10.5
13.28
15.33
16.29
16.21
15.48
14.56
13.75
13.13
12.61
12.03
11.34
10.5
9.5
8.28
6.77
4.95
2.97
1.11
-0.43
-1.57
-2.48
-3.41
-4.56
-5.91
-7.3
-8.52
-9.49
-10.36
-11.38
-12.75
-14.6
-16.88
-19.49
-22.22
-24.8
-26.83
-27.81
-27.25
-24.93
-21
-16.01
-10.67
-5.7
-1.53
1.72
4.18
5.98
7.14
7.59
7.27
6.33
5.24
4.59
4.93
6.31
8.37
10.38
11.71
12.22
12.23
12.41
13.2
14.57
15.98
16.69
16.32
15.01
13.36
12
11.26
10.96
10.66
9.98
8.87
7.56
6.38
5.48
4.71
3.79
2.54
1.03
-0.46
-1.61
-2.28
-2.58
-2.76
-3.15
-3.98
-5.37
-7.36
-9.89
-12.83
-16.01
-19.26
-22.43
-25.38
-27.94
-29.82
-30.7
-30.27
-28.37
-25.06
-20.68
-15.75
-10.78
-6.23
-2.37
0.71
3.07
4.89
6.25
7.17
7.55
7.34
6.61
5.64
4.75
4.26
4.28
4.78
5.73
7.1
8.97
11.35
14.07
16.77
18.97
20.31
20.64
20.07
18.84
17.17
15.19
13.05
10.9
8.93
7.3
6
4.95
3.88
2.6
1.01
-0.86
-2.83
-4.7
-6.19
-7.14
-7.53
-7.56
-7.6
-8.05
-9.18
-10.98
-13.21
-15.53
-17.75
-19.75
-21.57
-23.2
-24.48
-25.13
-24.87
-23.47
-20.91
-17.37
-13.08
-8.41
-3.7
0.65
4.32
7.1
8.9
9.73
9.65
8.89
7.75
6.65
5.95
5.82
6.14
6.59
6.85
6.89
6.96
7.38
8.3
9.48
10.39
10.5
9.59
7.89
5.98
4.49
3.7
3.55
3.71
3.81
3.72
3.53
3.38
3.31
3.09
2.41
1.04
-0.97
-3.3
-5.49
-7.13
-8.09
-8.5
-8.66
-8.88
-9.4
-10.35
-11.81
-13.84
-16.44
-19.42
-22.42
-24.87
-26.15
-25.8
-23.67
-20.01
-15.35
-10.3
-5.41
-1.07
2.55
5.41
7.51
8.93
9.77
10.08
9.93
9.39
8.63
7.93
7.58
7.83
8.69
9.88
11.02
11.82
12.22
12.41
12.68
13.25
14.18
15.44
16.93
18.5
19.88
20.67
20.45
19.01
16.46
13.35
10.3
7.79
5.91
4.42
2.84
0.86
-1.59
-4.24
-6.71
-8.73
-10.24
-11.5
-12.87
-14.65
-16.99
-19.77
-22.64
-25.1
-26.74
-27.28
-26.6
-24.74
-21.77
-17.83
-13.11
-7.88
-2.53
2.5
6.77
9.89
11.61
11.88
10.87
8.99
6.74
4.68
3.21
2.54
2.59
3.19
4.18
5.46
7
8.72
10.48
12.06
13.24
13.92
14.1
13.84
13.17
12.15
10.75
8.97
6.82
4.36
1.71
-0.93
-3.28
-5.07
-6.19
-6.77
-7.25
-8.16
-9.9
-12.57
-15.86
-19.22
-22.05
-23.95
-24.75
-24.49
-23.27
-21.16
-18.23
-14.59
-10.48
-6.3
-2.52
0.57
2.87
4.57
5.93
7.07
7.93
8.25
7.88
6.96
5.99
5.64
6.3
7.91
9.93
11.69
12.73
13.01
12.88
12.68
12.57
12.44
12.04
11.15
9.72
7.9
5.93
4.01
2.27
0.75
-0.61
-1.92
-3.33
-5
-7.02
-9.36
-11.95
-14.73
-17.68
-20.78
-23.9
-26.75
-28.93
-30.07
-29.95
-28.49
-25.76
-21.88
-17.05
-11.54
-5.78
-0.35
4.18
7.4
9.26
10.01
10.03
9.72
9.25
8.67
8.04
7.56
7.57
8.36
10.01
12.24
14.48
16.11
16.83
16.68
16.07
15.49
15.22
15.2
15.05
14.32
12.76
10.41
7.6
4.78
2.28
0.16
-1.64
-3.33
-5.02
-6.71
-8.38
-10.02
-11.82
-13.99
-16.79
-20.27
-24.15
-27.87
-30.67
-31.89
-31.07
-28.18
-23.57
-17.88
-11.87
-6.21
-1.33
2.61
5.68
8.05
9.8
10.88
11.25
10.99
10.41
9.95
10.04
10.84
12.18
13.62
14.72
15.28
15.4
15.4
15.58
16.08
16.82
17.58
18.1
18.17
17.59
16.28
14.22
11.53
8.4
5.12
1.92
-0.98
-3.37
-5.12
-6.18
-6.64
-6.87
-7.42
-8.88
-11.61
-15.56
-20.17
-24.56
-27.82
-29.25
-28.63
-26.11
-22.16
-17.29
-12
-6.69
-1.69
2.66
6.06
8.31
9.4
9.55
9.25
9.14
9.72
11.23
13.44
15.8
17.7
18.77
19.04
18.92
18.98
19.55
20.62
21.83
22.74
23.04
22.69
21.88
20.77
19.44
17.76
15.6
12.92
9.89
6.8
3.93
1.41
-0.78
-2.81
-4.82
-6.81
-8.78
-10.68
-12.54
-14.5
-16.69
-19.17
-21.82
-24.32
-26.21
-27.03
-26.42
-24.22
-20.53
-15.69
-10.16
-4.5
0.75
5.21
8.67
11.18
13.03
14.58
16.2
18.04
19.96
21.61
22.55
22.53
21.71
20.48
19.43
18.94
19.01
19.3
19.44
19.14
18.43
17.45
16.34
15.1
13.6
11.75
9.62
7.4
5.28
3.35
1.57
-0.06
-1.52
-2.69
-3.53
-4.12
-4.78
-5.88
-7.67
-10.16
-13.15
-16.31
-19.38
-22.18
-24.58
-26.42
-27.47
-27.46
-26.17
-23.6
-19.92
-15.46
-10.56
-5.51
-0.46
4.48
9.12
13.12
16.05
17.57
17.6
16.48
14.81
13.3
12.48
12.63
13.64
15.17
16.76
18
18.73
18.96
18.9
18.73
18.45
17.81
16.49
14.32
11.43
8.32
5.6
3.67
2.55
1.81
0.88
-0.68
-2.86
-5.33
-7.63
-9.49
-10.89
-12.06
-13.23
-14.51
-15.84
-17.18
-18.67
-20.55
-22.96
-25.58
-27.6
-27.95
-25.74
-20.75
-13.6
-5.51
2.18
8.41
12.72
15.11
15.92
15.61
14.55
12.99
11.15
9.31
7.86
7.33
8.15
10.44
13.8
17.45
20.43
22.09
22.34
21.62
20.65
19.94
19.46
18.76
17.2
14.42
10.65
6.61
3.09
0.64
-0.77
-1.65
-2.6
-3.94
-5.48
-6.71
-7.18
-6.89
-6.34
-6.28
-7.33
-9.6
-12.76
-16.23
-19.45
-22.04
-23.76
-24.46
-23.96
-22.12
-18.91
-14.52
-9.31
-3.8
1.39
5.7
8.73
10.39
10.89
10.71
10.41
10.35
10.62
11.05
11.31
11.22
10.76
10.11
9.51
9.14
9.01
9.03
9.01
8.78
8.32
7.76
7.31
7.1
7.13
7.19
6.96
6.22
4.96
3.41
1.84
0.36
-1.08
-2.63
-4.39
-6.25
-7.98
-9.42
-10.68
-12.2
-14.45
-17.66
-21.63
-25.72
-29.03
-30.78
-30.45
-27.93
-23.58
-18.04
-12.11
-6.57
-2.01
1.37
3.67
5.22
6.35
7.23
7.89
8.28
8.61
9.18
10.39
12.34
14.74
16.92
18.12
17.87
16.2
13.7
11.23
9.51
8.88
9.14
9.75
10.05
9.58
8.24
6.27
4.18
2.44
1.4
1.02
0.92
0.54
-0.65
-2.88
-6
-9.53
-12.87
-15.57
-17.44
-18.52
-18.98
-18.87
-18.16
-16.73
-14.53
-11.68
-8.48
-5.3
-2.46
-0.14
1.64
2.93
3.76
4.13
3.96
3.22
1.99
0.57
-0.53
-0.81
0.1
2.2
5.04
7.93
10.14
11.22
11.04
9.76
7.68
5.02
1.96
-1.28
-4.37
-6.85
-8.31
-8.5
-7.58
-5.98
-4.4
-3.45
-3.61
-5.07
-7.75
-11.37
-15.44
-19.33
-22.39
-24.05
-23.98
-22.17
-18.96
-14.87
-10.51
-6.4
-2.9
-0.17
1.85
3.44
4.84
6.19
7.46
8.44
8.92
8.83
8.3
7.59
6.94
6.47
6.15
5.97
5.96
6.19
6.64
7.17
7.48
7.22
6.26
4.61
2.54
0.43
-1.41
-2.73
-3.51
-3.89
-4.17
-4.66
-5.55
-6.85
-8.39
-9.98
-11.49
-13.01
-14.62
-16.25
-17.57
-18.04
-17.16
-14.79
-11.21
-7.05
-3.03
0.36
2.95
4.84
6.22
7.13
7.43
6.99
5.8
4.17
2.59
1.58
1.45
2.18
3.51
5.06
6.55
7.76
8.63
9.1
9.18
8.89
8.31
7.59
6.86
6.21
5.61
4.95
4.08
2.91
1.43
-0.27
-2.08
-3.94
-5.93
-8.17
-10.84
-13.97
-17.3
-20.4
-22.67
-23.7
-23.31
-21.66
-19.02
-15.75
-12.14
-8.38
-4.68
-1.21
1.86
4.43
6.43
7.82
8.58
8.75
8.55
8.28
8.27
8.65
9.28
9.76
9.74
9.16
8.27
7.62
7.55
8.04
8.64
8.79
8.11
6.63
4.71
2.75
1.05
-0.39
-1.69
-3.02
-4.39
-5.69
-6.73
-7.37
-7.72
-8.06
-8.83
-10.43
-12.97
-16.2
-19.46
-21.95
-23.05
-22.55
-20.65
-17.87
-14.62
-11.14
-7.48
-3.61
0.31
3.96
6.92
8.91
9.87
10.08
9.98
9.92
10.06
10.24
10.2
9.77
9.04
8.38
8.21
8.71
9.71
10.73
11.24
10.95
10.02
8.85
7.92
7.36
7.01
6.43
5.29
3.49
1.3
-0.83
-2.53
-3.59
-4.07
-4.28
-4.64
-5.55
-7.29
-9.88
-13.1
-16.6
-19.99
-22.92
-25.06
-26.17
-26.04
-24.59
-21.86
-18.19
-14.05
-9.93
-6.15
-2.75
0.44
3.55
6.53
9.08
10.88
11.7
11.59
10.87
9.95
9.18
8.77
8.72
8.97
9.45
10.15
11.08
12.21
13.43
14.52
15.18
15.16
14.4
13.07
11.51
10.16
9.26
8.82
8.55
8.01
6.86
5.02
2.73
0.41
-1.48
-2.75
-3.44
-3.83
-4.3
-5.24
-6.94
-9.57
-13.11
-17.24
-21.45
-25.01
-27.32
-27.98
-26.87
-24.12
-20.03
-14.98
-9.42
-3.87
1.13
5.1
7.83
9.4
10.13
10.4
10.45
10.39
10.24
10.14
10.28
10.9
12.05
13.63
15.37
16.93
18.04
18.62
18.69
18.35
17.72
16.83
15.69
14.3
12.72
11.03
9.33
7.69
6.16
4.86
3.9
3.37
3.25
3.33
3.26
2.69
1.47
-0.33
-2.43
-4.56
-6.55
-8.42
-10.29
-12.26
-14.43
-16.89
-19.68
-22.78
-25.91
-28.47
-29.7
-28.97
-26.15
-21.64
-16.32
-11.01
-6.26
-2.22
1.24
4.24
6.79
8.76
10.03
10.67
10.9
11.07
11.4
12
12.82
13.72
14.57
15.23
15.6
15.59
15.19
14.45
13.55
12.71
12.07
11.58
11.11
10.47
9.55
8.44
7.27
6.18
5.16
4.17
3.18
2.21
1.33
0.63
0.08
-0.51
-1.4
-2.83
-4.88
-7.42
-10.22
-13.1
-15.99
-18.92
-21.94
-24.9
-27.42
-28.93
-28.82
-26.79
-22.98
-17.95
-12.48
-7.26
-2.64
1.29
4.68
7.65
10.12
11.88
12.67
12.42
11.32
9.87
8.65
8.18
8.67
10
11.76
13.47
14.75
15.55
16.13
16.77
17.63
18.51
18.91
18.38
16.68
13.98
10.82
7.88
5.62
4.15
3.15
2.14
0.72
-1.28
-3.66
-6.02
-7.94
-9.17
-9.73
-9.87
-10
-10.51
-11.66
-13.54
-16.1
-19.17
-22.54
-25.83
-28.51
-29.99
-29.7
-27.39
-23.27
-17.95
-12.26
-6.89
-2.26
1.56
4.7
7.27
9.25
10.54
11.06
10.88
10.33
9.79
9.62
10
10.91
12.17
13.56
14.87
15.94
16.72
17.22
17.47
17.56
17.51
17.24
16.6
15.48
13.81
11.68
9.37
7.26
5.62
4.5
3.75
2.96
1.8
0.1
-1.99
-4.05
-5.62
-6.46
-6.63
-6.5
-6.54
-7.09
-8.29
-10.09
-12.44
-15.31
-18.66
-22.24
-25.48
-27.59
-27.81
-25.81
-21.85
-16.73
-11.4
-6.68
-2.94
-0.13
1.99
3.77
5.4
6.85
8
8.72
8.95
8.83
8.59
8.48
8.66
9.16
9.88
10.66
11.43
12.2
12.99
13.85
14.68
15.25
15.33
14.78
13.63
12.09
10.42
8.84
7.45
6.21
5.03
3.8
2.46
1.05
-0.4
-1.83
-3.16
-4.3
-5.16
-5.75
-6.22
-6.75
-7.55
-8.77
-10.48
-12.72
-15.42
-18.41
-21.26
-23.31
-23.92
-22.66
-19.56
-15.19
-10.4
-5.97
-2.38
0.32
2.39
4.13
5.71
7.1
8.22
8.95
9.23
9.11
8.65
8
7.3
6.79
6.67
7.03
7.81
8.77
9.63
10.21
10.47
10.48
10.36
10.12
9.71
8.98
7.79
6.1
4
1.69
-0.56
-2.42
-3.66
-4.26
-4.38
-4.39
-4.62
-5.33
-6.54
-8.25
-10.44
-13.2
-16.52
-20.11
-23.41
-25.63
-26.1
-24.52
-21.14
-16.65
-11.89
-7.44
-3.58
-0.26
2.74
5.51
7.94
9.76
10.71
10.77
10.17
9.37
8.79
8.62
8.73
8.85
8.76
8.42
8.05
7.92
8.17
8.74
9.37
9.77
9.78
9.42
8.81
8
6.95
5.54
3.75
1.66
-0.48
-2.39
-3.85
-4.82
-5.42
-5.88
-6.42
-7.25
-8.55
-10.49
-13.08
-16.21
-19.56
-22.67
-25.12
-26.59
-26.95
-26.16
-24.26
-21.3
-17.42
-12.83
-7.86
-2.93
1.56
5.26
7.94
9.53
10.06
9.69
8.74
7.6
6.64
6.06
5.93
6.12
6.52
7.12
7.96
9.1
10.52
12.02
13.39
14.46
15.07
15.18
14.75
13.74
12.13
10
7.56
5.15
3.07
1.47
0.33
-0.6
-1.64
-3.08
-4.99
-7.28
-9.65
-11.92
-14.07
-16.34
-19.05
-22.39
-26.11
-29.59
-31.97
-32.54
-31.02
-27.58
-22.75
-17.19
-11.52
-6.18
-1.52
2.25
5.04
6.94
8.21
9.08
9.69
10.05
10.07
9.7
9.03
8.3
7.8
7.76
8.3
9.44
11.11
13.13
15.2
16.94
17.96
17.99
17
15.19
12.91
10.54
8.38
6.55
5.08
3.91
2.94
1.98
0.78
-0.86
-3
-5.5
-8.01
-10.26
-12.14
-13.81
-15.65
-18.03
-21.04
-24.36
-27.34
-29.19
-29.36
-27.69
-24.52
-20.46
-16.14
-11.98
-8.13
-4.62
-1.39
1.55
4.11
6.27
8
9.36
10.49
11.45
12.18
12.6
12.61
12.23
11.72
11.42
11.7
12.7
14.22
15.86
17.15
17.73
17.5
16.62
15.27
13.66
11.87
10.01
8.14
6.4
4.85
3.46
2.16
0.89
-0.39
-1.65
-2.86
-4.08
-5.46
-7.14
-9.13
-11.38
-13.79
-16.31
-19
-21.87
-24.72
-27.18
-28.63
-28.61
-26.9
-23.7
-19.49
-14.91
-10.42
-6.27
-2.48
1
4.11
6.66
8.35
8.95
8.51
7.4
6.21
5.49
5.55
6.31
7.49
8.78
10.05
11.33
12.71
14.12
15.3
15.94
15.82
14.98
13.68
12.21
10.71
9.17
7.53
5.75
4
2.45
1.2
0.17
-0.85
-2.11
-3.72
-5.6
-7.54
-9.46
-11.39
-13.57
-16.19
-19.21
-22.37
-25.23
-27.36
-28.41
-28.21
-26.62
-23.64
-19.31
-13.88
-7.77
-1.58
4.07
8.67
11.93
13.8
14.45
14.21
13.48
12.6
11.76
11.01
10.29
9.59
9.09
9.1
9.91
11.59
13.83
16.07
17.71
18.41
18.1
17.07
15.68
14.22
12.8
11.4
9.97
8.45
6.83
5.07
3.08
0.86
-1.52
-3.77
-5.64
-6.95
-7.82
-8.63
-9.88
-12
-15.24
-19.56
-24.56
-29.59
-33.79
-36.39
-36.79
-34.81
-30.68
-24.97
-18.45
-11.81
-5.65
-0.29
4.07
7.43
9.91
11.72
12.98
13.77
14.1
14.07
13.83
13.66
13.8
14.37
15.27
16.29
17.27
18.24
19.34
20.62
21.97
22.99
23.3
22.69
21.33
19.6
17.89
16.37
14.92
13.34
11.45
9.23
6.78
4.22
1.61
-1
-3.48
-5.62
-7.16
-8.02
-8.48
-9.04
-10.28
-12.5
-15.7
-19.61
-23.83
-27.94
-31.56
-34.23
-35.46
-34.86
-32.19
-27.58
-21.47
-14.51
-7.43
-0.92
4.44
8.29
10.48
11.22
10.93
10.17
9.46
9.11
9.19
9.65
10.41
11.42
12.61
13.91
15.21
16.44
17.59
18.62
19.41
19.74
19.34
18.15
16.3
14.14
12.11
10.49
9.33
8.43
7.49
6.26
4.62
2.68
0.63
-1.36
-3.29
-5.31
-7.63
-10.39
-13.47
-16.55
-19.33
-21.73
-23.94
-26.26
-28.75
-31.01
-32.21
-31.47
-28.37
-23.12
-16.6
-9.92
-3.99
0.76
4.32
6.96
8.92
10.27
10.96
10.95
10.39
9.63
9.18
9.47
10.68
12.64
14.93
17.1
18.81
19.94
20.44
20.27
19.38
17.75
15.56
13.15
10.89
9
7.43
5.98
4.36
2.49
0.41
-1.7
-3.77
-5.79
-7.79
-9.75
-11.51
-12.96
-14.17
-15.47
-17.3
-19.9
-23.1
-26.23
-28.38
-28.76
-26.95
-23.04
-17.49
-10.97
-4.23
2.05
7.3
11.06
13.17
13.8
13.36
12.41
11.45
10.87
10.86
11.45
12.55
14.01
15.57
16.96
18.01
18.65
18.93
18.96
18.83
18.51
17.91
16.93
15.52
13.78
11.84
9.89
8.05
6.32
4.66
2.98
1.22
-0.59
-2.34
-3.97
-5.42
-6.81
-8.31
-10.18
-12.58
-15.64
-19.34
-23.53
-27.94
-32.1
-35.43
-37.26
-37.05
-34.54
-29.84
-23.49
-16.28
-9.12
-2.73
2.45
6.33
9.1
11.05
12.45
13.45
14.11
14.52
14.82
15.25
16.03
17.29
18.95
20.84
22.62
24.01
24.82
25.03
24.78
24.36
24
23.79
23.54
22.83
21.32
18.88
15.74
12.44
9.45
7.03
5.06
3.19
1.1
-1.3
-3.87
-6.38
-8.69
-10.83
-12.93
-15.18
-17.73
-20.69
-24.12
-27.96
-31.96
-35.56
-38.06
-38.74
-37.11
-33.11
-27.2
-20.12
-12.77
-5.89
0.04
4.82
8.51
11.33
13.48
15.12
16.3
17
17.27
17.24
17.17
17.34
17.95
19.01
20.38
21.83
23.13
24.13
24.73
24.9
24.61
23.86
22.66
21.08
19.2
17.11
14.91
12.75
10.77
9.1
7.72
6.5
5.19
3.54
1.48
-0.8
-3.01
-4.92
-6.49
-7.89
-9.46
-11.48
-14.11
-17.41
-21.28
-25.54
-29.81
-33.51
-35.94
-36.42
-34.54
-30.34
-24.32
-17.24
-9.93
-3.06
2.89
7.71
11.3
13.65
14.77
14.77
13.93
12.66
11.52
11.03
11.49
12.88
14.82
16.79
18.36
19.36
19.87
20.12
20.31
20.52
20.65
20.57
20.11
19.17
17.71
15.75
13.37
10.75
8.12
5.68
3.62
1.95
0.58
-0.67
-2.02
-3.6
-5.42
-7.47
-9.65
-11.85
-13.94
-15.87
-17.6
-19.23
-21.02
-23.2
-25.88
-28.72
-30.98
-31.73
-30.24
-26.4
-20.8
-14.45
-8.41
-3.3
0.75
3.95
6.62
8.89
10.73
12.01
12.68
12.82
12.6
12.19
11.79
11.48
11.37
11.5
11.94
12.75
13.99
15.62
17.48
19.26
20.58
21.12
20.69
19.32
17.17
14.51
11.64
8.87
6.45
4.52
3.08
1.98
1.01
-0.07
-1.41
-3.03
-4.87
-6.85
-8.9
-10.96
-13.06
-15.29
-17.8
-20.73
-24.07
-27.58
-30.81
-33.24
-34.37
-33.95
-31.87
-28.2
-23.09
-16.82
-9.94
-3.18
2.62
6.87
9.41
10.6
11.03
11.28
11.56
11.79
11.76
11.41
10.91
10.6
10.86
11.81
13.4
15.35
17.26
18.69
19.31
18.97
17.8
16.12
14.35
12.81
11.61
10.67
9.84
8.99
8.04
6.91
5.45
3.53
1.11
-1.59
-4.18
-6.24
-7.59
-8.33
-8.86
-9.62
-10.97
-13.03
-15.8
-19.2
-23.04
-26.99
-30.5
-32.9
-33.58
-32.19
-28.81
-23.87
-18.05
-12.03
-6.35
-1.38
2.69
5.84
8.22
9.99
11.31
12.22
12.68
12.6
12
11.08
10.18
9.69
9.83
10.56
11.67
12.9
14.03
15.01
15.88
16.72
17.46
17.91
17.73
16.67
14.63
11.89
8.97
6.52
4.96
4.28
4.08
3.68
2.51
0.35
-2.55
-5.65
-8.39
-10.47
-11.99
-13.36
-15.08
-17.45
-20.49
-23.87
-27.07
-29.56
-30.89
-30.83
-29.21
-26.03
-21.42
-15.7
-9.47
-3.43
1.73
5.61
8.13
9.51
10.09
10.16
9.9
9.35
8.52
7.55
6.63
6.07
6.19
7.11
8.75
10.73
12.58
13.88
14.45
14.37
13.86
13.11
12.17
10.98
9.5
7.76
5.92
4.14
2.43
0.68
-1.25
-3.32
-5.26
-6.73
-7.61
-8.04
-8.49
-9.44
-11.1
-13.36
-15.89
-18.36
-20.61
-22.62
-24.3
-25.38
-25.34
-23.7
-20.3
-15.52
-10.15
-5.02
-0.71
2.62
5.16
7.09
8.46
9.17
9.14
8.48
7.53
6.68
6.25
6.28
6.65
7.16
7.72
8.39
9.28
10.45
11.79
13.08
14.07
14.62
14.66
14.2
13.22
11.64
9.45
6.76
3.88
1.17
-1.05
-2.67
-3.76
-4.59
-5.45
-6.51
-7.83
-9.35
-11
-12.74
-14.57
-16.6
-18.95
-21.73
-24.82
-27.86
-30.21
-31.19
-30.35
-27.62
-23.37
-18.23
-12.87
-7.77
-3.21
0.69
3.85
6.2
7.74
8.53
8.75
8.64
8.43
8.31
8.39
8.77
9.47
10.49
11.66
12.82
13.82
14.57
15.09
15.44
15.65
15.64
15.26
14.33
12.79
10.74
8.47
6.35
4.76
3.88
3.63
3.69
3.5
2.54
0.53
-2.38
-5.59
-8.35
-10.09
-10.73
-10.77
-11.02
-12.25
-14.79
-18.47
-22.74
-26.89
-30.34
-32.63
-33.46
-32.63
-30.09
-25.96
-20.62
-14.61
-8.51
-2.82
2.13
6.24
9.46
11.82
13.36
14.12
14.2
13.78
13.07
12.32
11.82
11.77
12.23
13.13
14.17
14.98
15.23
14.83
14.01
13.22
12.85
13.02
13.43
13.51
12.72
10.82
8.05
4.95
2.13
-0.04
-1.54
-2.63
-3.6
-4.62
-5.67
-6.67
-7.58
-8.55
-9.79
-11.5
-13.79
-16.59
-19.78
-23.1
-26.22
-28.64
-29.78
-29.18
-26.56
-22.07
-16.24
-9.86
-3.7
1.6
5.65
8.38
9.91
10.52
10.63
10.55
10.5
10.44
10.22
9.67
8.87
8.12
7.8
8.18
9.22
10.63
11.99
13.03
13.61
13.83
13.79
13.56
13.09
12.3
11.14
9.61
7.78
5.76
3.67
1.61
-0.29
-1.92
-3.26
-4.35
-5.27
-6.17
-7.15
-8.33
-9.75
-11.46
-13.47
-15.78
-18.41
-21.33
-24.43
-27.43
-29.84
-31.16
-30.95
-29.01
-25.51
-20.81
-15.32
-9.41
-3.36
2.52
7.75
11.74
13.99
14.33
13.04
10.82
8.49
6.71
5.77
5.65
6.16
7.12
8.48
10.22
12.23
14.2
15.73
16.4
16.01
14.65
12.71
10.66
8.99
7.91
7.37
7.1
6.72
5.92
4.56
2.68
0.45
-1.89
-4.09
-5.95
-7.39
-8.43
-9.18
-9.89
-10.95
-12.71
-15.36
-18.78
-22.44
-25.6
-27.51
-27.65
-25.84
-22.27
-17.35
-11.62
-5.73
-0.29
4.19
7.43
9.43
10.43
10.8
10.91
10.96
11.01
11
10.9
10.78
10.75
10.93
11.4
12.09
12.99
14.03
15.15
16.2
16.96
17.15
16.54
15.08
12.97
10.58
8.29
6.41
4.97
3.86
2.86
1.84
0.8
-0.15
-0.89
-1.41
-1.82
-2.41
-3.46
-5.15
-7.46
-10.18
-13.01
-15.76
-18.42
-20.99
-23.34
-25.05
-25.5
-24.1
-20.61
-15.42
-9.32
-3.39
1.54
5
6.99
7.85
8
7.83
7.6
7.5
7.62
8.01
8.7
9.68
10.93
12.4
14.03
15.7
17.22
18.44
19.2
19.46
19.23
18.63
17.74
16.6
15.18
13.45
11.47
9.46
7.76
6.65
6.23
6.26
6.26
5.73
4.36
2.19
-0.38
-2.86
-4.8
-6.11
-6.97
-7.79
-8.96
-10.73
-13.1
-15.91
-18.81
-21.38
-23.19
-23.87
-23.2
-21.17
-18.01
-14.03
-9.62
-5.13
-0.89
2.83
5.85
8.07
9.5
10.21
10.34
10.02
9.42
8.7
8.09
7.78
7.94
8.53
9.43
10.45
11.41
12.23
12.88
13.34
13.55
13.5
13.21
12.78
12.26
11.58
10.63
9.32
7.67
5.85
4.14
2.75
1.7
0.84
-0.07
-1.17
-2.43
-3.7
-4.85
-5.86
-6.88
-8.2
-10.02
-12.43
-15.25
-18.09
-20.42
-21.79
-21.86
-20.57
-18.17
-15.01
-11.53
-8.04
-4.67
-1.47
1.53
4.24
6.46
7.98
8.69
8.69
8.25
7.71
7.41
7.5
8
8.83
9.89
11.04
12.14
13
13.45
13.41
12.88
12.06
11.1
10.14
9.21
8.22
7.11
5.9
4.69
3.64
2.85
2.28
1.79
1.16
0.25
-0.98
-2.43
-3.94
-5.41
-6.8
-8.19
-9.74
-11.62
-13.91
-16.48
-19.03
-21.1
-22.22
-22.03
-20.38
-17.35
-13.33
-8.88
-4.62
-1.05
1.62
3.47
4.81
5.95
7.02
7.87
8.27
8.01
7.22
6.31
5.75
5.87
6.68
7.98
9.45
10.87
12.06
12.9
13.24
12.92
11.91
10.35
8.55
6.86
5.47
4.37
3.4
2.44
1.49
0.71
0.2
-0.13
-0.53
-1.4
-2.89
-4.92
-7.07
-8.82
-9.84
-10.18
-10.21
-10.55
-11.74
-13.98
-17.07
-20.45
-23.4
-25.22
-25.43
-23.81
-20.49
-15.94
-10.84
-5.92
-1.71
1.56
4.01
5.91
7.54
8.92
9.9
10.26
9.94
9.19
8.41
8.06
8.34
9.15
10.17
11.05
11.53
11.58
11.33
10.93
10.53
10.1
9.58
8.83
7.81
6.58
5.23
3.95
2.84
1.95
1.2
0.53
-0.13
-0.79
-1.45
-2.2
-3.14
-4.34
-5.78
-7.37
-8.94
-10.36
-11.64
-12.96
-14.51
-16.42
-18.58
-20.62
-22.02
-22.26
-21.1
-18.62
-15.22
-11.45
-7.8
-4.52
-1.69
0.77
2.87
4.54
5.72
6.42
6.78
7.02
7.33
7.77
8.19
8.42
8.38
8.17
8.02
8.12
8.53
9.07
9.42
9.31
8.6
7.37
5.82
4.21
2.79
1.75
1.25
1.27
1.71
2.22
2.45
2.11
1.09
-0.44
-2.11
-3.59
-4.72
-5.55
-6.29
-7.14
-8.22
-9.55
-11.13
-12.9
-14.75
-16.41
-17.51
-17.69
-16.72
-14.69
-11.9
-8.8
-5.8
-3.17
-0.99
0.76
2.19
3.34
4.27
4.95
5.37
5.45
5.17
4.65
4.11
3.77
3.81
4.21
4.85
5.59
6.32
6.97
7.47
7.63
7.25
6.17
4.42
2.27
0.11
-1.66
-2.78
-3.22
-3.1
-2.68
-2.24
-2.06
-2.37
-3.25
-4.64
-6.3
-8
-9.56
-10.95
-12.31
-13.82
-15.59
-17.56
-19.42
-20.72
-21.02
-20.02
-17.7
-14.35
-10.49
-6.64
-3.16
-0.19
2.23
4.1
5.41
6.13
6.3
6.12
5.81
5.59
5.5
5.55
5.73
6.08
6.66
7.52
8.56
9.58
10.34
10.75
10.87
10.85
10.81
10.59
9.94
8.6
6.57
4.14
1.85
0.16
-0.73
-1.08
-1.37
-2.09
-3.48
-5.43
-7.56
-9.42
-10.73
-11.49
-11.92
-12.39
-13.27
-14.8
-16.91
-19.31
-21.56
-23.18
-23.82
-23.3
-21.67
-19.08
-15.76
-11.98
-8.12
-4.51
-1.48
0.82
2.41
3.47
4.22
4.82
5.36
5.86
6.36
6.87
7.42
8
8.57
9.05
9.42
9.67
9.86
10.03
10.2
10.34
10.35
10.14
9.58
8.63
7.35
5.93
4.66
3.74
3.3
3.2
3.09
2.57
1.36
-0.56
-2.9
-5.15
-6.86
-7.78
-8
-7.91
-8.04
-8.87
-10.69
-13.48
-16.97
-20.63
-23.84
-25.97
-26.51
-25.24
-22.24
-17.91
-12.84
-7.74
-3.25
0.22
2.5
3.76
4.33
4.51
4.52
4.39
4.09
3.6
3.15
3.09
3.77
5.27
7.35
9.5
11.21
12.22
12.55
12.43
12.14
11.76
11.26
10.43
9.2
7.61
5.88
4.26
2.95
2.04
1.49
1.27
1.34
1.73
2.46
3.42
4.42
5.1
5.1
4.16
2.25
-0.45
-3.61
-6.85
-9.96
-12.86
-15.61
-18.25
-20.7
-22.78
-24.26
-25
-24.87
-23.81
-21.69
-18.44
-14.17
-9.29
-4.44
-0.31
2.64
4.35
5.12
5.39
5.55
5.78
6.05
6.3
6.54
6.82
7.26
7.97
8.99
10.29
11.81
13.47
15.08
16.44
17.33
17.59
17.13
16.01
14.38
12.5
10.69
9.14
7.95
6.98
6.02
4.92
3.65
2.26
0.86
-0.5
-1.82
-3.11
-4.36
-5.55
-6.7
-7.99
-9.67
-11.99
-15.1
-18.89
-22.95
-26.68
-29.42
-30.61
-29.95
-27.5
-23.64
-18.94
-13.95
-9.11
-4.66
-0.73
2.57
5.16
6.96
7.99
8.37
8.29
7.95
7.48
7.06
6.91
7.29
8.39
10.14
12.23
14.19
15.63
16.35
16.42
16.07
15.55
15.02
14.56
14.13
13.64
13.02
12.11
10.87
9.23
7.21
4.96
2.61
0.3
-1.94
-4.08
-6.1
-7.95
-9.64
-11.29
-13.16
-15.53
-18.55
-22.14
-25.93
-29.35
-31.8
-32.83
-32.24
-30.11
-26.72
-22.43
-17.6
-12.61
-7.76
-3.33
0.55
3.82
6.52
8.74
10.56
12.08
13.32
14.3
15.01
15.52
15.99
16.59
17.5
18.78
20.33
21.9
23.14
23.73
23.44
22.25
20.34
18.1
15.91
14.04
12.58
11.41
10.34
9.24
8.08
6.79
5.29
3.48
1.3
-1.11
-3.42
-5.29
-6.7
-7.95
-9.58
-12.07
-15.58
-19.85
-24.4
-28.62
-32.01
-34.21
-34.95
-34.03
-31.39
-27.2
-21.76
-15.56
-9.07
-2.76
2.97
7.82
11.53
13.97
15.19
15.44
15.1
14.55
14.16
14.13
14.58
15.46
16.65
17.96
19.31
20.66
22.04
23.45
24.85
26.1
26.98
27.16
26.31
24.18
20.83
16.74
12.67
9.37
7.23
6.03
5.15
3.89
1.86
-0.77
-3.51
-5.89
-7.8
-9.48
-11.26
-13.3
-15.49
-17.68
-19.85
-22.21
-24.95
-27.95
-30.62
-32.04
-31.41
-28.44
-23.45
-17.3
-10.95
-5.14
-0.19
3.85
7.07
9.53
11.25
12.22
12.55
12.4
12.06
11.77
11.8
12.26
13.18
14.49
16.06
17.76
19.51
21.21
22.67
23.64
23.82
23
21.18
18.61
15.75
13.09
11.02
9.73
9.1
8.85
8.54
7.77
6.28
4
1.03
-2.32
-5.7
-8.79
-11.42
-13.71
-15.99
-18.68
-22.08
-26.07
-30.13
-33.34
-34.78
-33.82
-30.42
-25.04
-18.52
-11.67
-5.08
0.94
6.3
10.91
14.58
17.07
18.28
18.28
17.45
16.28
15.18
14.34
13.77
13.4
13.28
13.59
14.48
16
17.9
19.74
21.07
21.62
21.39
20.52
19.18
17.43
15.28
12.83
10.33
8.06
6.2
4.67
3.13
1.23
-1.17
-3.88
-6.47
-8.59
-10.22
-11.69
-13.57
-16.36
-20.21
-24.83
-29.57
-33.62
-36.3
-37.24
-36.31
-33.69
-29.6
-24.35
-18.25
-11.65
-4.96
1.33
6.77
10.99
13.81
15.24
15.48
14.84
13.71
12.59
11.99
12.31
13.74
16.16
19.21
22.34
25.04
26.94
27.84
27.73
26.78
25.26
23.47
21.66
19.94
18.26
16.53
14.62
12.53
10.35
8.22
6.21
4.23
2.19
0.08
-1.98
-3.73
-5.02
-5.91
-6.74
-8.03
-10.2
-13.41
-17.53
-22.22
-26.99
-31.37
-34.85
-36.89
-36.99
-34.84
-30.49
-24.41
-17.42
-10.43
-4.12
1.14
5.31
8.51
10.88
12.44
13.2
13.29
12.94
12.5
12.32
12.67
13.63
15.19
17.21
19.53
21.88
23.95
25.41
26.01
25.68
24.55
22.91
21.09
19.28
17.51
15.71
13.75
11.59
9.35
7.14
5.08
3.22
1.52
-0.1
-1.73
-3.37
-4.97
-6.49
-7.92
-9.4
-11.16
-13.4
-16.25
-19.69
-23.51
-27.37
-30.79
-33.22
-34.12
-33.06
-29.9
-24.83
-18.42
-11.49
-4.88
0.74
5.03
8.03
9.95
11.05
11.53
11.5
11.08
10.54
10.2
10.36
11.13
12.42
13.96
15.48
16.85
18.09
19.31
20.59
21.8
22.71
23.01
22.54
21.29
19.41
17.1
14.53
11.84
9.11
6.45
3.89
1.47
-0.83
-3.02
-5.11
-7.11
-9
-10.82
-12.6
-14.44
-16.41
-18.64
-21.2
-24.07
-27.09
-29.77
-31.55
-31.77
-30.02
-26.23
-20.73
-14.17
-7.31
-0.82
4.81
9.25
12.32
13.99
14.46
14.08
13.32
12.64
12.3
12.33
12.6
12.91
13.15
13.35
13.69
14.37
15.5
16.95
18.44
19.51
19.81
19.08
17.32
14.76
11.82
8.99
6.7
5.2
4.41
3.96
3.34
2.11
0.1
-2.53
-5.39
-8.07
-10.33
-12.22
-14
-16
-18.52
-21.67
-25.35
-29.17
-32.61
-35.01
-35.83
-34.76
-31.75
-27.07
-21.15
-14.53
-7.78
-1.49
3.85
7.89
10.55
11.98
12.53
12.55
12.33
12.05
11.78
11.62
11.71
12.15
13.03
14.31
15.78
17.2
18.3
18.93
19.03
18.64
17.85
16.77
15.48
14.03
12.45
10.78
9.05
7.34
5.72
4.18
2.66
1.03
-0.78
-2.75
-4.78
-6.65
-8.2
-9.41
-10.38
-11.36
-12.59
-14.33
-16.71
-19.68
-23.08
-26.51
-29.41
-31.21
-31.47
-29.93
-26.71
-22.16
-16.73
-10.95
-5.26
-0.04
4.42
7.93
10.4
11.76
12.06
11.42
10.17
8.74
7.7
7.42
8
9.21
10.66
12.05
13.28
14.43
15.66
16.99
18.25
19.13
19.31
18.58
16.97
14.65
11.88
9.01
6.34
4.08
2.31
0.98
-0.06
-0.93
-1.81
-2.82
-4.05
-5.57
-7.39
-9.44
-11.66
-14.1
-16.91
-20.25
-24.08
-28.02
-31.32
-33.07
-32.59
-29.69
-24.81
-18.84
-12.69
-7.04
-2.17
1.95
5.41
8.16
10.04
10.9
10.74
9.79
8.46
7.16
6.16
5.58
5.4
5.58
6.11
6.94
8.05
9.31
10.6
11.73
12.54
12.92
12.8
12.19
11.13
9.7
7.98
6.13
4.25
2.49
0.87
-0.63
-2.08
-3.57
-5.14
-6.75
-8.33
-9.87
-11.44
-13.2
-15.29
-17.75
-20.48
-23.34
-26.14
-28.62
-30.46
-31.19
-30.32
-27.5
-22.84
-16.92
-10.72
-5.25
-1.19
1.38
2.89
4.04
5.31
6.79
8.21
9.11
9.23
8.59
7.55
6.63
6.24
6.55
7.47
8.79
10.19
11.47
12.51
13.27
13.78
13.99
13.8
13.05
11.65
9.64
7.26
4.92
2.98
1.61
0.73
0.08
-0.63
-1.59
-2.86
-4.42
-6.28
-8.54
-11.28
-14.54
-18.21
-22.08
-25.86
-29.28
-32
-33.67
-33.99
-32.67
-29.63
-25
-19.16
-12.71
-6.33
-0.63
3.93
7.12
8.91
9.51
9.22
8.44
7.53
6.78
6.4
6.5
7.06
8.04
9.33
10.78
12.26
13.63
14.78
15.61
15.96
15.75
14.89
13.42
11.52
9.49
7.65
6.13
4.9
3.77
2.53
1.05
-0.64
-2.42
-4.16
-5.76
-7.21
-8.48
-9.61
-10.69
-11.91
-13.61
-16.07
-19.43
-23.49
-27.72
-31.37
-33.6
-33.78
-31.56
-27.09
-20.86
-13.76
-6.71
-0.49
4.43
7.92
10.17
11.46
12.09
12.28
12.31
12.39
12.73
13.42
14.38
15.38
16.18
16.64
16.76
16.71
16.67
16.82
17.17
17.64
18.04
18.1
17.6
16.38
14.5
12.19
9.83
7.79
6.22
5.05
4.01
2.79
1.25
-0.57
-2.47
-4.21
-5.7
-7.03
-8.43
-10.2
-12.52
-15.42
-18.76
-22.31
-25.79
-28.9
-31.26
-32.44
-32
-29.66
-25.41
-19.64
-13.09
-6.67
-1.14
3.09
5.99
7.83
8.95
9.59
9.87
9.9
9.91
10.23
11.18
12.85
15.04
17.27
19.07
20.17
20.62
20.7
20.75
20.9
21.02
20.86
20.23
19.09
17.57
15.83
13.94
11.9
9.74
7.64
5.86
4.62
3.85
3.25
2.35
0.81
-1.39
-3.9
-6.32
-8.4
-10.2
-12.03
-14.2
-16.87
-19.95
-23.24
-26.47
-29.31
-31.32
-32.05
-31.07
-28.19
-23.58
-17.7
-11.16
-4.62
1.3
6.1
9.41
11.06
11.22
10.37
9.16
8.19
7.81
8.03
8.65
9.5
10.53
11.8
13.32
14.96
16.48
17.68
18.48
18.95
19.23
19.33
19.03
18.06
16.25
13.67
10.73
7.96
5.81
4.36
3.43
2.61
1.56
0.12
-1.64
-3.52
-5.28
-6.77
-7.91
-8.71
-9.27
-9.74
-10.32
-11.28
-12.91
-15.37
-18.68
-22.51
-26.24
-29.03
-30.1
-28.96
-25.6
-20.48
-14.38
-8.08
-2.25
2.73
6.72
9.76
11.95
13.39
14.19
14.51
14.55
14.58
14.94
15.86
17.45
19.52
21.63
23.15
23.53
22.45
19.91
16.29
12.08
7.8
3.84
0.45
-2.2
-3.99
-4.8
-4.62
-3.59
-2.03
-0.42
0.73
1.15
0.86
0.13
-0.61
-1.1
-1.41
-1.87
-2.9
-4.75
-7.3
-10.19
-12.97
-15.44
-17.74
-20.25
-23.27
-26.74
-30.08
-32.43
-32.94
-31.18
-27.29
-21.9
-15.85
-9.92
-4.64
-0.26
3.2
5.87
7.94
9.6
10.97
12.09
12.9
13.34
13.42
13.3
13.22
13.43
14.05
14.98
16
16.88
17.49
17.81
17.92
17.87
17.64
17.15
16.3
15.1
13.65
12.09
10.6
9.21
7.88
6.46
4.83
2.98
1
-0.97
-2.78
-4.42
-5.95
-7.51
-9.21
-11.15
-13.37
-15.85
-18.57
-21.45
-24.36
-27.03
-29.08
-30.06
-29.6
-27.51
-23.9
-19.12
-13.73
-8.31
-3.36
0.84
4.2
6.82
8.83
10.35
11.36
11.76
11.5
10.66
9.5
8.44
7.91
8.11
9.02
10.36
11.8
13.06
14.01
14.64
14.99
15.05
14.79
14.14
13.06
11.55
9.73
7.76
5.86
4.19
2.79
1.56
0.33
-1.07
-2.69
-4.45
-6.11
-7.45
-8.37
-8.97
-9.56
-10.54
-12.27
-14.95
-18.48
-22.43
-26.16
-28.96
-30.2
-29.51
-26.86
-22.5
-16.98
-10.97
-5.13
-0.02
4.04
6.96
8.84
9.84
10.09
9.73
8.91
7.86
6.92
6.42
6.53
7.17
8.05
8.84
9.42
9.93
10.62
11.65
12.86
13.81
14.04
13.32
11.82
10.02
8.44
7.28
6.36
5.27
3.64
1.37
-1.29
-3.93
-6.18
-7.91
-9.19
-10.18
-11.06
-12.01
-13.21
-14.91
-17.31
-20.46
-24.12
-27.75
-30.65
-32.19
-31.98
-30.03
-26.61
-22.16
-17.12
-11.87
-6.7
-1.92
2.24
5.58
8.01
9.53
10.29
10.41
10.09
9.51
8.89
8.45
8.35
8.66
9.39
10.49
11.89
13.5
15.2
16.8
18.07
18.77
18.76
17.98
16.58
14.79
12.87
11.03
9.32
7.72
6.12
4.4
2.51
0.39
-1.92
-4.32
-6.67
-8.81
-10.68
-12.33
-13.96
-15.86
-18.33
-21.51
-25.26
-29.18
-32.65
-35
-35.67
-34.35
-31.07
-26.15
-20.18
-13.91
-7.98
-2.83
1.4
4.78
7.48
9.6
11.13
12
12.24
11.98
11.53
11.28
11.44
12.08
13.02
14.03
14.96
15.79
16.64
17.59
18.57
19.32
19.56
19.11
18.01
16.52
14.9
13.32
11.77
10.13
8.38
6.67
5.26
4.37
4.01
3.87
3.52
2.59
0.96
-1.18
-3.45
-5.54
-7.32
-8.92
-10.67
-12.87
-15.71
-19.18
-23.05
-26.91
-30.25
-32.52
-33.17
-31.83
-28.41
-23.17
-16.73
-9.97
-3.73
1.4
5.26
8.04
10.12
11.72
12.82
13.25
12.88
11.91
10.81
10.19
10.46
11.6
13.21
14.71
15.72
16.24
16.57
17.09
17.98
19.07
19.97
20.24
19.65
18.24
16.28
14.11
12.01
10.07
8.25
6.47
4.67
2.88
1.18
-0.36
-1.74
-3.04
-4.33
-5.64
-6.94
-8.17
-9.38
-10.72
-12.53
-15.1
-18.56
-22.7
-26.94
-30.5
-32.63
-32.85
-31.06
-27.48
-22.58
-16.88
-10.9
-5.1
0.15
4.58
8.05
10.61
12.4
13.59
14.22
14.29
13.78
12.8
11.68
10.81
10.56
11.02
12.04
13.26
14.3
14.98
15.31
15.4
15.38
15.3
15.01
14.4
13.31
11.76
9.88
7.89
6.05
4.46
3.09
1.79
0.42
-1.11
-2.73
-4.34
-5.85
-7.24
-8.57
-9.95
-11.5
-13.3
-15.42
-17.92
-20.75
-23.71
-26.37
-28.17
-28.59
-27.24
-24.07
-19.34
-13.6
-7.52
-1.82
2.97
6.55
8.97
10.53
11.64
12.6
13.46
14.06
14.13
13.51
12.33
10.98
9.91
9.47
9.78
10.72
12.08
13.55
14.88
15.84
16.21
15.88
14.79
13.06
10.89
8.58
6.41
4.58
3.17
2.09
1.15
0.11
-1.18
-2.76
-4.55
-6.41
-8.2
-9.9
-11.61
-13.5
-15.67
-18.15
-20.87
-23.61
-26.09
-27.9
-28.6
-27.78
-25.25
-21.17
-16.02
-10.47
-5.17
-0.53
3.29
6.31
8.61
10.23
11.25
11.76
11.96
12.07
12.22
12.43
12.64
12.79
12.94
13.28
13.99
15.13
16.52
17.79
18.55
18.49
17.61
16.12
14.39
12.7
11.23
9.87
8.47
6.82
4.87
2.65
0.33
-1.87
-3.8
-5.41
-6.78
-8.09
-9.46
-10.99
-12.67
-14.54
-16.66
-19.11
-21.88
-24.74
-27.21
-28.68
-28.63
-26.81
-23.39
-18.81
-13.65
-8.33
-3.12
1.81
6.29
10.09
12.94
14.64
15.15
14.57
13.17
11.38
9.63
8.4
8.11
8.92
10.7
13.07
15.39
17.11
17.91
17.79
17.07
16.12
15.23
14.47
13.72
12.73
11.3
9.45
7.37
5.36
3.63
2.28
1.14
-0.05
-1.56
-3.47
-5.69
-7.98
-10.06
-11.83
-13.32
-14.77
-16.45
-18.58
-21.15
-23.89
-26.3
-27.73
-27.66
-25.82
-22.4
-17.99
-13.26
-8.77
-4.67
-0.89
2.74
6.23
9.27
11.38
12.21
11.75
10.45
8.99
8.02
7.85
8.33
9.12
9.87
10.53
11.29
12.35
13.71
14.94
15.49
14.92
13.29
11.11
9.1
7.81
7.26
7.03
6.54
5.44
3.75
1.82
0.04
-1.36
-2.49
-3.61
-4.89
-6.34
-7.83
-9.27
-10.77
-12.67
-15.28
-18.74
-22.74
-26.57
-29.37
-30.41
-29.32
-26.29
-21.83
-16.56
-11.11
-5.96
-1.34
2.65
6.02
8.84
11.13
12.78
13.58
13.34
12.09
10.09
7.85
6.02
5.13
5.47
6.95
9.22
11.74
13.97
15.5
16.12
15.83
14.75
13.16
11.35
9.6
8.1
6.96
6.11
5.35
4.37
2.93
0.91
-1.54
-4.1
-6.44
-8.27
-9.51
-10.24
-10.68
-11.17
-12.08
-13.79
-16.45
-19.9
-23.58
-26.68
-28.43
-28.36
-26.41
-22.88
-18.26
-13.07
-7.72
-2.62
1.86
5.4
7.84
9.23
9.76
9.72
9.34
8.73
7.99
7.21
6.55
6.18
6.2
6.64
7.48
8.61
9.96
11.34
12.58
13.43
13.75
13.49
12.75
11.73
10.61
9.45
8.23
6.87
5.28
3.51
1.66
-0.09
-1.59
-2.78
-3.69
-4.44
-5.16
-6.04
-7.23
-8.91
-11.19
-14.16
-17.76
-21.67
-25.34
-28.1
-29.31
-28.62
-26.11
-22.2
-17.54
-12.78
-8.32
-4.3
-0.7
2.56
5.42
7.73
9.35
10.25
10.56
10.5
10.3
10.08
9.9
9.81
9.87
10.22
10.9
11.88
12.99
13.99
14.72
15.17
15.42
15.56
15.6
15.35
14.58
13.07
10.82
8.05
5.22
2.76
0.89
-0.43
-1.46
-2.49
-3.68
-5.01
-6.38
-7.74
-9.1
-10.59
-12.23
-14.03
-15.95
-18
-20.19
-22.35
-24.11
-24.81
-23.85
-20.88
-16.1
-10.17
-3.97
1.64
6.08
9.04
10.51
10.7
10.03
8.98
8.01
7.41
7.26
7.45
7.79
8.17
8.52
8.85
9.18
9.54
9.96
10.45
11.01
11.49
11.68
11.37
10.54
9.33
8.06
7.04
6.37
5.97
5.64
5.17
4.44
3.43
2.2
0.77
-0.79
-2.44
-4.05
-5.51
-6.77
-7.94
-9.3
-11.14
-13.64
-16.64
-19.64
-22.02
-23.16
-22.76
-20.86
-17.76
-13.79
-9.25
-4.38
0.48
4.95
8.5
10.75
11.51
10.99
9.63
7.96
6.39
5.2
4.52
4.42
5
6.25
8.06
10.08
11.81
12.85
12.99
12.38
11.37
10.35
9.49
8.71
7.77
6.43
4.67
2.63
0.58
-1.3
-2.98
-4.54
-6.08
-7.63
-9.12
-10.45
-11.63
-12.82
-14.28
-16.16
-18.45
-20.78
-22.57
-23.21
-22.27
-19.68
-15.71
-10.81
-5.56
-0.47
3.99
7.49
9.8
10.92
11.02
10.43
9.43
8.22
6.88
5.42
4.03
2.99
2.69
3.36
4.93
7.03
9.08
10.58
11.25
11.06
10.23
9.02
7.65
6.3
5.06
3.93
2.88
1.82
0.6
-0.9
-2.79
-5.05
-7.56
-10.07
-12.43
-14.51
-16.4
-18.24
-20.18
-22.21
-24.12
-25.52
-25.93
-25
-22.6
-18.82
-14
-8.62
-3.18
1.82
6.01
9.2
11.39
12.72
13.35
13.41
13.04
12.4
11.69
11.16
10.96
11.12
11.5
11.98
12.51
13.2
14.11
15.12
15.92
16.08
15.31
13.69
11.59
9.51
7.82
6.52
5.32
3.89
2.03
-0.2
-2.58
-4.85
-6.87
-8.62
-10.2
-11.64
-12.94
-14.07
-15.14
-16.4
-18.22
-20.91
-24.37
-28.04
-31.07
-32.6
-32.08
-29.45
-25.09
-19.62
-13.71
-7.9
-2.61
1.92
5.57
8.38
10.4
11.75
12.41
12.36
11.69
10.68
9.84
9.72
10.6
12.38
14.57
16.56
17.94
18.66
18.93
19.02
19.03
18.81
18.15
16.94
15.33
13.62
12.1
10.84
9.63
8.13
6.11
3.58
0.77
-1.98
-4.38
-6.31
-7.82
-9.09
-10.33
-11.75
-13.51
-15.72
-18.41
-21.53
-24.88
-28.15
-30.9
-32.61
-32.78
-31
-27.16
-21.54
-14.8
-7.85
-1.56
3.51
7.27
9.99
12.05
13.71
15.01
15.84
16.16
16.04
15.74
15.53
15.62
16.07
16.82
17.76
18.78
19.73
20.42
20.69
20.49
19.91
19.16
18.37
17.51
16.36
14.74
12.66
10.44
8.51
7.26
6.65
6.29
5.63
4.21
1.96
-0.79
-3.47
-5.6
-7
-7.85
-8.6
-9.72
-11.52
-14.14
-17.42
-21.08
-24.68
-27.69
-29.57
-29.93
-28.51
-25.35
-20.75
-15.24
-9.45
-3.99
0.72
4.51
7.42
9.61
11.25
12.39
12.97
12.95
12.43
11.77
11.45
11.85
13.04
14.73
16.43
17.71
18.4
18.62
18.68
18.79
18.96
19.05
18.87
18.33
17.46
16.36
15.13
13.78
12.31
10.74
9.11
7.49
5.84
4.14
2.36
0.54
-1.23
-2.88
-4.39
-5.9
-7.62
-9.7
-12.24
-15.18
-18.37
-21.61
-24.59
-26.95
-28.28
-28.2
-26.46
-23.05
-18.24
-12.57
-6.72
-1.34
3.11
6.41
8.6
9.86
10.4
10.44
10.18
9.79
9.47
9.41
9.75
10.56
11.72
13.04
14.28
15.28
15.95
16.3
16.41
16.36
16.23
16.02
15.66
15.04
14.01
12.54
10.69
8.64
6.56
4.6
2.79
1.04
-0.77
-2.7
-4.75
-6.78
-8.64
-10.19
-11.41
-12.38
-13.28
-14.35
-15.85
-17.84
-20.2
-22.56
-24.36
-25.05
-24.34
-22.21
-18.98
-15.05
-10.83
-6.66
-2.77
0.63
3.35
5.29
6.47
7.06
7.29
7.42
7.69
8.3
9.35
10.86
12.67
14.5
16.02
17.02
17.49
17.58
17.52
17.4
17.1
16.42
15.16
13.34
11.15
8.93
6.89
5.18
3.81
2.71
1.8
0.99
0.16
-0.8
-1.96
-3.38
-5.02
-6.79
-8.53
-10.12
-11.48
-12.67
-13.9
-15.44
-17.49
-19.95
-22.4
-24.1
-24.3
-22.56
-18.96
-14.16
-9.14
-4.84
-1.74
0.12
1.13
1.77
2.38
2.99
3.49
3.7
3.59
3.32
3.14
3.26
3.72
4.42
5.14
5.74
6.18
6.59
7.12
7.83
8.63
9.29
9.59
9.41
8.79
7.91
6.97
6.11
5.37
4.68
3.95
3.05
1.92
0.6
-0.83
-2.18
-3.31
-4.12
-4.67
-5.16
-5.83
-6.95
-8.62
-10.85
-13.53
-16.42
-19.18
-21.38
-22.56
-22.37
-20.72
-17.86
-14.32
-10.65
-7.26
-4.3
-1.68
0.74
3.07
5.19
6.9
7.98
8.34
8.04
7.31
6.37
5.46
4.76
4.39
4.5
5.14
6.3
7.81
9.39
10.7
11.5
11.65
11.2
10.31
9.18
7.98
6.78
5.56
4.27
2.86
1.32
-0.29
-1.82
-3.16
-4.22
-5.02
-5.59
-5.95
-6.16
-6.32
-6.61
-7.31
-8.72
-10.91
-13.66
-16.42
-18.47
-19.22
-18.41
-16.2
-13
-9.33
-5.6
-2.14
0.86
3.19
4.76
5.57
5.75
5.53
5.12
4.68
4.24
3.74
3.15
2.5
1.97
1.76
2.04
2.87
4.12
5.55
6.89
7.92
8.5
8.62
8.3
7.56
6.41
4.85
3.03
1.18
-0.39
-1.5
-2.13
-2.49
-2.91
-3.67
-4.88
-6.47
-8.19
-9.77
-11.01
-11.84
-12.36
-12.75
-13.25
-14.01
-15.07
-16.32
-17.48
-18.25
-18.25
-17.27
-15.19
-12.14
-8.41
-4.44
-0.67
2.55
5.1
6.98
8.3
9.11
9.38
9.02
8.02
6.54
4.91
3.52
2.73
2.64
3.18
4.09
5.13
6.08
6.83
7.33
7.59
7.57
7.33
6.89
6.34
5.76
5.16
4.54
3.8
2.85
1.64
0.23
-1.21
-2.45
-3.28
-3.68
-3.82
-3.98
-4.48
-5.51
-7.1
-9.18
-11.62
-14.23
-16.77
-18.94
-20.42
-21
-20.59
-19.3
-17.29
-14.78
-11.94
-8.95
-6
-3.28
-0.88
1.23
3.17
5.01
6.6
7.59
7.65
6.67
4.9
2.92
1.44
0.94
1.53
2.95
4.75
6.49
7.9
8.94
9.68
10.19
10.52
10.65
10.51
10.11
9.47
8.66
7.77
6.88
5.97
5.02
3.96
2.75
1.35
-0.22
-1.93
-3.71
-5.51
-7.26
-8.92
-10.46
-11.92
-13.39
-15.05
-17.06
-19.4
-21.81
-23.8
-24.81
-24.45
-22.68
-19.78
-16.21
-12.42
-8.7
-5.21
-2.08
0.51
2.37
3.37
3.61
3.34
2.88
2.48
2.25
2.16
2.2
2.37
2.71
3.21
3.81
4.41
4.94
5.45
6.07
6.91
7.95
8.98
9.66
9.68
8.97
7.66
6.11
4.65
3.47
2.54
1.61
0.38
-1.29
-3.38
-5.59
-7.55
-8.95
-9.74
-10.17
-10.66
-11.6
-13.14
-15.1
-17.13
-18.91
-20.33
-21.43
-22.31
-22.87
-22.82
-21.79
-19.55
-16.22
-12.24
-8.2
-4.54
-1.48
1.01
3.08
4.86
6.37
7.53
8.23
8.35
7.85
6.83
5.57
4.44
3.8
3.82
4.41
5.28
6.09
6.62
6.89
6.99
