21.98
19.6
16.3
12.68
9.51
7.49
7.09
8.39
10.98
14.12
17.02
19.05
20
20
19.35
18.26
16.7
14.43
11.2
6.93
1.89
-3.42
-8.38
-12.54
-15.74
-18.22
-20.48
-23.11
-26.64
-31.32
-37.06
-43.28
-48.99
-52.98
-54.07
-51.45
-45.01
-35.43
-23.96
-12.11
-1.21
7.84
14.7
19.38
22.07
23
22.43
20.71
18.34
15.93
14.12
13.36
13.82
15.34
17.49
19.72
21.58
22.84
23.43
23.49
23.15
22.43
21.2
19.2
16.2
12.19
7.42
2.33
-2.53
-6.78
-10.31
-13.33
-16.34
-19.9
-24.45
-30.07
-36.38
-42.53
-47.35
-49.61
-48.43
-43.49
-35.22
-24.64
-13.15
-2.11
7.45
14.95
20.21
23.32
24.51
24.05
22.32
19.81
17.16
15.02
13.88
13.95
15.06
16.78
18.56
20.02
21.04
21.69
22.15
22.44
22.38
21.57
19.66
16.47
12.23
7.48
2.89
-1.02
-4.07
-6.53
-8.96
-12
-16.16
-21.63
-28.19
-35.17
-41.55
-46.13
-47.77
-45.69
-39.74
-30.54
-19.31
-7.56
3.28
12.29
19.06
23.64
26.26
27.17
26.6
24.77
22.07
19.06
16.44
14.82
14.57
15.62
17.54
19.76
21.7
23.07
23.79
23.92
23.46
22.31
20.23
17.08
12.95
8.17
3.32
-1.09
-4.77
-7.77
-10.43
-13.21
-16.57
-20.81
-26.01
-31.94
-38.1
-43.61
-47.35
-48.18
-45.3
-38.55
-28.61
-16.81
-4.75
6.14
14.89
21.09
24.74
26
25.15
22.48
18.5
13.94
9.7
6.65
5.33
5.83
7.79
10.55
13.4
15.84
17.58
18.57
18.77
18.16
16.61
14.06
10.59
6.51
2.29
-1.61
-4.9
-7.65
-10.18
-13.02
-16.62
-21.27
-26.89
-33.02
-38.82
-43.2
-45.05
-43.52
-38.37
-30.01
-19.54
-8.41
1.99
10.58
16.84
20.66
22.24
21.86
19.87
16.66
12.75
8.83
5.64
3.84
3.8
5.48
8.44
11.91
15.1
17.34
18.23
17.7
15.91
13.15
9.74
6.01
2.22
-1.4
-4.73
-7.79
-10.81
-14.18
-18.29
-23.4
-29.35
-35.52
-40.81
-43.94
-43.75
-39.68
-31.9
-21.39
-9.62
1.8
11.56
18.92
23.65
25.9
25.97
24.22
21.03
16.99
12.82
9.35
7.25
6.79
7.83
9.83
12.2
14.42
16.21
17.42
17.88
17.39
15.74
12.85
8.92
4.35
-0.32
-4.64
-8.38
-11.64
-14.75
-18.23
-22.6
-28.22
-35.06
-42.53
-49.5
-54.45
-55.93
-53.03
-45.68
-34.76
-21.73
-8.27
4.19
14.65
22.64
28.03
30.9
31.45
30.02
27.15
23.54
19.97
17.21
15.77
15.82
17.14
19.2
21.34
23
23.86
23.89
23.25
22.05
20.27
17.74
14.28
9.91
4.93
-0.16
-4.85
-8.87
-12.34
-15.72
-19.58
-24.39
-30.32
-37.04
-43.76
-49.31
-52.37
-51.84
-47.19
-38.66
-27.26
-14.51
-2.04
8.87
17.52
23.76
27.79
29.9
30.34
29.34
27.23
24.52
21.91
20.1
19.58
20.47
22.45
24.89
27.15
28.73
29.44
29.35
28.62
27.4
25.7
23.41
20.39
16.61
12.23
7.58
3.08
-0.92
-4.3
-7.24
-10.15
-13.64
-18.25
-24.24
-31.42
-39.03
-45.86
-50.51
-51.75
-48.91
-42.04
-31.96
-19.98
-7.61
3.84
13.42
20.63
25.33
27.66
27.92
26.54
24.05
21.02
18.1
15.91
14.93
15.35
17.04
19.48
22.02
24.04
25.2
25.49
25.04
24.01
22.37
19.94
16.55
12.24
7.31
2.3
-2.28
-6.11
-9.18
-11.78
-14.38
-17.51
-21.59
-26.81
-32.94
-39.28
-44.7
-47.86
-47.61
-43.38
-35.36
-24.53
-12.34
-0.33
10.22
18.49
24.07
26.88
27.06
24.98
21.19
16.52
11.96
8.45
6.69
6.96
9.03
12.31
16.07
19.65
22.55
24.47
25.23
24.7
22.86
19.8
15.82
11.33
6.8
2.6
-1.12
-4.46
-7.67
-11.12
-15.16
-20.06
-25.9
-32.44
-38.91
-44.12
-46.64
-45.29
-39.63
-30.19
-18.4
-6.12
4.98
13.81
19.96
23.53
24.79
23.99
21.4
17.48
12.99
8.92
6.24
5.51
6.71
9.32
12.53
15.64
18.16
19.88
20.71
20.54
19.24
16.72
13.1
8.67
3.87
-0.88
-5.31
-9.33
-13.03
-16.62
-20.38
-24.61
-29.63
-35.57
-42.21
-48.75
-53.93
-56.25
-54.5
-48.22
-37.97
-25.16
-11.64
0.92
11.36
19.21
24.42
27.21
27.82
26.55
23.84
20.41
17.09
14.75
13.91
14.66
16.67
19.3
21.89
23.95
25.23
25.7
25.34
24.12
21.92
18.67
14.4
9.4
4.1
-0.98
-5.49
-9.33
-12.77
-16.33
-20.58
-25.91
-32.32
-39.3
-45.85
-50.66
-52.4
-50.15
-43.69
-33.66
-21.43
-8.67
3.06
12.74
20.04
25.09
28.26
29.8
29.81
28.39
25.82
22.71
19.88
18.13
17.86
18.94
20.83
22.8
24.31
25.08
25.21
24.85
24.15
23.05
21.4
19.05
15.91
12.1
7.87
3.56
-0.49
-4.03
-7.04
-9.74
-12.58
-16.16
-20.99
-27.28
-34.7
-42.41
-49.05
-53.13
-53.43
-49.36
-41.21
-29.97
-17.17
-4.37
7.24
16.9
24.36
29.6
32.65
33.58
32.56
29.98
26.52
23.08
20.55
19.54
20.21
22.21
24.8
27.16
28.67
29.09
28.56
27.45
26.14
24.79
23.35
21.49
18.89
15.4
11.09
6.35
1.62
-2.72
-6.54
-9.98
-13.38
-17.15
-21.6
-26.87
-32.91
-39.4
-45.7
-50.85
-53.66
-53.03
-48.31
-39.64
-27.99
-14.95
-2.19
8.93
17.68
23.9
27.74
29.44
29.16
27.1
23.64
19.54
15.71
13.11
12.33
13.42
15.93
19.01
21.85
23.88
24.92
25.1
24.68
23.79
22.35
20.13
16.95
12.84
8.15
3.45
-0.74
-4.11
-6.75
-9.05
-11.56
-14.79
-19.11
-24.58
-30.98
-37.73
-43.91
-48.3
-49.64
-47.05
-40.35
-30.24
-18.13
-5.77
5.34
14.2
20.45
24.15
25.51
24.76
22.22
18.35
13.93
9.89
7.08
6.02
6.72
8.75
11.44
14.14
16.44
18.11
19.1
19.4
18.92
17.51
15.11
11.74
7.64
3.16
-1.29
-5.38
-8.98
-12.19
-15.34
-18.88
-23.23
-28.65
-34.98
-41.55
-47.27
-50.79
-50.87
-46.86
-38.87
-27.8
-15.14
-2.53
8.66
17.52
23.74
27.37
28.69
28
25.66
22.15
18.16
14.55
12.14
11.42
12.38
14.52
17.09
19.35
20.89
21.56
21.46
20.7
19.24
16.97
13.73
9.49
4.48
-0.87
-6.01
-10.47
-14.03
-16.82
-19.28
-22.02
-25.68
-30.62
-36.78
-43.51
-49.66
-53.77
-54.53
-51.13
-43.61
-32.83
-20.31
-7.68
3.69
12.93
19.74
24.12
26.23
26.28
24.52
21.39
17.55
13.88
11.24
10.22
10.96
13.1
15.89
18.53
20.46
21.49
21.74
21.46
20.78
19.57
17.48
14.21
9.68
4.21
-1.55
-6.86
-11.14
-14.24
-16.5
-18.56
-21.21
-25.06
-30.31
-36.69
-43.42
-49.32
-53.03
-53.36
-49.6
-41.83
-30.91
-18.31
-5.66
5.7
14.91
21.7
26.12
28.34
28.5
26.8
23.62
19.62
15.7
12.76
11.42
11.82
13.58
16.05
18.52
20.5
21.77
22.37
22.45
22.07
21.19
19.64
17.26
13.98
9.9
5.32
0.64
-3.78
-7.71
-11.18
-14.48
-18.02
-22.32
-27.73
-34.29
-41.49
-48.36
-53.48
-55.46
-53.31
-46.82
-36.73
-24.46
-11.66
0.22
10.24
17.96
23.27
26.22
26.92
25.68
23.02
19.68
16.49
14.16
13.07
13.27
14.47
16.24
18.11
19.73
20.89
21.51
21.6
21.19
20.23
18.6
16.15
12.81
8.7
4.18
-0.28
-4.25
-7.53
-10.21
-12.69
-15.49
-19.12
-23.87
-29.65
-35.85
-41.43
-45.07
-45.53
-42.07
-34.73
-24.41
-12.6
-0.96
9.13
16.85
21.96
24.56
24.94
23.37
20.24
16.08
11.66
7.83
5.33
4.59
5.56
7.75
10.46
13
14.91
16.02
16.37
16.1
15.24
13.68
11.28
7.98
3.97
-0.32
-4.35
-7.7
-10.28
-12.42
-14.74
-17.9
-22.38
-28.2
-34.82
-41.21
-46.03
-47.97
-46.11
-40.18
-30.72
-18.98
-6.62
4.72
13.76
19.87
23
23.53
22.02
19.03
15.09
10.77
6.74
3.71
2.29
2.76
4.92
8.12
11.54
14.45
16.4
17.27
17.06
15.84
13.57
10.26
6.07
1.37
-3.32
-7.55
-11.17
-14.41
-17.77
-21.84
-26.91
-32.78
-38.65
-43.25
-45.16
-43.33
-37.42
-27.98
-16.36
-4.29
6.63
15.29
21.21
24.42
25.21
23.92
20.87
16.47
11.36
6.34
2.29
-0.04
-0.3
1.35
4.34
7.8
10.86
12.87
13.52
12.76
10.8
7.85
4.13
-0.17
-4.88
-9.77
-14.64
-19.36
-24.01
-28.82
-34.09
-39.85
-45.69
-50.54
-52.99
-51.72
-46.08
-36.42
-24.06
-10.87
1.37
11.47
18.96
23.92
26.64
27.36
26.27
23.67
20.09
16.34
13.3
11.61
11.48
12.67
14.67
16.86
18.78
20.16
20.88
20.87
20.03
18.23
15.4
11.61
7.08
2.19
-2.66
-7.18
-11.3
-15.21
-19.33
-24.1
-29.86
-36.62
-43.89
-50.72
-55.75
-57.6
-55.25
-48.41
-37.7
-24.52
-10.67
2.18
12.86
20.82
26.08
28.92
29.69
28.78
26.64
23.79
20.92
18.63
17.38
17.33
18.34
20.1
22.17
24.15
25.7
26.61
26.77
26.17
24.82
22.74
19.88
16.17
11.69
6.64
1.44
-3.44
-7.68
-11.31
-14.76
-18.7
-23.79
-30.28
-37.81
-45.32
-51.32
-54.27
-53.04
-47.32
-37.69
-25.43
-12.16
0.63
11.86
20.92
27.6
31.91
33.91
33.81
32
29.13
26.04
23.61
22.5
22.94
24.73
27.26
29.8
31.68
32.58
32.52
31.75
30.58
29.15
27.35
24.94
21.71
17.64
13
8.2
3.64
-0.43
-4.05
-7.47
-11.12
-15.43
-20.72
-27.07
-34.18
-41.3
-47.26
-50.73
-50.54
-46.07
-37.49
-25.76
-12.35
1.08
13.1
22.74
29.53
33.41
34.64
33.65
31
27.39
23.62
20.48
18.63
18.39
19.64
21.86
24.33
26.4
27.68
28.1
27.91
27.38
26.62
25.5
23.73
21.03
17.35
12.96
8.34
4
0.29
-2.79
-5.5
-8.27
-11.55
-15.69
-20.88
-27.07
-33.8
-40.17
-44.9
-46.64
-44.4
-38
-28.15
-16.27
-4.05
7.07
16.18
22.9
27.23
29.22
28.96
26.65
22.74
18.06
13.68
10.64
9.62
10.69
13.31
16.62
19.76
22.15
23.59
24.12
23.88
22.92
21.19
18.6
15.13
11
6.54
2.21
-1.64
-4.84
-7.54
-10.14
-13.18
-17.13
-22.19
-28.18
-34.48
-40.18
-44.21
-45.58
-43.62
-38.13
-29.5
-18.66
-6.89
4.44
14.15
21.48
26.1
28.03
27.58
25.22
21.55
17.34
13.42
10.58
9.39
10.02
12.18
15.23
18.35
20.85
22.29
22.59
21.94
20.58
18.68
16.27
13.25
9.53
5.14
0.36
-4.39
-8.65
-12.21
-15.16
-17.96
-21.25
-25.6
-31.25
-37.89
-44.73
-50.52
-53.92
-53.82
-49.66
-41.62
-30.65
-18.21
-5.89
5.03
13.73
19.96
23.8
25.51
25.42
23.81
21.12
17.92
14.92
12.81
12.06
12.76
14.59
16.95
19.21
20.87
21.7
21.7
21.05
19.83
18.01
15.46
12.07
7.95
3.44
-0.92
-4.64
-7.49
-9.64
-11.57
-13.98
-17.48
-22.38
-28.55
-35.34
-41.75
-46.53
-48.55
-47.03
-41.8
-33.38
-22.82
-11.49
-0.67
8.62
15.82
20.73
23.45
24.23
23.36
21.28
18.49
15.65
13.39
12.22
12.38
13.73
15.84
18.15
20.14
21.47
22.06
21.93
21.18
19.85
17.89
15.25
11.96
8.19
4.25
0.51
-2.77
-5.57
-8.1
-10.78
-14.06
-18.24
-23.42
-29.4
-35.68
-41.48
-45.77
-47.44
-45.6
-39.9
-30.8
-19.54
-7.78
2.95
11.62
17.89
21.97
24.21
24.85
23.98
21.68
18.28
14.45
11.07
8.96
8.5
9.56
11.54
13.71
15.44
16.5
16.96
17.08
17.02
16.69
15.8
14
11.14
7.36
3.11
-1.07
-4.74
-7.76
-10.36
-13.02
-16.26
-20.51
-25.89
-32.13
-38.59
-44.3
-48.12
-48.98
-46.22
-39.78
-30.31
-19.06
-7.55
2.82
11.1
16.83
20.07
21.11
20.36
18.27
15.29
11.96
8.87
6.57
5.49
5.78
7.3
9.67
12.35
14.8
16.56
17.33
17.01
15.62
13.35
10.42
7.1
3.64
0.22
-3.01
-6.05
-9
-12.05
-15.45
-19.46
-24.19
-29.53
-34.97
-39.63
-42.38
-42.2
-38.49
-31.4
-21.82
-11.18
-0.97
7.63
13.95
17.85
19.51
19.29
17.52
14.6
10.95
7.12
3.75
1.43
0.57
1.33
3.47
6.49
9.69
12.36
13.92
14.11
12.97
10.81
7.99
4.85
1.62
-1.55
-4.65
-7.66
-10.67
-13.86
-17.47
-21.76
-26.74
-31.98
-36.58
-39.37
-39.26
-35.65
-28.72
-19.35
-8.94
1.12
9.67
16.07
20.06
21.74
21.39
19.4
16.29
12.73
9.43
6.99
5.83
5.96
7.11
8.83
10.64
12.21
13.38
14.06
14.16
13.5
11.84
9.03
5.14
0.51
-4.35
-8.87
-12.69
-15.81
-18.56
-21.54
-25.33
-30.28
-36.26
-42.62
-48.23
-51.78
-52.09
-48.51
-41.15
-30.92
-19.2
-7.5
2.94
11.43
17.76
22.02
24.38
25
24.02
21.74
18.74
15.79
13.67
12.88
13.42
14.86
16.52
17.8
18.42
18.48
18.25
17.92
17.41
16.34
14.31
11.11
6.95
2.34
-2.09
-5.94
-9.15
-12
-14.97
-18.5
-22.92
-28.3
-34.39
-40.6
-45.95
-49.3
-49.54
-46.06
-38.96
-29.09
-17.83
-6.66
3.24
11.29
17.34
21.6
24.24
25.37
25.05
23.51
21.25
19
17.46
17.11
17.96
19.63
21.53
23.16
24.29
24.95
25.32
25.49
25.31
24.51
22.75
19.83
15.83
11.14
6.32
1.9
-1.81
-4.81
-7.39
-10.04
-13.22
-17.3
-22.4
-28.41
-34.77
-40.66
-44.89
-46.31
-44.14
-38.22
-29.23
-18.43
-7.32
2.83
11.28
17.79
22.46
25.42
26.75
26.5
24.9
22.52
20.14
18.6
18.47
19.85
22.34
25.25
27.89
29.78
30.77
30.95
30.51
29.56
28.12
26.09
23.37
19.97
16.02
11.81
7.63
3.74
0.22
-2.97
-6.04
-9.21
-12.72
-16.79
-21.58
-27.1
-33.1
-38.95
-43.7
-46.2
-45.45
-41.02
-33.22
-23.07
-12.02
-1.52
7.35
14.07
18.55
21
21.67
20.78
18.66
15.76
12.78
10.51
9.64
10.5
12.88
16.18
19.57
22.31
24.07
24.88
25.03
24.74
24.03
22.64
20.25
16.76
12.44
7.86
3.69
0.32
-2.24
-4.38
-6.7
-9.76
-13.9
-19.12
-25.11
-31.27
-36.73
-40.48
-41.59
-39.4
-33.81
-25.35
-15.07
-4.3
5.63
13.72
19.39
22.5
23.25
22.04
19.36
15.76
11.86
8.29
5.7
4.58
5.13
7.15
10.11
13.34
16.18
18.23
19.33
19.47
18.7
17.04
14.5
11.21
7.45
3.64
0.18
-2.72
-5.14
-7.48
-10.29
-14.03
-18.93
-24.73
-30.71
-35.77
-38.77
-38.75
-35.27
-28.56
-19.5
-9.39
0.42
8.84
15.23
19.37
21.38
21.46
19.88
17
13.34
9.61
6.55
4.78
4.6
5.89
8.19
10.94
13.63
15.88
17.45
18.15
17.83
16.36
13.77
10.25
6.16
1.93
-2.05
-5.56
-8.62
-11.46
-14.47
-18.07
-22.62
-28.18
-34.42
-40.48
-45.17
-47.19
-45.6
-40.16
-31.48
-20.84
-9.76
0.38
8.72
14.97
19.23
21.77
22.81
22.54
21.12
18.88
16.29
13.96
12.42
11.97
12.62
14.03
15.72
17.26
18.4
19.07
19.33
19.12
18.33
16.67
13.96
10.26
5.87
1.39
-2.59
-5.66
-7.77
-9.29
-10.84
-13.12
-16.64
-21.6
-27.75
-34.46
-40.69
-45.24
-47.01
-45.23
-39.79
-31.28
-20.86
-9.96
0.12
8.48
14.76
19
21.43
22.31
21.91
20.51
18.51
16.39
14.68
13.76
13.79
14.67
16.09
17.67
19.07
20.12
20.72
20.82
20.37
19.24
17.31
14.49
10.91
6.85
2.72
-1.03
-4.14
-6.58
-8.62
-10.78
-13.57
-17.41
-22.35
-28.01
-33.56
-37.91
-39.93
-38.78
-34.19
-26.6
-17.04
-6.81
2.84
11.04
17.33
21.62
23.99
24.55
23.48
21.03
17.76
14.4
11.79
10.5
10.71
12.16
14.24
16.31
17.93
18.95
19.46
19.58
19.34
18.58
17.06
14.62
11.35
7.57
3.75
0.27
-2.73
-5.37
-7.99
-10.99
-14.68
-19.22
-24.53
-30.22
-35.59
-39.7
-41.47
-40.06
-35.19
-27.26
-17.34
-6.86
2.86
10.85
16.71
20.37
22.01
21.84
20.09
17.11
13.38
9.56
6.32
4.18
3.44
4.09
5.83
8.25
10.83
13.07
14.54
15
14.41
12.91
10.74
8.16
5.37
2.45
-0.54
-3.58
-6.67
-9.83
-13.26
-17.2
-21.83
-27.03
-32.2
-36.31
-38.14
-36.75
-31.89
-24.1
-14.6
-4.84
3.87
10.76
15.56
18.37
19.44
18.97
17.13
14.17
10.54
6.89
3.99
2.45
2.58
4.2
6.73
9.4
11.48
12.47
12.24
10.94
8.85
6.32
3.57
0.74
-2.08
-4.88
-7.69
-10.64
-13.94
-17.86
-22.58
-27.96
-33.41
-37.9
-40.21
-39.33
-34.85
-27.14
-17.28
-6.75
3.06
11.12
16.94
20.42
21.7
21.04
18.76
15.31
11.31
7.48
4.51
2.88
2.75
3.89
5.83
8.02
9.95
11.31
11.94
11.71
10.57
8.47
5.5
1.89
-2
-5.81
-9.31
-12.55
-15.85
-19.65
-24.31
-29.86
-35.9
-41.6
-45.9
-47.74
-46.38
-41.62
-33.9
-24.18
-13.66
-3.5
5.46
12.73
18.11
21.54
23.04
22.73
20.9
18.09
15
12.32
10.58
9.99
10.46
11.73
13.44
15.23
16.8
17.85
18.11
17.38
15.57
12.73
9.07
4.92
0.65
-3.38
-6.95
-10.04
-12.81
-15.58
-18.76
-22.7
-27.55
-33.14
-38.86
-43.72
-46.59
-46.41
-42.61
-35.34
-25.42
-14.22
-3.2
6.45
14.02
19.34
22.6
24.12
24.22
23.16
21.26
18.92
16.65
14.97
14.27
14.7
16.1
18.12
20.29
22.17
23.44
23.88
23.38
21.91
19.5
16.25
12.34
8.08
3.81
-0.14
-3.59
-6.57
-9.42
-12.64
-16.76
-21.98
-28.07
-34.23
-39.24
-41.78
-40.92
-36.34
-28.48
-18.43
-7.58
2.78
11.64
18.43
22.92
25.1
25.13
23.3
20.11
16.28
12.62
9.88
8.57
8.77
10.22
12.41
14.78
16.87
18.38
19.15
19.07
18.11
16.32
13.85
10.89
7.72
4.56
1.61
-1.13
-3.77
-6.63
-10.15
-14.71
-20.46
-27.12
-33.91
-39.66
-43.1
-43.23
-39.64
-32.58
-22.95
-12.03
-1.21
8.31
15.71
20.6
23
23.17
21.52
18.56
14.86
11.11
8.01
6.22
6.14
7.74
10.65
14.15
17.45
19.88
21.02
20.75
19.16
16.53
13.24
9.69
6.25
3.13
0.38
-2.18
-4.91
-8.17
-12.3
-17.4
-23.27
-29.33
-34.65
-38.07
-38.54
-35.39
-28.69
-19.28
-8.6
1.78
10.54
16.98
20.98
22.79
22.82
21.4
18.81
15.43
11.84
8.73
6.78
6.39
7.55
9.84
12.56
14.96
16.49
16.84
16
14.19
11.67
8.75
5.64
2.44
-0.84
-4.2
-7.7
-11.4
-15.41
-19.89
-24.92
-30.29
-35.35
-39.06
-40.16
-37.68
-31.36
-21.85
-10.54
0.86
10.87
18.56
23.68
26.46
27.36
26.81
25.14
22.68
19.78
16.94
14.68
13.44
13.42
14.5
16.18
17.83
18.78
18.64
17.37
15.22
12.58
9.81
7.06
4.27
1.32
-1.9
-5.4
-9.1
-13.01
-17.23
-21.93
-27.04
-32.18
-36.44
-38.67
-37.82
-33.41
-25.78
-16.03
-5.71
3.79
11.52
17.18
20.96
23.19
24.1
23.78
22.23
19.67
16.57
13.66
11.64
10.96
11.64
13.29
15.26
16.9
17.75
17.59
16.45
14.55
12.17
9.51
6.68
3.64
0.27
-3.58
-8.04
-13.14
-18.73
-24.43
-29.54
-33.15
-34.3
-32.29
-26.92
-18.71
-8.79
1.44
10.66
17.92
22.82
25.38
25.83
24.56
21.97
18.58
14.99
11.87
9.8
9.08
9.64
11.02
12.57
13.67
13.92
13.26
11.86
10.03
8.03
5.96
3.76
1.26
-1.72
-5.33
-9.6
-14.41
-19.44
-24.13
-27.74
-29.46
-28.61
-24.86
-18.39
-9.88
-0.39
8.9
17.01
23.27
27.39
29.38
29.41
27.76
24.85
21.22
17.52
14.4
12.34
11.5
11.71
12.56
13.55
14.27
14.46
14.02
12.96
11.31
9.2
6.75
4.11
1.38
-1.38
-4.21
-7.24
-10.62
-14.55
-19.08
-24.1
-29.14
-33.4
-35.88
-35.66
-32.23
-25.75
-17.04
-7.35
2
9.96
15.95
19.79
21.6
21.59
20.07
17.37
13.96
10.43
7.42
5.5
4.99
5.9
7.9
10.43
12.89
14.78
15.82
15.88
15.02
13.32
10.89
7.91
4.57
1.16
-2.11
-5.09
-7.86
-10.65
-13.83
-17.69
-22.26
-27.23
-31.85
-35.15
-36.12
-34.12
-29.04
-21.44
-12.42
-3.26
4.83
11.03
14.99
16.78
16.71
15.18
12.62
9.42
6.07
3.08
1
0.27
1.03
3.09
5.9
8.72
10.88
11.95
11.85
10.83
9.23
7.37
5.42
3.32
0.95
-1.84
-5.17
-9.11
-13.68
-18.75
-23.99
-28.77
-32.23
-33.43
-31.72
-27.02
-19.93
-11.58
-3.27
3.92
9.37
12.94
14.78
15.19
14.39
12.6
10.03
7.04
4.11
1.79
0.52
0.55
1.77
3.75
5.89
7.56
8.36
8.13
7.03
5.3
3.2
0.87
-1.66
-4.43
-7.48
-10.84
-14.62
-18.97
-23.96
-29.4
-34.72
-38.97
-41.04
-40.05
-35.67
-28.28
-18.91
-8.88
0.52
8.34
14.07
17.6
19.12
18.98
17.62
15.51
13.12
10.85
8.97
7.68
7.08
7.2
8.02
9.38
10.97
12.39
13.2
13.09
11.92
9.81
7.02
3.86
0.57
-2.7
-5.88
-8.95
-11.99
-15.15
-18.72
-22.93
-27.78
-32.81
-37.17
-39.79
-39.71
-36.51
-30.39
-22.14
-12.93
-3.97
3.77
9.65
13.42
15.18
15.28
14.24
12.6
10.82
9.23
8.06
7.45
7.5
8.24
9.58
11.28
13.05
14.5
15.36
15.47
14.76
13.29
11.11
8.33
5.12
1.69
-1.74
-4.98
-8.02
-10.99
-14.19
-17.93
-22.32
-27.16
-31.83
-35.4
-36.88
-35.51
-31.05
-23.89
-14.89
-5.24
3.93
11.74
17.64
21.42
23.14
23.02
21.46
18.91
15.92
13.05
10.74
9.3
8.84
9.27
10.33
11.69
13.04
14.1
14.64
14.59
13.85
12.45
10.47
8.06
5.43
2.79
0.24
-2.27
-4.9
-7.89
-11.44
-15.64
-20.44
-25.66
-30.86
-35.41
-38.48
-39.22
-37.03
-31.8
-24.08
-14.93
-5.67
2.53
8.94
13.28
15.66
16.36
15.67
13.85
11.22
8.21
5.33
3.15
2.1
2.42
4.02
6.56
9.43
11.99
13.62
13.99
13.08
11.16
8.62
5.82
2.95
0.04
-2.99
-6.17
-9.51
-13
-16.69
-20.64
-24.83
-28.93
-32.26
-33.86
-32.86
-28.82
-21.94
-13.09
-3.56
5.38
12.76
18.07
21.21
22.4
21.86
19.83
16.62
12.67
8.62
5.25
3.29
3.11
4.64
7.33
10.39
13.07
14.87
15.55
15.17
13.8
11.56
8.52
4.76
0.36
-4.56
-9.95
-15.78
-22.02
-28.53
-34.93
-40.58
-44.67
-46.35
-45.02
-40.54
-33.32
-24.29
-14.7
-5.75
1.61
6.96
10.3
11.89
12.07
11.12
9.24
6.67
3.89
1.47
0.05
0.04
1.45
3.82
6.43
8.51
9.58
9.49
8.45
6.76
4.68
2.36
-0.18
-2.96
-5.94
-9.09
-12.47
-16.25
-20.71
-25.95
-31.66
-37.03
-40.81
-41.77
-39.1
-32.8
-23.65
-13
-2.33
7.16
14.74
20.14
23.46
24.97
25.05
24.05
22.36
20.28
18.12
16.18
14.79
14.17
14.43
15.44
16.84
18.15
18.95
19
18.24
16.75
14.64
11.98
8.84
5.39
1.84
-1.55
-4.68
-7.68
-10.91
-14.8
-19.66
-25.43
-31.52
-36.96
-40.49
-40.98
-37.78
-30.95
-21.36
-10.36
0.53
10.12
17.71
23.08
26.35
27.69
27.33
25.51
22.66
19.41
16.53
14.7
14.33
15.42
17.53
20
22.23
23.82
24.69
24.97
24.81
24.21
22.92
20.67
17.32
13.07
8.44
4.04
0.29
-2.78
-5.55
-8.58
-12.4
-17.29
-23.18
-29.66
-36.02
-41.34
-44.59
-44.89
-41.65
-34.9
-25.26
-13.91
-2.23
8.47
17.22
23.55
27.37
28.89
28.5
26.7
24.06
21.21
18.75
17.21
16.82
17.55
19.08
20.96
22.73
24.05
24.83
25.05
24.8
24.06
22.74
20.68
17.79
14.17
10.12
6.05
2.34
-0.84
-3.58
-6.24
-9.35
-13.39
-18.56
-24.69
-31.14
-36.88
-40.7
-41.54
-38.79
-32.51
-23.47
-12.86
-2.11
7.59
15.43
21.03
24.32
25.43
24.58
22.1
18.48
14.43
10.8
8.37
7.6
8.46
10.5
13.07
15.55
17.55
18.93
19.69
19.77
19.08
17.46
14.89
11.56
7.82
4.09
0.68
-2.3
-5
-7.73
-10.87
-14.73
-19.42
-24.75
-30.19
-34.83
-37.63
-37.65
-34.41
-28.05
-19.37
-9.55
0.17
8.78
15.65
20.44
23.04
23.45
21.83
18.55
14.24
9.77
6
3.65
3.04
4.08
6.37
9.29
12.22
14.62
16.12
16.51
15.74
13.86
11.08
7.67
3.93
0.12
-3.55
-7.02
-10.4
-13.92
-17.88
-22.44
-27.44
-32.21
-35.76
-36.98
-35.07
-29.89
-22.04
-12.68
-3.13
5.47
12.41
17.39
20.41
21.58
21.1
19.26
16.45
13.19
10.11
7.76
6.56
6.66
7.9
9.9
12.13
13.98
15.02
14.93
13.64
11.22
7.89
4.01
-0.06
-3.93
-7.32
-10.13
-12.54
-14.96
-17.88
-21.76
-26.71
-32.42
-38.08
-42.53
-44.54
-43.13
-37.93
-29.33
-18.44
-6.79
4.06
12.91
19.15
22.79
24.18
23.85
22.23
19.6
16.28
12.65
9.24
6.68
5.45
5.72
7.29
9.62
12.05
14.05
15.31
15.69
15.23
13.97
11.96
9.25
6.02
2.5
-1.08
-4.55
-7.93
-11.42
-15.34
-19.99
-25.47
-31.5
-37.39
-42.08
-44.4
-43.42
-38.79
-30.92
-20.88
-10.06
0.17
8.84
15.5
20.06
22.69
23.6
23.02
21.27
18.82
16.26
14.19
13.06
13.05
13.99
15.49
17.11
18.49
19.43
19.9
19.84
19.19
17.77
15.45
12.24
8.4
4.37
0.64
-2.45
-4.84
-6.79
-8.8
-11.42
-15.11
-20.07
-26.09
-32.52
-38.32
-42.25
-43.17
-40.46
-34.19
-25.18
-14.73
-4.21
5.28
13.07
18.9
22.78
24.8
25.12
24.02
21.9
19.34
16.95
15.25
14.56
14.91
16.07
17.72
19.49
21.07
22.25
22.89
22.88
22.17
20.72
18.53
15.68
12.33
8.69
5.02
1.49
-1.77
-4.78
-7.7
-10.81
-14.41
-18.74
-23.84
-29.36
-34.54
-38.31
-39.59
-37.61
-32.21
-23.96
-14.03
-3.81
5.38
12.66
17.62
20.3
20.94
19.91
17.65
14.62
11.39
8.51
6.51
5.7
6.12
7.61
9.8
12.3
14.75
16.86
18.36
19.02
18.67
17.24
14.85
11.77
8.39
5.06
1.94
-1.04
-4.08
-7.48
-11.44
-16.08
-21.29
-26.75
-31.86
-35.73
-37.43
-36.2
-31.73
-24.42
-15.24
-5.56
3.29
10.35
15.14
17.63
18.06
16.81
14.27
10.88
7.14
3.64
0.97
-0.42
-0.31
1.2
3.72
6.7
9.61
12.04
13.7
14.46
14.25
13.11
11.13
8.55
5.67
2.78
0.08
-2.48
-5.14
-8.24
-12.11
-16.86
-22.25
-27.65
-32.11
-34.59
-34.19
-30.53
-23.84
-14.97
-5.23
4.04
11.75
17.3
20.57
21.79
21.32
19.54
16.8
13.5
10.14
7.31
5.51
5.1
6.02
7.89
10.08
11.94
12.98
12.94
11.84
9.85
7.24
4.25
1.13
-1.91
-4.73
-7.27
-9.59
-11.96
-14.77
-18.42
-23.15
-28.81
-34.72
-39.79
-42.74
-42.51
-38.61
-31.33
-21.69
-11.11
-1.01
7.55
14.07
18.49
21.05
22.01
21.59
19.96
17.46
14.58
12.04
10.49
10.29
11.34
13.17
15.11
16.66
17.66
18.23
18.56
18.68
18.36
17.2
14.9
11.52
7.48
3.43
-0.09
-2.84
-5.01
-7.06
-9.58
-13.03
-17.69
-23.45
-29.85
-36
-40.71
-42.76
-41.24
-35.95
-27.47
-17.07
-6.3
3.48
11.39
17.14
20.84
22.82
23.35
22.66
20.95
18.53
15.88
13.64
12.42
12.6
14.1
16.45
18.93
20.87
21.95
22.2
21.92
21.37
20.64
19.51
17.67
14.93
11.39
7.4
3.48
0.03
-2.74
-4.91
-6.79
-8.8
-11.37
-14.78
-19.09
-24.07
-29.22
-33.78
-36.88
-37.71
-35.71
-30.76
-23.27
-14.08
-4.32
4.91
12.7
18.55
22.32
24.17
24.38
23.31
21.28
18.73
16.12
13.96
12.73
12.69
13.8
15.71
17.84
19.65
20.76
21.13
20.9
20.37
19.7
18.86
17.65
15.83
13.28
10.1
6.57
3.07
-0.1
-2.82
-5.2
-7.5
-10.06
-13.19
-17.14
-21.9
-27.2
-32.37
-36.47
-38.45
-37.5
-33.32
-26.31
-17.45
-7.99
0.86
8.28
13.87
17.6
19.58
19.98
19
16.93
14.23
11.51
9.38
8.28
8.34
9.36
10.92
12.58
14.02
15.16
16.02
16.62
16.84
16.43
15.1
12.75
9.52
5.83
2.19
-0.96
-3.45
-5.37
-7.04
-8.86
-11.19
-14.28
-18.19
-22.73
-27.45
-31.6
-34.24
-34.52
-31.91
-26.45
-18.82
-10.12
-1.58
5.81
11.45
15.15
17.01
17.24
16.11
13.92
11.1
8.18
5.74
4.25
3.96
4.85
6.63
8.88
11.17
13.09
14.35
14.78
14.29
12.92
10.82
8.19
5.29
2.34
-0.51
-3.19
-5.75
-8.3
-11.07
-14.26
-18.06
-22.45
-27.19
-31.7
-35.2
-36.84
-35.98
-32.39
-26.33
-18.51
-9.92
-1.62
5.5
10.82
14.13
15.52
15.33
14.04
12.15
10.1
8.27
6.92
6.24
6.29
6.99
8.1
9.32
10.33
10.95
11.11
10.83
10.11
8.91
7.11
4.63
1.52
-2
-5.61
-8.94
-11.74
-14.02
-16
-18.08
-20.68
-24.08
-28.19
-32.51
-36.23
-38.36
-38.09
-35.01
-29.26
-21.54
-12.88
-4.38
3.07
8.97
13.14
15.7
16.83
16.74
15.6
13.65
11.29
9.05
7.47
6.97
7.62
9.14
10.95
12.48
13.38
13.61
13.42
13.14
12.96
12.77
12.24
11
8.87
5.93
2.55
-0.83
-3.88
-6.51
-8.87
-11.27
-14.04
-17.44
-21.59
-26.34
-31.3
-35.77
-38.86
-39.69
-37.6
-32.48
-24.85
-15.75
-6.46
1.9
8.61
13.49
16.68
18.44
18.93
18.23
16.48
14.04
11.52
9.63
8.94
9.64
11.44
13.7
15.76
17.18
17.87
18.02
17.9
17.69
17.33
16.62
15.3
13.24
10.54
7.43
4.21
1.18
-1.55
-4.07
-6.57
-9.34
-12.62
-16.58
-21.17
-26.1
-30.8
-34.45
-36.23
-35.45
-31.88
-25.83
-18.07
-9.66
-1.62
5.27
10.58
14.18
16.15
16.66
15.9
14.14
11.76
9.27
7.2
6.05
6.02
7.03
8.7
10.49
11.97
12.93
13.4
13.51
13.35
12.84
11.78
10.01
7.49
4.42
1.15
-1.94
-4.6
-6.8
-8.75
-10.86
-13.55
-17.15
-21.61
-26.48
-30.92
-33.91
-34.58
-32.48
-27.77
-21.08
-13.39
-5.62
1.41
7.18
11.4
13.9
14.68
13.86
11.74
8.83
5.78
3.22
1.68
1.39
2.3
4.12
6.42
8.74
10.69
12.02
12.59
12.4
11.52
10.07
8.2
6.04
3.65
1.12
-1.48
-4.15
-6.91
-9.9
-13.34
-17.4
-22.04
-26.86
-31.05
-33.6
-33.64
-30.75
-25.21
-17.82
-9.71
-1.97
4.6
9.6
12.87
14.44
14.45
13.08
10.69
7.72
4.77
2.42
1.16
1.19
2.42
4.52
6.98
9.29
11.03
11.95
11.88
10.85
8.91
6.22
3
-0.48
-4
-7.37
-10.53
-13.58
-16.69
-20.14
-24.12
-28.63
-33.38
-37.68
-40.57
-41.09
-38.64
-33.23
-25.54
-16.68
-7.82
0.13
6.65
11.53
14.74
16.23
16.02
14.28
11.44
8.26
5.56
4.02
3.93
5.16
7.26
9.68
11.96
13.79
15.09
15.85
16.05
15.64
14.54
12.69
10.14
7.04
3.68
0.36
-2.71
-5.45
-8
-10.68
-13.88
-17.93
-22.94
-28.7
-34.55
-39.55
-42.54
-42.55
-39.1
-32.41
-23.42
-13.43
-3.79
4.52
11.03
15.73
18.81
20.49
20.87
20.03
18.18
15.76
13.44
11.96
11.8
13.05
15.31
17.91
20.16
21.63
22.27
22.31
22.01
21.47
20.6
19.16
16.96
14.03
10.59
6.97
3.51
0.42
-2.29
-4.77
-7.3
-10.15
-13.59
-17.73
-22.52
-27.71
-32.85
-37.29
-40.25
-40.94
-38.75
-33.49
-25.56
-15.85
-5.61
3.97
12.06
18.29
22.73
25.54
26.88
26.81
25.42
23.06
20.37
18.15
17.11
17.61
19.52
22.28
25.21
27.69
29.38
30.2
30.28
29.77
28.79
27.42
25.68
23.58
21.15
18.41
15.39
12.14
8.72
5.26
1.9
-1.29
-4.29
-7.25
-10.43
-14.18
-18.75
-24.18
-30.12
-35.78
-40.12
-42.04
-40.75
-36.04
-28.35
-18.72
-8.39
1.4
9.72
16.01
20.08
21.99
22.02
20.63
18.34
15.78
13.51
12.01
11.61
12.37
14.17
16.67
19.36
21.74
23.46
24.36
24.51
24.08
23.25
22.02
20.3
17.97
15.01
11.59
8.01
4.57
1.5
-1.18
-3.58
-5.86
-8.23
-10.88
-14
-17.72
-22.08
-26.89
-31.68
-35.7
-38.05
-37.94
-34.91
-29.06
-21.04
-11.83
-2.58
5.75
12.5
17.32
20.14
21.02
20.11
17.75
14.48
11
8.1
6.43
6.29
7.58
9.85
12.51
14.99
16.95
18.26
19
19.23
18.98
18.17
16.7
14.5
11.59
8.22
4.71
1.46
-1.25
-3.44
-5.39
-7.63
-10.7
-14.93
-20.23
-26.14
-31.79
-36.22
-38.56
-38.18
-34.87
-28.88
-20.9
-11.94
-3.07
4.72
10.82
14.98
17.28
17.98
17.32
15.58
13.05
10.14
7.36
5.29
4.41
4.94
6.8
9.54
12.54
15.16
16.93
17.68
17.49
16.62
15.37
13.93
12.36
10.61
8.57
6.18
3.46
0.49
-2.53
-5.45
-8.17
-10.71
-13.22
-15.99
-19.37
-23.61
-28.69
-34.25
-39.52
-43.48
-45.15
-43.83
-39.35
-32.1
-22.94
-12.99
-3.37
4.99
11.52
15.98
18.46
19.23
18.66
17.16
15.11
12.92
11.02
9.83
9.66
10.6
12.44
14.77
17.08
18.96
20.18
20.68
20.56
19.94
18.91
17.54
15.88
13.96
11.81
9.48
7.02
4.42
1.64
-1.35
-4.57
-7.95
-11.37
-14.68
-17.78
-20.71
-23.66
-26.93
-30.75
-35.17
-39.88
-44.17
-47.07
-47.59
-45.03
-39.28
-30.86
-20.87
-10.61
-1.26
6.42
12.17
16.05
18.34
19.28
19.09
18.02
16.39
14.69
13.44
13.13
14.01
16
18.71
21.61
24.1
25.8
26.58
26.5
25.77
24.56
22.98
21.02
18.66
15.85
12.67
9.24
5.77
2.48
-0.52
-3.19
-5.67
-8.16
-10.94
-14.24
-18.18
-22.74
-27.7
-32.59
-36.75
-39.36
-39.66
-37.18
-31.89
-24.35
-15.49
-6.39
2
9.03
14.39
18
19.89
20.13
18.91
16.58
13.7
10.96
9
8.22
8.7
10.19
12.21
14.23
15.86
16.93
17.46
17.6
17.45
17.03
16.21
14.84
12.78
10.05
6.86
3.52
0.39
-2.32
-4.63
-6.78
-9.19
-12.27
-16.29
-21.18
-26.62
-31.92
-36.24
-38.65
-38.42
-35.16
-29.01
-20.61
-11.07
-1.62
6.67
13.06
17.25
19.25
19.26
17.56
14.56
10.78
6.91
3.72
1.83
1.59
2.89
5.27
8.07
10.72
12.84
14.25
14.92
14.75
13.63
11.5
8.44
4.82
1.16
-2.01
-4.39
-6.06
-7.42
-9.07
-11.53
-15.09
-19.71
-25.04
-30.41
-34.97
-37.75
-37.92
-34.96
-28.93
-20.51
-10.85
-1.28
7.04
13.4
17.6
19.77
20.24
19.29
17.21
14.34
11.13
8.16
6.01
5.03
5.3
6.57
8.43
10.38
12.05
13.19
13.73
13.65
12.95
11.61
9.62
6.98
3.77
0.22
-3.33
-6.52
-9.12
-11.12
-12.81
-14.66
-17.19
-20.79
-25.55
-31.25
-37.22
-42.54
-46.09
-46.87
-44.28
-38.38
-29.86
-19.89
-9.74
-0.49
7.2
13.08
17.13
19.45
20.15
19.38
17.45
14.83
12.17
10.17
9.42
10.16
12.26
15.23
18.38
21.03
22.7
23.27
22.87
21.76
20.25
18.51
16.57
14.3
11.57
8.32
4.64
0.84
-2.72
-5.75
-8.17
-10.18
-12.26
-14.91
-18.51
-23.19
-28.78
-34.8
-40.56
-45.19
-47.76
-47.44
-43.79
-36.89
-27.48
-16.77
-6.12
3.27
10.67
15.91
19.25
21.06
21.71
21.41
20.25
18.44
16.33
14.48
13.51
13.84
15.5
18.12
21.02
23.5
25.07
25.6
25.26
24.32
23.02
21.4
19.38
16.84
13.78
10.3
6.67
3.15
-0
-2.7
-5
-7.08
-9.24
-11.8
-15.09
-19.32
-24.49
-30.28
-36.01
-40.65
-43.09
-42.41
-38.22
-30.84
-21.28
-10.88
-1.01
7.41
13.92
18.56
21.52
23.03
23.19
22.13
20.07
17.45
14.92
13.16
12.7
13.7
15.96
18.93
21.91
24.27
25.59
25.82
25.18
24.03
22.7
21.35
19.9
18.08
15.62
12.39
8.49
4.25
0.09
-3.6
-6.66
-9.17
-11.48
-14.02
-17.19
-21.21
-26.05
-31.39
-36.63
-40.96
-43.46
-43.3
-39.94
-33.37
-24.2
-13.56
-2.88
6.53
13.76
18.47
20.75
20.98
19.58
17.01
13.74
10.34
7.49
5.84
5.8
7.38
10.17
13.43
16.39
18.49
19.52
19.59
19
18.01
16.71
15.04
12.87
10.11
6.88
3.45
0.21
-2.57
-4.81
-6.69
-8.59
-11
-14.32
-18.75
-24.1
-29.81
-34.99
-38.58
-39.64
-37.62
-32.55
-24.98
-15.91
-6.44
2.44
9.96
15.66
19.29
20.8
20.29
18.08
14.69
10.89
7.52
5.35
4.83
5.96
8.26
11.01
13.53
15.37
16.5
17.08
17.28
17.11
16.37
14.79
12.26
8.94
5.21
1.56
-1.66
-4.3
-6.53
-8.7
-11.24
-14.56
-18.91
-24.32
-30.43
-36.49
-41.43
-44.09
-43.55
-39.42
-32.05
-22.44
-11.98
-2.01
6.45
12.9
17.22
19.57
20.14
19.16
16.91
13.86
10.72
8.28
7.18
7.73
9.72
12.56
15.49
17.9
19.45
20.07
19.92
19.2
18.04
16.5
14.54
12.14
9.29
6.05
2.54
-1.07
-4.59
-7.86
-10.88
-13.75
-16.73
-20.14
-24.33
-29.49
-35.5
-41.84
-47.54
-51.39
-52.24
-49.37
-42.77
-33.17
-21.8
-10.09
0.74
9.82
16.7
21.29
23.76
24.43
23.69
22.02
19.88
17.79
16.19
15.5
15.92
17.42
19.63
22.04
24.07
25.33
25.7
25.34
24.48
23.28
21.69
19.54
16.61
12.84
8.44
3.88
-0.29
-3.66
-6.09
-7.88
-9.61
-11.94
-15.39
-20.1
-25.87
-32.16
-38.25
-43.27
-46.3
-46.5
-43.29
-36.64
-27.14
-15.96
-4.57
5.69
13.95
19.89
23.67
25.67
26.26
25.7
24.19
22.02
19.62
17.58
16.45
16.54
17.8
19.78
21.85
23.4
24.12
24.04
23.49
22.78
22.07
21.24
19.97
17.93
14.98
11.27
7.17
3.14
-0.49
-3.6
-6.33
-8.93
-11.78
-15.18
-19.35
-24.39
-30.1
-36.05
-41.43
-45.18
-46.22
-43.81
-37.81
-28.81
-18
-6.83
3.41
11.86
18.18
22.4
24.68
25.2
24.15
21.85
18.79
15.68
13.24
12.05
12.26
13.69
15.84
18.13
20.15
21.67
22.66
23.13
23.07
22.36
20.85
18.46
15.28
11.55
7.64
3.95
0.72
-1.97
-4.27
-6.54
-9.23
-12.79
-17.49
-23.32
-29.88
-36.38
-41.69
-44.66
-44.39
-40.51
-33.35
-23.82
-13.23
-2.9
6.15
13.27
18.23
21.04
21.82
20.75
18.17
14.59
10.73
7.4
5.27
4.7
5.64
7.71
10.33
12.95
15.18
16.82
17.76
17.88
17.04
15.09
12.07
8.19
3.88
-0.3
-3.89
-6.66
-8.69
-10.37
-12.27
-14.97
-18.84
-23.84
-29.41
-34.57
-38.06
-38.78
-36.12
-30.17
-21.67
-11.81
-1.84
7.24
14.77
20.39
23.97
25.46
24.91
22.58
18.95
14.81
11.04
8.44
7.48
8.16
10.04
12.43
14.64
16.22
17.07
17.31
17.14
16.57
15.43
13.41
10.33
6.23
1.45
-3.49
-8.08
-11.98
-15.17
-17.9
-20.69
-24.06
-28.44
-33.92
-40.09
-46.04
-50.53
-52.29
-50.46
-44.83
-35.98
-25.04
-13.4
-2.37
7.14
14.62
19.94
23.18
24.54
24.27
22.69
20.27
17.62
15.42
14.27
14.47
15.92
18.14
20.45
22.24
23.2
23.37
22.99
22.33
21.42
20.06
17.96
14.91
10.95
6.37
1.64
-2.79
-6.64
-9.88
-12.73
-15.61
-19.02
-23.41
-28.95
-35.41
-42.04
-47.69
-51.05
-51.06
-47.22
-39.76
-29.61
-18.07
-6.5
4.03
12.86
19.73
24.63
27.61
28.77
28.26
26.38
23.64
20.73
18.37
17.1
17.06
18.07
19.61
21.13
22.17
22.52
22.22
21.49
20.54
19.48
18.24
16.58
14.23
11.08
7.22
3.06
-0.9
-4.26
-6.9
-9.05
-11.21
-13.98
-17.8
-22.84
-28.86
-35.19
-40.83
-44.61
-45.45
-42.72
-36.44
-27.29
-16.5
-5.46
4.68
13.15
19.64
24.15
26.76
27.62
26.88
24.9
22.19
19.41
17.21
16.1
16.26
17.53
19.45
21.47
23.13
24.17
24.55
24.38
23.8
22.86
21.51
19.6
16.97
13.6
9.65
5.48
1.46
-2.1
-5.1
-7.72
-10.32
-13.33
-17.16
-22.05
-27.95
-34.51
-40.98
-46.29
-49.28
-48.96
-44.91
-37.43
-27.55
-16.65
-6.13
3.01
10.28
15.54
18.88
20.41
20.27
18.73
16.25
13.49
11.18
9.94
10.09
11.63
14.17
17.18
20.04
22.31
23.75
24.32
24.1
23.17
21.53
19.1
15.88
11.99
7.72
3.46
-0.39
-3.61
-6.2
-8.42
-10.7
-13.55
-17.35
-22.29
-28.12
-34.18
-39.4
-42.62
-42.86
-39.63
-33.09
-24.01
-13.55
-3
6.55
14.3
19.8
22.91
23.75
22.6
19.91
16.3
12.52
9.34
7.43
7.2
8.67
11.44
14.79
17.9
20.13
21.19
21.14
20.28
18.92
17.15
14.86
11.84
8.02
3.62
-0.94
-5.15
-8.68
-11.55
-14.05
-16.71
-20
-24.21
-29.38
-35.22
-41.07
-45.99
-48.88
-48.7
-44.86
-37.42
-27.19
-15.53
-3.97
6.25
14.37
20.16
23.75
25.39
25.34
23.81
21.14
17.87
14.74
12.55
11.92
13.04
15.62
18.98
22.28
24.82
26.23
26.5
25.87
24.66
23.08
21.18
18.87
16.01
12.51
8.44
4.01
-0.49
-4.75
-8.55
-11.87
-14.8
-17.64
-20.75
-24.48
-29.13
-34.7
-40.82
-46.68
-51.11
-52.91
-51.18
-45.67
-36.89
-26.01
-14.44
-3.48
5.97
13.47
18.93
22.45
24.19
24.37
23.3
21.39
19.2
17.28
16.13
16.1
17.24
19.36
22.01
24.64
26.7
27.8
27.79
26.79
25.1
23.09
20.99
18.87
16.63
14.09
11.12
7.72
4.06
0.31
-3.35
-6.84
-10.15
-13.35
-16.44
-19.55
-22.85
-26.64
-31.16
-36.47
-42.12
-47.19
-50.41
-50.55
-46.87
-39.43
-29.13
-17.45
-5.96
4.06
11.93
17.54
21.13
23.06
23.6
22.96
21.35
19.12
16.79
14.96
14.16
14.67
16.48
19.28
22.51
25.57
27.92
29.2
29.29
28.31
26.53
24.28
21.81
19.25
16.57
13.69
10.55
7.21
3.83
0.6
-2.35
-5.04
-7.61
-10.26
-13.25
-16.77
-20.95
-25.8
-31.11
-36.4
-40.89
-43.55
-43.46
-40.02
-33.25
-23.86
-13.04
-2.22
7.34
14.82
19.85
22.5
23.08
21.99
19.64
16.51
13.15
10.24
8.45
8.27
9.77
12.59
15.97
19.04
21.11
21.88
21.52
20.46
19.13
17.77
16.25
14.25
11.44
7.71
3.31
-1.23
-5.29
-8.47
-10.73
-12.4
-14.02
-16.11
-19.03
-22.88
-27.59
-32.89
-38.26
-42.93
-45.94
-46.31
-43.37
-37.01
-27.88
-17.22
-6.44
3.17
10.85
16.3
19.6
20.94
20.52
18.57
15.42
11.63
7.93
5.06
3.58
3.68
5.12
7.35
9.73
11.77
13.22
14.11
14.55
14.57
14.05
12.71
10.38
7.11
3.3
-0.46
-3.63
-6
-7.78
-9.47
-11.63
-14.68
-18.78
-23.82
-29.49
-35.19
-40.05
-43.01
-43.08
-39.66
-32.84
-23.47
-12.89
-2.54
6.52
13.66
18.71
21.67
22.58
21.53
18.77
14.8
10.45
6.62
4.09
3.21
3.91
5.72
7.96
10.07
11.69
12.72
13.25
13.33
12.91
11.76
9.62
6.38
2.2
-2.5
-7.15
-11.3
-14.73
-17.56
-20.17
-23.09
-26.76
-31.5
-37.21
-43.43
-49.28
-53.57
-55.1
-53.03
-47.14
-38
-26.77
-14.92
-3.81
5.55
12.64
17.31
19.66
19.96
18.62
16.22
13.45
10.99
9.36
8.81
9.25
10.42
11.95
13.56
15.01
16.18
16.9
17
16.28
14.61
11.97
8.54
4.62
0.58
-3.24
-6.62
-9.56
-12.25
-15.06
-18.46
-22.83
-28.29
-34.54
-40.8
-45.88
-48.5
-47.59
-42.78
-34.47
-23.79
-12.27
-1.38
7.81
14.81
19.59
22.37
23.44
23.03
21.42
19.01
16.4
14.28
13.23
13.49
14.87
16.88
18.91
20.53
21.54
21.96
21.85
21.16
19.73
17.4
14.15
10.2
6.02
2.05
-1.38
-4.2
-6.65
-9.15
-12.23
-16.27
-21.35
-27.13
-32.75
-37.01
-38.67
-36.86
-31.4
-22.88
-12.54
-1.85
7.94
15.98
21.97
25.95
28.1
28.62
27.73
25.74
23.18
20.71
18.98
18.41
19.07
20.57
22.38
23.92
24.86
25.15
24.89
24.19
23.05
21.29
18.78
15.47
11.54
7.34
3.28
-0.35
-3.47
-6.28
-9.15
-12.54
-16.8
-22.06
-27.99
-33.83
-38.44
-40.6
-39.34
-34.32
-26.05
-15.64
-4.56
5.8
14.46
20.91
25.07
27.06
27.11
25.49
22.61
19
15.38
12.45
10.79
10.68
11.99
14.31
17
19.51
21.44
22.66
23.19
23.12
22.46
21.07
18.8
15.61
11.67
7.39
3.29
-0.25
-3.17
-5.73
-8.47
-11.91
-16.37
-21.75
-27.54
-32.86
-36.66
-37.96
-36.06
-30.84
-22.76
-12.84
-2.4
7.31
15.33
21.16
24.65
25.89
25.15
22.83
19.5
15.89
12.79
10.88
10.47
11.46
13.38
15.54
17.39
18.6
19.16
19.23
18.95
18.32
17.16
15.27
12.56
9.2
5.56
2.09
-0.9
-3.39
-5.61
-7.97
-10.85
-14.52
-19.03
-24.22
-29.63
-34.5
-37.84
-38.68
-36.32
-30.68
-22.39
-12.66
-2.9
5.73
12.56
17.47
20.62
22.27
22.56
21.63
19.65
17.06
14.55
12.87
12.62
14.02
16.76
20.17
23.39
25.7
26.69
26.4
25.13
23.29
21.15
18.76
15.98
12.66
8.84
4.76
0.8
-2.66
-5.44
-7.66
-9.57
-11.51
-13.72
-16.35
-19.55
-23.43
-28.08
-33.27
-38.37
-42.35
-44.02
-42.47
-37.46
-29.54
-19.89
-9.98
-1.1
5.99
11.06
14.28
15.98
16.51
16.13
15.1
13.77
12.57
11.94
12.21
13.44
15.46
17.88
20.26
22.25
23.63
24.34
24.41
23.87
22.76
21.11
18.99
16.52
13.87
11.19
8.59
6.1
3.71
1.37
-0.95
-3.22
-5.46
-7.75
-10.19
-12.97
-16.23
-20.03
-24.24
-28.58
-32.49
-35.26
-36.16
-34.62
-30.49
-24.09
-16.25
-8
-0.34
6.07
10.9
14.19
16.13
16.95
16.84
15.99
14.65
13.17
11.94
11.34
11.62
12.77
14.54
16.52
18.29
19.54
20.17
20.22
19.86
19.23
18.4
17.33
15.94
14.17
12.06
9.72
7.25
4.76
2.25
-0.33
-3.05
-5.87
-8.65
-11.23
-13.56
-15.78
-18.22
-21.27
-25.12
-29.51
-33.75
-36.87
-37.92
-36.34
-32.15
-25.93
-18.62
-11.2
-4.42
1.29
5.84
9.25
11.59
12.84
12.97
12
10.19
7.99
6.07
5.04
5.27
6.78
9.18
11.86
14.2
15.81
16.56
16.58
16.01
14.99
13.56
11.77
9.72
7.6
5.56
3.67
1.84
-0.1
-2.31
-4.76
-7.26
-9.58
-11.49
-13
-14.29
-15.73
-17.7
-20.45
-23.96
-27.86
-31.49
-34.01
-34.62
-32.85
-28.73
-22.78
-15.9
-9.02
-2.91
2.05
5.74
8.26
9.7
10.12
9.58
8.25
6.49
4.83
3.83
3.86
4.92
6.66
8.5
9.96
10.77
11.02
10.97
10.83
10.62
10.14
9.07
7.2
4.6
1.59
-1.37
-3.89
-5.83
-7.32
-8.66
-10.2
-12.23
-14.87
-18.13
-21.93
-26.12
-30.32
-33.99
-36.38
-36.75
-34.65
-30.07
-23.57
-16.07
-8.57
-1.84
3.7
7.9
10.75
12.25
12.43
11.43
9.56
7.28
5.13
3.58
2.91
3.2
4.34
6.05
7.95
9.66
10.91
11.53
11.55
11.06
10.19
8.96
7.35
5.31
2.83
0.02
-2.94
-5.78
-8.29
-10.35
-11.97
-13.34
-14.71
-16.44
-18.8
-21.99
-25.95
-30.42
-34.9
-38.7
-41.12
-41.52
-39.57
-35.26
-28.98
-21.42
-13.41
-5.83
0.67
5.7
9.16
11.19
12.07
12.01
11.16
9.64
7.63
5.52
3.82
3.02
3.39
4.81
6.86
8.98
10.74
11.99
12.8
13.28
13.53
13.41
12.76
11.46
9.53
7.12
4.44
1.69
-0.98
-3.5
-5.87
-8.16
-10.46
-12.94
-15.79
-19.18
-23.2
-27.72
-32.33
-36.37
-38.98
-39.4
-37.14
-32.21
-25.16
-16.91
-8.47
-0.71
5.79
10.8
14.25
16.16
16.61
15.71
13.74
11.13
8.45
6.28
5.12
5.21
6.52
8.73
11.41
14.06
16.28
17.81
18.57
18.64
18.13
17.16
15.74
13.85
11.46
8.63
5.54
2.43
-0.48
-3.15
-5.73
-8.47
-11.62
-15.35
-19.64
-24.35
-29.22
-33.78
-37.44
-39.51
-39.32
-36.5
-31.1
-23.69
-15.19
-6.66
1.01
7.27
11.9
14.91
16.45
16.63
15.62
13.64
11.06
8.4
6.22
5.03
5.08
6.27
8.17
10.22
11.91
13
13.51
13.64
13.56
13.23
12.4
10.83
8.39
5.28
1.93
-1.18
-3.77
-5.87
-7.79
-10.02
-13
-16.91
-21.6
-26.58
-31.11
-34.3
-35.4
-33.92
-29.8
-23.43
-15.59
-7.24
0.64
7.24
12.06
14.88
15.85
15.29
13.66
11.43
9.02
6.76
4.98
3.95
3.88
4.79
6.47
8.54
10.52
12.01
12.8
12.87
12.33
11.25
9.68
7.56
4.9
1.84
-1.45
-4.77
-8.08
-11.51
-15.32
-19.72
-24.68
-29.78
-34.22
-36.99
-37.17
-34.29
-28.54
-20.68
-11.85
-3.2
4.34
10.25
14.35
16.69
17.44
16.82
15.14
12.77
10.09
7.52
5.43
4.11
3.76
4.43
5.97
8.06
10.22
11.93
12.78
12.51
11.08
8.6
5.35
1.69
-1.98
-5.36
-8.28
-10.82
-13.29
-16.13
-19.77
-24.39
-29.78
-35.27
-39.84
-42.41
-42.1
-38.53
-31.92
-23.01
-12.9
-2.78
6.32
13.7
19
22.16
23.33
22.83
21.07
18.55
15.8
13.37
11.69
11.02
11.32
12.32
13.62
14.85
15.83
16.51
16.94
17.11
16.84
15.87
13.95
11.01
7.24
3.04
-1.1
-4.84
-8.04
-10.88
-13.73
-17.06
-21.24
-26.3
-31.92
-37.35
-41.59
-43.6
-42.59
-38.32
-31.14
-21.93
-11.85
-2.03
6.66
13.75
19.08
22.76
24.91
25.69
25.26
23.91
22.06
20.27
19.12
19.01
20
21.82
23.91
25.67
26.69
26.87
26.41
25.69
24.93
24.1
22.9
20.92
17.91
13.94
9.47
5.09
1.3
-1.73
-4.21
-6.62
-9.46
-13.11
-17.7
-23.11
-28.95
-34.55
-39.03
-41.42
-40.86
-36.91
-29.78
-20.29
-9.69
0.74
9.98
17.49
23.15
27.04
29.29
30
29.28
27.37
24.77
22.17
20.26
19.6
20.35
22.27
24.8
27.27
29.1
29.98
29.88
29
27.65
26.04
24.24
22.13
19.54
16.33
12.57
8.55
4.66
1.27
-1.51
-3.83
-6.13
-8.92
-12.65
-17.51
-23.31
-29.42
-34.86
-38.47
-39.24
-36.62
-30.73
-22.35
-12.68
-2.94
5.9
13.29
19.01
22.98
25.16
25.54
24.21
21.6
18.4
15.45
13.55
13.11
14.1
16.11
18.51
20.71
22.38
23.39
23.85
23.9
23.55
22.72
21.2
18.85
15.7
12
8.14
4.49
1.26
-1.58
-4.21
-6.91
-9.94
-13.48
-17.64
-22.36
-27.33
-31.92
-35.22
-36.23
-34.22
-28.98
-21.08
-11.6
-1.94
6.75
13.74
18.79
21.99
23.49
23.4
21.82
18.98
15.38
11.8
9.07
7.84
8.29
10.1
12.61
15.07
16.93
17.98
18.27
17.96
17.17
15.88
14
11.48
8.41
5.05
1.72
-1.23
-3.63
-5.56
-7.31
-9.35
-12.17
-16.1
-21.14
-26.8
-32.22
-36.26
-37.86
-36.37
-31.74
-24.51
-15.68
-6.36
2.46
10.04
15.99
20.1
22.33
22.71
21.43
18.87
15.6
12.34
9.75
8.32
8.19
9.14
10.68
12.28
13.51
14.14
14.21
13.87
13.25
12.4
11.2
9.52
7.31
4.65
1.77
-1.06
-3.66
-6.07
-8.47
-11.17
-14.5
-18.68
-23.7
-29.3
-34.85
-39.5
-42.23
-42.18
-38.9
-32.54
-23.91
-14.19
-4.65
3.68
10.28
15.02
18.04
19.49
19.52
18.24
15.95
13.17
10.63
9.02
8.71
9.65
11.36
13.15
14.54
15.31
15.58
15.6
15.57
15.42
14.96
13.9
12.08
9.55
6.54
3.34
0.22
-2.73
-5.52
-8.27
-11.1
-14.17
-17.61
-21.57
-26.11
-31.06
-35.9
-39.75
-41.53
-40.4
-36.05
-28.92
-20.1
-10.94
-2.61
4.19
9.26
12.8
15.06
16.19
16.27
15.37
13.7
11.7
9.89
8.74
8.52
9.21
10.58
12.31
14.09
15.68
16.9
17.66
17.84
17.36
16.18
14.24
11.61
8.43
4.98
1.66
-1.18
-3.33
-4.87
-6.13
-7.63
-9.87
-13.11
-17.33
-22.15
-27
-31.13
-33.8
-34.34
-32.35
-27.81
-21.16
-13.25
-5.14
2.2
8.12
12.37
15.07
16.44
16.73
16.08
14.63
12.66
10.6
9.02
8.39
8.94
10.49
12.59
14.66
16.2
17.01
17.1
16.67
15.9
14.94
13.81
12.47
10.86
8.94
6.73
4.3
1.77
-0.77
-3.29
-5.84
-8.56
-11.64
-15.21
-19.33
-23.89
-28.52
-32.66
-35.52
-36.34
-34.61
-30.23
-23.64
-15.74
-7.6
-0.17
5.97
10.55
13.57
15.07
15.1
13.81
11.48
8.67
6.11
4.4
3.94
4.68
6.3
8.33
10.37
12.16
13.57
14.53
14.95
14.78
14
12.68
10.93
8.86
6.51
3.94
1.22
-1.57
-4.31
-7
-9.75
-12.78
-16.35
-20.56
-25.21
-29.76
-33.46
-35.41
-34.94
-31.75
-26.01
-18.41
-9.91
-1.54
5.82
11.62
15.59
17.7
18.05
16.85
14.38
11.15
7.79
5.03
3.47
3.42
4.74
6.99
9.54
11.82
13.47
14.35
14.47
13.92
12.73
10.93
8.52
5.62
2.43
-0.82
-3.92
-6.8
-9.51
-12.2
-15.11
-18.49
-22.5
-27.07
-31.81
-35.98
-38.65
-38.96
-36.42
-31.15
-23.83
-15.5
-7.2
0.26
6.41
11.12
14.36
16.15
16.56
15.74
13.98
11.73
9.54
7.94
7.33
7.89
9.46
11.62
13.79
15.44
16.25
16.18
15.45
14.33
13.01
11.46
9.53
7.05
4.04
0.7
-2.64
-5.7
-8.36
-10.77
-13.19
-15.9
-19.11
-22.9
-27.26
-32.08
-37.16
-42.04
-45.96
-47.99
-47.24
-43.21
-36.08
-26.63
-16.17
-6.04
2.71
9.47
14.17
17.03
18.4
18.6
17.91
16.61
15.02
13.57
12.69
12.74
13.82
15.72
18.01
20.17
21.81
22.78
23.13
23
22.45
21.42
19.8
17.5
14.56
11.15
7.49
3.83
0.31
-2.99
-6.04
-8.88
-11.57
-14.24
-17.13
-20.48
-24.55
-29.37
-34.6
-39.5
-43.03
-44.07
-41.95
-36.58
-28.64
-19.28
-9.78
-1.13
6.13
11.88
16.18
19.16
20.9
21.48
21.05
19.94
18.53
17.3
16.62
16.75
17.74
19.47
21.61
23.71
25.37
26.27
26.32
25.59
24.28
22.52
20.39
17.9
15.09
12.06
9.04
6.22
3.72
1.51
-0.57
-2.71
-5.05
-7.67
-10.65
-14.07
-18.06
-22.67
-27.77
-32.87
-37.17
-39.72
-39.74
-36.82
-31.09
-23.22
-14.19
-5.09
3.15
9.93
14.96
18.21
19.87
20.19
19.48
18.02
16.18
14.34
12.87
12.11
12.25
13.32
15.21
17.64
20.24
22.56
24.21
24.91
24.61
23.48
21.78
19.8
17.62
15.17
12.32
9.02
5.36
1.6
-2
-5.25
-8.11
-10.65
-13.02
-15.45
-18.23
-21.65
-25.9
-30.87
-36.03
-40.43
-42.96
-42.71
-39.25
-32.87
-24.44
-15.12
-6.03
2
8.55
13.52
16.9
18.74
18.99
17.73
15.23
12.09
9.09
7.03
6.45
7.51
9.9
13
16.09
18.61
20.32
21.29
21.76
21.93
21.81
21.14
19.6
16.97
13.37
9.22
5.08
1.45
-1.49
-3.88
-6.1
-8.58
-11.64
-15.4
-19.84
-24.74
-29.76
-34.36
-37.8
-39.25
-37.98
-33.62
-26.4
-17.16
-7.17
2.25
10.08
15.8
19.35
20.95
20.86
19.31
16.57
13.09
9.57
6.81
5.47
5.82
7.63
10.28
13.04
15.34
16.91
17.77
18.09
18
17.47
16.4
14.65
12.19
9.17
5.83
2.43
-0.83
-3.89
-6.78
-9.65
-12.63
-15.94
-19.78
-24.35
-29.7
-35.55
-41.28
-45.9
-48.3
-47.56
-43.31
-35.85
-26.14
-15.43
-5.03
4.05
11.24
16.36
19.5
20.83
20.62
19.21
17.03
14.61
12.47
11.05
10.61
11.21
12.69
14.74
16.97
18.92
20.25
20.75
20.4
19.37
17.9
16.14
14.14
11.79
8.95
5.6
1.9
-1.84
-5.31
-8.3
-10.83
-13.13
-15.57
-18.56
-22.39
-27.2
-32.8
-38.74
-44.19
-48.17
-49.67
-47.99
-42.92
-34.89
-24.83
-14
-3.63
5.26
12.05
16.5
18.72
19.01
17.84
15.73
13.23
10.85
9.07
8.2
8.42
9.72
11.85
14.42
16.96
19.07
20.48
21.14
21.15
20.64
19.67
18.17
16.02
13.11
9.49
5.4
1.22
-2.71
-6.15
-9.1
-11.75
-14.42
-17.44
-21.04
-25.35
-30.24
-35.31
-39.85
-42.93
-43.65
-41.35
-35.87
-27.69
-17.78
-7.34
2.46
10.74
17.07
21.33
23.64
24.18
23.19
20.92
17.8
14.44
11.58
9.92
9.88
11.47
14.29
17.65
20.82
23.31
24.9
25.6
25.55
24.86
23.57
21.64
19.05
15.84
12.17
8.26
4.42
0.89
-2.16
-4.74
-7.03
-9.38
-12.23
-16
-20.87
-26.72
-33
-38.8
-43.02
-44.64
-42.97
-37.87
-29.87
-19.96
-9.39
0.66
9.3
16
20.55
22.93
23.23
21.72
18.89
15.38
12.03
9.56
8.45
8.79
10.29
12.49
14.89
17.13
18.97
20.31
21.06
21.13
20.39
18.76
16.24
12.94
9.14
5.17
1.38
-1.95
-4.72
-6.98
-9.01
-11.24
-14.16
-18.15
-23.29
-29.26
-35.21
-40.02
-42.49
-41.74
-37.46
-30.06
-20.48
-10.01
0.14
8.95
15.78
20.32
22.51
22.47
20.55
17.26
13.3
9.49
6.6
5.18
5.41
7.08
9.66
12.55
15.16
17.1
18.17
18.32
17.56
15.96
13.61
10.67
7.38
4
0.78
-2.12
-4.7
-7.16
-9.87
-13.29
-17.76
-23.31
-29.49
-35.38
-39.71
-41.3
-39.33
-33.71
-25.06
-14.59
-3.68
6.4
14.76
20.95
24.82
26.46
26.06
23.88
20.35
16.12
11.95
8.65
6.82
6.69
8.07
10.44
13.19
15.75
17.76
18.98
19.28
18.57
16.78
13.95
10.28
6.1
1.83
-2.17
-5.7
-8.82
-11.8
-15.06
-19.01
-23.94
-29.88
-36.47
-42.94
-48.16
-50.94
-50.28
-45.76
-37.64
-26.89
-14.92
-3.16
7.21
15.47
21.33
24.83
26.17
25.62
23.53
20.42
16.91
13.77
11.66
11.01
11.91
14.05
16.84
19.64
21.93
23.42
24.09
24.04
23.37
22.07
20.02
17.11
13.33
8.87
4.06
-0.68
-5.05
-8.89
-12.29
-15.52
-18.95
-22.98
-27.91
-33.79
-40.28
-46.58
-51.47
-53.63
-52.03
-46.37
-37.15
-25.61
-13.31
-1.61
8.56
16.8
23.06
27.41
29.86
30.46
29.37
27.03
24.14
21.52
19.85
19.5
20.44
22.28
24.46
26.4
27.73
28.27
28.1
27.42
26.36
24.95
23.06
20.51
17.18
13.16
8.78
4.47
0.64
-2.55
-5.21
-7.72
-10.58
-14.23
-18.96
-24.75
-31.24
-37.66
-42.96
-45.95
-45.62
-41.44
-33.6
-22.99
-11.01
0.81
11.13
19.08
24.35
27.08
27.74
26.9
25.16
23.07
21.08
19.6
18.99
19.48
21.11
23.64
26.55
29.16
30.87
31.33
30.59
28.99
27.04
25.08
23.24
21.31
18.96
15.95
12.22
8
3.69
-0.31
-3.75
-6.63
-9.18
-11.78
-14.86
-18.76
-23.58
-29.18
-35.02
-40.25
-43.82
-44.74
-42.3
-36.38
-27.57
-17
-6.08
3.88
11.99
17.87
21.55
23.3
23.45
22.3
20.23
17.77
15.56
14.25
14.28
15.66
18.02
20.72
23.1
24.75
25.55
25.66
25.35
24.84
24.19
23.3
21.97
20.01
17.32
13.99
10.27
6.45
2.78
-0.64
-3.85
-7.01
-10.32
-13.96
-18.08
-22.83
-28.19
-33.91
-39.41
-43.68
-45.59
-44.22
-39.23
-31.06
-20.79
-9.87
0.4
9.05
15.6
19.92
22.11
22.33
20.87
18.15
14.74
11.41
8.9
7.82
8.39
10.38
13.21
16.12
18.51
20.07
20.81
20.95
20.67
19.99
18.69
16.57
13.56
9.87
5.91
2.18
-0.96
-3.48
-5.58
-7.72
-10.34
-13.77
-18.09
-23.14
-28.47
-33.39
-37.08
-38.69
-37.56
-33.41
-26.45
-17.42
-7.43
2.31
10.75
17.18
21.27
23.06
22.77
20.82
17.72
14.07
10.57
7.85
6.4
6.46
7.87
10.13
12.58
14.57
15.72
15.97
15.54
14.74
13.74
12.48
10.71
8.19
4.84
0.88
-3.24
-7.07
-10.32
-12.91
-15.07
-17.2
-19.73
-23.05
-27.35
-32.57
-38.27
-43.6
-47.51
-48.91
-47.07
-41.84
-33.76
-23.88
-13.51
-3.83
4.35
10.65
15.02
17.58
18.52
18.03
16.42
14.13
11.7
9.79
8.89
9.23
10.68
12.82
15.09
17
18.28
18.91
19.03
18.74
18.06
16.88
15.05
12.51
9.33
5.74
2
-1.62
-4.96
-7.96
-10.65
-13.19
-15.87
-19
-22.87
-27.57
-32.88
-38.19
-42.58
-45.02
-44.65
-41.1
-34.57
-25.8
-15.9
-6.04
2.76
9.81
14.78
17.69
18.75
18.34
16.89
14.84
12.65
10.76
9.59
9.45
10.43
12.4
14.91
17.37
19.22
20.13
20.04
19.18
17.8
16.14
14.24
12.03
9.45
6.54
3.46
0.39
-2.49
-5.16
-7.66
-10.1
-12.63
-15.4
-18.61
-22.44
-26.94
-31.91
-36.76
-40.58
-42.37
-41.36
-37.25
-30.42
-21.79
-12.53
-3.72
3.85
9.8
14.01
16.56
17.53
17.1
15.51
13.19
10.71
8.68
7.63
7.79
9.12
11.27
13.75
16.02
17.71
18.65
18.89
18.59
17.85
16.73
15.1
12.84
9.91
6.46
2.81
-0.64
-3.62
-6.07
-8.25
-10.59
-13.53
-17.34
-22.05
-27.38
-32.83
-37.71
-41.25
-42.67
-41.39
-37.19
-30.35
-21.67
-12.25
-3.24
4.45
10.3
14.18
16.17
16.48
15.34
13.05
10.02
6.81
4.05
2.32
1.96
2.97
5.03
7.62
10.19
12.35
13.91
14.85
15.15
14.79
13.67
11.73
9.01
5.75
2.31
-1.01
-4.02
-6.71
-9.31
-12.19
-15.7
-20.13
-25.45
-31.27
-36.77
-40.93
-42.73
-41.49
-37.09
-30
-21.13
-11.59
-2.42
5.52
11.67
15.73
17.68
17.72
16.26
13.8
10.85
7.93
5.45
3.82
3.32
4.12
6.1
8.91
11.97
14.59
16.22
16.48
15.24
12.68
9.15
5.09
1
-2.78
-6.04
-8.8
-11.27
-13.85
-16.95
-20.88
-25.67
-30.95
-35.95
-39.62
-40.9
-39.04
-33.87
-25.92
-16.22
-6.04
3.46
11.45
17.45
21.29
22.95
22.55
20.36
16.88
12.87
9.23
6.8
6.08
7.04
9.18
11.75
13.97
15.39
15.91
15.75
15.21
14.46
13.4
11.77
9.28
5.87
1.77
-2.57
-6.67
-10.21
-13.16
-15.83
-18.69
-22.26
-26.91
-32.71
-39.39
-46.25
-52.17
-55.86
-56.15
-52.38
-44.71
-34.1
-22.08
-10.25
0.14
8.41
14.44
18.38
20.46
20.89
19.88
17.82
15.31
13.1
11.89
12.07
13.6
16.09
18.95
21.61
23.76
25.28
26.2
26.5
26.07
24.7
22.2
18.61
14.21
9.49
4.97
1.02
-2.25
-5
-7.6
-10.53
-14.25
-19.11
-25.17
-32.06
-38.9
-44.4
-47.21
-46.32
-41.46
-33.24
-22.94
-12.05
-1.87
6.81
13.7
18.81
22.25
24.06
24.31
23.19
21.18
18.98
17.32
16.78
17.51
19.25
21.48
23.6
25.16
26.01
26.16
25.77
24.92
23.63
21.84
19.48
16.52
13.08
9.36
5.59
2
-1.3
-4.32
-7.22
-10.25
-13.69
-17.8
-22.61
-27.87
-32.97
-36.99
-38.94
-37.96
-33.65
-26.21
-16.48
-5.65
4.98
14.37
21.85
27.16
30.32
31.44
30.68
28.31
24.81
20.85
17.28
14.9
14.12
14.91
16.79
19.03
20.98
22.23
22.72
22.6
22.07
21.21
19.97
18.19
15.75
12.71
9.29
5.87
2.74
0.06
-2.34
-4.78
-7.73
-11.54
-16.36
-22.04
-28.11
-33.82
-38.22
-40.39
-39.6
-35.56
-28.56
-19.36
-9.07
1.12
10.24
17.55
22.67
25.43
25.95
24.53
21.73
18.3
15.02
12.61
11.46
11.67
13
14.99
17.17
19.14
20.68
21.7
22.19
22.12
21.4
19.89
17.51
14.28
10.4
6.2
2.07
-1.68
-4.89
-7.59
-10.05
-12.71
-15.97
-20.07
-24.92
-29.94
-34.17
-36.5
-36.01
-32.25
-25.45
-16.45
-6.44
3.3
11.71
18.08
22.07
23.63
22.97
20.48
16.71
12.37
8.24
5.06
3.39
3.45
5.06
7.73
10.83
13.79
16.21
17.94
18.91
19.07
18.31
16.51
13.65
9.9
5.64
1.29
-2.72
-6.21
-9.21
-11.98
-14.95
-18.53
-23.01
-28.33
-34.02
-39.16
-42.63
-43.36
-40.72
-34.76
-26.21
-16.26
-6.24
2.78
10.14
15.62
19.28
21.24
21.59
20.44
18.01
14.77
11.46
8.89
7.72
8.18
10.04
12.64
15.24
17.29
18.53
18.99
18.84
18.16
16.91
14.96
12.21
8.73
4.75
0.59
-3.39
-6.99
-10.21
-13.23
-16.38
-20.05
-24.49
-29.76
-35.56
-41.22
-45.77
-48.18
-47.55
-43.48
-36.17
-26.5
-15.71
-5.11
4.27
11.85
17.47
21.18
23.08
23.28
21.98
19.6
16.77
14.28
12.78
12.57
13.51
15.09
16.71
17.94
18.62
18.88
18.91
18.82
18.48
17.6
15.88
13.2
9.72
5.82
1.98
-1.4
-4.15
-6.29
-8.11
-10.03
-12.5
-15.94
-20.57
-26.26
-32.5
-38.31
-42.53
-44
-42.01
-36.49
-28.08
-17.94
-7.36
2.51
10.92
17.47
22.07
24.73
25.55
24.76
22.74
20.12
17.56
15.69
14.86
15.08
16.05
17.33
18.45
19.15
19.36
19.21
18.85
18.36
17.64
16.5
14.67
12.03
8.72
5.08
1.54
-1.57
-4.14
-6.41
-8.8
-11.76
-15.65
-20.56
-26.23
-32.14
-37.51
-41.4
-42.94
-41.47
-36.82
-29.34
-19.92
-9.73
0.02
8.36
14.68
18.74
20.53
20.24
18.21
14.94
11.07
7.31
4.33
2.56
2.13
2.87
4.45
6.46
8.55
10.5
12.08
13.15
13.53
13.1
11.83
9.8
7.2
4.28
1.29
-1.58
-4.23
-6.7
-9.16
-11.9
-15.23
-19.34
-24.12
-29.13
-33.55
-36.42
-36.84
-34.31
-28.88
-21.15
-12.16
-3.06
5.14
11.71
16.31
18.87
19.51
18.42
15.88
12.29
8.22
4.33
1.28
-0.45
-0.71
0.32
2.24
4.52
6.74
8.58
9.84
10.37
10.08
8.94
7.01
4.5
1.7
-1.1
-3.78
-6.39
-9.19
-12.5
-16.56
-21.42
-26.81
-32.12
-36.48
-38.88
-38.48
-34.85
-28.19
-19.28
-9.38
0.19
8.31
14.28
17.84
19.1
18.37
16.05
12.67
8.83
5.22
2.43
0.9
0.78
1.9
3.92
6.4
8.9
11.02
12.39
12.74
11.91
9.93
7
3.49
-0.22
-3.83
-7.12
-10.08
-12.8
-15.54
-18.66
-22.53
-27.35
-32.88
-38.38
-42.61
-44.26
-42.35
-36.71
-28.04
-17.71
-7.25
2.07
9.49
14.78
18.06
19.55
19.47
18.11
15.78
12.94
10.17
7.98
6.75
6.59
7.35
8.7
10.3
11.88
13.3
14.4
15.03
14.94
13.89
11.76
8.59
4.69
0.48
-3.59
-7.22
-10.35
-13.14
-15.95
-19.22
-23.33
-28.39
-34.07
-39.53
-43.53
-44.85
-42.66
-36.86
-28.17
-17.83
-7.24
2.43
10.48
16.66
20.94
23.39
24.15
23.4
21.53
19.09
16.77
15.13
14.56
15.06
16.33
17.95
19.49
20.64
21.3
21.4
20.94
19.85
18.06
15.5
12.27
8.63
4.96
1.62
-1.21
-3.65
-6.1
-9.08
-13.12
-18.46
-24.91
-31.77
-37.94
-42.14
-43.25
-40.62
-34.28
-24.96
-13.93
-2.65
7.52
15.66
21.38
24.76
26.18
26.11
24.97
23.19
21.16
19.33
18.17
18.01
18.91
20.59
22.54
24.24
25.33
25.72
25.55
25.04
24.25
23.08
21.28
18.65
15.19
11.12
6.89
2.93
-0.49
-3.3
-5.69
-8
-10.68
-14.15
-18.7
-24.34
-30.6
-36.57
-40.98
-42.54
-40.41
-34.53
-25.6
-14.93
-3.96
6.15
14.68
21.32
25.99
28.66
29.32
28.09
25.36
21.85
18.43
15.91
14.8
15.08
16.34
17.94
19.29
20.07
20.27
20.1
19.81
19.5
19.11
18.38
17.08
15.06
12.37
9.2
5.84
2.53
-0.59
-3.54
-6.49
-9.68
-13.36
-17.67
-22.55
-27.67
-32.34
-35.69
-36.81
-35.06
-30.32
-22.99
-13.97
-4.35
4.81
12.7
18.8
22.84
24.69
24.34
22.02
18.21
13.7
9.48
6.46
5.22
5.88
8.05
11.04
14.11
16.69
18.49
19.45
19.58
18.91
17.4
15.06
11.98
8.43
4.8
1.44
-1.42
-3.82
-6
-8.37
-11.33
-15.19
-20.05
-25.65
-31.33
-36.11
-38.89
-38.72
-35.19
-28.55
-19.69
-9.86
-0.27
8.15
14.93
19.92
23.12
24.56
24.28
22.42
19.31
15.59
12.05
9.46
8.32
8.68
10.14
12.07
13.82
15.01
15.54
15.55
15.14
14.3
12.88
10.69
7.75
4.25
0.59
-2.86
-5.87
-8.44
-10.77
-13.15
-15.91
-19.31
-23.49
-28.45
-33.86
-39.13
-43.31
-45.4
-44.57
-40.47
-33.39
-24.21
-14.13
-4.34
4.27
11.22
16.41
19.96
21.96
22.54
21.83
20.14
17.96
15.9
14.57
14.31
15.17
16.83
18.82
20.61
21.8
22.21
21.87
20.99
19.79
18.44
16.96
15.26
13.15
10.5
7.31
3.74
0.05
-3.54
-6.91
-10.07
-13.21
-16.56
-20.38
-24.83
-29.9
-35.31
-40.5
-44.61
-46.62
-45.65
-41.23
-33.53
-23.45
-12.35
-1.75
7.15
13.74
17.99
20.3
21.14
20.9
19.78
17.92
15.63
13.37
11.76
11.28
12.11
14.03
16.46
18.8
20.56
21.6
22.02
22.01
21.72
21.16
20.2
18.69
16.54
13.75
10.45
6.84
3.22
-0.15
-3.09
-5.59
-7.85
-10.18
-12.97
-16.46
-20.71
-25.55
-30.55
-35.14
-38.51
-39.84
-38.46
-34.08
-26.94
-17.88
-8.13
1.07
8.75
14.41
17.99
19.71
19.88
18.8
16.8
14.28
11.77
9.82
8.89
9.19
10.6
12.73
15
16.93
18.25
18.93
19.12
19.02
18.71
18.08
16.86
14.82
11.88
8.24
4.35
0.71
-2.3
-4.61
-6.49
-8.37
-10.77
-13.99
-18.13
-22.94
-27.93
-32.4
-35.53
-36.64
-35.24
-31.22
-24.92
-17.01
-8.45
-0.21
6.9
12.3
15.7
17.12
16.76
14.98
12.31
9.27
6.43
4.23
2.97
2.77
3.58
5.16
7.2
9.32
11.2
12.59
13.34
13.37
12.66
11.24
9.14
6.47
3.45
0.36
-2.48
-4.83
-6.63
-8.05
-9.44
-11.24
-13.83
-17.39
-21.77
-26.48
-30.74
-33.64
-34.36
-32.37
-27.62
-20.61
-12.24
-3.63
4.19
10.47
14.82
17.19
17.78
16.85
14.74
11.83
8.57
5.55
3.29
2.19
2.36
3.61
5.51
7.61
9.51
10.98
11.97
12.49
12.58
12.18
11.16
9.41
6.85
3.6
-0.1
-3.82
-7.21
-10.07
-12.5
-14.87
-17.71
-21.43
-26.13
-31.46
-36.64
-40.66
-42.5
-41.49
-37.46
-30.81
-22.43
-13.43
-4.86
2.43
7.99
11.68
13.63
14.08
13.33
11.71
9.57
7.34
5.49
4.43
4.46
5.58
7.49
9.68
11.62
12.88
13.33
13.08
12.38
11.47
10.41
9.1
7.35
4.97
1.95
-1.51
-5.1
-8.47
-11.41
-13.93
-16.23
-18.69
-21.69
-25.4
-29.73
-34.19
-37.99
-40.19
-39.99
-36.96
-31.22
-23.46
-14.68
-5.96
1.88
8.33
13.24
16.58
18.39
18.72
17.68
15.61
12.97
10.46
8.74
8.29
9.17
11.1
13.49
15.68
17.19
17.81
17.67
17.01
16.04
14.83
13.27
11.2
8.61
5.67
2.69
0.04
-2.07
-3.66
-5
-6.54
-8.77
-12.01
-16.34
-21.54
-27.05
-32.13
-35.93
-37.65
-36.79
-33.19
-27.18
-19.5
-11.12
-2.99
4.14
9.89
14.23
17.2
18.95
19.53
19.02
17.57
15.6
13.61
12.2
11.79
12.52
14.2
16.37
18.46
20.04
20.88
21.03
20.72
20.16
19.43
18.46
17.01
14.91
12.12
8.82
5.34
2.01
-0.94
-3.5
-5.85
-8.22
-10.92
-14.14
-18.06
-22.68
-27.8
-32.88
-37.12
-39.57
-39.38
-36.13
-29.97
-21.66
-12.38
-3.35
4.47
10.5
14.59
16.84
17.46
16.7
14.84
12.29
9.61
7.41
6.26
6.47
7.99
10.43
13.21
15.78
17.76
19.06
19.72
19.9
19.61
18.8
17.33
15.11
12.17
8.72
5.14
1.82
-0.92
-3
-4.6
-6.12
-8.06
-10.85
-14.7
-19.48
-24.71
-29.61
-33.27
-34.85
-33.8
-29.97
-23.7
-15.73
-7
1.48
8.88
14.59
18.28
19.9
19.56
17.6
14.56
11.08
7.9
5.65
4.76
5.3
7.03
9.45
11.98
14.13
15.64
16.46
16.7
16.47
15.84
14.78
13.14
10.79
7.74
4.2
0.53
-2.85
-5.7
-8.01
-10.06
-12.29
-15.14
-18.86
-23.41
-28.4
-33.13
-36.73
-38.36
-37.38
-33.63
-27.4
-19.44
-10.73
-2.23
5.32
11.42
15.86
18.57
19.58
19.04
17.26
14.65
11.79
9.31
7.76
7.48
8.5
10.49
12.89
15.13
16.75
17.59
17.72
17.34
16.58
15.45
13.81
11.53
8.6
5.16
1.53
-1.97
-5.11
-7.81
-10.16
-12.36
-14.73
-17.58
-21.23
-25.79
-31.11
-36.64
-41.45
-44.47
-44.74
-41.79
-35.73
-27.31
-17.65
-7.95
0.79
7.92
13.19
16.62
18.4
18.75
17.86
16.02
13.65
11.32
9.68
9.26
10.23
12.39
15.21
18.01
20.25
21.63
22.13
21.94
21.29
20.38
19.25
17.86
16.04
13.67
10.72
7.33
3.77
0.37
-2.65
-5.3
-7.76
-10.34
-13.36
-17.01
-21.33
-26.22
-31.39
-36.34
-40.39
-42.68
-42.47
-39.33
-33.35
-25.19
-15.85
-6.43
2.18
9.39
14.96
18.84
21.07
21.75
21.04
19.25
16.82
14.33
12.38
11.48
11.91
13.61
16.19
19.04
21.53
23.19
23.89
23.74
22.98
21.81
20.31
18.46
16.21
13.6
10.73
7.74
4.74
1.78
-1.13
-3.97
-6.7
-9.32
-11.87
-14.5
-17.5
-21.14
-25.56
-30.54
-35.46
-39.29
-40.92
-39.51
-34.82
-27.33
-18.11
-8.49
0.37
7.7
13.18
16.79
18.64
18.89
17.75
15.56
12.87
10.36
8.68
8.26
9.2
11.25
13.95
16.75
19.2
20.98
21.95
22.13
21.64
20.65
19.35
17.89
16.31
14.6
12.57
10.13
7.25
4.07
0.87
-2.11
-4.77
-7.2
-9.66
-12.47
-15.83
-19.83
-24.34
-29.11
-33.7
-37.49
-39.75
-39.73
-37.01
-31.61
-24.07
-15.35
-6.54
1.45
8
12.87
16
17.49
17.44
16.05
13.67
10.85
8.24
6.48
5.99
6.87
8.81
11.26
13.64
15.5
16.69
17.25
17.33
17.02
16.27
14.93
12.85
10.03
6.68
3.17
-0.06
-2.72
-4.75
-6.4
-8.17
-10.58
-13.99
-18.5
-23.77
-29.17
-33.83
-36.9
-37.69
-35.82
-31.33
-24.62
-16.44
-7.63
0.95
8.6
14.8
19.23
21.69
22.2
20.89
18.19
14.7
11.19
8.4
6.89
6.89
8.23
10.42
12.83
14.89
16.23
16.79
16.64
15.93
14.72
12.98
10.64
7.7
4.3
0.72
-2.68
-5.65
-8.11
-10.25
-12.4
-14.94
-18.21
-22.36
-27.32
-32.7
-37.84
-41.87
-43.85
-43.05
-39.09
-32.18
-23.12
-13.07
-3.31
5.19
11.83
16.5
19.32
20.5
20.29
18.88
16.64
14
11.58
9.94
9.43
10.08
11.59
13.44
15.11
16.28
16.88
17.05
16.99
16.72
16.08
14.7
12.27
8.73
4.44
-0
-3.94
-6.98
-9.15
-10.83
-12.56
-14.86
-18.04
-22.14
-27.02
-32.27
-37.27
-41.19
-43.08
-42.15
-38.04
-31.03
-21.98
-12.11
-2.63
5.57
12.07
16.8
19.89
21.45
21.57
20.39
18.22
15.58
13.13
11.49
11.06
11.83
13.5
15.57
17.54
19.11
20.17
20.77
20.97
20.75
19.94
18.34
15.85
12.56
8.76
4.9
1.37
-1.6
-4.02
-6.15
-8.35
-11.03
-14.51
-18.96
-24.29
-30.07
-35.53
-39.57
-41.13
-39.44
-34.33
-26.35
-16.62
-6.47
2.93
10.82
16.86
21.04
23.41
24.08
23.19
21.01
18.02
14.91
12.36
10.96
10.97
12.25
14.39
16.77
18.87
20.32
21
20.98
20.43
19.48
18.16
16.46
14.31
11.72
8.77
5.66
2.56
-0.31
-2.89
-5.25
-7.62
-10.3
-13.63
-17.78
-22.71
-28.11
-33.35
-37.59
-39.92
-39.56
-36.14
-29.81
-21.29
-11.67
-2.15
6.28
12.99
17.76
20.61
21.67
21.06
19.01
15.91
12.41
9.3
7.35
7.01
8.26
10.67
13.51
16.13
18.06
19.16
19.5
19.23
18.46
17.21
15.45
13.21
10.51
7.48
4.26
1.09
-1.89
-4.57
-7
-9.42
-12.19
-15.64
-19.92
-24.88
-29.99
-34.47
-37.44
-38.16
-36.21
-31.55
-24.63
-16.21
-7.23
1.36
8.77
14.49
18.22
19.92
19.79
18.09
15.3
12.01
8.91
6.61
5.56
5.88
7.3
9.36
11.52
13.37
14.69
15.4
15.46
14.8
13.37
11.17
8.38
5.31
2.31
-0.36
-2.63
-4.65
-6.7
-9.13
-12.25
-16.25
-21.14
-26.56
-31.83
-35.96
-37.89
-36.86
-32.64
-25.7
-17.04
-7.91
0.58
7.74
13.27
17.15
19.45
20.21
19.45
17.38
14.44
11.33
8.86
7.63
7.86
9.34
11.55
13.88
15.87
17.22
17.9
17.93
17.32
16.06
14.07
11.35
8.01
4.31
0.6
-2.8
-5.71
-8.12
-10.24
-12.37
-14.85
-17.99
-22.01
-26.9
-32.3
-37.47
-41.34
-42.8
-41.07
-36.05
-28.34
-19.13
-9.73
-1.22
5.8
11.15
14.89
17.12
17.85
17.16
15.3
12.76
10.3
8.68
8.43
9.64
11.98
14.82
17.47
19.5
20.74
21.3
21.34
21
20.22
18.9
16.9
14.2
10.92
7.31
3.64
0.2
-2.84
-5.39
-7.59
-9.67
-12.04
-15.06
-19.04
-24.01
-29.67
-35.35
-40.07
-42.74
-42.51
-38.94
-32.26
-23.3
-13.27
-3.4
5.3
12.24
17.26
20.47
22.12
22.46
21.72
20.2
18.25
16.36
15.06
14.8
15.74
17.69
20.16
22.53
24.27
25.15
25.23
24.75
23.89
22.69
21.05
18.83
16.02
12.78
9.39
6.1
3.02
0.12
-2.72
-5.64
-8.72
-12.06
-15.74
-19.92
-24.64
-29.74
-34.69
-38.73
-40.93
-40.54
-37.19
-31.04
-22.74
-13.29
-3.79
4.83
11.94
17.26
20.83
22.85
23.53
23.06
21.59
19.43
17.03
14.97
13.83
13.94
15.23
17.28
19.5
21.35
22.55
23.05
23.03
22.63
21.88
20.65
18.83
16.37
13.42
10.22
7.06
4.14
1.48
-0.98
-3.44
-6.12
-9.24
-13.02
-17.53
-22.65
-27.96
-32.75
-36.1
-37.16
-35.38
-30.76
-23.79
-15.37
-6.6
1.51
8.2
13.05
15.98
17.13
16.8
15.38
13.26
10.85
8.56
6.8
5.92
6.09
7.3
9.25
11.5
13.58
15.14
16.03
16.26
15.96
15.17
13.89
12.03
9.6
6.73
3.72
0.91
-1.46
-3.4
-5.13
-7.05
-9.55
-12.85
-16.94
-21.52
-25.99
-29.57
-31.44
-30.98
-27.93
-22.51
-15.36
-7.34
0.62
7.78
13.58
17.71
19.96
20.33
18.98
16.28
12.8
9.22
6.19
4.22
3.56
4.15
5.68
7.66
9.55
10.94
11.64
11.63
11.01
9.9
8.33
6.25
3.72
0.86
-2.11
-4.95
-7.55
-9.97
-12.44
-15.25
-18.67
-22.75
-27.29
-31.77
-35.4
-37.29
-36.68
-33.24
-27.15
-19.18
-10.41
-1.92
5.46
11.29
15.46
18
19.04
18.66
17.08
14.67
11.96
9.58
8.06
7.67
8.37
9.84
11.58
13.12
14.11
14.47
14.27
13.66
12.68
11.25
9.21
6.43
2.98
-0.82
-4.53
-7.72
-10.23
-12.24
-14.19
-16.65
-20.08
-24.62
-30.05
-35.71
-40.64
-43.79
-44.2
-41.39
-35.42
-26.99
-17.2
-7.28
1.72
9.14
14.75
18.56
20.7
21.26
20.38
18.32
15.6
12.89
10.89
10.01
10.27
11.31
12.57
13.64
14.37
14.92
15.5
16.15
16.66
16.59
15.5
13.23
9.97
6.21
2.53
-0.64
-3.17
-5.22
-7.18
-9.49
-12.59
-16.7
-21.76
-27.35
-32.7
-36.77
-38.59
-37.47
-33.3
-26.52
-18.05
-8.96
-0.26
7.32
13.32
17.54
19.94
20.6
19.73
17.72
15.07
12.41
10.34
9.25
9.33
10.42
12.1
13.89
15.36
16.26
16.6
16.49
16.09
15.42
14.4
12.88
10.75
8.08
5.1
2.12
-0.58
-2.89
-4.93
-7.06
-9.71
-13.27
-17.85
-23.21
-28.68
-33.32
-36.13
-36.3
-33.51
-27.98
-20.42
-11.79
-3.11
4.79
11.35
16.27
19.44
20.9
20.78
19.36
16.99
14.19
11.52
9.52
8.53
8.66
9.7
11.26
12.92
14.34
15.38
16.02
16.24
15.91
14.86
12.94
10.21
6.92
3.5
0.41
-2.11
-4.08
-5.79
-7.7
-10.3
-13.89
-18.52
-23.84
-29.16
-33.53
-35.98
-35.74
-32.52
-26.57
-18.66
-9.89
-1.43
5.77
11.15
14.52
16
15.88
14.47
12.1
9.2
6.29
3.92
2.56
2.48
3.68
5.85
8.54
11.23
13.45
14.91
15.42
14.96
13.59
11.5
8.91
6.09
3.31
0.74
-1.52
-3.57
-5.64
-8.09
-11.23
-15.23
-20.01
-25.14
-29.86
-33.24
-34.39
-32.72
-28.24
-21.54
-13.67
-5.82
1.08
6.51
10.37
12.83
14.04
14.04
12.8
10.44
7.34
4.14
1.57
0.19
0.21
1.4
3.27
5.27
7.01
8.25
8.9
8.9
8.19
6.71
4.48
1.69
-1.37
-4.44
-7.32
-10.06
-12.87
-16.07
-19.88
-24.35
-29.2
-33.77
-37.24
-38.68
-37.46
-33.4
-26.86
-18.71
-10.12
-2.16
4.32
8.92
11.63
12.71
12.56
11.56
10.03
8.23
6.39
4.79
3.75
3.54
4.31
5.99
8.27
10.67
12.68
13.83
13.87
12.72
10.54
7.6
4.3
1
-2.06
-4.81
-7.4
-10.14
-13.36
-17.34
-22.16
-27.62
-33.26
-38.36
-41.99
-43.3
-41.6
-36.73
-29.1
-19.67
-9.67
-0.3
7.54
13.38
17.15
19.05
19.39
18.56
17
15.2
13.59
12.52
12.21
12.63
13.6
14.83
16.03
16.95
17.44
17.41
16.83
15.68
13.94
11.65
8.88
5.82
2.71
-0.22
-2.84
-5.17
-7.44
-10.03
-13.34
-17.64
-22.9
-28.64
-33.99
-37.85
-39.17
-37.35
-32.35
-24.77
-15.65
-6.12
2.81
10.45
16.43
20.6
22.92
23.48
22.47
20.25
17.44
14.79
13.03
12.64
13.71
15.87
18.51
20.96
22.7
23.55
23.58
23.05
22.13
20.89
19.2
16.97
14.17
10.97
7.68
4.56
1.79
-0.76
-3.35
-6.38
-10.19
-14.94
-20.5
-26.37
-31.74
-35.62
-37.07
-35.43
-30.61
-23.08
-13.83
-4.07
5.06
12.69
18.38
21.97
23.56
23.42
21.91
19.48
16.71
14.23
12.59
12.17
13.03
14.9
17.28
19.57
21.31
22.25
22.42
22
21.18
20.02
18.45
16.32
13.58
10.35
6.94
3.69
0.83
-1.6
-3.83
-6.21
-9.16
-12.95
-17.62
-22.91
-28.22
-32.67
-35.27
-35.22
-32.09
-26.06
-17.82
-8.44
0.92
9.27
15.85
20.23
22.28
22.14
20.19
17.08
13.59
10.5
8.42
7.7
8.31
10
12.34
14.86
17.12
18.76
19.56
19.45
18.52
16.89
14.76
12.26
9.5
6.58
3.64
0.84
-1.66
-3.86
-5.95
-8.32
-11.39
-15.4
-20.19
-25.12
-29.17
-31.27
-30.56
-26.79
-20.34
-12.17
-3.46
4.71
11.58
16.79
20.25
21.99
22.03
20.49
17.66
14.12
10.66
8.07
6.86
7.14
8.6
10.7
12.89
14.8
16.24
17.09
17.27
16.63
15.02
12.41
8.94
4.98
0.98
-2.65
-5.68
-8.19
-10.49
-13
-16.1
-19.99
-24.62
-29.65
-34.48
-38.31
-40.26
-39.64
-36.1
-29.83
-21.53
-12.26
-3.11
5.03
11.59
16.31
19.16
20.19
19.58
17.69
15.06
12.38
10.31
9.28
9.41
10.51
12.19
14.05
15.78
17.15
18.06
18.46
18.34
17.67
16.43
14.58
12.1
9.01
5.49
1.83
-1.64
-4.65
-7.22
-9.66
-12.45
-16.01
-20.42
-25.32
-29.93
-33.33
-34.67
-33.45
-29.64
-23.63
-16.17
-8.1
-0.26
6.72
12.39
16.51
19
19.91
19.41
17.8
15.54
13.16
11.22
10.08
9.87
10.51
11.68
13
14.13
14.86
15.11
14.87
14.18
13.03
11.39
9.25
6.69
3.84
0.99
-1.57
-3.62
-5.18
-6.45
-7.88
-9.93
-12.96
-17.04
-21.93
-27.02
-31.46
-34.36
-34.96
-32.85
-28.06
-21.11
-12.85
-4.32
3.57
10.15
15.11
18.37
20.07
20.37
19.5
17.78
15.62
13.57
12.11
11.55
11.88
12.83
13.97
14.89
15.4
15.51
15.35
15.06
14.66
14.01
12.91
11.18
8.78
5.84
2.61
-0.63
-3.63
-6.31
-8.77
-11.25
-14.08
-17.49
-21.49
-25.79
-29.78
-32.65
-33.64
-32.22
-28.28
-22.19
-14.72
-6.88
0.39
6.43
10.9
13.75
15.07
15.02
13.79
11.65
9.06
6.59
4.81
4.1
4.54
5.85
7.6
9.37
10.86
11.93
12.54
12.61
12.07
10.8
8.79
6.16
3.11
-0.03
-3
-5.57
-7.68
-9.43
-11.07
-12.99
-15.58
-19.05
-23.24
-27.51
-30.89
-32.32
-31.02
-26.83
-20.26
-12.35
-4.32
2.79
8.35
12.17
14.37
15.18
14.75
13.18
10.62
7.41
4.11
1.41
-0.16
-0.34
0.7
2.47
4.4
6.02
7.06
7.41
7.04
5.92
4.1
1.7
-0.99
-3.65
-6.03
-8.09
-10.02
-12.16
-14.84
-18.19
-22.02
-25.89
-29.12
-31
-30.87
-28.34
-23.42
-16.56
-8.59
-0.58
6.5
11.92
15.41
17.07
17.22
16.25
14.49
12.23
9.74
7.36
5.44
4.29
4.04
4.61
5.75
7.03
8.07
8.51
8.15
6.95
5
2.5
-0.35
-3.35
-6.38
-9.29
-12.01
-14.5
-16.89
-19.41
-22.43
-26.2
-30.69
-35.38
-39.37
-41.55
-41.01
-37.34
-30.82
-22.36
-13.19
-4.5
2.84
8.41
12.19
14.36
15.16
14.81
13.53
11.64
9.57
7.8
6.77
6.69
7.52
8.98
10.68
12.28
13.58
14.49
14.97
14.95
14.35
13.08
11.16
8.73
6
3.2
0.5
-2.13
-4.76
-7.56
-10.75
-14.51
-18.95
-24
-29.33
-34.25
-37.86
-39.22
-37.68
-33.11
-26
-17.3
-8.18
0.29
7.34
12.59
15.95
17.56
17.64
16.5
14.48
12.03
9.62
7.77
6.87
7.14
8.49
10.59
12.95
15.1
16.76
17.86
18.45
18.64
18.41
17.69
16.34
14.32
11.72
8.75
5.67
2.67
-0.19
-3.03
-6.05
-9.5
-13.59
-18.32
-23.48
-28.54
-32.77
-35.32
-35.45
-32.75
-27.31
-19.69
-10.84
-1.82
6.37
13.02
17.82
20.73
21.96
21.79
20.48
18.36
15.82
13.42
11.67
11
11.52
13
14.98
16.91
18.41
19.27
19.53
19.27
18.58
17.44
15.81
13.61
10.89
7.76
4.45
1.24
-1.65
-4.14
-6.4
-8.75
-11.65
-15.43
-20.09
-25.29
-30.31
-34.25
-36.21
-35.56
-32.05
-25.96
-18.05
-9.32
-0.88
6.4
12.01
15.8
17.91
18.54
17.86
16.03
13.35
10.28
7.5
5.66
5.23
6.25
8.36
10.94
13.37
15.27
16.44
16.93
16.78
15.97
14.47
12.28
9.57
6.62
3.83
1.47
-0.4
-1.96
-3.56
-5.6
-8.4
-12.12
-16.64
-21.56
-26.18
-29.57
-30.81
-29.18
-24.55
-17.37
-8.67
0.31
8.34
14.6
18.73
20.78
21.04
19.9
17.71
14.84
11.66
8.65
6.31
5.05
5.05
6.15
7.91
9.77
11.25
12.13
12.42
12.21
11.53
10.28
8.32
5.63
2.44
-0.84
-3.79
-6.2
-8.2
-10.26
-12.92
-16.53
-21.12
-26.3
-31.31
-35.22
-37.12
-36.33
-32.59
-26.15
-17.74
-8.44
0.57
8.36
14.3
18.19
20.09
20.24
18.91
16.46
13.37
10.26
7.86
6.74
7.14
8.81
11.17
13.5
15.28
16.33
16.8
16.93
16.87
16.49
15.48
13.52
10.52
6.69
2.52
-1.49
-4.98
-7.9
-10.45
-13.05
-16.11
-19.94
-24.67
-30.1
-35.77
-40.89
-44.46
-45.51
-43.4
-38.04
-29.98
-20.29
-10.26
-1.04
6.59
12.35
16.28
18.56
19.46
19.19
18.04
16.36
14.67
13.49
13.21
13.99
15.64
17.7
19.64
21
21.6
21.48
20.91
20.11
19.21
18.14
16.75
14.87
12.45
9.63
6.59
3.58
0.74
-1.91
-4.55
-7.41
-10.79
-14.88
-19.72
-25.14
-30.69
-35.73
-39.46
-41.05
-39.86
-35.61
-28.59
-19.58
-9.74
-0.28
7.85
14.14
18.52
21.21
22.47
22.53
21.6
19.93
17.96
16.27
15.45
15.91
17.63
20.16
22.72
24.53
25.11
24.44
22.94
21.15
19.44
17.88
16.22
14.17
11.58
8.6
5.54
2.76
0.41
-1.6
-3.55
-5.77
-8.55
-12.03
-16.24
-21.09
-26.29
-31.31
-35.42
-37.76
-37.57
-34.46
-28.55
-20.53
-11.41
-2.35
5.68
12.08
16.62
19.35
20.47
20.2
18.78
16.54
13.93
11.5
9.78
9.17
9.74
11.27
13.28
15.25
16.76
17.65
17.94
17.79
17.29
16.4
15.02
13.02
10.46
7.57
4.72
2.28
0.42
-0.99
-2.31
-4.02
-6.54
-10.06
-14.51
-19.54
-24.56
-28.85
-31.62
-32.22
-30.3
-25.94
-19.67
-12.32
-4.82
2.04
7.73
11.96
14.61
15.68
15.21
13.41
10.68
7.62
4.9
3.15
2.73
3.63
5.55
7.96
10.36
12.36
13.77
14.52
14.58
13.93
12.5
10.33
7.6
4.58
1.62
-1.05
-3.3
-5.17
-6.85
-8.63
-10.83
-13.73
-17.44
-21.72
-25.98
-29.32
-30.76
-29.57
-25.52
-18.98
-10.84
-2.2
5.85
12.47
17.18
19.85
20.6
19.69
17.51
14.48
11.13
8.04
5.75
4.67
4.89
6.16
7.98
9.77
11.04
11.59
11.45
10.81
9.85
8.62
7.07
5.1
2.66
-0.15
-3.12
-5.95
-8.46
-10.64
-12.75
-15.17
-18.29
-22.24
-26.81
-31.35
-35
-36.9
-36.42
-33.36
-27.94
-20.81
-12.86
-4.99
1.98
7.56
11.55
13.99
15.04
14.91
13.79
11.96
9.8
7.82
6.53
6.29
7.18
8.93
11.07
13.06
14.54
15.35
15.57
15.36
14.83
13.97
12.68
10.82
8.35
5.43
2.34
-0.56
-3.05
-5.14
-7.14
-9.5
-12.63
-16.76
-21.8
-27.29
-32.51
-36.6
-38.7
-38.25
-35.05
-29.41
-22.06
-13.96
-6.01
1.11
7.02
11.58
14.76
16.55
17.03
16.37
14.9
13.11
11.53
10.61
10.55
11.33
12.71
14.34
15.87
17.05
17.78
18.09
18.06
17.73
17.04
15.9
14.23
11.98
9.26
6.24
3.16
0.27
-2.3
-4.56
-6.71
-9.06
-11.94
-15.56
-19.89
-24.62
-29.17
-32.81
-34.78
-34.5
-31.71
-26.63
-19.83
-12.19
-4.58
2.32
8.07
12.47
15.49
17.13
17.45
16.59
14.83
12.63
10.57
9.22
8.92
9.77
11.5
13.66
15.75
17.44
18.57
19.14
19.22
18.8
17.82
16.18
13.85
10.94
7.66
4.3
1.18
-1.53
-3.74
-5.6
-7.37
-9.43
-12.12
-15.63
-19.91
-24.6
-29.07
-32.49
-34.07
-33.23
-29.78
-24.03
-16.68
-8.66
-0.88
5.93
11.32
15.03
16.96
17.16
15.82
13.35
10.32
7.42
5.23
4.16
4.26
5.31
6.92
8.69
10.35
11.81
13.05
14.06
14.75
14.87
14.21
12.6
10.09
6.96
3.64
0.55
-2.08
-4.26
-6.26
-8.43
-11.11
-14.42
-18.3
-22.46
-26.41
-29.59
-31.35
-31.15
-28.64
-23.84
-17.19
-9.48
-1.7
5.25
10.77
14.56
16.63
17.12
16.28
14.33
11.59
8.46
5.45
3.11
1.89
1.97
3.2
5.14
7.25
9.01
10.16
10.66
10.59
10.09
9.2
7.89
6.12
3.9
1.35
-1.4
-4.2
-7.02
-9.91
-12.98
-16.33
-19.93
-23.61
-27.04
-29.77
-31.31
-31.2
-29.17
-25.27
-19.85
-13.52
-7.02
-0.98
4.16
8.21
11.14
12.96
13.66
13.24
11.79
9.64
7.32
5.46
4.59
4.94
6.41
8.61
10.99
13.05
14.46
15.08
14.95
14.2
13
11.45
9.64
7.59
5.26
2.67
-0.14
-3.08
-5.97
-8.7
-11.23
-13.7
-16.35
-19.52
-23.41
-28.01
-32.97
-37.62
-41.09
-42.52
-41.39
-37.58
-31.46
-23.8
-15.53
-7.5
-0.36
5.48
9.85
12.68
14
13.96
12.84
11.09
9.25
7.89
7.38
7.85
9.13
10.86
12.62
14.05
14.99
15.41
15.45
15.23
14.83
14.17
13.16
11.66
9.59
7.02
4.12
1.22
-1.37
-3.44
-5.04
-6.49
-8.27
-10.9
-14.59
-19.19
-24.09
-28.5
-31.54
-32.54
-31.14
-27.36
-21.5
-14.19
-6.21
1.64
8.63
14.27
18.32
20.72
21.55
20.96
19.23
16.75
14.08
11.84
10.55
10.48
11.55
13.38
15.44
17.21
18.38
18.81
18.62
17.96
17.01
15.87
14.52
12.93
11
8.76
6.27
3.65
1.06
-1.39
-3.66
-5.79
-7.89
-10.19
-12.89
-16.16
-20
-24.17
-28.16
-31.21
-32.52
-31.42
-27.65
-21.47
-13.65
-5.23
2.73
9.43
14.48
17.78
19.5
19.82
18.95
17.08
14.58
11.91
9.64
8.27
8.04
8.93
10.57
12.5
14.19
15.32
15.73
15.48
14.75
13.7
12.41
10.89
9.05
6.89
4.51
2.13
0.02
-1.65
-2.92
-4.08
-5.54
-7.73
-10.85
-14.82
-19.26
-23.48
-26.69
-28.16
-27.37
-24.17
-18.84
-12.05
-4.68
2.42
8.54
13.3
16.5
18.11
18.15
16.74
14.14
10.85
7.53
4.87
3.38
3.22
4.24
6.02
8.11
10.16
11.96
13.38
14.28
14.49
13.83
12.23
9.84
7.02
4.21
1.79
-0.1
-1.62
-3.14
-5.1
-7.85
-11.5
-15.92
-20.69
-25.12
-28.45
-29.89
-28.96
-25.53
-19.94
-12.97
-5.54
1.41
7.17
11.34
13.79
14.59
14
12.29
9.84
7.06
4.39
2.27
1.07
0.98
2
3.85
6.15
8.45
10.42
11.85
12.65
12.75
12.13
10.77
8.7
6.1
3.22
0.34
-2.32
-4.7
-6.88
-9.1
-11.68
-14.89
-18.84
-23.37
-27.97
-31.8
-33.86
-33.36
-29.93
-23.86
-16
-7.51
0.51
7.31
12.58
16.33
18.72
19.85
19.73
18.44
16.2
13.51
11.03
9.39
8.94
9.64
11.04
12.58
13.81
14.58
15.06
15.45
15.85
16.06
15.7
14.39
12.01
8.84
5.38
2.17
-0.42
-2.39
-3.95
-5.45
-7.22
-9.51
-12.46
-16.17
-20.57
-25.37
-29.92
-33.35
-34.72
-33.38
-29.23
-22.76
-14.97
-6.99
0.26
6.26
10.87
14.19
16.38
17.48
17.54
16.66
15.18
13.6
12.45
12.11
12.67
13.94
15.59
17.29
18.79
19.93
20.6
20.73
20.33
19.48
18.32
16.95
15.41
13.59
11.4
8.84
6.07
3.43
1.21
-0.48
-1.83
-3.19
-5
-7.6
-11.08
-15.38
-20.2
-25.07
-29.36
-32.34
-33.33
-31.89
-28.02
-22.16
