2.79
4.32
5.7
6.44
6.31
5.31
3.64
1.5
-0.96
-3.67
-6.63
-9.84
-13.33
-17.09
-21.19
-25.62
-30.27
-34.79
-38.59
-40.89
-40.9
-38.16
-32.59
-24.72
-15.51
-6.06
2.6
9.76
15.1
18.6
20.42
20.77
19.89
18.04
15.56
12.85
10.32
8.34
7.11
6.62
6.69
7.02
7.35
7.49
7.32
6.83
5.97
4.72
3.09
1.12
-1.11
-3.48
-5.95
-8.62
-11.66
-15.31
-19.67
-24.56
-29.39
-33.27
-35.12
-34.09
-29.81
-22.57
-13.28
-3.2
6.44
14.8
21.51
26.62
30.31
32.72
33.82
33.6
32.18
29.94
27.54
25.68
24.9
25.42
27.12
29.53
32.1
34.26
35.54
35.65
34.49
32.15
28.94
25.3
21.61
18.07
14.63
11.01
6.88
1.98
-3.71
-9.97
-16.35
-22.2
-26.74
-29.14
-28.75
-25.29
-19.09
-10.99
-2.17
6.23
13.42
19.08
23.24
26.07
27.69
28.09
27.27
25.34
22.62
19.63
16.92
14.99
14.04
14.05
14.72
15.62
16.25
16.24
15.36
13.57
11.03
7.92
4.49
0.94
-2.54
-5.88
-9.12
-12.48
-16.27
-20.76
-25.97
-31.44
-36.33
-39.52
-40.07
-37.54
-32.23
-25.02
-17.13
-9.64
-3.3
1.59
5.13
7.61
9.41
10.85
12.15
13.48
14.92
16.56
18.46
20.71
23.33
26.25
29.22
31.92
33.94
34.98
34.9
33.73
31.63
28.8
25.37
21.48
17.24
12.83
8.44
4.2
0.16
-3.68
-7.19
-9.98
-11.34
-10.47
-6.67
0.28
9.96
21.48
33.72
45.68
56.69
66.38
74.6
81.3
86.47
90.1
92.21
92.86
92.16
90.31
87.64
84.67
81.96
79.97
78.74
77.86
76.56
74.09
70.08
64.75
58.83
53.06
47.93
43.36
38.88
33.88
27.92
20.92
13.12
4.89
-3.38
-11.33
-18.62
-24.87
-29.67
-32.74
-34.04
-33.82
-32.56
-30.85
-29.14
-27.69
-26.57
-25.69
-24.91
-23.98
-22.64
-20.69
-18.11
-15.2
-12.47
-10.48
-9.55
-9.6
-10.11
-10.24
-9.19
-6.41
-1.92
3.52
8.4
10.77
8.61
0.55
-13.64
-32.85
-54.87
-77.01
-96.79
-112.28
-122.17
-125.74
-122.75
-113.62
-99.47
-82.04
-63.4
-45.37
-29.19
-15.39
-4.04
4.9
11.32
14.94
15.57
13.33
8.76
2.7
-4
-10.72
-17.2
-23.51
-29.96
-37
-45.01
-54.32
-65.03
-76.9
-89.24
-100.83
-110.02
-115.02
-114.31
-107.04
-93.3
-74.2
-51.7
-28.2
-6.15
12.49
26.59
36.12
42.15
46.52
51.24
57.6
65.58
73.77
79.93
82.05
79.25
72.14
62.45
52.14
42.56
34.11
26.48
19.21
12.29
6.19
1.58
-1.17
-2.27
-2.5
-2.86
-4.06
-6.2
-8.56
-9.92
-9.07
-5.48
0.33
6.8
11.95
14.13
12.58
7.57
0.08
-8.67
-17.49
-25.39
-31.66
-36
-38.83
-41.39
-45.57
-53.17
-64.91
-79.77
-94.91
-106.45
-110.5
-104.28
-86.84
-59.39
-25.23
10.68
42.79
66.25
78.29
79.16
71.99
61.7
53.25
49.92
52.3
58.54
65.63
70.81
72.65
71
66.31
58.85
48.35
34.38
17.12
-2.01
-20.47
-35.45
-45.04
-49.1
-49.27
-48.12
-48.06
-50.49
-55.64
-62.97
-71.8
-81.63
-92.04
-102.33
-111.31
-117.22
-118.34
-113.68
-103.59
-89.73
-74.43
-59.7
-46.44
-34.27
-22.05
-8.69
6.23
22.22
38.16
52.58
63.84
70.31
70.68
64.42
52.47
37.31
22.43
11.17
5.5
5.48
9.59
15.77
22.53
29.44
36.86
45.18
54.18
63.04
70.88
77.32
82.81
88.11
93.58
98.5
101.08
99.12
91.14
77.15
58.86
39.08
20.66
5.7
-4.8
-10.67
-12.25
-10.2
-5.51
0.36
5.74
9.13
9.67
7.51
3.63
-0.61
-3.9
-5.23
-3.96
0.25
7.46
17.22
28.54
39.95
49.93
57.23
61.14
61.49
58.49
52.64
44.8
36.12
28.01
21.67
17.71
15.85
14.92
13.17
8.55
-1.02
-17.23
-40.96
-71.71
-107.34
-144.44
-179.23
-208.77
-231.76
-248.5
-260
-266.92
-268.97
-265.08
-254.3
-236.67
-213.68
-187.87
-162
-138.33
-118.09
-101.5
-88.09
-77.04
-67.45
-58.5
-49.43
-39.68
-28.93
-17.15
-4.76
7.51
18.72
27.98
34.67
38.6
39.97
39.33
37.43
35.17
33.35
32.58
33.11
34.71
36.74
38.4
39.08
38.49
36.81
34.48
31.89
29.31
26.72
23.95
20.78
16.98
12.35
6.79
0.33
-6.63
-13.32
-18.73
-21.83
-21.96
-19.09
-13.72
-6.72
1.04
8.92
16.51
23.47
29.44
33.98
36.74
37.66
37.07
35.65
34.1
32.97
32.39
32.16
31.96
31.54
30.94
30.35
30.03
30.1
30.43
30.64
30.25
28.78
25.88
21.37
15.35
8.19
0.6
-6.4
-11.71
-14.36
-13.87
-10.37
-4.56
2.58
10.11
17.34
23.77
29.02
32.6
34.03
32.97
29.54
24.46
18.91
14.11
10.91
9.47
9.28
9.47
9.21
8
5.84
3.03
-0.09
-3.31
-6.7
-10.57
-15.26
-21.09
-28.2
-36.52
-45.69
-54.98
-63.31
-69.44
-72.25
-71.18
-66.37
-58.73
-49.55
-40.11
-31.29
-23.38
-16.24
-9.61
-3.37
2.32
7.14
10.83
13.54
15.9
18.92
23.61
30.67
40.2
51.7
64.3
76.99
88.91
99.31
107.55
113.03
115.33
114.27
110.15
103.67
95.84
87.71
80.27
74.34
70.54
69.26
70.61
74.3
79.72
86.1
92.68
98.94
104.57
109.37
113.11
115.27
115.15
111.93
104.98
94.12
79.84
63.24
45.79
28.86
13.43
-0.15
-11.89
-21.86
-29.76
-34.96
-36.86
-35.47
-31.75
-27.49
-24.71
-24.9
-28.56
-35.18
-43.64
-52.64
-61
-67.66
-71.66
-72.16
-68.65
-61.35
-51.26
-39.99
-29.32
-20.67
-14.8
-11.77
-11.07
-11.86
-13.14
-13.93
-13.36
-10.91
-6.52
-0.62
6.08
12.99
19.82
26.67
33.81
41.24
48.5
54.72
58.98
60.73
60.06
57.56
53.91
49.46
44.13
37.63
29.94
21.61
13.86
8.08
5.38
6.04
9.46
14.47
19.81
24.53
28.14
30.53
31.67
31.47
29.74
26.39
21.6
15.93
10.25
5.39
2
0.23
-0.2
0.12
0.54
0.59
0.04
-1.09
-2.67
-4.55
-6.68
-9.1
-11.93
-15.33
-19.5
-24.58
-30.57
-37.27
-44.11
-50.21
-54.56
-56.3
-54.99
-50.78
-44.39
-36.86
-29.26
-22.46
-17.06
-13.32
-11.31
-10.99
-12.21
-14.71
-18.04
-21.64
-24.9
-27.24
-28.28
-27.88
-26.16
-23.51
-20.46
-17.57
-15.28
-13.81
-13.2
-13.33
-14
-15.08
-16.48
-18.22
-20.32
-22.86
-25.76
-28.77
-31.32
-32.6
-31.73
-28.02
-21.31
-12.05
-1.14
10.34
21.39
31.2
39.2
44.92
48.06
48.6
46.92
43.8
40.24
37.12
34.91
33.55
32.53
31.21
29.06
25.91
21.86
17.24
12.42
7.62
2.96
-1.57
-6.01
-10.44
-14.95
-19.62
-24.44
-29.24
-33.55
-36.64
-37.75
-36.27
-32.07
-25.56
-17.52
-8.94
-0.68
6.63
12.58
16.95
19.6
20.51
19.8
17.81
15.06
12.15
9.61
7.73
6.56
5.95
5.74
5.78
6.05
6.51
7.08
7.5
7.35
6.23
3.86
0.26
-4.31
-9.45
-14.68
-19.5
-23.34
-25.5
-25.29
-22.24
-16.35
-8.21
1.16
10.54
19
26
31.43
35.36
37.79
38.62
37.69
35.08
31.18
26.72
22.51
19.22
17.18
16.33
16.31
16.6
16.6
15.81
13.84
10.59
6.19
1.03
-4.4
-9.75
-14.91
-20.07
-25.51
-31.34
-37.3
-42.69
-46.49
-47.74
-45.76
-40.43
-32.16
-21.82
-10.53
0.45
9.94
16.91
20.59
20.61
17.11
10.73
2.59
-5.95
-13.54
-19.09
-22.05
-22.44
-20.81
-18.07
-15.16
-12.83
-11.43
-10.95
-11.09
-11.54
-12.05
-12.56
-13.11
-13.88
-15.06
-16.93
-19.68
-23.26
-27.23
-30.64
-32.31
-31.2
-26.92
-19.89
-11.25
-2.38
5.65
12.32
17.73
22.2
25.95
28.96
31.05
32.14
32.48
32.61
33.22
34.7
36.93
39.24
40.68
40.46
38.34
34.74
30.55
26.66
23.56
21.21
19.18
16.96
14.32
11.31
8.22
5.46
3.4
2.5
3.28
6.29
11.85
19.74
29.08
38.44
46.25
51.29
53.03
51.73
48.14
43.17
37.62
32.05
26.85
22.32
18.66
15.89
13.79
11.89
9.68
6.86
3.43
-0.31
-3.99
-7.41
-10.63
-13.94
-17.65
-21.97
-26.9
-32.23
-37.65
-42.72
-46.91
-49.61
-50.25
-48.52
-44.5
-38.72
-32.03
-25.35
-19.44
-14.74
-11.41
-9.4
-8.62
-8.92
-10.04
-11.57
-12.89
-13.33
-12.36
-9.8
-5.93
-1.48
2.6
5.51
6.78
6.44
4.89
2.67
0.18
-2.48
-5.49
-9.1
-13.32
-17.82
-21.89
-24.65
-25.37
-23.7
-19.77
-14.13
-7.55
-0.76
5.67
11.37
16.14
19.8
22.25
23.43
23.41
22.43
20.75
18.67
16.39
14
11.46
8.73
5.78
2.6
-0.76
-4.27
-7.85
-11.44
-15.01
-18.59
-22.3
-26.29
-30.72
-35.6
-40.7
-45.54
-49.41
-51.55
-51.38
-48.75
-43.98
-37.76
-30.94
-24.25
-18.12
-12.71
-8.07
-4.31
-1.62
-0.18
0.08
-0.37
-0.82
-0.57
0.76
3.01
5.59
7.75
8.94
8.99
8.14
6.81
5.36
3.92
2.36
0.38
-2.24
-5.52
-9.12
-12.39
-14.54
-14.88
-13.06
-9.23
-4.03
1.66
7.04
11.66
15.6
19.27
23.12
27.25
31.24
34.28
35.52
34.53
31.48
27.06
22.19
17.59
13.55
9.99
6.66
3.43
0.41
-2.11
-3.91
-4.98
-5.62
-6.33
-7.67
-10.1
-13.87
-19.05
-25.36
-32.14
-38.39
-42.86
-44.44
-42.49
-37.16
-29.37
-20.5
-11.89
-4.45
1.45
5.88
9.02
11.07
12.15
12.49
12.55
12.96
14.33
16.87
20.28
23.81
26.59
28.05
28.2
27.52
26.69
26.22
26.11
25.92
24.97
22.72
18.94
13.83
7.83
1.47
-4.7
-10.07
-13.94
-15.48
-14.05
-9.46
-2.24
6.37
14.82
21.69
26.12
28
27.74
26.05
23.57
20.81
18.12
15.81
14.12
13.15
12.85
12.9
12.85
12.26
10.84
8.53
5.43
1.7
-2.54
-7.19
-12.22
-17.64
-23.42
-29.52
-35.75
-41.78
-47.04
-50.83
-52.51
-51.74
-48.61
-43.71
-37.87
-31.93
-26.5
-21.88
-18.17
-15.37
-13.47
-12.52
-12.43
-12.98
-13.78
-14.39
-14.44
-13.77
-12.47
-10.76
-8.93
-7.18
-5.64
-4.45
-3.78
-3.84
-4.83
-6.85
-9.85
-13.58
-17.64
-21.49
-24.46
-25.83
-24.95
-21.37
-15.11
-6.66
3.07
12.95
21.92
29.15
34.18
36.9
37.47
36.27
33.87
30.88
27.92
25.47
23.8
22.89
22.52
22.41
22.36
22.36
22.47
22.77
23.12
23.14
22.25
19.87
15.6
9.42
1.73
-6.74
-14.96
-21.84
-26.42
-28.05
-26.61
-22.49
-16.52
-9.72
-3.08
2.65
7
9.76
10.98
10.84
9.68
7.93
6.01
4.21
2.7
1.43
0.24
-1.04
-2.48
-4.06
-5.68
-7.21
-8.63
-10.06
-11.75
-14.01
-17.13
-21.23
-26.21
-31.66
-36.89
-40.97
-42.98
-42.23
-38.49
-32.12
-23.98
-15.18
-6.78
0.47
6.22
10.33
12.81
13.72
13.19
11.54
9.38
7.47
6.48
6.76
8.14
10.07
11.85
12.96
13.16
12.59
11.53
10.22
8.74
6.96
4.67
1.64
-2.22
-6.79
-11.6
-15.91
-18.78
-19.34
-17.04
-11.91
-4.5
4.17
12.96
20.85
27.12
31.45
33.78
34.32
33.38
31.4
28.88
26.38
24.38
23.15
22.64
22.52
22.24
21.31
19.43
16.67
13.37
9.92
6.62
3.44
0.06
-4
-9.2
-15.76
-23.53
-31.89
-39.78
-45.94
-49.08
-48.34
-43.57
-35.43
-25.32
-14.99
-6.04
0.52
4.43
6.08
6.1
5.18
3.78
2.23
0.88
0.14
0.42
1.92
4.39
7.26
9.73
11.19
11.4
10.59
9.22
7.74
6.37
5.06
3.6
1.7
-0.86
-4.21
-8.24
-12.57
-16.47
-18.94
-19.01
-16.1
-10.22
-2.13
7.05
16.14
24.35
31.27
36.84
40.99
43.59
44.41
43.32
40.57
36.76
32.71
29.17
26.57
24.87
23.59
22.12
19.91
16.79
12.88
8.6
4.39
0.55
-2.92
-6.32
-10.12
-14.79
-20.55
-27.3
-34.54
-41.44
-46.99
-50.22
-50.38
-47.25
-41.12
-32.79
-23.38
-14
-5.53
1.48
6.85
10.58
12.79
13.68
13.55
12.85
12.17
12.11
13.06
15.07
17.77
20.51
22.6
23.52
23.09
21.48
19.03
16.12
12.97
9.59
5.82
1.48
-3.59
-9.42
-15.86
-22.58
-29.05
-34.57
-38.29
-39.42
-37.39
-32.1
-24.01
-14.08
-3.52
6.52
15.13
21.82
26.34
28.69
29
27.57
24.93
21.8
18.98
17.13
16.51
16.9
17.71
18.23
17.91
16.58
14.43
11.87
9.33
7.01
4.88
2.68
0.08
-3.26
-7.55
-12.86
-19.04
-25.65
-32
-37.19
-40.27
-40.44
-37.36
-31.24
-22.88
-13.43
-4.15
3.99
10.39
14.89
17.6
18.66
18.28
16.69
14.34
11.89
10.07
9.46
10.21
11.96
14.04
15.69
16.36
15.94
14.67
13
11.37
9.99
8.84
7.66
6.13
4.01
1.2
-2.2
-5.91
-9.53
-12.48
-14.12
-13.76
-10.84
-5.11
3.19
13.31
24.19
34.69
43.91
51.29
56.6
59.78
60.85
59.89
57.16
53.18
48.68
44.52
41.27
39.12
37.72
36.42
34.58
31.84
28.26
24.19
20.1
16.33
12.95
9.81
6.63
3.07
-1.14
-6.2
-12.16
-18.79
-25.52
-31.48
-35.57
-36.88
-34.91
-29.83
-22.39
-13.76
-5.13
2.45
8.25
11.89
13.23
12.44
9.93
6.37
2.58
-0.68
-2.88
-3.87
-3.91
-3.46
-3.01
-2.9
-3.25
-4.04
-5.17
-6.6
-8.37
-10.61
-13.48
-17.12
-21.53
-26.54
-31.69
-36.27
-39.41
-40.29
-38.42
-33.78
-26.96
-18.94
-10.79
-3.41
2.7
7.4
10.8
13.04
14.23
14.44
13.84
12.73
11.43
10.28
9.4
8.76
8.17
7.5
6.69
5.81
4.89
3.86
2.47
0.37
-2.74
-7.03
-12.37
-18.36
-24.34
-29.52
-33.18
-34.79
-34.21
-31.68
-27.76
-23.14
-18.43
-14.06
-10.2
-6.93
-4.36
-2.64
-1.92
-2.25
-3.4
-4.87
-6.08
-6.53
-5.98
-4.54
-2.57
-0.58
1
1.87
1.94
1.23
-0.13
-2.03
-4.45
-7.44
-11.14
-15.58
-20.59
-25.67
-30.03
-32.74
-33.01
-30.44
-25.19
-17.94
-9.65
-1.31
6.24
12.37
16.64
18.77
18.69
16.71
13.56
10.34
8.26
8.22
10.46
14.48
19.19
23.32
25.84
26.2
24.53
21.4
17.61
13.89
10.56
7.56
4.45
0.75
-3.81
-9.01
-14.18
-18.34
-20.51
-20.05
-16.82
-11.24
-4.1
3.64
11.08
17.5
22.41
25.53
26.72
25.99
23.56
19.87
15.58
11.5
8.32
6.5
6.03
6.53
7.31
7.66
7.07
5.44
3.09
0.7
-0.93
-1.17
0.2
2.91
6.24
9.23
11.05
11.22
9.82
7.5
5.37
4.7
6.59
11.7
19.97
30.76
42.88
55.02
65.98
74.91
81.25
84.74
85.3
83.1
78.56
72.34
65.27
58.15
51.58
45.9
41.17
37.32
34.27
31.93
30.22
29.08
28.42
28.09
27.93
27.71
27.14
25.91
23.61
19.99
14.96
8.7
1.65
-5.58
-12.47
-18.78
-24.59
-30.22
-36.02
-42.1
-48.31
-54.25
-59.44
-63.59
-66.65
-68.78
-70.2
-71.05
-71.31
-70.82
-69.43
-67.04
-63.71
-59.62
-55.01
-50.14
-45.18
-40.17
-35.16
-30.21
-25.49
-21.34
-18.17
-16.37
-16.24
-17.82
-20.86
-24.84
-28.94
-32.16
-33.45
-31.98
-27.4
-19.99
-10.68
-0.75
8.53
16.31
22.2
26.18
28.34
28.76
27.52
24.82
21.18
17.33
13.98
11.51
9.79
8.32
6.5
4
0.91
-2.39
-5.47
-8.19
-10.75
-13.65
-17.41
-22.39
-28.62
-35.81
-43.4
-50.62
-56.56
-60.35
-61.28
-59.07
-53.95
-46.67
-38.26
-29.76
-21.96
-15.32
-9.98
-6
-3.37
-2.11
-2.09
-2.94
-4.08
-4.84
-4.76
-3.78
-2.26
-0.84
-0.11
-0.41
-1.81
-4.15
-7.16
-10.72
-14.81
-19.48
-24.85
-31
-37.94
-45.57
-53.6
-61.47
-68.34
-73.31
-75.63
-74.96
-71.57
-66.22
-59.92
-53.59
-47.8
-42.84
-38.75
-35.54
-33.23
-31.79
-30.99
-30.34
-29.21
-27.09
-23.77
-19.53
-14.96
-10.81
-7.72
-6.06
-6
-7.47
-10.32
-14.35
-19.35
-25.1
-31.39
-37.9
-44.13
-49.29
-52.46
-52.72
-49.51
-42.89
-33.52
-22.55
-11.23
-0.67
8.36
15.38
20.12
22.42
22.3
20.04
16.24
11.81
7.76
5.03
4.12
5.01
7.12
9.46
10.99
10.91
8.92
5.26
0.55
-4.45
-9.28
-13.87
-18.6
-23.98
-30.27
-37.19
-43.75
-48.54
-50.19
-47.87
-41.59
-32.21
-21.22
-10.26
-0.87
5.73
8.88
8.81
6.92
5.77
8.39
17.21
32.8
53.26
74.56
91.76
100.69
99.37
88.54
71.26
51.72
33.87
20.41
12.37
9.2
9.17
9.91
9.05
5.06
-2.06
-10.48
-17.01
-18.17
-11.63
2.79
22.96
45.28
66.11
82.87
94.58
101.5
104.48
104.36
101.77
97.25
91.39
84.74
77.65
70.13
62
53.11
43.62
34.06
25.28
18.07
12.83
9.39
6.96
4.38
0.52
-5.3
-13
-21.72
-30.06
-36.48
-39.75
-39.25
-35.04
-27.85
-18.72
-8.86
0.66
8.97
15.48
19.83
21.9
21.85
20.15
17.5
14.74
12.6
11.5
11.46
12.09
12.86
13.29
13.17
12.52
11.52
10.33
8.91
7.09
4.58
1.17
-3.23
-8.55
-14.47
-20.45
-25.6
-28.85
-29.12
-25.64
-18.39
-8.16
3.63
15.35
25.7
34.02
40.26
44.7
47.54
48.78
48.22
45.79
41.7
36.57
31.19
26.22
21.93
18.11
14.19
9.59
4
-2.41
-9
-14.98
-19.67
-22.88
-24.92
-26.57
-28.7
-31.97
-36.64
-42.46
-48.77
-54.62
-58.83
-60.26
-57.99
-51.66
-41.63
-28.93
-15.03
-1.42
10.67
20.47
27.6
31.96
33.65
32.95
30.42
26.86
23.25
20.46
19
18.82
19.41
19.95
19.73
18.35
15.92
12.9
9.87
7.19
4.79
2.21
-1.2
-5.99
-12.32
-19.91
-28.01
-35.54
-41.26
-43.99
-42.88
-37.66
-28.75
-17.24
-4.55
7.91
19.07
28.31
35.34
40.05
42.42
42.53
40.75
37.77
34.51
31.83
30.25
29.76
29.91
30.05
29.64
28.45
26.58
24.34
22.03
19.81
17.55
14.88
11.28
6.28
-0.28
-8.07
-16.17
-23.26
-27.91
-29.07
-26.38
-20.31
-11.96
-2.69
6.32
14.33
21
26.26
29.98
31.94
31.91
29.88
26.33
22.18
18.6
16.52
16.33
17.63
19.47
20.75
20.67
19.03
16.23
12.99
9.98
7.52
5.44
3.22
0.26
-3.85
-9.18
-15.37
-21.77
-27.45
-31.42
-32.71
-30.64
-25.06
-16.41
-5.73
5.59
16.23
25.18
31.89
36.22
38.16
37.72
34.98
30.19
23.98
17.35
11.42
7.1
4.69
3.89
3.92
3.95
3.38
2.05
0.13
-2.09
-4.41
-6.8
-9.41
-12.47
-16.18
-20.69
-25.97
-31.75
-37.45
-42.19
-44.91
-44.72
-41.19
-34.53
-25.57
-15.45
-5.28
4.13
12.33
19.11
24.31
27.63
28.76
27.59
24.39
19.95
15.38
11.68
9.42
8.53
8.33
7.95
6.68
4.24
0.86
-2.92
-6.54
-9.62
-12.15
-14.44
-16.97
-20.23
-24.57
-30.08
-36.52
-43.33
-49.66
-54.49
-56.83
-55.97
-51.75
-44.69
-35.86
-26.6
-18.08
-10.99
-5.39
-1.01
2.54
5.36
7.32
8.17
7.85
6.68
5.26
4.24
4.06
4.68
5.68
6.45
6.49
5.61
4.01
2.05
0.09
-1.72
-3.48
-5.47
-7.97
-11.14
-15.04
-19.63
-24.81
-30.36
-35.76
-40.21
-42.63
-42.03
-37.89
-30.44
-20.63
-9.87
0.43
9.27
16.19
21.16
24.3
25.69
25.33
23.26
19.77
15.53
11.44
8.37
6.85
6.79
7.6
8.42
8.46
7.39
5.37
2.91
0.63
-1.11
-2.27
-3.15
-4.23
-5.95
-8.59
-12.22
-16.7
-21.66
-26.47
-30.31
-32.22
-31.39
-27.4
-20.48
-11.48
-1.64
7.77
15.89
22.29
26.99
30.15
31.93
32.41
31.71
30.15
28.22
26.58
25.71
25.74
26.34
26.88
26.6
24.97
21.94
17.83
13.26
8.78
4.64
0.68
-3.55
-8.56
-14.67
-21.87
-29.84
-38.01
-45.65
-51.89
-55.87
-56.75
-54.08
-47.96
-39.2
-29.13
-19.21
-10.58
-3.8
1.15
4.63
6.93
8.11
8.1
6.86
4.74
2.46
0.9
0.76
2.19
4.7
7.4
9.34
9.95
9.17
7.44
5.39
3.49
1.88
0.32
-1.67
-4.53
-8.51
-13.59
-19.48
-25.64
-31.31
-35.59
-37.56
-36.54
-32.34
-25.44
-16.85
-7.86
0.38
7.19
12.34
15.91
18.02
18.65
17.74
15.4
12.08
8.57
5.77
4.34
4.41
5.54
6.96
7.86
7.75
6.58
4.66
2.42
0.2
-1.93
-4.13
-6.69
-9.91
-13.96
-18.87
-24.43
-30.19
-35.43
-39.15
-40.36
-38.28
-32.7
-24.12
-13.59
-2.48
7.99
16.99
24.17
29.45
32.9
34.53
34.39
32.68
29.89
26.8
24.24
22.83
22.72
23.57
24.69
25.37
25.13
23.9
21.92
19.51
16.89
14.03
10.69
6.6
1.52
-4.58
-11.54
-19.01
-26.43
-33.01
-37.82
-39.92
-38.67
-33.93
-26.19
-16.47
-6.1
3.66
11.77
17.61
20.89
21.63
20.19
17.12
13.26
9.48
6.55
4.93
4.66
5.34
6.34
6.99
6.8
5.63
3.58
0.98
-1.86
-4.8
-7.91
-11.49
-15.82
-21.09
-27.08
-33.14
-38.23
-41.13
-40.86
-36.95
-29.69
-20.03
-9.34
1.03
10.05
17.23
22.46
25.87
27.56
27.59
26.06
23.3
19.93
16.75
14.49
13.48
13.5
13.95
14.08
13.39
11.79
9.55
7.04
4.5
1.85
-1.25
-5.21
-10.33
-16.58
-23.51
-30.21
-35.55
-38.34
-37.74
-33.49
-26.05
-16.46
-6.03
4.01
12.76
19.71
24.67
27.57
28.41
27.28
24.52
20.78
16.95
13.88
12.11
11.68
12.16
12.88
13.26
13.01
12.15
10.85
9.16
6.98
4.02
-0.07
-5.45
-12.02
-19.31
-26.55
-32.73
-36.81
-37.88
-35.46
-29.63
-21.14
-11.16
-0.97
8.34
16.08
21.97
25.95
28.03
28.28
26.89
24.26
21.09
18.2
16.27
15.55
15.8
16.4
16.68
16.19
14.85
12.87
10.55
8.05
5.32
2.11
-1.89
-6.91
-12.99
-19.9
-27.12
-33.81
-38.86
-41.17
-39.91
-34.89
-26.64
-16.33
-5.43
4.73
13.25
19.73
24.07
26.35
26.64
25.07
22.04
18.22
14.55
11.9
10.78
11.09
12.23
13.34
13.68
12.92
11.15
8.79
6.25
3.74
1.17
-1.77
-5.45
-10.15
-15.89
-22.4
-29.04
-34.88
-38.85
-39.97
-37.66
-31.91
-23.36
-13.14
-2.58
7.15
15.2
21.14
24.9
26.57
26.4
24.76
22.21
19.44
17.17
15.95
15.91
16.76
17.87
18.53
18.27
16.95
14.82
12.32
9.83
7.49
5.14
2.35
-1.31
-6.16
-12.2
-19.06
-25.98
-31.88
-35.63
-36.28
-33.38
-27.13
-18.43
-8.52
1.28
9.94
16.85
21.8
24.77
25.82
25.02
22.64
19.19
15.43
12.16
9.96
8.92
8.64
8.38
7.41
5.3
2.12
-1.7
-5.53
-8.88
-11.57
-13.76
-15.86
-18.34
-21.56
-25.57
-30.04
-34.25
-37.23
-37.99
-35.83
-30.56
-22.61
-12.87
-2.47
7.5
16.2
23.12
28
30.84
31.77
31.12
29.34
26.98
24.6
22.63
21.27
20.4
19.7
18.76
17.28
15.22
12.79
10.27
7.89
5.63
3.19
0.12
-4
-9.35
-15.8
-22.8
-29.47
-34.63
-37.08
-35.87
-30.64
-21.76
-10.33
2.18
14.35
25.1
33.86
40.41
44.72
46.75
46.56
44.4
40.89
36.96
33.59
31.49
30.79
31.04
31.37
30.92
29.15
25.97
21.73
16.9
11.87
6.81
1.66
-3.82
-9.95
-16.96
-24.84
-33.19
-41.13
-47.41
-50.77
-50.31
-45.86
-38.03
-28.02
-17.26
-6.97
1.91
8.77
13.24
15.16
14.65
12.24
8.84
5.55
3.33
2.72
3.65
5.53
7.55
8.98
9.48
9.08
8.07
6.79
5.32
3.49
0.94
-2.67
-7.43
-13.09
-19.03
-24.44
-28.43
-30.24
-29.41
-25.84
-19.89
-12.31
-4.05
3.91
10.8
16.15
19.79
21.69
21.96
20.79
18.51
15.57
12.55
10.01
8.3
7.41
7.12
7
6.68
5.96
4.85
3.42
1.74
-0.25
-2.72
-5.88
-9.86
-14.66
-20.04
-25.51
-30.29
-33.46
-34.17
-31.87
-26.65
-19.18
-10.61
-2.19
5.15
10.9
15
17.59
18.82
18.79
17.64
15.64
13.22
10.9
9.09
7.93
7.28
6.89
6.48
5.9
5.17
4.4
3.62
2.75
1.52
-0.47
-3.62
-8.16
-13.9
-20.23
-26.03
-30
-31.01
-28.44
-22.51
-14.14
-4.75
4.31
12.1
18.21
22.68
25.67
27.32
27.63
26.68
24.76
22.45
20.42
19.17
18.83
19.07
19.36
19.18
18.32
16.89
15.24
13.75
12.54
11.43
9.92
7.43
3.54
-1.78
-7.96
-13.95
-18.33
-19.71
-17.12
-10.33
0.02
12.59
25.6
37.4
46.77
53.13
56.48
57.18
55.61
52.09
46.87
40.23
32.69
24.99
17.9
11.93
7.13
3.08
-0.9
-5.41
-10.7
-16.55
-22.44
-27.88
-32.63
-36.86
-40.99
-45.51
-50.7
-56.56
-62.77
-68.82
-74.04
-77.74
-79.23
-77.96
-73.79
-67
-58.35
-48.92
-39.81
-31.85
-25.44
-20.58
-17.06
-14.58
-12.84
-11.56
-10.45
-9.14
-7.33
-4.88
-1.88
1.32
4.29
6.61
8.09
8.79
8.94
8.77
8.38
7.71
6.49
4.49
1.58
-2.15
-6.42
-10.79
-14.8
-17.98
-19.88
-20.11
-18.35
-14.51
-8.81
-1.83
5.58
12.52
18.17
22.08
24.06
24.22
22.83
20.22
16.79
12.97
9.24
6.08
3.79
2.48
1.99
2
2.13
2.1
1.75
1.04
-0.05
-1.61
-3.77
-6.74
-10.69
-15.6
-21.21
-26.93
-31.94
-35.31
-36.24
-34.34
-29.69
-22.82
-14.6
-5.89
2.56
10.27
16.89
22.18
25.93
27.99
28.33
27.17
24.88
21.98
18.97
16.2
13.82
11.82
10.05
8.36
6.62
4.79
2.89
0.96
-1.07
-3.34
-6.13
-9.72
-14.21
-19.37
-24.55
-28.75
-30.93
-30.32
-26.74
-20.66
-13.01
-4.87
2.87
9.6
15.03
18.98
21.3
21.87
20.71
18.15
14.76
11.29
8.35
6.21
4.76
3.65
2.54
1.2
-0.36
-2.05
-3.8
-5.7
-7.93
-10.73
-14.28
-18.64
-23.67
-29.01
-34.06
-37.99
-39.9
-39.06
-35.16
-28.48
-19.88
-10.52
-1.55
6.19
12.3
16.73
19.62
21.07
21.2
20.09
18.01
15.35
12.61
10.19
8.34
7.02
6.01
5.09
4.14
3.18
2.33
1.55
0.63
-0.91
-3.66
-8.02
-14.03
-21.22
-28.61
-34.99
-39.11
-40.11
-37.66
-32.13
-24.48
-15.93
-7.64
-0.36
5.69
10.64
14.71
17.97
20.23
21.24
20.92
19.53
17.63
15.91
14.84
14.5
14.61
14.71
14.4
13.53
12.19
10.6
8.95
7.26
5.35
2.89
-0.4
-4.7
-9.87
-15.44
-20.64
-24.46
-25.94
-24.41
-19.76
-12.5
-3.62
5.74
14.63
22.48
29.11
34.5
38.57
41.07
41.71
40.41
37.5
33.72
29.93
26.86
24.76
23.45
22.45
21.29
19.72
17.82
15.88
14.16
12.67
11.18
9.26
6.51
2.67
-2.31
-8.22
-14.61
-20.83
-26.02
-29.25
-29.74
-27.14
-21.74
-14.4
-6.31
1.41
8.02
13.24
17.11
19.71
21.09
21.18
20.04
17.97
15.54
13.36
11.93
11.37
11.42
11.61
11.43
10.59
9.07
7.07
4.88
2.66
0.42
-2.02
-4.9
-8.41
-12.61
-17.44
-22.62
-27.69
-31.94
-34.58
-34.86
-32.34
-27.16
-19.94
-11.7
-3.49
3.89
10.04
14.85
18.34
20.5
21.2
20.38
18.2
15.22
12.25
10.2
9.63
10.61
12.61
14.76
16.23
16.53
15.71
14.14
12.23
10.16
7.76
4.71
0.71
-4.3
-10.15
-16.5
-23.02
-29.28
-34.77
-38.76
-40.46
-39.25
-35.02
-28.32
-20.27
-12.17
-5.08
0.51
4.67
7.7
9.87
11.21
11.6
10.96
9.48
7.65
6.1
5.29
5.26
5.62
5.74
5.04
3.27
0.59
-2.5
-5.47
-8
-10.12
-12.13
-14.46
-17.43
-21.17
-25.63
-30.61
-35.75
-40.52
-44.16
-45.77
-44.56
-40.2
-33
-23.94
-14.27
-5.19
2.55
8.65
13.15
16.11
17.54
17.4
15.9
13.55
11.13
9.49
9.16
10.14
11.92
13.7
14.77
14.76
13.77
12.24
10.65
9.28
8.04
6.52
4.26
0.9
-3.61
-9.02
-14.84
-20.45
-25.13
-28.2
-29.03
-27.24
-22.83
-16.3
-8.58
-0.82
5.99
11.22
14.67
16.43
16.68
15.47
12.86
9.1
4.76
0.74
-2.05
-3.06
-2.44
-0.96
0.36
0.69
-0.18
-1.92
-3.85
-5.45
-6.62
-7.74
-9.39
-12.07
-15.96
-20.96
-26.7
-32.7
-38.34
-42.91
-45.53
-45.4
-42.01
-35.37
-26.17
-15.58
-4.95
4.57
12.26
17.87
21.45
23.19
23.36
22.28
20.39
18.3
16.64
15.9
16.27
17.54
19.19
20.58
21.2
20.79
19.44
17.46
15.2
12.86
10.48
7.87
4.82
1.14
-3.15
-7.84
-12.59
-16.85
-19.98
-21.27
-20.06
-15.96
-8.96
0.38
11.04
21.7
31.08
38.08
42.05
42.8
40.62
36.22
30.54
24.71
19.71
16.29
14.79
15.13
16.82
19.1
21.09
22.05
21.56
19.57
16.42
12.65
8.79
5.14
1.66
-1.91
-5.91
-10.62
-16.05
-21.89
-27.43
-31.68
-33.54
-32.22
-27.45
-19.85
-10.7
-1.67
5.78
10.84
13.47
14.2
13.68
12.3
10.08
6.88
2.65
-2.24
-7.09
-11.09
-13.63
-14.67
-14.68
-14.46
-14.81
-16.17
-18.47
-21.24
-23.84
-25.78
-26.88
-27.38
-27.78
-28.61
-30.25
-32.93
-36.61
-41.07
-45.83
-50.14
-53.04
-53.54
-50.94
-45.13
-36.7
-26.83
-16.87
-7.88
-0.33
5.89
11.14
15.71
19.58
22.47
24.1
24.48
24
23.36
23.22
23.91
25.25
26.67
27.5
27.28
25.94
23.8
21.37
19.1
17.27
15.83
14.54
13.07
11.06
8.26
4.51
-0.14
-5.4
-10.66
-15.05
-17.62
-17.58
-14.61
-8.95
-1.37
7.06
15.31
22.61
28.55
33.03
36.06
37.66
37.81
36.52
33.96
30.58
27
23.89
21.68
20.39
19.62
18.8
17.36
15.1
12.13
8.88
5.77
3.06
0.76
-1.37
-3.62
-6.28
-9.51
-13.4
-17.86
-22.66
-27.3
-31.06
-33.1
-32.7
-29.52
-23.77
-16.19
-7.79
0.42
7.7
13.66
18.17
21.23
22.82
22.99
21.88
19.84
17.43
15.29
13.91
13.46
13.73
14.24
14.46
14.02
12.85
11.13
9.11
6.99
4.78
2.31
-0.67
-4.36
-8.81
-13.91
-19.35
-24.65
-29.18
-32.23
-33.16
-31.56
-27.45
-21.29
-13.86
-6.09
1.19
7.42
12.3
15.83
18.08
19.2
19.29
18.48
17.03
15.27
13.6
12.39
11.75
11.59
11.54
11.2
10.29
8.81
6.97
5.01
3.06
1.05
-1.3
-4.25
-8.03
-12.65
-18.03
-23.87
-29.71
-34.85
-38.45
-39.66
-37.97
-33.35
-26.39
-18.05
-9.39
-1.26
5.83
11.67
16.2
19.34
21.03
21.27
20.29
18.49
16.47
14.77
13.73
13.43
13.65
14.05
14.25
14.02
13.22
11.89
10.11
8.03
5.76
3.41
1.04
-1.32
-3.76
-6.48
-9.74
-13.79
-18.67
-24.09
-29.34
-33.44
-35.39
-34.46
-30.48
-23.95
-15.84
-7.33
0.58
7.24
12.43
16.19
18.71
20.13
20.58
20.21
19.24
17.97
16.8
16
15.73
15.94
16.45
16.98
17.25
17.06
16.3
15
13.25
11.19
8.96
6.59
4.07
1.32
-1.79
-5.34
-9.39
-13.97
-19.01
-24.3
-29.4
-33.58
-36
-35.89
-32.88
-27.17
-19.57
-11.21
-3.26
3.47
8.66
12.43
15.09
16.92
18.02
18.32
17.78
16.49
14.74
12.96
11.53
10.71
10.5
10.71
11
11.04
10.57
9.43
7.61
5.25
2.6
-0.04
-2.37
-4.26
-5.79
-7.21
-8.93
-11.35
-14.7
-18.99
-23.89
-28.72
-32.58
-34.46
-33.59
-29.64
-22.99
-14.6
-5.82
2.1
8.3
12.51
14.96
16.09
16.28
15.75
14.64
13.05
11.22
9.51
8.32
7.94
8.46
9.75
11.43
13.08
14.23
14.61
14.08
12.71
10.67
8.16
5.36
2.4
-0.65
-3.74
-6.92
-10.32
-14.13
-18.54
-23.54
-28.76
-33.45
-36.58
-37.15
-34.6
-29.03
-21.24
-12.48
-4.01
3.23
8.85
12.89
15.62
17.28
17.99
17.75
16.66
14.97
13.12
11.64
10.9
10.98
11.65
12.41
12.73
12.2
10.67
8.27
5.28
2
-1.32
-4.56
-7.71
-10.79
-13.86
-17.03
-20.45
-24.3
-28.67
-33.41
-38
-41.58
-43.14
-41.84
-37.4
-30.27
-21.53
-12.51
-4.38
2.22
7.21
10.88
13.54
15.32
16.16
15.97
14.88
13.3
11.85
11.14
11.46
12.69
14.33
15.72
16.3
15.83
14.41
12.34
9.96
7.49
4.94
2.23
-0.74
-3.96
-7.39
-11.03
-14.94
-19.2
-23.63
-27.67
-30.41
-30.87
-28.46
-23.25
-16.04
-8.04
-0.41
6.1
11.26
15.16
17.95
19.62
20.05
19.16
17.12
14.41
11.73
9.72
8.78
8.91
9.75
10.75
11.37
11.29
10.43
8.92
7.01
4.9
2.71
0.43
-2.1
-5.06
-8.63
-12.91
-17.81
-22.98
-27.83
-31.58
-33.45
-32.87
-29.7
-24.23
-17.21
-9.57
-2.24
4.05
8.92
12.23
14.07
14.56
13.85
12.12
9.7
7.04
4.71
3.22
2.81
3.35
4.31
5.05
5.03
4.13
2.65
1.21
0.33
0.15
0.37
0.27
-0.86
-3.48
-7.55
-12.61
-17.91
-22.59
-25.82
-26.84
-25.2
-20.77
-13.91
-5.51
3.28
11.3
17.67
22.01
24.36
24.98
24.18
22.22
19.39
16.09
12.89
10.36
8.88
8.41
8.52
8.52
7.82
6.21
3.92
1.5
-0.52
-1.92
-2.91
-4.04
-5.93
-8.96
-13.21
-18.39
-24
-29.41
-33.93
-36.89
-37.66
-35.81
-31.26
-24.43
-16.15
-7.46
0.64
7.45
12.59
15.96
17.63
17.74
16.5
14.25
11.56
9.06
7.32
6.54
6.58
6.91
6.95
6.32
5.01
3.33
1.67
0.29
-0.88
-2.21
-4.23
-7.37
-11.83
-17.45
-23.71
-29.78
-34.56
-37.04
-36.49
-32.75
-26.36
-18.35
-9.91
-2.03
4.72
10.19
14.42
17.38
18.97
19.1
17.89
15.81
13.52
11.67
10.6
10.2
10.07
9.71
8.82
7.45
5.87
4.37
3.06
1.76
0.05
-2.45
-5.99
-10.59
-16.03
-21.81
-27.23
-31.43
-33.53
-32.87
-29.23
-22.92
-14.73
-5.7
3.2
11.33
18.37
24.17
28.59
31.39
32.32
31.35
28.83
25.56
22.51
20.49
19.79
20.06
20.48
20.16
18.57
15.71
12.06
8.27
4.83
1.9
-0.71
-3.37
-6.49
-10.36
-15.07
-20.53
-26.31
-31.69
-35.7
-37.36
-35.97
-31.4
-24.12
-15.12
-5.53
3.67
11.81
18.56
23.81
27.51
29.64
30.24
29.51
27.8
25.61
23.44
21.65
20.43
19.79
19.59
19.59
19.54
19.24
18.56
17.47
15.99
14.17
12.06
9.63
6.85
3.68
0.11
-3.86
-8.22
-12.99
-18.13
-23.39
-28.21
-31.75
-33.05
-31.45
-26.8
-19.71
-11.27
-2.73
4.94
11.27
16.3
20.31
23.48
25.85
27.3
27.71
27.19
26.01
24.64
23.47
22.8
22.67
23.02
23.64
24.29
24.72
24.65
23.87
22.21
19.73
16.63
13.25
10.01
7.18
4.85
2.85
0.8
-1.76
-5.2
-9.71
-15.09
-20.75
-25.77
-29.03
-29.62
-27.07
-21.58
-13.95
-5.32
3.23
10.95
17.5
22.86
27.06
30.06
31.69
31.87
30.77
28.93
27.11
26.05
26.15
27.29
28.94
30.4
31.18
31.08
30.26
29
27.47
25.65
23.38
20.52
17.12
13.47
9.97
6.94
4.43
2.26
0.05
-2.58
-5.84
-9.77
-14.22
-18.87
-23.25
-26.74
-28.66
-28.43
-25.82
-21.03
-14.77
-7.94
-1.37
4.41
9.26
13.24
16.42
18.74
20.09
20.43
20
19.29
18.87
19.2
20.34
21.99
23.57
24.5
24.42
23.29
21.33
18.89
16.22
13.46
10.59
7.55
4.31
0.92
-2.5
-5.89
-9.23
-12.63
-16.25
-20.16
-24.25
-28.15
-31.25
-32.87
-32.51
-30.03
-25.77
-20.45
-14.9
-9.8
-5.48
-1.94
1
3.5
5.54
6.98
7.65
7.49
6.71
5.71
4.96
4.81
5.36
6.48
7.78
8.81
9.16
8.59
7.15
5.12
2.9
0.92
-0.57
-1.54
-2.23
-3.01
-4.28
-6.38
-9.46
-13.45
-17.97
-22.39
-25.92
-27.79
-27.54
-25.16
-21.19
-16.46
-11.83
-7.88
-4.79
-2.35
-0.24
1.83
3.88
5.77
7.24
8.22
8.79
9.21
9.71
10.38
11.01
11.33
11.06
10.13
8.72
7.11
5.51
3.98
2.35
0.37
-2.12
-5.17
-8.65
-12.36
-16.04
-19.43
-22.13
-23.72
-23.8
-22.21
-19.1
-14.98
-10.51
-6.27
-2.55
0.66
3.55
6.22
8.57
10.25
10.85
10.13
8.22
5.61
3.02
1.1
0.22
0.26
0.77
1.12
0.83
-0.24
-1.84
-3.53
-4.93
-5.89
-6.55
-7.21
-8.22
-9.74
-11.82
-14.38
-17.27
-20.21
-22.78
-24.42
-24.54
-22.76
-19.07
-13.94
-8.12
-2.4
2.66
6.84
10.13
12.59
14.23
14.92
14.66
13.62
12.26
11.12
10.63
10.89
11.65
12.47
12.94
12.88
12.35
11.53
10.57
9.45
8.05
6.2
3.83
1.05
-1.92
-4.84
-7.52
-9.87
-11.88
-13.62
-15.22
-16.88
-18.86
-21.41
-24.69
-28.51
-32.35
-35.35
-36.59
-35.41
-31.75
-26.13
-19.51
-12.95
-7.23
-2.7
0.7
3.2
4.97
6.04
6.34
5.93
5.01
3.99
3.24
3.05
3.43
4.22
5.2
6.2
7.19
8.18
9.21
10.17
10.86
11.02
10.35
8.68
5.98
2.43
-1.64
-5.76
-9.46
-12.39
-14.47
-15.92
-17.21
-18.92
-21.49
-24.96
-28.93
-32.57
-34.93
-35.27
-33.32
-29.42
-24.35
-19.01
-14.08
-9.88
-6.35
-3.33
-0.7
1.47
3.01
3.81
3.97
3.8
3.71
3.99
4.76
5.92
7.27
8.65
9.92
11.04
11.95
12.54
12.65
12.13
10.95
9.2
7.03
4.66
2.25
-0.06
-2.24
-4.33
-6.5
-9.02
-12.21
-16.3
-21.19
-26.38
-30.93
-33.8
-34.13
-31.65
-26.73
-20.27
-13.36
-6.95
-1.59
2.54
5.56
7.7
9.09
9.77
9.73
8.95
7.57
5.82
4.1
2.8
2.2
2.41
3.33
4.69
6.14
7.35
8.03
7.95
6.96
5.09
2.51
-0.38
-3.07
-5.13
-6.39
-7
-7.42
-8.24
-9.97
-12.84
-16.73
-21.19
-25.47
-28.66
-29.87
-28.54
-24.56
-18.45
-11.22
-4.06
2.03
6.56
9.5
11.17
11.95
12.08
11.63
10.62
9.16
7.54
6.14
5.3
5.21
5.83
6.87
7.93
8.6
8.6
7.82
6.32
4.3
2.01
-0.3
-2.47
-4.41
-6.13
-7.74
-9.45
-11.52
-14.23
-17.74
-22
-26.59
-30.8
-33.65
-34.28
-32.12
-27.24
-20.29
-12.35
-4.61
2
7.02
10.47
12.65
13.91
14.5
14.55
14.14
13.43
12.62
11.97
11.65
11.64
11.82
11.96
11.88
11.49
10.79
9.77
8.42
6.69
4.54
2
-0.83
-3.77
-6.65
-9.41
-12.08
-14.84
-17.97
-21.71
-26.08
-30.74
-35
-37.86
-38.38
-36
-30.76
-23.37
-15
-6.86
0.13
5.51
9.3
11.76
13.15
13.63
13.25
12.07
10.37
8.6
7.32
6.95
7.61
9.05
10.74
12.11
12.72
12.39
11.21
9.43
7.31
5.05
2.7
0.24
-2.42
-5.32
-8.44
-11.76
-15.37
-19.43
-24.13
-29.42
-34.81
-39.37
-41.91
-41.43
-37.52
-30.62
-21.84
-12.61
-4.14
2.86
8.27
12.39
15.58
18.11
20.05
21.35
22
22.13
21.99
21.86
21.88
21.99
22
21.67
20.85
19.51
17.77
15.79
13.65
11.36
8.84
6.03
2.89
-0.5
-4.06
-7.72
-11.54
-15.72
-20.47
-25.97
-31.99
-37.88
-42.58
-44.86
-43.81
-39.19
-31.61
-22.32
-12.85
-4.41
2.34
7.39
11.09
13.81
15.75
16.84
16.99
16.32
15.27
14.5
14.63
15.92
18.19
20.95
23.61
25.8
27.4
28.48
29.02
28.87
27.81
25.71
22.68
19.1
15.4
11.92
8.69
5.47
1.86
-2.49
-7.75
-13.88
-20.52
-26.97
-32.23
-35.18
-34.82
-30.74
-23.31
-13.69
-3.5
5.73
13
18.03
21.15
22.9
23.71
23.81
23.24
22.07
20.59
19.27
18.6
18.86
20.02
21.73
23.5
24.9
25.68
25.79
25.3
24.29
22.8
20.88
18.56
15.97
13.27
10.64
8.17
5.83
3.46
0.76
-2.56
-6.67
-11.44
-16.28
-20.26
-22.26
-21.39
-17.35
-10.58
-2.18
6.5
14.22
20.26
24.47
27.08
28.48
28.96
28.66
27.67
26.15
24.37
22.73
21.54
20.95
20.87
21.06
21.19
21.05
20.56
19.7
18.45
16.7
14.29
11.09
7.15
2.7
-1.83
-5.93
-9.26
-11.72
-13.52
-15.13
-17.16
-20.16
-24.43
-29.85
-35.75
-40.99
-44.23
-44.33
-40.76
-33.88
-24.81
-15.08
-6.08
1.35
7.05
11.34
14.65
17.23
19.01
19.74
19.3
17.87
15.94
14.22
13.24
13.26
14.06
15.14
15.9
15.94
15.18
13.79
12.1
10.39
8.75
7.06
5.08
2.56
-0.63
-4.56
-9.16
-14.37
-20.01
-25.69
-30.71
-34.14
-35.02
-32.74
-27.33
-19.57
-10.72
-2.14
5.13
10.63
14.44
16.93
18.45
19.13
18.89
17.64
15.48
12.77
10.12
8.12
7.18
7.33
8.21
9.23
9.76
9.37
7.98
5.88
3.63
1.79
0.78
0.6
0.87
0.94
0.15
-1.94
-5.46
-10.12
-15.39
-20.5
-24.58
-26.77
-26.4
-23.17
-17.35
-9.77
-1.58
6.09
12.45
17.26
20.59
22.67
23.67
23.64
22.66
21
19.08
17.41
16.32
15.85
15.82
16
16.25
16.61
17.17
17.9
18.54
18.71
18.07
16.49
14.11
11.31
8.39
5.53
2.62
-0.61
-4.5
-9.28
-14.99
-21.45
-28.24
-34.63
-39.62
-42.18
-41.49
-37.34
-30.23
-21.34
-12.11
-3.81
2.83
7.73
11.22
13.74
15.5
16.49
16.61
15.89
14.56
13.08
11.92
11.34
11.35
11.68
11.96
11.95
11.58
10.98
10.31
9.65
8.92
7.94
6.53
4.7
2.62
0.6
-1.13
-2.48
-3.62
-4.87
-6.63
-9.24
-12.87
-17.37
-22.24
-26.61
-29.4
-29.61
-26.77
-21.11
-13.61
-5.68
1.42
6.91
10.74
13.35
15.29
16.87
18.04
18.56
18.22
17.06
15.39
13.6
12.03
10.89
10.17
9.82
9.77
10
10.37
10.73
10.84
10.47
9.49
7.98
6.13
4.21
2.41
0.75
-0.92
-2.81
-5.14
-8.07
-11.69
-15.97
-20.68
-25.29
-29
-30.87
-30.09
-26.38
-20.07
-12.16
-3.88
3.64
9.73
14.24
17.45
19.71
21.29
22.3
22.77
22.81
22.63
22.47
22.5
22.65
22.67
22.24
21.15
19.45
17.36
15.2
13.17
11.24
9.23
6.91
4.11
0.86
-2.65
-6.17
-9.48
-12.47
-15.24
-18.04
-21.2
-24.88
-28.95
-32.84
-35.66
-36.47
-34.66
-30.29
-24.06
-17.15
-10.76
-5.69
-2.14
0.16
1.66
2.68
3.24
3.19
2.48
1.32
0.25
-0.09
0.72
2.66
5.23
7.6
8.95
8.82
7.17
4.44
1.28
-1.73
-4.27
-6.34
-8.21
-10.18
-12.46
-15.18
-18.31
-21.79
-25.48
-29.14
-32.29
-34.24
-34.25
-31.77
-26.76
-19.76
-11.77
-3.95
2.78
7.92
11.44
13.56
14.56
14.64
13.92
12.55
10.82
9.17
8.03
7.72
8.3
9.5
10.83
11.79
12.05
11.53
10.38
8.9
7.28
5.58
3.69
1.43
-1.36
-4.78
-8.8
-13.27
-17.94
-22.39
-26.07
-28.35
-28.68
-26.77
-22.73
-17.05
-10.57
-4.17
1.42
5.77
8.78
10.61
11.45
11.47
10.81
9.64
8.21
6.91
6.09
5.97
6.5
7.36
8.2
8.69
8.75
8.46
7.91
7.12
5.98
4.29
1.94
-1.02
-4.43
-8.06
-11.76
-15.45
-19.08
-22.55
-25.61
-27.89
-28.99
-28.55
-26.41
-22.59
-17.39
-11.28
-4.86
1.27
6.59
10.72
13.48
14.83
14.91
13.96
12.34
10.48
8.8
7.64
7.13
7.23
7.69
8.19
8.39
8.04
7.03
5.48
3.62
1.76
0.17
-1.1
-2.24
-3.6
-5.6
-8.56
-12.62
-17.7
-23.49
-29.38
-34.51
-37.87
-38.53
-36
-30.52
-23.01
-14.81
-7.16
-0.84
4.04
7.83
11.01
13.76
15.96
17.3
17.6
17.02
16.01
15.19
14.96
15.37
16.12
16.81
17.13
17.03
16.67
16.22
15.7
14.95
13.74
11.9
9.49
6.74
3.95
1.32
-1.14
-3.61
-6.36
-9.67
-13.71
-18.47
-23.64
-28.6
-32.41
-34.16
-33.18
-29.36
-23.25
-15.88
-8.39
-1.67
3.88
8.29
11.79
14.54
16.49
17.51
17.52
16.73
15.68
15.01
15.13
16.05
17.36
18.46
18.82
18.27
16.96
15.22
13.34
11.43
9.51
7.55
5.59
3.75
2.13
0.71
-0.67
-2.3
-4.46
-7.36
-11.08
-15.5
-20.36
-25.16
-29.23
-31.78
-32.1
-29.8
-24.99
-18.31
-10.71
-3.23
3.39
8.79
13.08
16.53
19.41
21.77
23.46
24.31
24.28
23.58
22.63
21.89
21.68
22.03
22.7
23.35
23.72
23.73
23.51
23.2
22.86
22.34
21.37
19.78
17.55
14.93
12.29
9.97
8.08
6.47
4.77
2.53
-0.57
-4.69
-9.66
-15.01
-20.02
-23.81
-25.62
-25.03
-22.15
-17.6
-12.31
-7.21
-2.94
0.28
2.63
4.4
5.85
7
7.67
7.62
6.75
5.19
3.33
1.72
0.84
0.92
1.89
3.34
4.73
5.56
5.56
4.74
3.35
1.68
-0.07
-1.85
-3.75
-5.86
-8.24
-10.83
-13.55
-16.37
-19.37
-22.65
-26.17
-29.63
-32.4
-33.7
-32.85
-29.59
-24.15
-17.29
-9.97
-3.12
2.65
7.14
10.39
12.55
13.68
13.79
12.92
11.26
9.25
7.44
6.3
6.02
6.39
6.94
7.18
6.83
5.91
4.81
3.98
3.79
4.35
5.46
6.71
7.61
7.68
6.53
3.95
-0.02
-5.03
-10.32
-14.87
-17.65
-17.95
-15.74
-11.64
-6.69
-1.91
2.09
5.32
8.15
11.03
14.03
16.78
18.65
19.1
17.98
15.68
12.89
10.34
8.46
7.34
6.75
6.38
5.97
5.41
4.66
3.7
2.45
0.77
-1.48
-4.33
-7.67
-11.31
-15.04
-18.75
-22.39
-25.92
-29.15
-31.63
-32.7
-31.73
-28.37
-22.77
-15.6
-7.79
-0.27
6.37
11.85
16.24
19.63
22.11
23.61
24.07
23.52
22.17
20.41
18.67
17.27
16.27
15.47
14.5
13.03
10.98
8.53
6.09
4.04
2.6
1.69
0.99
0.02
-1.58
-4.04
-7.33
-11.3
-15.64
-19.98
-23.9
-26.89
-28.44
-28.1
-25.7
-21.41
-15.73
-9.44
-3.37
1.82
5.76
8.36
9.71
9.95
9.21
7.7
5.71
3.71
2.2
1.55
1.81
2.68
3.6
4.01
3.63
2.5
1.02
-0.36
-1.34
-1.94
-2.47
-3.35
-4.99
-7.59
-11.13
-15.39
-19.99
-24.4
-27.95
-29.98
-29.99
-27.78
-23.59
-17.96
-11.63
-5.25
0.7
5.89
10.11
13.14
14.8
14.97
13.76
11.52
8.83
6.35
4.62
3.94
4.25
5.17
6.21
6.95
7.16
6.9
6.31
5.53
4.49
2.99
0.75
-2.34
-6.22
-10.62
-15.19
-19.5
-23.14
-25.63
-26.53
-25.5
-22.5
-17.85
-12.25
-6.49
-1.25
3.11
6.56
9.23
11.23
12.46
12.75
11.95
10.17
7.79
5.42
3.65
2.87
3.07
3.88
4.71
5.02
4.52
3.27
1.6
-0.05
-1.4
-2.44
-3.43
-4.75
-6.76
-9.66
-13.51
-18.13
-23.21
-28.15
-32.13
-34.29
-33.9
-30.73
-25.15
-18.06
-10.57
-3.73
1.86
5.99
8.75
10.32
10.81
10.29
8.88
6.87
4.71
2.93
1.92
1.85
2.61
3.91
5.39
6.8
7.97
8.78
9.14
9
8.38
7.43
6.35
5.26
4.18
2.96
1.31
-1.03
-4.19
-8.11
-12.46
-16.7
-20.1
-21.89
-21.51
-18.87
-14.36
-8.83
-3.28
1.53
5.22
7.84
9.64
10.92
11.82
12.4
12.69
12.78
12.85
13.05
13.48
14.15
14.94
15.72
16.35
16.65
16.51
15.79
14.43
12.5
10.14
7.6
5.14
3.01
1.31
0.03
-1.03
-2.19
-3.8
-6.11
-9.19
-12.8
-16.37
-19.09
-20.17
-19.01
-15.45
-9.85
-3.01
4.07
10.46
15.51
18.94
20.87
21.61
21.54
21
20.23
19.37
18.51
17.68
16.92
16.26
15.7
15.23
14.79
14.29
13.62
12.69
11.43
9.88
8.14
6.34
4.56
2.81
0.98
-1.08
-3.52
-6.44
-9.89
-13.84
-18.13
-22.41
-26.1
-28.45
-28.71
-26.41
-21.53
-14.64
-6.76
0.94
7.46
12.25
15.21
16.62
16.88
16.32
15.21
13.77
12.26
10.99
10.23
10.11
10.52
11.17
11.68
11.77
11.38
10.63
9.68
8.64
7.46
5.98
4.03
1.49
-1.55
-4.89
-8.31
-11.65
-14.98
-18.48
-22.37
-26.63
-30.89
-34.43
-36.37
-36.02
-33.15
-28.12
-21.74
-14.98
-8.63
-3.19
1.18
4.51
6.83
8.15
8.5
8.04
7.04
5.87
4.91
4.43
4.58
5.35
6.57
7.93
9.04
9.52
9.12
7.78
5.68
3.19
0.64
-1.74
-3.9
-5.93
-7.93
-10.03
-12.27
-14.76
-17.59
-20.78
-24.14
-27.18
-29.13
-29.23
-27.04
-22.65
-16.75
-10.36
-4.44
0.35
3.82
6.11
7.48
8.16
8.25
7.82
7.08
6.38
6.16
6.73
8.11
10
11.87
13.18
13.62
13.19
12.07
10.51
8.67
6.55
4.15
1.54
-1.1
-3.52
-5.56
-7.3
-9
-11.08
-13.87
-17.44
-21.39
-24.96
-27.13
-27.02
-24.19
-18.83
-11.7
-3.92
3.51
9.89
14.96
18.73
21.3
22.65
22.77
21.75
19.95
17.99
16.58
16.24
17.11
18.92
21.08
22.9
23.89
23.84
22.88
21.31
19.48
17.59
15.7
13.71
11.49
8.92
5.93
2.45
-1.57
-6.08
-10.84
-15.35
-18.89
-20.75
-20.49
-18.15
-14.28
-9.71
-5.29
-1.59
1.2
3.19
4.61
5.64
6.33
6.67
6.67
6.42
6.11
5.96
6.06
6.41
6.82
7.07
6.9
6.15
4.75
2.84
0.71
-1.36
-3.13
-4.64
-6.13
-7.94
-10.38
-13.56
-17.36
-21.47
-25.49
-28.94
-31.33
-32.16
-31.01
-27.74
-22.59
-16.25
-9.64
-3.62
1.26
4.87
7.37
9.05
10.06
10.41
10.05
9.06
7.71
6.46
5.73
5.74
6.35
7.12
7.53
7.16
5.91
4.01
1.86
-0.11
-1.65
-2.73
-3.51
-4.2
-5
-6.1
-7.67
-9.91
-12.9
-16.48
-20.12
-22.92
-23.91
-22.36
-18.14
-11.79
-4.41
2.77
8.78
13.2
16.1
17.81
18.67
18.85
18.34
17.19
15.55
13.8
12.38
11.57
11.43
11.69
12
12.01
11.56
10.62
9.28
7.63
5.75
3.73
1.71
-0.14
-1.75
-3.21
-4.8
-6.92
-9.9
-13.78
-18.25
-22.64
-26.13
-27.94
-27.57
-24.93
-20.32
-14.37
-7.8
-1.28
4.68
9.79
13.91
16.99
18.99
19.9
19.84
19.08
18.08
17.35
17.28
17.97
19.18
20.41
21.14
20.98
19.85
17.92
15.53
13.08
10.89
9.1
7.63
6.23
4.52
2.18
-0.94
-4.83
-9.31
-14.11
-18.89
-23.18
-26.38
-27.84
-26.99
-23.65
-18.15
-11.31
-4.15
2.38
7.74
11.78
14.6
16.35
17.1
16.85
15.72
14.01
12.25
11.02
10.71
11.39
12.72
14.14
15.01
14.89
13.68
11.53
8.8
5.89
3.05
0.43
-1.89
-3.93
-5.7
-7.24
-8.71
-10.37
-12.59
-15.62
-19.41
-23.49
-27.04
-29.14
-29.05
-26.52
-21.85
-15.81
-9.3
-3.14
2.13
6.28
9.34
11.45
12.77
13.51
13.9
14.23
14.82
15.93
17.62
19.82
22.24
24.53
26.41
27.66
28.24
28.17
27.5
26.36
24.88
23.25
21.66
20.21
18.88
17.45
15.58
12.93
9.28
4.6
-0.91
-6.9
-12.85
-18.15
-22.11
-24.14
-23.81
-21.1
-16.38
-10.43
-4.2
1.5
6.17
9.76
12.48
14.64
16.37
17.6
18.11
17.73
16.52
14.8
13.1
11.92
11.49
11.74
12.32
12.81
12.85
12.29
11.13
9.46
7.37
4.95
2.32
-0.34
-2.82
-4.9
-6.55
-7.95
-9.44
-11.46
-14.31
-17.96
-22.01
-25.66
-27.99
-28.22
-26
-21.55
-15.66
-9.31
-3.4
1.55
5.46
8.49
10.84
12.5
13.32
13.11
11.91
10.08
8.19
6.8
6.22
6.39
6.93
7.42
7.52
7.12
6.31
5.24
4.04
2.76
1.34
-0.34
-2.36
-4.76
-7.56
-10.69
-14.03
-17.37
-20.34
-22.45
-23.21
-22.25
-19.56
-15.5
-10.72
-5.97
-1.78
1.6
4.3
6.52
8.38
9.84
10.67
10.72
10.04
8.93
7.83
7.08
6.81
6.91
7.11
7.1
6.73
5.96
4.9
3.73
2.6
1.57
0.6
-0.49
-1.98
-4.1
-6.98
-10.54
-14.52
-18.47
-21.87
-24.16
-24.85
-23.7
-20.75
-16.42
-11.4
-6.44
-2.08
1.49
4.43
6.99
9.35
11.38
12.8
13.32
12.92
11.89
10.68
9.73
9.26
9.18
9.23
9.18
8.9
8.42
7.82
7.05
6.04
4.64
2.8
0.61
-1.71
-3.97
-6.12
-8.3
-10.84
-13.97
-17.71
-21.69
-25.21
-27.42
-27.65
-25.64
-21.64
-16.38
-10.77
-5.6
-1.33
1.94
4.41
6.29
7.73
8.75
9.35
9.58
9.61
9.59
9.68
9.86
10.03
10.06
9.88
9.51
8.99
8.32
7.47
6.37
4.96
3.31
1.55
-0.2
-1.83
-3.3
-4.68
-6.13
-7.86
-10.1
-12.99
-16.49
-20.31
-23.9
-26.59
-27.7
-26.85
-24.05
-19.73
-14.66
-9.64
-5.34
-2.05
0.29
1.99
3.4
4.71
5.89
6.75
7.12
7
6.54
6
5.58
5.34
5.22
5.15
5.12
5.25
5.66
6.34
7.09
7.53
7.31
6.23
4.39
2.11
-0.21
-2.34
-4.2
-5.93
-7.74
-9.85
-12.41
-15.45
-18.85
-22.26
-25.14
-26.8
-26.7
-24.57
-20.67
-15.69
-10.55
-6.01
-2.5
0.04
1.86
3.32
4.54
5.48
5.95
5.87
5.32
4.61
4.13
4.22
4.99
6.34
7.93
9.36
10.31
10.61
10.27
9.4
8.1
6.45
4.52
2.39
0.26
-1.68
-3.26
-4.53
-5.73
-7.29
-9.58
-12.72
-16.4
-19.88
-22.24
-22.65
-20.74
-16.71
-11.35
-5.72
-0.79
2.85
5.12
6.34
6.98
7.35
7.53
7.37
6.68
5.48
4.05
2.82
2.25
2.5
3.43
4.67
5.78
6.44
6.53
6.11
5.28
4.07
2.48
0.54
-1.61
-3.71
-5.5
-6.87
-7.99
-9.35
-11.55
-15.05
-19.83
-25.25
-30.2
-33.5
-34.29
-32.39
-28.28
-22.91
-17.3
-12.25
-8.13
-5.02
-2.78
-1.2
-0.09
0.71
1.37
1.99
2.65
3.33
4.03
4.76
5.55
6.41
7.24
7.85
7.96
7.41
6.22
4.64
3.03
1.73
0.92
0.56
0.48
0.35
-0.14
-1.3
-3.44
-6.72
-11.05
-16
-20.8
-24.45
-26.07
-25.13
-21.74
-16.57
-10.65
-5.01
-0.37
3.08
5.56
7.43
8.97
10.17
10.85
10.86
10.27
9.44
8.84
8.86
9.59
10.84
12.17
13.2
13.68
13.54
12.88
11.82
10.47
8.94
7.35
5.86
4.54
3.33
2
0.12
-2.72
-6.71
-11.55
-16.49
-20.41
-22.25
-21.33
-17.63
-11.82
-5.02
1.52
6.82
10.35
12.08
12.34
11.66
10.55
9.36
8.27
7.37
6.68
6.26
6.16
6.38
6.83
7.28
7.43
7.08
6.17
4.86
3.38
1.98
0.74
-0.4
-1.63
-3.14
-5.03
-7.36
-10.14
-13.45
-17.28
-21.52
-25.72
-29.2
-31.12
-30.85
-28.21
-23.56
-17.7
-11.56
-5.9
-1.07
2.9
6.09
8.55
10.17
10.76
10.21
8.68
6.58
4.55
3.22
2.94
3.73
5.19
6.7
7.68
7.78
6.95
5.41
3.49
1.37
-0.9
-3.45
-6.41
-9.85
-13.75
-18.01
-22.5
-26.99
-31.07
-34.13
-35.49
-34.61
-31.37
-26.16
-19.8
-13.24
-7.24
-2.19
1.9
5.18
7.72
9.47
10.26
10.04
8.98
7.52
6.23
5.56
5.66
6.39
7.31
7.91
7.8
6.83
5.14
3.06
0.95
-0.96
-2.69
-4.43
-6.51
-9.15
-12.41
-16.14
-20.07
-23.8
-26.91
-28.89
-29.27
-27.72
-24.18
-18.99
-12.83
-6.45
-0.5
4.66
8.92
12.37
15.06
17.01
18.19
18.6
18.38
17.78
17.11
16.64
16.51
16.7
17.09
17.47
17.67
17.55
17.02
16.06
14.66
12.85
10.68
8.28
5.78
3.33
1.02
-1.17
-3.48
-6.25
-9.85
-14.48
-19.98
-25.71
-30.67
-33.7
-33.93
-31.04
-25.45
-18.16
-10.39
-3.11
3.16
8.43
12.99
17.09
20.78
23.79
25.76
26.39
25.72
24.1
22.13
20.41
19.36
19.18
19.78
20.9
22.21
23.41
24.24
24.49
24.02
22.82
20.95
18.6
15.95
13.15
10.24
7.08
3.49
-0.75
-5.75
-11.43
-17.47
-23.27
-27.99
-30.81
-31.11
-28.76
-24.15
-18.11
-11.61
-5.44
-0.03
4.59
8.66
12.44
16.03
19.33
22.1
24.1
25.27
25.79
25.92
25.98
26.13
26.36
26.54
26.48
26.11
25.42
24.53
23.46
22.2
20.7
18.87
16.74
14.39
11.94
9.46
6.97
4.34
1.4
-2.1
-6.38
-11.45
-17.01
-22.33
-26.44
-28.31
-27.24
-23.17
-16.73
-9.02
-1.21
5.86
11.82
16.71
20.76
24.1
26.71
28.47
29.29
29.3
28.8
28.15
27.63
27.36
27.27
27.22
27.07
26.7
26.04
25.04
23.59
21.57
18.94
15.75
12.19
8.53
5
1.7
-1.44
-4.65
-8.19
-12.26
-16.93
-22.06
-27.28
-31.99
-35.4
-36.71
-35.32
-31.07
-24.35
-16.1
-7.45
0.57
7.32
12.64
16.65
19.54
21.41
22.24
22.05
21.03
19.61
18.3
17.57
17.62
18.36
19.49
20.68
21.64
22.28
22.57
22.54
22.19
21.5
20.44
19.06
17.43
15.7
14
12.36
10.7
8.8
6.38
3.19
-0.83
-5.42
-10.02
-13.85
-16.16
-16.45
-14.7
-11.34
-7.16
-2.99
0.56
3.28
5.33
7.06
8.82
10.66
12.4
13.66
14.11
13.64
12.42
10.82
9.31
8.25
7.79
7.85
8.19
8.44
8.3
7.56
6.21
4.45
2.62
1.04
-0.11
-0.84
-1.35
-1.94
-2.95
-4.68
-7.37
-11.11
-15.74
-20.73
-25.17
-27.99
-28.32
-25.82
-20.87
-14.46
-7.79
-1.9
2.66
5.87
8.02
9.45
10.36
10.78
10.69
10.16
9.4
8.72
8.39
8.51
8.97
9.47
9.65
9.24
8.2
6.73
5.17
3.83
2.89
2.26
1.67
0.77
-0.73
-2.98
-5.96
-9.55
-13.58
-17.84
-22
-25.55
-27.87
-28.34
-26.63
-22.89
-17.78
-12.27
-7.31
-3.48
-0.86
0.89
2.25
3.54
4.79
5.86
6.56
6.9
7.11
7.49
8.26
9.42
10.77
11.95
12.68
12.82
12.43
11.7
10.84
10.02
9.24
8.4
7.27
5.62
3.29
0.18
-3.69
-8.17
-12.97
-17.6
-21.39
-23.6
-23.67
-21.44
-17.25
-11.96
-6.64
-2.21
0.78
2.28
2.6
2.17
1.33
0.24
-1.05
-2.45
-3.74
-4.59
-4.63
-3.68
-1.82
0.6
3.07
5.14
6.53
7.16
7.11
6.46
5.28
3.59
1.39
-1.2
-4.03
-6.9
-9.69
-12.42
-15.25
-18.43
-22.16
-26.43
-30.89
-34.89
-37.55
-38.08
-36.02
-31.47
-25.07
-17.84
-10.8
-4.74
0.06
3.65
6.34
8.4
9.91
10.85
11.11
10.72
9.89
8.97
8.32
8.15
8.41
8.84
9.17
9.17
8.79
8.08
7.15
6.08
4.95
3.79
2.74
1.9
1.35
1.05
0.78
0.21
-1.04
-3.23
-6.38
-10.19
-14.03
-17.07
-18.44
-17.58
-14.39
-9.34
-3.4
2.36
7.03
10.17
11.91
12.73
13.19
13.69
14.32
14.91
15.22
15.11
14.6
13.92
13.26
12.72
12.28
11.81
11.2
10.42
9.52
8.54
7.48
6.21
4.58
2.48
-0.06
-2.84
-5.57
-7.99
-10.01
-11.72
-13.45
-15.59
-18.46
-22.13
-26.29
-30.29
-33.27
-34.44
-33.34
-30.01
-25
-19.18
-13.43
-8.4
-4.37
-1.33
0.94
2.64
3.84
4.52
4.61
4.12
3.24
2.3
1.65
1.56
2.1
3.08
4.09
4.75
4.74
4.06
2.86
1.42
-0.05
-1.51
-3.07
-4.92
-7.2
-9.9
-12.93
-16.14
-19.38
-22.52
-25.36
-27.53
-28.56
-27.95
-25.43
-21.15
-15.69
-9.92
-4.62
-0.26
3.07
5.58
7.53
8.98
9.82
9.81
8.86
7.13
5.04
3.12
1.82
1.33
1.58
2.25
2.97
3.44
3.5
3.12
2.4
1.41
0.24
-1.09
-2.58
-4.28
-6.23
-8.47
-11.08
-14.14
-17.63
-21.4
-25.06
-27.98
-29.46
-28.91
-26.13
-21.42
-15.48
-9.24
-3.46
1.39
5.27
8.31
10.64
12.3
13.19
13.27
12.69
11.78
10.94
10.47
10.48
10.86
11.38
11.86
12.15
12.18
11.93
11.4
10.56
9.36
7.79
5.84
3.55
1.01
-1.69
-4.43
-7.15
-9.86
-12.67
-15.72
-19.13
-22.84
-26.53
-29.59
-31.27
-30.94
-28.34
-23.72
-17.77
-11.39
-5.43
-0.34
3.74
6.92
9.39
11.22
12.39
12.89
12.78
12.27
11.68
11.27
11.24
11.59
12.23
12.95
13.6
14.07
14.3
14.27
13.9
13.09
11.75
9.87
7.54
4.97
2.41
0.03
-2.09
-4.07
-6.15
-8.62
-11.73
-15.56
-19.93
-24.38
-28.23
-30.66
-31.02
-28.96
-24.68
-18.82
-12.31
-6.1
-0.88
3.1
5.97
8.08
9.76
11.16
12.23
12.85
12.97
12.76
12.56
12.66
13.2
14
14.74
15.1
14.98
14.53
14.05
13.72
13.46
12.99
11.97
10.21
7.8
5.04
2.3
-0.22
-2.55
-4.93
-7.7
-11.08
-15.07
-19.38
-23.39
-26.32
-27.44
-26.26
-22.78
-17.44
-11.06
-4.52
1.44
6.46
10.46
13.6
15.97
17.57
18.34
18.3
17.69
16.94
16.55
16.82
17.76
19.01
20.1
20.61
20.42
19.67
18.62
17.46
16.26
14.91
13.29
11.32
9.05
6.65
4.29
2.12
0.14
-1.78
-3.97
-6.78
-10.48
-15.05
-20.07
-24.78
-28.21
-29.56
-28.43
-25
-19.91
-14.09
-8.37
-3.36
0.65
3.68
5.85
7.3
8.09
8.17
7.49
6.12
4.35
2.66
1.63
1.66
2.81
4.71
6.71
8.14
8.6
8.05
6.82
5.29
3.76
2.25
0.72
-0.97
-2.85
-4.94
-7.31
-10.13
-13.54
-17.56
-21.79
-25.44
-27.61
-27.49
-24.81
-19.93
-13.69
-7.1
-0.96
4.25
8.43
11.66
14.03
15.52
16.04
15.56
14.17
12.19
10.1
8.42
7.5
7.44
7.95
8.54
8.69
8.07
6.71
4.95
3.23
1.83
0.73
-0.35
-1.81
-3.96
-6.89
-10.51
-14.58
-18.84
-22.95
-26.46
-28.82
-29.41
-27.84
-24.08
-18.58
-12.15
-5.7
0.07
4.82
8.6
11.6
13.97
15.68
16.58
16.51
15.54
13.99
12.36
11.13
10.52
10.45
10.56
10.46
9.83
8.61
6.96
5.06
3.1
1.18
-0.68
-2.46
-4.17
-5.88
-7.77
-10.11
-13.15
-16.87
-20.84
-24.26
-26.17
-25.77
-22.75
-17.44
-10.71
-3.67
2.7
7.8
11.53
14.15
16.01
17.35
18.16
18.29
17.64
16.28
14.57
13.03
12.16
12.18
12.98
14.2
15.35
15.99
15.87
14.94
13.33
11.23
8.81
6.23
3.57
0.88
-1.84
-4.65
-7.7
-11.15
-15.11
-19.45
-23.73
-27.18
-28.93
-28.32
-25.13
-19.8
-13.18
-6.28
0.1
5.56
10.06
13.7
16.55
18.51
19.41
19.17
18.01
16.41
14.99
14.26
14.43
15.34
16.56
17.56
17.89
17.29
15.75
13.43
10.58
7.47
4.32
1.29
-1.56
-4.25
-6.87
-9.61
-12.65
-16.14
-20.09
-24.24
-28.06
-30.79
-31.66
-30.13
-26.13
-20.12
-12.97
-5.71
0.79
6.03
9.91
12.63
14.45
15.56
15.99
15.75
14.89
13.68
12.48
11.63
11.35
11.6
12.1
12.5
12.53
12.06
11.1
9.75
8.08
6.18
4.08
1.83
-0.46
-2.68
-4.78
-6.81
-8.94
-11.47
-14.66
-18.64
-23.21
-27.83
-31.59
-33.53
-32.89
-29.47
-23.69
-16.52
-9.13
-2.53
2.71
6.47
9.02
10.72
11.83
12.42
12.49
12.03
11.22
10.33
9.72
9.64
10.15
11.08
12.11
12.92
13.27
13.11
12.5
11.51
10.21
8.57
6.61
4.37
2.06
-0.13
-2.16
-4.21
-6.71
-10.09
-14.5
-19.53
-24.21
-27.25
-27.55
-24.63
-18.86
-11.33
-3.43
3.65
9.2
13.05
15.44
16.72
17.15
16.91
16.05
14.64
12.89
11.1
9.62
8.73
8.56
9.04
9.99
11.08
12.05
12.68
12.83
12.41
11.45
9.99
8.17
6.21
4.29
2.49
0.8
-0.99
-3.14
-5.93
-9.51
-13.85
-18.61
-23.16
-26.69
-28.35
-27.53
-24.09
-18.55
-11.86
-5.18
0.59
5.01
8.23
10.7
12.82
14.77
16.38
17.37
17.57
17.15
16.51
16.2
16.58
17.73
19.44
21.37
23.14
24.49
25.26
25.35
24.67
23.14
20.74
17.57
13.86
9.91
6.04
2.44
-0.87
-4.08
-7.53
-11.62
-16.51
-22
-27.43
-31.8
-34.08
-33.6
-30.3
-24.76
-18.02
-11.18
-5.13
-0.33
3.15
5.48
6.83
7.32
6.94
5.74
3.9
1.8
-0.06
-1.18
-1.29
-0.43
1.07
2.71
4.01
4.69
4.66
3.97
2.79
1.3
-0.25
-1.66
-2.75
-3.5
-4.08
-4.87
-6.31
-8.75
-12.25
-16.44
-20.57
-23.64
-24.75
-23.35
-19.42
-13.54
-6.66
0.14
6.01
10.44
13.36
14.91
15.36
14.92
13.73
12.04
10.15
8.52
7.58
7.6
8.54
9.99
11.37
12.04
11.67
10.28
8.2
5.96
4.01
2.58
1.58
0.71
-0.49
-2.44
-5.34
-9.22
-13.78
-18.46
-22.55
-25.26
-25.96
-24.3
-20.36
-14.66
-8.04
-1.39
4.56
9.38
12.94
15.35
16.69
17
16.22
14.3
11.43
8.06
4.93
2.84
2.37
3.68
6.43
9.92
13.36
16.13
17.86
18.47
18.03
16.64
14.41
11.44
7.91
3.98
-0.2
-4.57
-9.19
-14.03
-18.85
-23.09
-25.94
-26.66
-24.84
-20.7
-14.97
-8.7
-2.87
1.96
5.69
8.59
11.02
13.16
15
16.42
17.36
17.89
18.24
18.6
18.99
19.3
19.33
18.98
18.32
17.57
16.86
16.16
15.16
13.49
10.87
7.3
3.17
-0.93
-4.41
-6.87
-8.3
-9.03
-9.67
-10.88
-13.18
-16.73
-21.18
-25.74
-29.35
-31.01
-30.06
-26.45
-20.64
-13.52
-6.04
0.96
6.95
11.63
14.92
16.78
17.23
16.39
14.53
12.11
9.69
7.74
6.58
6.2
6.4
6.91
7.53
8.19
8.91
9.67
10.32
10.55
10.04
8.58
6.2
3.18
-0.06
-3.11
-5.72
-7.85
-9.67
-11.44
-13.46
-15.95
-18.98
-22.41
-25.79
-28.46
-29.67
-28.88
-25.94
-21.24
-15.59
-9.92
-5.02
-1.26
1.35
3.07
4.12
4.6
4.47
3.69
2.4
0.92
-0.26
-0.69
-0.11
1.47
3.81
6.57
9.38
11.96
14.1
15.61
16.29
16.01
14.7
12.49
9.7
6.78
4.17
2.13
0.69
-0.44
-1.7
-3.57
-6.36
-10.03
-14.24
-18.3
-21.38
-22.75
-21.89
-18.76
-13.78
-7.8
-1.84
3.17
6.66
8.47
8.87
8.28
7.1
5.58
3.87
2.12
0.55
-0.49
-0.73
-0.1
1.14
2.54
3.59
3.98
3.72
3.05
2.29
1.64
1.11
0.59
-0.06
-0.91
-1.96
-3.15
-4.48
-6.01
-7.9
-10.33
-13.41
-17.01
-20.73
-23.86
-25.51
-24.89
-21.6
-15.9
-8.61
-0.92
6.04
11.53
15.34
17.71
19.05
19.73
19.89
19.53
18.64
17.3
15.78
14.4
13.43
12.95
12.84
12.79
12.48
11.75
10.63
9.35
8.22
7.44
6.96
6.53
5.73
4.18
1.68
-1.76
-6.03
-10.92
-16.18
-21.47
-26.19
-29.58
-30.86
-29.5
-25.49
-19.47
-12.53
-5.83
-0.28
3.74
6.33
7.88
8.77
9.19
9.06
8.24
6.67
4.61
2.58
1.16
0.77
1.46
2.8
4.12
4.74
4.26
2.68
0.38
-2.14
-4.47
-6.4
-7.96
-9.35
-10.76
-12.36
-14.26
-16.56
-19.32
-22.53
-25.97
-29.08
-31.04
-31.04
-28.56
-23.72
-17.31
-10.49
-4.44
0.12
3.03
4.68
5.6
6.17
6.54
6.64
6.38
5.8
5.09
4.56
4.45
4.83
5.55
6.36
7
7.27
7.15
6.7
6.04
5.27
4.38
3.33
2.03
0.36
-1.72
-4.26
-7.25
-10.6
-14.04
-17.17
-19.42
-20.26
-19.37
-16.81
-13.11
-9.05
-5.45
-2.76
-1.01
0.2
1.38
2.89
4.73
6.58
8.04
8.84
9.03
8.94
8.97
9.38
10.14
10.99
11.57
11.6
11.02
10.01
8.88
7.88
7.12
6.48
5.65
4.31
2.15
-0.96
-4.97
-9.67
-14.65
-19.36
-23.11
-25.15
-24.87
-22
-16.78
-9.99
-2.68
4.1
9.7
13.97
17.18
19.68
21.61
22.85
23.13
22.27
20.44
18.11
15.85
14.14
13.11
12.61
12.34
12.04
11.57
11.01
10.45
9.97
9.53
8.99
8.11
6.65
4.46
1.45
-2.32
-6.75
-11.63
-16.74
-21.72
-26.04
-29.07
-30.21
-29.18
-26.16
-21.83
-17.08
-12.73
-9.13
-6.19
-3.56
-0.97
1.56
3.65
4.82
4.76
3.55
1.7
-0.14
-1.4
-1.85
-1.63
-1.18
-0.92
-1.14
-1.83
-2.79
-3.71
-4.45
-5.07
-5.87
-7.27
-9.63
-13.08
-17.46
-22.35
-27.12
-31.07
-33.59
-34.26
-32.97
-29.94
-25.63
-20.59
-15.35
-10.18
-5.14
-0.13
4.94
9.97
14.63
18.48
21.14
22.61
23.21
23.52
24.02
24.86
25.75
26.12
25.51
23.81
21.34
18.7
16.35
14.42
12.6
10.37
7.33
3.32
-1.45
-6.65
-11.84
-16.69
-20.86
-23.98
-25.6
-25.33
-23.05
-19.02
-13.84
-8.28
-3.01
1.62
5.53
8.87
11.75
14.17
15.99
16.99
17.08
16.33
15.09
13.86
13.16
13.32
14.41
16.15
18.04
19.52
20.17
19.91
18.9
17.51
16.06
14.74
13.47
12.06
10.25
7.83
4.67
0.71
-4.01
-9.27
-14.62
-19.33
-22.56
-23.57
-22.02
-18.15
-12.74
-6.83
-1.41
2.95
6.12
8.3
9.78
10.72
11.09
10.79
9.85
8.55
7.38
6.82
7.18
8.37
9.95
11.29
11.89
11.49
10.19
8.32
6.32
4.57
3.31
2.58
2.23
1.98
1.45
0.28
-1.79
-4.8
-8.54
-12.5
-15.99
-18.31
-18.9
-17.49
-14.24
-9.62
-4.31
0.98
5.71
9.57
12.48
14.46
15.59
15.95
15.63
14.8
13.71
12.64
11.83
11.38
11.26
11.29
11.25
10.93
10.21
9.09
7.61
5.89
4.04
2.14
0.22
-1.73
-3.75
-5.86
-8.12
-10.6
-13.41
-16.63
-20.14
-23.53
-26.06
-26.94
-25.59
-21.94
-16.55
-10.39
-4.44
0.62
4.58
7.58
9.92
11.73
12.97
13.58
13.57
13.13
12.64
12.45
12.77
13.53
14.49
15.32
15.74
15.63
15.05
14.13
12.96
11.58
9.93
7.93
5.58
2.99
0.38
-2.01
-4.05
-5.79
-7.43
-9.32
-11.78
-14.97
-18.77
-22.73
-26.16
-28.3
-28.58
-26.76
-23.03
-17.97
-12.33
-6.81
-1.89
2.21
5.48
8.04
9.95
11.24
11.9
11.97
11.62
11.11
10.76
10.81
11.32
12.18
13.11
13.82
14.12
13.94
13.39
12.63
11.81
10.95
9.95
8.64
6.9
4.77
2.5
0.42
-1.23
-2.44
-3.5
-4.89
-7.08
-10.33
-14.57
-19.39
-24.15
-28.13
-30.64
-31.19
-29.59
-26.07
-21.2
-15.8
-10.63
-6.19
-2.64
0.15
2.39
4.18
5.53
6.38
6.82
7.11
7.64
8.76
10.58
12.9
15.27
17.17
18.23
18.34
17.65
16.48
15.15
13.78
12.33
10.62
8.47
5.83
2.84
-0.21
-3.01
-5.37
-7.33
-9.12
-11.09
-13.48
-16.35
-19.57
-22.82
-25.75
-28.01
-29.27
-29.19
-27.52
-24.14
-19.23
-13.26
-6.91
-0.91
4.26
8.44
11.73
14.35
16.39
17.83
18.53
18.39
17.49
16.11
14.67
13.55
12.96
12.88
13.14
13.46
13.63
13.56
13.31
12.97
12.62
12.17
11.4
10.07
8.04
5.4
2.46
-0.34
-2.66
-4.43
-5.84
-7.31
-9.24
-11.86
-15.12
-18.66
-21.92
-24.17
-24.79
-23.33
-19.69
-14.16
-7.4
-0.19
6.72
12.79
17.84
21.87
25.05
27.56
29.54
31.13
32.51
33.89
35.41
37.19
39.25
41.58
44.23
47.32
51.06
55.57
60.85
66.66
72.73
78.85
85.14
91.94
99.73
108.95
119.73
131.88
144.73
157.07
167.1
172.59
171.33
161.88
144.29
120.48
94
69.05
49.32
36.9
31.91
32.66
36.37
40.06
41.39
39.14
33.44
25.46
16.98
9.7
4.79
2.59
2.75
4.43
6.56
8.05
7.92
5.51
0.63
-6.31
-14.38
-22.44
-29.71
-36.1
-42.24
-49.19
-57.88
-68.54
-80.51
-92.39
-102.55
-109.77
-113.7
-115.09
-115.56
-117.1
-121.44
-129.46
-140.87
-154.19
-167.08
-177.03
-182.02
-181.15
-174.87
-164.82
-153.12
-141.78
-132.06
-124.21
-117.72
-111.64
-105.09
-97.51
-88.85
-79.51
-70.25
-61.86
-55.02
-50.02
-46.64
-44.25
-42.04
-39.31
-35.66
-31
-25.58
-19.8
-14.19
-9.33
-5.78
-3.93
-3.95
-5.65
-8.55
-12
-15.36
-18.19
-20.25
-21.5
-21.95
-21.66
-20.67
-19.05
-16.86
-14.09
-10.7
-6.57
-1.71
3.7
9.25
14.38
18.61
21.71
23.88
25.57
27.35
29.55
32.2
35
37.56
39.65
41.36
42.99
44.86
47.03
49.19
50.79
51.29
50.48
48.61
46.33
44.45
43.65
44.28
46.26
49.16
52.34
55.13
57.02
57.79
57.59
56.87
56.3
56.53
57.92
60.51
63.96
67.9
72.21
77.25
83.77
92.61
103.98
116.91
129.04
137.08
137.67
128.55
109.39
81.87
49.17
14.92
-17.8
-47.03
-72.01
-92.87
-110.16
-124.5
-136.52
-146.75
-155.57
-163.2
-169.54
-174.36
-177.58
-179.48
-180.75
-182.19
-184.22
-186.6
-188.34
-188.16
-185.01
-178.55
-169.15
-157.63
-144.85
-131.4
-117.63
-103.81
-90.26
-77.46
-65.86
-55.81
-47.41
-40.59
-35.11
-30.67
-26.91
-23.45
-19.92
-15.96
-11.32
-5.99
-0.17
5.69
10.98
15.09
17.53
18.1
16.86
14.15
10.46
6.33
2.18
-1.82
-5.74
-9.78
-14.05
-18.33
-21.92
-23.76
-22.85
-18.68
-11.56
-2.6
6.75
15.23
22.16
27.55
31.78
35.22
37.89
39.59
40.02
39.09
37.15
34.85
32.89
31.72
31.47
31.81
32.21
32.11
31.14
29.24
26.6
23.6
20.54
17.58
14.63
11.47
7.78
3.33
-1.96
-8.1
-14.92
-22.05
-28.79
-34.13
-36.86
-35.97
-31.09
-22.69
-12.08
-0.87
9.44
18
24.56
29.32
32.52
34.18
34.23
32.71
30.05
27.07
24.77
23.92
24.71
26.71
29.07
30.87
31.44
30.57
28.45
25.43
21.94
18.25
14.52
10.8
7.08
3.22
-1.03
-6.02
-12.08
-19.26
-27.09
-34.44
-39.78
-41.48
-38.49
-30.7
-19.12
-5.52
8.04
19.84
28.88
34.95
38.35
39.59
39.14
37.32
34.48
31.11
27.87
25.49
24.5
25.02
26.68
28.71
30.19
30.39
28.97
26.08
22.24
18.09
14.13
10.61
7.47
4.44
1.2
-2.57
-7.13
-12.7
-19.43
-27.21
-35.5
-43.16
-48.58
-50.07
-46.52
-37.84
-25.18
-10.53
3.85
16.17
25.54
31.92
35.81
37.76
38.15
37.22
35.28
32.87
30.83
29.92
30.62
32.83
35.98
39.24
41.85
43.28
43.35
42.14
39.85
36.81
33.35
29.85
26.55
23.47
20.33
16.61
11.73
5.29
-2.85
-12.43
-22.83
-33.04
-41.73
-47.36
-48.46
-44.13
-34.42
-20.54
-4.63
10.86
23.88
33.35
39.24
42.31
43.55
43.77
43.42
42.71
41.82
40.96
40.42
40.45
41.06
42.03
42.94
43.31
42.7
40.89
37.85
33.78
29.01
23.9
18.82
14.04
9.76
6.07
3.02
0.49
-1.82
-4.52
-8.36
-13.95
-21.31
-29.6
-37.09
-41.66
-41.49
-35.87
-25.48
-12.18
1.69
14.14
24.02
31.15
35.83
38.46
39.25
38.32
35.97
32.86
29.95
28.2
28.15
29.72
32.3
35.05
37.35
38.98
40.01
40.6
40.7
40.06
38.35
35.5
31.72
27.51
23.39
19.6
16.04
12.34
8
2.65
-3.8
-11.09
-18.53
-24.96
-28.92
-28.99
-24.41
-15.45
-3.62
8.76
19.42
26.94
31.14
32.9
33.36
33.32
32.8
31.38
28.68
24.88
20.78
17.45
15.68
15.59
16.62
17.88
18.55
18.22
16.89
14.88
12.56
10.23
8.05
6.08
4.27
2.5
0.58
-1.73
-4.72
-8.62
-13.53
-19.27
-25.31
-30.72
-34.38
-35.17
-32.42
-26.14
-17.16
-6.91
3
11.26
17.19
20.74
22.26
22.19
20.87
18.51
15.41
12.03
9.03
7.1
6.66
7.68
9.62
11.63
12.87
12.8
11.38
8.94
6.04
3.15
0.46
-2.16
-5.05
-8.55
-12.84
-17.88
-23.44
-29.13
-34.44
-38.71
-41.17
-41.05
-37.85
-31.58
-22.91
-13.03
-3.28
5.24
11.94
16.77
19.97
21.82
22.38
21.6
19.51
16.4
13.01
10.25
8.88
9.08
10.42
12
12.86
12.48
10.86
8.51
6
3.67
1.49
-0.83
-3.64
-7.06
-11.03
-15.4
-20.05
-24.92
-29.83
-34.33
-37.58
-38.66
-36.83
-31.98
-24.77
-16.41
-8.25
-1.28
4.09
7.98
10.79
12.87
14.37
15.26
15.52
15.28
14.83
14.54
14.71
15.43
16.6
17.91
19.02
19.63
19.61
18.9
17.57
15.76
13.58
11.11
8.41
5.49
2.36
-0.91
-4.31
-7.83
-11.63
-15.91
-20.82
-26.15
-31.27
-35.13
-36.57
-34.88
-30.1
-23.13
-15.36
-8.09
-2.06
2.61
6.25
9.18
11.44
12.82
13.07
12.21
10.67
9.12
8.19
8.26
9.32
11.04
13
14.81
16.17
16.89
16.86
15.99
14.26
11.77
8.81
5.74
2.95
0.71
-0.92
-2.13
-3.31
-4.83
-7.02
-10.03
-13.78
-17.91
-21.83
-24.8
-26.06
-25.11
-21.84
-16.71
-10.51
-4.17
1.54
6.2
9.78
12.37
14.09
14.95
14.91
14.04
12.6
11.03
9.85
9.42
9.87
11.02
12.52
13.96
15.05
15.62
15.66
15.24
14.44
13.27
11.72
9.76
7.44
4.86
2.25
-0.19
-2.32
-4.15
-5.89
-7.9
-10.55
-14.08
-18.37
-22.84
-26.5
-28.21
-27.16
-23.15
-16.79
-9.22
-1.72
4.74
9.75
13.35
15.88
17.57
18.55
18.8
18.37
17.51
16.59
15.97
15.83
16.12
16.57
16.88
16.81
16.33
15.49
14.42
13.11
11.48
9.4
6.77
3.65
0.18
-3.39
-6.82
-9.93
-12.61
-14.91
-17.03
-19.31
-22.09
-25.46
-29.14
-32.4
-34.28
-33.94
-31.05
-25.91
-19.4
-12.64
-6.57
-1.76
1.67
3.87
5.08
5.41
4.89
3.57
1.62
-0.54
-2.34
-3.19
-2.77
-1.18
1.07
3.25
4.66
4.9
4
2.33
0.36
-1.56
-3.29
-4.94
-6.72
-8.81
-11.32
-14.21
-17.43
-20.89
-24.42
-27.76
-30.42
-31.76
-31.11
-28.12
-22.91
-16.13
-8.87
-2.22
3.02
6.56
8.6
9.56
9.82
9.54
8.7
7.26
5.35
3.32
1.61
0.63
0.53
1.16
2.14
3.05
3.53
3.4
2.68
1.55
0.24
-1.02
-2.15
-3.23
-4.49
-6.19
-8.54
-11.6
-15.26
-19.24
-23.08
-26.06
-27.38
-26.32
-22.53
-16.26
-8.37
-0.03
7.63
13.93
18.72
22.22
24.73
26.35
27.01
26.61
25.14
22.86
20.12
17.34
14.85
12.85
11.39
10.45
9.81
9.19
8.23
6.62
4.24
1.17
-2.32
-5.86
-9.21
-12.3
-15.22
-18.21
-21.52
-25.32
-29.64
-34.23
-38.57
-41.84
-43.19
-41.88
-37.63
-30.75
-22.1
-12.96
-4.55
2.23
7.02
10.02
11.75
12.7
13.18
13.24
12.81
11.85
10.53
9.29
8.6
8.85
10.06
11.91
13.86
15.34
16.03
15.85
14.94
13.52
11.75
9.67
7.27
4.57
1.75
-0.97
-3.45
-5.76
-8.28
-11.53
-15.87
-21.2
-26.74
-31.26
-33.4
-32.26
-27.79
-20.87
-12.9
-5.38
0.65
4.82
7.32
8.59
9.02
8.8
8
6.69
5.11
3.69
2.86
2.94
3.97
5.76
7.86
9.71
10.74
10.57
9.07
6.44
3.11
-0.36
-3.49
-5.98
-7.73
-8.78
-9.25
-9.37
-9.49
-10.16
-12.04
-15.62
-20.87
-27.03
-32.7
-36.18
-36.12
-32
-24.41
-14.8
-4.96
3.56
9.88
13.84
15.82
16.38
15.97
14.78
12.91
10.43
7.57
4.7
2.23
0.52
-0.29
-0.17
0.77
2.37
4.43
6.67
8.68
9.89
9.73
7.79
3.99
-1.22
-7.03
-12.45
-16.62
-19.06
-19.91
-19.8
-19.69
-20.44
-22.51
-25.62
-28.78
-30.62
-29.81
-25.66
-18.38
-9.06
0.75
9.57
16.44
21.08
23.69
24.68
24.41
23.13
21.07
18.56
16.03
13.94
12.61
12.13
12.32
12.8
13.19
13.15
12.55
11.39
9.72
7.67
5.31
2.69
-0.16
-3.15
-6.13
-8.91
-11.33
-13.41
-15.35
-17.56
-20.36
-23.83
-27.55
-30.67
-32.12
-30.95
-26.79
-20.01
-11.68
-3.17
4.26
9.9
13.69
16.07
17.67
18.92
19.9
20.4
20.16
19.06
17.35
15.5
14.01
13.22
13.11
13.35
13.47
13.02
11.79
9.86
7.52
5.16
3.09
1.41
0.03
-1.3
-2.87
-4.91
-7.58
-10.96
-15.03
-19.56
-24.01
-27.54
-29.15
-28.07
-24.07
-17.63
-9.81
-1.86
5.24
10.99
15.42
18.81
21.38
23.12
23.91
23.65
22.51
20.95
19.6
19.04
19.57
21.09
23.12
25.01
26.13
26.06
24.75
22.45
19.58
16.56
13.66
10.92
8.14
5.02
1.2
-3.5
-9.12
-15.4
-21.85
-27.72
-32.03
-33.84
-32.41
-27.56
-19.86
-10.49
-1.02
7.15
13.18
17.05
19.32
20.77
21.91
22.77
22.98
22.09
19.98
17.02
13.96
11.66
10.68
11.06
12.43
14.15
15.58
16.29
16.06
14.86
12.83
10.13
6.94
3.42
-0.29
-4.11
-8
-11.98
-16.12
-20.5
-25.08
-29.6
-33.5
-36.06
-36.48
-34.28
-29.55
-22.96
-15.56
-8.44
-2.34
2.5
6.21
9.06
11.24
12.76
13.58
13.74
13.47
13.16
13.13
13.5
14.09
14.51
14.34
13.29
11.26
8.45
5.22
2.09
-0.5
-2.28
-3.37
-4.27
-5.71
-8.32
-12.35
-17.49
-22.99
-27.87
-31.27
-32.59
-31.5
-28.02
-22.42
-15.28
-7.53
-0.2
5.72
9.7
11.78
12.45
12.38
12.03
11.5
10.56
8.98
6.78
4.33
2.21
0.98
0.91
1.84
3.34
4.83
5.86
6.19
5.94
5.42
4.95
4.69
4.45
3.72
1.81
-1.76
-7.1
-13.77
-20.9
-27.44
-32.36
-34.84
-34.4
-30.98
-24.92
-17.01
-8.27
0.22
7.55
13.17
16.87
18.71
18.93
17.88
16.08
14.13
12.61
11.92
12.07
12.72
13.26
13.14
12.07
10.12
7.67
5.22
3.07
1.25
-0.59
-3
-6.49
-11.33
-17.43
-24.34
-31.37
-37.68
-42.45
-44.96
-44.74
-41.7
-36.11
-28.69
-20.31
-11.91
-4.22
2.33
7.55
11.43
14.06
15.56
16.12
16.01
15.54
14.97
14.43
13.88
13.17
12.13
10.75
9.25
8
7.32
7.19
7.15
6.37
4.03
-0.28
-6.31
-13.22
-19.92
-25.37
-28.89
-30.05
-28.67
-24.64
-18.01
-9.16
1.18
11.98
22.18
31
38.11
43.59
47.75
50.91
53.31
55.17
56.74
58.46
60.87
64.46
69.4
75.48
82.03
88.22
93.39
97.28
100
101.63
101.79
99.46
93.16
81.6
64.31
42.08
16.97
-8.13
-30.23
-46.81
-56.35
-58.56
-54.33
-45.45
-34.23
-22.89
-13.12
-5.73
-0.69
2.62
4.89
6.56
7.69
8
7.17
5.07
1.94
-1.67
-5.04
-7.72
-9.58
-10.91
-12.34
-14.61
-18.21
-23.34
-29.74
-36.59
-42.8
-47.2
-49.05
-48.51
-47.07
-47.43
-52.81
-65.72
-86.76
-113.9
-142.91
-168.57
-186.39
-193.96
-191.5
-181.45
-167.38
-152.87
-140.53
-131.49
-125.47
-121.03
-116.28
-109.57
-100.14
-88.31
-75.34
-62.81
-51.88
-42.97
-35.84
-29.93
-24.8
-20.46
-17.31
-15.86
-16.53
-19.33
-23.87
-29.26
-34.26
-37.27
-36.62
-31.01
-20.05
-4.88
11.72
25.95
34.13
34.07
25.96
12.35
-2.79
-15.41
-22.78
-24.01
-19.85
-12.05
-2.46
7.37
16.49
24.37
30.74
35.48
38.53
39.99
40.09
39.33
38.4
37.98
38.55
40.23
42.71
45.47
47.93
49.68
50.51
50.39
49.32
47.37
44.68
41.51
38.25
35.23
32.57
30.14
27.56
24.45
20.65
16.29
11.7
7.33
3.55
0.75
-0.59
0.2
3.74
10.4
19.91
31.33
43.47
55.49
67.2
78.8
89.9
98.74
102.2
97.21
82.64
60.64
36.36
15.89
3.63
0.49
3.95
9.87
14.77
17.21
17.72
17.54
17.3
16.62
14.63
10.93
6.26
2.09
-0.06
0.46
2.97
5.67
6.42
3.53
-3.47
-13.6
-24.73
-34.16
-39.45
-39.13
-33.1
-22.54
-9.58
3.44
14.55
22.6
27.29
28.97
28.32
26.07
22.87
19.37
16.2
14.02
13.24
13.96
15.82
18.16
20.22
21.4
21.48
20.57
19.01
17.15
15.24
13.39
11.64
10.02
8.53
7.14
5.66
3.71
0.81
-3.48
-9.43
-16.89
-25.3
-33.61
-40.51
-44.61
-44.85
-40.82
-33
-22.7
-11.72
-1.75
6.05
11.38
14.64
16.59
17.88
18.78
19.2
18.93
17.96
16.6
15.41
14.96
15.56
17.08
19.09
20.99
22.27
22.66
22.1
20.73
18.75
16.36
13.71
10.94
8.11
5.2
2.04
-1.63
-6.11
-11.54
-17.78
-24.23
-29.91
-33.65
-34.46
-31.88
-26.25
-18.58
-10.26
-2.5
3.96
9.04
13.01
16.08
18.16
18.82
17.69
14.83
11.04
7.66
6.09
7.13
10.52
15.01
18.89
20.72
19.92
16.9
12.69
8.38
4.58
1.3
-1.86
-5.29
-9.06
-12.92
-16.55
-19.88
-23.18
-26.78
-30.67
-34.19
-36.11
-35.07
-30.22
-21.74
-10.84
0.66
10.95
18.8
23.79
26.14
26.43
25.27
23.21
20.77
18.51
16.99
16.61
17.5
19.4
21.7
23.64
24.48
23.77
21.44
17.87
13.7
9.65
6.27
3.71
1.8
0.03
-2.15
-5.25
-9.59
-15.24
-21.96
-29.11
-35.59
-40.06
-41.25
-38.51
-32.11
-23.35
-14.07
-5.96
0.05
4.01
6.69
8.89
10.92
12.41
12.64
11.1
7.98
4.17
0.93
-0.77
-0.62
0.91
2.89
4.4
4.9
4.3
2.81
0.7
-1.87
-4.87
-8.32
-12.21
-16.46
-21.01
-25.79
-30.81
-35.93
-40.79
-44.72
-46.83
-46.33
-42.86
-36.64
-28.5
-19.54
-10.8
-2.94
3.76
9.31
13.72
16.84
18.39
18.23
16.48
13.76
10.98
9.06
8.56
9.46
11.2
12.9
13.8
13.53
12.19
10.25
8.2
6.35
4.65
2.74
0.19
-3.36
-7.99
-13.44
-19.14
-24.25
-27.88
-29.25
-27.91
-23.88
-17.66
-10.09
-2.03
5.75
12.79
18.8
23.56
26.79
28.23
27.78
25.7
22.64
19.53
17.2
16.1
16.14
16.75
17.22
16.94
15.72
13.73
11.4
9.13
7.09
5.13
2.86
-0.16
-4.28
-9.57
-15.75
-22.23
-28.11
-32.36
-34.05
-32.62
-28.1
-21.17
-13.02
-4.9
2.22
7.92
12.3
15.65
18.15
19.67
19.96
18.91
16.82
14.41
12.57
11.87
12.35
13.5
14.54
14.85
14.22
12.85
11.13
9.35
7.49
5.28
2.36
-1.52
-6.41
-12.16
-18.39
-24.55
-29.91
-33.62
-34.83
-32.99
-28.08
-20.72
-12.03
-3.3
4.46
10.7
15.41
18.8
21.11
22.37
22.49
21.45
19.48
17.08
14.92
13.55
13.26
13.96
15.3
16.81
18.04
18.65
18.39
17.14
14.87
11.75
8.1
4.38
0.98
-1.92
-4.42
-6.93
-10
-14.14
-19.58
-26.17
-33.35
-40.06
-44.99
-46.86
-44.81
-38.8
-29.66
-18.91
-8.22
1.17
8.77
14.78
19.72
23.99
27.55
30.06
31.11
30.62
29.03
27.13
25.77
25.42
26.1
27.31
28.41
28.84
28.45
27.4
26
24.5
22.92
21.02
18.49
15.16
11.12
6.69
2.32
-1.65
-5.07
-8.04
-10.89
-14.01
-17.76
-22.42
-28.04
-34.45
-41.2
-47.53
-52.47
-55.02
-54.44
-50.49
-43.62
-34.83
-25.38
-16.34
-8.31
-1.34
4.79
10.3
15.12
18.86
21.12
21.82
21.34
20.48
20.1
20.73
22.39
24.66
26.92
28.62
29.53
29.65
29.11
28.04
26.44
24.18
21.17
17.35
12.9
8.17
3.64
-0.16
-2.88
-4.47
-5.23
-5.76
-6.79
-8.99
-12.74
-17.91
-23.85
-29.42
-33.23
-34.05
-31.27
-25.11
-16.66
-7.47
1.04
8.06
13.54
17.98
22.03
25.98
29.61
32.46
34.04
34.28
33.56
32.49
31.7
31.48
31.72
32.02
31.99
31.35
30.17
28.64
27.01
25.4
23.74
21.91
19.81
17.45
14.91
12.28
9.59
6.82
3.96
1.05
-1.84
-4.67
-7.55
-10.81
-14.86
-19.97
-26.1
-32.75
-39.03
-43.87
-46.22
-45.37
-41.14
-33.91
-24.58
-14.32
-4.35
4.4
11.41
16.62
20.2
22.5
23.79
24.28
24.18
23.72
23.18
22.86
23
23.7
24.87
26.3
27.69
28.71
29.11
28.82
27.87
26.42
24.61
22.52
20.06
17.12
13.55
9.4
4.89
0.39
-3.76
-7.38
-10.52
-13.35
-16.15
-19.13
-22.5
-26.38
-30.85
-35.79
-40.79
-45.1
-47.64
-47.43
-43.9
-37.3
-28.61
-19.31
-10.79
-3.9
1.21
4.99
7.99
10.56
12.65
13.93
14.15
13.35
11.97
10.67
10.04
10.35
11.44
12.87
14.1
14.74
14.63
13.93
12.88
11.75
10.64
9.49
8.05
6.05
3.38
0.15
-3.28
-6.49
-9.21
-11.44
-13.47
-15.69
-18.46
-21.9
-25.97
-30.47
-35.15
-39.66
-43.4
-45.58
-45.33
-42.04
-35.66
-26.86
-16.91
-7.24
0.98
7.15
11.29
13.77
15.03
15.36
14.85
13.55
11.71
9.79
8.45
8.22
9.3
11.45
13.98
16.11
17.23
17.18
16.23
14.87
13.55
12.5
11.66
10.83
9.87
8.79
7.76
6.86
6.02
4.85
2.89
-0.22
-4.56
-9.86
-15.66
-21.45
-26.74
-31.02
-33.65
-33.91
-31.2
-25.34
-16.86
-6.91
3.02
11.67
18.37
23.15
26.52
28.98
30.77
31.75
31.62
30.25
27.9
25.23
23.01
21.77
21.64
22.28
23.21
23.95
24.3
24.21
23.79
23.01
21.71
19.64
16.61
12.62
7.9
2.85
-2.07
-6.51
-10.28
-13.43
-16.22
-19.02
-22.21
-25.99
-30.17
-34.22
-37.29
-38.57
-37.5
-34.03
-28.65
-22.22
-15.67
-9.77
-4.96
-1.36
1.05
2.28
2.26
0.9
-1.66
-4.93
-8.1
-10.26
-10.78
-9.59
-7.23
-4.62
-2.68
-1.98
-2.58
-4.17
-6.28
-8.46
-10.44
-12.16
-13.64
-15.07
-16.68
-18.83
-21.8
-25.78
-30.56
-35.56
-39.77
-42.08
-41.6
-37.97
-31.59
-23.4
-14.7
-6.65
-0.05
4.84
8.12
10.05
10.78
10.38
8.94
6.69
4.12
1.87
0.5
0.27
1.01
2.18
3.19
3.56
3.16
2.16
0.86
-0.47
-1.74
-3.04
-4.63
-6.82
-9.95
-14.23
-19.63
-25.75
-31.81
-36.78
-39.54
-39.31
-35.82
-29.55
-21.5
-12.95
-5.08
1.35
6.07
9.24
11.17
12.11
12.15
11.28
9.58
7.32
4.99
3.2
2.33
2.45
3.21
4.09
4.55
4.31
3.33
1.85
0.12
-1.7
-3.65
-5.92
-8.79
-12.42
-16.84
-21.84
-26.97
-31.61
-35.06
-36.58
-35.66
-32.08
-26.08
-18.37
-10.02
-2.19
4.26
8.95
12.04
14.02
15.36
16.25
16.59
16.2
15.03
13.36
11.69
10.54
10.13
10.3
10.57
10.4
9.37
7.39
4.58
1.22
-2.45
-6.26
-10.18
-14.22
-18.41
-22.8
-27.44
-32.44
-37.86
-43.6
-49.19
-53.76
-56.16
-55.35
-50.85
-43.14
-33.62
-24.24
-16.86
-12.55
-11.29
-12.03
-13.15
-13.23
-11.54
-8.37
-4.8
-2.25
-1.88
-4.12
-8.58
-14.22
-19.77
-24.08
-26.42
-26.55
-24.56
-20.93
-16.39
-11.87
-8.41
-6.69
-6.67
-7.32
-7.03
-4.54
-0.06
4.4
5.68
1.15
-9.6
-24.04
-37.65
-45.95
-46.66
-40.6
-30.85
-20.96
-13.09
-7.35
-2.48
2.8
8.65
14.04
17.49
18.14
16.29
13.32
11.07
10.84
12.88
16.44
20.13
22.65
23.28
22.12
19.88
17.49
15.59
14.3
13.16
11.42
8.45
3.96
-1.86
-8.56
-15.62
-22.7
-29.46
-35.51
-40.07
-42.13
-40.73
-35.41
-26.62
-15.65
-4.24
6.11
14.58
21.13
26.23
30.34
33.64
35.95
37
36.81
35.75
34.5
33.71
33.72
34.5
35.72
36.89
37.6
37.51
36.38
34.06
30.55
26.04
20.96
15.86
11.21
7.24
3.8
0.4
-3.54
-8.53
-14.77
-22.07
-29.73
-36.71
-41.71
-43.52
-41.34
-35.1
-25.56
-14.12
-2.41
8.21
16.97
23.7
28.67
32.28
34.77
36.27
36.83
36.61
35.88
35.05
34.5
34.43
34.87
35.65
36.46
36.95
36.8
35.77
33.77
30.87
27.28
23.25
19.05
14.87
10.83
6.97
3.23
-0.56
-4.68
-9.44
-15.1
-21.55
-28.19
-33.97
-37.56
-37.81
-34.17
-26.91
-17.07
-6.12
4.57
14.04
21.91
28.2
33.1
36.71
39.03
39.96
39.6
38.27
36.51
34.95
34.08
34.07
34.76
35.73
36.53
36.77
36.27
34.97
32.93
30.2
26.85
23.02
18.93
14.84
11.04
7.66
4.59
1.56
-1.88
-6.15
-11.51
-17.84
-24.64
-30.93
-35.54
-37.35
-35.66
-30.47
-22.51
-13.03
-3.37
5.46
13.01
19.27
24.42
28.49
31.32
32.64
32.41
30.99
29.11
27.62
27.1
27.59
28.71
29.84
30.5
30.51
29.96
29
27.67
25.83
23.26
19.88
15.81
11.44
7.22
3.52
0.45
-2.16
-4.71
-7.66
-11.42
-16.2
-21.91
-28.03
-33.64
-37.55
-38.6
-36.12
-30.21
-21.73
-12.11
-2.78
5.25
11.57
16.33
19.84
22.39
24.01
24.64
24.27
23.14
21.77
20.68
20.3
20.76
21.88
23.29
24.56
25.33
25.37
24.6
23.04
20.78
17.94
14.71
11.26
7.81
4.47
1.36
-1.56
-4.41
-7.45
-10.99
-15.32
-20.53
-26.29
-31.81
-35.94
-37.49
-35.63
-30.24
-22.09
-12.56
-3.21
4.7
10.59
14.54
17.04
18.58
19.44
19.58
18.92
17.54
15.81
14.31
13.55
13.73
14.62
15.72
16.45
16.44
15.6
14.12
12.24
10.18
8.07
5.9
3.68
1.35
-1.14
-3.88
-6.99
-10.61
-14.85
-19.7
-24.92
-29.92
-33.83
-35.63
-34.51
-30.18
-23.16
-14.59
-5.96
1.46
7.03
10.75
13.1
14.6
15.5
15.8
15.34
14.15
12.52
11.04
10.27
10.5
11.6
13.03
14.14
14.42
13.68
12.09
10.02
7.85
5.75
3.69
1.49
-1.09
-4.19
-7.85
-12
-16.51
-21.22
-25.81
-29.8
-32.6
-33.59
-32.35
-28.79
-23.3
-16.63
-9.7
-3.38
1.75
5.49
7.96
9.42
10.1
10.12
9.5
8.32
6.85
5.52
4.76
4.83
5.59
6.58
7.2
6.95
5.65
3.51
0.95
-1.56
-3.72
-5.46
-6.98
-8.58
-10.63
-13.37
-16.86
-20.94
-25.18
-29.01
-31.74
-32.76
-31.69
-28.49
-23.53
-17.46
-11.12
-5.31
-0.58
2.85
5.02
6.1
6.35
5.96
5.14
4.12
3.19
2.63
2.65
3.29
4.36
5.54
6.45
6.83
6.53
5.59
4.18
2.53
0.84
-0.82
-2.51
-4.43
-6.84
-9.91
-13.73
-18.15
-22.91
-27.54
-31.44
-33.88
-34.18
-31.92
-27.11
-20.36
-12.66
-5.12
1.44
6.66
10.63
13.65
15.92
17.45
18.11
17.89
17.03
16.07
15.61
16.05
17.33
19.05
20.6
21.5
21.55
20.88
19.78
18.52
17.17
15.68
13.87
11.6
8.8
5.43
1.46
-3.15
-8.4
-14.14
-19.96
