13.63
14.18
14.09
13.5
12.73
12.13
11.95
12.18
12.6
12.82
12.47
11.36
9.54
7.28
4.96
2.87
1.14
-0.33
-1.85
-3.78
-6.4
-9.8
-13.89
-18.44
-23.22
-28.02
-32.69
-37.14
-41.32
-45.2
-48.71
-51.7
-53.84
-54.67
-53.71
-50.65
-45.53
-38.82
-31.23
-23.5
-16.21
-9.62
-3.79
1.32
5.78
9.6
12.81
15.41
17.49
19.14
20.47
21.6
22.62
23.62
24.59
25.48
26.13
26.4
26.17
25.42
24.2
22.59
20.63
18.36
15.79
12.96
10.08
7.43
5.37
4.09
3.5
3.2
2.54
0.9
-2.03
-6.08
-10.61
-14.67
-17.29
-17.72
-15.67
-11.27
-5.04
2.29
9.97
17.35
23.99
29.76
34.73
39.16
43.42
47.78
52.41
57.23
61.92
66.04
69.11
70.72
70.67
68.98
65.89
61.89
57.59
53.56
50.25
47.85
46.33
45.51
45.21
45.35
45.94
46.99
48.43
50.02
51.43
52.27
52.27
51.22
48.98
45.42
40.44
34.15
26.97
19.69
13.34
8.94
7.11
7.9
10.8
14.96
19.45
23.52
26.65
28.51
28.94
27.85
25.28
21.39
16.47
10.89
5.05
-0.66
-5.91
-10.29
-13.4
-14.87
-14.38
-11.88
-7.51
-1.67
5.12
12.18
18.87
24.56
28.82
31.35
32.03
30.93
28.23
24.22
19.18
13.38
7.02
0.28
-6.56
-13.14
-19.08
-24.1
-28.18
-31.49
-34.19
-36.24
-37.15
-36.19
-32.78
-26.79
-18.84
-10.09
-1.91
4.59
8.76
10.43
9.6
6.36
0.76
-7.02
-16.39
-26.33
-35.39
-42.13
-45.61
-45.75
-43.48
-40.38
-37.96
-37.02
-37.17
-37.1
-35.21
-30.38
-22.57
-12.73
-2.43
6.77
13.72
17.86
19.06
17.49
13.63
8.34
2.97
-0.83
-1.41
2.48
11.14
23.65
37.94
51.37
61.49
66.96
68.1
66.46
64.09
62.48
61.94
61.61
60.15
56.55
50.51
42.53
33.56
24.74
17.04
11.03
6.58
2.81
-1.62
-7.67
-15.01
-21.84
-25.44
-23.67
-16.31
-5.44
5.36
12.59
14.13
9.62
-0.04
-13.31
-28.48
-43.5
-55.87
-63.23
-64.41
-60.54
-54.98
-52.23
-55.82
-66.58
-82.34
-99.02
-112.65
-121.01
-124.26
-124.18
-122.99
-122.21
-122.32
-123.03
-123.8
-124.35
-124.67
-124.88
-124.95
-124.7
-123.86
-122.24
-119.93
-117.3
-114.82
-112.76
-110.99
-108.85
-105.38
-99.73
-91.53
-81.16
-69.56
-57.91
-47.19
-37.85
-29.92
-23.18
-17.38
-12.42
-8.3
-4.93
-2.12
0.46
3.09
5.81
8.42
10.56
11.94
12.49
12.46
12.22
12.08
12.11
12.05
11.52
10.25
8.29
6.07
4.17
3.11
3.07
3.8
4.77
5.37
5.18
4.14
2.69
1.65
2.02
4.66
10.04
17.95
27.47
37.15
45.37
50.69
52.15
49.38
42.59
32.45
19.97
6.35
-7.17
-19.58
-30.25
-38.95
-45.8
-51.07
-55.11
-58.24
-60.9
-63.56
-66.78
-71
-76.48
-83.17
-90.85
-99.21
-107.91
-116.62
-124.93
-132.36
-138.43
-142.81
-145.38
-146.35
-146.08
-145
-143.35
-141
-137.34
-131.34
-121.95
-108.54
-91.3
-71.38
-50.56
-30.61
-12.79
2.47
15.36
26.29
35.5
42.85
48.08
51.13
52.37
52.64
52.88
53.74
55.45
57.69
59.91
61.62
62.62
63.09
63.37
63.88
64.8
66.06
67.37
68.32
68.57
67.96
66.62
64.82
62.92
61.19
59.68
58.19
56.41
53.97
50.48
45.59
38.95
30.5
20.62
10.35
1.26
-4.92
-6.95
-4.57
1.42
9.39
17.47
24.21
28.89
31.62
33.01
33.72
34.07
33.89
32.65
29.94
25.83
21.14
17.21
15.4
16.41
20.01
25.18
30.55
35.03
38.16
40.06
41.12
41.68
41.83
41.41
40.25
38.28
35.59
32.48
29.23
26.12
23.29
20.72
18.21
15.4
11.87
7.23
1.23
-6.12
-14.45
-23.03
-30.8
-36.52
-39.01
-37.46
-31.72
-22.39
-10.69
1.92
14.09
25
34.38
42.38
49.26
55.11
59.78
62.98
64.63
64.95
64.56
64.28
64.81
66.46
69.04
71.98
74.56
76.26
76.82
76.36
75.14
73.4
71.27
68.61
65.21
60.86
55.48
49.25
42.54
35.85
29.59
23.99
19.01
14.43
9.92
5.18
0.01
-5.7
-11.92
-18.42
-24.67
-29.81
-32.75
-32.47
-28.46
-20.95
-10.96
-0.02
10.3
18.92
25.45
30.06
33.21
35.26
36.35
36.49
35.79
34.64
33.67
33.45
34.24
35.71
37.16
37.86
37.41
35.95
34
32.18
30.85
29.96
29.17
28.02
26.22
23.64
20.44
16.88
13.29
9.98
7.13
4.75
2.65
0.47
-2.19
-5.65
-10.07
-15.31
-20.97
-26.37
-30.64
-32.9
-32.43
-29.03
-23
-15.21
-6.83
1.05
7.74
13.02
17.06
20.17
22.5
23.98
24.41
23.69
22.07
20.1
18.54
18.02
18.75
20.41
22.33
23.77
24.26
23.78
22.64
21.33
20.16
19.14
18.03
16.47
14.27
11.49
8.45
5.52
3.01
0.96
-0.82
-2.68
-4.95
-7.84
-11.42
-15.59
-20.12
-24.58
-28.42
-30.93
-31.48
-29.68
-25.56
-19.62
-12.7
-5.67
0.75
6.19
10.54
13.89
16.28
17.76
18.35
18.19
17.56
16.84
16.41
16.47
17
17.74
18.36
18.59
18.34
17.76
17.11
16.61
16.29
15.96
15.24
13.81
11.52
8.52
5.21
2.09
-0.46
-2.3
-3.61
-4.74
-6.12
-8.13
-10.95
-14.49
-18.34
-21.83
-24.16
-24.61
-22.85
-19
-13.69
-7.83
-2.28
2.39
5.95
8.45
9.99
10.61
10.28
9.09
7.26
5.2
3.36
1.98
1.06
0.43
-0.16
-0.81
-1.46
-1.98
-2.3
-2.52
-2.83
-3.41
-4.34
-5.49
-6.7
-7.83
-8.86
-9.9
-11.07
-12.51
-14.32
-16.58
-19.35
-22.6
-26.15
-29.6
-32.31
-33.6
-32.89
-29.96
-25.04
-18.78
-12.11
-5.92
-0.87
2.77
5.07
6.35
6.9
6.94
6.52
5.66
4.47
3.22
2.26
1.95
2.42
3.57
5.02
6.32
7.06
7.05
6.27
4.87
3.05
0.98
-1.28
-3.68
-6.21
-8.85
-11.54
-14.34
-17.35
-20.7
-24.45
-28.35
-31.9
-34.31
-34.87
-33.2
-29.43
-24.23
-18.5
-13.11
-8.54
-4.9
-1.99
0.47
2.57
4.24
5.29
5.56
5.07
4.11
3.07
2.38
2.29
2.84
3.82
4.92
5.85
6.39
6.47
6.04
5.13
3.75
1.93
-0.22
-2.58
-5
-7.43
-9.87
-12.46
-15.4
-18.84
-22.8
-27.05
-31.1
-34.21
-35.66
-34.92
-31.93
-27.12
-21.31
-15.41
-10.05
-5.53
-1.75
1.46
4.21
6.36
7.71
8.14
7.76
6.97
6.24
5.97
6.28
7.04
8
8.92
9.68
10.22
10.55
10.59
10.23
9.33
7.85
5.79
3.25
0.39
-2.63
-5.68
-8.7
-11.72
-14.86
-18.32
-22.26
-26.7
-31.37
-35.75
-39.07
-40.58
-39.73
-36.42
-31.02
-24.29
-17.17
-10.48
-4.74
-0.09
3.6
6.57
9
10.89
12.18
12.85
13.02
13
13.2
13.95
15.37
17.31
19.4
21.21
22.44
22.92
22.64
21.67
20.07
17.82
14.94
11.53
7.8
4.11
0.8
-1.88
-3.92
-5.5
-6.98
-8.78
-11.28
-14.69
-19.08
-24.26
-29.78
-34.92
-38.82
-40.65
-39.82
-36.24
-30.33
-22.96
-15.15
-7.8
-1.48
3.61
7.57
10.59
12.82
14.25
14.88
14.72
13.98
12.97
12.06
11.56
11.63
12.17
12.96
13.75
14.35
14.7
14.85
14.81
14.59
14.07
13.11
11.58
9.46
6.87
4.05
1.26
-1.32
-3.71
-6.13
-8.94
-12.47
-16.93
-22.22
-27.91
-33.23
-37.24
-39.03
-38.03
-34.24
-28.2
-20.97
-13.66
-7.13
-1.75
2.61
6.3
9.58
12.43
14.61
15.8
15.97
15.42
14.75
14.58
15.27
16.77
18.66
20.35
21.37
21.56
21.09
20.29
19.48
18.76
17.97
16.83
15.1
12.74
10.01
7.29
4.96
3.2
1.92
0.79
-0.58
-2.51
-5.2
-8.67
-12.77
-17.15
-21.26
-24.32
-25.47
-24.02
-19.7
-12.84
-4.4
4.36
12.19
18.34
22.66
25.55
27.63
29.42
31.12
32.61
33.57
33.77
33.16
31.88
30.21
28.47
26.98
26.07
26.13
27.57
30.67
35.46
41.55
48.25
54.59
59.56
62.29
62.32
59.65
54.74
48.37
41.32
34.12
26.96
19.68
11.98
3.67
-5.17
-14.18
-22.76
-30.23
-35.9
-39.14
-39.6
-37.23
-32.47
-26.18
-19.41
-13.16
-8
-4.08
-1.18
0.92
2.35
2.96
2.6
1.28
-0.66
-2.64
-4.07
-4.54
-4.1
-3.04
-1.83
-0.8
-0.05
0.51
1.06
1.66
2.22
2.52
2.32
1.46
-0.04
-1.97
-4.04
-5.96
-7.62
-9.11
-10.73
-12.82
-15.63
-19.17
-23.25
-27.52
-31.51
-34.71
-36.66
-36.98
-35.6
-32.77
-29.05
-25.16
-21.69
-18.91
-16.72
-14.78
-12.79
-10.66
-8.59
-6.96
-6.12
-6.2
-7.11
-8.53
-10.04
-11.27
-11.93
-11.93
-11.32
-10.31
-9.16
-8.2
-7.7
-7.87
-8.8
-10.43
-12.55
-14.87
-17.11
-19.08
-20.73
-22.16
-23.59
-25.4
-27.89
-31.22
-35.22
-39.27
-42.43
-43.7
-42.37
-38.3
-32
-24.43
-16.64
-9.46
-3.3
1.83
6.16
9.88
13.08
15.69
17.6
18.75
19.24
19.29
19.25
19.35
19.74
20.34
20.96
21.38
21.47
21.24
20.79
20.14
19.22
17.83
15.75
12.93
9.51
5.86
2.38
-0.62
-3.13
-5.35
-7.64
-10.38
-13.84
-18.06
-22.86
-27.79
-32.1
-34.96
-35.54
-33.4
-28.65
-22.03
-14.63
-7.53
-1.47
3.35
7.16
10.31
13.05
15.36
17.08
18.11
18.5
18.5
18.43
18.56
18.94
19.46
19.93
20.16
20.06
19.7
19.2
18.69
18.21
17.62
16.68
15.06
12.62
9.35
5.53
1.6
-1.97
-4.89
-7.12
-8.9
-10.68
-13
-16.27
-20.64
-25.9
-31.47
-36.5
-40.07
-41.43
-40.19
-36.41
-30.63
-23.68
-16.49
-9.8
-4.06
0.62
4.4
7.46
9.89
11.63
12.54
12.53
11.68
10.32
8.91
7.96
7.72
8.16
8.89
9.36
9.08
7.82
5.71
3.12
0.48
-1.97
-4.22
-6.48
-8.95
-11.72
-14.68
-17.64
-20.45
-23.11
-25.73
-28.46
-31.34
-34.23
-36.89
-39.04
-40.44
-40.87
-40.04
-37.5
-32.75
-25.43
-15.59
-3.78
8.87
21.06
31.66
40.01
46.01
49.95
52.22
53.1
52.69
50.95
48
44.18
40.1
36.52
34.08
33.16
33.71
35.32
37.38
39.33
40.77
41.58
41.79
41.38
40.22
38.04
34.6
29.91
24.27
18.18
12.13
6.42
1.07
-4.1
-9.34
-14.87
-20.87
-27.45
-34.64
-42.23
-49.63
-55.96
-60.13
-61.27
-58.93
-53.3
-45.13
-35.47
-25.43
-15.95
-7.67
-0.98
3.96
7.14
8.61
8.51
7.08
4.8
2.27
0.21
-0.82
-0.49
1.16
3.78
6.89
9.95
12.59
14.54
15.6
15.65
14.64
12.66
9.97
6.98
4.1
1.59
-0.48
-2.37
-4.5
-7.36
-11.37
-16.66
-22.96
-29.58
-35.47
-39.39
-40.35
-37.86
-32.16
-24.17
-15.19
-6.46
1.12
7.21
11.84
15.24
17.58
18.89
19.14
18.38
16.89
15.11
13.54
12.57
12.37
12.86
13.76
14.74
15.47
15.71
15.27
14.02
11.91
8.96
5.31
1.2
-3.09
-7.26
-11.14
-14.78
-18.42
-22.45
-27.22
-32.86
-39.08
-45.08
-49.72
-51.75
-50.26
-44.99
-36.5
-26.04
-15.18
-5.3
2.74
8.77
13.15
16.38
18.86
20.67
21.7
21.84
21.2
20.12
19.12
18.61
18.81
19.56
20.54
21.3
21.51
21.02
19.81
17.92
15.4
12.32
8.76
4.92
0.99
-2.83
-6.49
-10.15
-14.17
-18.99
-24.85
-31.63
-38.67
-44.87
-48.88
-49.53
-46.16
-38.9
-28.72
-17.14
-5.79
4.02
11.64
17.08
20.72
23
24.19
24.34
23.51
21.92
20.09
18.72
18.41
19.36
21.3
23.58
25.52
26.66
26.89
26.32
25.11
23.27
20.72
17.33
13.17
8.52
3.77
-0.74
-4.91
-8.94
-13.28
-18.45
-24.77
-32.21
-40.31
-48.09
-54.24
-57.43
-56.65
-51.6
-42.84
-31.66
-19.74
-8.57
0.94
8.51
14.41
19.01
22.5
24.87
25.97
25.86
24.89
23.7
22.95
23.03
23.92
25.28
26.7
27.91
28.88
29.66
30.23
30.34
29.61
27.74
24.71
20.89
16.9
13.39
10.72
8.82
7.28
5.47
2.76
-1.22
-6.48
-12.55
-18.45
-22.91
-24.63
-22.7
-16.94
-8.11
2.32
12.45
20.56
25.59
27.29
26.02
22.45
17.17
10.45
2.41
-6.69
-16.13
-24.67
-30.85
-33.63
-32.87
-29.48
-25.01
-20.92
-18.04
-16.27
-14.99
-13.6
-12
-10.65
-10.3
-11.5
-14.24
-17.99
-21.88
-25.17
-27.44
-28.67
-29.17
-29.46
-30.12
-31.56
-33.91
-36.87
-39.73
-41.42
-40.84
-37.18
-30.15
-20.17
-8.24
4.27
15.97
25.83
33.3
38.37
41.39
42.82
43.06
42.43
41.21
39.78
38.56
38.02
38.45
39.86
41.88
43.93
45.45
46.11
45.92
45.16
44.15
43.02
41.65
39.69
36.79
32.87
28.17
23.27
18.74
14.97
11.87
8.99
5.69
1.48
-3.69
-9.36
-14.61
-18.38
-19.67
-17.96
-13.25
-6.17
2.22
10.7
18.11
23.68
27.04
28.14
27.09
24
18.89
11.93
3.49
-5.69
-14.64
-22.34
-28.03
-31.44
-32.8
-32.73
-32.06
-31.49
-31.38
-31.68
-32.03
-32.01
-31.44
-30.51
-29.75
-29.74
-30.81
-32.93
-35.79
-39.02
-42.42
-46.06
-50.1
-54.68
-59.7
-64.77
-69.25
-72.25
-72.85
-70.16
-63.6
-53.11
-39.18
-22.92
-5.75
10.94
25.97
38.44
47.72
53.34
55.03
53.04
48.4
42.99
39.16
38.88
42.96
50.66
60.07
68.94
75.69
79.91
82.32
84.12
86.25
88.97
91.78
93.7
93.64
90.71
84.36
74.49
61.46
46.16
29.94
14.33
0.72
-9.89
-16.9
-20
-18.87
-13.07
-2.17
13.83
34.06
56.71
79.38
99.78
116.4
128.78
137.29
142.56
144.96
144.37
140.37
132.57
120.96
105.9
88.07
68.23
46.97
24.67
1.47
-22.5
-47.02
-71.61
-95.58
-118.02
-138.05
-154.87
-167.93
-176.95
-181.86
-182.95
-180.81
-176.37
-170.75
-165.01
-159.83
-155.23
-150.6
-144.78
-136.59
-125.23
-110.6
-93.43
-75.11
-57.25
-41.38
-28.5
-19.02
-12.83
-9.49
-8.53
-9.58
-12.36
-16.56
-21.65
-26.87
-31.28
-34.11
-34.89
-33.59
-30.55
-26.16
-20.76
-14.57
-7.82
-0.94
5.4
10.47
13.74
15.15
15.13
14.47
13.96
14.12
14.98
16.16
17
16.83
15.14
11.71
6.79
1.13
-4.08
-7.45
-7.77
-4.46
2.24
11.33
21.39
31.07
39.39
45.95
50.7
53.79
55.29
55.16
53.37
50.05
45.54
40.39
35.24
30.63
26.86
23.98
21.87
20.4
19.57
19.51
20.36
22.09
24.31
26.41
27.7
27.75
26.56
24.53
22.27
20.31
18.83
17.68
16.42
14.57
11.74
7.76
2.75
-2.89
-8.42
-12.89
-15.37
-15.19
-12.21
-6.95
-0.4
6.29
12.21
16.99
20.79
24.07
27.23
30.39
33.29
35.41
36.26
35.5
33.1
29.39
24.96
20.62
17.2
15.35
15.28
16.72
18.99
21.23
22.76
23.25
22.83
21.89
20.91
20.29
20.3
21.05
22.59
24.81
27.45
30.08
32.2
33.46
33.96
34.42
35.99
39.83
46.45
55.33
64.83
72.78
77.27
77.36
73.44
66.88
59.45
52.68
47.45
44.07
42.46
42.36
43.43
45.25
47.18
48.57
48.84
47.65
44.88
40.53
34.55
26.81
17.23
5.96
-6.51
-19.46
-32.15
-44.1
-55.25
-65.95
-76.93
-89.23
-103.99
-121.96
-142.72
-164.17
-182.59
-193.65
-194.05
-182.99
-162.58
-137.11
-111.26
-88.49
-70.11
-55.63
-43.73
-33.29
-23.85
-15.35
-7.64
-0.23
7.68
16.85
27.53
39.41
51.64
63.2
73.36
81.97
89.56
97.08
105.46
115.05
125.4
135.3
143.15
147.41
146.89
140.79
128.66
110.32
86.03
56.76
24.37
-8.44
-38.67
-63.7
-82.02
-93.5
-99.14
-100.51
-99.06
-95.77
-91.2
-85.75
-79.94
-74.36
-69.49
-65.26
-60.98
-55.6
-48.2
-38.49
-27.01
-14.95
-3.78
5.14
10.83
12.8
11.37
7.9
4.8
5.03
11.09
23.81
41.78
61.78
80.06
93.76
101.92
105.27
105.27
103.02
98.63
91.52
81.2
67.98
53.14
38.4
25.26
14.38
5.59
-1.74
-8.26
-14.18
-19.26
-23.1
-25.43
-26.45
-26.76
-27.15
-28.23
-30.19
-32.75
-35.36
-37.49
-38.84
-39.49
-39.82
-40.34
-41.42
-43.19
-45.44
-47.84
-49.97
-51.5
-52.28
-52.25
-51.49
-50.1
-48.18
-45.85
-43.23
-40.45
-37.66
-34.97
-32.49
-30.24
-28.22
-26.41
-24.8
-23.35
-22.08
-21.05
-20.38
-20.15
-20.38
-20.92
-21.48
-21.72
-21.39
-20.51
-19.39
-18.5
-18.24
-18.72
-19.75
-20.87
-21.69
-21.98
-21.78
-21.29
-20.72
-20.16
-19.57
-18.87
-18.02
-17.17
-16.52
-16.26
-16.46
-17.02
-17.69
-18.21
-18.44
-18.39
-18.18
-17.96
-17.81
-17.68
-17.43
-16.95
-16.23
-15.34
-14.39
-13.54
-12.8
-12.18
-11.64
-11.12
-10.57
-9.9
-9.03
-7.87
-6.37
-4.59
-2.65
-0.68
1.22
3.11
5.1
7.34
9.88
12.65
15.38
17.66
19.01
19.02
17.45
14.29
9.74
4.27
-1.6
-7.28
-12.3
-16.38
-19.32
-21.14
-21.88
-21.69
-20.76
-19.29
-17.46
-15.46
-13.39
-11.32
-9.29
-7.37
-5.61
-4.11
-2.93
-2.1
-1.62
-1.43
-1.48
-1.66
-1.87
-1.97
-1.9
-1.62
-1.16
-0.58
0.12
0.95
1.99
3.22
4.52
5.62
6.2
6.02
5.07
3.58
1.93
0.47
-0.6
-1.28
-1.7
-1.97
-2.14
-2.19
-2.09
-1.94
-1.89
-2.14
-2.71
-3.49
-4.2
-4.56
-4.46
-3.95
-3.25
-2.65
-2.37
-2.48
-2.91
-3.44
-3.78
-3.75
-3.32
-2.64
-2.01
-1.67
-1.74
-2.08
-2.41
-2.42
-1.92
-0.9
0.57
2.4
4.58
7.12
10.02
13.14
16.22
18.99
21.18
22.58
23.02
22.4
20.66
17.88
14.28
10.22
6.08
2.12
-1.59
-5.11
-8.5
-11.74
-14.67
-17.1
-18.92
-20.21
-21.18
-22.06
-23.09
-24.45
-26.33
-28.96
-32.52
-37.08
-42.5
-48.43
-54.49
-60.38
-65.92
-71.08
-75.73
-79.63
-82.35
-83.49
-82.84
-80.45
-76.6
-71.58
-65.53
-58.47
-50.37
-41.4
-31.96
-22.67
-14.18
-6.87
-0.76
4.5
9.46
14.58
20.04
25.63
30.78
34.83
37.32
38.28
38.33
38.41
39.43
41.84
45.34
49.05
51.94
53.34
53.25
52.29
51.32
51
51.53
52.78
54.47
56.1
56.61
54.16
46.49
31.93
10.6
-14.97
-40.37
-61.03
-74.09
-79.46
-79.55
-77.69
-76.41
-76.49
-77.23
-77.51
-76.77
-75.41
-74.27
-73.81
-73.65
-72.68
-69.63
-63.79
-55.45
-45.77
-36.25
-28.06
-21.57
-16.37
-11.64
-6.67
-1.31
3.93
8.16
10.59
10.87
9.22
6.33
3.09
0.22
-1.9
-3.39
-4.71
-6.38
-8.77
-11.79
-14.93
-17.36
-18.29
-17.21
-14.11
-9.38
-3.63
2.53
8.7
14.59
19.98
24.54
27.89
29.64
29.57
27.8
24.76
21.02
17.05
12.94
8.48
3.27
-2.89
-9.86
-17.02
-23.6
-28.97
-32.93
-35.88
-38.63
-42.06
-46.72
-52.64
-59.35
-66.05
-71.96
-76.53
-79.63
-81.52
-82.82
-84.23
-86.4
-89.68
-93.95
-98.44
-101.83
-102.52
-99.06
-90.74
-77.82
-61.5
-43.47
-25.39
-8.42
6.99
20.83
33.23
44.13
53.23
60.2
64.95
67.83
69.65
71.36
73.75
77.18
81.52
86.29
90.86
94.78
97.87
100.2
101.92
103.08
103.56
103.06
101.29
98.14
93.78
88.67
83.34
78.15
73.08
67.72
61.36
53.27
42.9
30.11
15.26
-0.76
-16.46
-29.98
-39.31
-42.91
-40.21
-31.9
-19.75
-5.99
7.49
19.59
30.11
39.41
47.78
55.15
61.14
65.32
67.64
68.56
68.89
69.48
70.91
73.28
76.32
79.55
82.52
85.03
87.08
88.84
90.43
91.8
92.75
93
92.39
90.91
88.76
86.14
83.2
79.9
76.12
71.7
66.62
61.02
55.19
49.52
44.31
39.58
35.06
30.19
24.41
17.44
9.51
1.37
-6.01
-11.77
-15.53
-17.4
-17.83
-17.36
-16.33
-14.88
-13.11
-11.15
-9.34
-8.08
-7.65
-8.04
-8.95
-9.91
-10.49
-10.52
-10.1
-9.55
-9.27
-9.61
-10.8
-12.93
-15.9
-19.46
-23.22
-26.75
-29.78
-32.31
-34.64
-37.24
-40.47
-44.36
-48.56
-52.55
-55.85
-58.3
-60
-61.26
-62.42
-63.73
-65.35
-67.4
-69.81
-72.23
-73.85
-73.51
-70.04
-62.72
-51.63
-37.7
-22.42
-7.31
6.49
18.4
28.24
35.98
41.58
44.95
46.15
45.55
43.83
41.79
40.1
39.03
38.43
37.84
36.79
35.01
32.53
29.67
26.79
24.09
21.42
18.34
14.3
8.9
2.15
-5.5
-13.34
-20.65
-26.97
-32.23
-36.77
-41.06
-45.57
-50.59
-56.18
-62.11
-67.83
-72.5
-75.05
-74.44
-70.01
-61.8
-50.58
-37.72
-24.67
-12.61
-2.09
6.81
14.23
20.24
24.66
27.32
28.25
27.96
27.25
27
27.71
29.38
31.5
33.39
34.56
34.92
34.77
34.55
34.58
34.89
35.22
35.19
34.6
33.57
32.53
32.06
32.64
34.42
37.1
40.09
42.7
44.42
45.11
45.13
45.29
46.77
50.79
58.3
69.56
84.03
100.51
117.51
133.88
149.06
163.07
176.01
187.48
196.27
200.52
198.3
188.27
170.22
145.04
114.7
81.89
49.76
21.46
-0.43
-14.59
-21.32
-22.41
-20.46
-17.93
-16.45
-16.79
-19.25
-24.19
-32.2
-43.73
-58.44
-74.93
-90.94
-104.19
-113.28
-118.18
-120.06
-120.62
-121.25
-122.48
-124
-124.94
-124.4
-121.78
-117.02
-110.67
-103.93
-98.37
-95.65
-96.89
-102.18
-110.3
-118.92
-125.32
-127.31
-124.04
-116.24
-105.93
-95.53
-86.95
-81.05
-77.47
-75.07
-72.5
-68.66
-62.98
-55.36
-46.05
-35.48
-24.3
-13.29
-3.34
4.65
10.03
12.49
12.21
9.74
5.89
1.36
-3.36
-8.07
-12.63
-16.73
-19.66
-20.45
-18.19
-12.54
-4.05
6
15.99
24.55
31.03
35.46
38.25
39.77
40.15
39.3
37.16
33.96
30.29
26.92
24.45
23.06
22.42
21.95
21.03
19.42
17.23
14.91
12.88
11.33
10.12
8.84
7.1
4.63
1.47
-2.22
-6.32
-10.9
-16.26
-22.67
-30.08
-37.85
-44.76
-49.27
-50.17
-47.01
-40.37
-31.63
-22.48
-14.29
-7.77
-2.89
0.77
3.64
5.93
7.51
8.12
7.66
6.33
4.69
3.45
3.23
4.4
6.92
10.52
14.77
19.26
23.64
27.67
31.14
33.84
35.55
36.07
35.24
33.09
29.91
26.28
23.03
21.12
21.28
23.76
28.17
33.42
38.05
40.58
39.91
35.63
28.07
18.15
7.16
-3.49
-12.55
-19.06
-22.43
-22.51
-19.58
-14.33
-7.71
-0.78
5.54
10.62
14.23
16.59
18.19
19.63
21.4
23.75
26.67
29.91
33.1
35.89
38.06
39.51
40.22
40.2
39.4
37.82
35.52
32.76
29.97
27.64
26.15
25.65
25.99
26.74
27.35
27.25
25.93
23.13
18.89
13.68
8.38
4.06
1.63
1.5
3.4
6.55
10
13.01
15.29
16.91
18.03
18.7
18.77
18.02
16.39
14.12
11.69
9.61
8.21
7.46
7.07
6.61
5.76
4.38
2.63
0.82
-0.71
-1.79
-2.48
-3.05
-3.85
-5.15
-6.95
-8.97
-10.8
-12.13
-12.94
-13.56
-14.51
-16.26
-19.06
-22.8
-27.09
-31.43
-35.26
-38.05
-39.3
-38.59
-35.67
-30.6
-23.83
-16.12
-8.29
-1.04
5.26
10.5
14.68
17.72
19.43
19.58
18.07
15.17
11.49
7.8
4.81
2.86
1.89
1.49
1.25
0.94
0.65
0.74
1.54
3.13
5.24
7.27
8.56
8.62
7.32
4.91
1.89
-1.24
-4.11
-6.63
-8.96
-11.35
-14.1
-17.44
-21.48
-26.21
-31.41
-36.64
-41.17
-44.14
-44.71
-42.33
-36.91
-28.87
-18.94
-7.96
3.41
14.75
25.91
36.86
47.56
57.91
67.78
77.08
85.81
94.14
102.3
110.5
118.82
127.17
135.38
143.23
150.67
157.77
164.65
171.27
177.33
182.2
185
184.85
181.08
173.34
161.69
146.61
128.82
109.16
88.4
67.19
45.93
24.93
4.4
-15.36
-33.96
-51.01
-66.28
-79.81
-91.83
-102.63
-112.28
-120.53
-126.85
-130.7
-131.88
-130.77
-128.33
-125.91
-124.83
-125.99
-129.64
-135.34
-142.37
-150.09
-158.29
-167.27
-177.64
-189.96
-204.49
-221.07
-239.15
-257.88
-276.06
-292.14
-304.21
-310.35
-309.16
-300.24
-284.51
-263.88
-240.69
-216.91
-193.7
-171.35
-149.7
-128.59
-108.22
-89.21
-72.37
-58.2
-46.57
-36.62
-26.98
-16.2
-3.24
12.21
29.75
48.51
67.51
85.97
103.39
119.56
134.32
147.54
159.02
168.6
176.33
182.55
187.88
193.09
198.85
205.53
213.08
221.07
228.94
236.19
242.59
248.2
253.24
257.86
262.05
265.52
267.62
267.49
264.1
256.57
244.38
227.66
207.15
183.97
159.19
133.44
106.86
79.27
50.63
21.42
-7.36
-34.43
-58.7
-79.56
-96.85
-110.64
-120.88
-127.38
-130.01
-129.03
-125.28
-120.11
-114.92
-110.73
-107.83
-105.81
-103.96
-101.72
-99
-96.22
-93.96
-92.63
-92.27
-92.67
-93.75
-95.76
-99.34
-105.18
-113.53
-123.96
-135.41
-146.61
-156.51
-164.51
-170.41
-174.17
-175.74
-175.06
-172.26
-167.89
-162.78
-157.85
-153.61
-150.02
-146.46
-141.99
-135.78
-127.27
-116.27
-102.88
-87.37
-70.12
-51.62
-32.49
-13.48
4.62
21.12
35.53
47.67
57.66
65.87
72.79
78.94
84.77
90.61
96.6
102.84
109.34
116.01
122.73
129.19
134.97
139.57
142.57
143.83
143.58
142.45
141.22
140.49
140.33
140.04
138.23
133.02
122.46
104.97
79.75
47.09
8.66
-32.57
-72.71
-107.61
-133.82
-149.3
-153.73
-148.28
-134.92
-115.85
-93.19
-69.12
-46.07
-26.71
-13.45
-7.68
-9.2
-16.24
-26.15
-36.51
-46.05
-54.84
-63.84
-73.95
-85.18
-96.44
-105.97
-112.18
-114.38
-113.07
-109.75
-106.39
-104.94
-106.85
-112.81
-122.47
-134.22
-145.3
-152.33
-152.58
-145.15
-131.65
-115.67
-101.23
-90.87
-84.57
-79.9
-73.5
-62.74
-46.87
-26.9
-4.64
18.39
41.44
64.26
86.37
106.64
123.33
134.82
140.39
140.63
137.31
132.77
129.07
127.41
127.91
129.76
131.73
132.66
131.77
128.72
123.59
116.66
108.27
98.84
88.83
78.74
68.96
59.54
50.1
39.88
27.96
13.62
-3.34
-22.49
-42.77
-62.66
-80.34
-94.05
-102.36
-104.55
-100.62
-91.12
-76.8
-58.33
-36.34
-11.6
14.63
40.59
64.29
84.02
98.82
108.65
114.18
116.36
116.16
114.39
111.78
108.96
106.32
104
101.71
98.94
95.15
89.89
82.83
73.69
62.07
47.5
29.54
8.19
-15.94
-41.42
-66.21
-88.07
-105.22
-116.81
-123.09
-125.24
-124.83
-123.27
-121.33
-118.95
-115.4
-109.62
-100.69
-88.22
-72.59
-54.87
-36.61
-19.36
-4.42
7.48
16.1
21.57
24.25
24.82
24.22
23.7
24.58
27.79
33.59
41.48
50.37
59.09
66.78
73.17
78.52
83.26
87.65
91.61
94.74
96.58
96.94
96.03
94.4
92.69
91.37
90.54
89.9
88.94
87.06
83.83
79.12
73.28
67.17
62.11
59.47
60.26
64.69
71.93
80.47
88.58
94.94
98.93
100.55
100.04
97.43
92.49
84.85
74.48
61.94
48.38
35.2
23.67
14.49
7.78
3.14
-0.16
-2.82
-5.48
-8.55
-12.15
-16.13
-20.12
-23.62
-26.21
-27.71
-28.2
-27.99
-27.56
-27.39
-28
-29.88
-33.44
-38.87
-46
-54.15
-62.16
-68.65
-72.4
-72.68
-69.55
-63.71
-56.26
-48.27
-40.41
-32.94
-25.77
-18.74
-11.83
-5.18
0.96
6.42
11.17
15.41
19.39
23.3
27.09
30.56
33.42
35.5
36.87
37.77
38.38
38.65
38.11
36.04
31.78
25.14
16.54
7.03
-2.17
-10.05
-16.11
-20.42
-23.45
-25.86
-28.1
-30.34
-32.38
-33.65
-33.3
-30.47
-24.5
-15.25
-3.17
10.79
25.49
40.01
53.81
66.8
79.01
90.41
100.69
109.39
116.23
121.47
126.02
131.29
138.67
148.97
161.88
175.87
188.39
196.41
197.29
189.46
173.01
149.67
122.39
94.5
68.77
46.81
28.92
14.42
2.22
-8.71
-19.14
-29.67
-40.88
-53.33
-67.47
-83.34
-100.39
-117.55
-133.41
-146.49
-155.56
-159.81
-159.19
-154.41
-146.89
-138.43
-130.71
-124.77
-120.79
-118.11
-115.61
-112.18
-107.09
-100.2
-91.81
-82.52
-72.87
-63.23
-53.72
-44.31
-35.03
-26.08
-17.89
-10.93
-5.47
-1.36
1.91
4.98
8.25
11.69
14.83
17.1
18.18
18.25
17.92
17.98
18.94
20.86
23.25
25.37
26.52
26.31
24.78
22.31
19.52
17.1
15.65
15.56
16.88
19.21
21.78
23.67
24.2
23.23
21.33
19.45
18.57
19.08
20.69
22.51
23.52
23.09
21.15
18.16
14.79
11.61
8.9
6.68
4.94
3.73
3.25
3.68
5.07
7.17
9.41
11.08
11.48
10.22
7.34
3.35
-0.93
-4.72
-7.56
-9.5
-11.08
-13.04
-16.07
-20.56
-26.56
-33.79
-41.71
-49.51
-56.21
-60.78
-62.35
-60.49
-55.34
-47.65
-38.55
-29.26
-20.84
-13.98
-8.96
-5.69
-3.82
-2.81
-2.15
-1.43
-0.43
0.85
2.33
3.89
5.48
7.18
9.14
11.52
14.42
17.74
21.21
24.36
26.7
27.9
27.96
27.3
26.65
26.82
28.46
31.77
36.45
41.65
45.98
47.76
45.41
37.87
25.18
8.64
-9.43
-26.34
-39.92
-49.15
-54.27
-56.31
-56.39
-55.21
-52.85
-49.1
-43.89
-37.6
-30.98
-24.88
-19.79
-15.67
-11.98
-8.02
-3.3
2.14
7.8
12.91
16.8
19.17
20.1
19.92
18.99
17.46
15.3
12.38
8.61
3.99
-1.39
-7.51
-14.4
-22.2
-31.06
-40.86
-51.11
-60.73
-68.18
-71.65
-69.6
-61.2
-46.69
-27.31
-4.93
18.48
41.39
62.84
82.28
99.29
113.32
123.6
129.43
130.45
126.93
119.86
110.74
101.2
92.41
84.78
77.75
70.13
60.6
48.31
33.23
16.18
-1.61
-18.96
-35.1
-49.73
-62.8
-74.31
-84.21
-92.45
-99.17
-104.7
-109.48
-113.7
-117.13
-119.09
-118.69
-115.25
-108.65
-99.46
-88.77
-77.78
-67.49
-58.43
-50.77
-44.43
-39.32
-35.36
-32.54
-30.74
-29.73
-29.19
-28.77
-28.19
-27.33
-26.12
-24.57
-22.76
-20.82
-18.97
-17.52
-16.77
-16.89
-17.91
-19.69
-22.04
-24.77
-27.72
-30.75
-33.82
-37.01
-40.56
-44.8
-49.9
-55.64
-61.19
-65.2
-66.2
-63.12
-55.78
-44.97
-32.23
-19.25
-7.33
2.9
11.42
18.54
24.53
29.41
33.05
35.32
36.3
36.41
36.24
36.31
36.82
37.6
38.24
38.3
37.61
36.3
34.7
33.06
31.32
29.11
25.94
21.49
15.88
9.64
3.55
-1.75
-6.01
-9.41
-12.43
-15.68
-19.64
-24.51
-30.18
-36.12
-41.47
-45.05
-45.72
-42.77
-36.2
-26.88
-16.23
-5.79
3.3
10.58
16.24
20.72
24.34
27.08
28.61
28.64
27.17
24.71
22.05
19.95
18.86
18.69
18.98
19.08
18.52
17.11
14.97
12.38
9.53
6.47
3.11
-0.65
-4.82
-9.21
-13.58
-17.67
-21.39
-24.81
-28.21
-31.88
-36.04
-40.75
-45.85
-51.06
-55.97
-60.1
-62.93
-63.98
-62.97
-59.92
-55.2
-49.43
-43.3
-37.2
-31.11
-24.64
-17.24
-8.63
1.06
11.32
21.54
31.34
40.71
50
59.56
69.51
79.5
88.82
96.64
102.34
105.66
106.81
106.21
104.3
101.36
97.38
92.22
85.74
77.97
69.23
60.06
51.06
42.7
35.2
28.48
22.25
16.07
9.54
2.36
-5.52
-13.8
-21.71
-28.15
-31.9
-32.02
-28.16
-20.78
-11
-0.28
10.05
19.09
26.43
32.05
36.04
38.45
39.3
38.71
36.94
34.48
31.93
29.8
28.36
27.57
27.13
26.68
25.9
24.73
23.28
21.74
20.23
18.68
16.85
14.43
11.29
7.51
3.49
-0.3
-3.43
-5.74
-7.36
-8.73
-10.4
-12.93
-16.69
-21.66
-27.32
-32.68
-36.41
-37.27
-34.5
-28.1
-18.85
-8.11
2.67
12.36
20.37
26.66
31.46
35.05
37.58
39.11
39.69
39.49
38.79
37.91
37.05
36.16
35.05
33.42
31.18
28.46
25.65
23.05
20.8
18.56
15.62
11.24
4.89
-3.37
-12.92
-22.67
-31.47
-38.45
-43.34
-46.64
-49.55
-53.65
-60.37
-70.52
-83.78
-98.67
-112.72
-123.14
-127.57
-124.76
-114.95
-99.77
-81.76
-63.61
-47.52
-34.73
-25.49
-19.27
-15.17
-12.32
-10.02
-7.82
-5.51
-2.99
-0.35
2.17
4.21
5.42
5.54
4.59
2.86
0.92
-0.64
-1.23
-0.6
1.11
3.35
5.39
6.56
6.59
5.69
4.45
3.57
3.45
4.04
4.83
5.09
4.23
2.07
-1.03
-4.26
-6.56
-6.95
-4.83
-0.09
6.76
14.86
23.29
31.34
38.75
45.61
52.18
58.51
64.39
69.34
72.9
75.02
76.17
77.29
79.45
83.36
89.13
96.24
103.75
110.74
116.64
121.41
125.52
129.81
135.24
142.66
152.38
163.65
174.42
181.4
180.77
169.35
145.67
110.57
67.1
19.6
-27.42
-70.17
-105.98
-133.32
-151.5
-160.57
-161.31
-155.14
-144.03
-130.04
-115.01
-100.28
-86.77
-75.24
-66.39
-60.87
-58.98
-60.47
-64.38
-69.32
-73.9
-77.22
-78.93
-79.18
-78.33
-76.71
-74.59
-72.23
-69.94
-68.1
-67.02
-66.78
-67.3
-68.31
-69.5
-70.51
-70.93
-70.22
-67.9
-63.76
-58.08
-51.68
-45.69
-41.16
-38.6
-37.84
-38.1
-38.38
-37.85
-36.07
-33.02
-28.91
-24.04
-18.62
-12.87
-7.05
-1.49
3.41
7.3
9.88
11.08
11.05
10.12
8.82
7.72
7.29
7.79
9.25
11.44
14.04
16.69
19.02
20.68
21.37
20.8
18.86
15.62
11.41
6.74
2.14
-1.98
-5.41
-8.26
-10.83
-13.52
-16.73
-20.63
-25.05
-29.44
-32.92
-34.59
-33.78
-30.35
-24.73
-17.81
-10.67
-4.16
1.17
5.24
8.24
10.5
12.28
13.68
14.71
15.34
15.61
15.68
15.86
16.51
17.9
20.1
22.91
25.89
28.44
30.06
30.46
29.65
27.99
26.05
24.43
23.62
23.8
24.76
25.94
26.58
25.93
23.52
19.41
14.27
9.37
6.17
5.84
8.78
14.36
21.05
26.8
29.7
28.53
23.01
13.76
1.96
-11.01
-24
-36.12
-46.72
-55.27
-61.27
-64.36
-64.4
-61.53
-56.21
-49.09
-40.8
-31.93
-22.95
-14.25
-6.25
0.62
6.05
9.88
12.05
12.65
11.65
8.97
4.52
-1.64
-9.2
-17.57
-26.03
-33.82
-40.27
-44.87
-47.23
-47.12
-44.49
-39.6
-33.01
-25.56
-18.12
-11.35
-5.51
-0.49
3.99
8.14
11.9
14.94
16.94
17.75
17.58
16.96
16.52
16.73
17.76
19.46
21.45
23.23
24.26
24.07
22.28
18.82
13.93
8.16
2.23
-3.29
-8.2
-12.67
-17.06
-21.75
-26.91
-32.53
-38.45
-44.49
-50.39
-55.7
-59.69
-61.51
-60.29
-55.54
-47.25
-35.97
-22.61
-8.23
6.23
20.07
32.85
44.37
54.6
63.61
71.56
78.68
85.3
91.81
98.58
105.89
113.74
121.89
129.84
137.01
142.86
147.11
149.76
151.1
151.6
151.76
151.92
152.16
152.35
152.25
151.63
150.25
147.63
142.93
134.98
122.67
105.53
84.12
60.19
36.21
14.65
-2.83
-15.84
-25.21
-32.57
-39.6
-47.58
-57.06
-67.88
-79.4
-90.77
-100.97
-108.87
-113.4
-113.67
-109.34
-100.9
-89.73
-77.79
-67.08
-59.03
-54.21
-52.33
-52.49
-53.7
-55.13
-56.33
-57.25
-58.13
-59.37
-61.34
-64.16
-67.59
-71.07
-73.86
-75.29
-74.98
-72.95
-69.61
-65.66
-61.86
-58.88
-57.05
-56.27
-55.98
-55.28
-53.31
-49.49
-43.78
-36.61
-28.79
-21.04
-13.79
-7.14
-0.89
5.19
11.07
16.5
21.01
24.18
25.85
26.27
26
25.72
25.98
26.93
28.26
29.36
29.59
28.63
26.61
24.02
21.41
19.05
16.63
13.52
9.18
3.76
-1.78
-6.04
-7.98
-7.67
-6.33
-5.71
-7.08
-10.42
-14.55
-17.8
-19.01
-18.21
-16.35
-14.63
-13.66
-13.31
-13.16
-13.28
-14.54
-18.2
-24.93
-33.93
-42.8
-48.39
-48.21
-41.55
-29.84
-15.91
-2.61
8.34
16.83
23.87
30.67
37.78
44.88
51.07
55.57
58.05
58.84
58.54
57.73
56.58
54.87
52.24
48.39
43.41
37.74
31.99
26.65
21.84
17.27
12.43
6.94
0.9
-5.02
-9.74
-12.19
-11.82
-8.82
-4.09
1.18
5.95
9.66
12.29
14.17
15.6
16.71
17.43
17.63
17.27
16.56
15.81
15.32
15.25
15.55
16.01
16.43
16.67
16.7
16.51
16.05
15.26
14.04
12.35
10.22
7.8
5.27
2.74
0.29
-2.11
-4.55
-7.12
-9.92
-12.93
-15.96
-18.62
-20.33
-20.51
-18.74
-15.02
-9.83
-3.97
1.61
6.19
9.49
11.67
13.19
14.5
15.84
17.13
18.1
18.47
18.12
17.23
16.18
15.41
15.29
15.89
17.08
18.49
19.71
20.45
20.6
20.28
19.8
19.49
19.6
20.2
21.13
22.09
22.69
22.67
21.94
20.65
19.08
17.62
16.6
16.31
17
18.92
22.29
27.15
33.35
40.49
48.07
55.78
63.68
72.11
81.33
90.97
99.72
105.51
106.15
100.22
87.76
70.43
51
32.52
17.41
6.99
1.44
0.16
2.26
6.68
12.22
17.4
20.45
19.68
14.01
3.49
-10.59
-26.13
-41.05
-54.16
-65.43
-75.83
-86.5
-97.94
-109.67
-120.37
-128.56
-133.08
-133.46
-129.81
-122.59
-112.39
-99.89
-85.96
-71.7
-58.41
-47.28
-39.14
-34.21
-32.11
-32.09
-33.22
-34.71
-36.03
-36.97
-37.56
-37.99
-38.39
-38.77
-38.94
-38.57
-37.39
-35.31
-32.46
-29.24
-26.01
-23
-20.12
-16.99
-13.15
-8.25
-2.32
4.27
10.97
17.23
22.76
27.53
31.76
35.75
39.82
44.27
49.37
55.34
62.18
69.59
76.89
83.19
87.56
89.31
87.94
83.07
74.17
60.71
42.46
20.06
-4.62
-28.51
-47.97
-59.89
-62.62
-56.47
-43.52
-26.86
-9.61
5.77
17.79
25.78
29.59
29.33
25.29
17.96
7.99
-3.81
-16.62
-29.77
-42.82
-55.56
-67.79
-79.22
-89.32
-97.33
-102.43
-103.91
-101.45
-95.21
-85.84
-74.3
-61.68
-48.95
-36.89
-25.98
-16.46
-8.4
-1.7
3.78
8.27
11.89
14.77
17
18.74
20.25
21.9
24.05
26.86
30.22
33.66
36.59
38.49
39.14
38.71
37.58
36.23
35.01
33.98
32.8
30.63
26.22
18.21
5.6
-11.66
-32.31
-53.84
-73.08
-86.99
-93.47
-91.82
-82.73
-67.91
-49.59
-30.06
-11.37
4.89
17.66
26.41
31.18
32.45
31.06
28.06
24.48
21.22
18.84
17.61
17.48
18.28
19.75
21.56
23.23
24.2
24.02
22.71
20.81
19.36
19.41
21.57
25.65
30.8
35.89
39.96
42.54
43.5
42.82
40.42
36.19
30.36
23.68
17.4
12.88
11
11.73
14.14
16.76
18.22
17.76
15.3
11.29
6.29
0.65
-5.56
-12.43
-19.99
-28.09
-36.48
-44.97
-53.53
-62.28
-71.22
-80.12
-88.47
-95.7
-101.51
-106.09
-110.08
-114.23
-118.95
-123.93
-128.18
-130.38
-129.56
-125.62
-119.35
-112.03
-104.72
-97.72
-90.4
-81.6
-70.37
-56.58
-41.08
-25.35
-10.91
1.23
10.79
17.98
23.22
26.88
29.21
30.41
30.77
30.63
30.33
30.08
29.94
29.75
29.3
28.52
27.44
26.28
25.23
24.26
23
20.84
17.2
11.88
5.3
-1.6
-7.66
-11.96
-14.14
-14.6
-14.2
-14.02
-15.11
-18.14
-23.27
-29.72
-35.65
-38.44
-35.63
-26.15
-11.23
5.59
19.66
27.04
26.13
18.09
5.94
-7.03
-18.67
-28.41
-36.7
-43.94
-49.86
-53.49
-53.92
-50.88
-45.13
-38.13
-31.48
-26.29
-22.95
-21.18
-20.35
-19.94
-19.71
-19.84
-20.75
-22.85
-26.31
-30.92
-36.21
-41.71
-47.16
-52.52
-57.75
-62.47
-65.82
-66.62
-63.74
-56.68
-45.86
-32.55
-18.52
-5.4
5.78
14.7
21.63
27.02
31.23
34.32
36.21
36.82
36.37
35.37
34.49
34.35
35.23
37.05
39.4
41.71
43.37
43.93
43.1
40.84
37.31
32.88
28
23.02
18.08
13.05
7.57
1.2
-6.4
-15.21
-24.81
-34.25
-42.25
-47.42
-48.61
-45.3
-37.73
-26.9
-14.12
-0.75
12.29
24.51
35.75
45.92
54.79
62.03
67.27
70.36
71.44
70.92
69.47
67.82
66.74
66.81
68.25
70.81
73.7
75.74
75.78
73.07
67.63
60.27
52.36
45.39
40.58
38.66
39.71
43.19
48.05
52.87
56.19
56.85
54.41
49.38
43.27
38.11
35.77
37.29
42.52
50.2
58.52
65.8
71
73.87
74.67
73.86
71.8
68.66
64.59
59.81
54.62
49.37
44.33
39.78
36.03
33.63
33.17
35.24
40.12
47.63
57.19
67.88
78.73
88.76
97.18
103.3
106.67
107.03
104.42
99.12
91.52
82.03
70.95
58.49
44.92
30.86
17.31
5.63
-2.83
-7.19
-7.26
-3.74
2.07
8.73
15.01
20.21
24.09
26.76
28.41
29.22
29.3
28.75
27.73
26.45
25.16
24.14
23.59
23.55
23.87
24.18
23.97
22.81
20.42
16.82
12.2
6.77
0.55
-6.72
-15.49
-26.16
-38.9
-53.43
-69.13
-85.23
-100.97
-115.81
-129.39
-141.47
-151.88
-160.31
-166.35
-169.53
-169.49
-166.06
-159.54
-150.58
-140.1
-129.06
-118.16
-107.68
-97.6
-87.77
-78.16
-68.98
-60.62
-53.34
-47.17
-41.7
-36.35
-30.54
-24.04
-17.06
-10.13
-3.81
1.53
5.87
9.41
12.38
14.87
16.72
17.62
17.28
15.58
12.79
9.43
6.18
3.6
1.89
0.85
-0.08
-1.59
-4.15
-7.67
-11.45
-14.21
-14.56
-11.48
-4.73
4.99
16.28
27.48
37.25
44.82
50.07
53.3
54.95
55.33
54.66
53.15
51.12
49.04
47.42
46.65
46.85
47.83
49.22
50.62
51.77
52.63
53.2
53.57
53.65
53.24
52.06
49.82
46.42
41.96
36.75
31.2
25.69
20.42
15.28
10.01
4.3
-1.79
-7.78
-12.79
-15.85
-16.32
-14.17
-9.99
-4.8
0.33
4.65
7.77
9.64
10.39
10.15
9.05
7.22
4.86
2.31
-0.02
-1.77
-2.67
-2.7
-1.99
-0.82
0.58
2.06
3.57
5.06
6.48
7.7
8.57
9.02
9.14
9.18
9.51
10.42
11.95
13.83
15.54
16.49
16.31
15.14
13.73
13.29
15.12
20.22
28.94
40.9
55.11
70.21
84.74
97.23
106.42
111.37
111.59
107.2
98.72
86.97
72.74
56.83
40.07
23.6
8.82
-2.89
-10.68
-14.72
-16.18
-16.84
-18.3
-21.36
-25.85
-30.97
-35.86
-40.23
-44.45
-49.38
-55.93
-64.56
-75.12
-86.83
-98.44
-108.58
-116.12
-120.48
-121.76
-120.73
-118.59
-116.52
-115.28
-114.79
-114.16
-111.96
-106.87
-98.28
-86.68
-73.52
-60.75
-50.14
-42.62
-38.19
-36.01
-35.01
-34.32
-33.45
-32.3
-30.84
-28.99
-26.52
-23.28
-19.37
-15.24
-11.57
-9.01
-7.89
-8.06
-9.04
-10.19
-11
-11.14
-10.45
-8.79
-5.98
-1.86
3.58
10.07
17.16
24.29
31.04
37.14
42.48
46.93
50.27
52.31
53.04
52.84
52.47
52.95
55.2
59.68
66.22
74
81.81
88.41
92.9
94.91
94.66
92.82
90.25
87.66
85.28
82.51
77.96
69.72
56.13
36.64
12.32
-14.19
-39.46
-60.33
-74.74
-82.09
-82.91
-78.39
-69.9
-58.81
-46.56
-34.5
-23.74
-14.86
-7.8
-2.08
2.82
7.01
10.12
11.53
10.77
7.77
2.98
-2.83
-8.84
-14.35
-18.9
-22.31
-24.63
-26.07
-27.02
-27.9
-29.02
-30.54
-32.36
-34.17
-35.64
-36.52
-36.77
-36.61
-36.42
-36.61
-37.46
-38.91
-40.45
-41.2
-40.14
-36.51
-30.14
-21.71
-12.48
-3.94
2.79
7.31
9.88
11.13
11.64
11.68
11.27
10.45
9.48
8.79
8.8
9.64
11.03
12.41
13.27
13.33
12.79
12.06
11.56
11.46
11.62
11.71
11.36
10.41
8.96
7.28
5.65
4.26
3.03
1.68
-0.15
-2.77
-6.25
-10.42
-14.84
-18.91
-21.91
-23.22
-22.49
-19.72
-15.32
-9.98
-4.49
0.48
4.52
7.48
9.48
10.68
11.23
11.2
10.64
9.69
8.59
7.72
7.4
7.78
8.65
9.5
9.69
8.72
6.49
3.36
-0.06
-3.23
-5.93
-8.37
-11.08
-14.58
-19.27
-25.3
-32.64
-41.2
-50.84
-61.38
-72.49
-83.75
-94.66
-104.79
-113.79
-121.28
-126.68
-129.19
-127.9
-122.21
-112.2
-98.84
-83.8
-68.93
-55.67
-44.72
-35.93
-28.73
-22.53
-17.09
-12.47
-8.9
-6.46
-4.94
-3.94
-3.06
-2.17
-1.45
-1.37
-2.4
-4.78
-8.38
-12.71
-17.13
-21.12
-24.53
-27.63
-30.88
-34.66
-38.9
-43.16
-46.84
-49.68
-52.07
-54.99
-59.51
-66.2
-74.71
-83.84
-92.02
-97.9
-100.74
-100.37
-96.88
-90.27
-80.4
-67.27
-51.29
-33.52
-15.49
1.24
15.45
26.54
34.57
39.99
43.41
45.41
46.52
47.23
48.06
49.53
52.04
55.77
60.57
65.97
71.32
75.88
79.07
80.46
79.9
77.53
73.7
68.97
63.93
59.14
54.93
51.33
48.05
44.56
40.33
34.96
28.41
21.18
14.31
9.2
7.29
9.58
16.25
26.51
38.86
51.54
63.16
73.08
81.47
89.03
96.51
104.26
112.01
118.98
124.2
126.91
126.92
124.65
120.94
116.71
112.67
109.08
105.83
102.51
98.58
93.34
86.02
75.88
62.35
45.38
25.65
4.57
-16
-34.31
-49.3
-61
-70.65
-80.43
-93.06
-111.16
-136.41
-168.8
-206.02
-243.44
-275
-294.68
-298.28
-284.72
-256.29
-217.87
-175.22
-133.5
-96.22
-65.21
-41.09
-23.77
-12.76
-7.09
-5.23
-5.19
-5.09
-3.62
-0.49
3.74
8.08
11.74
14.44
16.44
18.25
20.25
22.57
25.02
27.33
29.28
30.77
31.74
32.12
31.75
30.34
27.64
23.48
18.08
12.11
6.64
3
2.28
5.03
11
19.23
28.41
37.29
45.05
51.36
56.27
59.86
62.17
63.03
62.31
60.09
56.78
53.13
49.98
47.97
47.36
47.88
48.89
49.63
49.48
48.16
45.76
42.55
38.94
35.16
31.34
27.46
23.47
19.22
14.54
9.23
3.17
-3.52
-10.26
-16.04
-19.62
-19.92
-16.49
-9.7
-0.67
9.16
18.48
26.52
33.04
38.17
42.11
44.91
46.44
46.58
45.36
43.12
40.42
37.88
35.96
34.86
34.43
34.29
33.98
33.06
31.34
28.84
25.79
22.46
19.05
15.54
11.85
7.78
3.24
-1.78
-7.17
-12.77
-18.34
-23.42
-27.39
-29.42
-28.79
-25.12
-18.62
-10.1
-0.72
8.42
16.57
23.48
29.24
34.02
37.89
40.72
42.41
43.02
42.91
42.71
43.08
44.48
47
50.37
54.02
57.33
59.77
61.14
61.61
61.65
61.81
62.49
63.69
65.06
66.13
66.52
66.2
65.42
64.53
63.79
63.31
63.23
63.75
65.17
67.39
69.64
70.39
67.93
61.27
50.89
38.91
28.34
21.83
20.49
23.44
28.3
32.32
33.55
31.42
26.7
20.73
14.63
8.73
2.56
-5.03
-15.37
-29.64
-48.51
-71.91
-98.75
-126.89
-153.19
-174.24
-187.12
-190.37
-184.47
-171.82
-156
-140.73
-128.83
-121.52
-118.31
-117.41
-116.44
-113.15
-106.14
-95.11
-80.8
-64.62
-48.18
-32.81
-19.38
-8.3
0.35
6.71
11.05
13.81
15.56
16.83
18.02
19.3
20.63
21.82
22.77
23.5
24.17
25.01
26.15
27.58
29.17
30.68
31.85
32.53
32.66
32.38
31.95
31.73
31.99
32.88
34.22
35.59
36.48
36.53
35.81
34.79
34.31
35.11
37.54
41.36
45.82
50
53.15
54.97
55.57
55.35
54.66
53.76
52.69
51.45
50.07
48.64
47.36
46.36
45.8
45.75
46.25
47.25
48.58
49.93
50.92
51.21
50.64
49.34
47.63
45.93
44.58
43.7
43.25
42.98
42.61
41.86
40.52
38.5
35.91
33.11
30.66
29.03
28.31
27.98
26.8
23.23
15.91
4.35
-10.8
-27.85
-44.67
-59.34
-70.78
-78.9
-84.32
-87.92
-90.32
-91.65
-91.48
-89.05
-83.48
-74.01
-60.26
-42.38
-21.29
1.15
22.11
38.23
46.23
43.86
30.61
8.05
-20.47
-50.77
-78.71
-101.22
-116.69
-125
-127.17
-124.8
-119.63
-113.12
-106.22
-99.33
-92.4
-85.02
-76.69
-67.01
-55.86
-43.52
-30.7
-18.39
-7.57
1.11
7.55
12.17
15.71
18.84
21.88
24.76
27.24
29.2
30.79
32.34
34.18
36.38
38.79
41.17
43.43
45.68
48.08
50.57
52.62
53.28
51.55
46.91
39.75
31.22
22.84
15.74
10.31
6.18
2.71
-0.43
-3.09
-4.92
-5.93
-6.87
-9.01
-13.47
-20.36
-28.51
-35.85
-40.38
-41
-37.87
-32
-24.63
-16.66
-8.69
-1.35
4.41
7.34
6.48
1.73
-5.79
-14
-20.48
-23.37
-21.9
-16.58
-8.94
-1.01
5.27
8.54
8.32
5
-0.44
-6.7
-12.66
-17.58
-21.19
-23.56
-24.9
-25.45
-25.37
-24.87
-24.2
-23.66
-23.59
-24.2
-25.56
-27.48
-29.61
-31.44
-32.42
-32.1
-30.16
-26.56
-21.49
-15.37
-8.73
-2.08
4.16
9.74
14.55
18.59
21.88
24.45
26.36
27.69
28.62
29.29
29.84
30.25
30.34
29.81
28.34
25.69
21.91
17.37
12.66
8.4
4.98
2.41
0.31
-1.82
-4.37
-7.41
-10.55
-13.2
-14.86
-15.4
-15.15
-14.75
-14.79
-15.54
-16.73
-17.64
-17.38
-15.18
-10.61
-3.7
5.15
15.41
26.48
37.88
49.17
59.91
69.66
77.95
84.35
88.59
90.64
90.76
89.53
87.75
86.29
85.82
86.63
88.55
91.13
93.85
96.42
98.87
101.41
104.19
107.06
109.5
110.69
109.85
106.44
100.28
91.5
80.41
67.39
52.82
36.96
20.05
2.22
-16.38
-35.59
-55.07
-74.23
-92.16
-107.8
-120.21
-128.81
-133.5
-134.69
-133.13
-129.67
-125.1
-120.07
-115.05
-110.39
-106.32
-102.9
-100.02
-97.39
-94.62
-91.34
-87.34
-82.53
-77.05
-71.17
-65.18
-59.47
-54.28
-49.84
-46.21
-43.35
-41.15
-39.45
-38.11
-37.02
-36.12
-35.35
-34.7
-34.19
-33.88
-33.92
-34.45
-35.54
-37.01
-38.39
-38.98
-38.02
-34.94
-29.58
-22.31
-13.91
-5.28
2.85
10.06
16.32
21.69
26.18
29.63
31.78
32.49
31.93
30.55
28.98
27.68
26.85
26.32
25.78
24.88
23.46
21.53
19.22
16.71
14.16
11.64
9.18
6.68
4.01
0.95
-2.69
-7.09
-12.28
-18.19
-24.52
-30.67
-35.84
-39.07
-39.62
-37.28
-32.54
-26.44
-20.28
-15.08
-11.26
-8.66
-6.75
-5.14
-3.74
-2.86
-2.91
-4.13
-6.34
-8.95
-11.19
-12.45
-12.51
-11.61
-10.34
-9.27
-8.78
-8.84
-9.11
-9.14
-8.63
-7.63
-6.5
-5.8
-6.15
-8.15
-12.33
-19.17
-28.91
-41.29
-55.27
-69
-80.17
-86.6
-86.99
-81.27
-70.56
-56.66
-41.48
-26.52
-12.74
-0.69
9.32
16.99
22.17
24.92
25.67
25.15
24.26
23.74
23.95
24.8
25.83
26.47
26.31
25.31
23.77
22.13
20.8
19.99
19.69
19.69
19.7
19.45
18.75
17.49
15.65
13.23
10.28
6.88
3.33
0.14
-1.99
-2.39
-0.56
3.51
9.37
16.22
23.2
29.65
35.24
39.91
43.69
46.6
48.55
49.42
49.2
48.09
46.46
44.83
43.67
43.22
43.46
44.15
44.88
45.29
45.15
44.38
43
41.18
39.03
36.76
34.5
32.39
30.44
28.49
26.23
23.21
19.11
13.88
7.95
2.19
-2.26
-4.36
-3.57
-0.02
5.42
11.43
16.67
20.13
21.37
20.48
17.93
14.28
10.02
5.5
1.11
-2.65
-5.09
-5.52
-3.49
1.02
7.44
14.79
21.95
27.99
32.39
35.15
36.64
37.42
37.99
38.63
39.39
40.1
40.53
40.5
39.91
38.82
37.39
35.94
34.93
34.99
36.69
40.29
45.42
50.96
55.28
56.8
54.59
48.69
40.1
30.24
20.44
11.62
4.19
-1.73
-6.16
-9.16
-10.87
-11.57
-11.64
-11.52
-11.6
-12.24
-13.81
-16.72
-21.27
-27.56
-35.38
-44.28
-53.77
-63.59
-73.66
-84.01
-94.56
-104.92
-114.44
-122.42
-128.31
-131.87
-133.19
-132.48
-129.84
-125.11
-117.89
-107.84
-94.94
-79.71
-63.24
-46.92
-31.99
-19.16
-8.44
0.68
8.89
16.65
23.99
30.51
35.73
39.29
41.13
41.47
40.68
39.15
37.26
35.28
33.42
31.74
30.14
28.41
26.31
23.67
20.47
16.89
13.18
9.56
6.17
3.01
-0.05
-3.15
-6.45
-10.11
-14.22
-18.76
-23.47
-27.8
-30.99
-32.22
-30.94
-27.05
-21.01
-13.72
-6.24
0.54
6.06
10.2
13.16
15.22
16.65
17.61
18.19
18.44
18.49
18.51
18.7
19.17
19.94
20.84
21.65
22.17
22.3
22.01
21.31
20.18
18.53
16.29
13.47
10.25
6.92
3.78
1.03
-1.4
-3.75
-6.32
-9.37
-12.96
-16.93
-20.87
-24.15
-26.05
-25.91
-23.35
-18.47
-11.85
-4.42
2.88
9.36
14.76
19.15
22.67
25.41
27.27
28.19
28.23
27.75
27.24
27.18
27.8
29
30.46
31.8
32.78
33.37
33.65
33.72
33.61
33.24
32.56
31.66
30.79
30.29
30.49
31.45
32.99
34.75
36.33
37.46
38.1
38.4
38.6
39.02
39.9
41.61
44.61
49.42
56.48
65.87
77.11
89.18
100.78
110.74
118.27
122.97
124.5
122.22
115.19
102.58
84.49
62.54
39.7
19.44
4.48
-4.26
-7.73
-8.12
-7.68
-7.85
-9.01
-10.88
-13.24
-16.33
-20.82
-27.29
-35.84
-45.79
-56.01
-65.4
-73.31
-79.72
-85.01
-89.6
-93.66
-97.05
-99.62
-101.54
-103.4
-106.06
-110.22
-115.93
-122.41
-128.24
-131.81
-131.89
-127.98
-120.32
-109.63
-96.83
-82.75
-68.1
-53.53
-39.8
-27.66
-17.8
-10.55
-5.69
-2.51
0.03
2.82
6.39
10.67
15.13
19.11
22.14
24.13
25.39
26.34
27.32
28.37
29.27
29.71
29.52
28.77
27.76
26.9
26.47
26.53
26.9
27.23
27.16
26.47
25.12
23.24
21.16
19.26
17.96
17.54
18.16
19.69
21.85
24.25
26.48
28.17
29.04
28.85
27.36
24.39
19.83
13.75
6.36
-1.87
-10.24
-17.91
-24.08
-28.24
-30.26
-30.43
-29.29
-27.32
-24.84
-21.96
-18.74
-15.39
-12.36
-10.18
-9.25
-9.61
-10.94
-12.68
-14.29
-15.44
-16.07
-16.43
-16.94
-18.08
-20.25
-23.61
-27.99
-32.75
-36.92
-39.44
-39.44
-36.58
-31.13
-23.91
-15.99
-8.37
-1.73
3.6
7.57
10.27
11.78
12.2
11.67
10.54
9.28
8.44
8.37
9.15
10.52
12.03
13.21
13.81
13.86
13.59
13.25
12.95
12.56
11.85
10.55
8.57
6.07
3.35
0.73
-1.59
-3.66
-5.71
-8.03
-10.84
-14.07
-17.41
-20.28
-22.01
-22.03
-20.03
-16.08
-10.64
-4.47
1.6
6.85
10.86
13.5
14.88
15.27
14.91
14.02
12.74
11.28
9.81
8.56
7.69
7.23
7.14
7.23
7.29
7.13
6.66
5.83
4.7
3.26
1.53
-0.48
-2.7
-5.02
-7.33
-9.58
-11.79
-14.14
-16.88
-20.2
-24.07
-28.2
-31.98
-34.66
-35.49
-34.03
-30.27
-24.66
-18.01
-11.17
-4.88
0.49
4.91
8.51
11.46
13.76
15.3
15.95
15.78
15.08
14.32
13.95
14.18
14.96
16.05
17.15
18.07
18.69
18.97
18.81
18.11
16.83
14.99
12.81
10.54
8.39
6.5
4.88
3.37
1.75
-0.3
-3.03
-6.42
-10.04
-13
-14.09
-12.25
-6.91
1.72
12.61
24.16
34.61
42.35
46.32
46.2
42.51
36.48
29.76
24.04
20.63
20.28
23.08
28.69
36.48
45.64
55.24
64.34
72.06
77.7
80.85
81.32
79.15
74.52
67.68
59.08
49.34
39.19
29.33
20.29
12.44
5.9
0.64
-3.51
-6.81
-9.6
-12.2
-14.84
-17.56
-20.11
-21.95
-22.39
-20.73
-16.5
-9.72
-0.95
8.74
18.01
25.59
30.6
32.66
31.9
28.76
23.9
17.99
11.68
5.51
-0.17
-5.12
-9.3
-12.75
-15.64
-18.18
-20.65
-23.32
-26.4
-29.98
-33.99
-38.27
-42.71
-47.25
-51.92
-56.73
-61.62
-66.51
-71.3
-75.97
-80.51
-84.83
-88.59
-91.19
-91.84
-89.86
-84.91
-77.16
-67.26
-56.19
-44.95
-34.37
-25.01
-17.19
-11.03
-6.52
-3.55
-1.85
-1.04
-0.69
-0.41
-0.01
0.56
1.23
1.9
2.59
3.38
4.3
5.21
5.75
5.42
3.91
1.21
-2.24
-5.74
-8.55
-10.16
-10.42
-9.64
-8.59
-8.53
-11.09
-17.99
-30.42
-48.33
-70.02
-92.2
-110.89
-122.64
-125.68
-120.44
-109.2
-95.05
-80.77
-68.09
-57.57
-49
-41.99
-36.29
-31.82
-28.48
-25.89
-23.42
-20.33
-16.08
-10.53
-3.98
3.05
10.04
16.69
22.9
28.76
34.37
39.71
44.61
48.77
51.94
53.94
54.81
54.76
54.06
52.9
51.25
48.81
45.24
40.38
34.53
28.55
23.66
21.08
21.51
24.83
30.18
36.27
41.85
46.14
48.98
50.67
51.67
52.3
52.61
52.49
51.84
50.72
49.38
48.12
47.18
46.5
45.91
45.14
44.09
42.81
41.5
40.25
39
37.45
35.26
32.24
28.46
24.27
20.11
16.3
12.96
9.96
6.97
3.64
-0.38
-5.28
-11.03
-17.27
-23.29
-28.18
-31.01
-31.23
-28.81
-24.33
-18.71
-12.97
-7.82
-3.61
-0.33
2.21
4.16
5.55
6.36
6.58
6.38
6.09
6.12
6.83
8.34
10.49
12.91
15.17
16.98
18.24
19.06
19.65
20.13
20.51
20.57
20.07
18.81
16.83
14.37
11.88
9.75
8.27
7.37
6.73
5.81
4.11
1.35
-2.28
-6.09
-9.06
-10.05
-8.32
-3.69
3.27
11.48
19.76
27.2
33.46
38.67
43.2
47.28
50.85
53.59
55.13
55.35
54.51
53.28
52.43
52.64
54.19
56.85
59.92
62.52
63.83
63.45
61.51
58.57
55.38
52.58
50.52
49.05
47.39
44.05
37.06
24.48
5.2
-20.39
-50.13
-80.67
-108.37
-130.52
-145.85
-154.45
-157.05
-154.33
-146.6
-134.07
-117.31
-97.57
-76.6
-55.98
-36.59
-18.39
-0.63
17.38
35.69
53.28
68.37
79.04
84.06
83.48
78.65
71.71
64.75
58.99
54.46
50.15
44.67
37.04
27.32
16.59
6.57
-1.21
-6.1
-8.66
-10.39
-13.08
-18.05
-25.68
-35.48
-46.46
-57.75
-68.89
-79.91
-91.05
-102.3
-113.27
-123.12
-130.79
-135.29
-135.9
-132.42
-125.16
-114.97
-103.03
-90.66
-78.97
-68.67
-59.88
-52.29
-45.32
-38.49
-31.56
-24.6
-17.89
-11.68
-6.1
-1.1
3.41
7.5
11.11
14.1
16.33
17.77
18.58
19.03
19.36
19.67
19.82
19.59
18.75
17.24
15.17
12.79
10.35
7.97
5.61
3.03
-0.06
-3.71
-7.63
-11.16
-13.33
-13.33
-10.83
-6.16
-0.23
5.85
11.19
15.36
18.45
20.74
22.49
23.73
24.33
24.22
23.51
22.54
21.69
21.25
21.33
21.84
22.51
23.06
23.26
22.94
22.09
20.77
19.16
17.4
15.61
13.82
12
10.08
8.03
5.8
3.33
0.54
-2.65
-6.23
-9.95
-13.29
-15.54
-16.03
-14.37
-10.71
-5.67
-0.16
4.95
9.11
12.2
14.36
15.83
16.75
17.13
16.98
16.37
15.48
14.62
14.04
13.91
14.27
15.02
15.96
16.8
17.26
17.1
16.2
14.63
12.57
10.29
8.02
5.92
4.1
2.65
1.61
0.95
0.5
-0.01
-0.88
-2.28
-4.04
-5.71
-6.59
-5.96
-3.31
1.55
8.43
16.84
26.07
35.45
44.43
52.72
60.2
66.89
72.82
78.07
82.75
87.14
91.68
96.83
103.02
110.55
119.54
129.93
141.5
153.72
165.78
176.57
184.82
189.32
188.98
182.83
170.11
150.42
124.11
92.67
58.83
26.17
-1.77
-22.39
-34.7
-39.28
-37.72
-31.93
-23.5
-13.68
-3.48
6.08
13.89
18.91
20.53
18.66
13.83
6.87
-1.29
-9.9
-18.45
-26.68
-34.58
-42.33
-50.25
-58.56
-67.28
-76.05
-84.32
-91.58
-97.71
-103.14
-108.68
-115.19
-123
-131.82
-140.73
-148.71
-155.05
-159.72
-163.32
-166.75
-170.76
-175.52
-180.51
-184.57
-186.23
-184.17
-177.59
-166.42
-151.42
-133.94
-115.6
-97.93
-82.16
-69.06
-59.03
-52.08
-47.91
-45.92
-45.14
-44.45
-42.74
-39.26
-33.89
-27.15
-20.08
-13.81
-9.3
-7.04
-7.03
-8.82
-11.71
-14.84
-17.45
-19.01
-19.39
-18.84
-17.94
-17.33
-17.37
-18.05
-18.85
-18.98
-17.65
-14.29
-8.8
-1.42
7.21
16.39
25.44
33.9
41.53
48.23
53.98
58.68
62.23
64.53
65.71
66.12
66.31
66.81
67.94
69.61
71.39
72.74
73.18
72.56
71.03
68.93
66.62
64.32
62.09
59.82
57.39
54.67
51.63
48.3
44.75
41.07
37.45
34.2
31.75
30.72
31.73
35.26
41.44
50.03
60.39
71.63
82.86
93.31
102.53
110.42
117.24
123.45
129.56
135.96
142.82
150.16
157.87
165.74
173.34
179.84
183.96
184.21
179.35
168.89
153.14
132.91
108.81
80.85
48.63
12.11
-27.57
-67.75
-104.85
-135.64
-158.44
-173.65
-183.29
-189.8
-194.96
-199.31
-202.37
-203.32
-201.67
-197.56
-191.57
-184.41
-176.63
-168.58
-160.57
-153.06
-146.64
-141.8
-138.64
-136.54
-134.2
-130.05
-122.81
-112.04
-98.37
-83.26
-68.45
-55.37
-44.69
-36.32
-29.64
-23.89
-18.51
-13.33
-8.45
-4.06
-0.21
3.23
6.55
9.94
13.42
16.71
19.34
20.86
21.02
19.86
17.74
15.36
13.6
13.42
15.68
20.91
29.07
39.53
51.15
62.67
73.08
81.86
89.11
95.24
100.66
105.52
109.69
112.99
115.46
117.57
120.07
123.72
128.81
134.9
140.85
145.17
146.41
143.54
135.92
123.26
105.59
83.38
57.72
30.45
3.88
-19.82
-39.27
-54.37
-66.11
-76.04
-85.37
-94.37
-102.27
-107.76
-109.77
-108.12
-103.71
-98.23
-93.54
-91.07
-91.56
-95.11
-101.38
-109.72
-119.08
-127.86
-133.89
-134.9
-129.18
-116.32
-97.41
-74.62
-50.36
-26.52
-4.07
16.76
35.94
53.18
67.77
78.75
85.36
87.27
84.65
78.04
68.22
56.05
42.4
28.11
13.84
0.04
-13.09
-25.53
-37.29
-48.33
-58.57
-67.88
-76.15
-83.22
-88.79
-92.35
-93.3
-91.12
-85.69
-77.48
-67.45
-56.89
-46.97
-38.45
-31.56
-26.12
-21.79
-18.37
-15.92
-14.65
-14.68
-15.79
-17.29
-18.19
-17.57
-14.87
-10.16
-4.15
2.07
7.34
10.8
12.07
11.33
9.32
7.09
5.73
5.98
7.92
10.85
13.4
14.08
11.82
6.38
-1.48
-10.3
-18.42
-24.44
-27.57
-27.62
-24.94
-20.24
-14.29
-7.77
-1.07
5.82
13.12
20.86
28.5
34.78
37.98
36.58
29.99
18.8
4.73
-10.01
-23.37
-33.87
-40.72
-43.63
-42.66
-38.17
-30.87
-21.91
-12.66
-4.47
1.67
5.37
6.8
6.52
5.26
3.56
1.62
-0.76
-4.1
-8.96
-15.57
-23.51
-31.6
-38.12
-41.33
-40.04
-34.12
-24.54
-13.1
-1.72
8.1
15.75
21.49
26.11
30.42
34.8
39.1
42.79
45.36
46.64
46.98
47.12
47.93
50.19
54.39
60.73
68.83
77.58
84.97
88.26
84.7
72.52
51.99
25.82
-1.28
-24.09
-38.58
-43.31
-39.78
-31.53
-22.55
-15.62
-11.42
-8.66
-5.08
1.27
11.2
24.19
38.87
53.56
66.75
77.05
83.05
83.46
77.5
65.58
49.52
32.36
17.45
7.4
3.22
4.26
8.69
14.41
19.71
23.63
25.89
26.7
26.43
25.5
24.27
22.97
21.72
20.55
19.39
18.17
16.83
15.31
13.56
11.45
8.81
5.49
1.41
-3.24
-8.01
-12.14
-14.67
-14.73
-11.81
-5.97
2.1
11.24
20.22
28.03
34.16
38.49
41.23
42.69
43.1
42.65
41.52
40.04
38.64
37.82
38.01
39.39
41.83
44.9
48.01
50.65
52.55
53.69
54.14
53.95
52.98
51.01
47.92
43.79
38.89
33.45
27.48
20.85
13.4
5.38
-2.36
-8.41
-11.26
-9.86
-4.07
5.21
16.25
26.98
35.51
40.43
41.13
37.73
30.99
22.11
12.48
3.39
-4.31
-10.39
-15.32
-20.02
-25.59
-33.01
-42.97
-55.75
-71.15
-88.24
-105.26
-119.75
-129.1
-131.46
-126.52
-115.84
-102.29
-89
-78.09
-70.11
-64.26
-59.16
-53.77
-47.9
-42.02
-36.78
-32.52
-29.05
-25.92
-22.7
-19.25
-15.71
-12.33
-9.18
-6.06
-2.66
1.27
5.7
10.32
14.55
17.81
19.66
19.97
18.91
16.91
14.52
12.25
10.45
9.26
8.6
8.26
7.97
7.54
6.86
5.97
4.97
4
3.21
2.64
2.25
1.88
1.31
0.38
-0.95
-2.5
-3.97
-5.09
-5.8
-6.23
-6.77
-7.78
-9.49
-11.83
-14.39
-16.57
-17.76
-17.45
-15.43
-11.77
-6.78
-0.99
5.01
10.61
15.35
18.94
21.37
22.8
23.53
23.87
24.05
24.16
24.25
24.3
24.34
24.4
24.52
24.68
24.78
24.7
24.34
23.68
22.79
21.78
20.77
19.81
18.88
17.94
16.9
15.72
14.39
12.97
11.5
10.08
8.75
7.54
6.45
5.44
4.49
3.65
3.07
3.02
3.88
6.01
9.68
14.94
21.56
29.09
36.95
44.61
51.7
58.11
63.92
69.27
74.4
79.43
84.52
89.82
95.49
101.65
108.35
115.5
122.89
130.34
137.85
145.7
154.44
164.51
175.79
187.06
195.91
199.19
193.94
178.38
152.55
118.13
77.84
34.63
-8.69
-49.52
-85.39
-114.14
-134.35
-145.94
-150.26
-149.61
-146.28
-141.67
-136.01
-128.8
-119.63
-108.66
-96.75
-84.99
-74.17
-64.57
-56.13
-48.73
-42.47
-37.6
-34.28
-32.38
-31.42
-30.77
-29.87
-28.48
-26.61
-24.45
-22.17
-19.87
-17.6
-15.45
-13.61
-12.27
-11.63
-11.72
-12.49
-13.76
-15.31
-16.97
-18.6
-20.13
-21.53
-22.82
-24.03
-25.21
-26.44
-27.78
-29.25
-30.78
-32.09
-32.77
-32.33
-30.37
-26.81
-21.96
-16.5
-11.25
-6.98
-4.17
-3.02
-3.56
-5.8
-9.73
-15.23
-21.9
-29.01
-35.6
-40.78
-44.09
-45.72
-46.42
-47.25
-49.04
-52.09
-55.97
-59.84
-62.78
-64.23
-64.13
-62.88
-61
-58.83
-56.35
-53.24
-49.08
-43.51
-36.49
-28.19
-19.02
-9.47
-0.03
8.8
16.5
22.61
26.84
29.22
30.3
31.09
32.78
36.26
41.83
48.91
56.3
62.55
66.49
67.47
65.47
60.84
54.2
46.14
37.29
28.3
19.85
12.56
6.88
3.03
0.84
-0.13
-0.48
-0.82
-1.56
-2.83
-4.46
-6.16
-7.63
-8.71
-9.42
-9.91
-10.35
-10.84
-11.37
-11.88
-12.25
-12.37
-12.17
-11.62
-10.71
-9.47
-8.01
-6.5
-5.17
-4.17
-3.48
-2.84
-1.88
-0.18
2.47
6.04
10.32
14.93
19.5
23.61
26.75
28.35
27.91
25.25
20.62
14.82
8.89
3.85
0.34
-1.58
-2.27
-2.33
-2.33
-2.54
-2.99
-3.5
-3.92
-4.18
-4.37
-4.7
-5.35
-6.43
-7.88
-9.48
-10.93
-11.95
-12.37
-12.27
-11.9
-11.73
-12.25
-13.82
-16.54
-20.21
-24.23
-27.8
-30.06
-30.3
-28.2
-23.9
-17.99
-11.4
-5.04
0.31
4.18
6.42
7.1
6.44
4.75
2.5
0.27
-1.39
-2.09
-1.75
-0.64
0.78
2.07
3
3.65
4.33
5.35
6.86
8.69
10.41
11.48
11.49
10.29
7.92
4.67
0.84
-3.39
-8.06
-13.39
-19.78
-27.62
-37.07
-48
-59.78
-71.39
-81.6
-89.23
-93.53
-94.32
-92.08
-87.68
-82.19
-76.56
-71.47
-67.29
-64.2
-62.26
-61.48
-61.81
-63.12
-65.19
-67.72
-70.47
-73.31
-76.21
-79.27
-82.63
-86.41
-90.61
-95.04
-99.2
-102.21
-103
-100.59
-94.5
-85.03
-73.29
-60.82
-49.07
-38.98
-30.82
-24.44
-19.69
-16.59
-15.41
-16.36
-19.3
-23.6
-28.23
-32.04
-34
-33.48
-30.25
-24.51
-16.83
-8.01
1.05
9.52
16.79
22.51
26.6
29.14
30.33
30.48
29.97
29.24
28.73
28.71
29.19
29.99
30.88
31.74
32.72
34.13
36.25
39.07
42.17
44.78
46.11
45.66
43.43
39.81
35.42
30.77
26.17
21.66
17.22
12.84
8.5
4.22
0.03
-3.86
-6.91
-8.22
-6.81
-2.04
5.89
15.86
26.01
34.39
39.5
40.61
37.68
31.1
21.37
9
-5.38
-20.85
-36.13
-49.73
-60.21
-66.56
-68.43
-66.15
-60.58
-52.82
-43.99
-35.12
-27.16
-21.1
-17.84
-17.99
-21.62
-28.04
-35.91
-43.64
-49.87
-54
-56.32
-57.97
-60.4
-64.81
-71.54
-79.69
-87.23
-91.42
-89.73
-80.68
-64.47
-42.99
-19.28
3.32
22.04
35.25
42.44
44.17
41.6
36.22
29.65
23.45
18.92
16.91
17.69
20.99
26.1
32.16
38.37
43.99
48.41
51.14
51.87
50.64
47.88
44.37
40.91
37.99
35.56
33.09
29.75
24.86
18.11
9.65
0.1
-9.68
-18.54
-25.24
-28.59
-27.73
-22.59
-14.08
-4.06
5.23
11.84
14.84
14.53
11.95
8.11
3.05
-4.42
-16.26
-33.98
-57.44
-84.16
-109.72
-129.08
-138.26
-135.52
-121.6
-98.94
-70.52
-39.21
-7.6
21.69
45.85
62.27
69.51
68.07
60.53
50.69
42.05
36.5
33.89
32.52
30.31
25.76
18.62
9.74
0.74
-6.47
-10.07
-8.66
-1.56
10.88
27.34
45.75
63.84
79.75
92.37
101.47
107.43
110.98
112.94
114.02
114.73
115.29
115.72
115.89
115.79
115.59
115.77
116.88
119.34
123.15
127.84
132.56
136.33
138.24
137.7
134.5
128.92
121.76
114.24
107.72
103.18
100.61
98.52
94.29
85.01
68.77
45.82
18.85
-7.83
-29.69
-43.5
-48.3
-45.28
-36.99
-26.3
-15.63
-6.69
-0.74
1.17
-1.87
-10.31
-23.58
-39.85
-56.06
-68.7
-74.75
-72.77
-63.27
-48.46
-31.34
-14.54
0.38
13.11
24.13
33.99
42.81
50.28
55.9
59.42
61.12
61.66
61.77
61.79
61.53
60.36
57.71
53.65
49.07
45.64
45.17
49.01
57.49
69.8
84.26
98.7
110.95
119.06
121.64
118
108.23
93.32
74.85
54.77
34.92
16.86
1.66
-10.02
-17.88
-22.03
-22.89
-21.2
-17.79
-13.39
-8.38
-2.78
3.73
11.54
20.87
31.55
42.91
53.86
63.04
69.12
71.18
68.92
62.85
54.09
44.09
34.3
25.95
20.04
17.37
18.58
23.97
33.28
45.47
58.79
71.25
81.14
87.47
90.01
89.11
85.24
78.79
70.06
59.45
47.63
35.48
23.88
13.43
4.36
-3.4
-9.95
-15.35
-19.51
-22.4
-24.17
-25.22
-26.05
-27.09
-28.61
-30.7
-33.5
-37.27
-42.41
-49.32
-58.07
-68.32
-79.4
-90.51
-101.08
-110.81
-119.67
-127.55
-134.17
-138.98
-141.29
-140.49
-136.18
-128.27
-116.98
-102.8
-86.43
-68.67
-50.32
-32.01
-14.18
2.88
18.83
33.08
44.68
52.53
55.73
54.11
48.55
40.93
33.6
28.61
27.01
28.48
31.42
33.47
32.3
26.36
15.49
1.02
-14.66
-28.81
-39.4
-45.61
-47.94
-47.77
-46.47
-44.94
-43.42
-41.81
-40.15
-38.94
-38.95
-40.79
-44.5
-49.32
-54.07
-57.47
-58.6
-57.09
-53.03
-46.77
-38.81
-29.81
-20.64
-12.28
-5.6
-1.06
1.48
2.64
3.24
3.91
4.97
6.53
8.71
11.82
16.15
21.69
27.94
33.86
38.33
40.54
40.43
38.59
35.92
33.27
31.11
29.45
28.04
26.54
24.77
22.74
20.51
18.13
15.54
12.56
9.12
5.31
1.43
-2.06
-4.79
-6.53
-7.26
-6.98
-5.63
-3.06
0.72
5.47
10.56
15.14
18.54
20.59
21.71
22.62
23.82
25.16
25.79
24.53
20.6
14.1
6.2
-1.39
-7.17
-10.55
-12.05
-12.9
-14.4
-17.26
-21.46
-26.48
-31.81
-37.23
-42.9
-48.96
-55.24
-61.13
-65.75
-68.36
-68.78
-67.49
-65.5
-63.91
-63.49
-64.45
-66.33
-68.21
-68.99
-67.74
-63.9
-57.55
-49.3
-40.11
-31.06
-22.95
-16.15
-10.6
-6.06
-2.34
0.5
2.18
2.44
1.21
-1.2
-4.23
-7.22
-9.61
-10.98
-11.18
-10.21
-8.36
-6.11
-4.13
-3.07
-3.42
-5.32
-8.54
-12.58
-16.88
-21.01
-24.74
-28.1
-31.32
-34.73
-38.67
-43.32
-48.55
-53.86
-58.36
-61.09
-61.2
-58.33
-52.66
-44.94
-36.21
-27.54
-19.72
-13.12
-7.7
-3.2
0.67
4.03
6.88
9.19
11
12.58
14.31
16.51
19.34
22.66
26.1
29.3
32
34.1
35.58
36.37
36.29
35.17
32.84
29.35
24.88
19.76
14.33
8.82
3.34
-2.16
-7.82
-13.83
-20.23
-26.92
-33.54
-39.66
-44.98
-49.46
-53.44
-57.36
-61.48
-65.5
-68.58
-69.52
-67.32
-61.82
-54.16
-46.83
-43.21
-46.47
-58.49
-78.93
-105.04
-132.31
-155.51
-169.99
-172.55
-161.96
-139.02
-106.45
-68.53
-30.42
2.86
27.54
42.1
47.3
45.6
39.93
32.53
24.45
15.91
6.99
-1.75
-9.03
-13.32
-13.41
-8.98
-0.69
10.06
21.64
32.67
42.31
50.23
56.48
61.24
64.61
66.64
67.34
66.84
65.5
63.84
62.43
61.7
61.75
62.36
63.11
63.56
63.46
62.81
61.78
60.58
59.31
58.01
56.64
55.21
53.83
52.62
51.67
50.92
50.2
49.28
48.03
46.51
45.08
44.34
44.97
47.54
52.15
58.21
64.45
69.2
71.02
69.2
64.12
57.07
49.73
43.46
38.88
35.93
34.27
33.81
34.81
37.62
42.1
47.33
51.74
53.79
52.72
48.83
43.23
37.14
31.23
25.3
18.64
10.39
-0
-12.87
-28.43
-46.84
-67.94
-90.82
-113.68
-134.08
-149.75
-159.3
-162.6
-160.44
-153.95
-143.97
-130.94
-115.15
-97.27
-78.47
-60.22
-43.77
-29.69
-17.82
-7.55
1.64
9.92
17.07
22.72
26.7
29.21
30.76
32.03
33.6
35.84
38.82
42.32
45.97
49.26
51.73
52.97
52.86
51.55
49.57
47.6
46.31
46.04
46.71
47.78
48.49
48.23
46.73
44.26
41.44
39.1
37.98
38.64
41.3
45.75
51.41
57.23
61.94
64.36
63.68
59.87
53.49
45.42
36.26
25.82
13.36
-1.83
-19.46
-37.56
-52.74
-61.2
-60.28
-49.63
-31.38
-9.3
12.8
32.2
47.8
59.59
67.73
71.91
71.33
65.38
54.33
39.69
23.82
9.09
-3.03
-12.38
-19.98
-27.4
-36.01
-46.56
-58.96
-72.43
-85.64
-96.9
-104.25
-105.91
-100.76
-88.88
-71.77
-52.02
-32.58
-15.93
-3.5
4.28
7.6
6.71
1.71
-7.36
-20.06
-35.33
-51.45
-66.45
-78.53
-86.43
-89.54
-87.83
-81.65
-71.62
-58.61
-43.72
-28.23
-13.41
-0.35
10.27
18.19
23.58
26.88
28.66
29.55
30.11
30.72
31.56
32.53
33.38
33.76
33.5
32.76
32.1
32.39
34.42
38.65
44.99
52.77
60.98
68.66
75.14
80.05
83.3
84.76
84.2
81.37
76.2
69.02
60.38
50.8
40.3
28.35
14.3
-1.95
-19.4
-35.99
-49.21
-57.19
-59.41
-56.92
-51.74
-45.92
-40.82
-36.9
-34.03
-31.96
-30.72
-30.55
-31.69
-34.15
-37.62
-41.65
-45.83
-49.84
-53.47
-56.36
-57.91
-57.39
-54.12
-47.78
-38.61
-27.34
-15.07
-3.02
7.57
15.61
20.27
21.27
19
14.59
9.58
5.43
3.01
2.37
2.85
3.56
3.93
3.89
3.76
3.93
4.47
5.03
5.04
4.03
1.93
-0.88
-3.75
-6.07
-7.53
-8.27
-8.85
-9.99
-12.33
-16.22
-21.5
-27.58
-33.55
-38.36
-41.04
-40.98
-38.01
-32.45
-25.07
-16.8
-8.57
-1.01
5.63
11.42
16.59
21.39
25.93
30.23
34.37
38.5
42.89
47.76
53.16
58.82
64.19
68.6
71.44
72.34
71.23
68.35
64.11
59.07
53.82
48.86
44.53
40.89
37.81
35.05
32.39
29.74
27.07
24.44
22
20.02
19.01
19.54
22.12
26.82
33.1
39.85
45.76
49.76
51.3
50.33
47.05
41.66
34.35
25.49
15.87
6.68
-0.72
-5.3
-6.79
-5.8
-3.5
-1.23
0.01
-0.26
-1.98
-4.9
-8.66
-13.06
-18
-23.47
-29.5
-36.14
-43.39
-51.26
-59.78
-69.02
-79.03
-89.76
-100.79
-111.18
-119.54
-124.37
-124.55
-119.82
-110.92
-99.24
-86.41
-73.78
-62.16
-52.08
-43.95
-38.19
-35.14
-34.76
-36.44
-39.07
-41.32
-42.05
-40.6
-36.97
-31.74
-25.85
-20.4
-16.38
-14.43
-14.71
-16.97
-20.65
-25.12
-29.81
-34.27
-38.12
-41.03
-42.74
-43.23
-42.8
-42.13
-42.12
-43.53
-46.7
-51.17
-55.77
-58.91
-59.08
-55.39
-47.87
-37.43
-25.42
-13.24
-1.99
7.68
15.37
20.91
24.22
25.42
24.88
23.19
21.08
19.16
17.84
17.27
17.45
18.31
19.75
21.68
23.95
26.39
28.77
30.89
32.61
33.86
34.55
34.59
33.82
32.08
29.3
25.59
21.25
16.67
12.03
7.2
1.61
-5.42
-14.29
-24.59
-34.96
-43.31
-47.45
-45.97
-38.85
-27.51
-14.51
-2.66
5.72
9.13
7.02
-0.55
-13
-29.25
-47.67
-66.06
-82.1
-94.07
-101.48
-105.23
-107
-108.17
-108.77
-107.2
-100.84
-87.33
-65.87
-37.76
-6.04
25.53
53.63
76.08
91.95
101.1
103.78
100.4
91.76
79.28
65.05
51.46
40.46
32.91
28.22
24.69
20.36
14.05
5.99
-2.22
-8.28
-10.29
-7.54
-0.71
8.51
18.23
27.07
34.43
40.36
45.1
48.73
51.07
51.94
51.41
50.04
48.69
48.24
49.17
51.4
54.38
57.38
59.81
61.41
62.2
62.32
61.85
60.75
58.9
56.28
53
49.38
45.79
42.55
39.73
37.1
34.15
30.26
25.04
18.53
11.35
4.66
-0.17
-1.94
-0.1
5.18
12.99
22.06
31.19
39.54
46.88
53.43
59.55
65.4
70.79
75.19
78.05
79.21
79.08
78.67
79.21
81.72
86.58
93.25
100.36
105.88
107.76
104.51
95.84
82.96
68.55
56.04
48.57
47.94
53.81
63.73
73.92
80.45
80.59
73.53
60.51
43.99
26.68
10.5
-3.87
-16.89
-29.74
-43.72
-60.01
-79.46
-102.3
-127.65
-153.23
-175.36
-190.01
-194.21
-187.39
-171.76
-151.44
-130.68
-112.16
-96.33
-81.87
-67.07
-50.96
-33.88
-17.04
-1.69
11.57
22.85
32.56
41.01
48.08
53.43
56.8
58.42
59.07
59.83
61.64
65
69.68
74.96
79.96
84.07
87.13
89.49
91.78
94.68
98.78
104.53
112.32
122.37
134.72
149.03
164.45
179.58
192.49
200.85
202.25
194.59
176.6
148.37
111.63
69.64
26.62
-13.11
-46.07
-70.25
-85.32
-92.31
-93.01
-89.28
-82.64
-74.02
-63.85
-52.21
-39.08
-24.62
-9.3
6.06
20.29
32.08
40.28
44.18
43.63
39.14
31.64
22.32
12.35
2.71
-5.81
-12.79
-18.12
-21.99
-24.82
-27.17
-29.53
-32.2
-35.22
-38.42
-41.52
-44.36
-46.96
-49.53
-52.33
-55.47
-58.79
-61.86
-64.18
-65.35
-65.32
-64.35
-62.9
-61.4
-60.12
-59.12
-58.36
-57.79
-57.42
-57.31
-57.4
-57.52
-57.38
-56.66
-55.18
-52.99
-50.34
-47.59
-45.06
-42.92
-41.13
-39.58
-38.11
-36.59
-34.97
-33.24
-31.44
-29.58
-27.72
-25.95
-24.41
-23.24
-22.48
-22.03
-21.63
-20.95
-19.72
-17.87
-15.52
-12.96
-10.48
-8.32
-6.56
-5.19
-4.12
-3.21
-2.37
-1.51
-0.61
0.29
1.09
1.7
2.09
2.36
2.64
3.04
3.58
4.15
4.58
4.75
4.59
4.11
3.32
2.24
0.85
-0.82
-2.61
-4.19
-5.21
-5.44
-4.87
-3.81
-2.65
-1.77
-1.32
-1.24
-1.38
-1.67
-2.26
-3.44
-5.48
-8.5
-12.32
-16.51
-20.59
-24.17
-27.09
-29.45
-31.46
-33.34
-35.25
-37.23
-39.24
-41.18
-42.95
-44.42
-45.53
-46.2
-46.43
-46.32
-46
-45.64
-45.32
-45
-44.4
-43.06
-40.48
-36.24
-30.31
-23.05
-15.2
-7.67
-1.21
3.78
7.31
9.64
11.06
11.71
11.62
10.8
9.37
7.72
6.35
5.68
5.86
6.64
7.54
7.98
7.51
6.02
3.68
0.82
-2.23
-5.32
-8.51
-12.03
-16.13
-20.95
-26.48
-32.45
-38.54
-44.32
-49.44
-53.63
-56.71
-58.68
-59.58
-59.48
-58.43
-56.43
-53.43
-49.37
-44.29
-38.31
-31.73
-24.9
-18.26
-12.14
-6.74
-1.97
2.5
7.24
12.86
19.74
27.83
36.53
44.74
51.05
54.17
53.19
47.95
39.01
27.6
15.27
3.57
-6.22
-13.27
-17.31
-18.68
-18.19
-16.93
-15.87
-15.51
-15.64
-15.51
-14.22
-11.2
-6.55
-1.02
4.33
8.66
11.63
13.37
14.24
14.54
14.4
13.76
12.63
11.19
9.73
8.6
8.03
8.08
8.59
9.37
10.2
10.9
11.3
11.26
10.58
9.09
6.69
3.33
-0.81
-5.42
-10.11
-14.56
-18.65
-22.57
-26.79
-31.83
-38.02
-45.27
-52.93
-59.87
-64.72
-66.33
-64.1
-58.29
-49.87
-40.33
-31.14
-23.37
-17.45
-13.29
-10.52
-8.83
-8.2
-8.78
-10.8
-14.38
-19.38
-25.41
-32.05
-38.89
-45.61
-51.92
-57.49
-61.91
-64.8
-66.03
-65.87
-65.04
-64.37
-64.32
-64.62
-64.13
-61.37
-55.12
-45.2
-32.69
-19.65
-8.39
-0.7
2.57
1.44
-3.51
-11.56
-21.92
-33.61
-45.23
-55.02
-61.17
-62.39
-58.36
-49.9
-38.66
-26.65
-15.73
-7.38
-2.78
-2.81
-8.05
-18.36
-32.37
-47.19
-58.83
-63.24
-57.83
-42.68
-20.65
3.51
25.03
40.84
50.47
55.56
58.63
61.53
64.62
66.92
66.86
63.17
55.48
44.36
31.04
16.98
3.44
-8.78
-19.47
-28.99
-38.11
-47.51
-57.49
-67.65
-76.91
-83.78
-86.74
-84.7
-77.18
-64.48
-47.63
-28.29
-8.47
9.88
25.29
37.01
45.04
49.88
52.29
53.06
52.86
52.36
52.25
53.1
55.21
58.49
62.35
65.93
68.52
69.76
69.85
69.36
68.8
68.34
67.6
65.89
62.58
57.45
50.89
43.76
36.97
31.07
26.03
21.23
15.78
8.89
0.18
-10.22
-21.69
-33.15
-43.21
-50.23
-52.68
-49.54
-40.7
-27.21
-11.03
5.55
20.59
33.02
42.68
49.89
54.97
57.98
58.74
57.29
54.24
50.83
48.57
48.6
51.16
55.56
60.45
64.45
66.74
67.2
66.34
64.86
63.28
61.71
59.8
57.09
53.21
48.19
42.49
36.83
31.91
28.07
25.19
22.7
19.82
15.83
10.28
3.13
-5.2
-13.82
-21.34
-26.1
-26.57
-21.87
-12.14
1.36
16.66
31.64
44.71
55.06
62.59
67.57
70.23
70.65
68.72
64.57
58.7
52.13
46.18
42.01
40.29
40.88
42.95
45.24
46.6
46.33
44.4
41.31
37.83
34.56
31.75
29.13
25.99
21.44
14.67
5.19
-7.02
-21.53
-37.47
-53.61
-68.44
-80.27
-87.54
-89.26
-85.35
-76.77
-65.24
-52.74
-40.96
-30.92
-23.02
-17.09
-12.61
-8.74
-4.45
1.4
9.59
20.29
32.75
45.51
56.87
65.45
70.57
72.32
71.27
68.13
63.45
57.56
50.61
42.79
34.42
25.92
17.78
10.35
3.74
-2.13
-7.41
-12.17
-16.36
-19.79
-22.35
-24.11
-25.4
-26.72
-28.58
-31.32
-34.93
-38.88
-42.23
-43.71
-42.13
-36.8
-27.8
-16.09
-3.24
9.05
19.47
27.36
32.73
35.97
37.53
37.76
36.84
34.97
32.49
29.96
27.99
27.11
27.47
28.83
30.66
32.28
33.19
33.13
32.13
30.36
27.98
25.11
21.78
18.07
14.16
10.29
6.7
3.39
0.16
-3.42
-7.75
-12.9
-18.46
-23.48
-26.74
-27.15
-24.21
-18.19
-10.11
-1.38
6.66
13.15
17.79
20.78
22.47
23.14
22.88
21.7
19.68
17.1
14.44
12.24
10.88
10.46
10.85
11.69
12.57
13.14
13.15
12.45
11
8.88
6.21
3.12
-0.27
-3.87
-7.61
-11.42
-15.28
-19.23
-23.35
-27.57
-31.59
-34.76
-36.19
-35.02
-30.79
-23.73
-14.73
-5.03
4.16
12.04
18.33
23.17
26.85
29.59
31.52
32.65
33.07
33.06
33.08
33.66
35.28
38.18
42.23
46.98
51.83
56.23
59.88
62.91
65.73
68.93
72.96
77.88
83.25
88.19
91.52
92.07
88.9
81.43
69.57
53.83
35.48
16.49
-0.73
-13.89
-21.53
-23.57
-21.33
-16.92
-12.41
-9.08
-7.17
-6.22
-5.66
-5.35
-5.63
-7.13
-10.31
-15.28
-21.82
-29.65
-38.61
-48.72
-59.91
-71.89
-83.89
-94.83
-103.62
-109.54
-112.46
-112.86
-111.58
-109.36
-106.54
-102.98
-98.3
-92.2
-84.84
-76.82
-69.05
-62.33
-57.05
-52.98
-49.43
-45.54
-40.62
-34.42
-27.15
-19.34
-11.7
-4.85
0.8
5.11
8.13
10.09
11.27
11.94
12.3
12.54
12.81
13.31
14.15
15.42
17.06
18.84
20.45
21.58
22.07
21.9
21.18
20.03
18.49
16.51
14.06
11.14
7.99
4.9
2.13
-0.23
-2.37
-4.66
-7.52
-11.24
-15.92
-21.34
-27.03
-32.26
-36.26
-38.31
-37.97
-35.28
-30.72
-25.14
-19.43
-14.24
-9.86
-6.27
-3.31
-0.94
0.76
1.65
1.68
1.06
0.23
-0.27
0.04
1.33
3.47
6.04
8.53
10.52
11.77
12.37
12.63
12.97
13.74
15
16.51
17.8
18.38
17.96
16.7
15.13
13.97
13.81
14.82
16.65
18.58
19.79
19.75
18.5
16.74
15.77
17.02
21.56
29.61
40.41
52.45
64.09
74.13
82.38
89.57
97.03
106.09
117.49
130.93
144.78
156.11
161.33
157.15
141.96
116.97
86.32
56.02
31.99
18.01
14.62
19.33
28.04
36.85
43.26
46.45
46.74
44.75
40.82
35.01
27.44
18.58
9.35
0.76
-6.51
-12.54
-18.09
-24.24
-31.81
-40.88
-50.72
-60.13
-67.9
-73.35
-76.32
-77.03
-75.78
-72.75
-68.06
-61.99
-55.11
-48.26
-42.36
-38.16
-36.09
-36.3
-38.74
-43.23
-49.48
-56.98
-64.91
-72.21
-77.76
-80.73
-80.85
-78.48
-74.44
-69.66
-64.8
-60.09
-55.38
-50.43
-45.14
-39.72
-34.57
-30.1
-26.55
-23.82
-21.63
-19.63
-17.55
-15.35
-13.18
-11.32
-10.04
-9.52
-9.81
-10.91
-12.78
-15.36
-18.52
-21.92
-24.98
-26.92
-27.01
-24.84
-20.55
-14.74
-8.35
-2.25
2.96
7.09
10.24
12.61
14.36
15.51
16.11
16.27
16.34
16.87
18.46
21.61
26.43
32.58
39.29
45.58
50.58
53.8
55.27
55.4
54.77
53.8
52.61
50.94
48.28
43.99
37.58
28.81
17.8
5.1
-8.35
-21.34
-32.63
-41.2
-46.56
-48.89
-48.96
-47.89
-46.66
-45.78
-45.09
-43.86
-41.23
-36.64
-30.13
-22.37
-14.31
-6.86
-0.58
4.34
7.91
10.17
11.13
10.79
9.3
7.07
4.68
2.69
1.5
1.14
1.34
1.56
1.33
0.3
-1.54
-3.94
-6.55
-9.14
-11.79
-14.87
-18.91
-24.26
-30.9
-38.38
-45.93
-52.7
-58.03
-61.55
-63.22
-63.22
-61.93
-59.72
-56.94
-53.79
-50.19
-45.91
-40.6
-34.09
-26.47
-18.14
-9.72
-1.82
5.13
10.84
15.19
18.06
19.38
19.14
17.58
15.15
12.46
10.12
8.55
7.88
7.99
8.68
9.84
11.49
13.78
16.76
20.3
24.03
27.44
30.06
31.68
32.35
32.38
32.1
31.75
31.41
30.97
30.3
29.26
27.8
25.94
23.88
22.02
21.06
21.79
24.9
30.58
38.36
47.12
55.35
61.57
64.71
64.15
59.77
51.75
40.55
26.87
11.77
-3.41
-17.14
-28.06
-35.23
-38.36
-37.83
-34.58
-29.87
-25
-21.06
-18.71
-18.2
-19.43
-22.12
-25.94
-30.47
-35.25
-39.63
-42.95
-44.75
-44.97
-44.15
-43.35
-43.92
-47.07
-53.37
-62.35
-72.34
-80.65
-84.26
-80.72
-69.23
-51.11
-29.74
-9.53
5.44
12.7
12.1
5.57
-3.68
-12.3
-17.69
-18.39
-14.24
-6.01
4.83
16.66
27.96
37.76
45.83
52.68
59.19
66.08
73.38
80.18
84.84
85.49
80.61
69.59
52.95
32.22
9.65
-12.33
-31.65
-47.27
-59.43
-69.67
-80.03
-92.09
-106.02
-120.3
-132.36
-139.66
-140.74
-135.65
-125.63
-112.35
-97.17
-81.05
-64.78
-49.38
-36.1
-26.12
-20.02
-17.39
-16.97
-17.17
-16.57
-14.41
-10.66
-5.79
-0.48
4.69
9.34
13.21
16.11
17.8
17.99
16.48
13.27
8.59
2.91
-3.19
-9.23
-14.96
-20.51
-26.3
-32.94
-40.86
-50.07
-59.93
-69.21
-76.38
-80.09
-79.53
-74.79
-66.8
-57.15
-47.66
-39.91
-34.78
-32.27
-31.6
-31.56
-31.02
-29.35
-26.47
-22.52
-17.41
-10.59
-1.19
11.47
27.28
45.13
63.15
79.45
92.72
102.6
109.43
113.85
116.26
116.59
114.46
109.41
101.24
90.07
76.43
61.16
45.47
30.95
19.3
12.04
9.92
12.61
18.66
26.01
32.66
37.27
39.43
39.48
38.15
36.19
34.27
32.99
33
34.86
38.83
44.65
51.51
58.3
64.03
68.18
70.91
72.81
74.63
76.9
79.71
82.73
85.37
87
87.12
85.52
82.25
77.56
71.84
65.5
58.91
52.42
46.25
40.55
35.31
30.36
25.42
20.12
14.2
7.65
0.91
-5.1
-9.15
-10.04
-7.14
-0.73
8.02
17.31
25.52
31.66
35.71
38.32
40.37
42.29
43.93
44.71
44.08
41.9
38.66
35.25
32.61
31.31
31.5
32.84
34.61
35.77
34.91
30.37
20.48
4
-19.26
-48.08
-79.88
-111.36
-139.35
-161.69
-177.65
-187.84
-193.66
-196.67
-198.14
-198.95
-199.69
-200.79
-202.31
-203.76
-203.78
-200.36
-191.37
-175.37
-152.15
-122.85
-89.43
-54.03
-18.26
16.98
51.23
84.13
114.97
142.68
166.09
184.28
196.98
204.6
208.08
208.57
207.06
204.1
199.83
194.12
186.92
178.47
169.39
160.5
152.45
145.42
138.94
132.11
123.87
113.55
101.11
87.2
72.86
59.08
46.46
35.04
24.5
14.45
4.83
-3.9
-10.84
-14.88
-15.19
-11.58
-4.9
3.15
10.31
14.43
14.09
8.87
-0.65
-13.28
-27.63
-42.39
-56.45
-68.83
-78.61
-85
-87.54
-86.31
-82
-75.84
-69.22
-63.35
-58.92
-56.03
-54.23
-52.92
-51.63
-50.26
-49.12
-48.7
-49.34
-51.03
-53.39
-55.85
-57.93
-59.43
-60.51
-61.56
-63.13
-65.69
-69.53
-74.51
-80
-84.79
-87.33
-86
-79.71
-68.23
-52.44
-34.12
-15.45
1.5
15.28
25.24
31.49
34.58
35.3
34.48
32.91
31.45
30.88
31.89
34.8
39.43
45.09
50.79
55.67
59.22
61.48
62.88
63.93
64.87
65.54
65.44
63.95
60.54
54.88
46.86
36.4
23.4
7.73
-10.56
-30.99
-52.49
-73.57
-92.56
-107.92
-118.55
-123.74
-123.18
-116.98
-105.8
-90.98
-74.46
-58.45
-44.77
-34.37
-27.1
-22.06
-18.17
-14.79
-11.84
-9.62
-8.31
-7.62
-6.84
-5.13
-1.96
2.55
7.74
12.67
16.6
19.32
21.12
22.5
23.84
25.06
25.68
25.1
22.98
19.46
15.18
10.94
7.33
4.47
1.96
-0.9
-4.76
-9.99
-16.48
-23.65
-30.58
-36.17
-39.39
-39.46
-36.14
-29.77
-21.37
-12.31
-4.03
2.39
6.45
8.21
7.99
6.16
2.77
-2.26
-8.97
-17.07
-25.81
-34.23
-41.53
-47.44
-52.3
-56.86
-61.81
-67.38
-73.27
-78.78
-83.12
-85.68
-86.21
-84.79
-81.74
-77.57
-72.87
-68.22
-64.11
-60.9
-58.77
-57.85
-58.29
-60.26
-63.81
-68.6
-73.75
-77.88
-79.46
-77.31
-71.05
-61.28
-49.34
-36.85
-25.23
-15.3
-7.3
-1.09
3.49
6.49
7.75
7.17
4.91
1.56
-1.94
-4.54
-5.47
-4.48
-1.98
1.23
4.17
6.1
6.66
5.84
3.81
0.71
-3.38
-8.43
-14.24
-20.34
-25.93
-30.16
-32.49
-33.05
-32.78
-33.16
-35.75
-41.47
-50.1
-60.14
-69.15
-74.58
-74.53
-68.35
-56.77
-41.45
-24.4
-7.35
8.46
22.23
33.4
41.48
46.09
47.28
45.68
42.49
39.15
36.85
36.21
37.17
39.25
41.85
44.49
46.89
48.81
49.94
49.87
48.17
44.57
39.11
32.13
24.19
15.92
7.87
0.38
-6.52
-13.11
-19.87
-27.34
-35.85
-45.21
-54.6
-62.57
-67.3
-67.2
-61.39
-50.14
-34.85
-17.63
-0.65
14.44
26.9
36.75
44.41
50.18
54.05
55.71
55.01
52.28
48.5
45.02
43.06
43.24
45.3
48.24
50.76
51.77
50.68
47.48
42.58
36.53
29.74
22.46
14.79
6.75
-1.65
-10.41
-19.59
-29.3
-39.64
-50.46
-61.19
-70.59
-76.99
-78.73
-74.83
-65.42
-51.85
-36.21
-20.65
-6.71
5.03
14.74
22.91
29.85
35.45
39.3
41.12
41.06
39.85
38.56
38.2
39.38
42.04
45.59
49.16
51.94
53.44
53.5
52.24
49.88
46.66
42.71
38.15
32.99
27.17
20.59
13.06
4.43
-5.29
-15.72
-25.95
-34.52
-39.68
-39.89
-34.38
-23.53
-8.84
7.51
23.34
37.01
47.81
55.69
60.98
63.99
64.9
63.95
61.58
58.58
55.87
54.21
53.87
54.58
55.66
56.34
56.04
54.5
51.74
47.9
43.07
37.23
30.31
22.29
13.27
3.55
-6.5
-16.5
-26.22
-35.64
-44.91
-54.28
-63.85
-73.44
-82.43
-89.85
-94.52
-95.34
-91.52
-82.8
-69.47
-52.36
-32.61
-11.52
9.69
29.96
48.52
64.92
79.09
91.31
102.16
112.36
122.55
133.04
143.64
153.67
162.11
167.95
170.5
169.59
165.58
159.05
150.59
140.62
129.27
116.66
103.02
88.8
74.54
60.63
47.1
33.43
18.8
2.29
-16.65
-37.99
-60.76
-83.17
-102.76
-116.97
-123.77
-122.33
-113.46
-99.42
-83.27
-67.98
-55.54
-46.61
-40.69
-36.81
-34.19
-32.67
-32.6
-34.45
-38.38
-43.95
-50.18
-55.81
-59.59
-60.54
-58.18
-52.61
-44.61
-35.52
-27
-20.5
-16.96
-16.53
-18.67
-22.5
-27.14
-31.89
-36.16
-39.41
-41.1
-40.9
-38.92
-35.92
-33.09
-31.64
-32.15
-34.17
-36.26
-36.38
-32.75
-24.48
-11.99
3.1
18.65
32.67
44.04
52.71
59.4
65.05
70.27
75.03
78.84
81.14
81.68
80.76
79.17
77.89
77.79
79.44
82.98
88.22
94.67
101.69
108.58
114.75
119.8
123.58
126.23
128.07
129.42
130.49
131.1
130.57
127.52
120.12
106.66
86.29
59.74
29.44
-0.95
-27.74
-48.16
-61.13
-67.04
-67.14
-62.77
-55.08
-45.07
-33.9
-23.06
-14.03
-7.86
-4.67
-3.69
-3.84
-4.22
-4.64
-5.54
-7.57
-11.05
-15.7
-20.71
-25.21
-28.78
-31.59
-34.31
-37.65
-41.92
-46.89
-51.94
-56.38
-59.78
-62.04
-63.25
-63.47
-62.68
-60.85
-58.06
-54.53
-50.5
-46.05
-41.03
-35.22
-28.57
-21.41
-14.3
-7.7
-1.66
4.32
11.03
18.97
28.02
37.24
45.36
51.23
54.4
55.15
54.34
52.91
51.55
50.55
49.85
49.28
48.74
48.3
48.16
48.61
49.85
51.89
54.53
57.41
60.08
62.14
63.21
62.98
61.24
57.9
53.14
47.42
41.44
35.81
30.76
25.82
19.89
11.55
-0.29
-15.76
-33.69
-51.83
-67.41
-78.01
-82.23
-80.01
-72.46
-61.43
-48.83
-36.3
-24.92
-15.37
-7.98
-2.98
-0.38
0.02
-1.31
-3.59
-6
-7.79
-8.52
-8.12
-6.77
-4.81
-2.53
-0.12
2.31
4.63
6.66
8.16
8.9
8.77
7.83
6.3
4.47
2.64
0.93
-0.75
-2.74
-5.5
-9.45
-14.73
-21.03
-27.61
-33.34
-37.09
-37.99
-35.72
-30.63
-23.62
-15.86
-8.49
-2.33
2.24
5.16
6.64
6.84
5.89
3.89
1.01
-2.38
-5.73
-8.43
-10
-10.26
-9.4
-7.86
-6.19
-4.83
-4.05
-3.89
-4.3
-5.2
-6.56
-8.38
-10.62
-13.13
-15.69
-18.01
-19.96
-21.62
-23.33
-25.59
-28.88
-33.42
-39
-44.99
-50.39
-54.06
-55.04
-52.78
-47.36
-39.47
-30.26
-20.97
-12.63
-5.73
-0.38
3.65
6.56
8.46
9.35
9.26
8.45
7.41
6.74
6.99
8.41
10.95
14.32
18.09
21.79
25.01
27.42
28.92
29.64
29.97
30.38
31.21
32.49
33.96
35.18
35.74
35.35
33.86
31.17
27.17
21.82
15.34
8.31
1.62
-3.76
-7.14
-8.33
-7.63
-5.67
-3.08
-0.33
2.37
4.82
6.8
7.93
7.87
6.45
3.78
0.27
-3.56
-7.24
-10.47
-13.03
-14.8
-15.59
-15.31
-13.96
-11.87
-9.6
-7.8
-7.11
-7.86
-10.13
-13.73
-18.29
-23.35
-28.42
-33.12
-37.19
-40.68
-43.87
-47.17
-50.74
-54.25
-56.89
-57.52
-55.21
-49.65
-41.36
-31.57
-21.79
-13.31
-6.85
-2.54
-0.09
0.86
0.63
-0.61
-2.7
-5.36
-8.15
-10.48
-11.86
-12.06
-11.25
-9.99
-9.01
-8.99
-10.24
-12.75
-16.13
-19.89
-23.55
-26.84
-29.65
-32.05
-34.18
-36.23
-38.41
-40.98
-44.11
-47.87
-52.02
-55.97
-58.78
-59.39
-56.99
-51.25
-42.57
-31.96
-20.81
-10.43
-1.68
5.04
9.84
13.02
14.9
15.72
15.66
14.98
14.09
13.45
13.47
14.31
15.79
17.47
18.88
19.66
19.74
19.28
18.53
17.57
16.3
14.4
11.57
7.73
3.14
-1.61
-5.86
-9.26
-11.93
-14.47
-17.7
-22.31
-28.45
-35.55
-42.44
-47.6
-49.66
-47.82
-42.12
-33.42
-23.1
-12.64
-3.21
4.59
10.71
15.38
18.84
21.14
22.17
21.81
20.17
17.73
15.23
13.46
12.97
13.82
15.57
17.46
