28.1
19.44
9.18
-2.06
-13.7
-25.37
-37.05
-48.98
-61.46
-74.71
-88.6
-102.55
-115.53
-126.14
-132.86
-134.42
-130.22
-120.73
-107.64
-93.53
-81.27
-73.19
-70.37
-72.43
-77.74
-84
-88.85
-90.42
-87.56
-79.89
-67.9
-52.81
-36.36
-20.36
-6.18
5.71
15.81
25.24
35.22
46.6
59.6
73.73
88.11
101.9
114.64
126.55
138.27
150.48
163.28
175.98
187.24
195.63
200.29
201.24
199.26
195.29
189.88
182.95
174
162.64
148.98
133.77
118.11
103.01
89.05
76.31
64.47
53.07
41.85
30.85
20.41
11.06
3.39
-2.09
-4.96
-5.07
-2.58
1.82
6.9
10.99
12.42
9.94
3.22
-7.01
-19.08
-30.88
-40.42
-46.29
-48
-45.92
-41.1
-34.99
-29.05
-24.49
-22.04
-21.89
-23.76
-27.03
-31.06
-35.32
-39.52
-43.6
-47.63
-51.63
-55.57
-59.32
-62.72
-65.62
-67.87
-69.36
-69.99
-69.72
-68.63
-66.84
-64.54
-61.77
-58.43
-54.31
-49.22
-43.16
-36.45
-29.59
-23.16
-17.6
-13.02
-9.32
-6.25
-3.58
-1.21
0.8
2.35
3.26
3.37
2.44
0.24
-3.43
-8.55
-14.76
-21.46
-27.86
-33.35
-37.65
-40.86
-43.41
-45.78
-48.33
-51.19
-54.32
-57.57
-60.72
-63.48
-65.42
-66.02
-64.63
-60.68
-53.79
-43.86
-31.13
-16.11
0.53
18.12
36.1
54.07
71.77
88.95
105.24
120.15
133.15
143.74
151.69
157.05
160.22
161.75
162.32
162.56
162.93
163.67
164.72
165.76
166.25
165.54
162.96
157.99
150.4
140.38
128.54
115.79
103.08
91.12
80.17
70.07
60.55
51.41
42.81
35.22
29.25
25.38
23.83
24.53
27.16
31.2
36.02
41.04
46.01
51.23
57.59
66.26
78.06
92.71
108.29
121.34
127.45
122.53
104.15
72.52
30.66
-16.38
-63.01
-104.68
-138.93
-165.66
-186.44
-203.32
-217.74
-230
-239.23
-243.96
-242.66
-234.25
-218.43
-195.81
-167.97
-137.29
-106.53
-78.15
-53.71
-33.48
-16.5
-1.08
14.49
31.15
48.66
65.61
79.83
89.25
92.6
89.76
81.71
69.94
55.77
40.01
23.15
5.78
-10.96
-25.42
-35.92
-41.55
-42.55
-40.25
-36.73
-34.24
-34.77
-39.83
-50.08
-65.03
-82.68
-99.74
-112.47
-118.03
-115.54
-106.45
-93.9
-81.33
-71.11
-64.02
-59.49
-56.43
-54.17
-52.55
-51.68
-51.53
-51.79
-52.06
-52.31
-53.15
-55.74
-61.61
-71.64
-85.77
-102.82
-120.85
-137.98
-153.07
-165.94
-177.38
-189.1
-202.3
-217.48
-233.82
-249.44
-262.29
-270.76
-273.96
-271.75
-265.02
-254.19
-239.38
-219.75
-193.94
-161.25
-122.29
-78.98
-29.97
23.48
79.16
134.13
186.34
235.49
282.03
326.29
367.66
403.94
431.38
450.21
459.52
459.43
452.11
440.88
429.66
422.34
421.09
425.83
434.98
445.2
449.45
442.69
421.74
386.05
338.34
282.1
221.12
158.84
97.1
36.67
-21.79
-77.79
-130.55
-178.08
-220.22
-257.59
-291.33
-323.13
-354.41
-385.55
-416.5
-447.16
-469.2
-477.41
-469.08
-444.36
-406.03
-358.01
-303.78
-246.21
-193.41
-145.74
-103.91
-69.01
-42.46
-25.52
-18.76
-21.52
-30.54
-42.28
-51.86
-56.92
-56.87
-53
-48.03
-45.15
-47.02
-55.19
-69.95
-89.33
-111.23
-132.56
-149.44
-158.01
-155.49
-141.07
-116.19
-84.09
-47.95
-11.01
24.58
57.96
89.19
118.69
146.91
174.12
200.15
224.63
246.38
263.82
275.49
280.44
278.55
270.61
258.12
242.94
227.04
211.8
197.81
184.81
171.85
157.99
142.84
126.97
111.77
98.87
89.35
83.25
79.58
76.9
73.92
70.01
65.14
59.52
53.35
46.65
39.48
32.05
24.75
18
12.07
6.86
2.1
-2.59
-7.42
-12.45
-17.57
-22.62
-27.42
-31.69
-35.13
-37.34
-38.02
-37
-34.3
-30.08
-24.6
-18.12
-10.91
-3.29
4.36
11.57
17.89
22.94
26.5
28.51
29.1
28.58
27.41
26.14
25.3
25.22
26.03
27.61
29.69
31.96
34.19
36.17
37.75
38.75
39.04
38.54
37.32
35.58
33.56
31.35
28.88
25.84
21.79
16.32
9.14
0.31
-9.76
-20.29
-30.29
-38.84
-45.31
-49.65
-52.29
-54.04
-55.7
-57.78
-60.42
-63.47
-66.73
-70.17
-73.9
-78.14
-83.01
-88.53
-94.58
-100.96
-107.36
-113.34
-118.26
-121.36
-121.95
-119.69
-114.68
-107.46
-98.82
-89.54
-80.24
-71.3
-62.93
-55.25
-48.28
-41.92
-35.99
-30.22
-24.4
-18.44
-12.42
-6.49
-0.77
4.71
10.05
15.41
20.91
26.56
32.28
37.88
43.17
47.95
52.07
55.35
57.67
58.91
59.06
58.21
56.56
54.29
51.55
48.34
44.55
40.08
34.93
29.34
23.85
19.09
15.67
13.91
13.78
14.95
16.91
19.2
21.46
23.52
25.32
26.83
28.1
29.19
30.18
31.16
32.13
33.03
33.68
33.91
33.51
32.34
30.28
27.2
23.03
17.83
11.81
5.37
-1
-6.9
-12.09
-16.57
-20.51
-24.12
-27.51
-30.71
-33.62
-36.19
-38.49
-40.65
-42.84
-45.12
-47.33
-49.05
-49.72
-48.78
-45.87
-40.97
-34.42
-26.75
-18.58
-10.37
-2.45
5.01
11.85
17.85
22.76
26.35
28.57
29.57
29.69
29.3
28.68
27.93
27.03
25.89
24.52
23.03
21.6
20.41
19.54
18.92
18.37
17.62
16.41
14.58
12.05
8.88
5.23
1.35
-2.5
-6.12
-9.34
-12.13
-14.56
-16.76
-18.89
-21.07
-23.27
-25.28
-26.79
-27.42
-26.92
-25.22
-22.53
-19.21
-15.69
-12.33
-9.32
-6.76
-4.67
-3.08
-2.04
-1.64
-1.92
-2.84
-4.27
-6.01
-7.87
-9.71
-11.56
-13.57
-15.98
-19
-22.68
-26.89
-31.36
-35.77
-39.85
-43.34
-46.05
-47.74
-48.21
-47.3
-45.02
-41.59
-37.41
-33.02
-28.94
-25.55
-23.03
-21.3
-20.07
-18.86
-17.17
-14.54
-10.77
-5.88
-0.13
6.09
12.4
18.49
24.14
29.23
33.75
37.74
41.39
44.93
48.59
52.43
56.28
59.72
62.27
63.57
63.56
62.47
60.71
58.61
56.3
53.67
50.44
46.4
41.55
36.09
30.34
24.62
19.07
13.72
8.46
3.19
-2.16
-7.64
-13.19
-18.71
-24
-28.77
-32.68
-35.41
-36.78
-36.79
-35.61
-33.56
-30.96
-28.08
-25.17
-22.39
-19.93
-17.9
-16.26
-14.78
-13.1
-10.76
-7.45
-3.07
2.09
7.5
12.51
16.59
19.48
21.17
21.85
21.72
20.91
19.43
17.25
14.44
11.2
7.9
4.91
2.5
0.68
-0.77
-2.18
-3.82
-5.78
-7.88
-9.7
-10.72
-10.5
-8.82
-5.77
-1.71
2.87
7.52
11.9
15.86
19.32
22.25
24.56
26.08
26.65
26.12
24.43
21.57
17.57
12.55
6.68
0.25
-6.34
-12.58
-18.05
-22.45
-25.78
-28.29
-30.33
-32.28
-34.27
-36.22
-37.86
-38.96
-39.4
-39.26
-38.77
-38.15
-37.55
-37
-36.39
-35.63
-34.58
-33.05
-30.84
-27.68
-23.35
-17.8
-11.29
-4.31
2.45
8.36
12.98
16.21
18.23
19.37
19.96
20.26
20.35
20.21
19.82
19.15
18.22
17.09
15.83
14.52
13.22
11.98
10.8
9.7
8.7
7.78
6.88
5.9
4.71
3.23
1.45
-0.55
-2.65
-4.74
-6.82
-9
-11.42
-14.14
-17.12
-20.09
-22.63
-24.27
-24.62
-23.47
-20.85
-17.01
-12.37
-7.41
-2.58
1.75
5.34
8.11
10.11
11.45
12.29
12.75
12.91
12.82
12.52
12.08
11.55
11.01
10.52
10.13
9.85
9.64
9.42
9.06
8.4
7.31
5.77
3.89
1.85
-0.15
-1.95
-3.55
-5.04
-6.65
-8.57
-10.95
-13.77
-16.82
-19.7
-21.93
-23.05
-22.73
-20.87
-17.59
-13.21
-8.22
-3.09
1.71
5.87
9.19
11.67
13.39
14.48
15.03
15.11
14.74
14.02
13.08
12.11
11.28
10.68
10.36
10.23
10.2
10.14
9.96
9.58
8.94
8.02
6.85
5.53
4.15
2.79
1.43
-0.04
-1.8
-3.97
-6.55
-9.44
-12.42
-15.27
-17.78
-19.72
-20.82
-20.8
-19.42
-16.66
-12.74
-8.12
-3.34
1.16
5.15
8.57
11.44
13.76
15.48
16.51
16.86
16.65
16.12
15.54
15.14
14.97
14.96
14.94
14.75
14.32
13.69
13
12.35
11.8
11.3
10.75
10
8.96
7.57
5.89
4.03
2.15
0.38
-1.18
-2.55
-3.8
-5.05
-6.45
-8.08
-9.92
-11.81
-13.47
-14.45
-14.31
-12.73
-9.63
-5.23
-0.01
5.45
10.67
15.36
19.39
22.7
25.2
26.77
27.32
26.93
25.84
24.43
23.02
21.84
20.95
20.29
19.79
19.37
19.01
18.68
18.28
17.66
16.67
15.15
12.98
10.11
6.55
2.37
-2.32
-7.3
-12.33
-17.12
-21.42
-25.09
-28.12
-30.7
-33.05
-35.41
-37.81
-40.1
-41.89
-42.69
-42.02
-39.64
-35.53
-29.92
-23.27
-16.11
-8.99
-2.34
3.6
8.79
13.34
17.46
21.35
25.13
28.86
32.55
36.16
39.65
42.9
45.81
48.26
50.23
51.68
52.65
53.1
52.95
52.07
50.38
47.87
44.68
40.98
36.95
32.66
28.04
23.03
17.58
11.73
5.58
-0.76
-7.29
-14.08
-21.26
-28.92
-37.05
-45.48
-53.93
-62.03
-69.4
-75.61
-80.27
-83
-83.51
-81.74
-77.87
-72.35
-65.83
-58.98
-52.38
-46.33
-40.89
-35.92
-31.18
-26.56
-22
-17.56
-13.29
-9.16
-5.07
-0.87
3.51
8.09
12.77
17.4
21.81
25.88
29.51
32.62
35.2
37.29
38.95
40.34
41.59
42.83
44.11
45.4
46.58
47.5
47.94
47.71
46.65
44.73
42
38.58
34.62
30.18
25.28
19.9
14.05
7.87
1.65
-4.25
-9.42
-13.51
-16.33
-17.86
-18.25
-17.77
-16.78
-15.64
-14.73
-14.38
-14.88
-16.43
-19.18
-23.19
-28.49
-35.06
-42.74
-51.19
-59.84
-67.89
-74.45
-78.77
-80.46
-79.53
-76.3
-71.2
-64.6
-56.8
-48.09
-38.87
-29.68
-21.08
-13.46
-6.91
-1.19
4.09
9.23
14.34
19.28
23.82
27.75
31.03
33.75
36.06
38.07
39.76
41.05
41.83
42.03
41.75
41.23
40.8
40.89
41.85
43.92
47.09
51.1
55.53
59.85
63.66
66.7
68.93
70.41
71.21
71.35
70.76
69.34
66.97
63.59
59.18
53.73
47.3
39.99
31.99
23.49
14.67
5.58
-3.88
-13.81
-24.3
-35.2
-46.21
-56.84
-66.65
-75.33
-82.82
-89.27
-94.92
-100
-104.63
-108.75
-112.11
-114.4
-115.25
-114.4
-111.66
-106.95
-100.23
-91.59
-81.2
-69.43
-56.79
-43.91
-31.33
-19.44
-8.37
1.88
11.37
20.09
27.96
34.88
40.79
45.66
49.52
52.37
54.2
55.07
55.12
54.65
53.95
53.26
52.63
51.89
50.76
48.96
46.32
42.87
38.76
34.24
29.52
24.7
19.79
14.7
9.35
3.67
-2.29
-8.41
-14.45
-20.14
-25.07
-28.79
-30.8
-30.74
-28.46
-24.12
-18.29
-11.73
-5.32
0.23
4.5
7.4
9.15
10.06
10.37
10.17
9.4
7.9
5.6
2.51
-1.16
-5.11
-9
-12.48
-15.26
-17.13
-18.02
-18.01
-17.34
-16.32
-15.21
-14.15
-13.1
-11.9
-10.34
-8.35
-6.01
-3.64
-1.65
-0.42
-0.12
-0.59
-1.33
-1.63
-0.75
1.77
5.98
11.53
17.69
23.63
28.54
31.81
33.12
32.44
30.05
26.5
22.38
18.28
14.53
11.26
8.37
5.74
3.27
1.06
-0.7
-1.79
-2.1
-1.72
-0.91
-0.07
0.49
0.6
0.22
-0.56
-1.63
-2.94
-4.49
-6.31
-8.45
-10.93
-13.77
-16.96
-20.44
-24.01
-27.34
-29.89
-31.08
-30.38
-27.53
-22.6
-16.09
-8.78
-1.53
4.89
10.03
13.81
16.46
18.3
19.61
20.51
21
21
20.55
19.74
18.75
17.72
16.73
15.81
14.96
14.21
13.63
13.28
13.17
13.22
13.29
13.2
12.86
12.24
11.47
10.69
9.99
9.32
8.46
7.07
4.88
1.76
-2.16
-6.53
-10.82
-14.43
-16.83
-17.65
-16.73
-14.22
-10.45
-5.91
-1.15
3.37
7.28
10.32
12.35
13.32
13.3
12.47
11.09
9.47
7.9
6.57
5.56
4.84
4.3
3.79
3.2
2.46
1.61
0.73
-0.11
-0.92
-1.81
-2.93
-4.41
-6.26
-8.36
-10.51
-12.48
-14.19
-15.63
-16.98
-18.43
-20.21
-22.44
-25.07
-27.86
-30.34
-31.9
-31.93
-29.97
-25.93
-20.09
-13.1
-5.74
1.27
7.37
12.27
15.88
18.28
19.61
20.08
19.93
19.37
18.6
17.76
16.92
16.13
15.4
14.73
14.08
13.41
12.68
11.82
10.83
9.68
8.37
6.88
5.15
3.15
0.85
-1.69
-4.33
-6.88
-9.17
-11.1
-12.73
-14.32
-16.18
-18.63
-21.77
-25.37
-28.87
-31.48
-32.42
-31.19
-27.71
-22.31
-15.7
-8.66
-1.93
4.01
8.91
12.75
15.62
17.7
19.16
20.18
20.94
21.64
22.46
23.55
25
26.82
28.96
31.31
33.77
36.19
38.43
40.32
41.65
42.15
41.62
39.94
37.14
33.42
29.13
24.58
19.95
15.2
10.09
4.27
-2.55
-10.45
-19.32
-28.75
-38.18
-46.8
-53.72
-58.06
-59.23
-57.12
-52.22
-45.53
-38.25
-31.39
-25.45
-20.43
-15.98
-11.77
-7.67
-3.84
-0.57
1.91
3.63
4.87
6.03
7.45
9.27
11.42
13.7
15.87
17.79
19.37
20.58
21.38
21.7
21.48
20.71
19.45
17.86
16.11
14.34
12.57
10.7
8.53
5.85
2.53
-1.33
-5.35
-8.92
-11.33
-11.94
-10.48
-7.07
-2.27
3.12
8.31
12.72
16.03
18.18
19.32
19.63
19.34
18.64
17.69
16.56
15.32
14
12.64
11.33
10.16
9.21
8.48
7.85
7.16
6.21
4.81
2.87
0.37
-2.64
-5.99
-9.51
-13.06
-16.51
-19.8
-22.88
-25.71
-28.28
-30.64
-32.89
-35.11
-37.2
-38.84
-39.47
-38.52
-35.56
-30.59
-24.01
-16.51
-8.85
-1.66
4.63
9.81
13.77
16.44
17.82
17.96
17.06
15.41
13.33
11.15
9.07
7.22
5.68
4.49
3.69
3.32
3.26
3.32
3.23
2.74
1.73
0.25
-1.49
-3.29
-4.99
-6.54
-7.98
-9.38
-10.82
-12.42
-14.3
-16.59
-19.26
-22.01
-24.22
-25.13
-24.1
-20.87
-15.72
-9.39
-2.81
3.2
8.13
11.81
14.29
15.73
16.25
15.92
14.81
13.01
10.72
8.19
5.71
3.53
1.84
0.66
-0.08
-0.57
-1
-1.51
-2.22
-3.15
-4.29
-5.55
-6.82
-7.87
-8.51
-8.61
-8.19
-7.51
-6.86
-6.56
-6.74
-7.26
-7.69
-7.38
-5.66
-2.03
3.63
11.05
19.52
28.1
35.81
41.84
45.71
47.29
46.75
44.42
40.72
36.01
30.66
24.99
19.29
13.79
8.67
3.99
-0.35
-4.47
-8.49
-12.42
-16.12
-19.4
-22.15
-24.37
-26.29
-28.18
-30.26
-32.58
-35.01
-37.31
-39.25
-40.69
-41.67
-42.31
-42.81
-43.25
-43.54
-43.36
-42.17
-39.37
-34.58
-27.8
-19.49
-10.43
-1.53
6.48
13.19
18.54
22.64
25.7
27.86
29.19
29.79
29.82
29.5
29.09
28.74
28.51
28.32
28.06
27.65
27.11
26.59
26.31
26.45
27.08
28.1
29.26
30.26
30.79
30.66
29.87
28.52
26.84
24.99
23.03
20.91
18.45
15.43
11.66
7.03
1.58
-4.43
-10.51
-15.92
-19.89
-21.82
-21.48
-19.12
-15.41
-11.16
-7.12
-3.75
-1.25
0.43
1.35
1.56
1.04
-0.19
-1.99
-4.1
-6.14
-7.78
-8.78
-9.13
-8.99
-8.6
-8.16
-7.78
-7.48
-7.26
-7.18
-7.36
-7.94
-8.99
-10.43
-12.02
-13.47
-14.53
-15.06
-15.14
-14.94
-14.71
-14.61
-14.77
-15.26
-16.14
-17.46
-19.19
-21.14
-22.92
-23.94
-23.61
-21.5
-17.53
-12.04
-5.69
0.73
6.53
11.29
14.92
17.55
19.4
20.66
21.39
21.54
21.11
20.15
18.89
17.59
16.52
15.79
15.36
15.1
14.85
14.53
14.12
13.67
13.17
12.55
11.72
10.56
9.04
7.19
5.12
2.93
0.69
-1.62
-4
-6.47
-9.04
-11.71
-14.5
-17.47
-20.75
-24.43
-28.54
-32.86
-37.01
-40.42
-42.49
-42.8
-41.2
-37.93
-33.48
-28.49
-23.49
-18.84
-14.63
-10.79
-7.21
-3.77
-0.45
2.74
5.75
8.56
11.12
13.39
15.28
16.73
17.73
18.37
18.89
19.64
21.03
23.42
26.95
31.44
36.42
41.2
45.09
47.55
48.36
47.57
45.45
42.34
38.53
34.2
29.44
24.31
18.92
13.44
8.08
3.06
-1.44
-5.27
-8.31
-10.38
-11.26
-10.78
-8.85
-5.66
-1.66
2.55
6.35
9.31
11.26
12.29
12.57
12.22
11.27
9.65
7.34
4.46
1.42
-1.29
-3.21
-4.08
-3.98
-3.14
-1.91
-0.5
1.01
2.64
4.37
6.12
7.75
9.15
10.29
11.18
11.89
12.41
12.69
12.64
12.21
11.39
10.22
8.7
6.81
4.49
1.7
-1.52
-5.02
-8.51
-11.56
-13.69
-14.44
-13.59
-11.24
-7.85
-4.06
-0.51
2.36
4.41
5.75
6.53
6.81
6.58
5.76
4.32
2.41
0.26
-1.8
-3.5
-4.7
-5.46
-5.92
-6.31
-6.79
-7.43
-8.21
-9.06
-9.93
-10.88
-12.01
-13.39
-15
-16.64
-18.05
-19
-19.4
-19.34
-19.13
-19.15
-19.71
-21
-22.92
-25.15
-27.16
-28.4
-28.39
-26.83
-23.7
-19.2
-13.76
-7.91
-2.16
3.01
7.32
10.62
12.93
14.3
14.82
14.59
13.69
12.26
10.49
8.62
6.91
5.53
4.59
4.07
3.88
3.9
4.04
4.16
4.11
3.71
2.77
1.21
-0.88
-3.26
-5.63
-7.78
-9.67
-11.44
-13.33
-15.5
-17.99
-20.66
-23.24
-25.43
-26.93
-27.43
-26.66
-24.42
-20.72
-15.8
-10.2
-4.58
0.43
4.43
7.35
9.4
10.88
12.04
12.94
13.48
13.55
13.12
12.37
11.57
11.01
10.84
11.03
11.44
11.85
12.11
12.12
11.83
11.23
10.31
9.02
7.33
5.21
2.63
-0.4
-3.82
-7.58
-11.63
-15.93
-20.41
-24.93
-29.19
-32.79
-35.23
-36.1
-35.24
-32.74
-28.96
-24.43
-19.65
-15.02
-10.83
-7.23
-4.31
-2.12
-0.7
-0.01
0.07
-0.29
-0.89
-1.56
-2.22
-2.87
-3.57
-4.38
-5.29
-6.25
-7.2
-8.1
-9
-9.97
-11.1
-12.4
-13.82
-15.26
-16.63
-17.88
-19.03
-20.09
-21.08
-21.95
-22.7
-23.27
-23.59
-23.48
-22.65
-20.73
-17.44
-12.68
-6.69
0.03
6.81
13.05
18.29
22.28
24.91
26.15
25.99
24.5
21.88
18.48
14.8
11.36
8.58
6.71
5.75
5.61
6.15
7.31
9.11
11.57
14.61
17.98
21.28
24.04
25.92
26.77
26.66
25.86
24.64
23.15
21.42
19.3
16.58
13.09
8.75
3.65
-1.91
-7.48
-12.44
-16.12
-18.02
-17.87
-15.86
-12.49
-8.49
-4.55
-1.11
1.72
4.08
6.14
8
9.6
10.72
11.23
11.13
10.59
9.91
9.38
9.16
9.24
9.51
9.82
10.07
10.21
10.2
9.95
9.27
7.93
5.73
2.68
-1.02
-4.98
-8.84
-12.37
-15.61
-18.81
-22.25
-26.12
-30.41
-34.86
-39.11
-42.72
-45.25
-46.28
-45.45
-42.51
-37.48
-30.7
-22.8
-14.54
-6.61
0.55
6.82
12.28
17.08
21.32
25.01
28.13
30.66
32.64
34.13
35.17
35.74
35.8
35.28
34.21
32.71
30.94
29.13
27.4
25.78
24.11
22.17
19.71
16.64
13.04
9.13
5.19
1.44
-2.05
-5.34
-8.54
-11.74
-15.01
-18.36
-21.76
-25.1
-28.11
-30.36
-31.3
-30.47
-27.67
-23.07
-17.24
-10.93
-4.84
0.58
5.15
8.94
12.09
14.67
16.63
17.89
18.4
18.24
17.61
16.75
15.85
14.98
14.15
13.34
12.55
11.8
11.11
10.43
9.63
8.57
7.12
5.23
2.92
0.27
-2.61
-5.61
-8.59
-11.47
-14.22
-16.9
-19.66
-22.63
-25.8
-28.91
-31.47
-32.83
-32.47
-30.1
-25.82
-20.05
-13.44
-6.64
-0.27
5.26
9.71
13.03
15.31
16.74
17.54
17.86
17.84
17.5
16.89
16.06
15.07
14.03
13.02
12.11
11.35
10.72
10.22
9.79
9.35
8.78
7.96
6.82
5.31
3.46
1.35
-0.87
-3.07
-5.19
-7.28
-9.52
-12.09
-15.01
-18.08
-20.79
-22.51
-22.65
-20.89
-17.34
-12.4
-6.69
-0.83
4.66
9.43
13.28
16.17
18.21
19.52
20.26
20.5
20.24
19.44
18.12
16.41
14.57
12.88
11.58
10.76
10.36
10.22
10.17
10.04
9.7
9.03
7.92
6.33
4.28
1.91
-0.57
-2.96
-5.08
-6.87
-8.4
-9.86
-11.52
-13.63
-16.25
-19.24
-22.14
-24.38
-25.4
-24.81
-22.51
-18.74
-13.96
-8.75
-3.69
0.75
4.29
6.84
8.52
9.54
10.1
10.28
10.04
9.27
7.92
6.08
3.97
1.84
-0.14
-1.86
-3.34
-4.62
-5.73
-6.8
-8
-9.6
-11.78
-14.58
-17.86
-21.33
-24.71
-27.8
-30.59
-33.16
-35.63
-38.09
-40.59
-43.07
-45.36
-47.08
-47.69
-46.62
-43.38
-37.81
-30.1
-20.77
-10.55
-0.16
9.79
18.97
27.28
34.78
41.6
47.82
53.38
58.11
61.88
64.6
66.35
67.26
67.48
67.1
66.14
64.6
62.47
59.71
56.18
51.67
45.92
38.74
30.09
20.19
9.36
-1.95
-13.23
-24.03
-33.88
-42.43
-49.5
-55.11
-59.46
-62.79
-65.28
-66.85
-67.27
-66.16
-63.22
-58.34
-51.65
-43.52
-34.48
-25.14
-16.04
-7.67
-0.36
5.71
10.43
13.85
16.15
17.59
18.49
19.16
19.75
20.28
20.61
20.54
19.98
19.01
17.88
16.94
16.42
16.36
16.54
16.61
16.2
15.07
13.21
10.8
8.1
5.38
2.8
0.35
-2.05
-4.57
-7.37
-10.57
-14.17
-18.02
-21.78
-24.95
-26.97
-27.34
-25.8
-22.44
-17.67
-12.14
-6.55
-1.46
2.8
6.13
8.61
10.36
11.53
12.25
12.61
12.76
12.83
12.92
13.07
13.23
13.3
13.21
12.93
12.54
12.17
11.9
11.77
11.65
11.31
10.48
8.91
6.49
3.31
-0.35
-4.09
-7.48
-10.2
-12.14
-13.42
-14.36
-15.36
-16.8
-18.87
-21.6
-24.79
-28.02
-30.72
-32.25
-32.02
-29.7
-25.33
-19.32
-12.43
-5.49
0.79
6.01
10.07
13.15
15.52
17.4
18.91
20.07
20.84
21.19
21.15
20.79
20.24
19.68
19.25
19.05
19.11
19.36
19.68
19.96
20.05
19.85
19.31
18.39
17.1
15.46
13.55
11.44
9.27
7.15
5.16
3.33
1.62
-0.03
-1.76
-3.69
-6.01
-8.83
-12.21
-16.03
-19.93
-23.37
-25.69
-26.3
-24.85
-21.39
-16.3
-10.3
-4.17
1.39
5.88
9.14
11.25
12.45
12.99
13.05
12.66
11.82
10.54
8.99
7.41
6.1
5.24
4.88
4.9
5.12
5.35
5.46
5.39
5.13
4.73
4.23
3.65
2.96
2.09
0.91
-0.64
-2.53
-4.55
-6.41
-7.86
-8.77
-9.23
-9.5
-9.91
-10.77
-12.28
-14.45
-17.14
-19.97
-22.4
-23.83
-23.73
-21.79
-18.02
-12.75
-6.54
0.01
6.32
12.01
16.85
20.77
23.8
25.96
27.3
27.86
27.75
27.2
26.51
25.98
25.84
26.15
26.78
27.52
28.15
28.5
28.54
28.31
27.93
27.49
27.07
26.63
26.08
25.23
23.88
21.88
19.26
16.19
12.99
9.99
7.4
5.24
3.25
1.02
-1.91
-5.85
-10.89
-16.79
-23.04
-28.94
-33.78
-36.98
-38.29
-37.86
-36.26
-34.26
-32.62
-31.85
-32.07
-33.05
-34.4
-35.71
-36.74
-37.43
-37.81
-37.87
-37.55
-36.71
-35.25
-33.1
-30.29
-26.89
-22.97
-18.62
-13.97
-9.26
-4.83
-1.01
1.95
3.96
5.06
5.44
5.27
4.77
4.08
3.32
2.53
1.61
0.34
-1.55
-4.27
-7.74
-11.59
-15.13
-17.66
-18.6
-17.71
-15.1
-11.17
-6.4
-1.27
3.86
8.67
12.83
16.05
18.05
18.77
18.35
17.16
15.64
14.21
13.08
12.33
11.89
11.71
11.78
12.1
12.66
13.32
13.9
14.17
13.94
13.11
11.68
9.7
7.28
4.6
1.88
-0.69
-2.97
-4.94
-6.73
-8.58
-10.73
-13.32
-16.34
-19.49
-22.27
-24.09
-24.41
-22.92
-19.65
-15.01
-9.62
-4.21
0.67
4.69
7.79
10.1
11.79
13
13.83
14.29
14.43
14.33
14.14
14.08
14.27
14.79
15.55
16.41
17.18
17.77
18.17
18.41
18.48
18.29
17.64
16.34
14.38
11.87
9.09
6.3
3.55
0.66
-2.79
-7.2
-12.81
-19.49
-26.72
-33.72
-39.61
-43.64
-45.37
-44.72
-41.96
-37.65
-32.54
-27.42
-23
-19.72
-17.62
-16.39
-15.43
-14.09
-11.87
-8.58
-4.33
0.59
5.82
11.02
15.95
20.37
24.12
27.05
29.12
30.4
31.05
31.24
31.1
30.6
29.61
27.97
25.57
22.46
18.82
15.01
11.36
8.12
5.38
2.96
0.52
-2.29
-5.72
-9.72
-13.95
-17.78
-20.5
-21.53
-20.57
-17.72
-13.43
-8.36
-3.23
1.4
5.18
8.01
10
11.35
12.26
12.89
13.32
13.56
13.61
13.48
13.26
13.09
13.09
13.33
13.81
14.37
14.81
14.93
14.63
13.91
12.88
11.67
10.39
9.04
7.58
5.93
4.04
1.9
-0.4
-2.73
-4.97
-7.06
-8.96
-10.74
-12.52
-14.43
-16.63
-19.2
-22.08
-24.94
-27.26
-28.38
-27.77
-25.27
-21.16
-16.08
-10.8
-5.96
-1.87
1.41
3.99
5.99
7.46
8.38
8.82
8.88
8.73
8.54
8.41
8.38
8.41
8.5
8.63
8.81
9.03
9.26
9.46
9.54
9.45
9.09
8.41
7.39
6.07
4.52
2.82
1.01
-0.88
-2.86
-4.91
-6.97
-8.93
-10.66
-12.08
-13.21
-14.19
-15.23
-16.6
-18.44
-20.75
-23.25
-25.47
-26.78
-26.63
-24.64
-20.8
-15.48
-9.36
-3.22
2.32
6.89
10.45
13.14
15.19
16.78
17.95
18.7
19.04
19.06
18.9
18.73
18.68
18.83
19.15
19.6
20.03
20.28
20.21
19.71
18.78
17.45
15.84
14.04
12.14
10.2
8.26
6.31
4.3
2.2
-0.04
-2.41
-4.79
-7.05
-9.06
-10.76
-12.2
-13.52
-14.91
-16.54
-18.52
-20.86
-23.41
-25.86
-27.67
-28.26
-27.13
-24.08
-19.31
-13.45
-7.34
-1.76
2.8
6.25
8.77
10.64
12.05
13.05
13.61
13.73
13.5
13.08
12.6
12.12
11.55
10.74
9.6
8.14
6.48
4.77
3.15
1.68
0.31
-1.06
-2.56
-4.22
-6.03
-7.9
-9.72
-11.44
-13.06
-14.62
-16.12
-17.56
-18.89
-20.04
-21.05
-22
-23.04
-24.3
-25.75
-27.22
-28.32
-28.63
-27.75
-25.43
-21.69
-16.77
-11.13
-5.29
0.24
5.11
9.15
12.37
14.89
16.85
18.31
19.24
19.59
19.34
18.6
17.59
16.62
15.96
15.78
16.04
16.54
17.04
17.29
17.2
16.76
16.07
15.25
14.31
13.22
11.86
10.12
8.02
5.67
3.36
1.34
-0.22
-1.38
-2.36
-3.51
-5.13
-7.34
-10.05
-13
-15.84
-18.19
-19.74
-20.2
-19.43
-17.41
-14.33
-10.56
-6.57
-2.81
0.39
2.85
4.54
5.55
5.96
5.84
5.28
4.43
3.51
2.79
2.43
2.48
2.78
3.11
3.26
3.19
3.01
2.86
2.81
2.75
2.47
1.76
0.54
-1.07
-2.86
-4.61
-6.22
-7.65
-8.94
-10.12
-11.27
-12.45
-13.76
-15.2
-16.63
-17.77
-18.19
-17.5
-15.47
-12.13
-7.78
-2.9
1.91
6.14
9.41
11.61
12.85
13.4
13.55
13.53
13.42
13.22
12.9
12.49
12.05
11.66
11.35
11.07
10.73
10.29
9.74
9.13
8.48
7.76
6.89
5.75
4.32
2.69
1
-0.58
-2
-3.33
-4.78
-6.56
-8.79
-11.37
-14
-16.17
-17.31
-16.98
-15.03
-11.64
-7.26
-2.5
2.07
6.02
9.15
11.4
12.86
13.64
13.86
13.65
13.11
12.31
11.31
10.13
8.82
7.44
6.08
4.86
3.91
3.31
3.08
3.12
3.27
3.27
2.88
1.97
0.55
-1.18
-2.96
-4.55
-5.9
-7.09
-8.37
-9.99
-12.13
-14.74
-17.54
-20.08
-21.86
-22.44
-21.58
-19.32
-15.89
-11.75
-7.45
-3.51
-0.33
1.91
3.28
4.01
4.45
4.82
5.25
5.74
6.26
6.84
7.57
8.53
9.73
11.07
12.38
13.47
14.26
14.8
15.23
15.63
16.03
16.28
16.16
15.42
13.96
11.86
9.37
6.82
4.43
2.25
0.1
-2.26
-5.07
-8.45
-12.35
-16.55
-20.72
-24.45
-27.29
-28.83
-28.84
-27.28
-24.43
-20.76
-16.83
-13.13
-9.93
-7.34
-5.29
-3.62
-2.24
-1.08
-0.15
0.54
1
1.31
1.62
2.06
2.71
3.57
4.52
5.43
6.17
6.69
6.99
7.1
7.05
6.82
6.35
5.59
4.49
3.07
1.46
-0.19
-1.7
-2.97
-3.98
-4.85
-5.76
-6.87
-8.24
-9.85
-11.61
-13.42
-15.13
-16.51
-17.22
-16.82
-14.91
-11.33
-6.28
-0.33
5.71
11.13
15.48
18.68
20.92
22.45
23.4
23.76
23.45
22.44
20.81
18.83
16.77
14.86
13.21
11.8
10.52
9.28
8.02
6.72
5.43
4.19
3.02
1.84
0.49
-1.22
-3.44
-6.12
-8.99
-11.63
-13.65
-14.84
-15.28
-15.26
-15.16
-15.26
-15.73
-16.61
-17.89
-19.57
-21.54
-23.5
-24.97
-25.35
-24.15
-21.26
-16.97
-11.91
-6.8
-2.21
1.53
4.32
6.18
7.17
7.38
6.97
6.19
5.38
4.8
4.54
4.48
4.39
4.04
3.37
2.4
1.29
0.18
-0.84
-1.76
-2.64
-3.56
-4.58
-5.79
-7.17
-8.68
-10.19
-11.58
-12.75
-13.7
-14.48
-15.17
-15.83
-16.4
-16.67
-16.33
-15.01
-12.42
-8.48
-3.36
2.49
8.43
13.86
18.31
21.52
23.48
24.35
24.36
23.74
22.71
21.42
20.03
18.68
17.48
16.5
15.79
15.32
15.03
14.84
14.63
14.33
13.85
13.14
12.22
11.11
9.89
8.56
7.09
5.38
3.32
0.85
-2.02
-5.2
-8.57
-11.99
-15.27
-18.07
-19.97
-20.49
-19.28
-16.32
-11.95
-6.85
-1.78
2.68
6.23
8.91
10.94
12.52
13.76
14.63
15.08
15.08
14.65
13.83
12.69
11.3
9.77
8.25
6.95
6.02
5.53
5.38
5.32
5.06
4.33
2.97
0.97
-1.52
-4.27
-7.01
-9.58
-11.92
-14.2
-16.65
-19.47
-22.64
-25.84
-28.46
-29.79
-29.29
-26.76
-22.48
-17.03
-11.16
-5.49
-0.42
3.89
7.44
10.31
12.51
14.11
15.13
15.71
15.96
16.02
15.98
15.83
15.54
15.08
14.46
13.74
13.01
12.36
11.84
11.38
10.85
10.05
8.79
6.94
4.51
1.63
-1.46
-4.5
-7.31
-9.77
-11.95
-14.02
-16.15
-18.49
-21.05
-23.6
-25.71
-26.79
-26.33
-23.98
-19.77
-14.1
-7.65
-1.18
4.67
9.54
13.37
16.31
18.57
20.33
21.6
22.33
22.46
21.99
21.05
19.8
18.47
17.21
16.11
15.22
14.51
13.98
13.56
13.2
12.78
12.2
11.36
10.23
8.85
7.33
5.81
4.4
3.15
1.97
0.74
-0.67
-2.34
-4.29
-6.42
-8.67
-11.01
-13.43
-15.96
-18.47
-20.69
-22.14
-22.34
-20.94
-17.88
-13.46
-8.22
-2.75
2.46
7.13
11.14
14.46
17.07
18.97
20.15
20.63
20.52
19.96
19.12
18.18
17.33
16.63
16.06
15.44
14.55
13.21
11.41
9.34
7.32
5.64
4.4
3.48
2.58
1.4
-0.27
-2.44
-4.94
-7.5
-9.88
-11.91
-13.58
-14.97
-16.26
-17.65
-19.32
-21.36
-23.78
-26.47
-29.15
-31.39
-32.68
-32.5
-30.55
-26.81
-21.64
-15.65
-9.54
-3.9
0.91
4.84
8.01
10.59
12.69
14.31
15.41
15.98
16.14
16.07
15.98
15.98
16.08
16.21
16.3
16.34
16.34
16.33
16.27
16.04
15.48
14.47
12.98
11.08
8.9
6.59
4.27
2.01
-0.14
-2.14
-3.95
-5.53
-6.94
-8.26
-9.6
-11.13
-12.96
-15.17
-17.78
-20.68
-23.57
-25.95
-27.22
-26.82
-24.53
-20.48
-15.23
-9.53
-4.12
0.47
3.99
6.43
7.92
8.64
8.76
8.49
8.02
7.5
7.03
6.62
6.23
5.86
5.5
5.23
5.08
5.07
5.16
5.25
5.28
5.18
4.91
4.43
3.71
2.68
1.34
-0.21
-1.83
-3.32
-4.62
-5.78
-7.04
-8.63
-10.72
-13.24
-15.85
-18.07
-19.33
-19.21
-17.55
-14.49
-10.39
-5.79
-1.18
3.05
6.68
9.6
11.77
13.19
13.84
13.78
13.15
12.18
11.17
10.38
9.97
9.91
10.07
10.24
10.27
10.13
9.89
9.66
9.52
9.38
9.08
8.42
7.25
5.59
3.64
1.64
-0.15
-1.61
-2.8
-3.89
-5.13
-6.74
-8.78
-11.2
-13.76
-16.14
-17.95
-18.78
-18.3
-16.4
-13.22
-9.19
-4.89
-0.87
2.47
5.04
6.9
8.19
8.97
9.25
8.97
8.16
7.01
5.77
4.72
3.98
3.56
3.32
3.13
2.88
2.59
2.29
2.01
1.69
1.2
0.36
-0.95
-2.76
-5
-7.5
-10.1
-12.62
-14.95
-17.04
-18.89
-20.56
-22.17
-23.86
-25.72
-27.75
-29.75
-31.28
-31.82
-30.86
-28.15
-23.79
-18.27
-12.26
-6.37
-0.99
3.71
7.79
11.33
14.38
16.96
19.06
20.71
22.03
23.1
23.97
24.58
24.84
24.67
24.08
23.19
22.16
21.16
20.23
19.32
18.26
16.91
15.18
13.07
10.7
8.24
5.82
3.52
1.36
-0.75
-2.89
-5.19
-7.68
-10.37
-13.14
-15.82
-18.1
-19.62
-20.04
-19.1
-16.76
-13.19
-8.74
-3.93
0.77
4.95
8.42
11.13
13.15
14.66
15.8
16.68
17.32
17.68
17.73
17.47
16.96
16.31
15.59
14.8
13.89
12.8
11.52
10.13
8.75
7.48
6.24
4.86
3.09
0.78
-2.03
-5.09
-8.08
-10.74
-12.98
-14.89
-16.69
-18.55
-20.59
-22.79
-25.12
-27.47
-29.69
-31.52
-32.59
-32.51
-30.94
-27.82
-23.35
-18.04
-12.51
-7.35
-2.97
0.54
3.26
5.39
7.1
8.4
9.22
9.48
9.2
8.53
7.72
6.99
6.45
6.07
5.78
5.52
5.27
5.04
4.82
4.59
4.3
3.93
3.49
3.01
2.48
1.89
1.2
0.47
-0.23
-0.83
-1.29
-1.7
-2.24
-3.09
-4.33
-5.95
-7.79
-9.54
-10.86
-11.31
-10.55
-8.41
-4.95
-0.54
4.29
8.94
12.97
16.09
18.26
19.5
19.89
19.53
18.55
17.14
15.52
13.94
12.55
11.38
10.37
9.41
8.38
7.2
5.92
4.61
3.41
2.42
1.66
1.04
0.39
-0.51
-1.79
-3.48
-5.49
-7.65
-9.78
-11.76
-13.53
-15.1
-16.56
-18.06
-19.75
-21.82
-24.32
-27.13
-29.9
-32.11
-33.17
-32.62
-30.27
-26.29
-21.13
-15.44
-9.85
-4.84
-0.64
2.66
5.19
7.07
8.44
9.42
10.07
10.45
10.62
10.65
10.64
10.68
10.8
10.99
11.17
11.26
11.23
11.06
10.74
10.17
9.18
7.58
5.3
2.49
-0.57
-3.47
-5.89
-7.77
-9.27
-10.72
-12.44
-14.65
-17.29
-20.09
-22.57
-24.14
-24.29
-22.68
-19.28
-14.42
-8.71
-2.86
2.46
6.83
10.1
12.39
13.95
15.05
15.86
16.46
16.83
16.95
16.81
16.5
16.12
15.76
15.47
15.22
14.97
14.66
14.25
13.74
13.09
12.26
11.14
9.66
7.8
5.64
3.32
0.97
-1.33
-3.61
-5.97
-8.51
-11.36
-14.51
-17.81
-20.92
-23.35
-24.52
-24.02
-21.69
-17.72
-12.68
-7.28
-2.18
2.13
5.43
7.7
9.01
9.48
9.3
8.65
7.77
6.88
6.14
5.64
5.36
5.24
5.16
5.04
4.83
4.57
4.32
4.15
4.06
3.95
3.68
3.08
2.08
0.71
-0.9
-2.63
-4.4
-6.19
-8.07
-10.09
-12.29
-14.7
-17.24
-19.76
-21.95
-23.37
-23.51
-22.02
-18.75
-13.96
-8.18
-2.09
3.68
8.7
12.78
15.94
18.26
19.83
20.71
20.99
20.77
20.23
19.57
18.94
18.43
18.02
17.64
17.23
16.76
16.24
15.73
15.2
14.57
13.65
12.25
10.2
7.55
4.48
1.33
-1.58
-4.07
-6.12
-7.83
-9.38
-10.93
-12.6
-14.5
-16.71
-19.26
-22.04
-24.76
-26.92
-27.98
-27.49
-25.29
-21.57
-16.83
-11.69
-6.7
-2.14
1.89
5.43
8.5
11.05
12.98
14.22
14.81
14.88
14.66
14.34
14.04
13.83
13.7
13.66
13.68
13.7
13.69
13.58
13.38
13.08
12.66
12.05
11.1
9.7
7.79
5.48
2.96
0.47
-1.76
-3.64
-5.14
-6.37
-7.46
-8.57
-9.83
-11.37
-13.26
-15.47
-17.84
-20.09
-21.77
-22.47
-21.83
-19.7
-16.18
-11.56
-6.33
-1
3.96
8.19
11.52
13.9
15.41
16.18
16.36
16.07
15.43
14.56
13.56
12.56
11.66
10.93
10.4
10.06
9.87
9.8
9.82
9.89
9.94
9.89
9.68
9.24
8.57
7.68
6.64
5.5
4.29
3.04
1.75
0.39
-1.06
-2.6
-4.23
-5.94
-7.68
-9.44
-11.28
-13.32
-15.72
-18.56
-21.7
-24.72
-26.98
-27.83
-26.85
-24.06
-19.92
-15.2
-10.64
-6.75
-3.69
-1.35
0.45
1.79
2.66
2.98
2.79
2.28
1.74
1.46
1.61
2.16
2.95
3.78
4.51
5.13
5.7
6.36
7.17
8.09
9.01
9.73
10.14
10.19
9.98
9.63
9.28
8.94
8.52
7.86
6.88
5.57
4.08
2.62
1.35
0.25
-0.83
-2.24
-4.32
-7.3
-11.13
-15.47
-19.7
-23.15
-25.19
-25.47
-24.01
-21.15
-17.44
-13.48
-9.76
-6.55
-3.91
-1.8
-0.14
1.09
1.91
2.32
2.38
2.18
1.85
1.5
1.2
1.02
1.02
1.28
1.9
2.92
4.32
6.01
7.75
9.29
10.35
10.78
10.59
10
9.34
8.96
9.06
9.7
10.78
12.14
13.65
15.19
16.73
18.24
19.73
21.26
23.01
25.2
28
31.39
35.08
38.57
41.25
42.64
42.52
40.96
38.24
34.7
30.69
26.43
22.11
17.85
13.78
10.06
6.77
3.93
1.49
-0.69
-2.77
-4.86
-6.99
-9.14
-11.24
-13.28
-15.27
-17.33
-19.56
-22.01
-24.66
-27.38
-30.05
-32.53
-34.76
-36.75
-38.6
-40.43
-42.39
-44.58
-47.01
-49.51
-51.75
-53.33
-53.81
-52.88
-50.45
-46.62
-41.74
-36.3
-30.85
-25.92
-21.89
-18.98
-17.17
-16.33
-16.18
-16.43
-16.76
-16.85
-16.43
-15.28
-13.33
-10.63
-7.37
-3.79
-0.05
3.77
7.67
11.6
15.4
18.8
21.47
23.14
23.7
23.2
21.85
19.93
17.69
15.28
12.76
10.08
7.11
3.78
0.14
-3.56
-6.84
-9.2
-10.24
-9.87
-8.32
-6
-3.39
-0.83
1.57
3.8
5.91
7.83
9.38
10.38
10.72
10.53
10.13
9.95
10.3
11.32
12.98
15.1
17.54
20.22
23.15
26.38
29.85
33.44
37.01
40.46
43.8
47.09
50.4
53.74
57.01
60.05
62.67
64.68
65.9
66.19
65.51
63.93
61.73
59.35
57.22
55.58
54.31
52.91
50.66
46.87
41.25
33.99
25.78
17.5
9.95
3.59
-1.49
-5.51
-8.84
-11.88
-14.92
-18.16
-21.7
-25.54
-29.57
-33.52
-37.07
-39.88
-41.73
-42.58
-42.62
-42.19
-41.71
-41.52
-41.8
-42.57
-43.67
-44.92
-46.2
-47.45
-48.75
-50.2
-51.91
-53.87
-56
-58.13
-59.98
-61.2
-61.35
-60.01
-56.82
-51.64
-44.67
-36.42
-27.66
-19.17
-11.59
-5.26
-0.2
3.69
6.55
8.4
9.14
8.63
6.85
3.95
0.29
-3.7
-7.67
-11.47
-15.21
-19.21
-23.75
-28.98
-34.74
-40.64
-46.12
-50.7
-54.03
-55.95
-56.39
-55.24
-52.3
-47.4
-40.51
-31.88
-22.06
-11.87
-2.13
6.48
13.47
18.61
21.8
23.1
22.72
21.03
18.58
15.98
13.77
12.3
11.67
11.81
12.57
13.86
15.68
18.1
21.21
24.97
29.12
33.26
36.88
39.52
40.92
41.07
40.19
38.64
36.74
34.7
32.61
30.47
28.25
25.95
23.56
21.09
18.56
15.98
13.34
10.62
7.76
4.69
1.43
-1.91
-5.17
-8.17
-10.81
-13.11
-15.22
-17.27
-19.35
-21.44
-23.47
-25.36
-27.01
-28.23
-28.77
-28.26
-26.37
-22.92
-18.06
-12.25
-6.2
-0.57
4.2
8
11.01
13.5
15.71
17.7
19.4
20.7
21.52
21.92
22.01
21.94
21.83
21.7
21.51
21.22
20.81
20.26
19.56
18.68
17.54
16.02
14.06
11.66
8.92
6
3.05
0.2
-2.51
-5.09
-7.51
-9.73
-11.7
-13.39
-14.82
-16.01
-16.99
-17.75
-18.2
-18.23
-17.72
-16.51
-14.52
-11.7
-8.07
-3.76
1.03
5.99
10.81
15.2
18.95
21.92
24.05
25.35
25.95
26.03
25.84
25.61
25.53
25.69
26.16
26.99
28.24
29.92
31.87
33.74
35.05
35.29
34.12
31.47
27.56
22.73
17.35
11.7
5.99
0.33
-5.16
-10.42
-15.38
-20.04
-24.38
-28.27
-31.47
-33.65
-34.46
-33.68
-31.37
-27.9
-23.87
-19.94
-16.67
-14.33
-12.9
-12.12
-11.69
-11.41
-11.24
-11.28
-11.68
-12.49
-13.67
-15.09
-16.65
-18.2
-19.6
-20.67
-21.14
-20.85
-19.77
-18.06
-15.95
-13.67
-11.28
-8.74
-5.94
-2.9
0.2
3.1
5.61
7.68
9.44
11.07
12.62
14
14.98
15.42
15.37
15.15
15.24
16.11
18
20.84
24.25
27.75
30.85
33.3
35
36.02
36.44
36.35
35.77
34.74
33.3
31.52
29.45
27.08
24.31
21.12
17.51
13.66
9.83
6.33
3.36
1.01
-0.88
-2.59
-4.45
-6.73
-9.58
-12.99
-16.82
-20.85
-24.83
-28.52
-31.76
-34.44
-36.55
-38.23
-39.72
-41.38
-43.5
-46.23
-49.39
-52.51
-54.9
-56
-55.56
-53.74
-51.07
-48.18
-45.6
-43.51
-41.83
-40.31
-38.75
-37.01
-35.11
-33.05
-30.82
-28.38
-25.65
-22.61
-19.23
-15.53
-11.53
-7.29
-2.94
1.37
5.46
9.24
12.72
15.92
18.85
21.43
23.53
25.03
26
26.68
27.43
28.55
30.12
32.01
33.9
35.53
36.8
37.81
38.75
39.79
40.99
42.29
43.67
45.12
46.72
48.48
50.24
51.61
52.09
51.18
48.67
44.65
39.55
33.88
28.06
22.37
16.9
11.65
6.72
2.31
-1.3
-3.89
-5.37
-5.89
-5.75
-5.3
-4.83
-4.43
-4.07
-3.62
-3.02
-2.29
-1.53
-0.91
-0.54
-0.44
-0.5
-0.61
-0.65
-0.56
-0.35
-0.09
0.16
0.3
0.26
-0.12
-1.02
-2.59
-4.87
-7.65
-10.51
-12.9
-14.21
-14.06
-12.43
-9.63
-6.25
-2.9
-0.01
2.22
3.86
5.05
5.9
6.41
6.5
6.12
5.31
4.22
3.09
2.13
1.48
1.2
1.31
1.82
2.75
4.12
5.9
8.02
10.37
12.76
15.05
17.13
18.95
20.49
21.72
22.65
23.32
23.8
24.22
24.68
25.2
25.74
26.18
26.41
26.37
26.04
25.38
24.29
22.65
20.39
17.65
14.77
12.33
10.85
10.68
11.77
13.73
15.96
17.9
19.16
19.64
19.42
18.58
17.11
14.88
11.69
7.46
2.27
-3.59
-9.75
-15.86
-21.65
-26.95
-31.66
-35.73
-39.11
-41.76
-43.64
-44.74
-45.05
-44.63
-43.61
-42.18
-40.56
-38.89
-37.22
-35.4
-33.18
-30.27
-26.4
-21.41
-15.34
-8.45
-1.24
5.55
11.13
14.72
15.81
14.24
10.31
4.74
-1.57
-7.67
-12.8
-16.55
-18.8
-19.76
-19.78
-19.24
-18.51
-17.86
-17.47
-17.42
-17.66
-18.05
-18.39
-18.44
-17.95
-16.74
-14.68
-11.8
-8.31
-4.53
-0.89
2.3
4.87
6.79
8.15
8.96
9.25
9.02
8.36
7.44
6.5
5.63
4.79
3.75
2.28
0.27
-2.18
-4.8
-7.31
-9.5
-11.35
-12.96
-14.51
-16.13
-17.87
-19.64
-21.28
-22.54
-23.22
-23.23
-22.56
-21.35
-19.8
-18.06
-16.22
-14.25
-12.03
-9.44
-6.48
-3.26
0.02
3.1
5.8
8.03
9.81
11.26
12.49
13.59
14.58
15.41
16.02
16.3
16.21
15.69
14.72
13.28
11.36
8.98
6.16
3.02
-0.31
-3.69
-6.99
-10.1
-12.94
-15.4
-17.42
-19.03
-20.36
-21.64
-23.07
-24.65
-26.16
-27.17
-27.25
-26.15
-23.97
-21.07
-17.94
-15.02
-12.53
-10.48
-8.78
-7.31
-6.07
-5.09
-4.44
-4.13
-4.08
-4.1
-3.96
-3.45
-2.41
-0.76
1.46
4.12
7.04
10.02
12.85
15.36
17.4
18.87
19.73
19.94
19.51
18.52
17.07
15.33
13.42
11.4
9.2
6.67
3.67
0.21
-3.44
-6.81
-9.29
-10.38
-9.85
-7.83
-4.79
-1.33
2
4.86
7.18
9.06
10.62
11.92
12.88
13.37
13.34
12.88
12.19
11.48
10.85
10.29
9.72
9.05
8.27
7.42
6.54
5.6
4.53
3.23
1.63
-0.27
-2.37
-4.53
-6.53
-8.2
-9.47
-10.42
-11.33
-12.52
-14.25
-16.52
-19.01
-21.13
-22.22
-21.76
-19.54
-15.73
-10.79
-5.33
0.03
4.81
8.74
11.73
13.82
15.06
15.49
15.12
14.05
12.44
10.62
8.91
7.61
6.81
6.45
6.37
6.38
6.4
6.44
6.49
6.53
6.39
5.88
4.84
3.23
1.22
-0.92
-2.88
-4.52
-5.86
-7.1
-8.5
-10.29
-12.54
-15.13
-17.81
-20.17
-21.81
-22.36
-21.56
-19.36
-15.89
-11.46
-6.47
-1.36
3.46
7.67
11.06
13.53
15.12
15.93
16.11
15.86
15.33
14.69
14.08
13.58
13.19
12.83
12.34
11.64
10.73
9.73
8.82
8.1
7.53
6.9
5.97
4.57
2.66
0.34
-2.23
-4.86
-7.42
-9.8
-11.97
-13.93
-15.75
-17.52
-19.3
-21.04
-22.51
-23.32
-22.99
-21.11
-17.41
-11.89
-4.85
3.18
11.55
19.58
26.77
32.82
37.68
41.4
44.02
45.52
45.86
45.1
43.45
41.29
38.97
36.65
34.22
31.37
27.79
23.44
18.59
13.66
9.09
5.07
1.52
-1.77
-5.05
-8.43
-11.82
-15.08
-18.03
-20.53
-22.56
-24.2
-25.62
-27.05
-28.65
-30.46
-32.35
-33.95
-34.76
-34.29
-32.18
-28.33
-22.9
-16.33
-9.19
-2.12
4.35
9.82
14.07
17
18.66
19.13
18.52
17
14.81
12.23
9.57
7.08
4.89
2.97
1.26
-0.35
-1.91
-3.45
-4.97
-6.56
-8.35
-10.45
-12.83
-15.35
-17.75
-19.78
-21.36
-22.57
-23.66
-24.93
-26.66
-28.99
-31.88
-35.09
-38.16
-40.48
-41.44
-40.55
-37.69
-33.08
-27.32
-21.15
-15.23
-9.96
-5.41
-1.4
2.33
5.95
9.48
12.78
15.67
18.07
20.05
21.75
23.32
24.77
25.94
26.65
26.75
26.31
25.53
24.72
24.08
23.68
23.41
23.09
22.49
21.48
20.02
18.17
16.03
13.73
11.44
9.26
7.28
5.49
3.8
2.03
-0.01
-2.46
-5.27
-8.16
-10.57
-11.87
-11.51
-9.27
-5.38
-0.46
4.71
9.4
13.11
15.6
16.91
17.21
16.72
15.66
14.22
12.59
10.96
9.48
8.31
7.5
7.05
6.9
6.92
7.03
7.14
7.19
7.09
6.75
6.12
5.22
4.19
3.17
2.29
1.49
0.6
-0.59
-2.19
-4.12
-6.12
-7.86
-9.17
-10.04
-10.68
-11.38
-12.44
-14.05
-16.33
-19.26
-22.68
-26.22
-29.27
-31.14
-31.19
-29.05
-24.79
-18.87
-12.05
-5.14
1.22
6.64
10.99
14.32
16.8
18.61
19.93
20.86
21.43
21.63
21.44
20.88
20.04
19.04
17.99
16.96
15.98
15.06
14.25
13.58
13.08
12.66
12.17
11.39
10.24
8.74
7.08
5.44
3.91
2.48
1.01
-0.59
-2.32
-4.06
-5.67
-7.06
-8.29
-9.57
-11.18
-13.42
-16.48
-20.45
-25.15
-30.17
-34.84
-38.36
-39.97
-39.23
-36.13
-31.11
-24.94
-18.46
-12.35
-7.03
-2.57
1.16
4.36
7.19
9.69
11.85
13.63
15.08
16.33
17.58
18.98
20.58
22.27
23.84
25.1
25.96
26.45
26.71
26.77
26.56
25.87
24.46
22.22
19.26
15.87
12.41
9.2
6.44
4.17
2.3
0.67
-0.9
-2.54
-4.21
-5.79
-7.03
-7.79
-8.13
-8.34
-8.89
-10.17
-12.33
-15.06
-17.74
-19.59
-19.92
-18.37
-15.01
-10.27
-4.89
0.36
4.87
8.33
10.75
12.35
13.38
14
14.21
13.97
13.25
12.17
10.87
9.53
8.23
6.99
5.83
4.79
4.02
3.65
3.74
4.21
4.89
5.54
5.93
5.93
5.48
4.62
3.44
1.98
0.24
-1.77
-4.05
-6.56
-9.18
-11.8
-14.42
-17.12
-20.1
-23.57
-27.62
-32.15
-36.82
-41.1
-44.34
-45.94
-45.44
-42.73
-38.06
-32.02
-25.39
-18.88
-12.98
-7.87
-3.5
0.3
3.7
6.8
9.69
12.48
15.33
18.37
21.61
24.9
27.96
30.44
32.12
32.93
33.02
32.65
32.12
31.56
30.99
30.18
28.85
26.71
23.64
19.75
15.35
10.93
6.98
3.88
1.79
0.62
0.02
-0.54
-1.6
-3.59
-6.61
-10.33
-14.09
-17.01
-18.28
-17.43
-14.47
-9.84
-4.33
1.2
5.99
9.47
11.31
11.42
9.92
7.17
3.75
0.38
-2.21
-3.54
-3.44
-2.13
-0.06
2.23
4.28
5.85
6.95
7.73
8.4
9.02
9.5
9.61
9.06
7.73
5.7
3.26
0.76
-1.55
-3.62
-5.57
-7.54
-9.62
-11.8
-14.06
-16.42
-18.91
-21.51
-24
-25.95
-26.84
-26.26
-24.13
-20.71
-16.54
-12.23
-8.28
-4.97
-2.42
-0.54
0.83
1.91
2.92
4.01
5.21
6.4
7.44
8.24
8.84
9.36
9.91
10.51
11.04
11.32
11.2
10.61
9.6
8.24
6.58
4.61
2.33
-0.21
-2.86
-5.46
-7.89
-10.14
-12.33
-14.63
-17.22
-20.08
-23.06
-25.77
-27.75
-28.57
-27.97
-25.97
-22.87
-19.19
-15.45
-12.06
-9.22
-6.93
-5.09
-3.62
-2.5
-1.78
-1.53
-1.77
-2.46
-3.47
-4.68
-5.97
-7.27
-8.53
-9.71
-10.74
-11.53
-12.04
-12.31
-12.51
-12.99
-14.07
-16.04
-18.89
-22.38
-26.06
-29.51
-32.51
-35.16
-37.86
-41.08
-45.2
-50.33
-56.25
-62.52
-68.57
-73.85
-77.98
-80.82
-82.41
-82.98
-82.85
-82.3
-81.47
-80.32
-78.61
-76.11
-72.73
-68.73
-64.58
-60.86
-57.86
-55.41
-52.79
-48.99
-43.08
-34.54
-23.44
-10.34
3.97
18.74
33.52
48.21
62.99
78.19
94.06
110.59
127.43
144
159.63
173.8
186.21
196.77
205.45
212.06
216.26
217.6
215.65
210.18
201.17
188.88
173.8
156.72
138.63
120.57
103.42
87.71
73.49
60.48
48.23
36.31
24.49
12.7
1.01
-10.42
-21.39
-31.65
-40.97
-49.14
-56.06
-61.68
-66.02
-69.16
-71.21
-72.34
-72.73
-72.57
-71.97
-70.97
-69.59
-67.91
-66.1
-64.41
-63.1
-62.37
-62.26
-62.66
-63.4
-64.26
-65
-65.41
-65.36
-64.86
-64.13
-63.51
-63.37
-63.88
-64.96
-66.2
-67
-66.76
-65.07
-61.83
-57.18
-51.52
-45.27
-38.88
-32.63
-26.7
-21.11
-15.86
-10.93
-6.28
-1.87
2.46
6.91
11.76
17.2
23.27
29.87
36.76
43.68
50.33
56.45
61.81
66.23
69.57
71.78
72.88
72.95
72.08
70.39
67.98
64.94
61.36
57.29
52.72
47.61
41.96
35.87
29.53
23.15
16.87
10.74
4.61
-1.65
-8.16
-14.8
-21.28
-27.12
-31.76
-34.72
-35.72
-34.71
-31.94
-27.9
-23.19
-18.41
-13.98
-10.16
-7.02
-4.51
-2.56
-1.08
-0.04
0.67
1.14
1.53
2.02
2.67
3.48
4.3
4.98
5.37
5.46
5.35
5.23
5.23
5.4
5.63
5.72
5.48
4.87
4.03
3.19
2.59
2.29
2.19
2.05
1.66
0.95
0.05
-0.84
-1.53
-2.01
-2.45
-3.16
-4.43
-6.45
-9.17
-12.32
-15.44
-17.97
-19.35
-19.22
-17.43
-14.13
-9.74
-4.79
0.18
4.72
8.58
11.71
14.21
16.26
18.03
19.6
20.96
21.99
22.56
22.59
22.12
21.24
20.11
18.81
17.37
15.77
13.99
12.02
9.91
7.7
5.41
3
0.43
-2.31
-5.18
-8.08
-10.95
-13.74
-16.47
-19.17
-21.82
-24.34
-26.61
-28.55
-30.14
-31.54
-32.97
-34.64
-36.69
-39.15
-41.96
-44.96
-47.93
-50.57
-52.47
-53.14
-52.15
-49.24
-44.51
-38.41
-31.64
-24.93
-18.83
-13.6
-9.2
-5.46
-2.18
0.73
3.26
5.4
7.18
8.72
10.19
11.69
13.25
14.76
16.07
17.07
17.73
18.11
18.28
18.27
18.04
17.51
16.7
15.72
14.77
14.1
13.86
14.04
14.52
15.08
15.52
15.78
15.88
15.92
15.98
16.05
16.03
15.69
14.84
13.32
11.13
8.37
5.3
2.28
-0.24
-1.83
-2.15
-1.09
1.24
4.44
7.98
11.33
14.1
16.18
17.63
18.69
19.57
20.35
21
21.39
21.37
20.89
20.03
18.99
17.99
17.18
16.56
16.05
15.48
14.73
13.79
12.73
11.63
10.54
9.4
8.13
6.64
4.99
3.35
1.94
0.91
0.21
-0.34
-1.05
-2.16
-3.79
-5.9
-8.34
-10.89
-13.3
-15.33
-16.7
-17.19
-16.68
-15.22
-13.04
-10.43
-7.73
-5.19
-2.98
-1.18
0.17
1.07
1.56
1.71
1.65
1.53
1.5
1.67
2.03
2.52
3.02
3.41
3.63
3.71
3.74
3.83
4.04
4.31
4.51
4.49
4.1
3.29
2.08
0.55
-1.16
-2.96
-4.76
-6.53
-8.31
-10.15
-12.11
-14.22
-16.41
-18.5
-20.17
-21.04
-20.81
-19.4
-17
-14.07
-11.21
-8.89
-7.32
-6.42
-5.89
-5.45
-4.98
-4.53
-4.19
-3.94
-3.56
-2.65
-0.84
2.09
6.08
10.82
15.9
20.98
25.85
30.46
34.75
38.57
41.68
43.72
44.44
43.76
41.85
39.07
35.82
32.42
29.02
25.58
21.98
18.07
13.73
8.89
3.48
-2.44
-8.62
-14.49
-19.21
-21.91
-21.99
-19.41
-14.74
-8.93
-3.07
2.01
5.88
8.42
9.74
9.93
9.07
7.19
4.41
0.97
-2.78
-6.4
-9.57
-12.02
-13.73
-14.83
-15.52
-16
-16.4
-16.77
-17.19
-17.73
-18.54
-19.75
-21.39
-23.37
-25.46
-27.45
-29.19
-30.65
-31.83
-32.75
-33.36
-33.61
-33.48
-33.06
-32.54
-32.15
-32.04
-32.17
-32.28
-31.95
-30.65
-28.01
-23.9
-18.46
-12.09
-5.29
1.48
7.88
13.69
18.74
22.89
26.01
28
28.9
28.85
28.11
26.98
25.71
24.51
23.5
22.71
22.16
21.73
21.24
20.39
18.83
16.3
12.73
8.37
3.69
-0.75
-4.54
-7.57
-10.03
-12.3
-14.66
-17.2
-19.7
-21.79
-23.12
-23.46
-22.79
-21.31
-19.26
-16.91
-14.46
-11.99
-9.4
-6.42
-2.65
2.26
8.45
15.62
23.03
29.65
34.45
36.87
36.9
35.12
32.36
29.35
26.58
24.21
22.39
21.36
21.55
23.5
27.65
34.2
43.01
53.74
65.87
78.86
92.1
104.94
116.64
126.43
133.59
137.52
137.89
134.71
128.43
119.82
109.86
99.48
89.27
79.27
68.92
57.33
43.57
27.09
7.96
-13.15
-35.14
-56.81
-77.03
-94.88
-109.66
-120.86
-128.15
-131.45
-130.97
-127.22
-120.93
-112.96
-104.1
-94.99
-86.04
-77.39
-69.04
-60.92
-53.02
-45.48
-38.55
-32.55
-27.66
-23.9
-21.06
-18.81
-16.86
-15.07
-13.47
-12.21
-11.41
-11.09
-11.1
-11.23
-11.27
-11.13
-10.85
-10.57
-10.46
-10.67
-11.29
-12.3
-13.62
-15.11
-16.6
-17.95
-19.08
-20
-20.82
-21.69
-22.82
-24.4
-26.54
-29.22
-32.22
-35.07
-37.19
-38.03
-37.24
-34.79
-31.04
-26.51
-21.8
-17.33
-13.32
-9.79
-6.65
-3.91
-1.66
-0.08
0.69
0.66
0.08
-0.61
-0.98
-0.72
0.23
1.73
3.57
5.56
7.6
9.68
11.75
13.73
15.45
16.73
17.4
17.4
16.78
15.68
14.29
12.8
11.34
9.95
8.57
7.11
5.47
3.62
1.55
-0.71
-3.19
-5.9
-8.81
-11.77
-14.54
-16.78
-18.15
-18.45
-17.67
-16
-13.82
-11.54
-9.51
-7.95
-6.88
-6.21
-5.79
-5.47
-5.14
-4.72
-4.16
-3.37
-2.31
-0.92
0.81
2.83
5.05
7.39
9.7
11.85
13.68
15.02
15.76
15.87
15.44
14.63
13.62
12.62
11.71
10.93
10.24
9.56
8.76
7.64
6
3.73
0.93
-2
-4.43
-5.71
-5.36
-3.3
0.19
4.59
9.29
13.81
17.81
21.09
23.5
24.97
25.51
25.17
24.14
22.59
20.71
18.61
16.38
14.12
11.92
9.85
7.94
6.2
4.63
3.22
1.96
0.75
-0.54
-2.05
-3.91
-6.12
-8.57
-11.06
-13.39
-15.44
-17.22
-18.89
-20.64
-22.65
-24.97
-27.5
-29.98
-32
-33.08
-32.81
-30.99
-27.69
-23.26
-18.22
-13.09
-8.32
-4.14
-0.6
2.39
4.93
7.1
8.88
10.21
11.07
11.52
11.71
11.81
11.9
11.93
11.8
11.42
10.86
10.33
10.06
10.14
10.41
10.53
10.09
8.83
6.79
4.25
1.58
-0.92
-3.15
-5.19
-7.22
-9.48
-12.13
-15.25
-18.77
-22.42
-25.75
-28.17
-29.15
-28.33
-25.74
-21.73
-16.91
-11.92
-7.26
-3.2
0.2
3.01
5.36
7.31
8.89
10.07
10.85
11.22
11.22
10.93
10.47
9.95
9.5
9.2
9.06
9.06
9.12
9.16
9.13
9.01
8.81
8.5
8.05
7.38
6.42
5.14
3.56
1.76
-0.17
-2.17
-4.19
-6.26
-8.4
-10.7
-13.15
-15.64
-17.84
-19.29
-19.47
-18.04
-14.93
-10.43
-5.06
0.6
6.02
10.91
15.13
18.68
21.59
23.91
25.67
26.89
27.62
27.92
27.86
27.54
27.03
26.43
25.78
25.03
24.13
22.92
21.31
19.27
16.91
14.42
12.03
9.86
7.88
5.94
3.85
1.5
-1.11
-3.81
-6.35
-8.49
-10.13
-11.34
-12.28
-13.19
-14.29
-15.73
-17.52
-19.55
-21.53
-23.06
-23.64
-22.83
-20.42
-16.5
-11.52
-6.17
-1.22
2.77
5.54
7.16
7.89
8
7.66
6.93
5.84
4.49
3.1
1.96
1.32
1.29
1.81
2.68
3.67
4.61
5.41
6.1
6.74
7.36
7.91
8.31
8.4
8.1
7.39
6.36
5.14
3.82
2.5
1.16
-0.2
-1.61
-3.05
-4.51
-5.95
-7.42
-9.03
-10.92
-13.17
-15.77
-18.55
-21.15
-23.08
-23.87
-23.16
-20.82
-17.02
-12.2
-6.97
-1.98
2.26
5.43
7.52
8.71
9.27
9.46
9.48
9.41
9.31
9.22
9.16
9.12
9.06
8.96
8.84
8.78
8.86
9.08
9.37
9.54
9.39
8.85
7.98
6.98
6.04
5.29
4.68
4.11
3.47
2.7
1.86
1.02
0.19
-0.71
-1.81
-3.24
-5.03
-7.14
-9.42
-11.72
-13.85
-15.58
-16.65
-16.77
-15.74
-13.53
-10.36
-6.62
-2.78
0.77
3.84
6.37
8.42
10
11.13
11.83
12.19
12.41
12.69
13.19
13.9
14.68
15.31
15.65
15.65
15.42
15.11
14.8
14.48
14.03
13.27
12.06
10.37
8.31
6.05
3.79
1.65
-0.37
-2.33
-4.35
-6.48
-8.75
-11.13
-13.59
-16.15
-18.79
-21.4
-23.7
-25.23
-25.51
-24.21
-21.3
-17.11
-12.22
-7.29
-2.86
0.73
3.41
5.2
6.2
6.56
6.44
6.01
5.48
5.06
4.88
4.94
5.16
5.35
5.4
5.24
4.98
4.74
4.67
4.8
5.07
5.32
5.38
5.13
4.49
3.48
2.15
0.63
-0.89
-2.19
-3.1
-3.59
-3.82
-4.08
-4.68
-5.78
-7.25
-8.69
-9.61
-9.58
-8.43
-6.3
-3.57
-0.67
2.04
4.38
6.28
7.72
8.67
9.06
8.85
8.08
6.87
5.45
4.05
2.87
1.98
1.36
0.89
0.42
-0.14
-0.8
-1.45
-1.92
-2.08
-1.97
-1.81
-1.94
-2.65
-4.06
-6.06
-8.32
-10.44
-12.13
-13.26
-13.93
-14.37
-14.89
-15.73
-16.97
-18.48
-19.97
-20.99
-21.09
-19.92
-17.37
-13.66
-9.22
-4.65
-0.46
3.01
5.71
7.71
9.21
10.28
10.94
11.09
10.67
9.74
8.51
7.29
6.35
5.85
5.75
5.86
5.97
5.97
5.84
5.69
5.59
5.53
5.38
4.99
4.22
3.12
1.83
0.57
-0.48
-1.23
-1.69
-1.94
-2.12
-2.36
-2.76
-3.45
-4.52
-6.05
-8
-10.26
-12.48
-14.21
-14.93
-14.27
-12.17
-8.92
-5.09
-1.37
1.72
3.91
5.27
6
6.4
6.66
6.86
7
7.03
6.9
6.6
6.23
5.91
5.77
5.91
6.33
6.99
7.8
8.78
9.97
11.46
13.24
15.15
16.9
18.21
18.9
18.96
18.57
17.91
17.16
16.38
15.59
14.78
13.99
13.28
12.66
12.03
11.22
10.07
8.56
6.87
5.41
4.64
4.95
6.45
8.94
11.94
14.81
16.92
17.82
17.33
15.55
12.81
9.57
6.24
3.17
0.58
-1.41
-2.79
-3.59
-3.88
-3.77
-3.34
-2.67
-1.82
-0.85
0.12
0.96
1.5
1.59
1.11
-0.02
-1.85
-4.41
-7.67
-11.54
-15.86
-20.47
-25.29
-30.31
-35.61
-41.28
-47.26
-53.31
-59.03
-63.93
-67.57
-69.7
-70.31
-69.61
-67.96
-65.69
-62.98
-59.78
-55.84
-50.81
-44.41
-36.55
-27.4
-17.39
-7.06
3.11
12.8
21.94
30.64
39.05
47.22
55.07
62.4
69.05
75.08
80.71
86.28
91.95
97.61
102.82
106.89
109.18
109.31
107.37
103.93
99.93
96.39
94.12
93.46
94.11
95.27
95.88
95.01
92.12
87.17
80.65
73.31
65.97
59.23
53.28
47.75
41.89
34.85
26.17
16.06
5.44
-4.4
-12.42
-18.27
-22.49
-26.16
-30.37
-35.59
-41.52
-47.23
-51.56
-53.68
-53.4
-51.25
-48.57
-47.3
-49.77
-58.23
-74.12
-97.37
-125.71
-154.8
-178.97
-192.83
-192.87
-178.69
-153
-120.63
-86.85
-55.8
-29.75
-9.26
5.8
15.31
18.44
14.11
1.92
-17
-39.88
-63.09
-83.43
-99.15
-110.28
-118.04
-123.87
-128.54
-131.98
-133.65
-133.18
-130.77
-127.14
-122.99
-118.46
-113.01
-105.58
-95.24
-81.67
-65.34
-47.26
-28.55
-10.01
7.99
25.35
41.92
57.22
70.45
80.72
87.36
90.21
89.72
86.88
82.91
79.01
76.06
74.4
73.82
73.77
73.74
73.71
74.33
76.68
81.72
89.68
99.78
110.58
120.64
129.19
136.21
142.06
146.88
150.32
151.97
152.07
151.86
153.14
157.01
162.85
168.17
169.76
165.4
154.99
140.33
123.84
106.99
89.65
70.7
49.29
25.93
2.5
-18.73
-36.49
-51.21
-64.74
-79.14
-95.44
-112.81
-128.82
-140.54
-145.76
-144.16
-137.41
-128.41
-120.09
-114.17
-110.81
-108.97
-107.34
-105.14
-102.51
-100.2
-98.99
-99.41
-101.62
-105.8
-112.29
-121.47
-133.26
-146.71
-159.86
-170.26
-175.88
-175.78
-170.4
-161.1
-149.38
-136.15
-121.48
-104.92
-86.04
-64.9
-42.19
-18.95
3.88
25.66
46.1
64.94
81.75
95.82
106.3
112.6
114.66
113.16
109.34
104.62
100.2
96.72
94.16
91.94
89.14
84.71
77.68
67.46
53.95
37.72
20
2.43
-13.31
-25.93
-34.81
-40.01
-41.98
-41.18
-37.86
-31.96
-23.3
-11.86
2.11
18.07
35.37
53.33
71.37
88.94
105.41
120.04
131.98
140.49
144.99
145.3
141.69
134.83
125.69
115.3
104.56
94.04
83.95
74.18
64.38
54.17
43.24
31.44
18.89
5.9
-7.07
-19.47
-30.85
-40.89
-49.53
-56.92
-63.49
-69.83
-76.56
-84.05
-92.17
-100.21
-106.98
-111.22
-112.01
-109.16
-103.2
-95.12
-86.01
-76.71
-67.69
-59.15
-51.13
-43.54
-36.23
-28.88
-21.06
-12.31
-2.41
8.53
20.02
31.36
41.94
51.36
59.52
66.5
72.27
76.54
78.82
78.55
75.4
69.4
60.87
50.18
37.47
22.69
5.74
-13.17
-33.21
-52.97
-70.73
-84.93
-94.53
-99.2
-99.18
-95.08
-87.63
-77.66
-66.12
-54.02
-42.36
-32
-23.44
-16.83
-12.02
-8.73
-6.66
-5.62
-5.52
-6.28
-7.86
-10.11
-12.85
-15.82
-18.8
-21.61
-24.18
-26.59
-28.95
-31.4
-33.97
-36.6
-39.12
-41.34
-43.01
-43.92
-43.92
-42.92
-40.96
-38.21
-34.89
-31.24
-27.34
-23.1
-18.21
-12.24
-4.83
4.15
14.46
25.53
36.52
46.57
54.95
61.2
65.14
66.83
66.5
64.49
61.19
57.01
52.3
47.32
42.24
37.16
32.15
27.28
22.59
18.08
13.72
9.41
5.12
0.82
-3.47
-7.75
-12.03
-16.36
-20.7
-24.96
-28.96
-32.48
-35.39
-37.67
-39.47
-41.05
-42.62
-44.32
-46.08
-47.61
-48.52
-48.4
-47.04
-44.57
-41.48
-38.49
-36.37
-35.64
-36.46
-38.6
-41.58
-44.82
-47.77
-49.95
-50.94
-50.4
-48.05
-43.83
-37.86
-30.47
-22.07
-12.91
-3.14
7.19
17.87
28.49
38.41
47.03
54.11
59.93
65.28
71.13
78.26
86.85
96.36
105.65
113.29
117.96
118.84
115.79
109.37
100.67
90.97
81.52
73.31
66.95
62.74
60.65
60.39
61.44
63.16
64.9
66.13
66.6
66.34
65.61
64.68
63.73
62.75
61.57
60.03
58.11
55.89
53.52
51.05
48.38
45.26
41.45
36.82
31.37
25.2
18.37
10.85
2.56
-6.57
-16.5
-27.02
-37.76
-48.29
-58.22
-67.21
-75.07
-81.68
-86.95
-90.69
-92.51
-91.88
-88.21
-81.09
-70.49
-56.93
-41.43
-25.39
-10.25
2.83
13.29
21.27
27.49
32.9
38.22
43.75
49.27
54.31
58.32
60.9
61.76
60.66
57.5
52.39
45.81
38.63
31.9
26.53
22.98
21.22
20.8
21.21
22.03
23.03
24.03
24.87
25.29
25.07
24.11
22.56
20.7
18.83
17.14
15.58
13.91
11.78
8.86
4.99
0.26
-4.93
-9.88
-13.74
-15.73
-15.3
-12.32
-7.04
-0.07
7.92
16.25
24.39
31.94
38.54
43.88
47.67
49.76
50.14
48.97
46.48
42.93
38.52
33.4
27.62
21.25
14.37
7.15
-0.16
-7.35
-14.25
-20.85
-27.22
-33.58
-40.11
-46.89
-53.89
-60.89
-67.55
-73.54
-78.56
-82.46
-85.21
-86.9
-87.67
-87.66
-87.05
-85.97
-84.58
-82.9
-80.82
-78.08
-74.32
-69.27
-62.9
-55.48
-47.52
-39.65
-32.42
-26.21
-21.17
-17.33
-14.65
-13.05
-12.37
-12.4
-12.81
-13.25
-13.44
-13.2
-12.53
-11.55
-10.43
-9.33
-8.38
-7.59
-6.97
-6.51
-6.27
-6.36
-6.95
-8.22
-10.26
-13.04
-16.35
-19.88
-23.34
-26.59
-29.71
-32.96
-36.62
-40.81
-45.29
-49.49
-52.58
-53.78
-52.56
-48.84
-43.05
-35.97
-28.48
-21.34
-14.96
-9.43
-4.62
-0.4
3.28
6.34
8.65
10.18
11.04
11.5
11.86
12.35
13.09
14.08
15.2
16.36
17.43
18.33
18.95
19.21
19.02
18.33
17.13
15.52
13.65
11.71
9.8
7.89
5.82
3.36
0.32
-3.28
-7.15
-10.81
-13.63
-15.08
-14.87
-12.99
-9.7
-5.44
-0.71
4.04
8.45
12.25
15.28
17.44
18.69
19.07
18.72
17.81
16.56
15.18
13.86
12.72
11.87
11.37
11.29
11.69
12.58
13.9
15.51
17.21
18.74
19.83
20.32
20.15
19.38
18.2
16.76
15.2
13.54
11.74
9.72
7.44
4.88
2.1
-0.73
-3.29
-5.07
-5.44
-3.78
0.29
6.68
14.92
24.19
33.63
42.55
50.56
57.53
63.46
68.39
72.31
75.28
77.41
79
80.38
81.84
83.52
85.35
87.05
88.29
88.77
88.34
87.02
84.91
82.12
78.7
74.49
69.23
62.55
54.07
43.5
30.73
15.86
-0.82
-18.84
-37.66
-56.67
-75.2
-92.57
-108.04
-120.93
-130.61
-136.61
-138.6
-136.43
-130.13
-119.98
-106.57
-90.84
-73.95
-57.19
-41.68
-28.22
-17.22
-8.74
-2.64
1.28
3.28
3.71
3.01
1.72
0.33
-0.84
-1.69
-2.33
-2.94
-3.7
-4.68
-5.93
-7.49
-9.41
-11.74
-14.48
-17.49
-20.57
-23.48
-26.04
-28.18
-29.97
-31.58
-33.24
-35.21
-37.63
-40.43
-43.3
-45.69
-46.93
-46.41
-43.76
-39.03
-32.62
-25.25
-17.68
-10.57
-4.35
0.81
4.91
8.05
10.36
11.97
12.98
13.46
13.48
13.12
12.53
11.87
11.3
10.93
10.78
10.84
11.02
11.27
11.52
11.68
11.6
11.05
9.85
7.93
5.42
2.6
-0.19
-2.65
-4.66
-6.32
-7.88
-9.67
-11.92
-14.65
-17.53
-19.91
-21.01
-20.19
-17.18
-12.17
-5.78
1.17
7.94
14.01
19.1
23.07
25.83
27.33
27.63
26.93
25.64
24.22
23.06
22.3
21.86
21.53
21.16
20.68
20.16
19.67
19.24
18.79
18.21
17.35
16.13
14.47
12.31
9.68
6.67
3.5
0.39
-2.46
-5.01
-7.43
-9.94
-12.77
-15.95
-19.27
-22.29
-24.46
-25.25
-24.31
-21.53
-17.1
-11.51
-5.38
0.64
6.03
10.48
13.93
16.44
18.11
19.05
19.32
19.01
18.29
17.35
16.42
15.64
15.03
14.55
14.08
13.59
13.09
12.66
12.34
12.06
11.67
10.96
9.74
7.93
5.61
2.88
-0.07
-3.05
-5.96
-8.7
-11.3
-13.87
-16.55
-19.48
-22.63
-25.72
-28.23
-29.53
-29.03
-26.41
-21.78
-15.59
-8.58
-1.5
5
10.53
14.92
18.17
20.36
21.62
22.07
21.86
21.13
20.06
18.83
17.63
16.63
15.93
15.54
15.37
15.26
15.08
14.74
14.22
13.51
12.57
11.28
9.5
7.18
4.42
1.46
-1.35
-3.73
-5.55
-6.91
-8.12
-9.58
-11.65
-14.51
-18.07
-21.93
-25.46
-27.94
-28.72
-27.47
-24.2
-19.28
-13.33
-7.04
-1.01
4.34
8.81
12.3
14.88
16.6
17.63
18.1
18.17
18
17.74
17.56
17.62
18.02
18.78
19.78
20.79
21.55
21.85
21.59
20.8
19.6
18.14
16.57
14.96
13.37
11.81
10.28
8.73
7.1
5.35
3.44
1.4
-0.76
-3.06
-5.52
-8.24
-11.34
-14.86
-18.69
-22.5
-25.76
-27.82
-28.13
-26.43
-22.76
-17.52
-11.37
-5.01
0.89
5.79
9.38
11.56
12.47
12.43
11.91
11.55
12.04
14.1
18.4
25.39
35.09
47.02
60.15
73.17
84.73
93.74
99.53
101.9
100.96
97.04
90.6
82.13
72.14
61.07
49.24
36.91
24.38
12.02
0.36
-10.09
-18.99
-26.35
-32.53
-38.11
-43.57
-49.16
-54.8
-60.16
-64.82
-68.38
-70.51
-70.93
-69.48
-66.12
-61.06
-54.77
-47.86
-41
-34.72
-29.29
-24.82
-21.29
-18.62
-16.69
-15.31
-14.21
-13.09
-11.69
-9.86
-7.62
-5.07
-2.36
0.38
3
5.34
7.15
8.22
8.4
7.63
6.04
3.8
1.21
-1.46
-3.95
-6.12
-8
-9.8
-11.85
-14.39
-17.39
-20.4
-22.69
-23.41
-22.01
-18.39
-13.03
-6.77
-0.54
4.93
9.27
12.47
14.68
16.09
16.86
17.05
16.75
16.09
15.23
14.35
13.53
12.81
12.18
11.65
11.27
11.07
10.99
10.9
10.57
9.8
8.45
6.51
4.03
1.1
-2.21
-5.8
-9.61
-13.54
-17.51
-21.52
-25.7
-30.18
-35.06
-40.2
-45.18
-49.34
-51.93
-52.43
-50.66
-46.95
-41.98
-36.51
-31.17
-26.23
-21.7
-17.45
-13.43
-9.74
-6.6
-4.12
-2.2
-0.46
1.6
4.41
8.09
12.42
16.95
21.2
24.87
27.91
30.48
32.81
35.04
37.13
38.9
40.08
40.42
39.83
38.37
36.25
33.77
31.17
28.52
25.75
22.59
18.71
13.87
7.96
1.15
-6.14
-13.24
-19.42
-24.03
-26.61
-27.08
-25.69
-22.99
-19.64
-16.28
-13.3
-10.88
-8.97
-7.45
-6.25
-5.33
-4.74
-4.48
-4.47
-4.52
-4.37
-3.78
-2.63
-0.92
1.19
3.5
5.81
7.96
9.85
11.42
12.65
13.52
14.02
14.19
14.04
13.63
13
12.18
11.15
9.91
8.45
6.75
4.89
2.91
0.91
-1.09
-3.13
-5.32
-7.83
-10.75
-14.02
-17.28
-19.99
-21.47
-21.23
-19.1
-15.35
-10.54
-5.4
-0.54
3.6
6.8
9.03
10.3
10.7
10.35
9.43
8.22
7.03
6.15
5.78
5.93
6.49
7.25
8.04
8.73
9.33
9.91
10.59
11.34
12.06
12.52
12.52
11.98
10.99
9.73
8.43
7.25
6.25
5.44
4.78
4.2
3.58
2.77
1.59
-0.03
-2.08
-4.38
-6.75
-9.05
-11.32
-13.79
-16.79
-20.58
-25.27
-30.63
-36.11
-40.93
-44.25
-45.36
-43.96
-40.23
-34.77
-28.37
-21.83
-15.71
-10.32
-5.78
-2.07
0.84
3
4.49
5.43
5.97
6.32
6.65
7.1
7.74
8.57
9.54
10.58
11.61
12.58
13.42
14.1
14.58
14.8
14.73
14.38
13.74
12.84
11.68
10.27
8.66
6.91
5.06
3.18
1.27
-0.69
-2.73
-4.8
-6.81
-8.66
-10.37
-12.12
-14.22
-16.93
-20.28
-23.9
-27.12
-29.09
-29.09
-26.8
-22.33
-16.23
-9.24
-2.12
4.53
10.34
15.15
18.97
21.87
23.9
25.11
25.51
25.16
24.27
23.1
21.97
21.11
20.61
20.42
20.4
20.46
20.52
20.55
20.51
20.25
19.64
18.57
17.07
15.27
13.39
11.58
9.93
8.46
7.07
5.61
3.92
1.9
-0.5
-3.22
-6.09
-8.89
-11.49
-13.87
-16.18
-18.68
-21.67
-25.34
-29.66
-34.27
-38.61
-41.92
-43.45
-42.69
-39.55
-34.36
-27.78
-20.63
-13.63
-7.31
-1.95
2.35
5.65
8.05
9.71
10.83
11.63
12.31
13.02
13.83
14.71
15.58
16.33
16.88
17.23
17.41
17.51
17.64
17.8
17.91
17.79
17.27
16.26
14.85
13.28
11.82
10.68
9.9
9.41
9.02
8.52
7.76
6.62
5.06
3.07
0.76
-1.74
-4.26
-6.68
-9.05
-11.51
-14.31
-17.63
-21.5
-25.64
-29.57
-32.66
-34.32
-34.15
-32.05
-28.27
-23.28
-17.63
-11.84
-6.33
-1.36
2.89
6.34
8.94
10.75
11.91
12.68
13.28
13.93
14.71
15.59
16.48
17.24
17.78
18.05
18.07
17.88
17.59
17.32
17.14
17.05
16.89
16.43
15.42
13.67
11.16
8.01
4.47
0.8
-2.76
-6.07
-9.12
-11.97
-14.77
-17.7
-20.89
-24.37
-28.01
-31.49
-34.28
-35.78
-35.45
-33
-28.48
-22.36
-15.37
-8.35
-2.03
3.16
7.06
9.78
11.53
12.49
12.8
12.5
11.65
10.39
8.94
7.57
6.54
5.99
5.9
6.17
6.62
7.08
7.45
7.64
7.58
7.21
6.47
5.36
3.93
2.26
0.39
-1.65
-3.87
-6.24
-8.69
-11.08
-13.26
-15.14
-16.77
-18.29
-19.93
-21.91
-24.35
-27.26
-30.4
-33.34
-35.49
-36.26
-35.23
-32.33
-27.87
-22.48
-16.86
-11.68
-7.32
-3.93
-1.44
0.31
1.48
2.19
2.54
2.62
2.55
2.48
2.56
2.85
3.39
4.15
5.08
6.17
7.44
8.88
10.45
11.98
13.27
14.15
14.53
14.41
13.86
12.94
11.65
9.96
7.86
5.33
2.45
-0.64
-3.8
-6.84
-9.64
-12.19
-14.54
-16.89
-19.35
-21.87
-24.15
-25.55
-25.31
-22.76
-17.6
-10
-0.59
9.7
19.93
29.28
37.29
43.77
48.75
52.33
54.62
55.66
55.48
54.2
52.09
49.52
46.95
44.74
43.16
42.32
42.24
42.86
44.05
45.6
47.24
48.67
49.66
50.08
49.95
49.39
48.52
47.41
45.98
44.08
41.55
38.19
33.85
28.45
21.92
14.33
5.83
-3.28
-12.68
-22.09
-31.35
-40.42
-49.3
-57.83
-65.6
-71.99
-76.33
-78.23
-77.68
-75.18
-71.46
-67.24
-62.99
-58.88
-54.88
-50.93
-47.05
-43.36
-39.95
-36.79
-33.72
-30.52
-27.03
-23.23
-19.23
-15.17
-11.18
-7.35
-3.78
-0.57
2.13
4.28
5.98
7.46
9
10.77
12.75
14.69
16.27
17.2
17.35
16.82
15.83
14.66
13.54
12.64
12.02
11.65
11.43
11.13
10.49
9.3
7.45
5.07
2.52
0.35
-0.9
-0.84
0.56
3.04
6.06
9.01
11.36
12.75
13.04
12.21
10.41
7.82
4.65
1.05
-2.86
-7
-11.24
-15.37
-19.11
-22.19
-24.45
-25.89
-26.67
-26.98
-26.92
-26.47
-25.43
-23.62
-20.92
-17.4
-13.24
-8.7
-4.02
0.64
5.18
9.5
13.45
16.87
19.53
21.29
22.06
21.84
20.71
18.8
16.37
13.79
11.56
10.21
10.13
11.45
13.94
17.06
20.17
22.67
24.15
24.46
23.62
21.74
18.97
15.44
11.25
6.5
1.35
-3.95
-9.03
-13.47
-16.94
-19.27
-20.51
-20.87
-20.61
-19.89
-18.8
-17.38
-15.74
-14.14
-12.9
-12.32
-12.48
-13.19
-14.12
-14.94
-15.47
-15.75
-15.97
-16.34
-16.98
-17.98
-19.36
-21.14
-23.24
-25.41
-27.16
-27.9
-27.08
-24.45
-20.15
-14.69
-8.71
-2.8
2.66
7.48
11.55
14.78
17.08
18.42
18.85
18.53
17.73
16.72
15.78
15.11
14.84
14.97
15.37
15.82
16.11
16.09
15.74
15.17
14.48
13.69
12.72
11.38
9.51
7.04
4.09
0.91
-2.2
-5.02
-7.48
-9.71
-11.98
-14.64
-17.86
-21.61
-25.53
-29
-31.29
-31.79
-30.2
-26.64
-21.65
-15.99
-10.46
-5.66
-1.84
1.02
3.13
4.75
6
6.95
7.58
7.88
7.95
7.96
8.09
8.43
8.95
9.56
10.12
10.57
10.93
11.27
11.58
11.73
11.51
10.71
9.24
7.21
4.89
2.56
0.36
-1.72
-3.82
-6.14
-8.78
-11.81
-15.21
-18.9
-22.66
-26.13
-28.75
-29.91
-29.12
-26.24
-21.56
-15.74
-9.56
-3.69
1.5
5.94
9.71
12.93
15.61
17.7
19.12
19.87
20.08
19.97
19.79
19.7
19.73
19.78
19.67
19.29
18.66
17.88
17.11
16.45
15.83
15.08
13.97
12.33
10.12
7.46
4.54
1.58
-1.27
-3.99
-6.68
-9.55
-12.79
-16.46
-20.4
-24.18
-27.17
-28.71
-28.33
-25.92
-21.7
-16.22
-10.09
-3.88
2.02
7.4
12.1
16.05
19.12
21.21
22.29
22.46
21.96
21.09
20.16
19.39
18.87
18.59
18.46
18.38
18.19
17.78
17.07
16.04
14.74
13.23
11.56
9.73
7.69
5.4
2.86
0.18
-2.45
-4.82
-6.8
-8.36
-9.61
-10.78
-12.11
-13.78
-15.89
-18.36
-21.04
-23.64
-25.74
-26.92
-26.72
-24.79
-21.03
-15.66
-9.23
-2.46
3.89
9.28
13.44
16.37
18.23
19.23
19.54
19.32
18.72
17.89
17.02
16.26
15.69
15.3
15.03
14.74
14.32
13.69
12.85
11.84
10.72
9.53
8.2
6.63
4.71
2.44
-0.04
-2.45
-4.46
-5.87
-6.65
-6.94
-7.03
-7.2
-7.65
-8.46
-9.7
-11.34
-13.35
-15.49
-17.31
-18.22
-17.61
-15.12
-10.83
-5.24
0.86
6.67
11.59
15.39
18.07
19.82
20.81
21.13
20.82
19.95
18.62
16.94
15.04
13.04
11.05
9.13
7.38
5.84
4.53
3.4
2.39
1.43
0.49
-0.43
-1.37
-2.43
-3.76
-5.46
-7.54
-9.88
-12.28
-14.57
-16.67
-18.59
-20.4
-22.14
-23.79
-25.32
-26.8
-28.4
-30.31
-32.64
-35.22
-37.55
-38.93
-38.74
-36.64
-32.76
-27.63
-21.93
-16.34
-11.24
-6.76
-2.81
0.74
4.02
7.05
9.86
12.48
15.04
17.7
20.64
23.99
27.81
32.05
36.57
41.16
45.62
49.72
53.2
55.82
57.33
57.57
56.53
54.38
51.44
48.07
44.54
40.92
37.08
32.81
27.93
22.45
16.59
10.74
5.26
0.38
-3.91
-7.81
-11.67
-15.81
-20.43
-25.54
-30.87
-35.96
-40.24
-43.16
-44.34
-43.65
-41.24
-37.45
-32.73
-27.58
-22.49
-17.88
-14.08
-11.23
-9.24
-7.83
-6.61
-5.19
-3.41
-1.28
0.98
3.13
4.97
6.43
7.58
8.51
9.34
10.1
10.77
11.26
11.48
11.37
10.9
10.09
9.01
7.71
6.28
4.79
3.3
1.8
0.22
-1.56
-3.65
-6.04
-8.58
-11.02
-13.14
-14.81
-16.12
-17.31
-18.64
-20.35
-22.51
-25.03
-27.68
-30.14
-31.98
-32.73
-32.01
-29.61
-25.64
-20.51
-14.82
-9.19
-4.07
0.36
4.12
7.29
9.92
11.93
13.24
13.82
13.76
13.3
12.72
12.24
11.98
11.93
12.03
12.19
12.42
12.8
13.49
14.67
16.41
18.65
21.17
23.66
25.77
27.23
27.87
27.64
26.61
24.91
22.71
20.16
17.36
14.33
11.02
7.42
3.54
-0.55
-4.78
-9.11
-13.55
-18.14
-22.89
-27.74
-32.58
-37.29
-41.75
-45.77
-49.11
-51.37
-52.1
-50.93
-47.72
-42.67
-36.36
-29.53
-22.94
-17.08
-12.19
-8.2
-4.96
-2.31
-0.23
1.28
2.25
2.92
3.64
4.87
7
10.23
14.52
19.67
25.33
31.14
36.8
42.02
46.6
50.34
53.06
54.61
54.86
53.75
51.31
47.73
43.24
38.1
32.48
26.48
20.12
13.46
6.53
-0.6
-7.88
-15.29
-22.69
-29.87
-36.43
-41.9
-45.84
-47.96
-48.22
-46.77
-43.91
-40.01
-35.49
-30.77
-26.21
-22.07
-18.5
-15.46
-12.83
-10.51
-8.38
-6.42
-4.59
-2.84
-1.08
0.75
2.68
4.66
6.57
8.22
9.49
10.29
10.6
10.47
9.92
8.94
7.5
5.54
3.13
0.41
-2.39
-5.05
-7.44
-9.64
-11.83
-14.27
-17.15
-20.5
-24.11
-27.56
-30.29
-31.73
-31.47
-29.36
-25.59
-20.62
-15.09
-9.61
-4.61
-0.3
3.25
6.06
8.13
9.43
9.96
9.81
9.2
8.41
7.7
7.22
7
6.93
6.9
6.79
6.57
6.25
5.89
5.51
5.08
4.52
3.69
2.44
0.71
-1.44
-3.8
-6.12
-8.17
-9.9
-11.42
-12.98
-14.91
-17.45
-20.66
-24.41
-28.34
-31.86
-34.33
-35.13
-33.8
-30.24
-24.73
-17.89
-10.54
-3.47
2.76
7.88
11.89
14.93
17.16
18.64
19.38
19.41
18.83
17.92
17.01
16.43
16.34
16.67
17.19
17.62
17.75
17.55
17.09
16.47
15.76
14.91
13.84
12.43
10.65
8.54
6.2
3.73
1.23
-1.22
-3.66
-6.15
-8.89
-12.02
-15.64
-19.59
-23.5
-26.8
-28.87
-29.25
-27.72
-24.37
-19.53
-13.73
-7.51
-1.4
4.19
8.94
12.71
15.48
17.32
18.36
18.71
18.5
17.91
17.14
16.43
16
15.94
16.23
16.69
17.13
17.37
17.32
16.98
16.34
15.39
14.02
12.1
9.53
6.3
2.54
-1.5
-5.49
-9.2
-12.49
-15.46
-18.33
-21.38
-24.81
-28.65
-32.71
-36.58
-39.71
-41.46
-41.24
-38.65
-33.61
-26.41
-17.69
-8.32
0.82
9
15.75
20.89
24.44
26.57
27.5
27.49
26.81
25.74
24.58
23.59
22.95
22.71
22.81
23.06
23.24
23.19
22.82
22.19
21.39
20.48
19.42
18.1
16.37
14.13
11.39
8.3
5.09
1.97
-0.92
-3.59
-6.18
-8.88
-11.9
-15.39
-19.35
-23.61
-27.77
-31.24
-33.32
-33.38
-31.12
-26.61
-20.34
-13.07
-5.59
1.42
7.56
12.62
16.55
19.41
21.28
22.26
22.49
22.17
21.49
20.71
20.07
19.75
19.89
20.44
21.24
22.02
22.53
22.6
22.23
21.54
20.66
19.65
18.48
17
15.05
12.53
9.44
5.86
1.96
-2.11
-6.19
-10.15
-13.94
-17.54
-21.02
-24.45
-27.93
-31.48
-34.96
-38.04
-40.14
-40.61
-38.87
-34.7
-28.29
-20.31
-11.67
-3.25
4.34
10.83
16.22
20.66
24.24
26.99
28.91
30.02
30.41
30.25
29.71
28.97
28.15
27.35
26.6
25.89
25.18
24.39
23.48
22.43
21.25
19.93
18.39
16.51
14.18
11.34
8.06
4.52
0.95
-2.46
-5.61
-8.48
-11.12
-13.64
-16.17
-18.9
-22.03
-25.72
-30
-34.67
-39.23
-42.92
-44.87
-44.37
-41.06
-35.15
-27.32
-18.55
-9.81
-1.85
4.99
10.6
15.04
18.33
20.42
21.29
21.09
20.16
19.01
18.15
17.88
18.23
18.96
19.75
20.28
20.41
20.12
19.48
18.54
17.28
15.61
13.42
10.66
7.37
3.7
-0.11
-3.79
-7.12
-9.95
-12.31
-14.34
-16.27
-18.38
-20.88
-23.85
-27.15
-30.38
-32.9
-34.01
-33.11
-29.93
-24.6
-17.66
-9.86
-2
5.22
11.31
16.01
19.24
21.1
21.77
21.53
20.65
19.4
18.01
16.67
15.54
14.73
14.25
14.02
13.9
13.77
13.56
13.24
12.79
12.08
10.93
9.11
6.52
3.23
-0.42
-4.04
-7.26
-9.91
-12.11
-14.17
-16.51
-19.45
-23.08
-27.22
-31.39
-34.91
-37.04
-37.17
-34.98
-30.54
-24.28
-16.89
-9.14
-1.71
4.87
10.29
14.44
17.35
19.17
20.11
20.39
20.19
19.68
19.01
18.31
17.71
17.3
17.05
16.84
16.5
15.91
15.1
14.19
13.34
12.56
11.66
10.29
8.17
5.24
1.73
-1.91
-5.23
-7.98
-10.22
-12.27
-14.51
-17.26
-20.6
-24.37
-28.14
-31.39
-33.5
-33.94
-32.37
-28.74
-23.33
-16.7
-9.58
-2.64
3.53
8.62
12.51
15.28
17.15
18.36
19.12
19.61
19.91
20.08
20.14
20.1
19.92
19.55
18.94
18.1
17.14
16.22
15.51
15.09
14.84
14.51
13.78
12.37
10.15
7.16
3.58
-0.3
-4.18
-7.79
-10.96
-13.7
-16.19
-18.75
-21.71
-25.25
-29.24
-33.25
-36.56
-38.4
-38.11
-35.36
-30.26
-23.32
-15.38
-7.4
-0.19
5.72
10.2
13.42
15.71
17.38
18.66
19.57
20.14
20.37
20.38
20.31
20.25
20.26
20.26
20.16
19.9
19.47
18.94
18.32
17.61
16.72
15.57
14.13
12.38
10.37
8.12
5.63
2.89
-0.07
-3.16
-6.2
-9
-11.41
-13.42
-15.15
-16.9
-18.98
-21.65
-24.96
-28.71
-32.43
-35.46
-37.04
-36.56
-33.73
-28.71
-22.09
-14.71
-7.51
-1.2
3.85
7.61
10.32
12.28
13.74
14.86
15.67
16.19
16.42
16.38
16.12
15.68
15.15
14.61
14.16
13.89
13.85
13.99
14.18
14.23
13.95
13.22
12.07
10.63
9.06
7.48
5.93
4.33
2.54
0.47
-1.93
-4.6
-7.44
-10.28
-12.95
-15.34
-17.4
-19.2
-20.93
-22.89
-25.33
-28.36
-31.78
-35.06
-37.39
-37.98
-36.26
-32.12
-25.97
-18.61
-10.92
-3.66
2.69
7.97
12.19
15.45
17.8
19.27
19.96
20.02
19.66
19.08
18.41
17.71
16.94
16.09
15.2
14.34
13.56
12.89
12.27
11.57
10.69
9.59
8.26
6.73
5.07
3.3
1.45
-0.41
-2.23
-3.95
-5.59
-7.19
-8.79
-10.44
-12.12
-13.81
-15.5
-17.23
-19.1
-21.24
-23.73
-26.49
-29.26
-31.53
-32.65
-32.03
-29.32
-24.61
-18.4
-11.47
-4.58
1.7
7.08
11.53
15.14
17.97
20.07
21.43
22.09
22.15
21.81
21.29
20.84
20.64
20.79
21.27
21.99
22.78
23.45
23.86
23.84
23.27
22.09
20.23
17.74
14.67
11.14
7.26
3.14
-1.06
-5.17
-8.97
-12.29
-15.05
-17.25
-19.06
-20.69
-22.43
-24.5
-27.04
-30.03
-33.2
-36.09
-38.07
-38.53
-37.03
-33.51
-28.29
-22.02
-15.51
-9.51
-4.56
-0.88
1.6
3.11
3.94
4.36
4.49
4.35
3.94
3.29
2.52
1.81
1.34
1.25
1.59
2.32
3.36
4.54
5.66
6.49
6.8
6.47
5.46
3.91
2.04
0.08
-1.77
-3.45
-5.01
-6.59
-8.43
-10.71
-13.52
-16.76
-20.03
-22.72
-24.13
-23.71
-21.27
-17.06
-11.71
-6
-0.65
3.88
7.42
9.98
11.69
12.67
13.02
12.85
12.29
11.57
10.89
10.47
10.4
10.68
11.2
11.77
12.24
12.45
12.32
11.82
10.92
9.65
8.06
6.2
4.13
1.93
-0.31
-2.54
-4.74
-6.96
-9.31
-11.95
-14.97
-18.26
-21.44
-23.92
-25.03
-24.25
-21.41
-16.78
-10.99
-4.81
1.07
6.16
10.29
13.47
15.82
17.47
18.5
18.94
18.81
18.14
17.07
15.8
14.59
13.67
13.11
12.85
12.69
12.39
11.78
10.79
9.49
7.96
6.27
4.45
2.53
0.5
-1.58
-3.7
-5.86
-8.2
-10.87
-13.97
-17.39
-20.76
-23.46
-24.8
-24.3
-21.81
-17.6
-12.23
-6.41
-0.77
4.24
8.39
11.59
13.85
15.23
15.86
15.88
15.48
14.85
14.15
13.46
12.8
12.17
11.57
11.06
10.74
10.68
10.86
11.11
11.15
10.69
9.58
7.86
5.76
3.57
1.52
-0.34
-2.14
-4.09
-6.39
-9.17
-12.43
-16.06
-19.8
-23.2
-25.67
-26.53
-25.27
-21.73
-16.25
-9.54
-2.51
4.02
9.55
13.93
17.27
19.76
21.53
22.62
23.01
22.7
21.83
20.58
19.2
17.84
16.58
15.36
14.12
12.83
11.53
10.31
9.19
8.11
6.94
5.58
3.98
2.18
0.28
-1.64
-3.54
-5.38
-7.1
-8.61
-9.89
-10.99
-12.08
-13.38
-15.04
-17.1
-19.43
-21.76
-23.7
-24.81
-24.7
-23.08
-19.92
-15.46
-10.16
-4.64
0.55
5.02
8.6
11.27
13.1
14.17
14.53
14.24
13.41
12.22
10.89
9.72
9.02
9.06
10.09
12.27
15.71
20.39
26.21
32.92
40.11
47.27
53.81
59.2
63.04
65.12
65.41
63.99
60.98
56.49
50.62
43.49
35.32
26.4
17.1
7.73
-1.48
-10.41
-19.09
-27.57
-35.9
-44.02
-51.69
-58.5
-63.84
-67.11
-67.88
-65.99
-61.72
-55.65
-48.55
-41.16
-34.05
-27.57
-21.85
-16.9
-12.67
-9.11
-6.18
-3.86
-2.13
-0.93
-0.17
0.3
0.66
1.08
1.65
2.4
3.24
4.08
4.83
5.43
5.86
6.11
6.13
5.84
5.2
4.27
3.17
2.1
1.18
0.42
-0.32
-1.25
-2.52
-4.13
-5.97
-7.84
-9.58
-11.12
-12.48
-13.79
-15.25
-17.05
-19.38
-22.23
-25.39
-28.37
-30.5
-31.13
-29.84
-26.64
-21.91
-16.35
-10.69
-5.55
-1.3
1.96
4.3
5.88
6.88
7.46
7.71
7.75
7.69
7.69
7.92
8.51
9.51
10.86
12.44
14.1
15.73
17.29
18.73
20.02
21.02
21.57
21.52
20.82
19.53
17.81
15.87
13.88
11.94
10
7.97
5.68
3.04
0.03
-3.23
-6.57
-9.84
-12.91
-15.82
-18.65
-21.52
-24.58
-27.88
-31.37
-34.78
-37.58
-39.11
-38.68
-35.95
-31.02
-24.57
-17.56
-10.93
-5.28
-0.76
2.85
5.88
8.56
10.95
12.95
14.46
15.42
15.91
16.08
16.09
16.05
16.03
16.07
16.17
16.3
16.43
16.52
16.53
16.39
16
15.27
14.13
12.55
10.66
8.66
6.77
5.09
3.56
1.97
0.05
-2.34
-5.16
-8.22
-11.26
-14.12
-16.77
-19.41
-22.24
-25.46
-29.08
-32.88
-36.4
-39
-40.05
-39.11
-36.02
-31.07
-24.81
-17.95
-11.16
-4.88
0.63
5.33
9.25
12.48
15.08
17.1
18.6
19.65
20.34
20.82
21.23
21.75
22.47
23.41
24.45
25.39
25.99
26.04
25.43
24.17
22.37
20.16
17.67
15.01
12.18
9.2
6.04
2.72
-0.72
-4.15
-7.42
-10.39
-12.97
-15.17
-17.03
-18.71
-20.38
-22.24
-24.47
-27.11
-30
-32.7
-34.55
-34.87
-33.13
-29.19
-23.37
-16.32
-8.9
-1.86
4.24
9.14
12.81
15.31
16.79
17.41
17.34
16.75
15.82
14.72
13.57
12.51
11.63
11
10.64
10.49
10.44
10.34
10.1
9.68
9.06
8.25
7.21
5.9
4.31
2.51
0.59
-1.34
-3.23
-5.06
-6.89
-8.73
-10.58
-12.38
-14.11
-15.85
-17.76
-20.02
-22.68
-25.54
-28.09
-29.65
-29.54
-27.34
-23.04
-17.05
-10.06
-2.8
4.11
10.29
15.53
19.78
22.99
25.18
26.4
26.86
26.89
26.82
26.94
27.32
27.83
28.27
28.44
28.25
27.76
27.1
26.41
25.76
25.13
24.35
23.19
21.43
18.96
15.84
12.3
8.68
5.3
2.29
-0.41
-3.02
-5.82
-9.01
-12.63
-16.59
-20.65
-24.45
-27.53
-29.39
-29.58
-27.87
-24.36
-19.49
-13.95
-8.45
-3.54
0.46
3.49
5.6
6.87
7.36
7.12
6.29
5.07
3.72
2.5
1.58
0.99
0.61
0.28
-0.2
-0.91
-1.83
-2.86
-3.89
-4.88
-5.93
-7.2
-8.82
-10.84
-13.08
-15.29
-17.17
-18.56
-19.49
-20.17
-20.92
-22.04
-23.7
-25.82
-28.09
-29.93
-30.68
-29.73
-26.74
-21.72
-15.08
-7.49
0.31
7.69
14.21
19.61
23.81
26.82
28.7
29.59
29.72
29.37
28.82
28.35
28.12
28.21
28.51
28.9
29.17
29.2
28.92
28.34
27.5
26.38
24.85
22.75
19.93
16.34
12.13
7.54
2.84
-1.78
-6.28
-10.74
-15.28
-19.99
-24.9
-29.94
-34.98
-39.81
-44.13
-47.5
-49.41
-49.43
-47.31
-43.15
-37.38
-30.66
-23.69
-17.05
-11.07
-5.88
-1.5
2.13
5.05
7.31
9
10.3
11.38
12.44
13.56
14.71
15.76
16.59
17.13
17.36
17.33
17.04
16.38
15.18
13.26
10.6
7.33
3.76
0.23
-3
-5.82
-8.27
-10.48
-12.63
-14.88
-17.35
-20.02
-22.7
-24.93
-26.09
-25.6
-23.1
-18.63
-12.65
-5.85
0.98
7.18
12.28
16.1
18.58
19.88
20.26
20.05
19.62
19.25
19.08
19.13
19.26
19.3
19.15
18.79
18.25
17.64
17
16.27
15.3
13.9
11.96
9.49
6.66
3.73
0.93
-1.59
-3.88
-6.06
-8.35
-10.97
-14.04
-17.55
-21.23
-24.56
-26.84
-27.41
-25.88
-22.33
-17.31
-11.66
-6.19
-1.43
2.46
5.59
8.16
10.27
11.91
13.01
13.53
13.54
13.2
12.69
12.14
11.62
11.12
10.6
10.06
9.5
8.95
8.47
8.06
7.65
7.08
6.12
4.59
2.39
-0.38
-3.38
-6.21
-8.45
-9.9
-10.64
-11.04
-11.66
-12.98
-15.23
-18.2
-21.25
-23.55
-24.3
-23.02
-19.71
-14.83
-9.1
-3.3
1.92
6.21
9.46
11.79
13.4
14.5
15.23
15.61
15.63
15.28
14.62
13.85
13.22
12.97
13.25
14
15.05
16.13
17.02
17.6
17.89
17.96
17.89
17.68
17.22
16.33
14.81
12.58
9.7
6.4
2.97
-0.35
-3.44
-6.37
-9.25
-12.24
-15.41
-18.78
-22.24
-25.57
-28.41
-30.32
-30.79
-29.47
-26.26
-21.42
-15.53
-9.29
-3.33
1.96
6.45
10.19
13.24
15.61
17.25
18.14
18.38
18.19
17.86
17.67
17.74
18.05
18.45
18.76
18.8
18.47
17.73
16.67
15.4
14.04
12.68
11.33
9.95
8.48
6.92
5.31
3.74
2.29
1.01
-0.06
-0.88
-1.4
-1.65
-1.71
-1.75
-1.93
-2.36
-3
-3.64
-3.92
-3.45
-1.87
1.01
5.22
10.59
16.81
23.5
30.33
37.08
43.66
49.98
55.86
60.97
64.91
67.42
68.51
68.64
68.58
69.19
71.15
74.72
79.64
85.15
90.06
93.03
92.7
88.06
78.67
64.84
47.61
28.55
9.36
-8.48
-24.01
-36.91
-47.49
-56.62
-65.48
-75.27
-86.87
-100.5
-115.63
-131.02
-145.13
-156.48
-164.16
-168
-168.56
-166.94
-164.32
-161.65
-159.31
-157.04
-154.12
-149.64
-142.92
-133.77
-122.54
-110.02
-97.12
-84.65
-73.08
-62.57
-53
-44.08
-35.47
-26.8
-17.68
-7.83
2.91
14.47
26.53
38.56
49.95
60.19
68.92
76.03
81.58
85.65
88.3
89.53
89.32
87.76
85.05
81.52
77.53
73.38
69.26
65.29
61.53
58.03
54.83
51.94
49.32
46.93
44.84
43.25
42.46
42.75
44.19
46.54
49.25
51.62
53.08
53.32
52.35
50.41
47.78
44.64
41.09
37.14
32.9
28.6
24.52
20.93
17.87
15.21
12.65
9.93
6.97
3.92
1.01
-1.59
-3.97
-6.37
-9.12
-12.38
-16.04
-19.75
-23.12
-25.9
-28.09
-29.85
-31.43
-33
-34.61
-36.16
-37.5
-38.39
-38.58
-37.78
-35.83
-32.72
-28.65
-23.98
-19.14
-14.46
-10.17
-6.39
-3.18
-0.61
1.29
2.55
3.27
3.59
3.67
3.63
3.51
3.35
3.16
2.98
2.85
2.78
2.75
2.71
2.54
2.13
1.34
0.09
-1.61
-3.64
-5.81
-7.96
-10
-12
-14.12
-16.54
-19.35
-22.51
-25.8
-28.93
-31.54
-33.25
-33.73
-32.74
-30.16
-26.15
-21.11
-15.65
-10.36
-5.7
-1.88
1.2
3.74
5.92
7.78
9.26
10.24
10.71
10.78
10.66
10.55
10.56
10.7
10.92
11.18
11.45
11.71
11.93
12.01
11.87
11.4
10.62
9.58
8.41
7.24
6.14
5.11
4.09
2.93
1.46
-0.49
-3.05
-6.2
-9.7
-13.03
-15.55
-16.69
-16.11
-13.93
-10.58
-6.7
-2.88
0.53
3.39
5.78
7.74
9.27
10.33
10.83
10.74
10.11
9.05
7.65
6.06
4.37
2.72
1.22
-0.06
-1.11
-1.98
-2.79
-3.65
-4.63
-5.81
-7.22
-8.9
-10.81
-12.87
-14.92
-16.8
-18.37
-19.63
-20.69
-21.79
-23.2
-25.1
-27.52
-30.26
-32.93
-35
-35.93
-35.29
-32.88
-28.76
-23.21
-16.75
-9.93
-3.35
2.55
7.49
11.4
14.36
16.54
18.09
19.1
19.58
19.53
19.01
18.15
17.15
16.17
15.31
14.57
13.92
13.32
12.78
12.32
11.94
11.6
11.15
10.42
9.28
7.69
5.74
3.61
1.49
-0.45
-2.17
-3.74
-5.29
-6.97
-8.92
-11.23
-13.91
-16.88
-19.9
-22.55
-24.28
-24.57
-23.07
-19.81
-15.18
-9.88
-4.63
0.04
3.91
7.04
9.61
11.75
13.42
14.54
15.06
15.08
14.82
14.58
14.57
14.83
15.24
15.62
15.84
15.91
15.91
15.97
16.11
16.22
16.07
15.4
14.05
12.01
9.48
6.74
4.11
1.78
-0.23
-2.09
-4.05
-6.33
-9.04
-12.17
-15.51
-18.7
-21.28
-22.77
-22.74
-20.99
-17.62
-12.98
-7.67
-2.3
2.62
6.76
10.01
12.36
13.82
14.4
14.13
13.1
11.45
9.39
7.11
4.83
2.68
0.75
-0.92
-2.39
-3.75
-5.08
-6.4
-7.61
-8.58
-9.19
-9.44
-9.51
-9.66
-10.06
-10.72
-11.45
-11.99
-12.15
-11.89
-11.35
-10.79
-10.44
-10.47
-10.97
-11.89
-13.01
-13.88
-13.91
-12.46
-9.07
-3.74
3.06
10.58
17.96
24.6
30.24
34.88
38.64
41.57
43.58
44.46
44.11
42.59
40.15
37.16
33.89
30.49
26.92
23.11
19.1
15.1
11.41
