52.33
58.18
63.19
66.95
69.23
69.83
68.59
65.32
59.97
52.72
44.03
34.59
25.16
16.43
9.05
3.51
0.25
-0.45
1.37
5.24
10.21
15.08
18.68
20.25
19.51
16.6
11.84
5.51
-2.08
-10.6
-19.45
-27.92
-35.4
-41.72
-47.33
-53.01
-59.57
-67.34
-76.05
-84.99
-93.28
-99.94
-103.7
-102.97
-96.19
-82.57
-62.9
-39.79
-16.89
2.6
17.38
28.34
37.64
47
56.37
64
67.76
66.69
61.96
56.35
52.73
52.48
55.07
58.45
60.34
59.26
54.52
46.22
34.77
20.71
4.84
-11.22
-25.5
-35.97
-41.11
-41.06
-37.39
-32.63
-29.64
-30.74
-36.61
-46.96
-60.32
-74.48
-88.02
-100.19
-110.94
-120.96
-131.23
-141.96
-153.55
-166.04
-178.75
-191.37
-202.96
-211.6
-214.83
-210.64
-197.62
-177.73
-155.66
-130.29
-102.77
-74.62
-46.71
-19.08
2.7
20.74
38.49
58.6
82.02
108.89
135.98
158.68
172.59
175.08
167.16
151.28
130.86
109.34
88.61
69.58
53.3
41.31
35.44
37.92
49.07
67.36
90.28
114.66
137.78
158.28
176.01
191.62
206.62
222.02
238.27
255.24
271.89
286.56
297.59
303.82
305.07
302.42
297.54
292.17
287.27
282.31
275.15
262.75
242.27
212.27
173.51
128.71
81.61
35.7
-6.84
-45.61
-81.6
-116.52
-152.35
-190.93
-233.56
-280.08
-327.86
-371.49
-403.82
-418.43
-412.3
-387.48
-350.53
-309.95
-273
-243.25
-220.29
-200.98
-181.65
-159.68
-134.22
-105.82
-75.85
-45.92
-17.71
7.17
27.28
41.51
49.2
50.45
46.46
39.57
33.07
30.32
33.66
43.47
57.95
73.7
87.09
95.41
97.59
94.08
86.18
75.37
62.88
49.63
36.43
23.98
12.6
1.95
-9.15
-22.44
-39.5
-60.93
-85.76
-111.41
-134.3
-150.86
-158.83
-158.03
-150.55
-140.02
-130.31
-124.18
-122.58
-124.72
-128.94
-133.48
-136.88
-137.75
-134.57
-125.78
-110.59
-89.98
-67.07
-46.28
-31.48
-24.15
-22.51
-22.48
-19.81
-12.23
-0.39
12.8
23.94
30.93
33.75
33.95
33.42
33.23
33.29
32.75
30.8
27.25
22.63
17.67
12.88
8.36
3.93
-0.5
-4.68
-7.85
-9.12
-7.73
-3.41
3.46
11.91
20.61
28.26
33.82
36.84
37.43
36.19
33.87
31.2
28.72
26.67
25.04
23.61
22.1
20.25
17.99
15.45
12.97
10.97
9.83
9.9
11.37
14.38
18.97
25.11
32.63
41.25
50.5
59.79
68.35
75.44
80.53
83.45
84.41
83.91
82.57
80.92
79.36
78.06
77.09
76.48
76.37
77.15
79.46
83.92
90.8
99.57
108.72
115.94
118.77
115.35
105.16
89.33
70.37
51.53
35.8
24.96
18.97
16.07
13.67
9.61
3.36
-3.8
-9.38
-11.02
-7.75
-0.54
7.93
14.28
15.68
10.73
-0.1
-14.88
-30.95
-45.83
-58.01
-67.07
-73.45
-77.76
-80.33
-81.07
-79.87
-76.98
-73.16
-69.4
-66.42
-64.33
-62.83
-61.6
-60.79
-61.13
-63.52
-68.5
-75.69
-83.69
-90.52
-94.27
-93.75
-88.8
-80.05
-68.57
-55.42
-41.59
-28.11
-16.18
-6.97
-1
2.52
5.78
11.66
22.27
37.6
55.08
70.39
79.39
79.96
72.83
60.99
48.17
37.11
28.69
22.15
16.1
9.62
2.8
-3.36
-7.55
-8.8
-6.88
-2.34
3.74
10.18
16.05
20.82
24.33
26.54
27.28
26.17
22.7
16.66
8.29
-1.5
-11.38
-19.91
-25.91
-28.63
-27.82
-23.67
-16.81
-8.3
0.42
7.71
11.95
11.86
6.73
-3.25
-16.84
-31.59
-44.2
-51.14
-49.9
-39.97
-23.37
-4.19
12.84
23.9
27.37
23.98
16.08
6.39
-3.04
-11.2
-17.92
-23.28
-27.29
-29.83
-30.8
-30.32
-28.71
-26.29
-23.19
-19.19
-13.85
-6.83
1.9
11.86
22.18
31.77
39.65
45.17
48.15
48.9
48.03
46.27
44.3
42.48
40.89
39.31
37.36
34.71
31.26
27.16
22.77
18.51
14.66
11.19
7.86
4.21
-0.17
-5.55
-11.86
-18.73
-25.48
-31.2
-35
-36.11
-34.13
-29.16
-21.75
-12.75
-3.07
6.6
15.86
24.5
32.35
39.05
44.03
46.62
46.37
43.32
38.09
31.81
25.73
20.82
17.53
15.76
15.11
15.21
15.99
17.64
20.34
23.98
27.94
31.26
32.96
32.42
29.62
25.1
19.75
14.53
10.27
7.59
6.82
8.02
10.94
15.09
19.94
25.09
30.42
36.09
42.31
49.06
55.89
61.98
66.35
68.35
67.92
65.66
62.56
59.48
56.75
54.03
50.57
45.65
38.98
30.83
21.77
12.32
2.72
-7.15
-17.56
-28.76
-40.97
-54.38
-69.01
-84.38
-98.95
-109.94
-113.93
-108.04
-91.45
-66.19
-36.74
-8.64
13.48
27.28
32.97
32.5
28.31
22.34
15.67
8.91
2.6
-2.55
-5.87
-7.13
-6.78
-5.78
-5.26
-5.94
-7.83
-10.33
-12.54
-13.76
-13.83
-13.26
-12.99
-14
-16.88
-21.53
-27.14
-32.4
-35.89
-36.49
-33.7
-27.76
-19.55
-10.21
-0.86
7.72
15.15
21.34
26.35
30.13
32.6
33.65
33.33
31.9
29.78
27.45
25.24
23.26
21.45
19.68
17.86
15.99
14.09
12.16
10.05
7.54
4.37
0.37
-4.5
-10.17
-16.39
-22.77
-28.73
-33.51
-36.27
-36.34
-33.42
-27.76
-20.12
-11.54
-3
4.77
11.4
16.81
21.01
24.04
25.86
26.5
26.08
24.87
23.29
21.73
20.52
19.78
19.46
19.38
19.35
19.22
18.89
18.23
16.9
14.4
10.03
3.23
-6.06
-17.13
-28.48
-38.11
-44.17
-45.48
-41.95
-34.49
-24.64
-13.97
-3.72
5.35
12.89
18.7
22.61
24.5
24.38
22.48
19.3
15.42
11.43
7.72
4.51
1.84
-0.42
-2.47
-4.53
-6.85
-9.57
-12.76
-16.41
-20.42
-24.66
-29
-33.37
-37.74
-42.1
-46.38
-50.41
-53.88
-56.38
-57.4
-56.54
-53.56
-48.5
-41.74
-33.88
-25.69
-17.92
-11.12
-5.61
-1.45
1.47
3.37
4.49
5.13
5.59
6.19
7.19
8.73
10.8
13.26
15.88
18.5
21.06
23.59
26.15
28.63
30.7
31.87
31.62
29.68
26.19
21.76
17.28
13.71
11.71
11.54
13.03
15.74
19.15
22.77
26.18
29.01
30.93
31.66
31
28.9
25.43
20.89
15.68
10.27
5.15
0.63
-3.13
-6.17
-8.69
-10.84
-12.76
-14.5
-16.09
-17.59
-19.13
-20.89
-23.03
-25.67
-28.87
-32.66
-36.88
-41.24
-45.16
-47.92
-48.79
-47.26
-43.26
-37.16
-29.63
-21.41
-13.12
-5.17
2.12
8.41
13.31
16.45
17.71
17.31
15.9
14.31
13.21
12.93
13.32
14
14.61
15.02
15.43
16.15
17.42
19.21
21.2
22.92
23.95
24
22.99
20.98
18.14
14.74
11.19
8.01
5.77
4.9
5.6
7.71
10.84
14.47
18.08
21.26
23.7
25.16
25.44
24.39
22.02
18.51
14.22
9.62
5.16
1.21
-2.04
-4.56
-6.47
-7.98
-9.32
-10.71
-12.3
-14.13
-16.22
-18.6
-21.39
-24.81
-29.09
-34.37
-40.53
-47.1
-53.31
-58.28
-61.22
-61.67
-59.53
-55.07
-48.75
-41.12
-32.68
-23.84
-14.88
-6.03
2.52
10.54
17.73
23.82
28.56
31.9
34.01
35.25
36.02
36.64
37.19
37.49
37.12
35.61
32.48
27.42
20.42
11.73
1.92
-8.24
-17.96
-26.6
-33.86
-39.85
-44.94
-49.58
-53.99
-58.02
-61.16
-62.69
-61.97
-58.6
-52.53
-44
-33.42
-21.31
-8.18
5.5
19.24
32.48
44.57
54.79
62.5
67.3
69.23
68.72
66.51
63.4
59.97
56.41
52.64
48.36
43.36
37.61
31.31
24.76
18.3
12.16
6.47
1.27
-3.5
-7.87
-11.89
-15.65
-19.31
-23.11
-27.26
-31.82
-36.49
-40.75
-43.85
-45.11
-44.12
-40.82
-35.54
-28.8
-21.26
-13.52
-6.16
0.34
5.57
9.32
11.66
13.01
14.07
15.51
17.81
20.95
24.42
27.4
29.06
28.84
26.63
22.79
17.94
12.77
7.87
3.68
0.45
-1.77
-3.16
-4.11
-5.12
-6.73
-9.27
-12.87
-17.36
-22.35
-27.3
-31.67
-35
-36.9
-37.09
-35.42
-31.87
-26.59
-19.94
-12.45
-4.73
2.63
9.19
14.73
19.18
22.6
24.98
26.29
26.51
25.65
23.92
21.62
19.16
16.93
15.22
14.19
13.75
13.69
13.62
13.22
12.3
10.85
9.02
7.01
4.98
2.98
1.02
-0.88
-2.65
-4.2
-5.51
-6.7
-8.04
-9.78
-12.01
-14.57
-17.03
-18.82
-19.43
-18.58
-16.29
-12.8
-8.5
-3.78
0.98
5.43
9.28
12.29
14.34
15.38
15.5
14.85
13.6
11.93
10.03
8.1
6.32
4.83
3.63
2.66
1.73
0.73
-0.41
-1.63
-2.8
-3.77
-4.47
-4.9
-5.13
-5.27
-5.41
-5.59
-5.82
-6.14
-6.62
-7.43
-8.75
-10.77
-13.57
-17.06
-20.92
-24.67
-27.72
-29.5
-29.57
-27.76
-24.14
-19.1
-13.24
-7.25
-1.76
2.76
6.13
8.37
9.64
10.12
9.94
9.19
7.96
6.45
4.98
3.93
3.6
4.13
5.45
7.34
9.58
12.03
14.61
17.34
20.28
23.43
26.79
30.3
33.84
37.24
40.25
42.6
44.02
44.35
43.61
42
39.92
37.84
36.24
35.43
35.53
36.45
37.9
39.46
40.74
41.36
41.03
39.52
36.7
32.55
27.18
20.9
14.14
7.42
1.23
-4.08
-8.37
-11.74
-14.47
-16.88
-19.26
-21.73
-24.23
-26.61
-28.66
-30.27
-31.39
-32.08
-32.46
-32.66
-32.81
-33.04
-33.44
-34.05
-34.86
-35.84
-36.96
-38.15
-39.25
-39.99
-39.97
-38.79
-36.21
-32.27
-27.3
-21.86
-16.49
-11.6
-7.33
-3.71
-0.66
1.84
3.73
4.92
5.4
5.26
4.75
4.2
3.87
3.9
4.29
4.9
5.56
6.1
6.41
6.4
5.95
4.97
3.37
1.16
-1.48
-4.26
-6.82
-8.93
-10.56
-11.93
-13.38
-15.24
-17.64
-20.42
-23.14
-25.23
-26.15
-25.58
-23.48
-20.12
-15.93
-11.41
-6.96
-2.85
0.79
3.94
6.57
8.64
10.11
10.97
11.27
11.11
10.64
9.99
9.24
8.51
7.88
7.41
7.18
7.16
7.28
7.41
7.42
7.12
6.42
5.19
3.42
1.14
-1.49
-4.31
-7.09
-9.68
-12.04
-14.24
-16.46
-18.9
-21.65
-24.62
-27.44
-29.56
-30.35
-29.35
-26.43
-21.89
-16.35
-10.58
-5.27
-0.8
2.69
5.34
7.34
8.87
9.96
10.59
10.65
10.08
8.87
7.1
4.9
2.51
0.15
-1.94
-3.67
-5.04
-6.21
-7.39
-8.77
-10.4
-12.21
-14.06
-15.82
-17.44
-18.96
-20.42
-21.86
-23.32
-24.83
-26.51
-28.52
-30.87
-33.4
-35.64
-36.92
-36.59
-34.21
-29.75
-23.57
-16.29
-8.54
-0.9
6.23
12.56
17.86
21.97
24.8
26.4
26.97
26.86
26.39
25.85
25.43
25.26
25.47
26.2
27.6
29.77
32.66
36.07
39.63
42.85
45.18
46.19
45.61
43.43
39.99
35.83
31.54
27.57
24.11
21.02
17.96
14.52
10.47
5.87
1.07
-3.31
-6.61
-8.34
-8.32
-6.75
-4.09
-0.93
2.21
5
7.27
8.99
10.19
10.84
10.97
10.63
9.94
9.06
8.13
7.28
6.56
5.97
5.45
4.96
4.46
4
3.63
3.45
3.47
3.65
3.83
3.81
3.39
2.47
1.01
-0.86
-3.03
-5.36
-7.79
-10.33
-13.03
-15.95
-19.07
-22.25
-25.21
-27.58
-28.97
-29.12
-28.01
-25.83
-22.93
-19.7
-16.44
-13.29
-10.35
-7.64
-5.24
-3.32
-2.08
-1.75
-2.48
-4.31
-7.07
-10.39
-13.73
-16.41
-17.81
-17.54
-15.52
-11.97
-7.32
-2.01
3.56
8.98
13.78
17.36
19.09
18.48
15.44
10.33
3.91
-2.93
-9.5
-15.44
-20.72
-25.51
-29.96
-34.11
-37.85
-40.99
-43.33
-44.66
-44.82
-43.63
-41.04
-37.09
-32.09
-26.49
-20.86
-15.69
-11.23
-7.48
-4.29
-1.45
1.18
3.64
5.98
8.27
10.66
13.3
16.24
19.39
22.54
25.45
27.94
29.91
31.29
32
31.9
30.83
28.74
25.71
21.97
17.8
13.41
8.79
3.78
-1.86
-8.33
-15.56
-23.16
-30.44
-36.58
-40.79
-42.57
-41.86
-38.98
-34.53
-29.16
-23.3
-17.02
-9.96
-1.46
9.25
22.61
38.37
55.27
71.13
83.37
89.78
89.37
82.71
71.76
59.08
47.03
37.04
29.46
23.89
19.64
16.11
12.93
9.89
6.79
3.43
-0.36
-4.62
-9.23
-13.92
-18.42
-22.49
-26.07
-29.24
-32.18
-35.11
-38.08
-40.95
-43.32
-44.74
-44.98
-44.33
-43.55
-43.5
-44.52
-46.07
-46.76
-45.03
-39.99
-31.98
-22.52
-13.46
-6.14
-0.73
3.64
8.26
14.03
21.08
28.83
36.49
43.57
49.98
55.96
61.62
66.75
70.79
73.06
73.06
70.68
66.12
59.66
51.45
41.53
29.97
17.09
3.48
-10.2
-23.41
-35.9
-47.57
-58.13
-66.96
-73.17
-75.96
-75.11
-71.11
-65.02
-58
-50.92
-44.12
-37.62
-31.31
-25.19
-19.43
-14.19
-9.5
-5.16
-0.82
3.86
9.06
14.73
20.57
26.1
30.76
34.08
35.72
35.59
33.85
30.9
27.26
23.42
19.74
16.31
12.99
9.44
5.28
0.3
-5.47
-11.61
-17.42
-22.04
-24.66
-24.61
-21.55
-15.54
-7.15
2.59
12.31
20.62
26.45
29.33
29.45
27.52
24.43
21
17.79
15.14
13.31
12.47
12.72
13.94
15.75
17.48
18.39
17.84
15.52
11.57
6.57
1.33
-3.32
-6.86
-9.13
-10.32
-10.83
-11.05
-11.31
-11.9
-13.04
-14.83
-17.12
-19.45
-21.12
-21.46
-20.22
-17.76
-14.91
-12.55
-11.08
-10.18
-9.01
-6.72
-3.07
1.37
5.46
8.05
8.49
6.95
4.19
1.19
-1.39
-3.33
-4.79
-6.03
-7.15
-8
-8.35
-8.1
-7.38
-6.63
-6.33
-6.82
-8.15
-10.03
-12.05
-13.86
-15.34
-16.54
-17.54
-18.25
-18.37
-17.48
-15.21
-11.46
-6.45
-0.66
5.27
10.79
15.46
19.07
21.57
23.1
23.88
24.13
24.02
23.69
23.27
22.99
23.18
24.19
26.19
29.06
32.31
35.24
37.25
37.96
37.38
35.73
33.24
29.98
25.82
20.58
14.26
7.11
-0.26
-7.13
-12.79
-16.8
-18.97
-19.32
-18
-15.12
-10.88
-5.61
0.15
5.71
10.42
13.89
16.11
17.36
18.01
18.29
18.17
17.48
16.13
14.23
12.15
10.31
8.98
8.12
7.42
6.51
5.16
3.36
1.31
-0.7
-2.46
-3.87
-4.99
-5.97
-7.02
-8.27
-9.82
-11.68
-13.74
-15.76
-17.42
-18.34
-18.21
-16.87
-14.37
-10.97
-7.09
-3.22
0.24
3.01
4.97
6.07
6.33
5.81
4.62
2.95
1.11
-0.59
-1.86
-2.58
-2.79
-2.68
-2.5
-2.48
-2.72
-3.21
-3.83
-4.42
-4.85
-5.08
-5.2
-5.41
-5.9
-6.76
-7.89
-8.95
-9.49
-9.07
-7.43
-4.59
-0.81
3.5
7.96
12.26
16.19
19.6
22.32
24.17
25.02
24.85
23.81
22.18
20.28
18.39
16.64
15.09
13.69
12.42
11.3
10.37
9.72
9.35
9.14
8.92
8.45
7.53
6.06
4.03
1.47
-1.53
-4.9
-8.52
-12.12
-15.29
-17.52
-18.35
-17.51
-15.1
-11.52
-7.42
-3.44
-0.06
2.51
4.26
5.26
5.54
5.08
3.88
2.02
-0.26
-2.65
-4.9
-6.92
-8.83
-10.85
-13.14
-15.61
-17.97
-19.82
-20.87
-21.1
-20.84
-20.63
-20.97
-22.15
-24.09
-26.41
-28.56
-30.02
-30.4
-29.55
-27.49
-24.35
-20.4
-15.99
-11.51
-7.38
-3.98
-1.54
-0.1
0.47
0.37
-0.17
-1
-2.06
-3.26
-4.5
-5.62
-6.43
-6.88
-7.02
-7.06
-7.21
-7.6
-8.23
-9
-9.82
-10.65
-11.56
-12.69
-14.11
-15.82
-17.69
-19.47
-20.89
-21.65
-21.5
-20.23
-17.81
-14.33
-10.07
-5.41
-0.75
3.6
7.42
10.61
13.21
15.25
16.78
17.79
18.29
18.3
17.9
17.24
16.5
15.87
15.53
15.59
16.07
16.89
17.9
18.85
19.59
20.02
20.27
20.56
21.13
22.05
23.16
24.13
24.6
24.33
23.35
21.88
20.3
19.05
18.53
19.04
20.66
23.24
26.26
28.98
30.57
30.43
28.38
24.73
20.14
15.37
10.94
6.99
3.37
-0.25
-4.12
-8.32
-12.68
-16.93
-20.77
-24.01
-26.58
-28.55
-30.11
-31.57
-33.2
-35.21
-37.58
-40.05
-42.14
-43.3
-43.12
-41.49
-38.71
-35.35
-32.07
-29.31
-27.08
-25
-22.44
-18.82
-13.9
-7.9
-1.46
4.61
9.48
12.52
13.43
12.2
9.18
4.99
0.36
-4.03
-7.75
-10.85
-13.77
-17.12
-21.35
-26.35
-31.37
-35.27
-36.9
-35.64
-31.67
-25.87
-19.49
-13.61
-8.86
-5.35
-2.85
-1.06
0.2
0.92
1.01
0.39
-0.95
-2.97
-5.58
-8.67
-12.07
-15.49
-18.55
-20.86
-22.06
-21.95
-20.49
-17.84
-14.29
-10.24
-6.18
-2.59
0.13
1.75
2.32
2.13
1.61
1.13
0.92
0.94
0.99
0.89
0.55
0.08
-0.33
-0.48
-0.27
0.27
1.04
1.95
2.96
4.11
5.41
6.87
8.42
10
11.55
13.05
14.43
15.56
16.15
15.88
14.5
12.07
8.98
5.96
3.77
2.98
3.71
5.65
8.24
10.88
13.19
15.04
16.51
17.71
18.69
19.39
19.69
19.53
18.91
17.98
16.97
16.1
15.56
15.43
15.64
16.04
16.41
16.6
16.54
16.27
15.91
15.52
15.15
14.79
14.39
13.95
13.51
13.11
12.79
12.51
12.14
11.52
10.49
9.05
7.34
5.7
4.49
3.95
4.11
4.76
5.54
6.16
6.48
6.5
6.33
6.05
5.64
5.02
4.14
3.04
1.88
0.89
0.25
0.01
0.07
0.25
0.36
0.28
0.02
-0.39
-0.84
-1.26
-1.65
-2.04
-2.49
-3.12
-4.04
-5.36
-7.12
-9.26
-11.6
-13.92
-16.02
-17.81
-19.25
-20.28
-20.77
-20.51
-19.26
-16.97
-13.78
-10.04
-6.22
-2.72
0.21
2.53
4.32
5.7
6.72
7.37
7.6
7.4
6.9
6.38
6.23
6.79
8.19
10.29
12.69
14.93
16.61
17.53
17.66
17.05
15.79
13.92
11.46
8.47
5.01
1.22
-2.71
-6.51
-9.83
-12.26
-13.43
-13.11
-11.27
-8.14
-4.1
0.42
5.05
9.54
13.74
17.47
20.46
22.43
23.1
22.38
20.39
17.55
14.36
11.37
8.94
7.18
6
5.17
4.47
3.72
2.84
1.82
0.66
-0.65
-2.06
-3.51
-4.81
-5.7
-5.94
-5.35
-3.96
-1.93
0.48
3.04
5.64
8.26
10.93
13.58
15.95
17.69
18.46
18.17
16.96
15.13
12.89
10.24
6.95
2.78
-2.27
-7.83
-13.19
-17.62
-20.63
-22.15
-22.49
-22.14
-21.51
-20.84
-20.2
-19.6
-19.11
-18.85
-18.93
-19.38
-20.04
-20.64
-20.87
-20.48
-19.44
-17.98
-16.51
-15.5
-15.26
-15.8
-16.76
-17.52
-17.38
-15.85
-12.8
-8.53
-3.66
1.09
5.16
8.27
10.45
11.89
12.79
13.27
13.37
13.13
12.65
12.09
11.68
11.51
11.59
11.75
11.8
11.62
11.19
10.66
10.18
9.89
9.81
9.88
10
10.08
10.04
9.85
9.56
9.21
8.87
8.55
8.19
7.65
6.78
5.5
3.82
1.89
-0.09
-1.92
-3.42
-4.43
-4.73
-4.05
-2.17
1
5.3
10.33
15.57
20.49
24.66
27.78
29.6
29.98
28.9
26.49
23.07
19.08
14.96
10.98
7.18
3.35
-0.83
-5.59
-10.94
-16.65
-22.27
-27.36
-31.59
-34.85
-37.21
-38.88
-40.07
-40.94
-41.57
-41.96
-42.09
-41.82
-40.94
-39.2
-36.46
-32.8
-28.54
-24.2
-20.25
-17
-14.47
-12.44
-10.58
-8.67
-6.62
-4.5
-2.42
-0.46
1.34
3.01
4.56
5.97
7.25
8.48
9.78
11.28
13.06
15.14
17.48
20.14
23.21
26.86
31.11
35.75
40.27
43.98
46.26
46.82
45.79
43.62
40.8
37.61
33.93
29.39
23.62
16.54
8.43
-0.13
-8.58
-16.61
-24.21
-31.54
-38.65
-45.27
-50.87
-54.83
-56.76
-56.56
-54.49
-50.99
-46.5
-41.45
-36.22
-31.15
-26.56
-22.59
-19.14
-15.86
-12.27
-7.95
-2.75
3.18
9.42
15.45
20.84
25.3
28.73
31.17
32.72
33.52
33.72
33.41
32.69
31.56
29.94
27.77
25.05
21.95
18.84
16.23
14.56
14.1
14.79
16.26
17.93
19.12
19.3
18.12
15.56
11.85
7.38
2.59
-2.18
-6.73
-10.98
-14.9
-18.45
-21.55
-24.05
-25.83
-26.81
-27.02
-26.55
-25.59
-24.4
-23.33
-22.81
-23.24
-24.8
-27.26
-29.9
-31.56
-31.08
-27.71
-21.55
-13.53
-5.15
2.14
7.49
10.89
12.96
14.5
16
17.45
18.49
18.76
18.18
17
15.59
14.22
12.9
11.44
9.59
7.23
4.4
1.34
-1.69
-4.42
-6.68
-8.37
-9.51
-10.18
-10.49
-10.55
-10.42
-10.12
-9.67
-9.13
-8.56
-8.03
-7.59
-7.21
-6.86
-6.46
-5.98
-5.39
-4.71
-3.99
-3.38
-3
-2.98
-3.38
-4.2
-5.35
-6.74
-8.25
-9.76
-11.16
-12.32
-13.15
-13.67
-13.94
-14.09
-14.18
-14.21
-14.08
-13.7
-13
-12.07
-11.07
-10.22
-9.7
-9.57
-9.77
-10.11
-10.34
-10.18
-9.48
-8.18
-6.32
-4.05
-1.52
1.13
3.79
6.4
8.88
11.16
13.17
14.82
16.04
16.76
16.86
16.24
14.82
12.66
9.92
6.93
4.06
1.6
-0.27
-1.55
-2.4
-2.98
-3.47
-4
-4.67
-5.59
-6.87
-8.57
-10.67
-12.99
-15.26
-17.2
-18.63
-19.58
-20.31
-21.21
-22.67
-24.93
-27.91
-31.25
-34.31
-36.38
-36.91
-35.7
-33.01
-29.42
-25.61
-22.07
-18.96
-16.2
-13.59
-11.08
-8.79
-6.88
-5.41
-4.18
-2.81
-0.96
1.48
4.31
7.15
9.62
11.53
12.87
13.76
14.31
14.53
14.4
13.83
12.76
11.12
8.85
5.93
2.43
-1.48
-5.51
-9.39
-12.93
-16.09
-18.96
-21.69
-24.4
-27.11
-29.74
-32.15
-34.2
-35.75
-36.62
-36.59
-35.44
-33.04
-29.46
-25.01
-20.24
-15.75
-11.96
-9.02
-6.79
-4.96
-3.22
-1.37
0.74
3.22
6.2
9.79
13.97
18.49
22.93
26.83
29.84
31.88
33.09
33.7
33.9
33.76
33.2
32.13
30.45
28.06
24.88
20.89
16.13
10.79
5.21
-0.21
-5.13
-9.39
-13.05
-16.44
-19.92
-23.8
-28.09
-32.46
-36.28
-38.81
-39.37
-37.64
-33.69
-28.02
-21.34
-14.37
-7.66
-1.5
4.01
8.78
12.67
15.47
17.06
17.51
17.15
16.46
15.92
15.78
16.05
16.55
17.07
17.47
17.68
17.68
17.43
16.79
15.69
14.09
12.08
9.79
7.38
4.89
2.3
-0.46
-3.48
-6.83
-10.49
-14.32
-18.02
-21.06
-22.8
-22.59
-20.03
-15.08
-8.1
0.18
8.9
17.29
24.75
30.97
35.86
39.46
41.82
43.03
43.11
42.16
40.39
38.14
35.87
34.03
32.93
32.63
32.95
33.52
33.94
33.85
33
31.27
28.66
25.29
21.39
17.28
13.25
9.48
5.98
2.58
-1.01
-5.02
-9.56
-14.5
-19.44
-23.73
-26.57
-27.23
-25.23
-20.61
-13.9
-6
2.01
9.24
15.14
19.53
22.54
24.39
25.29
25.37
24.71
23.37
21.47
19.23
16.91
14.82
13.18
12.12
11.61
11.48
11.47
11.3
10.72
9.53
7.65
5.11
2.07
-1.27
-4.66
-7.94
-11
-13.87
-16.62
-19.43
-22.41
-25.57
-28.66
-31.17
-32.33
-31.43
-28.03
-22.27
-14.8
-6.67
1.11
7.83
13.22
17.35
20.47
22.75
24.27
25.03
25.07
24.52
23.64
22.68
21.87
21.35
21.11
21.08
21.12
21.05
20.69
19.91
18.61
16.78
14.46
11.7
8.62
5.36
2.1
-0.98
-3.73
-6.11
-8.22
-10.25
-12.46
-15.03
-17.98
-21.13
-24
-25.97
-26.39
-24.79
-21.06
-15.47
-8.65
-1.32
5.79
12.21
17.6
21.81
24.78
26.52
27.12
26.82
25.92
24.77
23.65
22.72
22.06
21.61
21.29
20.98
20.55
19.9
19
17.95
16.94
16.16
15.72
15.52
15.33
14.87
13.97
12.62
10.97
9.22
7.48
5.77
3.98
2.02
-0.15
-2.48
-4.93
-7.53
-10.38
-13.49
-16.64
-19.29
-20.7
-20.11
-17.07
-11.68
-4.6
3.12
10.35
16.17
20.13
22.21
22.73
22.15
20.89
19.24
17.36
15.31
13.09
10.69
8.15
5.5
2.85
0.33
-1.91
-3.72
-5.04
-5.95
-6.6
-7.18
-7.86
-8.72
-9.73
-10.85
-12.04
-13.23
-14.34
-15.22
-15.67
-15.49
-14.62
-13.13
-11.27
-9.34
-7.66
-6.43
-5.81
-5.89
-6.73
-8.33
-10.55
-13.08
-15.39
-16.83
-16.8
-14.93
-11.26
-6.25
-0.62
4.85
9.56
13.18
15.6
16.83
16.88
15.77
13.61
10.69
7.42
4.27
1.56
-0.63
-2.46
-4.22
-6.12
-8.24
-10.45
-12.52
-14.2
-15.36
-16.08
-16.55
-17.1
-18.03
-19.58
-21.78
-24.45
-27.2
-29.5
-30.78
-30.59
-28.74
-25.39
-21.04
-16.41
-12.26
-9.15
-7.27
-6.39
-5.9
-5.08
-3.29
-0.2
4.13
9.22
14.43
19.13
22.93
25.75
27.73
29.1
30.06
30.73
31.13
31.33
31.45
31.63
31.98
32.49
33.03
33.46
33.71
33.85
33.97
34.16
34.33
34.27
33.69
32.37
30.23
27.43
24.29
21.2
18.55
16.59
15.37
14.67
14.11
13.23
11.67
9.29
6.33
3.32
0.9
-0.33
-0.07
1.62
4.26
7.12
9.43
10.61
10.39
8.88
6.42
3.46
0.31
-2.89
-6.27
-10.06
-14.52
-19.76
-25.66
-31.8
-37.65
-42.62
-46.25
-48.32
-48.83
-47.95
-45.95
-43.04
-39.38
-35.12
-30.42
-25.54
-20.87
-16.81
-13.65
-11.55
-10.46
-10.17
-10.47
-11.2
-12.31
-13.83
-15.81
-18.27
-21.12
-24.12
-26.85
-28.74
-29.14
-27.55
-23.81
-18.14
-11.11
-3.41
4.37
11.85
18.86
25.23
30.7
34.84
37.25
37.68
36.18
33.06
28.84
24.03
19.05
14.2
9.62
5.42
1.62
-1.71
-4.54
-6.83
-8.55
-9.71
-10.37
-10.63
-10.63
-10.48
-10.26
-10.01
-9.75
-9.55
-9.56
-9.98
-10.99
-12.7
-15.11
-18.13
-21.59
-25.26
-28.85
-31.97
-34.16
-34.98
-34.11
-31.52
-27.49
-22.55
-17.26
-12.04
-7.02
-2.05
3.09
8.37
13.28
16.86
18.01
16.01
11.01
4.1
-2.96
-8.45
-11.24
-11.04
-8.29
-3.73
2
8.5
15.49
22.61
29.42
35.46
40.55
44.77
48.46
51.88
55.07
57.76
59.48
59.9
58.94
56.88
54.32
51.93
50.3
49.7
49.98
50.59
50.68
49.4
46.2
41.03
34.35
27.05
20.05
14.11
9.54
6.26
3.79
1.49
-1.24
-4.83
-9.46
-15.03
-21.23
-27.68
-33.96
-39.79
-44.98
-49.5
-53.46
-57.05
-60.43
-63.69
-66.76
-69.38
-71.22
-71.99
-71.61
-70.27
-68.42
-66.67
-65.6
-65.64
-66.87
-69.01
-71.45
-73.35
-73.92
-72.6
-69.31
-64.38
-58.46
-52.17
-45.89
-39.68
-33.4
-26.88
-20.16
-13.5
-7.32
-1.98
2.33
5.61
7.98
9.63
10.72
11.39
11.82
12.22
12.83
13.82
15.28
17.11
19.12
21.14
23.07
24.89
26.51
27.68
27.98
26.88
23.97
19.09
12.43
4.52
-3.9
-11.96
-18.82
-23.75
-26.25
-26.2
-23.87
-19.9
-15.12
-10.46
-6.72
-4.53
-4.2
-5.66
-8.43
-11.73
-14.7
-16.73
-17.63
-17.68
-17.43
-17.43
-18
-19.14
-20.58
-21.94
-22.9
-23.25
-22.95
-22.14
-21.04
-19.95
-19.08
-18.53
-18.23
-18.06
-17.98
-18.18
-19.06
-20.99
-23.96
-27.4
-30.12
-30.73
-28.09
-21.67
-11.62
1.4
16.54
32.84
49.18
64.28
76.85
86.03
91.85
95.3
98.13
101.99
107.75
115.02
122.35
127.81
129.66
126.96
119.83
109.24
96.66
83.54
70.84
58.89
47.51
36.46
25.8
15.85
6.86
-1.36
-9.39
-17.47
-24.89
-29.77
-30.01
-24.73
-15.43
-5.84
-0.36
-1.75
-9.66
-20.67
-29.98
-33.84
-31.06
-23.3
-13.9
-6.27
-2.72
-3.96
-9.43
-17.78
-27.37
-36.63
-44.34
-49.71
-52.46
-52.7
-50.82
-47.37
-42.95
-38.27
-34.08
-31.06
-29.63
-29.84
-31.32
-33.49
-35.75
-37.71
-39.2
-40.18
-40.54
-39.98
-38.04
-34.27
-28.5
-21.01
-12.54
-4.1
3.33
9.12
13.07
15.41
16.57
17.04
17.14
17.09
16.98
16.87
16.77
16.65
16.4
15.87
14.93
13.62
12.09
10.61
9.4
8.53
7.88
7.14
5.99
4.16
1.58
-1.61
-5.03
-8.15
-10.37
-11.12
-10.02
-6.99
-2.25
3.65
10
16.11
21.41
25.54
28.34
29.81
30.08
29.38
28.01
26.35
24.74
23.4
22.37
21.56
20.79
19.91
18.85
17.61
16.26
14.86
13.45
12.03
10.57
9.05
7.42
5.61
3.47
0.89
-2.2
-5.71
-9.3
-12.43
-14.5
-15
-13.74
-10.85
-6.77
-2.15
2.39
6.33
9.32
11.14
11.72
11.11
9.49
7.21
4.73
2.49
0.84
-0.22
-0.94
-1.78
-3.17
-5.23
-7.68
-9.93
-11.38
-11.72
-11.08
-10.01
-9.15
-9.03
-9.86
-11.53
-13.74
-16.05
-17.93
-18.77
-17.98
-15.2
-10.48
-4.32
2.41
8.8
14.14
18.11
20.77
22.3
22.93
22.76
21.86
20.35
18.47
16.51
14.72
13.16
11.72
10.16
8.27
5.99
3.43
0.81
-1.7
-4.07
-6.43
-9.04
-12.17
-15.95
-20.31
-24.89
-29.13
-32.31
-33.77
-33.04
-30.01
-24.95
-18.45
-11.25
-4.15
2.2
7.31
10.91
12.93
13.47
12.79
11.27
9.34
7.41
5.81
4.7
4.08
3.76
3.51
3.12
2.47
1.55
0.44
-0.8
-2.14
-3.61
-5.25
-7.08
-9.13
-11.44
-13.98
-16.61
-18.97
-20.55
-20.8
-19.39
-16.34
-12.13
-7.48
-3.11
0.54
3.36
5.52
7.25
8.68
9.79
10.47
10.66
10.43
10
9.6
9.43
9.53
9.79
10.01
9.98
9.56
8.74
7.61
6.27
4.85
3.32
1.6
-0.47
-3.04
-6.08
-9.37
-12.52
-15.02
-16.45
-16.48
-14.99
-12.02
-7.78
-2.66
2.79
7.96
12.31
15.49
17.48
18.49
18.82
18.72
18.24
17.36
16.07
14.52
13.04
12
11.6
11.82
12.38
13.01
13.58
14.16
15.03
16.45
18.6
21.42
24.72
28.22
31.56
34.38
36.31
37
36.19
33.76
29.74
24.32
17.77
10.53
3.17
-3.55
-8.81
-11.95
-12.6
-10.92
-7.51
-3.3
0.72
3.71
5.14
4.91
3.26
0.67
-2.28
-5.06
-7.31
-8.85
-9.66
-9.83
-9.55
-9.02
-8.47
-8.03
-7.7
-7.3
-6.55
-5.26
-3.42
-1.29
0.71
2.18
2.92
3.02
2.78
2.52
2.42
2.45
2.35
1.78
0.42
-1.91
-5.16
-9.13
-13.45
-17.69
-21.42
-24.27
-25.91
-26.16
-24.94
-22.44
-19.04
-15.23
-11.51
-8.16
-5.23
-2.55
0.11
2.91
5.89
9.02
12.35
16
20.19
25
30.29
35.69
40.71
44.96
48.2
50.39
51.56
51.68
50.7
48.6
45.53
41.81
37.83
33.9
30.14
26.46
22.72
18.85
14.95
11.21
7.77
4.57
1.36
-2.26
-6.64
-11.98
-18.18
-24.86
-31.45
-37.27
-41.66
-44.22
-44.84
-43.84
-41.8
-39.51
-37.72
-37.01
-37.73
-39.98
-43.68
-48.5
-53.93
-59.14
-63.11
-64.82
-63.6
-59.36
-52.69
-44.68
-36.53
-29.21
-23.16
-18.35
-14.43
-10.98
-7.7
-4.49
-1.44
1.25
3.3
4.5
4.69
3.87
2.19
-0.06
-2.57
-5.06
-7.33
-9.26
-10.83
-12.12
-13.32
-14.64
-16.22
-17.94
-19.46
-20.22
-19.72
-17.78
-14.63
-10.87
-7.23
-4.28
-2.25
-0.99
-0.13
0.67
1.59
2.66
3.79
4.89
5.99
7.18
8.54
10.13
12.01
14.27
17.06
20.54
24.69
29.15
33.26
36.14
36.98
35.33
31.23
25.17
17.97
10.57
3.82
-1.63
-5.44
-7.56
-8.22
-7.88
-7.12
-6.5
-6.43
-7.16
-8.64
-10.64
-12.74
-14.45
-15.32
-15.02
-13.51
-10.97
-7.8
-4.46
-1.31
1.47
3.93
6.18
8.26
10.03
11.21
11.49
10.74
9.1
6.99
4.9
3.29
2.37
2.13
2.35
2.71
2.93
2.77
2.12
0.97
-0.63
-2.59
-4.87
-7.47
-10.42
-13.77
-17.53
-21.68
-26.18
-30.94
-35.87
-40.8
-45.56
-49.97
-53.89
-57.18
-59.74
-61.44
-62.1
-61.51
-59.42
-55.61
-49.95
-42.52
-33.61
-23.81
-13.82
-4.37
3.98
10.96
16.57
21.02
24.56
27.39
29.64
31.36
32.62
33.56
34.3
34.94
35.46
35.76
35.71
35.2
34.26
33
31.58
30.14
28.71
27.23
25.58
23.63
21.37
18.89
16.37
13.97
11.79
9.75
7.62
5.11
1.99
-1.74
-5.85
-9.82
-13.05
-14.97
-15.25
-13.85
-11.05
-7.38
-3.38
0.43
3.74
6.4
8.4
9.81
10.62
10.84
10.5
9.71
8.67
7.71
7.07
6.89
7.14
7.66
8.28
8.89
9.48
10.04
10.53
10.82
10.71
10.05
8.77
6.95
4.79
2.48
0.19
-2.05
-4.29
-6.62
-9.12
-11.83
-14.68
-17.51
-20.1
-22.11
-23.14
-22.8
-20.8
-17.14
-12.18
-6.6
-1.21
3.33
6.69
8.97
10.46
11.5
12.22
12.59
12.49
11.93
11.07
10.24
9.76
9.81
10.34
11.14
11.94
12.52
12.75
12.55
11.86
10.68
9.1
7.34
5.63
4.17
2.97
1.87
0.55
-1.26
-3.73
-6.8
-10.18
-13.43
-16.02
-17.39
-17.06
-14.8
-10.75
-5.47
0.18
5.3
9.19
11.53
12.37
11.99
10.73
8.85
6.54
4.02
1.56
-0.48
-1.8
-2.2
-1.75
-0.74
0.39
1.26
1.63
1.47
0.93
0.22
-0.54
-1.33
-2.28
-3.58
-5.36
-7.7
-10.56
-13.88
-17.53
-21.36
-25.07
-28.23
-30.29
-30.78
-29.49
-26.59
-22.63
-18.36
-14.44
-11.32
-9.13
-7.81
-7.2
-7.18
-7.58
-8.19
-8.73
-8.96
-8.7
-8.01
-7.07
-6.13
-5.35
-4.68
-3.85
-2.46
-0.19
3.09
7.21
11.81
16.43
20.62
24.05
26.48
27.75
27.74
26.54
24.43
22
20.03
19.27
20.23
22.95
27
31.67
36.11
39.63
41.86
42.73
42.4
41.13
39.17
36.66
33.73
30.54
27.34
24.45
22.16
20.57
19.56
18.74
17.7
16.09
13.76
10.77
7.31
3.6
-0.15
-3.8
-7.2
-10.19
-12.63
-14.37
-15.37
-15.67
-15.41
-14.76
-13.86
-12.78
-11.54
-10.15
-8.79
-7.71
-7.27
-7.7
-8.99
-10.84
-12.75
-14.25
-15.04
-15.11
-14.7
-14.15
-13.81
-13.86
-14.26
-14.73
-14.71
-13.47
-10.4
-5.28
1.55
9.06
15.89
20.72
22.69
21.71
18.37
13.64
8.51
3.67
-0.7
-4.72
-8.76
-13.16
-18.05
-23.37
-28.78
-33.77
-37.71
-40.02
-40.36
-38.71
-35.43
-31.17
-26.62
-22.39
-18.86
-16.12
-14.09
-12.56
-11.32
-10.13
-8.81
-7.26
-5.36
-3.08
-0.38
2.73
6.15
9.66
12.91
15.55
17.24
17.85
17.43
16.2
14.47
12.46
10.33
8.15
6.02
4.03
2.23
0.61
-0.95
-2.7
-4.86
-7.56
-10.73
-14.11
-17.24
-19.62
-20.82
-20.62
-19.09
-16.61
-13.73
-11.01
-8.81
-7.22
-6.05
-4.97
-3.69
-2.01
0.06
2.37
4.71
6.91
8.86
10.64
12.43
14.48
16.91
19.64
22.28
24.28
25.1
24.48
22.53
19.67
16.37
13.04
9.88
6.98
4.43
2.4
1.09
0.6
0.8
1.33
1.72
1.56
0.68
-0.83
-2.74
-4.74
-6.6
-8.13
-9.15
-9.51
-9.14
-8.09
-6.58
-4.88
-3.22
-1.66
-0.12
1.54
3.38
5.23
6.75
7.66
7.84
7.48
6.99
6.84
7.3
8.35
9.67
10.82
11.43
11.35
10.74
10.01
9.61
9.85
10.84
12.41
14.26
16.03
17.39
18.06
17.87
16.79
15.04
13.15
11.8
11.66
13
15.55
18.5
20.83
21.66
20.6
17.81
13.84
9.43
5.26
1.91
-0.23
-0.97
-0.35
1.33
3.62
5.99
8.01
9.38
9.98
9.79
8.86
7.29
5.36
3.43
1.92
1.14
1.16
1.76
2.58
3.24
3.52
3.39
2.95
2.31
1.51
0.53
-0.64
-1.93
-3.15
-4.06
-4.5
-4.37
-3.78
-2.97
-2.24
-1.85
-1.9
-2.33
-2.9
-3.37
-3.5
-3.17
-2.32
-0.94
0.98
3.4
6.2
9.1
11.79
14.03
15.7
16.86
17.64
18.08
18.15
17.69
16.61
14.97
12.91
10.65
8.36
6.06
3.68
1.12
-1.69
-4.73
-7.9
-11.05
-14.07
-16.87
-19.44
-21.81
-23.99
-25.93
-27.52
-28.67
-29.33
-29.58
-29.58
-29.56
-29.68
-29.97
-30.37
-30.72
-30.85
-30.68
-30.21
-29.52
-28.65
-27.53
-26
-23.85
-20.95
-17.32
-13.22
-9.02
-5.11
-1.75
0.96
2.97
4.26
4.81
4.6
3.71
2.36
0.86
-0.49
-1.46
-1.98
-2.14
-2.09
-2.01
-2.09
-2.43
-3.07
-3.98
-5.05
-6.1
-6.96
-7.51
-7.73
-7.66
-7.43
-7.21
-7.14
-7.32
-7.81
-8.55
-9.42
-10.22
-10.75
-10.93
-10.85
-10.73
-10.87
-11.48
-12.54
-13.79
-14.72
-14.8
-13.62
-11.02
-7.16
-2.46
2.54
7.28
11.36
14.59
17.02
18.75
19.96
20.68
20.86
20.43
19.33
17.69
15.76
13.87
12.3
11.18
10.43
9.82
9.1
8.12
6.87
5.5
4.22
3.2
2.47
1.92
1.34
0.5
-0.69
-2.15
-3.66
-4.93
-5.75
-6.02
-5.88
-5.58
-5.38
-5.53
-6.09
-6.95
-7.81
-8.28
-8.02
-6.82
-4.68
-1.7
1.91
6.03
10.52
15.21
19.81
23.99
27.39
29.82
31.29
32.03
32.35
32.5
32.6
32.62
32.42
31.91
31.01
29.76
28.24
26.58
24.89
23.18
21.45
19.61
17.63
15.52
13.3
11
8.57
5.9
2.87
-0.54
-4.22
-7.9
-11.28
-14.13
-16.4
-18.19
-19.74
-21.3
-23.02
-24.92
-26.85
-28.5
-29.51
-29.55
-28.39
-25.99
-22.49
-18.21
-13.56
-8.96
-4.77
-1.22
1.65
3.9
5.69
7.14
8.33
9.28
10
10.51
10.82
10.95
10.88
10.56
10
9.29
8.54
7.81
7.04
6.11
4.89
3.4
1.83
0.48
-0.43
-0.85
-0.92
-0.87
-0.88
-1.05
-1.37
-1.85
-2.55
-3.54
-4.84
-6.4
-8.09
-9.83
-11.71
-13.96
-16.86
-20.55
-24.82
-29.16
-32.8
-34.98
-35.2
-33.35
-29.71
-24.84
-19.44
-14.15
-9.4
-5.43
-2.26
0.31
2.54
4.67
6.87
9.13
11.32
13.27
14.86
16.07
16.96
17.62
18.1
18.4
18.48
18.3
17.86
17.18
16.31
15.28
14.08
12.67
11.01
9.07
6.83
4.31
1.54
-1.44
-4.57
-7.81
-11.07
-14.23
-17.13
-19.65
-21.7
-23.31
-24.64
-25.89
-27.25
-28.73
-30.07
-30.82
-30.46
-28.59
-25.16
-20.46
-15.09
-9.72
-4.83
-0.71
2.64
5.3
7.33
8.73
9.52
9.76
9.63
9.42
9.41
9.81
10.66
11.85
13.2
14.52
15.7
16.69
17.56
18.41
19.29
20.18
20.94
21.35
21.23
20.48
19.1
17.15
14.71
11.85
8.67
5.34
2.19
-0.37
-2
-2.63
-2.48
-2.1
-2.13
-3
-4.72
-6.82
-8.55
-9.14
-8.17
-5.69
-2.16
1.82
5.72
9.28
12.44
15.29
17.87
20.14
22.01
23.38
24.22
24.58
24.57
24.35
24.03
23.74
23.52
23.37
23.27
23.15
22.93
22.51
21.77
20.57
18.84
16.59
13.88
10.84
7.55
4.1
0.6
-2.8
-5.94
-8.7
-11.13
-13.44
-15.89
-18.67
-21.82
-25.15
-28.43
-31.38
-33.83
-35.62
-36.61
-36.66
-35.68
-33.72
-31.03
-27.97
-24.96
-22.27
-20.05
-18.28
-16.87
-15.72
-14.73
-13.79
-12.83
-11.79
-10.63
-9.36
-8.04
-6.75
-5.6
-4.69
-4.08
-3.79
-3.75
-3.84
-3.92
-3.92
-3.87
-3.92
-4.26
-4.96
-5.96
-7.02
-7.82
-8.12
-7.84
-7.12
-6.26
-5.6
-5.41
-5.78
-6.63
-7.73
-8.78
-9.42
-9.28
-8.06
-5.52
-1.7
3.06
8.13
12.76
16.34
18.59
19.65
19.88
19.65
19.14
18.28
16.94
15.11
13.08
11.29
10.21
10.01
10.55
11.38
12.04
12.2
11.8
10.99
10
9
8.06
7.09
5.97
4.59
2.88
0.84
-1.47
-4.01
-6.76
-9.76
-13.05
-16.58
-20.12
-23.29
-25.62
-26.73
-26.47
-24.91
-22.32
-19.03
-15.3
-11.34
-7.32
-3.44
0.07
3.01
5.26
6.81
7.75
8.2
8.33
8.28
8.18
8.14
8.25
8.54
8.95
9.36
9.62
9.61
9.25
8.59
7.73
6.75
5.69
4.44
2.91
1
-1.25
-3.72
-6.17
-8.41
-10.36
-12.02
-13.46
-14.73
-15.78
-16.43
-16.38
-15.32
-13.07
-9.67
-5.43
-0.85
3.49
7.13
9.81
11.56
12.58
13.13
13.42
13.52
13.36
12.89
12.06
10.97
9.8
8.75
7.97
7.52
7.42
7.62
8.07
8.67
9.27
9.67
9.68
9.18
8.16
6.75
5.09
3.27
1.27
-1.02
-3.74
-6.92
-10.42
-13.92
-16.95
-19
-19.65
-18.7
-16.27
-12.75
-8.72
-4.78
-1.42
1.12
2.85
3.91
4.46
4.66
4.55
4.22
3.74
3.27
2.95
2.88
3.08
3.44
3.78
3.94
3.81
3.39
2.7
1.86
0.96
0.06
-0.86
-1.84
-2.97
-4.25
-5.56
-6.63
-7.19
-7.07
-6.38
-5.48
-4.92
-5.07
-5.92
-7
-7.47
-6.54
-3.79
0.62
6.05
11.61
16.5
20.29
22.87
24.35
24.95
24.82
24.12
22.98
21.65
20.43
19.61
19.34
19.56
19.99
20.23
19.9
18.81
17.05
14.93
12.89
11.29
10.25
9.66
9.25
8.71
7.86
6.65
5.17
3.59
2.08
0.74
-0.41
-1.48
-2.67
-4.19
-6.24
-8.86
-11.96
-15.2
-18.11
-20.16
-20.91
-20.1
-17.78
-14.25
-10.04
-5.72
-1.76
1.54
4.1
6.01
7.45
8.59
9.59
10.52
11.38
12.16
12.84
13.43
13.97
14.5
15.03
15.46
15.65
15.46
14.83
13.82
12.58
11.28
10.03
8.87
7.8
6.82
5.95
5.16
4.37
3.43
2.2
0.58
-1.41
-3.65
-6.01
-8.39
-10.8
-13.32
-15.99
-18.83
-21.78
-24.69
-27.41
-29.72
-31.36
-32.09
-31.69
-30.11
-27.51
-24.24
-20.8
-17.65
-15.07
-13.14
-11.72
-10.6
-9.62
-8.7
-7.83
-7.02
-6.17
-5.14
-3.77
-2
0.11
2.34
4.37
5.92
6.85
7.21
7.24
7.21
7.33
7.68
8.19
8.73
9.22
9.66
10.1
10.59
11.1
11.52
11.71
11.55
11
10.09
8.83
7.22
5.26
2.99
0.59
-1.6
-3.19
-3.75
-3.02
-1.02
1.93
5.3
8.5
11.07
12.8
13.75
14.12
14.19
14.12
13.99
13.78
13.47
13.05
12.57
12.07
11.67
11.47
11.51
11.78
12.12
12.26
11.94
11.03
9.54
7.7
5.77
3.97
2.37
0.87
-0.68
-2.42
-4.31
-6.21
-7.91
-9.24
-10.12
-10.62
-10.89
-11.11
-11.47
-12.12
-13.17
-14.65
-16.49
-18.45
-20.23
-21.42
-21.71
-20.94
-19.17
-16.67
-13.76
-10.75
-7.84
-5.11
-2.62
-0.44
1.36
2.69
3.57
4.09
4.39
4.6
4.79
4.96
5.1
5.23
5.44
5.77
6.25
6.8
7.28
7.58
7.62
7.4
7
6.45
5.79
5.06
4.32
3.63
3.01
2.43
1.79
0.95
-0.16
-1.5
-2.9
-4.19
-5.28
-6.24
-7.3
-8.7
-10.61
-13.02
-15.75
-18.49
-20.93
-22.73
-23.68
-23.55
-22.25
-19.75
-16.18
-11.85
-7.21
-2.75
1.12
4.17
6.41
7.98
9.1
9.92
10.47
10.73
10.68
10.36
9.87
9.34
8.8
8.22
7.46
6.41
5.06
3.52
2.02
0.72
-0.34
-1.33
-2.55
-4.28
-6.65
-9.54
-12.67
-15.7
-18.39
-20.66
-22.57
-24.24
-25.75
-27.13
-28.34
-29.34
-30.08
-30.5
-30.52
-30.06
-29.1
-27.71
-26.08
-24.43
-22.97
-21.73
-20.56
-19.1
-16.95
-13.87
-9.9
-5.38
-0.91
2.97
5.94
8.01
9.42
10.49
11.43
12.31
13.11
13.81
14.48
15.19
15.95
16.62
16.99
16.88
16.24
15.19
13.92
12.62
11.37
10.16
9.01
7.93
7.02
6.36
5.98
5.78
5.61
5.32
4.83
4.14
3.31
2.38
1.39
0.37
-0.63
-1.52
-2.25
-2.84
-3.37
-4
-4.85
-5.97
-7.33
-8.86
-10.46
-11.96
-13.14
-13.64
-13.17
-11.51
-8.75
-5.27
-1.61
1.76
4.63
7.15
9.68
12.55
15.74
18.9
21.46
22.94
23.18
22.46
21.33
20.38
19.9
19.86
19.98
19.94
19.62
19.09
18.57
18.22
18.04
17.8
17.23
16.12
14.46
12.42
10.23
8.08
6.04
4.01
1.84
-0.57
-3.19
-5.89
-8.41
-10.52
-12.06
-13.04
-13.59
-13.97
-14.49
-15.36
-16.68
-18.37
-20.24
-21.96
-23.18
-23.57
-22.89
-21.03
-18.08
-14.31
-10.11
-5.95
-2.25
0.68
2.69
3.74
3.9
3.29
2.08
0.52
-1.13
-2.61
-3.77
-4.6
-5.23
-5.86
-6.66
-7.73
-9.06
-10.59
-12.17
-13.6
-14.62
-14.94
-14.42
-13.17
-11.55
-10.11
-9.3
-9.36
-10.18
-11.43
-12.67
-13.58
-14.01
-14.06
-13.96
-13.98
-14.36
-15.14
-16.26
-17.46
-18.37
-18.63
-17.92
-16.15
-13.41
-9.98
-6.22
-2.53
0.83
3.69
6
7.81
9.14
10.03
10.58
10.93
11.28
11.82
12.61
13.58
14.55
15.36
15.96
16.4
16.76
17.05
17.21
17.13
16.73
16.05
15.25
14.52
13.95
13.59
13.35
13.15
12.9
12.56
12.1
11.46
10.65
9.79
9.17
9.2
10.33
12.84
16.81
22.02
28.02
34.25
40.21
45.58
50.27
54.38
58.16
61.8
65.38
68.8
71.82
74.19
75.72
76.43
76.43
75.94
75.17
74.26
73.32
72.4
71.42
70.2
68.44
65.8
61.95
56.67
49.88
41.56
31.73
20.46
7.76
-6.37
-22
-39.07
-57.16
-75.27
-91.69
-104.34
-111.4
-112.03
-106.81
-97.67
-87.18
-77.68
-70.5
-65.78
-62.76
-60.38
-57.82
-54.78
-51.34
-47.72
-44.11
-40.59
-37.23
-34.15
-31.59
-29.84
-29.06
-29.2
-29.97
-30.96
-31.75
-32.13
-32.08
-31.8
-31.52
-31.42
-31.54
-31.82
-32.15
-32.46
-32.8
-33.24
-33.79
-34.29
-34.37
-33.51
-31.27
-27.48
-22.32
-16.31
-10.11
-4.34
0.57
4.43
7.25
9.09
10.07
10.33
10.08
9.58
9.11
8.9
9.07
9.56
10.21
10.75
10.99
10.82
10.25
9.36
8.29
7.07
5.74
4.21
2.47
0.51
-1.63
-3.87
-6.18
-8.6
-11.2
-14.04
-17.03
-19.89
-22.12
-23.09
-22.28
-19.45
-14.87
-9.26
-3.59
1.27
4.79
6.96
8.08
8.58
8.7
8.48
7.83
6.66
5.08
3.34
1.79
0.64
-0.04
-0.4
-0.6
-0.86
-1.28
-1.89
-2.72
-3.78
-5.15
-6.83
-8.84
-11.05
-13.32
-15.47
-17.47
-19.4
-21.48
-23.9
-26.63
-29.35
-31.43
-32.08
-30.63
-26.75
-20.55
-12.6
-3.75
5.1
13.17
20
25.43
29.58
32.7
35.08
36.88
38.18
39.01
39.4
39.43
39.21
38.8
38.23
37.48
36.5
35.27
33.81
32.16
30.37
28.45
26.33
23.94
21.22
18.2
15
11.78
8.66
5.67
2.68
-0.5
-3.99
-7.74
-11.43
-14.47
-16.21
-16.11
-13.94
-9.91
-4.59
1.25
6.84
11.58
15.13
17.4
18.43
18.4
17.49
15.93
13.95
11.77
9.57
7.5
5.66
4.08
2.76
1.7
0.83
0.13
-0.44
-0.88
-1.25
-1.63
-2.18
-3.04
-4.29
-5.89
-7.65
-9.33
-10.74
-11.8
-12.65
-13.54
-14.77
-16.59
-19.09
-22.15
-25.37
-28.18
-29.87
-29.81
-27.64
-23.4
-17.6
-11.03
-4.61
0.92
5.16
8.07
9.87
10.91
11.44
11.62
11.5
11.12
10.57
10.02
9.61
9.38
9.23
8.94
8.24
6.98
5.12
2.78
0.17
-2.54
-5.17
-7.63
-9.84
-11.79
-13.55
-15.21
-16.93
-18.83
-20.92
-23.05
-24.9
-25.99
-25.84
-24.09
-20.63
-15.69
-9.79
-3.64
2.1
6.98
10.82
13.69
15.76
17.18
18.05
18.42
18.39
18.18
18.08
18.37
19.19
20.48
21.99
23.42
24.49
25.07
25.24
25.15
24.98
24.81
24.64
24.32
23.69
22.64
21.13
19.23
16.99
14.48
11.68
8.53
5.03
1.29
-2.4
-5.59
-7.77
-8.47
-7.48
-4.87
-1.03
3.43
7.87
11.75
14.77
16.78
17.74
17.67
16.68
15.02
13.09
11.41
10.41
10.31
11.05
12.34
13.82
15.15
16.09
16.54
16.53
16.16
15.62
15.09
14.64
14.15
13.28
11.67
9.08
5.55
1.44
-2.72
-6.43
-9.39
-11.62
-13.41
-15.2
-17.4
-20.28
-23.84
-27.82
-31.7
-34.9
-36.92
-37.5
-36.64
-34.56
-31.55
-27.94
-23.97
-19.83
-15.75
-11.93
-8.57
-5.83
-3.77
-2.45
-1.91
-2.26
-3.65
-6.17
-9.82
-14.34
-19.17
-23.47
-26.3
-26.88
-24.79
-20.18
-13.62
-6
1.84
9.21
15.7
21.08
25.21
27.95
29.16
28.77
26.88
23.77
19.9
15.78
11.77
8.01
4.37
0.4
-4.4
-10.52
-18.22
-27.39
-37.48
-47.58
-56.52
-63.13
-66.5
-66.24
-62.58
-56.36
-48.81
-41.28
-34.91
-30.42
-27.96
-27.18
-27.36
-27.72
-27.64
-26.83
-25.3
-23.2
-20.64
-17.51
-13.49
-8.13
-1.03
8.04
18.99
31.48
44.9
58.58
71.83
84.08
94.9
104.01
111.3
116.72
120.24
121.79
121.18
118.11
112.27
103.49
91.86
77.76
61.71
44.26
25.83
6.71
-12.81
-32.11
-49.94
-64.27
-72.53
-72.3
-62.21
-42.76
-16.55
12.24
38.97
59.82
72.73
77.58
75.83
69.75
61.73
53.88
47.77
44.31
43.68
45.27
47.96
50.52
52.06
52.22
51.06
48.77
45.41
40.87
34.8
26.63
15.5
0.4
-19.2
-42.45
-66.47
-86.71
-98.31
-98.28
-87.01
-68.36
-48.17
-31.83
-22.4
-20.01
-22.85
-28.7
-36.09
-44.5
-53.73
-63.11
-71.32
-76.75
-78.26
-75.76
-70.22
-63.31
-56.65
-51.31
-47.48
-44.57
-41.72
-38.2
-33.84
-29.06
-24.64
-21.29
-19.27
-18.27
-17.56
-16.35
-14.15
-11.01
-7.43
-4.11
-1.63
-0.16
0.54
0.98
1.65
2.74
4.1
5.3
5.88
5.56
4.44
2.89
1.42
0.45
0.11
0.23
0.43
0.29
-0.43
-1.75
-3.45
-5.24
-6.85
-8.07
-8.83
-9.06
-8.69
-7.58
-5.54
-2.35
2.2
8.22
15.69
24.37
33.79
43.22
51.87
59.03
64.4
68.14
70.94
73.78
77.58
82.81
89.27
96.05
101.8
105.17
105.26
101.87
95.48
86.99
77.39
67.4
57.38
47.34
37.12
26.55
15.6
4.4
-6.81
-17.74
-28.19
-37.99
-47.06
-55.3
-62.53
-68.44
-72.63
-74.78
-74.82
-73.05
-70.03
-66.43
-62.79
-59.38
-56.23
-53.24
-50.38
-47.75
-45.52
-43.84
-42.69
-41.85
-40.99
-39.82
-38.2
-36.19
-34.01
-31.95
-30.26
-29.14
-28.65
-28.78
-29.4
-30.33
-31.39
-32.4
-33.22
-33.83
-34.27
-34.68
-35.23
-36.19
-37.77
-40.1
-43.06
-46.28
-49.11
-50.78
-50.69
-48.6
-44.7
-39.57
-33.88
-28.22
-22.88
-17.83
-12.86
-7.7
-2.23
3.41
8.84
13.54
16.99
18.93
19.48
19.09
18.37
17.81
17.55
17.4
16.96
15.89
14.11
11.75
9.06
6.2
3.21
0.07
-3.25
-6.64
-9.96
-13.09
-16.05
-19.01
-22.08
-25.12
-27.69
-29.09
-28.64
-25.99
-21.33
-15.36
-9.04
-3.25
1.47
5.02
7.61
9.54
11.05
12.22
13.09
13.7
14.16
14.58
14.98
15.29
15.39
15.24
14.92
14.63
14.5
14.56
14.56
14.16
13.01
10.94
7.98
4.32
0.16
-4.34
-9.09
-14.04
-19.13
-24.3
-29.51
-34.68
-39.66
-44.17
-47.77
-49.92
-50.15
-48.23
-44.27
-38.8
-32.55
-26.3
-20.6
-15.68
-11.45
-7.67
-4.13
-0.76
2.33
4.99
7.14
8.87
10.42
12.06
13.94
16.04
18.21
20.24
22
23.45
24.63
25.6
26.39
27
27.42
27.64
27.64
27.37
26.75
25.75
24.37
22.69
20.83
18.93
17.04
15.16
13.16
10.91
8.24
5.06
1.44
-2.32
-5.69
-8.01
-8.67
-7.32
-4.02
0.76
6.32
11.95
17.11
21.47
24.88
27.26
28.59
28.95
28.55
27.7
26.73
25.9
25.25
24.71
24.18
23.56
22.87
22.16
21.46
20.7
19.7
18.29
16.33
13.8
10.81
7.54
4.17
0.9
-2.13
-4.83
-7.19
-9.22
-11.01
-12.57
-13.81
-14.53
-14.45
-13.34
-11.19
-8.31
-5.31
-2.99
-2.11
-3.09
-5.9
-9.95
-14.22
-17.54
-18.84
-17.53
-13.61
-7.73
-0.96
5.54
10.87
14.65
17.03
18.52
19.69
20.89
22.21
23.47
24.49
25.21
25.7
26.14
26.63
27.16
27.58
27.73
27.54
27.04
26.32
25.41
24.24
22.61
20.38
17.5
14.19
10.88
8.05
6.06
4.99
4.57
4.31
3.75
2.56
0.74
-1.47
-3.67
-5.5
-6.72
-7.27
-7.27
-6.94
-6.59
-6.49
-6.88
-7.8
-9.05
-10.24
-10.84
-10.45
-8.89
-6.34
-3.16
0.22
3.56
6.86
10.28
13.98
17.89
21.76
25.18
27.84
29.69
30.95
32.05
33.37
35.13
37.29
39.56
41.63
43.23
44.28
44.85
45.09
45.1
44.87
44.28
43.15
41.38
38.99
36.13
33.07
30.06
27.34
25.02
23.09
21.41
19.72
17.76
15.36
12.51
9.38
6.17
3.05
-0
-3.15
-6.61
-10.54
-14.95
-19.61
-24.18
-28.28
-31.55
-33.72
-34.62
-34.23
-32.68
-30.25
-27.38
-24.53
-22.13
-20.44
-19.5
-19.18
-19.24
-19.44
-19.62
-19.76
-19.87
-20
-20.14
-20.23
-20.11
-19.65
-18.74
-17.42
-15.84
-14.28
-13.08
-12.52
-12.78
-13.86
-15.56
-17.49
-19.16
-20.1
-19.97
-18.71
-16.52
-13.8
-11.05
-8.69
-6.96
-5.91
-5.46
-5.53
-6.12
-7.34
-9.35
-12.34
-16.45
-21.72
-28.02
-35.13
-42.63
-50.04
-56.8
-62.36
-66.3
-68.36
-68.54
-67.09
-64.41
-61.03
-57.42
-53.88
-50.56
-47.43
-44.33
-41.06
-37.37
-32.98
-27.6
-20.95
-12.98
-3.88
5.83
15.39
24.05
31.3
37.02
41.47
45.1
48.33
51.36
54.16
56.57
58.44
59.77
60.68
61.38
61.99
62.43
62.44
61.64
59.67
56.39
51.95
46.67
40.96
35.1
29.13
22.98
16.59
10.15
4.16
-0.66
-3.66
-4.58
-3.62
-1.47
1.03
3.16
4.55
5.19
5.24
4.87
4.06
2.68
0.6
-2.13
-5.17
-7.94
-9.88
-10.61
-10.15
-8.89
-7.4
-6.19
-5.46
-5.12
-4.84
-4.28
-3.29
-1.94
-0.49
0.78
1.68
2.11
2.05
1.45
0.25
-1.58
-3.96
-6.69
-9.5
-12.16
-14.55
-16.71
-18.74
-20.73
-22.61
-24.14
-25.02
-24.98
-23.9
-21.86
-19.12
-15.94
-12.5
-8.86
-4.94
-0.67
3.87
8.48
12.87
16.77
20.08
22.85
25.23
27.35
29.26
30.91
32.22
33.11
33.64
33.91
34
33.93
33.59
32.78
31.24
28.81
25.49
21.44
16.91
12.1
7.13
1.95
-3.49
-9.2
-15.02
-20.69
-25.95
-30.61
-34.56
-37.77
-40.17
-41.79
-42.76
-43.43
-44.31
-45.84
-48.14
-50.86
-53.13
-53.95
-52.45
-48.25
-41.58
-33.12
-23.77
-14.39
-5.59
2.24
8.96
14.57
19.17
22.89
25.87
28.26
30.21
31.87
33.39
34.87
36.31
37.66
38.78
39.58
40.1
40.45
40.81
41.29
41.92
42.58
43.11
43.36
43.23
42.68
41.75
40.49
39.01
37.49
36.09
34.95
34.1
33.47
32.9
32.25
31.35
30.06
28.22
25.69
22.46
18.71
14.99
12.06
10.67
11.21
13.47
16.59
19.39
20.78
20.17
17.62
13.6
8.69
3.18
-2.96
-9.96
-17.98
-26.8
-35.88
-44.49
-52
-57.99
-62.32
-64.99
-65.97
-65.22
-62.64
-58.28
-52.43
-45.69
-38.81
-32.53
-27.44
-23.8
-21.63
-20.69
-20.64
-21.15
-22
-23.12
-24.58
-26.51
-28.93
-31.76
-34.79
-37.74
-40.39
-42.55
-43.96
-44.19
-42.68
-38.91
-32.72
-24.54
-15.27
-6.02
2.37
9.61
15.87
21.52
26.67
31.05
34.06
35.2
34.37
32.01
28.93
25.95
23.63
22.07
21.02
20.09
19
17.6
15.86
13.81
11.42
8.67
5.61
2.42
-0.63
-3.24
-5.25
-6.66
-7.62
-8.37
-9.12
-10.11
-11.58
-13.78
-16.97
-21.24
-26.29
-31.48
-35.83
-38.38
-38.47
-35.94
-31.2
-25.04
-18.39
-11.98
-6.25
-1.34
2.79
6.17
8.78
10.54
11.37
11.28
10.41
9.05
7.5
6.06
4.87
3.84
2.78
1.43
-0.32
-2.38
-4.43
-6.13
-7.24
-7.8
-8.07
-8.33
-8.78
-9.38
-9.97
-10.4
-10.62
-10.71
-10.83
-11.09
-11.59
-12.39
-13.49
-14.86
-16.36
-17.75
-18.73
-19.03
-18.49
-17.05
-14.74
-11.63
-7.86
-3.65
0.73
4.92
8.63
11.68
14
15.61
16.59
17.1
17.39
17.85
18.88
20.78
23.53
26.78
29.91
32.31
33.63
33.86
33.34
32.53
31.82
31.4
31.25
31.15
30.82
29.94
28.28
25.8
22.69
19.32
16.14
13.49
11.47
9.87
8.28
6.26
3.48
-0.18
-4.55
-9.17
-13.48
-16.88
-18.91
-19.38
-18.43
-16.42
-13.91
-11.42
-9.34
-7.83
-6.87
-6.24
-5.72
-5.08
-4.23
-3.12
-1.85
-0.53
0.7
1.68
2.32
2.56
2.46
2.15
1.87
1.88
2.33
3.29
4.72
6.5
8.49
10.44
12.04
12.87
12.56
10.93
8.2
4.93
1.88
-0.27
-1.2
-1.04
-0.3
0.41
0.59
0.02
-1.26
-3.06
-5.06
-6.89
-8.14
-8.45
-7.54
-5.4
-2.31
1.23
4.56
7.16
8.83
9.7
10.18
10.74
11.7
13.12
14.87
16.71
18.37
19.64
20.37
20.53
20.19
19.64
19.34
19.85
21.57
24.54
28.4
32.46
36
38.47
39.73
39.9
39.25
38.02
36.36
34.34
31.99
29.29
26.17
22.45
17.95
12.68
7.02
1.74
-2.17
-3.89
-3.17
-0.57
2.58
4.59
4.09
0.53
-5.46
-12.27
-17.9
-20.66
-19.77
-15.55
-9.06
-1.61
5.66
12.03
17.05
20.42
21.92
21.53
19.7
17.27
15.23
14.25
14.38
14.93
14.88
13.27
9.7
4.42
-1.82
-8.14
-13.88
-18.68
-22.55
-25.68
-28.25
-30.42
-32.3
-34.01
-35.77
-37.78
-40.15
-42.74
-45.14
-46.74
-46.98
-45.5
-42.29
-37.64
-32.01
-25.84
-19.51
-13.34
-7.66
-2.81
0.83
2.99
3.58
2.77
0.92
-1.45
-3.81
-5.67
-6.7
-6.77
-6.05
-4.98
-4.21
-4.39
-5.87
-8.54
-11.84
-14.9
-16.95
-17.71
-17.51
-17.13
-17.45
-19.06
-22.03
-26
-30.46
-35
-39.44
-43.59
-47.05
-48.96
-48.09
-43.28
-33.92
-20.37
-3.96
13.31
29.33
42.48
51.88
57.52
60
60.33
59.71
59.39
60.39
63.29
67.99
73.54
78.48
81.25
80.88
77.28
71.26
64.05
56.76
49.97
43.64
37.35
30.69
23.45
15.67
7.53
-0.76
-9.08
-17.34
-25.41
-33.09
-40.03
-45.85
-50.09
-52.44
-52.75
-51.11
-47.78
-43.13
-37.54
-31.3
-24.74
-18.23
-12.31
-7.5
-4.23
-2.59
-2.36
-2.99
-3.93
-4.75
-5.3
-5.65
-6.01
-6.54
-7.25
-8.06
-8.82
-9.43
-9.84
-10.1
-10.27
-10.48
-10.79
-11.29
-11.95
-12.74
-13.57
-14.38
-15.13
-15.83
-16.52
-17.25
-18.07
-19.07
-20.32
-21.83
-23.53
-25.15
-26.27
-26.37
-24.99
-21.84
-16.95
-10.6
-3.22
4.73
12.97
21.44
30.26
39.55
49.21
58.89
67.99
76.06
82.93
88.7
93.42
96.71
97.56
94.62
86.75
73.65
56.2
36.25
15.99
-2.8
-19.17
-33.05
-44.84
-55.12
-64.4
-73.06
-81.47
-89.94
-98.53
-106.85
-113.99
-118.78
-120.16
-117.59
-111.36
-102.39
-91.94
-81.12
-70.7
-60.99
-52.03
-43.7
-35.76
-27.96
-20.01
-11.82
-3.58
4.15
10.65
15.24
17.64
18.05
17.04
15.29
13.38
11.62
10.12
8.94
8.22
8.05
8.48
9.28
10.01
10.19
9.44
7.71
5.24
2.42
-0.36
-2.89
-5.13
-7.25
-9.49
-12.12
-15.26
-18.79
-22.33
-25.23
-26.8
-26.52
-24.26
-20.36
-15.45
-10.25
-5.27
-0.69
3.49
7.31
10.68
13.38
15.16
15.91
15.78
15.07
14.08
12.88
11.36
9.35
6.78
3.94
1.31
-0.53
-1.25
-0.94
-0.15
0.32
-0.32
-2.6
-6.63
-12.09
-18.39
-24.76
-30.56
-35.34
-38.94
-41.43
-43.12
-44.4
-45.68
-47.31
-49.38
-51.72
-53.78
-54.81
-53.98
-50.68
-44.79
-36.71
-27.34
-17.79
-9.1
-1.96
3.39
7.14
9.63
11.18
11.86
11.56
10.16
7.77
4.78
1.84
-0.44
-1.68
-1.91
-1.48
-0.85
-0.33
-0.06
0.04
0.08
0.14
0.16
0.03
-0.46
-1.53
-3.39
-6.11
-9.59
-13.53
-17.53
-21.31
-24.91
-28.74
-33.45
-39.55
-47.16
-55.84
-64.74
-72.79
-78.88
-81.86
-80.6
-74.06
-61.65
-43.68
-21.64
1.9
23.88
41.66
53.73
60.1
61.85
60.55
57.52
53.59
49.34
45.43
42.8
42.39
44.51
48.29
51.73
52.46
48.98
41.72
33.24
27.27
27.07
33.83
45.94
59.61
70.4
74.87
71.8
62.2
48.53
33.49
19.11
6.49
-3.93
-11.86
-16.96
-18.95
-18.23
-16.07
-14.45
-15.12
-18.61
-23.69
-27.65
-27.44
-21.2
-9.18
6.29
21.83
34.45
42.7
46.88
48.54
49.47
50.98
53.53
56.86
60.25
62.76
63.4
61.37
56.53
49.91
43.82
41.13
44.15
53.28
66.54
80.39
91.2
96.86
97.27
93.83
88.14
81.13
72.93
63.71
54.39
46.79
42.84
43.4
47.54
52.76
56.01
55.09
49.38
39.98
28.99
18.61
10.38
4.96
2.29
2.01
3.85
7.83
14.08
22.61
33.11
44.71
55.95
64.7
68.34
64.2
50.4
26.89
-3.89
-37.21
-67.24
-88.81
-99.07
-98.16
-88.71
-74.49
-59.03
-44.75
-32.94
-24.19
-18.89
-17.33
-19.41
-24.38
-30.78
-36.81
-40.91
-42.34
-41.33
-38.74
-35.53
-32.24
-28.82
-25.08
-21.1
-17.56
-15.45
-15.5
-17.56
-20.44
-22.42
-22.05
-18.84
-13.38
-6.87
-0.46
5.13
9.51
12.26
12.76
10.45
5.51
-0.74
-6.09
-8.45
-7.03
-2.94
1.14
2.27
-1.28
-9.19
-19.34
-28.87
-35.56
-38.72
-39.16
-38.58
-38.7
-40.67
-45.01
-51.78
-60.75
-71.43
-82.86
-93.5
-101.44
-104.97
-103.24
-96.66
-86.7
-75.25
-63.83
-53.13
-43.04
-33.01
-22.49
-11.14
1.18
14.51
28.58
42.44
54.24
61.52
62.07
55.06
41.92
26.22
12.61
5.07
5.46
12.95
24.62
36.84
46.71
52.77
54.84
53.41
49.04
42.14
33.17
22.99
12.8
3.78
-3.47
-9.18
-14.23
-19.53
-25.46
-31.52
-36.54
-39.25
-38.79
-34.93
-28.13
-19.36
-9.9
-1.21
5.34
8.86
9.35
7.8
5.78
4.6
4.54
4.54
2.72
-2.49
-11.33
-22.47
-33.61
-42.6
-48.41
-51.3
-52.24
-52.11
-51.13
-49.04
-45.6
-41.12
-36.6
-33.3
-32.19
-33.56
-36.93
-41.43
-46.23
-50.9
-55.31
-59.37
-62.81
-64.98
-65.04
-62.27
-56.41
-47.91
-37.79
-27.41
-18.02
-10.44
-4.88
-1.03
1.76
4.2
6.87
10.09
13.94
18.29
22.86
27.33
31.34
34.59
36.95
38.58
39.99
41.98
45.41
50.71
57.57
64.79
70.55
72.98
70.96
64.56
55.11
44.74
35.55
28.93
25.18
23.65
23.24
22.89
21.93
20.19
17.88
15.46
13.53
12.66
13.24
15.38
18.83
23.14
27.77
32.34
36.57
40.29
43.34
45.55
46.82
47.33
47.45
47.66
48.27
49.13
49.65
48.99
46.37
41.43
34.34
25.71
16.42
7.31
-0.95
-7.99
-13.73
-18.36
-22.28
-25.98
-29.93
-34.35
-39.05
-43.29
-45.9
-45.66
-41.8
-34.4
-24.46
-13.62
-3.52
4.77
10.98
15.54
19.14
22.27
25
26.94
27.49
26.04
22.12
15.54
6.6
-3.56
-12.85
-18.57
-18.27
-10.75
3.18
20.72
37.95
51.08
57.66
57.19
50.94
41.19
30.32
20.1
11.36
4.08
-2.3
-8.51
-15.16
-22.45
-30.13
-37.53
-43.67
-47.46
-47.83
-44.21
-36.81
-26.78
-15.99
-6.41
0.66
5.01
7.42
9.07
10.89
13.15
15.58
17.71
19.32
20.53
21.67
23.02
24.64
26.46
28.39
30.45
32.73
35.18
37.48
39.02
39.07
37.03
32.73
26.45
18.92
11.02
3.51
-3.2
-9.1
-14.53
-19.94
-25.75
-32.17
-39.14
-46.3
-52.98
-58.31
-61.34
-61.37
-58.18
-52.16
-44.22
-35.54
-27.16
-19.83
-13.84
-9.19
-5.66
-3.02
-1.05
0.41
1.52
2.49
3.51
4.8
6.48
8.56
10.91
13.31
15.52
17.39
18.81
19.76
20.23
20.14
19.37
17.83
15.56
12.73
9.65
6.62
3.83
1.26
-1.31
-4.12
-7.35
-10.93
-14.48
-17.39
-18.96
-18.58
-16.01
-11.46
-5.56
0.79
6.71
11.63
15.39
18.13
20.13
21.55
22.34
22.38
21.59
20.11
18.31
16.66
15.57
15.2
15.48
16.17
17.03
17.93
18.89
20
21.28
22.64
23.78
24.39
24.26
23.38
21.93
20.16
18.2
15.98
13.29
9.9
5.73
0.86
-4.41
-9.64
-14.26
-17.65
-19.23
-18.58
-15.62
-10.72
-4.61
1.78
7.65
12.45
16.01
18.39
19.76
20.32
20.3
19.96
19.62
19.66
20.32
21.65
23.42
25.15
26.26
26.25
24.81
21.94
17.84
12.87
7.41
1.77
-3.83
-9.26
-14.44
-19.39
-24.21
-29.07
-34.2
-39.76
-45.79
-52.1
-58.31
-63.85
-68.08
-70.34
-70.18
-67.42
-62.3
-55.42
-47.59
-39.62
-32.13
-25.39
-19.45
-14.24
-9.78
-6.19
-3.62
-2.1
-1.43
-1.22
-1.02
-0.49
0.51
1.88
3.41
4.91
6.23
7.32
8.15
8.64
8.61
7.88
6.36
4.1
1.39
-1.39
-3.82
-5.68
-6.94
-7.84
-8.76
-10.13
-12.25
-15.22
-18.83
-22.56
-25.66
-27.33
-26.94
-24.31
-19.7
-13.82
-7.57
-1.73
3.19
7.04
9.94
12.11
13.73
14.89
15.59
15.8
15.52
14.83
13.92
13.04
12.39
12.08
12.09
12.24
12.31
12.12
11.56
10.6
9.28
7.64
5.71
3.53
1.15
-1.38
-4.02
-6.76
-9.52
-12.22
-14.78
-17.17
-19.49
-21.93
-24.7
-27.9
-31.42
-34.88
-37.78
-39.55
-39.71
-37.96
-34.19
-28.59
-21.65
-14.17
-7.14
-1.48
2.24
3.98
4.2
3.64
3.04
2.92
3.48
4.66
6.34
8.44
10.89
13.6
16.39
19
21.13
22.58
23.28
23.3
22.77
21.83
20.56
19.03
17.29
15.39
13.43
11.5
9.65
7.82
5.87
3.55
0.67
-2.79
-6.62
-10.34
-13.31
-14.92
-14.83
-13.05
-9.96
-6.14
-2.13
1.64
4.95
7.71
9.9
11.47
12.37
12.56
12.12
11.19
9.97
8.7
7.6
6.83
6.5
6.59
7
7.56
8.11
8.48
8.57
8.33
7.69
6.6
5.01
2.98
0.72
-1.47
-3.25
-4.45
-5.16
-5.77
-6.79
-8.69
-11.68
-15.62
-20.12
-24.52
-28.14
-30.35
-30.7
-29.01
-25.46
-20.56
-15.02
-9.62
-4.92
-1.22
1.46
3.28
4.44
5.09
5.33
5.24
4.97
4.71
4.65
4.92
5.52
6.33
7.17
7.9
8.44
8.81
9.03
9.06
8.78
8.01
6.62
4.6
2.13
-0.46
-2.84
-4.79
-6.28
-7.46
-8.61
-10.03
-11.99
-14.66
-18.01
-21.79
-25.5
-28.39
-29.72
-28.9
-25.8
-20.72
-14.36
-7.6
-1.19
4.37
8.95
12.6
15.5
17.78
19.51
20.74
21.54
22.04
22.4
22.72
22.99
23.1
22.9
22.35
21.61
20.95
20.7
21.03
21.84
22.79
23.39
23.19
21.91
19.52
16.28
12.57
8.86
5.52
2.75
0.55
-1.25
-2.95
-4.9
-7.41
-10.7
-14.76
-19.32
-23.81
-27.4
-29.3
-28.97
-26.34
-21.87
-16.34
-10.6
-5.25
-0.54
3.62
7.39
10.89
14
16.5
18.12
18.72
18.37
17.34
16.01
14.75
13.82
13.33
13.22
13.3
13.34
13.16
12.68
11.9
10.92
9.84
8.72
7.57
6.29
4.77
2.88
0.55
-2.17
-5.16
-8.23
-11.24
-14.09
-16.8
-19.46
-22.21
-25.14
-28.29
-31.57
-34.75
-37.46
-39.24
-39.62
-38.21
-34.86
-29.74
-23.32
-16.27
-9.23
-2.66
3.2
8.32
12.71
16.3
18.99
20.67
21.38
21.41
21.19
21.2
21.73
22.79
24.13
25.36
26.11
26.16
25.52
24.38
23
21.57
20.17
18.74
17.13
15.17
12.81
10.08
7.14
4.24
1.62
-0.53
-2.18
-3.49
-4.85
-6.79
-9.8
-14.12
-19.61
-25.69
-31.54
-36.25
-39.09
-39.63
-37.81
-33.9
-28.42
-22.07
-15.59
-9.65
-4.69
-0.82
2.13
4.5
6.57
8.45
10.12
11.49
12.53
13.31
13.96
14.62
15.36
16.18
17.01
17.74
18.27
18.47
18.26
17.6
16.58
15.31
13.9
12.4
10.7
8.68
6.26
3.51
0.66
-2.03
-4.38
-6.39
-8.26
-10.29
-12.77
-15.86
-19.52
-23.52
-27.42
-30.6
-32.44
-32.41
-30.23
-26.05
-20.37
-13.92
-7.43
-1.45
3.78
8.24
12
15.11
17.49
19.03
19.67
19.57
19.01
18.43
18.18
18.46
19.25
20.34
21.43
22.29
22.78
22.86
22.54
21.86
20.81
19.38
17.59
15.52
13.33
11.18
9.19
7.38
5.69
3.98
2.06
-0.22
-2.97
-6.18
-9.73
-13.33
-16.57
-19.06
-20.54
-20.99
-20.64
-19.85
-18.92
-17.99
-16.98
-15.72
-14.05
-11.99
-9.72
-7.53
-5.62
-4.03
-2.64
-1.23
0.39
2.3
4.49
6.95
9.67
12.71
16.08
19.75
23.63
27.59
31.48
35.15
38.39
40.92
42.47
42.85
42.05
40.21
37.6
34.44
30.75
26.39
21.16
15
8.18
1.31
-4.73
-9.12
-11.38
-11.58
-10.32
-8.46
-6.78
-5.7
-5.18
-4.9
-4.57
-4.04
-3.43
-2.89
-2.55
-2.38
-2.32
-2.31
-2.28
-2.27
-2.19
-1.97
-1.5
-0.79
-0.02
0.56
0.67
0.14
-1.07
-2.88
-5.16
-7.79
-10.65
-13.64
-16.69
-19.82
-23.07
-26.58
-30.32
-34.12
-37.52
-39.92
-40.73
-39.62
-36.66
-32.36
-27.56
-23.09
-19.57
-17.17
-15.64
-14.53
-13.37
-11.96
-10.32
-8.57
-6.74
-4.72
-2.27
0.82
4.49
8.44
12.1
14.9
16.47
16.74
15.99
14.64
13.13
11.71
10.38
8.93
7.08
4.62
1.54
-2.03
-5.86
-9.73
-13.39
-16.55
-18.76
-19.47
-18.17
-14.64
-9.13
-2.39
4.54
10.63
15.17
17.89
18.98
18.82
17.88
16.56
15.17
14.02
13.35
13.38
14.12
15.41
16.92
18.23
18.98
18.92
18
16.34
14.15
11.77
9.46
7.47
5.88
4.65
3.61
2.51
1.13
-0.71
-3.11
-6.09
-9.62
-13.51
-17.38
-20.62
-22.5
-22.36
-19.92
-15.3
-9.14
-2.3
4.41
10.44
15.59
19.89
23.38
25.98
27.5
27.72
26.57
24.19
20.93
17.3
13.8
10.84
8.68
7.41
6.93
7.03
7.39
7.72
7.75
7.33
6.41
5.02
3.24
1.22
-0.88
-2.91
-4.74
-6.39
-8.03
-9.96
-12.47
-15.74
-19.63
-23.68
-27.21
-29.52
-30.11
-28.86
-26.02
-22.08
-17.65
-13.23
-9.16
-5.62
-2.7
-0.47
1
1.69
1.69
1.29
0.88
0.88
1.52
2.84
4.66
6.69
8.7
10.55
12.15
13.47
14.41
14.86
14.68
13.77
12.1
9.78
7.01
4
0.97
-1.99
-4.92
-7.93
-11.14
-14.51
-17.83
-20.66
-22.51
-22.91
-21.62
-18.65
-14.33
-9.19
-3.88
1.07
5.29
8.66
11.2
12.96
13.9
13.94
13.09
11.5
9.58
7.86
6.71
6.27
6.32
6.45
6.29
5.69
4.74
3.65
2.54
1.36
-0.12
-2.15
-4.82
-8.04
-11.58
-15.13
-18.5
-21.59
-24.44
-27.21
-30.16
-33.59
-37.79
-42.89
-48.72
-54.8
-60.32
-64.46
-66.62
-66.61
-64.75
-61.68
-58.1
-54.56
-51.33
-48.44
-45.85
-43.55
-41.62
-40.28
-39.7
-39.93
-40.7
-41.32
-40.61
-37
-28.98
-15.67
2.67
24.45
47.08
67.73
84.08
94.9
100.16
100.78
98.4
95.11
93.15
94.51
100.38
110.64
123.75
137.13
148.05
154.56
155.96
152.73
145.97
136.7
125.63
113.17
99.78
86.25
73.6
62.89
54.75
49.18
45.5
42.6
39.35
35.03
29.53
23.39
17.59
13.17
10.98
11.38
14.06
18
21.46
22.24
18.25
8.3
-7
-24.97
-41.51
-52.58
-55.88
-51.91
-43.83
-36.19
-33.19
-37.15
-47.89
-63
-78.83
-91.76
-99.38
-101.08
-98.2
-93.25
-88.96
-87.1
-87.92
-90.3
-92.55
-93.38
-92.26
-89.3
-84.69
-78.39
-70.23
-60.32
-49.4
-38.87
-30.28
-24.62
-21.92
-21.29
-21.31
-20.71
-18.79
-15.6
-11.79
-8.21
-5.62
-4.36
-4.36
-5.14
-6.06
-6.55
-6.34
-5.56
-4.63
-4.1
-4.36
-5.5
-7.34
-9.5
-11.67
-13.68
-15.53
-17.32
-19.15
-21.04
-22.97
-24.93
-26.97
-29.19
-31.62
-34.16
-36.57
-38.55
-39.87
-40.48
-40.42
-39.69
-38.15
-35.44
-31.19
-25.23
-17.86
-9.81
-2.1
4.3
8.75
11.15
11.84
11.51
10.94
10.84
11.71
13.76
16.95
20.97
25.33
29.44
32.65
34.39
34.24
32.14
28.41
23.82
19.33
15.82
13.75
12.94
12.67
11.96
10.03
6.54
1.77
-3.52
-8.33
-11.71
-12.94
-11.73
-8.21
-2.99
2.89
8.19
11.83
13.23
12.52
10.43
7.96
5.92
4.69
4.17
4.1
4.32
4.94
6.24
8.37
11.17
14.08
16.42
17.63
17.61
16.67
15.41
14.31
13.57
12.96
12.02
10.34
7.82
4.71
1.6
-0.93
-2.46
-2.93
-2.52
-1.48
0.09
2.3
5.35
9.3
13.92
18.66
22.87
26.13
28.48
30.6
33.55
38.37
45.6
54.99
65.58
76.08
85.44
93.19
99.48
104.83
109.65
113.98
117.44
119.58
120.1
119.14
117.08
114.29
110.91
106.7
101.31
94.41
85.87
75.63
63.56
49.34
32.64
13.54
-7.18
-27.99
-46.99
-62.51
-73.74
-80.9
-84.98
-87.19
-88.4
-88.94
-88.76
-87.73
-85.81
-82.91
-78.74
-72.73
-64.47
-54.22
-43.33
-34.15
-29.29
-30.61
-38.34
-50.89
-65.38
-78.65
-88.24
-92.96
-92.92
-89.07
-82.73
-75.22
-67.65
-60.91
-55.64
-52.22
-50.7
-50.75
-51.74
-52.95
-53.77
-53.88
-53.29
-52.17
-50.65
-48.7
-46.12
-42.68
-38.31
-33.14
-27.49
-21.77
-16.29
-11.2
-6.57
-2.4
1.22
4.17
6.29
7.45
7.62
6.89
5.46
3.68
2.05
1.03
0.99
1.98
3.74
5.67
7.06
7.28
5.98
3.17
-0.78
-5.27
-9.64
-13.32
-15.98
-17.62
-18.51
-19.17
-20.15
-21.91
-24.63
-28.16
-32
-35.38
-37.44
-37.46
-35.03
-30.27
-23.78
-16.48
-9.42
-3.43
1.07
4.09
5.96
7.11
7.9
8.46
8.81
8.92
8.88
8.91
9.35
10.49
12.44
15.09
18.05
20.8
22.82
23.75
23.5
22.26
20.35
18.08
15.63
12.97
9.95
6.43
2.35
-2.24
-7.14
-11.95
-16.12
-18.9
-19.51
-17.42
-12.58
-5.56
2.58
10.55
17.26
22.09
24.97
26.2
26.28
25.68
24.71
23.61
22.55
21.69
21.17
21.1
21.46
22.03
22.49
22.44
21.61
19.93
17.56
14.79
11.91
9.12
6.51
4.11
1.9
-0.12
-2.01
-3.95
-6.19
-9.02
-12.56
-16.63
-20.68
-23.93
-25.55
-24.94
-22
-17.13
-11.16
-5.06
0.36
4.66
7.77
9.88
11.18
11.75
11.55
10.57
8.92
6.92
5.02
3.54
2.63
2.15
1.83
1.46
0.99
0.49
0.14
-0.05
-0.2
-0.57
-1.4
-2.75
-4.47
-6.26
-7.84
-9.06
-10.02
-10.97
-12.21
-13.83
-15.58
-16.82
-16.74
-14.54
-9.83
-2.84
5.58
14.17
21.59
26.84
29.44
29.48
27.55
24.61
21.8
20.28
20.95
24.05
29.06
34.78
39.78
43.09
44.63
45.19
45.97
47.9
51.07
54.75
57.76
59.08
58.23
55.35
50.94
45.63
39.97
34.47
29.64
25.93
23.61
22.62
22.55
22.82
22.86
22.3
21.08
19.32
17.3
15.37
13.85
12.95
12.72
12.94
13.16
12.84
11.58
9.22
5.91
1.94
-2.38
-6.79
-11.11
-15.11
-18.58
-21.32
-23.27
-24.56
-25.48
-26.36
-27.39
-28.62
-29.91
-31.1
-32.02
-32.65
-33.11
-33.64
-34.55
-36.11
-38.48
-41.55
-44.95
-48.07
-50.18
-50.57
-48.82
-44.88
-39.15
-32.4
-25.55
-19.48
-14.81
-11.73
-10.1
-9.48
-9.36
-9.32
-9.1
-8.6
-7.85
-6.9
-5.75
-4.38
-2.82
-1.14
0.52
1.98
3.14
4.03
4.75
5.45
6.14
6.73
7.09
7.1
6.82
6.44
6.16
6
5.76
5.15
3.94
2.23
0.5
-0.56
-0.28
1.74
5.49
10.62
16.57
22.8
28.86
34.44
39.27
43.17
46.02
47.86
48.89
49.42
49.75
50.04
50.23
50.07
49.29
47.69
45.28
42.18
38.61
34.7
30.49
25.85
20.61
14.57
7.59
-0.34
-9.15
-18.52
-28.02
-37.14
-45.44
-52.71
-59.05
-64.78
-70.27
-75.75
-81.19
-86.23
-90.33
-92.89
-93.43
-91.65
-87.6
-81.58
-74.24
-66.32
-58.54
-51.36
-44.85
-38.8
-32.84
-26.72
-20.4
-14.06
-7.96
-2.28
2.92
7.74
12.34
16.88
21.6
26.76
32.67
39.57
47.52
56.21
64.97
72.88
79.11
83.15
85.02
85.25
84.61
83.83
83.31
83.04
82.69
81.75
79.81
76.61
72.08
66.38
59.81
52.84
46.02
39.82
34.55
30.27
26.83
24.06
21.9
20.45
19.92
20.47
22.11
24.61
27.64
30.85
33.98
36.86
39.4
41.59
43.56
45.53
47.83
50.65
53.97
57.34
60.05
61.27
60.41
57.27
52.08
45.28
37.34
28.55
19.13
9.39
-0.19
-8.89
-16.07
-21.43
-25.23
-28.24
-31.51
-35.9
-41.9
-49.34
-57.52
-65.32
-71.47
-74.76
-74.38
-70.14
-62.53
-52.66
-41.9
-31.57
-22.62
-15.53
-10.35
-6.84
-4.62
-3.31
-2.68
-2.75
-3.74
-5.94
-9.51
-14.26
-19.79
-25.59
-31.34
-36.97
-42.49
-47.85
-52.68
-56.45
-58.76
-59.56
-59.26
-58.42
-57.47
-56.46
-55.11
-53.06
-50.13
-46.42
-42.2
-37.7
-33.02
-28.13
-22.94
-17.51
-12.07
-6.95
-2.39
1.59
5.24
8.95
13.02
17.45
21.9
25.85
28.88
30.93
32.32
33.61
35.27
37.45
39.9
42.18
43.82
44.54
44.25
43.02
41.03
38.58
36.07
33.83
32.03
30.5
28.71
26.02
21.93
16.33
9.55
2.23
-4.97
-11.52
-17.12
-21.56
-24.59
-25.92
-25.27
-22.62
-18.25
-12.85
-7.22
-2.08
2.15
5.35
7.64
9.21
10.13
10.34
9.72
8.2
5.86
2.97
-0.05
-2.75
-4.79
-6.04
-6.65
-6.97
-7.44
-8.37
-9.88
-11.9
-14.26
-16.81
-19.45
-22.2
-25.1
-28.16
-31.38
-34.75
-38.27
-41.91
-45.54
-48.85
-51.35
-52.48
-51.8
-49.16
-44.77
-39.22
-33.28
-27.67
-22.88
-19.06
-16.06
-13.62
-11.5
-9.63
-8.13
-7.14
-6.74
-6.85
-7.21
-7.5
-7.51
-7.22
-6.82
-6.65
-6.98
-7.94
-9.42
-11.16
-12.88
-14.38
-15.6
-16.58
-17.39
-18.11
-18.75
-19.28
-19.64
-19.65
-19.07
-17.61
-15.08
-11.51
-7.17
-2.57
1.73
5.29
7.87
9.49
10.29
10.51
10.37
10.04
9.65
9.33
9.19
9.31
9.72
10.38
11.18
11.94
12.53
12.84
12.87
12.65
12.19
11.41
10.19
8.38
5.96
3.06
-0
-2.87
-5.25
-7.02
-8.29
-9.38
-10.63
-12.33
-14.54
-17
-19.15
-20.27
-19.75
-17.27
-12.95
-7.24
-0.78
5.88
12.36
18.45
24
28.74
32.33
34.39
34.75
33.5
31.01
27.83
24.53
21.52
19.09
17.31
16.16
15.47
15.04
14.55
13.71
12.28
10.1
7.22
3.82
0.22
-3.19
-6.09
-8.3
-9.86
-11.08
-12.4
-14.26
-16.93
-20.34
-24.07
-27.45
-29.73
-30.31
-28.95
-25.8
-21.37
-16.4
-11.63
-7.61
-4.59
-2.45
-0.84
0.63
2.16
3.72
5.07
5.95
6.25
6.1
5.78
5.61
5.72
6.04
6.35
6.44
6.23
5.77
5.2
4.6
3.94
3.11
2.02
0.64
-0.93
-2.52
-4.01
-5.37
-6.71
-8.22
-10.02
-12.03
-13.9
-15.07
-14.93
-13.09
-9.53
-4.69
0.7
5.82
10.08
13.21
15.31
16.73
17.85
18.93
20.02
21.04
21.82
22.31
22.58
22.75
22.93
23.12
23.2
23
22.4
21.43
20.22
18.89
17.51
16.04
14.39
12.53
10.52
8.51
6.65
5.04
3.62
2.14
0.29
-2.2
-5.32
-8.73
-11.84
-14
-14.7
-13.79
-11.45
-8.11
-4.22
-0.17
3.76
7.33
10.36
12.7
14.3
15.28
15.81
16.07
16.12
15.88
15.24
14.2
12.91
11.63
10.61
9.94
9.48
8.92
7.96
6.43
4.38
1.92
-0.81
-3.85
-7.28
-11.19
-15.51
-19.98
-24.2
-27.86
-30.8
-33.13
-35.13
-37.1
-39.17
-41.3
-43.11
-44.09
-43.62
-41.18
-36.46
-29.54
-20.84
-11.09
-1.14
8.15
16.13
22.37
26.69
29.12
29.82
29.09
27.3
24.89
22.32
19.96
18.09
16.77
15.9
15.3
14.75
14.08
13.18
11.91
10.12
7.75
4.96
2.18
-0.01
-1.21
-1.43
-1.16
-1.13
-1.92
-3.64
-5.86
-7.91
-9.25
-9.78
-9.77
-9.71
-9.92
-10.46
-11.12
-11.6
-11.69
-11.28
-10.41
-9.1
-7.39
-5.28
-2.77
0.01
2.8
5.2
6.85
7.6
7.66
7.63
8.21
9.94
12.87
16.55
20.22
23.16
24.97
25.72
25.76
25.53
25.22
24.77
23.87
22.28
19.92
17.04
14.12
11.64
9.77
8.24
6.29
2.93
-2.72
-11.04
-21.64
-33.39
-44.49
-52.87
-56.59
-54.41
-46.21
-33.2
-17.8
-3.05
8.18
14.03
14.19
9.87
3.39
-2.59
-5.88
-5.3
-0.89
6.26
14.57
22.49
29.09
34.18
38.15
41.57
44.72
47.49
49.49
50.39
50.19
49.14
47.52
45.39
42.52
38.63
33.67
27.97
22.16
16.85
12.27
8.24
4.27
-0.07
-4.86
-9.69
-13.87
-16.69
-17.75
-17.1
-15.18
-12.66
-10.22
-8.37
-7.34
-7.2
-7.83
-9.1
-10.83
-12.86
-15.03
-17.21
-19.36
-21.55
-23.95
-26.8
-30.23
-34.25
-38.73
-43.45
-48.2
-52.92
-57.67
-62.61
-67.83
-73.28
-78.72
-83.8
-88.2
-91.75
-94.49
-96.59
-98.25
-99.55
-100.4
-100.55
-99.68
-97.57
-94.18
-89.7
-84.4
-78.56
-72.31
-65.63
-58.41
-50.54
-42.05
-33.07
-23.85
-14.61
-5.55
3.2
11.55
19.53
27.45
35.9
45.77
57.98
73.16
91.3
111.73
133.42
155.29
176.77
197.72
218.18
237.82
255.51
269.33
276.96
276.49
267.02
249.12
224.64
196.29
167.02
139.44
115.49
96.17
81.67
71.4
64.21
58.63
53.26
47.03
39.39
30.42
20.76
11.26
2.74
-4.41
-10.35
-15.7
-21.24
-27.53
-34.63
-42.04
-49.06
-55.13
-60.18
-64.6
-68.94
-73.49
-78.08
-82.14
-85.05
-86.53
-86.75
-86.28
-85.87
-86.19
-87.78
-91.12
-96.49
-103.82
-112.41
-120.69
-126.58
-128.2
-124.73
-116.78
-106.02
-94.17
-82.1
-69.5
-55.51
-39.79
-23.44
-8.9
1.07
4.67
2.1
-4.64
-12.73
-19.85
-24.93
-28.08
-29.89
-30.61
-29.96
-27.33
-22.43
-15.66
-8.27
-1.93
1.8
1.93
-1.66
-8.39
-17.14
-26.65
-35.7
-43.38
-49.17
-52.93
-54.89
-55.55
-55.47
-55.12
-54.69
-54.07
-53.11
-51.76
-50.34
-49.38
-49.45
-50.8
-53.26
-56.26
-59.05
-60.98
-61.49
-60.17
-56.65
-50.63
-42.01
-31.03
-18.35
-5.01
7.85
19.3
28.74
36.07
41.61
45.93
49.64
53.21
56.83
60.39
63.53
65.85
67
66.92
65.83
64.19
62.54
61.33
60.83
61.14
62.19
63.74
65.3
66.16
65.42
62.36
56.78
49.23
41.05
33.88
28.92
26.41
25.29
23.62
19.2
10.48
-2.83
-19.5
-37.19
-53.26
-65.72
-73.88
-78.42
-80.93
-83.06
-85.91
-89.84
-94.67
-100.13
-106.03
-112.23
-118.33
-123.4
-126.09
-124.96
-119.09
-108.49
-94.16
-77.81
-61.47
-46.89
-35.17
-26.59
-20.7
-16.47
-12.74
-8.37
-2.59
5
14.38
25.16
36.6
47.76
57.62
65.32
70.34
72.65
72.7
71.19
68.81
65.92
62.51
58.22
52.54
45.05
35.6
24.28
11.52
-1.95
-15.09
-26.51
-34.77
-38.66
-37.71
-32.36
-23.91
-14.07
-4.49
3.59
9.36
12.36
12.35
9.51
4.62
-0.78
-4.6
-4.67
0.56
11.54
27.58
47.13
68.36
89.59
109.43
126.6
139.77
147.45
148.28
141.56
127.71
108.49
86.59
65
46.04
30.77
18.93
9.52
1.68
-4.66
-8.77
-9.61
-6.61
-0.17
8.37
17.33
25.29
31.59
36.35
40.18
43.74
47.39
50.88
53.37
53.55
50.11
42.39
30.81
16.96
3.03
-9.02
-18.25
-24.86
-29.86
-34.31
-38.73
-43.06
-46.9
-50.02
-52.53
-54.77
-57.01
-59.22
-61.11
-62.29
-62.62
-62.32
-61.87
-61.63
-61.49
-60.66
-57.92
-52.08
-42.49
-29.34
-13.65
3.13
19.53
34.36
46.81
56.46
63.17
67.12
68.77
68.77
67.79
66.29
64.35
61.7
57.91
52.62
45.76
37.58
28.66
19.73
11.54
4.76
-0.2
-3.18
-4.39
-4.35
-3.83
-3.66
-4.48
-6.64
-10.06
-14.39
-19.18
-24.08
-28.88
-33.5
-37.93
-42.11
-46.04
-49.79
-53.49
-57.18
-60.65
-63.29
-64.27
-62.84
-58.7
-52.3
-44.62
-36.9
-30.03
-24.34
-19.6
-15.37
-11.44
-8.02
-5.69
-5.01
-6.08
-8.27
-10.32
-10.7
-8.1
-1.88
7.72
19.69
32.45
44.01
52.19
54.95
51.09
41.03
27.12
13.27
3.67
1.29
6.86
18.92
34.82
52.07
69.23
85.88
101.98
117.08
130.17
140.01
145.96
148.42
148.66
148.2
147.94
147.7
146.29
142.13
134.13
122.22
107.15
89.82
70.86
50.86
31.12
14.33
4.15
3.68
13.55
30.95
50.31
65.58
72.64
70.62
61.41
47.97
32.67
16.64
0.26
-15.97
-30.89
-43.06
-51.41
-55.8
-57.02
-56.42
-55.4
-54.96
-55.66
-57.53
-60.22
-63.2
-65.9
-68.03
-69.6
-70.89
-72.26
-73.9
-75.64
-77.08
-77.66
-76.99
-75.02
-72.09
-68.82
-65.9
-63.83
-62.81
-62.75
-63.39
-64.4
-65.49
-66.3
-66.45
-65.43
-62.79
-58.33
-52.24
-45.14
-37.9
-31.38
-26.09
-22.14
-19.29
-17.08
-15.15
-13.24
-11.23
-9.08
-6.74
-4.16
-1.29
1.79
4.93
7.92
10.55
12.66
14.22
15.22
15.72
15.75
15.28
14.33
12.92
11.15
9.17
7.15
5.13
3.02
0.61
-2.35
-5.91
-9.85
-13.69
-16.82
-18.79
-19.55
-19.4
-18.93
-18.72
-19.1
-20.09
-21.46
-22.81
-23.73
-23.81
-22.68
-20.11
-16.07
-10.83
-4.92
0.97
6.26
10.6
13.96
16.59
18.76
20.72
22.52
24.13
25.41
26.26
26.69
26.8
26.73
26.66
26.66
26.79
26.99
27.14
27.03
26.45
25.25
23.38
20.91
17.99
14.81
11.52
8.23
5.05
2.14
-0.34
-2.31
-3.9
-5.45
-7.39
-10.07
-13.57
-17.61
-21.71
-25.29
-27.9
-29.24
-29.17
-27.66
-24.83
-20.94
-16.44
-11.92
-7.91
-4.8
-2.72
-1.63
-1.34
-1.67
-2.43
-3.41
-4.39
-5.11
-5.41
-5.24
-4.67
-3.86
-2.95
-2.05
-1.18
-0.38
0.3
0.76
0.85
0.47
-0.5
-2.08
-4.16
-6.55
-8.95
-11.03
-12.6
-13.65
-14.41
-15.31
-16.8
-19.2
-22.55
-26.58
-30.75
-34.33
-36.62
-37.07
-35.43
-31.84
-26.75
-20.82
-14.76
-9.18
-4.44
-0.69
2.13
4.17
5.58
6.5
7.02
7.24
7.22
7.06
6.81
6.54
6.34
6.26
6.4
6.77
7.36
8.08
8.81
9.34
9.48
9.05
7.97
6.28
4.17
2
0.17
-1.02
-1.53
-1.62
-1.73
-2.39
-3.89
-6.26
-9.17
-12.03
-14.15
-14.93
-13.99
-11.28
-7.08
-1.89
3.65
8.95
13.57
17.24
19.84
21.32
21.66
20.92
19.28
17.11
14.9
13.17
12.25
12.2
12.77
13.53
14.02
14
13.49
12.71
11.96
11.35
10.78
9.96
8.6
6.54
3.9
0.96
-1.95
-4.59
-6.91
-9.03
-11.1
-13.23
-15.51
-17.98
-20.72
-23.72
-26.78
-29.43
-30.94
-30.55
-27.76
-22.61
-15.7
-8.03
-0.57
5.97
11.35
15.68
19.13
21.79
23.58
24.34
24.07
23
21.57
20.3
19.57
19.47
19.79
20.15
20.12
19.5
18.35
16.94
15.6
14.48
13.54
12.48
10.96
8.76
5.87
2.55
-0.88
-4.13
-7.08
-9.77
-12.37
-15.08
-18.1
-21.62
-25.75
-30.44
-35.43
-40.25
-44.21
-46.62
-47
-45.18
-41.44
-36.38
-30.77
-25.3
-20.51
-16.7
-14.04
-12.6
-12.37
-13.3
-15.21
-17.81
-20.71
-23.64
-26.46
-29.31
-32.41
-35.92
-39.76
-43.55
-46.77
-49
-50.08
-50.2
-49.74
-49.05
-48.17
-46.78
-44.3
-40.13
-33.99
-26.09
-17.05
-7.83
0.59
7.47
12.48
15.87
18.44
21.4
26.14
33.83
45.05
59.61
76.37
93.47
108.69
120.13
126.67
128.34
126.14
121.64
116.41
111.55
107.56
104.46
102.03
100.02
98.14
95.93
92.69
87.6
80.04
69.94
57.92
45.1
32.67
21.61
12.49
5.39
0.02
-4.23
-8.19
-12.66
-18.23
-24.96
-32.34
-39.5
-45.64
-50.43
-54.17
-57.47
-60.88
-64.37
-67.29
-68.74
-68.02
-65.03
-60.26
-54.57
-48.78
-43.35
-38.26
-33.21
-27.8
-21.83
-15.36
-8.75
-2.5
3.04
7.74
11.79
15.57
19.43
23.52
27.69
31.57
34.74
36.91
38
38.14
37.52
36.29
34.51
32.17
29.24
25.83
22.11
18.36
14.89
11.89
9.43
7.4
5.58
3.71
1.5
-1.23
-4.54
-8.28
-12.11
-15.47
-17.79
-18.63
-17.83
-15.6
-12.37
-8.68
-4.97
-1.54
1.45
3.86
5.59
6.53
6.61
5.9
4.57
2.88
1.08
-0.59
-1.96
-3
-3.75
-4.33
-4.83
-5.3
-5.65
-5.77
-5.64
-5.37
-5.27
-5.64
-6.72
-8.49
-10.72
-13.03
-15.07
-16.61
-17.6
-18.18
-18.56
-19.03
-19.85
-21.17
-22.96
-24.98
-26.76
-27.78
-27.61
-26.09
-23.36
-19.83
-15.96
-12.14
-8.59
-5.41
-2.65
-0.41
1.23
2.18
2.47
2.26
1.75
1.18
0.72
0.43
0.3
0.33
0.45
0.63
0.81
0.94
0.97
0.83
0.43
-0.37
-1.67
-3.53
-5.85
-8.42
-10.96
-13.27
-15.29
-17.09
-18.86
-20.78
-22.95
-25.38
-27.95
-30.36
-32.19
-32.93
-32.16
-29.66
-25.64
-20.67
-15.59
-11.18
-7.97
-6.02
-5.08
-4.71
-4.52
-4.3
-4.08
-4.02
-4.28
-4.95
-5.98
-7.23
-8.49
-9.58
-10.4
-11.01
-11.65
-12.58
-13.92
-15.57
-17.15
-18.25
-18.79
-19.14
-20.09
-22.47
-26.69
-32.46
-38.77
-44.32
-48.02
-49.24
-48.03
-44.81
-40.27
-35.12
-30.03
-25.49
-21.61
-17.96
-13.5
-6.76
3.72
18.65
37.51
58.36
78.32
94.55
105.28
110.41
111.32
110.09
108.37
106.76
104.84
101.79
97.13
91.15
84.67
78.46
72.73
67
60.55
52.94
44.41
35.8
28.14
22.15
17.87
14.77
11.97
8.66
4.37
-0.86
-6.63
-12.32
-17.34
-21.36
-24.35
-26.51
-28.19
-29.72
-31.32
-33.12
-35.16
-37.41
-39.78
-42.01
-43.68
-44.29
-43.48
-41.16
-37.69
-33.74
-30.02
-27.09
-25.09
-23.86
-23.08
-22.48
-21.96
-21.64
-21.69
-22.26
-23.36
-24.87
-26.6
-28.29
-29.74
-30.76
-31.23
-31.07
-30.28
-28.93
-27.16
-25.19
-23.32
-21.77
-20.67
-19.96
-19.4
-18.68
-17.62
-16.17
-14.52
-12.91
-11.52
-10.42
-9.57
-8.92
-8.54
-8.58
-9.2
-10.49
-12.35
-14.49
-16.49
-17.85
-18.13
-17.02
-14.42
-10.46
-5.53
-0.13
5.17
9.91
13.82
16.86
19.1
20.7
21.77
22.35
22.41
21.94
20.97
19.61
18.04
16.48
15.07
13.92
13.05
12.39
11.82
11.19
10.33
9.13
7.57
5.7
3.6
1.33
-1.12
-3.78
-6.67
-9.78
-12.97
-16.1
-19
-21.57
-23.69
-25.3
-26.33
-26.81
-26.91
-26.93
-27.21
-27.83
-28.5
-28.53
-26.98
-23.06
-16.45
-7.47
3.05
14.04
24.49
33.77
41.62
48.11
53.48
58.02
61.99
65.51
68.56
70.9
72.16
71.97
70.09
66.5
61.43
55.19
48.11
40.5
32.62
24.83
17.51
11.02
5.52
0.94
-2.99
-6.55
-9.85
-12.72
-14.85
-15.99
-16.09
-15.32
-13.93
-12.12
-9.94
-7.46
-4.82
-2.23
0.1
2.23
4.53
7.63
12.15
18.35
26.02
34.55
43.11
50.97
57.56
62.52
65.52
66.27
64.5
60.06
53.06
43.95
33.4
22.16
10.93
0.24
-9.5
-17.94
-24.72
-29.44
-31.85
-31.83
-29.54
-25.3
-19.45
-12.24
-3.82
5.71
16.08
26.79
37.16
46.42
53.94
59.27
62.15
62.46
60.23
55.76
49.75
43.29
37.72
34.23
33.48
35.25
38.53
41.73
43.13
41.28
35.31
25.2
11.83
-3.11
-17.56
-29.68
-38.52
-44.37
-48.52
-52.49
-57.26
-62.64
-67.55
-70.62
-71.05
-69.07
-65.91
-63.36
-63.14
-66.25
-72.5
-80.38
-87.28
-90.23
-86.73
-75.7
-57.88
-35.82
-13.19
6.09
18.76
22.91
18.33
6.56
-9.41
-25.91
-39.61
-48.6
-52.92
-54.31
-55.24
-57.78
-62.73
-69.44
-76.22
-81
-81.99
-77.91
-68.21
-52.96
-32.96
-9.79
14.23
36.27
53.63
64.33
67.75
64.73
57.27
47.78
38.28
29.86
22.56
15.8
8.95
1.78
-5.33
-11.62
-16.28
-18.79
-19.03
-17.28
-14.03
-9.86
-5.27
-0.61
4.04
8.79
13.83
19.25
24.85
30.08
34.21
36.61
37
35.57
32.84
29.39
25.62
21.68
17.54
13.16
8.62
4.16
0.11
-3.18
-5.54
-6.94
-7.56
-7.6
-7.17
-6.18
-4.32
-1.19
3.58
10.15
18.46
28.2
38.84
49.64
59.65
67.78
72.92
74.21
71.28
64.54
55.21
45.07
35.96
29.25
25.41
23.97
23.92
24.27
24.56
24.95
25.96
27.97
30.94
34.44
37.91
41.05
44.02
47.28
51.33
56.5
62.72
69.43
75.57
79.71
80.44
76.86
69.07
58.38
46.79
36.27
27.85
21.31
15.43
8.81
0.67
-8.87
-18.97
-28.71
-37.53
-45.5
-53.08
-60.87
-69.25
-78.24
-87.54
-96.53
-104.43
-110.46
-114.03
-115
-113.77
-111.12
-107.94
-104.87
-102.15
-99.64
-96.99
-93.75
-89.54
-83.91
-76.41
-66.6
-54.32
-39.88
-24.14
-8.41
5.93
17.91
27.23
34.26
39.83
44.75
49.56
54.3
58.67
62.17
64.33
64.82
63.55
60.69
56.78
52.67
49.4
47.75
47.93
49.4
50.95
51.13
48.76
43.2
34.53
23.28
10.22
-3.83
-18.08
-31.81
-44.34
-55.09
-63.72
-70.07
-74.27
-76.59
-77.41
-77.11
-76.04
-74.45
-72.51
-70.33
-68.03
-65.79
-63.78
-62.11
-60.77
-59.63
-58.52
-57.34
-56.18
-55.23
-54.65
-54.36
-54.02
-53.04
-50.84
-47.04
-41.64
-34.99
-27.64
-20.2
-13.15
-6.83
-1.46
2.85
6.1
8.43
10.1
11.46
12.8
14.3
15.94
17.64
19.25
20.67
21.86
22.77
23.35
23.56
23.39
22.92
22.29
21.61
20.94
20.26
19.5
18.58
17.44
16.06
14.45
12.57
10.44
8.07
5.57
3.13
1.01
-0.42
-0.82
0.08
2.35
5.82
10.03
14.39
18.25
21.15
22.89
23.58
23.48
22.9
22.04
20.93
19.49
17.65
15.45
13.08
10.83
9.04
7.89
7.4
7.34
7.41
7.27
6.69
5.56
3.94
1.95
-0.23
-2.46
-4.64
-6.77
-8.88
-11.05
-13.39
-15.98
-18.77
-21.54
-23.86
-25.16
-24.88
-22.67
-18.51
-12.83
-6.38
-0.04
5.4
9.5
12.13
13.51
13.98
13.93
13.64
13.31
13.04
12.85
12.76
12.76
12.86
13.09
13.46
14
14.68
15.47
16.28
16.95
17.31
17.19
16.44
15.05
13.11
10.82
8.38
5.87
3.25
0.38
-2.88
-6.5
-10.29
-13.88
-16.87
-18.86
-19.6
-19
-17.21
-14.54
-11.4
-8.18
-5.12
-2.36
0.13
2.37
4.3
5.78
6.67
6.93
6.74
6.48
6.62
7.5
9.25
11.76
14.72
17.75
20.43
22.46
23.67
24.07
23.98
23.88
24.36
25.83
28.33
31.42
34.32
36.19
36.41
34.85
31.85
28.08
24.25
20.89
18.19
15.98
13.9
11.59
8.85
5.79
2.73
0.05
-2.04
-3.54
-4.75
-6.03
-7.67
-9.82
-12.46
-15.49
-18.75
-22.08
-25.29
-28.11
-30.32
-31.7
-32.12
-31.58
-30.13
-27.88
-25.06
-21.89
-18.69
-15.7
-13.06
-10.76
-8.62
-6.42
-3.96
-1.14
1.97
