16.06
16.4
16.89
17.68
18.75
19.96
21.04
21.71
21.8
21.29
20.33
19.2
18.17
17.44
17.03
16.79
16.46
15.69
14.18
11.77
8.5
4.67
0.78
-2.5
-4.62
-5.25
-4.41
-2.4
0.29
3.18
5.88
8.15
9.94
11.28
12.23
12.88
13.29
13.52
13.63
13.63
13.51
13.22
12.7
11.92
10.86
9.56
8.1
6.51
4.84
3.05
1.14
-0.85
-2.8
-4.55
-6.04
-7.27
-8.46
-9.88
-11.74
-14.07
-16.56
-18.67
-19.84
-19.63
-17.98
-15.2
-11.88
-8.65
-5.96
-3.92
-2.42
-1.24
-0.33
0.21
0.07
-0.98
-3.01
-5.82
-8.99
-12.03
-14.4
-15.67
-15.39
-13.21
-8.93
-2.68
4.93
12.98
20.51
26.92
32.12
36.48
40.51
44.54
48.56
52.42
56.04
59.6
63.49
68.06
73.43
79.47
85.96
92.83
100.26
108.53
117.78
127.78
137.97
147.68
156.41
164.06
170.94
177.68
184.97
193.22
202.28
211.23
218.32
221.28
217.77
206.21
186.17
158.43
124.5
85.88
43.42
-2.85
-53.21
-107.29
-163.14
-217.07
-264.25
-299.79
-320.04
-323.56
-311.37
-286.68
-254
-218.17
-183.51
-153.23
-129.02
-111.14
-98.74
-90.3
-84.03
-78.16
-71.04
-61.38
-48.62
-32.89
-15.27
2.48
18.29
30.43
38.11
41.85
43.08
43.25
43.79
45.78
49.99
56.94
67
80.11
95.33
110
119.04
117.31
101.3
70.44
26.97
-25.25
-82.28
-140.89
-199.08
-256.38
-310.93
-359.49
-398.58
-426.23
-442.78
-450.09
-449.83
-443.46
-433.66
-421.85
-408.13
-391.31
-369.61
-341.64
-307.7
-270.16
-221.32
-161.29
-94.82
-28.93
30.65
81.18
122.1
150.51
169.76
183.88
195.08
205.71
217.38
230.42
242.92
252.22
256.58
256.27
252.13
243.92
231.84
216.86
200.79
185.92
174.4
167.5
165.74
167.89
171.13
172.82
171.14
165.16
154.72
140.48
123.89
107.5
93.8
84.3
79.63
79.35
82.26
87.02
92.87
99.92
109.02
120.71
134.33
147.82
158.16
162.38
158.95
148.87
135.66
124.26
118.92
121.18
128.83
136.47
137.32
125.53
98.14
55.93
3.4
-51.81
-100.36
-133.32
-144.74
-134.26
-108.12
-77.83
-56.1
-51.61
-65.14
-89.41
-112.89
-125.68
-124.18
-112.11
-97.55
-88.02
-86.72
-91.87
-99.03
-104.51
-107.52
-110.06
-114.59
-121.56
-128.29
-129.84
-121.77
-102.64
-75.4
-46.35
-22.68
-9.12
-5.98
-9.2
-12.51
-10.46
-0.56
16.21
36.84
58.31
78.98
98.46
116.19
130.46
138.43
137.61
127.33
109.32
86.67
62
36.09
7.91
-23.76
-58.41
-92.84
-122.04
-141.36
-148.7
-145.56
-136.11
-125.32
-116.89
-112.2
-110.55
-110.37
-110.7
-112.01
-116.38
-126.21
-142.79
-164.92
-189.01
-210.13
-223.79
-227.43
-220.56
-204.17
-179.74
-149.15
-115.21
-82.18
-55.19
-38.47
-33.13
-35.98
-40.62
-40.17
-30.59
-12.46
9.51
28.97
40.91
43.57
38.73
30.59
24.06
23.3
30.63
46.41
69.21
96.63
126.12
155.61
183.5
208.28
228.21
241.28
245.89
241.74
230.46
215.26
199.9
187.15
177.99
171.58
166.11
160
152.41
143.33
133
121.5
108.61
94.1
78.11
61.18
44.18
27.83
12.59
-1.29
-13.61
-24.18
-33.01
-40.6
-47.93
-55.91
-64.65
-72.88
-78.19
-78.15
-71.7
-60.04
-46.34
-34.41
-26.97
-24.66
-26.07
-28.89
-31.21
-32.28
-32.39
-32.14
-31.75
-30.81
-28.65
-24.89
-19.82
-14.37
-9.56
-6.02
-3.79
-2.6
-2.42
-3.77
-7.61
-14.58
-24.26
-34.81
-43.44
-47.42
-45.21
-37.08
-24.85
-10.96
2.5
14.38
24.4
32.62
39
43.3
45.28
45.07
43.31
41.04
39.32
38.78
39.45
40.68
41.57
41.35
39.79
37.33
34.85
33.33
33.35
34.92
37.38
39.82
41.37
41.62
40.66
38.91
36.96
35.19
33.65
32.13
30.31
27.92
24.93
21.45
17.63
13.5
8.85
3.57
-2.27
-8.12
-13.13
-16.48
-17.82
-17.52
-16.58
-16.23
-17.47
-20.81
-26.16
-33.13
-41.16
-49.71
-58.32
-66.52
-73.84
-79.9
-84.58
-88.05
-90.7
-92.96
-95.05
-96.77
-97.56
-96.74
-93.83
-88.98
-83.04
-77.39
-73.51
-72.21
-73.16
-74.77
-74.6
-70.36
-60.82
-46.52
-29.61
-13.08
0.45
9.68
14.87
17.34
18.58
19.44
19.88
19.17
16.04
9
-3.43
-21.96
-45.58
-70.75
-91.42
-100.47
-91.88
-63.16
-16.49
41.66
102.42
156.95
198.64
224.07
233.1
228.04
212.5
190.45
165.34
139.77
115.41
93.31
74.14
58.43
46.54
38.56
34.34
33.42
35.11
38.43
42.07
44.56
44.55
41.26
34.65
25.37
14.38
2.7
-8.71
-18.82
-26.47
-30.51
-30.28
-26.14
-19.71
-13.51
-10.1
-11.05
-16.27
-23.97
-31.52
-36.41
-37.35
-34.58
-29.42
-23.57
-18.22
-13.7
-9.75
-6.11
-2.97
-1.1
-1.41
-4.49
-10.44
-18.91
-29.24
-40.53
-51.61
-60.94
-66.77
-67.64
-62.94
-53.27
-40.22
-25.67
-11.02
3.19
17.13
31.1
44.96
57.94
68.9
76.9
81.65
83.57
83.7
83.14
82.64
82.47
82.39
81.93
80.67
78.36
74.89
70.34
64.82
58.51
51.58
44.2
36.36
27.9
18.58
8.3
-2.64
-13.46
-22.94
-29.82
-33.13
-32.61
-28.94
-23.66
-18.91
-16.78
-18.74
-25.04
-34.6
-45.27
-54.47
-60.08
-61.06
-57.71
-51.33
-43.58
-35.81
-28.59
-21.72
-14.62
-6.76
1.74
10.08
16.98
21.23
22.25
20.34
16.52
12.06
7.89
4.27
0.95
-2.7
-7.32
-13.56
-22.1
-33.53
-47.99
-64.59
-81.14
-94.44
-101.19
-99.26
-88.52
-71.03
-50.34
-30.26
-13.62
-1.58
6.42
11.98
16.93
22.59
29.49
37.41
45.74
53.88
61.46
68.34
74.4
79.42
82.97
84.63
84.17
81.62
77.3
71.6
64.81
57.23
49.22
41.38
34.4
28.78
24.39
20.3
15.06
7.31
-3.48
-16.49
-29.83
-41.12
-48.54
-51.52
-50.94
-48.82
-47.55
-49.24
-55.12
-65.23
-78.34
-92.08
-103.44
-109.39
-107.82
-98.02
-80.98
-58.9
-34.5
-10.18
12.44
32.5
49.5
62.93
72.05
76.17
75.1
69.67
62.03
55.3
52.59
55.81
64.42
75.11
82.54
81.01
66.29
36.63
-6.94
-61.25
-121.54
-182.08
-236.52
-278.59
-302.92
-306.28
-288.21
-250.91
-198.48
-136.01
-69
-3.23
55.43
101.88
133.2
149.78
155.36
155.51
155.13
156.37
158.13
157.3
150.91
138.11
120.55
101.47
84
69.91
59.37
51.66
46.1
42.58
41.56
43.57
48.72
56.42
65.33
73.5
78.44
77.47
68.08
48.56
18.63
-20.06
-63.94
-108.03
-146.84
-175.65
-191.73
-195.12
-188.76
-177.73
-167.76
-163.41
-166.65
-176.3
-188.59
-198.42
-201.02
-193.46
-175.65
-150.35
-122.53
-98.02
-82
-77.56
-84.81
-100.93
-121.06
-139.8
-152.73
-157.63
-154.75
-146.37
-135.56
-124.79
-114.93
-105.05
-93.13
-77.29
-57.11
-34.07
-11.02
9.08
24.41
35.06
42.91
50.64
60.53
73.56
89.14
105.38
119.75
129.61
132.56
126.83
111.72
88.24
59.82
32.2
12.4
6.65
18.14
45.49
82.99
122.38
155.7
177.69
186.88
185.05
175.61
161.98
146.65
131.18
116.58
103.56
92.49
83.21
75
66.79
57.82
48.08
38.39
29.98
23.88
20.41
19.09
18.99
19.18
18.99
18.08
16.2
13.05
8.39
2.3
-4.52
-10.83
-15.25
-16.83
-15.48
-11.96
-7.36
-2.53
2.3
7.5
13.6
20.75
28.54
36.15
42.74
47.83
51.37
53.63
54.97
55.63
55.81
55.69
55.45
55.19
54.9
54.35
53.28
51.53
49
45.73
41.69
36.73
30.78
23.91
16.5
9.27
3.08
-1.14
-2.35
0.65
8.94
22.93
41.52
61.76
79.38
90.27
92.2
85.75
73.91
60.35
47.59
35.93
23.84
9.56
-7.44
-25.81
-43.05
-56.88
-66.41
-72.3
-76.38
-80.72
-86.94
-95.97
-107.82
-121.53
-135.23
-146.34
-152.19
-150.95
-142.38
-127.9
-110.38
-93.07
-78.58
-68.3
-62.19
-59.1
-57.41
-55.78
-53.64
-51.1
-48.49
-45.65
-41.62
-34.72
-23.26
-6.32
15.58
40.51
65.64
88.16
105.97
118.3
125.74
129.66
131.37
131.27
128.42
121
107.27
86.79
60.85
32.25
3.8
-22.67
-46.49
-67.22
-83.5
-92.57
-91.06
-77.04
-51.5
-18.74
14.81
42.63
59.98
64.88
58.03
42.31
22.05
2.38
-11.52
-15.62
-8.23
9.2
32.38
55.47
73.07
81.66
80.38
70.61
55.07
36.88
18.88
3.4
-7.88
-13.94
-14.59
-10.52
-3.25
5.24
13.11
19.22
23.31
25.85
27.55
28.74
29.11
27.88
24.14
17.46
8.16
-2.73
-13.88
-24.03
-32.4
-38.85
-43.85
-48.43
-53.93
-61.75
-72.81
-87.14
-103.65
-120.1
-133.68
-141.71
-142.55
-136.07
-123.64
-107.61
-90.52
-74.53
-61.15
-51.34
-45.66
-44.32
-46.97
-52.53
-59.22
-65.02
-68.28
-68.18
-64.78
-58.69
-50.45
-40.35
-28.51
-15.32
-1.69
11.02
21.52
29.09
33.8
36.3
37.36
37.64
37.49
37.27
37.48
38.71
41.43
45.77
51.51
58.03
64.44
69.57
72.09
70.71
64.73
54.44
41.42
28.26
17.58
11.1
8.83
9.25
10.14
9.68
7.31
3.64
-0.03
-2.73
-4.23
-5.01
-5.79
-6.86
-7.77
-7.49
-5.03
0.1
7.49
16.2
25.11
33.46
41.02
47.97
54.59
60.88
66.47
70.76
73.21
73.7
72.66
71
69.82
70.11
72.36
76.54
82.13
88.25
93.93
98.3
100.82
101.27
99.89
97.21
93.97
90.97
88.89
87.98
87.79
86.97
83.36
74.51
58.4
34.2
2.7
-33.96
-72.88
-111.32
-147.21
-179.17
-206.21
-227.4
-241.93
-249.53
-250.85
-247.64
-242.14
-236.37
-231.38
-226.97
-221.93
-214.5
-202.62
-184.34
-158.14
-123.71
-82.69
-39.01
1.71
33.81
53.56
60.48
57.39
49.12
40.55
35.11
34.11
37.2
43.25
51.27
60.71
71.52
83.73
97.18
111.33
125.35
138.29
149.19
156.88
159.79
155.89
143.39
122.25
95.67
70.17
53.75
52.39
66.76
91.2
115.8
130.8
130.87
117.01
95.28
73.16
56.19
46.15
41.7
40.37
40.47
41.68
44.75
50.42
58.79
69.02
79.43
87.91
92.33
91.14
83.76
70.79
53.67
33.78
11.65
-13.64
-44.27
-82.49
-129.47
-184.6
-245.79
-310.06
-374.02
-433.22
-481.14
-509.34
-509.68
-478.4
-419.53
-345.12
-270.98
-210.07
-166.78
-136.12
-107.89
-73.26
-30.05
16.82
59.2
90.96
111.26
124
134.47
145.98
158.85
171.59
183.27
195
209.26
228.18
251.53
276.07
296.14
305.82
300.88
280.29
246.64
205.41
163.49
127.32
101.34
87.11
83.63
87.66
94.96
101.55
104.41
101.78
92.92
77.73
56.79
32.05
6.11
-18.25
-38.51
-52.94
-60.79
-62.31
-58.35
-50.11
-37.71
-21.46
-2.13
18.81
39.75
59.44
77.39
93.99
109.93
126.77
144.63
161.79
175.08
181.14
177.73
164.41
142.83
107.32
57.68
-1.36
-60.84
-111.43
-147.41
-168.43
-177.95
-180.27
-178.66
-173.34
-163.8
-149.9
-132.98
-115.57
-100.13
-89.87
-87.2
-93.94
-109.83
-133.4
-161.37
-188.79
-208.33
-213.42
-202.24
-178.64
-150.93
-127.41
-113.24
-108.63
-109.74
-111.28
-109.82
-105.38
-99.43
-93.67
-88.4
-82.65
-74.83
-63.72
-49.05
-32.07
-15.25
-0.7
10.23
17.51
22.36
26.96
33.95
45.8
64.31
88.32
117.08
149.18
181.85
210.37
228.83
232.41
219.52
192.68
157.78
122.16
91.16
66.19
44.6
22.06
-4.5
-35.36
-68.53
-101.36
-131.55
-158.65
-181.79
-200.77
-218.06
-235.47
-251.59
-260.86
-256.83
-234.52
-193.45
-138.83
-80.56
-29.33
7.74
29.29
38.97
42.55
45.18
49.81
57.35
67.4
78.88
89.81
96.74
95.24
82.07
58.02
28.52
2.02
-13.97
-15.95
-5.29
13.58
36.11
59.61
82.96
104.5
120.33
124.42
111.35
79.66
33.58
-18.01
-64.86
-98.63
-115.25
-114.91
-100.74
-77.08
-48.17
-17.65
11.57
37.3
58.37
74.63
86.69
95.44
101.46
104.76
104.9
101.58
95.01
86.07
76.07
66.22
57.36
49.9
44.05
39.95
37.8
37.58
38.69
39.88
39.41
35.75
28.14
17.09
4.4
-7.38
-15.76
-19.1
-17.27
-11.79
-5.36
-0.95
-0.57
-4.43
-10.62
-15.81
-16.61
-10.94
0.88
15.83
28.96
34.62
27.85
5.64
-32.04
-81.7
-136.4
-186.84
-223.47
-239.09
-230.97
-201.77
-158.66
-110.98
-67.48
-33.85
-11.89
0.05
5.73
9.59
15.6
26.87
45.39
71.92
105.62
143.76
181.78
213.88
234.21
238.65
226.39
200.41
166.68
132.23
102.71
80.72
65.6
54.55
44.56
33.91
22.6
11.55
1.52
-7.64
-16.93
-27.38
-39.5
-52.76
-65.81
-76.86
-83.99
-85.43
-79.9
-66.93
-47.4
-23.56
1.56
25.13
45.5
62.53
77.14
90.4
102.8
113.97
123.03
129.2
131.91
130.6
124.33
111.93
92.74
67.59
38.89
10.13
-15.29
-35.2
-49.21
-58.45
-64.68
-69.3
-72.91
-75.72
-77.91
-79.72
-81.15
-81.76
-80.6
-76.6
-69.04
-58.14
-45.95
-36.37
-34.33
-44.21
-68.2
-105.32
-151.61
-201.12
-245.12
-275.03
-285.19
-275.04
-249
-213.54
-174.51
-136.42
-102.96
-77.25
-61.87
-55.29
-52.5
-45.93
-28.16
4.42
49.14
97.74
139.8
167.24
174.73
164.82
146
128.39
119.09
119.82
127.9
139.1
150.08
159.62
167.85
174.31
176.71
171.75
156.92
132.8
102.79
71.05
40.15
10.03
-21.44
-56.56
-95.25
-135.11
-169.68
-191.6
-197.4
-189.9
-176.67
-165.15
-159.49
-155.14
-144.04
-118.91
-77.68
-26.21
23.96
59.02
68.4
50.47
14.54
-23.33
-47.12
-48.16
-29.05
0.09
27.3
44.47
50.02
48.14
44.94
45.43
51.94
63.18
77.5
93.75
111.59
127.96
139.37
142.62
136.32
126.95
116.39
105.62
96.63
90.37
88.46
90.91
95
96.18
90.04
73.43
47.06
14.54
-19.82
-52.5
-81.61
-106.71
-128.02
-146.02
-162.08
-177.32
-192.77
-209.21
-226.1
-241.08
-250.11
-248.73
-233.84
-205.71
-167.46
-124.28
-81.73
-43.95
-12.76
12
31.46
46.54
57.24
63.27
64.69
62.39
58.14
54.04
51.79
52.08
54.49
57.65
60.09
60.84
59.76
57.56
55.31
54.02
54.19
55.72
58.1
60.74
63.27
65.5
67.3
68.41
68.44
67
63.91
59.31
53.56
47.07
40.13
32.89
25.39
17.74
10.23
3.29
-2.59
-7.11
-10.21
-12.22
-13.72
-15.34
-17.46
-20
-22.35
-23.6
-23.07
-20.67
-17.02
-13.16
-9.96
-7.69
-6.03
-4.55
-3.27
-2.76
-3.78
-6.76
-11.51
-17.44
-23.98
-30.8
-37.53
-43.18
-45.85
-43.25
-33.74
-17.59
2.73
23.22
40
50.73
55.36
55.67
54.17
52.83
52.41
52.27
50.86
46.43
37.91
25.58
11.16
-2.44
-12.04
-15.04
-10.32
1.42
18.04
36.71
54.62
69.43
79.41
83.47
81.19
73.1
60.83
47.23
35.81
29.23
28.09
30.11
31.07
26.82
15.31
-2.69
-24.41
-46.9
-68.97
-91.68
-117.63
-148.82
-184.38
-220.36
-250.88
-269.71
-272.11
-256.02
-222.26
-174.27
-116.65
-52.92
14.02
80.9
143.82
197.77
237.06
257.19
256.22
236.67
206.7
175.73
150.25
132.3
119.18
105.12
84.25
52.2
7.72
-45.32
-101.83
-158.14
-211.62
-260.76
-304.9
-337.73
-353.05
-358.43
-358.83
-351.49
-334.66
-306.7
-266.7
-214.94
-152.96
-84.22
-13.01
57.97
125.21
183.37
227.24
253.13
260.28
251.32
230.66
203.11
173.83
145.53
118.17
91.21
64.87
40.54
19.92
3.51
-9.68
-20.59
-30.26
-39.21
-46.25
-49.07
-45.21
-33.61
-15.8
4.42
22.67
35.08
40.24
40.5
41.17
47.94
63.49
85.71
108.8
126.64
135.72
137.21
136.28
138.98
148.86
164.7
181.37
192.6
193.93
183.13
160.24
126.57
83.86
34.5
-18.73
-72.21
-122.75
-164.43
-192.36
-205.34
-206.05
-200.02
-189.35
-172.84
-147.71
-111.65
-63.89
-7.99
49.74
102.9
147.29
181.8
206.82
222.38
227.09
218.66
195.04
156.77
107.86
54.78
4.37
-38.54
-71.64
-94.42
-107
-109.75
-103.08
-87.89
-66.43
-42.55
-21.46
-8.49
-7.38
-19.09
-41.7
-71.21
-103.21
-134.59
-164.47
-193.71
-223.05
-251.12
-273.84
-285.64
-282.04
-261.75
-227.37
-183.98
-136.83
-89.07
-41.16
8.13
59.63
111.88
160.57
199.61
223.14
227.68
213.24
183.17
142.83
97.78
52.09
8.08
-33.53
-73.02
-110.76
-146.58
-179.24
-206.21
-224.27
-230.56
-223.55
-203.83
-173.96
-137.61
-98.6
-60.31
-25.38
4.34
27.78
45.16
58.22
70.23
85.11
105.74
132.49
162.45
190.19
209.76
216.92
210.82
194.41
173.29
153.17
137.79
127.9
121.82
117.1
112.01
105.78
98.04
87.93
73.87
54.47
29.99
3.15
-21.32
-38.28
-44.38
-39.37
-26.15
-9.39
6.39
18.36
25.9
29.88
31.53
31.45
29.34
24.54
16.7
6.38
-5.05
-15.94
-25.09
-32.1
-37.23
-40.9
-43.12
-43.24
-40.21
-33.18
-22.13
-8.36
5.66
16.67
21.58
18.37
6.67
-12.13
-35.46
-60.33
-84.14
-104.89
-120.96
-130.71
-132.32
-124.28
-106.26
-79.89
-48.84
-17.97
8.17
26.71
37.17
41.06
40.78
38.66
36.15
33.9
32.06
30.68
29.96
30.06
30.99
32.43
33.79
34.51
34.25
33.16
31.94
31.53
32.8
36.12
41.33
48.02
55.88
64.89
75.15
86.53
98.18
108.47
115.25
116.49
111.03
98.99
81.86
62.07
42.53
25.9
14.24
8.64
9.22
15.22
25.2
37.16
48.85
57.86
61.92
59.29
49.07
31.51
7.97
-19.29
-47.55
-74.01
-96.33
-112.93
-123.14
-127.2
-126.04
-121
-113.49
-104.88
-96.31
-88.61
-82.24
-77.12
-72.69
-68.05
-62.26
-54.68
-45.17
-34.16
-22.54
-11.42
-1.83
5.52
10.39
13.05
14.09
14.35
14.55
15.15
16.24
17.66
19.02
19.98
20.35
20.07
19.23
18
16.5
14.75
12.69
10.2
7.18
3.63
-0.36
-4.63
-8.99
-13.19
-16.88
-19.69
-21.38
-21.93
-21.65
-21.08
-20.63
-20.38
-20.02
-19.03
-17.09
-14.4
-11.71
-10.08
-10.38
-12.8
-16.6
-20.32
-22.2
-20.85
-15.76
-7.44
2.83
13.37
22.73
29.91
34.51
36.55
36.24
33.89
29.88
24.74
19.16
13.88
9.5
6.3
4.17
2.64
1.16
-0.7
-3.04
-5.7
-8.3
-10.46
-12.01
-13.01
-13.74
-14.56
-15.74
-17.45
-19.63
-22.1
-24.55
-26.63
-27.99
-28.39
-27.77
-26.3
-24.41
-22.68
-21.69
-21.84
-23.16
-25.18
-27.12
-28.09
-27.53
-25.4
-22.26
-19.03
-16.45
-14.72
-13.28
-11.16
-7.49
-2.11
4.29
10.43
15.06
17.52
17.92
16.97
15.49
14.03
12.68
11.29
9.64
7.6
5.17
2.35
-0.76
-3.87
-6.34
-7.29
-5.86
-1.71
4.82
12.67
20.56
27.44
32.84
36.8
39.56
41.31
41.96
41.52
40.28
38.88
38.13
38.43
39.56
40.61
40.51
38.6
35.05
30.76
26.92
24.47
23.61
23.86
24.3
24.03
22.49
19.54
15.38
10.38
5
-0.34
-5.27
-9.55
-13.1
-16.05
-18.68
-21.36
-24.37
-27.78
-31.43
-34.93
-37.78
-39.59
-40.17
-39.54
-37.9
-35.52
-32.59
-29.25
-25.68
-22.15
-19.08
-16.85
-15.73
-15.91
-17.6
-21.15
-26.95
-35.1
-44.97
-55.06
-63.27
-67.62
-67.04
-61.79
-53.36
-43.75
-34.68
-27.02
-20.72
-15.16
-9.61
-3.58
2.97
9.83
16.62
23.03
28.94
34.38
39.64
45.07
51.04
57.73
64.95
72.09
78.16
82.17
83.53
82.41
79.72
76.8
74.85
74.38
75.08
75.96
75.88
73.96
69.84
63.66
55.87
47.06
37.89
29.13
21.65
16.2
13.15
12.33
12.91
13.68
13.4
11.15
6.53
-0.28
-8.68
-17.86
-27.03
-35.6
-43.23
-49.81
-55.46
-60.35
-64.57
-68.14
-70.96
-72.94
-74.08
-74.47
-74.17
-73.13
-71.12
-67.79
-62.83
-56.16
-48.03
-38.98
-29.62
-20.45
-11.75
-3.62
3.76
10
14.52
16.76
16.48
13.9
9.65
4.54
-0.75
-5.7
-10.08
-13.78
-16.77
-19.06
-20.73
-21.93
-22.84
-23.63
-24.46
-25.49
-26.89
-28.78
-31.09
-33.52
-35.52
-36.48
-36
-34.05
-30.91
-27.06
-22.91
-18.63
-14.19
-9.49
-4.56
0.33
4.69
7.98
9.79
10.1
9.32
8.23
7.62
8.08
9.66
11.92
14.11
15.52
15.75
14.97
13.77
12.96
13.41
15.67
19.78
25.13
30.35
33.7
33.61
29.37
21.71
12.77
5.48
2.61
5.78
14.88
28.35
43.78
58.88
71.94
82.09
88.93
92.3
92.03
88.1
80.86
71.19
60.38
49.82
40.43
32.47
25.48
18.75
11.75
4.54
-2.18
-7.56
-11.01
-12.69
-13.49
-14.74
-17.59
-22.59
-29.47
-37.28
-44.83
-51.01
-55.11
-56.9
-56.54
-54.64
-52.18
-50.55
-51.33
-55.82
-64.42
-76.19
-88.88
-99.63
-105.85
-106.11
-100.41
-89.85
-75.99
-60.37
-44.5
-30.04
-19.02
-13.73
-16.17
-27.29
-46.36
-71.14
-98.46
-125.27
-149.26
-169.03
-183.75
-192.72
-195.26
-190.94
-179.94
-163.11
-141.77
-117.27
-90.59
-62.13
-31.82
0.7
35.81
73.52
113.21
153.22
190.76
222.09
243.48
252.47
248.69
234.13
212.44
187.58
162.61
139.08
117.06
95.81
74.6
53.29
32.74
14.54
0.54
-7.83
-9.97
-6.24
2.26
14.09
27.72
41.73
54.63
65.05
71.75
73.98
71.77
65.92
57.83
48.98
40.52
32.98
26.32
20.29
14.72
9.78
5.89
3.55
3.05
4.29
6.79
9.8
12.52
14.31
14.8
13.8
11.34
7.57
2.79
-2.52
-7.76
-12.34
-15.84
-18.06
-19.1
-19.28
-18.98
-18.61
-18.46
-18.79
-19.8
-21.61
-24.21
-27.5
-31.22
-34.97
-38.33
-40.85
-42.16
-41.98
-40.28
-37.22
-33.2
-28.67
-24.05
-19.61
-15.42
-11.46
-7.69
-4.16
-1.02
1.51
3.3
4.33
4.66
4.45
3.83
2.92
1.82
0.61
-0.65
-1.89
-3.12
-4.38
-5.72
-7.21
-8.9
-10.77
-12.8
-14.91
-17.06
-19.2
-21.35
-23.46
-25.45
-27.09
-28
-27.74
-25.88
-22.15
-16.43
-8.96
-0.23
9.05
18.02
25.93
32.18
36.48
38.86
39.66
39.33
38.31
36.93
35.34
33.54
31.46
29.01
26.09
22.66
18.7
14.31
9.72
5.2
1.07
-2.52
-5.6
-8.44
-11.41
-14.8
-18.66
-22.73
-26.53
-29.53
-31.35
-31.85
-31.15
-29.48
-27.11
-24.25
-21.01
-17.48
-13.71
-9.72
-5.51
-0.96
4.02
9.52
15.4
21.28
26.58
30.67
33.07
33.61
32.43
29.93
26.58
22.84
19.04
15.41
12.12
9.23
6.69
4.29
1.74
-1.19
-4.51
-7.99
-11.16
-13.5
-14.62
-14.38
-12.94
-10.72
-8.2
-5.8
-3.82
-2.41
-1.57
-1.27
-1.43
-1.96
-2.82
-3.91
-5.16
-6.45
-7.63
-8.6
-9.23
-9.5
-9.41
-9.11
-8.78
-8.64
-8.79
-9.22
-9.85
-10.62
-11.46
-12.39
-13.43
-14.41
-15.05
-14.94
-13.71
-11.3
-7.97
-4.21
-0.59
2.51
5
7.01
8.71
10.14
11.16
11.57
11.3
10.49
9.55
8.9
8.81
9.25
9.93
10.45
10.56
10.26
9.74
9.2
8.74
8.21
7.35
5.89
3.69
0.88
-2.22
-5.16
-7.49
-8.85
-9.05
-8.07
-6.08
-3.41
-0.39
2.59
5.27
7.5
9.2
10.34
10.89
10.78
9.97
8.53
6.65
4.7
3.06
2.07
1.84
2.26
3.01
3.72
4.12
4.04
3.47
2.39
0.77
-1.38
-3.93
-6.57
-8.84
-10.23
-10.38
-9.29
-7.22
-4.67
-2.08
0.22
2.14
3.66
4.78
5.46
5.58
5.12
4.14
2.82
1.38
-0
-1.27
-2.49
-3.7
-4.95
-6.11
-7.07
-7.72
-8.09
-8.35
-8.78
-9.66
-11.09
-12.91
-14.64
-15.7
-15.55
-13.9
-10.87
-6.91
-2.67
1.21
4.3
6.45
7.73
8.29
8.2
7.45
5.94
3.58
0.34
-3.65
-8.21
-13.07
-17.92
-22.45
-26.47
-30.07
-33.72
-38.25
-44.61
-53.43
-64.72
-77.71
-91.01
-102.92
-111.71
-115.93
-114.64
-107.69
-95.94
-81.2
-65.9
-52.39
-42.16
-35.42
-31.2
-27.97
-24.35
-19.63
-13.79
-7.19
-0.18
7.01
14.25
21.27
27.67
33.02
37.2
40.5
43.62
47.26
51.7
56.53
60.68
62.83
62.02
58.01
51.41
43.39
35.32
28.29
22.97
19.61
18.18
18.49
20.21
22.84
25.68
27.97
29.01
28.5
26.68
24.27
22.31
21.74
23.09
26.33
30.97
36.26
41.31
45.29
47.33
46.76
43.36
37.57
30.59
24.04
19.35
17.15
17.09
18.04
18.78
18.48
17.02
14.8
12.28
9.68
6.93
3.91
0.6
-2.77
-5.9
-8.58
-10.76
-12.55
-13.93
-14.77
-14.68
-13.28
-10.38
-6.11
-0.97
4.46
9.62
14.19
18.07
21.39
24.3
26.98
29.56
32.07
34.53
36.89
39.04
40.76
41.89
42.29
42.01
41.2
40.08
38.79
37.34
35.59
33.34
30.42
26.76
22.49
17.91
13.46
9.61
6.73
5.02
4.55
5.21
6.74
8.87
11.21
13.44
15.32
16.74
17.76
18.47
18.91
19.02
18.68
17.81
16.47
14.77
12.81
10.6
8.11
5.33
2.39
-0.45
-2.99
-5.23
-7.52
-10.36
-14.19
-19.12
-24.83
-30.71
-36.1
-40.54
-43.88
-46.24
-47.93
-49.28
-50.57
-51.96
-53.47
-54.94
-56.02
-56.26
-55.23
-52.71
-48.77
-43.84
-38.55
-33.51
-29.14
-25.6
-22.75
-20.34
-18.02
-15.49
-12.49
-8.76
-4.15
1.4
7.78
14.69
21.69
28.28
33.95
38.36
41.32
42.81
43
42.05
40.16
37.44
33.95
29.74
24.92
19.7
14.29
8.9
3.61
-1.61
-6.76
-11.69
-15.96
-19.02
-20.27
-19.44
-16.59
-12.21
-6.97
-1.49
3.84
8.86
13.61
18.15
22.4
26.2
29.29
31.46
32.64
32.92
32.52
31.77
30.95
30.26
29.75
29.33
28.81
28
26.69
24.76
22.18
18.96
15.2
11.09
6.92
2.96
-0.53
-3.48
-5.96
-8.25
-10.62
-13.23
-16.01
-18.65
-20.73
-21.88
-21.99
-21.14
-19.68
-18.01
-16.47
-15.23
-14.26
-13.45
-12.66
-11.88
-11.23
-10.89
-11.07
-11.85
-13.17
-14.86
-16.7
-18.51
-20.18
-21.65
-22.89
-23.87
-24.53
-24.92
-25.17
-25.51
-26.13
-27.16
-28.54
-30.1
-31.62
-32.91
-33.94
-34.82
-35.71
-36.71
-37.74
-38.58
-38.86
-38.22
-36.41
-33.38
-29.29
-24.44
-19.18
-13.86
-8.81
-4.29
-0.57
2.17
3.83
4.41
4.08
3
1.32
-0.98
-4
-7.78
-12.09
-16.33
-19.66
-21.41
-21.39
-20.08
-18.41
-17.39
-17.69
-19.4
-22.21
-25.61
-29.24
-32.87
-36.26
-38.87
-39.94
-38.65
-34.47
-27.42
-17.94
-6.73
5.66
18.92
32.9
47.24
61.23
73.8
83.82
90.58
93.97
94.5
93
90.17
86.37
81.52
75.38
67.78
59.01
49.81
41.29
34.51
29.94
27.16
24.79
20.95
13.93
2.87
-11.87
-29.02
-46.88
-64
-79.44
-92.7
-103.49
-111.44
-116.12
-117.09
-114.13
-107.23
-96.47
-81.95
-63.77
-42.31
-18.48
6.14
29.62
50.16
66.77
79.47
89.21
97.22
104.31
110.43
114.75
116.16
113.91
108
99.23
88.82
78
67.7
58.49
50.74
44.65
40.44
38.17
37.62
38.24
39.13
39.27
37.72
33.9
27.76
19.78
10.81
1.79
-6.53
-13.68
-19.52
-24.17
-27.88
-31.03
-34.02
-37.17
-40.67
-44.53
-48.59
-52.59
-56.38
-59.96
-63.53
-67.34
-71.54
-76.05
-80.48
-84.23
-86.57
-86.89
-84.82
-80.47
-74.38
-67.46
-60.72
-54.98
-50.7
-47.92
-46.22
-44.93
-43.28
-40.55
-36.25
-30.35
-23.32
-16.14
-9.9
-5.41
-2.86
-1.71
-0.95
0.44
3.08
7.04
11.89
17.02
21.82
25.83
28.83
30.94
32.68
34.97
39.02
45.83
55.77
68.22
81.49
93.29
101.26
103.73
100.12
91.01
77.82
62.33
46.18
30.63
16.4
3.82
-7.1
-16.55
-24.94
-32.87
-40.93
-49.45
-58.33
-66.92
-74.17
-79.02
-80.67
-78.84
-73.84
-66.37
-57.32
-47.49
-37.44
-27.43
-17.55
-7.89
1.32
9.67
16.72
22.18
26.08
28.72
30.5
31.69
32.31
32.26
31.46
30.02
28.24
26.37
24.42
21.98
18.42
13.19
6.14
-2.3
-11.2
-19.46
-26.16
-30.78
-33.32
-34.08
-33.43
-31.63
-28.81
-25.05
-20.53
-15.53
-10.33
-5.12
0.06
5.26
10.42
15.25
19.28
22.02
23.22
23.07
22.08
20.94
20.22
20.14
20.61
21.26
21.68
21.54
20.71
19.33
17.86
17.01
17.5
19.76
23.63
28.26
32.37
34.69
34.58
32.28
28.75
25.22
22.55
20.88
19.77
18.57
16.94
15.13
13.79
13.57
14.7
16.73
18.75
19.8
19.33
17.38
14.56
11.5
8.55
5.48
1.7
-3.5
-10.62
-19.85
-31.14
-44.19
-58.44
-72.9
-86.1
-96.41
-102.47
-103.74
-100.73
-94.67
-86.91
-78.35
-69.14
-58.86
-47.13
-34.05
-20.38
-7.41
3.59
11.86
17.36
20.79
23.27
25.94
29.57
34.45
40.34
46.68
52.8
58.12
62.19
64.74
65.63
64.84
62.43
58.52
53.3
47
39.96
32.52
25.12
18.15
11.98
6.89
3
0.39
-1.02
-1.39
-0.97
-0.05
1.05
2.12
3.05
3.85
4.57
5.18
5.48
5.07
3.42
0.04
-5.33
-12.63
-21.39
-30.96
-40.72
-50.19
-59.12
-67.39
-74.86
-81.29
-86.31
-89.65
-91.12
-90.81
-88.88
-85.56
-80.94
-74.95
-67.39
-58
-46.66
-33.47
-18.79
-3.2
12.64
28.07
42.55
55.56
66.61
75.27
81.27
84.58
85.47
84.46
82.14
78.97
75.16
70.77
65.8
60.35
54.66
48.98
43.53
38.31
33.24
28.11
22.83
17.38
11.87
6.49
1.42
-3.16
-7.02
-9.9
-11.57
-11.85
-10.76
-8.56
-5.72
-2.8
-0.29
1.47
2.39
2.52
2
0.99
-0.4
-2.06
-3.88
-5.75
-7.55
-9.24
-10.85
-12.42
-13.98
-15.46
-16.69
-17.52
-17.9
-18.03
-18.35
-19.36
-21.46
-24.7
-28.75
-32.87
-36.15
-37.68
-36.84
-33.43
-27.78
-20.64
-13.01
-5.84
0.26
5.06
8.65
11.34
13.41
15.05
16.43
17.73
19.14
20.9
23.12
25.77
28.58
31.17
33.09
33.94
33.58
32.11
29.97
27.75
25.98
24.99
24.67
24.61
24.24
22.98
20.49
16.7
11.83
6.39
1.1
-3.26
-6.05
-6.94
-5.98
-3.6
-0.31
3.39
7.23
11.16
15.24
19.51
23.92
28.29
32.43
36.2
39.59
42.74
45.88
49.15
52.5
55.55
57.73
58.4
57.1
53.76
48.7
42.54
35.99
29.59
23.59
17.93
12.32
6.39
-0.13
-7.28
-14.81
-22.3
-29.3
-35.51
-40.87
-45.44
-49.29
-52.34
-54.32
-54.88
-53.73
-50.85
-46.63
-41.83
-37.49
-34.67
-34.32
-37.05
-42.96
-51.41
-60.88
-69.07
-73.42
-71.81
-63.42
-49.1
-31.14
-12.43
4.56
18.49
29.34
37.75
44.35
49.2
51.79
51.54
48.29
42.56
35.37
27.73
20.2
12.74
4.9
-3.67
-12.84
-21.81
-29.35
-34.27
-35.85
-34.19
-30.19
-25.1
-20.19
-16.18
-13.11
-10.47
-7.59
-4.12
-0.31
3.1
5.22
5.44
3.8
0.95
-2.11
-4.41
-5.33
-4.6
-2.25
1.52
6.26
11.27
15.59
18.21
18.56
16.82
14.09
11.91
11.66
13.78
17.58
21.43
23.57
22.89
19.41
14.2
8.78
4.37
1.25
-1.27
-4.47
-9.57
-16.96
-25.98
-35.18
-42.86
-47.75
-49.37
-48.12
-44.95
-40.98
-37.13
-34.02
-31.95
-30.91
-30.63
-30.6
-30.08
-28.21
-24.11
-17.22
-7.47
4.47
17.32
29.32
38.78
44.53
46.28
44.6
40.65
35.63
30.38
25.22
20.09
14.91
9.8
5.16
1.52
-0.81
-1.89
-2.22
-2.46
-3.16
-4.44
-5.99
-7.32
-8.03
-7.97
-7.34
-6.47
-5.67
-5.14
-4.91
-4.9
-4.97
-4.89
-4.47
-3.55
-2.18
-0.55
1
2.13
2.62
2.47
1.83
0.87
-0.28
-1.6
-3.15
-5.08
-7.57
-10.78
-14.89
-19.89
-25.53
-31.27
-36.31
-39.85
-41.32
-40.55
-37.8
-33.58
-28.4
-22.58
-16.15
-8.98
-1
7.67
16.67
25.42
33.28
39.7
44.34
47.08
47.96
47.17
44.88
41.3
36.69
31.32
25.65
20.09
14.97
10.33
5.87
1.11
-4.41
-10.87
-18.08
-25.53
-32.62
-38.86
-43.96
-47.85
-50.69
-52.82
-54.74
-57.08
-60.22
-64.12
-67.9
-70.01
-68.67
-62.67
-52
-37.93
-22.61
-8.13
4.16
14.03
22.02
28.83
34.8
39.68
42.96
44.29
43.82
42.17
40.17
38.5
37.44
36.91
36.55
35.96
34.79
32.89
30.29
27.16
23.73
20.15
16.47
12.66
8.69
4.65
0.77
-2.66
-5.45
-7.62
-9.32
-10.76
-12.07
-13.23
-14.04
-14.31
-13.82
-12.51
-10.37
-7.48
-3.93
0.11
4.53
9.21
14.05
18.88
23.44
27.39
30.34
32.06
32.46
31.74
30.15
27.95
25.33
22.45
19.48
16.7
14.38
12.7
11.48
10.31
8.5
5.51
1.13
-4.4
-10.48
-16.33
-21.36
-25.32
-28.32
-30.72
-32.83
-34.76
-36.38
-37.4
-37.51
-36.58
-34.65
-31.84
-28.2
-23.64
-17.94
-11.07
-3.3
4.54
11.24
15.62
16.93
15.25
11.47
7.03
3.4
1.63
1.95
3.93
6.71
9.44
11.65
13.37
14.99
16.92
19.31
21.8
23.71
24.34
23.37
21.07
18.33
16.19
15.41
16.21
18.11
20.29
21.89
22.13
20.27
15.45
6.84
-6.01
-22.47
-40.72
-58.24
-73.01
-84.69
-94.82
-105.84
-119.33
-134.55
-148.43
-156.99
-157.28
-148.94
-134.33
-117.33
-101.69
-89.69
-81.7
-76.5
-71.99
-65.79
-55.77
-40.38
-18.86
8.38
39.77
72.71
104.05
130.7
150.41
162.39
167.41
167.55
165.23
162.38
159.84
157.4
154.34
149.92
143.74
135.75
126.07
114.98
102.95
90.84
79.62
70.17
62.88
57.49
53.28
49.46
45.49
41.17
36.61
32.06
27.75
23.77
20
16.03
11.24
5.01
-2.89
-12.03
-21.23
-28.93
-33.69
-34.66
-31.77
-25.61
-17.29
-8.26
-0.11
5.81
8.83
9.5
9.78
12.45
19.97
33.22
50.51
67.73
79.46
80.56
67.74
40.43
0.82
-46.82
-97.2
-145.29
-187.34
-221.59
-248.6
-271.02
-292.84
-318.07
-348.67
-382.73
-413.78
-431.98
-426.94
-391.77
-326.64
-240.17
-147.49
-65.49
-6.71
24.93
34.75
34.12
35.16
46.25
70.25
105.15
145.91
185.91
217.66
233.76
228.77
201.76
158.43
110.46
71.91
54.15
61.78
91.79
135.93
184.19
227.58
259.19
274.1
269.4
244.91
203.9
152.63
98.69
48.82
7
-25.93
-51.35
-71.72
-89.32
-105.58
-121.07
-135.44
-147.48
-155.37
-157.09
-151.17
-137.31
-116.7
-91.88
-66.06
-42.23
-22.5
-7.79
2.08
7.91
10.73
11.55
11.44
11.69
13.66
18.31
25.61
34.35
42.48
48.01
49.91
48.47
44.86
40.39
35.67
30.51
24.32
16.98
9.22
2.67
-0.84
-0.1
4.84
12.61
20.99
27.78
31.67
32.73
32.17
31.8
33.06
36.48
41.48
46.8
51.09
53.49
53.71
51.88
48.24
43.08
36.84
30.45
25.4
23.27
24.91
29.63
35.04
37.73
34.74
25.06
10.39
-5.39
-17.75
-23.29
-20.94
-11.94
1.14
15.66
29.76
42.33
52.42
58.73
59.68
54.29
43.03
28.22
13.3
1.31
-6.55
-11.41
-15.97
-22.9
-33.35
-46.35
-59.32
-69.38
-74.59
-74.47
-69.72
-61.6
-51.14
-38.95
-25.27
-10.24
5.8
22.18
37.92
51.98
63.55
72.42
79.03
84.26
89.05
93.88
98.43
101.58
101.76
97.6
88.67
75.94
61.64
48.44
38.04
30.15
22.09
9.56
-11.51
-43.12
-84.4
-132.05
-181.53
-228.21
-267.95
-297.22
-313.5
-316.05
-306.43
-288.5
-267.02
-245.45
-224.23
-200.86
-171.91
-135.86
-95.07
-55.5
-24.2
-6.26
-2.6
-9.52
-20.44
-28.54
-29.31
-22.05
-9.86
1.67
6.95
2.87
-9.56
-25.25
-36.57
-36.03
-19.15
13.56
56.41
100.49
136.7
158.81
165.38
160.04
149.85
142.88
145.58
160.91
187.63
220.77
252.82
275.39
281.52
267.33
233.18
183.69
126.49
70.2
22.13
-13.35
-35.2
-45.3
-47.32
-45.49
-43.3
-42.73
-44.01
-45.83
-46.11
-42.91
-35.34
-24.09
-11.26
0.27
7.67
9
3.6
-7.8
-23.26
-40.05
-55.13
-65.8
-70.41
-68.78
-62.08
-52.11
-40.46
-27.97
-14.98
-1.97
9.9
18.99
23.99
24.92
23.23
21.18
20.56
21.84
24.14
26.08
26.8
26.4
25.6
24.93
24.3
23.1
20.79
17.51
14.18
12.09
12.2
14.62
18.62
23
26.67
29.01
30.01
30.04
29.61
29.01
28.14
26.69
24.4
21.21
17.38
13.28
9.15
4.94
0.34
-5.01
-11.19
-17.92
-24.7
-31.03
-36.72
-41.99
-47.27
-52.92
-58.99
-65.05
-70.26
-73.63
-74.23
-71.47
-65.17
-55.76
-44.23
-32.11
-21.16
-13.05
-8.82
-8.5
-11.09
-14.82
-17.77
-18.6
-16.87
-13.04
-7.93
-2.26
3.63
9.59
15.35
20.24
23.33
23.85
21.66
17.39
12.25
7.57
4.39
3.32
4.56
7.95
13.1
19.28
25.5
30.7
34.02
35.14
34.34
32.32
29.78
27.08
23.99
19.92
14.43
7.75
0.98
-4.36
-6.98
-6.66
-4.37
-1.83
-0.58
-1.1
-2.69
-3.99
-3.92
-2.37
-0.27
1.05
0.72
-1.12
-3.35
-4.47
-3.29
0.46
6.05
12.12
17.08
19.47
18.17
12.61
2.91
-9.78
-23.21
-34.4
-40.69
-41.06
-37.05
-32.5
-32.1
-39.12
-53.61
-71.97
-88.34
-96.91
-94.38
-81.2
-61.33
-40.58
-24.67
-17.1
-18.23
-25.33
-33.61
-37.96
-34.71
-23.01
-5.38
13.08
26.35
29.55
20.67
1.49
-22.94
-45.8
-60.63
-63.26
-52.81
-31.69
-4.53
23.36
47.4
64.55
73.6
74.99
70.39
62.31
53.53
46.58
43
43.12
45.81
48.97
50.32
48.27
42.53
34.2
25.34
18.02
13.53
11.78
11.53
10.99
8.82
4.81
0.1
-3.35
-3.76
-0.44
5.84
13.14
19.18
22.32
22.09
19.2
14.96
10.56
6.58
2.96
-0.78
-4.99
-9.69
-14.45
-18.65
-21.76
-23.53
-23.98
-23.28
-21.59
-19
-15.61
-11.63
-7.54
-3.97
-1.53
-0.47
-0.57
-1.19
-1.45
-0.67
1.5
4.93
9.15
13.51
17.42
20.37
22
22.01
20.14
16.3
10.62
3.62
-3.89
-11.06
-17.29
-22.42
-26.62
-30.13
-32.82
-34.04
-32.9
-28.71
-21.54
-12.27
-2.37
6.73
14.07
19.22
22.08
22.57
20.62
16.31
10.17
3.25
-3.19
-8.37
-12.28
-15.74
-19.83
-25.13
-31.26
-37.01
-40.91
-41.92
-39.72
-34.69
-27.51
-19.03
-10.14
-1.97
4.31
7.91
8.96
8.74
9.39
12.92
20.12
29.92
39.6
45.81
46.01
39.7
28.84
17.21
8.8
6.21
9.62
16.92
24.92
30.93
33.93
34.53
34.15
33.87
33.86
33.81
33.85
35.15
39.64
48.75
61.93
76.17
86.8
89.43
81.99
65.56
43.8
21.23
1.23
-15
-28.14
-39.6
-50.19
-59.58
-66.76
-70.83
-71.73
-70.3
-67.67
-64.51
-60.68
-55.56
-48.63
-40.14
-31.18
-23.22
-17.48
-14.34
-13.15
-12.49
-10.74
-6.67
0.05
8.75
17.95
25.9
31.18
33.2
32.24
29.17
24.94
20.24
15.42
10.77
6.66
3.68
2.26
2.44
3.65
5.04
5.87
5.75
4.73
2.94
0.24
-3.71
-9.19
-15.94
-22.9
-28.4
-30.82
-29.14
-23.43
-14.73
-4.57
5.52
14.41
21.38
25.97
27.81
26.72
22.9
17.01
10.33
4.32
0.25
-1.28
-0.45
1.85
4.47
6.41
7.04
6.27
4.25
1.24
-2.52
-6.81
-11.26
-15.32
-18.23
-19.36
-18.33
-15.35
-11.19
-6.97
-3.93
-2.96
-4.25
-7.26
-10.84
-13.74
-15.15
-15.06
-14.05
-13.02
-12.64
-13.18
-14.61
-16.93
-20.24
-24.59
-29.54
-33.99
-36.41
-35.48
-30.9
-23.65
-15.72
-9.24
-5.61
-5.05
-6.76
-9.68
-13.16
-17.38
-23.09
-30.78
-39.82
-48.11
-52.58
-50.34
-40.21
-23.39
-3.3
15.7
29.96
37.66
39.09
35.93
30.26
23.65
17
10.68
4.93
0.17
-3.12
-4.61
-4.35
-2.85
-0.94
0.51
0.96
0.37
-0.85
-2.04
-2.63
-2.35
-1.29
0.24
1.87
3.33
4.39
4.92
4.81
4.21
3.58
3.77
5.65
9.77
16.03
23.69
31.87
39.99
48.09
56.65
66.19
76.78
87.85
98.36
106.9
112.08
112.76
108.37
99.46
87.76
76.03
67.13
62.91
63.26
66.08
68.07
66.01
57.99
44.06
26.18
7.43
-9.08
-21.59
-30.49
-38.16
-47.92
-62.27
-81.83
-105.17
-129.94
-154.43
-178.28
-202.24
-226.92
-251.64
-274.27
-292.06
-302.83
-305.59
-300.23
-286.78
-264.91
-234.27
-195.25
-149.58
-100.11
-49.9
-1.25
44.71
87.42
126.16
159.35
184.8
200.64
206.33
203.19
194.02
182.06
169.83
158.59
148.38
138.65
128.96
119.2
109.59
100.36
91.55
82.96
74.31
65.38
56.11
46.55
36.54
25.62
12.99
-2.07
-19.59
-38.3
-55.64
-68.35
-73.56
-70.07
-58.83
-42.59
-24.82
-8.44
4.94
14.98
22.03
26.5
28.46
27.83
24.72
19.72
13.77
7.91
2.86
-1.17
-4.36
-7.01
-9.24
-10.9
-11.66
-11.21
-9.4
-6.35
-2.49
1.53
4.99
7.35
8.43
8.55
8.48
9.13
11.2
14.88
19.81
25.2
30.15
33.98
36.26
36.82
35.66
32.81
28.42
22.76
16.24
9.32
2.43
-4.11
-10.13
-15.51
-20.03
-23.33
-24.87
-24.01
-20.36
-13.97
-5.45
4.11
13.55
21.89
28.63
33.72
37.4
40.01
41.76
42.75
43.01
42.44
40.75
37.51
32.24
24.74
15.43
5.32
-4.23
-12.2
-18.3
-23.22
-28.13
-34.08
-41.32
-49
-55.49
-58.95
-58.27
-53.61
-46.58
-39.74
-35.7
-36.14
-41.18
-49.53
-59.05
-67.71
-74.3
-78.68
-81.59
-84.1
-86.93
-90.1
-92.73
-93.27
-89.84
-80.8
-65.28
-43.64
-17.58
10.24
36.81
59.59
76.98
88.45
94.33
95.54
93.12
88.11
81.36
73.48
64.88
55.75
46.15
35.98
25.28
14.36
4.03
-4.58
-10.34
-12.45
-10.84
-6.25
-0.09
5.93
10.29
12.19
11.89
10.53
9.76
10.94
14.61
20.13
26
30.42
31.96
30.04
24.9
17.43
8.78
0.14
-7.37
-12.78
-15.39
-15.03
-12.13
-7.7
-2.85
1.59
5.47
9.34
14
20.01
27.15
34.4
40.25
43.32
42.88
38.94
32.17
23.54
14.01
4.52
-4.07
-10.93
-15.43
-17.31
-16.78
-14.41
-10.88
-6.76
-2.53
1.2
3.4
2.76
-1.75
-10.19
-20.99
-31.29
-37.8
-38.31
-32.63
-22.8
-12.17
-3.84
0.52
1.22
-0.07
-1.37
-1.38
0.07
2.27
4.24
5.24
5
3.51
0.86
-2.91
-7.7
-13.16
-18.63
-23.18
-25.88
-26.19
-24.08
-20.07
-15.02
-9.82
-5.2
-1.63
0.78
2.08
2.36
1.74
0.27
-2.03
-5.03
-8.45
-11.68
-13.85
-14.07
-11.84
-7.35
-1.58
4.04
8.18
10.2
10.33
9.6
9.26
10.23
12.79
16.41
19.87
21.58
20.06
14.52
5.4
-5.46
-15.19
-20.95
-21.14
-16.2
-8.42
-0.89
3.93
5.35
4.44
3.24
3.43
5.33
7.81
9.04
7.62
3.43
-2.19
-7.3
-10.34
-10.81
-9.36
-7.33
-6.3
-7.85
-13.49
-24.27
-40.1
-58.88
-76.32
-86.87
-85.7
-70.85
-44.24
-11.01
22.57
51.54
73.5
88.47
97.54
101.6
100.83
95.27
85.54
73.23
60.69
50.14
42.87
38.74
36.56
34.77
32.19
28.39
23.58
18.14
12.16
5.37
-2.55
-11.47
-20.49
-28.12
-32.92
-34.27
-32.83
-30.67
-30.32
-33.92
-42.32
-54.6
-68.45
-80.72
-88.3
-88.86
-81.24
-65.88
-45.01
-22.32
-2.15
11.86
18.03
17.21
12.14
6.18
1.84
-0.04
-0.05
0.75
1.74
3.29
6.45
12.19
20.84
31.68
43.1
53.05
59.62
61.32
57.68
49.32
37.66
24.38
10.78
-2.51
-15.32
-27.56
-38.8
-48.16
-54.76
-58.15
-58.47
-56.35
-52.36
-46.49
-38.13
-26.46
-11.18
6.84
25.55
42.31
54.83
62.07
64.6
64.29
63.46
63.95
66.5
70.71
75.32
78.83
80.06
78.43
73.99
67.38
59.55
51.45
43.63
35.83
26.72
14.14
-4.07
-29.11
-60.37
-95.35
-130.16
-160.41
-181.97
-191.53
-187.03
-168.32
-137.99
-101.62
-66.76
-40.51
-27
-25.66
-31.93
-39.8
-44.97
-46.62
-47.17
-50.38
-59.1
-74.24
-95.1
-120.2
-147.83
-175.82
-201
-219
-225.16
-216.02
-190.83
-152.06
-104.75
-55.29
-9.83
26.8
51.92
65.1
68.26
65.32
61.44
61.87
70.39
88.08
112.86
140.25
165.04
183.3
193.64
197.37
197.4
196.74
197.14
198.71
200.2
199.83
196.1
188.19
176.07
160.34
142
122.34
102.78
84.84
70.07
59.94
55.46
56.83
63.15
72.39
81.82
88.74
91.28
88.94
82.5
73.5
63.5
53.52
43.88
34.54
25.43
16.62
8.03
-0.9
-11.22
-23.92
-39.04
-55.2
-69.83
-80.2
-84.75
-83.69
-78.76
-72.18
-65.49
-59.01
-52.17
-44.27
-35.06
-24.98
-14.85
-5.47
2.37
7.64
8.85
4.24
-7.71
-27.42
-53.64
-83.42
-112.77
-137.51
-154.35
-161.36
-158.22
-146.1
-127.46
-105.64
-84.29
-66.57
-54.35
-47.8
-45.58
-45.66
-46.18
-46.16
-45.37
-43.72
-40.66
-35.08
-25.92
-13.05
2.12
17.2
30.08
40.04
48.05
55.59
62.88
67.75
66.14
54.32
31.19
-0.59
-35.61
-68.31
-95.57
-117.75
-137.65
-158.21
-180.78
-204.67
-227.75
-247.29
-260.14
-262.7
-251.2
-222.9
-177.53
-118.53
-52.55
12.55
70.06
116.32
151.16
176.95
197.08
214.49
230.54
244.7
254.9
258.4
252.93
237.86
214.55
185.73
154.61
124.09
96.47
73.57
56.54
45.41
38.57
32.83
24.35
10.32
-9.61
-32.97
-55.57
-73.34
-83.94
-87.27
-84.84
-78.52
-69.64
-58.79
-46.14
-32.11
-17.75
-4.5
6.33
14.01
18.69
21.2
22.52
23.21
23.16
21.79
18.47
12.99
5.96
-1.29
-7.02
-9.69
-8.43
-3.41
4.21
12.75
20.56
26.59
30.52
32.6
33.36
33.27
32.73
32.12
31.91
32.69
34.84
38.42
42.98
47.7
51.68
54.13
54.51
52.59
48.38
42.08
34.15
25.28
16.27
7.83
0.4
-5.99
-11.66
-17
-22.3
-27.54
-32.44
-36.57
-39.56
-41.27
-41.81
-41.49
-40.72
-39.86
-39.12
-38.53
-37.97
-37.27
-36.3
-35.06
-33.58
-32
-30.41
-28.96
-27.74
-27
-26.97
-27.87
-29.74
-32.35
-35.21
-37.69
-39.29
-39.74
-39.26
-38.29
-37.4
-36.97
-37.06
-37.41
-37.66
-37.56
-37.04
-36.21
-35.07
-33.48
-31.14
-27.71
-23.05
-17.29
-10.77
-3.84
3.26
10.51
17.85
25.09
31.81
37.44
41.45
43.56
43.82
42.51
40
36.71
33.01
29.33
26.1
23.78
22.66
22.83
24.01
25.58
26.68
26.38
23.95
19.08
12.21
4.43
-2.69
-7.7
-9.77
-9.08
-6.75
-4.36
-3.27
-4.02
-6.2
-8.65
-9.94
-8.86
-4.84
1.88
10.2
18.34
24.25
26.1
22.96
15.13
4.14
-7.75
-18.28
-25.86
-29.83
-30.49
-28.75
-25.69
-22.27
-19.12
-16.52
-14.39
-12.53
-10.82
-9.41
-8.72
-9.26
-11.26
-14.57
-18.55
-22.53
-25.99
-28.85
-31.35
-33.77
-36.13
-38.15
-39.46
-39.88
-39.73
-39.61
-40.13
-41.39
-42.85
-43.44
-42.09
-38.17
-31.83
-23.78
-14.9
-5.82
3.25
12.31
21.33
29.97
37.73
44.12
48.99
52.5
55.05
57.06
58.86
60.69
62.79
65.39
68.68
72.7
77.31
82.13
86.52
89.66
90.57
88.28
82.25
72.67
60.6
47.69
35.76
26.05
18.99
14.16
10.7
7.8
5.03
2.32
-0.11
-2.05
-3.36
-4.03
-4.09
-3.6
-2.55
-0.92
1.29
3.98
6.86
9.48
11.37
12.14
11.71
10.31
8.38
6.36
4.6
3.17
1.95
0.74
-0.64
-2.28
-4.11
-5.96
-7.67
-9.07
-10.14
-10.99
-11.75
-12.55
-13.45
-14.38
-15.29
-16.23
-17.34
-18.75
-20.51
-22.36
-23.8
-24.21
-23.06
-20.2
-15.89
-10.68
-5.25
-0.2
4.18
7.78
10.76
13.32
15.62
17.71
19.48
20.7
21.06
20.31
18.31
15.08
10.78
5.57
-0.35
-6.82
-13.68
-20.91
-28.63
-37.2
-47.05
-58.48
-71.32
-84.8
-97.55
-108
-114.83
-117.32
-115.58
-110.28
-102.4
-92.91
-82.64
-72.19
-62.1
-52.83
-44.8
-38.24
-33.16
-29.29
-26.21
-23.56
-21.12
-18.8
-16.49
-14
-11.04
-7.44
-3.41
0.34
2.74
2.73
-0.17
-5.52
-11.92
-17.43
-20.19
-18.96
-13.42
-4.14
7.85
21.58
36.6
53.06
71.36
91.61
113
133.66
151.1
163.03
168.33
167.4
162.02
154.43
146.42
138.69
130.82
121.86
111.04
98.28
84.18
69.71
55.7
42.52
30.11
18.24
6.83
-3.86
-13.34
-21.09
-26.9
-30.97
-33.89
-36.31
-38.66
-40.93
-42.77
-43.74
-43.66
-42.75
-41.62
-40.97
-41.22
-42.37
-44.05
-45.88
-47.81
-50.37
-54.44
-60.94
-70.38
-82.52
-96.41
-110.55
-123.29
-133.06
-138.64
-139.15
-134.3
-124.42
-110.47
-93.8
-75.86
-57.79
-40.26
-23.59
-7.99
6.21
18.67
29.1
37.45
43.89
48.6
51.57
52.71
52.01
49.92
47.39
45.69
45.75
47.83
51.36
55.22
58.4
60.47
61.86
63.58
66.82
72.24
79.61
87.71
94.66
98.51
97.88
92.39
82.7
70.23
56.63
43.38
31.5
21.48
13.38
6.97
1.87
-2.21
-5.39
-7.54
-8.47
-8.13
-6.81
-5.12
-3.78
-3.37
-4.1
-5.81
-8.14
-10.74
-13.34
-15.72
-17.6
-18.64
-18.6
-17.46
-15.63
-13.83
-12.88
-13.37
-15.46
-18.83
-22.8
-26.59
-29.58
-31.52
-32.53
-33.07
-33.66
-34.73
-36.39
-38.43
-40.47
-42.06
-42.91
-42.87
-42.01
-40.43
-38.35
-36.03
-33.7
-31.52
-29.54
-27.66
-25.64
-23.21
-20.23
-16.67
-12.73
-8.64
-4.61
-0.79
2.71
5.84
8.57
10.84
12.63
13.93
14.75
15.17
15.32
15.35
15.46
15.81
16.53
17.62
18.98
20.5
21.96
23.22
24.17
24.76
25
24.95
24.67
24.18
23.5
22.55
21.29
19.7
17.84
15.85
13.95
12.45
11.54
11.37
11.84
12.76
13.84
14.84
15.67
16.39
17.14
17.98
18.84
19.42
19.37
18.42
16.41
13.41
9.55
5.02
-0.04
-5.42
-10.81
-15.71
-19.56
-21.86
-22.34
-21.1
-18.54
-15.22
-11.75
-8.6
-6.15
-4.65
-4.23
-4.83
-6.26
-8.1
-9.79
-10.88
-11.03
-10.28
-8.91
-7.48
-6.54
-6.5
-7.42
-9.01
-10.73
-11.98
-12.38
-11.84
-10.63
-9.17
-7.89
-7.06
-6.74
-6.8
-7
-7.11
-6.93
-6.38
-5.5
-4.46
-3.54
-3.01
-3.09
-3.74
-4.74
-5.69
-6.2
-6.11
-5.5
-4.78
-4.35
-4.47
-5.05
-5.66
-5.76
-4.9
-3.04
-0.41
2.53
5.42
8.08
10.55
12.85
14.93
16.64
17.88
18.74
19.53
20.64
22.25
24.15
25.78
26.47
25.81
23.87
21.26
18.78
17.1
16.52
16.82
17.52
18.03
17.82
16.5
13.82
9.79
4.78
-0.31
-4.19
-5.45
-3.18
2.53
10.44
18.53
24.67
27.38
26.29
22.12
16.32
10.52
6.06
3.73
3.67
5.46
8.28
11.2
13.49
14.9
15.67
16.3
17.3
18.84
20.64
22.2
23.09
23.18
22.78
22.38
22.39
22.92
23.62
23.86
22.84
19.89
14.75
7.75
-0.14
-7.53
-12.96
-15.49
-14.99
-12.14
-8.08
-3.89
-0.12
3.16
6.07
8.62
10.37
10.39
7.22
-0.99
-16.02
-38.84
-68.54
-101.72
-132.77
-155.27
-164.13
-157.44
-137.24
-108.71
-78.23
-51.18
-30.63
-17.14
-9.61
-6.37
-5.9
-7.13
-9.16
-11.13
-12.15
-11.44
-8.73
-4.36
0.75
5.46
8.8
10.35
10.18
8.88
7.19
5.73
4.91
4.76
5
5.21
4.99
4.19
3.04
2.06
1.83
2.74
4.73
7.29
9.66
11.17
11.44
10.59
9.11
7.63
6.77
6.86
7.94
9.8
12.11
14.54
16.9
19.11
21.17
23.12
24.93
26.48
27.65
28.34
28.51
28.21
27.59
26.82
26.14
25.69
25.53
25.57
25.55
25.16
24.1
22.27
19.72
16.66
13.27
9.7
6.08
2.61
-0.35
-2.42
-3.35
-3.24
-2.53
-1.86
-1.78
-2.48
-3.76
-5.19
-6.3
-6.87
-6.93
-6.7
-6.42
-6.39
-6.83
-7.95
-9.81
-12.32
-15.15
-17.82
-19.74
-20.42
-19.5
-16.88
-12.71
-7.42
-1.7
3.69
8.09
11.14
12.91
13.85
14.53
15.45
16.81
18.51
20.2
21.53
22.29
22.49
22.36
22.15
21.97
21.69
20.91
19.16
16
11.23
5
-2.23
-9.7
-16.52
-21.78
-24.78
-25.28
-23.63
-20.65
-17.41
-14.82
-13.36
-13.05
-13.57
-14.6
-15.86
-17.18
-18.4
-19.25
-19.48
-18.97
-17.81
-16.31
-14.8
-13.49
-12.32
-11.14
-9.89
-8.69
-7.84
-7.66
-8.28
-9.53
-11.08
-12.53
-13.63
-14.29
-14.53
-14.32
-13.54
-12.01
-9.57
-6.31
-2.6
1.03
3.99
5.95
6.91
7.29
7.61
8.27
9.29
10.22
10.35
9
5.91
1.38
-3.72
-8.18
-10.83
-10.86
-8.04
-2.74
4.26
12.03
19.73
26.82
33.05
38.38
42.85
46.53
49.49
51.77
53.36
54.13
53.78
51.95
48.36
43.11
36.7
30.06
24.14
19.54
16.1
12.98
9.07
3.61
-3.26
-10.39
-16.23
-19.63
-20.46
-19.66
-18.7
-18.61
-19.41
-20.18
-19.83
-17.99
-15.41
-13.6
-13.92
-16.8
-21.58
-27.16
-32.8
-38.71
-45.81
-55
-66.27
-78.37
-89.19
-96.58
-99.44
-98.32
-95.21
-92.7
-92.53
-94.23
-94.55
-88.23
-70.34
-38.91
3.38
49.92
92.9
126.72
149.98
165.01
175.41
183.36
188.55
189.2
184.29
175.05
164.71
156.65
152.42
151.11
150.38
148.35
144.92
141.53
139.82
140.08
140.7
138.66
131.18
117.16
97.92
76.41
55.69
37.17
19.7
0.13
-25.09
-58.18
-99.06
-145.79
-195.9
-247.62
-299.96
-351.66
-399.7
-438.86
-462.87
-466.59
-447.93
-408.5
-352.93
-287.67
-220.22
-158.58
-110.45
-81.75
-74.49
-85.07
-104.4
-120.31
-121.38
-100.57
-57.16
3.64
72.92
141.12
200.78
248.1
283.21
309.1
329.57
347.45
363.49
376.64
385.49
389.43
388.95
384.64
376.02
361.06
337.31
303.89
263.15
220.56
182.62
153.73
133.99
118.93
101.5
75.35
37.42
-10.96
-65.1
-119.14
-168.13
-209.06
-240.65
-262.32
-273.47
-273.51
-262.48
-241.86
-214.9
-185.87
-158.93
-136.83
-120.4
-108.8
-100.35
-93.54
-87.52
-82.2
-77.78
-74.45
-72.02
-70.11
-68.25
-66.02
-63.12
-59.34
-54.61
-48.99
-42.69
-36
-29.2
-22.47
-15.81
-9.13
-2.35
4.35
10.61
15.84
19.49
21.28
21.37
20.4
19.32
19.07
20.22
22.87
26.62
30.76
34.6
37.57
39.36
39.85
39.02
36.95
33.88
30.21
26.45
23.07
20.31
18.11
16.14
14.03
11.58
8.84
5.98
3.18
0.43
-2.47
-5.71
-9.36
-13.21
-16.95
-20.31
-23.23
-25.88
-28.51
-31.22
-33.83
-35.97
-37.23
-37.37
-36.47
-34.75
-32.52
-29.86
-26.75
-23.06
-18.9
-14.56
-10.52
-7.22
-4.8
-3.04
-1.4
0.8
4.09
8.62
14.13
19.99
25.37
29.52
31.99
32.69
31.92
30.16
27.88
25.52
23.48
22.09
21.66
22.35
24.02
26.22
28.35
29.87
30.54
30.45
29.9
29.28
28.92
29.1
30.14
32.25
35.43
39.44
43.8
48.01
51.73
54.83
57.21
58.65
58.76
57.19
53.89
49.29
44.22
39.59
35.99
33.48
31.66
29.9
27.65
24.57
20.51
15.42
9.32
2.23
-5.71
-14.23
-22.91
-31.19
-38.48
-44.16
-47.74
-48.93
-47.69
-44.32
-39.42
-33.74
-28.08
-23.16
-19.44
-17.13
-16.2
-16.47
-17.67
-19.55
-22
-24.96
-28.46
-32.48
-36.85
-41.35
-45.65
-49.47
-52.68
-55.29
-57.44
-59.37
-61.28
-63.39
-65.84
-68.72
-72.01
-75.51
-78.8
-81.33
-82.52
-81.98
-79.6
-75.57
-70.27
-64.13
-57.48
-50.56
-43.51
-36.48
-29.63
-23.09
-16.96
-11.25
-5.95
-1.11
3.16
6.7
9.46
11.6
13.44
15.41
17.83
20.78
24.1
27.44
30.49
33
34.92
36.16
36.63
36.13
34.53
31.94
28.72
25.4
22.4
19.76
17.16
14.13
10.43
6.33
2.62
0.26
-0.05
1.87
5.66
10.65
16.13
21.52
26.42
30.46
33.27
34.46
33.74
31.02
26.55
20.87
14.71
8.84
3.81
-0.1
-3.01
-5.29
-7.4
-9.64
-12.08
-14.51
-16.58
-18.09
-19.01
-19.52
-19.91
-20.43
-21.14
-21.92
-22.58
-22.93
-23.03
-23.06
-23.33
-24.12
-25.57
-27.67
-30.26
-33.1
-35.88
-38.27
-39.96
-40.72
-40.46
-39.22
-37.27
-34.91
-32.47
-30.17
-28.12
-26.38
-24.94
-23.83
-22.95
-22.21
-21.44
-20.56
-19.58
-18.62
-17.78
-17.08
-16.41
-15.55
-14.33
-12.72
-10.87
-9.07
-7.57
-6.56
-6.12
-6.16
-6.54
-7.05
-7.46
-7.49
-6.76
-4.94
-1.83
2.41
7.28
12.04
15.94
18.53
19.84
20.41
20.97
22.18
24.35
27.45
31.2
35.27
39.37
43.29
46.81
49.66
51.55
52.25
51.67
49.84
47.02
43.48
39.42
34.89
29.83
24.17
17.97
11.49
5.17
-0.44
-4.94
-8.17
-10.3
-11.8
-13.3
-15.39
-18.56
-23.11
-29.15
-36.61
-45.35
-55.04
-65.25
-75.4
-84.8
-92.79
-98.88
-102.82
-104.68
-104.66
-102.93
-99.49
-94.16
-86.72
-77.13
-65.67
-52.92
-39.63
-26.46
-13.78
-1.71
9.8
20.71
30.87
40
47.92
54.66
60.44
65.57
70.25
74.45
77.95
80.45
81.76
81.86
80.83
78.79
75.86
72.13
67.9
63.64
59.93
57.24
55.67
54.96
54.51
53.72
52.2
49.93
47.2
44.44
42.03
40.23
39.08
38.54
38.39
38.34
38.01
37.01
35.1
32.24
28.7
24.91
21.31
18.26
15.87
14.1
12.8
11.75
10.68
9.29
7.21
4.09
-0.33
-6.15
-13.28
-21.41
-30.08
-38.7
-46.59
-53.09
-57.64
-59.9
-59.84
-57.81
-54.34
-50.02
-45.27
-40.31
-35.14
-29.77
-24.29
-18.95
-14.12
-10.06
-6.86
-4.3
-2.06
0.24
2.83
5.75
8.91
12.17
15.44
18.67
21.87
25
27.89
30.24
31.62
31.62
29.95
26.66
22.14
17.02
12
7.71
4.57
2.82
2.59
3.92
6.79
10.99
16.13
21.67
27.06
31.92
36.1
39.65
42.6
44.91
46.28
46.39
44.94
41.88
37.44
32.01
26.04
19.82
13.48
7.02
0.46
-6.11
-12.46
-18.31
-23.44
-27.79
-31.56
-35.08
-38.76
-42.82
-47.14
-51.35
-54.88
-57.2
-57.92
-56.92
-54.32
-50.38
-45.4
-39.68
-33.53
-27.21
-20.95
-14.99
-9.61
-5.09
-1.72
0.38
1.29
1.32
0.87
0.31
-0.23
-0.81
-1.63
-2.8
-4.31
-5.96
-7.48
-8.59
-9.14
-9.06
-8.3
-6.8
-4.45
-1.22
2.81
7.45
12.43
17.57
22.84
28.5
34.84
42.06
49.96
57.9
64.93
70.12
72.96
73.44
72.02
69.22
65.37
60.44
54.21
46.58
37.7
28.13
18.64
9.98
2.63
-3.24
-7.72
-11.07
-13.54
-15.4
-16.83
-18.05
-19.35
-21.06
-23.57
-27.13
-31.78
-37.2
-42.81
-47.95
-52.11
-55.12
-57.12
-58.41
-59.24
-59.66
-59.53
-58.61
-56.78
-54.15
-51.03
-47.82
-44.86
-42.38
-40.46
-39.1
-38.22
-37.67
-37.22
-36.6
-35.54
-33.99
-32.03
-29.9
-27.82
-25.89
-24.09
-22.33
-20.58
-18.89
-17.29
-15.74
-14.01
-11.84
-9.05
-5.6
-1.6
2.78
7.37
12.04
16.67
21.14
25.35
29.27
33.01
36.8
40.87
45.27
49.68
53.43
55.65
55.6
53.06
48.54
43.13
38.2
34.93
33.98
35.44
38.92
43.9
49.92
56.54
63.29
69.57
74.64
77.9
79.01
78.08
75.47
71.71
67.23
62.32
57.14
51.94
47.09
43.03
40.05
38.16
36.96
35.95
34.72
33.2
31.66
30.38
29.36
28.09
25.86
22.08
16.7
10.37
4.15
-0.99
-4.57
-6.68
-7.85
-8.71
-9.88
-11.97
-15.62
-21.44
-29.88
-40.81
-53.47
-66.58
-78.85
-89.46
-98.37
-105.95
-112.56
-117.86
-120.73
-119.59
-113.22
-101.54
-85.95
-68.87
-52.87
-39.6
-29.13
-20.07
-10.31
2.03
17.82
36.64
56.97
76.8
94.27
108.2
118.26
125.09
130.05
134.85
140.89
148.56
156.61
162.16
161.4
150.95
129.31
97.6
59.54
20.16
-15.85
-45.56
-68.53
-86.65
-103.57
-123.42
-149.3
-181.64
-217.07
-248.63
-267.54
-266.39
-242.19
-197.97
-141.88
-84.51
-35.51
-0.98
17.21
20.93
14.29
2.39
-9.68
-17.48
-17.79
-9.09
8.26
32.15
59.48
86.69
110.71
129.62
142.91
151.45
156.84
160.5
162.67
162.24
157.22
145.94
128.22
105.78
81.73
59.55
41.91
30
23.6
21.49
22.12
24.14
26.47
28.41
29.49
29.5
28.48
26.65
24.36
21.86
19.25
16.29
12.6
7.9
2.17
-4.2
-10.49
-15.98
-20.22
-23.16
-25.13
-26.57
-27.82
-28.94
-29.89
-30.62
-31.32
-32.3
-33.85
-36.04
-38.58
-40.95
-42.64
-43.3
-42.89
-41.65
-39.9
-37.91
-35.83
-33.68
-31.46
-29.28
-27.48
-26.55
-27.04
-29.3
-33.33
-38.81
-45.19
-52
-58.93
-65.89
-72.92
-79.9
-86.53
-92.37
-97.13
-100.78
-103.57
-105.78
-107.55
-108.66
-108.79
-107.74
-105.64
-102.93
-99.94
-96.5
-91.82
-84.76
-74.49
-61.03
-45.51
-29.74
-15.46
-3.76
5.27
12.19
17.65
21.95
24.93
26.4
26.52
26.16
26.71
29.56
35.42
44.03
54.28
64.64
73.85
81.21
86.59
90.1
91.68
90.9
87.2
80.27
70.45
58.93
47.4
37.56
30.58
26.73
25.55
26.18
27.71
29.48
31.16
32.53
33.39
33.53
32.7
30.76
27.73
23.75
19.04
13.84
8.43
3.1
-1.78
-5.93
-9.13
-11.39
-12.94
-14.16
-15.34
-16.71
-18.27
-19.99
-21.91
-24.19
-27.13
-31.06
-36.2
-42.57
-50.12
-58.7
-68.02
-77.52
-86.26
-93.03
-96.63
-96.29
-91.89
-84.02
-73.79
-62.44
-50.98
-39.97
-29.53
-19.46
-9.61
-0.05
8.83
16.5
22.56
27.07
30.66
34.29
38.88
44.89
52.14
59.94
67.31
73.19
76.53
76.37
72.05
63.57
51.88
38.84
26.89
18.3
14.52
15.81
21.26
29.21
37.78
45.38
50.99
54.48
56.43
57.87
59.81
62.69
66.18
69.24
70.65
69.42
65.3
58.67
50.29
40.91
31.06
21.03
11.02
1.23
-8.14
-16.98
-25.39
-33.6
-41.89
-50.35
-58.86
-67.1
-74.72
-81.67
-88.22
-94.82
-101.67
-108.27
-113.36
-115.19
-112.29
-104.07
-91.18
-75.21
-58.17
-41.81
-27.26
-15.05
-5.19
2.65
8.98
14.34
19.16
23.51
27.25
30.18
32.39
34.28
36.32
38.62
40.73
41.84
41.3
39.1
35.93
32.79
30.48
29.21
28.77
28.8
29.23
30.26
32.2
35.14
38.75
42.37
45.13
46.16
44.81
40.9
34.83
27.62
20.58
14.93
11.27
9.35
8.27
6.91
4.51
1
-2.98
-6.46
-8.7
-9.52
-9.51
-9.75
-11.31
-14.8
-20.05
-26.26
-32.47
-38.02
-42.84
-47.39
-52.23
-57.6
-63.25
-68.51
-72.83
-76.17
-79.12
-82.55
-87.05
-92.6
-98.51
-103.77
-107.4
-108.62
-106.75
-101
-90.58
-74.98
-54.69
-31.47
-8.21
11.98
26.83
35.77
39.91
41.24
41.5
41.31
40.07
36.67
30.39
21.49
11.23
1.27
-7.05
-12.86
-15.66
-14.92
-9.97
-0.34
13.71
30.77
48.52
64.4
76.59
84.53
88.95
91.27
92.87
94.59
96.51
98.24
99.18
98.94
97.41
94.71
90.97
86.11
79.97
72.4
63.61
54.26
45.37
37.88
32.09
27.61
23.47
18.65
12.65
5.72
-1.39
-7.8
-12.98
-17
-20.44
-24.2
-29.17
-36.07
-45.22
-56.41
-68.89
-81.43
-92.55
-100.9
-105.71
-106.85
-104.75
-99.91
-92.65
-82.97
-70.86
-56.69
-41.44
-26.58
-13.58
-3.35
4.02
9.11
12.71
15.25
16.51
15.82
12.51
6.54
-1.22
-9.14
-15.31
-18.3
-17.51
-13.28
-6.43
2.3
12.65
24.75
38.57
53.41
67.64
79.09
85.81
86.89
82.89
75.67
67.68
61.15
57.51
57.15
59.57
63.78
68.74
73.59
77.73
80.7
82.08
81.32
77.91
71.55
62.36
51.04
38.66
26.3
14.74
4.23
-5.4
-14.53
-23.4
-32.1
-40.62
-49.05
-57.71
-67.12
-77.8
-89.96
-103.33
-116.98
-129.54
-139.35
-144.77
-144.48
-137.68
-124.39
-105.55
-82.93
-58.94
-36.08
-16.45
-1.24
9.41
16.32
20.75
23.92
26.64
29.21
31.64
33.9
36.07
38.37
40.9
43.56
45.94
47.51
47.86
46.99
45.29
43.53
42.44
42.46
43.48
44.87
45.76
45.39
43.51
40.46
37.11
34.46
33.29
33.8
35.54
37.46
38.18
36.3
30.81
21.36
8.37
-7.13
-23.86
-40.67
-56.7
-71.34
-83.94
-93.77
-99.98
-101.79
-98.7
-90.55
-77.56
-60.42
-40.23
-18.65
2.33
20.63
34.67
43.65
47.81
48.07
45.73
42.13
38.4
35.38
33.55
32.95
33.18
33.62
33.71
33.19
32.1
30.64
28.88
26.68
23.78
20.03
15.5
10.41
5.02
-0.62
-6.61
-13.08
-19.94
-26.81
-33.11
-38.25
-42.02
-44.63
-46.72
-49.09
-52.28
-56.18
-59.93
-62.18
-61.62
-57.67
-50.65
-41.71
-32.16
-23.03
-14.74
-7.26
-0.49
5.4
10.01
12.94
14.08
13.75
12.44
10.51
7.95
4.37
-0.71
-7.47
-15.57
-24.16
-32.21
-38.77
-43.31
-45.7
-46.17
-44.95
-42.18
-37.91
-32.34
-25.95
-19.53
-13.94
-9.72
-6.86
-4.71
-2.37
0.96
5.55
11.29
17.86
25.19
33.57
43.54
55.55
69.65
85.33
101.7
117.74
132.48
145.08
154.78
160.86
162.81
160.5
154.3
144.99
133.54
120.77
107.19
93.03
78.53
64.05
50.17
37.49
26.36
16.73
8.19
0.17
-7.9
-16.36
-25.35
-34.81
-44.57
-54.3
-63.42
-71.2
-76.9
-80.07
-80.78
-79.63
-77.6
-75.59
-74.1
-73.07
-71.96
-70.14
-67.19
-63.27
-59.01
-55.32
-52.95
-52.26
-52.92
-54.16
-55
-54.64
-52.69
-49.24
-44.68
-39.71
-35.47
-33.48
-35.43
-42.5
-54.52
-69.55
-84.1
-94.42
-97.92
-94.09
-84.4
-71.23
-56.61
-41.55
-26.18
-10.56
4.69
18.39
29.35
37.03
41.85
44.75
46.58
47.65
47.68
46.23
43.22
39.2
35.14
32.03
30.54
30.89
32.89
36.11
40.02
43.98
47.27
49.23
49.53
48.27
46.02
43.54
41.33
39.33
36.82
32.83
26.68
18.55
9.49
1.04
-5.46
-9.58
-11.95
-14.05
-17.38
-22.93
-30.67
-39.85
-49.36
-58.19
-65.7
-71.47
-75.28
-77.09
-77.38
-77.21
-78.05
-81.01
-86.11
-91.85
-95.49
-94.08
-85.78
-70.58
-50.51
-28.81
-8.63
8.1
21.18
31.82
41.59
51.4
60.98
68.92
73.7
74.62
72.42
68.87
65.77
63.98
63.17
62.58
61.62
60.54
60.68
63.68
70.5
80.52
91.25
99.07
100.89
94.54
78.9
54
20.85
-17.73
-56.57
-88.2
-104.17
-97.28
-65.69
-15.18
41.95
90.63
118.67
120.92
99.77
60.43
12.98
-31
-62.74
-78.72
-80.73
-72.57
-57.98
-41.03
-26.28
-19.28
-25.76
-49.2
-88.19
-136.74
-185.37
-221.8
-236.48
-227.35
-200.88
-169.03
-144.64
-131.38
-126.61
-124.39
-119.16
-108.66
-94.12
-78.32
-63.67
-51.03
-39.46
-27.82
-15.15
-0.85
14.77
31.26
48.45
66.35
84.56
101.93
116.03
124.32
125.37
119.29
107.87
93.95
80.35
69.14
61.29
56.55
54.3
54.11
55.78
59.29
64.62
71.6
80.09
89.99
101.23
113.82
127.65
142.18
156.34
168.78
178.31
184.48
187.6
188.39
187.46
184.76
179.52
170.63
157.35
139.9
119.65
98.72
79.32
63.1
50.8
42.22
36.54
32.72
29.83
27.2
24.36
20.99
16.95
12.27
7.26
2.38
-1.91
-5.42
-8.28
-10.91
-13.89
-17.71
-22.7
-28.95
-36.3
-44.38
-52.61
-60.43
-67.46
-73.77
-79.77
-86.1
-93.18
-100.95
-108.8
-115.87
-121.44
-125.39
-128.16
-130.49
-133.01
-135.86
-138.67
-140.73
-141.3
-139.96
-136.69
-131.84
-125.88
-119.18
-111.86
-103.82
-94.82
-84.61
-72.96
-59.67
-44.57
-27.78
-9.85
8.03
24.22
37.04
45.37
49.07
49
46.56
43.19
39.79
36.67
33.73
30.85
28.36
27.14
28.33
32.93
41.25
52.6
65.28
76.87
84.83
87.21
83.19
73.26
58.99
42.55
26.14
11.52
-0.07
-7.87
-11.41
-10.46
-5.2
3.41
13.46
22.22
26.86
25.39
17.5
4.75
-9.93
-23.27
-32.73
-37.23
-37.24
-34.18
-29.8
-25.51
-22.2
-20.3
-19.95
-21.06
-23.26
-25.9
-28.08
-29.07
-28.66
-27.21
-25.48
-24.17
-23.47
-23.01
-22.1
-20.13
-16.85
-12.34
-6.64
0.44
9.35
20.51
33.88
48.8
64.05
78.22
90.12
99.09
104.87
107.59
107.57
105.31
101.51
96.96
92.48
88.62
85.66
83.6
82.29
81.69
81.89
83.13
85.65
89.81
96.25
105.81
118.95
134.86
150.8
162.24
164.39
154.13
131.6
100.28
65.45
31.76
1.12
-27.61
-57.54
-91.57
-130.58
-172.56
-213.09
-246.58
-267.94
-273.88
-263.67
-239.26
-204.57
-164.2
-122.35
-82.13
-45.62
-14.27
10.82
29.02
40.58
46.93
50.44
53.56
57.88
63.43
68.79
71.9
70.98
65.21
54.92
41.36
26.03
10.25
-5.04
-19.2
-31.67
-41.81
-49.02
-53.06
-54.34
-54.11
-54.08
-55.86
-60.25
-67.08
-75.32
-83.73
-91.41
-98.13
-104.2
-110.06
-115.8
-121.02
-124.99
-127.03
-126.91
-125.05
-122.33
-119.58
-117.3
-115.38
-113.25
-110.14
-105.48
-99.02
-90.99
-82.01
-72.93
-64.64
-57.86
-52.95
-49.77
-47.63
-45.35
-41.37
-33.92
-21.4
-2.78
22.04
52.04
85.38
119.89
153.58
184.91
212.64
235.54
252.16
261.13
261.67
254.01
239.53
220.3
198.37
175.21
151.63
128.03
104.91
83.06
63.49
47.07
34.16
24.46
17.03
10.76
4.62
-1.86
-8.53
-14.65
-19.23
-21.42
-20.89
-18.22
-14.69
-11.97
-11.5
-13.9
-18.75
-24.48
-28.96
-30.25
-27.59
-21.45
-13.65
-6.53
-2.06
-0.92
-1.85
-1.89
2.87
15.02
34.77
58.87
80.98
93.25
88.5
62.67
16.38
-44.48
-110.85
-172.02
-218.65
-245.06
-250.65
-239.78
-220.03
-199.38
-183.28
-174.85
-174.07
-179.31
-188.53
-200.16
-213.59
-228.64
-244.94
-254.69
-251.75
-232.27
-196.83
-150.37
-100.18
-52.99
-12.83
20.22
49.86
79.28
112.49
150.36
190.61
228.97
260.97
283.27
289.92
279.89
255.32
221.07
182.11
142.22
103.6
68.87
38.29
13.79
-1.03
-3.64
6.08
25.04
47.76
68.07
81.2
83.6
75.37
60.06
42.3
26.57
15.9
11.47
12.59
17.04
21.53
23.23
20.57
13.06
1.39
-13.2
-29.48
-46.61
-64.13
-81.6
-97.64
-110.13
-116.74
-115.72
-106.45
-89.46
-66.94
-42.39
-20.33
-4.59
3.24
5.29
7.02
15.03
33.58
61.79
93.28
118.78
130.47
125.62
107.69
84.36
63.86
51.47
48.06
51.06
56.59
61.53
64.38
64.77
62.52
57.05
47.76
34.88
20.38
7.84
0.96
1.61
8.34
16.58
20.45
15.42
0.27
-22.8
-49.66
-76.46
-100.91
-122.08
-139.08
-149.9
-151.61
-141.97
-121.36
-93.63
-64.96
-41.43
-26.71
-20.99
-21.57
-24.53
-26.21
-24.12
-16.89
-4.04
14.18
36.56
60.93
84.4
104.12
118.12
125.67
127.16
123.53
115.72
104.43
90.24
73.91
56.7
40.67
28.35
21.95
22.18
27.26
33.03
34.18
26.39
8.05
-19.07
-50.98
-83.51
-114.06
-141.85
-166.83
-188.17
-203.63
-210.35
-206.57
-192.88
-172.03
-147.24
-120.34
-91.07
-58
-20.64
18.98
56.4
86.46
105.88
114.78
116.13
113.47
108.53
100.22
86.08
65.16
40.67
20.08
12.45
23.87
53.63
93.46
130.39
151.58
149.28
123.47
81.07
32.98
-10
-40.69
-57.38
-63.88
-67.81
-77.83
-100.55
-137.89
-186.03
-236.53
-278.5
-302.1
-301.31
-275.13
-227.16
-164.11
-93.96
-24.43
37.79
87.7
122.26
140.67
144.74
138.77
128.29
118.61
113.07
112.17
114.13
116.39
116.73
113.8
106.67
94.51
77.21
56.42
36.48
23.64
23.7
38.93
66.41
98.16
124.23
136.44
131.02
109.17
75.56
35.93
-4.47
-41.27
-70.97
-90.97
-100.42
-101.42
-99.27
-101.04
-112.85
-136.45
-167.46
-196.15
-211
-203.03
-169.5
-114.71
-48.41
17.8
73.97
114
136.19
142.36
136.44
122.94
105.83
87.92
70.76
55.07
41.39
30.64
24.12
22.87
26.99
35.47
46.38
57.54
66.99
73.12
74.63
70.57
60.72
45.88
28.25
11.05
-2.46
-10.12
-11.9
-10.2
-9.59
-15.39
-31.68
-59.02
-93.08
-125.17
-144.8
-143.64
-119
-75.26
-22.23
28.62
68.17
92.16
101.22
99.02
89.84
77.11
62.98
48.85
36.04
25.99
19.89
18.16
20.26
24.52
28.78
30.89
29.3
23.34
13.2
-0.24
-15.63
-31.16
-44.78
-54.48
-59.09
-58.66
-54.22
-46.85
-36.68
-22.58
-2.84
23.16
53.75
84.55
109.91
125.72
131.63
131.41
131.04
135.6
146.69
162.1
176.81
185.52
185.2
176.02
160.51
141.6
121.14
99.71
77.42
54.38
30.59
5.94
-20.05
-48.19
-79.33
-113.53
-150.75
-187.3
-217.31
-235.82
-241.11
-234.87
-220.36
-200.83
-178.84
-156.79
-137.46
-122.96
-115.68
-117.32
-128.43
-148.3
-175.11
-205.88
-236.39
-261.62
-275.16
-272.85
-253.99
-221.51
-180.38
-135.69
-90.92
-48.05
-8.77
24.18
46.56
55.22
50.89
39.54
30.67
33.27
51.4
82.26
117.83
148.2
166.35
170.54
163.89
151.84
139.51
130.21
125.05
123.09
121.2
114.52
98.03
68.95
29.02
-14.89
-52.54
-74.47
-75.74
-57.77
-26.7
10.16
47.65
83.98
119.33
153.21
182.74
203.23
210.54
203.73
186.02
163.49
142.33
126.18
114.98
105.89
95.53
82.08
66.14
50.05
36.31
26.24
19.53
14.83
10.7
6.44
2.06
-2.28
-6.7
-11.9
-18.9
-28.29
-39.67
-51.6
-62.01
-68.97
-71.45
-69.53
-64.21
-56.83
-48.73
-41.09
-34.99
-31.5
-31.39
-34.6
-39.99
-45.4
-48.48
-47.58
-42.53
-34.59
-25.92
-18.61
-14.08
-12.76
-14.32
-18.03
-22.87
-27.66
-31.08
-31.93
-29.59
-24.44
-17.94
-12.21
-9.24
-10.02
-14.18
-20.23
-26.32
-31.05
-33.97
-35.5
-36.37
-37
-37.2
-36.23
-33.34
-28.02
-20.08
-9.52
3.39
17.85
32.05
43.23
48.45
46.12
37.24
25.43
15.41
10.52
10.92
13.49
13.93
9.64
1.61
-5.81
-7.34
0.32
16.65
37.83
58.87
76.15
88.77
98.26
106.82
115.67
124.22
130.61
132.92
130.44
124.3
117.1
111.82
110.44
113.09
117.94
122.07
122.69
118.55
110.37
100.57
92.24
87.8
87.88
90.96
93.61
91.53
81.07
60.65
31.72
-1.56
-33.78
-60.44
-79.56
-92.31
-102.02
-112.19
-124.96
-140.78
-159.16
-179.51
-201.39
-223.76
-244.53
-261.42
-273.19
-280.76
-286.8
-293.51
-299.89
-300.69
-288.36
-257.59
-210.32
-156.55
-110.85
-85.63
-84.83
-101.82
-122.46
-131.87
-120.96
-90.54
-49.02
-7.52
25.67
47.93
61.6
70.56
77.07
80.42
76.62
61.54
33.02
-8.17
-58.64
-113.93
-170.11
-224.47
-266.87
-287.85
-280.51
-244.19
-185.91
-116.38
-45.18
21.81
81.99
134.22
175.78
202.46
212.06
203.81
179.84
145.52
107.78
73.25
46.76
29.72
21.3
19.3
21.89
26.16
28.29
23.92
10.19
-11.83
-36.5
-54.47
-56.35
-37.58
-1.39
41.67
77.72
95.6
91.63
70.99
45.11
26.29
22.46
35.05
60.1
91.38
123.96
155.53
185.65
213.89
238.23
255.29
262.1
257.63
243.3
222.21
197.64
171.85
145.74
119.21
91.86
64.06
36.8
11.43
-10.73
-28.91
-43.05
-54.06
-63.63
-74.02
-87.22
-104.51
-126.27
-150.64
-174.18
-192.23
-199.43
-191.16
-168.19
-133.66
-93.75
-56.95
-31.23
-21.35
-27.14
-42.41
-57.22
-61.95
-51.37
-26.46
5.22
32.84
47.72
47.83
37.63
23.91
13.05
5.81
0.69
-3.74
-6.83
-5.94
2.19
18.84
42.61
69.11
91.99
105.12
104.26
88.2
59.16
21.87
-18.14
-56.31
-89.97
-118.38
-141.28
-157.96
-166.89
-166.34
-155.85
-137.45
-115.18
-93.09
-72.74
-51.65
-24.53
13.14
61.44
114.23
160.71
190.08
196.25
180.43
150.3
116.39
87.95
70.62
66.09
73.11
88.93
109.89
131.82
149.98
160.14
159.54
147.91
127.4
101.5
73.68
46.31
20.78
-1.87
-20.37
-33.62
-41.55
-46.13
-51.25
-61.31
-79.37
-105.85
-138.83
-175.33
-212.53
-248.01
-278.56
-299.32
-304.08
-287.57
-248.1
-189.1
-118.4
-45.77
19.83
72.46
109.26
130.39
138.5
138.26
134.87
132.41
132.34
133.03
131.1
123.96
112.1
99.39
91.37
91.42
98.74
109.17
117.52
120.31
116.83
108.51
97.61
86.28
75.24
64.63
54.92
46.59
39.24
30.27
15.22
-10.47
-48.46
-97.06
-151.12
-203.4
-245.55
-270.23
-274.72
-262.74
-246.85
-234.88
-228.56
-224.03
-212.84
-187.65
-144.6
-85.23
-16.35
51.76
108.42
143.97
152.59
134.56
96.61
50.5
9.61
-14.87
-16.95
3.21
38.94
79.6
113.97
133.25
133.12
114.23
81.84
44.01
9.29
-16.77
-33.08
-42.67
-50.58
-61.37
-77.69
-99.3
-123.46
-145.72
-161.08
-165.07
-154.7
-129.27
-90.66
-42.86
9.34
61.91
112.33
159.22
201.1
235.14
256.63
259.85
240.03
195.45
129.13
48.92
-33.59
-105.55
-155.66
-176.35
-165.34
-126.2
-67.53
-1.35
59.45
104.02
125.95
124.71
105.55
77.93
52.85
39.62
43.21
62.92
92.78
123.47
145.15
150.32
135.81
103.28
58.44
9.19
-36.46
-71.98
-93.11
-97.99
-86.85
-61.74
-26.46
13.73
52.66
84.7
106.19
116.5
117.86
113.98
107.96
100.85
91.44
77.63
58.11
33.72
7.46
-16.65
-35.23
-46.89
-52.53
-54.54
-55.53
-57.16
-59.7
-62.47
-64.76
-66.61
-69.1
-73.55
-80.69
-90.02
-99.89
-108.35
-114.12
-117.14
-118.21
-118
-116.15
-111.16
-101.18
-85.35
-64.88
-42.93
-23.63
-10.47
-4.77
-5.16
-8.27
-10.12
-7.53
0.92
14.7
31.72
48.9
62.79
70.19
68.93
58.55
40.66
18.48
-4.13
-23.73
-38.02
-45.98
-47.75
-44.38
-37.97
-31.42
-27.84
-29.11
-34.68
-40.97
-42.61
-35
-16.62
9.64
37.35
58.92
68.05
61.45
39.15
3.99
-38.91
-82.77
-120
-143.48
-148.32
-133.29
-101.36
-58.79
-13.13
28.9
63.02
87.81
104.24
114.59
121.25
125.89
129.02
130.04
127.74
121.11
109.96
95.25
78.94
63.17
49.78
39.88
33.98
32.22
34.68
41.34
51.82
65.1
79.5
92.99
103.85
111.27
115.62
118.09
120.02
122.15
124.19
125.04
123.38
118.44
110.26
99.6
87.47
74.58
61.17
47.16
32.51
17.49
2.75
-10.95
-23.02
-33.28
-41.92
-49.4
-56.21
-62.84
-69.67
-76.84
-84.24
-91.37
-97.41
-101.46
-102.9
-101.69
-98.38
-93.98
-89.44
-85.16
-80.76
-75.18
-67.22
-56.11
-42.23
-27.24
-13.72
-4.41
-1.17
-4.37
-12.74
-23.93
-35.33
-44.8
-51.03
-53.58
-52.75
-49.3
-44.41
-39.31
-34.99
-31.51
-27.65
-21.08
-9.32
8.75
31.83
56.14
76.65
88.98
91.1
83.77
69.87
52.87
35.49
19.13
4.3
-8.58
-18.76
-25.4
-28.23
-28.12
-27.04
-27.18
-30
-35.49
-42.19
-47.86
-50.52
-49.42
-45.55
-41.55
-40.9
-46.7
-60.43
-81.17
-105.63
-129
-146.26
-153.33
-147.87
-129.47
-99.58
-61.17
-18.39
24.01
61.48
90.52
109.37
118.16
118.55
112.87
103.36
91.79
79.46
67.32
56.08
46.2
37.79
30.56
24.01
17.64
11.11
4.4
-2.25
-8.54
-14.17
-19.07
-23.37
-27.31
-31.1
-34.8
-38.31
-41.45
-44.14
-46.47
-48.66
-50.86
-52.97
-54.61
-55.17
-54.14
-51.36
-47.05
-41.77
-36.16
-30.69
-25.62
-21.06
-17.07
-13.73
-11.13
-9.32
-8.22
-7.67
-7.52
-7.68
-8.2
-9.13
-10.47
-12.13
-13.93
-15.75
-17.54
-19.38
-21.29
-23.26
-25.14
-26.75
-28.03
-29.05
-30.08
-31.42
-33.3
-35.74
-38.67
-41.93
-45.4
-48.99
-52.57
-55.95
-58.89
-61.24
-62.89
-63.82
-63.78
-62.3
-58.56
-51.75
-41.45
-27.97
-12.43
3.54
18.32
30.77
40.58
48.1
54.09
59.26
64.08
68.59
72.51
75.41
76.88
76.7
74.83
71.39
66.59
60.81
54.55
48.46
43.29
39.66
37.9
37.91
39.24
41.32
43.71
46.16
48.62
50.97
52.93
54.02
53.75
51.85
48.41
43.76
38.29
32.24
25.62
18.26
10.14
1.57
-6.75
-13.95
-19.3
-22.55
-23.91
-23.88
-23.03
-21.67
-19.95
-17.87
-15.47
-12.84
-9.98
-6.74
-2.85
1.9
7.46
13.42
19.2
24.3
28.56
32.13
35.26
38.01
40.16
41.37
41.51
40.89
40.29
40.57
42.28
45.48
49.8
54.7
59.72
64.52
68.66
71.44
71.91
68.99
61.86
50.33
35.05
17.46
-0.44
-16.6
-29.43
-38.15
-42.85
-44.16
-42.85
-39.56
-34.74
-28.9
-22.93
-18.02
-15.4
-15.88
-19.41
-25.18
-31.88
-38.27
-43.37
-46.64
-47.86
-47.05
-44.53
-40.9
-37.17
-34.47
-33.75
-35.35
-38.7
-42.39
-44.57
-43.6
-38.76
-30.49
-20.29
-10.13
-1.71
4.09
7.3
8.56
8.64
8
6.71
4.65
1.76
-1.76
-5.45
-8.84
-11.67
-14.15
-16.83
-20.31
-24.96
-30.58
-36.52
-41.87
-45.87
-48.22
-49.2
-49.5
-49.92
-51.04
-53.08
-55.84
-58.87
-61.56
-63.1
-62.59
-59.06
-51.74
-40.34
-25.22
-7.33
12.05
31.66
50.62
68.46
85.07
100.44
114.44
126.76
136.96
144.5
149
150.37
148.87
145.16
140.1
134.43
128.62
122.69
116.42
109.53
102.02
94.11
86.24
78.76
71.86
65.47
59.37
53.33
47.11
40.61
33.77
26.55
18.76
10.05
-0.08
-11.99
-25.45
-39.34
-51.69
-60.23
-63.31
-60.72
-53.83
-45.08
-36.83
-30.29
-25.18
-20.11
-13.6
-5.04
4.94
14.76
22.54
26.69
26.2
20.63
10.3
-3.33
-17.49
-28.34
-32.13
-26.79
-13.04
5.5
23.64
36.65
41.94
39.61
31.73
20.84
8.78
-3.7
-16.41
-29.11
-41.01
-51.08
-58.56
-63.37
-66.25
-68.32
-70.61
-73.62
-77.15
-80.54
-83.04
-84.24
-84.32
-84.11
-84.82
-87.64
-93.37
-102.1
-113.15
-125.2
-136.58
-145.56
-150.66
-150.98
-146.31
-137.24
-124.98
-111
-96.63
-82.71
-69.47
-56.59
-43.43
-29.15
-13.01
5.43
25.92
47.33
67.61
84.33
95.43
100.02
98.77
93.54
86.52
79.47
73.22
67.89
63.35
59.71
57.43
57.1
59.16
63.7
70.5
79.16
89.04
99.02
107.45
112.23
111.44
104.04
90.45
72.56
53.1
34.74
19.21
6.93
-2.81
-11.12
-18.82
-26.01
-32
-35.83
-36.8
-34.97
-31.12
-26.43
-21.86
-17.68
-13.52
-8.65
-2.56
4.69
12.39
19.32
23.92
24.52
19.52
7.86
-10.56
-34.57
-61.76
-89.1
-113.91
-134.64
-151.22
-164.71
-176.47
-187.34
-197.08
-204.37
-207.3
-204.13
-193.95
-177.14
-155.31
-130.86
-106.29
-83.55
-63.77
-47.28
-33.96
-23.64
-16.11
-10.99
-7.41
-3.99
0.9
8.62
19.69
33.54
48.76
63.58
76.53
86.9
94.84
101
106.1
110.64
114.71
118.17
120.85
122.64
123.43
122.92
120.55
115.57
107.36
95.78
81.37
65.17
48.38
31.78
15.59
-0.52
-16.97
-33.85
-50.7
-66.55
-80.38
-91.54
-100
-106.25
-110.85
-114.13
-115.97
-116.03
-114.08
-110.31
-105.36
-100.1
-95.18
-90.73
-86.27
-80.95
-73.88
-64.39
-52.15
-37.1
-19.41
0.42
21.43
42.11
60.66
75.37
85.11
89.76
90.16
87.89
84.54
81.34
78.72
76.43
73.86
70.4
65.84
60.42
54.79
49.63
45.4
42.13
39.48
36.93
34.01
30.48
26.32
21.63
16.54
11.22
5.91
1
-3.05
-5.76
-6.88
-6.45
-4.78
-2.31
0.62
3.89
7.61
12.02
17.2
23.01
29.06
34.94
40.43
45.66
51
56.78
63.08
69.44
75.04
79.06
81.06
81.33
80.77
80.49
81.24
82.99
84.73
84.9
81.94
74.97
64.22
50.99
37.2
24.73
14.77
7.33
1.43
-4.7
-12.97
-24.86
-40.91
-60.4
-81.35
-100.88
-115.99
-124.48
-125.76
-121.17
-113.6
-106.47
-102.4
-102.19
-104.52
-106.54
-105.22
-98.57
-86.5
-70.65
-53.66
-37.98
-25.14
-15.5
-8.78
-4.58
-2.77
-3.34
-5.97
-9.69
-12.98
-14.22
-12.24
-6.68
2.06
13.08
25.39
38.14
50.72
62.84
74.38
85.28
95.47
104.63
112.32
118.06
121.59
123.12
123.31
123.14
123.61
125.57
129.51
135.49
142.71
149.32
152.65
150.05
140.04
123.24
102.19
80.28
60.02
41.93
24.7
6.45
-13.66
-34.44
-53.18
-67.13
-75.05
-77.72
-77.32
-76.23
-75.95
-76.86
-78.34
-79.43
-79.17
-77.13
-73.57
-69.53
-66.62
-66.45
-69.91
-76.64
-84.99
-92.71
-97.81
-99.44
-98.21
-96.02
-95.57
-99.82
-111.44
-132.1
-161.51
-196.66
-231.42
-257.41
-266.17
-252.28
-215.96
-163.92
-107.42
-57.97
-22.86
-2.64
8.06
16.89
29.64
47.77
68.86
89.01
105.33
116.91
124.16
127.42
126.43
120.7
110.77
98.67
87.39
79.57
76.33
76.84
79.14
81.13
81.44
79.62
75.99
71.28
66.36
62.05
58.97
57.56
57.99
60.24
64.06
68.85
73.67
77.36
78.79
77.16
72.17
63.95
52.82
39.15
23.26
5.63
-12.79
-30.62
-46.36
-58.88
-67.82
-73.73
-77.76
-81.28
-85.55
-91.43
-99.25
-108.59
-118.21
-126.05
-129.61
-126.59
-115.8
-97.67
-74.42
-49.34
-25.85
-6.36
8.22
18.47
25.87
32.04
38.1
44.51
51.12
57.64
63.89
69.87
75.61
81
85.69
89.13
90.71
89.98
86.84
81.57
74.63
66.54
57.56
47.58
36.17
22.81
7.32
-9.78
-27.08
-42.52
-53.88
-59.56
-59.22
-54.07
-46.61
-39.93
-36.75
-38.59
-45.32
-55.15
-65.16
-72.08
-73.04
-66.23
-51.4
-29.98
-4.76
20.63
42.64
58.61
67.22
68.65
64.21
55.78
45.35
34.7
25.19
17.69
12.55
9.57
8.22
7.83
7.93
8.44
9.6
11.83
15.45
20.51
26.62
33.1
39.03
43.53
46.04
46.45
45.19
42.95
40.32
37.36
33.66
28.52
21.52
12.94
3.65
-5.14
-12.34
-17.13
-19.06
-17.96
-14.19
-8.93
-4.23
-2.74
-6.61
-16.36
-30.23
-44.49
-54.83
-58.01
-53.21
-42.01
-27.53
-12.92
-0.3
9.74
17.69
24.45
30.65
36.42
41.56
45.77
49
51.38
53.15
54.47
55.29
55.38
54.49
52.5
49.48
45.75
41.72
37.77
34.13
30.8
27.6
24.31
20.85
17.36
14.03
10.98
8.07
4.99
1.39
-2.87
-7.6
-12.37
-16.74
-20.44
-23.42
-25.78
-27.58
-28.82
-29.47
-29.49
-28.89
-27.71
-25.88
-23.21
-19.5
-14.74
-9.18
-3.38
2
6.32
9.12
10.3
10.05
8.88
7.48
6.52
6.53
7.61
9.45
11.38
12.69
12.87
11.74
9.49
6.49
3.17
-0.21
-3.59
-7.11
-11.04
-15.64
-20.98
-26.87
-32.87
-38.36
-42.68
-45.32
-46
-44.71
-41.86
-38.05
-34.06
-30.6
-28.12
-26.63
-25.69
-24.5
-22.26
-18.41
-12.73
-5.32
3.63
13.98
25.74
38.79
52.67
66.35
78.41
87.5
92.91
94.96
94.81
94
93.63
93.89
94
92.63
88.33
79.9
66.52
47.84
24.1
-3.62
-33.38
-62.93
-90.65
-116.54
-142.44
-170.97
-203.55
-238.56
-270.68
-292.2
-295.73
-277.13
-236.92
-179.72
-112.1
-40.26
31.22
99.09
160.46
212.14
250.87
274.48
282.84
277.97
262.96
240.41
211.46
175.88
133.4
85.22
34.66
-13.39
-54.11
-84.48
-104.36
-116.24
-123.97
-130.97
-138.87
-146.9
-152.44
-152.21
-143.68
-125.98
-100.08
-68.67
-35.62
-5.43
17.49
29.92
31.1
23.49
12.51
4.61
4.67
13.91
29.52
46.29
59.37
66.53
68.62
68.18
67.29
66.16
63.45
57.69
48.6
37.28
25.09
12.14
-3.35
-24.37
-53.69
-92.47
-139.97
-193.69
-249.78
-303.21
-347.98
-377.69
-387
-373.64
-339.76
-291.81
-238.56
-188.22
-145.95
-113.04
-87.66
-66.75
-47.57
-28.5
-8.66
12.87
37.55
67.12
102.65
143.42
186.26
226.05
257.39
276.56
283
279.12
268.95
256.29
243.15
229.7
214.82
197.11
175.39
148.67
115.57
74.35
23.8
-35.24
-98.27
-156.94
-200.51
-219.07
-207.36
-167.63
-109.9
-49.16
-0.36
26.77
30.54
16.8
-4.57
-24.06
-35.77
-38.1
-32.13
-19.38
-0.19
25.99
59.37
98.12
137.9
173.06
198.77
212.94
216.82
214.14
208.84
203.18
196.74
187.1
171.9
150.9
126.87
104.67
88.84
81
78.67
76.07
66.74
46.74
16.53
-19.42
-54.57
-83.38
-103.39
-115.63
-123.51
-131.21
-142.23
-158.84
-181.54
-208.6
-235.79
-256.82
-265.03
-255.8
-228.52
-187.06
-138.09
-88.26
-41.68
0.78
40.16
77.06
109.92
135.14
148.78
148.77
136.19
114.8
89.19
62.94
37.51
12.51
-12.91
-38.59
-62.8
-82.65
-95.4
-99.46
-94.7
-82.1
-62.97
-38.53
-9.92
21.46
53.77
84.73
112.14
134.28
150.08
158.99
160.81
155.61
143.88
126.78
106.16
84.31
63.37
44.73
28.91
15.65
4.42
-5.23
-13.36
-19.78
-24.26
-26.79
-27.72
-27.55
-26.77
-25.69
-24.32
-22.45
-19.97
-16.86
-13.41
-10.07
-7.3
-5.44
-4.62
-4.72
-5.51
-6.74
-8.26
-10.06
-12.15
-14.52
-17.03
-19.56
-22.14
-25.06
-28.89
-34.12
-40.98
-49.17
-57.99
-66.64
-74.52
-81.38
-87.18
-91.88
-95.2
-96.65
-95.8
-92.57
-87.41
-81.12
-74.55
-68.3
-62.41
-56.51
-50.07
-42.73
-34.59
-26.19
-18.26
-11.37
-5.73
-1.09
3.05
7.11
11.16
14.96
18.07
20.21
21.33
21.59
21.2
20.28
18.87
17.03
14.95
12.89
10.95
8.88
6.04
1.67
-4.67
-12.72
-21.5
-29.66
-36.03
-40.08
-41.9
-41.92
-40.44
-37.35
-32.25
-24.85
-15.38
-4.68
6.04
15.67
23.59
29.74
34.32
37.53
39.25
39.22
37.32
33.82
29.43
25.03
21.3
18.5
16.4
14.45
12.15
9.19
5.56
1.43
-2.92
-7.19
-11.09
-14.39
-16.84
-18.37
-19.06
-19.11
-18.75
-18.1
-17.1
-15.55
-13.18
-9.78
-5.3
0.14
6.28
12.81
19.42
25.85
31.87
37.35
42.21
46.37
49.76
52.25
53.77
54.27
53.8
52.51
50.64
48.48
46.29
44.3
42.6
41.08
39.48
37.52
35
31.94
28.52
25.05
21.72
18.55
15.36
11.9
8.04
3.86
-0.29
-3.92
-6.54
-7.85
-7.89
-7.12
-6.25
-6.05
-7.06
-9.42
-12.87
-16.88
-20.9
-24.48
-27.35
-29.3
-30.23
-30.02
-28.56
-25.83
-21.82
-16.56
-10.21
-3.22
3.64
9.37
12.97
13.88
12.17
8.57
4.11
-0.26
-3.93
-6.7
-8.63
-9.82
-10.33
-10.16
-9.33
-7.91
-6.04
-3.91
-1.72
0.29
1.96
3.19
4.01
4.61
5.28
6.37
8.23
11.09
15.02
19.78
24.76
28.86
30.79
29.37
24.1
15.43
4.71
-6.18
-15.46
-21.88
-24.96
-24.84
-21.95
-16.78
-9.73
-1.25
8.1
17.47
25.92
32.61
37.05
39.23
39.58
38.79
37.46
35.97
34.31
32.23
29.5
26.03
21.93
17.47
12.95
8.68
4.92
1.8
-0.72
-2.87
-4.99
-7.34
-9.91
-12.41
-14.42
-15.65
-16.18
-16.49
-17.15
-18.56
-20.61
-22.76
-24.25
-24.46
-23.09
-20.3
-16.57
-12.64
-9.35
-7.41
-7.35
-9.4
-13.4
-18.91
-25.27
-31.72
-37.41
-41.58
-43.58
-43.1
-40.31
-35.9
-30.9
-26.41
-23.09
-20.99
-19.51
-17.71
-14.77
-10.3
-4.51
1.97
8.36
14.06
18.85
22.85
26.43
29.99
33.83
38.07
42.76
47.99
53.95
60.93
69.19
78.75
89.25
99.95
109.84
117.92
123.28
125.1
122.64
115.29
102.85
85.8
65.62
44.52
25.03
9.25
-1.75
-8.14
-11.02
-11.86
-11.94
-12.08
-12.63
-13.66
-15.18
-17.17
-19.53
-22.01
-24.2
-25.7
-26.37
-26.32
-25.92
-25.57
-25.52
-25.87
-26.69
-28.11
-30.34
-33.46
-37.22
-40.91
-43.5
-44.1
-42.3
-38.45
-33.45
-28.45
-24.35
-21.59
-20.16
-19.79
-20.19
-21.16
-22.65
-24.6
-26.9
-29.34
-31.57
-33.28
-34.17
-34.04
-32.85
-30.72
-27.94
-24.86
-21.92
-19.38
-17.34
-15.65
-13.97
-11.97
-9.38
-6.08
-2.13
2.27
6.82
11.11
14.76
17.37
18.69
18.66
17.4
15.19
12.37
9.35
6.52
4.16
2.38
1.04
-0.2
-1.65
-3.46
-5.46
-7.15
-8.11
-8.21
-7.79
-7.59
-8.32
-10.3
-13.41
-17.24
-21.54
-26.53
-32.64
-40.15
-48.61
-56.7
-62.56
-64.56
-62.01
-55.44
-46.34
-36.38
-26.74
-17.86
-9.6
-1.62
6.11
13.34
19.57
24.35
27.45
28.8
28.41
26.26
22.33
16.7
9.75
2.12
-5.4
-12.02
-17.24
-20.78
-22.63
-22.93
-21.88
-19.69
-16.68
-13.24
-9.82
-6.84
-4.52
-2.8
-1.45
-0.13
1.34
2.88
4.11
4.58
3.96
2.34
0.26
-1.41
-1.72
-0.01
3.84
9.36
15.55
21.04
24.45
24.68
21.36
15.03
7.08
-0.61
-6.18
-8.27
-6.26
-0.25
9.19
21.25
35.1
49.88
64.69
78.54
90.44
99.47
105.01
106.9
105.55
101.96
97.33
92.59
87.85
82.27
74.42
63.04
47.78
29.53
10.22
-7.92
-23.01
-34.02
-40.74
-43.59
-43.26
-40.55
-36.28
-31.29
-26.4
-22.22
-19.09
-17.02
-15.69
-14.58
-13.18
-11.14
-8.42
-5.46
-3.01
-1.93
-2.95
-6.35
-11.88
-18.81
-26.15
-32.98
-38.67
-43.04
-46.35
-49.18
-52.18
-55.78
-60.07
-64.59
-68.52
-70.85
-70.64
-67.31
-60.86
-51.79
-41.03
-29.62
-18.41
-7.92
1.69
10.46
18.43
25.48
31.38
36.05
39.76
43.33
47.94
54.63
63.73
74.55
85.65
95.41
102.6
106.66
107.48
105.01
98.96
88.92
74.67
56.59
35.81
13.86
-7.72
-27.68
-45.2
-59.71
-70.78
-78.13
-81.7
-81.79
-79.1
-74.62
-69.41
-64.38
-60.09
-56.63
-53.53
-50.02
-45.35
-39.1
-31.45
-23.09
-14.89
-7.61
-1.63
3.07
6.68
9.42
11.4
12.6
12.94
12.24
10.29
6.84
1.82
-4.46
-11.25
-17.5
-22.23
-24.94
-25.9
-25.84
-25.61
-25.71
-26.09
-26.3
-25.87
-24.6
-22.66
-20.5
-18.55
-17.09
-16.17
-15.71
-15.5
-15.4
-15.28
-15.08
-14.78
-14.4
-13.91
-13.21
-12.16
-10.64
-8.67
-6.48
-4.47
-3.01
-2.35
-2.45
-3.01
-3.58
-3.8
-3.44
-2.52
-1.26
0.09
1.18
1.72
1.47
0.18
-2.28
-5.8
-10.05
-14.37
-18.03
-20.47
-21.53
-21.56
-21.31
-21.63
-23.05
-25.61
-28.77
-31.62
-33.26
-33.07
-30.82
-26.71
-21.17
-14.73
-7.78
-0.53
7.05
15
23.23
31.4
38.85
44.87
49.01
51.33
52.47
53.42
55.17
58.35
63.13
69.15
75.83
82.52
88.69
94.02
98.41
102.04
105.18
108.01
110.28
111.07
108.86
101.92
88.99
69.94
46.03
19.71
-6.02
-28.41
-45.55
-56.64
-61.75
-61.56
-56.96
-48.82
-37.97
-25.23
-11.55
2.03
14.36
24.36
31.17
34.42
34.27
31.35
26.64
21.1
15.39
9.74
3.9
-2.7
-10.78
-20.97
-33.75
-49.32
-67.47
-87.48
-107.98
-127.12
-142.87
-153.61
-158.6
-158.24
-153.66
-146.22
-136.73
-125.3
-111.62
-95.58
-77.92
-60.31
-44.96
-33.8
-27.81
-26.68
-29.11
-33.37
-37.86
-41.41
-43.3
-42.97
-39.95
-33.88
-24.77
-13.33
-1.03
10.17
18.39
22.59
22.97
20.94
18.58
18
20.59
26.72
35.8
46.57
57.54
67.31
74.7
78.85
79.32
76.01
69.3
59.97
49.08
37.88
27.57
19.15
13.31
10.31
9.98
11.72
14.69
17.86
20.43
21.9
22.27
21.85
21.1
20.36
19.76
19.25
18.72
18.19
17.77
17.54
