-0.14
-16.89
-31.24
-41.63
-47.29
-48.15
-44.52
-36.95
-26.21
-13.52
-0.57
10.64
18.36
21.64
20.66
16.67
11.59
7.26
5
5.34
8.06
12.5
17.91
23.63
29.14
34.02
37.84
40.31
41.33
41.17
40.42
39.75
39.63
40.13
40.85
41.23
40.73
39
35.93
31.64
26.41
20.66
15.11
10.65
8.18
8.23
10.73
14.95
19.83
24.43
28.19
31.1
33.36
35.17
36.54
37.31
37.35
36.77
35.95
35.44
35.67
36.74
38.39
40.18
41.68
42.63
42.91
42.44
40.82
37.38
31.18
21.39
7.74
-9.25
-28.17
-47.03
-63.73
-76.6
-84.66
-87.78
-86.48
-81.57
-73.99
-64.51
-53.8
-42.42
-31.02
-20.39
-11.4
-4.81
-0.87
0.85
1.33
1.74
2.88
4.67
6.16
5.94
2.81
-3.54
-12.33
-21.95
-30.78
-37.88
-43.45
-48.66
-54.99
-63.34
-73.43
-83.8
-92.07
-95.58
-91.84
-78.77
-55.02
-20.42
23.46
72.93
122.38
165.6
197.58
216.16
222.5
219.83
211.48
198.72
180.52
154.63
119.67
76.77
29.6
-16.91
-58.46
-92.49
-118.22
-135.66
-144.75
-145.21
-137.05
-121.32
-100.31
-76.96
-53.99
-33.17
-15.11
0.36
13.68
25.27
35.08
42.57
46.49
45.08
36.63
20.48
-2.24
-28.37
-53.42
-73
-84.3
-86.87
-82.58
-74.59
-66.05
-58.91
-53.67
-49.59
-45.64
-41.14
-36.08
-31.04
-26.66
-23.34
-21.02
-19.45
-18.34
-17.61
-17.23
-17.06
-16.65
-15.37
-12.76
-8.72
-3.85
0.83
4.16
5.3
3.95
0.42
-4.72
-10.81
-17.42
-24.29
-31.15
-37.49
-42.46
-45.07
-44.6
-40.94
-34.88
-27.83
-21.45
-17.07
-15.24
-15.7
-17.56
-19.69
-21.13
-21.33
-20.16
-17.74
-14.34
-10.18
-5.44
-0.28
4.98
9.76
13.2
14.36
12.56
7.79
0.9
-6.51
-12.55
-15.78
-15.75
-13.09
-9.08
-4.93
-1.3
1.82
4.58
6.82
7.82
6.59
2.53
-4.08
-11.9
-19.07
-24.01
-26.17
-26.17
-25.54
-25.8
-27.81
-31.17
-34.26
-34.71
-30.29
-19.74
-3.26
17.37
39.15
58.99
74.97
87.45
99.79
117.62
146.78
190.76
248.48
313.83
377.22
428.74
461.33
472.69
465.4
445.62
421.12
399.51
386.46
384.24
390.93
400.66
405.49
398.35
375.65
338.16
290.14
236.59
180.99
124.32
65.92
5.47
-55.58
-113.67
-164.41
-204.32
-232.32
-249.65
-259.39
-265.04
-269.51
-274.63
-281.25
-289.75
-300.29
-313.09
-327.98
-344.23
-360.49
-374.91
-385.76
-391.77
-392.5
-388.54
-381.23
-372.17
-362.49
-352.5
-341.48
-328.67
-314.26
-300.03
-289.01
-284.31
-287.64
-298.55
-314.09
-329
-336.7
-330.56
-305.5
-259.61
-195.24
-118.96
-40.1
31.82
89.66
130.15
153.79
163.4
162.54
154.39
141.55
126.32
111.14
98.33
89.74
86.29
87.69
92.59
99.06
105.35
110.63
115.25
120.34
127.01
135.57
144.97
153.02
157.21
155.81
148.59
137.03
123.72
111.33
101.71
95.27
90.94
86.56
79.47
67.2
48.24
22.77
-7.13
-37.79
-65.04
-85.55
-98.01
-103.38
-104.27
-103.38
-102.25
-100.68
-97.11
-89.84
-78.34
-63.75
-48.57
-35.6
-26.69
-21.98
-19.88
-17.86
-13.45
-5.26
6.43
19.52
30.6
36.04
33.42
22.46
5.4
-13.86
-31.37
-44.48
-52.49
-56.19
-56.69
-54.42
-49.07
-40.4
-29.36
-18.67
-12.13
-13.11
-22.89
-39.71
-59.34
-76.44
-86.6
-87.64
-80.31
-67.51
-53.1
-40.42
-31.35
-25.99
-23.09
-20.7
-17.11
-11.5
-3.99
4.72
13.96
23.77
34.97
48.7
65.51
84.65
103.93
120.35
130.97
133.7
127.88
114.65
97.08
79.83
68.19
66.7
77.87
101.29
133.59
169.52
203.17
229.62
245.94
251.56
248.04
238.47
226.48
214.89
204.82
194.91
181.51
159.78
124.85
72.62
0.33
-92.9
-205.08
-330.01
-457.12
-572.84
-663.76
-720.58
-740.97
-729.93
-697.35
-654.01
-608.02
-563.38
-520.74
-479.52
-439.78
-402.53
-369.21
-340.5
-315.77
-293.45
-271.97
-250.57
-229.4
-209.41
-191.46
-175.69
-161.43
-147.35
-132.11
-114.99
-96.11
-76.25
-56.41
-37.28
-18.84
-0.48
18.59
38.9
60.38
82.33
103.81
124.04
142.73
160.15
176.82
193.19
209.32
224.9
239.5
252.8
264.91
276.27
287.62
299.91
314.3
331.95
353.51
378.26
403.51
424.68
436.54
435.12
419.5
392.45
359.52
326.79
298.66
276.61
259.52
244.97
230.87
216.18
200.8
184.72
167.31
147.46
124.39
98.83
73.49
52.7
40.59
39.06
46.41
57.36
64.77
61.98
45.02
13.45
-30.16
-81.21
-134.03
-182.26
-218.93
-236.79
-229.69
-194.66
-134.24
-57.25
22.63
90.38
134.13
148.49
135.39
102.43
59.18
13.81
-28.54
-65.31
-94.78
-114.57
-121.42
-112.71
-88.21
-51.34
-8.57
32.6
66.01
88.4
99.73
102.2
98.55
90.86
80.06
66.33
50
32.16
14.78
0.27
-9.44
-13.6
-13.01
-9.6
-5.68
-2.9
-1.89
-2.14
-2.67
-2.68
-2.02
-1.19
-0.88
-1.53
-2.92
-4.25
-4.31
-2.07
3.01
10.73
20.15
29.96
38.88
46.11
51.49
55.44
58.69
61.88
65.36
69.13
73.01
76.86
80.62
84.23
87.56
90.25
91.85
91.89
90.17
86.87
82.62
78.37
75.02
73.1
72.41
72.06
70.83
67.71
62.48
55.83
49.02
43.32
39.27
36.62
34.54
32.35
30.07
28.51
28.84
31.91
37.94
46.61
57.62
70.87
86.3
103.21
119.63
132.39
137.96
133.7
118.64
93.39
59.22
17.42
-30.63
-82.58
-134.08
-178.97
-210.61
-224.39
-219.53
-199.58
-170.89
-140.28
-112.81
-90.88
-74.57
-62.72
-54.07
-47.65
-42.72
-38.55
-34.32
-29.24
-22.84
-15.17
-6.91
0.88
7.06
10.78
11.78
10.5
7.86
5.06
3.08
2.41
2.96
4.23
5.64
6.82
7.81
9.03
10.96
13.91
17.78
22.01
25.79
28.26
28.83
27.35
24.04
19.4
14.01
8.34
2.75
-2.52
-7.19
-10.93
-13.28
-13.91
-12.66
-9.76
-5.83
-1.65
1.99
4.57
5.89
6.1
5.54
4.6
3.62
2.84
2.45
2.57
3.29
4.59
6.38
8.5
10.74
12.94
14.94
16.61
17.9
18.79
19.37
19.79
20.16
20.48
20.65
20.52
19.91
18.72
16.83
14.21
10.86
6.95
2.84
-0.9
-3.69
-5.24
-5.71
-5.67
-5.89
-6.96
-9.15
-12.35
-16.25
-20.52
-24.88
-29.04
-32.67
-35.29
-36.53
-36.25
-34.71
-32.56
-30.48
-28.95
-27.92
-26.91
-25.21
-22.19
-17.57
-11.5
-4.39
3.22
10.85
18.05
24.4
29.42
32.67
33.87
32.97
30.19
25.95
20.61
14.44
7.57
0.07
-7.9
-15.98
-23.65
-30.41
-35.93
-40.2
-43.5
-46.25
-48.83
-51.4
-53.92
-56.15
-57.8
-58.63
-58.55
-57.55
-55.67
-52.93
-49.21
-44.3
-38.09
-30.63
-22.24
-13.55
-5.28
1.89
7.5
11.38
13.6
14.3
13.68
11.87
8.97
5.14
0.59
-4.34
-9.24
-13.69
-17.38
-20.2
-22.26
-23.86
-25.36
-27.12
-29.34
-32.05
-35.15
-38.45
-41.73
-44.81
-47.46
-49.42
-50.34
-49.88
-47.78
-44.06
-39.04
-33.27
-27.35
-21.8
-16.85
-12.58
-8.92
-5.8
-3.2
-1.15
0.4
1.53
2.39
3.17
3.95
4.73
5.43
5.96
6.22
6.15
5.75
4.99
3.89
2.38
0.4
-2.05
-4.81
-7.61
-10.03
-11.68
-12.21
-11.49
-9.6
-6.86
-3.68
-0.48
2.38
4.75
6.56
7.89
8.76
9.16
8.93
7.91
5.96
3.11
-0.48
-4.49
-8.5
-12.16
-15.21
-17.57
-19.42
-21.04
-22.72
-24.72
-27.08
-29.71
-32.33
-34.67
-36.38
-37.22
-36.91
-35.3
-32.32
-28.06
-22.78
-16.86
-10.77
-4.95
0.22
4.53
7.9
10.4
12.2
13.5
14.46
15.23
15.86
16.34
16.68
16.9
17.02
17.09
17.07
16.92
16.59
16
15.09
13.78
11.98
9.62
6.71
3.41
0.13
-2.54
-3.89
-3.39
-0.87
3.34
8.56
13.97
18.88
23.01
26.42
29.35
31.93
34.06
35.38
35.5
34.23
31.76
28.63
25.52
22.96
21.13
19.97
19.14
18.26
16.9
14.51
10.44
4.02
-5.04
-16.3
-28.43
-39.52
-47.84
-52.49
-53.73
-52.69
-50.66
-48.4
-45.96
-43.06
-39.58
-35.98
-33.07
-31.48
-31.16
-31.36
-30.97
-29.3
-26.37
-22.89
-19.73
-17.42
-15.84
-14.34
-12.18
-8.95
-4.91
-0.88
2.08
3.1
1.84
-1.37
-5.67
-10.01
-13.49
-15.67
-16.66
-16.95
-17.24
-18.19
-20.15
-23.18
-27.01
-31.12
-34.87
-37.61
-38.71
-37.77
-34.61
-29.46
-22.95
-15.98
-9.56
-4.46
-1.11
0.54
0.75
-0
-1.29
-2.82
-4.37
-5.85
-7.24
-8.67
-10.3
-12.36
-14.85
-17.6
-20.29
-22.55
-24.19
-25.31
-26.29
-27.62
-29.68
-32.61
-36.18
-40
-43.61
-46.62
-48.77
-49.89
-49.91
-48.76
-46.42
-42.84
-38.05
-32.04
-24.8
-16.38
-6.88
3.43
14.13
24.77
34.86
43.99
51.84
58.16
62.84
66.01
68.01
69.34
70.47
71.62
72.64
73.07
72.39
70.27
66.8
62.39
57.49
52.39
47.1
41.54
35.61
29.43
23.16
17.04
11.25
6.08
2.14
0.31
1.65
6.81
15.79
27.69
41.11
54.59
67.07
78.15
87.89
96.62
104.68
112.22
119.13
125.04
129.26
130.91
129.17
123.57
114.28
102.03
87.86
72.59
56.56
39.6
21.43
2.07
-17.98
-37.72
-56.1
-72.26
-85.79
-96.43
-103.95
-107.95
-107.98
-103.83
-95.77
-84.65
-71.68
-58.11
-44.93
-32.75
-21.9
-12.61
-5.22
-0.12
2.33
2.04
-0.66
-5.01
-9.91
-14.17
-16.82
-17.33
-15.63
-12.17
-7.72
-3.23
0.21
1.59
-0.02
-5.15
-13.83
-25.33
-38.17
-50.34
-59.69
-64.57
-64.21
-58.97
-50.07
-39.15
-27.72
-16.78
-6.8
2.15
10.02
16.67
21.88
25.51
27.63
28.6
28.83
28.64
28.07
26.97
25.15
22.57
19.45
16.1
12.83
9.75
6.79
3.78
0.57
-3.01
-7.09
-11.85
-17.38
-23.54
-29.76
-35.12
-38.45
-38.87
-35.98
-30.05
-21.89
-12.48
-2.72
6.76
15.55
23.36
29.87
34.76
37.85
39.18
39.04
37.93
36.31
34.5
32.58
30.41
27.82
24.76
21.35
17.96
15.02
12.81
11.34
10.32
9.26
7.61
5
1.3
-3.31
-8.42
-13.45
-17.78
-20.76
-21.85
-20.71
-17.3
-11.92
-5.15
2.29
9.75
16.76
23.06
28.59
33.29
37.07
39.79
41.27
41.52
40.76
39.41
37.98
36.83
36
35.28
34.34
32.85
30.8
28.38
25.95
23.78
21.97
20.32
18.46
16
12.62
8.35
3.47
-1.35
-5.28
-7.45
-7.29
-4.71
-0.14
5.54
11.4
16.69
21.08
24.61
27.52
29.93
31.79
32.85
32.76
31.33
28.63
24.94
20.71
16.49
12.73
9.78
7.81
6.75
6.32
6.13
5.74
4.87
3.48
1.78
0.16
-0.99
-1.54
-1.61
-1.57
-1.88
-2.81
-4.25
-5.83
-7.07
-7.57
-7.25
-6.23
-4.77
-3.04
-1.09
1.11
3.6
6.25
8.98
11.71
14.43
17.22
20.17
23.2
26
28.09
29.04
28.78
27.59
26.13
25.13
25.17
26.39
28.4
30.47
31.83
32.12
31.39
30.02
28.48
27.15
26.11
25.06
23.51
21.07
18.16
15.39
13.29
12.12
11.85
12.28
13.13
14.19
15.26
16.91
19.06
21
21.99
22.1
22.44
24.55
29.42
36.83
46.59
57.27
66.94
74.35
79.78
84.75
90.9
98.82
107.65
116.98
125.02
129.01
126.27
115.43
96.71
71.64
42.43
1.78
-48.94
-100.92
-142.41
-165.95
-171.05
-162.24
-145.82
-127.46
-111.09
-96.87
-84.14
-72.39
-61.61
-51.71
-42.64
-33.85
-26.6
-22.43
-21.14
-22.45
-26.29
-33.01
-42.93
-56.5
-74.4
-95.57
-118.83
-142.56
-165.9
-188.56
-209.61
-226.09
-233.04
-225.14
-199.58
-158.43
-108.4
-58.95
-18.95
6.77
18.77
21.57
20.59
19.48
18.88
17.69
14.9
10.46
5.58
1.76
-0.13
-0.09
1.54
4.44
8.34
13.91
20.73
26.99
29.87
26.88
17.33
3.02
-12.37
-24.68
-30.89
-30.18
-23.69
-13.67
-2.62
7.26
14.16
16.79
14.7
8.79
1.3
-4.75
-6.63
-3.03
5.39
16.25
26.39
33.07
35
32.6
27.64
22.49
19.26
19.21
22.55
28.9
37.01
45.26
52.09
56.12
56.4
52.52
44.8
34.38
23.18
13.41
7.13
5.69
9.27
16.84
26.44
35.77
42.74
46.01
45.19
40.8
33.88
25.5
16.52
7.53
-0.98
-8.35
-13.69
-16.05
-14.59
-8.84
0.98
13.99
28.75
43.7
57.48
69.19
78.21
83.89
85.1
80.25
67.92
47.71
21.06
-8.73
-37.25
-60.38
-75.46
-81.97
-81.06
-74.9
-65.72
-55.36
-45.23
-36.53
-30.31
-27.27
-27.55
-30.47
-34.54
-38.05
-39.58
-38.6
-35.61
-31.9
-28.89
-27.5
-27.79
-29.07
-30.32
-30.74
-30.08
-28.7
-27.26
-26.49
-27.02
-29.37
-33.92
-40.79
-49.65
-59.7
-69.81
-79.03
-86.92
-93.74
-100.15
-106.55
-112.73
-117.65
-120.03
-118.9
-114.22
-106.82
-97.96
-88.71
-79.42
-69.85
-59.51
-48.19
-36.24
-24.58
-14.3
-6.26
-0.66
3.04
5.97
9.5
14.83
22.63
32.77
44.32
55.79
65.63
72.69
76.51
77.43
76.35
74.28
71.85
69.18
65.84
61.06
54.14
44.66
32.8
19.38
5.71
-6.73
-16.74
-23.8
-28.14
-30.46
-31.44
-31.19
-29.2
-24.62
-16.9
-6.44
5.24
15.9
23.4
26.44
25.09
20.56
14.67
9.13
5.02
2.71
2.12
3.1
5.64
9.9
15.9
23.35
31.53
39.46
46.16
50.95
53.65
54.67
54.87
55.28
56.69
59.33
62.71
65.75
67.26
66.42
63.24
58.53
53.52
49.25
46.12
43.77
41.28
37.8
32.84
26.53
19.32
11.69
3.85
-4.29
-12.84
-21.64
-30.12
-37.52
-43.12
-46.72
-48.68
-49.8
-50.97
-52.81
-55.4
-58.36
-61.01
-62.53
-62.27
-59.82
-55.13
-48.57
-40.82
-32.69
-24.84
-17.63
-11.07
-4.97
0.76
5.98
10.23
13.08
14.35
14.31
13.63
13.02
12.91
13.17
13.3
12.73
11.19
8.93
6.55
4.68
3.65
3.34
3.26
2.8
1.5
-0.77
-3.88
-7.47
-11.09
-14.18
-16.11
-16.27
-14.23
-9.91
-3.72
3.55
10.92
17.49
22.69
26.29
28.39
29.29
29.39
29.06
28.63
28.33
28.25
28.32
28.38
28.24
27.73
26.79
25.47
23.93
22.33
20.74
18.94
16.25
11.56
3.68
-8.19
-23.84
-41.92
-60.14
-76.01
-87.66
-94.38
-96.63
-95.45
-91.81
-86.13
-78.31
-68.25
-56.31
-43.58
-31.51
-21.42
-13.83
-8.4
-4.21
-0.31
3.78
7.95
11.8
15.06
17.88
20.79
24.36
28.78
33.71
38.35
41.76
43.24
42.6
40.17
36.62
32.62
28.67
24.88
21.07
16.82
11.77
5.66
-1.43
-9.17
-16.95
-24.01
-29.55
-32.96
-33.92
-32.43
-28.77
-23.33
-16.51
-8.69
-0.29
8.18
16.04
22.62
27.52
30.65
32.37
33.22
33.68
33.98
34.1
33.91
33.33
32.44
31.38
30.26
29.05
27.58
25.7
23.29
20.41
17.17
13.75
10.19
6.48
2.62
-1.32
-5.07
-8.3
-10.64
-11.85
-11.86
-10.74
-8.63
-5.61
-1.67
3.24
9.11
15.72
22.56
28.93
34.12
37.59
39.16
38.99
37.56
35.43
33.16
31.15
29.6
28.55
27.83
27.16
26.21
24.73
22.64
20.03
17.17
14.3
11.52
8.76
5.79
2.34
-1.81
-6.74
-12.39
-18.47
-24.47
-29.59
-32.98
-33.87
-31.9
-27.31
-20.98
-14.11
-7.88
-3.02
0.34
2.62
4.45
6.29
8.24
9.99
11.02
10.92
9.62
7.47
5.03
2.8
0.98
-0.54
-2.04
-3.66
-5.26
-6.44
-6.81
-6.27
-5.14
-4.1
-3.83
-4.67
-6.49
-8.85
-11.29
-13.58
-15.84
-18.24
-20.69
-22.67
-23.23
-21.52
-17.08
-10.23
-1.92
6.61
14.29
20.46
24.91
27.73
29.04
28.86
27.2
24.15
19.96
15.1
10.13
5.65
2.13
-0.12
-1.16
-1.42
-1.72
-3
-6.02
-10.95
-17.21
-23.64
-29.01
-32.6
-34.64
-36.36
-39.54
-45.71
-55.3
-67.26
-79.17
-88.03
-91.33
-88.23
-80.05
-69.97
-61.79
-58.44
-60.6
-66.32
-71.9
-73.16
-67.06
-52.54
-30.58
-3.87
23.69
47.62
64.01
71.24
71.39
70.73
77.66
98.78
134.9
179.49
220.63
246.1
248.54
228.11
191.58
148.35
105.93
67.41
31.81
-3.44
-39.93
-77.35
-114.41
-150.3
-185.08
-218.59
-248.69
-269.98
-274.69
-255.43
-208.42
-136.15
-47.21
46.23
132.18
201.84
250.78
278.55
287.75
283.41
271.75
259.48
252.59
254.86
266.98
286.58
309.37
330.68
346.9
355.05
352.74
338.35
311.46
273.27
226.57
175.21
123.12
73.52
27.29
-16.53
-59.13
-100.68
-139.76
-173.88
-200.52
-222.04
-238.1
-247.43
-249.28
-243.98
-232.98
-217.53
-198.71
-177.62
-155.16
-133.51
-116.21
-106.54
-105.45
-112.45
-125.98
-143.98
-163.99
-182.84
-196.23
-200.88
-195.3
-179.32
-155.98
-130.2
-106.63
-87.27
-71.47
-58.16
-48.4
-46.01
-54.33
-76.27
-111.67
-156.14
-201.54
-235.69
-247.57
-234.56
-212.31
-192.55
-180.64
-173.67
-166.38
-151.95
-125.27
-86.24
-40.33
3.89
39.84
63.24
73.41
72.52
64.34
52.09
37.01
19.07
-1.02
-19.43
-31.64
-33.96
-24.98
-5.62
21.2
51.37
81.2
108.82
135.39
163.4
195.49
233.14
275.75
319.75
358.85
385.62
394.21
383
354.94
316.47
275.28
237.84
207.78
185.82
170.96
161.9
157.8
157.63
159.42
159.94
155.52
143.34
122.72
95.32
64.27
32.41
0.76
-31.8
-67.58
-108.28
-153.32
-199.29
-240.95
-273.12
-292.75
-299.96
-297.7
-290.4
-282.28
-276.28
-273.66
-274.24
-276.59
-278.24
-275.76
-265.25
-243.43
-208.94
-163.33
-111.2
-59.21
-14.15
18.94
38.02
44.24
41.04
32.86
23.95
17.73
16.65
22.46
36.24
58.14
87.01
120.03
153.06
181.56
201.74
211.51
210.76
201.02
184.81
164.99
144.24
124.76
108.14
95.21
86.11
80.48
77.85
77.84
80.27
84.83
91.13
98.66
107.16
116.71
127.49
139.23
150.62
159.26
162.29
157.57
144.78
125.76
104.04
83.73
68.36
60.27
60.52
68.99
84.51
104.63
125.62
143.07
153.21
154.45
148.34
139.06
131.59
129.13
131.5
135.23
135.57
129.19
116.11
99.71
84.93
75.78
73.58
76.79
82.35
87.47
90.75
92.16
92.11
90.66
87.36
81.74
74.12
65.73
58.27
52.98
49.98
48.24
46.23
42.71
37.23
30.12
22.01
13.37
4.37
-4.99
-14.67
-24.43
-34
-43.24
-52.44
-62.07
-72.68
-84.43
-97.04
-109.85
-122.09
-133.13
-142.47
-149.61
-154.02
-155.42
-154.22
-151.88
-150.78
-153.47
-161.71
-175.72
-194.15
-214.71
-235.12
-253.82
-270.17
-284.15
-295.9
-305.54
-313.2
-319.26
-324.61
-330.56
-338.87
-351.55
-370.46
-396.48
-428.95
-465.58
-503
-537.65
-566.38
-586.72
-596.52
-593.9
-577.54
-547.54
-506.13
-457.69
-407.78
-361.38
-321.6
-289.04
-262.5
-240.09
-220.27
-202.18
-185.37
-169.37
-153.62
-137.65
-121.21
-104.45
-87.99
-72.55
-58.72
-46.81
-36.75
-28.21
-20.77
-14.06
-7.9
-2.32
2.63
6.93
10.71
14.23
17.76
21.41
25.08
28.41
30.9
32.04
31.61
29.71
26.76
23.39
20.2
17.67
15.98
15.12
14.97
15.56
17.11
20.02
24.74
31.52
40.31
50.67
61.93
73.46
84.93
96.46
108.57
121.94
137.07
154.02
172.35
191.35
210.2
228.34
245.6
262.09
278.31
295.12
313.71
335.33
360.33
387.36
412.95
432.25
440.5
434.84
415.32
384.74
347.38
307.53
268.47
232.23
199.99
172.43
149.75
131.49
116.36
102.64
88.73
73.92
58.61
44.06
31.75
22.82
17.63
15.79
16.55
19.21
23.49
29.47
37.23
46.51
56.51
66.06
74.08
80
83.78
85.76
86.37
85.97
85.07
84.52
85.38
88.41
93.36
98.7
101.96
100.67
93.44
80.63
64.21
46.99
31.64
19.96
12.75
9.88
10.69
14.13
18.83
23.08
24.98
22.75
15.38
2.96
-13
-29.73
-43.85
-52.42
-53.99
-49.36
-41.47
-34.48
-32.34
-37.21
-48.56
-63.2
-76.32
-82.92
-79.27
-63.7
-36.67
-0.47
41.17
83.43
120.51
146.09
154.4
141.63
107.57
56.37
-3.96
-63.36
-112.24
-143.89
-155.73
-149.23
-128.84
-100.27
-69.04
-39.44
-14.19
5.62
20.07
30.08
36.89
41.61
45.04
47.53
49.06
49.29
47.76
43.99
37.8
29.55
20.22
11.23
4.07
-0.26
-1.55
-0.41
2.11
5.04
7.94
10.85
14.08
17.67
21.21
23.96
25.23
24.87
23.37
21.6
20.39
20.1
20.65
21.73
23.13
24.82
26.78
28.72
30.17
30.72
30.45
30.08
30.64
32.88
36.69
41.06
44.5
45.81
44.53
40.99
35.87
29.63
22.31
13.65
3.64
-7.23
-17.68
-26.08
-30.79
-30.73
-25.67
-16.41
-4.71
7.14
16.85
22.82
24.62
23.07
19.86
16.88
15.58
16.58
19.62
23.55
26.39
25.34
17.3
-0.29
-28.35
-65.28
-107.25
-149.32
-187.14
-218.01
-241.12
-256.65
-265
-266.35
-260.89
-249.39
-233.41
-214.89
-195.35
-175.39
-154.81
-133.36
-111.36
-89.83
-69.95
-52.31
-36.59
-21.86
-7.32
7.07
20.55
32.04
40.99
48.02
54.99
64.34
77.77
95.14
114.05
130.52
140.41
141.1
132.42
116.63
97.51
78.93
63.79
53.52
48.29
47.36
49.66
53.95
59.03
63.87
67.58
69.41
68.46
63.69
54.26
40.13
22.65
4.55
-10.68
-20.12
-22.36
-17.93
-8.88
2.32
13.7
24.33
33.96
42.4
48.97
52.6
52.45
48.65
42.64
36.79
33.53
34.46
39.9
49.01
60.38
72.45
83.67
92.44
97.08
96.26
89.64
78.32
64.56
50.98
39.41
30.14
22.14
13.73
3.64
-8.51
-22.22
-36.59
-50.69
-63.67
-74.6
-82.32
-85.68
-84.01
-77.7
-68.35
-58.4
-50.32
-45.72
-44.87
-46.78
-49.73
-51.94
-52.18
-50.08
-46.01
-40.93
-35.95
-31.99
-29.53
-28.47
-28.29
-28.29
-27.94
-27.08
-25.97
-25.03
-24.59
-24.83
-25.83
-27.73
-30.86
-35.53
-41.66
-48.57
-54.95
-59.29
-60.45
-58.12
-52.76
-45.36
-36.86
-27.84
-18.64
-9.58
-1.36
4.96
8.39
8.54
6.24
3.43
2.66
5.92
13.65
24.3
34.94
42.65
45.94
45.38
43.12
41.49
41.57
42.75
43.42
42.31
39.67
37.38
37.9
42.76
51.48
61.66
70.13
74.51
74.29
70.93
66.93
64.65
65.27
68.43
72.59
75.57
75.13
69.38
57.11
38.12
13.44
-14.59
-42.72
-67.52
-86.23
-97.45
-101.3
-99.15
-93.02
-85.13
-77.47
-71.55
-68.27
-67.61
-68.59
-69.66
-69.22
-66.33
-61.15
-54.75
-48.54
-43.58
-40.29
-38.49
-37.78
-37.78
-38
-37.53
-34.77
-27.77
-14.91
4.49
29.93
60.39
94.97
133.31
174.93
218.08
258.72
290.63
306.94
302.51
275.99
230.52
172.7
110.33
50.22
-3.44
-49.13
-87.1
-118.23
-143.19
-162.34
-175.97
-184.91
-190.71
-195.39
-200.89
-208.66
-219.43
-233.34
-250.25
-269.54
-289.71
-308.01
-320.45
-323
-313.11
-291.05
-260.07
-225.25
-191.57
-162.23
-138.04
-117.76
-99.08
-79.29
-55.84
-26.53
9.8
52.54
98.87
144.15
183.35
212.89
231.82
241.76
245.67
246.34
245.37
243.01
238.67
231.53
220.68
205.29
184.84
159.63
131.19
102.06
74.65
49.84
26.12
0.12
-31.65
-70.44
-113.91
-156.42
-190.85
-211.23
-214.5
-201.12
-174.16
-137.95
-96.75
-53.89
-11.49
29.66
69.71
109.18
148.26
186.37
222.11
253.58
279.11
297.61
308.61
311.96
307.61
295.51
275.95
249.7
218.03
182.6
145.31
108.39
74.47
46.47
27.06
17.85
18.79
27.86
41.64
56.07
67.58
74.12
75.87
75.39
76.61
83.14
96.16
113.38
129.26
137.31
132.85
114.96
86.49
52.13
15.62
-22.04
-62.21
-106.31
-152.89
-196.33
-227.9
-238.91
-224.19
-184.21
-124.99
-56.02
12.36
71.2
114.09
137.22
139.25
121.19
86.35
39.79
-12.46
-64.8
-113.24
-155.96
-193.25
-227.19
-261.35
-299.86
-345.82
-399.22
-455.54
-506.05
-540.42
-550.71
-534.63
-496.72
-446.42
-394.26
-348.18
-311.7
-284.41
-263.88
-247.64
-233.91
-221.19
-207.53
-190.37
-167.22
-136.88
-100.23
-60.26
-21.23
12.72
38.77
56.04
65.44
68.86
68.2
64.82
59.53
53.46
48.96
49.74
59.81
81.37
112.93
148.94
181.81
205.23
217.33
221.63
225.36
235.95
257.83
291.04
332.1
376.08
418.37
455.36
484.4
503.6
511.96
509.74
498.5
480.41
457.29
429.83
397.57
359.49
314.87
264.52
211.86
163.32
127.4
112.07
121.15
151.5
192.73
230.3
250.98
247.74
221.66
180.21
132.81
86.61
44.6
6.33
-29.95
-65.45
-100.24
-133.79
-165.63
-195.8
-224.87
-253.61
-282.89
-313.35
-345.37
-379.12
-414.98
-454.04
-497.88
-547.53
-601.63
-654.97
-698.75
-722.97
-720.14
-688.5
-633.01
-563.42
-490.48
-422.16
-361.84
-308.59
-259.32
-211.04
-162.33
-113.57
-66.16
-21.51
19.6
57.26
92.38
126.19
159.91
194.89
232.83
275.67
324.66
378.84
433.74
481.58
513.02
520.6
501.66
459.42
401.5
336.61
270.98
206.66
142.47
76.99
11.35
-50.19
-102.25
-141.56
-169.03
-189.04
-206.18
-221.67
-232.08
-231.09
-213.94
-181.19
-139.56
-99.09
-68.52
-51.53
-46.1
-46.89
-48.69
-48.82
-47.35
-45.83
-46.09
-49.64
-57.98
-73.14
-97.17
-130.86
-172.27
-216.19
-255.1
-281.5
-290.21
-279.87
-252.76
-213.3
-166.01
-113.86
-57.88
2.19
66.07
131.23
192
240.62
269.97
276.97
264.84
242.65
222.11
212.82
218.48
235.93
257.51
274.96
282.72
278.89
264.05
239.37
205.78
164.6
119.06
74.98
39.84
20.32
19.74
36.51
64.58
95.59
121.52
136.97
140.11
132.34
116.99
97.9
78.22
59.81
43.27
28.24
13.94
-0.4
-15.12
-29.94
-43.91
-55.49
-62.99
-64.97
-60.81
-51.02
-37.31
-22.02
-7.28
5.86
17.81
29.98
43.75
59.34
75.4
89.46
99.15
103.41
102.99
100.12
97.41
96.89
99.34
104.22
110.01
114.83
116.98
115.3
109.37
99.27
85.35
68.03
48.01
26.37
4.62
-15.83
-34.57
-52.9
-73.61
-99.4
-130.85
-164.89
-195.05
-213.53
-214.13
-194.24
-155.3
-102.08
-41.29
19.04
69.99
102.31
108.06
82.82
27.54
-50.7
-139.91
-225.91
-295.77
-340.72
-358.06
-351.43
-329.27
-302.06
-278.81
-264.3
-257.89
-254.82
-249.2
-237.32
-219.39
-198.5
-178.08
-159.04
-138.65
-111.93
-74.54
-25.28
33.08
95.06
155.44
211.94
265.9
320.21
375.84
429.18
472.12
495.22
492.52
464.99
420.89
372.72
331.99
305.16
291.99
287.32
284.43
278.05
265.34
245.01
216.12
177.79
130.62
78.1
26.95
-14.82
-41.09
-50.51
-47.17
-38.21
-30.15
-25.94
-24.75
-23.97
-21.72
-18.12
-14.56
-12.25
-11.14
-10.51
-10.4
-12.82
-21.17
-38.57
-66.05
-101.83
-142.42
-184.61
-227.39
-272.17
-321.31
-375.61
-432.36
-484.94
-524.44
-542.89
-536.4
-506.66
-460.11
-404.99
-347.83
-291.57
-236
-180.38
-126.09
-77.07
-38.06
-11.76
3.22
11.78
19.6
30.23
43.5
56.12
64.12
65.21
59.82
50.17
38.32
24.73
8.45
-11.27
-33.2
-53.48
-66.81
-68.57
-56.85
-33.26
-2.07
31.78
64.86
96.48
128.59
164.24
205.92
254
306.11
357.8
403.54
437.91
456.65
457.4
439.73
405.1
356.43
297.82
234.22
170.97
112.97
63.74
24.55
-5.9
-30.91
-54.47
-79.48
-106.49
-133.33
-155.82
-169.53
-171.68
-162.18
-143.67
-120.47
-97.25
-77.87
-64.95
-59.67
-61.88
-70.36
-83.03
-97.38
-111.09
-122.58
-131.25
-137.24
-140.79
-141.86
-140.13
-135.45
-128.4
-120.46
-113.45
-108.62
-105.76
-103.16
-98.44
-89.98
-78.15
-65.63
-56.41
-54.04
-59.95
-72.65
-88.55
-103.54
-114.73
-121.4
-125
-128.59
-135.85
-149.93
-172.24
-201.36
-232.75
-259.62
-274.92
-273.99
-256.37
-225.94
-189.18
-152.27
-119.03
-90.22
-64.62
-40.77
-18.03
3.64
24.76
46.99
72.57
102.55
135.34
166.51
190.38
202.63
202.31
192.02
176.38
159.71
144.35
130.76
118.62
107.89
99
92
85.91
78.96
69.88
59.32
50.31
47.07
52.93
68.62
91.72
117.74
142.19
162.44
178.6
193.24
209.83
230.89
256.46
283.67
307.55
322.68
325.04
313.38
289.42
257.26
222.43
190.87
167.8
156.51
157.15
165.99
175.99
178.98
168.68
143.29
106.25
64.39
24.67
-8.93
-36.55
-61.15
-85.48
-109.41
-129.36
-140.11
-138.25
-124.98
-106.68
-92.67
-91.38
-106.84
-137.17
-175.63
-213.55
-243.39
-260.79
-264.9
-257.51
-241.54
-219.98
-195.12
-168.35
-140.23
-110.7
-79.49
-46.4
-11.69
23.92
59.35
93.3
124.47
151.68
173.87
190.23
200.47
205
205.09
202.71
199.84
197.78
196.41
193.98
187.53
173.97
151.42
120.29
83.54
45.93
12.56
-12.83
-28.76
-36.11
-37.13
-34.25
-29.29
-23.32
-17.12
-11.52
-7.45
-5.46
-5.13
-4.78
-1.87
6
20.06
39.75
62.94
86.82
108.9
127.75
142.97
154.55
162.06
164.27
159.35
145.77
123.4
94.29
62.66
33.83
12.55
1.47
0.35
6.57
16.47
26.89
36.23
44.34
51.67
58.23
63.09
64.82
62.21
55.14
44.49
31.38
16.33
-1.38
-23.25
-50.65
-83.97
-122.34
-164.15
-207.67
-251.49
-294.23
-334.18
-368.92
-395.7
-411.95
-415.83
-406.3
-382.79
-344.96
-293.02
-229.2
-159.02
-91.73
-38.39
-8.15
-4.22
-21.93
-50.4
-77.17
-93.81
-99.27
-99.44
-103.52
-119.14
-149.42
-192.7
-244.62
-300.29
-355.26
-405.08
-444.69
-468.88
-473.9
-459.47
-429.45
-390.77
-351
-315.71
-287.13
-264.42
-244.91
-225.59
-204
-178.54
-148.44
-113.46
-73.57
-28.71
21.39
76.95
137.71
202.36
268.34
332.23
390.5
440.48
481.02
512.5
536.38
554.54
568.72
579.77
587.2
588.68
580.22
557.11
515.56
454.5
376.8
289.11
200.72
121.41
59.55
20.26
4.51
8.97
26.79
49.19
67.61
75.74
71.12
55.58
34.38
14.4
1.78
0.04
9.14
25.71
44.48
60.14
68.9
69.31
62.09
49.43
34.07
18.87
6.4
-1.44
-4.01
-2.42
0.59
1.61
-1.87
-10.49
-22.9
-36.69
-49.72
-61.02
-70.62
-78.89
-85.67
-90.15
-91.32
-88.81
-83.37
-76.6
-70.21
-65.21
-61.52
-58.15
-53.72
-47.09
-37.75
-25.81
-11.91
2.94
17.56
30.72
41.22
48.06
50.73
49.35
44.64
37.72
29.58
20.78
10.89
-1.53
-18.69
-43.04
-76.19
-117.96
-165.64
-214.43
-258.8
-294.56
-320.27
-337.54
-349.63
-359.31
-367.15
-371.09
-367.68
-353.93
-328.9
-293.97
-252.08
-206.83
-161.83
-120.47
-85.72
-59.51
-41.72
-29.63
-18.54
-3.29
19.49
50.25
86.56
124.7
161.35
194.84
225.09
252.53
277.04
297.46
312.17
319.99
320.98
316.54
308.82
299.72
290.15
279.94
268.2
254.26
238.19
220.91
203.89
188.45
175.2
163.98
154.17
145.11
136.56
128.62
121.47
114.99
108.62
101.49
92.88
82.68
71.4
60.01
49.35
39.69
30.54
20.82
9.5
-3.85
-18.88
-34.58
-49.86
-64.03
-76.97
-88.84
-99.65
-108.82
-115.24
-117.65
-115.31
-108.57
-99
-88.97
-80.81
-76.08
-75.04
-76.77
-79.55
-81.48
-81.11
-77.68
-71.35
-63.34
-55.94
-52.21
-54.94
-65.21
-81.18
-98.02
-109.26
-109.32
-95.89
-71.04
-40.34
-10.61
12.72
27.09
32.89
32.17
27.24
19.75
10.73
0.93
-8.73
-17.17
-23.43
-27.02
-28.07
-27.33
-25.87
-24.72
-24.51
-25.26
-26.41
-27.18
-27
-25.93
-24.64
-24.05
-24.7
-26.32
-27.87
-28.07
-26.09
-22.07
-17.03
-12.39
-9.24
-7.88
-7.71
-7.69
-6.76
-4.36
-0.42
4.57
9.87
14.74
18.59
21.19
22.63
23.31
23.67
24.11
24.79
25.69
26.58
27.18
27.27
26.7
25.47
23.64
21.29
18.56
15.67
13.01
11.15
10.67
11.89
14.62
18.07
21.09
22.67
22.46
21.02
19.68
20.07
23.54
30.75
41.5
54.76
68.85
81.64
90.92
94.72
91.87
82.43
67.88
50.97
35
23.02
16.96
17.16
22.46
30.69
39.45
46.86
52.05
55.28
57.63
60.37
64.4
69.72
75.35
79.64
80.81
77.59
69.63
57.52
42.48
25.94
9.18
-6.77
-21.14
-33.35
-43.09
-50.51
-56.29
-61.5
-67.36
-74.8
-84.17
-95.2
-107.03
-118.48
-128.32
-135.62
-139.89
-141.28
-140.46
-138.29
-135.42
-131.92
-127.22
-120.38
-110.58
-97.66
-82.32
-65.99
-50.26
-36.29
-24.46
-14.24
-4.71
4.99
15.18
25.53
35.23
43.36
49.13
51.92
51.33
47.14
39.52
29.23
17.62
6.36
-3.09
-9.99
-14.52
-17.55
-20.26
-23.57
-27.99
-33.61
-40.37
-48.26
-57.35
-67.62
-78.79
-90.12
-100.48
-108.61
-113.41
-114.29
-111.26
-104.88
-95.93
-85.13
-72.94
-59.56
-45.15
-29.99
-14.53
0.67
15.24
29.1
42.37
55.19
67.35
78.3
87.27
93.67
97.43
98.94
98.94
97.96
96.03
92.59
86.71
77.42
64.2
47.15
27.1
5.45
-16.09
-35.81
-52.27
-64.43
-71.79
-74.39
-72.84
-68.21
-61.92
-55.33
-49.44
-44.53
-40.16
-35.56
-30.01
-23.28
-15.76
-8.18
-1.18
4.92
10.16
14.67
18.32
20.51
20.34
16.9
9.78
-0.63
-13.11
-25.76
-36.49
-43.45
-45.3
-41.41
-31.79
-17.02
1.94
23.91
47.64
71.97
95.93
118.71
139.57
157.65
172
181.64
185.86
184.5
178.1
167.96
155.82
143.28
131.05
118.4
103.05
81.92
52.33
13.38
-33.26
-83.54
-132.06
-173.76
-205.39
-226.16
-237.42
-241.65
-241.18
-237.37
-230.6
-220.74
-207.94
-192.9
-176.58
-159.41
-140.72
-118.85
-92.22
-60.71
-26.48
6.42
33.57
52.12
61.97
65.46
66.09
66.7
68.37
70.53
71.8
71.31
69.21
66.66
65.05
65.18
66.85
68.82
69.5
67.58
62.62
55.22
46.82
39.18
33.81
31.43
31.62
32.84
32.7
28.41
17.48
-1.54
-28.38
-60.71
-94.29
-123.96
-144.86
-153.92
-150.51
-136.47
-115.16
-90.28
-64.92
-41.37
-21.31
-6.14
3.09
6.18
4.27
-0.14
-3.92
-4.5
-0.86
6.12
14.28
21.32
25.78
27.42
27.04
25.8
24.73
24.54
25.66
28.52
33.55
41.06
51.04
62.97
75.76
88.09
98.74
107.01
112.89
117.06
120.52
124.13
128.13
131.99
134.49
134.3
130.54
123.3
113.72
103.64
94.83
88.2
83.07
77.05
66.64
48.4
20.3
-17.16
-60.6
-104.38
-142
-167.86
-178.8
-175.05
-160.16
-140.09
-121.4
-109.28
-105.94
-109.98
-117.2
-122.36
-121.18
-111.79
-95.02
-73.49
-50.25
-27.79
-7.59
9.57
23.23
32.96
38.56
40.39
39.59
37.82
36.72
37.35
39.85
43.48
47.02
49.39
49.99
48.92
46.8
44.49
42.7
41.83
41.93
42.85
44.39
46.46
49.09
52.45
56.77
62.27
68.98
76.66
84.68
92.07
97.6
99.98
98.3
92.26
82.42
70.01
56.45
42.8
29.34
15.49
0.42
-16.3
-34.07
-51.13
-65.18
-74.26
-77.57
-75.75
-70.57
-64.12
-58.16
-53.78
-51.5
-51.74
-55.09
-62.16
-73.2
-87.66
-104.13
-120.74
-135.8
-148.12
-156.86
-161.11
-159.59
-150.97
-134.77
-112.24
-86.5
-61.66
-41.25
-26.75
-17.2
-9.96
-2.39
6.82
17.23
27.33
35.68
41.82
46.34
50.26
54.31
58.43
62.01
64.36
65.33
65.43
65.69
67.09
70.1
74.41
78.98
82.47
83.72
82.22
78.2
72.49
66.11
59.9
54.36
49.65
45.87
43.17
41.79
41.81
42.98
44.62
45.77
45.5
43.26
38.97
33.08
26.27
19.32
12.9
7.56
3.74
1.91
2.58
6.21
13.02
22.75
34.54
47.12
59.17
69.79
78.78
86.6
94.02
101.53
108.98
115.38
119.19
118.97
114.01
104.78
92.8
80.05
68.12
57.66
48.29
39.22
29.99
20.67
11.5
1.94
-9.98
-27.26
-52.5
-86.06
-125.14
-164.12
-196.53
-217.31
-224.41
-219
-204.3
-183.92
-160.6
-135.76
-109.98
-83.69
-57.74
-33.34
-11.77
6.06
19.82
29.76
36.42
40.42
42.21
42.1
40.36
37.4
33.79
30.31
27.69
26.34
26.16
26.47
26.28
24.69
21.31
16.47
11.16
6.57
3.66
2.89
4.31
7.76
13.17
20.64
30.31
42.14
55.77
70.39
84.87
97.89
108.15
114.61
116.7
114.47
108.55
100.01
90.03
79.72
69.88
61.09
53.71
47.93
43.76
40.96
39.08
37.56
35.77
33.06
28.44
20.64
8.26
-9.59
-32.6
-58.77
-84.6
-105.95
-119.26
-122.77
-116.86
-103.8
-86.87
-69.35
-53.9
-42.31
-35.44
-33.28
-34.97
-38.85
-42.76
-44.59
-42.87
-37.26
-28.61
-18.77
-9.89
-3.86
-1.67
-3.28
-7.55
-12.56
-16.08
-16.23
-12
-3.53
7.9
20.42
32.07
41.23
46.89
48.58
46.35
40.79
33.05
24.7
17.4
12.37
10
9.83
10.79
11.77
12.05
11.44
10.12
8.42
6.59
4.79
3.03
1.16
-1.31
-5.18
-11.38
-20.62
-33.04
-47.89
-63.74
-78.93
-92.18
-103.15
-112.55
-121.86
-132.54
-145.01
-157.99
-168.37
-172
-165.24
-146.61
-117.65
-82.78
-47.94
-18.96
-0.14
6.67
2.07
-11.05
-28.28
-44.51
-55.18
-57.6
-51.81
-40.36
-27.07
-15.11
-5.59
2.5
11.09
21.19
31.76
39.91
42.3
36.87
23.97
6.29
-12.23
-27.88
-38.33
-43.01
-42.8
-39.26
-33.82
-27.39
-20.3
-12.65
-4.77
2.46
7.78
10.08
9.08
5.72
2.01
0.26
2.05
7.59
15.65
24.15
31.05
35.1
36.05
34.44
31.14
26.99
22.59
18.34
14.52
11.41
9.3
8.56
9.65
13.11
19.32
28.26
39.23
50.92
61.86
70.92
77.77
82.85
87.03
90.99
94.85
98.15
100.13
100.23
98.25
94.28
88.42
80.53
70.19
56.96
40.74
21.99
1.85
-18.17
-36.39
-51.46
-62.61
-69.75
-73.43
-74.61
-74.43
-73.96
-74.01
-75.01
-76.91
-79.28
-81.31
-82.06
-80.73
-76.87
-70.53
-62.21
-52.75
-43.01
-33.64
-25.01
-17.17
-9.97
-3.21
3.21
9.29
14.85
19.7
23.67
26.81
29.36
31.77
34.56
38.05
42.3
46.93
51.28
54.51
55.92
55.09
52.07
47.42
41.95
36.56
31.93
28.37
25.81
23.88
22.02
19.62
16.04
10.71
3.25
-6.29
-17.38
-28.91
-39.52
-47.92
-53.31
-55.62
-55.42
-53.66
-51.41
-49.45
-48.13
-47.35
-46.61
-45.29
-42.78
-38.71
-33.03
-26.05
-18.37
-10.78
-4
1.43
5.32
7.78
9.08
9.54
9.38
8.71
7.61
6.19
4.59
2.96
1.47
0.31
-0.22
0.35
2.53
6.55
12.15
18.56
24.68
29.58
32.82
34.57
35.38
35.85
36.32
36.83
37.35
37.99
39.17
41.43
45.22
50.45
56.4
61.84
65.25
65.23
60.82
51.78
38.73
23.21
7.36
-6.49
-16.67
-22.67
-25.29
-26.28
-27.46
-30.06
-34.26
-39.36
-44.36
-48.56
-51.94
-55.25
-59.79
-66.9
-77.36
-90.74
-105.08
-117.12
-123.22
-120.64
-108.52
-88.3
-63.07
-36.44
-11.41
10.23
27.78
41.26
50.99
57.49
61.53
64.27
66.98
70.58
75.34
80.71
85.65
89.18
90.81
90.84
90.08
89.56
89.98
91.42
93.24
94.16
92.61
87.15
76.9
62.04
43.97
25.17
8.67
-2.83
-7.76
-6.2
0.26
9.18
18.09
25.32
30.31
33.3
34.85
35.24
34.27
31.53
26.87
20.7
14.02
8.03
3.53
0.62
-1.17
-2.52
-3.74
-4.56
-4.38
-2.81
-0.11
2.57
3.56
1.48
-4.05
-12.06
-20.63
-27.87
-32.64
-34.87
-35.16
-33.97
-31.18
-26.23
-18.89
-10.13
-2.31
1.47
-1.31
-11.41
-27.31
-45.77
-63.13
-76.6
-85.03
-88.85
-89.41
-88.14
-85.9
-82.67
-77.85
-70.72
-61.02
-49.25
-36.67
-24.93
-15.57
-9.62
-7.28
-8.1
-11.07
-14.93
-18.27
-19.78
-18.62
-14.83
-9.74
-5.86
-6.11
-12.74
-26.16
-44.56
-64.21
-80.76
-90.6
-92.01
-85.5
-73.41
-58.75
-44.15
-31.11
-20.04
-10.81
-3.33
2.18
5.51
7.09
8.36
11.53
18.5
29.65
43.18
55.62
63.54
65.2
61.71
56.43
53.17
54.02
58.13
61.9
60.74
51.17
32.49
7.3
-19.32
-41.4
-53.77
-53.37
-39.83
-15.44
15.45
47.44
75.4
95.49
106.02
107.42
101.68
91.48
79.53
68.15
59.14
53.75
52.51
54.98
59.83
65.13
68.97
70.06
67.98
63.07
55.87
46.86
36.29
24.63
12.86
2.57
-4.44
-6.88
-4.47
1.98
10.93
20.62
29.26
35.01
36.04
30.73
18.37
-0.22
-22.67
-45.72
-66.51
-83.59
-97.29
-109.14
-120.64
-132.4
-143.85
-153.94
-161.92
-167.92
-172.56
-176.16
-177.9
-175.71
-166.97
-149.78
-124.18
-92.57
-59.02
-27.99
-2.9
14.75
25.47
31.07
33.74
35.26
36.64
38.1
39.45
40.45
41.03
41.39
41.8
42.33
42.69
42.29
40.42
36.56
30.64
23.13
14.88
6.93
0.3
-4.24
-6.26
-5.77
-3.21
0.67
4.97
8.88
11.92
13.99
15.35
16.49
17.92
20.07
23.12
26.97
31.37
36.05
40.75
45.29
49.46
52.96
55.39
56.28
55.15
51.7
45.87
37.84
28.05
17.24
6.34
-3.64
-11.83
-17.76
-21.41
-23.32
-24.39
-25.56
-27.44
-30.13
-33.19
-35.97
-38.01
-39.4
-40.78
-42.97
-46.43
-50.8
-54.97
-57.41
-56.9
-52.93
-45.83
-36.46
-25.81
-14.61
-3.37
7.59
17.94
27.39
35.72
42.9
49.09
54.58
59.68
64.57
69.21
73.38
76.7
78.7
78.98
77.44
74.3
70.11
65.51
60.95
56.52
51.96
46.84
40.94
34.41
27.88
22.2
18.14
16.05
15.72
16.33
16.63
15.16
10.63
2.28
-9.72
-24.06
-38.44
-50.08
-56.6
-56.77
-50.99
-41.02
-29.28
-17.9
-8.16
-0.35
5.82
10.71
14.47
17.06
18.51
19.26
20.26
22.84
28.22
36.94
48.24
59.88
68.38
70.05
62.39
45.33
21.63
-3.9
-26.27
-42.36
-52.23
-59.21
-68.61
-85.88
-114.63
-155.3
-204.61
-256.11
-301.57
-333.14
-345.53
-337.64
-312.78
-277.35
-238.58
-201.99
-170
-141.88
-115.02
-86.64
-55.16
-20.76
14.95
49.77
81.62
109.01
130.93
146.69
155.74
157.83
153.31
143.53
130.81
118.02
107.69
101.23
98.45
97.84
97.28
95.04
90.52
84.35
78.01
73
70.08
68.94
68.37
66.9
63.49
58.02
51.21
44.2
38.03
33.13
29.26
25.79
22.06
17.79
13.17
8.74
5.07
2.45
0.78
-0.34
-1.29
-2.19
-2.72
-2.3
-0.49
2.71
6.79
10.77
13.71
15.02
14.7
13.28
11.56
10.3
10.02
10.87
12.73
15.37
18.52
21.97
25.51
28.9
31.8
33.89
34.94
34.87
33.85
32.17
30.19
28.2
26.31
24.52
22.77
21.04
19.51
18.54
18.69
20.46
24.18
29.77
36.71
44.13
50.98
56.28
59.31
59.58
56.82
50.95
42.08
30.67
17.52
3.79
-9.3
-20.8
-30.33
-38.13
-44.87
-51.28
-57.74
-64.1
-69.8
-74.05
-76.22
-76.07
-73.77
-69.88
-65.05
-59.85
-54.66
-49.66
-44.9
-40.41
-36.22
-32.35
-28.88
-25.93
-23.78
-22.88
-23.69
-26.56
-31.45
-37.94
-45.26
-52.59
-59.19
-64.55
-68.27
-70
-69.38
-66.21
-60.55
-52.9
-44.13
-35.38
-27.85
-22.54
-20.02
-20.32
-22.89
-26.63
-30.27
-32.61
-32.88
-30.9
-26.99
-21.75
-15.79
-9.6
-3.49
2.29
7.51
12
15.73
18.94
22.09
25.72
30.12
35.17
40.27
44.49
46.91
46.92
44.38
39.62
33.23
25.83
17.92
9.77
1.56
-6.55
-14.3
-21.22
-26.78
-30.46
-31.93
-31.18
-28.57
-24.78
-20.74
-17.31
-15.11
-14.21
-14.08
-13.7
-11.84
-7.52
-0.41
9.11
20.06
31.23
41.44
49.71
55.26
57.47
55.92
50.74
42.74
33.45
24.66
17.82
13.48
11.09
9.37
6.84
2.36
-4.53
-13.71
-24.55
-36.03
-46.74
-54.98
-59.15
-58.41
-53.19
-45.3
-37.31
-31.48
-28.81
-28.68
-29.43
-29.4
-27.87
-25.31
-22.9
-21.69
-21.83
-22.52
-22.52
-20.9
-17.47
-12.74
-7.42
-1.95
3.76
10.18
17.71
26.42
35.8
45.07
53.43
60.28
65.37
68.66
70.3
70.52
69.68
68.27
66.92
66.34
67.2
69.91
74.47
80.22
85.85
89.59
89.77
85.44
76.79
65.25
52.96
42.05
33.95
29.04
26.79
26.11
25.77
24.66
21.87
16.89
9.61
0.47
-9.62
-19.6
-28.54
-35.94
-41.82
-46.51
-50.52
-54.23
-57.77
-60.99
-63.47
-64.61
-63.85
-60.74
-55.12
-47.16
-37.3
-26.24
-14.91
-4.35
4.51
11.12
15.43
18.06
19.91
21.77
23.85
25.67
26.37
25.17
21.83
16.75
10.74
4.57
-1.33
-6.78
-11.68
-15.61
-17.82
-17.56
-14.47
-9.06
-2.57
3.41
7.65
9.66
9.78
8.71
7.03
4.89
2.11
-1.37
-5.3
-8.98
-11.69
-12.92
-12.61
-10.91
-7.92
-3.53
2.44
9.85
17.94
25.38
30.68
32.67
31.03
26.38
20.07
13.84
9.4
8.02
10.26
15.77
23.36
31.31
37.88
41.92
43.2
42.46
40.91
39.72
39.56
40.41
41.78
43.02
43.71
43.73
43.24
42.4
41.24
39.62
37.3
34.16
30.31
26.09
21.97
18.37
15.47
13.25
11.47
9.77
7.88
5.62
2.95
0.03
-2.99
-5.97
-8.89
-11.78
-14.54
-16.81
-18.04
-17.66
-15.43
-11.66
-7.19
-3.08
-0.18
1.25
1.53
1.33
1.17
1.21
1
-0.35
-4.06
-11.41
-23.4
-40.37
-61.64
-85.39
-108.96
-129.59
-145.23
-155.03
-159.37
-159.33
-156.05
-150.31
-142.47
-132.71
-121.16
-107.98
-93.31
-77.31
-60.38
-43.38
-27.56
-14.16
-3.81
3.93
10.62
18.26
28.44
41.66
57.08
72.96
87.31
98.53
105.73
108.54
106.92
100.79
90.02
74.7
55.39
33.4
10.62
-10.83
-29.12
-43.04
-52.04
-56.08
-55.34
-50.17
-41.15
-29.26
-15.7
-1.8
11.39
23.2
33.19
40.98
45.99
47.47
44.74
37.59
26.48
12.79
-1.39
-13.64
-21.7
-24.18
-21.02
-13.71
-4.97
2.09
4.9
2.24
-5.69
-17.62
-31.99
-47.55
-63.55
-79.48
-94.78
-108.68
-120.34
-129.19
-134.93
-137.26
-135.12
-126.49
-108.84
-80.54
-42.39
1.69
45.33
81.93
107
119.55
121.93
118
111.18
103.28
94.67
85.34
75.93
67.78
62.29
60.17
61.18
64.69
70.35
78.39
89.17
102.5
117.07
130.56
140.35
144.32
141.29
131
113.9
90.83
63.07
32.55
1.8
-26.13
-48.38
-62.94
-69.34
-68.85
-64.09
-58.18
-53.69
-51.76
-52.02
-53.18
-54.18
-54.89
-56.34
-59.84
-65.84
-73.19
-79.24
-80.96
-76.31
-65.18
-49.37
-31.71
-14.81
-0.11
12.28
23.09
33.22
43.23
53.35
63.74
74.68
86.5
99.3
112.62
125.5
136.72
145.21
150.17
151.2
147.99
140.4
128.38
112.25
92.75
70.86
47.66
24.02
0.59
-22.09
-43.33
-62.36
-78.3
-90.51
-98.75
-103.27
-104.83
-104.44
-103.17
-101.82
-100.75
-99.93
-98.98
-97.47
-95.01
-91.26
-85.88
-78.55
-69.05
-57.41
-44.01
-29.67
-15.5
-2.67
7.74
14.9
18.33
17.93
14.02
7.38
-0.93
-9.82
-18.33
-25.81
-31.87
-36.33
-39.16
-40.57
-40.92
-40.51
-39.28
-36.74
-32.13
-24.96
-15.39
-4.2
7.62
19.58
32.09
46.1
62.26
79.99
97.22
111.02
118.84
119.67
114.44
105.38
94.85
84.17
73.32
61.23
46.82
29.75
10.78
-8.57
-26.67
-42.38
-55.13
-64.63
-70.39
-71.58
-67.3
-57.31
-42.53
-25.1
-7.76
7.12
18.24
25.52
29.69
31.61
31.93
31.2
30.09
29.5
30.19
32.23
34.87
36.91
37.64
37.52
38.23
41.76
49.15
59.77
71.36
81.09
86.72
87.32
83.34
76.04
66.84
56.96
47.28
38.51
31.15
25.4
21.19
18.1
15.61
13.19
10.55
7.71
5
3.03
2.46
3.72
6.67
10.47
13.74
15
13.12
7.73
-0.71
-11.09
-21.99
-32.1
-40.47
-46.71
-50.93
-53.69
-55.72
-57.53
-59.12
-59.82
-58.52
-54.22
-46.6
-36.22
-24.39
-12.56
-1.72
7.89
16.66
25.17
33.73
42.18
50.05
56.83
62.14
65.98
68.52
70.11
71.21
72.24
73.55
75.27
77.37
79.59
81.69
83.3
83.97
83.09
79.95
74.02
65.23
54.06
41.28
27.64
13.46
-1.38
-17.24
-34.34
-52.58
-71.52
-90.56
-109.1
-126.64
-142.59
-156.15
-166.27
-171.8
-171.78
-165.79
-154.18
-138.16
-119.59
-100.54
-82.67
-66.81
-52.83
-40.05
-27.97
-16.75
-7.42
-1.33
0.5
-2.01
-7.98
-16.06
-25
-34.14
-43.35
-52.62
-61.62
-69.39
-74.52
-75.49
-71.08
-60.79
-45.08
-25.32
-3.65
17.59
36.33
51.25
61.82
67.99
69.69
66.69
58.74
46.11
30
12.54
-3.82
-17.15
-26.7
-33.18
-38.47
-44.93
-54.55
-68.14
-84.57
-100.55
-111.09
-110.86
-96.14
-66.62
-26.25
17.51
55.9
81.78
92.13
88.98
78.42
68.12
64.4
70.07
83.8
101.35
117.44
128
131.12
127.07
117.28
103.38
86.6
67.91
48.44
29.64
13.01
-0.58
-11.43
-21.03
-31.39
-44.03
-59.16
-75.52
-91.07
-104.05
-113.89
-121.33
-127.67
-133.6
-138.15
-138.85
-132.7
-117.81
-94.58
-65.94
-36.34
-10.18
9.58
22.16
28.58
30.89
31.07
30.53
30.05
30.05
30.9
33.02
36.69
41.79
47.58
52.83
56.16
56.6
54.05
49.48
44.54
41
39.95
41.47
44.72
48.58
52.28
55.71
59.22
63.03
66.73
69.19
68.94
64.9
56.91
45.75
32.7
19.01
5.5
-7.28
-18.89
-28.66
-35.85
-39.94
-40.98
-39.63
-36.91
-33.7
-30.26
-26.25
-20.99
-13.93
-5.13
4.63
14.14
22.18
27.99
31.55
33.46
34.61
35.78
37.26
38.92
40.35
41.28
41.73
42.02
42.39
42.65
42.05
39.57
34.55
27.24
18.97
11.72
7.39
7.15
11.15
18.98
30.12
44.24
60.93
79.13
96.6
110.04
115.91
111.78
97.3
74.51
46.96
18.56
-7.61
-29.73
-47.08
-59.73
-68.38
-74.44
-79.94
-87.16
-97.67
-111.28
-125.76
-137.36
-142.2
-137.98
-124.99
-105.99
-85.31
-67.25
-54.9
-49.45
-50.26
-55.42
-62.6
-69.72
-75.24
-78.29
-78.39
-75.33
-69.22
-60.54
-50.28
-39.72
-30.04
-21.87
-15.1
-9.03
-2.9
3.62
10.25
16.17
20.52
22.79
23.08
21.98
20.31
18.69
17.4
16.45
15.72
15.16
14.83
14.87
15.32
16.08
16.96
17.76
18.43
19.01
19.54
19.96
20.03
19.39
17.84
15.45
12.78
10.8
10.63
13.19
18.78
27.01
36.84
46.97
56.28
64.1
70.34
75.28
79.42
83.21
86.95
90.7
94.4
97.83
100.78
103.05
104.38
104.18
101.28
93.86
79.59
56.18
22.1
-22.82
-77.03
-137.24
-198.69
-255.74
-302.61
-334.38
-348.07
-343.37
-322.82
-291.16
-254.1
-216.88
-183.15
-154.54
-130.91
-111.08
-93.59
-77.36
-61.91
-47.35
-34.09
-22.59
-13.04
-5.29
1.09
6.5
10.95
13.98
14.85
13.1
9
3.75
-0.95
-3.6
-3.63
-1.61
1.05
2.9
3.11
1.76
-0.47
-2.83
-4.88
-6.44
-7.38
-7.43
-6.21
-3.48
0.54
5.15
9.45
12.76
14.87
15.99
16.44
16.34
15.51
13.71
10.93
7.57
4.29
1.63
-0.32
-2.06
-4.4
-8.01
-13.06
-19.06
-25.06
-30.07
-33.44
-35.07
-35.35
-34.88
-34.14
-33.26
-31.88
-29.34
-25.01
-18.73
-11.13
-3.58
2.14
4.39
2.18
-4.58
-14.89
-26.62
-36.59
-41.03
-36.52
-21.18
4.46
37.27
72.44
105
131.43
150.48
163.05
171.14
176.59
180.2
181.68
180.04
174.24
163.74
148.7
129.99
108.98
87.22
66.27
47.61
32.65
22.78
19.19
22.47
32.28
47.14
64.69
82.28
97.62
109.26
116.6
119.65
118.59
113.7
105.42
94.61
82.7
71.37
62.18
56.1
53.28
53.13
54.69
56.89
58.82
59.87
59.88
59.2
58.67
59.45
62.63
68.78
77.72
88.53
99.94
110.79
120.33
128.31
134.62
139.08
141.17
140.1
135.17
126.11
113.34
97.93
81.29
64.68
48.85
33.95
19.64
5.57
-8.3
-21.57
-33.54
-43.67
-51.93
-59.05
-66.23
-74.75
-85.5
-98.81
-114.5
-132.17
-151.19
-170.48
-188.18
-201.75
-208.67
-207.78
-200.35
-190.11
-181.96
-179.75
-184.42
-193.46
-202.36
-206.88
-204.87
-196.37
-182.24
-162.68
-136.88
-104.45
-67.3
-30.55
-1.29
14.45
14.78
3.2
-12.77
-24.9
-27.67
-20.17
-5.47
11.54
26.82
38.66
47.71
55.63
63.71
71.83
78.57
82.21
81.97
78.39
73
67.17
61.11
53.74
43.43
29.17
11.51
-7.47
-25.07
-38.97
-48.04
-52.46
-53.2
-51.52
-48.56
-45.2
-42.19
-40.11
-39.28
-39.59
-40.53
-41.29
-40.96
-38.76
-34.14
-26.83
-16.79
-4.24
10.3
26.01
41.75
56.23
68.17
76.44
80.3
79.41
73.96
64.61
52.44
38.74
24.72
11.25
-1.3
-13.01
-24.07
-34.32
-43.01
-48.89
-50.7
-47.85
-40.85
-31.32
-21.39
-12.9
-6.73
-2.63
0.39
3.54
7.62
12.88
19.03
25.41
31.09
34.95
35.7
32.35
24.52
12.98
-0.41
-13.09
-22.74
-28.18
-29.73
-28.88
-27.48
-26.79
-27.14
-28.08
-28.97
-29.38
-29.16
-28.09
-25.7
-21.41
-15.09
-7.49
-0.18
5.14
7.63
7.92
7.81
9.38
13.86
21.13
29.95
38.66
45.96
51.29
54.63
56.2
56.19
54.87
52.85
51.19
51.22
53.94
59.51
67.01
74.71
80.7
83.58
83
79.48
74.1
67.86
61.47
55.17
49.02
43.08
37.47
32.28
27.49
22.85
18.01
12.62
6.37
-0.94
-9.37
-18.82
-28.83
-38.62
-47.11
-53.35
-56.84
-57.84
-57.33
-56.65
-57.03
-59.14
-63
-68.13
-73.83
-79.46
-84.57
-88.88
-92.23
-94.53
-95.79
-96.12
-95.86
-95.4
-95.12
-95.16
-95.3
-94.96
-93.43
-90.2
-85.3
-79.46
-73.9
-69.92
-68.21
-68.46
-69.28
-68.75
-65.05
-57.18
-45.31
-30.71
-15.29
-1.07
10.34
18.02
21.69
21.56
18.19
12.26
4.54
-4.17
-13
-21.12
-27.83
-32.72
-35.81
-37.38
-37.81
-37.26
-35.54
-32.2
-26.87
-19.48
-10.45
-0.54
9.45
18.96
27.82
36.16
44.28
52.49
60.92
69.43
77.54
84.53
89.44
91.34
89.57
84
75.14
64.05
52.09
40.53
30.4
22.28
16.27
12.09
9.12
6.54
3.52
-0.56
-5.93
-12.25
-18.72
-24.31
-28.1
-29.65
-29.17
-27.35
-25.13
-23.21
-21.87
-20.87
-19.69
-17.86
-15.31
-12.39
-9.55
-6.92
-4.02
0.25
7.15
17.52
31.31
47.41
64.09
79.39
91.46
98.88
100.66
96.5
87.02
73.89
59.55
46.46
36.25
28.99
23.42
17.72
10.66
2.36
-5.74
-11.65
-13.8
-11.76
-6.14
1.87
11.13
20.83
30.43
39.4
46.94
52.15
54.29
53.23
49.64
44.87
40.51
37.9
37.67
39.6
42.79
46.07
48.39
49.16
48.33
46.27
43.53
40.59
37.71
34.92
32.15
29.28
26.4
23.75
21.7
20.52
20.24
20.48
20.66
20.21
18.78
16.43
13.48
10.37
7.37
4.65
2.26
0.31
-1.07
-1.84
-2.29
-3.16
-5.63
-10.91
-19.91
-32.71
-48.37
-65.05
-80.3
-91.62
-97
-95.38
-86.92
-73.05
-56.24
-39.68
-26.53
-19.29
-19
-24.98
-35.04
-46.08
-55.18
-60.45
-61.51
-59.28
-55.4
-51.37
-48
-45.29
-42.75
-39.95
-36.9
-34.1
-32.33
-32.15
-33.68
-36.54
-40.08
-43.75
-47.33
-50.92
-54.79
-59.07
-63.57
-67.82
-71.18
-73.15
-73.38
-71.8
-68.56
-63.93
-58.39
-52.51
-46.85
-41.79
-37.38
-33.27
-28.78
-23.09
-15.34
-4.75
9.28
26.92
47.73
70.49
93.32
114.12
131.15
143.35
150.23
151.42
146.21
133.52
112.37
82.81
46.57
7.04
-31.6
-65.71
-93.33
-114.6
-131.3
-145.71
-159.54
-173.15
-185.61
-195.11
-199.78
-198.29
-190.38
-176.93
-159.89
-141.83
-125.44
-112.83
-105
-101.51
-100.47
-99.06
-94.39
-84.46
-68.97
-49.59
-29.31
-11.47
1.66
9.69
14.33
18.39
24.55
34.12
46.66
60.51
73.71
84.95
93.9
100.92
106.26
109.57
109.67
105.13
95
79.46
60.05
39.23
19.7
3.72
-7.27
-12.73
-12.81
-8.07
0.68
12.46
26.03
39.95
52.68
62.83
69.47
72.25
71.52
68.14
63.32
58.28
54
50.93
48.98
47.69
46.5
45.13
43.66
42.52
42.15
42.67
43.69
44.4
43.76
40.88
35.25
26.81
15.99
3.56
-9.4
-21.72
-32.2
-39.95
-44.55
-46.21
-45.73
-44.25
-42.96
-42.78
-44.11
-46.84
-50.35
-53.76
-56.1
-56.65
-55.14
-51.93
-47.97
-44.49
-42.66
-43.21
-46.21
-51.11
-57.09
-63.32
-69.29
-74.76
-79.62
-83.62
-86.19
-86.56
-83.86
-77.42
-66.97
-52.74
-35.49
-16.55
2.37
19.31
32.54
40.91
44.18
43.02
38.75
32.79
26.26
19.75
13.49
7.57
2.22
-2.23
-5.53
-7.68
-9.04
-10.13
-11.38
-12.85
-14.34
-15.44
-15.9
-15.67
-14.89
-13.7
-12.06
-9.63
-5.95
-0.54
6.78
15.87
26.18
36.93
47.18
56.06
62.86
67.16
68.93
68.51
66.45
63.35
59.61
55.33
50.29
44.16
36.74
28.3
19.76
12.55
8.25
7.98
11.92
19.13
27.76
35.72
41.31
43.72
43.08
40.25
36.43
32.83
30.44
29.94
31.52
34.85
39.16
43.45
46.89
49.08
50.15
50.44
50.16
49.09
46.76
42.89
37.84
32.77
29.28
28.77
31.78
37.77
45.31
52.83
59.24
64.3
68.4
72.06
75.46
78.25
79.81
79.71
78.07
75.52
72.8
70.31
67.9
64.95
60.89
55.62
49.63
43.76
38.76
34.94
32.06
29.52
26.7
23.22
19.04
14.43
9.74
5.28
1.22
-2.47
-5.98
-9.61
-13.62
-18.09
-22.9
-27.72
-32.17
-35.99
-39.13
-41.76
-44.26
-47.03
-50.36
-54.25
-58.29
-61.67
-63.31
-62.19
-57.72
-50.04
-39.97
-28.81
-17.91
-8.26
-0.3
6.01
11.05
15.22
18.79
21.9
24.59
26.89
28.87
30.64
32.28
33.73
34.76
34.99
34.01
31.53
27.43
21.62
13.87
3.68
-9.57
-26.18
-45.73
-66.78
-87.1
-104.19
-115.91
-120.97
-118.98
-110.46
-96.63
-79.28
-60.5
-42.39
-26.51
-13.57
-3.28
5.24
12.96
20.41
27.37
33.07
36.52
36.97
34.21
28.67
21.3
13.31
5.78
-0.7
-6.02
-10.49
-14.36
-17.53
-19.49
-19.62
-17.69
-14.11
-9.89
-6.21
-3.83
-2.84
-2.77
-2.87
-2.45
-1.01
1.82
6.34
12.66
20.54
29.15
37.29
43.7
47.6
49.02
48.79
48.22
48.58
50.78
55.17
61.61
69.52
78.03
86.08
92.44
95.9
95.37
90.15
80.21
66.38
50.35
34.34
20.51
10.27
3.83
0.25
-2.03
-4.41
-7.64
-11.71
-16.19
-20.78
-25.57
-30.95
-37.22
-44.17
-51
-56.45
-59.39
-59.19
-56.02
-50.68
-44.23
-37.52
-31.01
-24.62
-18.13
-11.56
-5.41
-0.72
1.29
-0.25
-5.34
-12.96
-21.36
-28.57
-33.05
-34
-31.4
-25.78
-17.95
-8.83
0.53
9.12
16.05
20.77
23.28
24.04
23.81
23.32
23.12
23.49
24.51
26.08
27.92
29.58
30.55
30.43
29.18
27.1
24.8
22.89
21.77
21.56
22.08
23.07
24.24
25.4
26.38
27.07
27.41
27.37
27.06
26.63
26.26
25.97
25.66
24.92
23.25
20.22
15.73
10.24
4.74
0.42
-1.75
-1.44
1.01
4.73
8.77
12.38
15.21
17.23
18.47
18.95
18.62
17.44
15.52
13.19
11.01
9.82
10.56
14.07
20.77
30.35
41.66
52.96
62.43
68.89
72.48
74.75
78.12
84.93
96.46
112.42
131.12
150.12
166.87
179.13
184.91
182.52
170.91
150.33
122.89
92.4
63.23
38.53
19.02
2.8
-13.41
-32.47
-55.56
-82.14
-110.95
-140.97
-171.52
-201.41
-227.85
-246.49
-252.8
-244.35
-222.36
-191.55
-158.22
-127.58
-102.12
-81.47
-63.96
-48.38
-34.79
-24.13
-16.95
-12.43
-8.39
-2.25
7.66
21.28
36.9
51.82
63.4
69.68
69.63
63
50.03
31.6
9.29
-14.56
-37.13
-55.69
-68.26
-74
-73.2
-66.87
-56.27
-42.65
-27.35
-11.86
2.21
13.42
20.93
24.71
25.42
24.01
21.31
17.74
13.49
8.77
3.93
-0.49
-4.05
-6.58
-8.29
-9.59
-10.86
-12.24
-13.68
-15.12
-16.58
-18.16
-19.75
-20.82
-20.4
-17.47
-11.48
-2.86
7.1
16.79
25.1
32.07
38.75
46.7
57.05
69.9
84.27
98.42
110.6
119.21
122.93
120.57
111.23
94.83
72.81
48.63
27.06
12.42
6.34
6.22
5.6
-3.32
-26.09
-63.07
-108.63
-153.59
-189.18
-210.91
-220.22
-223.37
-228.4
-241.56
-265
-295.85
-327.16
-349.76
-354.52
-334.46
-286.53
-212.83
-120.86
-22.62
67.76
137.24
177.16
185.41
166.67
130.66
89.1
52.21
26.15
12.01
6.67
4.93
1.97
-4.92
-15.69
-28.11
-39.06
-45.9
-47.4
-43.88
-36.46
-26.14
-13.34
2.13
20.62
41.93
65.04
88.13
108.95
125.4
136.08
140.65
139.9
135.59
129.81
124.48
120.85
119.4
119.96
121.97
124.43
126.07
125.3
120.51
110.65
95.9
77.98
59.98
45.58
37.95
38.76
47.74
62.81
80.82
98.51
113.3
123.8
129.85
132.14
131.69
129.34
125.43
119.74
111.8
101.18
87.88
72.34
55.39
37.85
20.35
3.17
-13.56
-29.76
-45.27
-59.83
-73.29
-85.65
-97.09
-107.79
-117.73
-126.57
-133.78
-138.89
-141.74
-142.43
-141.23
-138.28
-133.5
-126.62
-117.27
-105.22
-90.55
-73.78
-55.98
-38.71
-23.84
-13.01
-7.06
-5.63
-7.03
-8.85
-8.77
-5.4
1.35
10.42
20.18
29.07
35.89
39.92
40.85
38.79
34.45
29.29
25.35
24.75
28.75
36.95
47.05
55.4
58.19
52.78
38.51
16.92
-8.89
-35.17
-58.6
-76.98
-89.71
-97.66
-102.8
-107.57
-114.04
-123.26
-134.85
-147.02
-157.09
-162.38
-161.03
-152.49
-137.51
-117.63
-94.36
-68.67
-40.86
-10.94
20.63
52.46
82.22
107.14
124.87
134.32
135.92
131.46
123.41
114.15
105.36
97.84
91.61
86.37
81.74
77.28
72.44
66.42
58.21
47
32.54
15.38
-3.08
-21.13
-37.01
-49.42
-57.56
-61.24
-60.84
-57.27
-51.8
-45.67
-39.74
-34.2
-28.65
-22.49
-15.42
-7.84
-0.77
4.6
7.58
8.27
7.53
6.55
6.19
6.61
7.31
7.51
6.69
4.96
2.96
1.49
1.07
1.65
2.67
3.42
3.27
1.77
-1.39
-6.63
-14.51
-25.5
-39.68
-56.29
-73.64
-89.46
-101.53
-108.33
-109.62
-106.47
-100.74
-94.2
-87.77
-81.19
-73.32
-62.98
-49.68
-34.03
-17.41
-1.33
13.16
25.64
36.01
44.12
49.63
52.24
52.07
49.93
47.11
44.89
43.93
44.03
44.25
43.3
40.11
34.19
25.86
16.13
6.37
-2.09
-8.46
-12.71
-15.6
-18.33
-22
-27.19
-33.75
-40.88
-47.45
-52.39
-55.03
-55.11
-52.74
-48.14
-41.51
-32.97
-22.62
-10.53
3.22
18.64
35.72
54.28
73.71
92.91
110.34
124.37
133.65
137.36
135.16
127.1
113.41
94.62
71.7
46.18
20.1
-4.37
-25.34
-41.58
-52.61
-58.61
-60.18
-58.23
-53.8
-48.02
-41.96
-36.51
-32.31
-29.61
-28.36
-28.27
-28.83
-29.42
-29.3
-27.83
-24.53
-19.29
-12.44
-4.81
2.44
8.08
11.17
11.43
9.2
5.42
1.16
-2.73
-5.78
-7.89
-9.25
-10.31
-11.88
-15.12
-21.29
-31.11
-44.14
-58.55
-71.54
-80.23
-82.65
-78.17
-67.23
-50.75
-29.6
-4.68
22.69
50.35
75.46
95.17
107.66
112.74
111.9
107.61
102.3
97.52
93.6
89.9
85.44
79.52
72.11
63.82
55.54
48.08
41.82
36.72
32.4
28.32
23.97
18.89
12.68
5.09
-3.99
-14.44
-25.87
-37.75
-49.44
-60.34
-69.96
-77.92
-84.04
-88.34
-90.97
-92.1
-91.81
-90.1
-86.88
-82.16
-76.17
-69.41
-62.49
-55.98
-50.21
-45.24
-40.92
-37
-33.21
-29.18
-24.47
-18.67
-11.58
-3.34
5.53
14.34
22.47
29.59
35.69
40.91
45.36
48.95
51.55
53.02
53.42
53.01
52.09
50.91
49.56
47.96
45.93
43.27
39.95
36.13
32.28
29.01
26.95
26.45
27.47
29.54
31.96
34.09
35.52
36.23
36.42
36.41
36.43
36.6
36.87
37.13
37.21
36.93
36.14
34.65
32.33
29.07
24.82
19.72
13.99
8.01
2.21
-2.99
-7.28
-10.48
-12.5
-13.29
-12.79
-10.93
-7.79
-3.66
0.88
5.05
8.09
9.5
9.23
7.74
5.72
3.91
2.78
2.47
2.83
3.59
4.52
5.48
6.45
7.44
8.58
10.01
11.89
14.35
17.39
20.93
24.78
28.83
33
37.21
41.24
44.65
46.87
47.27
45.46
41.4
35.41
28.07
20.03
11.89
4.08
-3.1
-9.59
-15.47
-20.95
-26.21
-31.39
-36.47
-41.25
-45.46
-48.79
-51.11
-52.51
-53.33
-54.11
-55.35
-57.31
-59.86
-62.48
-64.49
-65.38
-65.01
-63.7
-62.05
-60.59
-59.52
-58.66
-57.64
-56.22
-54.51
-52.94
-52.03
-51.99
-52.55
-52.94
-52.28
-49.93
-45.77
-40.22
-33.98
-27.67
-21.64
-15.94
-10.55
-5.59
-1.45
1.25
1.97
0.52
-2.8
-7.26
-11.95
-16.14
-19.51
-22.2
-24.63
-27.19
-30.03
-32.89
-35.26
-36.58
-36.57
-35.41
-33.62
-31.88
-30.56
-29.44
-27.72
-24.24
-18
-8.65
3.34
16.77
30.13
42.04
51.6
58.46
62.75
64.97
65.63
65.2
64
62.17
59.78
56.9
53.69
50.36
47.11
44.07
41.22
38.35
35.15
31.22
26.19
19.86
12.25
3.74
-4.98
-13.08
-19.82
-24.84
-28.26
-30.57
-32.44
-34.38
-36.62
-39.03
-41.33
-43.16
-44.32
-44.77
-44.58
-43.85
-42.63
-40.97
-38.91
-36.62
-34.36
-32.42
-31
-30.16
-29.83
-29.8
-29.81
-29.57
-28.75
-27.01
-24.14
-20.15
-15.33
-10.2
-5.21
-0.6
3.74
8.12
12.83
17.85
22.91
27.52
31.27
34
35.77
36.82
37.31
37.32
36.84
35.89
34.6
33.15
31.77
30.55
29.44
28.22
26.6
24.39
21.56
18.25
14.66
10.99
7.33
3.65
-0.09
-3.86
-7.46
-10.46
-12.22
-12.1
-9.53
-4.21
3.8
14.15
26.21
39.25
52.48
65.13
76.4
85.56
92.04
95.59
96.48
95.43
93.36
91.07
88.85
86.48
83.3
78.69
72.3
64.34
55.4
46.27
37.6
29.72
22.61
15.93
9.24
2.11
-5.76
-14.41
-23.69
-33.23
-42.6
-51.4
-59.35
-66.29
-72.12
-76.71
-79.83
-81.15
-80.31
-77.07
-71.55
-64.32
-56.4
-48.99
-43.16
-39.47
-37.76
-37.31
-37.15
-36.46
-34.83
-32.32
-29.2
-25.81
-22.26
-18.63
-14.94
-11.31
-7.92
-4.94
-2.45
-0.37
1.37
2.88
4.15
5.17
6.06
7.13
8.91
11.98
16.84
23.7
32.38
42.37
52.8
62.65
70.86
76.47
78.74
77.3
72.14
63.66
52.62
40
26.89
14.4
3.5
-5.1
-11.11
-14.63
-16.18
-16.44
-16.11
-15.72
-15.56
-15.76
-16.43
-17.67
-19.59
-22.23
-25.46
-28.99
-32.44
-35.4
-37.56
-38.72
-38.72
-37.49
-35.05
-31.47
-26.96
-21.82
-16.37
-10.93
-5.72
-0.97
3.15
6.45
8.81
10.22
10.84
10.96
10.89
10.89
11.06
11.37
11.71
11.99
12.12
12.03
11.6
10.67
9.13
7.01
4.49
1.92
-0.36
-2.18
-3.59
-4.88
-6.45
-8.65
-11.62
-15.12
-18.61
-21.32
-22.43
-21.4
-18.02
-12.52
-5.47
2.35
10.18
17.32
23.25
27.63
30.35
31.53
31.49
30.67
29.45
28.05
26.43
24.34
21.39
17.25
11.81
5.26
-1.92
-9.13
-15.78
-21.53
-26.31
-30.23
-33.5
-36.28
-38.61
-40.44
-41.73
-42.43
-42.54
-42.05
-40.92
-39.12
-36.6
-33.39
-29.51
-25.03
-20.04
-14.68
-9.17
-3.85
0.94
4.84
7.62
9.21
9.68
9.29
8.47
7.75
7.59
8.29
9.81
11.81
13.86
15.6
17
18.29
19.75
21.56
23.69
25.89
27.8
29
28.88
26.71
21.79
13.85
3.51
-7.62
-17.24
-23.13
-24.01
-20.04
-12.72
-4.2
3.49
9.05
12.09
12.87
11.97
10
7.46
4.81
2.47
0.71
-0.43
-1.36
-2.77
-5.41
-9.73
-15.55
-22.07
-28.03
-32.16
-33.53
-31.85
-27.48
-21.31
-14.5
-8.14
-2.96
0.81
3.53
5.96
8.98
13.29
19.07
25.91
32.89
38.88
42.88
44.41
43.59
41.1
37.91
34.86
32.41
30.57
29.02
27.43
25.62
23.62
21.54
19.42
17.16
14.61
11.7
8.55
5.48
2.89
1.01
-0.15
-0.86
-1.56
-2.67
-4.51
-7.21
-10.73
-14.82
-19.07
-22.92
-25.74
-26.96
-26.28
-23.76
-19.81
-15.03
-9.99
-5.12
-0.63
3.34
6.61
9.03
10.53
11.24
11.53
11.76
12.12
12.47
12.44
11.6
9.87
7.5
5.08
3.23
2.35
2.46
3.19
3.92
3.99
2.94
0.65
-2.54
-5.97
-8.82
-10.44
-10.46
-8.87
-6
-2.3
1.71
5.53
8.74
10.97
12.02
11.83
10.56
8.53
6.1
3.54
1.03
-1.41
-3.85
-6.37
-9.08
-11.96
-14.95
-17.86
-20.55
-22.96
-25.05
-26.89
-28.55
-30.11
-31.57
-32.99
-34.35
-35.56
-36.44
-36.71
-36.01
-34.02
-30.51
-25.36
-18.61
-10.4
-1.04
8.92
18.82
27.89
35.5
41.25
45.11
47.28
48.18
48.28
48
47.76
47.92
48.76
50.5
53.15
56.49
59.95
62.6
63.31
61.02
54.99
45.05
31.67
15.77
-1.48
-18.94
-35.61
-50.65
-63.37
-73.17
-79.6
-82.33
-81.33
-76.71
-68.9
-58.57
-46.63
-34.19
-22.5
-12.67
-5.5
-1.32
0.15
-0.34
-1.74
-3.02
-3.52
-3.08
-2.01
-0.92
-0.37
-0.73
-2.07
-4.21
-6.9
-9.91
-13.03
-16.13
-19.12
-22.03
-25.03
-28.37
-32.24
-36.57
-40.98
-44.76
-47.13
-47.51
-45.74
-42.06
-37.03
-31.35
-25.64
-20.44
-16.07
-12.62
-9.91
-7.48
-4.72
-1.15
3.38
8.6
13.84
18.31
21.45
23.09
23.53
23.41
23.44
24.04
25.22
26.44
26.91
25.84
22.84
18.05
12.06
5.69
-0.33
-5.48
-9.42
-11.84
-12.33
-10.55
-6.41
-0.24
7.24
15.09
22.53
29.05
34.5
38.86
42.16
44.42
45.72
46.24
46.24
45.89
45.11
43.58
40.96
37.13
32.34
27.11
22.07
17.62
13.94
10.93
8.25
5.36
1.5
-4.21
-12.41
-23.21
-35.89
-49.03
-60.98
-70.33
-76.31
-78.8
-78.01
-74.28
-67.92
-59.36
-49.31
-38.77
-28.82
-20.28
-13.56
-8.64
-5.22
-2.92
-1.42
-0.41
0.34
0.89
1.08
0.41
-1.76
-5.99
-12.43
-20.69
-29.87
-38.87
-46.74
-52.87
-57.03
-59.23
-59.52
-57.88
-54.26
-48.73
-41.55
-33.3
-24.66
-16.27
-8.58
-1.7
4.52
10.36
16.09
21.91
27.85
33.75
39.27
43.83
46.82
47.64
45.91
41.68
35.35
27.64
19.33
11.06
3.18
-4.27
-11.44
-18.48
-25.41
-32.01
-38.01
-43.17
-47.4
-50.76
-53.29
-54.93
-55.51
-54.86
-52.99
-50.1
-46.48
-42.35
-37.69
-32.24
-25.64
-17.67
-8.48
1.46
11.5
21.1
30.08
38.61
47.11
55.98
65.46
75.49
85.87
96.17
105.75
113.68
118.7
119.48
115.1
105.45
91.47
74.89
57.69
41.53
27.51
16.35
8.66
5
5.61
10
16.78
23.89
29.28
31.65
30.92
27.96
24.08
20.33
17.12
14.26
11.29
7.9
4.07
0.13
-3.45
-6.21
-7.92
-8.57
-8.39
-7.76
-7.1
-6.77
-6.97
-7.7
-8.86
-10.29
-11.85
-13.47
-15.16
-16.87
-18.43
-19.54
-19.8
-18.94
-16.89
-13.94
-10.61
-7.49
-4.94
-2.96
-1.23
0.66
2.97
5.63
8.24
10.24
11.18
10.83
9.29
6.84
3.88
0.78
-2.09
-4.49
-6.33
-7.72
-9
-10.59
-12.76
-15.43
-18.19
-20.48
-21.9
-22.36
-22.04
-21.25
-20.18
-19.07
-18.39
-18.98
-21.65
-26.73
-33.68
-41.25
-47.98
-52.92
-55.91
-57.29
-57.36
-55.93
-52.5
-46.78
-39.29
-31.27
-24.21
-18.93
-15.11
-11.52
-6.73
0.01
8.39
17.18
24.8
29.9
31.85
30.98
28.38
25.63
24.34
25.7
30.17
37.27
45.81
54.21
61.07
65.45
67.09
66.21
63.19
58.3
51.56
43.01
32.92
22
11.29
1.86
-5.65
-11.2
-15.26
-18.49
-21.29
-23.67
-25.28
-25.78
-25.09
-23.54
-21.73
-20.26
-19.56
-19.74
-20.68
-22.14
-23.88
-25.67
-27.24
-28.24
-28.27
-27.05
-24.41
-20.48
-15.57
-10.15
-4.74
0.14
4.07
6.77
8.19
8.55
8.24
7.78
7.57
7.84
8.58
9.62
10.66
11.48
11.93
12.02
11.89
11.74
11.72
11.89
12.09
12.1
11.67
10.7
9.38
8.24
7.9
8.91
11.57
15.88
21.8
29.44
39.09
51.08
65.28
80.7
95.44
107
112.98
111.86
103.38
88.58
69.55
48.98
29.82
14.93
6.63
6.06
12.78
24.67
38.42
50.66
59
62.72
62.55
59.93
55.94
50.86
44.26
35.69
25.33
14.25
4.11
-3.68
-8.38
-10.18
-9.81
-8.03
-5.29
-1.71
2.59
7.27
11.63
14.84
16.35
16.08
14.44
12.06
9.44
6.71
3.72
0.23
-3.93
-8.62
-13.47
-17.93
-21.51
-23.84
-24.84
-24.8
-24.36
-24.45
-26.02
-29.63
-35.01
-40.97
-45.62
-47
-44.02
-37.07
-28.09
-19.93
-15.3
-15.75
-21.19
-30.1
-40.31
-49.85
-57.39
-62.3
-64.27
-63.04
-58.49
-50.88
-41.26
-31.31
-23
-17.8
-16.23
-17.66
-20.72
-23.9
-26.11
-26.89
-26.4
-25.26
-24.32
-24.43
-26.29
-30.02
-34.99
-39.86
-43.01
-43.09
-39.65
-33.24
-25.14
-16.82
-9.39
-3.4
1.09
4.18
6.02
6.73
6.56
5.97
5.49
5.56
6.28
7.39
8.4
8.85
8.53
7.61
6.49
5.53
4.92
4.53
4.09
3.38
2.35
1.17
0.05
-0.87
-1.68
-2.51
-3.48
-4.51
-5.31
-5.58
-5.16
-4.09
-2.59
-0.91
0.78
2.48
4.21
5.91
7.38
8.3
8.37
7.51
5.87
3.79
1.7
-0.06
-1.3
-1.98
-2.18
-2.04
-1.73
-1.43
-1.36
-1.69
-2.49
-3.73
-5.33
-7.1
-8.81
-10.16
-10.78
-10.35
-8.7
-5.98
-2.62
0.75
3.6
5.68
7.06
8.02
8.8
9.49
9.91
9.9
9.39
8.56
7.76
7.28
7.22
7.45
7.8
8.08
8.32
8.61
9.06
9.61
10.06
10.13
9.59
8.37
6.5
4.15
1.54
-1.05
-3.24
-4.63
-4.91
-3.94
-1.83
1.09
4.41
7.74
10.75
13.17
14.77
15.37
14.89
13.46
11.3
8.82
6.37
4.26
2.69
1.7
1.25
1.17
1.24
1.24
1.02
0.54
-0.2
-1.18
-2.39
-3.82
-5.46
-7.23
-8.96
-10.45
-11.51
-11.98
-11.75
-10.76
-9.02
-6.73
-4.15
-1.66
0.43
1.98
3.06
3.89
4.7
5.67
6.87
8.25
9.74
11.17
12.38
13.16
13.33
12.82
11.79
10.62
9.81
9.75
10.48
11.63
12.53
12.44
10.9
7.86
3.72
-0.9
-5.3
-8.95
-11.49
-12.71
-12.59
-11.27
-9.06
-6.37
-3.63
-1.08
1.21
3.37
5.57
7.88
10.23
12.38
14.11
15.28
15.93
16.25
16.42
16.65
16.99
17.4
17.74
17.86
17.57
16.76
15.35
13.38
10.97
8.32
5.61
2.89
0.13
-2.8
-5.98
-9.23
-12.18
-14.27
-15.02
-14.17
-11.86
-8.46
-4.44
-0.18
4.08
8.16
11.83
14.81
16.78
17.6
17.35
16.35
15.04
13.75
12.59
11.41
10.01
8.22
6.08
3.74
1.42
-0.81
-3.06
-5.67
-8.96
-13.15
-18.16
-23.66
-29.17
-34.2
-38.36
-41.39
-43.15
-43.58
-42.71
-40.66
-37.63
-33.92
-29.81
-25.56
-21.32
-17.21
-13.27
-9.59
-6.3
-3.55
-1.5
-0.28
0.11
-0.17
-0.87
-1.72
-2.54
-3.39
-4.52
-6.16
-8.37
-10.91
-13.26
-14.87
-15.45
-14.99
-13.84
-12.44
-11.19
-10.4
-10.25
-10.88
-12.31
-14.37
-16.65
-18.5
-19.24
-18.34
-15.66
-11.45
-6.29
-0.91
4.02
7.98
10.65
11.93
11.96
11.04
9.61
8.18
7.18
6.96
7.62
8.99
10.67
12.05
12.58
11.88
9.94
7.09
3.9
0.99
-1.23
-2.61
-3.3
-3.63
-3.95
-4.54
-5.6
-7.16
-9.08
-11.08
-12.73
-13.64
-13.55
-12.46
-10.63
-8.48
-6.39
-4.57
-3.05
-1.68
-0.3
1.15
2.63
4.04
5.25
6.16
6.68
6.79
6.49
5.86
5.02
4.15
3.37
2.75
2.25
1.78
1.25
0.59
-0.21
-1.21
-2.41
-3.81
-5.3
-6.64
-7.5
-7.54
-6.59
-4.7
-2.2
0.49
2.96
5.01
6.58
7.73
8.47
8.7
8.24
6.93
4.78
2.07
-0.77
-3.24
-5.03
-6.11
-6.67
-7.02
-7.39
-7.89
-8.47
-9.06
-9.66
-10.39
-11.45
-12.98
-15.05
-17.48
-19.96
-22.08
-23.4
-23.59
-22.56
-20.43
-17.55
-14.36
-11.21
-8.29
-5.63
-3.2
-0.99
0.89
2.26
2.98
3.04
2.61
1.91
1.19
0.57
0.06
-0.36
-0.73
-1
-1.13
-1.06
-0.87
-0.72
-0.83
-1.38
-2.41
-3.83
-5.29
-6.4
-6.73
-6.03
-4.24
-1.63
1.39
4.3
6.7
8.38
9.33
9.64
9.45
8.81
7.75
6.31
4.65
3.03
1.76
1.04
0.85
1.06
1.41
1.71
1.86
1.89
1.8
1.52
0.91
-0.24
-2.01
-4.29
-6.75
-8.9
-10.25
-10.43
-9.33
-7.06
-3.99
-0.59
2.68
5.45
7.54
8.87
9.48
9.43
8.82
7.77
6.5
5.2
4.03
3
1.98
0.76
-0.76
-2.53
-4.33
-5.93
-7.28
-8.54
-10.04
-12.11
-14.9
-18.37
-22.36
-26.76
-31.47
-36.39
-41.23
-45.58
-48.91
-50.84
-51.34
-50.76
-49.72
-48.87
-48.79
-49.85
-52.32
-56.32
-61.79
-68.4
-75.42
-81.77
-86.18
-87.53
-85.27
-79.6
-71.48
-62.37
-53.82
-47.08
-42.81
-41.04
-41.26
-42.69
-44.57
-46.39
-47.97
-49.37
-50.6
-51.57
-51.92
-51.21
-49.12
-45.46
-40.16
-33.05
-23.74
-11.85
2.67
19.01
35.46
49.7
59.74
64.63
64.94
62.4
59.15
56.84
56.06
56.37
56.81
56.45
54.71
51.43
46.66
40.52
33.16
24.77
15.59
5.81
-4.48
-15.21
-26.11
-36.48
-45.29
-51.37
-53.95
-52.97
-48.98
-42.85
-35.23
-26.39
-16.32
-5.13
6.7
18.25
28.47
36.62
42.46
46.27
48.64
50.13
51.15
51.88
52.4
52.74
52.92
52.9
52.64
52.07
51.17
50
48.71
47.4
46.1
44.72
43.12
41.17
38.75
35.75
32.05
27.55
22.28
16.5
10.75
5.74
2.2
0.57
0.94
3.02
6.31
10.27
14.42
18.39
21.89
24.71
26.64
27.6
27.6
26.85
25.71
24.51
23.55
22.91
22.55
22.3
21.98
21.48
20.72
19.71
18.46
17.06
15.59
14.18
12.88
11.67
10.38
8.78
6.62
3.8
0.43
-3.21
-6.7
-9.57
-11.39
-11.79
-10.58
-7.81
-3.83
0.87
5.72
10.3
14.45
18.15
21.5
24.47
26.91
28.57
29.28
29.09
28.24
27.16
26.2
25.57
25.28
25.19
25.1
24.81
24.18
23.17
21.82
20.15
18.17
15.87
13.2
10.12
6.65
2.86
-1.17
-5.36
-9.61
-13.81
-17.68
-20.84
-22.82
-23.27
-22.07
-19.45
-15.83
-11.76
-7.63
-3.62
0.2
3.85
7.28
10.41
13.1
15.31
17.09
18.47
19.5
20.14
20.38
20.26
19.89
19.46
19.09
18.78
18.42
17.86
17.03
15.99
14.85
13.68
12.45
11
9.21
6.99
4.41
1.58
-1.43
-4.65
-8.16
-11.96
-15.83
-19.33
-21.87
-22.89
-22.11
-19.59
-15.69
-10.92
-5.77
-0.6
4.4
9.13
13.53
17.51
21.02
24.05
26.65
28.84
30.55
31.58
31.63
30.53
28.31
25.31
22.09
19.19
16.94
15.4
14.36
13.5
12.54
11.32
9.82
8.12
6.36
4.74
3.46
2.75
2.7
3.26
4.18
5.1
5.62
5.47
4.55
2.94
0.91
-1.18
-2.96
-4.06
-4.22
-3.31
-1.4
1.34
4.57
7.97
11.24
14.15
16.52
18.18
19.04
19.1
18.62
18.09
18.12
19.28
21.73
25.28
29.3
33.06
35.96
37.75
38.54
38.6
38.2
37.34
35.92
33.75
30.84
27.43
23.96
20.83
18.2
15.86
13.26
9.75
4.8
-1.77
-9.72
-18.44
-27.03
-34.57
-40.3
-43.87
-45.5
-46.01
-46.58
-48.48
-52.65
-59.37
-68.19
-77.98
-87.2
-94.31
-98.16
-98.38
-95.44
-90.63
-85.61
-81.92
-80.48
-81.31
-83.56
-85.95
-87.09
-85.97
-81.99
-74.88
-64.58
-51.16
-35.13
-17.6
-0.53
13.7
22.92
25.91
22.96
15.68
6.41
-2.51
-9.45
-13.51
-14.32
-11.73
-5.68
3.69
15.69
29
41.87
52.6
60.2
64.57
66.45
67.02
67.35
68
68.95
69.78
69.99
69.32
67.81
65.75
63.49
61.2
58.87
56.29
53.25
49.62
45.46
40.98
36.3
31.39
25.95
19.59
12
3.2
-6.4
-16.05
-24.84
-31.83
-36.34
-37.99
-36.83
-33.32
-28.21
-22.33
-16.2
-9.87
-2.87
5.51
15.66
27.3
39.29
49.95
57.62
61.41
61.43
58.77
54.94
51.21
48.18
45.64
42.9
39.24
34.2
27.7
19.99
11.46
2.57
-6.29
-14.76
-22.56
-29.59
-35.94
-41.84
-47.51
-52.97
-57.95
-61.93
-64.28
-64.51
-62.43
-58.24
-52.43
-45.62
-38.44
-31.39
-24.82
-18.95
-13.85
-9.44
-5.48
-1.53
2.8
7.74
13.15
18.53
23.16
26.35
27.65
26.93
24.47
20.7
16.19
11.43
6.76
2.33
-1.88
-6
-10.22
-14.61
-19.08
-23.37
-27.09
-29.88
-31.45
-31.63
-30.23
-27.12
-22.15
-15.28
-6.81
2.56
11.72
19.41
24.6
26.81
26.34
24
20.9
17.95
15.6
13.84
12.34
10.7
8.66
6.13
3.21
0.06
-3.08
-5.99
-8.39
-10.1
-11
-11.18
-10.8
-10.04
-9.04
-7.83
-6.34
-4.47
-2.09
0.98
4.9
9.81
15.68
22.35
29.45
36.54
43.15
48.88
53.43
56.62
58.44
59
58.57
57.42
55.76
53.69
51.23
48.44
45.51
42.77
40.52
38.77
37.02
34.12
28.53
18.73
4.03
-14.85
-35.34
-53.5
-65.01
-66.84
-58.54
-42.61
-23.76
-7.14
3.36
6.14
1.8
-7.85
-20.85
-35.78
-51.72
-67.88
-83.39
-97.33
-108.92
-117.51
-122.34
-122.28
-115.81
-101.65
-79.67
-51.46
-20.44
9.11
33.16
49.05
56.04
55.1
48.31
38.13
26.84
16.15
7.04
-0.29
-6.39
-12.44
-20
-30.9
-46.82
-68.66
-95.81
-125.51
-153.05
-172.86
-180.33
-173.74
-155.11
-129.68
-104.02
-83.72
-71.62
-67.18
-67.16
-67.02
-62.54
-50.85
-30.93
-3.72
28.22
60.89
89.17
107.57
111.47
98.47
69.81
30.5
-11.67
-48.15
-71.94
-79.41
-70.78
-49.78
-22.44
4.4
24.44
32.96
27.67
9.29
-18.48
-49.3
-75.34
-88.93
-84.44
-59.85
-17.51
36.7
95.22
151.41
201.31
243.53
277.68
302.4
314.38
309.6
285.95
245.42
194.52
142.32
97.24
64.31
44.21
34.11
29.85
27.87
26.2
24.35
22.55
20.87
18.91
15.84
10.89
3.81
-4.78
-13.54
-20.95
-25.96
-28.68
-30.39
-33.11
-38.61
-47.68
-59.76
-73.12
-85.5
-94.86
-100.01
-100.73
-97.59
-91.59
-83.79
-75.12
-66.37
-58.37
-51.84
-47.17
-43.99
-41.06
-36.46
-28.29
-15.43
1.92
22.25
43.36
62.94
79.26
91.23
98.54
101.49
101.01
98.54
95.64
93.48
92.35
91.4
89.06
83.63
74.02
60.06
42.43
22.3
0.89
-20.77
-41.81
-61.48
-78.99
-93.55
-104.49
-111.34
-113.87
-112.19
-106.68
-97.92
-86.63
-73.5
-59.19
-44.35
-29.6
-15.51
-2.52
9.23
19.84
29.72
39.3
48.82
58.08
66.29
72.25
74.6
72.22
64.55
51.79
34.83
14.96
-6.65
-29.22
-52.33
-75.53
-97.81
-117.3
-131.66
-138.94
-138.44
-131.29
-120.11
-108.24
-98.54
-92.65
-90.87
-92.46
-96.35
-101.53
-107.27
-112.94
-118.03
-122.09
-124.83
-126.12
-125.86
-123.81
-119.57
-112.77
-103.41
-92.1
-80
-68.5
-58.73
-51.23
-45.82
-41.76
-38.03
-33.48
-27.28
-19.14
-9.72
-0.71
5.41
6.04
-0.54
-14.32
-33.26
-53.84
-72.13
-85.06
-91.09
-90.31
-83.7
-72.43
-57.28
-38.73
-17.27
6.21
30.41
53.9
75.54
94.64
110.82
123.67
132.57
136.86
136.27
131.29
123.17
113.69
104.59
97.2
92.24
90.01
90.57
93.84
99.55
107.06
115.27
122.71
127.86
129.54
127.31
121.57
113.36
104.02
94.75
86.31
78.97
72.66
67.24
62.74
59.35
57.29
56.4
56.08
55.2
52.54
47.26
39.37
29.88
20.5
13.1
9.1
9.06
12.64
18.81
26.19
33.42
39.46
43.78
46.38
47.66
48.03
47.76
46.71
44.57
41.04
36.1
30.2
24.06
18.5
14.23
11.82
11.58
13.55
17.33
22.08
26.68
30.07
31.64
31.32
29.4
26.15
21.52
15.34
7.58
-1.17
-9.71
-16.49
-20.22
-20.37
-17.32
-12.22
-6.57
-1.76
1.26
2.13
1.03
-1.39
-4.39
-7.27
-9.57
-11.06
-11.7
-11.56
-10.75
-9.53
-8.38
-7.93
-8.82
-11.43
-15.66
-21.02
-26.76
-32.13
-36.66
-40.19
-42.91
-45.15
-47.16
-49
-50.47
-51.17
-50.68
-48.71
-45.36
-41.15
-36.95
-33.71
-32.24
-32.93
-35.51
-39.09
-42.22
-43.21
-40.62
-33.84
-23.53
-11.65
-0.97
5.82
7.11
2.98
-4.99
-14.25
-22.18
-26.7
-26.54
-21.3
-11.41
1.8
16.14
28.81
37.06
39.06
34.56
25.06
13.23
1.95
-6.68
-11.73
-13.42
-12.51
-9.81
-5.89
-1.1
4.23
9.69
14.82
19.39
23.46
27.35
31.35
35.41
39.09
41.7
42.68
41.9
39.75
36.97
34.24
31.95
30.02
28.12
25.81
22.79
18.94
14.37
9.31
4.14
-0.74
-4.92
-8.11
-10.23
-11.5
-12.34
-13.14
-14.16
-15.3
-16.19
-16.37
-15.52
-13.65
-11.1
-8.37
-5.97
-4.21
-3.13
-2.57
-2.15
-1.46
-0.01
2.62
6.77
12.55
19.75
27.89
36.27
44.17
50.96
56.23
59.85
61.89
62.61
62.33
61.21
59.13
55.65
50.14
42.16
31.71
19.41
6.3
-6.46
-18.09
-28.42
-37.88
-47.43
-58.13
-70.91
-86.24
-103.96
-123.16
-142.24
-159.16
-171.76
-178.23
-177.52
-169.64
-155.73
-138.01
-119.29
-102.36
-89.2
-80.32
-74.63
-69.76
-63.01
-52.31
-36.92
-17.53
4.22
26.38
47.23
65.53
80.44
91.56
98.91
103.17
105.43
106.77
107.73
107.73
105.49
99.76
90.36
78.79
67.97
61.06
60.01
64.57
72.23
79.41
82.88
81.12
74.65
65.41
55.61
46.75
39.29
33.03
27.77
23.63
20.96
19.73
19.23
18.18
15.34
10.17
3.1
-4.74
-12.22
-18.81
-24.66
-30.33
-36.3
-42.56
-48.36
-52.22
-52.24
-46.76
-35.35
-19.6
-3.18
9.23
13.63
8.49
-4.65
-21.91
-38.96
-52.87
-62.85
-69.7
-74.43
-77.23
-77.29
-73.54
-65.59
-54.21
-40.93
-27.47
-15.01
-3.89
6.14
15.63
24.97
34.22
42.94
50.19
54.75
55.39
51.48
43.22
31.68
18.37
4.77
-7.98
-19.06
-27.81
-33.53
-35.71
-34.29
-29.96
-23.97
-17.63
-11.76
-6.36
-0.8
5.76
13.86
23.58
34.58
46.32
58.13
69.16
78.35
84.64
87.18
85.7
80.52
72.37
61.9
49.39
34.83
18.19
-0.18
-19.46
-38.59
-56.77
-73.62
-89.11
-102.96
-114.42
-122.32
-125.75
-124.89
-121.14
-116.63
-113.02
-110.4
-107.07
-100.38
-88.35
-70.97
-50.67
-31.39
-17
-9.92
-10.55
-17.64
-29.14
-42.91
-56.89
-69.18
-78.22
-83.4
-85.89
-88.89
-96.67
-112.58
-136.81
-165.3
-190.84
-205.76
-205
-187.85
-157.6
-119.3
-77.27
-33.71
11.1
57.38
104.58
150.94
193.92
230.96
260.05
279.73
289.14
288.58
280.39
269.24
261.03
260.53
268.62
281.05
289.56
284.9
260.35
214.09
149.51
73.79
-4.26
-76.12
-134.67
-174.81
-193.82
-191.73
-171.58
-138.97
-100.99
-64.62
-35.3
-16.08
-7.62
-8.49
-15.89
-26.3
-36.14
-42.28
-42.62
-36.35
-24.06
-7.51
11.06
29.78
47.73
65.04
82.48
100.77
120.03
139.63
158.48
175.48
189.83
201.08
209.1
213.91
215.72
214.91
212.19
208.46
204.68
201.5
198.86
195.86
190.97
182.6
169.87
153.14
134.04
114.9
97.84
83.97
73.19
64.63
57.5
51.82
48.53
48.94
53.78
62.59
73.72
84.82
93.67
98.62
98.75
93.57
82.87
66.75
45.8
21.27
-5.07
-31.38
-56.33
-79.39
-100.82
-121.37
-141.81
-162.68
-184.13
-205.97
-227.89
-249.79
-272.05
-295.47
-320.86
-348.26
-376.44
-402.92
-424.46
-437.88
-440.83
-432.07
-411.61
-380.81
-342.47
-300.72
-260.35
-225.62
-198.71
-178.83
-162.35
-144.3
-120.53
-89.57
-53.29
-15.9
17.87
44.67
63.56
75.85
84.16
91.52
100.77
114.38
133.94
159.4
188.25
215.5
234.95
241.42
232.97
211.82
183.2
153
125.19
100.66
77.72
53.71
26.58
-4.29
-38.18
-73.56
-108.54
-141.21
-169.94
-193.67
-212.12
-225.6
-234.61
-239.3
-239.34
-234.2
-223.69
-208.38
-189.6
-169
-148.1
-127.9
-108.94
-91.49
-75.77
-62.02
-50.44
-41.05
-33.67
-27.98
-23.63
-20.38
-18.11
-16.74
-16.05
-15.5
-14.14
-10.74
-4.09
6.49
20.74
37.4
54.56
70.2
82.84
91.75
96.97
99.01
98.51
96.03
92.02
86.8
80.67
73.9
66.8
59.71
52.99
46.99
41.84
37.39
33.11
28.2
21.87
13.87
4.73
-4.02
-10.19
-11.58
-6.75
4.33
20.21
38.39
56.23
71.83
84.53
94.81
103.75
112.42
121.29
130.26
138.74
146.11
151.95
156.26
159.49
162.54
166.56
172.59
181.09
191.41
201.54
208.28
207.92
197.26
174.64
140.73
98.51
52.77
8.87
-28.74
-57.58
-77.64
-90.98
-100.57
-108.96
-117.29
-125.18
-131.23
-134.09
-133.24
-129.25
-123.39
-117
-110.94
-105.5
-100.58
-96.18
-92.58
-90.3
-89.94
-91.89
-96.25
-102.76
-110.99
-120.37
-130.33
-140.36
-150.13
-159.6
-169.1
-179.11
-190.03
-201.5
-212.09
-219.2
-219.56
-210.1
-188.91
-155.91
-112.99
-63.65
-12.2
37.01
80.45
115.83
142.26
160.07
170.49
175.12
175.59
173.26
169.2
164.28
159.24
154.71
151.14
148.6
146.82
145.22
143.06
139.64
134.42
127
117.09
104.42
88.77
70.19
49.21
27.13
6
-11.72
-23.88
-29.47
-29.17
-25.31
-21.22
-20.07
-23.75
-32.35
-44.17
-56.54
-66.77
-72.87
-73.95
-70.21
-62.79
-53.42
-44.07
-36.51
-31.7
-29.49
-28.67
-27.52
-24.62
-19.53
-12.84
-5.77
0.57
5.81
10.33
15.06
20.93
28.54
37.98
48.96
60.89
72.95
84.06
93.09
99.18
102.2
102.97
103.02
103.91
106.35
109.54
111.2
108.3
98.27
80.21
55.27
26.36
-2.82
-28.89
-49.51
-63.64
-71.41
-73.79
-72.26
-68.6
-64.55
-61.46
-59.95
-59.79
-60.09
-59.71
-57.76
-53.81
-47.97
-40.69
-32.5
-23.95
-15.48
-7.53
-0.41
5.65
10.65
14.75
18.17
20.99
22.93
23.39
21.6
17.01
9.76
0.91
-7.75
-14.24
-17.12
-16.11
-12.13
-6.97
-2.62
-0.56
-1.41
-4.94
-10.28
-16.41
-22.45
-27.63
-31.32
-32.97
-32.13
-28.66
-22.95
-15.97
-9.09
-3.6
-0.26
0.94
0.61
-0.46
-1.71
-3.17
-5.25
-8.51
-13.35
-19.84
-27.73
-36.58
-45.69
-54.21
-61.12
-65.39
-66.28
-63.51
-57.41
-48.81
-38.89
-28.96
-20.28
-13.9
-10.42
-9.79
-11.17
-12.96
-13.2
-10.01
-2.14
10.7
27.83
47.79
68.78
89.05
107.22
122.5
134.7
144.26
151.91
158.51
164.71
170.8
176.82
182.7
188.46
194.3
200.44
206.81
212.87
217.59
219.65
217.8
211.05
198.73
180.36
155.72
124.81
88.09
46.41
0.83
-47.54
-97.59
-147.78
-195.73
-238.05
-270.96
-291.52
-299
-295.39
-284.82
-271.9
-259.94
-249.91
-240.61
-229.81
-215.46
-196.5
-172.93
-145.41
-114.96
-82.86
-50.77
-20.8
4.89
24.59
37.63
44.53
46.79
46.29
44.66
42.83
41.01
38.8
35.78
31.83
27.33
23.09
20
18.76
19.57
22.15
25.85
29.77
32.9
34.18
32.6
27.33
18.05
5.23
-9.88
-25.5
-39.93
-51.96
-61.13
-67.45
-71.16
-72.28
-70.53
-65.54
-57.28
-46.43
-34.57
-23.86
-16.37
-13.39
-14.92
-19.61
-25.27
-29.47
-30.32
-26.87
-19.24
-8.31
4.61
18.22
31.41
43.34
53.34
60.88
65.51
66.94
65.16
60.56
53.94
46.4
39.09
32.86
28
24.18
20.63
16.46
11.1
4.59
-2.4
-8.73
-13.19
-14.98
-13.96
-10.65
-5.96
-0.84
4.19
9.13
14.47
20.81
28.56
37.73
48
58.9
70.1
81.48
92.9
103.94
113.71
121.02
124.74
124.29
119.7
111.44
100.07
85.96
69.36
50.69
30.85
11.1
-7.51
-24.78
-41.88
-61.17
-85.51
-117.41
-158.42
-209.02
-268.4
-334.06
-401.17
-462.54
-509.57
-534.55
-533.27
-506.77
-461.23
-405.77
-349.4
-298.33
-255.12
-219.32
-189.17
-162.97
-139.55
-118.11
-97.86
-78.05
-58.28
-38.82
-20.32
-3.39
11.92
26.44
41.52
58.4
77.56
98.6
120.44
142.01
162.91
183.77
206.11
232.02
263.64
302.33
347.64
396.52
443.01
479.4
498.44
496.04
472.92
434.35
387.82
340.06
294.71
252.07
210.45
168.32
125.95
85.58
50.54
23.73
6.4
-2.45
-5.86
-7.97
-12.8
-22.6
-37.29
-54.57
-71.23
-84.65
-93.9
-99.72
-103.58
-106.35
-107.64
-106.02
-99.99
-89.09
-74.4
-58.37
-43.85
-32.9
-26.05
-22.14
-19.02
-14.56
-7.64
1.56
11.94
22.51
33.4
46.16
63.15
86.25
115.52
148.52
180.86
207.56
224.76
230.86
226.71
214.83
198.19
179.2
159.22
138.68
117.74
96.59
75.76
55.84
37.12
19.39
1.84
-16.51
-36.34
-57.57
-79.44
-100.91
-121.34
-140.75
-159.29
-176.58
-191
-199.89
-200.55
-191.3
-172.11
-144.33
-109.71
-69.49
-24.2
25.59
78.26
130.54
178.1
217.01
245.32
263.79
275.27
282.84
288.21
290.81
288.34
278.42
260.19
235.13
206.52
177.73
150.49
124.31
97.39
68.51
38.72
11.55
-8.53
-18.34
-17.98
-11.09
-3.32
-0.03
-4.24
-16.01
-33.12
-52.65
-72.28
-90.79
-107.93
-123.9
-139.01
-153.73
-168.61
-184.17
-200.83
-218.55
-237.06
-256.1
-275.81
-297
-321.3
-351.02
-388.21
-433.37
-483.81
-533.02
-571.78
-590.68
-583.39
-549.15
-493.31
-425.85
-358.31
-300.44
-257.98
-231.85
-218.94
-213.87
-210.93
-205.79
-196.32
-182.54
-165.72
-147.37
-128.37
-108.92
-89.12
-69.32
-50.06
-31.59
-13.24
6.68
30.14
58.48
91.69
128.05
164.88
199.59
230.74
258.57
285.07
313.21
345.82
383.93
425.51
465.38
496.33
511.56
507.27
484.22
447.28
403.51
359.43
319.01
283.29
251.4
222.01
194.48
168.88
145.44
123.97
103.64
83.53
63.29
43.56
25.96
12.65
5.59
5.82
13.04
25.52
40.47
54.64
65.02
69.4
66.88
58.11
45.15
30.88
18.07
8.21
1.07
-5
-11.9
-20.38
-29.11
-34.94
-34.14
-24.15
-5.03
20.06
45.39
64.24
70.75
61.75
37.82
3.3
-35.1
-70.67
-99.34
-121.18
-140.02
-161.09
-187.76
-219.15
-249.94
-272.8
-281.95
-276.3
-260.2
-241.49
-227.82
-223.11
-225.98
-230.85
-230.89
-221.32
-201.36
-174
-144.02
-115.47
-89.96
-66.48
-42.7
-16.84
10.87
37.97
60.8
76.22
83.3
84.01
82.59
83.97
91.68
106.29
124.97
142.7
154.54
158.22
155.65
152.53
156.11
172.19
203
246.53
297.79
350.62
399.42
439.74
468.27
482.59
481.2
463.93
432.06
388.18
335.44
276.95
215.35
152.91
91.58
32.98
-21.83
-72.59
-119.68
-163.69
-204.84
-242.93
-277.59
-308.95
-337.92
-365.91
-393.87
-421.12
-444.73
-459.93
-461.44
-445.27
-410.15
-357.94
-293.12
-221.73
-150.41
-85.84
-34.03
0.75
17.31
18.43
10.31
0.48
-5.12
-4.35
0.6
