19.79
17.25
14.43
11.47
8.39
5.12
1.44
-2.88
-7.96
-13.64
-19.39
-24.38
-27.63
-28.34
-26.17
-21.32
-14.53
-6.78
1.01
8.26
14.71
20.35
25.23
29.33
32.53
34.71
35.74
35.51
33.88
30.73
26.13
20.48
14.47
9.06
5.16
3.31
3.55
5.37
7.92
10.31
11.85
12.19
11.4
9.77
7.7
5.51
3.29
0.97
-1.63
-4.6
-7.86
-11.16
-14.18
-16.56
-17.98
-18.16
-16.92
-14.19
-10.21
-5.51
-0.87
2.96
5.53
6.83
7.26
7.29
7.27
7.31
7.36
7.46
7.84
8.88
10.88
13.82
17.24
20.41
22.49
22.8
20.97
16.97
11.13
4.06
-3.4
-10.42
-16.34
-20.83
-23.89
-25.75
-26.66
-26.89
-26.8
-26.85
-27.67
-29.83
-33.5
-38.32
-43.47
-47.92
-50.83
-51.79
-50.83
-48.18
-44.14
-39.01
-33.17
-27.14
-21.54
-16.87
-13.33
-10.69
-8.48
-6.16
-3.41
-0.24
3.19
6.64
9.99
13.22
16.44
19.71
23.09
26.55
29.98
33.11
35.44
36.29
34.94
30.98
24.56
16.46
7.87
-0.02
-6.47
-11.46
-15.54
-19.49
-23.74
-28.14
-31.93
-34.16
-34.02
-31.19
-25.94
-18.85
-10.69
-2.12
6.26
13.98
20.56
25.55
28.61
29.62
28.74
26.46
23.46
20.46
18.12
16.88
16.85
17.85
19.48
21.23
22.64
23.35
23.25
22.34
20.82
18.92
16.85
14.7
12.36
9.59
6.12
1.83
-3.15
-8.45
-13.61
-18.25
-22.02
-24.67
-25.88
-25.23
-22.36
-17.14
-9.91
-1.4
7.41
15.65
22.68
28.27
32.42
35.24
36.85
37.38
37
36.01
34.79
33.67
32.92
32.6
32.47
32.23
31.52
30.17
28.14
25.57
22.6
19.25
15.5
11.19
6.25
0.73
-5.23
-11.47
-17.88
-24.34
-30.75
-36.78
-41.96
-45.62
-47.09
-46
-42.37
-36.71
-29.82
-22.65
-15.92
-10.1
-5.3
-1.42
1.71
4.3
6.5
8.44
10.19
11.74
12.93
13.6
13.58
12.86
11.69
10.42
9.41
8.72
8.1
7.01
4.76
0.83
-4.99
-12.5
-21.16
-30.2
-38.76
-46.02
-51.41
-54.68
-56.06
-56.1
-55.52
-54.85
-54.22
-53.2
-50.94
-46.55
-39.43
-29.57
-17.61
-4.62
8.13
19.49
28.71
35.38
39.46
41.16
40.82
38.84
35.69
31.83
27.77
24.04
21.07
19.17
18.36
18.44
19.03
19.79
20.45
20.98
21.42
21.84
22.24
22.58
22.75
22.57
21.81
20.18
17.3
12.91
6.98
-0.14
-7.73
-14.9
-20.75
-24.58
-26.04
-25.17
-22.31
-18.07
-13.19
-8.37
-4.11
-0.66
1.97
3.93
5.35
6.28
6.67
6.39
5.38
3.62
1.27
-1.38
-3.92
-5.95
-7.12
-7.2
-6.19
-4.26
-1.74
0.92
3.23
4.82
5.45
5.07
3.83
1.93
-0.42
-3.13
-6.22
-9.7
-13.47
-17.2
-20.33
-22.12
-21.88
-19.12
-13.76
-6.22
2.69
11.94
20.54
27.75
33.24
36.95
39.12
40.07
40.1
39.45
38.28
36.75
35
33.24
31.63
30.28
29.16
28.15
27.05
25.7
24.01
21.96
19.61
17.02
14.23
11.22
7.94
4.34
0.38
-3.96
-8.7
-13.76
-19.01
-24.15
-28.64
-31.75
-32.72
-30.97
-26.4
-19.48
-11.19
-2.71
4.85
10.73
14.56
16.37
16.44
15.21
13.19
10.93
8.83
7.11
5.81
4.74
3.66
2.3
0.48
-1.92
-4.92
-8.46
-12.33
-16.23
-19.81
-22.76
-25.02
-26.72
-28.15
-29.63
-31.32
-33.16
-34.95
-36.47
-37.61
-38.41
-38.9
-38.94
-38.16
-36.03
-32.1
-26.27
-18.89
-10.61
-2.16
5.88
13.18
19.51
24.63
28.24
30.01
29.74
27.59
24.02
19.81
15.76
12.47
10.32
9.35
9.32
9.88
10.6
11.16
11.27
10.83
9.77
8.18
6.09
3.56
0.67
-2.53
-6.02
-9.76
-13.78
-18.21
-23.15
-28.6
-34.32
-39.71
-43.87
-45.83
-44.8
-40.5
-33.29
-24.07
-14.02
-4.34
4.12
10.9
15.96
19.51
21.87
23.22
23.65
23.24
22.1
20.53
18.93
17.72
17.13
17.13
17.5
17.86
17.9
17.43
16.49
15.22
13.74
12.06
10.08
7.66
4.71
1.36
-2.17
-5.58
-8.71
-11.66
-14.72
-18.26
-22.49
-27.35
-32.47
-37.28
-41.09
-43.28
-43.4
-41.24
-36.85
-30.56
-22.95
-14.71
-6.58
0.78
6.9
11.5
14.51
16.03
16.36
15.9
15.13
14.49
14.31
14.68
15.51
16.55
17.53
18.26
18.71
18.95
19.06
19.06
18.81
18.12
16.68
14.31
10.93
6.6
1.61
-3.61
-8.62
-13.06
-16.83
-20.11
-23.19
-26.32
-29.52
-32.41
-34.41
-34.79
-33.09
-29.17
-23.3
-16.05
-8.16
-0.4
6.6
12.36
16.6
19.16
20.09
19.59
18.07
16.09
14.25
13.01
12.57
12.79
13.3
13.69
13.65
13.08
12.05
10.67
9
7
4.57
1.64
-1.71
-5.27
-8.76
-11.98
-14.89
-17.64
-20.56
-23.8
-27.31
-30.68
-33.2
-34.08
-32.73
-28.97
-23.17
-16.07
-8.6
-1.66
4.03
7.94
9.83
9.65
7.65
4.39
0.64
-2.68
-4.75
-5.12
-3.75
-1.02
2.48
6.16
9.57
12.4
14.54
15.89
16.42
16.22
15.4
14.14
12.57
10.7
8.38
5.31
1.2
-4.09
-10.46
-17.44
-24.3
-30.18
-34.24
-35.9
-34.89
-31.36
-25.76
-18.79
-11.17
-3.54
3.68
10.22
15.94
20.7
24.27
26.46
27.17
26.48
24.75
22.54
20.36
18.58
17.32
16.41
15.56
14.5
13.08
11.31
9.3
7.15
4.93
2.62
0.15
-2.54
-5.48
-8.7
-12.29
-16.39
-21.09
-26.19
-31.15
-35.15
-37.2
-36.59
-33.18
-27.41
-20.18
-12.48
-5.03
1.81
7.93
13.3
17.8
21.15
23.13
23.64
22.84
21.1
18.83
16.45
14.23
12.35
10.88
9.8
9.04
8.42
7.73
6.77
5.42
3.59
1.25
-1.57
-4.87
-8.64
-12.84
-17.47
-22.49
-27.75
-32.95
-37.51
-40.7
-41.74
-40.06
-35.55
-28.64
-20.2
-11.32
-2.94
4.31
10.17
14.66
17.91
20
21
21.01
20.18
18.78
17.15
15.64
14.49
13.87
13.81
14.17
14.76
15.3
15.55
15.28
14.42
12.97
11.04
8.77
6.27
3.54
0.44
-3.22
-7.7
-13.13
-19.36
-25.88
-31.9
-36.44
-38.65
-38.04
-34.65
-29
-21.9
-14.24
-6.75
0.09
5.98
10.79
14.44
16.95
18.4
19.04
19.22
19.28
19.48
19.93
20.61
21.4
22.09
22.48
22.39
21.73
20.52
18.92
17.15
15.41
13.66
11.76
9.38
6.23
2.18
-2.7
-8.16
-13.81
-19.17
-23.67
-26.66
-27.52
-25.8
-21.49
-15.08
-7.44
0.41
7.61
13.63
18.32
21.71
23.85
24.73
24.38
23
20.94
18.76
16.98
15.91
15.52
15.53
15.46
14.88
13.55
11.44
8.76
5.79
2.81
-0.06
-2.81
-5.59
-8.59
-11.99
-15.87
-20.18
-24.61
-28.73
-31.96
-33.68
-33.38
-30.8
-26.02
-19.47
-11.85
-3.94
3.57
10.2
15.69
19.96
23.01
24.86
25.56
25.26
24.18
22.68
21.15
19.96
19.29
19.16
19.34
19.46
19.19
18.28
16.7
14.64
12.38
10.18
8.19
6.36
4.46
2.17
-0.86
-4.85
-9.77
-15.31
-20.89
-25.68
-28.8
-29.55
-27.57
-22.99
-16.38
-8.6
-0.56
7.02
13.69
19.26
23.67
26.87
28.8
29.41
28.77
27.15
24.97
22.69
20.64
18.99
17.77
16.89
16.23
15.62
14.91
13.94
12.62
10.91
8.87
6.62
4.22
1.64
-1.21
-4.47
-8.18
-12.3
-16.69
-21.17
-25.48
-29.22
-31.83
-32.65
-31.11
-26.93
-20.37
-12.15
-3.3
5.18
12.53
18.4
22.75
25.69
27.43
28.22
28.3
27.95
27.42
26.83
26.28
25.77
25.3
24.87
24.44
23.89
23.02
21.61
19.58
16.98
14.03
10.98
8.01
5.16
2.35
-0.53
-3.5
-6.6
-9.81
-13.16
-16.76
-20.56
-24.34
-27.56
-29.53
-29.58
-27.3
-22.8
-16.6
-9.53
-2.37
4.23
9.92
14.58
18.15
20.65
22.06
22.46
22.03
21.12
20.12
19.48
19.53
20.34
21.81
23.62
25.41
26.89
27.94
28.56
28.87
29.08
29.33
29.79
30.56
31.73
33.25
34.89
36.2
36.56
35.37
32.15
26.8
19.62
11.31
2.83
-4.87
-11.06
-15.48
-18.25
-19.94
-21.2
-22.66
-24.77
-27.71
-31.5
-36.05
-41.24
-46.93
-52.97
-59.13
-65.08
-70.45
-74.85
-77.93
-79.46
-79.36
-77.73
-74.93
-71.49
-68
-65
-62.69
-60.82
-58.72
-55.55
-50.71
-44.17
-36.55
-28.93
-22.51
-17.99
-15.41
-14.01
-12.62
-10.14
-5.93
-0.03
6.98
14.27
21.14
27.22
32.49
37.04
40.79
43.37
44.23
42.86
39.13
33.5
26.95
20.65
15.56
12.04
9.84
8.29
6.73
4.75
2.52
0.46
-0.88
-1.25
-0.8
0.06
0.82
1.17
1.06
0.66
0.22
-0.17
-0.49
-0.8
-1.06
-1.06
-0.51
0.88
3.14
6.03
9.04
11.61
13.44
14.48
14.96
15.16
15.24
15.17
14.78
13.86
12.27
10
7.13
3.8
0.25
-3.24
-6.32
-8.71
-10.15
-10.62
-10.23
-9.22
-7.77
-5.98
-3.87
-1.52
0.75
2.41
2.76
1.2
-2.55
-8.32
-15.47
-23.11
-30.28
-36.18
-40.27
-42.36
-42.51
-41.2
-39.13
-37.15
-36.08
-36.42
-38.36
-41.65
-45.79
-50.12
-53.92
-56.58
-57.66
-57.01
-54.75
-51.44
-47.78
-44.54
-42.31
-41.33
-41.51
-42.42
-43.43
-43.83
-42.97
-40.23
-35.29
-28.25
-19.79
-11.22
-4.15
-0.07
0.24
-2.99
-8.55
-14.57
-19.24
-21.26
-20.2
-16.42
-10.73
-4.08
2.79
9.38
15.47
20.89
25.5
29.05
31.3
32.12
31.65
30.27
28.56
27.11
26.3
26.2
26.67
27.42
28.18
28.8
29.21
29.32
29.04
28.17
26.56
24.2
21.25
18.06
14.99
12.28
9.87
7.5
4.81
1.54
-2.24
-6.13
-9.48
-11.56
-11.82
-10.07
-6.52
-1.68
3.8
9.32
14.42
18.89
22.65
25.7
27.91
29.11
29.09
27.78
25.36
22.29
19.18
16.6
14.91
14.04
13.68
13.34
12.51
10.88
8.34
4.99
1.12
-2.9
-6.76
-10.25
-13.31
-16.04
-18.61
-21.11
-23.53
-25.68
-27.17
-27.58
-26.5
-23.7
-19.23
-13.39
-6.84
-0.44
4.86
8.22
9.1
7.47
3.79
-1.1
-6.1
-10.22
-12.76
-13.33
-11.97
-8.92
-4.58
0.53
5.93
11.15
15.88
19.91
23.17
25.62
27.23
27.9
27.56
26.19
23.84
20.53
16.24
10.81
4.17
-3.4
-11.11
-17.71
-21.86
-22.63
-19.97
-14.67
-8.03
-1.41
4.33
8.78
11.81
13.34
13.11
10.95
6.99
1.92
-3.14
-6.97
-8.76
-8.41
-6.54
-4.16
-2.25
-1.39
-1.7
-2.83
-4.21
-5.24
-5.41
-4.5
-2.61
-0.28
1.65
2.23
0.8
-2.76
-7.88
-13.53
-18.48
-21.73
-22.75
-21.49
-18.29
-13.63
-8.03
-1.97
4.11
9.86
14.91
19.01
22.02
23.95
24.86
24.84
24.02
22.5
20.57
18.59
17.01
16.13
16.03
16.45
16.9
16.88
16.05
14.42
12.18
9.59
6.75
3.55
-0.2
-4.67
-9.77
-15.17
-20.28
-24.45
-27.05
-27.65
-26.1
-22.47
-17.12
-10.57
-3.44
3.62
10.05
15.42
19.48
22.1
23.33
23.33
22.41
20.92
19.27
17.76
16.58
15.76
15.2
14.76
14.3
13.75
13.1
12.36
11.49
10.43
9.06
7.24
4.91
2.04
-1.31
-5.04
-9.01
-13.05
-16.83
-19.82
-21.35
-20.7
-17.39
-11.37
-3.18
6.25
15.81
24.6
32.1
38.18
42.93
46.53
49.1
50.67
51.23
50.8
49.49
47.54
45.27
43.1
41.53
41.01
41.81
43.76
46.17
47.86
47.47
43.84
36.51
25.94
13.39
0.56
-10.91
-19.89
-26.01
-29.54
-31.1
-31.3
-30.5
-28.77
-25.98
-22.16
-17.74
-13.6
-10.94
-10.9
-14.16
-20.68
-29.6
-39.5
-48.8
-56.13
-60.63
-62.01
-60.51
-56.69
-51.3
-45.17
-39.03
-33.52
-29.02
-25.69
-23.42
-21.96
-20.97
-20.16
-19.42
-18.8
-18.59
-19.08
-20.51
-22.77
-25.4
-27.54
-28.18
-26.46
-21.93
-14.78
-5.76
3.98
13.23
21.03
26.78
30.31
31.74
31.33
29.5
26.7
23.45
20.29
17.76
16.27
16.03
16.88
18.3
19.52
19.78
18.57
15.86
12.14
8.13
4.5
1.55
-0.87
-3.28
-6.27
-10.21
-15.13
-20.73
-26.42
-31.46
-35.04
-36.42
-35.06
-30.76
-23.82
-14.94
-5.21
4.28
12.64
19.31
24.06
26.9
27.9
27.18
24.87
21.26
16.79
12.15
8
4.89
3.05
2.38
2.52
3.03
3.58
4.01
4.31
4.48
4.43
3.94
2.71
0.52
-2.7
-6.8
-11.49
-16.43
-21.3
-25.67
-28.96
-30.53
-29.72
-26.22
-20.2
-12.31
-3.48
5.49
14.02
21.88
28.88
34.78
39.13
41.52
41.9
40.69
38.74
36.97
36
35.88
36.24
36.45
36.04
34.87
33.15
31.16
29.11
27.02
24.75
22.11
18.99
15.32
11.12
6.34
0.9
-5.19
-11.74
-18.31
-24.29
-29.04
-32.08
-33.11
-32.1
-29.17
-24.62
-18.83
-12.33
-5.67
0.62
6.1
10.48
13.61
15.4
15.85
15.04
13.15
10.48
7.42
4.38
1.78
-0.03
-0.9
-0.9
-0.35
0.3
0.58
0.24
-0.66
-1.82
-2.89
-3.64
-4.03
-4.28
-4.66
-5.39
-6.55
-8.2
-10.36
-13.14
-16.59
-20.51
-24.44
-27.62
-29.18
-28.5
-25.39
-20.23
-13.8
-6.99
-0.54
5.1
9.75
13.36
15.83
17.06
17
15.81
13.87
11.78
10.12
9.28
9.36
10.11
11.1
11.93
12.32
12.29
11.99
11.64
11.33
11.02
10.54
9.73
8.52
6.91
4.96
2.62
-0.22
-3.69
-7.64
-11.58
-14.65
-15.94
-14.76
-10.99
-5.14
1.85
8.88
15.1
20.01
23.44
25.44
26.12
25.63
24.23
22.34
20.52
19.29
18.87
19.03
19.08
18.11
15.44
10.94
5.21
-0.66
-5.48
-8.41
-9.16
-8.01
-5.6
-2.58
0.58
3.69
6.67
9.44
11.9
13.92
15.53
17.05
18.91
21.63
25.47
30.3
35.53
40.3
43.74
45.34
45.04
43.24
40.55
37.5
34.35
31.08
27.62
23.96
20.3
16.99
14.31
12.24
10.5
8.58
5.99
2.54
-1.63
-6.18
-10.68
-14.92
-18.92
-22.89
-27.1
-31.75
-36.79
-42.01
-47.03
-51.38
-54.61
-56.33
-56.27
-54.36
-50.73
-45.78
-40.09
-34.34
-29.02
-24.39
-20.44
-16.96
-13.79
-10.91
-8.5
-6.82
-6
-5.94
-6.3
-6.58
-6.42
-5.71
-4.69
-3.79
-3.42
-3.73
-4.57
-5.54
-6.2
-6.27
-5.81
-5.09
-4.51
-4.35
-4.8
-5.94
-7.83
-10.5
-13.83
-17.47
-20.78
-22.9
-23.04
-20.71
-15.95
-9.36
-1.89
5.37
11.45
15.57
17.3
16.49
13.37
8.59
3.04
-2.21
-6.19
-8.24
-8.17
-6.23
-2.99
0.86
4.68
7.96
10.37
11.74
11.98
11.1
9.18
6.39
2.96
-0.82
-4.74
-8.74
-12.95
-17.62
-22.97
-28.95
-35.16
-40.89
-45.28
-47.59
-47.44
-44.8
-40.02
-33.66
-26.39
-18.85
-11.64
-5.2
0.14
4.2
6.95
8.42
8.76
8.19
6.93
5.24
3.36
1.55
0.04
-0.99
-1.44
-1.33
-0.85
-0.21
0.38
0.88
1.41
2.14
3.19
4.55
6.01
7.27
7.99
7.93
6.94
5.02
2.31
-0.9
-4.12
-6.73
-8.13
-7.89
-5.94
-2.59
1.61
5.98
9.92
13.02
15.01
15.77
15.31
13.72
11.25
8.32
5.44
3.11
1.65
1.14
1.35
1.94
2.53
2.85
2.76
2.23
1.27
-0.07
-1.71
-3.53
-5.35
-7.01
-8.47
-9.85
-11.42
-13.45
-15.93
-18.56
-20.72
-21.68
-20.89
-18.13
-13.59
-7.81
-1.44
4.94
10.88
16.05
20.13
22.77
23.7
22.88
20.55
17.28
13.86
10.92
8.81
7.43
6.38
5.15
3.36
0.93
-1.98
-5.09
-8.16
-11.14
-14.22
-17.72
-21.94
-26.92
-32.37
-37.69
-42.15
-45.09
-46.13
-45.24
-42.75
-39.41
-36.18
-33.98
-33.26
-33.5
-33.01
-29.33
-20.24
-4.87
15.56
37.9
58.14
72.96
80.78
82.08
78.77
73.11
66.76
60.47
54.32
48.22
42.33
37.02
32.61
28.97
25.42
20.97
14.69
6.22
-4.04
-15.15
-25.98
-35.72
-44.03
-50.84
-56.03
-59.13
-59.34
-55.84
-48.28
-37.14
-23.72
-9.81
2.97
13.56
21.58
27.22
30.76
32.48
32.51
31.04
28.41
25.2
22.05
19.42
17.43
15.84
14.2
12.18
9.71
7.09
4.8
3.31
2.97
3.85
5.79
8.37
11.02
13.04
13.75
12.65
9.63
5.02
-0.36
-5.43
-9.09
-10.48
-9.2
-5.41
0.27
6.91
13.54
19.42
24.08
27.42
29.53
30.56
30.62
29.78
28.16
25.97
23.5
21.12
19.13
17.77
17.21
17.54
18.8
20.92
23.62
26.53
29.21
31.32
32.66
33.13
32.62
30.94
27.9
23.43
17.72
11.11
3.94
-3.6
-11.61
-20.18
-29.17
-37.96
-45.49
-50.6
-52.44
-50.77
-45.97
-38.83
-30.35
-21.59
-13.7
-8.03
-5.89
-8.22
-15.09
-25.36
-36.99
-47.7
-55.72
-60.37
-62.09
-61.95
-61.08
-60.38
-60.46
-61.93
-65.66
-72.55
-83.14
-97.03
-112.81
-128.35
-141.56
-151.09
-156.52
-158.24
-156.88
-152.89
-146.31
-136.77
-123.75
-106.82
-85.94
-61.67
-35.41
-9.3
14.14
32.71
45.31
52.34
55.57
57.56
60.92
67.48
77.93
91.74
107.33
122.49
134.96
143
145.76
143.5
137.32
128.64
118.65
107.96
96.64
84.51
71.48
57.85
44.22
31.3
19.62
9.29
0.03
-8.63
-17.04
-25.09
-32.19
-37.36
-39.7
-38.67
-34.35
-27.41
-18.8
-9.41
0.2
9.84
19.42
28.58
36.54
42.25
44.79
43.86
40.09
34.94
30.16
27.14
26.43
27.57
29.43
30.74
30.55
28.52
24.86
20.13
14.95
9.85
5.05
0.53
-3.9
-8.48
-13.27
-18.1
-22.51
-25.88
-27.61
-27.33
-25.01
-20.94
-15.61
-9.54
-3.22
2.99
8.75
13.75
17.69
20.41
21.93
22.4
22.06
21.13
19.71
17.87
15.7
13.31
10.91
8.62
6.43
4.16
1.46
-2.07
-6.73
-12.68
-19.82
-27.93
-36.69
-45.85
-55.17
-64.39
-73.01
-80.31
-85.34
-87.17
-85.22
-79.42
-70.31
-58.76
-45.76
-32.26
-19
-6.57
4.57
14.05
21.62
27.17
30.77
32.63
33.1
32.6
31.6
30.49
29.46
28.55
27.6
26.42
24.88
22.98
20.81
18.51
16.18
13.81
11.34
8.69
5.8
2.56
-1.2
-5.64
-10.88
-16.74
-22.71
-27.9
-31.34
-32.23
-30.26
-25.71
-19.24
-11.74
-4.06
3.14
9.4
14.39
17.93
19.91
20.39
19.59
17.83
15.48
12.9
10.49
8.55
7.36
7
7.32
8.02
8.65
8.87
8.54
7.75
6.73
5.77
4.93
4.12
3.04
1.33
-1.29
-4.94
-9.52
-14.74
-20.14
-25.13
-29.03
-31.09
-30.69
-27.48
-21.54
-13.51
-4.43
4.51
12.28
18.26
22.35
24.77
25.92
26.16
25.7
24.76
23.57
22.48
21.77
21.62
21.91
22.33
22.47
22.04
21.02
19.65
18.25
17.09
16.17
15.27
14.1
12.42
10.2
7.58
4.71
1.66
-1.56
-4.92
-8.12
-10.64
-11.75
-10.83
-7.53
-1.98
5.24
13.36
21.51
28.87
34.69
38.33
39.37
37.8
34.1
29.14
24.04
19.71
16.66
14.83
13.76
12.83
11.52
9.71
7.54
5.47
3.88
2.96
2.56
2.2
1.19
-1.15
-5.21
-11.01
-18.16
-26.01
-33.84
-40.89
-46.54
-50.21
-51.39
-49.77
-45.29
-38.27
-29.45
-19.78
-10.28
-1.78
5.19
10.38
13.72
15.24
15.11
13.6
11.13
8.18
5.26
2.84
1.24
0.56
0.74
1.5
2.42
3.12
3.31
2.93
2.1
1.03
-0.13
-1.45
-3.15
-5.56
-8.93
-13.27
-18.31
-23.47
-27.99
-31.06
-31.98
-30.26
-25.76
-18.77
-10
-0.43
8.82
16.81
22.98
27.13
29.35
29.85
28.89
26.73
23.74
20.44
17.3
14.71
12.68
10.93
8.99
6.47
3.27
-0.36
-3.99
-7.23
-9.92
-12.2
-14.46
-17.14
-20.65
-25.13
-30.43
-36.13
-41.47
-45.54
-47.3
-45.83
-40.58
-31.52
-19.27
-4.96
10.01
24.27
36.73
46.69
53.79
57.94
59.28
58.11
54.92
50.33
45.06
39.72
34.68
30.01
25.44
20.58
15.04
8.66
1.57
-5.87
-13.25
-20.24
-26.74
-32.91
-38.96
-45.11
-51.5
-58.11
-64.69
-70.74
-75.38
-77.58
-76.42
-71.45
-63.06
-52.37
-40.94
-30.2
-21.07
-13.9
-8.65
-5.29
-3.91
-4.72
-7.68
-12.33
-17.74
-22.76
-26.32
-27.71
-26.67
-23.33
-18.09
-11.5
-4.17
3.25
10.18
16.2
21.1
24.8
27.39
28.89
29.32
28.67
27.04
24.67
21.96
19.41
17.45
16.45
16.62
18.04
20.63
24.17
28.29
32.51
36.43
39.75
42.33
44.18
45.33
45.78
45.45
44.25
42.16
39.32
36.01
32.54
29.15
25.98
23.11
20.6
18.53
16.98
16.02
15.56
15.32
14.95
14.03
12.3
9.61
5.98
1.53
-3.56
-9.02
-14.48
-19.38
-23.09
-24.94
-24.47
-21.58
-16.6
-10.33
-3.75
2.15
6.74
9.75
11.35
11.93
11.89
11.49
10.8
9.84
8.71
7.74
7.43
8.29
10.55
13.98
17.88
21.25
23.17
23.11
21.13
17.8
13.94
10.36
7.65
6.17
5.9
6.36
6.44
4.42
-1.54
-12.47
-27.8
-44.95
-59.97
-68.92
-69.39
-61.35
-47.07
-29.92
-12.96
2
14.56
25.11
34.05
41.45
47.13
51.01
53.45
55.24
57.27
60.1
63.61
67.09
69.54
70.19
68.79
65.76
61.9
57.97
54.34
50.9
47.26
43.26
39.22
35.92
34.33
35.01
37.84
42.05
46.54
50.17
52.03
51.45
47.91
41.16
31.24
18.7
4.65
-9.42
-22.08
-32.31
-39.83
-45.03
-48.64
-51.46
-53.96
-56.23
-58.05
-59.12
-59.28
-58.66
-57.71
-56.91
-56.7
-57.23
-58.4
-59.88
-61.25
-61.97
-61.46
-59.18
-54.64
-47.74
-38.78
-28.53
-18.03
-8.37
-0.27
5.91
10.19
12.85
14.11
14.14
13
10.75
7.39
3.03
-2.23
-8.13
-14.23
-19.89
-24.43
-27.36
-28.65
-28.79
-28.67
-29.26
-31.31
-35.1
-40.49
-47.02
-54.04
-60.85
-66.6
-70.52
-71.98
-70.76
-67.11
-61.74
-55.62
-49.71
-44.71
-41.06
-38.97
-38.48
-39.45
-41.48
-43.97
-46.1
-47.03
-46.21
-43.47
-39.12
-33.77
-28.16
-22.95
-18.61
-15.33
-13.03
-11.5
-10.52
-10
-10.04
-10.79
-12.34
-14.48
-16.73
-18.4
-18.85
-17.78
-15.22
-11.61
-7.58
-3.71
-0.33
2.56
5.22
8.06
11.41
15.39
19.86
24.55
29.24
33.85
38.37
42.76
46.86
50.34
52.91
54.38
54.74
54
52.08
48.69
43.5
36.36
27.52
17.69
7.89
-0.81
-7.59
-11.93
-13.66
-12.83
-9.73
-4.82
1.31
7.91
14.21
19.52
23.37
25.47
25.87
24.85
22.83
20.3
17.6
14.95
12.5
10.37
8.79
7.96
8
8.76
9.81
10.56
10.34
8.74
5.57
0.92
-4.87
-11.25
-17.5
-22.83
-26.52
-28.11
-27.48
-24.92
-20.95
-16.2
-11.31
-6.9
-3.56
-1.84
-2.14
-4.49
-8.56
-13.56
-18.43
-22.16
-24.07
-24.03
-22.4
-19.99
-17.66
-16.2
-16.09
-17.3
-19.28
-20.78
-20.09
-15.5
-6.18
7.23
22.5
36.46
46.29
50.61
50.01
46.52
42.53
39.63
38.15
37.39
36.26
34.02
30.42
25.61
19.73
12.78
4.68
-4.45
-14.13
-23.47
-31.37
-36.94
-39.76
-40.12
-38.95
-37.65
-37.65
-40.11
-45.48
-53.31
-62.49
-71.48
-78.82
-83.62
-85.59
-85.01
-82.3
-77.81
-71.6
-63.72
-54.37
-43.92
-32.74
-20.93
-8.12
6.21
22.23
39.29
55.77
69.64
79.16
83.6
83.48
80.19
75.34
70.12
65.03
59.99
54.83
49.57
44.54
40.27
37.11
35.01
33.48
31.75
29.11
25.27
20.53
15.74
12.03
10.4
11.36
14.81
20.16
26.56
33.31
39.99
46.44
52.6
58.22
62.8
65.66
66.13
63.92
59.15
52.36
44.34
35.97
28.07
21.41
16.7
14.49
15.1
18.38
23.66
29.79
35.53
39.73
41.71
41.29
38.71
34.43
29.07
23.37
18.15
14.34
12.72
13.8
17.62
23.61
30.85
38.22
44.74
49.78
53.07
54.6
54.53
53.11
50.55
47.14
43.24
39.15
35.12
31.23
27.39
23.43
19.23
14.77
10.24
5.89
1.87
-1.83
-5.48
-9.53
-14.45
-20.49
-27.59
-35.31
-42.86
-49.3
-53.8
-55.78
-55.04
-51.82
-46.63
-40.23
-33.38
-26.77
-20.97
-16.32
-13.01
-11.1
-10.53
-11.06
-12.31
-13.81
-14.98
-15.42
-14.88
-13.45
-11.45
-9.35
-7.53
-6.17
-5.3
-4.78
-4.58
-4.71
-5.35
-6.65
-8.73
-11.44
-14.51
-17.46
-19.71
-20.71
-20
-17.42
-13.07
-7.39
-1.02
5.31
10.93
15.37
18.32
19.77
19.79
18.59
16.48
13.83
11.07
8.57
6.63
5.28
4.39
3.69
2.94
1.98
0.76
-0.68
-2.34
-4.28
-6.63
-9.52
-12.97
-16.86
-20.86
-24.54
-27.37
-28.85
-28.6
-26.44
-22.5
-17.21
-11.27
-5.45
-0.55
2.86
4.48
4.35
2.69
-0.06
-3.44
-7.04
-10.51
-13.7
-16.53
-19.13
-21.66
-24.36
-27.35
-30.72
-34.43
-38.24
-41.9
-45.09
-47.65
-49.64
-51.24
-52.64
-53.79
-54.36
-53.72
-51.31
-46.91
-40.78
-33.7
-26.62
-20.34
-15.33
-11.67
-9.16
-7.5
-6.46
-5.87
-5.67
-5.8
-6.22
-6.8
-7.47
-8.09
-8.59
-8.93
-9.16
-9.38
-9.73
-10.38
-11.44
-12.99
-15.08
-17.67
-20.67
-23.72
-26.31
-27.76
-27.44
-24.96
-20.34
-14.13
-7.13
-0.31
5.62
10.21
13.32
14.99
15.39
14.74
13.34
11.58
9.84
8.46
7.53
7.01
6.73
6.5
6.23
5.88
5.44
4.81
3.88
2.42
0.24
-2.78
-6.66
-11.24
-16.22
-21.05
-25.11
-27.75
-28.42
-26.89
-23.23
-17.82
-11.24
-4.15
2.85
9.15
14.31
17.98
19.93
20.2
19
16.85
14.34
12.13
10.64
9.97
9.91
10.02
9.85
9.1
7.74
5.95
3.98
2.03
0.12
-1.82
-3.96
-6.46
-9.45
-12.98
-16.94
-21.01
-24.57
-26.8
-26.9
-24.38
-19.18
-11.91
-3.5
4.93
12.51
18.71
23.38
26.63
28.61
29.47
29.29
28.13
26.12
23.53
20.69
17.98
15.69
13.9
12.48
11.15
9.61
7.68
5.39
2.91
0.44
-1.85
-4
-6.1
-8.38
-11.01
-14.13
-17.78
-21.94
-26.46
-31.06
-35.27
-38.44
-39.82
-38.8
-35.01
-28.52
-19.86
-9.94
0.22
9.67
17.75
24.14
28.77
31.7
33.04
32.92
31.52
29.23
26.49
23.79
21.46
19.63
18.23
17.14
16.27
15.61
15.23
15.1
15.04
14.71
13.72
11.79
8.86
5.16
1.11
-2.83
-6.37
-9.47
-12.36
-15.41
-18.98
-23.3
-28.26
-33.42
-38.01
-41.07
-41.66
-39.13
-33.33
-24.8
-14.59
-3.99
5.89
14.32
21.06
26.22
30.04
32.71
34.28
34.83
34.51
33.58
32.38
31.18
30.14
29.23
28.34
27.37
26.33
25.31
24.44
23.78
23.27
22.68
21.7
20.09
17.7
14.65
11.18
7.6
4.15
0.97
-2.02
-5
-8.22
-11.91
-16.28
-21.4
-27.14
-33.06
-38.46
-42.42
-44.06
-42.76
-38.47
-31.67
-23.3
-14.37
-5.7
2.26
9.41
15.83
21.57
26.53
30.46
33.11
34.34
34.33
33.39
31.97
30.41
28.91
27.48
26.07
24.63
23.17
21.72
20.25
18.68
16.87
14.73
12.32
9.83
7.49
5.47
3.78
2.24
0.63
-1.28
-3.59
-6.35
-9.57
-13.34
-17.71
-22.67
-27.99
-33.12
-37.27
-39.57
-39.33
-36.27
-30.64
-23.07
-14.49
-5.82
2.16
8.9
14.09
17.68
19.78
20.65
20.61
19.98
19
17.87
16.76
15.75
14.88
14.16
13.54
13.02
12.6
12.31
12.16
12.07
11.88
11.42
10.53
9.19
7.48
5.58
3.65
1.84
0.21
-1.28
-2.79
-4.59
-6.91
-9.89
-13.38
-16.89
-19.69
-20.99
-20.27
-17.39
-12.65
-6.68
-0.19
6.2
12.03
16.98
20.88
23.56
24.98
25.18
24.3
22.59
20.34
17.83
15.36
13.16
11.44
10.28
9.63
9.3
9.05
8.61
7.8
6.53
4.83
2.82
0.66
-1.5
-3.51
-5.27
-6.81
-8.28
-9.87
-11.85
-14.35
-17.32
-20.43
-23.11
-24.69
-24.55
-22.39
-18.23
-12.56
-6.12
0.31
6.06
10.76
14.26
16.58
17.75
17.78
16.69
14.55
11.58
8.18
4.76
1.73
-0.63
-2.23
-3.06
-3.24
-2.92
-2.31
-1.67
-1.25
-1.24
-1.71
-2.56
-3.66
-4.92
-6.4
-8.19
-10.39
-12.9
-15.4
-17.44
-18.55
-18.43
-16.95
-14.21
-10.41
-5.9
-1.14
3.42
7.29
10.08
11.62
11.91
11.11
9.42
7.04
4.2
1.16
-1.72
-4.04
-5.5
-5.98
-5.58
-4.57
-3.28
-1.91
-0.63
0.49
1.4
1.97
2.04
1.43
0.01
-2.24
-5.14
-8.37
-11.41
-13.69
-14.72
-14.18
-12.03
-8.51
-4.09
0.63
4.99
8.43
10.55
11.2
10.44
8.56
5.95
3.01
0.16
-2.28
-4.1
-5.22
-5.77
-5.98
-6.08
-6.22
-6.35
-6.35
-6.16
-5.82
-5.62
-5.91
-6.95
-8.83
-11.42
-14.42
-17.45
-20.07
-21.82
-22.22
-20.93
-17.89
-13.36
-7.94
-2.39
2.63
6.66
9.48
11.09
11.56
11.02
9.66
7.77
5.69
3.74
2.12
0.9
-0.05
-0.92
-1.89
-3.05
-4.37
-5.73
-6.98
-8.11
-9.2
-10.46
-12.09
-14.27
-16.98
-19.98
-22.84
-24.97
-25.79
-24.87
-22.03
-17.48
-11.74
-5.57
0.3
5.25
8.97
11.3
12.28
12.06
10.79
8.69
6.03
3.11
0.24
-2.31
-4.44
-6.12
-7.44
-8.48
-9.3
-9.94
-10.44
-10.92
-11.5
-12.34
-13.59
-15.27
-17.37
-19.79
-22.37
-24.87
-26.88
-27.95
-27.6
-25.54
-21.71
-16.48
-10.45
-4.4
0.94
5.03
7.64
8.77
8.65
7.6
5.86
3.69
1.33
-0.89
-2.68
-3.78
-4.16
-4.01
-3.7
-3.59
-3.89
-4.54
-5.38
-6.27
-7.24
-8.57
-10.62
-13.69
-17.76
-22.45
-27.05
-30.69
-32.55
-32.08
-29.19
-24.21
-17.8
-10.73
-3.7
2.78
8.4
12.94
16.24
18.1
18.42
17.27
14.96
11.96
8.86
6.17
4.14
2.81
1.94
1.26
0.57
-0.19
-0.92
-1.52
-1.96
-2.4
-3.13
-4.5
-6.73
-9.97
-14.14
-18.97
-24.01
-28.55
-31.78
-32.9
-31.37
-27.11
-20.57
-12.58
-4.1
4.01
11.2
17.21
22.04
25.7
28.17
29.42
29.43
28.36
26.57
24.57
22.82
21.65
21.06
20.78
20.42
19.58
18.08
15.98
13.55
11.15
8.99
7.08
5.15
2.84
-0.17
-4.01
-8.66
-13.89
-19.41
-24.76
-29.3
-32.25
-32.8
-30.36
-24.9
-17.02
-7.83
1.38
9.53
15.96
20.46
23.12
24.11
23.69
22.14
19.84
17.26
14.87
13.06
12.02
11.73
12
12.53
13
13.17
12.88
12.1
10.88
9.23
7.16
4.55
1.33
-2.48
-6.76
-11.3
-15.94
-20.6
-25.34
-30.08
-34.47
-37.74
-38.9
-37
-31.57
-22.94
-12.11
-0.54
10.38
19.65
26.85
32.08
35.67
37.95
39.14
39.33
38.59
37.09
35.14
33.12
31.37
30.17
29.61
29.67
30.21
31
31.67
31.63
30.12
26.35
19.86
10.73
-0.27
-11.84
-22.56
-31.39
-37.96
-42.57
-45.82
-48.18
-49.6
-49.53
-47.31
-42.6
-35.67
-27.42
-18.99
-11.34
-4.97
0.1
4.05
7.01
8.91
9.58
8.99
7.36
5.2
3.09
1.5
0.58
0.26
0.25
0.27
0.27
0.35
0.82
1.96
3.96
6.69
9.77
12.65
14.7
15.51
14.88
12.88
9.73
5.72
1.2
-3.4
-7.54
-10.56
-11.8
-10.76
-7.35
-1.88
4.99
12.44
19.73
26.27
31.63
35.53
37.74
38.17
36.93
34.35
30.96
27.32
23.88
20.92
18.58
16.89
15.87
15.45
15.52
15.78
15.93
15.66
14.86
13.6
12.11
10.54
8.89
6.93
4.33
0.83
-3.46
-7.97
-11.69
-13.4
-12.08
-7.17
1.18
12.11
24.04
34.94
42.5
44.66
40.17
29.15
13.26
-4.64
-21.29
-34.05
-41.57
-43.99
-42.46
-38.52
-33.5
-28.3
-23.47
-19.34
-16.22
-14.26
-13.45
-13.55
-14.23
-15.23
-16.47
-18.16
-20.58
-23.93
-28.05
-32.35
-35.85
-37.43
-36.19
-31.75
-24.46
-15.27
-5.43
3.85
11.74
17.84
22.21
25.12
26.89
27.78
27.97
27.62
26.89
25.96
24.99
24.11
23.27
22.32
21.05
19.25
16.85
13.93
10.72
7.46
4.32
1.24
-2.01
-5.77
-10.39
-15.98
-22.36
-29.04
-35.23
-40.06
-42.71
-42.58
-39.47
-33.61
-25.6
-16.33
-6.67
2.57
10.78
17.54
22.59
25.82
27.2
26.94
25.36
22.97
20.38
18.08
16.5
15.74
15.71
16.07
16.41
16.4
15.84
14.78
13.4
11.9
10.38
8.74
6.71
3.98
0.28
-4.49
-10.22
-16.61
-23.12
-29.02
-33.42
-35.47
-34.58
-30.63
-24.07
-15.88
-7.26
0.75
7.47
12.67
16.47
19.14
20.89
21.81
21.93
21.29
20.08
18.61
17.21
16.17
15.62
15.53
15.73
15.94
15.9
15.39
14.24
12.41
10.04
7.37
4.69
2.19
-0.1
-2.41
-5.12
-8.61
-13.06
-18.43
-24.37
-30.21
-35.13
-38.17
-38.51
-35.71
-29.79
-21.34
-11.37
-1.08
8.42
16.37
22.4
26.49
28.86
29.83
29.73
28.87
27.52
25.91
24.22
22.59
21.1
19.79
18.75
18
17.52
17.24
16.97
16.47
15.49
13.88
11.58
8.73
5.54
2.24
-1.05
-4.29
-7.65
-11.33
-15.56
-20.42
-25.73
-30.99
-35.4
-38.1
-38.32
-35.7
-30.39
-23.01
-14.53
-5.92
1.99
8.75
14.22
18.47
21.62
23.75
24.86
24.96
24.17
22.77
21.18
19.86
19.11
19.05
19.52
20.24
20.88
21.18
21.03
20.36
19.2
17.55
15.46
12.93
10.11
7.14
4.18
1.34
-1.45
-4.4
-7.88
-12.16
-17.29
-22.84
-27.93
-31.39
-32.14
-29.63
-24.05
-16.27
-7.53
0.97
8.46
14.59
19.31
22.69
24.75
25.45
24.86
23.21
20.96
18.61
16.62
15.25
14.61
14.62
15.08
15.76
16.37
16.64
16.36
15.41
13.77
11.5
8.7
5.52
2.12
-1.37
-4.89
-8.47
-12.21
-16.3
-20.89
-25.99
-31.31
-36.22
-39.83
-41.16
-39.48
-34.55
-26.77
-17.1
-6.74
3.08
11.55
18.2
22.97
25.97
27.38
27.34
26.07
23.87
21.19
18.64
16.69
15.64
15.4
15.68
16.12
16.43
16.51
16.33
15.9
15.08
13.71
11.6
8.73
5.27
1.54
-2.2
-5.84
-9.42
-13.18
-17.4
-22.29
-27.9
-33.96
-39.87
-44.73
-47.47
-47.18
-43.4
-36.32
-26.74
-15.92
-5.14
4.52
12.43
18.38
22.45
24.82
25.74
25.47
24.24
22.32
20.02
17.68
15.65
14.24
13.58
13.62
14.14
14.72
14.92
14.42
13.08
10.96
8.28
5.25
2.03
-1.27
-4.58
-7.77
-10.74
-13.5
-16.22
-19.25
-22.94
-27.46
-32.44
-37.06
-40.14
-40.57
-37.74
-31.77
-23.42
-13.88
-4.34
4.39
11.83
17.89
22.55
25.76
27.41
27.42
25.96
23.45
20.56
17.9
15.92
14.76
14.25
14.13
14.1
14.01
13.84
13.59
13.17
12.41
11.07
8.95
6.01
2.47
-1.35
-5.09
-8.6
-12.02
-15.68
-19.96
-25.11
-30.98
-37
-42.22
-45.53
-45.99
-43.06
-36.86
-28.11
-17.96
-7.65
1.73
9.57
15.6
19.86
22.45
23.42
22.91
21.16
18.57
15.71
13.11
11.16
10.03
9.61
9.64
9.86
10.02
9.98
9.67
9.05
8.13
6.92
5.4
3.5
1.15
-1.74
-5.19
-9.2
-13.78
-18.88
-24.33
-29.69
-34.26
-37.08
-37.23
-34.15
-27.9
-19.3
-9.57
-0.05
8.22
14.72
19.36
22.25
23.51
23.26
21.6
18.84
15.5
12.22
9.61
8.03
7.52
7.77
8.33
8.68
8.45
7.46
5.78
3.68
1.44
-0.72
-2.84
-5.14
-7.98
-11.66
-16.29
-21.74
-27.66
-33.45
-38.34
-41.5
-42.1
-39.66
-34.09
-25.93
-16.18
-6.04
3.31
11.08
16.82
20.42
21.96
21.65
19.76
16.7
13.03
9.36
6.31
4.26
3.29
3.17
3.42
3.57
3.31
2.55
1.43
0.09
-1.42
-3.17
-5.41
-8.34
-12.14
-16.82
-22.35
-28.59
-35.36
-42.28
-48.69
-53.71
-56.38
-55.95
-52.16
-45.43
-36.77
-27.5
-18.93
-12
-7.14
-4.33
-3.15
-2.97
-3.11
-2.92
-1.92
0.11
3.13
6.83
10.67
14.04
16.42
17.48
17.19
15.83
13.92
12.05
10.68
10.03
9.94
9.98
9.62
8.37
5.91
2.16
-2.77
-8.58
-14.72
-20.45
-24.85
-26.96
-26.01
-21.68
-14.2
-4.34
6.79
18.06
28.5
37.51
44.84
50.46
54.46
56.91
57.83
57.29
55.45
52.68
49.51
46.54
44.32
43.13
42.92
43.34
43.86
43.97
43.28
41.68
39.24
36.14
32.59
28.69
24.53
20.1
15.34
10.11
4.32
-2.13
-9.11
-16.24
-22.8
-27.84
-30.41
-29.93
-26.4
-20.49
-13.27
-6
0.33
5.15
8.33
10
10.36
9.53
7.6
4.77
1.43
-1.79
-4.21
-5.37
-5.21
-4.11
-2.72
-1.74
-1.66
-2.57
-4.26
-6.3
-8.24
-9.73
-10.67
-11.15
-11.42
-11.78
-12.54
-13.93
-16.13
-19.15
-22.81
-26.64
-29.9
-31.76
-31.38
-28.41
-22.95
-15.72
-7.7
0.06
6.79
12.09
15.84
18.15
19.18
19.1
18.16
16.7
15.17
13.95
13.3
13.21
13.5
13.84
13.94
13.67
12.99
11.97
10.62
8.94
6.86
4.41
1.68
-1.12
-3.81
-6.36
-8.9
-11.72
-15.1
-19.14
-23.57
-27.77
-30.9
-32.14
-30.96
-27.25
-21.45
-14.32
-6.79
0.34
6.48
11.35
14.81
16.8
17.38
16.67
14.96
12.65
10.22
8.09
6.52
5.62
5.35
5.56
6.01
6.49
6.75
6.59
5.95
4.88
3.45
1.78
-0.15
-2.41
-5.1
-8.28
-12
-16.15
-20.64
-25.28
-29.76
-33.62
-36.29
-37.21
-35.96
-32.51
-27.18
-20.58
-13.43
-6.38
0.02
5.5
9.88
13.15
15.31
16.49
16.76
16.27
15.2
13.8
12.42
11.39
10.99
11.27
12
12.77
13.09
12.63
11.26
9.18
6.71
4.17
1.74
-0.63
-3.1
-5.9
-9.13
-12.82
-16.87
-21.18
-25.64
-29.99
-33.79
-36.36
-36.94
-34.92
-30.16
-23.14
-14.79
-6.24
1.55
8.09
13.31
17.36
20.45
22.62
23.77
23.76
22.64
20.69
18.39
16.29
14.83
14.24
14.44
15.06
15.67
15.91
15.62
14.86
13.78
12.5
11.08
9.42
7.42
5.04
2.35
-0.51
-3.4
-6.34
-9.46
-12.82
-16.38
-19.82
-22.66
-24.5
-25.15
-24.77
-23.69
-22.2
-20.37
-17.97
-14.66
-10.28
-5.05
0.42
5.35
9.06
11.23
11.99
11.72
10.89
9.9
8.99
8.27
7.8
7.62
7.73
8.13
8.7
9.25
9.55
9.31
8.36
6.66
4.33
1.65
-1.03
-3.47
-5.62
-7.65
-9.95
-12.84
-16.53
-20.91
-25.6
-29.91
-33.12
-34.5
-33.57
-30.13
-24.45
-17.18
-9.22
-1.56
5.07
10.21
13.76
15.83
16.61
16.29
15.04
13.16
11.03
9.09
7.72
7.08
7.16
7.75
8.59
9.44
10.16
10.64
10.75
10.38
9.45
7.94
5.95
3.64
1.18
-1.31
-3.85
-6.51
-9.41
-12.68
-16.3
-20.09
-23.58
-26.18
-27.18
-26.05
-22.54
-16.93
-9.87
-2.36
4.69
10.54
14.87
17.64
19.01
19.18
18.33
16.66
14.44
12.11
10.03
8.52
7.66
7.28
7.07
6.71
6.02
4.91
3.38
1.49
-0.68
-3.02
-5.43
-7.78
-10.02
-12.19
-14.48
-17.1
-20.2
-23.82
-27.8
-31.77
-35.19
-37.42
-37.8
-35.89
-31.62
-25.35
-17.78
-9.82
-2.3
4.17
9.26
12.91
15.14
16.08
15.9
14.82
13.12
11.15
9.23
7.6
6.39
5.67
5.37
5.32
5.33
5.08
4.39
3.16
1.42
-0.62
-2.82
-5.08
-7.41
-9.91
-12.67
-15.71
-19
-22.51
-26.09
-29.49
-32.24
-33.74
-33.36
-30.61
-25.49
-18.46
-10.41
-2.32
5.01
11.11
15.81
19.19
21.35
22.38
22.39
21.54
20.13
18.44
16.76
15.26
13.97
12.88
11.94
11.11
10.3
9.36
8.07
6.21
3.73
0.72
-2.6
-6
-9.27
-12.33
-15.26
-18.2
-21.33
-24.77
-28.51
-32.33
-35.73
-38.01
-38.41
-36.37
-31.76
-24.93
-16.67
-7.95
0.3
7.43
13.16
17.46
20.45
22.25
22.93
22.57
21.35
19.56
17.64
15.98
14.83
14.21
13.91
13.57
12.85
11.56
9.65
7.23
4.51
1.66
-1.15
-3.86
-6.49
-9.1
-11.8
-14.7
-17.91
-21.48
-25.4
-29.37
-32.88
-35.18
-35.5
-33.3
-28.55
-21.69
-13.56
-5.17
2.61
9.21
14.37
18.05
20.36
21.5
21.65
21.04
19.89
18.4
16.77
15.17
13.75
12.62
11.87
11.48
11.34
11.27
11.05
10.51
9.61
8.37
6.83
5
2.87
0.34
-2.61
-5.98
-9.75
-13.9
-18.33
-22.9
-27.18
-30.55
-32.27
-31.68
-28.48
-22.84
-15.43
-7.19
0.94
8.21
14.17
18.67
21.68
23.28
23.59
22.76
21.04
18.83
16.62
14.83
13.73
13.3
13.29
13.32
13.04
12.32
11.2
9.83
8.37
6.82
5.12
3.13
0.69
-2.27
-5.75
-9.73
-14.13
-18.77
-23.34
-27.3
-30.01
-30.86
-29.42
-25.65
-19.93
-12.91
-5.42
1.81
8.22
13.41
17.14
19.28
19.8
18.79
16.53
13.51
10.28
7.41
5.29
4.04
3.56
3.57
3.74
3.82
3.64
3.16
2.47
1.66
0.8
-0.14
-1.32
-2.97
-5.42
-8.88
-13.43
-18.81
-24.42
-29.4
-32.73
-33.58
-31.51
-26.65
-19.72
-11.72
-3.69
3.61
9.81
14.83
18.66
21.2
22.29
21.85
20.03
17.31
14.38
11.88
10.24
9.47
9.3
9.31
9.19
8.77
8.1
7.34
6.58
5.79
4.8
3.35
1.16
-1.99
-6.12
-11.05
-16.4
-21.55
-25.81
-28.43
-28.84
-26.78
-22.33
-15.98
-8.4
-0.36
7.41
14.36
20.08
24.33
27.03
28.21
28.03
26.72
24.56
21.88
19.03
16.37
14.16
12.53
11.34
10.33
9.17
7.67
5.86
3.92
2.05
0.28
-1.52
-3.61
-6.28
-9.69
-13.85
-18.63
-23.74
-28.74
-33.01
-35.8
-36.37
-34.31
-29.64
-22.89
-15.02
-7.07
0.12
6.07
10.69
14.09
16.38
17.61
17.71
16.72
14.82
12.45
10.16
8.4
7.43
7.16
7.31
7.51
7.49
7.1
6.38
5.4
4.2
2.79
1.03
-1.18
-3.98
-7.41
-11.44
-16
-20.9
-25.8
-30.12
-33.16
-34.16
-32.51
-28
-20.95
-12.16
-2.69
6.4
14.33
20.67
25.34
28.43
30.07
30.36
29.45
27.64
25.34
23.03
21.11
19.72
18.76
17.97
17.05
15.88
14.47
12.9
11.24
9.51
7.66
5.63
3.46
1.23
-1.04
-3.37
-6.03
-9.3
-13.42
-18.33
-23.58
-28.37
-31.63
-32.47
-30.37
-25.42
-18.28
-9.98
-1.58
6.07
12.45
17.39
20.84
22.89
23.58
23.08
21.62
19.58
17.42
15.59
14.37
13.79
13.68
13.7
13.48
12.76
11.43
9.55
7.29
4.86
2.43
0.13
-2.01
-4.08
-6.23
-8.72
-11.7
-15.2
-18.97
-22.44
-24.86
-25.51
-23.95
-20.21
-14.76
-8.38
-1.95
3.85
8.59
12.15
14.5
15.66
15.68
14.64
12.75
10.39
8.02
6.11
4.95
4.57
4.77
5.2
5.48
5.34
4.72
3.67
2.41
1.14
0
-1.04
-2.18
-3.71
-5.89
-8.9
-12.71
-17.04
-21.38
-24.98
-27.06
-26.97
-24.41
-19.5
-12.79
-5.03
2.93
10.38
16.84
21.95
25.47
27.29
27.43
26.15
23.92
21.32
18.87
16.95
15.72
15.05
14.68
14.22
13.34
11.81
9.57
6.79
3.75
0.76
-1.99
-4.53
-7.04
-9.83
-13.19
-17.26
-21.97
-26.97
-31.62
-35.11
-36.62
-35.58
-31.82
-25.68
-17.88
-9.39
-1.07
6.35
12.5
17.2
20.45
22.32
22.94
22.48
21.2
19.42
17.53
15.91
14.82
14.27
14.02
13.65
12.75
11.13
8.94
6.54
4.33
2.47
0.85
-0.98
-3.49
-7.03
-11.65
-17.13
-23.03
-28.8
-33.78
-37.24
-38.55
-37.19
-33.04
-26.4
-18.03
-8.9
0
7.92
14.43
19.36
22.71
24.53
24.92
24.03
22.14
19.63
16.97
14.62
12.91
11.97
11.68
11.78
12.01
12.16
12.12
11.79
11.1
9.94
8.2
5.81
2.77
-0.84
-4.91
-9.35
-14.14
-19.13
-24.07
-28.42
-31.48
-32.55
-31.15
-27.27
-21.29
-13.99
-6.19
1.36
8.16
13.91
18.44
21.61
23.34
23.68
22.81
21.15
19.16
17.3
15.87
14.96
14.55
14.5
14.66
14.84
14.83
14.45
13.52
11.98
9.86
7.35
4.63
1.79
-1.14
-4.27
-7.77
-11.77
-16.31
-21.24
-26.15
-30.43
-33.36
-34.2
-32.48
-28.09
-21.43
-13.21
-4.46
3.84
10.93
16.32
19.9
21.76
22.18
21.48
20.04
18.22
16.35
14.69
13.37
12.39
11.65
11.04
10.48
10
9.57
9.15
8.63
7.85
6.71
5.14
3.2
0.94
-1.61
-4.44
-7.61
-11.15
-15.03
-19.14
-23.21
-26.78
-29.25
-29.94
-28.39
-24.46
-18.51
-11.29
-3.75
3.26
9.13
13.61
16.64
18.34
18.81
18.25
16.87
15.07
13.24
11.81
11.04
10.96
11.43
12.11
12.63
12.66
12.06
10.82
9.13
7.21
5.22
3.24
1.16
-1.2
-4.05
-7.52
-11.61
-16.17
-20.9
-25.35
-28.83
-30.66
-30.23
-27.29
-22.06
-15.19
-7.62
-0.23
6.31
11.7
15.88
18.88
20.72
21.33
20.67
18.86
16.21
13.18
10.28
7.87
6.2
5.25
4.82
4.61
4.32
3.79
2.94
1.84
0.58
-0.75
-2.15
-3.75
-5.74
-8.3
-11.48
-15.19
-19.17
-23.01
-26.22
-28.29
-28.81
-27.53
-24.39
-19.64
-13.68
-7.1
-0.49
5.63
10.83
14.87
17.55
18.79
18.6
17.15
14.8
12.05
9.37
7.12
5.46
4.33
3.52
2.81
2.03
1.08
-0.09
-1.56
-3.42
-5.69
-8.36
-11.37
-14.66
-18.28
-22.3
-26.77
-31.43
-35.65
-38.53
-39.08
-36.62
-31.11
-23.2
-14.02
-4.85
3.34
10.04
15.22
19.09
21.84
23.52
24.03
23.34
21.61
19.33
17.14
15.68
15.3
15.97
17.3
18.76
19.87
20.39
20.39
20.12
19.91
19.97
20.41
21.24
22.32
23.28
23.38
21.54
16.65
8.2
-3.28
-15.99
-27.34
-34.85
-37.03
-33.91
-26.8
-17.63
-8.13
0.64
8.35
14.98
20.49
24.63
27.12
27.94
27.45
26.41
25.52
25.29
25.65
26.13
26.03
24.79
22.28
18.78
14.9
11.23
8.12
5.52
3.05
0.17
-3.49
-7.96
-12.82
-17.31
-20.54
-21.79
-20.67
-17.34
-12.31
-6.39
-0.39
5.09
9.75
13.52
16.43
18.42
19.28
18.77
16.77
13.37
8.98
4.1
-0.79
-5.4
-9.62
-13.52
-17.16
-20.59
-23.85
-26.97
-30.06
-33.27
-36.81
-40.81
-45.35
-50.25
-55.14
-59.35
-62.04
-62.38
-59.75
-53.87
-44.92
-33.52
-20.6
-7.34
5.02
15.45
23.2
28.04
30.17
30.16
28.69
26.43
23.84
21.19
18.62
16.18
13.88
11.69
9.55
7.34
4.9
2.03
-1.5
-5.79
-10.86
-16.51
-22.44
-28.32
-33.87
-38.89
-43.19
-46.56
-48.62
-48.85
-46.66
-41.58
-33.41
-22.38
-9.22
4.97
18.83
31.05
40.65
47.07
50.25
50.52
48.49
44.95
40.77
36.76
33.62
31.73
31.13
31.51
32.3
32.79
32.4
30.71
27.63
23.22
17.75
11.58
5.21
-0.72
-5.48
-8.45
-9.23
-7.91
-5.07
-1.59
1.6
3.9
5.14
5.5
5.3
4.8
4.05
3.03
1.73
0.29
-1.09
-2.18
-2.89
-3.22
-3.32
-3.34
-3.38
-3.52
-3.77
-4.12
-4.58
-5.21
-6.12
-7.43
-9.15
-11.06
-12.68
-13.37
-12.58
-10.06
-5.98
-0.84
4.77
10.28
15.31
19.43
22.15
22.95
21.43
17.57
11.87
5.22
-1.29
-6.73
-10.58
-12.7
-13.22
-12.47
-10.83
-8.74
-6.69
-5.22
-4.7
-5.36
-7.07
-9.46
-12.08
-14.53
-16.49
-17.76
-18.15
-17.48
-15.62
-12.55
-8.49
-3.83
0.95
5.5
9.56
13
15.74
17.62
18.59
18.7
18.3
17.79
17.54
17.62
17.76
17.51
16.5
14.69
12.31
9.8
7.52
5.57
3.77
1.88
-0.3
-2.89
-5.87
-9.14
-12.49
-15.55
-17.87
-19.01
-18.75
-17.17
-14.72
-11.95
-9.36
-7.21
-5.52
-4.21
-3.22
-2.59
-2.39
-2.69
-3.44
-4.52
-5.82
-7.23
-8.67
-10.05
-11.25
-12.16
-12.73
-13.01
-13.15
-13.34
-13.75
-14.38
-15.14
-15.88
-16.44
-16.67
-16.45
-15.68
-14.24
-12.08
-9.18
-5.57
-1.28
3.68
9.26
15.31
21.46
27.14
31.67
34.4
34.96
33.32
29.85
25.16
19.92
14.73
10.02
5.98
2.68
0.06
-1.98
-3.54
-4.67
-5.41
-5.79
-5.85
-5.68
-5.43
-5.34
-5.75
-7.06
-9.68
-13.85
-19.54
-26.37
-33.6
-40.27
-45.37
-48.04
-47.74
-44.4
-38.49
-30.88
-22.72
-15.08
-8.75
-4.08
-1.03
0.67
1.39
1.33
0.73
-0.24
-1.28
-2.03
-2.17
-1.53
-0.15
1.68
3.53
4.96
5.59
5.24
3.91
1.84
-0.58
-2.93
-4.86
-6.23
-7.09
-7.73
-8.59
-10.16
-12.79
-16.51
-20.92
-25.08
-27.79
-27.9
-24.76
-18.51
-10.07
-0.83
7.86
15.03
20.35
23.97
26.29
27.7
28.41
28.5
27.9
26.65
24.75
22.36
19.62
16.64
13.5
10.23
6.9
3.58
0.47
-2.23
-4.29
-5.69
-6.63
-7.61
-9.35
-12.52
-17.52
-24.23
-31.93
-39.46
-45.54
-49.29
-50.33
-48.95
-45.75
-41.31
-35.95
-29.67
-22.34
-13.97
-4.95
4
11.98
18.19
22.19
23.99
23.94
22.61
20.56
18.23
15.94
13.92
12.38
11.63
11.87
13.16
15.21
17.45
19.13
19.63
18.68
16.38
13.17
9.53
5.74
1.85
-2.3
-6.84
-11.77
-16.99
-22.34
-27.72
-33.06
-38.2
-42.74
-46.01
-47.16
-45.52
-40.87
-33.64
-24.81
-15.62
-7.21
-0.25
5.06
9.01
12.05
14.53
16.58
18.1
18.88
18.74
17.75
16.17
14.51
13.27
12.74
12.92
13.49
14.02
14.16
13.82
13.03
11.87
10.29
8.06
4.84
0.43
-5.11
-11.46
-18.05
-24.25
-29.41
-32.86
-34.01
-32.53
-28.41
-22.12
-14.55
-6.66
0.75
7.15
12.33
16.22
18.7
19.66
19.03
16.95
13.87
10.42
7.26
4.86
3.37
2.59
2.15
1.57
0.5
-1.17
-3.33
-5.72
-8.08
-10.32
-12.58
-15.15
-18.31
-22.19
-26.58
-30.99
-34.65
-36.74
-36.55
-33.72
-28.33
-20.88
-12.2
-3.22
5.24
12.48
18.1
21.89
23.83
24.06
22.98
21.1
19.03
17.26
16.01
15.22
14.54
13.6
12.15
10.19
7.92
5.64
3.61
1.82
0.09
-1.96
-4.69
-8.29
-12.71
-17.58
-22.26
-25.92
-27.79
-27.25
-24.07
-18.48
-11.09
-2.82
5.38
12.65
18.43
22.44
24.72
25.44
24.89
23.43
21.43
19.3
17.37
15.92
15.02
14.59
14.4
14.18
13.78
13.16
12.43
11.65
10.83
9.81
8.31
6.12
3.15
-0.46
-4.35
-7.99
-10.77
-12.07
-11.4
-8.56
-3.67
2.81
10.11
17.35
23.75
28.69
31.78
32.82
31.75
28.76
24.21
18.76
13.18
8.21
4.37
1.85
0.52
-0
-0.14
-0.24
-0.48
-0.86
-1.25
-1.59
-1.89
-2.41
-3.55
-5.73
-9.15
-13.62
-18.52
-22.95
-25.99
-26.95
-25.51
-21.77
-16.1
-9.08
-1.35
6.42
13.58
19.53
23.86
26.41
27.36
27.12
26.21
25.17
24.42
24.11
24.21
24.48
24.6
24.31
23.49
22.17
20.53
18.83
17.3
16.12
15.36
14.88
14.45
13.78
12.73
11.34
9.94
9
8.95
9.94
11.81
14.14
16.45
18.37
19.69
20.32
20.25
19.45
17.92
15.74
13.07
10.18
7.35
4.82
2.82
1.45
0.76
0.65
0.88
1.09
0.97
0.41
-0.48
-1.42
-2.16
-2.56
-2.78
-3.17
-4.09
-5.69
-7.79
-9.95
-11.57
-12.16
-11.43
-9.4
-6.38
-2.8
0.8
3.96
6.35
7.8
8.36
8.19
7.49
6.37
4.91
3.16
1.21
-0.76
-2.54
-3.98
-5.05
-5.83
-6.49
-7.11
-7.77
-8.45
-9.17
-9.95
-10.88
-12.1
-13.72
-15.86
-18.54
-21.7
-25.06
-28.14
-30.34
-31.06
-29.95
-26.99
-22.48
-16.96
-11.07
-5.4
-0.51
3.13
5.17
5.52
4.46
2.58
0.66
-0.68
-1.15
-0.87
-0.29
0.11
-0.05
-0.87
-2.23
-3.95
-5.89
-8.03
-10.49
-13.4
-16.86
-20.84
-25.11
-29.3
-32.88
-35.29
-36.02
-34.71
-31.24
-25.74
-18.7
-10.77
-2.74
4.69
10.98
15.83
19.14
20.93
21.31
20.39
18.38
15.6
12.45
9.36
6.65
4.46
2.7
1.21
-0.23
-1.73
-3.39
-5.27
-7.44
-10.03
-13.17
-16.86
-20.9
-24.88
-28.12
-29.87
-29.57
-26.96
-22.32
-16.36
-9.96
-3.92
1.25
5.35
8.42
10.53
11.72
12.04
11.58
10.6
9.41
8.28
7.3
6.43
5.58
4.7
3.9
3.32
3
2.79
2.3
1.09
-1.19
-4.66
-9.14
-14.18
-19.2
-23.45
-26.2
-26.84
-25.03
-20.91
-15.01
-8.09
-0.87
6.16
12.76
18.77
23.95
27.91
30.15
30.39
28.71
25.63
21.94
18.43
15.67
13.84
12.76
12.06
11.34
10.32
8.93
7.23
5.36
3.43
1.43
-0.77
-3.39
-6.65
-10.66
-15.36
-20.39
-25.12
-28.73
-30.39
-29.48
-25.77
-19.52
-11.37
-2.2
7.08
15.71
23.1
28.87
32.89
35.12
35.75
35.07
33.47
31.42
29.34
27.59
26.3
25.39
24.6
23.6
22.07
19.87
17.07
13.82
10.34
6.75
3.1
-0.63
-4.38
-8.04
-11.46
-14.6
-17.6
-20.74
-24.37
-28.62
-33.35
-37.98
-41.74
-43.83
-43.61
-40.83
-35.5
-28.03
-18.99
-9.16
0.54
9.2
15.99
20.44
22.47
22.5
21.18
19.24
17.3
15.72
14.65
14.11
14.09
14.5
15.27
16.18
17.05
17.69
17.94
17.75
17.01
15.66
13.56
10.71
7.2
3.27
-0.74
-4.6
-8.19
-11.54
-14.8
-18.12
-21.56
-25.03
-28.28
-30.84
-32.14
-31.55
-28.65
-23.35
-16.05
-7.54
1.2
9.21
15.87
20.81
24.01
25.54
25.57
24.32
22.14
19.46
16.71
14.34
12.69
11.96
12.18
13.17
14.62
16.05
16.99
17.03
16
13.9
10.93
7.38
3.55
-0.23
-3.71
-6.67
-9.06
-11.02
-12.86
-15.02
-17.8
-21.28
-25.06
-28.43
-30.46
-30.36
-27.72
-22.67
-15.82
-8.09
-0.38
6.61
12.46
16.99
20.1
21.8
22.18
21.49
20.2
18.86
18.03
18
18.77
20.12
21.69
23.15
24.33
25.11
25.41
25.19
24.36
22.9
20.87
18.42
15.71
12.88
9.98
6.87
3.37
-0.72
-5.5
-10.89
-16.56
-22
-26.53
-29.47
-30.31
-28.78
-24.9
-19.03
-11.73
-3.73
4.29
11.76
18.27
23.55
27.47
29.98
31.06
30.8
29.38
27.09
24.32
21.5
18.97
16.99
15.6
14.71
14.2
13.87
13.56
13.08
12.23
10.81
8.7
5.96
2.79
-0.5
-3.68
-6.7
-9.8
-13.33
-17.63
-22.86
-28.89
-35.4
-41.85
-47.54
-51.78
-53.93
-53.57
-50.71
-45.78
-39.5
-32.69
-25.96
-19.57
-13.53
-7.77
-2.38
2.33
5.95
8.15
8.9
8.48
7.47
6.41
5.75
5.6
5.85
6.31
6.82
7.3
7.77
8.23
8.62
8.77
8.45
7.52
5.96
3.95
1.76
-0.23
-1.69
-2.48
-2.62
-2.36
-2.12
-2.35
-3.4
-5.39
-8.1
-10.99
-13.32
-14.37
-13.56
-10.7
-5.95
0.13
6.83
13.48
19.53
24.69
28.82
31.86
33.73
34.36
33.72
31.93
29.24
25.97
22.48
19.09
16.04
13.49
11.53
10.11
9.06
8.09
6.89
5.21
2.99
0.39
-2.38
-5.04
-7.49
-9.76
-11.97
-14.23
-16.57
-18.87
-21.06
-23.12
-25.18
-27.43
-30.11
-33.24
-36.73
-40.28
-43.49
-45.95
-47.2
-46.8
-44.4
-39.85
-33.3
-25.26
-16.43
-7.54
0.81
8.21
14.41
19.22
22.5
24.2
24.43
23.49
21.85
20
18.3
16.98
16.06
15.5
15.2
15.02
14.82
14.4
13.6
12.29
10.42
7.97
5.01
1.68
-1.87
-5.42
-8.76
-11.76
-14.35
-16.57
-18.52
-20.33
-22.15
-24.19
-26.63
-29.63
-33.14
-36.79
-39.86
-41.39
-40.63
-37.21
-31.42
-24.03
-16
-8.14
-0.94
5.44
10.99
15.65
19.28
21.64
22.64
22.43
21.44
20.25
19.44
19.34
20
21.19
22.6
23.95
25.06
25.85
26.21
25.9
24.57
21.87
17.65
12.06
5.57
-1.23
-7.79
-13.83
-19.37
-24.71
-30.15
-35.79
-41.34
-46.12
-49.23
-49.9
-47.69
-42.7
-35.55
-27.15
-18.44
-10.17
-2.78
3.5
8.54
12.22
14.42
15.12
14.51
13.01
11.18
9.54
8.4
7.88
7.82
7.93
7.96
7.73
7.17
6.3
5.17
3.83
2.25
0.39
-1.82
-4.42
-7.44
-10.89
-14.75
-18.97
-23.41
-27.71
-31.32
-33.5
-33.6
-31.23
-26.52
-20.06
-12.78
-5.56
0.99
6.63
11.36
15.23
18.13
19.8
20.02
18.81
16.57
13.95
11.63
10.06
9.29
9.08
9
8.69
7.93
6.62
4.8
2.51
-0.17
-3.18
-6.51
-10.24
-14.53
-19.53
-25.23
-31.34
-37.3
-42.27
-45.47
-46.26
-44.35
-39.84
-33.16
-24.97
-16.04
-7.05
1.43
8.95
15.2
19.93
22.95
24.24
23.94
22.49
20.52
18.64
17.33
16.75
16.68
16.74
16.56
15.94
14.91
13.67
12.4
11.15
9.83
8.28
6.32
3.86
0.79
-2.98
-7.57
-12.97
-18.77
-24.26
-28.5
-30.63
-30.21
-27.36
-22.59
-16.56
-9.84
-2.74
4.48
11.5
17.79
22.77
25.95
27.21
26.85
25.4
23.48
21.57
19.91
18.53
17.37
16.34
15.32
14.16
12.63
10.52
7.72
4.32
0.6
-3.05
-6.4
-9.41
-12.36
-15.7
-19.87
-25.08
-31.23
-37.87
-44.26
-49.52
-52.73
-53.15
-50.38
-44.47
-35.97
-25.79
-14.95
-4.4
5.2
13.51
20.48
26.2
30.82
34.46
37.21
39.19
40.51
41.34
41.84
42.22
42.57
42.98
43.39
43.69
43.67
43.09
41.71
39.34
35.94
31.62
26.66
21.4
16.14
11.06
6.23
1.54
-3.21
-8.2
-13.55
-19.08
-24.24
-28.17
-29.85
-28.44
-23.64
-15.8
-5.82
5.13
16.02
26.12
35.03
42.53
48.4
52.4
54.41
54.57
53.32
51.3
49.16
47.26
45.73
44.42
43.2
41.97
40.76
39.57
38.36
37.01
35.34
33.23
30.58
27.41
23.74
19.59
14.99
9.97
4.57
-1.19
-7.28
-13.7
-20.32
-26.82
-32.64
-36.94
-38.91
-37.96
-33.97
-27.41
-19.23
-10.58
-2.47
4.43
9.88
13.92
16.64
17.98
17.76
15.82
12.28
7.68
2.89
-1.1
-3.58
-4.37
-3.86
-2.8
-2.01
-2.09
-3.23
-5.32
-8.01
-10.92
-13.7
-16.1
-17.89
-18.96
-19.31
-19.11
-18.74
-18.74
-19.58
-21.57
-24.58
-28.02
-30.94
-32.29
-31.28
-27.64
-21.75
-14.45
-6.8
0.36
6.57
11.82
16.36
20.42
24.02
26.93
28.83
29.51
29.09
27.93
26.59
25.54
25.01
24.96
25.18
25.38
25.35
24.91
23.87
21.95
18.78
13.92
7.06
-1.91
-12.75
-24.95
-37.9
-51.04
-63.93
-76.1
-86.95
-95.52
-100.67
-101.4
-97.31
-88.89
-77.45
-64.71
-52.21
-40.97
-31.3
-23.05
-15.9
-9.74
-4.68
-1
1.13
1.87
1.79
1.65
2.21
3.88
6.59
9.77
12.6
14.29
14.32
12.61
9.45
5.43
1.33
-1.96
-3.77
-3.89
-2.79
-1.6
-1.74
-4.32
-9.57
-16.65
-23.89
-29.45
-31.98
-31.04
-27.11
-21.15
-14.05
-6.44
1.45
9.52
17.54
24.99
31.17
35.51
37.85
38.57
38.51
38.66
39.98
43.03
47.92
54.29
61.28
67.75
72.48
74.53
73.41
69.31
62.92
55.29
47.51
40.42
34.48
29.79
26.1
22.85
19.35
14.88
9
1.81
-6.05
-13.47
-19.13
-21.86
-21.02
-16.65
-9.42
-0.48
8.86
17.41
24.27
28.96
31.37
31.76
30.62
28.59
26.3
24.24
22.71
21.84
21.54
21.68
22.12
22.68
23.17
23.3
22.76
21.23
18.5
14.54
9.54
3.82
-2.26
-8.48
-14.71
-20.98
-27.35
-33.88
-40.67
-47.79
-55.19
-62.61
-69.45
-74.73
-77.33
-76.29
-71.21
-62.5
-51.22
-38.79
-26.57
-15.55
-6.26
1.16
6.69
10.45
12.57
13.24
12.8
11.67
10.33
9.16
8.44
8.25
8.48
8.94
9.39
9.6
9.33
8.35
6.48
3.59
-0.35
-5.15
-10.44
-15.75
-20.62
-24.83
-28.41
-31.72
-35.24
-39.38
-44.32
-49.83
-55.22
-59.49
-61.5
-60.34
-55.57
-47.44
-36.84
-25.02
-13.26
-2.61
6.28
13.17
18.04
20.95
22.05
21.56
19.86
17.47
14.99
12.94
11.63
11.1
11.14
11.36
11.41
11.04
10.13
8.74
6.97
4.98
2.83
0.54
-1.95
-4.73
-7.95
-11.76
-16.19
-21.2
-26.41
-31.21
-34.75
-36.21
-35.04
-31.05
-24.62
-16.46
-7.51
1.36
9.41
16.1
21.16
24.45
26
25.94
24.58
22.34
19.79
17.44
15.68
14.63
14.08
13.65
12.93
11.72
10.07
8.22
6.4
4.71
2.95
0.77
-2.24
-6.37
-11.63
-17.7
-23.98
-29.64
-33.73
-35.39
-34.08
-29.74
-22.9
-14.57
-5.93
1.94
8.35
13.08
16.22
18.04
18.72
18.36
17.04
14.93
12.36
9.81
7.67
6.17
5.25
4.6
3.84
2.76
1.3
-0.37
-2.03
-3.51
-4.9
-6.5
-8.68
-11.86
-16.24
-21.72
-27.81
-33.68
-38.24
-40.47
-39.62
-35.53
-28.6
-19.7
-9.85
0.05
9.37
17.68
24.67
29.97
33.28
34.47
33.74
31.63
28.85
26.11
23.86
22.21
20.91
19.62
17.99
15.84
13.27
10.54
7.98
5.87
4.18
2.6
0.56
-2.56
-7.18
-13.31
-20.42
-27.55
-33.42
-36.9
-37.16
-33.97
-27.71
-19.21
-9.5
0.48
10.04
18.75
26.26
32.27
36.4
38.35
38.11
35.99
32.68
28.96
25.54
22.82
20.86
19.47
18.33
17.24
16.05
14.74
13.27
11.6
9.67
7.39
4.68
1.41
-2.59
-7.52
-13.46
-20.24
-27.22
-33.34
-37.4
-38.34
-35.62
-29.38
-20.37
-9.73
1.36
11.83
21.01
28.51
34.18
38.04
40.19
40.76
39.97
38.12
35.61
32.91
30.41
28.34
26.67
25.2
23.69
21.99
20.09
18.1
16.1
13.99
11.49
8.3
4.32
-0.19
-4.63
-8.37
-11.03
-12.67
-13.81
-14.97
-16.32
-17.49
-17.73
-16.3
-12.88
-7.83
-1.96
3.73
8.51
12.04
14.33
15.49
15.62
14.74
12.84
10.12
6.99
4.07
1.93
0.99
1.25
2.41
3.92
5.18
5.86
5.86
5.33
4.5
3.53
2.43
1.04
-0.92
-3.73
-7.55
-12.44
-18.16
-24.22
-29.81
-33.96
-35.7
-34.32
-29.62
-21.96
-12.24
-1.64
8.62
17.6
24.69
29.69
32.61
33.59
32.85
30.64
27.38
23.61
19.96
17.04
15.17
14.33
14.1
13.95
13.42
12.31
10.71
8.86
7.01
5.2
3.29
0.93
-2.21
-6.41
-11.69
-17.82
-24.26
-30.22
-34.79
-37.1
-36.49
-32.73
-26.14
-17.46
-7.73
1.99
10.85
18.18
23.69
27.25
28.89
28.79
27.23
24.66
21.63
18.67
16.21
14.46
13.34
12.52
11.62
10.31
8.49
6.23
3.77
1.32
-0.99
-3.3
-5.9
-9.13
-13.31
-18.56
-24.74
-31.3
-37.39
-41.92
-43.88
-42.62
-37.99
-30.45
-20.87
-10.3
0.25
9.97
18.32
24.9
29.43
31.84
32.18
30.73
27.99
24.57
21.1
18.12
15.93
14.54
13.68
12.89
11.76
10.15
8.09
5.85
3.66
1.57
-0.62
-3.31
-6.89
-11.56
-17.31
-23.83
-30.51
-36.55
-40.96
-42.78
-41.39
-36.63
-29.02
-19.55
-9.42
0.32
8.98
16.19
21.84
25.83
28.06
28.49
27.3
24.94
22.06
19.28
17.05
15.51
14.49
13.69
12.78
11.54
9.9
7.92
5.72
3.45
1.17
-1.17
-3.74
-6.77
-10.51
-15.11
-20.49
-26.32
-31.99
-36.62
-39.31
-39.29
-36.15
-30.05
-21.64
-11.9
-1.91
7.4
15.37
21.62
25.98
28.42
29.04
28.11
26.02
23.28
20.43
17.89
15.94
14.61
13.76
13.08
12.28
11.15
9.63
7.8
5.84
3.87
1.91
-0.2
-2.69
-5.8
-9.73
-14.49
-19.96
-25.83
-31.58
-36.51
-39.76
-40.58
-38.48
-33.47
-26.07
-17.15
-7.71
1.39
9.47
16.14
21.14
24.38
25.85
25.75
24.42
22.35
20.04
17.88
16.15
14.92
14.13
13.6
13.12
12.45
11.36
9.78
7.75
5.46
3.1
0.79
-1.51
-3.99
-6.89
-10.4
-14.54
-19.16
-23.92
-28.36
-31.85
-33.7
-33.31
-30.31
-24.73
-17.09
-8.26
0.72
8.93
15.78
20.95
24.32
25.86
25.65
23.81
20.66
16.77
12.8
9.38
6.91
5.45
4.74
4.41
4.01
3.3
2.16
0.66
-1.06
-2.89
-4.8
-6.82
-9.09
-11.83
-15.22
-19.31
-23.98
-28.86
-33.34
-36.69
-38.12
-37.03
-33.21
-26.88
-18.69
-9.61
-0.6
7.48
14.12
19.08
22.4
24.17
24.57
23.71
21.83
19.28
16.55
14.19
12.59
11.85
11.71
11.66
11.13
9.76
7.56
4.83
1.95
-0.81
-3.45
-6.22
-9.5
-13.63
-18.72
-24.6
-30.85
-36.82
-41.81
-45.12
-46.23
-44.84
-41.07
-35.4
-28.59
-21.52
-14.83
-8.84
-3.41
1.79
7.07
12.46
17.6
21.83
24.51
25.29
24.25
21.93
19.09
16.45
14.44
13.08
12.11
11.12
9.81
8.1
6.11
4.01
1.87
-0.45
-3.17
-6.53
-10.61
-15.35
-20.55
-25.97
-31.34
-36.28
-40.31
-42.79
-43.11
-40.79
-35.76
-28.31
-19.14
-9.11
0.79
9.7
16.93
22.1
25.13
26.3
26.05
24.9
23.29
21.55
19.94
18.69
17.93
17.75
18.03
18.48
18.7
18.3
16.99
14.71
11.59
7.82
3.7
-0.54
-4.74
-8.83
-12.87
-17.03
-21.5
-26.45
-31.9
-37.52
-42.69
-46.52
-48.07
-46.64
-42.04
-34.62
-25.21
-14.9
-4.71
4.56
12.35
18.34
22.41
24.6
25.14
24.47
23.11
21.63
20.38
19.54
19.07
18.8
18.56
18.26
17.89
17.46
16.96
16.26
15.14
13.4
10.9
7.7
3.98
-0
-4.08
-8.13
-12.21
-16.39
-20.82
-25.57
-30.64
-35.78
-40.45
-43.9
-45.3
-44.02
-39.83
-32.94
-24.05
-14.07
-3.94
5.5
13.62
20.02
24.55
27.24
28.35
28.15
27
25.18
22.98
20.68
18.57
16.86
15.64
14.84
14.29
13.74
13.03
12.04
10.71
9.04
6.94
4.4
1.4
-2
-5.7
-9.61
-13.71
-18.06
-22.74
-27.73
-32.8
-37.43
-40.86
-42.25
-40.98
-36.8
-30.01
-21.36
-11.84
-2.49
5.88
12.75
17.86
21.16
22.75
22.83
21.69
19.74
17.43
15.21
13.42
12.28
11.77
11.71
11.78
11.61
10.91
9.55
7.58
5.22
2.71
0.24
-2.22
-4.81
-7.86
-11.65
-16.32
-21.73
-27.51
-33.09
-37.76
-40.8
-41.56
-39.64
-34.92
-27.71
-18.73
-8.91
0.73
9.35
16.42
21.72
25.23
27.06
27.38
26.37
24.34
21.65
18.75
16.02
13.7
11.85
10.33
8.91
7.33
5.45
3.22
0.73
-1.87
-4.48
-7.05
-9.73
-12.76
-16.41
-20.86
-26.18
-32.18
-38.35
-43.99
-48.18
-49.99
-48.74
-44.16
-36.55
-26.7
-15.73
-4.77
5.25
13.78
20.62
25.78
29.35
31.38
31.91
31.02
29
26.25
23.32
20.69
18.68
17.32
16.38
15.46
14.16
12.23
9.62
6.51
3.23
0
-3.04
-6.01
-9.2
-12.99
-17.64
-23.26
-29.59
-36.08
-41.94
-46.2
-47.99
-46.69
-42.11
-34.57
-24.85
-14.01
-3.14
6.86
15.44
22.35
27.52
30.98
32.81
33.09
32.07
30.11
27.71
25.36
23.39
21.95
20.95
20.2
19.38
18.25
16.64
14.48
11.82
8.75
5.43
1.97
-1.62
-5.44
-9.62
-14.35
-19.76
-25.82
-32.31
-38.75
-44.39
-48.35
-49.76
-48
-42.89
-34.8
-24.53
-13.13
-1.68
8.93
18.09
25.5
31.04
34.73
36.64
36.92
35.85
33.82
31.32
28.83
26.71
25.15
24.13
23.47
22.91
22.24
21.29
20.02
18.4
16.38
13.85
10.69
6.87
2.44
-2.38
-7.41
-12.55
-17.94
-23.77
-30.17
-36.9
-43.22
-48.06
-50.24
-48.99
-44.09
-36.04
-25.82
-14.63
-3.54
6.66
15.46
22.61
28.03
31.66
33.58
33.95
33.07
31.37
29.31
27.27
25.54
24.21
23.25
22.51
21.83
21.04
20.02
18.65
16.87
14.66
12.05
9.15
6.09
2.97
-0.22
-3.54
-7.17
-11.27
-15.96
-21.21
-26.69
-31.77
-35.57
-37.15
-35.83
-31.44
-24.4
-15.57
-6.05
3.17
11.39
18.2
23.41
26.97
28.9
29.28
28.36
26.5
24.1
21.62
19.39
17.68
16.6
16.14
16.08
16.16
16.06
15.55
14.5
12.91
10.83
8.31
5.37
2.02
-1.77
-5.98
-10.65
-15.78
-21.32
-27
-32.28
-36.35
-38.3
-37.43
-33.44
-26.63
-17.73
-7.74
2.3
11.55
19.37
25.37
29.36
31.43
31.81
31.01
29.58
28.01
26.62
25.48
24.48
23.41
22.08
20.37
18.23
15.72
12.87
9.77
6.5
3.19
-0.07
-3.27
-6.53
-10.08
-14.12
-18.82
-24.19
-30.06
-36.04
-41.58
-45.93
-48.31
-48.02
-44.64
-38.34
-29.74
-19.87
-9.82
-0.44
7.78
14.68
20.26
24.55
27.45
28.91
28.95
27.79
25.84
23.61
21.55
19.91
18.72
17.85
17.06
16.15
14.97
13.5
11.77
9.85
7.68
5.18
2.14
-1.61
-6.22
-11.75
-18.1
-25
-31.94
-38.22
-43.02
-45.54
-45.23
-41.87
-35.75
-27.51
-18.04
-8.28
1
9.22
15.97
21.07
24.48
26.27
26.66
25.98
24.59
22.87
21.13
19.53
18.15
16.94
15.82
14.74
13.61
12.39
10.97
9.26
7.13
4.55
1.61
-1.56
-4.8
-8.07
-11.52
-15.42
-20
-25.28
-30.9
-36.12
-40.02
-41.69
-40.54
-36.48
-29.82
-21.27
-11.71
-2.03
6.99
14.79
20.98
25.41
28.09
29.18
28.94
27.68
25.77
23.56
21.33
19.3
17.57
16.08
14.73
13.36
11.83
10.07
8.07
5.84
3.43
0.92
-1.71
-4.44
-7.34
-10.56
-14.27
-18.56
-23.45
-28.68
-33.71
-37.83
-40.2
-40.15
-37.36
-31.97
-24.52
-15.84
-6.79
1.88
9.65
16.14
21.16
24.52
26.11
25.93
24.17
21.25
17.79
14.44
11.76
9.99
9.05
8.65
8.37
7.86
7
5.79
4.32
2.66
0.78
-1.42
-4
-7.03
-10.51
-14.43
-18.8
-23.53
-28.3
-32.5
-35.33
-35.95
-33.82
-28.91
-21.68
-13
-3.85
4.88
12.54
18.68
23
25.32
25.65
24.22
21.48
18.14
14.84
12.13
10.24
9.1
8.37
7.67
6.67
5.21
3.37
1.32
-0.78
-2.8
-4.85
-7.13
-9.92
-13.43
-17.73
-22.69
-27.98
-33.02
-37.04
-39.29
-39.08
-36.07
-30.33
-22.44
-13.3
-4.02
4.47
11.45
16.61
19.97
21.79
22.5
22.5
22.23
21.94
21.77
21.72
21.61
21.22
20.31
18.77
16.65
14.12
11.38
8.6
5.84
3.03
0.08
-3.18
-6.9
-11.2
-16.15
-21.79
-27.89
-33.93
-39.11
-42.41
-42.99
-40.34
-34.63
-26.56
-17.16
-7.47
1.72
9.93
16.94
22.54
26.53
28.71
29
27.62
25.03
21.86
18.73
16.11
14.23
13.06
12.35
11.78
11.03
9.89
8.31
6.39
4.3
2.16
0.04
-2.14
-4.55
-7.4
-10.9
-15.21
-20.36
-26.17
-32.17
-37.52
-41.24
-42.4
-40.38
-35.11
-27.12
-17.37
-6.99
3
11.88
19.29
25.07
29.17
31.58
32.34
31.58
29.63
26.95
24.09
21.53
19.56
18.26
17.5
17
16.51
15.87
14.98
13.77
12.19
10.17
7.64
4.63
1.23
-2.42
-6.24
-10.33
-14.89
-20.15
-26.06
-32.21
-37.76
-41.67
-42.94
-40.98
-35.74
-27.73
-17.87
-7.3
2.89
11.86
19.09
24.38
27.79
29.54
29.9
29.16
27.57
25.43
23.07
20.82
18.95
17.62
16.79
16.39
16.22
16.08
15.81
15.23
14.17
12.46
10.06
7.06
3.67
0.05
-3.65
-7.49
-11.66
-16.33
-21.56
-27.08
-32.28
-36.31
-38.28
-37.55
-33.91
-27.7
-19.64
-10.73
-1.9
6.11
12.89
18.21
22.01
24.31
25.1
24.54
22.88
20.54
17.98
15.65
13.82
12.64
12.02
11.77
11.66
11.46
10.99
10.11
8.75
6.9
4.59
1.87
-1.25
-4.7
-8.49
-12.61
-17.06
-21.83
-26.77
-31.55
-35.62
-38.24
-38.62
-36.29
-31.22
-23.93
-15.32
-6.42
1.88
9.07
14.9
19.37
22.43
24.09
24.37
23.45
21.65
19.46
17.4
15.79
14.74
14.13
13.7
13.14
12.24
10.87
9.01
6.72
4.11
1.31
-1.57
-4.52
-7.57
-10.84
-14.45
-18.55
-23.19
-28.26
-33.39
-37.94
-41.11
-42.05
-40.2
-35.42
-28.17
-19.34
-10.01
-1.17
6.52
12.75
17.49
20.85
22.93
23.81
23.53
22.3
20.4
18.2
16.11
14.41
13.21
12.42
11.82
11.16
10.28
9.08
7.6
5.88
3.94
1.74
-0.79
-3.73
-7.1
-10.88
-15.11
-19.74
-24.71
-29.77
-34.45
-37.99
-39.58
-38.53
-34.59
-28
-19.48
-10.06
-0.83
7.34
13.91
18.69
21.77
23.37
23.73
23.04
21.48
19.26
16.74
14.34
12.48
11.42
11.12
11.26
11.39
11.1
10.19
8.73
6.9
4.9
2.78
0.44
-2.32
-5.62
-9.52
-13.96
-18.81
-23.94
-29.02
-33.53
-36.72
-37.76
-36.09
-31.58
-24.74
-16.45
-7.79
0.39
7.58
13.53
18.17
21.42
23.2
23.46
22.4
20.42
18.09
15.91
14.2
13.02
12.23
11.6
10.94
10.15
9.18
8.02
6.67
5.08
3.23
1.09
-1.39
-4.3
-7.74
-11.76
-16.3
-21.1
-25.78
-29.79
-32.57
-33.63
-32.57
-29.26
-23.85
-16.84
-8.95
-1.04
6.14
12.07
16.47
19.25
20.42
20.03
18.26
15.45
12.11
8.86
6.22
4.47
3.53
3.08
2.64
1.88
0.7
-0.77
-2.29
-3.68
-4.99
-6.51
-8.62
-11.69
-15.78
-20.62
-25.62
-30.04
-33.14
-34.36
-33.38
-30.19
-25.03
-18.38
-10.83
-3.06
4.28
10.62
15.53
18.74
20.17
19.93
18.35
15.91
13.14
10.48
8.2
6.37
4.87
3.5
2.11
0.6
-1
-2.61
-4.17
-5.68
-7.27
-9.15
-11.59
-14.82
-18.94
-23.78
-28.88
-33.58
-37.03
-38.51
-37.51
-33.88
-27.86
-20.09
-11.42
-2.77
5.1
11.64
16.6
19.89
21.52
21.63
20.43
18.32
15.81
13.48
11.71
10.64
10.07
9.65
9
7.95
6.49
4.79
3.02
1.24
-0.6
-2.71
-5.31
-8.63
-12.75
-17.6
-22.8
-27.72
-31.54
-33.38
-32.6
-28.98
-22.82
-14.89
-6.18
2.32
9.89
16.14
20.87
24.05
25.7
25.85
24.71
22.62
20.06
17.56
15.52
14.11
13.25
12.67
12.1
11.29
10.19
8.87
7.46
6.1
4.8
3.46
1.82
-0.39
-3.46
-7.55
-12.58
-18.24
-23.94
-28.82
-31.97
-32.59
-30.24
-25.02
-17.5
-8.6
0.68
9.48
17.2
23.49
28.18
31.26
32.79
32.96
32.01
30.24
28.03
25.7
23.6
21.95
20.86
20.22
19.8
19.27
18.35
16.89
14.87
12.38
9.51
6.41
3.17
-0.09
-3.35
-6.69
-10.28
-14.37
-19.08
-24.27
-29.44
-33.8
-36.37
-36.33
-33.27
-27.3
-19.06
-9.52
0.21
9.15
16.62
22.26
26.04
28.1
28.69
28.07
26.57
24.51
22.29
20.29
18.86
18.18
18.29
18.97
19.86
20.56
20.73
20.27
19.21
17.72
15.93
13.88
11.51
8.71
5.49
1.92
-1.87
-5.86
-10.22
-15.12
-20.62
-26.32
-31.4
-34.8
-35.62
-33.48
-28.67
-22.04
-14.62
-7.29
-0.66
4.92
9.21
12.02
13.25
13
11.68
9.9
8.32
7.41
7.33
7.91
8.73
9.37
9.53
9.07
8.1
6.76
5.27
3.72
2.08
0.22
-2.08
-5
-8.68
-13.05
-17.94
-22.91
-27.32
-30.38
-31.32
-29.62
-25.19
-18.5
-10.4
-1.92
6.02
12.78
18.06
21.74
23.81
24.29
23.28
21.06
18.1
14.96
12.14
9.94
8.44
7.47
6.73
5.95
4.95
3.66
2.2
0.72
-0.66
-1.97
-3.43
-5.36
-8.1
-11.85
-16.53
-21.82
-27.09
-31.57
-34.51
-35.27
-33.51
-29.24
-22.84
-15
-6.56
1.67
9.02
15.05
19.49
22.26
23.44
23.19
21.82
19.72
17.3
14.91
12.83
11.13
9.76
8.6
7.47
6.27
4.94
3.51
2.05
0.63
-0.77
-2.24
-4.02
-6.41
-9.71
-14.06
-19.26
-24.83
-29.98
-33.76
-35.38
-34.34
-30.6
-24.62
-17.18
-9.18
-1.45
5.48
11.3
15.95
19.4
21.69
22.84
22.91
22.07
20.57
18.74
16.9
15.23
13.83
12.68
11.64
10.58
9.35
7.84
6.04
4.04
1.89
-0.39
-2.91
-5.88
-9.52
-13.93
-19.03
-24.51
-29.84
-34.38
-37.43
-38.46
-37.11
-33.33
-27.43
-19.99
-11.74
-3.43
4.31
11.05
16.51
20.54
23.11
24.25
24.13
23.03
21.33
19.41
17.64
16.23
15.24
14.61
14.16
13.68
12.97
11.91
10.42
8.54
6.29
3.7
0.81
-2.43
-6.06
-10.22
-15.03
-20.5
-26.44
-32.39
-37.58
-41.13
-42.26
-40.52
-35.95
-29.11
-20.81
-11.96
-3.36
4.46
11.17
16.6
20.68
23.39
24.71
24.74
23.61
21.56
18.95
16.24
13.85
12.11
11.18
10.89
10.93
10.89
10.41
9.35
7.73
5.7
3.47
1.2
-1.08
-3.46
-6.2
-9.61
-13.96
-19.27
-25.24
-31.15
-36.07
-39.04
-39.35
-36.73
-31.4
-23.98
-15.3
-6.26
2.41
10.1
16.41
21.09
24.03
25.24
24.89
23.33
21.01
18.49
16.24
14.59
13.59
13.06
12.64
11.96
10.79
9.12
7.11
4.99
2.91
0.9
-1.13
-3.32
-5.82
-8.69
-12.02
-15.83
-20.05
-24.32
-28.02
-30.37
-30.58
-28.24
-23.43
-16.75
-9.08
-1.3
5.93
12.17
17.16
20.7
22.62
22.83
21.4
18.69
15.28
11.82
8.89
6.85
5.74
5.31
5.15
4.8
3.94
2.49
0.59
-1.51
-3.55
-5.47
-7.42
-9.65
-12.49
-16.17
-20.68
-25.8
-31.05
-35.79
-39.3
-40.9
-40.03
-36.45
-30.3
-22.14
-12.85
-3.44
5.2
12.44
17.98
21.77
23.86
24.4
23.57
21.68
19.15
16.48
14.16
12.48
11.53
11.05
10.72
10.19
9.21
7.77
5.92
3.83
1.64
-0.57
-2.85
-5.37
-8.34
-12.06
-16.71
-22.36
-28.72
-35.21
-40.97
-45.06
-46.65
-45.29
-41.03
-34.28
-25.85
-16.63
-7.45
1.03
8.34
14.24
18.68
21.68
23.42
24.11
23.99
23.34
22.38
21.35
20.39
19.61
19
18.49
17.87
16.93
15.48
13.47
10.97
8.15
5.13
1.96
-1.41
-5.14
-9.37
-14.18
-19.58
-25.51
-31.81
-38.2
-44.1
-48.67
-50.98
-50.21
-46.02
-38.69
-29.05
-18.26
-7.46
2.46
11.01
17.99
23.4
27.27
29.64
30.63
30.45
29.44
28.01
26.56
25.37
24.59
24.19
23.99
23.77
23.32
22.44
21.02
19.02
16.51
13.66
10.64
7.56
4.48
1.33
-2.01
-5.68
-9.86
-14.69
-20.27
-26.53
-33.19
-39.56
-44.69
-47.52
-47.23
-43.5
-36.67
-27.56
-17.2
-6.58
3.56
12.67
20.37
26.41
30.6
32.98
33.75
33.33
32.2
30.78
29.4
28.21
27.28
26.63
26.2
25.96
25.81
25.66
25.31
24.57
23.2
21.03
17.99
14.22
10.05
5.9
2.11
-1.18
-4.16
-7.25
-10.96
-15.58
-21.08
-26.99
-32.51
-36.67
-38.59
-37.6
-33.45
-26.36
-16.97
-6.27
4.67
14.92
23.81
31.03
36.52
40.38
42.76
43.82
43.8
43.07
42.13
41.49
41.53
42.32
43.52
44.49
44.49
42.88
39.41
34.27
27.98
21.22
14.59
8.45
2.88
-2.24
-7.12
-11.97
-16.87
-21.86
-26.88
-31.79
-36.37
-40.23
-42.81
-43.53
-41.94
-37.87
-31.61
-23.81
-15.41
-7.28
-0.11
5.74
10.09
12.93
14.22
13.98
12.32
9.51
6.08
2.71
0.04
-1.56
-2.13
-2.13
-2.22
-3.01
-4.78
-7.42
-10.54
-13.73
-16.73
-19.6
-22.65
-26.33
-30.99
-36.86
-43.9
-51.74
-59.59
-66.27
-70.39
-70.67
-66.36
-57.47
-44.9
-30.11
-14.78
-0.37
12.09
22.03
29.25
33.74
35.68
35.35
33.27
30.12
26.67
23.62
21.46
20.37
20.21
20.64
21.24
21.74
21.96
21.85
21.38
20.46
18.87
16.38
12.82
8.21
2.76
-3.16
-9.19
-14.96
-20.18
-24.57
-27.84
-29.63
-29.59
-27.47
-23.26
-17.22
-9.86
-1.83
6.21
13.71
20.25
25.55
29.33
31.5
32.03
31.13
29.17
26.63
23.93
21.28
18.65
15.86
12.73
9.29
5.82
2.71
0.4
-0.95
-1.54
-1.86
-2.56
-4.18
-6.97
-10.84
-15.45
-20.38
-25.15
-29.27
-32.2
-33.35
-32.22
-28.53
-22.44
-14.57
-5.86
2.7
10.3
16.54
21.29
24.74
27.1
28.67
29.7
30.42
31.04
31.63
32.17
32.51
32.45
31.82
30.59
28.81
26.6
24.11
21.43
18.63
15.77
12.86
9.92
6.9
3.7
0.21
-3.7
-8.17
-13.26
-18.97
-25.09
-31.14
-36.32
-39.67
-40.26
-37.55
-31.6
-23.02
-12.92
-2.51
7.04
14.92
20.71
24.32
25.98
26.07
25.08
23.42
21.48
19.51
17.77
16.41
15.53
15.14
15.09
15.16
15.07
14.64
13.76
12.41
10.65
8.51
6
3.06
-0.29
-4.01
-7.98
-12.06
-16.17
-20.35
-24.73
-29.4
-34.25
-38.79
-42.22
-43.63
-42.3
-38.02
-31.09
-22.34
-12.73
-3.25
5.43
12.8
18.6
22.66
24.93
25.51
24.68
22.89
20.71
18.74
17.44
17.09
17.68
19.03
20.79
22.52
23.84
24.44
24.15
22.92
20.86
18.16
15.08
11.83
8.53
5.18
1.6
-2.46
-7.24
-12.8
-18.99
-25.31
-31.04
-35.3
-37.21
-36.21
-32.14
-25.36
-16.64
-6.98
2.61
11.33
18.61
24.17
27.92
29.96
30.46
29.76
28.2
26.21
24.21
22.5
21.27
20.55
20.2
19.92
19.39
18.28
16.47
14
11.07
7.88
4.51
0.98
-2.74
-6.69
-10.78
-14.94
-19.26
-23.94
-29.21
-35.06
-41.05
-46.24
-49.44
-49.61
-46.28
-39.72
-30.84
-20.85
-10.86
-1.65
6.35
12.95
18.03
21.46
23.19
23.37
22.38
20.78
19.18
17.91
17.08
16.49
15.88
15.09
14.15
13.19
12.29
11.41
10.31
8.73
6.56
3.84
0.79
-2.29
-5.27
-8.16
-11.12
-14.42
-18.34
-23.06
-28.6
-34.61
-40.34
-44.75
-46.82
-45.79
-41.54
-34.56
-25.81
-16.39
-7.22
1.14
8.42
14.53
19.42
23.06
25.45
26.73
27.12
26.91
26.39
25.73
25.01
24.27
23.51
22.78
22.11
21.5
20.85
20.01
18.82
17.16
14.99
12.33
9.24
5.77
2
-1.97
-6.05
-10.14
-14.16
-18.16
-22.33
-26.9
-31.99
-37.41
-42.6
-46.6
-48.37
-47.04
-42.31
-34.59
-24.88
-14.47
-4.52
4.18
11.36
17.1
21.61
25.06
27.45
28.73
28.84
27.93
26.3
24.37
22.57
21.17
20.21
19.59
19.14
18.69
18.19
17.65
17.01
16.14
14.84
12.91
10.26
6.97
3.26
-0.56
-4.26
-7.67
-10.79
-13.79
-16.93
-20.49
-24.67
-29.5
-34.78
-40.14
-44.99
-48.62
-50.35
-49.59
-46.03
-39.79
-31.37
-21.61
-11.52
-2
6.28
12.94
17.86
21.07
22.72
23.06
22.44
21.31
20.09
19.12
18.53
18.32
18.34
18.4
18.44
18.38
18.21
17.85
17.16
15.94
14.04
11.45
8.3
4.87
1.46
-1.67
-4.44
-6.92
-9.4
-12.18
-15.62
-19.88
-24.88
-30.27
-35.3
-39.08
-40.71
-39.6
-35.57
-29.04
-20.8
-11.86
-3.14
4.61
10.93
15.66
18.8
20.51
20.97
20.38
18.94
16.86
14.46
12.09
10.15
9
8.74
9.22
10.01
10.62
10.61
9.84
8.33
6.27
3.85
1.16
-1.75
-4.86
-8.13
-11.55
-15.18
-19.21
-23.86
-29.24
-35.08
-40.71
-45.09
-47.15
-46.08
-41.66
-34.35
-25.09
-15.07
-5.33
3.36
10.61
16.29
20.39
22.93
23.91
23.4
21.62
18.93
15.82
12.78
10.16
8.1
6.59
5.49
4.7
4.14
3.77
3.46
3.03
2.22
0.8
-1.33
-4.15
-7.5
-11.24
-15.29
-19.7
-24.61
-30.15
-36.15
-42.1
-47.13
-50.18
-50.34
-47.16
-40.85
-32.17
-22.22
-12.08
-2.63
5.63
12.45
17.8
21.73
24.31
25.6
25.65
24.66
22.9
20.73
18.56
16.72
15.35
14.4
13.66
12.89
11.92
10.68
9.13
7.25
4.97
2.26
-0.89
-4.37
-8.05
-11.87
-15.86
-20.16
-24.91
-30.06
-35.2
-39.54
-42.05
-41.84
-38.43
-32.03
-23.44
-13.83
-4.36
4.18
11.41
17.34
22.05
25.6
27.9
28.92
28.7
27.5
25.71
23.76
21.98
20.56
19.53
18.76
18.07
17.24
16.06
14.42
12.3
9.8
7
3.98
0.7
-2.92
-6.94
-11.35
-16.15
-21.32
-26.81
-32.48
-37.9
-42.34
-44.87
-44.64
-41.2
-34.68
-25.82
-15.64
-5.21
4.59
13.17
20.13
25.26
28.42
29.6
28.95
26.84
23.82
20.58
17.81
16
15.33
15.61
16.39
17.11
17.25
16.58
15.06
12.94
10.46
7.87
5.24
2.55
-0.35
-3.59
-7.23
-11.31
-15.79
-20.57
-25.46
-30.05
-33.72
-35.7
-35.29
-32.07
-26.15
-18.14
-8.99
0.24
8.74
15.97
21.67
25.72
28.04
28.58
27.42
24.85
21.41
17.85
14.82
12.76
11.68
11.26
10.99
10.44
9.41
7.94
6.27
4.6
3.01
1.37
-0.55
-3.04
-6.32
-10.51
-15.64
-21.48
-27.57
-33.12
-37.21
-38.94
-37.73
-33.51
-26.66
-18.01
-8.48
1.03
9.8
17.32
23.22
27.26
29.35
29.57
28.22
25.79
22.82
19.85
17.23
15.08
13.3
11.64
9.93
8.02
5.98
3.93
2.03
0.4
-1.01
-2.39
-4.14
-6.74
-10.61
-15.94
-22.58
-29.92
-36.94
-42.5
-45.56
-45.41
-41.87
-35.26
-26.31
-16.02
-5.4
4.68
13.57
20.83
26.25
29.68
31.16
30.82
29.06
26.42
23.54
20.95
18.93
17.45
16.28
15.12
13.81
12.36
10.86
9.37
7.78
5.86
3.35
0.02
-4.23
-9.38
-15.33
-21.83
-28.47
-34.5
-38.97
-40.88
-39.55
-34.87
-27.34
-17.93
-7.73
2.29
11.5
19.49
26.04
30.97
34.12
35.46
35.14
33.54
31.19
28.69
26.52
24.91
23.78
22.81
21.61
19.88
17.55
14.82
11.99
9.27
6.72
4.14
1.21
-2.4
-6.9
-12.31
-18.43
-24.75
-30.56
-34.96
-37.09
-36.35
-32.61
-26.21
-17.9
-8.57
0.98
10.12
18.39
25.43
30.91
34.54
36.18
35.9
34.03
31.12
27.77
24.49
21.61
19.26
17.4
15.91
14.71
13.65
12.64
11.55
10.3
8.81
7
4.79
2.03
-1.43
-5.79
-11.16
-17.41
-24.12
-30.48
-35.49
-38.13
-37.72
-34.04
-27.48
-18.9
-9.4
-0.02
8.46
15.53
20.97
24.68
26.68
27.02
25.94
23.8
21.07
18.29
15.84
13.93
12.56
11.57
10.71
9.74
8.57
7.14
5.48
3.61
1.48
-0.98
-3.93
-7.49
-11.68
-16.4
-21.34
-26.01
-29.78
-32
-32.1
-29.79
-25.1
-18.4
-10.3
-1.53
7.25
15.44
22.54
28.09
31.71
33.21
32.61
30.26
26.74
22.8
19.06
15.97
13.64
11.9
10.41
8.82
6.9
4.58
1.98
-0.71
-3.31
-5.81
-8.38
-11.38
-15.13
-19.78
-25.06
-30.3
-34.56
-36.85
-36.52
-33.43
-27.89
-20.58
-12.27
-3.65
4.73
12.36
18.8
23.66
26.62
27.58
26.7
24.37
21.14
17.63
14.37
11.73
9.84
8.59
7.71
6.86
5.77
4.4
2.91
1.47
0.22
-0.93
-2.3
-4.33
-7.46
-11.87
-17.33
-23.23
-28.56
-32.2
-33.24
-31.17
-26.09
-18.66
-9.91
-0.9
7.51
14.75
20.52
24.67
27.07
27.67
26.58
24.16
20.98
17.69
14.87
12.82
11.5
10.61
9.78
8.69
7.22
5.42
3.5
1.63
-0.13
-1.87
-3.82
-6.29
-9.59
-13.87
-19.13
-25.02
-30.94
-36
-39.23
-39.79
-37.2
-31.53
-23.35
-13.66
-3.47
6.33
15.14
22.62
28.6
32.95
35.6
36.61
36.17
34.68
32.59
30.34
28.18
26.15
24.13
21.89
19.27
16.22
12.83
9.3
5.85
2.62
-0.43
-3.48
-6.85
-10.81
-15.51
-20.93
-26.79
-32.61
-37.71
-41.33
-42.76
-41.54
-37.61
-31.28
-23.22
-14.23
-5.14
3.34
10.69
16.5
20.53
22.73
23.21
22.31
20.51
18.3
16.13
14.33
13.01
12.13
11.48
10.82
9.97
8.86
7.59
6.27
5.01
3.8
2.45
0.68
-1.79
-5.18
-9.48
-14.46
-19.63
-24.33
-27.79
-29.3
-28.37
-24.9
-19.18
-11.85
-3.73
4.35
11.7
17.88
22.6
25.73
27.25
27.14
25.61
23.01
19.79
16.49
13.56
11.17
9.27
7.63
5.99
4.2
2.31
0.48
-1.07
-2.3
-3.36
-4.63
-6.54
-9.52
-13.74
-19.01
-24.82
-30.35
-34.67
-36.94
-36.6
-33.49
-27.91
-20.52
-12.12
-3.55
4.46
11.39
16.88
20.75
22.93
23.45
22.49
20.41
17.65
14.76
12.2
10.23
8.86
7.9
7
5.9
4.48
2.75
0.85
-1.14
-3.29
-5.76
-8.78
-12.5
-16.93
-21.92
-27.14
-32.11
-36.21
-38.73
-39
-36.57
-31.4
-23.87
-14.82
-5.27
3.84
11.86
18.49
23.68
27.48
29.87
30.78
30.21
28.32
25.52
22.39
19.51
17.29
15.8
14.77
13.81
12.55
10.84
8.76
6.51
4.32
2.26
0.22
-2.04
-4.78
-8.21
-12.37
-17.1
-22.09
-26.81
-30.59
-32.7
-32.49
-29.63
-24.19
-16.66
-7.84
1.39
10.23
18.13
24.73
29.87
33.5
35.64
36.45
36.24
35.36
34.11
32.65
30.87
28.58
25.6
21.82
17.37
12.45
7.29
2.12
-2.94
-7.81
-12.42
-16.71
-20.69
-24.42
-28
-31.57
-35.31
-39.36
-43.69
-48.01
-51.67
-53.79
-53.5
-50.2
-43.86
-34.98
-24.53
-13.56
-3.03
6.38
14.23
20.32
24.51
26.89
27.68
27.24
25.99
24.26
22.28
20.18
18.03
15.95
14.04
12.41
11.05
9.84
8.59
7.18
5.51
3.58
1.47
-0.78
-3.2
-5.86
-8.89
-12.46
-16.64
-21.36
-26.28
-30.81
-34.23
-35.8
-35.02
-31.7
-26.14
-18.94
-10.87
-2.73
4.88
11.48
16.75
20.46
22.5
22.87
21.82
19.75
17.17
14.61
12.44
10.89
9.92
9.32
8.76
7.94
6.75
5.33
4.16
3.78
4.63
6.65
9.24
11.4
12.1
10.69
7.04
1.64
-4.73
-11.2
-17.01
-21.58
-24.43
-25.2
-23.75
-20.2
-15.07
-9.13
-3.25
1.84
5.64
7.91
8.69
8.12
6.47
4.1
1.45
-1.08
-3.13
-4.51
-5.25
-5.47
-5.41
-5.29
-5.32
-5.61
-6.21
-7.07
-8.15
-9.43
-10.96
-12.9
-15.46
-18.77
-22.79
-27.22
-31.5
-34.95
-36.89
-36.83
-34.54
-30.13
-23.95
-16.6
-8.72
-0.98
6.02
11.77
15.9
18.28
18.96
18.25
16.62
14.59
12.62
10.98
9.81
9.04
8.54
8.12
7.57
6.68
5.29
3.4
1.11
-1.35
-3.81
-6.3
-9.03
-12.38
-16.62
-21.75
-27.28
-32.38
-36.09
-37.59
-36.46
-32.72
-26.81
-19.32
-11.01
-2.53
5.49
12.52
18.16
22.12
24.29
24.76
23.78
21.72
19.01
16.04
13.15
10.57
8.42
6.67
5.21
3.81
2.27
0.49
-1.49
-3.51
-5.39
-7.1
-8.73
-10.6
-13.07
-16.39
-20.62
-25.5
-30.5
-34.86
-37.81
-38.66
-37.04
-32.95
-26.71
-18.91
-10.23
-1.37
7.05
14.46
20.41
24.64
27.15
28.15
28.01
27.1
25.69
23.96
22.03
20.09
18.35
16.98
15.99
15.19
14.27
12.91
10.98
8.52
5.72
2.82
-0.03
-2.79
-5.65
-8.79
-12.52
-16.98
-22.13
-27.68
-32.99
-37.24
-39.56
-39.26
-36.01
-29.99
-21.81
-12.4
-2.8
6.17
13.85
19.94
24.32
27.03
28.17
27.95
26.7
24.81
22.71
20.73
19.07
17.76
16.73
15.87
15.11
14.38
13.64
12.87
11.96
10.76
9.16
7.05
4.4
1.29
-2.16
-5.8
-9.46
-13.15
-16.95
-21.06
-25.67
-30.7
-35.73
-39.98
-42.51
-42.47
-39.44
-33.54
-25.44
-16.09
-6.46
2.63
10.63
17.18
22.12
25.36
26.91
26.96
25.82
23.92
21.74
19.74
18.2
17.28
16.95
17.03
17.25
17.26
16.77
15.51
13.44
10.72
7.75
4.98
2.74
1.05
-0.37
-1.99
-4.32
-7.68
-12.1
-17.4
-23.19
-28.93
-33.98
-37.61
-39.05
-37.75
-33.55
-26.76
-18.17
-8.8
0.35
8.49
15.16
20.17
23.51
25.25
25.57
24.67
22.87
20.56
18.1
15.84
13.95
12.46
11.24
10.16
9.03
7.8
6.49
5.09
3.64
2.1
0.42
-1.47
-3.65
-6.18
-9.14
-12.59
-16.6
-21.07
-25.79
-30.29
-33.86
-35.69
-35.12
-31.81
-25.87
-17.92
-8.89
0.23
8.59
15.65
21.2
25.23
27.83
29.13
29.23
28.3
26.6
24.48
22.29
20.29
18.62
17.28
16.16
15.13
14.04
12.82
11.38
9.68
7.69
5.4
2.81
-0.05
-3.14
-6.48
-10.07
-14.04
-18.53
-23.61
-29.18
-34.82
-39.77
-43.11
-43.96
-41.79
-36.6
-28.92
-19.57
-9.47
0.51
9.75
17.8
24.31
29.09
32.03
33.25
33.04
31.89
30.3
28.68
27.2
25.88
24.67
23.53
22.48
21.53
20.62
19.57
18.1
16.02
13.31
10.12
6.69
3.26
-0.08
-3.35
-6.69
-10.26
-14.25
-18.86
-24.16
-30.06
-36.13
-41.57
-45.36
-46.53
-44.5
-39.25
-31.39
-21.88
-11.8
-2.07
6.72
14.24
20.34
24.94
28.06
29.76
30.22
29.7
28.52
26.94
25.13
23.2
21.23
19.35
17.7
16.41
15.51
14.91
14.44
13.87
12.98
11.62
9.74
7.35
4.54
1.43
-1.87
-5.32
-8.96
-12.89
-17.25
-22.1
-27.35
-32.64
-37.34
-40.67
-41.85
-40.33
-35.92
-28.93
-20.07
-10.31
-0.59
8.29
15.84
21.82
26.2
29.06
30.53
30.8
30.06
28.55
26.53
24.25
21.95
19.88
18.2
16.96
16.03
15.19
14.15
12.72
10.87
8.74
6.54
4.42
2.41
0.36
-1.9
-4.56
-7.7
-11.37
-15.58
-20.3
-25.38
-30.44
-34.84
-37.7
-38.21
-35.86
-30.68
-23.26
-14.59
-5.77
2.33
9.18
14.65
18.78
21.68
23.39
23.92
23.37
21.99
20.13
18.17
16.42
14.94
13.63
12.32
10.87
9.25
7.53
5.83
4.19
2.6
0.94
-0.92
-3.12
-5.75
-8.82
-12.28
-16.03
-19.96
-23.9
-27.58
-30.59
-32.42
-32.6
-30.79
-26.91
-21.18
-14.04
-6.07
2.04
9.64
16.07
20.79
23.47
24.12
23.05
20.82
18.06
15.28
12.77
10.6
8.69
6.95
5.29
3.68
2.17
0.79
-0.45
-1.68
-3.06
-4.84
-7.26
-10.4
-14.23
-18.52
-22.87
-26.7
-29.39
-30.25
-28.79
-24.87
-18.77
-11.22
-3.17
4.37
10.7
15.43
18.48
19.95
19.99
18.78
16.56
13.69
10.58
7.66
5.16
3.09
1.3
-0.41
-2.13
-3.82
-5.32
-6.56
-7.55
-8.5
-9.71
-11.46
-13.92
-17.06
-20.7
-24.48
-27.9
-30.35
-31.24
-30.17
-26.94
-21.81
-15.33
-8.28
-1.41
4.62
9.45
12.9
14.96
15.68
15.15
13.58
11.22
8.43
5.57
2.97
0.79
-0.95
-2.31
-3.42
-4.36
-5.22
-6.07
-7.04
-8.25
-9.9
-12.21
-15.24
-18.9
-22.72
-26
-27.9
-27.72
-25.11
-20.24
-13.75
-6.45
0.83
7.48
13.13
17.55
20.57
22.12
22.2
