49.12
49.88
50.62
50.81
50.08
48.36
45.8
42.68
39.14
35.17
30.64
25.42
19.57
13.4
7.52
2.68
-0.35
-0.97
1.19
6.21
13.97
24.12
36.1
49.07
61.89
73.21
81.69
86.27
86.49
82.52
75.16
65.54
54.85
44.08
33.96
25.01
17.53
11.71
7.53
4.83
3.31
2.58
2.29
2.1
1.76
1.03
-0.29
-2.25
-4.75
-7.38
-9.63
-11.05
-11.4
-10.78
-9.54
-8.02
-6.49
-5.02
-3.56
-2.11
-0.82
0.1
0.43
0.12
-0.65
-1.59
-2.36
-2.71
-2.52
-1.76
-0.49
1.19
3.14
5.13
6.9
8.15
8.62
8.16
6.75
4.55
1.83
-1
-3.46
-5.11
-5.64
-4.9
-3.02
-0.27
2.89
5.96
8.47
10.1
10.71
10.36
9.28
7.72
5.89
3.92
1.85
-0.23
-2.2
-3.84
-4.93
-5.36
-5.18
-4.62
-4.08
-3.95
-4.61
-6.37
-9.36
-13.54
-18.61
-24.09
-29.32
-33.62
-36.39
-37.32
-36.39
-33.87
-30.2
-25.88
-21.41
-17.19
-13.52
-10.62
-8.55
-7.25
-6.49
-5.94
-5.27
-4.25
-2.97
-1.68
-0.72
-0.33
-0.49
-0.95
-1.36
-1.5
-1.38
-1.24
-1.37
-1.95
-3.03
-4.49
-6.21
-8.04
-9.8
-11.15
-11.61
-10.71
-8.18
-4.11
1.02
6.5
11.65
16.01
19.49
22.21
24.43
26.33
27.98
29.3
30.15
30.33
29.68
28.14
25.71
22.54
18.78
14.55
9.77
4.24
-2.33
-10.14
-19.24
-29.59
-41.15
-54.01
-68.34
-84.23
-101.44
-119.36
-137.19
-154.28
-170.41
-185.8
-200.89
-215.85
-230.3
-243.22
-253.31
-259.36
-260.49
-256.39
-247.11
-232.98
-214.45
-192.06
-166.54
-138.82
-110.06
-81.56
-54.51
-29.87
-8.15
10.69
26.99
41.1
53.13
62.84
69.79
73.47
73.73
70.92
65.94
60.02
54.28
49.57
46.31
44.59
44.21
44.9
46.18
47.66
48.9
49.53
49.61
49.67
50.47
52.5
55.59
58.8
61.34
62.52
62.27
61.27
60.73
61.66
64.11
67.2
69.4
70.32
69.96
68.82
67.78
67.9
69.94
73.87
79.29
85.37
92.96
102.51
114.01
127.33
142.93
162.18
186.49
216.9
252.24
290.59
326.77
353.75
365.4
359.25
337.68
306.31
272.72
230.02
177.99
121.8
70.03
29.34
1.62
-12.16
-17.74
-19.73
-21.45
-22.99
-24.69
-27.68
-33.1
-42.06
-55.32
-73.95
-97.95
-126.6
-156.25
-182.67
-202.05
-212.08
-212.5
-205.08
-193.34
-180.61
-169.38
-159.7
-150.82
-142.01
-133.19
-124.78
-117.3
-111.09
-105.73
-100.51
-94.32
-86.6
-77.54
-67.9
-58.64
-50.45
-43.63
-37.84
-32.29
-26
-18.25
-9.01
1.04
10.73
18.89
24.7
28
29.15
28.71
27.23
25.05
22.3
19.04
15.34
11.19
6.55
1.35
-4.41
-10.58
-16.76
-22.53
-27.59
-32.03
-36.37
-41.36
-47.65
-55.61
-65.15
-75.96
-87.8
-100.73
-115.05
-131.06
-148.61
-167.01
-185.03
-201.21
-214.07
-222.17
-224.01
-218.08
-203.2
-179.26
-147.71
-111.66
-75.14
-41.95
-14.5
6.67
22.68
35.45
46.82
57.92
69.03
79.71
89.1
96.19
100.03
99.88
95.22
85.59
70.56
49.82
23.6
-6.87
-39.28
-70.6
-98.03
-119.96
-136.38
-148.48
-157.59
-164.26
-167.87
-167.06
-160.55
-147.84
-129.29
-105.81
-78.29
-47.51
-14.27
20.14
53.67
83.72
107.73
123.85
131.59
131.93
126.99
119.45
111.82
105.9
102.49
101.39
101.73
102.48
102.84
102.51
101.76
101.06
100.83
101.22
102.07
103.03
103.77
104.08
103.88
103.05
101.32
98.29
93.67
87.49
80.22
72.7
65.87
60.43
56.61
54.09
52.16
49.96
46.88
42.7
37.65
32.26
27.04
22.32
18.08
14.12
10.25
6.5
3.15
0.67
-0.48
-0.01
2.22
6.21
11.96
19.49
28.76
39.61
51.67
64.25
76.46
87.35
96.01
101.81
104.47
103.96
100.55
94.64
86.72
77.26
66.66
55.21
42.97
29.91
15.93
1.06
-14.54
-30.5
-46.34
-61.55
-75.59
-87.88
-97.65
-104.09
-106.5
-104.55
-98.52
-89.33
-78.41
-67.31
-57.48
-49.9
-44.95
-42.42
-41.6
-41.61
-41.54
-40.76
-38.95
-36.18
-32.77
-29.14
-25.66
-22.6
-20.1
-18.25
-17.09
-16.67
-17.01
-18.19
-20.24
-23.11
-26.64
-30.46
-34.02
-36.65
-37.72
-36.87
-34.09
-29.68
-24.13
-17.8
-10.87
-3.39
4.39
11.83
17.92
21.57
22.14
19.86
15.87
11.84
9.27
8.9
10.45
12.88
14.93
15.78
15.38
14.33
13.54
13.63
14.64
16.1
17.33
17.76
17.19
15.69
13.41
10.34
6.35
1.39
-4.21
-9.61
-13.72
-15.66
-15.23
-13.03
-10.2
-7.77
-6.16
-5.07
-3.87
-2.09
0.19
2.49
4.34
5.65
6.91
8.77
11.69
15.62
20.1
24.58
28.76
32.67
36.44
40.11
43.45
46.27
48.59
50.84
53.74
57.92
63.58
70.29
77.19
83.3
87.91
90.68
91.6
90.81
88.48
84.81
80.11
74.92
69.8
65.14
60.81
55.96
49.27
39.4
25.58
8.12
-11.7
-32.22
-52.1
-70.99
-89.49
-108.62
-129.07
-150.69
-172.68
-194.08
-214.31
-233.21
-250.56
-265.4
-275.86
-279.78
-275.72
-263.81
-245.93
-224.98
-203.67
-183.49
-164.5
-145.74
-125.94
-104.27
-80.47
-54.9
-28.42
-2.32
21.86
42.56
58.72
70.25
78.25
84.87
92.87
104.9
122.64
145.97
172.25
196.67
213.4
217.47
206.69
182.58
149.86
114.61
82.09
55.22
34.41
18.56
6.3
-3.24
-10.33
-14.98
-17.24
-17.27
-15.26
-11.44
-6.08
0.34
7.33
14.61
22.3
30.97
41.21
53.02
65.34
75.99
82.21
81.6
73.02
57.13
36.19
13.34
-8.46
-27.21
-42.21
-53.75
-62.53
-69.13
-73.95
-77.29
-79.56
-81.22
-82.4
-82.73
-81.27
-76.97
-69.16
-57.91
-44.17
-29.37
-14.99
-2.15
8.68
17.55
24.93
31.34
37.11
42.15
45.99
47.93
47.39
44.2
38.74
31.83
24.45
17.44
11.3
6.22
2.12
-1.1
-3.47
-4.96
-5.6
-5.68
-5.71
-6.37
-8.21
-11.43
-15.78
-20.69
-25.52
-29.77
-33.12
-35.37
-36.35
-35.98
-34.38
-32.05
-29.83
-28.58
-28.71
-29.9
-31.14
-31.15
-28.85
-23.75
-16.05
-6.46
3.98
14.2
23.1
29.63
32.97
32.73
29.11
22.95
15.49
8.01
1.29
-4.5
-9.67
-14.67
-19.64
-24.31
-28.02
-30.12
-30.27
-28.7
-26.07
-23.28
-21.17
-20.3
-20.85
-22.59
-25.01
-27.39
-28.94
-28.96
-26.91
-22.56
-16.11
-8.2
0.18
7.83
13.83
17.81
20.2
22
24.36
28.02
32.97
38.5
43.58
47.41
49.58
50.08
49.03
46.51
42.7
38.01
33.09
28.49
24.1
18.83
11.04
-0.45
-15.28
-31.12
-44.32
-51.32
-50.19
-41.46
-27.71
-12.44
1.49
12.61
21
27.5
32.89
37.4
40.61
42.07
41.65
39.87
37.75
36.37
36.43
38.08
41.02
44.8
49.2
54.22
59.78
65.37
69.79
71.41
68.51
59.96
45.6
26.24
3.39
-21.28
-46.21
-70.08
-91.67
-109.92
-124.1
-134.17
-140.94
-145.89
-150.49
-155.43
-160.17
-163.04
-161.94
-155.19
-142.22
-123.77
-101.57
-77.92
-55.15
-35.05
-18.48
-4.98
7.07
19.84
35.05
53.13
72.93
92.11
108.1
119.06
124.38
124.51
120.52
113.72
105.61
97.92
92.57
91.21
94.62
102.36
112.87
123.98
133.72
140.69
144.23
144.3
141.19
135.49
128.09
120
112.2
105.33
99.56
94.55
89.64
84.03
76.92
67.59
55.64
41.25
25.36
9.57
-4.26
-14.63
-20.91
-23.44
-23.22
-21.4
-18.76
-15.64
-12.06
-8.01
-3.7
0.49
4.14
7.14
9.8
12.81
16.89
22.39
29.08
36.24
42.95
48.62
53.33
57.87
63.48
71.28
81.9
95.15
110.28
126.24
142.19
157.72
172.92
188.13
203.66
219.58
235.7
251.66
267
281.03
292.67
300.34
302.26
296.97
284.05
264.49
240.55
215.11
190.76
169.11
150.66
135.01
121.34
108.72
96.21
82.86
67.66
49.82
29.01
5.49
-19.9
-46.05
-71.89
-96.78
-120.63
-143.97
-167.85
-193.52
-221.88
-252.76
-284.42
-313.57
-336.23
-348.97
-350.18
-340.57
-322.86
-300.61
-276.99
-253.96
-232.25
-211.88
-192.86
-175.5
-160.29
-147.44
-136.67
-127.2
-118.19
-109.06
-99.67
-90.23
-80.87
-71.4
-61.25
-49.91
-37.44
-24.86
-13.98
-6.73
-4.28
-6.41
-11.49
-17.21
-21.52
-23.49
-23.51
-22.92
-23.16
-25.14
-28.97
-34.09
-39.81
-45.54
-50.8
-55.05
-57.52
-57.27
-53.57
-46.36
-36.36
-24.91
-13.52
-3.29
5.26
12.18
17.71
21.98
24.84
25.96
25.05
22.05
17.18
10.87
3.7
-3.79
-11.02
-17.5
-22.77
-26.56
-28.8
-29.64
-29.4
-28.44
-27.03
-25.33
-23.28
-20.65
-17.08
-12.24
-5.89
1.92
10.79
20.06
28.97
36.9
43.54
48.84
52.95
56.04
58.18
59.4
59.76
59.46
58.78
57.93
56.9
55.42
53.05
49.35
44.14
37.59
30.11
22.23
14.39
6.82
-0.34
-7.02
-13.05
-18.23
-22.33
-25.26
-27.16
-28.33
-29.1
-29.73
-30.26
-30.59
-30.57
-30.07
-29.08
-27.79
-26.45
-25.37
-24.79
-24.84
-25.46
-26.47
-27.63
-28.64
-29.28
-29.33
-28.68
-27.31
-25.3
-22.88
-20.36
-18.05
-16.19
-14.84
-13.9
-13.2
-12.64
-12.14
-11.65
-11.09
-10.33
-9.23
-7.78
-6.05
-4.27
-2.67
-1.34
-0.26
0.72
1.74
2.8
3.77
4.43
4.55
4.07
3.13
1.99
1
0.43
0.48
1.18
2.45
4.11
5.85
7.29
8.03
7.72
6.19
3.53
0.04
-3.83
-7.73
-11.55
-15.38
-19.47
-23.96
-28.73
-33.45
-37.65
-41.01
-43.52
-45.59
-47.85
-51.03
-55.59
-61.6
-68.59
-75.55
-81.02
-83.3
-80.89
-72.95
-59.88
-43.42
-26.32
-11.51
-1.08
4.49
6.41
7.1
9.2
14.54
23.64
35.7
49.08
61.88
72.57
80.18
84.49
85.84
84.91
82.46
79.19
75.57
71.9
68.3
64.72
60.86
56.25
50.26
42.39
32.57
21.26
9.44
-1.7
-11.23
-18.71
-24.19
-28.04
-30.65
-32.24
-32.94
-32.78
-31.88
-30.46
-28.76
-26.97
-25.21
-23.59
-22.18
-21.14
-20.5
-20.12
-19.76
-19.11
-18.03
-16.65
-15.37
-14.58
-14.57
-15.24
-16.22
-17.02
-17.29
-16.88
-15.87
-14.49
-12.93
-11.47
-10.42
-10.22
-11.25
-13.7
-17.46
-22.09
-27.11
-32.25
-37.62
-43.62
-50.69
-58.99
-68.2
-77.62
-86.44
-94.1
-100.51
-106.18
-112.07
-119.3
-128.81
-140.85
-154.69
-168.48
-179.62
-185.5
-184.57
-177.2
-165.95
-154.75
-147.18
-144.55
-144.69
-142.42
-131.24
-106.03
-65.31
-11.98
47.47
104.92
152.84
185.91
201.63
200.21
184.44
159.48
132.13
109.15
94.96
89.92
90.26
90.17
84.88
73.14
57.62
43.1
33.41
29.29
28.37
27.25
24.15
20.15
18.37
21.61
30.19
41.46
51.36
56.68
56.7
53.2
49.26
47.32
47.85
49.56
50.45
49.18
45.9
41.93
38.89
37.73
38.39
40.06
41.96
43.96
46.86
51.9
59.63
69.06
77.17
79.61
72.29
53.26
23.97
-10.78
-44.37
-70.74
-86.37
-91.24
-88.06
-80.63
-72.13
-64.17
-56.98
-50.3
-44.25
-39.47
-36.72
-36.23
-37.23
-38.29
-37.98
-35.65
-31.75
-27.45
-23.98
-22
-21.27
-20.89
-19.79
-17.25
-13.27
-8.59
-4.36
-1.69
-1.23
-2.9
-5.86
-8.83
-10.53
-10.14
-7.61
-3.54
1.02
5.08
8.03
9.83
10.94
12
13.54
15.76
18.54
21.55
24.39
26.72
28.34
29.17
29.24
28.64
27.52
26.08
24.51
23.04
21.86
21.15
20.98
21.27
21.76
22.01
21.6
20.22
17.98
15.3
12.83
11.14
10.4
10.37
10.47
10.15
9.15
7.69
6.2
5.14
4.68
4.7
4.89
5.03
5.13
5.32
5.75
6.4
7.11
7.73
8.29
9.06
10.37
12.3
14.55
16.43
17.21
16.41
14.01
10.43
6.28
2.16
-1.53
-4.66
-7.27
-9.56
-11.82
-14.28
-17.01
-19.74
-21.91
-22.93
-22.48
-20.81
-18.85
-17.83
-18.8
-22.09
-27.16
-32.78
-37.64
-40.93
-42.65
-43.67
-45.27
-48.71
-54.67
-62.81
-71.48
-77.85
-78.24
-69.08
-48.12
-15.52
25.53
69.32
109.15
139.36
156.95
161.99
156.79
144.33
126.95
105.94
82.16
56.99
32.91
13.09
0.3
-4.36
-1.99
4.68
12.4
18.71
22.55
24.17
24.46
24.29
24.04
23.56
22.48
20.58
17.93
15.02
12.51
11.15
11.66
14.84
21.48
32.06
46.48
63.56
81.07
96.06
105.72
108.34
103.82
93.5
79.28
62.62
44.09
23.68
1.65
-20.62
-40.66
-55.62
-63.61
-64.63
-60.67
-54.79
-49.69
-46.69
-45.4
-44.49
-42.69
-39.59
-35.75
-32.22
-29.86
-28.81
-28.44
-27.71
-25.73
-22.19
-17.54
-12.7
-8.55
-5.58
-3.6
-1.98
0.09
3.14
7.32
12.28
17.42
22.1
25.79
28.2
29.21
28.78
26.89
23.5
18.67
12.59
5.72
-1.27
-7.71
-13.12
-17.51
-21.27
-25.06
-29.35
-34.26
-39.34
-43.86
-47.05
-48.43
-47.96
-45.96
-42.83
-38.85
-34.13
-28.77
-23.22
-18.33
-15.26
-14.94
-17.5
-22.06
-26.99
-30.64
-32.09
-31.47
-29.71
-27.86
-26.4
-25.07
-23.17
-20.16
-16.12
-11.7
-7.65
-4.32
-1.36
2.01
6.52
12.32
18.74
24.66
28.98
31.22
31.69
31.31
31.2
32.13
34.27
37.11
39.78
41.35
41.3
39.52
36.4
32.43
28.05
23.44
18.59
13.5
8.29
3.3
-1.13
-4.75
-7.61
-10.06
-12.52
-15.32
-18.49
-21.77
-24.67
-26.69
-27.46
-26.81
-24.92
-22.14
-19
-15.97
-13.34
-11.2
-9.47
-8
-6.7
-5.56
-4.59
-3.84
-3.26
-2.81
-2.43
-2.07
-1.77
-1.52
-1.33
-1.2
-1.18
-1.3
-1.68
-2.39
-3.38
-4.51
-5.56
-6.32
-6.6
-6.37
-5.68
-4.64
-3.4
-2.07
-0.68
0.83
2.61
4.84
7.61
10.89
14.43
17.9
20.96
23.34
24.93
25.69
25.66
24.86
23.38
21.38
19.16
17.06
15.33
14.04
13.08
12.21
11.26
10.2
9.17
8.45
8.3
8.92
10.31
12.36
14.87
17.59
20.31
22.83
24.99
26.68
27.81
28.45
28.8
29.25
30.24
32.08
34.77
37.88
40.61
42.15
41.93
39.91
36.6
32.88
29.7
27.8
27.57
29.03
31.92
35.83
40.2
44.35
47.59
49.29
49.11
47.07
43.58
39.31
35.05
31.45
28.94
27.57
27.08
26.98
26.72
25.89
24.27
21.85
18.7
14.93
10.61
5.84
0.87
-4
-8.44
-12.31
-15.63
-18.58
-21.28
-23.65
-25.48
-26.47
-26.42
-25.3
-23.19
-20.18
-16.36
-11.87
-6.95
-1.99
2.61
6.53
9.64
11.96
13.59
14.59
14.95
14.68
13.9
12.86
11.93
11.36
11.25
11.44
11.67
11.69
11.37
10.74
9.92
9.04
8.22
7.46
6.66
5.68
4.39
2.65
0.48
-1.99
-4.53
-6.91
-8.97
-10.66
-12.03
-13.11
-13.87
-14.23
-14.13
-13.58
-12.72
-11.9
-11.61
-12.33
-14.39
-17.73
-21.89
-26.12
-29.68
-32.15
-33.56
-34.32
-34.91
-35.66
-36.64
-37.84
-39.35
-41.45
-44.49
-48.53
-53.27
-57.95
-61.68
-63.89
-64.43
-63.7
-62.36
-61.02
-60.05
-59.46
-59.03
-58.42
-57.42
-55.87
-53.77
-51.25
-48.56
-46.1
-44.32
-43.58
-43.95
-45.11
-46.35
-46.87
-45.99
-43.5
-39.73
-35.41
-31.4
-28.38
-26.64
-25.99
-25.96
-25.89
-25.3
-23.87
-21.57
-18.5
-14.81
-10.56
-5.68
-0.08
6.18
12.81
19.26
24.91
29.33
32.44
34.58
36.25
37.89
39.61
41.18
42.18
42.39
41.84
40.93
40.14
39.8
39.96
40.37
40.72
40.78
40.55
40.07
39.41
38.52
37.2
35.37
33.09
30.73
28.82
27.8
27.81
28.6
29.65
30.48
30.93
31.23
31.8
32.98
34.72
36.62
38.1
38.7
38.33
37.23
35.86
34.63
33.78
33.34
33.21
33.29
33.44
33.48
33.17
32.22
30.41
27.8
24.77
21.97
20.03
19.2
19.15
19.06
18.05
15.72
12.45
9.26
7.39
7.64
10
13.69
17.54
20.62
22.6
23.81
24.99
26.77
29.33
32.23
34.6
35.6
34.69
31.67
26.6
19.61
11.04
1.81
-6.22
-10.45
-8.5
0.51
14.98
31.14
44.31
50.92
49.75
42.13
30.88
18.66
7.01
-3.86
-14.43
-25.25
-36.74
-49.37
-63.97
-81.55
-102.38
-125.14
-146.41
-161.31
-165.04
-154.76
-130.96
-97.56
-60.89
-27.71
-3.32
9.63
11.22
3.53
-10.45
-27.67
-45.43
-61.48
-73.93
-81.38
-83.2
-79.79
-72.67
-64.05
-56.2
-50.62
-47.61
-46.19
-44.68
-41.51
-35.95
-28.62
-21.36
-16.59
-16.36
-21.56
-31.52
-44.2
-56.73
-66.16
-70.15
-67.67
-59.25
-46.83
-33.05
-20.17
-9.19
0.32
9.7
19.98
30.92
40.91
47.78
50.19
48.44
44.46
40.69
38.77
38.92
40.17
41.38
42.15
43.2
45.91
51.32
59.37
68.63
76.98
82.52
84.44
83.13
79.6
74.76
69.04
62.45
55.13
47.55
40.35
33.88
27.9
21.81
15.3
8.76
3.16
-0.63
-2.56
-3.47
-4.31
-5.27
-5.41
-3.3
1.75
8.85
15.66
19.74
19.9
17.01
13.52
12
13.85
18.59
24.37
29.02
31.12
30.47
27.91
24.63
21.53
18.98
16.83
14.82
12.82
10.99
9.63
8.89
8.57
8.17
7.16
5.37
3.18
1.42
1.03
2.54
5.75
9.8
13.43
15.53
15.41
12.99
8.66
2.97
-3.63
-10.84
-18.53
-26.67
-35.2
-44.04
-53.1
-62.25
-71.25
-79.84
-87.66
-94.4
-99.84
-104.04
-107.32
-110.21
-113.28
-116.82
-120.65
-124.1
-126.24
-126.29
-124.01
-119.91
-115.15
-111.13
-108.98
-109.17
-111.31
-114.32
-116.78
-117.28
-114.73
-108.49
-98.29
-84.2
-66.53
-45.81
-22.78
1.67
26.56
50.92
73.93
94.85
113.18
128.7
141.44
151.6
159.35
164.71
167.58
167.83
165.41
160.33
152.45
141.45
126.94
108.93
88.28
66.97
47.71
33.23
25.43
24.91
31.08
42.64
58.16
76.35
95.97
115.7
133.96
149.09
159.61
164.58
163.78
157.71
147.35
133.76
117.8
99.95
80.49
59.64
37.76
15.39
-6.79
-27.96
-47.12
-63.14
-74.85
-81.46
-82.91
-80.08
-74.57
-68.26
-62.67
-58.67
-56.49
-55.95
-56.79
-58.71
-61.32
-64
-66.02
-66.7
-65.76
-63.39
-60.27
-57.19
-54.86
-53.72
-53.96
-55.64
-58.79
-63.34
-68.96
-74.92
-80.07
-83.15
-83.25
-80.2
-74.76
-68.34
-62.45
-58.16
-55.88
-55.52
-56.93
-60.17
-65.49
-72.88
-81.72
-90.5
-97.16
-99.74
-97.06
-89.13
-77.09
-62.75
-48
-34.42
-23.04
-14.37
-8.59
-5.69
-5.66
-8.42
-13.8
-21.36
-30.29
-39.55
-48.01
-54.79
-59.47
-62.04
-62.64
-61.31
-57.89
-52.14
-44.1
-34.21
-23.31
-12.36
-2.04
7.44
16.23
24.7
33.18
41.85
50.82
60.16
69.91
80.02
90.23
100.1
109.07
116.66
122.56
126.73
129.32
130.58
130.74
129.93
128.12
125.26
121.33
116.4
110.64
104.24
97.39
90.21
82.8
75.26
67.69
60.21
52.95
46.03
39.64
34.02
29.44
26.12
24.17
23.54
24.04
25.42
27.39
29.67
31.99
34.09
35.82
37.15
38.15
39
39.93
41.09
42.59
44.44
46.69
49.36
52.55
56.26
60.39
64.65
68.65
72.09
74.79
76.68
77.59
77.17
74.86
70.22
63.18
54.32
44.64
35.27
26.97
19.92
13.73
7.74
1.42
-5.42
-12.54
-19.45
-25.58
-30.53
-34.12
-36.37
-37.48
-37.73
-37.48
-37.09
-37.02
-37.71
-39.59
-42.91
-47.64
-53.41
-59.67
-65.86
-71.48
-76.22
-79.84
-82.12
-82.96
-82.37
-80.61
-78.13
-75.51
-73.24
-71.53
-70.31
-69.27
-68.04
-66.29
-63.88
-60.8
-57.18
-53.21
-49.14
-45.31
-42.18
-40.28
-40.08
-41.75
-44.93
-48.75
-52.04
-53.72
-53.24
-50.68
-46.57
-41.58
-36.16
-30.45
-24.47
-18.3
-12.21
-6.68
-2.16
1.11
3.17
4.23
4.63
4.64
4.42
4.03
3.42
2.53
1.34
-0.06
-1.49
-2.73
-3.66
-4.33
-4.94
-5.74
-6.85
-8.25
-9.74
-11.09
-12.13
-12.8
-13.11
-13.09
-12.73
-11.99
-10.92
-9.65
-8.44
-7.5
-6.84
-6.24
-5.33
-3.8
-1.54
1.27
4.18
6.79
8.84
10.37
11.65
13
14.66
16.65
18.8
20.77
22.24
22.94
22.79
21.92
20.69
19.64
19.39
20.43
22.88
26.34
29.89
32.33
32.51
29.81
24.37
17.18
9.77
3.71
0.1
-0.71
0.87
3.96
7.63
11.18
14.32
17.12
19.88
22.99
26.84
31.81
38.21
46.15
55.51
65.84
76.37
86.21
94.48
100.45
103.64
103.87
101.29
96.37
89.86
82.59
75.24
68.19
61.42
54.71
47.83
40.73
33.53
26.27
18.73
10.35
0.44
-11.37
-24.69
-38.4
-50.85
-60.49
-66.38
-68.48
-67.53
-64.8
-61.63
-59.12
-57.9
-58.06
-59.24
-60.79
-62.06
-62.69
-62.75
-62.69
-63.16
-64.61
-67.15
-70.46
-73.9
-76.8
-78.63
-79.14
-78.4
-76.78
-74.77
-72.83
-71.16
-69.7
-68.15
-66.16
-63.56
-60.43
-57.08
-53.9
-51.24
-49.27
-48.07
-47.6
-47.77
-48.38
-49.08
-49.43
-48.97
-47.48
-45.07
-42.13
-39.26
-37.03
-35.76
-35.55
-36.26
-37.61
-39.28
-41.01
-42.63
-44.15
-45.7
-47.58
-50.09
-53.33
-57.01
-60.3
-62.05
-61.27
-57.58
-51.55
-44.61
-38.52
-34.61
-33.3
-33.95
-35.2
-35.65
-34.36
-31.04
-25.85
-19.17
-11.3
-2.53
6.72
15.71
23.46
29.03
31.95
32.42
31.33
29.82
28.83
28.68
29.08
29.38
29.11
28.24
27.24
26.8
27.38
28.99
31.05
32.76
33.4
32.71
30.89
28.5
26.1
24.02
22.33
20.93
19.81
19.18
19.35
20.59
22.92
26.19
30.24
35.15
41.19
48.53
56.88
65.27
72.31
76.68
77.88
76.43
73.7
71.3
70.45
71.55
74.23
77.58
80.63
82.56
82.86
81.27
77.77
72.47
65.6
57.45
48.29
38.37
27.95
17.26
6.6
-3.68
-13.19
-21.43
-27.9
-32.09
-33.74
-32.94
-30.33
-27.02
-24.31
-23.33
-24.64
-28.12
-33.08
-38.57
-43.66
-47.65
-50.13
-50.96
-50.28
-48.51
-46.29
-44.44
-43.63
-44.12
-45.55
-46.91
-46.8
-43.84
-37.06
-26.22
-11.81
4.96
22.48
39.04
53.13
63.73
70.48
73.68
74.22
73.24
71.8
70.59
69.89
69.63
69.62
69.77
70.06
70.47
70.83
70.74
69.51
66.32
60.3
50.76
37.44
20.64
1.28
-19.19
-39.09
-56.93
-71.69
-83.01
-91.08
-96.42
-99.68
-101.4
-101.87
-101.08
-98.76
-94.35
-87.27
-77.14
-64.01
-48.52
-31.78
-15.18
-0.06
12.51
21.89
27.84
30.62
30.8
29.28
27.13
25.51
25.29
27
30.58
35.44
40.73
45.49
48.93
50.52
49.93
47
41.72
34.36
25.45
15.95
7.02
-0.19
-4.83
-6.53
-5.53
-2.49
1.67
5.92
9.42
11.59
12.22
11.43
9.54
6.91
3.88
0.65
-2.59
-5.57
-7.98
-9.57
-10.25
-10.32
-10.31
-10.89
-12.5
-15.25
-18.73
-22.23
-24.94
-26.23
-25.74
-23.55
-20.11
-16.18
-12.62
-10.21
-9.35
-9.91
-11.09
-11.71
-10.6
-7.07
-1.3
5.72
12.51
17.69
20.46
20.85
19.5
17.25
14.8
12.44
10.2
8
5.88
4.04
2.77
2.27
2.57
3.58
5.11
6.99
9.05
11.2
13.37
15.54
17.76
20.12
22.69
25.47
28.33
31
33.16
34.56
35.11
34.96
34.49
34.19
34.57
35.99
38.58
42.26
46.78
51.75
56.81
61.67
66.18
70.28
74.04
77.47
80.42
82.47
82.97
81.24
76.75
69.43
59.77
48.85
38.1
29.01
22.85
20.31
21.4
25.22
30.16
34.02
34.66
30.57
21.54
8.83
-5.2
-17.94
-27.47
-33.22
-35.92
-37.06
-38.01
-39.56
-41.8
-44.49
-47.47
-50.78
-54.48
-58.38
-61.9
-64.17
-64.48
-62.61
-58.83
-53.79
-48.2
-42.56
-37.22
-32.45
-28.53
-25.77
-24.32
-24.06
-24.57
-25.29
-25.72
-25.62
-24.91
-23.58
-21.59
-18.77
-15.1
-10.85
-6.7
-3.51
-2.01
-2.47
-4.61
-7.76
-11.16
-14.23
-16.66
-18.27
-18.87
-18.27
-16.33
-13.18
-9.25
-5.15
-1.47
1.49
3.82
5.93
8.36
11.61
16.01
21.55
27.89
34.36
40.12
44.34
46.56
46.78
45.56
43.71
42.02
40.9
40.24
39.55
38.12
35.36
31.03
25.34
19.07
13.53
10.37
11.07
16.29
25.53
37.02
48.44
57.74
63.99
67.69
70.39
73.82
79.15
86.53
95.15
103.51
109.81
112.21
109.19
100.06
85.54
67.96
50.88
37.95
31.47
31.47
35.57
39.98
41.01
36.46
26.25
11.85
-4.7
-21.94
-39.38
-57.34
-76.23
-95.99
-115.96
-135.21
-153.04
-169.26
-183.96
-196.96
-207.43
-213.96
-215.14
-210.37
-200.43
-187.41
-174.08
-162.86
-155.06
-150.53
-147.81
-144.75
-139.26
-129.96
-116.59
-99.87
-81.15
-61.8
-42.69
-24.02
-5.54
13
31.35
48.55
63.01
72.96
77.02
74.7
66.67
54.6
40.7
27.12
15.46
6.55
0.45
-3.17
-4.8
-4.77
-3.37
-0.82
2.52
6.08
9.17
11.07
11.25
9.54
6.29
2.35
-1.2
-3.47
-4.2
-3.91
-3.73
-4.95
-8.47
-14.53
-22.64
-31.82
-41.01
-49.26
-55.78
-59.97
-61.34
-59.6
-54.81
-47.46
-38.4
-28.65
-19.14
-10.55
-3.27
2.59
7.16
10.81
14.08
17.59
21.81
26.77
32.04
36.75
39.99
41.1
39.89
36.57
31.59
25.4
18.41
11.05
3.84
-2.66
-8
-12.06
-15.04
-17.39
-19.47
-21.33
-22.63
-22.84
-21.61
-19.1
-16.14
-13.95
-13.67
-15.81
-19.83
-24.25
-27.06
-26.48
-21.67
-13.01
-1.93
9.65
20.01
28.17
34
38.08
41.3
44.5
48.14
52.32
56.9
61.71
66.74
72.13
78.09
84.64
91.52
98.12
103.75
107.74
109.6
108.92
105.35
98.73
89.21
77.48
64.58
51.53
38.71
25.58
10.96
-6.16
-25.74
-46.25
-65
-79.19
-87.04
-88.55
-85.27
-79.58
-73.61
-68.64
-64.95
-62.18
-59.86
-57.74
-55.75
-53.87
-51.84
-49.21
-45.45
-40.29
-33.86
-26.74
-19.82
-13.93
-9.57
-6.75
-5.1
-4.07
-3.2
-2.24
-1.19
-0.11
1.01
2.31
4.06
6.45
9.34
12.28
14.63
15.91
16.16
16.01
16.5
18.47
22.13
26.8
31.17
33.84
33.79
30.63
24.62
16.36
6.63
-3.66
-13.61
-22.35
-29.36
-34.6
-38.55
-41.83
-44.73
-46.97
-47.74
-46.24
-42.09
-35.68
-27.94
-19.93
-12.4
-5.49
1.14
8.02
15.55
23.78
32.41
40.91
48.83
56
62.62
69.14
75.93
82.76
88.77
92.6
93.08
89.81
83.59
76.13
69.5
65.39
64.62
67.04
71.67
77.02
81.3
82.73
79.99
72.73
61.91
49.71
38.83
31.71
29.78
33.28
41.42
52.74
65.37
77.23
86.26
90.71
89.65
83.27
72.79
59.92
46.17
32.3
18.26
3.53
-12.33
-29.32
-46.84
-63.72
-78.5
-89.67
-96.11
-97.42
-94.15
-87.79
-80.48
-74.48
-71.74
-73.41
-79.63
-89.45
-101.07
-112.12
-120.25
-123.74
-121.95
-115.46
-105.74
-94.47
-82.86
-71.34
-59.77
-47.98
-36.38
-26.2
-19.28
-17.38
-21.11
-29.21
-38.41
-43.89
-40.31
-23.29
9.06
55.26
110.19
166.08
214.32
247.4
260.45
251.94
223.61
179.84
126.88
72.01
22.51
-15.52
-38.39
-45.63
-40
-26.59
-11.14
1.78
9.83
13.1
13.38
13.19
14.8
19.64
28.14
39.91
53.79
68.03
80.51
89.11
92.37
90.19
84.19
77.41
73.3
74.28
80.81
91.17
102.3
111.02
115.24
114.49
109.69
102.51
94.6
87.22
81.11
76.63
73.9
72.91
73.39
74.73
76.05
76.26
74.33
69.44
61.15
49.44
34.69
17.64
-0.69
-19.1
-36.36
-51.42
-63.74
-73.44
-81.23
-88.1
-94.91
-102.07
-109.43
-116.48
-122.69
-127.73
-131.59
-134.38
-136.25
-137.29
-137.61
-137.52
-137.48
-137.95
-139.08
-140.64
-142.04
-142.73
-142.39
-141.13
-139.22
-136.93
-134.31
-131.18
-127.39
-123.03
-118.41
-113.9
-109.63
-105.34
-100.47
-94.47
-87.14
-78.8
-70.15
-61.96
-54.73
-48.49
-42.93
-37.6
-32.23
-26.87
-21.83
-17.5
-14.11
-11.66
-9.87
-8.39
-6.86
-5.11
-3.16
-1.21
0.4
1.36
1.52
1.01
0.15
-0.55
-0.67
0.05
1.6
3.79
6.33
8.98
11.56
13.93
15.92
17.32
17.96
17.77
16.93
15.77
14.72
14.11
14.02
14.28
14.5
14.33
13.54
12.17
10.47
8.82
7.53
6.83
6.75
7.16
7.83
8.51
8.97
9.13
9.09
9.12
9.65
11.09
13.73
17.65
22.61
28.17
33.79
38.95
43.26
46.56
48.85
50.23
50.82
50.64
49.57
47.38
43.75
38.45
31.45
22.93
13.39
3.43
-6.38
-15.76
-24.83
-34.03
-43.94
-54.88
-66.82
-79.29
-91.51
-102.69
-112.12
-119.35
-124.21
-126.76
-127.31
-126.42
-124.65
-122.34
-119.29
-114.77
-107.92
-98.38
-86.81
-74.95
-65.01
-58.71
-56.53
-57.46
-59.57
-60.9
-60.27
-57.55
-53.26
-47.97
-41.85
-34.67
-26.19
-16.58
-6.68
2.27
9.11
13.37
15.49
16.71
18.49
22.02
27.75
35.41
44.25
53.42
62.34
70.73
78.48
85.41
91.2
95.41
97.7
97.96
96.38
93.36
89.38
84.93
80.49
76.59
73.78
72.46
72.57
73.29
73.15
70.48
64.18
54.41
42.61
31.03
21.73
15.76
12.83
11.7
10.93
9.58
7.47
4.88
2.19
-0.49
-3.24
-6.04
-8.5
-9.89
-9.33
-6.24
-0.54
7.26
16.27
25.52
34.19
41.85
48.38
53.98
58.92
63.41
67.46
70.87
73.24
74.3
74.09
73.04
71.85
71.18
71.27
71.78
71.87
70.58
67.25
61.83
54.89
47.48
40.74
35.68
32.87
32.45
34
36.78
39.8
42.12
43.05
42.32
40.15
37.04
33.61
30.43
27.9
26.27
25.6
25.68
25.99
25.65
23.47
18.22
8.8
-5.34
-24.07
-46.33
-70.26
-93.45
-113.52
-128.7
-138.39
-143.22
-144.79
-145.03
-145.52
-147.11
-149.84
-153.23
-156.53
-158.91
-159.6
-157.87
-153.17
-145.34
-134.67
-121.9
-108.02
-94.02
-80.67
-68.64
-58.48
-50.67
-45.46
-42.64
-41.34
-39.89
-36.08
-27.37
-11.26
14.46
51.34
99.61
157.38
220.06
280.48
330.11
361.23
369.2
353.95
320
274.86
226.55
181.41
142.9
111.62
86.27
64.77
44.75
23.71
-0.81
-30.33
-63.82
-96.44
-119.7
-123.74
-101.33
-51.72
17.71
93.24
159.35
203.93
221.62
214.07
187.51
149.38
105.98
61.95
20.77
-14.47
-41.2
-58.16
-66
-67.25
-65.38
-63.41
-62.89
-63.8
-65.28
-66.61
-67.93
-70.11
-74.18
-80.52
-88.43
-96.33
-102.33
-105.11
-104.31
-100.5
-94.69
-87.87
-80.72
-73.76
-67.54
-62.86
-60.57
-61.28
-65
-71.1
-78.47
-85.9
-92.37
-97.41
-101.17
-104.24
-107.46
-111.42
-116.11
-120.77
-124.09
-124.69
-121.71
-115.23
-106.38
-96.97
-88.83
-82.98
-79.19
-75.9
-70.61
-60.63
-43.74
-18.77
14.02
52.75
94
133.09
164.83
184.6
189.63
179.84
158.07
129.17
98.61
70.87
48.36
31.26
18.17
7.14
-3.38
-14.07
-24.81
-35.17
-44.9
-54.19
-63.41
-72.64
-81.33
-88.3
-92.19
-92.12
-88.08
-80.92
-71.83
-61.8
-51.17
-39.7
-27.02
-13.01
1.9
16.72
30.34
41.72
50.34
56.22
60
62.95
67.03
74.86
89.14
111.39
140.71
173.03
201.61
219.04
219.64
201.23
165.5
116.92
61.22
4.12
-49.15
-93.92
-126.35
-144.12
-147.37
-138.97
-123.75
-106.97
-92.59
-82.4
-76.32
-73.2
-71.76
-71.07
-70.57
-69.92
-68.89
-67.41
-65.68
-64.07
-62.96
-62.57
-62.77
-63.13
-63.07
-62.08
-59.89
-56.6
-52.5
-48.02
-43.52
-39.19
-35.05
-30.99
-26.89
-22.57
-17.89
-12.76
-7.11
-0.99
5.48
12.14
18.87
25.63
32.49
39.49
46.64
53.88
61.05
68.05
74.87
81.59
88.31
95.06
101.66
107.64
112.2
114.35
113.17
108.16
99.55
88.37
76.22
64.83
55.61
49.23
45.71
44.6
45.26
47.06
49.49
52.07
54.37
56.13
57.24
57.84
58.18
58.51
58.94
59.45
59.88
59.98
59.52
58.36
56.41
53.69
50.31
46.49
42.47
38.47
34.67
31.15
27.91
24.86
21.89
18.83
15.64
12.34
9.01
5.72
2.41
-1.09
-4.98
-9.34
-14.05
-18.73
-22.88
-26.03
-27.87
-28.38
-27.8
-26.56
-25.1
-23.79
-22.81
-22.13
-21.59
-20.97
-20.14
-19.12
-18
-16.93
-16.02
-15.37
-15.02
-14.98
-15.21
-15.64
-16.14
-16.54
-16.74
-16.74
-16.65
-16.63
-16.81
-17.15
-17.56
-17.89
-18.09
-18.25
-18.51
-18.98
-19.67
-20.51
-21.35
-22.12
-22.81
-23.45
-24.01
-24.41
-24.4
-23.74
-22.23
-19.83
-16.66
-13.05
-9.41
-6.14
-3.46
-1.4
0.27
1.79
3.39
5.1
6.78
8.24
9.35
10.14
10.76
11.44
12.31
13.43
14.76
16.18
17.58
18.84
19.84
20.44
20.54
20.09
19.12
17.75
16.13
14.39
12.56
10.55
8.26
5.62
2.63
-0.54
-3.66
-6.43
-8.55
-9.79
-10.03
-9.25
-7.54
-5.1
-2.13
1.15
4.64
8.28
12.06
15.97
19.88
23.65
27.08
29.99
32.25
33.78
34.63
34.9
34.75
34.38
34
33.69
33.49
33.32
33.02
32.49
31.69
30.77
29.97
29.58
29.82
30.72
32.06
33.46
34.49
34.88
34.58
33.78
32.7
31.5
30.12
28.36
25.93
22.65
18.51
13.65
8.27
2.49
-3.62
-9.97
-16.33
-22.23
-27.05
-30.24
-31.57
-31.31
-30.26
-29.45
-29.84
-31.91
-35.62
-40.45
-45.77
-51.08
-56.15
-60.95
-65.41
-69.36
-72.5
-74.57
-75.49
-75.42
-74.66
-73.4
-71.64
-69.2
-65.99
-62.11
-58
-54.22
-51.22
-49.16
-47.83
-46.76
-45.41
-43.34
-40.29
-36.22
-31.3
-25.83
-20.27
-15.13
-10.99
-8.42
-7.83
-9.39
-12.85
-17.59
-22.62
-26.99
-29.9
-31.04
-30.58
-29.05
-27.13
-25.38
-24.13
-23.45
-23.18
-23.11
-23.01
-22.78
-22.44
-22.1
-21.89
-21.75
-21.46
-20.64
-18.84
-15.76
-11.38
-5.93
0.02
5.72
10.34
13.15
13.61
11.58
7.37
1.7
-4.5
-10.32
-15.09
-18.47
-20.54
-21.59
-22.06
-22.41
-23
-24.06
-25.6
-27.36
-28.81
-29.32
-28.25
-25.26
-20.45
-14.35
-7.77
-1.57
3.71
7.93
11.32
14.24
16.97
19.52
21.68
23.17
23.88
24
23.9
24.02
24.56
25.42
26.25
26.65
26.42
25.75
25.09
24.97
25.68
27.09
28.67
29.79
29.93
28.98
27.16
24.91
22.64
20.5
18.47
16.38
14.11
11.62
8.98
6.39
4.07
2.34
1.59
2.22
4.49
8.41
13.64
19.53
25.27
30.2
33.9
36.39
37.91
38.89
39.71
40.6
41.63
42.67
43.44
43.58
42.71
40.57
37.15
32.7
27.63
22.37
17.24
12.41
7.94
3.81
-0.03
-3.68
-7.37
-11.35
-15.78
-20.53
-25.13
-28.88
-31.08
-31.42
-30.09
-27.69
-25.01
-22.66
-20.8
-19.14
-17
-13.62
-8.48
-1.47
6.86
15.48
23.16
28.83
32.01
32.9
32.28
31.08
30.06
29.58
29.73
30.43
31.71
33.61
36.06
38.8
41.32
43.1
43.86
43.73
43.14
42.65
42.67
43.29
44.28
45.24
45.68
45.25
43.77
41.3
38.13
34.64
31.16
27.81
24.46
20.83
16.71
12.12
7.49
3.55
1.08
0.72
2.75
7.02
13.15
20.66
29.17
38.33
47.85
57.4
66.6
75.01
82.23
87.9
91.81
93.92
94.38
93.47
91.52
88.63
84.57
78.8
70.64
59.79
46.61
32.12
17.6
4.01
-8.44
-20.31
-32.42
-45.32
-58.85
-72.34
-85.04
-96.66
-107.53
-118.31
-129.4
-140.48
-150.49
-158.08
-162.19
-162.55
-159.68
-154.54
-148.01
-140.57
-132.21
-122.77
-112.26
-101.02
-89.65
-78.71
-68.38
-58.42
-48.46
-38.42
-28.78
-20.55
-14.81
-12.14
-12.18
-13.7
-15.12
-15.18
-13.42
-10.27
-6.71
-3.73
-1.92
-1.28
-1.39
-1.62
-1.55
-1.07
-0.43
-0.12
-0.53
-1.76
-3.52
-5.25
-6.28
-6.2
-4.9
-2.67
0.02
2.71
5.08
6.96
8.32
9.19
9.62
9.64
9.21
8.23
6.5
3.85
0.2
-4.35
-9.5
-14.8
-19.81
-24.19
-27.81
-30.72
-33.15
-35.31
-37.31
-39.09
-40.47
-41.22
-41.28
-40.85
-40.32
-40.13
-40.53
-41.5
-42.73
-43.81
-44.34
-43.99
-42.5
-39.56
-34.92
-28.49
-20.48
-11.49
-2.38
5.97
13.02
18.58
22.83
26.03
28.28
29.52
29.66
28.7
26.92
24.65
22.14
19.37
16.1
12.14
7.61
3.02
-0.92
-3.77
-5.69
-7.46
-10.18
-14.68
-21.16
-29.17
-37.89
-46.52
-54.56
-61.8
-68.12
-73.35
-77.19
-79.44
-80.15
-79.76
-78.9
-78.21
-78.09
-78.73
-80.17
-82.55
-86.15
-91.26
-97.92
-105.63
-113.37
-119.75
-123.62
-124.42
-122.39
-118.44
-113.76
-109.3
-105.57
-102.64
-100.34
-98.48
-96.94
-95.56
-94.13
-92.23
-89.35
-84.97
-78.71
-70.33
-59.86
-47.53
-33.87
-19.66
-5.88
6.64
17.38
26.38
34.16
41.47
49.02
57.08
65.42
73.4
80.21
85.17
87.9
88.4
86.87
83.7
79.39
74.57
69.98
66.16
63.29
61.12
59.18
57.26
55.65
55.08
56.23
58.91
61.76
62.5
58.86
49.62
35.23
17.63
-0.5
-16.69
-29.28
-37.52
-41.27
-40.76
-36.43
-28.94
-19.14
-8.03
3.44
14.59
25
34.53
43.13
50.76
57.26
62.3
65.42
66.12
64.15
59.86
54.3
49.09
46
46.29
50.19
56.64
63.55
68.4
68.94
63.87
53.17
38.13
21.03
4.58
-8.82
-17.65
-21.68
-21.74
-19.26
-15.59
-11.52
-7.35
-3.15
0.89
4.39
7.11
9.31
11.79
15.53
20.98
27.72
34.62
40.52
44.85
47.91
50.5
53.29
56.27
58.8
60.04
59.42
56.87
52.67
47.06
39.91
30.85
19.52
5.97
-9.24
-25.04
-40.24
-53.82
-65.14
-74.07
-80.95
-86.51
-91.64
-97.05
-102.99
-108.97
-113.72
-115.53
-112.66
-103.92
-88.95
-68.29
-43.21
-15.47
12.93
40.04
64.33
85
102.19
116.84
130.31
143.8
158.01
173.09
188.84
205.1
221.79
238.83
255.87
272.08
286.23
296.94
303.01
303.62
298.5
288.01
273.11
255.41
236.89
219.48
204.68
193.19
184.79
178.56
173.24
167.61
160.73
152.06
141.38
128.8
114.64
99.41
83.71
68.18
53.46
40.16
28.82
19.84
13.25
8.66
5.32
2.49
-0.2
-2.35
-2.85
-0.1
7.66
21.94
43.65
72.57
106.92
143.1
176.1
200.49
212.05
209.1
193.04
167.77
138.3
109.19
83.64
63.25
48.45
38.94
33.85
31.58
29.76
25.56
16.48
1.21
-19.97
-45.45
-72.95
-100.34
-126.12
-149.29
-169.08
-184.85
-196.13
-202.84
-205.62
-205.74
-204.9
-204.81
-206.84
-211.84
-220.03
-230.82
-242.82
-254.07
-262.49
-266.49
-265.34
-259.18
-248.77
-235
-218.64
-200.4
-181.09
-161.82
-143.94
-128.77
-117.24
-109.66
-105.53
-103.62
-102.26
-99.67
-94.35
-85.46
-72.9
-57.33
-40.04
-22.78
-7.51
3.97
10.43
11.74
8.97
4.12
-0.61
-3.64
-4.6
-4.35
-4.5
-6.63
-11.68
-19.62
-29.49
-39.63
-48.03
-52.62
-51.72
-44.4
-30.82
-12.23
9.34
31.63
52.82
71.84
88.5
103.04
115.7
126.21
133.69
136.98
135.18
128.27
117.48
105.2
94.54
88.62
89.95
99.87
118.31
143.86
173.98
205.57
235.58
261.64
282.26
296.61
304.03
303.77
295.08
277.72
252.65
222.16
189.4
157.51
128.77
104.14
83.52
66.26
51.74
39.46
28.95
19.42
9.63
-1.96
-16.85
-36.08
-59.77
-86.8
-114.91
-141.18
-162.86
-178.17
-186.88
-190.09
-189.56
-186.75
-182.31
-176.07
-167.72
-157.46
-146.33
-135.84
-127.38
-121.52
-117.93
-115.67
-113.84
-112.05
-110.49
-109.68
-110.09
-111.78
-114.4
-117.29
-119.87
-121.8
-123.12
-124.14
-125.21
-126.56
-128.09
-129.5
-130.38
-130.47
-129.74
-128.34
-126.5
-124.31
-121.75
-118.71
-115.17
-111.29
-107.42
-103.77
-100.15
-95.83
-89.74
-80.94
-69.26
-55.53
-41.53
-29.41
-20.99
-17.13
-17.61
-21.33
-26.91
-33.16
-39.32
-45.12
-50.48
-55.36
-59.52
-62.72
-64.69
-65.43
-65.21
-64.47
-63.65
-62.99
-62.44
-61.86
-61.2
-60.66
-60.5
-60.7
-60.66
-59.19
-55.12
-48.15
-39.35
-31.04
-25.8
-25.25
-29.12
-35.31
-40.88
-43.37
-41.69
-36.21
-28.06
-18.2
-6.87
6.37
22.13
40.58
61.11
82.47
102.99
120.97
134.94
143.8
146.97
144.46
136.91
125.57
112.04
97.94
84.53
72.4
61.37
50.67
39.34
26.71
12.71
-2.05
-16.64
-30.07
-41.66
-51.09
-58.18
-62.88
-65.17
-65.22
-63.5
-60.65
-57.25
-53.54
-49.4
-44.51
-38.66
-31.97
-24.89
-17.99
-11.73
-6.41
-2.22
0.67
2.2
2.47
2.02
1.62
2.13
3.99
7.13
11.04
15.13
19.1
23.03
27.08
31.19
34.84
37.25
37.81
36.56
34.29
32.27
31.6
32.77
35.58
39.39
43.67
48.26
53.35
59.06
65.11
70.62
74.41
75.39
73.14
68.06
61.29
54.25
48.12
43.38
39.73
36.26
31.9
25.94
18.44
10.15
2.23
-4.32
-9.17
-12.82
-16.36
-21
-27.55
-36.1
-46.09
-56.47
-66
-73.46
-77.8
-78.31
-74.86
-67.97
-58.82
-48.84
-39.19
-30.34
-21.94
-13.29
-3.88
6.2
16.19
25.14
32.4
37.97
42.39
46.31
50.06
53.54
56.48
58.75
60.66
62.69
65.33
68.63
72.19
75.29
77.21
77.46
75.9
72.71
68.3
63.35
58.58
54.6
51.67
49.57
47.62
45.1
41.64
37.52
33.61
30.94
30.14
31.02
32.63
33.54
32.51
29
23.37
16.63
10.05
4.55
0.46
-2.45
-4.64
-6.54
-8.35
-10.23
-12.57
-16.22
-22.4
-32.43
-47.2
-66.86
-90.93
-118.64
-149.29
-182.03
-215.38
-246.52
-271.34
-285.3
-285.09
-270.11
-242.97
-208.69
-172.86
-139.82
-111.66
-88.41
-69.12
-52.79
-38.88
-26.99
-16.33
-5.37
7.97
25.55
48.25
75.21
103.83
130.3
150.69
162.16
163.79
156.71
143.42
126.88
109.45
92.59
76.89
62.65
50.29
40.41
33.65
30.32
30.26
32.84
37.3
42.99
49.62
57.28
66.21
76.53
88.11
100.39
112.57
123.79
133.38
141.05
146.95
151.49
155.13
158.05
159.84
159.54
155.87
147.93
135.81
120.98
105.94
93.33
84.81
80.43
78.88
78.44
78.08
77.94
79
82.08
86.94
92.26
96.24
97.63
96.04
91.68
84.72
75.05
62.62
48.29
34.22
23.47
18.79
21.29
29.88
41.83
54.08
64.58
72.74
79.14
84.51
89.1
92.36
93.41
91.63
87.03
80.28
72.31
63.95
55.45
46.66
37.22
27.09
16.67
6.76
-1.87
-8.85
-14.37
-19
-23.3
-27.53
-31.55
-35
-37.62
-39.45
-40.8
-42.14
-43.89
-46.31
-49.44
-53.16
-57.16
-61.11
-64.68
-67.67
-70.09
-72.09
-73.87
-75.46
-76.74
-77.47
-77.48
-76.81
-75.71
-74.58
-73.68
-73.08
-72.56
-71.75
-70.34
-68.23
-65.54
-62.57
-59.65
-56.94
-54.35
-51.59
-48.27
-44.21
-39.61
-35.04
-31.27
-28.87
-27.85
-27.7
-27.58
-26.78
-25.06
-22.81
-20.76
-19.55
-19.49
-20.36
-21.66
-22.93
-23.94
-24.77
-25.65
-26.8
-28.27
-30.02
-31.87
-33.74
-35.54
-37.24
-38.79
-40
-40.66
-40.59
-39.76
-38.27
-36.4
-34.42
-32.56
-30.86
-29.15
-27.23
-24.97
-22.46
-19.98
-17.91
-16.5
-15.77
-15.52
-15.39
-15.13
-14.69
-14.29
-14.19
-14.57
-15.41
-16.49
-17.54
-18.3
-18.75
-18.96
-19.11
-19.31
-19.57
-19.72
-19.52
-18.76
-17.36
-15.43
-13.27
-11.29
-9.84
-9.1
-9.02
-9.34
-9.63
-9.42
-8.34
-6.2
-3.08
0.64
4.32
7.11
8.12
6.62
2.27
-4.57
-12.74
-20.37
-25.34
-25.95
-21.48
-12.55
-0.94
11
21.15
28.2
31.93
32.96
32.24
30.57
28.34
25.74
22.96
20.5
19.08
19.24
20.98
23.57
25.89
27.04
26.87
26.03
25.5
25.95
27.27
28.63
29.15
28.55
27.36
26.51
26.6
27.36
27.7
26.49
23.34
19.04
15.15
13.17
13.62
15.71
17.87
18.46
16.48
11.75
4.48
-5.08
-16.76
-30.24
-44.77
-59.09
-71.83
-82.07
-89.74
-95.54
-100.57
-105.75
-111.54
-118.09
-125.47
-133.77
-143.02
-152.88
-162.53
-170.93
-177.41
-182.18
-186.49
-192.31
-201.66
-215.91
-235.24
-258.54
-283.48
-306.83
-324.91
-334.17
-331.99
-317.39
-291.43
-256.99
-218.07
-178.69
-141.98
-109.61
-81.75
-57.31
-34.31
-10.23
17.53
50.88
90.13
133.38
176.57
214.46
242.4
257.97
261.96
258.09
251.61
247.19
247.29
251.42
256.73
259.58
257.26
249.26
237.47
225.48
217.15
215.27
220.63
231.81
245.67
258.07
264.58
261.32
245.48
215.74
172.54
117.9
54.71
-14.13
-86.15
-159.25
-230.79
-296.97
-352.76
-392.97
-413.91
-414.83
-398.31
-369.23
-333.14
-294.49
-256.12
-219.4
-185.1
-154.09
-127.17
-104.54
-85.21
-66.84
-46.19
-20.15
13.09
52.91
95.8
136.07
167.5
185.41
188.32
178.38
160.31
139.51
120.08
103.94
91.21
81.3
74.02
69.87
69.61
73.25
79.69
86.89
92.7
95.79
96.07
94.38
91.81
88.93
85.64
81.53
76.55
71.39
67.25
65.12
65.05
66.06
66.58
65.45
62.54
58.86
55.96
54.95
55.95
57.95
59.4
59
56.33
52.07
47.81
45.43
46.44
51.51
60.26
71.38
82.92
92.55
97.92
97.03
88.69
73.05
51.89
28.47
6.64
-10.67
-22.77
-31.79
-41.9
-57.21
-79.29
-105.69
-130.37
-146.03
-147.15
-132.39
-104.96
-71.14
-37.73
-10.06
8.86
18.03
17.91
10.06
-2.77
-16.82
-27.97
-33.08
-31.16
-23.67
-13.9
-5.48
-1.02
-1.43
-5.96
-12.86
-19.98
-25.52
-28.33
-28.15
-25.48
-21.3
-16.51
-11.67
-6.91
-2.27
1.93
5.14
6.73
6.43
4.31
0.64
-4.77
-12.74
-24.12
-38.78
-54.61
-67.64
-73.3
-68.46
-53.1
-30.53
-6.11
14.96
29.68
38.02
42.23
44.99
47.79
50.14
50.06
45.47
35.48
21.06
4.78
-10.17
-21.05
-26.38
-26.1
-21.37
-13.95
-5.62
2.13
8.41
12.87
15.51
16.38
15.27
11.74
5.49
-3.16
-12.99
-22.19
-28.97
-32.38
-32.55
-30.61
-27.98
-25.63
-23.73
-21.71
-18.71
-14.13
-8.05
-1.2
5.3
10.53
14.13
16.57
18.72
21.37
24.72
28.16
30.65
31.34
30.16
27.96
26.2
26.14
28.27
31.98
35.83
38.23
38.03
35
29.76
23.44
17.16
11.79
7.85
5.63
5.36
7.16
10.92
16.13
21.91
27.23
31.26
33.69
34.79
35.26
35.79
36.8
38.28
39.83
40.92
41.06
39.97
37.57
33.88
28.98
23.06
16.44
9.59
3.17
-2.2
-6.09
-8.41
-9.5
-9.95
-10.37
-11.22
-12.68
-14.62
-16.77
-18.81
-20.47
-21.58
-22.04
-21.67
-20.32
-17.83
-14.08
-9.16
-3.25
3.33
10.23
17.1
23.62
29.51
34.46
38.16
40.32
40.76
39.46
36.56
32.38
27.37
21.96
16.51
11.32
6.65
2.78
0.07
-1.16
-0.74
1.13
3.87
6.65
8.56
8.95
7.53
4.43
0.04
-5.06
-10.37
-15.44
-19.97
-23.75
-26.74
-29.02
-30.85
-32.57
-34.56
-37.16
-40.54
-44.67
-49.31
-54.08
-58.66
-62.93
-67.11
-71.63
-76.84
-82.68
-88.48
-93.12
-95.4
-94.47
-90.11
-82.73
-73.21
-62.66
-52.29
-43.28
-36.64
-32.73
-30.96
-29.66
-26.44
-18.95
-5.61
13.95
38.87
67.49
97.85
128.01
156.17
180.57
199.42
211.17
214.77
210.08
197.81
179.34
156.02
128.99
99.24
68.09
37.74
11.17
-8.79
-20.96
-26.68
-29.38
-32.57
-37.61
-42.68
-43.73
-36.82
-20.47
3.65
31.6
58.95
82.36
99.87
110.2
112.25
105.22
89.47
67.34
42.97
20.98
4.82
-4.38
-7.8
-7.86
-6.94
-6.63
-7.31
-8.55
-9.65
-10.16
-10.11
-9.96
-10.2
-11.08
-12.51
-14.11
-15.52
-16.57
-17.32
-17.92
-18.29
-17.96
-16.14
-12.08
-5.51
3.14
12.8
22.29
30.78
38.13
44.8
51.39
58.22
65.02
71.02
75.32
77.28
76.8
74.27
70.3
65.45
60.03
54.09
47.59
40.51
32.92
25.01
16.9
8.62
0.06
-8.9
-18.3
-28
-37.58
-46.4
-53.71
-58.73
-60.85
-59.75
-55.57
-48.98
-40.97
-32.66
-24.93
-18.26
-12.72
-8.16
-4.51
-1.89
-0.59
-0.89
-2.91
-6.52
-11.47
-17.49
-24.37
-31.96
-40.07
-48.53
-57.15
-65.88
-74.8
-84.07
-93.74
-103.7
-113.6
-122.96
-131.3
-138.18
-143.28
-146.38
-147.39
-146.16
-142.38
-135.33
-123.97
-107.17
-84.25
-55.6
-23.09
9.98
39.51
61.56
73.41
74.26
65.33
49.31
29.51
9.01
-10
-26.28
-39.34
-49.14
-55.76
-59.42
-60.59
-60.06
-58.82
-57.84
-57.76
-58.74
-60.47
-62.34
-63.71
-64.04
-63.03
-60.62
-56.94
-52.2
-46.64
-40.38
-33.5
-26.02
-18.08
-9.95
-2.13
4.81
10.43
14.58
17.58
20.1
22.81
26.22
30.37
34.89
39.19
42.75
45.26
46.73
47.3
47.12
46.26
44.57
41.84
37.91
32.7
26.36
19.3
12.05
5.24
-0.59
-5.15
-8.42
-10.57
-11.87
-12.52
-12.51
-11.73
-10.01
-7.24
-3.35
1.78
8.39
16.83
27.3
39.56
52.78
65.52
76.24
83.89
88.39
90.72
92.55
95.52
100.6
107.62
115.36
122.01
125.5
124.1
116.57
102.44
82.1
57.06
29.93
4.07
-17.16
-31.36
-37.82
-37.83
-34.08
-29.71
-27.12
-27.3
-29.89
-33.66
-37.24
-39.65
-40.47
-39.83
-38.16
-36.15
-34.55
-34.03
-34.97
-37.31
-40.62
-44.12
-47.08
-48.84
-48.95
-47.06
-42.9
-36.27
-27.31
-16.61
-5.22
5.55
14.53
21.01
24.92
26.84
27.69
28.43
29.72
31.76
34.33
36.99
39.35
41.23
42.67
43.84
44.84
45.6
45.84
45.26
43.59
40.79
37.07
32.8
28.38
24.11
20.08
16.17
12.15
7.78
2.95
-2.27
-7.7
-13.14
-18.55
-23.98
-29.55
-35.27
-41.07
-46.74
-52.18
-57.32
-62.23
-66.91
-71.28
-75.11
-78.12
-80.15
-81.16
-81.26
-80.54
-78.96
-76.4
-72.76
-68.14
-62.89
-57.57
-52.74
-48.73
-45.58
-43.15
-41.3
-39.97
-39.3
-39.39
-40.14
-41.19
-41.99
-42.04
-41.08
-39.17
-36.55
-33.54
-30.35
-27.15
-24.09
-21.43
-19.43
-18.26
-17.86
-17.87
-17.79
-17.15
-15.69
-13.37
-10.32
-6.72
-2.68
1.62
6.01
10.3
14.32
18
21.37
24.41
27.03
29.11
30.6
31.64
32.62
33.86
35.46
37.2
38.68
39.62
40.1
40.53
41.38
42.9
44.92
46.99
48.63
49.6
49.95
49.86
49.49
48.94
48.34
48.01
48.54
50.54
54.31
59.69
65.91
71.96
77.02
80.79
83.66
86.37
89.53
93.21
96.79
99.23
99.55
97.38
93.11
87.74
82.49
78.24
75.35
73.67
72.86
72.63
72.94
73.9
75.62
77.94
80.42
82.28
82.6
80.41
74.89
65.52
52.22
35.54
16.63
-2.91
-21.34
-37.22
-49.68
-58.54
-64.15
-67.19
-68.39
-68.44
-67.88
-67.19
-66.77
-66.89
-67.61
-68.71
-69.78
-70.29
-69.85
-68.27
-65.69
-62.43
-58.91
-55.48
-52.36
-49.65
-47.34
-45.42
-43.92
-42.87
-42.28
-42.07
-42.05
-41.91
-41.38
-40.27
-38.61
-36.56
-34.4
-32.29
-30.25
-28.13
-25.7
-22.77
-19.28
-15.28
-10.89
-6.22
-1.3
3.87
9.29
14.93
20.63
26.12
31.12
35.39
38.87
41.68
44.07
46.27
48.4
50.33
51.75
52.32
51.83
50.23
47.68
44.42
40.63
36.5
32.08
27.38
22.41
17.17
11.68
6.03
0.37
-5.05
-9.87
-13.75
-16.45
-17.88
-18.19
-17.75
-17.02
-16.29
-15.64
-14.97
-14.1
-13.04
-11.97
-11.27
-11.25
-11.99
-13.33
-14.98
-16.64
-18.21
-19.81
-21.59
-23.71
-26.27
-29.44
-33.5
-38.87
-45.85
-54.29
-63.57
-72.62
-80.41
-86.28
-90.3
-93.01
-95.1
-96.8
-97.78
-97.31
-94.61
-89.35
-81.71
-72.27
-61.66
-50.29
-38.35
-26.02
-13.65
-1.89
8.49
16.8
22.75
26.49
28.43
29.09
28.83
27.74
25.73
22.62
18.31
12.89
6.58
-0.31
-7.54
-14.85
-22.08
-29.01
-35.43
-41.14
-46.07
-50.27
-53.92
-57.26
-60.45
-63.51
-66.25
-68.29
-69.08
-68.1
-64.94
-59.44
-51.77
-42.48
-32.31
-21.99
-12.06
-2.74
5.93
14.01
21.39
27.86
33.15
37.1
39.79
41.49
42.47
42.86
42.63
41.61
39.7
36.92
33.44
29.46
25.13
20.47
15.49
10.24
4.77
-0.84
-6.57
-12.5
-18.76
-25.51
-32.82
-40.61
-48.53
-56.04
-62.4
-66.85
-68.82
-68.06
-64.7
-59.16
-51.97
-43.65
-34.63
-25.32
-16.16
-7.66
-0.31
5.6
10.11
13.59
16.62
19.78
23.47
27.75
32.37
36.93
40.97
44.17
46.39
47.68
48.13
47.84
46.81
44.99
42.4
39.2
35.68
32.2
28.97
25.89
22.6
18.61
13.6
7.61
1.19
-4.8
-9.44
-12.1
-12.56
-11.03
-8.05
-4.2
0.02
4.3
8.53
12.72
16.92
21.17
25.37
29.35
32.84
35.61
37.56
38.69
39.18
39.22
38.95
38.47
37.82
37.07
36.29
35.54
34.78
33.88
32.64
30.92
28.78
26.46
24.29
22.53
21.26
20.32
19.43
18.31
16.79
14.81
12.37
9.56
6.48
3.44
0.83
-0.89
-1.34
-0.35
1.93
5.09
8.59
11.94
14.81
17.06
18.74
19.99
20.95
21.76
22.45
22.96
23.18
22.95
22.18
20.87
19.15
17.18
15.12
13.06
11.01
8.97
6.92
4.84
2.7
0.42
-2.17
-5.23
-8.78
-12.72
-16.84
-20.9
-24.76
-28.41
-31.83
-35.01
-37.86
-40.27
-42.21
-43.74
-44.92
-45.69
-45.78
-44.69
-41.9
-37.09
-30.3
-21.91
-12.45
-2.43
7.79
17.95
27.83
37.11
45.44
52.47
58.03
62.21
65.23
67.42
69
70.07
70.61
70.58
69.92
68.61
66.65
64.02
60.77
56.97
52.74
48.17
43.3
38.08
32.46
26.39
19.95
13.37
6.98
1.07
-4.24
-9.06
-13.68
-18.44
-23.5
-28.76
-33.87
-38.34
-41.73
-43.78
-44.46
-43.89
-42.31
-39.94
-37.01
-33.7
-30.14
-26.45
-22.73
-19.06
-15.53
-12.2
-9.03
-5.91
-2.67
0.82
4.5
8.13
11.35
13.82
15.39
16.15
16.36
16.33
16.3
16.34
16.42
16.42
16.17
15.48
14.13
12
9.09
5.59
1.78
-2.03
-5.65
-9.03
-12.13
-14.95
-17.32
-19.03
-19.93
-20.04
-19.55
-18.77
-17.89
-16.95
-15.81
-14.31
-12.41
-10.32
-8.38
-6.91
-6.03
-5.51
-4.93
-3.81
-1.87
0.82
3.89
6.86
9.31
11.06
12.14
12.73
13
13.05
12.94
12.73
12.51
12.43
12.58
12.98
13.55
14.1
14.41
14.28
13.56
12.31
10.78
9.4
8.69
9.16
11.1
14.54
19.25
24.76
30.55
36.08
40.86
44.52
46.82
47.68
47.17
45.46
42.79
39.37
35.44
31.18
26.8
22.44
18.19
13.94
9.49
4.62
-0.75
-6.5
-12.28
-17.7
-22.49
-26.65
-30.41
-34.11
-38.05
-42.34
-46.91
-51.53
-55.92
-59.76
-62.67
-64.33
-64.49
-63.12
-60.4
-56.71
-52.44
-47.92
-43.3
-38.6
-33.83
-29.04
-24.43
-20.24
-16.69
-13.84
-11.63
-9.84
-8.3
-6.87
-5.55
-4.4
-3.45
-2.72
-2.18
-1.8
-1.62
-1.78
-2.38
-3.48
-4.99
-6.79
-8.74
-10.8
-13.06
-15.63
-18.59
-21.85
-25.11
-27.87
-29.62
-29.87
-28.4
-25.27
-20.86
-15.75
-10.52
-5.62
-1.21
2.78
6.56
10.27
13.91
17.31
20.2
22.35
23.7
24.34
24.54
24.55
24.55
24.53
24.31
23.64
22.3
20.22
17.57
14.62
11.67
8.9
6.34
3.93
1.58
-0.77
-3.18
-5.71
-8.54
-11.8
-15.45
-19.19
-22.37
-24.27
-24.28
-22.25
-18.45
-13.54
-8.24
-3.06
1.73
6.15
10.3
14.22
17.82
20.91
23.3
24.87
25.67
25.82
25.53
25.01
24.4
23.75
23.03
22.2
21.2
19.99
18.56
16.86
14.85
12.46
9.69
6.56
3.2
-0.26
-3.74
-7.23
-10.84
-14.75
-19.12
-23.93
-28.96
-33.7
-37.51
-39.74
-40.01
-38.28
-34.86
-30.31
-25.17
-19.86
-14.58
-9.39
-4.29
0.66
5.29
9.43
12.94
15.75
17.88
19.4
20.4
20.93
21.05
20.83
20.34
19.66
18.82
17.76
16.37
14.46
11.92
8.7
4.86
0.57
-4
-8.65
-13.28
-17.86
-22.5
-27.3
-32.31
-37.4
-42.18
-46.06
-48.36
-48.62
-46.67
-42.73
-37.26
-30.86
-24.01
-17.04
-10.13
-3.37
3.1
9.09
14.4
18.86
22.42
25.14
27.19
28.81
30.27
31.73
33.21
34.56
35.53
35.8
35.1
33.4
30.81
27.68
24.41
21.24
18.18
14.94
11.14
6.41
0.67
-5.83
-12.51
-18.67
-23.66
-26.98
-28.37
-27.79
-25.4
-21.58
-16.86
-11.88
-7.19
-3.21
-0.14
2
3.24
3.63
3.22
2.19
0.87
-0.23
-0.56
0.32
2.59
6.15
10.61
15.47
20.28
24.57
27.98
30.19
30.95
30.08
27.56
23.51
18.15
11.8
4.78
-2.59
-9.94
-16.87
-22.91
-27.58
-30.41
-31.15
-29.75
-26.5
-21.94
-16.71
-11.45
-6.6
-2.4
1.11
3.97
6.25
8.07
9.57
10.95
12.35
13.81
15.12
15.91
15.74
14.29
11.5
7.6
2.98
-1.97
-6.99
-12.08
-17.44
-23.37
-30.12
-37.69
-45.7
-53.36
-59.71
-63.78
-64.91
-62.9
-58.09
-51.21
-43.18
-34.93
-27.19
-20.33
-14.33
-8.82
-3.32
2.56
8.89
15.4
21.69
27.46
32.75
37.91
43.3
49.06
54.91
60.35
64.9
68.53
71.57
74.56
77.74
80.86
83.22
84.18
83.53
81.73
79.76
78.53
78.6
79.93
82.1
84.75
87.76
91.33
95.68
100.75
105.98
110.4
112.91
112.7
109.43
103.36
95.19
85.83
76.25
67.28
59.56
53.34
48.51
44.59
40.86
36.7
31.78
26.13
20.1
13.96
7.8
1.33
-5.88
-14.19
-23.56
-33.49
-43.06
-51.19
-56.96
-59.88
-60.11
-58.37
-55.77
-53.32
-51.6
-50.48
-49.3
-47.29
-44.07
-39.94
-35.81
-32.74
-31.32
-31.47
-32.39
-33.09
-32.9
-31.75
-30.18
-28.87
-28.27
-28.35
-28.74
-29.03
-29.06
-29.04
-29.38
-30.44
-32.28
-34.59
-36.84
-38.4
-38.75
-37.58
-34.87
-30.91
-26.2
-21.34
-16.78
-12.66
-8.81
-4.86
-0.52
4.15
8.73
12.61
15.2
16.25
15.91
14.53
12.53
10.21
7.68
4.98
2.22
-0.45
-2.84
-4.83
-6.48
-8.07
-9.98
-12.57
-16.07
-20.52
-25.71
-31.25
-36.57
-41
-43.84
-44.55
-42.89
-39.04
-33.54
-27.16
-20.62
-14.45
-8.89
-3.93
0.55
4.67
8.52
12.17
15.61
18.77
21.46
23.38
24.25
23.88
22.29
19.69
16.39
12.74
9.06
5.67
2.82
0.57
-1.37
-3.67
-7.22
-12.74
-20.4
-29.61
-39.16
-47.73
-54.34
-58.7
-61.18
-62.39
-62.89
-62.86
-62.22
-60.86
-58.87
-56.56
-54.4
-52.74
-51.62
-50.81
-49.8
-48.14
-45.52
-41.96
-37.65
-32.9
-28.01
-23.13
-18.34
-13.65
-9.11
-4.84
-1.08
1.84
3.49
3.48
1.59
-2.16
-7.44
-13.63
-19.94
-25.63
-30.07
-32.9
-33.97
-33.36
-31.29
-28.09
-24.2
-20.18
-16.58
-13.88
-12.31
-11.8
-11.96
-12.3
-12.44
-12.37
-12.47
-13.41
-15.82
-19.83
-24.97
-30.26
-34.62
-37.38
-38.72
-39.64
-41.61
-45.88
-52.93
-62.13
-71.94
-80.63
-86.96
-90.83
-93.25
-95.85
-100.05
-106.11
-112.57
-116.31
-113.21
-99.15
-71.23
-29.03
24.62
83.38
138.14
178.85
197.32
189.96
159.52
114.66
67.26
28.59
5.86
0.72
10.06
28.53
51.01
73.97
95.34
113.57
126.99
134.07
134.35
129.23
122.1
117.25
118.3
126.66
140.94
157.29
170.39
175.19
168.5
150.17
123.15
92.68
64.48
42.86
29.44
23.07
20.85
19.71
17.73
14.56
10.83
7.28
4
0.4
-4.25
-10.28
-17.3
-24.46
-31.18
-37.64
-44.84
-54.23
-66.86
-82.77
-100.78
-118.82
-134.68
-146.7
-154.23
-157.72
-158.35
-157.53
-156.39
-155.54
-155.04
-154.56
-153.59
-151.73
-148.76
-144.65
-139.4
-132.9
-124.89
-115.03
-103.22
-89.81
-75.66
-61.89
-49.35
-38.3
-28.28
-18.56
-8.59
1.5
10.96
18.78
24.15
26.9
27.48
26.77
25.79
25.51
26.68
29.69
34.25
39.22
42.7
42.64
37.75
28.33
16.42
5.22
-2
-2.9
3.32
16.02
33.5
53.46
73.39
90.77
103.47
110.04
110.15
104.69
95.55
85
75.01
66.71
60.29
55.13
50.32
45.05
38.94
32.08
24.84
17.72
11.08
5.1
-0.14
-4.62
-8.39
-11.69
-14.99
-18.76
-23.19
-27.89
-31.9
-34.09
-33.71
-30.73
-25.9
-20.35
-15.11
-10.84
-7.8
-6.09
-5.8
-7.03
-9.71
-13.37
-17.17
-20.14
-21.66
-21.67
-20.76
-19.66
-18.83
-18.01
-16.41
-13.16
-7.93
-1.28
5.46
10.85
13.92
14.62
13.64
11.95
10.21
8.6
6.96
5.18
3.48
2.36
2.38
3.93
7.17
12.14
19.14
28.8
41.82
58.52
78.29
99.43
119.39
135.36
145
147.07
141.65
130.01
114.3
96.93
80.07
65.25
53.13
43.54
35.83
29.18
23.05
17.3
12.09
7.58
3.76
0.33
-3.1
-6.76
-10.58
-14.23
-17.28
-19.49
-20.99
-22.12
-23.27
-24.54
-25.71
-26.34
-26.04
-24.78
-23
-21.42
-20.65
-20.97
-22.18
-23.7
-24.94
-25.47
-25.22
-24.36
-23.21
-22.05
-21.09
-20.36
-19.85
-19.58
-19.6
-20.11
-21.32
-23.44
-26.48
-30.22
-34.14
-37.55
-39.84
-40.61
-39.86
-37.88
-35.19
-32.29
-29.55
-27.15
-25.07
-23.27
-21.64
-20.12
-18.71
-17.39
-16.11
-14.82
-13.41
-11.84
-10.15
-8.47
-6.97
-5.86
-5.25
-5.15
-5.4
-5.78
-6.1
-6.23
-6.19
-6.09
-6.13
-6.42
-7.03
-7.89
-8.83
-9.56
-9.75
-9.07
-7.32
-4.51
-0.91
3.02
6.81
10.08
12.69
14.62
15.92
16.55
16.39
15.31
13.3
10.58
7.53
4.61
2.13
0.19
-1.36
-2.73
-4.16
-5.73
-7.39
-9.04
-10.67
-12.32
-14.09
-16.01
-17.94
-19.51
-20.32
-20.02
-18.51
-15.97
-12.78
-9.35
-5.99
-2.89
-0.12
2.28
4.21
5.57
6.28
6.4
6.08
5.55
5.03
4.63
4.33
4.05
3.68
3.21
2.7
2.25
1.98
1.91
1.97
1.98
1.73
1.02
-0.17
-1.71
-3.25
-4.26
-4.27
-3
-0.51
2.84
6.55
10.17
13.49
16.46
19.15
21.51
23.37
24.54
24.89
24.49
23.62
22.61
21.68
20.83
19.91
18.69
16.97
14.68
11.92
8.96
6.11
3.59
1.47
-0.38
-2.24
-4.4
-7.09
-10.43
-14.4
-18.91
-23.78
-28.73
-33.43
-37.57
-41.04
-43.97
-46.74
-49.76
-53.32
-57.41
-61.81
-66.25
-70.62
-75.11
-80.13
-86.11
-93.35
-101.83
-111.24
-121.08
-130.85
-140.25
-149.26
-158.08
-167.01
-176.09
-184.86
-192.23
-196.58
-195.97
-188.51
-172.8
-148.6
-117.06
-80.59
-42.21
-4.53
31.16
65.06
98.59
133.49
171.14
211.97
255.27
299.14
340.45
375.26
399.5
410.35
407.47
393.49
373.35
352.34
334.05
319.07
305.3
289.36
268.64
242.54
212.62
181.64
152.17
125.65
102.11
80.62
59.91
38.99
17.2
-5.6
-28.96
-51.58
-71.32
-85.55
-92.01
-89.89
-80.39
-66.61
-52.52
-41.68
-36.05
-35.48
-37.98
-40.68
-41.09
-38.1
-32.42
-26.19
-21.95
-21.52
-25.12
-31.35
-37.98
-43.08
-45.76
-46.26
-45.44
-44.05
-42.53
-41.12
-40.33
-40.9
-43.44
-47.72
-52.3
-54.81
-52.83
-44.96
-31.44
-13.97
5.05
23.45
39.8
53.48
64.32
72.38
77.68
80.15
79.58
75.57
67.76
56.23
41.88
26.52
12.54
1.94
-4.43
-7.22
-8.16
-9.24
-11.76
-15.97
-21.32
-26.96
-32.32
-37.18
-41.61
-45.76
-49.67
-53.31
-56.56
-59.34
-61.55
-63.16
-64.16
-64.52
-64.25
-63.28
-61.54
-59.08
-56.07
-52.72
-49.23
-45.64
-41.85
-37.77
-33.43
-29.18
-25.63
-23.52
-23.44
-25.69
-30.18
-36.4
-43.62
-50.95
-57.64
-63.27
-67.88
-71.97
-76.21
-81.02
-86.21
-90.92
-93.79
-93.59
-89.72
-82.54
-73.2
-63.23
-53.94
-46.04
-39.65
-34.52
-30.42
-27.32
-25.37
-24.73
-25.26
-26.43
-27.43
-27.48
-26.11
-23.34
-19.6
-15.42
-11.22
-7.13
-3.18
0.63
4.04
6.61
7.86
7.46
5.45
2.18
-1.8
-5.94
-9.81
-13.18
-15.91
-17.95
-19.21
-19.52
-18.79
-16.99
-14.32
-11.22
-8.24
-5.96
-4.93
-5.54
-7.93
-11.88
-16.71
-21.32
-24.5
-25.32
-23.51
-19.6
-14.55
-9.2
-3.86
1.68
7.86
14.73
21.75
27.9
32.14
33.87
33.02
29.76
24.26
16.54
6.77
-4.44
-15.85
-25.99
-33.57
-38.06
-39.7
-39.21
-37.18
-33.78
-28.66
-21.44
-12.11
-1.42
9.2
17.99
23.44
24.76
22.06
16.24
8.63
0.51
-7.23
-14.14
-20.07
-24.83
-28.1
-29.47
-28.65
-25.79
-21.45
-16.48
-11.68
-7.51
-4.02
-0.92
2.1
5.15
8.11
10.66
12.51
13.61
14.12
14.36
14.61
14.97
15.33
15.43
15
13.88
12.14
9.93
7.51
5.06
2.65
0.25
-2.2
-4.81
-7.65
-10.69
-13.88
-17.1
-20.11
-22.53
-23.9
-23.77
-21.83
-18.12
-12.99
-7.09
-1.02
4.75
10.02
14.77
19.03
22.77
25.86
28.15
29.58
30.27
30.47
30.51
30.62
30.88
31.1
30.9
29.78
27.33
23.35
17.99
11.68
5.07
-1.2
-6.63
-11
-14.32
-16.79
-18.67
-20.2
-21.59
-22.91
-24.11
-24.88
-24.74
-23.09
-19.39
-13.43
-5.47
3.77
13.29
22.08
29.46
35.13
39.23
42.09
44.08
45.42
46.17
46.35
45.89
44.87
43.37
41.5
39.37
37.06
34.62
32.14
29.66
27.21
24.74
22.18
19.43
16.47
13.35
10.17
7.11
4.26
1.6
-1.07
-4.04
-7.57
-11.66
-16.03
-20.09
-23.11
-24.5
-23.98
-21.63
-17.81
-12.98
-7.56
-1.93
3.6
8.78
13.34
17.11
20.03
22.18
23.7
24.72
25.34
25.58
25.45
25.01
24.33
23.55
22.78
22.08
21.4
20.66
19.69
18.33
16.49
14.21
11.65
9.01
6.5
4.18
2
-0.23
-2.77
-5.86
-9.64
-14.11
-19.01
-23.76
-27.56
-29.54
-29.04
-25.91
-20.57
-13.93
-7.01
-0.65
4.74
9.19
12.95
16.26
19.26
21.97
24.31
26.29
27.93
29.3
30.43
31.37
32.11
32.67
33.07
33.36
33.59
33.81
34.01
34.11
33.97
33.44
32.39
30.82
28.85
26.66
24.4
22.13
19.77
17.12
14.01
10.31
6.12
1.75
-2.25
-5.32
-7.03
-7.27
-6.41
-5.06
-3.88
-3.27
-3.28
-3.7
-4.26
-4.95
-5.92
-7.43
-9.57
-12.1
-14.45
-15.99
-16.22
-14.99
-12.48
-9.1
-5.28
-1.37
2.38
5.79
8.62
10.57
11.31
10.59
8.42
5.13
1.38
-2.05
-4.48
-5.6
-5.57
-4.96
-4.49
-4.82
-6.34
-9.07
-12.74
-16.81
-20.55
-23.17
-23.95
-22.48
-18.8
-13.49
-7.52
-1.91
2.59
5.7
7.59
8.72
9.56
10.45
11.51
12.74
14.07
15.4
16.63
17.72
18.69
19.72
21.06
22.96
25.47
28.42
31.39
33.87
35.46
35.94
35.35
33.88
31.84
29.52
27.14
24.82
22.5
19.98
16.9
12.92
7.89
1.93
-4.52
-10.78
-16.25
-20.55
-23.65
-25.94
-27.86
-29.8
-31.79
-33.58
-34.78
-35.15
-34.79
-34.09
-33.64
-33.93
-35.08
-36.88
-38.79
-40.21
-40.7
-40.16
-38.84
-37.22
-35.87
-35.11
-34.95
-35.09
-35.14
-34.78
-33.93
-32.75
-31.44
-30.14
-28.78
-27.15
-25.04
-22.31
-18.95
-14.96
-10.3
-4.81
1.58
8.79
16.38
23.71
30.1
35.11
38.75
41.44
43.79
46.3
49.23
52.44
55.57
58.21
59.97
60.63
60.12
58.51
56.05
53.1
50.11
47.45
45.36
43.79
42.5
41.12
39.34
37.05
34.37
31.52
28.69
25.9
22.89
19.26
14.64
8.76
1.67
-6.35
-14.84
-23.19
-30.72
-36.76
-40.8
-42.64
-42.52
-41.05
-39.1
-37.44
-36.56
-36.61
-37.42
-38.66
-40.05
-41.31
-42.25
-42.72
-42.61
-41.87
-40.58
-38.81
-36.57
-33.77
-30.3
-26.12
-21.41
-16.57
-12.13
-8.62
-6.42
-5.58
-5.96
-7.23
-9.04
-11.11
-13.27
-15.5
-17.91
-20.72
-24.16
-28.37
-33.3
-38.64
-43.87
-48.28
-51.18
-51.99
-50.48
-46.81
-41.52
-35.39
-29.19
-23.53
-18.7
-14.69
-11.29
-8.2
-5.25
-2.3
0.63
3.45
6.02
8.17
9.8
10.92
11.71
12.4
13.22
14.23
15.27
16.03
16.11
15.23
13.32
10.49
7.01
3.2
-0.66
-4.39
-7.89
-11.21
-14.49
-18.02
-22.03
-26.66
-31.73
-36.7
-40.81
-43.22
-43.33
-40.97
-36.4
-30.24
-23.18
-15.87
-8.72
-1.95
4.35
10.16
15.45
20.16
24.2
27.47
29.88
31.39
32.06
32.01
31.37
30.3
28.93
27.41
25.85
24.35
22.88
21.29
19.35
16.86
13.74
10.16
6.4
2.73
-0.74
-4.12
-7.65
-11.64
-16.29
-21.66
-27.67
-34.01
-40.08
-45.07
-48.07
-48.37
-45.71
-40.47
-33.53
-25.96
-18.67
-12.09
-6.23
-0.82
4.35
9.36
14.09
18.33
21.93
24.82
27.06
28.73
29.91
30.66
31
31.01
30.79
30.49
30.17
29.81
29.18
28.01
26.01
23.1
19.45
15.5
11.73
8.43
5.53
2.62
-0.89
-5.52
-11.42
-18.32
-25.49
-31.96
-36.71
-38.94
-38.32
-35.08
-29.96
-23.95
-17.95
-12.44
-7.42
-2.51
2.7
8.3
14.03
19.36
23.8
27.11
29.45
31.16
32.58
33.89
35.06
35.93
36.36
36.28
35.71
34.73
33.37
31.66
29.61
27.23
24.53
21.47
18
14.06
9.59
4.56
-1.04
-7.17
-13.65
-20.09
-25.87
-30.13
-32.06
-31.17
-27.44
-21.42
-14.01
-6.19
1.35
8.28
14.58
20.32
25.45
29.78
33.04
35.05
35.87
35.76
35.09
34.17
33.17
32.1
30.92
29.58
28.02
26.23
24.13
21.65
18.75
15.42
11.7
7.6
3.04
-2.09
-7.96
-14.66
-22.18
-30.31
-38.57
-46.23
-52.34
-55.93
-56.29
-53.2
-47.03
-38.66
-29.18
-19.57
-10.42
-1.89
6.13
13.74
20.74
26.68
30.94
33.15
33.38
32.24
30.63
29.38
28.86
28.89
28.91
28.29
26.7
24.18
21.12
17.96
14.96
12.14
9.23
5.92
1.91
-2.98
-8.78
-15.44
-22.72
-30.2
-37.11
-42.41
-45.05
-44.3
-40.03
-32.87
-23.93
-14.42
-5.25
3.22
11.06
18.54
25.76
32.54
38.43
42.95
45.81
47.06
47.04
46.26
45.15
43.92
42.58
40.97
38.96
36.55
33.79
30.76
27.48
23.75
19.33
14
7.75
0.76
-6.67
-14.35
-22.25
-30.54
-39.34
-48.51
-57.41
-64.99
-70.04
-71.64
-69.45
-63.87
-55.82
-46.4
-36.52
-26.69
-17.04
-7.57
1.68
10.46
18.37
25.01
30.14
33.86
36.5
38.48
40.15
41.62
42.74
43.27
43.06
42.05
40.41
38.29
35.82
32.99
29.75
26
21.75
17.07
12.08
6.91
1.6
-3.8
-9.16
-14.2
-18.49
-21.52
-22.85
-22.25
-19.71
-15.55
-10.09
-3.69
3.41
11.01
18.87
26.59
33.67
39.69
44.39
47.81
50.24
52.1
53.74
55.3
56.7
57.78
58.48
58.91
59.32
59.9
60.66
61.27
61.16
59.66
56.31
50.99
43.95
35.81
27.34
19.26
12.19
6.49
2.36
-0.14
-1.07
-0.61
0.97
3.34
6.11
9.01
11.85
14.56
17.1
19.34
21
21.75
21.35
19.81
17.39
14.55
11.59
8.59
5.28
1.27
-3.76
-9.76
-16.3
-22.73
-28.44
-33.09
-36.62
-39.27
-41.37
-43.31
-45.47
-48.19
-51.68
-55.85
-60.19
-63.76
-65.54
-64.72
-61.17
-55.43
-48.53
-41.51
-35
-29.08
-23.4
-17.56
-11.41
-5.22
0.51
5.28
8.84
11.35
13.15
14.66
16.08
17.42
18.54
19.24
19.43
19.1
18.29
17.04
15.37
13.25
10.64
7.49
3.68
-0.87
-6.25
-12.39
-19.02
-25.65
-31.63
-36.32
-39.26
-40.34
-39.83
-38.22
-36.06
-33.71
-31.27
-28.63
-25.65
-22.41
-19.26
-16.65
-14.94
-14.19
-14.1
-14.2
-14.13
-13.8
-13.43
-13.35
-13.77
-14.63
-15.62
-16.32
-16.44
-15.91
-14.91
-13.76
-12.77
-12.17
-12.13
-12.8
-14.33
-16.76
-19.96
-23.48
-26.59
-28.52
-28.64
-26.71
-22.94
-17.8
-11.89
-5.7
0.45
6.43
12.1
17.38
22.09
26.11
29.31
31.66
33.15
33.86
33.95
33.59
32.97
32.19
31.26
30.14
28.77
27.19
25.5
23.9
22.54
21.51
20.8
20.26
19.67
18.78
17.27
14.85
11.34
6.72
1.28
-4.48
-9.83
-13.96
-16.17
-16
-13.49
-9.09
-3.65
1.87
6.68
10.38
12.97
14.68
15.72
16.08
15.53
13.86
11.01
7.28
3.23
-0.52
-3.56
-5.82
-7.5
-8.92
-10.33
-11.82
-13.35
-14.88
-16.37
-17.85
-19.36
-20.92
-22.48
-23.98
-25.4
-26.76
-28.19
-29.79
-31.5
-33.07
-34.02
-33.8
-32.02
-28.56
-23.68
-17.9
-11.84
-6.01
-0.67
4.08
8.27
11.89
14.86
17.05
18.36
18.76
18.39
17.51
16.43
15.42
14.6
13.95
13.37
12.71
11.95
11.17
10.53
10.15
9.99
9.83
9.31
8.1
5.97
2.91
-0.89
-5.1
-9.33
-13.16
-16.17
-17.96
-18.25
-16.96
-14.3
-10.76
-6.93
-3.34
-0.3
2.17
4.13
5.6
6.41
6.3
5.12
3.01
0.44
-1.91
-3.47
-3.98
-3.6
-2.8
-2.13
-2.02
-2.67
-4.07
-6.06
-8.5
-11.25
-14.14
-17.06
-19.89
-22.6
-25.22
-27.81
-30.34
-32.61
-34.26
-34.85
-34.04
-31.72
-28.17
-23.88
-19.44
-15.29
-11.61
-8.33
-5.35
-2.65
-0.5
0.75
0.77
-0.52
-2.87
-5.78
-8.79
-11.6
-14.18
-16.65
-19.08
-21.45
-23.61
-25.51
-27.23
-28.95
-30.77
-32.43
-33.33
-32.66
-29.76
-24.45
-17.14
-8.61
0.13
8.18
14.85
19.61
22.19
22.58
21.2
18.83
16.48
14.98
14.58
14.96
15.41
15.26
14.24
12.56
10.62
8.78
7.09
5.32
3.18
0.46
-2.92
-7.01
-11.93
-17.82
-24.7
-32.3
-40.05
-47.14
-52.91
-56.97
-59.3
-60.12
-59.63
-57.89
-54.72
-49.87
-43.22
-34.87
-25.13
-14.33
-2.76
9.29
21.31
32.47
41.58
47.46
49.5
48.02
44.4
40.65
38.72
39.76
43.77
49.64
55.68
60.21
62.18
61.34
58.21
53.72
48.77
43.99
39.56
35.36
31.1
26.55
21.65
16.5
11.4
6.71
2.81
0.03
-1.37
-1.24
0.45
3.62
8.03
13.29
18.91
24.34
29.13
33.06
36.15
38.53
40.34
41.52
41.79
40.77
38.17
33.88
28.08
21.02
12.97
4.08
-5.5
-15.47
-25.27
-34.06
-41.06
-45.79
-48.32
-49.21
-49.24
-49.05
-48.88
-48.51
-47.46
-45.29
-41.78
-37.06
-31.57
-25.87
-20.46
-15.65
-11.41
-7.48
-3.54
0.58
4.76
8.62
11.69
13.65
14.46
14.37
13.86
13.32
13.09
13.35
14.24
15.83
17.91
19.76
20.05
17.05
9.24
-3.79
-20.86
-39.26
-55.54
-66.6
-70.67
-67.48
-57.92
-43.36
-25.14
-4.42
17.67
39.82
60.57
78.4
92.11
100.94
104.6
103.21
97.11
86.9
73.38
57.67
41.16
25.37
11.85
1.87
-3.72
-4.73
-1.7
4.26
11.69
19.11
25.25
29.12
30.17
28.26
23.66
16.99
9.02
0.49
-8
-16
-23.08
-28.73
-32.41
-33.75
-32.8
-30.15
-26.81
-23.77
-21.64
-20.43
-19.65
-18.79
-17.69
-16.66
-16.28
-16.94
-18.56
-20.53
-22.03
-22.47
-21.78
-20.44
-19.2
-18.69
-19.15
-20.42
-22.12
-23.85
-25.38
-26.63
-27.68
-28.69
-29.92
-31.78
-34.7
-38.97
-44.46
-50.56
-56.27
-60.62
-63.11
-63.95
-64.03
-64.56
-66.63
-70.9
-77.5
-86.24
-96.76
-108.78
-122.26
-137.54
-155.3
-176.39
-201.35
-229.71
-259.34
-286.47
-306.32
-314.58
-308.85
-289.57
-259.83
-224.22
-187.21
-151.92
-119.63
-90.19
-62.79
-36.52
-10.54
15.9
43.4
71.91
100.38
126.52
147.41
160.43
164.33
159.73
148.96
135.19
121.35
109.35
99.92
92.89
87.86
84.6
83.07
83.1
84.04
84.73
83.91
80.75
75.33
68.68
62.24
57.17
53.83
51.75
49.98
47.75
44.76
41.3
38.08
35.78
34.88
35.42
37.01
38.92
40.38
40.87
40.39
39.47
38.91
39.43
41.42
44.9
49.64
55.32
61.63
68.23
74.7
80.52
85.18
88.38
90.07
90.45
89.77
88.09
85.3
81.17
75.56
68.6
60.68
52.28
43.77
35.21
26.44
17.18
7.32
-2.96
-13.06
-22.06
-28.87
-32.46
-32.25
-28.36
-21.68
-13.73
-6.12
-0.08
3.87
6.03
7.24
8.52
10.74
14.36
19.42
25.61
32.36
39.07
45.23
50.58
55.2
59.38
63.45
67.59
71.7
75.4
78.26
79.88
80.1
78.93
76.58
73.31
69.32
64.71
59.53
53.85
48
42.45
37.88
34.84
33.56
33.76
34.73
35.47
34.95
32.34
27.23
19.64
10.15
-0.15
-9.8
-17.29
-21.42
-21.83
-19.11
-14.59
-9.78
-5.77
-2.82
-0.48
1.95
4.83
7.96
10.67
12.27
12.44
11.33
9.38
6.98
4.3
1.28
-2.1
-5.69
-9.23
-12.56
-15.72
-19
-22.75
-27.01
-31.37
-34.96
-36.78
-36.23
-33.46
-29.43
-25.53
-22.94
-22.11
-22.62
-23.42
-23.48
-22.19
-19.55
-15.91
-11.51
-6.28
0.02
7.41
15.39
22.82
28.41
31.25
31.21
29
25.76
22.58
20.02
18.06
16.14
13.56
9.62
3.88
-3.88
-13.6
-24.97
-37.45
-50.44
-63.44
-76.21
-88.83
-101.59
-114.68
-128.01
-141.03
-152.91
-162.77
-169.97
-174.21
-175.51
-174.03
-169.9
-163.17
-153.72
-141.44
-126.24
-108.17
-87.52
-64.85
-41.07
-17.36
5.02
25.09
42.38
57.14
70.11
82.1
93.68
104.74
114.69
122.62
127.73
129.66
128.51
124.79
119.12
112.07
104.1
95.55
86.71
77.85
69.07
60.35
51.55
42.61
33.71
25.37
18.31
13.19
10.31
9.49
10.14
11.56
13.11
14.42
15.31
15.67
15.41
14.37
12.49
9.9
6.89
3.9
1.36
-0.43
-1.44
-1.87
-2.07
-2.39
-3.09
-4.18
-5.51
-6.83
-8
-9.04
-10.07
-11.29
-12.84
-14.76
-17.05
-19.73
-22.75
-26.03
-29.28
-32.02
-33.65
-33.74
-32.16
-29.25
-25.63
-21.9
-18.39
-15.02
-11.44
-7.34
-2.71
2.13
6.61
10.24
12.79
14.34
15.18
15.58
15.71
15.6
15.3
14.85
14.31
13.78
13.31
12.95
12.78
12.85
13.15
13.56
13.84
13.82
13.44
12.89
12.44
12.3
12.35
12.19
11.29
9.21
5.86
1.51
-3.26
-7.84
-11.61
-14.1
-14.98
-14.13
-11.7
-8.16
-4.19
-0.44
2.65
5.01
6.91
8.75
10.82
13.15
15.46
17.36
18.56
18.99
18.86
18.5
18.22
18.11
18.01
17.68
16.92
15.75
14.43
13.27
12.45
11.85
11.06
9.63
7.27
4.04
0.33
-3.39
-6.71
-9.49
-11.83
-14.03
-16.36
-19.03
-22.08
-25.35
-28.46
-30.89
-32.11
-31.76
-29.76
-26.38
-22.12
-17.48
-12.77
-8.08
-3.3
1.66
6.79
11.86
16.58
20.61
23.7
25.75
26.79
26.99
26.62
25.9
25
24.03
23.06
22.16
21.37
20.73
20.22
19.68
18.92
17.76
16.14
14.2
12.23
10.55
9.4
8.83
8.71
8.71
8.48
7.7
6.21
4.05
1.53
-0.92
-2.76
-3.6
-3.22
-1.67
0.76
3.68
6.65
9.31
11.38
12.75
13.42
13.47
13.06
12.29
11.3
10.13
8.78
7.3
5.73
4.18
2.75
1.51
0.46
-0.47
-1.41
-2.42
-3.54
-4.77
-6.1
-7.53
-9.07
-10.76
-12.53
-14.31
-16.06
-17.79
-19.6
-21.6
-23.88
-26.36
-28.82
-30.91
-32.27
-32.61
-31.78
-29.77
-26.69
-22.82
-18.53
-14.21
-10.2
-6.7
-3.75
-1.22
1.01
3.04
4.79
6.15
6.98
7.3
7.25
7.08
7.01
7.17
7.51
7.88
8.1
8.03
7.61
6.85
5.82
4.59
3.25
1.88
0.53
-0.82
-2.22
-3.76
-5.54
-7.6
-10.01
-12.79
-15.92
-19.21
-22.32
-24.77
-26.05
-25.8
-23.96
-20.82
-16.87
-12.65
-8.57
-4.85
-1.53
1.43
4.05
6.28
8.03
9.21
9.77
9.77
9.37
8.75
8.09
7.45
6.82
6.12
5.33
4.44
3.51
2.55
1.53
0.32
-1.17
-3.06
-5.28
-7.69
-10.06
-12.22
-14.14
-15.95
-17.93
-20.31
-23.28
-26.76
-30.45
-33.89
-36.53
-37.9
-37.72
-35.95
-32.78
-28.65
-24.08
-19.62
-15.65
-12.36
-9.65
-7.3
-5.01
-2.56
0.08
2.82
5.45
7.76
9.61
10.99
11.93
12.53
12.85
12.89
12.68
12.26
11.7
11.04
10.33
9.55
8.65
7.51
6.08
4.35
2.35
0.17
-2.16
-4.64
-7.3
-10.17
-13.19
-16.15
-18.68
-20.32
-20.67
-19.48
-16.88
-13.24
-9.09
-5.01
-1.41
1.56
3.91
5.72
7.09
8
8.39
8.25
7.71
7.01
6.48
6.33
6.61
7.18
7.77
8.11
8.09
7.72
7.07
6.26
5.36
4.4
3.36
2.21
0.89
-0.7
-2.69
-5.22
-8.37
-12.2
-16.63
-21.38
-25.98
-29.81
-32.28
-33
-31.94
-29.39
-25.92
-22.1
-18.34
-14.84
-11.53
-8.3
-5.04
-1.79
1.32
4.03
6.17
7.71
8.71
9.39
9.96
10.56
11.2
11.79
12.19
12.39
12.47
12.63
13.05
13.77
14.65
15.31
15.39
14.62
13.05
11
8.93
7.27
6.14
5.41
4.73
3.72
2.17
0.08
-2.34
-4.7
-6.54
-7.42
-7.06
-5.41
-2.66
0.81
4.56
8.22
11.65
14.81
17.77
20.51
22.94
24.88
26.21
26.97
27.38
27.74
28.3
29.13
30.09
30.88
31.16
30.69
29.46
27.69
25.69
23.73
21.94
20.32
18.76
17.19
15.57
13.92
12.22
10.38
8.27
5.83
3.07
0.12
-2.88
-5.92
-9.14
-12.82
-17.19
-22.22
-27.54
-32.55
-36.56
-39.14
-40.24
-40.18
-39.48
-38.58
-37.65
-36.52
-34.86
-32.44
-29.3
-25.78
-22.27
-19.07
-16.17
-13.29
-10.12
-6.51
-2.63
1.19
4.62
7.6
10.36
13.27
16.64
20.49
24.55
28.42
31.72
34.24
36.02
37.18
37.83
38.06
37.92
37.36
36.36
34.83
32.7
30.04
27.09
24.42
22.8
23
25.5
30.28
36.78
44.09
51.32
57.77
63.22
67.79
71.84
75.7
79.58
83.51
87.4
91.16
94.73
98.09
101.19
103.83
105.77
106.76
106.71
105.68
103.86
101.3
97.77
92.73
85.52
75.78
63.6
49.64
34.92
20.46
6.99
-5.16
-15.97
-25.63
-34.36
-42.43
-50.08
-57.5
-64.76
-71.64
-77.71
-82.4
-85.27
-86.18
-85.39
-83.44
-80.91
-78.24
-75.58
-72.91
-70.16
-67.42
-64.94
-63.06
-62.12
-62.29
-63.56
-65.67
-68.26
-70.95
-73.43
-75.47
-77.01
-78.1
-78.8
-79.21
-79.35
-79.21
-78.7
-77.76
-76.37
-74.69
-72.97
-71.53
-70.62
-70.25
-70.16
-69.87
-68.81
-66.52
-62.66
-57.02
-49.45
-39.87
-28.38
-15.4
-1.73
11.53
23.29
32.85
39.99
45.08
48.74
51.61
54.04
55.99
57.13
57.05
55.57
52.86
49.4
45.72
42.23
38.92
35.48
31.54
26.86
21.55
15.99
10.75
6.35
3.28
1.93
2.55
5.07
8.8
12.33
13.61
10.6
2.09
-11.69
-28.82
-46.26
-60.79
-70.14
-73.65
-72.21
-67.64
-61.74
-55.71
-50
-44.7
-39.94
-36.1
-33.56
-32.28
-31.65
-30.67
-28.56
-25.36
-22.11
-20.4
-21.63
-26.17
-33.19
-40.94
-47.35
-50.71
-50.06
-45.21
-36.62
-25.21
-12.31
0.52
11.64
19.7
23.95
24.39
21.8
17.53
13.17
10.26
9.93
12.69
18.35
26.05
34.48
42.35
48.69
53.06
55.48
56.14
55.24
52.79
48.81
43.48
37.34
31.13
25.56
21.01
17.42
14.36
11.33
8.01
4.31
0.41
-3.53
-7.48
-11.54
-15.88
-20.58
-25.63
-30.87
-36.06
-40.86
-44.89
-47.67
-48.78
-47.96
-45.18
-40.78
-35.25
-29.16
-22.95
-16.9
-11.17
-5.92
-1.33
2.42
5.22
7.17
8.47
9.41
10.14
10.7
10.99
10.84
10.18
9.06
7.63
6.07
4.52
3.06
1.66
0.18
-1.67
-4.2
-7.69
-12.16
-17.21
-22.05
-25.62
-26.97
-25.6
-21.6
-15.58
-8.47
-1.14
5.81
12.1
17.72
22.69
27.02
30.6
33.31
35.08
35.92
35.97
35.35
34.2
32.59
30.54
28.14
25.49
22.72
19.91
17.05
13.96
10.42
6.16
1
-5.13
-12.11
-19.55
-26.87
-33.28
-38.02
-40.48
-40.47
-38.15
-34
-28.64
-22.56
-16.09
-9.43
-2.7
3.91
10.07
15.37
19.47
22.12
23.33
23.35
22.54
21.26
19.76
18.03
15.99
13.46
10.39
6.85
3
-1.04
-5.31
-10.03
-15.58
-22.36
-30.59
-40.09
-50.22
-59.91
-67.99
-73.53
-76.16
-76.15
-74.25
-71.4
-68.38
-65.7
-63.62
-62.37
-62.21
-63.49
-66.52
-71.37
-77.69
-84.82
-91.81
-97.75
-101.91
-103.82
-103.2
-99.69
-92.75
-81.74
-66.2
-46.2
-22.64
2.8
27.88
50.27
67.99
79.71
84.99
84.34
79.07
71.13
62.58
55.15
49.81
46.77
45.56
45.39
45.43
44.94
43.35
40.16
35.1
28.14
19.67
10.36
1.06
-7.49
-14.87
-21.08
-26.5
-31.62
-36.83
-41.99
-46.23
-47.99
-45.41
-36.96
-22.09
-1.59
22.57
47.75
71.43
91.74
107.68
119.15
126.67
131.31
134.35
137.21
140.98
146.23
152.8
159.97
166.78
172.38
176.2
177.83
176.93
173.11
166.15
156.29
144.28
131.25
118.34
106.28
95.21
84.83
74.67
64.43
54.17
44.21
34.93
26.63
19.34
12.91
7.06
1.5
-3.96
-9.45
-14.98
-20.55
-26.08
-31.38
-36.03
-39.34
-40.57
-39.07
-34.64
-27.61
-18.79
-9.2
0.21
8.87
16.55
23.38
29.58
35.36
40.72
45.4
48.83
50.17
48.44
42.78
32.77
18.72
1.82
-15.99
-32.35
-44.96
-52.07
-52.81
-47.33
-36.79
-23.14
-8.84
3.61
12.1
15.37
13.27
6.87
-1.78
-10.22
-16.21
-18.39
-16.57
-11.67
-5.17
1.44
7.24
11.98
15.85
19.07
21.59
23.07
23.18
21.86
19.49
16.71
14.08
11.83
9.79
7.52
4.6
0.91
-3.29
-7.52
-11.3
-14.41
-17.02
-19.52
-22.39
-25.97
-30.32
-35.25
-40.4
-45.34
-49.6
-52.74
-54.34
-54.13
-52.02
-48.18
-43.01
-37.1
-31.03
-25.36
-20.57
-17.06
-15.03
-14.5
-15.16
-16.52
-17.98
-19.05
-19.42
-19.07
-18.2
-17.1
-16.09
-15.36
-14.97
-14.86
-14.96
-15.27
-15.88
-16.98
-18.79
-21.48
-25.02
-29.18
-33.49
-37.29
-39.85
-40.52
-38.91
-35.07
-29.51
-23.07
-16.7
-11.2
-7.01
-4.2
-2.57
-1.84
-1.7
-2.02
-2.63
-3.43
-4.22
-4.86
-5.26
-5.53
-5.92
-6.74
-8.18
-10.23
-12.62
-14.92
-16.85
-18.37
-19.79
-21.64
-24.48
-28.57
-33.74
-39.37
-44.53
-48.24
-49.74
-48.75
-45.44
-40.38
-34.33
-27.99
-21.94
-16.6
-12.23
-9.06
-7.19
-6.59
-7.04
-8.17
-9.53
-10.72
-11.55
-12.02
-12.28
-12.51
-12.84
-13.27
-13.76
-14.3
-14.92
-15.74
-16.84
-18.28
-20.02
-22.03
-24.3
-26.85
-29.64
-32.43
-34.72
-35.85
-35.17
-32.33
-27.41
-20.91
-13.47
-5.74
1.84
9.01
15.58
21.34
26
29.34
31.29
32.06
32.05
31.71
31.29
30.84
30.1
28.72
26.47
23.38
19.76
16.12
12.93
10.41
8.48
6.74
4.68
1.9
-1.74
-6.11
-10.73
-14.94
-18.02
-19.37
-18.6
-15.73
-11.09
-5.33
0.78
6.63
11.78
16.14
19.82
22.95
25.6
27.61
28.8
28.98
28.15
26.51
24.4
22.16
19.98
17.91
15.88
13.81
11.69
9.57
7.48
5.39
3.21
0.86
-1.72
-4.54
-7.65
-11.18
-15.28
-20.01
-25.13
-30.06
-33.94
-36.02
-35.99
-34.11
-31.2
-28.17
-25.68
-23.87
-22.41
-20.89
-19.17
-17.55
-16.66
-17.13
-19.16
-22.42
-26.14
-29.5
-31.95
-33.53
-34.75
-36.43
-39.24
-43.43
-48.71
-54.41
-59.75
-64.21
-67.73
-70.88
-74.7
-80.49
-89.33
-101.47
-115.88
-130.06
-140.55
-143.88
-137.87
-122.5
-100.12
-74.9
-51.73
-35.04
-27.89
-31.44
-44.73
-65
-88.19
-110.06
-127.23
-138.07
-143.01
-144.08
-144.06
-145.39
-149.46
-156.3
-164.48
-171.5
-174.25
-169.82
-156.36
-133.83
-104
-70.05
-35.44
-2.87
26.39
52.61
77.4
103.26
133.03
168.92
211.42
258.42
305.15
345.38
373.46
386.38
384.82
372.48
354.38
334.87
316.67
300.91
287.94
278
271.29
267.5
265.41
263.02
258.1
249.15
235.83
219.06
200.56
182.23
165.44
150.79
138.02
126.4
115.13
103.88
92.89
82.66
73.36
64.44
54.82
43.42
29.97
15.43
1.64
-9.28
-15.77
-17.41
-14.86
-9.56
-3.22
2.55
6.54
8.04
7.05
4.28
1.02
-1.38
-2.07
-1.38
-1.01
-3.87
-13.4
-32.47
-61.93
-99.63
-140.37
-176.97
-202.5
-212.47
-206.15
-186.38
-158.2
-126.9
-96.76
-70.6
-50.27
-37.08
-31.98
-35.04
-44.88
-58.59
-72.36
-82.64
-87.24
-85.85
-79.74
-71.05
-61.83
-53.43
-46.38
-40.64
-36.08
-32.89
-31.72
-33.44
-38.8
-48.03
-60.7
-75.78
-91.85
-107.48
-121.58
-133.66
-143.86
-152.68
-160.61
-167.78
-173.77
-177.79
-178.99
-176.94
-171.94
-165.01
-157.53
-150.71
-145.02
-139.98
-134.24
-126.03
-113.76
-96.59
-74.72
-49.39
-22.59
3.49
26.89
46.3
61.17
71.61
78.06
81.04
80.92
78.1
73.18
67.2
61.43
57.05
54.65
53.99
54.18
54.24
53.59
52.39
51.22
50.62
50.58
50.44
49.14
45.81
40.08
32.13
22.49
11.58
-0.28
-12.63
-24.55
-34.49
-40.6
-41.44
-36.67
-27.29
-15.36
-3.14
7.66
16.24
22.57
26.8
28.84
28.41
25.28
19.81
13.01
6.32
1
-2.35
-3.89
-4.38
-4.76
-5.67
-7.35
-9.63
-12.13
-14.54
-16.68
-18.63
-20.72
-23.33
-26.76
-31.03
-35.9
-40.85
-45.28
-48.58
-50.18
-49.54
-46.24
-40.2
-31.74
-21.67
-11.08
-0.96
8.02
15.57
21.55
25.79
28.07
28.26
26.59
23.77
20.7
18.26
16.82
16.19
15.79
14.98
13.36
10.87
7.77
4.39
0.98
-2.43
-5.98
-9.93
-14.48
-19.7
-25.39
-31.12
-36.26
-40.09
-41.95
-41.43
-38.44
-33.3
-26.65
-19.28
-11.87
-4.86
1.65
7.71
13.32
18.26
22.17
24.71
25.81
25.83
25.43
25.26
25.63
26.35
26.86
26.53
25.04
22.57
19.75
17.26
15.47
14.28
13.05
10.97
7.34
1.87
-5.21
-13.24
-21.28
-28.36
-33.61
-36.44
-36.55
-34.03
-29.26
-22.88
-15.69
-8.49
-1.93
3.57
7.91
11.19
13.57
15.21
16.22
16.77
17.11
17.62
18.66
20.37
22.59
24.86
26.6
27.44
27.37
26.8
26.34
26.47
27.24
28.16
28.39
27.12
23.97
19.15
13.46
7.95
3.59
1.06
0.55
2.02
5.11
9.42
14.46
19.78
25.09
30.14
34.79
38.8
41.81
43.34
43.01
40.72
36.81
31.96
26.97
22.56
19.13
16.84
15.6
15.2
15.37
15.79
16.13
16.08
15.46
14.19
12.35
10.08
7.48
4.61
1.48
-1.79
-4.8
-6.88
-7.27
-5.46
-1.45
4.12
10.19
15.72
20.15
23.51
26.29
29.06
32.11
35.28
38.05
39.86
40.32
39.41
37.43
34.88
32.29
30.08
28.36
26.93
25.28
22.79
18.95
13.53
6.77
-0.69
-7.97
-14.25
-19
-22.16
-24.08
-25.38
-26.65
-28.28
-30.34
-32.56
-34.45
-35.4
-34.95
-32.77
-28.86
-23.41
-16.82
-9.58
-2.27
4.55
10.38
14.85
17.91
19.84
21.15
22.37
23.78
25.29
26.52
27.07
26.83
26.04
25.27
25.07
25.76
27.27
29.25
31.19
32.72
33.63
33.95
33.86
33.67
33.75
34.47
36.03
38.37
41.21
44.26
47.5
51.42
56.96
65.04
76
89.22
103.06
115.34
124.02
127.73
126.04
119.36
108.69
95.35
80.94
67.17
55.67
47.64
43.5
42.87
44.68
47.64
50.6
52.82
53.94
53.87
52.67
50.55
47.83
44.89
41.95
38.96
35.41
30.57
23.68
14.34
2.71
-10.53
-24.33
-37.5
-49
-58.08
-64.42
-68.11
-69.57
-69.46
-68.43
-67.03
-65.65
-64.53
-63.72
-63.22
-62.94
-62.67
-62.21
-61.4
-60.23
-58.88
-57.66
-56.88
-56.72
-57.22
-58.19
-59.43
-60.71
-61.91
-63.06
-64.29
-65.83
-67.86
-70.53
-73.81
-77.61
-81.72
-85.93
-90.09
-94.07
-97.71
-100.75
-102.81
-103.46
-102.39
-99.45
-94.75
-88.57
-81.3
-73.3
-64.81
-55.94
-46.58
-36.42
-25.17
-12.74
0.47
13.59
25.47
35.19
42.42
47.6
51.68
55.69
60.25
65.45
71.01
76.61
82.13
87.66
93.31
99.13
104.96
110.53
115.54
119.8
123.16
125.49
126.57
126.11
123.77
119.26
112.43
103.37
92.33
79.76
66.19
52.22
38.39
25.24
13.27
2.96
-5.34
-11.45
-15.36
-17.29
-17.53
-16.48
-14.48
-11.98
-9.48
-7.53
-6.61
-7.03
-8.75
-11.43
-14.5
-17.42
-19.8
-21.64
-23.19
-24.85
-26.91
-29.44
-32.29
-35.19
-37.93
-40.39
-42.56
-44.44
-46.08
-47.54
-49
-50.73
-53.03
-56
-59.34
-62.36
-64.17
-64.04
-61.67
-57.3
-51.65
-45.53
-39.65
-34.36
-29.78
-25.89
-22.63
-20.06
-18.2
-17.08
-16.58
-16.49
-16.5
-16.27
-15.46
-13.85
-11.38
-8.11
-4.2
0.15
4.77
9.49
14.07
18.18
21.43
23.5
24.31
24.08
23.23
22.28
21.5
20.9
20.18
18.94
16.9
14.12
11.08
8.5
7.21
7.78
10.33
14.46
19.4
24.28
28.47
31.7
34.06
35.88
37.54
39.28
41.2
43.18
44.96
46.15
46.31
45
41.92
37.1
30.89
23.97
17.1
10.84
5.43
0.71
-3.66
-7.97
-12.24
-16.26
-19.77
-22.67
-25.12
-27.48
-30.09
-33.07
-36.34
-39.6
-42.49
-44.65
-45.77
-45.59
-43.92
-40.72
-36.17
-30.68
-24.79
-19.09
-14.05
-9.99
-7.02
-5.13
-4.12
-3.77
-3.8
-4.01
-4.24
-4.48
-4.81
-5.38
-6.37
-7.85
-9.78
-12
-14.28
-16.45
-18.49
-20.55
-22.85
-25.53
-28.58
-31.75
-34.7
-37.13
-38.87
-39.98
-40.69
-41.34
-42.26
-43.62
-45.4
-47.2
-48.35
-48.09
-45.82
-41.36
-35.06
-27.68
-20.09
-12.99
-6.78
-1.56
2.76
6.3
9.18
11.51
13.43
15.08
16.52
17.75
18.7
19.26
19.39
19.12
18.46
17.45
16.09
14.36
12.28
9.9
7.29
4.57
1.84
-0.8
-3.27
-5.54
-7.64
-9.62
-11.56
-13.49
-15.5
-17.63
-19.89
-22.11
-23.88
-24.65
-23.86
-21.29
-17.18
-12.2
-7.21
-2.89
0.48
3.03
5.05
6.78
8.23
9.26
9.75
9.76
9.46
9.14
9.01
9.17
9.62
10.25
10.96
11.68
12.33
12.84
13.15
13.16
12.72
11.65
9.67
6.59
2.4
-2.68
-8.17
-13.55
-18.47
-22.81
-26.61
-29.87
-32.27
-33.2
-32.02
-28.42
-22.73
-15.93
-9.3
-3.91
-0.24
1.97
3.37
4.62
6.1
7.77
9.44
10.95
12.34
13.64
14.71
15.1
14.24
11.7
7.52
2.24
-3.36
-8.5
-12.75
-15.99
-18.26
-19.48
-19.42
-17.87
-14.87
-10.81
-6.4
-2.47
0.38
2.03
2.89
3.82
5.89
10.18
17.64
28.97
44.41
63.65
85.6
108.45
130.03
148.21
161.5
169.22
171.43
168.6
161.2
149.54
133.81
114.41
92.02
67.69
42.53
17.49
-6.87
-30.2
-52.29
-72.76
-91.01
-106.33
-118.12
-126.23
-131.08
-133.58
-134.87
-135.88
-136.99
-137.93
-137.98
-136.31
-132.46
-126.52
-119.09
-111.02
-103.11
-95.8
-89.11
-82.82
-76.69
-70.67
-64.96
-59.89
-55.8
-52.91
-51.25
-50.72
-51.18
-52.46
-54.45
