-28.04
-28.88
-26.85
-22.16
-15.6
-8.24
-1.05
5.27
10.49
14.59
17.63
19.58
20.35
19.89
18.37
16.17
13.79
11.75
10.33
9.63
9.43
9.43
9.27
8.66
7.49
5.81
3.79
1.65
-0.47
-2.53
-4.69
-7.16
-10.17
-13.86
-18.27
-23.26
-28.49
-33.41
-37.21
-38.99
-38.02
-34
-27.28
-18.78
-9.77
-1.38
5.68
11.2
15.32
18.29
20.19
21.01
20.73
19.47
17.64
15.73
14.2
13.22
12.69
12.22
11.46
10.22
8.54
6.64
4.7
2.78
0.77
-1.51
-4.24
-7.53
-11.43
-15.97
-21.15
-26.83
-32.54
-37.51
-40.7
-41.22
-38.6
-32.99
-25.2
-16.32
-7.44
0.67
7.68
13.52
18.21
21.75
24.04
24.99
24.69
23.48
21.87
20.44
19.59
19.39
19.57
19.65
19.12
17.72
15.42
12.5
9.3
6.14
3.14
0.32
-2.49
-5.47
-8.84
-12.75
-17.32
-22.52
-28.1
-33.51
-37.91
-40.34
-39.93
-36.24
-29.42
-20.36
-10.33
-0.69
7.62
14.23
19.28
23.17
26.22
28.51
29.88
30.18
29.5
28.2
26.84
25.96
25.81
26.29
27.04
27.58
27.53
26.72
25.14
22.98
20.42
17.63
14.7
11.65
8.44
5.01
1.23
-3.08
-7.98
-13.48
-19.21
-24.49
-28.32
-29.63
-27.69
-22.35
-14.21
-4.43
5.62
14.78
22.45
28.52
33.25
36.87
39.46
40.98
41.4
40.9
39.94
39.1
38.85
39.39
40.56
41.97
43.18
43.88
43.94
43.38
42.39
41.12
39.74
38.31
36.84
35.22
33.26
30.71
27.31
22.89
17.44
11.24
4.7
-1.66
-7.39
-12.22
-15.96
-18.58
-20.05
-20.4
-19.78
-18.5
-17.05
-15.89
-15.28
-15.12
-15
-14.44
-13.17
-11.29
-9.24
-7.55
-6.55
-6.22
-6.22
-6.16
-5.8
-5.19
-4.65
-4.58
-5.3
-6.89
-9.23
-12.07
-15.05
-17.82
-20.1
-21.73
-22.74
-23.38
-23.99
-24.98
-26.59
-28.9
-31.71
-34.61
-37
-38.22
-37.64
-34.89
-29.94
-23.21
-15.51
-7.82
-0.97
4.5
8.5
11.26
13.14
14.42
15.25
15.65
15.56
14.98
14.04
12.97
12.06
11.5
11.4
11.66
12.1
12.46
12.56
12.27
11.57
10.46
8.99
7.1
4.79
1.96
-1.42
-5.36
-9.9
-15.1
-21
-27.64
-34.85
-42.12
-48.55
-52.99
-54.29
-51.82
-45.71
-36.87
-26.77
-16.93
-8.48
-1.93
2.78
5.99
8.1
9.33
9.8
9.63
9.1
8.61
8.7
9.75
11.85
14.75
18.03
21.22
24.1
26.78
29.47
32.43
35.71
39.09
42.19
44.64
46.23
46.87
46.61
45.49
43.53
40.88
37.84
35.06
33.39
33.8
36.95
42.93
51.15
60.33
68.91
75.45
79.07
79.59
77.49
73.53
68.45
62.78
56.82
50.78
44.87
39.29
34.15
29.35
24.68
19.88
14.85
9.69
4.73
0.29
-3.4
-6.31
-8.58
-10.37
-11.87
-13.21
-14.61
-16.34
-18.72
-21.95
-26
-30.48
-34.74
-38.08
-39.97
-40.29
-39.29
-37.46
-35.29
-33.13
-31.24
-29.84
-29.17
-29.43
-30.68
-32.67
-34.88
-36.73
-37.7
-37.6
-36.61
-35.18
-33.86
-33.08
-33.03
-33.61
-34.53
-35.35
-35.73
-35.46
-34.54
-33.17
-31.67
-30.35
-29.44
-29.07
-29.27
-30.06
-31.43
-33.32
-35.6
-37.92
-39.76
-40.53
-39.78
-37.36
-33.55
-28.94
-24.22
-20.05
-16.72
-14.25
-12.4
-10.85
-9.37
-7.92
-6.63
-5.75
-5.48
-5.83
-6.63
-7.6
-8.44
-9.01
-9.4
-9.81
-10.47
-11.46
-12.72
-14.08
-15.4
-16.6
-17.71
-18.78
-19.79
-20.58
-20.99
-20.86
-20.24
-19.38
-18.64
-18.36
-18.65
-19.3
-19.88
-19.81
-18.61
-15.96
-11.82
-6.32
0.13
7.03
13.84
20.05
25.37
29.74
33.32
36.43
39.36
42.26
45.08
47.55
49.38
50.37
50.53
50.12
49.5
49.02
48.84
48.9
48.94
48.66
47.79
46.24
44.11
41.57
38.9
36.3
33.93
31.79
29.8
27.72
25.23
22.03
17.83
12.61
6.57
0.27
-5.54
-10.02
-12.61
-13.11
-11.82
-9.35
-6.34
-3.25
-0.24
2.73
5.6
8.1
9.68
9.69
7.71
3.78
-1.53
-7.36
-12.83
-17.42
-21.06
-24.03
-26.75
-29.46
-32.12
-34.44
-36.04
-36.66
-36.37
-35.56
-34.84
-34.75
-35.6
-37.31
-39.49
-41.68
-43.58
-45.19
-46.77
-48.68
-51.14
-54.13
-57.39
-60.56
-63.24
-65.07
-65.7
-64.79
-62.05
-57.41
-51.01
-43.35
-35.08
-26.91
-19.37
-12.77
-7.21
-2.61
1.15
4.27
6.93
9.3
11.52
13.65
15.67
17.45
18.88
19.83
20.29
20.29
19.9
19.21
18.25
17.09
15.69
14.09
12.27
10.26
8.12
5.94
3.83
1.85
-0.04
-2.01
-4.35
-7.39
-11.29
-15.87
-20.5
-24.22
-25.99
-25.05
-21.18
-14.86
-7.1
0.92
8.18
14.11
18.54
21.6
23.51
24.42
24.49
23.88
22.89
21.82
20.95
20.4
20.13
19.95
19.68
19.22
18.54
17.68
16.65
15.45
13.97
12.16
9.96
7.45
4.72
1.94
-0.78
-3.42
-6.08
-8.99
-12.36
-16.34
-20.77
-25.15
-28.73
-30.63
-30.14
-26.96
-21.33
-13.96
-5.83
2.07
8.98
14.5
18.55
21.26
22.84
23.5
23.44
22.86
21.99
21.06
20.21
19.58
19.14
18.8
18.43
17.92
17.2
16.19
14.85
13.1
10.93
8.36
5.46
2.34
-0.86
-4.1
-7.37
-10.77
-14.5
-18.74
-23.65
-29.19
-34.95
-40.2
-43.93
-45.13
-43.16
-37.98
-30.21
-20.95
-11.48
-2.82
4.37
9.96
14.13
17.2
19.45
21.08
22.16
22.75
22.9
22.73
22.4
22.06
21.84
21.71
21.6
21.28
20.53
19.22
17.3
14.88
12.1
9.11
5.97
2.69
-0.76
-4.45
-8.4
-12.69
-17.41
-22.69
-28.46
-34.4
-39.72
-43.29
-44.01
-41.08
-34.5
-25.1
-14.33
-3.75
5.4
12.56
17.77
21.45
24.09
25.98
27.2
27.81
27.87
27.58
27.18
26.87
26.69
26.64
26.59
26.44
26.09
25.42
24.35
22.77
20.64
17.84
14.31
9.92
4.63
-1.51
-8.37
-15.73
-23.38
-31.18
-38.97
-46.38
-52.74
-57.05
-58.3
-55.8
-49.55
-40.36
-29.62
-18.84
-9.23
-1.41
4.58
9.01
12.2
14.33
15.48
15.76
15.52
15.23
15.41
16.32
17.8
19.22
19.83
19.05
16.8
13.57
10.2
7.51
5.9
5.22
4.88
4.09
2.26
-0.82
-5
-9.95
-15.32
-20.83
-26.19
-30.89
-34.17
-35.21
-33.35
-28.48
-21.12
-12.28
-3.09
5.51
12.92
18.91
23.39
26.28
27.56
27.37
26.09
24.36
22.91
22.27
22.59
23.58
24.63
25.07
24.43
22.62
19.92
16.77
13.63
10.67
7.82
4.78
1.17
-3.29
-8.72
-14.97
-21.55
-27.61
-32
-33.56
-31.41
-25.34
-15.92
-4.35
7.9
19.57
29.79
38.23
44.85
49.73
53.03
54.97
55.94
56.41
56.89
57.68
58.73
59.63
59.75
58.43
55.25
50.21
43.74
36.59
29.54
23.18
17.67
12.8
8.04
2.76
-3.52
-11.01
-19.53
-28.47
-36.76
-43.04
-45.9
-44.3
-37.96
-27.58
-14.65
-1.05
11.56
22.06
30.04
35.59
38.98
40.42
40.07
38.09
34.87
30.98
27.08
23.66
20.93
18.75
16.75
14.53
11.85
8.72
5.4
2.19
-0.78
-3.58
-6.58
-10.19
-14.72
-20.21
-26.52
-33.32
-40.24
-46.86
-52.6
-56.67
-58.26
-56.7
-51.86
-44.25
-34.92
-25.15
-15.99
-8.1
-1.62
3.57
7.67
10.8
13
14.32
14.88
14.93
14.79
14.76
14.99
15.45
15.95
16.21
16
15.17
13.75
11.91
9.87
7.77
5.63
3.3
0.55
-2.82
-6.88
-11.54
-16.61
-21.94
-27.41
-32.86
-37.96
-42.07
-44.32
-43.92
-40.43
-34.11
-25.81
-16.67
-7.74
0.44
7.79
14.56
20.98
27.03
32.41
36.73
39.73
41.42
42.12
42.24
42.21
42.26
42.45
42.75
43.06
43.34
43.53
43.57
43.29
42.5
41.02
38.91
36.51
34.46
33.53
34.25
36.73
40.35
44.02
46.51
46.95
45.17
41.72
37.57
33.66
30.66
28.77
27.89
27.78
28.17
28.73
29.03
28.64
27.18
24.53
20.88
16.55
11.87
6.9
1.53
-4.48
-11.2
-18.52
-26.21
-33.98
-41.63
-48.99
-55.95
-62.23
-67.52
-71.45
-73.76
-74.41
-73.63
-71.87
-69.66
-67.46
-65.66
-64.43
-63.81
-63.67
-63.67
-63.21
-61.55
-57.96
-52
-43.71
-33.72
-23.04
-12.8
-3.83
3.46
9.08
13.26
16.24
18.11
18.92
18.75
17.79
16.37
14.85
13.47
12.33
11.33
10.3
9.05
7.46
5.58
3.53
1.51
-0.35
-2
-3.5
-4.99
-6.62
-8.5
-10.69
-13.25
-16.22
-19.62
-23.31
-26.88
-29.67
-30.93
-30.19
-27.37
-22.95
-17.79
-12.8
-8.67
-5.73
-4.05
-3.54
-4.19
-6.01
-8.95
-12.78
-17.04
-21.19
-24.84
-27.92
-30.7
-33.73
-37.51
-42.26
-47.87
-53.85
-59.67
-64.97
-69.75
-74.31
-79.14
-84.71
-91.36
-99.24
-108.08
-117.07
-124.58
-128.42
-126.19
-116.13
-97.86
-72.51
-42.51
-10.69
20.58
49.75
75.96
98.61
116.96
130.19
137.77
139.95
137.9
133.48
128.52
124.33
121.31
119.18
117.35
115.41
113.44
111.94
111.56
112.56
114.61
116.72
117.6
116.27
112.51
106.98
101.01
96.02
92.99
92.07
92.56
92.91
90.96
84.22
70.4
48.28
18.5
-16
-50.47
-79.69
-99.65
-108.81
-108.33
-101.19
-90.82
-79.82
-69.51
-60.29
-52.31
-45.91
-41.58
-39.58
-39.47
-40.19
-40.43
-39.22
-36.41
-32.68
-29.15
-26.87
-26.24
-26.93
-28.08
-28.72
-28.25
-26.67
-24.52
-22.64
-21.82
-22.44
-24.44
-27.27
-30.04
-31.83
-31.89
-29.8
-25.61
-19.84
-13.25
-6.65
-0.74
4.09
7.76
10.41
12.26
13.55
14.38
14.8
14.8
14.4
13.65
12.64
11.48
10.34
9.35
8.56
7.9
7.23
6.37
5.19
3.67
1.9
-0.02
-2.02
-4.14
-6.44
-9
-11.73
-14.52
-17.28
-20.09
-23.09
-26.32
-29.47
-31.79
-32.29
-30.16
-25.2
-18
-9.79
-1.96
4.45
9.01
11.94
13.77
15.02
15.9
16.43
16.5
16.11
15.4
14.58
13.88
13.46
13.36
13.49
13.73
13.88
13.77
13.27
12.33
11
9.43
7.78
6.1
4.38
2.46
0.1
-2.85
-6.48
-10.68
-15.19
-19.54
-23.11
-25.15
-25.06
-22.56
-17.88
-11.76
-5.29
0.52
4.93
7.7
8.95
9
8.14
6.58
4.41
1.77
-1.19
-4.29
-7.34
-10.26
-12.92
-15.19
-16.86
-17.7
-17.59
-16.54
-14.74
-12.46
-9.98
-7.5
-5.16
-3.04
-1.21
0.21
1.06
1.2
0.46
-1.36
-4.43
-8.82
-14.34
-20.36
-25.83
-29.51
-30.38
-27.96
-22.6
-15.29
-7.31
0.21
6.58
11.61
15.47
18.37
20.49
21.84
22.38
22.11
21.15
19.74
18.19
16.76
15.52
14.43
13.33
12.05
10.52
8.77
6.89
4.98
3.07
1.12
-0.99
-3.33
-5.96
-8.88
-12.14
-15.75
-19.74
-23.94
-27.97
-31.15
-32.66
-31.81
-28.3
-22.42
-14.99
-7.06
0.36
6.66
11.58
15.17
17.54
18.69
18.65
17.44
15.35
12.86
10.54
8.83
7.93
7.65
7.66
7.53
6.98
5.91
4.36
2.51
0.45
-1.73
-4.04
-6.52
-9.24
-12.28
-15.78
-19.88
-24.59
-29.74
-34.8
-38.95
-41.28
-41.08
-38.1
-32.7
-25.68
-18
-10.51
-3.73
2.17
7.2
11.42
14.83
17.33
18.83
19.3
18.92
18.04
17.13
16.57
16.52
16.89
17.32
17.39
16.77
15.39
13.41
11.12
8.74
6.37
3.92
1.2
-2.03
-5.93
-10.52
-15.7
-21.13
-26.3
-30.51
-33.02
-33.19
-30.68
-25.6
-18.5
-10.25
-1.84
5.93
12.51
17.66
21.34
23.63
24.59
24.34
23.12
21.32
19.41
17.78
16.56
15.6
14.55
13.08
11.05
8.57
5.97
3.58
1.55
-0.15
-1.81
-3.82
-6.56
-10.28
-15.05
-20.7
-26.81
-32.69
-37.45
-40.18
-40.16
-37.07
-31.12
-23.01
-13.74
-4.34
4.35
11.84
17.88
22.38
25.27
26.5
26.09
24.29
21.56
18.54
15.84
13.81
12.48
11.58
10.68
9.48
7.88
6.04
4.19
2.5
0.92
-0.85
-3.22
-6.61
-11.23
-17.06
-23.66
-30.31
-36.04
-39.8
-40.74
-38.36
-32.73
-24.41
-14.4
-3.86
6.13
14.75
21.54
26.38
29.37
30.73
30.75
29.8
28.27
26.61
25.15
24
22.96
21.7
19.85
17.36
14.46
11.6
9.21
7.39
5.85
4
1.31
-2.67
-7.98
-14.43
-21.53
-28.56
-34.64
-38.75
-40.01
-37.86
-32.36
-24.15
-14.33
-4.16
5.28
13.26
19.5
23.97
26.82
28.26
28.5
27.79
26.44
24.75
22.99
21.26
19.57
17.79
15.88
13.92
12.05
10.45
9.15
8.05
6.87
5.3
3.01
-0.21
-4.55
-10.02
-16.36
-22.97
-28.83
-32.74
-33.63
-30.98
-24.94
-16.33
-6.33
3.87
13.32
21.42
27.81
32.33
34.89
35.52
34.49
32.27
29.5
26.84
24.77
23.44
22.68
22.08
21.23
19.83
17.9
15.66
13.39
11.33
9.4
7.34
4.69
1.02
-3.85
-9.73
-15.96
-21.51
-25.18
-25.95
-23.25
-17.18
-8.45
1.76
12.14
21.49
28.93
34
36.59
36.95
35.53
32.94
29.81
26.68
24
22.02
20.87
20.47
20.59
20.81
20.68
19.83
18.08
15.5
12.41
9.15
5.99
2.99
0.01
-3.23
-7.06
-11.58
-16.56
-21.38
-25.04
-26.5
-24.98
-20.35
-13.15
-4.49
4.39
12.44
19.13
24.32
28.1
30.5
31.44
30.85
28.83
25.79
22.4
19.42
17.38
16.45
16.36
16.61
16.62
16.04
14.75
12.87
10.68
8.42
6.22
4.09
1.91
-0.42
-3.05
-6.06
-9.55
-13.49
-17.72
-21.76
-24.82
-26.03
-24.65
-20.49
-13.96
-6.11
1.79
8.64
13.79
17.25
19.36
20.6
21.3
21.52
21.19
20.24
18.77
17.1
15.6
14.55
14.03
13.86
13.73
13.32
12.44
11.04
9.24
7.26
5.26
3.34
1.51
-0.32
-2.23
-4.32
-6.62
-9.2
-12.1
-15.4
-19.02
-22.67
-25.7
-27.31
-26.76
-23.71
-18.42
-11.66
-4.5
2.1
7.49
11.43
13.99
15.4
15.94
15.84
15.35
14.7
14.17
13.97
14.23
14.92
15.84
16.69
17.16
17.06
16.4
15.37
14.22
13.12
12.08
10.99
9.71
8.19
6.55
4.97
3.64
2.56
1.52
0.18
-1.74
-4.3
-7.25
-10.05
-12.05
-12.7
-11.66
-8.97
-4.91
0.08
5.43
10.56
14.82
17.69
18.78
18.06
15.82
12.67
9.36
6.54
4.67
3.92
4.24
5.45
7.33
9.59
11.97
14.19
16.03
17.37
18.24
18.77
19.1
19.37
19.61
19.81
19.85
19.53
18.69
17.15
14.81
11.69
7.93
3.8
-0.29
-3.87
-6.48
-7.75
-7.67
-6.62
-5.39
-4.94
-6.06
-9.02
-13.43
-18.36
-22.76
-25.84
-27.35
-27.56
-27.04
-26.34
-25.88
-25.79
-26.1
-26.76
-27.66
-28.63
-29.42
-29.75
-29.54
-29.09
-29.13
-30.65
-34.48
-40.87
-49.26
-58.36
-66.59
-72.6
-75.62
-75.69
-73.51
-70.02
-66.2
-62.76
-60.14
-58.43
-57.47
-56.89
-56.12
-54.48
-51.31
-46.13
-38.84
-29.78
-19.83
-10.09
-1.6
4.95
9.44
12.19
13.76
14.67
15.21
15.44
15.36
14.96
14.35
13.71
13.15
12.72
12.38
12.04
11.56
10.89
10
8.9
7.58
6.05
4.28
2.35
0.34
-1.59
-3.31
-4.68
-5.7
-6.47
-7.22
-8.24
-9.77
-11.88
-14.43
-17
-18.98
-19.74
-18.81
-16.12
-11.99
-7.06
-2.07
2.38
5.95
8.58
10.39
11.53
12.08
12.05
11.5
10.57
9.5
8.59
8.01
7.83
7.92
8.05
7.97
7.59
6.93
6.09
5.18
4.26
3.25
2.08
0.68
-0.98
-2.75
-4.48
-5.98
-7.13
-7.96
-8.56
-9.17
-10.05
-11.45
-13.45
-15.94
-18.54
-20.66
-21.66
-21.03
-18.53
-14.41
-9.24
-3.86
0.99
4.88
7.71
9.68
11.1
12.14
12.82
13.13
13.04
12.69
12.32
12.14
12.19
12.39
12.54
12.5
12.3
12.11
12.12
12.51
13.23
14.1
14.83
15.11
14.77
13.86
12.57
11.25
10.19
9.52
9.09
8.53
7.32
5
1.31
-3.72
-9.75
-16.2
-22.4
-27.71
-31.57
-33.61
-33.67
-31.73
-28.05
-23.12
-17.68
-12.62
-8.78
-6.65
-6.25
-7.06
-8.27
-9.14
-9.16
-8.34
-7
-5.6
-4.48
-3.71
-3.17
-2.61
-1.95
-1.19
-0.5
-0.04
0.13
0.09
-0.06
-0.18
-0.23
-0.27
-0.27
-0.25
-0.15
0.04
0.18
0.06
-0.45
-1.3
-2.17
-2.48
-1.64
0.77
4.79
10.03
15.87
21.61
26.7
30.87
34.09
36.54
38.52
40.32
42.11
44
45.84
47.38
48.24
48.12
46.9
44.66
41.74
38.48
35.22
32.05
28.92
25.65
22.12
18.3
14.29
10.23
6.27
2.5
-1.02
-4.3
-7.35
-10.23
-13.13
-16.24
-19.68
-23.38
-26.99
-29.98
-31.8
-32.13
-31.08
-29.09
-26.81
-24.8
-23.37
-22.54
-22.12
-21.91
-21.83
-21.88
-22.08
-22.38
-22.53
-22.28
-21.38
-19.8
-17.7
-15.43
-13.27
-11.35
-9.66
-8.1
-6.63
-5.36
-4.5
-4.21
-4.53
-5.31
-6.36
-7.43
-8.38
-9.15
-9.76
-10.29
-10.9
-11.81
-13.27
-15.51
-18.49
-21.85
-24.9
-26.79
-26.79
-24.59
-20.47
-15.23
-9.91
-5.44
-2.34
-0.64
0.06
0.22
0.26
0.3
0.37
0.36
0.26
0.1
-0.13
-0.43
-0.91
-1.64
-2.66
-3.82
-4.89
-5.64
-5.91
-5.75
-5.42
-5.31
-5.8
-7.11
-9.22
-11.83
-14.5
-16.77
-18.33
-19.07
-19.16
-18.9
-18.71
-18.94
-19.83
-21.38
-23.33
-25.23
-26.47
-26.6
-25.36
-22.86
-19.43
-15.56
-11.64
-7.85
-4.17
-0.53
3.08
6.47
9.24
11
11.49
10.82
9.41
7.91
6.94
6.83
7.51
8.59
9.6
10.17
10.19
9.78
9.15
8.47
7.79
7.03
6.1
4.99
3.72
2.3
0.67
-1.26
-3.46
-5.74
-7.73
-9.07
-9.6
-9.56
-9.51
-10.05
-11.49
-13.65
-15.88
-17.33
-17.26
-15.35
-11.78
-7.12
-2.06
2.75
6.9
10.24
12.76
14.58
15.79
16.43
16.62
16.43
16.05
15.64
15.35
15.15
14.9
14.43
13.62
12.54
11.37
10.36
9.61
9.03
8.37
7.34
5.83
3.93
1.94
0.16
-1.26
-2.41
-3.52
-4.79
-6.31
-7.97
-9.62
-11.17
-12.67
-14.15
-15.49
-16.28
-15.92
-13.75
-9.45
-3.08
4.87
13.63
22.39
30.43
37.19
42.27
45.42
46.57
45.82
43.4
39.67
34.97
29.69
24.15
18.74
13.75
9.44
6.01
3.61
2.29
2.02
2.55
3.33
3.55
2.43
-0.59
-5.52
-11.79
-18.42
-24.37
-28.95
-32
-33.84
-35.05
-36.21
-37.64
-39.32
-40.98
-42.13
-42.35
-41.32
-38.92
-35.22
-30.43
-24.87
-18.94
-13.02
-7.49
-2.67
1.23
4.14
6.15
7.44
8.28
8.91
9.52
10.14
10.68
10.98
10.88
10.25
9.13
7.7
6.19
4.73
3.27
1.59
-0.64
-3.69
-7.54
-11.96
-16.48
-20.7
-24.37
-27.65
-30.92
-34.67
-39.33
-45.02
-51.51
-58.28
-64.46
-69.04
-71.06
-69.83
-65.2
-57.64
-48.09
-37.73
-27.58
-18.26
-9.97
-2.63
3.84
9.42
14.04
17.65
20.42
22.71
24.93
27.37
30.05
32.77
35.22
37.15
38.45
39.23
39.62
39.71
39.43
38.57
36.89
34.2
30.47
25.88
20.7
15.25
9.78
4.37
-1.08
-6.79
-13.1
-20.29
-28.45
-37.39
-46.53
-54.93
-61.42
-64.89
-64.64
-60.48
-52.83
-42.56
-30.72
-18.39
-6.39
4.71
14.58
23.02
29.97
35.47
39.68
42.93
45.57
47.99
50.46
53.04
55.54
57.59
58.89
59.31
58.96
58.18
57.29
56.38
55.17
53.16
49.76
44.73
38.28
31.02
23.77
17.06
10.98
5.1
-1.26
-8.79
-17.82
-28.19
-39.25
-49.85
-58.6
-64.08
-65.13
-61.19
-52.54
-40.28
-26
-11.34
2.46
14.82
25.74
35.46
44.02
51.18
56.49
59.71
60.99
61.09
60.99
61.55
63.14
65.56
68.25
70.66
72.54
73.96
75.15
76.2
76.95
77.05
76.13
74.06
70.98
67.2
62.96
58.37
53.28
47.48
40.8
33.25
24.99
16.32
7.58
-0.78
-8.1
-13.65
-16.65
-16.61
-13.54
-8.03
-1.04
6.3
13.11
18.86
23.35
26.62
28.77
29.95
30.29
30
29.29
28.35
27.31
26.2
24.96
23.45
21.51
19.02
15.98
12.51
8.88
5.41
2.34
-0.2
-2.29
-4.06
-5.64
-7.13
-8.6
-10.18
-12.13
-14.77
-18.4
-23.19
-29.04
-35.55
-42.14
-48.09
-52.64
-55.19
-55.29
-52.89
-48.33
-42.28
-35.61
-29.13
-23.43
-18.8
-15.35
-13.01
-11.68
-11.14
-11.06
-11.04
-10.67
-9.71
-8.16
-6.25
-4.24
-2.41
-0.85
0.42
1.44
2.21
2.75
3.12
3.33
3.42
3.28
2.72
1.53
-0.37
-2.73
-5.12
-7.09
-8.44
-9.24
-9.81
-10.34
-10.69
-10.38
-8.83
-5.67
-1.08
4.24
9.38
13.6
16.61
18.58
19.89
20.9
21.68
22.03
21.63
20.3
18.16
15.61
13.24
11.55
10.74
10.61
10.62
10.16
8.79
6.48
3.57
0.6
-2.02
-4.13
-5.88
-7.6
-9.53
-11.76
-14.21
-16.78
-19.35
-21.9
-24.27
-26.16
-27
-26.13
-23.1
-17.82
-10.81
-2.9
4.95
12.04
18.08
23.14
27.39
30.85
33.34
34.51
34.16
32.46
29.97
27.43
25.48
24.4
24.01
23.93
23.77
23.42
22.97
22.59
22.39
22.26
21.98
21.26
19.92
17.83
14.91
11.05
6.13
0.11
-6.77
-13.95
-20.55
-25.58
-28.17
-27.86
-24.71
-19.4
-12.98
-6.59
-1.15
2.85
5.41
6.84
7.46
7.51
7.02
5.9
4.12
1.73
-1.09
-4.08
-7.04
-9.86
-12.53
-15.07
-17.51
-19.92
-22.43
-25.25
-28.54
-32.35
-36.54
-40.75
-44.6
-47.85
-50.52
-52.92
-55.47
-58.51
-62.16
-66.17
-70
-72.94
-74.26
-73.34
-69.84
-63.78
-55.56
-45.89
-35.65
-25.7
-16.69
-8.98
-2.7
2.23
5.99
8.78
10.77
12.18
13.18
13.95
14.61
15.21
15.64
15.75
15.36
14.38
12.86
10.91
8.65
6.13
3.34
0.19
-3.35
-7.26
-11.36
-15.47
-19.44
-23.21
-26.89
-30.73
-35.05
-40.07
-45.83
-51.87
-57.31
-60.91
-61.45
-58.2
-51.19
-41.32
-29.98
-18.66
-8.36
0.44
7.83
14.07
19.33
23.69
27.11
29.69
31.65
33.31
34.88
36.41
37.8
38.91
39.68
40.21
40.62
40.94
40.95
40.22
38.21
34.54
29.19
22.49
15.12
7.84
1.24
-4.41
-9.21
-13.59
-18.1
-23.26
-29.36
-36.33
-43.73
-50.65
-55.96
-58.47
-57.38
-52.5
-44.4
-34.25
-23.51
-13.45
-4.85
2.06
7.5
11.86
15.5
18.69
21.64
24.52
27.47
30.52
33.48
35.97
37.55
37.93
37.09
35.27
32.95
30.52
28.22
25.95
23.39
20.16
15.98
10.9
5.26
-0.4
-5.53
-9.85
-13.41
-16.7
-20.33
-24.89
-30.69
-37.62
-45.16
-52.37
-58.11
-61.19
-60.68
-56.2
-48.05
-37.22
-25.11
-13.15
-2.45
6.45
13.53
19.02
23.26
26.5
28.93
30.74
32.15
33.38
34.59
35.71
36.56
36.95
36.81
36.27
35.61
35.04
34.56
33.9
32.6
30.29
26.81
22.32
17.21
11.9
6.7
1.68
-3.29
-8.52
-14.37
-21.1
-28.76
-37.05
-45.22
-52.08
-56.31
-56.75
-52.83
-44.82
-33.76
-21.18
-8.68
2.48
11.62
18.57
23.55
26.91
28.96
29.99
30.21
29.89
29.33
28.8
28.53
28.6
28.95
29.37
29.6
29.38
28.53
26.92
24.52
21.37
17.58
13.29
8.7
3.98
-0.74
-5.44
-10.23
-15.36
-21.16
-27.91
-35.63
-43.87
-51.65
-57.59
-60.21
-58.43
-51.98
-41.51
-28.49
-14.73
-1.9
8.9
17.26
23.33
27.52
30.33
32.14
33.26
33.92
34.32
34.62
34.89
35.07
35.07
34.76
34.06
32.92
31.29
29.1
26.28
22.8
18.8
14.48
10.1
5.82
1.63
-2.67
-7.35
-12.74
-19.05
-26.42
-34.77
-43.68
-52.23
-59.1
-62.76
-61.96
-56.23
-46.13
-33.09
-18.97
-5.5
6.23
15.86
23.53
29.64
34.5
38.28
41.08
43.03
44.27
44.99
45.3
45.24
44.78
43.89
42.59
40.92
38.93
36.57
33.74
30.29
26.11
21.26
15.88
10.23
4.53
-1.11
-6.74
-12.53
-18.81
-25.91
-34.08
-43.29
-52.93
-61.8
-68.18
-70.37
-67.3
-59.03
-46.88
-32.93
-19.34
-7.55
1.98
9.64
16.15
21.98
27.2
31.55
34.79
36.93
38.3
39.28
40.13
40.79
41.03
40.6
39.45
37.72
35.61
33.26
30.54
27.19
22.85
17.38
10.89
3.79
-3.38
-10.15
-16.29
-21.89
-27.35
-33.19
-39.94
-47.87
-56.74
-65.62
-72.98
-77.05
-76.35
-70.33
-59.58
-45.69
-30.7
-16.4
-3.85
6.66
15.28
22.29
27.79
31.76
34.24
35.52
36.1
36.53
37.12
37.9
38.63
39.03
38.92
38.4
37.64
36.78
35.75
34.22
31.79
28.08
23.01
16.79
9.86
2.79
-3.99
-10.3
-16.2
-22.06
-28.35
-35.57
-43.88
-53.03
-62.09
-69.58
-73.83
-73.47
-67.96
-57.82
-44.44
-29.71
-15.35
-2.56
8.15
16.77
23.53
28.68
32.43
35.04
36.81
38.14
39.32
40.44
41.36
41.88
41.78
41.05
39.86
38.48
37.13
35.84
34.46
32.63
29.99
26.28
21.51
15.98
10.17
4.55
-0.64
-5.5
-10.42
-15.94
-22.49
-30.26
-38.99
-47.96
-55.99
-61.63
-63.46
-60.6
-53.01
-41.67
-28.3
-14.87
-2.98
6.56
13.72
18.99
22.96
25.99
28.22
29.58
30.14
30.09
29.81
29.65
29.77
30.12
30.42
30.38
29.75
28.47
26.61
24.26
21.47
18.21
14.43
10.15
5.5
0.69
-4.12
-8.9
-13.79
-19.1
-25.11
-31.91
-39.2
-46.17
-51.62
-54.19
-52.87
-47.27
-37.93
-26.1
-13.45
-1.57
8.45
16.16
21.68
25.42
27.78
29.02
29.25
28.53
27.04
25.15
23.3
21.9
21.1
20.75
20.48
19.85
18.56
16.5
13.78
10.59
7.11
3.47
-0.31
-4.22
-8.32
-12.72
-17.6
-23.25
-29.92
-37.66
-46.11
-54.31
-60.85
-64.2
-63.19
-57.5
-47.79
-35.61
-22.78
-10.86
-0.76
7.45
14.07
19.51
23.88
26.95
28.45
28.32
26.92
24.95
23.18
22.15
21.94
22.2
22.35
21.85
20.45
18.19
15.31
12.14
8.89
5.65
2.32
-1.29
-5.46
-10.45
-16.51
-23.74
-31.95
-40.49
-48.22
-53.7
-55.58
-53.05
-46.23
-36.03
-23.97
-11.61
-0.18
9.67
17.72
24
28.53
31.31
32.38
31.96
30.56
28.82
27.37
26.59
26.45
26.6
26.45
25.48
23.45
20.51
17.03
13.49
10.21
7.22
4.34
1.14
-2.83
-7.96
-14.44
-22.22
-30.92
-39.83
-47.86
-53.71
-56.12
-54.17
-47.65
-37.22
-24.38
-10.98
1.14
10.82
17.69
22.16
25.02
27.03
28.57
29.69
30.25
30.15
29.54
28.74
28.06
27.64
27.29
26.65
25.29
22.99
19.8
16.08
12.26
8.69
5.48
2.5
-0.55
-3.94
-7.93
-12.66
-18.3
-24.94
-32.55
-40.62
-48.18
-53.75
-55.82
-53.34
-46.2
-35.34
-22.43
-9.43
2.11
11.36
18.21
23.05
26.39
28.63
29.98
30.55
30.44
29.85
29.06
28.28
27.62
27.03
26.36
25.44
24.16
22.47
20.37
17.81
14.76
11.21
7.19
2.77
-1.93
-6.84
-11.91
-17.13
-22.58
-28.42
-34.83
-41.87
-49.21
-55.94
-60.69
-62
-58.8
-51.02
-39.61
-26.3
-12.99
-1.09
8.76
16.64
22.95
28.12
32.29
35.46
37.61
38.86
39.51
39.82
39.97
39.84
39.28
38.15
36.51
34.63
32.81
31.21
29.7
27.91
25.45
22.07
17.79
12.94
7.96
3.19
-1.22
-5.42
-9.76
-14.69
-20.57
-27.54
-35.33
-43.2
-50.03
-54.48
-55.45
-52.36
-45.42
-35.55
-24.08
-12.38
-1.49
8
15.92
22.25
27.06
30.42
32.42
33.35
33.6
33.6
33.74
34.16
34.74
35.16
35.07
34.29
32.89
31.16
29.41
27.81
26.33
24.69
22.55
19.68
16.03
11.79
7.3
2.94
-1.06
-4.68
-8.14
-11.81
-16.11
-21.32
-27.43
-34.03
-40.31
-45.26
-47.9
-47.54
-44.06
-37.88
-29.9
-21.17
-12.63
-4.87
1.85
7.53
12.27
16.1
19.07
21.24
22.77
23.91
24.9
25.88
26.84
27.62
28.05
28.01
27.54
26.72
25.67
24.41
22.9
20.99
18.58
15.66
12.38
8.93
5.52
2.23
-1.11
-4.91
-9.68
-15.84
-23.49
-32.21
-41.03
-48.6
-53.51
-54.74
-51.97
-45.67
-36.95
-27.14
-17.43
-8.63
-1.09
5.07
9.88
13.35
15.53
16.55
16.71
16.35
15.8
15.25
14.7
14.11
13.4
12.56
11.59
10.47
9.16
7.63
5.86
3.94
1.97
0.06
-1.82
-3.83
-6.2
-9.15
-12.81
-17.18
-22.19
-27.6
-33
-37.68
-40.71
-41.15
-38.37
-32.35
-23.81
-14
-4.33
4.06
10.61
15.3
18.45
20.39
21.31
21.29
20.37
18.67
16.51
14.27
12.35
10.98
10.18
9.8
9.58
9.19
8.4
7.07
5.22
2.99
0.59
-1.8
-4.17
-6.63
-9.43
-12.81
-16.92
-21.8
-27.3
-33.06
-38.45
-42.58
-44.49
-43.35
-38.89
-31.54
-22.35
-12.69
-3.75
3.72
9.55
13.94
17.16
19.42
20.8
21.32
21.13
20.46
19.6
18.77
18.06
17.44
16.8
16.01
14.93
13.52
11.79
9.87
7.89
5.92
3.87
1.47
-1.73
-6.11
-11.89
-18.96
-26.94
-35.24
-43.2
-50.08
-55.08
-57.44
-56.54
-52.23
-44.89
-35.53
-25.43
-15.84
-7.57
-0.87
4.45
8.75
12.3
15.17
17.22
18.33
18.52
17.98
17.04
16.06
15.21
14.49
13.74
12.74
11.36
9.59
7.5
5.17
2.61
-0.2
-3.34
-6.83
-10.6
-14.56
-18.65
-22.96
-27.6
-32.61
-37.71
-42.2
-45.03
-45.13
-41.79
-34.97
-25.36
-14.19
-2.91
7.27
15.58
21.75
25.91
28.38
29.56
29.77
29.33
28.46
27.39
26.26
25.17
24.12
23.09
21.98
20.73
19.33
17.76
15.97
13.87
11.33
8.22
4.57
0.56
-3.56
-7.48
-11.1
-14.5
-18
-22.02
-26.94
-32.84
-39.34
-45.5
-49.98
-51.44
-48.99
-42.58
-33.09
-21.98
-10.81
-0.75
7.67
14.48
19.89
24.15
27.32
29.39
30.46
30.77
30.69
30.55
30.53
30.61
30.62
30.35
29.75
28.92
28.11
27.52
27.15
26.76
25.87
24.09
21.22
17.45
13.24
9.16
5.61
2.66
0.06
-2.68
-6.03
-10.28
-15.43
-21.07
-26.39
-30.28
-31.56
-29.36
-23.51
-14.66
-4.3
5.8
14.01
19.41
21.94
22.16
20.87
18.72
16.03
12.98
9.77
6.78
4.56
3.53
3.81
5.07
6.72
8.15
9.04
9.39
9.41
9.3
9.06
8.43
7.06
4.71
1.48
-2.22
-5.81
-8.84
-11.25
-13.37
-15.82
-19.12
-23.53
-28.9
-34.75
-40.4
-45.06
-47.92
-48.2
-45.36
-39.31
-30.59
-20.34
-9.99
-0.77
6.58
11.97
15.75
18.38
20.24
21.5
22.26
22.64
22.83
22.99
23.18
23.37
23.43
23.25
22.8
22.05
20.98
19.58
17.85
15.9
13.89
11.97
10.22
8.55
6.78
4.66
2.04
-1.11
-4.69
-8.57
-12.61
-16.72
-20.65
-24.03
-26.27
-26.82
-25.34
-21.89
-16.98
-11.42
-5.98
-1.17
2.79
5.93
8.25
9.68
10.11
9.54
8.16
6.38
4.61
3.2
2.25
1.72
1.44
1.19
0.74
-0.14
-1.62
-3.75
-6.41
-9.34
-12.28
-15.03
-17.52
-19.83
-22.07
-24.39
-26.91
-29.73
-32.82
-36
-38.82
-40.58
-40.48
-37.95
-32.86
-25.66
-17.35
-9.09
-1.91
3.68
7.65
10.39
12.37
13.84
14.81
15.08
14.51
13.2
11.47
9.79
8.48
7.69
7.26
6.92
6.36
5.42
4.02
2.24
0.15
-2.1
-4.35
-6.46
-8.33
-10.04
-11.9
-14.4
-17.99
-22.86
-28.72
-34.65
-39.39
-41.55
-40.2
-35.06
-26.7
-16.35
-5.5
4.43
12.51
18.25
21.64
22.89
22.31
20.25
17.08
13.33
9.58
6.44
4.38
3.59
3.9
4.89
6
6.77
6.94
6.46
5.45
4.06
2.36
0.31
-2.16
-5.11
-8.58
-12.55
-17.1
-22.34
-28.28
-34.61
-40.57
-44.98
-46.56
-44.34
-38.13
-28.63
-17.3
-5.84
4.34
12.45
18.4
22.53
25.31
27.09
28.04
28.22
27.8
26.97
26.02
25.19
24.56
24.03
23.45
22.63
21.44
19.85
17.85
15.5
12.89
10.07
7.08
3.91
0.51
-3.18
-7.22
-11.66
-16.57
-22.08
-28.27
-35.04
-41.9
-47.87
-51.66
-52.02
-48.27
-40.64
-30.2
-18.56
-7.26
2.64
10.74
17.1
21.99
25.61
28.03
29.33
29.68
29.41
28.86
28.35
28
27.77
27.54
27.17
26.55
25.65
24.43
22.85
20.88
18.48
15.67
12.47
8.94
5.13
1.08
-3.19
-7.69
-12.55
-17.94
-24.03
-30.88
-38.21
-45.3
-51.02
-54.08
-53.43
-48.68
-40.32
-29.56
-17.97
-6.99
2.5
10.22
16.29
21.03
24.62
27.16
28.72
29.45
29.61
29.52
29.4
29.34
29.29
29.14
28.84
28.36
27.73
26.89
25.73
24.07
21.77
18.77
15.14
11.03
6.61
2.04
-2.62
-7.38
-12.39
-17.93
-24.28
-31.54
-39.4
-47.07
-53.23
-56.44
-55.59
-50.36
-41.37
-30.01
-17.93
-6.58
3.17
11
17.05
21.54
24.72
26.78
27.91
28.4
28.59
28.74
28.98
29.3
29.57
29.65
29.46
29.03
28.39
27.53
26.33
24.55
22.02
18.62
14.45
9.74
4.8
-0.05
-4.67
-9.04
-13.32
-17.82
-22.87
-28.71
-35.29
-42.13
-48.24
-52.35
-53.28
-50.36
-43.73
-34.32
-23.51
-12.69
-2.87
5.47
12.24
17.58
21.62
24.42
26.07
26.76
26.79
26.49
26.23
26.22
26.58
27.24
28.03
28.67
28.85
28.3
26.84
24.46
21.3
17.54
13.39
9.03
4.56
0.08
-4.38
-8.84
-13.46
-18.5
-24.24
-30.78
-37.85
-44.64
-49.92
-52.33
-50.79
-44.96
-35.39
-23.42
-10.74
1.12
11.15
19
24.77
28.84
31.54
33.14
33.81
33.85
33.57
33.33
33.35
33.63
33.95
33.99
33.48
32.32
30.69
28.82
26.91
24.97
22.73
19.83
15.98
11.17
5.68
0.02
-5.3
-9.99
-14.09
-17.98
-22.23
-27.37
-33.64
-40.9
-48.45
-55.17
-59.73
-60.93
-58.11
-51.34
-41.46
-29.85
-17.92
-6.83
2.77
10.64
16.83
21.49
24.77
26.85
28
28.58
28.96
29.39
29.94
30.48
30.78
30.64
29.99
28.9
27.53
26.04
24.5
22.8
20.73
17.98
14.38
9.94
4.94
-0.22
-5.16
-9.67
-13.85
-18.05
-22.76
-28.41
-35.11
-42.58
-50.02
-56.21
-59.79
-59.63
-55.24
-47.02
-36.2
-24.38
-13.14
-3.49
4.21
10.13
14.69
18.23
20.95
22.91
24.15
24.74
24.85
24.62
24.16
23.54
22.77
21.85
20.69
19.23
17.37
15.07
12.32
9.16
5.62
1.78
-2.29
-6.54
-10.93
-15.5
-20.32
-25.56
-31.34
-37.65
-44.13
-49.97
-54.05
-55.17
-52.51
-45.95
-36.23
-24.74
-13.11
-2.69
5.79
12.16
16.7
19.8
21.75
22.72
22.8
22.11
20.92
19.54
18.32
17.48
17.02
16.76
16.38
15.47
13.8
11.26
7.99
4.2
0.16
-3.94
-8.04
-12.2
-16.62
-21.53
-27.19
-33.76
-41.13
-48.84
-56.04
-61.55
-64.14
-62.9
-57.55
-48.59
-37.16
-24.73
-12.68
-2
6.82
13.72
18.83
22.33
24.35
25.04
24.69
23.68
22.49
21.54
21.04
20.96
21.04
20.91
20.25
18.89
16.83
14.28
11.5
8.72
5.98
3.14
-0.09
-4.07
-9.05
-15.19
-22.46
-30.63
-39.19
-47.36
-53.96
-57.71
-57.51
-52.85
-44.13
-32.56
-19.83
-7.55
3.18
11.95
18.86
24.27
28.5
31.69
33.85
35.02
35.29
34.96
34.4
33.98
33.89
34.11
34.37
34.27
33.46
31.75
29.13
25.77
21.83
17.44
12.65
7.5
2.1
-3.43
-9.13
-15.2
-22.06
-30.06
-39.13
-48.47
-56.6
-61.69
-62.2
-57.45
-47.92
-35.03
-20.66
-6.58
5.99
16.38
24.44
30.25
34.02
36.06
36.82
36.86
36.79
36.99
37.58
38.35
38.95
39.09
38.69
37.83
36.66
35.26
33.49
31.13
27.98
24.03
19.47
14.57
9.51
4.33
-1.12
-7.1
-13.82
-21.49
-30.18
-39.72
-49.49
-58.34
-64.73
-67.12
-64.53
-56.89
-45.25
-31.33
-17.04
-3.85
7.51
16.92
24.62
30.85
35.72
39.21
41.43
42.66
43.35
44.02
44.94
46.14
47.36
48.19
48.3
47.59
46.23
44.5
42.72
40.95
39.06
36.64
33.27
28.71
23.02
16.56
9.88
3.46
-2.49
-8.11
-13.83
-20.23
-27.82
-36.85
-47.19
-58.13
-68.42
-76.43
-80.48
-79.39
-72.87
-61.67
-47.44
-32.13
-17.44
-4.39
6.72
16.06
23.92
30.39
35.42
38.96
41.11
42.3
43.12
44.09
45.51
47.29
49.06
50.33
50.78
50.29
49.05
47.35
45.49
43.59
41.56
39.09
35.84
31.5
26.04
19.72
12.95
6.23
-0.14
-6.14
-12
-18.11
-24.87
-32.54
-41.19
-50.59
-60.19
-68.99
-75.7
-78.91
-77.56
-71.29
-60.74
-47.27
-32.66
-18.51
-5.83
4.98
14.03
21.51
27.55
32.13
35.25
37.1
38.11
38.89
39.93
41.41
43.11
44.54
45.22
44.87
43.6
41.78
39.82
37.92
36.01
33.7
30.57
26.3
20.88
14.62
8.01
1.59
-4.29
-9.54
-14.33
-19.07
-24.22
-30.28
-37.51
-45.86
-54.73
-63.03
-69.2
-71.72
-69.5
-62.38
-51.19
-37.49
-23.09
-9.53
2.27
11.97
19.59
25.26
29.14
31.42
32.46
32.79
32.95
33.3
33.93
34.58
34.9
34.64
33.78
32.56
31.26
30.08
28.96
27.64
25.76
23
19.23
14.52
9.2
3.64
-1.77
-6.86
-11.66
-16.46
-21.74
-27.95
-35.26
-43.31
-51.09
-57.12
-59.87
-58.28
-52.18
-42.38
-30.39
-17.88
-6.27
3.62
11.5
17.43
21.56
24.06
25.1
24.93
23.9
22.43
20.96
19.8
19.15
18.98
19.15
19.42
19.51
19.19
18.27
16.66
14.35
11.42
8
4.24
0.27
-3.85
-8.09
-12.55
-17.31
-22.58
-28.52
-35.19
-42.31
-49.1
-54.32
-56.52
-54.55
-48.12
-37.96
-25.7
-13.26
-2.25
6.48
12.87
17.33
20.34
22.18
22.97
22.75
21.73
20.28
18.84
17.76
17.2
17.04
17.02
16.82
16.13
14.8
12.83
10.37
7.64
4.83
1.98
-1.03
-4.38
-8.28
-12.81
-17.99
-23.87
-30.43
-37.45
-44.38
-50.19
-53.5
-53.08
-48.34
-39.66
-28.39
-16.26
-4.92
4.66
12.21
18
22.36
25.5
27.44
28.18
27.88
26.93
25.89
25.17
24.97
25.16
25.43
25.44
24.95
23.87
22.17
19.9
17.1
13.8
10.07
6.05
1.89
-2.34
-6.66
-11.25
-16.35
-22.21
-29
-36.62
-44.55
-51.83
-57.14
-59.1
-56.79
-50.1
-39.85
-27.59
-15.09
-3.8
5.53
12.78
18.3
22.49
25.62
27.78
28.99
29.35
29.09
28.49
27.82
27.25
26.76
26.28
25.66
24.79
23.58
21.97
19.9
17.34
14.31
10.87
7.14
3.24
-0.75
-4.81
-8.99
-13.48
-18.53
-24.45
-31.47
-39.44
-47.65
-54.78
-59.21
-59.55
-55.18
-46.5
-34.83
-21.96
-9.5
1.5
10.62
17.89
23.51
27.66
30.48
32.12
32.83
32.94
32.79
32.67
32.8
33.23
33.88
34.55
34.9
34.64
33.61
31.88
29.71
27.46
25.34
23.35
21.23
18.6
15.19
10.9
5.87
0.44
-5.06
-10.38
-15.45
-20.32
-25.17
-30.22
-35.75
-42.02
-49.11
-56.74
-64.14
-70.02
-72.89
-71.56
-65.58
-55.53
-42.85
-29.32
-16.56
-5.55
3.43
10.61
16.38
21.03
24.68
27.36
29.19
30.42
31.41
32.5
33.86
35.46
37.04
38.3
38.98
39.01
38.48
37.6
36.59
35.55
34.45
33.05
31.11
28.34
24.61
19.94
14.56
8.8
2.98
-2.67
-8.15
-13.56
-19.07
-24.84
-30.96
-37.43
-44.23
-51.23
-58.04
-63.97
-67.98
-68.93
-65.96
-58.88
-48.38
-35.85
-22.97
-11.14
-1.2
6.73
12.98
17.94
21.87
24.82
26.75
27.72
28.07
28.21
28.53
29.17
29.94
30.46
30.31
29.33
27.64
25.6
23.61
21.88
20.37
18.78
16.73
13.92
10.22
5.78
0.88
-4.1
-8.79
-12.97
-16.61
-19.84
-22.96
-26.33
-30.32
-35.21
-41.08
-47.62
-54.1
-59.39
-62.2
-61.45
-56.68
-48.22
-37.16
-24.96
-13.07
-2.5
6.24
13.08
18.18
21.69
23.72
24.4
24
22.93
21.71
20.81
20.49
20.69
21.15
21.5
21.45
20.96
20.11
19.06
17.88
16.45
14.56
12.04
8.82
5.05
1.08
-2.72
-6.1
-9.07
-11.9
-15.04
-18.95
-23.96
-30.15
-37.17
-44.32
-50.55
-54.61
-55.39
-52.2
-45.1
-34.93
-23.15
-11.34
-0.81
7.68
14.01
18.39
21.22
22.75
23.21
22.76
21.69
20.35
19.08
18.18
17.71
17.61
17.67
17.71
17.56
17.08
16.15
14.72
12.76
10.3
7.4
4.15
0.56
-3.36
-7.62
-12.21
-17.15
-22.49
-28.4
-35.01
-42.26
-49.64
-56.05
-60.05
-60.28
-56
-47.5
-36.03
-23.37
-11.29
-0.99
7.01
12.79
16.71
19.11
20.32
20.56
20.1
19.24
18.31
17.62
17.36
17.57
18.16
18.87
19.35
19.29
18.48
16.86
14.49
11.48
7.95
3.95
-0.42
-5.06
-9.86
-14.82
-20.14
-26.15
-33.12
-40.97
-49.03
-55.97
-60.12
-60.08
-55.2
-45.92
-33.63
-20.19
-7.33
3.81
12.83
19.82
25.11
29
31.65
33.16
33.7
33.52
32.98
32.39
31.91
31.55
31.21
30.79
30.17
29.29
28.07
26.39
24.07
20.97
17.02
12.3
7.02
1.41
-4.35
-10.24
-16.38
-23
-30.38
-38.68
-47.76
-56.98
-65.12
-70.56
-71.75
-67.75
-58.66
-45.69
-30.77
-15.96
-2.82
7.88
16.11
22.27
26.84
30.18
32.56
34.18
35.26
35.99
36.48
36.76
36.79
36.55
36.08
35.43
34.7
33.85
32.72
31.08
28.69
25.4
21.22
16.32
10.95
5.36
-0.32
-6.12
-12.3
-19.18
-27.15
-36.35
-46.44
-56.49
-64.94
-69.97
-70.08
-64.6
-54.06
-40.01
-24.56
-9.68
3.32
13.89
22.13
28.38
32.97
36.17
38.25
39.57
40.52
41.46
42.5
43.55
44.31
44.51
44.01
42.96
41.7
40.58
39.74
39.02
37.91
35.79
32.17
26.95
20.44
13.26
6
-0.98
-7.66
-14.32
-21.4
-29.33
-38.4
-48.58
-59.32
-69.42
-77.17
-80.8
-79.05
-71.71
-59.73
-44.91
-29.29
-14.5
-1.43
9.67
18.89
26.35
32.1
36.2
38.82
40.36
41.33
42.21
43.24
44.38
45.34
45.83
45.65
44.85
43.68
42.42
41.21
39.92
38.15
35.45
31.51
26.33
20.25
13.74
7.21
0.83
-5.49
-12.04
-19.21
-27.37
-36.7
-47.01
-57.58
-67.11
-73.83
-76.04
-72.7
-63.86
-50.72
-35.29
-19.72
-5.63
6.16
15.61
23.04
28.86
33.33
36.56
38.69
39.97
40.69
41.09
41.28
41.22
40.78
39.96
38.88
37.78
36.86
36.13
35.33
34.02
31.75
28.24
23.5
17.82
11.63
5.32
-0.91
-7.09
-13.48
-20.44
-28.35
-37.4
-47.38
-57.45
-66.19
-71.79
-72.68
-68.05
-58.29
-44.89
-29.95
-15.51
-2.95
7.21
15.12
21.16
25.63
28.6
30.1
30.25
29.39
28.03
26.71
25.77
25.33
25.3
25.42
25.41
24.98
23.96
22.27
19.89
16.93
13.48
9.62
5.38
0.65
-4.71
-10.86
-17.98
-26.12
-35.07
-44.22
-52.45
-58.29
-60.33
-57.62
-50.11
-38.81
-25.42
-11.84
0.41
10.55
18.45
24.37
28.62
31.32
32.46
32.12
30.59
28.42
26.23
24.52
23.49
23.02
22.78
22.38
21.51
20.04
17.89
15.16
11.97
8.44
4.65
0.55
-3.97
-9.09
-14.95
-21.73
-29.47
-38.05
-46.98
-55.3
-61.6
-64.3
-62.2
-54.99
-43.45
-29.25
-14.46
-0.86
10.42
18.99
25.03
28.92
31.03
31.71
31.31
30.25
28.94
27.75
26.9
26.45
26.32
26.35
26.32
26.03
25.24
23.79
21.57
18.57
14.87
10.62
6.02
1.2
-3.8
-9.03
-14.66
-20.94
-28.14
-36.4
-45.51
-54.72
-62.7
-67.77
-68.41
-63.8
-54.22
-41.08
-26.42
-12.3
-0.09
9.69
17.25
23.11
27.64
30.96
32.99
33.77
33.53
32.74
31.93
31.46
31.37
31.43
31.27
30.58
29.2
27.18
24.61
21.62
18.3
14.62
10.56
6.11
1.32
-3.74
-8.98
-14.38
-20.07
-26.32
-33.41
-41.34
-49.58
-56.98
-61.95
-62.95
-59.09
-50.56
-38.6
-25.08
-11.9
-0.37
8.97
16.26
21.91
26.32
29.7
32.17
33.85
34.95
35.69
36.26
36.65
36.71
36.29
35.34
33.99
32.49
31.08
29.82
28.58
27
24.76
21.67
17.79
13.44
9.07
5.04
1.5
-1.7
-5.01
-9.04
-14.33
-21.06
-28.87
-36.7
-43.01
-46.24
-45.32
-40.12
-31.49
-21.01
-10.36
-0.81
7.11
13.53
18.82
23.34
27.08
29.85
31.43
31.84
31.39
30.54
29.64
28.79
27.86
26.63
25.02
23.15
21.28
19.64
18.2
16.72
14.84
12.25
8.88
4.9
0.62
-3.64
-7.65
-11.36
-14.97
-18.87
-23.52
-29.15
-35.53
-41.82
-46.67
-48.68
-46.89
-41.15
-32.23
-21.5
-10.42
-0.15
8.66
15.81
21.32
25.24
27.66
28.68
28.57
27.71
26.57
25.51
24.77
24.38
24.31
24.49
24.84
25.22
25.45
25.23
24.28
22.42
19.64
16.09
12.08
7.91
3.84
-0.02
-3.71
-7.42
-11.42
-16.03
-21.39
-27.31
-33.15
-37.84
-40.09
-38.9
-33.87
-25.48
-14.98
-3.98
6.09
14.38
20.69
25.33
28.72
31.2
32.89
33.79
33.92
33.46
32.7
31.96
31.47
31.31
31.38
31.48
31.33
30.68
29.27
26.87
23.26
18.23
11.71
3.86
-4.8
-13.55
-21.62
-28.41
-33.78
-38.07
-41.92
-45.96
-50.41
-54.9
-58.46
-59.93
-58.39
-53.52
-45.8
-36.29
-26.32
-17.02
-9.13
-2.87
1.83
5.15
7.31
8.5
8.99
9.09
9.12
9.31
9.66
10.02
10.1
9.72
8.82
7.6
6.28
5.09
4.02
2.82
1.12
-1.42
-4.89
-9.09
-13.54
-17.72
-21.23
-23.94
-26.01
-27.82
-29.88
-32.52
-35.67
-38.64
-40.06
-38.15
-31.21
-18.28
0.31
22.86
46.54
68.05
84.39
93.43
94.27
87.24
73.73
55.9
36.2
17
0.24
-12.85
-21.83
-26.83
-28.45
-27.45
-24.65
-20.83
-16.73
-13
-10.13
-8.45
-8.06
-8.87
-10.58
-12.86
-15.37
-17.87
-20.2
-22.33
-24.33
-26.4
-28.84
-31.93
-35.72
-39.94
-43.81
-46.26
-46.22
-43
-36.65
-27.97
-18.23
-8.76
-0.58
5.84
10.57
13.9
16.22
17.82
18.82
19.3
19.35
19.08
18.66
18.25
17.95
17.76
17.59
17.3
16.79
16.01
14.96
13.68
12.11
10.18
7.78
4.9
1.69
-1.6
-4.68
-7.38
-9.78
-12.12
-14.86
-18.38
-22.86
-28.07
-33.31
-37.53
-39.61
-38.71
-34.63
-27.92
-19.71
-11.35
-3.96
1.88
6.19
9.32
11.67
13.45
14.67
15.25
15.19
14.68
14.01
13.43
13.06
12.83
12.56
12.15
11.59
10.96
10.37
9.8
9.09
8.01
6.33
4.02
1.19
-1.87
-4.87
-7.61
-10.06
-12.39
-14.89
-17.95
-21.83
-26.62
-32
-37.23
-41.22
-42.9
-41.48
-36.86
-29.66
-20.96
-12.01
-3.81
3.05
8.38
12.2
14.66
15.87
15.97
15.19
13.84
12.32
10.93
9.9
9.24
8.85
8.58
8.3
7.98
7.62
7.22
6.71
5.95
4.82
3.24
1.33
-0.66
-2.5
-4.05
-5.42
-6.93
-8.94
-11.74
-15.47
-19.98
-24.92
-29.73
-33.63
-35.8
-35.53
-32.47
-26.81
-19.38
-11.34
-3.9
2.16
6.58
9.63
11.68
12.99
13.63
13.47
12.58
11.17
9.72
8.64
8.18
8.27
8.58
8.79
8.62
8
6.92
5.45
3.62
1.47
-0.89
-3.36
-5.79
-8.16
-10.51
-13.01
-15.87
-19.28
-23.3
-27.77
-32.25
-35.97
-38.05
-37.71
-34.59
-28.97
-21.61
-13.64
-6.07
0.4
5.52
9.38
12.16
14.02
14.97
15
14.19
12.79
11.22
9.94
9.26
9.25
9.67
10.07
10.03
9.28
7.85
5.97
3.9
1.84
-0.18
-2.24
-4.44
-6.89
-9.65
-12.83
-16.58
-20.97
-25.9
-30.92
-35.22
-37.79
-37.71
-34.52
-28.44
-20.29
-11.31
-2.75
4.48
9.96
13.72
16.08
17.45
18.13
18.3
18.02
17.33
16.26
14.92
13.5
12.21
11.2
10.45
9.81
9
7.78
6.04
3.87
1.47
-0.97
-3.32
-5.62
-8.01
-10.71
-13.92
-17.79
-22.31
-27.23
-32.04
-35.9
-37.92
-37.32
-33.77
-27.52
-19.38
-10.42
-1.74
5.84
11.9
16.4
19.54
21.56
22.69
23.05
22.78
22.02
20.95
19.82
18.81
18
17.39
16.83
16.13
15.12
13.72
11.92
9.77
7.31
4.57
1.56
-1.68
-5.07
-8.51
-11.96
-15.55
-19.52
-24.17
-29.54
-35.26
-40.44
-43.93
-44.61
-41.92
-35.98
-27.62
-18.02
-8.39
0.36
7.73
13.59
18.03
21.23
23.39
24.71
25.38
25.62
25.57
25.37
25.1
24.79
24.46
24.09
23.6
22.86
21.7
19.97
17.65
14.83
11.72
8.51
5.34
2.2
-1.01
-4.42
-8.11
-12.16
-16.6
-21.53
-26.97
-32.7
-38.11
-42.21
-43.88
-42.28
-37.24
-29.35
-19.8
-9.88
-0.6
7.53
14.4
20.09
24.58
27.75
29.5
29.93
29.43
28.57
27.9
27.71
27.95
28.29
28.34
27.87
26.88
25.56
24.16
22.8
21.39
19.66
17.34
14.3
10.64
6.69
2.86
-0.56
-3.57
-6.45
-9.67
-13.76
-19
-25.33
-32.3
-39.03
-44.42
-47.37
-47.04
-43.18
-36.19
-27.03
-16.92
-7.03
1.84
9.28
15.28
19.96
23.41
25.71
26.94
27.32
27.22
27.04
27.02
27.19
27.35
27.19
26.55
25.45
24.1
22.8
21.75
20.93
20.15
19.12
17.5
15.08
11.8
7.79
3.4
-0.92
-4.8
-8.15
-11.18
-14.38
-18.28
-23.24
-29.17
-35.52
-41.33
-45.46
-46.91
-45.06
-39.86
-31.86
-22.08
-11.72
-1.82
6.85
13.97
19.43
23.29
25.65
26.68
26.64
25.93
25.02
24.28
23.9
23.84
23.92
23.92
23.76
23.45
23.11
22.79
22.43
21.83
20.71
18.83
16.12
12.64
8.62
4.34
0.05
-4.1
-8.05
-11.9
-15.84
-20.18
-25.14
-30.81
-36.89
-42.63
-46.86
-48.33
-46.12
-40.03
-30.72
-19.54
-8.13
2.09
10.29
16.25
20.22
22.64
23.88
24.22
23.91
23.19
22.41
21.88
21.78
22.06
22.5
22.82
22.84
22.55
22.03
21.39
20.62
19.52
17.77
15.12
11.52
7.18
2.54
-1.95
-5.95
-9.46
-12.72
-16.14
-20.16
-25.08
-30.86
-37.07
-42.9
-47.26
-49.05
-47.47
-42.32
-34.1
-23.91
-13.07
-2.81
6.11
13.36
18.94
23.02
25.73
27.21
27.7
27.51
27.1
26.84
26.93
27.3
27.65
27.67
27.19
26.31
25.3
24.39
23.69
23.04
22.05
20.3
17.52
13.69
9.08
4.14
-0.66
-4.96
-8.63
-11.85
-15.02
-18.73
-23.5
-29.59
-36.77
-44.23
-50.71
-54.81
-55.38
-51.92
-44.78
-35.01
-24.03
-13.2
-3.45
4.81
11.6
17.08
21.41
24.61
26.61
27.48
27.45
26.98
26.58
26.63
27.2
28.02
28.6
28.54
27.68
26.21
24.57
23.14
22.04
21.04
19.65
17.44
14.23
10.19
5.72
1.29
-2.81
-6.5
-9.86
-13.11
-16.49
-20.29
-24.81
-30.25
-36.59
-43.35
-49.6
-54.1
-55.65
-53.53
-47.75
-39.02
-28.58
-17.7
-7.43
1.58
9.08
15.05
19.58
22.8
24.85
25.94
26.34
26.41
26.44
26.68
27.16
27.77
28.25
28.32
27.8
26.68
25.16
23.51
21.96
20.58
19.21
17.6
15.46
12.63
9.1
5.09
0.89
-3.2
-6.97
-10.44
-13.81
-17.45
-21.75
-27.08
-33.55
-40.9
-48.37
-54.82
-58.92
-59.54
-56.11
-48.86
-38.78
-27.3
-15.86
-5.55
3.1
10.01
15.37
19.36
22.1
23.72
24.42
24.59
24.68
25.03
25.83
26.96
28.09
28.9
29.12
28.68
27.72
26.45
25.07
23.66
22.08
20.02
17.16
13.31
8.57
3.38
-1.66
-6.03
-9.49
-12.25
-14.81
-17.81
-21.71
-26.73
-32.73
-39.23
-45.49
-50.57
-53.5
-53.48
-50.09
-43.54
-34.61
-24.44
-14.21
-4.86
3.13
9.58
14.55
18.12
20.37
21.43
21.53
21.05
20.4
19.92
19.76
19.87
20.08
20.24
20.29
20.27
20.19
20
19.53
18.5
16.62
13.79
10.12
5.89
1.51
-2.69
-6.58
-10.21
-13.83
-17.79
-22.41
-27.84
-33.98
-40.29
-45.79
-49.26
-49.54
-45.96
-38.68
-28.71
-17.59
-6.93
2.14
9.12
14.05
17.25
19.04
19.62
19.19
18.03
16.57
15.29
14.58
14.51
14.91
15.41
15.72
15.68
15.27
14.56
13.52
12.09
10.15
7.65
4.66
1.33
-2.13
-5.62
-9.15
-12.86
-17.01
-21.88
-27.63
-34.16
-41.04
-47.38
-52.03
-53.76
-51.72
-45.77
-36.53
-25.27
-13.55
-2.64
6.7
14.28
20.21
24.65
27.57
28.83
28.37
26.43
23.63
20.75
18.5
17.24
16.93
17.25
17.77
18.13
18.09
17.55
16.47
14.81
12.53
9.64
6.17
2.21
-2.07
-6.46
-10.9
-15.51
-20.63
-26.71
-33.97
-42.14
-50.24
-56.81
-60.26
-59.44
-54.1
-44.87
-33.13
-20.52
-8.49
2
10.55
17.19
22.16
25.78
28.37
30.17
31.36
32.08
32.43
32.51
32.36
32.08
31.71
31.29
30.78
30.05
28.88
27.03
24.27
20.49
15.79
10.43
4.86
-0.54
-5.51
-10.04
-14.38
-18.92
-24.14
-30.38
-37.68
-45.64
-53.3
-59.32
-62.26
-61.03
-55.31
-45.67
-33.4
-20.12
-7.28
4.19
13.88
21.76
27.92
32.49
35.61
37.53
38.66
39.52
40.48
41.68
42.9
43.72
43.74
42.87
41.35
39.65
38.2
37.11
36.09
34.52
31.76
27.43
21.64
14.98
8.28
2.32
-2.48
-6.25
-9.61
-13.48
-18.73
-25.85
-34.57
-43.82
-51.84
-56.65
-56.57
-50.79
-39.71
-25.03
-9.4
4.34
13.98
18.74
19.51
18.47
18.22
20.77
26.87
35.9
46.35
56.58
65.38
72.18
76.81
79.22
79.28
76.9
72.28
66.07
59.27
52.9
47.62
43.46
39.86
35.93
30.88
24.32
16.43
7.79
-0.83
-8.8
-15.82
-21.98
-27.65
-33.39
-39.77
-47.21
-55.81
-65.11
-74.08
-81.21
-84.89
-83.89
-77.92
-67.73
-54.9
-41.29
-28.44
-17.18
-7.6
0.61
7.75
13.9
18.84
22.3
24.27
25.08
25.32
25.63
26.43
27.81
29.62
31.58
33.39
34.79
35.5
35.29
33.92
31.31
27.58
23.1
18.31
13.67
9.46
5.72
2.28
-1.22
-5.27
-10.33
-16.77
-24.79
-34.29
-44.87
-55.69
-65.58
-73.12
-76.93
-76
-70.03
-59.58
-45.96
-30.9
-16.11
-2.87
8.14
16.81
23.4
28.31
31.92
34.55
36.44
37.8
38.84
39.69
40.38
40.86
41.02
40.76
40.08
39.06
37.81
36.4
34.77
32.78
30.25
27.05
23.13
18.58
13.56
8.3
3.01
-2.15
-7.18
-12.24
-17.64
-23.68
-30.5
-37.71
-44.38
-49.14
-50.62
-47.94
-41.12
-31.14
-19.54
-7.96
2.36
10.82
17.37
22.2
25.49
27.34
27.86
27.3
26.08
24.7
23.53
22.73
22.22
21.8
21.36
20.87
20.4
19.89
19.16
17.85
15.62
12.31
8.07
3.28
-1.57
-6.13
-10.29
-14.18
-18.1
-22.41
-27.37
-33.08
-39.3
-45.33
-50.1
-52.34
-51.01
-45.7
-36.9
-25.89
-14.33
-3.72
5.04
11.77
16.74
20.43
23.13
24.94
25.86
25.99
25.56
24.92
24.4
24.12
24.01
23.87
23.47
22.73
21.67
20.34
18.77
16.89
14.53
11.55
7.89
3.63
-0.97
-5.58
-9.96
-14.04
-18.03
-22.3
-27.29
-33.16
-39.63
-45.9
-50.76
-52.96
-51.62
-46.55
-38.35
-28.2
-17.48
-7.38
1.38
8.55
14.16
18.37
21.27
22.96
23.61
23.54
23.17
22.93
23.06
23.5
23.95
24.06
23.57
22.5
21.04
19.47
17.93
16.36
14.49
12.02
8.74
4.63
-0.04
-4.88
-9.48
-13.56
-17.05
-20.18
-23.39
-27.22
-32.09
-38.11
-44.84
-51.29
-56.12
-57.98
-56.03
-50.18
-41.17
-30.34
-19.18
-8.89
-0.15
6.88
12.43
16.79
20.22
22.87
24.81
26.13
26.99
27.53
27.88
28.1
28.14
27.89
27.22
26.09
24.6
22.92
21.29
19.82
18.43
16.87
14.79
11.93
8.24
3.89
-0.71
-5.12
-9.01
-12.28
-15.02
-17.55
-20.26
-23.57
-27.73
-32.86
-38.75
-44.87
-50.28
-53.84
-54.49
-51.6
-45.23
-36.2
-25.79
-15.39
-6.02
1.87
8.32
13.6
17.94
21.39
23.85
25.25
25.69
25.51
25.13
24.91
25.02
25.37
25.71
25.73
25.3
24.38
23.16
21.83
20.52
19.25
17.9
16.26
14.13
11.41
8.12
4.45
0.65
-3
-6.35
-9.37
-12.25
-15.26
-18.69
-22.81
-27.84
-33.78
-40.35
-46.85
-52.2
-55.12
-54.55
-50.03
-41.98
-31.58
-20.39
-9.81
-0.72
6.62
12.4
16.87
20.21
22.45
23.6
23.84
23.52
23.04
22.77
22.93
23.48
24.27
25.02
25.46
25.38
24.69
23.45
21.85
20.15
18.54
17.04
15.49
13.61
11.17
8.06
4.39
0.41
-3.62
-7.46
-11.04
-14.34
-17.44
-20.47
-23.69
-27.4
-31.92
-37.3
-43.16
-48.56
-52.16
-52.71
-49.45
-42.52
-32.94
-22.21
-11.86
-2.96
4.03
9.21
12.9
15.43
17.01
17.77
17.89
17.65
17.42
17.53
18.1
19.02
19.94
20.47
20.38
19.68
18.62
17.57
16.71
15.99
15.1
13.62
11.22
7.83
3.69
-0.74
-4.91
-8.42
-11.09
-13.05
-14.69
-16.54
-19.21
-23.09
-28.21
-34.09
-39.71
-43.73
-44.9
-42.47
-36.49
-27.81
-17.8
-7.92
0.73
7.57
12.5
15.72
17.49
18.11
17.83
16.97
15.91
14.96
14.32
14
13.89
13.82
13.72
13.6
13.53
13.58
13.65
13.56
12.99
11.66
9.36
6.13
2.19
-2.06
-6.2
-9.95
-13.25
-16.39
-19.76
-23.83
-28.78
-34.41
-40.05
-44.65
-47.06
-46.32
-42.1
-34.75
-25.31
-15.15
-5.57
2.53
8.81
13.39
16.55
18.57
19.55
19.51
18.53
16.86
14.91
13.12
11.81
11.07
10.77
10.64
10.43
10.03
9.34
8.35
6.98
5.16
2.83
0.02
-3.13
-6.39
-9.59
-12.68
-15.79
-19.22
-23.33
-28.36
-34.27
-40.57
-46.24
-49.96
-50.54
-47.27
-40.29
-30.58
-19.62
-8.92
0.4
7.86
13.44
17.42
20.07
21.59
22.11
21.79
20.87
19.65
18.4
17.31
16.46
15.82
15.31
14.83
14.25
13.41
12.16
10.39
8.07
5.31
2.31
-0.75
-3.78
-6.83
-10.1
-13.83
-18.23
-23.4
-29.3
-35.56
-41.56
-46.37
-48.91
-48.3
-44.18
-36.89
-27.41
-17.1
-7.2
1.42
8.47
14.03
18.37
21.64
23.9
25.11
25.35
24.84
23.92
22.96
22.18
21.59
21.08
20.47
19.6
18.4
16.86
14.97
12.74
10.15
7.14
3.72
-0.05
-4.12
-8.44
-13.01
-17.93
-23.37
-29.38
-35.83
-42.15
-47.38
-50.34
-50.05
-46.08
-38.73
-29
-18.21
-7.61
1.98
10.17
16.96
22.42
26.59
29.47
31.09
31.59
31.29
30.57
29.77
29.09
28.54
28.02
27.38
26.58
25.65
24.61
23.45
22.02
20.08
17.43
13.98
9.88
5.43
1.02
-3.06
-6.7
-10.06
-13.51
-17.56
-22.68
-29
-36.2
-43.34
-49.03
-51.85
-50.75
-45.48
-36.71
-25.81
-14.35
-3.69
5.42
12.84
18.83
23.73
27.74
30.91
33.19
34.69
35.62
36.33
37.11
38.01
38.82
39.2
38.86
37.71
35.93
33.89
31.94
30.25
28.72
26.97
24.54
21.1
16.6
11.35
5.86
0.69
-3.82
-7.67
-11.18
-14.89
-19.35
-24.91
-31.54
-38.79
-45.79
-51.38
-54.38
-53.93
-49.73
-42.16
-32.17
-21.01
-9.82
0.57
9.73
17.52
23.98
29.13
32.93
35.41
36.68
36.98
36.75
36.42
36.3
36.48
36.81
36.96
36.62
35.72
34.35
32.81
31.34
30.02
28.7
27.06
24.78
21.66
17.72
13.18
8.43
3.82
-0.38
-4.1
-7.48
-10.81
-14.45
-18.78
-24
-30.11
-36.72
-43.05
-47.97
-50.33
-49.25
-44.5
-36.58
-26.61
-15.89
-5.6
3.56
11.31
17.61
22.58
26.32
28.97
30.7
31.74
32.31
32.56
32.59
32.43
32.15
31.78
31.33
30.74
29.89
28.69
27.19
25.57
24.01
22.57
21.06
19.11
16.4
12.82
8.58
4.13
-0.09
-3.85
-7.23
-10.55
-14.13
-18.22
-22.89
-28.02
-33.29
-38.2
-42.02
-43.9
-43.13
-39.36
-32.86
-24.5
-15.45
-6.9
0.35
5.93
9.92
12.52
13.99
14.59
14.55
14.26
14.1
14.39
15.24
16.47
17.74
18.66
19.03
18.86
18.35
17.74
17.13
16.49
15.59
14.16
12.03
9.16
5.66
1.82
-2.05
-5.63
-8.77
-11.52
-14.1
-16.87
-20.17
-24.18
-28.66
-32.99
-36.25
-37.44
-35.9
-31.53
-24.87
-16.91
-8.78
-1.38
4.78
9.55
13.04
15.4
16.78
17.3
17.12
16.51
15.8
15.23
14.95
14.94
15.06
15.14
15.07
14.8
14.32
13.61
12.62
11.24
9.39
7.04
4.3
1.36
-1.53
-4.21
-6.6
-8.84
-11.2
-14.01
-17.59
-22.04
-27.16
-32.38
-36.82
-39.49
-39.59
-36.75
-31.19
-23.66
-15.22
-6.98
0.21
5.9
9.97
12.63
14.21
15.08
15.57
15.92
16.29
16.65
16.94
17.04
16.83
16.33
15.62
14.8
13.95
13.04
11.97
10.58
8.74
6.4
3.6
0.51
-2.73
-5.93
-8.94
-11.72
-14.28
-16.87
-19.79
-23.44
-27.98
-33.18
-38.31
-42.22
-43.74
-42.07
-37.17
-29.74
-21
-12.2
-4.29
2.31
7.58
11.67
14.73
16.81
17.89
18.09
17.69
17.1
16.71
16.7
17.01
17.34
17.4
16.99
16.18
15.17
14.16
13.2
12.14
10.69
8.62
5.88
2.63
-0.84
-4.27
-7.47
-10.43
-13.24
-16.13
-19.4
-23.33
-28.05
-33.41
-38.83
-43.39
-46
-45.79
-42.46
-36.38
-28.52
-20.04
-11.91
-4.71
1.44
6.61
10.91
14.3
16.68
17.99
18.37
18.16
17.76
17.55
17.66
17.99
18.31
18.36
18.04
17.41
16.64
15.87
15.09
14.11
12.66
10.48
7.49
3.85
-0.17
-4.19
-7.91
-11.16
-13.93
-16.39
-18.82
-21.6
-25.05
-29.31
-34.18
-39.05
-43.02
-45.03
-44.28
-40.48
-34.01
-25.74
-16.81
-8.24
-0.68
5.6
10.64
14.6
17.63
19.8
21.21
22.02
22.5
22.91
23.45
24.16
24.92
25.46
25.54
25.02
23.95
22.51
20.91
19.28
17.57
15.57
13.02
9.79
5.95
1.84
-2.04
-5.27
-7.71
-9.55
-11.25
-13.41
-16.47
-20.65
-25.79
-31.47
-37.01
-41.54
-44.19
-44.18
-41.17
-35.34
-27.47
-18.73
-10.34
-3.17
2.44
6.61
9.75
12.22
14.18
15.61
16.51
16.93
17.09
17.27
17.62
18.1
18.51
18.64
18.35
17.64
16.67
15.61
14.53
13.31
11.75
9.62
6.82
3.47
-0.18
-3.8
-7.11
-10.01
-12.66
-15.39
-18.58
-22.52
-27.18
-32.17
-36.65
-39.65
-40.21
-37.81
-32.5
-24.92
-16.11
-7.18
0.94
7.73
12.97
16.7
19.05
20.21
20.43
19.95
19.12
18.22
17.5
17.07
16.91
16.93
16.96
16.88
16.57
15.99
15.08
13.86
12.29
10.34
7.96
5.12
1.92
-1.48
-4.82
-7.92
-10.77
-13.56
-16.66
-20.36
-24.74
-29.41
-33.6
-36.29
-36.57
-33.93
-28.48
-20.94
-12.37
-3.87
3.67
9.75
14.25
17.26
19
19.67
19.52
18.79
17.76
16.72
15.85
15.23
14.85
14.58
14.36
14.13
13.88
13.57
13.11
12.34
11.03
9.06
6.4
3.22
-0.19
-3.59
-6.82
-9.93
-13.15
-16.8
-21.07
-25.92
-30.9
-35.2
-37.84
-37.92
-34.97
-29.14
-21.12
-12.04
-3.06
4.93
11.43
16.33
19.81
22.1
23.45
24.04
24.04
23.6
22.87
21.98
21.08
20.26
19.6
19.12
18.78
18.47
18.02
17.27
16.11
14.49
12.39
9.8
6.75
3.27
-0.5
-4.33
-7.95
-11.21
-14.18
-17.22
-20.8
-25.25
-30.42
-35.57
-39.54
-41.1
-39.41
-34.4
-26.74
-17.67
-8.54
-0.43
6.08
10.93
14.39
16.86
18.68
20.04
21.02
21.66
22.01
22.1
22.04
21.87
21.61
21.23
20.7
20.05
19.34
18.7
18.13
17.52
16.59
15.03
12.66
9.5
5.8
1.95
-1.69
-4.95
-7.87
-10.68
-13.71
-17.33
-21.8
-27.13
-33
-38.63
-42.93
-44.75
-43.31
-38.47
-30.91
-21.84
-12.6
-4.18
2.95
8.84
13.71
17.71
20.79
22.79
23.66
23.62
23.14
22.73
22.75
23.25
23.96
24.46
24.42
23.67
22.28
20.52
18.67
16.97
15.47
14.09
12.57
10.65
8.17
5.12
1.69
-1.84
-5.23
-8.33
-11.18
-13.95
-16.86
-20.16
-24.05
-28.65
-33.93
-39.56
-44.84
-48.75
-50.2
-48.39
-43.2
-35.19
-25.55
-15.63
-6.55
1.08
7.14
11.83
15.42
18.02
19.7
20.54
20.73
20.61
20.57
20.9
21.68
22.74
23.78
24.45
24.5
23.91
22.82
21.49
20.17
18.95
17.8
16.56
15.02
13.03
10.5
7.46
3.98
0.22
-3.66
-7.46
-11.01
-14.25
-17.26
-20.3
-23.71
-27.84
-32.83
-38.5
-44.26
-49.16
-52.15
-52.3
-49.16
-42.87
-34.24
-24.42
-14.67
-5.94
1.27
6.93
11.3
14.67
17.23
19.05
20.17
20.79
21.18
21.74
22.7
24.1
25.69
27.08
27.95
28.14
27.69
26.75
25.47
23.91
22.07
19.89
17.33
14.34
10.9
7.11
3.1
-0.92
-4.7
-8.09
-11.08
-13.83
-16.65
-19.88
-23.77
-28.45
-33.82
-39.47
-44.66
-48.45
-49.91
-48.4
-43.83
-36.68
-27.84
-18.35
-9.1
-0.73
6.37
11.93
15.79
17.94
18.54
18.06
17.07
16.14
15.62
15.62
16.05
16.64
17.16
17.41
17.35
17.05
16.67
16.35
16.12
15.82
15.14
13.73
11.37
8.11
4.29
0.38
-3.21
-6.32
-9.13
-12.08
-15.69
-20.36
-26.13
-32.58
-38.84
-43.74
-46.16
-45.33
-41.03
-33.69
-24.26
-13.99
-4.1
4.48
11.22
15.98
18.92
20.38
20.74
20.38
19.66
18.83
18.11
17.64
17.44
17.43
17.46
17.39
17.14
16.63
15.81
14.6
12.86
10.47
7.4
3.78
-0.14
-4.03
-7.67
-10.98
-14.13
-17.51
-21.55
-26.56
-32.52
-38.93
-44.75
-48.69
-49.52
-46.56
-39.94
-30.6
-20.02
-9.72
-0.86
5.99
10.85
14.08
16.14
17.34
17.87
17.75
17.06
15.96
14.7
13.6
12.9
12.71
12.95
13.36
13.61
13.4
12.53
11.01
8.97
6.59
4.01
1.26
-1.78
-5.28
-9.4
-14.23
-19.8
-26.08
-32.86
-39.68
-45.77
-50.04
-51.38
-49.01
-42.85
-33.57
-22.47
-11.07
-0.63
8.07
14.83
19.77
23.12
25.03
25.6
24.99
23.44
21.42
19.43
17.95
17.18
17.03
17.17
17.17
16.69
15.53
13.73
11.41
8.7
5.63
2.17
-1.83
-6.39
-11.58
-17.4
-23.87
-30.92
-38.24
-45.13
-50.51
-53.17
-52.13
-47.06
-38.46
-27.51
-15.74
-4.5
5.32
13.39
19.76
24.64
28.15
30.36
31.25
30.93
29.71
28.04
26.47
25.4
24.93
24.85
24.77
24.32
23.24
21.52
19.31
16.77
14.05
11.16
8.02
4.47
0.29
-4.73
-10.76
-17.72
-25.22
-32.44
-38.26
-41.49
-41.15
-36.83
-28.8
-17.97
-5.64
6.77
18.11
27.65
35.09
40.49
44.04
46.01
46.64
46.18
44.98
43.47
42.08
41.09
40.45
39.72
38.16
35.08
30.11
23.42
15.74
8.07
1.29
-4.11
-8.22
-11.55
-14.85
-18.79
-23.79
-29.96
-37.07
-44.51
-51.3
-56.13
-57.65
-54.8
-47.3
-35.86
-22.06
-7.93
4.71
14.76
22.02
26.97
30.37
32.82
34.56
35.59
35.86
35.42
34.54
33.54
32.71
32.2
31.97
31.88
31.66
31.02
29.66
27.41
24.26
20.4
16.12
11.74
7.44
3.22
-1.12
-5.87
-11.27
-17.55
-24.64
-32.21
-39.54
-45.55
-48.98
-48.72
-44.23
-35.74
-24.33
-11.59
0.83
11.62
20.14
26.36
30.68
33.62
35.6
36.85
37.41
37.3
36.59
35.43
34.06
32.66
31.34
30.09
28.86
27.53
25.98
24.1
21.76
18.91
15.57
11.85
7.93
4.01
0.19
-3.56
-7.44
-11.74
-16.82
-22.92
-29.92
-37.26
-43.79
-48.1
-48.82
-45.25
-37.54
-26.78
-14.57
-2.52
8.18
16.94
23.65
28.51
31.79
33.81
34.82
35.17
35.16
35.06
35
34.96
34.8
34.37
33.57
32.46
31.2
29.92
28.64
27.17
25.18
22.33
18.48
13.74
8.5
3.23
-1.65
-5.94
-9.71
-13.29
-17.14
-21.72
-27.4
-34.17
-41.5
-48.33
-53.27
-54.94
-52.5
-45.97
-36.23
-24.77
-13.15
-2.61
6.23
13.27
18.73
22.85
25.82
27.75
28.77
29.11
29.08
29.04
29.24
29.75
30.44
31.03
31.28
31.01
30.25
29.11
27.77
26.3
24.63
22.54
19.8
16.28
12.09
7.56
3.11
-0.87
-4.21
-7
-9.58
-12.34
-15.71
-19.98
-25.31
-31.54
-38.22
-44.55
-49.42
-51.69
-50.52
-45.68
-37.7
-27.67
-16.91
-6.57
2.63
10.44
16.87
22.01
25.9
28.5
29.84
30.15
29.85
29.47
29.43
29.89
30.69
31.41
31.64
31.13
29.95
28.42
26.91
25.7
24.83
24.04
22.93
21.09
18.21
14.2
9.21
3.58
-2.24
-7.82
-12.93
-17.53
-21.85
-26.22
-30.96
-36.28
-42.12
-48.13
-53.63
-57.7
-59.34
-57.71
-52.51
-44.1
-33.55
-22.31
-11.86
-3.21
3.21
7.56
10.31
11.94
12.83
13.2
13.21
13.05
12.9
12.95
13.26
13.79
14.39
14.94
15.31
15.46
15.36
15.02
14.46
13.61
12.37
10.57
8.09
4.91
1.21
-2.67
-6.31
-9.39
-11.87
-13.96
-16.13
-18.87
-22.47
-26.8
-31.32
-35.17
-37.41
-37.32
-34.61
-29.47
-22.54
-14.63
-6.64
0.74
6.96
11.74
14.99
16.81
17.44
17.19
16.43
15.47
14.57
13.88
13.46
13.29
13.26
13.24
13.1
12.83
12.47
12.1
11.73
11.26
10.42
8.96
6.74
3.83
0.52
-2.78
-5.68
-7.99
-9.75
-11.26
-13.09
-15.88
-20.18
-26.17
-33.44
-40.91
-47.12
-50.65
-50.63
-47.1
-40.94
-33.51
-26.09
-19.52
-14.1
-9.75
-6.29
-3.64
-1.8
-0.71
-0.16
0.25
0.92
2.12
3.85
5.85
7.74
9.23
10.16
10.54
10.48
10.08
9.31
8.12
6.39
4.12
1.43
-1.47
-4.3
-6.9
-9.32
-11.78
-14.62
-18.15
-22.48
-27.33
-32.06
-35.75
-37.39
-36.25
-32.11
-25.37
-17.02
-8.25
-0.19
6.43
11.39
14.83
17.02
18.24
18.68
18.49
17.87
17.08
16.34
15.82
15.52
15.35
15.2
15.02
14.78
14.52
14.22
13.73
12.95
11.78
10.25
8.43
6.42
4.27
1.98
-0.47
-3.14
-6.08
-9.43
-13.29
-17.67
-22.3
-26.54
-29.46
-30.01
-27.5
-21.76
-13.38
-3.41
6.85
16.25
23.98
29.67
33.28
34.97
35.04
33.81
31.69
29.11
26.46
23.9
21.34
18.34
14.33
8.93
2.2
-5.23
-12.35
-18.09
-21.82
-23.53
-23.75
-23.23
-22.62
-22.19
-21.89
-21.52
-20.96
-20.27
-19.68
-19.47
-19.87
-21.02
-22.93
-25.49
-28.46
-31.37
-33.63
-34.57
-33.63
-30.51
-25.31
-18.56
-11.05
-3.66
2.84
7.98
11.64
13.91
15.09
15.5
15.45
15.16
14.81
14.47
14.12
13.69
13.07
12.15
10.91
9.39
7.75
6.17
4.84
3.78
2.92
2.03
0.91
-0.57
-2.41
-4.44
-6.46
-8.38
-10.28
-12.4
-15.05
-18.49
-22.76
-27.62
-32.51
-36.64
-39.19
-39.45
-37.1
-32.29
-25.6
-17.8
-9.7
-1.94
5.08
11.12
16.04
19.73
22.15
23.36
23.57
23.13
22.4
21.71
21.19
20.82
20.46
19.93
19.15
18.22
17.28
16.47
15.78
15
13.82
11.95
9.25
5.79
1.82
-2.33
-6.36
-10.05
-13.37
-16.42
-19.51
-23.02
-27.22
-32.12
-37.32
-42.12
-45.66
-47.16
-46.11
-42.42
-36.37
-28.53
-19.69
-10.66
-2.11
5.45
11.78
16.78
20.55
23.22
25
26.11
26.83
27.4
27.95
28.41
28.59
28.26
27.29
25.77
23.96
22.2
20.73
19.55
18.37
16.74
14.23
10.6
5.99
0.83
-4.32
-8.97
-12.93
-16.37
-19.68
-23.28
-27.42
-32.1
-37.01
-41.66
-45.43
-47.63
-47.65
-45.02
-39.61
-31.77
-22.25
-12.14
-2.52
5.76
12.28
17.05
20.35
22.55
24
24.92
25.45
25.75
25.89
25.92
25.83
25.54
24.94
23.96
22.62
20.98
19.17
17.24
15.2
12.97
10.44
7.52
4.19
0.59
-3.07
-6.56
-9.83
-12.99
-16.39
-20.39
-25.28
-31
-37.13
-42.88
-47.21
-49.08
-47.71
-42.77
-34.55
-23.96
-12.26
-0.85
9.17
17.13
22.94
26.87
29.41
31.01
32.05
32.79
33.34
33.75
33.99
33.95
33.53
32.69
31.48
30.1
28.78
27.57
26.37
24.91
22.9
20.23
17.1
13.84
10.81
8.17
5.78
3.35
0.52
-2.89
-6.82
-11
-15
-18.31
-20.36
-20.65
-18.79
-14.74
-8.9
-2.02
4.91
11.02
15.75
19
21.01
22.2
22.93
23.38
23.62
23.62
23.41
23.1
22.83
22.63
22.43
21.99
21.01
19.28
16.78
13.67
10.25
6.79
3.44
0.15
-3.2
-6.72
-10.41
-14.16
-17.83
-21.39
-24.94
-28.67
-32.72
-36.98
-41.08
-44.38
-46.12
-45.67
-42.7
-37.35
-30.16
-21.97
-13.7
-6.16
0.09
4.81
8.01
9.96
11.02
11.58
11.91
12.13
12.21
12.02
11.46
10.5
9.2
7.71
6.17
4.72
3.4
2.16
0.88
-0.58
-2.36
-4.54
-7.12
-10
-13.05
-16.13
-19.16
-22.14
-25.17
-28.44
-32.16
-36.49
-41.35
-46.31
-50.64
-53.39
-53.69
-51.02
-45.32
-37.04
-26.98
-16.11
-5.37
4.5
13.06
20.15
25.84
30.32
33.74
36.2
37.75
38.45
38.44
37.97
37.26
36.45
35.53
34.41
32.97
31.26
29.45
27.73
26.2
24.76
23.11
20.91
17.92
14.17
10.02
5.91
2.22
-0.98
-3.94
-7.09
-10.81
-15.23
-20.1
-24.83
-28.74
-31.2
-31.78
-30.36
-27.09
-22.37
-16.74
-10.83
-5.21
-0.32
3.63
6.62
8.73
10.06
10.65
10.57
9.89
8.81
7.65
6.66
5.99
5.52
4.99
4.07
2.57
0.48
-2.04
-4.82
-7.8
-11.04
-14.66
-18.75
-23.25
-27.99
-32.71
-37.24
-41.54
-45.68
-49.75
-53.83
-57.97
-62.3
-67.01
-72.27
-78.03
-83.79
-88.45
-90.62
-89.01
-82.94
-72.64
-59.21
-44.23
-29.3
-15.59
-3.65
6.4
14.64
21.2
26.19
29.75
32.21
34.03
35.74
37.7
40.02
42.52
44.9
46.95
48.6
49.98
51.21
52.21
52.7
52.24
50.48
47.34
43.07
38.17
33.2
28.54
24.31
20.34
16.18
11.24
4.87
-3.36
-13.46
-24.69
-35.57
-44.18
-48.68
-48.08
-42.52
-33.24
-22.03
-10.6
-0.1
8.91
16.26
21.87
25.68
27.7
28.18
27.68
26.83
26.13
25.75
25.56
25.32
24.92
24.43
24.04
23.91
23.93
23.79
23.06
21.33
18.46
14.54
9.93
5.1
0.42
-3.89
-7.82
-11.62
-15.65
-20.4
-26.24
-33.13
-40.43
-46.85
-50.73
-50.6
-45.72
-36.47
-24.28
-11.03
1.5
12.24
20.85
27.56
32.63
36.21
38.24
38.64
37.51
35.24
32.44
29.81
27.99
27.38
28.13
29.96
32.24
34.12
34.71
33.41
30.16
25.41
19.98
14.68
10.02
5.95
2.01
-2.54
-8.37
-15.91
-25.15
-35.58
-46.26
-55.8
-62.61
-65.19
-62.51
-54.4
-41.72
-26.19
-9.98
4.95
17.3
26.64
33.28
37.9
41.19
43.62
45.36
46.47
47.01
47.05
46.73
46.14
45.32
44.24
42.89
41.21
39.12
36.5
33.14
28.88
23.68
17.7
11.28
4.8
-1.37
-7.12
-12.57
-18.08
-24.2
-31.48
-40.19
-50.04
-59.95
-68.15
-72.62
-71.74
-64.95
-53.03
-37.92
-22.01
-7.42
4.62
13.84
20.7
25.92
30.09
33.54
36.31
38.39
39.78
40.57
40.91
40.89
40.52
39.72
38.36
36.3
33.5
30.04
26.07
21.79
17.35
12.85
8.25
3.53
-1.35
-6.46
-11.9
-17.88
-24.7
-32.61
-41.58
-51.09
-59.99
-66.68
-69.55
-67.51
-60.41
-49.09
-35.19
-20.54
-6.71
5.3
15.11
22.82
28.74
33.16
36.32
38.37
39.45
39.76
39.56
39.16
38.81
38.55
38.21
37.41
35.78
33.08
29.35
24.83
19.86
14.71
9.52
4.33
-0.83
-5.86
-10.62
-15.04
-19.29
-23.84
-29.26
-35.88
-43.44
-50.82
-56.32
-58.17
-55.23
-47.48
-36.09
-22.91
-9.84
1.71
11.14
18.39
23.67
27.21
29.03
29.24
28.07
26.07
23.94
22.31
21.58
21.71
22.37
23.01
23.15
22.47
20.91
18.67
16.1
13.62
11.6
10.21
9.32
8.51
7.14
4.57
0.44
-5.29
-12.2
-19.63
-26.74
-32.62
-36.38
-37.29
-34.92
-29.32
-21.15
-11.54
-1.85
6.72
13.48
18.28
21.4
23.22
24.03
23.94
22.96
21.21
19.02
16.87
15.31
14.67
14.94
15.81
16.72
17.13
16.63
15.13
12.78
9.88
6.79
3.75
0.85
-2.01
-5.01
-8.38
-12.31
-16.91
-22.24
-28.17
-34.34
-40.08
-44.37
-46.08
-44.29
-38.71
-29.91
-19.25
-8.39
1.15
8.52
13.61
16.9
19.02
20.45
21.32
21.54
21.05
19.93
18.48
17.14
16.33
16.27
16.92
17.94
18.79
18.93
17.9
15.55
12.05
7.78
3.21
-1.24
-5.33
-8.97
-12.21
-15.24
-18.34
-21.9
-26.26
-31.5
-37.2
-42.43
-45.87
-46.3
-43.04
-36.29
-27.1
-17.05
-7.68
-0.01
5.6
9.37
11.83
13.49
14.73
15.77
16.69
17.51
18.25
18.82
19.13
19.1
18.72
18.08
17.35
16.67
16.05
15.37
14.34
12.65
10.07
6.54
2.22
-2.56
-7.44
-12.14
-16.55
-20.8
-25.17
-30
-35.48
-41.49
-47.43
-52.33
-55.08
-54.74
-50.93
-43.94
-34.64
-24.21
-13.8
-4.26
3.92
10.56
15.75
19.72
22.73
25.06
27.03
28.82
30.59
32.38
34.08
35.52
36.36
36.28
35.09
32.78
29.58
25.83
21.79
17.53
13.02
8.2
3.14
-1.93
-6.72
-11.06
-15.03
-18.99
-23.44
-28.72
-34.78
-41.01
-46.35
-49.53
-49.49
-45.75
-38.65
-29.21
-18.83
-8.81
-0.01
7.25
13.05
17.58
20.95
23.13
24.16
24.18
23.6
22.85
22.29
22
21.8
21.39
20.6
19.46
18.16
16.93
15.86
14.85
13.59
11.78
9.2
5.9
2.09
-1.91
-5.8
-9.39
-12.64
-15.75
-19.06
-22.99
-27.77
-33.24
-38.76
-43.2
-45.31
-44.13
-39.38
-31.6
-21.98
-11.98
-2.85
4.67
10.4
14.53
17.36
19.18
20.2
20.63
20.69
20.71
20.92
21.43
22.06
22.51
22.45
21.76
20.57
19.17
17.87
16.78
15.78
14.47
12.5
9.65
6.01
1.92
-2.18
-5.94
-9.2
-12.08
-14.93
-18.2
-22.29
-27.42
-33.4
-39.59
-44.86
-47.95
-47.77
-43.86
-36.56
-27
-16.65
-6.85
1.51
8.13
13.13
16.76
19.25
20.69
21.27
21.26
21.04
20.96
21.14
21.49
21.7
21.51
20.84
19.83
18.75
17.87
17.24
16.71
15.92
14.51
12.25
9.15
5.45
1.55
-2.2
-5.61
-8.71
-11.74
-15.05
-19
-23.8
-29.5
-35.82
-42.15
-47.47
-50.62
-50.56
-46.8
-39.62
-30.04
-19.5
-9.36
-0.57
6.5
11.91
15.94
18.78
20.57
21.38
21.42
20.97
20.39
20
19.96
20.24
20.65
20.93
20.87
20.37
19.49
18.31
16.88
15.18
13.05
10.38
7.1
3.35
-0.61
-4.48
-8.04
-11.3
-14.46
-17.95
-22.2
-27.5
-33.75
-40.38
-46.3
-50.2
-50.92
-47.84
-41.16
-31.84
-21.28
-10.88
-1.73
5.64
11.13
14.96
17.38
18.66
19.02
18.68
17.88
16.87
15.85
15.03
14.55
14.44
14.61
14.85
14.86
14.38
13.18
11.24
8.66
5.62
2.31
-1.11
-4.55
-7.97
-11.44
-15.11
-19.24
-24.14
-29.94
-36.44
-42.92
-48.22
-51.03
-50.26
-45.49
-37.09
-26.21
-14.41
-3.14
6.53
14.09
19.53
23.08
25.06
25.78
25.54
24.66
23.48
22.35
21.51
21.03
20.8
20.65
20.39
19.89
19.12
18.04
16.59
14.66
12.08
8.71
4.59
-0.12
-5.14
-10.14
-14.97
-19.72
-24.72
-30.4
-37.02
-44.43
-51.84
-57.96
-61.26
-60.55
-55.36
-46.16
-34.23
-21.28
-8.88
1.85
10.44
16.88
21.42
24.39
26.06
26.67
26.46
25.68
24.59
23.43
22.36
21.48
20.82
20.33
19.92
19.44
18.66
17.39
15.48
12.94
9.83
6.32
2.58
-1.31
-5.34
-9.64
-14.43
-19.96
-26.41
-33.74
-41.48
-48.7
-54.05
-56.16
-54.08
-47.62
-37.49
-25.07
-12.01
0.36
11.14
19.99
26.92
32.04
35.52
37.51
38.28
38.23
37.77
37.22
36.69
36.06
35.15
33.88
32.28
30.58
28.98
27.54
26.07
24.23
21.67
18.25
14.04
9.33
4.41
-0.46
-5.27
-10.16
-15.46
-21.54
-28.69
-36.92
-45.76
-54.18
-60.78
-64.08
-63.01
-57.27
-47.47
-34.9
-21.12
-7.55
4.82
15.45
24.11
30.73
35.31
37.95
38.96
38.8
38.12
37.47
37.2
37.35
37.7
37.9
37.66
36.94
35.86
34.66
33.42
32.03
30.16
27.37
23.4
18.29
12.43
6.39
0.73
-4.26
-8.65
-12.78
-17.16
-22.31
-28.63
-36.26
-44.92
-53.79
-61.57
-66.61
-67.45
-63.32
-54.46
-42.12
-28.11
-14.28
-1.92
8.43
16.79
23.46
28.71
32.6
35.17
36.51
36.93
36.9
36.86
37.09
37.55
37.99
38.08
37.59
36.55
35.2
33.82
32.52
31.17
29.37
26.71
22.91
18.03
12.41
6.61
1.14
-3.71
-8
-12.08
-16.51
-21.85
-28.48
-36.4
-45
-53.15
-59.34
-62.08
-60.38
-54.09
-44
-31.6
-18.57
-6.31
4.34
13.19
20.38
26.11
30.47
33.43
35.02
35.52
35.44
35.34
35.71
36.62
37.81
38.8
39.13
38.59
37.28
35.5
33.59
31.7
29.74
27.39
24.31
20.28
15.33
9.74
3.98
-1.48
-6.3
-10.45
-14.17
-17.93
-22.3
-27.77
-34.53
-42.34
-50.39
-57.41
-61.92
-62.65
-58.94
-51.02
-39.93
-27.2
-14.39
-2.71
7.16
15.04
20.99
25.23
27.99
29.59
30.38
30.77
31.11
31.58
32.14
32.57
32.61
32.1
31.09
29.79
28.43
27.12
25.75
24.06
21.72
18.55
14.56
9.99
5.14
0.33
-4.22
-8.44
-12.42
-16.41
-20.82
-26.05
-32.31
-39.35
-46.34
-51.93
-54.69
-53.51
-48.04
-38.88
-27.37
-15.17
-3.78
5.81
13.25
18.67
22.45
24.94
26.35
26.71
26.09
24.7
22.96
21.41
20.52
20.49
21.13
21.94
22.36
21.93
20.52
18.22
15.28
11.91
8.2
4.2
-0.05
-4.44
-8.85
-13.21
-17.68
-22.57
-28.18
-34.62
-41.42
-47.54
-51.56
-52.17
-48.64
-41.16
-30.84
-19.29
-8.1
1.65
9.51
15.53
19.93
22.86
24.33
24.35
23.15
21.18
19.03
17.22
16.04
15.46
15.3
15.24
15.03
14.48
13.41
11.76
9.49
6.71
3.55
0.19
-3.31
-7.01
-11.05
-15.63
-20.93
-27.04
-33.85
-41.02
-47.85
-53.32
-56.28
-55.74
-51.24
-43.06
-32.19
-20.09
-8.24
2.22
10.7
17.11
21.65
24.62
26.27
26.8
26.45
25.54
24.44
23.43
22.64
22
21.31
20.38
19.07
17.4
15.41
13.17
10.65
7.8
4.57
0.95
-3.03
-7.34
-12.04
-17.25
-23.13
-29.79
-37.06
-44.39
-50.8
-55.09
-56.12
-53.24
-46.57
-37.01
-25.96
-14.83
-4.66
4.03
11.19
16.96
21.44
24.58
26.36
26.83
26.28
25.2
24.16
23.6
23.74
24.52
25.67
26.79
27.5
27.45
26.47
24.51
21.62
17.97
13.77
9.23
4.49
-0.39
-5.52
-11.07
-17.26
-24.29
-32.14
-40.45
-48.47
-55.06
-58.94
-59.03
-54.8
-46.53
-35.32
-22.75
-10.45
0.31
8.92
15.41
20.16
23.64
26.2
27.98
29.03
29.39
29.17
28.58
27.85
27.13
26.51
25.93
25.31
24.51
23.43
21.93
19.94
17.42
14.39
10.92
7.14
3.16
-0.97
-5.3
-9.96
-15.17
-21.15
-28.03
-35.66
-43.47
-50.4
-55.1
-56.3
-53.22
-45.96
-35.47
-23.3
-11.07
0.02
9.36
16.91
22.88
27.54
31.05
33.51
35
35.69
35.84
35.66
35.33
34.89
34.32
33.58
32.7
31.72
30.7
29.68
28.54
27.05
24.89
21.8
17.67
12.69
7.26
1.88
-3.08
-7.53
-11.71
-16.11
-21.28
-27.5
-34.63
-41.92
-48.17
-51.94
-52.05
-47.91
-39.81
-28.82
-16.42
-4.12
7.01
16.5
24.4
30.97
36.52
41.2
45.06
48.16
50.58
52.49
54.06
55.37
56.38
57.06
57.38
57.35
57.01
56.24
54.72
51.9
47.22
40.32
31.27
20.68
9.48
-1.24
-10.62
-18.18
-24
-28.6
-32.86
-37.65
-43.6
-50.83
-58.74
-66.11
-71.36
-73.07
-70.32
-63.18
-52.57
-40.07
-27.42
-16.02
-6.68
0.44
5.62
9.37
12.15
14.27
15.88
16.95
17.44
17.34
16.76
15.95
15.21
14.8
14.79
15.06
15.28
15.07
14.09
12.18
9.4
5.95
2.13
-1.76
-5.5
-8.93
-12.03
-14.89
-17.77
-21.04
-25.01
-29.72
-34.74
-39.09
-41.47
-40.76
-36.43
-28.85
-19.18
-8.91
0.6
8.55
14.73
19.27
22.41
24.28
24.95
24.54
23.37
21.92
20.71
20
19.77
19.75
19.57
19.02
18.05
16.73
15.16
13.3
11.02
8.22
4.88
1.13
-2.83
-6.89
-11.03
-15.37
-20.09
-25.33
-31.09
-37.15
-42.99
-47.74
-50.37
-49.95
-46.01
-38.81
-29.31
-18.86
-8.83
-0.12
6.89
12.27
16.25
19.01
20.64
21.17
20.79
19.81
18.67
17.74
17.25
17.22
17.43
17.56
17.3
16.42
14.87
12.74
10.2
7.4
4.44
1.36
-1.84
-5.08
-8.27
-11.38
-14.54
-18.02
-22.15
-27.01
-32.21
-36.8
-39.54
-39.32
-35.6
-28.7
-19.63
-9.83
-0.62
7.12
13.08
17.35
20.17
21.79
22.4
22.19
21.44
20.56
19.91
19.74
20.02
20.48
20.71
20.39
19.32
17.49
15.06
12.25
9.25
6.15
3.05
-0.02
-3.02
-5.91
-8.75
-11.69
-15.06
-19.18
-24.2
-29.91
-35.58
-40.08
-42.21
-41.08
-36.44
-28.87
-19.53
-9.79
-0.81
6.68
12.46
16.64
19.45
21.11
21.78
21.58
20.7
19.4
17.95
16.59
15.47
14.6
13.94
13.36
12.77
12.05
11.09
9.8
8.08
5.86
3.17
0.1
-3.2
-6.53
-9.74
-12.79
-15.78
-18.96
-22.63
-27
-31.95
-36.91
-40.89
-42.74
-41.54
-37.03
-29.69
-20.59
-11.06
-2.18
5.38
11.47
16.17
19.67
22.03
23.31
23.67
23.33
22.63
21.83
21.07
20.32
19.48
18.47
17.34
16.21
15.23
14.42
13.66
12.71
11.28
9.17
6.34
2.89
-0.91
-4.79
-8.51
-12.02
-15.43
-19.01
-23.1
-27.89
-33.26
-38.62
-43.04
-45.37
-44.71
-40.7
-33.75
-24.85
-15.31
-6.31
1.45
7.67
12.42
15.87
18.16
19.38
19.68
19.33
18.66
17.99
17.52
17.27
17.15
17.04
16.85
16.58
16.23
15.82
15.27
14.4
12.97
10.82
7.9
4.36
0.51
-3.31
-6.81
-9.92
-12.82
-15.85
-19.4
-23.75
-28.88
-34.37
-39.47
-43.12
-44.34
-42.43
-37.28
-29.45
-20.04
-10.33
-1.44
5.97
11.74
16.06
19.24
21.48
22.83
23.36
23.14
22.46
21.65
21.05
20.79
20.81
20.88
20.75
20.3
19.54
18.59
17.5
16.24
14.62
12.43
9.53
5.96
2.02
-1.94
-5.6
-8.84
-11.85
-15.03
-18.81
-23.48
-28.95
-34.72
-39.93
-43.55
-44.72
-42.94
-38.27
-31.27
-22.87
-14.05
-5.7
1.58
7.48
11.93
15
16.9
17.89
18.25
18.24
18.06
17.78
17.49
17.22
16.99
16.89
16.93
17.04
17.06
16.7
15.72
13.98
11.54
8.64
5.58
2.61
-0.14
-2.77
-5.48
-8.44
-11.75
-15.44
-19.47
-23.77
-28.17
-32.27
-35.39
-36.65
-35.29
-31.02
-24.25
-15.99
-7.55
-0.08
5.78
9.94
12.69
14.38
15.25
15.41
14.93
13.97
12.78
11.64
10.78
10.31
10.19
10.27
10.38
10.35
10.05
9.41
8.42
7.1
5.46
3.52
1.23
-1.41
-4.4
-7.68
-11.2
-14.99
-19.13
-23.64
-28.29
-32.52
-35.44
-36.1
-33.87
-28.68
-21.19
-12.57
-4.1
3.24
9
13.21
16.12
17.96
18.79
18.56
17.35
15.49
13.51
12
11.35
11.57
12.35
13.2
13.67
13.53
12.75
11.41
9.61
7.43
4.94
2.23
-0.62
-3.55
-6.6
-9.92
-13.68
-18.01
-22.88
-28.01
-32.82
-36.58
-38.49
-37.89
-34.52
-28.62
-20.91
-12.4
-4.11
3.21
9.2
13.82
17.23
19.59
21.04
21.68
21.65
21.13
20.35
19.5
18.73
18.08
17.52
16.95
16.24
15.27
13.92
12.14
9.95
7.4
4.6
1.62
-1.46
-4.55
-7.56
-10.46
-13.3
-16.25
-19.6
-23.59
-28.33
-33.53
-38.51
-42.27
-43.73
-42.11
-37.23
-29.58
-20.26
-10.65
-1.96
5
10.04
13.4
15.59
17.08
18.16
18.92
19.31
19.3
18.87
18.13
17.28
16.5
15.96
15.71
15.65
15.53
15.03
13.89
11.97
9.36
6.31
3.11
-0.07
-3.17
-6.3
-9.61
-13.2
-17.12
-21.34
-25.91
-30.75
-35.54
-39.67
-42.2
-42.18
-39
-32.72
-24.08
-14.34
-4.81
3.46
9.95
14.56
17.55
19.31
20.22
20.63
20.81
20.92
21.03
21.1
21.05
20.79
20.29
19.53
18.58
17.48
16.28
15
13.61
12.04
10.26
8.2
5.87
3.25
0.4
-2.73
-6.18
-10.08
-14.59
-19.84
-25.82
-32.23
-38.34
-43.13
-45.48
-44.58
-40.34
-33.36
-24.78
-15.86
-7.54
-0.27
5.94
11.22
15.59
18.89
20.94
21.73
21.57
20.99
20.55
20.59
21.17
22.09
23.01
23.68
23.95
23.85
23.48
22.92
22.17
21.1
19.48
17.07
13.76
9.68
5.21
0.86
-2.92
-5.94
-8.4
-10.78
-13.73
-17.78
-23.17
-29.77
-36.98
-43.85
-49.22
-51.95
-51.25
-46.92
-39.44
-29.91
-19.68
-9.95
-1.53
5.28
10.55
14.52
17.39
19.31
20.4
20.83
20.83
20.63
20.46
20.46
20.74
21.28
21.98
22.63
22.95
22.71
21.7
19.89
17.42
14.51
11.41
8.33
5.37
2.53
-0.34
-3.52
-7.34
-12.05
-17.61
-23.57
-29.02
-32.83
-33.95
-31.81
-26.5
-18.8
-9.89
-0.99
6.97
13.52
18.52
22.01
24.03
24.58
23.66
21.44
18.35
15.04
12.18
10.29
9.51
9.6
10.02
10.19
9.72
8.49
6.64
4.42
2.08
-0.3
-2.69
-5.2
-7.93
-11.04
-14.67
-19
-24.05
-29.58
-34.99
-39.32
-41.55
-40.88
-37.09
-30.55
-22.19
-13.11
-4.32
3.46
9.86
14.76
18.17
20.16
20.85
20.44
19.29
17.85
16.59
15.87
15.85
16.43
17.26
17.87
17.8
16.78
14.83
12.19
9.28
6.49
4.02
1.83
-0.4
-3.15
-6.92
-12
-18.32
-25.28
-31.8
-36.56
-38.36
-36.46
-30.9
-22.48
-12.46
-2.19
7.34
15.62
22.57
28.29
32.8
35.91
37.32
36.85
34.51
30.73
26.2
21.75
18.04
15.42
13.8
12.79
11.88
10.66
8.96
6.85
4.48
1.97
-0.7
-3.7
-7.17
-11.22
-15.82
-20.88
-26.25
-31.66
-36.65
-40.5
-42.32
-41.34
-37.2
-30.23
-21.31
-11.7
-2.59
5.27
11.57
16.36
19.79
21.88
22.58
21.92
20.13
17.76
15.47
13.81
12.96
12.64
12.33
11.49
9.88
7.63
5.13
2.76
0.66
-1.31
-3.49
-6.3
-9.97
-14.6
-20.07
-26.06
-32.07
-37.36
-40.99
-42.09
-40.04
-34.84
-27.07
-17.71
-7.84
1.72
10.5
18.3
24.97
30.29
34.02
36.02
36.49
36.03
35.49
35.68
37.05
39.5
42.45
45.06
46.49
46.25
44.3
40.98
36.83
32.31
27.67
22.84
17.59
11.63
4.82
-2.78
-10.92
-19.05
-26.49
-32.42
-35.96
-36.48
-33.69
-27.93
-20.06
-11.33
-2.94
4.17
9.57
13.18
15.17
15.75
15.08
13.42
11.17
8.88
7.15
6.36
6.53
7.33
8.23
8.73
8.56
7.68
6.3
4.67
2.97
1.23
-0.63
-2.82
-5.59
-9.11
-13.42
-18.29
-23.15
-27.08
-29.03
-28.09
-23.79
-16.37
-6.7
3.9
14.09
22.84
29.56
34.16
36.79
37.71
37.21
35.56
33.17
30.47
27.91
25.8
24.22
23.06
22.05
20.95
19.59
17.94
16.04
13.98
11.88
9.87
8.08
6.61
5.5
4.66
3.96
3.26
2.6
2.12
2.06
2.64
3.94
5.82
7.97
10.12
12.04
13.62
14.8
15.51
15.64
15.12
13.95
12.22
10.12
7.78
5.29
2.71
0.13
-2.29
-4.37
-5.95
-7.02
-7.66
-8.04
-8.34
-8.65
-9.05
-9.63
-10.54
-11.92
-13.81
-16.06
-18.33
-20.12
-21.01
-20.72
-19.18
-16.52
-12.95
-8.78
-4.33
0.01
3.88
7
9.25
10.71
11.61
12.2
12.65
13.04
13.32
13.49
13.65
14.01
14.77
16.02
17.63
19.32
20.79
21.78
22.21
22.18
21.85
21.45
21.2
21.23
21.52
21.88
21.95
21.23
19.29
16
11.62
6.75
2.14
-1.59
-4.18
-5.71
-6.5
-6.93
-7.35
-7.93
-8.76
-9.86
-11.19
-12.7
-14.31
-15.87
-17.22
-18.25
-19
-19.6
-20.34
-21.44
-23.04
-25.07
-27.25
-29.24
-30.76
-31.69
-32.12
-32.31
-32.53
-32.96
-33.58
-34.17
-34.38
-33.82
-32.23
-29.5
-25.75
-21.24
-16.32
-11.37
-6.8
-2.97
-0.14
1.55
2.17
1.94
1.11
-0.1
-1.59
-3.3
-5.12
-6.83
-8.16
-8.85
-8.8
-8.04
-6.72
-5.05
-3.27
-1.65
-0.52
-0.23
-1.06
-3.13
-6.29
-10.18
-14.23
-17.79
-20.22
-20.97
-19.76
-16.69
-12.23
-7.12
-2.21
1.8
4.49
5.83
5.94
5.15
3.74
1.97
0.09
-1.63
-2.94
-3.59
-3.43
-2.43
-0.7
1.56
4.06
6.48
8.51
9.89
10.42
10.04
8.75
6.65
3.92
0.68
-2.94
-6.96
-11.4
-16.3
-21.56
-26.91
-31.87
-35.82
-38.21
-38.69
-37.3
-34.47
-30.87
-27.18
-24.02
-21.66
-20.12
-19.22
-18.71
-18.33
-17.93
-17.4
-16.69
-15.78
-14.6
-13.13
-11.4
-9.55
-7.78
-6.36
-5.49
-5.22
-5.47
-5.96
-6.38
-6.49
-6.17
-5.5
-4.78
-4.39
-4.69
-5.85
-7.7
-9.79
-11.47
-12.15
-11.47
-9.5
-6.58
-3.27
-0.04
2.7
4.76
6.08
6.71
6.88
6.93
7.23
8.07
9.46
11.15
12.76
13.91
14.41
14.29
13.67
12.68
11.34
9.65
7.66
5.62
3.8
2.44
1.54
0.84
-0.09
-1.6
-3.82
-6.63
-9.66
-12.39
-14.3
-14.91
-13.87
-11.06
-6.69
-1.21
4.65
10.15
14.73
18.08
20.26
21.52
22.23
22.6
22.76
22.67
22.24
21.38
20.1
18.55
16.91
15.4
14.11
12.99
11.88
10.55
8.87
6.83
4.52
2.12
-0.23
-2.43
-4.44
-6.24
-7.9
-9.46
-11.06
-12.79
-14.69
-16.55
-17.97
-18.38
-17.22
-14.24
-9.63
-4.05
1.53
6.22
9.44
11.1
11.49
11.08
10.28
9.33
8.25
7.04
5.72
4.41
3.25
2.35
1.74
1.4
1.24
1.2
1.32
1.58
1.95
2.33
2.51
2.26
1.45
0.13
-1.51
-3.19
-4.73
-6.14
-7.57
-9.27
-11.4
-13.95
-16.66
-19.03
-20.48
-20.49
-18.78
-15.38
-10.69
-5.36
