-22.39
-23.84
-27.09
-31.3
-35.69
-39.96
-44.43
-49.6
-55.75
-62.51
-68.76
-72.88
-73.35
-69.4
-61.42
-50.89
-39.76
-29.72
-21.56
-15.09
-9.5
-3.99
1.65
7.05
11.39
14.01
14.67
13.75
12
10.28
9.22
9.02
9.38
9.63
9.05
7.17
4.09
0.46
-2.84
-5.03
-6.02
-6.33
-6.91
-8.54
-11.42
-15.05
-18.54
-21.23
-22.87
-23.75
-24.29
-24.66
-24.62
-23.69
-21.5
-18.06
-13.89
-9.65
-5.88
-2.72
0.01
2.55
4.93
6.95
8.28
8.7
8.25
7.26
6.15
5.27
4.73
4.42
4.04
3.26
1.85
-0.23
-2.79
-5.47
-7.86
-9.69
-10.9
-11.68
-12.35
-13.15
-14.22
-15.47
-16.71
-17.67
-18.14
-17.96
-17.03
-15.32
-12.8
-9.62
-5.98
-2.14
1.62
5.06
8.02
10.46
12.38
13.81
14.83
15.54
16
16.23
16.22
15.91
15.26
14.27
13.02
11.66
10.34
9.2
8.26
7.5
6.88
6.35
5.93
5.65
5.51
5.39
5.09
4.41
3.31
1.95
0.72
0.1
0.51
2.15
4.87
8.34
12.04
15.53
18.45
20.67
22.25
23.34
24.17
24.93
25.72
26.56
27.41
28.21
28.91
29.45
29.78
29.9
29.82
29.65
29.5
29.5
29.7
30.03
30.34
30.34
29.71
28.13
25.36
21.25
15.8
9.16
1.72
-5.94
-13
-18.62
-22.09
-23.08
-21.76
-18.74
-14.88
-10.94
-7.38
-4.3
-1.57
0.92
3.13
4.84
5.78
5.8
4.97
3.62
2.17
1.06
0.52
0.53
0.82
1.01
0.83
0.25
-0.46
-0.92
-0.8
-0.03
1.08
1.93
1.74
-0.15
-4.07
-9.92
-17.15
-24.87
-32.07
-37.84
-41.51
-42.77
-41.54
-38.04
-32.71
-26.23
-19.53
-13.62
-9.35
-7.24
-7.32
-9.22
-12.36
-16.14
-20.09
-23.78
-26.79
-28.58
-28.58
-26.34
-21.67
-14.73
-5.94
4.24
15.41
27.25
39.32
50.89
60.81
67.78
70.76
69.49
64.8
58.38
52.13
47.46
44.76
43.49
42.8
42.2
41.98
43.06
46.35
52.04
59.38
67.03
73.82
79.32
83.95
88.36
92.58
95.58
95.51
90.67
80.39
65.68
48.82
32.48
18.65
7.96
-0.25
-7.37
-14.69
-22.85
-31.68
-40.46
-48.39
-55
-60.32
-64.82
-69.15
-73.82
-78.91
-83.81
-87.34
-88.02
-84.62
-76.74
-65.2
-51.92
-39.57
-30.95
-28.27
-32.71
-43.71
-58.39
-71.38
-75.6
-64.65
-35.78
7.63
55.97
95.96
115.2
106.73
71.58
18.18
-40.9
-93.22
-130.07
-148.09
-148.78
-136.58
-116.64
-93.21
-68.94
-45.11
-22.36
-1.35
16.92
31.35
41.38
47.29
50.21
51.51
52.36
53.38
54.97
57.68
62.53
70.87
83.72
100.97
120.83
139.91
153.8
158.42
151.17
131.92
103.11
69.01
34.41
3.29
-22.02
-40.86
-53.61
-60.97
-63.66
-62.81
-60.65
-60.73
-67.12
-82.51
-106.63
-135.56
-163.07
-183.12
-192.26
-190.67
-181.41
-168.77
-156.8
-149.08
-148.87
-158.94
-180.34
-210.95
-244.96
-274.29
-291.79
-293.98
-282.34
-261.77
-237.56
-212.77
-187.34
-159.41
-127.51
-92.26
-56.33
-23.27
4.18
24.89
39.21
48.34
53.57
56.04
56.69
56.38
55.97
56.34
58.33
62.31
68.12
74.87
81.14
85.37
86.47
84.13
78.94
72.2
65.37
59.63
55.45
52.59
50.22
47.39
43.37
37.95
31.43
24.44
17.7
11.78
6.92
3
-0.37
-3.6
-6.96
-10.54
-14.17
-17.68
-20.91
-23.73
-25.73
-26.12
-23.62
-16.74
-4.35
13.79
36.98
63.87
93.03
123.13
152.79
180.01
202.01
215.54
218.07
208.78
189.17
162.63
133.2
104.23
77.56
53.59
31.91
12.13
-5.86
-21.94
-36.14
-48.85
-60.72
-72.35
-83.99
-95.54
-106.51
-116.48
-125.18
-132.7
-139.22
-144.9
-149.56
-152.59
-153.21
-150.58
-144.27
-134.43
-121.82
-107.52
-92.48
-77.07
-60.92
-43.25
-23.31
-0.84
23.75
49.64
75.85
101.47
125.69
147.7
166.63
181.73
192.6
199.4
202.75
203.44
202.1
199.04
194.38
188.23
180.79
172.38
163.4
154.37
145.98
139.17
134.75
133
133.28
134.03
133.3
129.57
122.16
111.08
96.48
78.07
55.25
27.63
-4.39
-39.38
-75.29
-110.02
-141.95
-169.95
-193.3
-211.42
-224.03
-231.26
-233.62
-231.73
-225.97
-216.36
-202.85
-185.75
-165.84
-144.02
-120.79
-95.94
-68.99
-40.01
-9.96
19.44
46.37
69.83
89.82
106.85
121.16
132.11
138.31
138.41
131.98
119.91
104.26
87.49
71.68
58.18
47.51
39.69
34.49
31.52
30.18
29.64
28.9
26.98
23.25
17.52
10.13
1.84
-6.43
-13.78
-19.58
-23.57
-25.9
-27.02
-27.54
-28.05
-28.93
-30.31
-32.11
-34.07
-35.93
-37.4
-38.21
-38.06
-36.64
-33.59
-28.62
-21.62
-12.79
-2.7
7.79
17.69
26.18
32.71
37.16
39.69
40.6
40.23
38.88
36.88
34.68
32.75
31.56
31.3
31.75
32.37
32.36
31.03
27.98
23.29
17.42
11.11
5.12
0.16
-3.27
-4.9
-4.86
-3.61
-1.95
-0.85
-1.07
-2.94
-6.29
-10.5
-14.8
-18.52
-21.29
-23.1
-24.16
-24.75
-25.09
-25.27
-25.19
-24.65
-23.43
-21.36
-18.42
-14.77
-10.64
-6.26
-1.88
2.25
5.74
8.1
8.93
8.14
6.11
3.57
1.36
-0.01
-0.48
-0.37
-0.15
-0.08
-0.18
-0.34
-0.52
-0.83
-1.55
-2.84
-4.64
-6.67
-8.56
-10.09
-11.33
-12.53
-14.03
-16.05
-18.54
-21.19
-23.51
-25.02
-25.38
-24.5
-22.56
-19.96
-17.15
-14.57
-12.48
-11.07
-10.37
-10.36
-10.92
-11.83
-12.82
-13.58
-13.95
-13.94
-13.76
-13.72
-14.06
-14.84
-15.89
-16.87
-17.44
-17.39
-16.69
-15.53
-14.18
-12.95
-12.08
-11.7
-11.79
-12.09
-12.2
-11.61
-9.94
-7.05
-3.1
1.44
6.08
10.37
14.06
17.04
19.25
20.59
21
20.53
19.41
18.03
16.84
16.12
15.87
15.76
15.29
14.01
11.69
8.48
4.79
1.16
-2.05
-4.67
-6.84
-8.79
-10.79
-13.01
-15.52
-18.31
-21.23
-23.94
-25.84
-26.31
-24.96
-21.92
-17.89
-13.81
-10.53
-8.32
-6.92
-5.74
-4.29
-2.47
-0.49
1.3
2.69
3.69
4.46
5.04
5.35
5.17
4.32
2.81
0.86
-1.18
-3.03
-4.55
-5.81
-7.04
-8.5
-10.37
-12.67
-15.21
-17.58
-19.34
-20.14
-19.86
-18.71
-17.1
-15.44
-14.04
-12.94
-11.98
-10.84
-9.21
-6.8
-3.43
0.94
6.14
11.61
16.5
19.83
20.85
19.33
15.62
10.62
5.32
0.56
-3.32
-6.32
-8.72
-10.67
-12.17
-13.01
-13
-12.07
-10.47
-8.62
-7.01
-5.91
-5.27
-4.74
-3.84
-2.21
0.13
2.86
5.46
7.5
8.82
9.51
9.78
9.8
9.61
9.12
8.25
7.07
5.74
4.42
3.21
2.13
1.11
0.09
-0.98
-2.15
-3.55
-5.29
-7.43
-9.91
-12.55
-15.11
-17.33
-19.03
-20.01
-20.16
-19.4
-17.83
-15.69
-13.33
-11.13
-9.27
-7.69
-6.22
-4.66
-2.98
-1.36
-0.12
0.49
0.39
-0.22
-1.08
-1.85
-2.4
-2.76
-3.08
-3.55
-4.29
-5.3
-6.51
-7.82
-9.17
-10.46
-11.55
-12.34
-12.84
-13.22
-13.74
-14.5
-15.34
-15.7
-14.89
-12.42
-8.3
-3.05
2.49
7.57
11.82
15.23
18.02
20.35
22.24
23.62
24.48
24.89
25
24.92
24.67
24.18
23.4
22.31
20.96
19.36
17.52
15.44
13.14
10.77
8.53
6.59
4.99
3.55
1.99
0.03
-2.47
-5.39
-8.45
-11.2
-13.19
-14.12
-13.86
-12.55
-10.51
-8.11
-5.75
-3.66
-1.99
-0.72
0.16
0.75
1.08
1.22
1.2
1.12
1.07
1.07
1.15
1.26
1.32
1.25
0.97
0.44
-0.31
-1.18
-2.08
-2.92
-3.77
-4.78
-6.21
-8.22
-10.8
-13.62
-16.17
-17.88
-18.35
-17.56
-15.76
-13.38
-10.82
-8.34
-6.04
-3.94
-2.08
-0.61
0.27
0.48
0.14
-0.46
-0.95
-1.06
-0.78
-0.28
0.08
0.03
-0.57
-1.61
-2.79
-3.83
-4.53
-4.98
-5.37
-6.02
-7.07
-8.53
-10.25
-12.01
-13.64
-15
-15.92
-16.13
-15.34
-13.28
-9.89
-5.47
-0.52
4.38
8.83
12.73
16.24
19.56
22.76
25.65
27.87
29.07
29.13
28.16
26.5
24.53
22.53
20.62
18.72
16.7
14.34
11.46
7.87
3.45
-1.74
-7.42
-13.01
-17.83
-21.37
-23.52
-24.81
-26.25
-28.9
-33.34
-39.26
-45.37
-49.89
-51.39
-49.5
-45.29
-40.93
-38.72
-39.97
-44.35
-49.85
-53.7
-53.61
-48.81
-40.68
-32.36
-27.97
-31.51
-45.73
-71.06
-104.95
-141.81
-173.75
-192.4
-191.41
-168.58
-127.06
-74.4
-19.97
28.3
66.47
95.06
117.54
137.44
155.98
171.3
179.75
178.3
166.56
147.23
124.75
103.07
83.97
66.87
50.06
32.51
14.94
-0.49
-11.48
-17
-18
-16.79
-15.75
-16.14
-17.66
-18.97
-18.73
-16.53
-13.2
-10.49
-10.19
-13.42
-20.13
-29.18
-38.75
-47.07
-52.95
-56.23
-57.63
-58.52
-60.3
-63.92
-69.5
-76.13
-81.99
-84.58
-81.28
-70.04
-50.17
-22.87
8.8
40.68
68.83
90.67
105.47
113.94
117.29
116.28
110.9
100.82
86.1
67.76
47.71
28.12
10.79
-3.36
-14.18
-21.96
-27.03
-29.57
-29.65
-27.32
-22.89
-16.99
-10.64
-5.11
-1.59
-0.74
-2.31
-5.13
-7.5
-7.9
-5.52
-0.65
5.65
12.1
17.8
22.44
26.19
29.39
32.15
34.39
35.93
36.72
36.88
36.63
36.11
35.27
34
32.24
30.14
28.05
26.39
25.52
25.48
25.99
26.46
26.14
24.35
20.77
15.6
9.62
3.99
-0.09
-1.83
-1.07
1.7
5.6
9.74
13.51
16.63
19.07
20.82
21.74
21.71
20.67
18.77
16.45
14.28
12.7
11.94
11.91
12.27
12.59
12.51
11.87
10.78
9.48
8.26
7.23
6.24
4.94
2.97
0.08
-3.63
-7.76
-11.71
-14.86
-16.82
-17.41
-16.77
-15.21
-13.11
-10.8
-8.46
-6.15
-3.84
-1.53
0.64
2.41
3.52
3.82
3.34
2.28
0.92
-0.46
-1.66
-2.53
-3.03
-3.27
-3.52
-4.2
-5.68
-8.12
-11.26
-14.43
-16.71
-17.39
-16.28
-13.86
-11.15
-9.18
-8.51
-8.85
-9.22
-8.33
-5.3
-0.09
6.39
12.72
17.54
20.28
21.31
21.69
22.59
24.63
27.5
30.13
31.23
29.97
26.4
21.55
16.96
14.12
14.02
16.9
22.2
28.41
33.06
32.92
24.93
7.6
-17.56
-45.52
-68.79
-79.88
-74.2
-51.91
-17.97
19.8
53.56
77.87
90.64
92.53
85.64
72.24
54.29
33.64
12.41
-6.88
-21.79
-30.66
-33.2
-30.66
-25.32
-19.53
-14.86
-11.65
-9.16
-6.26
-2.22
2.81
7.8
11.34
12.31
10.41
6.29
1.33
-2.92
-5.28
-5.26
-3.14
0.26
3.75
6.18
6.72
5.19
2.17
-1.06
-2.96
-2.24
1.7
8.49
17.05
26.11
34.72
42.54
49.76
56.65
63.2
68.91
72.93
74.52
73.55
70.87
68.42
68.97
75.48
90.2
113.82
144.79
179.26
211.6
235.38
244.75
235.56
206.47
159.66
100.99
39.06
-16.63
-58.18
-81.47
-87.06
-79.34
-64.51
-48.34
-34.92
-26.62
-24.92
-30.96
-45.52
-68.17
-96.65
-126.95
-154.35
-174.95
-186.77
-190.03
-186.35
-177.91
-166.51
-153.27
-138.77
-123.38
-107.63
-92.25
-78.11
-65.98
-56.31
-49
-43.51
-39.06
-34.98
-30.9
-26.86
-23.17
-20.23
-18.4
-17.84
-18.52
-20.28
-22.9
-26.17
-29.84
-33.59
-36.85
-38.69
-38
-33.84
-25.96
-15.12
-3.05
8.13
16.55
21.35
22.81
22.17
21.13
21.31
23.81
29.16
37.32
47.8
59.83
72.46
84.71
95.61
104.35
110.33
113.17
112.91
109.96
105.14
99.4
93.65
88.52
84.19
80.55
77.38
74.55
72.11
70.19
68.81
67.72
66.39
64.2
60.68
55.73
49.59
42.61
34.97
26.46
16.64
5.17
-7.75
-21.29
-34.14
-44.91
-52.7
-57.34
-59.42
-59.99
-60.09
-60.44
-61.31
-62.58
-64.01
-65.38
-66.58
-67.46
-67.81
-67.26
-65.45
-62.24
-57.8
-52.67
-47.52
-42.9
-38.95
-35.43
-31.93
-28.14
-24.04
-19.93
-16.21
-13.23
-11.07
-9.6
-8.56
-7.72
-6.96
-6.28
-5.73
-5.4
-5.33
-5.54
-6.04
-6.76
-7.67
-8.76
-10.07
-11.71
-13.81
-16.42
-19.47
-22.72
-25.76
-28.1
-29.3
-29.06
-27.36
-24.36
-20.43
-15.96
-11.3
-6.67
-2.25
1.85
5.41
8.24
10.17
11.21
11.52
11.4
11.13
10.84
10.55
10.18
9.6
8.77
7.75
6.65
5.57
4.58
3.65
2.72
1.71
0.48
-1.1
-3.22
-6.02
-9.45
-13.23
-16.77
-19.38
-20.44
-19.67
-17.19
-13.47
-9.14
-4.72
-0.52
3.34
6.83
9.9
12.47
14.46
15.86
16.77
17.31
17.56
17.57
17.36
16.95
16.4
15.77
15.07
14.25
13.22
11.89
10.28
8.49
6.71
5.06
3.6
2.27
0.94
-0.52
-2.23
-4.22
-6.51
-9.05
-11.74
-14.35
-16.57
-18.01
-18.29
-17.22
-14.87
-11.56
-7.75
-3.9
-0.3
2.97
5.99
8.83
11.43
13.61
15.14
15.91
15.99
15.66
15.23
14.98
14.94
14.98
14.88
14.47
13.74
12.84
11.97
11.24
10.67
10.11
9.37
8.31
6.94
5.34
3.66
1.99
0.37
-1.31
-3.12
-5.2
-7.6
-10.33
-13.29
-16.24
-18.78
-20.37
-20.58
-19.14
-16.16
-12.08
-7.55
-3.11
0.85
4.21
6.99
9.2
10.79
11.7
11.95
11.68
11.15
10.6
10.19
9.94
9.76
9.54
9.17
8.62
7.96
7.27
6.65
6.1
5.56
4.86
3.87
2.54
0.95
-0.7
-2.11
-3.09
-3.56
-3.64
-3.65
-4.01
-5.1
-7.08
-9.79
-12.71
-15.16
-16.48
-16.29
-14.63
-11.87
-8.58
-5.32
-2.45
-0.15
1.55
2.7
3.36
3.59
3.47
3.13
2.74
2.47
2.44
2.64
2.99
3.34
3.57
3.66
3.64
3.56
3.41
3.12
2.54
1.58
0.24
-1.37
-2.99
-4.38
-5.38
-5.99
-6.35
-6.83
-7.77
-9.46
-11.93
-14.95
-17.98
-20.39
-21.66
-21.51
-19.99
-17.39
-14.15
-10.69
-7.36
-4.37
-1.85
0.16
1.67
2.76
3.57
4.18
4.67
5.07
5.34
5.47
5.43
5.23
4.9
4.5
4.11
3.77
3.53
3.36
3.17
2.85
2.32
1.54
0.53
-0.59
-1.78
-3.01
-4.31
-5.78
-7.56
-9.69
-12.12
-14.63
-16.81
-18.23
-18.52
-17.52
-15.36
-12.43
-9.25
-6.28
-3.85
-2.01
-0.67
0.38
1.24
1.95
2.45
2.68
2.6
2.29
1.91
1.64
1.62
1.79
2.01
2.05
1.76
1.14
0.34
-0.46
-1.14
-1.72
-2.35
-3.18
-4.35
-5.9
-7.83
-10.09
-12.66
-15.37
-17.92
-19.83
-20.61
-19.93
-17.83
-14.71
-11.19
-7.89
-5.13
-2.99
-1.27
0.21
1.53
2.6
3.28
3.49
3.3
2.89
2.46
2.14
1.86
1.48
0.81
-0.23
-1.6
-3.09
-4.48
-5.59
-6.42
-7.11
-7.91
-9.05
-10.62
-12.61
-14.9
-17.29
-19.58
-21.52
-22.77
-23
-21.93
-19.54
-16.06
-11.96
-7.75
-3.81
-0.32
2.69
5.22
7.2
8.46
8.88
8.5
7.58
6.48
5.59
5.06
4.84
4.74
4.55
4.16
3.59
2.95
2.34
1.79
1.23
0.54
-0.42
-1.8
-3.72
-6.27
-9.41
-12.96
-16.48
-19.42
-21.2
-21.51
-20.34
-18.04
-15.1
-11.96
-8.92
-6.11
-3.55
-1.28
0.57
1.87
2.53
2.6
2.26
1.78
1.42
1.37
1.66
2.13
2.54
2.67
2.37
1.71
0.84
-0.03
-0.81
-1.56
-2.47
-3.77
-5.71
-8.33
-11.53
-15.01
-18.32
-20.99
-22.56
-22.77
-21.55
-19.12
-15.81
-12.08
-8.27
-4.63
-1.24
1.9
4.77
7.35
9.5
11.12
12.2
12.82
13.19
13.49
13.77
13.93
13.76
13.04
11.72
9.92
7.92
5.99
4.28
2.78
1.33
-0.29
-2.26
-4.66
-7.49
-10.65
-13.86
-16.71
-18.72
-19.42
-18.54
-16.17
-12.61
-8.37
-3.92
0.46
4.65
8.61
12.28
15.48
17.97
19.58
20.27
20.2
19.7
19.04
18.42
17.85
17.23
16.38
15.17
13.57
11.67
9.65
7.66
5.81
4.09
2.33
0.3
-2.16
-5.13
-8.5
-11.99
-15.22
-17.76
-19.26
-19.45
-18.22
-15.65
-12.07
-7.91
-3.63
0.46
4.25
7.78
11.13
14.3
17.12
19.37
20.79
21.34
21.12
20.42
19.58
18.84
18.31
17.88
17.35
16.43
14.97
12.91
10.35
7.47
4.44
1.39
-1.64
-4.66
-7.72
-10.91
-14.26
-17.7
-21.03
-23.91
-25.89
-26.64
-25.93
-23.82
-20.54
-16.43
-11.86
-7.11
-2.38
2.24
6.68
10.85
14.61
17.73
20.03
21.36
21.78
21.52
20.94
20.41
20.12
20.07
20.05
19.87
19.32
18.43
17.27
15.95
14.54
12.97
11.19
9.09
6.68
4.01
1.16
-1.88
-5.19
-8.9
-13.05
-17.45
-21.63
-24.93
-26.71
-26.51
-24.28
-20.33
-15.2
-9.57
-4
1.13
5.67
9.59
12.95
15.8
18.1
19.83
20.94
21.55
21.8
21.89
21.96
22
21.93
21.62
21.04
20.21
19.24
18.2
17.08
15.81
14.26
12.37
10.16
7.74
5.25
2.79
0.36
-2.15
-4.87
-7.93
-11.19
-14.34
-16.82
-18.1
-17.9
-16.33
-13.83
-10.94
-8.13
-5.52
-3.01
-0.38
2.48
5.49
8.42
10.98
13.04
14.57
15.67
16.49
17.12
17.58
17.81
17.77
17.45
16.91
16.28
15.68
15.12
14.45
13.44
11.86
9.68
7.09
4.46
2.06
0.04
-1.77
-3.67
-5.97
-8.82
-12.14
-15.61
-18.77
-21.16
-22.37
-22.15
-20.48
-17.53
-13.7
-9.41
-5.07
-0.91
2.93
6.4
9.45
12
13.97
15.36
16.22
16.71
16.98
17.11
17.13
17
16.71
16.33
15.97
15.73
15.57
15.33
14.76
13.66
11.98
9.85
7.54
5.28
3.21
1.26
-0.69
-2.78
-5.11
-7.72
-10.6
-13.64
-16.61
-19.11
-20.64
-20.74
-19.16
-16.07
-11.9
-7.3
-2.88
1
4.2
6.82
9.04
10.98
12.65
14.02
15
15.6
15.9
16.01
16.04
16.03
15.94
15.71
15.25
14.52
13.52
12.26
10.79
9.14
7.31
5.31
3.15
0.89
-1.42
-3.67
-5.81
-7.8
-9.7
-11.66
-13.85
-16.32
-18.9
-21.2
-22.67
-22.84
-21.49
-18.77
-15.11
-11.08
-7.14
-3.52
-0.23
2.82
5.7
8.35
10.62
12.38
13.56
14.24
14.58
14.7
14.71
14.58
14.26
13.66
12.74
11.56
10.23
8.85
7.52
6.22
4.88
3.41
1.73
-0.19
-2.29
-4.52
-6.88
-9.45
-12.35
-15.6
-19.07
-22.38
-25.04
-26.57
-26.68
-25.38
-22.95
-19.83
-16.46
-13.14
-9.99
-7.01
-4.21
-1.61
0.67
2.49
3.74
4.36
4.42
4.1
3.65
3.29
3.21
3.44
3.9
4.42
4.82
4.97
4.87
4.6
4.25
3.9
3.54
3.11
2.51
1.61
0.26
-1.62
-4.1
-7.08
-10.28
-13.23
-15.42
-16.36
-15.84
-13.93
-11
-7.54
-4.02
-0.78
2.06
4.48
6.54
8.28
9.67
10.72
11.43
11.86
12.1
12.24
12.28
12.23
12.05
11.75
11.36
10.91
10.39
9.76
8.95
7.91
6.65
5.2
3.6
1.87
-0.07
-2.27
-4.77
-7.54
-10.54
-13.65
-16.74
-19.59
-21.86
-23.18
-23.24
-21.96
-19.55
-16.39
-12.95
-9.59
-6.42
-3.43
-0.53
2.19
4.54
6.25
7.15
7.3
6.99
6.59
6.37
6.36
6.35
6.06
5.29
4.05
2.53
0.95
-0.5
-1.82
-3.07
-4.35
-5.66
-7.02
-8.48
-10.14
-12.21
-14.75
-17.66
-20.55
-22.89
-24.15
-24.03
-22.56
-20.01
-16.82
-13.38
-9.93
-6.57
-3.29
-0.13
2.81
5.34
7.27
8.52
9.12
9.29
9.25
9.17
9.06
8.79
8.2
7.19
5.83
4.31
2.85
1.59
0.52
-0.48
-1.59
-2.88
-4.4
-6.1
-7.97
-10.03
-12.26
-14.52
-16.53
-17.86
-18.13
-17.09
-14.76
-11.48
-7.72
-3.97
-0.55
2.37
4.81
6.84
8.52
9.85
10.75
11.16
11.07
10.52
9.62
8.51
7.31
6.09
4.85
3.56
2.23
0.91
-0.34
-1.43
-2.38
-3.34
-4.51
-6.14
-8.34
-11.14
-14.36
-17.78
-21.05
-23.85
-25.86
-26.81
-26.5
-24.86
-22.02
-18.26
-13.96
-9.48
-5.15
-1.19
2.24
5.02
7.1
8.46
9.14
9.24
8.95
8.44
7.86
7.35
6.91
6.55
6.21
5.85
5.45
5.02
4.59
4.16
3.68
3.06
2.14
0.79
-1.13
-3.63
-6.61
-9.78
-12.69
-14.84
-15.79
-15.34
-13.57
-10.85
-7.63
-4.35
-1.21
1.79
4.75
7.7
10.52
12.99
14.85
16.01
16.57
16.83
17.11
17.65
18.42
19.24
19.82
19.89
19.4
18.45
17.25
15.99
14.64
13.1
11.14
8.63
5.57
2.15
-1.3
-4.42
-6.82
-8.21
-8.42
-7.45
-5.49
-2.84
0.13
3.11
5.88
8.36
10.52
12.27
13.56
14.32
14.63
14.69
14.81
15.18
15.83
16.53
16.94
16.8
16
14.7
13.2
11.73
10.37
9.02
7.5
5.65
3.41
0.79
-2.2
-5.55
-9.16
-12.79
-15.95
-18.03
-18.55
-17.31
-14.53
-10.73
-6.57
-2.54
1.14
4.46
7.49
10.2
12.44
13.98
14.64
14.43
13.59
12.49
11.47
10.73
10.21
9.67
8.83
7.57
5.95
4.17
2.54
1.16
-0.02
-1.24
-2.81
-5.01
-7.98
-11.62
-15.68
-19.68
-23.1
-25.38
-26.16
-25.29
-22.91
-19.42
-15.3
-11.01
-6.84
-2.98
0.55
3.7
6.38
8.47
9.87
10.55
10.64
10.31
9.79
9.2
8.55
7.74
6.71
5.42
3.98
2.51
1.15
-0.12
-1.42
-2.98
-5.04
-7.75
-11.11
-15.04
-19.33
-23.73
-27.99
-31.86
-35.04
-37.25
-38.23
-37.81
-35.96
-32.84
-28.67
-23.75
-18.39
-12.91
-7.62
-2.81
1.31
4.59
7.02
8.66
9.7
10.35
10.87
11.53
12.5
13.86
15.48
17.11
18.47
19.36
19.76
19.76
19.48
18.9
17.95
16.57
14.76
12.63
10.34
7.94
5.39
2.6
-0.44
-3.53
-6.29
-8.23
-9.02
-8.55
-7
-4.79
-2.38
-0.17
1.62
2.95
3.92
4.63
5.16
5.47
5.49
5.2
4.65
4.01
3.44
3.02
2.72
2.43
2.02
1.44
0.73
-0.06
-0.81
-1.51
-2.18
-2.91
-3.83
-5.04
-6.63
-8.59
-10.82
-13.17
-15.37
-17.15
-18.23
-18.38
-17.47
-15.5
-12.59
-8.99
-5.02
-0.96
2.92
6.48
9.56
12.08
13.93
15.09
15.58
15.59
15.31
14.97
14.71
14.52
14.35
14.07
13.62
13.01
12.28
11.51
10.71
9.87
8.88
7.59
5.85
3.56
0.72
-2.53
-5.92
-9.12
-11.74
-13.44
-14
-13.42
-11.85
-9.6
-6.99
-4.28
-1.56
1.13
3.78
6.29
8.49
10.21
11.38
12.08
12.5
12.77
12.98
13.05
12.89
12.41
11.66
10.76
9.84
8.93
7.94
6.67
4.92
2.57
-0.33
-3.63
-7.06
-10.35
-13.17
-15.21
-16.18
-15.88
-14.3
-11.64
-8.29
-4.66
-1.13
2.15
5.14
7.84
10.21
12.08
13.3
13.84
13.89
13.77
13.77
14.02
14.43
14.8
14.92
14.7
14.2
13.5
12.7
11.82
10.86
9.78
8.58
7.21
5.58
3.63
1.38
-0.96
-3.03
-4.43
-4.88
-4.31
-2.91
-1.04
1
2.99
4.89
6.74
8.61
10.43
12.08
13.37
14.14
14.35
14.11
13.56
12.87
12.13
11.34
10.45
9.47
8.43
7.42
6.52
5.74
4.97
4.01
2.64
0.73
-1.72
-4.6
-7.69
-10.77
-13.55
-15.77
-17.15
-17.48
-16.72
-15.02
-12.74
-10.28
-7.97
-5.92
-4.1
-2.39
-0.76
0.67
1.68
2.1
1.89
1.16
0.11
-1.03
-2.11
-3.02
-3.74
-4.32
-4.86
-5.51
-6.41
-7.61
-9.09
-10.71
-12.31
-13.8
-15.18
-16.57
-18.06
-19.68
-21.28
-22.52
-23
-22.4
-20.65
-17.89
-14.51
-10.93
-7.46
-4.2
-1.08
1.99
5.02
7.9
10.46
12.54
14.15
15.37
16.32
17.12
17.84
18.52
19.17
19.8
20.38
20.88
21.19
21.26
21.05
20.51
19.59
18.2
16.25
13.68
10.55
6.99
3.17
-0.64
-4.18
-7.11
-9.12
-9.97
-9.59
-8.09
-5.81
-3.15
-0.47
1.98
4.12
5.93
7.35
8.32
8.73
8.6
8.05
7.31
6.62
6.11
5.71
5.2
4.36
3.11
1.53
-0.14
-1.65
-2.88
-3.83
-4.69
-5.68
-6.96
-8.59
-10.54
-12.74
-15.01
-17.17
-18.96
-20.1
-20.31
-19.44
-17.52
-14.79
-11.64
-8.54
-5.83
-3.66
-1.99
-0.67
0.39
1.18
1.62
1.65
1.35
0.98
0.82
1.09
1.83
2.87
3.94
4.83
5.49
6.03
6.65
7.48
8.45
9.3
9.64
9.14
7.6
5.09
1.8
-1.94
-5.78
-9.3
-12.14
-13.96
-14.6
-14.12
-12.83
-11.16
-9.52
-8.12
-6.96
-5.93
-4.99
-4.21
-3.81
-3.9
-4.46
-5.23
-5.84
-6.01
-5.75
-5.25
-4.86
-4.86
-5.37
-6.32
-7.51
-8.74
-9.89
-10.96
-12.08
-13.42
-15.18
-17.41
-19.98
-22.57
-24.74
-26.01
-26.04
-24.75
-22.3
-19.04
-15.43
-11.88
-8.66
-5.93
-3.7
-1.99
-0.79
-0.12
0.05
-0.13
-0.39
-0.43
-0.03
0.83
1.97
3.09
3.88
4.16
3.9
3.21
2.22
1.05
-0.25
-1.74
-3.5
-5.69
-8.38
-11.57
-15.07
-18.54
-21.5
-23.5
-24.21
-23.52
-21.59
-18.77
-15.45
-11.98
-8.59
-5.4
-2.5
-0.02
1.9
3.13
3.64
3.57
3.13
2.6
2.15
1.84
1.6
1.36
1.01
0.53
-0.09
-0.83
-1.7
-2.71
-3.88
-5.25
-6.9
-8.93
-11.38
-14.1
-16.8
-19.03
-20.34
-20.39
-19.11
-16.65
-13.35
-9.63
-5.91
-2.54
0.19
2.12
3.22
3.62
3.56
3.31
3.09
3.03
3.15
3.43
3.82
4.22
4.54
4.65
4.43
3.83
2.88
1.68
0.35
-1.07
-2.66
-4.62
-7.11
-10.1
-13.37
-16.38
-18.53
-19.33
-18.62
-16.61
-13.77
-10.66
-7.68
-5.05
-2.78
-0.83
0.83
2.17
3.16
3.82
4.21
4.43
4.54
4.55
4.41
4.11
3.66
3.07
2.36
1.54
0.53
-0.72
-2.22
-4
-6.04
-8.39
-11.03
-13.89
-16.69
-19.01
-20.37
-20.36
-18.85
-16.01
-12.26
-8.13
-4.1
-0.47
2.61
5.13
7.16
8.76
9.98
10.86
11.41
11.67
11.63
11.29
10.71
9.93
9
7.98
6.9
5.76
4.56
3.32
2
0.59
-1.03
-3.01
-5.47
-8.43
-11.71
-14.9
-17.44
-18.76
-18.52
-16.65
-13.5
-9.61
-5.58
-1.88
1.31
4.04
6.46
8.7
10.7
12.3
13.37
13.86
13.84
13.51
13
12.34
11.51
10.46
9.29
8.16
7.27
6.68
6.28
5.77
4.86
3.28
0.99
-1.92
-5.22
-8.61
-11.74
-14.2
-15.57
-15.55
-14.04
-11.22
-7.55
-3.58
0.23
3.67
6.72
9.56
12.26
14.76
16.87
18.35
19.1
19.22
18.97
18.6
18.25
17.86
17.27
16.35
15.12
13.75
12.45
11.32
10.28
9.11
7.58
5.53
2.97
-0.01
-3.3
-6.85
-10.51
-14.05
-17.02
-18.89
-19.2
-17.76
-14.79
-10.79
-6.37
-1.99
2.12
6
9.67
13.07
15.97
18.07
19.23
19.51
19.16
18.55
17.94
17.45
17.04
16.56
15.9
15.03
13.99
12.82
11.54
10.08
8.35
6.32
4.02
1.53
-1.04
-3.74
-6.59
-9.67
-12.9
-16
-18.52
-20.01
-20.16
-18.87
-16.4
-13.11
-9.44
-5.7
-2.12
1.23
4.33
7.18
9.71
11.83
13.41
14.37
14.78
14.81
14.69
14.65
14.74
14.88
14.82
14.36
13.39
11.97
10.29
8.55
6.91
5.35
3.79
2.1
0.21
-1.89
-4.19
-6.68
-9.4
-12.22
-14.9
-17.01
-18.09
-17.81
-16.13
-13.34
-9.87
-6.17
-2.49
1.09
4.55
7.83
10.78
13.22
15.01
16.14
16.74
17.04
17.26
17.57
18
18.44
18.68
18.53
17.86
16.71
15.25
13.72
12.3
11.04
9.84
8.48
6.79
4.6
1.87
-1.36
-4.87
-8.33
-11.23
-13.08
-13.46
-12.22
-9.53
-5.8
-1.59
2.62
6.47
9.78
12.5
14.59
16
16.65
16.6
15.98
15.12
14.4
14.08
14.22
14.6
14.86
14.68
13.95
12.75
11.3
9.79
8.32
6.85
5.28
3.56
1.64
-0.48
-2.85
-5.48
-8.38
-11.34
-13.98
-15.81
-16.4
-15.57
-13.4
-10.29
-6.71
-3.08
0.36
3.54
6.49
9.16
11.38
12.96
13.76
13.91
13.75
13.67
13.97
14.64
15.4
15.8
15.53
14.47
12.81
10.86
8.96
7.29
5.91
4.73
3.65
2.48
1.02
-0.96
-3.58
-6.76
-10.13
-13.12
-15.14
-15.8
-15.05
-13.15
-10.56
-7.78
-5.08
-2.6
-0.29
1.88
3.91
5.65
6.98
7.81
8.23
8.41
8.58
8.86
9.23
9.54
9.61
9.31
8.6
7.58
6.36
5.03
3.63
2.11
0.39
-1.67
-4.16
-7.11
-10.49
-14.09
-17.63
-20.71
-22.93
-23.96
-23.63
-21.97
-19.18
-15.6
-11.61
-7.56
-3.7
-0.14
3.04
5.77
8.01
9.66
10.66
11.04
10.9
10.43
9.86
9.34
8.93
8.53
7.94
7.03
5.8
4.36
2.9
1.58
0.44
-0.63
-1.8
-3.2
-4.95
-7.01
-9.35
-11.86
-14.36
-16.58
-18.15
-18.7
-17.99
-16.02
-13.06
-9.62
-6.2
-3.15
-0.57
1.65
3.68
5.64
7.44
8.9
9.79
10.06
9.83
9.36
8.95
8.73
8.67
8.6
8.38
7.9
7.22
6.44
5.61
4.68
3.52
2.01
0.11
-2.07
-4.41
-6.75
-9.1
-11.56
-14.28
-17.31
-20.52
-23.59
-26.05
-27.43
-27.46
-26.09
-23.55
-20.21
-16.51
-12.74
-9.16
-5.88
-2.98
-0.53
1.4
2.79
3.7
4.27
4.7
5.11
5.58
6.04
6.35
6.34
5.92
5.17
4.25
3.39
2.71
2.19
1.64
0.84
-0.43
-2.22
-4.5
-7.13
-9.91
-12.61
-14.92
-16.44
-16.82
-15.84
-13.53
-10.24
-6.49
-2.83
0.39
3.03
5.13
6.79
8.03
8.84
9.18
9.1
8.75
8.33
8.04
7.91
7.88
7.79
7.48
6.88
6.01
4.96
3.83
2.7
1.57
0.39
-0.99
-2.72
-4.91
-7.57
-10.56
-13.52
-16.03
-17.67
-18.18
-17.5
-15.72
-13.08
-9.84
-6.27
-2.59
0.97
4.21
6.93
9
10.38
11.08
11.26
11.11
10.81
10.47
10.08
9.54
8.7
7.5
5.99
4.37
2.82
1.5
0.48
-0.29
-0.93
-1.64
-2.65
-4.13
-6.19
-8.78
-11.66
-14.39
-16.48
-17.49
-17.21
-15.66
-13.12
-9.99
-6.65
-3.39
-0.29
2.63
5.37
7.84
9.85
11.2
11.8
11.77
11.39
11.03
10.9
11.02
11.17
11.07
10.5
9.47
8.17
6.86
5.71
4.73
3.76
2.57
1.03
-0.9
-3.17
-5.68
-8.33
-10.97
-13.38
-15.22
-16.16
-16
-14.75
-12.62
-9.98
-7.16
-4.39
-1.76
0.7
2.94
4.84
6.24
7.01
7.14
6.77
6.2
5.75
5.63
5.89
6.38
6.84
7.05
6.89
6.4
5.72
4.95
4.09
3.07
1.74
0.07
-1.94
-4.24
-6.75
-9.38
-11.96
-14.24
-15.87
-16.5
-15.86
-13.95
-11.02
-7.51
-3.94
-0.68
2.05
4.23
5.87
7.04
7.68
7.77
7.32
6.45
5.4
4.45
3.79
3.4
3.13
2.76
2.14
1.24
0.18
-0.85
-1.75
-2.5
-3.18
-3.97
-5
-6.35
-8.04
-10.05
-12.29
-14.64
-16.87
-18.66
-19.64
-19.55
-18.26
-15.9
-12.78
-9.33
-5.99
-3.05
-0.67
1.19
2.59
3.63
4.38
4.86
5.08
5.08
4.91
4.7
4.51
4.42
4.43
4.5
4.55
4.51
4.28
3.77
2.97
1.83
0.39
-1.28
-3.12
-5.06
-7.1
-9.29
-11.66
-14.18
-16.67
-18.78
-20.15
-20.45
-19.57
-17.61
-14.88
-11.76
-8.59
-5.56
-2.75
-0.15
2.17
4.15
5.63
6.49
6.77
6.59
6.24
5.99
6.04
6.42
6.98
7.49
7.72
7.51
6.84
5.77
4.45
3
1.5
-0.03
-1.62
-3.28
-5.02
-6.88
-8.91
-11.19
-13.7
-16.28
-18.58
-20.11
-20.45
-19.4
-17.08
-13.83
-10.15
-6.44
-2.95
0.23
3.08
5.56
7.57
8.99
9.76
9.96
9.75
9.36
8.97
8.66
8.44
8.2
7.85
7.32
6.61
5.77
4.88
3.99
3.04
1.98
0.71
-0.78
-2.46
-4.25
-6.13
-8.22
-10.65
-13.46
-16.4
-18.99
-20.55
-20.6
-19
-16.06
-12.36
-8.51
-4.88
-1.63
1.28
3.86
6.08
7.85
9.09
9.81
10.11
10.15
10.03
9.81
9.53
9.16
8.72
8.19
7.62
7.05
6.55
6.14
5.78
5.36
4.71
3.74
2.38
0.64
-1.44
-3.88
-6.67
-9.78
-12.98
-15.88
-17.95
-18.73
-17.93
-15.69
-12.39
-8.59
-4.8
-1.33
1.7
4.33
6.57
8.4
9.78
10.68
11.16
11.4
11.63
12.03
12.66
13.44
14.16
14.59
14.58
14.05
13.08
11.77
10.2
8.4
6.34
3.99
1.38
-1.39
-4.27
-7.21
-10.21
-13.25
-16.16
-18.58
-20.11
-20.39
-19.3
-17.01
-13.92
-10.44
-6.91
-3.54
-0.41
2.39
4.74
6.51
7.64
8.17
8.3
8.27
8.28
8.38
8.51
8.52
8.27
7.74
6.97
6.07
5.12
4.15
3.09
1.82
0.29
-1.57
-3.75
-6.24
-9.07
-12.13
-15.22
-17.93
-19.78
-20.32
-19.37
-17.07
-13.78
-9.98
-6.03
-2.2
1.38
4.56
7.13
8.92
9.81
9.9
9.43
8.79
8.25
8.03
8.08
8.21
8.16
7.74
6.9
5.75
4.55
3.52
2.76
2.18
1.5
0.4
-1.4
-3.99
-7.31
-11.08
-14.94
-18.43
-21.02
-22.28
-21.95
-20.07
-16.96
-13.14
-9.17
-5.45
-2.18
0.64
3.04
5.02
6.5
7.36
7.61
7.41
7.04
6.77
6.74
6.85
6.89
6.66
6.11
5.33
4.55
3.9
3.38
2.85
2.02
0.63
-1.45
-4.26
-7.69
-11.51
-15.46
-19.13
-22.11
-23.99
-24.46
-23.45
-21.09
-17.73
-13.8
-9.69
-5.66
-1.85
1.67
4.87
7.66
9.89
11.47
12.34
12.58
12.37
11.94
11.45
10.99
10.52
9.94
9.16
8.13
6.91
5.6
4.24
2.8
1.11
-1.01
-3.71
-6.99
-10.66
-14.39
-17.72
-20.21
-21.51
-21.45
-19.98
-17.28
-13.63
-9.37
-4.84
-0.32
3.96
7.76
10.89
13.14
14.43
14.87
14.69
14.22
13.81
13.65
13.75
13.97
14.08
13.87
13.27
12.32
11.13
9.88
8.6
7.22
5.53
3.29
0.31
-3.39
-7.61
-11.92
-15.77
-18.59
-19.91
-19.55
-17.68
-14.77
-11.46
-8.23
-5.3
-2.53
0.36
3.55
6.99
10.31
13.13
15.14
16.34
16.9
17.09
17.05
16.8
16.28
15.41
14.23
12.82
11.33
9.83
8.34
6.81
5.09
3.03
0.42
-2.88
-6.93
-11.5
-16.19
-20.34
-23.3
-24.58
-23.97
-21.65
-18.01
-13.57
-8.72
-3.74
1.2
5.99
10.48
14.46
17.72
20.08
21.52
22.09
22
21.48
20.75
19.95
19.17
18.4
17.6
16.73
15.72
14.5
13.02
11.18
8.93
6.16
2.83
-1.11
-5.61
-10.56
-15.61
-20.26
-23.85
-25.79
-25.71
-23.62
-19.92
-15.21
-10.13
-5.05
-0.1
4.77
9.6
14.27
18.49
21.94
24.41
25.86
26.49
26.54
26.2
25.56
24.61
23.3
21.62
19.65
17.54
15.48
13.59
11.91
10.33
8.65
6.57
3.82
0.22
-4.22
-9.27
-14.49
-19.28
-23.02
-25.22
-25.54
-23.92
-20.53
-15.72
-9.94
-3.67
2.7
8.87
14.68
19.99
24.71
28.64
31.6
33.52
34.42
34.56
34.3
33.92
33.58
33.19
32.54
31.43
29.82
27.81
25.57
23.28
20.98
18.6
16.02
13.16
10.03
6.67
3.07
-0.84
-5.16
-9.89
-14.82
-19.44
-23.06
-24.99
-24.77
-22.33
-18
-12.43
-6.33
-0.26
5.41
10.53
15.09
19.04
22.25
24.55
25.79
26.01
25.41
24.38
23.28
22.39
21.77
21.28
20.72
19.94
18.91
17.74
16.55
15.43
14.32
13.06
11.44
9.33
6.68
3.53
-0.04
-3.9
-7.96
-12.03
-15.82
-18.91
-20.81
-21.1
-19.58
-16.39
-11.98
-6.97
-1.94
2.69
6.8
10.41
13.59
16.36
18.59
20.15
20.94
21.03
20.63
20.05
19.56
19.3
19.22
19.19
19
18.59
17.95
17.13
16.15
14.93
13.33
11.28
8.75
5.88
2.87
-0.15
-3.15
-6.27
-9.68
-13.53
-17.83
-22.37
-26.7
-30.25
-32.43
-32.81
-31.32
-28.21
-24.02
-19.4
-14.85
-10.65
-6.82
-3.29
-0
2.98
5.45
7.2
8.09
8.19
7.73
7.02
6.37
5.99
5.91
6.07
6.31
6.44
6.38
6.05
5.44
4.57
3.47
2.15
0.62
-1.13
-3.14
-5.41
-7.98
-10.83
-13.92
-17.1
-20.11
-22.56
-24
-24.05
-22.53
-19.53
-15.45
-10.81
-6.17
-1.93
1.67
4.6
6.92
8.7
10.02
10.98
11.73
12.39
13.08
13.83
14.53
15.01
15.11
14.72
13.79
12.4
10.68
8.81
6.99
5.31
3.78
2.33
0.81
-0.93
-2.98
-5.41
-8.17
-11.1
-13.95
-16.27
-17.64
-17.69
-16.32
-13.71
-10.29
-6.59
-3.04
0.08
2.69
4.78
6.35
7.38
7.9
7.99
7.77
7.45
7.18
7.09
7.17
7.36
7.48
7.36
6.86
5.98
4.81
3.52
2.26
1.05
-0.21
-1.69
-3.57
-5.93
-8.77
-11.89
-14.98
-17.59
-19.26
-19.62
-18.5
-16.05
-12.67
-8.84
-5.02
-1.48
1.65
4.29
6.39
7.85
8.6
8.65
8.13
7.22
6.13
5.01
3.9
2.82
1.77
0.78
-0.11
-0.85
-1.47
-2.06
-2.74
-3.65
-4.93
-6.64
-8.83
-11.41
-14.25
-17.09
-19.58
-21.29
-21.86
-21.08
-19
-15.92
-12.27
-8.49
-4.95
-1.83
0.76
2.81
4.27
5.1
5.27
4.85
4.01
3
2.05
1.35
0.92
0.68
0.52
0.3
-0.01
-0.43
-0.99
-1.74
-2.83
-4.34
-6.37
-8.89
-11.82
-15.01
-18.29
-21.38
-23.92
-25.49
-25.71
-24.37
-21.55
-17.6
-13.07
-8.48
-4.29
-0.74
2.07
4.07
5.2
5.43
4.83
3.65
2.32
1.32
0.98
1.33
2.1
2.84
3.19
3.05
2.57
1.98
1.49
1.1
0.62
-0.19
-1.5
-3.35
-5.7
-8.45
-11.48
-14.51
-17.16
-18.93
-19.4
-18.38
-16.03
-12.75
-9.05
-5.36
-1.89
1.25
3.99
6.18
7.58
8.04
7.58
6.48
5.2
4.19
3.73
3.8
4.18
4.53
4.56
4.16
3.44
2.57
1.71
0.91
0.02
-1.12
-2.72
-4.86
-7.48
-10.4
-13.38
-16.12
-18.3
-19.66
-19.89
-18.86
-16.59
-13.3
-9.39
-5.27
-1.29
2.36
5.52
8.12
10.03
11.16
11.47
11.07
10.25
9.35
8.71
8.46
8.53
8.69
8.64
8.18
7.26
6.04
4.74
3.57
2.63
1.84
0.99
-0.2
-1.91
-4.24
-7.02
-9.94
-12.51
-14.26
-14.81
-14
-11.93
-8.89
-5.29
-1.51
2.1
5.32
8.04
10.19
11.76
12.74
13.12
12.92
12.24
11.27
10.27
9.45
8.95
8.73
8.62
8.36
7.81
6.94
5.89
4.82
3.88
3.06
2.26
1.3
0.03
-1.67
-3.86
-6.51
-9.46
-12.4
-14.86
-16.34
-16.51
-15.28
-12.9
-9.79
-6.44
-3.2
-0.23
2.44
4.8
6.81
8.36
9.35
9.76
9.71
9.41
9.06
8.83
8.78
8.84
8.86
8.68
8.16
7.22
5.86
4.19
2.34
0.46
-1.33
-2.97
-4.49
-5.95
-7.46
-9.1
-10.89
-12.74
-14.43
-15.64
-16.02
-15.36
-13.62
-10.99
-7.79
-4.39
-1.16
1.67
3.94
5.61
6.73
7.4
7.7
7.71
7.46
7
6.42
5.83
5.32
4.97
4.7
4.39
3.93
3.25
2.44
1.65
1.03
0.65
0.46
0.29
-0.08
-0.82
-2.06
-3.82
-5.99
-8.4
-10.81
-12.95
-14.6
-15.53
-15.59
-14.72
-12.93
-10.38
-7.33
-4.13
-1.11
1.48
3.58
5.24
6.56
7.6
8.31
8.58
8.36
7.7
6.86
6.15
5.84
5.98
6.38
6.74
6.78
6.38
5.64
4.74
3.92
3.16
2.38
1.36
-0.07
-1.94
-4.09
-6.31
-8.34
-10
-11.2
-11.86
-11.9
-11.22
-9.77
-7.6
-4.97
-2.24
0.23
2.14
3.49
4.38
5.01
5.5
5.88
6.06
5.94
5.53
4.97
4.47
4.2
4.2
4.37
4.49
4.38
3.94
3.26
2.52
1.89
1.41
0.95
0.28
-0.86
-2.63
-5.07
-8.05
-11.33
-14.61
-17.51
-19.7
-20.87
-20.91
-19.86
-17.91
-15.41
-12.71
-10.07
-7.66
-5.52
-3.64
-2.03
-0.77
0.02
0.22
-0.18
-1.02
-1.98
-2.69
-2.89
-2.53
-1.84
-1.16
-0.8
-0.93
-1.5
-2.34
-3.25
-4.12
-4.98
-5.9
-6.94
-8.11
-9.38
-10.75
-12.31
-14.18
-16.44
-18.96
-21.36
-23.07
-23.61
-22.74
-20.58
-17.59
-14.3
-11.18
-8.44
-6.08
-3.98
-2.05
-0.32
1.14
2.27
3.08
3.69
4.24
4.78
5.29
5.63
5.66
5.33
4.72
4
3.32
2.72
2.13
1.4
0.44
-0.73
-2.05
-3.4
-4.76
-6.19
-7.77
-9.6
-11.74
-14.13
-16.64
-19.06
-21.09
-22.32
-22.43
-21.24
-18.88
-15.73
-12.32
-9.1
-6.32
-3.98
-1.94
-0.05
1.76
3.43
4.89
6.1
7.06
7.79
8.32
8.61
8.66
8.52
8.28
8.08
7.99
8
7.99
7.8
7.3
6.41
5.15
3.61
1.94
0.21
-1.55
-3.38
-5.38
-7.64
-10.23
-13.13
-16.23
-19.33
-22.17
-24.38
-25.58
-25.43
-23.81
-20.87
-17
-12.75
-8.59
-4.77
-1.33
1.88
4.96
7.86
10.33
12.12
13.06
13.2
12.88
12.47
12.25
12.31
12.55
12.83
13.02
13.11
13.12
13.08
12.88
12.4
11.48
10.04
8.14
5.94
3.67
1.49
-0.54
-2.45
-4.36
-6.45
-8.88
-11.72
-14.97
-18.42
-21.75
-24.51
-26.22
-26.52
-25.25
-22.57
-18.86
-14.66
-10.41
-6.39
-2.67
0.75
3.91
6.74
9.14
10.97
12.24
13.05
13.58
14
14.37
14.61
14.62
14.33
13.83
13.31
12.97
12.9
12.95
12.82
12.17
10.82
8.82
6.42
3.92
1.6
-0.44
-2.22
-3.86
-5.53
-7.48
-9.91
-12.92
-16.41
-20.02
-23.18
-25.26
-25.77
-24.57
-21.83
-18.01
-13.68
-9.37
-5.4
-1.95
0.97
3.46
5.58
7.44
9.08
10.55
11.86
13.02
14.01
14.79
15.36
15.71
15.93
16.11
16.3
16.47
16.47
16.09
15.13
13.54
11.41
8.99
6.51
4.17
1.94
-0.33
-2.87
-5.84
-9.25
-12.97
-16.67
-19.92
-22.27
-23.34
-22.92
-21.07
-18.06
-14.32
-10.33
-6.44
-2.87
0.35
3.31
6.11
8.79
11.28
13.42
15.01
15.92
16.2
16.03
15.72
15.48
15.4
15.36
15.12
14.47
13.34
11.83
10.12
8.37
6.64
4.87
2.97
0.88
-1.37
-3.69
-6.07
-8.55
-11.29
-14.33
-17.54
-20.5
-22.59
-23.26
-22.19
-19.5
-15.7
-11.43
-7.23
-3.36
0.25
3.75
7.26
10.7
13.83
16.35
18.06
18.95
19.15
18.88
18.36
17.75
17.13
16.53
15.91
15.2
14.32
13.19
11.78
10.12
8.26
6.21
4.03
1.73
-0.63
-3.03
-5.47
-8.02
-10.8
-13.9
-17.22
-20.44
-23.06
-24.49
-24.32
-22.43
-19.06
-14.67
-9.8
-4.91
-0.29
3.89
7.57
10.76
13.51
15.85
17.77
19.23
20.14
20.47
20.28
19.72
18.99
18.25
17.57
16.87
16.03
14.96
13.62
12.07
10.36
8.5
6.49
4.28
1.83
-0.83
-3.66
-6.7
-9.94
-13.42
-17.05
-20.55
-23.52
-25.42
-25.85
-24.58
-21.72
-17.66
-12.95
-8.11
-3.49
0.76
4.67
8.29
11.61
14.51
16.79
18.33
19.12
19.33
19.22
19.04
18.92
18.83
18.69
18.37
17.85
17.07
16.05
14.76
13.15
11.23
9.04
6.69
4.29
1.87
-0.63
-3.36
-6.47
-10.04
-14.01
-18.15
-22.04
-25.2
-27.17
-27.57
-26.27
-23.37
-19.27
-14.48
-9.52
-4.74
-0.32
3.69
7.3
10.48
13.14
15.21
16.72
17.77
18.56
19.28
20.02
20.73
21.32
21.64
21.59
21.17
20.36
19.17
17.61
15.72
13.58
11.3
8.95
6.56
4.1
1.49
-1.34
-4.44
-7.84
-11.5
-15.3
-18.87
-21.72
-23.26
-23.04
-20.96
-17.28
-12.63
-7.7
-3.05
1.06
4.63
7.79
10.64
13.14
15.22
16.78
17.83
18.43
18.71
18.76
18.62
18.33
17.89
17.36
16.77
16.1
15.29
14.23
12.83
11.04
8.9
6.5
3.96
1.42
-1.06
-3.52
-6.07
-8.92
-12.24
-16.17
-20.62
-25.28
-29.59
-32.82
-34.29
-33.59
-30.71
-26.11
-20.55
-14.9
-9.78
-5.45
-1.82
1.41
4.47
7.42
10.11
12.33
13.97
15.08
15.86
16.47
16.99
17.38
17.54
17.37
16.89
16.19
15.37
14.52
13.63
12.62
11.35
9.69
7.57
4.98
1.97
-1.39
-5.04
-8.92
-12.89
-16.66
-19.76
-21.64
-21.83
-20.12
-16.66
-11.95
-6.66
-1.46
3.17
7.05
10.19
12.72
14.78
16.41
17.58
18.25
18.46
18.34
18.09
17.88
17.76
17.58
17.1
16.1
14.52
12.55
10.52
8.77
7.4
6.25
4.94
3.01
0.22
-3.46
-7.75
-12.21
-16.31
-19.54
-21.49
-21.87
-20.64
-17.89
-14.01
-9.46
-4.73
-0.2
3.91
7.49
10.46
12.71
14.19
14.89
14.97
14.69
14.28
13.91
13.59
13.21
12.64
11.89
11.04
10.24
9.57
8.99
8.35
7.44
6.06
4.07
1.35
-2.14
-6.33
-10.86
-15.15
-18.44
-20.04
-19.56
-17.09
-13.17
-8.53
-3.91
0.26
3.83
6.88
9.59
12.04
14.19
15.87
16.97
17.46
17.43
17
16.31
15.44
14.37
13.11
11.69
10.17
8.66
7.24
5.96
4.8
3.67
2.42
0.8
-1.48
-4.67
-8.78
-13.54
-18.33
-22.42
-25.11
-26.02
-25.13
-22.72
-19.26
-15.18
-10.87
-6.61
-2.58
1.03
4.08
6.45
8.1
9.04
9.37
9.26
8.9
8.46
8.01
7.47
6.71
5.54
3.9
1.92
-0.13
-1.9
-3.15
-3.87
-4.29
-4.76
-5.65
-7.25
-9.65
-12.76
-16.33
-19.95
-23.09
-25.18
-25.74
-24.56
-21.73
-17.74
-13.21
-8.7
-4.54
-0.82
2.52
5.52
8.09
10.07
11.29
11.78
11.72
11.38
11.03
10.77
10.55
10.22
9.65
8.75
7.57
6.19
4.72
3.27
1.83
0.35
-1.31
-3.26
-5.56
-8.16
-10.85
-13.38
-15.37
-16.53
-16.66
-15.7
-13.75
-11.07
-7.95
-4.61
-1.24
2.11
5.35
8.41
11.13
13.33
14.89
15.78
16.07
15.86
15.3
14.46
13.42
12.22
10.9
9.56
8.22
6.93
5.65
4.37
2.99
1.41
-0.5
-2.86
-5.75
-9.14
-12.81
-16.42
-19.53
-21.69
-22.59
-22.1
-20.3
-17.42
-13.78
-9.74
-5.58
-1.55
2.18
5.48
8.24
10.37
11.83
12.65
12.93
12.79
12.39
11.8
11.09
10.21
9.07
7.6
5.77
3.67
1.5
-0.48
-2.04
-3.12
-3.91
-4.81
-6.28
-8.62
-11.79
-15.35
-18.6
-20.81
-21.51
-20.64
-18.48
-15.59
-12.51
-9.64
-7.12
-4.93
-2.89
-0.91
1.03
2.78
4.15
4.97
5.22
5.06
4.76
4.58
4.67
4.98
5.37
5.69
5.82
5.77
5.58
5.2
4.56
3.54
2.04
0.06
-2.32
-5.01
-7.96
-11.17
-14.64
-18.25
-21.71
-24.58
-26.38
-26.78
-25.7
-23.34
-20.1
-16.4
-12.56
-8.76
-5.11
-1.75
1.12
3.25
4.42
4.65
4.18
3.45
2.94
2.94
3.48
4.32
5.09
5.43
5.24
4.62
3.77
2.92
2.17
1.47
0.65
-0.44
-1.96
-3.99
-6.54
-9.57
-12.93
-16.36
-19.51
-21.88
-22.98
-22.44
-20.13
-16.23
-11.21
-5.63
-0.1
4.98
9.43
13.22
16.35
18.84
20.65
21.8
22.39
22.59
22.55
22.39
22.11
21.65
20.96
20.05
18.95
17.76
16.6
15.54
14.61
13.77
12.87
11.74
10.17
8.02
5.26
1.96
-1.71
-5.49
-9.04
-11.91
-13.66
-13.94
-12.62
-9.86
-6.08
-1.79
2.5
6.46
9.85
12.55
14.45
15.55
15.88
15.58
14.86
13.96
13.11
12.44
12.06
11.91
11.88
11.77
11.37
10.59
9.47
8.17
6.87
5.75
4.8
3.85
2.65
0.92
-1.5
-4.58
-8.08
-11.62
-14.69
-16.81
-17.56
-16.77
-14.53
-11.2
-7.34
-3.48
-0.07
2.74
4.96
6.77
8.26
9.44
10.24
10.6
10.57
10.35
10.22
10.37
10.84
11.47
11.95
12.05
11.65
10.81
9.67
8.42
7.12
5.79
4.33
2.66
0.75
-1.37
-3.63
-5.99
-8.41
-10.77
-12.79
-14.1
-14.26
-12.96
-10.21
-6.33
-1.86
2.65
6.82
10.54
13.84
16.76
19.21
21
21.99
22.18
21.76
21.04
20.26
19.51
18.68
17.58
16.04
14.08
11.83
9.5
7.23
5.09
3.05
1.06
-0.91
-2.89
-4.96
-7.25
-9.87
-12.83
-15.92
-18.7
-20.6
-21.19
-20.3
-18.13
-15.14
-11.88
-8.82
-6.22
-4.14
-2.54
-1.36
-0.57
-0.18
-0.19
-0.54
-1.11
-1.72
-2.19
-2.39
-2.28
-1.95
-1.58
-1.38
-1.54
-2.09
-2.89
-3.74
-4.47
-5.03
-5.58
-6.33
-7.56
-9.36
-11.71
-14.4
-17.11
-19.46
-21.06
-21.53
-20.58
-18.12
-14.31
-9.59
-4.56
0.21
4.29
7.46
9.65
10.91
11.36
11.12
10.36
9.27
8.07
6.95
5.98
5.13
4.31
3.38
2.27
1.01
-0.3
-1.5
-2.49
-3.23
-3.82
-4.47
-5.41
-6.85
-8.84
-11.29
-13.88
-16.19
-17.72
-18.08
-17.05
-14.7
-11.32
-7.46
-3.66
-0.37
2.2
4.07
5.36
6.22
6.63
6.53
5.86
4.66
3.25
1.99
1.26
1.2
1.68
2.38
2.92
3.03
2.68
2.05
1.33
0.68
0.05
-0.79
-2.13
-4.17
-6.95
-10.29
-13.81
-17.03
-19.48
-20.73
-20.59
-19.02
-16.23
-12.56
-8.44
-4.31
-0.57
2.49
4.71
6.02
6.54
6.45
6
5.38
4.7
4.02
3.34
2.69
2.08
1.53
1.01
0.42
-0.3
-1.16
-2.07
-2.9
-3.62
-4.33
-5.22
-6.48
-8.21
-10.32
-12.61
-14.81
-16.65
-17.85
-18.11
-17.16
-14.88
-11.41
-7.14
-2.69
1.39
4.69
7.1
8.68
9.52
9.67
9.18
8.11
6.71
5.34
4.39
4.09
4.41
5.1
5.75
6.02
5.69
4.75
3.42
2.01
0.79
-0.13
-0.87
-1.71
-2.96
-4.79
-7.16
-9.84
-12.45
-14.59
-15.88
-16.03
-14.89
-12.51
-9.19
-5.38
-1.62
1.63
4.12
5.77
6.61
6.73
6.2
5.13
3.71
2.2
0.91
0
-0.46
-0.64
-0.74
-0.98
-1.42
-2.03
-2.71
-3.34
-3.92
-4.52
-5.28
-6.33
-7.79
-9.67
-11.94
-14.45
-16.92
-18.96
-20.09
-19.9
-18.21
-15.17
-11.19
-6.81
-2.54
1.27
4.43
6.81
8.35
8.99
8.78
7.9
6.63
5.3
4.2
3.41
2.93
2.6
2.29
1.92
1.49
1.05
0.63
0.18
-0.44
-1.46
-3.07
-5.37
-8.26
-11.49
-14.63
-17.19
-18.66
-18.68
-17.12
-14.09
-10.01
-5.42
-0.94
2.9
5.75
7.5
8.22
8.17
7.67
7.01
6.39
5.86
5.36
4.76
3.96
2.97
1.85
0.78
-0.14
-0.88
-1.53
-2.23
-3.13
-4.34
-5.92
-7.89
-10.21
-12.84
-15.55
-17.97
-19.55
-19.76
-18.32
-15.31
-11.21
-6.67
-2.34
1.37
4.31
6.48
7.93
8.67
8.75
8.27
7.48
6.7
6.12
5.78
5.49
4.98
4.07
2.79
1.34
0.02
-1.03
-1.84
-2.68
-3.85
-5.56
-7.89
-10.69
-13.75
-16.73
-19.25
-20.89
-21.29
-20.22
-17.75
-14.23
-10.16
-6.08
-2.33
0.94
3.73
6.07
7.94
9.27
10.05
10.34
10.35
10.28
10.27
10.27
10.12
9.6
8.6
7.21
5.67
4.24
3.09
2.14
1.13
-0.26
-2.26
-4.91
-8.04
-11.33
-14.34
-16.6
-17.75
-17.53
-15.94
-13.2
-9.71
-5.93
-2.27
1.1
4.17
7.02
9.72
12.19
14.24
15.61
16.18
16.02
15.4
14.68
14.13
13.78
13.47
12.89
11.83
10.29
8.47
6.63
4.95
3.36
1.72
-0.22
-2.54
-5.26
-8.26
-11.43
-14.67
-17.81
-20.59
-22.64
-23.61
-23.3
-21.76
-19.31
-16.41
-13.44
-10.56
-7.74
-4.91
-2.06
0.62
2.83
4.3
4.92
4.85
4.39
3.9
3.6
3.5
3.48
3.3
2.72
1.68
0.21
-1.47
-3.12
-4.56
-5.72
-6.71
-7.66
-8.8
-10.24
-12.02
-14.07
-16.17
-17.98
-19.08
-19.08
-17.69
-14.91
-10.96
-6.32
-1.53
3
7
10.36
12.97
14.71
15.47
15.27
14.3
12.94
11.64
10.69
10.17
9.9
9.61
9.1
8.31
7.31
6.24
5.13
3.91
2.41
0.46
-2.03
-5.01
-8.31
-11.7
-14.96
-17.91
-20.43
-22.34
-23.42
-23.46
-22.27
-19.83
-16.33
-12.07
-7.45
-2.75
1.83
6.14
10.06
13.37
15.81
17.26
17.79
17.7
17.42
17.35
17.65
18.26
18.88
19.16
18.86
17.97
16.62
15.05
13.48
11.99
10.64
9.33
7.91
6.18
3.94
1.06
-2.46
-6.32
-10.04
-12.95
-14.45
-14.19
-12.22
-8.95
-4.99
-0.96
2.73
5.86
8.46
10.56
12.22
13.43
14.19
14.57
14.68
14.67
14.65
14.72
14.92
15.26
15.69
16.04
16.14
15.84
15.1
14
12.71
11.37
10.03
8.62
7.05
5.22
3.1
0.68
-2.04
-5.03
-8.19
-11.23
-13.7
-15.04
-14.81
-12.87
-9.43
-5.07
-0.44
3.86
7.52
10.44
12.74
14.49
15.77
16.55
16.87
16.85
16.7
16.67
16.9
17.4
18.01
18.49
18.67
18.44
17.78
16.66
15.06
12.98
10.51
7.78
5.02
2.42
0.07
-2
-3.9
-5.75
-7.72
-9.94
-12.38
-14.88
-17.03
-18.33
-18.26
-16.58
-13.38
-9.08
-4.29
0.41
4.6
8.12
10.93
13.07
14.61
15.58
16.06
16.18
16.06
15.87
15.73
15.69
15.74
15.75
15.51
14.83
13.59
11.84
9.81
7.78
6
4.5
3.15
1.73
0.01
-2.06
-4.46
-7.09
-9.84
-12.62
-15.31
-17.66
-19.3
-19.82
-18.86
-16.3
-12.34
-7.53
-2.55
1.92
5.44
7.87
9.35
10.17
10.6
10.78
10.79
10.62
10.35
10.1
10.04
10.24
10.68
11.13
11.3
10.95
9.99
8.53
6.8
5.08
3.53
2.19
0.96
-0.31
-1.74
-3.42
-5.4
-7.75
-10.52
-13.66
-16.95
-19.97
-22.09
-22.72
-21.46
-18.33
-13.75
-8.48
-3.31
1.17
4.66
7.18
8.88
9.99
10.62
10.87
10.82
10.63
10.47
10.51
10.79
11.21
11.51
11.39
10.64
9.2
7.22
5
2.89
1.18
-0.03
-0.81
-1.39
-2.12
-3.29
-5.09
-7.56
-10.53
-13.65
-16.48
-18.53
-19.4
-18.82
-16.77
-13.39
-9.09
-4.37
0.24
4.28
7.52
9.91
11.54
12.54
13.03
13.05
12.66
12.01
11.28
10.73
10.5
10.65
11.02
11.38
11.46
11.08
10.17
8.77
7
5.05
3.06
1.15
-0.7
-2.6
-4.71
-7.18
-10.1
-13.37
-16.73
-19.8
-22.09
-23.16
-22.73
-20.76
-17.49
-13.35
-8.89
-4.57
-0.75
2.44
4.97
6.91
8.29
9.17
9.56
9.57
9.27
8.83
8.41
8.08
7.85
7.64
7.27
6.59
5.5
4.01
2.26
0.43
-1.36
-3.02
-4.58
-6.16
-7.9
-9.94
-12.39
-15.18
-18.12
-20.81
-22.79
-23.61
-22.99
-20.96
-17.77
-13.89
-9.78
-5.82
-2.27
0.74
3.12
4.82
5.85
6.3
6.33
6.21
6.22
6.52
7.15
7.96
8.65
8.93
8.57
7.52
5.91
3.99
2
0.12
-1.63
-3.31
-5.09
-7.08
-9.45
-12.25
-15.46
-18.91
-22.21
-24.82
-26.13
-25.66
-23.3
-19.32
-14.4
-9.27
-4.56
-0.62
2.52
5.02
7.04
8.69
10.01
10.97
11.62
12.04
12.35
12.63
12.88
12.99
12.81
12.2
11.14
9.7
8.01
6.21
4.39
2.54
0.56
-1.6
-4.01
-6.62
-9.4
-12.34
-15.45
-18.63
-21.66
-24.15
-25.58
-25.58
-23.96
-20.84
-16.65
-11.95
-7.23
-2.87
0.96
4.23
6.99
9.29
11.2
12.68
13.71
14.26
14.36
14.12
13.76
13.43
13.21
13.03
12.68
12.02
10.95
9.57
8.05
6.53
5.05
3.56
1.97
0.2
-1.74
-3.83
-6.15
-8.83
-12.07
-15.92
-20.16
-24.3
-27.65
-29.54
-29.56
-27.67
-24.18
-19.63
-14.63
-9.67
-5.05
-0.92
2.75
6
8.88
11.37
13.42
14.97
16.04
16.76
17.29
17.81
18.34
18.78
18.96
18.75
18.09
17.03
15.64
13.95
11.96
9.68
7.22
4.75
2.43
0.29
-1.77
-3.97
-6.56
-9.66
-13.3
-17.37
-21.62
-25.7
-29.12
-31.31
-31.81
-30.34
-27.03
-22.31
-16.86
-11.34
-6.23
-1.76
2.11
5.5
8.5
11.09
13.2
14.68
15.49
15.7
15.47
15.04
14.61
14.29
14.05
13.81
13.46
12.9
12.09
10.99
9.58
7.85
5.85
3.67
1.48
-0.64
-2.67
-4.68
-6.84
-9.36
-12.35
-15.79
-19.47
-22.95
-25.62
-26.92
-26.43
-24.12
-20.35
-15.72
-10.95
-6.52
-2.61
0.86
4.05
7.1
9.96
12.49
14.51
15.99
16.97
17.59
18
18.24
18.3
18.09
17.56
16.74
15.69
14.49
13.16
11.73
10.08
8.16
5.91
3.34
0.49
-2.6
-5.88
-9.33
-12.96
-16.7
-20.39
-23.72
-26.27
-27.6
-27.36
-25.43
-22.01
-17.5
-12.45
-7.34
-2.53
1.78
5.54
8.74
11.38
13.47
15.01
16.04
16.64
16.93
17.05
17.12
17.22
17.31
17.36
17.25
16.9
16.2
15.11
13.56
11.6
9.26
6.63
3.84
0.96
-1.95
-4.94
-8.1
-11.59
-15.48
-19.74
-24.04
-27.89
-30.68
-31.85
-31.08
-28.4
-24.18
-18.96
-13.32
-7.7
-2.37
2.56
7.05
11.09
14.63
17.61
19.97
21.72
22.9
23.56
23.71
23.3
22.3
20.72
18.72
16.55
14.49
12.7
11.18
9.74
8.15
6.28
4.13
1.85
-0.4
-2.57
-4.75
-7.17
-10.13
-13.77
-18.06
-22.72
-27.2
-30.88
-33.16
-33.64
-32.25
-29.21
-24.98
-20.05
-14.83
-9.57
-4.42
0.51
5.09
9.25
12.86
15.91
18.39
20.25
21.44
21.97
21.9
21.44
20.81
20.17
19.51
18.7
17.61
16.15
14.37
12.39
10.35
8.3
6.22
4.07
1.86
-0.39
-2.66
-5.06
-7.78
-11.07
-15.11
-19.82
-24.81
-29.41
-32.79
-34.26
-33.47
-30.56
-26.07
-20.76
-15.33
-10.23
-5.59
-1.36
2.61
6.33
9.7
12.54
14.71
16.2
17.11
17.61
17.82
17.84
17.7
17.44
17.1
16.69
16.2
15.54
14.58
13.24
11.52
9.49
7.28
4.97
2.58
0.06
-2.67
-5.65
-8.95
-12.57
-16.46
-20.43
-24.14
-27.07
-28.65
-28.46
-26.36
-22.63
-17.82
-12.57
-7.38
-2.51
2
6.12
9.75
12.68
14.69
15.67
15.74
15.23
14.56
14.1
14.04
14.39
14.99
15.58
15.85
15.6
14.7
13.22
11.34
9.26
7.13
4.89
2.39
-0.57
-4.11
-8.22
-12.74
-17.4
-21.88
-25.77
-28.64
-30
-29.52
-27.14
-23.11
-18
-12.45
-7.06
-2.14
2.17
5.94
9.19
11.88
13.9
15.14
15.63
15.56
15.24
14.97
14.92
14.99
14.93
14.48
13.47
11.92
10.03
8.02
6.04
4.08
1.98
-0.48
-3.49
-7.2
-11.57
-16.44
-21.46
-26.1
-29.74
-31.78
-31.85
-29.87
-26.14
-21.18
-15.61
-9.96
-4.57
0.45
5.1
9.33
12.99
15.84
17.64
18.37
18.22
17.59
16.92
16.5
16.38
16.35
16.1
15.37
14.08
12.27
10.14
7.84
5.44
2.94
0.21
-2.84
-6.32
-10.28
-14.71
-19.5
-24.33
-28.72
-32.06
-33.75
-33.38
-30.93
-26.68
-21.23
-15.26
-9.31
-3.74
1.33
5.92
10.07
13.8
17.04
19.64
21.48
22.52
22.85
22.69
22.29
21.84
21.36
20.76
19.82
18.4
16.47
14.12
11.57
9.02
6.56
4.17
1.71
-1.01
-4.15
-7.86
-12.19
-17.08
-22.24
-27.17
-31.14
-33.42
-33.44
-31.04
-26.51
-20.57
-14
-7.48
-1.37
4.24
9.42
14.25
18.65
22.5
25.65
28.02
29.58
30.42
30.69
30.54
30.14
29.63
29.05
28.33
27.32
25.86
23.88
21.39
18.54
15.46
12.25
8.92
5.41
1.67
-2.37
-6.73
-11.39
-16.23
-21
-25.24
-28.31
-29.57
-28.66
-25.62
-20.98
-15.58
-10.2
-5.32
-1.02
2.87
6.62
10.31
13.84
16.99
19.57
21.51
22.88
23.84
24.49
24.86
24.89
24.52
23.76
22.64
21.29
19.82
18.3
16.68
14.87
12.75
10.24
7.31
4.02
0.43
-3.41
-7.57
-12.15
-17.11
-22.25
-27.12
-31.03
-33.33
-33.55
-31.61
-27.8
-22.73
-17.09
-11.46
-6.23
-1.51
2.66
6.29
9.31
11.63
13.18
13.99
14.28
14.34
14.44
14.71
15.11
15.47
15.53
15.13
14.24
12.95
11.37
9.62
7.71
5.6
3.22
0.5
-2.62
-6.14
-10.03
-14.17
-18.31
-22.02
-24.76
-25.99
-25.35
-22.8
-18.64
-13.43
-7.82
-2.33
2.68
7.08
10.8
13.8
16
17.35
17.88
17.77
17.31
16.83
16.53
16.44
16.32
15.86
14.72
12.81
10.24
7.31
4.32
1.45
-1.35
-4.27
-7.58
-11.49
-16.05
-21.16
-26.53
-31.71
-36.13
-39.17
-40.35
-39.48
-36.7
-32.46
-27.3
-21.68
-15.89
-10.07
-4.36
0.98
5.52
8.84
10.71
11.23
10.81
10.03
9.39
9.13
9.22
9.4
9.35
8.88
7.95
6.67
5.21
3.66
1.99
0.03
-2.42
-5.51
-9.27
-13.52
-17.94
-22.15
-25.7
-28.19
-29.3
-28.82
-26.66
-22.87
-17.63
-11.25
-4.15
3.18
10.22
16.5
21.68
25.56
28.14
29.58
30.09
29.94
29.4
28.64
27.82
27.01
26.21
25.46
24.7
23.89
22.96
21.82
20.37
18.55
16.3
13.59
10.38
6.68
2.66
-1.28
-4.46
-6.21
-6
-3.77
0.04
4.66
9.28
13.37
16.76
19.55
21.84
23.54
24.44
24.33
23.27
21.6
19.9
18.67
18.16
18.21
18.38
18.21
17.42
16.08
14.47
12.91
11.56
10.39
9.14
7.47
5.13
2.03
-1.68
-5.69
-9.45
-12.42
-14.06
-14.04
-12.31
-9.13
-5.02
-0.57
3.71
7.52
10.75
13.38
15.4
16.73
17.28
17.04
16.14
14.83
13.45
12.22
11.26
10.49
9.79
9.05
8.19
7.2
6.1
4.86
3.41
1.68
-0.4
-2.84
-5.59
-8.6
-11.74
-14.73
-17.18
-18.57
-18.43
-16.53
-13.01
-8.3
-3.05
2.1
6.71
10.57
13.67
16.13
18.05
19.51
20.56
21.21
21.51
21.48
21.11
20.32
18.95
16.82
13.79
9.82
5.07
-0.2
-5.72
-11.43
-17.52
-24.45
-32.68
-42.33
-52.95
-63.46
-72.34
-78.08
-79.62
-76.69
-69.89
-60.38
-49.51
-38.43
-27.99
-18.68
-10.8
-4.52
0.1
3.14
4.88
5.79
6.38
7.14
8.4
10.29
12.82
15.8
18.97
21.94
24.37
26.02
26.9
27.21
27.27
27.28
27.24
26.92
25.92
23.87
20.62
16.3
11.38
6.55
2.64
0.37
0.19
2.15
5.85
10.54
15.33
19.44
22.32
23.75
23.75
22.46
20.13
17.05
13.63
10.26
7.36
5.15
3.65
2.69
1.99
1.29
0.41
-0.64
-1.81
-2.98
-4.16
-5.38
-6.79
-8.57
-10.87
-13.76
-17.12
-20.67
-23.93
-26.43
-27.68
-27.4
-25.56
-22.34
-18.2
-13.7
-9.36
-5.57
-2.52
-0.17
1.62
2.96
3.9
4.43
4.52
4.2
3.59
2.82
1.95
0.97
-0.24
-1.74
-3.53
-5.47
-7.36
-9.06
-10.54
-11.95
-13.56
-15.69
-18.47
-21.81
-25.31
-28.32
-30.16
-30.35
-28.75
-25.68
-21.69
-17.42
-13.4
-9.87
-6.85
-4.2
-1.78
0.49
2.61
4.51
6.12
7.37
8.17
8.44
8.12
7.18
5.72
3.89
1.87
-0.15
-2.06
-3.81
-5.4
-6.92
-8.51
-10.33
-12.59
-15.45
-18.86
-22.53
-25.95
-28.42
-29.35
-28.41
-25.7
-21.7
-17.05
-12.39
-8.1
-4.3
-0.9
2.17
4.88
7.05
8.49
9.12
9.04
8.56
8.02
7.68
7.55
7.44
7.08
6.23
4.89
3.19
1.38
-0.37
-2.04
-3.73
-5.65
-8
-10.95
-14.51
-18.52
-22.6
-26.15
-28.46
-28.92
-27.29
-23.76
-18.98
-13.75
-8.74
-4.33
-0.54
2.76
5.71
8.29
10.43
12.01
13.01
13.53
13.71
13.69
13.48
13.08
12.39
11.39
10.09
8.56
6.95
5.43
4.12
3.05
2.09
0.98
-0.6
-2.91
-6.04
-9.82
-13.9
-17.8
-21.01
-23.1
-23.8
-23.01
-20.84
-17.61
-13.74
-9.67
-5.79
-2.32
0.68
3.21
5.32
6.98
8.16
8.82
8.95
8.67
8.16
7.58
7.03
6.48
5.81
4.89
3.69
2.3
0.88
-0.42
-1.58
-2.75
-4.2
-6.17
-8.81
-12.07
-15.76
-19.55
-23.02
-25.72
-27.23
-27.27
-25.78
-22.98
-19.27
-15.1
-10.86
-6.74
-2.81
0.91
4.34
7.28
9.54
10.99
11.68
11.81
11.7
11.58
11.55
11.55
11.36
10.83
9.87
8.6
7.19
5.78
4.43
3.06
1.48
-0.52
-3.04
-6.13
-9.71
-13.59
-17.53
-21.13
-23.95
-25.49
-25.39
-23.51
-20.04
-15.46
-10.4
-5.44
-0.93
2.99
6.38
9.29
11.72
13.55
14.7
15.21
15.22
14.99
14.75
14.6
14.47
14.17
13.51
12.38
10.86
9.13
7.44
5.95
4.73
3.65
2.48
1.02
-0.9
-3.28
-6.06
-9.14
-12.44
-15.74
-18.74
-20.94
-21.82
-21.03
-18.53
-14.64
-9.96
-5.19
-0.86
2.79
5.73
8.1
10.02
11.48
12.41
12.74
12.49
11.86
11.13
10.6
10.44
10.52
10.55
10.19
9.22
7.68
5.84
4
2.39
1.02
-0.26
-1.73
-3.61
-6.04
-9.06
-12.58
-16.43
-20.21
-23.35
-25.25
-25.38
-23.53
-19.93
-15.1
-9.76
-4.55
0.11
4.11
7.52
10.48
13.04
15.1
16.49
17.09
16.9
16.14
15.14
14.21
13.51
13
12.47
11.73
10.69
9.41
8.03
6.69
5.37
3.99
2.36
0.28
-2.33
-5.52
-9.19
-13.09
-16.92
-20.24
-22.6
-23.59
-23.01
-20.85
-17.41
-13.18
-8.68
-4.34
-0.38
3.16
6.3
9.01
11.22
12.81
13.75
14.11
14.09
13.9
13.69
13.47
13.16
12.64
11.85
10.81
9.61
8.34
7.07
5.79
4.45
2.92
1.15
-0.94
-3.37
-6.14
-9.24
-12.58
-15.99
-19.06
-21.27
-22.13
-21.34
-18.97
-15.41
-11.24
-7.04
-3.16
0.29
3.35
6.02
8.22
9.78
10.53
10.46
9.76
8.76
7.79
7.11
6.76
6.64
6.55
6.26
5.61
4.57
3.2
1.7
0.19
-1.25
-2.67
-4.22
-6.07
-8.3
-10.85
-13.59
-16.31
-18.79
-20.81
-22.05
-22.18
-20.88
-18.06
-14
-9.26
-4.53
-0.37
2.97
5.59
7.74
9.66
11.33
12.59
13.21
13.08
12.28
11.06
9.69
8.34
7.05
5.76
4.47
3.26
2.26
1.61
1.36
1.43
1.57
1.48
0.87
-0.44
-2.52
-5.28
-8.51
-11.86
-14.9
-17.17
-18.29
-18.08
-16.57
-14.01
-10.73
-6.99
-2.97
1.25
5.58
9.83
13.76
17.09
19.61
21.32
22.37
22.98
23.37
23.57
23.53
23.02
21.84
19.86
17.16
14.03
10.89
8.17
6.07
4.59
3.45
2.27
0.69
-1.49
-4.24
-7.29
-10.12
-12.06
-12.45
-10.9
-7.46
-2.71
2.39
6.86
10
11.7
12.38
12.73
13.37
14.57
16.18
17.81
19.11
19.9
20.21
20.14
19.73
18.81
17.21
14.76
11.53
7.84
4.16
0.91
-1.72
-3.85
-5.85
-8.14
-11.08
-14.75
-19.02
-23.57
-28.01
-31.98
-35.09
-37.02
-37.47
-36.26
-33.38
-28.95
-23.31
-16.9
-10.19
-3.69
2.1
6.8
10.18
12.26
13.32
13.79
14.17
14.82
15.92
17.35
18.83
19.97
20.36
19.8
18.25
15.91
13.15
10.33
7.74
5.47
3.34
1.05
-1.76
-5.39
-9.84
-14.84
-19.88
-24.36
-27.77
-29.87
-30.74
-30.67
-30
-29
-27.79
-26.41
-24.88
-23.27
-21.74
-20.43
-19.4
-18.61
-17.93
-17.21
-16.35
-15.27
-13.98
-12.53
-11.03
-9.59
-8.32
-7.32
-6.66
-6.43
-6.7
-7.6
-9.23
-11.54
-14.25
-16.85
-18.64
-18.96
-17.39
-13.9
-8.88
-2.98
3.03
8.5
13.06
16.57
19.13
20.93
22.07
22.59
22.46
21.71
20.47
18.92
17.19
15.32
13.24
10.87
8.28
5.72
3.57
2.15
1.55
1.56
1.76
1.72
1.12
-0.13
-1.94
-4.02
-5.99
-7.39
-7.76
-6.74
-4.19
-0.31
4.44
9.4
13.93
17.64
20.37
22.22
23.37
23.97
24.12
23.83
23.14
22.14
20.96
19.66
18.28
16.74
15.01
13.08
11.12
9.3
7.77
6.5
5.27
3.76
1.62
-1.29
-4.95
-9.02
-12.97
-16.18
-18.07
-18.33
-16.94
-14.19
-10.58
-6.6
-2.55
1.36
5.04
8.38
11.17
13.2
14.38
14.81
14.78
14.63
14.56
14.57
14.45
13.99
13.09
11.86
10.54
9.39
8.53
7.88
7.18
6.16
4.53
2.11
-1.08
-4.88
-8.91
-12.61
-15.4
-16.76
-16.42
-14.41
-11.05
-6.83
-2.3
2.08
5.98
9.23
11.76
13.62
14.84
15.48
15.64
15.4
14.9
14.25
13.5
12.68
11.7
10.49
9
7.3
5.53
3.86
2.41
1.17
-0.01
-1.37
-3.16
-5.5
-8.38
-11.55
-14.58
-16.9
-18.02
-17.58
-15.58
-12.27
-8.15
-3.74
0.57
4.56
8.16
11.26
13.72
15.32
15.95
15.66
14.77
13.68
12.74
12.1
11.66
11.14
10.22
8.74
6.76
4.49
2.26
0.32
-1.26
-2.64
-4.1
-5.96
-8.42
-11.47
-14.9
-18.27
-21.13
-22.98
-23.5
-22.54
-20.2
-16.76
-12.66
-8.35
-4.21
-0.52
2.62
5.17
7.13
8.48
9.24
9.5
9.46
9.38
9.48
9.84
10.3
10.56
10.27
9.25
7.61
5.71
3.94
2.55
1.5
0.49
-0.82
-2.66
-5.13
-8.05
-11.2
-14.26
-16.88
-18.72
-19.45
-18.87
-17.01
-14.11
-10.55
-6.76
-3.06
0.32
3.28
5.76
7.66
8.93
9.55
9.6
9.27
8.81
8.42
8.2
8.07
7.85
7.32
6.3
4.77
2.83
0.71
-1.32
-3.11
-4.65
-6.05
-7.52
-9.3
-11.51
-14.11
-16.87
-19.36
-21.06
-21.48
-20.3
-17.51
-13.45
-8.74
-4.02
0.14
3.47
5.96
7.73
8.93
9.59
9.67
9.18
8.27
7.22
6.36
5.85
5.6
5.34
4.74
3.63
2.17
0.7
-0.4
-0.99
-1.22
-1.48
-2.16
-3.56
-5.76
-8.67
-12.11
-15.74
-19.13
-21.73
-22.94
-22.34
-19.91
-15.99
-11.27
-6.48
-2.17
1.4
4.25
6.48
8.18
9.33
9.9
9.91
9.52
8.93
8.41
8.06
7.89
7.79
7.62
7.25
6.61
5.68
4.5
3.12
1.63
0.06
-1.58
-3.36
-5.35
-7.67
-10.33
-13.24
-16.18
-18.77
-20.58
-21.19
-20.34
-18.04
-14.53
-10.27
-5.77
-1.47
2.35
5.56
8.11
9.96
11.09
11.53
11.38
10.82
10.1
9.44
9.03
8.89
8.98
9.09
9.05
8.71
8.03
7.05
5.9
4.68
3.42
2.07
0.49
-1.47
-3.91
-6.9
-10.39
-14.21
-18.02
-21.34
-23.62
-24.35
-23.3
-20.57
-16.6
-12
-7.4
-3.19
0.42
3.41
5.8
7.59
8.76
9.31
9.38
9.17
8.96
8.95
9.24
9.79
10.4
10.81
10.8
10.29
9.29
7.99
6.61
5.28
4.04
2.74
1.21
-0.75
-3.19
-6.11
-9.38
-12.88
-16.38
-19.55
-21.94
-23.09
-22.71
-20.83
-17.8
-14.2
-10.6
-7.27
-4.26
-1.44
1.3
3.93
6.24
7.99
9.01
9.38
9.3
9.15
9.22
9.67
10.45
11.3
11.86
11.85
11.15
9.85
8.21
6.5
4.8
3.07
1.11
-1.23
-3.96
-6.93
-9.97
-12.91
-15.63
-18.07
-20
-21.09
-20.93
-19.22
-15.94
-11.44
-6.3
-1.15
3.53
7.56
10.92
13.68
15.81
17.24
17.82
17.58
16.68
15.46
14.25
13.28
12.59
12.05
11.51
10.78
9.81
8.63
7.3
5.88
4.39
2.75
0.87
-1.37
-4.07
-7.29
-11.02
-15.15
-19.45
-23.44
-26.55
-28.12
-27.71
-25.27
-21.18
-16.13
-10.9
-6.06
-1.91
1.54
4.31
6.44
7.88
8.62
8.78
8.67
8.59
8.77
9.22
9.69
9.85
9.43
8.36
6.8
5.08
3.57
2.47
1.73
1.06
0.04
-1.71
-4.42
-8
-12.02
-15.89
-18.91
-20.51
-20.37
-18.5
-15.21
-10.99
-6.38
-1.83
2.36
6.01
9.03
11.27
12.62
13.03
12.65
11.82
11.01
10.6
10.76
11.34
11.97
12.27
12.03
11.21
9.97
8.46
6.72
4.74
2.44
-0.2
-3.14
-6.36
-9.9
-13.82
-18.09
-22.4
-26.14
-28.52
-28.85
-26.87
-22.86
-17.53
-11.72
-6.15
-1.17
3.12
6.78
9.78
12.06
13.51
14.18
14.27
14.07
13.84
13.65
13.4
12.86
11.86
10.38
8.66
7.01
5.72
4.84
4.15
3.27
1.82
-0.47
-3.68
-7.67
-12.17
-16.73
-20.79
-23.7
-24.88
-24.02
-21.24
-17.04
-12.17
-7.32
-2.9
0.95
4.28
7.16
9.54
11.24
12.14
12.27
11.83
11.18
10.67
10.49
10.62
10.86
10.88
10.41
9.33
7.72
5.78
3.73
1.71
-0.36
-2.75
-5.76
-9.6
-14.24
-19.32
-24.21
-28.16
-30.45
-30.66
-28.78
-25.19
-20.54
-15.54
-10.68
-6.2
-2.12
1.6
4.87
7.48
9.2
9.94
9.93
9.64
9.58
10.07
11.05
12.15
12.88
12.89
12.13
10.84
9.38
7.97
6.58
5
2.88
0.04
-3.58
-7.88
-12.67
-17.66
-22.45
-26.47
-29.08
-29.73
-28.12
-24.37
-18.97
-12.57
-5.73
1.22
8.12
14.82
21.05
26.42
30.5
33.05
34.19
34.38
34.26
34.4
35.08
36.17
37.24
37.77
37.39
36.04
33.94
31.53
29.21
27.21
25.49
23.74
21.33
17.57
11.83
3.8
-6.27
-17.4
-28.11
-36.72
-41.82
-42.72
-39.68
-33.84
-26.89
-20.53
-15.94
-13.49
-12.67
-12.36
-11.36
-8.84
-4.64
0.62
5.76
9.31
9.86
6.4
-1.4
-12.95
-26.86
-41.15
-53.82
-63.31
-68.94
-70.88
-69.96
-67.29
-63.91
-60.6
-57.8
-55.55
-53.6
-51.4
-48.28
-43.68
-37.38
-29.58
-20.93
-12.33
-4.62
1.58
6.1
9.19
11.43
13.53
16.13
19.56
23.73
28.17
32.2
35.16
36.64
36.53
35.06
32.61
29.65
26.58
23.66
21.01
18.57
16.13
13.46
10.46
7.34
4.61
2.97
3.07
5.15
8.9
13.63
18.46
22.77
26.29
29.06
31.19
32.62
33.12
32.41
30.49
27.66
24.54
21.71
19.53
18.05
16.99
16.05
14.94
13.53
11.77
9.66
7.2
4.39
1.14
-2.66
-7.1
-12.14
-17.48
-22.51
-26.36
-28.2
-27.48
-24.13
-18.59
-11.62
-4.07
3.38
10.33
16.58
22.1
26.8
30.62
33.42
35.2
36.07
36.26
36.08
35.75
35.39
34.93
34.21
33.09
31.49
29.42
26.98
24.26
21.3
18.01
14.22
9.81
4.88
-0.13
-4.47
-7.28
-7.88
-5.99
-1.9
3.7
10
16.31
22.27
27.79
32.89
37.56
41.74
45.26
47.99
49.88
50.88
50.97
50.13
48.38
45.85
42.77
39.47
36.32
33.61
31.58
30.24
29.48
28.96
28.16
26.57
23.75
19.6
14.45
9
4.21
0.99
0.02
1.56
5.41
10.96
17.3
23.42
28.49
32.03
33.94
34.47
33.97
32.71
30.73
27.97
24.32
19.87
14.92
9.85
5.06
0.79
-2.8
-5.66
-7.71
-8.93
-9.39
-9.39
-9.42
-10.06
-11.74
-14.45
-17.72
-20.71
-22.61
-22.99
-22.03
-20.42
-19.03
-18.52
-19.04
-20.28
-21.63
-22.59
-22.87
-22.44
-21.49
-20.19
-18.73
-17.31
-16.15
-15.48
-15.43
-16.04
-17.16
-18.52
-19.83
-20.81
-21.27
-21.14
-20.56
-19.84
-19.46
-19.98
-21.73
-24.63
-28.1
-31.14
-32.69
-32.04
-29.08
-24.36
-18.87
-13.67
-9.42
-6.35
-4.21
-2.56
-1.06
0.48
2.01
3.4
4.61
5.66
6.58
7.4
7.99
8.18
7.77
6.69
5
2.94
0.77
-1.33
-3.29
-5.18
-7.18
-9.46
-12.17
-15.28
-18.58
-21.67
-24.09
-25.39
-25.24
-23.58
-20.46
-16.14
-10.93
-5.26
0.32
5.07
8.29
9.45
8.52
6.01
2.87
0.13
-1.49
-1.79
-1.05
0.19
1.46
2.49
3.26
3.8
4
3.68
2.54
0.44
-2.58
-6.24
-10.18
-14.1
-17.79
-21.13
-23.91
-25.8
-26.4
-25.37
-22.66
-18.64
-13.93
-9.27
-5.21
-2.02
0.38
2.24
3.85
5.38
6.83
8.12
9.09
9.58
9.51
8.89
7.79
6.32
4.6
2.72
0.72
-1.41
-3.67
-6.09
-8.76
-11.72
-14.97
-18.38
-21.62
-24.15
-25.42
-25.03
-22.92
-19.43
-15.18
-10.84
-6.91
-3.58
-0.75
1.77
4.12
6.28
8.05
9.22
9.65
9.36
8.52
7.4
6.22
5.07
3.94
2.78
1.51
0.12
-1.31
-2.75
-4.19
-5.69
-7.4
-9.46
-11.99
-14.88
-17.75
-19.99
-20.89
-19.92
-16.94
-12.31
-6.74
-1.1
3.96
8.19
11.75
14.95
18.08
21.14
23.9
26.06
27.41
27.97
28.01
27.91
28.02
28.53
29.43
30.5
31.35
31.44
30.12
26.84
21.28
13.59
4.46
-4.99
-13.47
-19.82
-23.31
-23.78
-21.6
-17.46
-12.13
-6.27
-0.32
5.46
10.84
15.54
19.21
21.58
22.55
22.34
21.37
20.09
18.77
17.44
15.98
14.25
12.26
10.12
7.97
5.81
3.51
0.86
-2.3
-6.04
-10.36
-15.18
-20.46
-26.04
-31.6
-36.62
-40.46
-42.52
-42.53
-40.57
-37.09
-32.65
-27.76
-22.74
-17.77
-12.98
-8.55
-4.76
-1.86
0.02
0.92
1.09
0.83
0.41
0.03
-0.21
-0.32
-0.35
-0.44
-0.72
-1.31
-2.28
-3.64
-5.33
-7.38
-9.92
-13.11
-17.05
-21.6
-26.27
-30.35
-33.07
-33.88
-32.52
-29.17
-24.26
-18.38
-12.1
-5.86
0.08
5.65
10.81
15.5
19.53
22.66
24.71
25.66
25.79
25.5
25.15
24.87
24.47
23.65
22.15
19.97
17.36
14.69
12.27
10.17
8.28
6.34
4.12
1.39
-1.96
-5.94
-10.39
-14.88
-18.8
-21.43
-22.21
-20.99
-18.1
-14.21
-10.07
-6.15
-2.55
0.94
4.54
8.25
11.75
14.51
16.1
16.39
15.66
14.42
13.24
12.43
12
11.69
11.15
10.1
8.43
6.21
3.64
0.92
-1.79
-4.46
-7.17
-10.1
-13.41
-17.21
-21.44
-25.89
-30.15
-33.68
-35.94
-36.48
-35.09
-31.9
-27.29
-21.82
-16.04
-10.29
-4.71
0.68
5.87
10.7
14.83
17.9
19.66
20.18
19.79
18.99
18.26
17.86
17.82
17.92
17.86
17.34
16.24
14.62
12.65
10.59
8.59
6.69
4.72
2.43
-0.41
-3.98
-8.3
-13.21
-18.39
-23.34
-27.42
-29.95
-30.38
-28.45
-24.31
-18.55
-11.97
-5.4
0.58
5.74
10.14
14
17.5
20.64
23.22
24.98
25.76
25.57
24.68
23.47
22.32
21.4
20.7
20.02
19.16
17.94
16.34
14.38
12.09
9.46
6.45
3.08
-0.61
-4.52
-8.6
-12.87
-17.43
-22.36
-27.5
-32.42
-36.4
-38.66
-38.64
-36.19
-31.69
-25.85
-19.55
-13.52
-8.18
-3.56
0.55
4.45
8.3
12.07
15.52
18.35
20.37
21.56
22.11
22.28
22.27
22.09
21.62
20.7
19.24
17.31
15.09
12.82
10.63
8.53
6.37
3.94
1.07
-2.33
-6.24
-10.5
-14.91
-19.19
-22.98
-25.82
-27.27
-26.95
-24.79
-21.02
-16.19
-10.94
-5.73
-0.8
3.84
8.16
12.04
15.21
17.35
18.34
18.32
17.69
16.98
16.63
16.84
17.54
18.37
18.89
18.69
17.59
15.68
13.3
10.82
8.51
6.41
4.32
1.99
-0.79
-4.12
-7.94
-12.06
-16.21
-20.02
-22.98
-24.61
-24.48
-22.45
-18.75
-13.93
-8.64
-3.46
1.28
5.57
9.45
12.93
15.87
17.96
18.96
18.81
17.74
16.21
14.74
13.73
13.37
13.62
14.22
14.83
15.13
14.88
13.94
12.31
10.04
7.26
4.1
0.66
-3.04
-7.04
-11.36
-15.95
-20.55
-24.76
-28.02
-29.85
-29.98
-28.42
-25.46
-21.59
-17.32
-13.07
-9.16
-5.75
-2.95
-0.81
0.63
1.41
1.61
1.46
1.21
1.1
1.27
1.65
2.04
2.07
1.47
0.09
-1.94
-4.28
-6.55
-8.46
-10.01
-11.42
-13.09
-15.34
-18.38
-22.12
-26.26
-30.31
-33.73
-36.01
-36.76
-35.8
-33.17
-29.13
-24.09
-18.51
-12.83
-7.42
-2.55
1.63
5.04
7.7
9.7
11.18
12.26
13.02
13.48
13.57
13.2
12.32
10.97
9.27
7.44
5.71
4.17
2.79
1.35
-0.5
-3.06
-6.48
-10.71
-15.48
-20.31
-24.57
-27.6
-28.86
-28.08
-25.38
-21.21
-16.2
-10.99
-5.96
-1.22
3.3
7.63
11.64
14.98
17.31
18.44
18.45
17.65
16.4
15
13.57
12.16
10.76
9.39
8.11
6.96
5.88
4.71
3.19
1.04
-2
-6.06
-11.05
-16.55
-21.84
-26.02
-28.25
-28.04
-25.4
-20.83
-15.08
-8.94
-2.97
2.53
7.48
11.86
15.57
18.49
20.49
21.56
21.84
21.57
21.05
20.54
20.19
20.01
19.93
19.8
19.44
18.75
17.65
16.09
14.05
11.45
8.21
4.25
-0.41
-5.6
-10.86
-15.55
-18.96
-20.53
-20
-17.54
-13.61
-8.79
-3.61
1.57
6.54
11.1
15
18.03
20.07
21.17
21.64
21.8
21.92
22.08
22.14
21.88
21.13
19.8
17.97
15.76
13.37
11
8.83
6.92
5.17
3.26
0.76
-2.74
-7.36
-12.83
-18.43
-23.26
-26.4
-27.31
-25.9
-22.56
-17.98
-12.91
-7.98
-3.51
0.37
3.72
6.61
9.01
10.83
11.99
12.54
12.63
12.58
12.63
12.89
13.2
13.29
12.88
11.88
10.42
8.75
7.11
5.61
4.14
2.51
0.56
-1.84
-4.72
-8.04
-11.75
-15.68
-19.47
-22.57
-24.37
-24.37
-22.41
-18.75
-13.93
-8.58
-3.21
1.91
6.61
10.82
14.37
17.06
18.78
19.57
19.67
19.37
18.98
18.64
18.32
17.9
17.2
16.13
14.69
13
11.2
9.44
7.77
6.15
4.51
2.72
0.75
-1.5
-4.09
-7.15
-10.79
-14.93
-19.21
-22.95
-25.33
-25.63
-23.56
-19.31
-13.57
-7.21
-1.03
4.44
8.96
12.51
15.11
16.74
17.4
17.21
16.42
15.44
14.66
14.35
14.51
14.95
15.33
15.35
14.81
13.67
11.98
9.87
7.52
5.09
2.72
0.48
-1.7
-3.98
-6.59
-9.71
-13.36
-17.31
-21.1
-24.07
-25.57
-25.15
-22.7
-18.54
-13.27
-7.64
-2.29
2.37
6.22
9.34
11.79
13.6
14.71
15.07
14.78
14.11
13.4
12.96
12.89
13.11
13.37
13.45
13.18
12.52
11.52
10.21
8.62
6.74
4.6
2.24
-0.28
-2.92
-5.72
-8.81
-12.3
-16.16
-20.1
-23.57
-25.83
-26.25
-24.54
-20.89
-15.91
-10.39
-5.02
-0.18
4
7.51
10.31
12.25
13.2
13.16
12.4
11.41
10.72
10.63
11.18
12.06
12.84
13.13
12.71
11.59
9.95
8.03
6.06
4.12
2.21
0.2
-2.07
-4.75
-8
-11.87
-16.26
-20.91
-25.35
-28.93
-31
-31.05
-28.87
-24.62
-18.84
-12.29
-5.73
0.22
5.19
9.08
11.94
13.92
15.13
15.65
15.51
14.8
13.67
12.39
11.23
10.42
10.05
10.01
10.07
9.94
9.43
8.51
7.23
5.72
3.99
2.02
-0.34
-3.22
-6.76
-10.98
-15.77
-20.87
-25.83
-30.05
-32.89
-33.87
-32.83
-29.98
-25.88
-21.17
-16.41
-11.94
-7.88
-4.23
-1.03
1.65
3.64
4.84
5.26
5.08
4.67
4.43
4.7
5.59
6.92
8.28
9.19
9.27
8.44
6.88
4.93
2.97
1.13
-0.64
-2.6
-5.05
-8.17
-11.95
-16.19
-20.49
-24.31
-27.15
-28.54
-28.27
-26.29
-22.83
-18.32
-13.25
-8.13
-3.32
0.93
4.47
7.24
9.14
10.13
10.2
9.48
8.25
6.87
5.69
4.87
4.4
4.04
3.63
3.03
2.31
1.55
0.79
-0.04
-1.14
-2.7
-4.83
-7.52
-10.71
-14.26
-17.97
-21.52
-24.37
-25.93
-25.71
-23.58
-19.91
-15.41
-10.92
-7.02
-3.9
-1.4
0.82
2.93
4.86
6.32
7.02
6.81
5.88
4.57
3.24
2.04
0.92
-0.2
-1.39
-2.5
-3.28
-3.56
-3.36
-3.01
-2.98
-3.72
-5.38
-7.83
-10.72
-13.67
-16.5
-19.16
-21.68
-23.89
-25.46
-25.91
-24.91
-22.38
-18.61
-14.07
-9.19
-4.26
0.66
5.48
10.02
13.88
16.66
18.14
18.39
17.82
16.92
16.14
15.72
15.68
15.88
16.09
16.08
15.64
14.7
13.26
11.46
9.48
7.47
5.51
3.51
1.3
-1.34
-4.59
-8.54
-13.08
-17.86
-22.28
-25.57
-27.05
-26.32
-23.47
-18.98
-13.58
-8
-2.73
2.03
6.29
10.12
13.52
16.45
18.77
20.39
21.31
21.62
21.47
21.06
20.51
19.87
19.12
18.19
17.03
15.67
14.17
12.61
11
9.3
7.42
5.26
2.81
0.08
-2.89
-6.02
-9.32
-12.83
-16.62
-20.78
-25.21
-29.62
-33.5
-36.23
-37.31
-36.51
-33.92
-29.92
-25.03
-19.71
-14.31
-8.99
-3.82
1.19
5.98
10.49
14.61
18.18
21.02
23.01
24.08
24.33
23.93
23.08
21.96
20.68
19.29
17.81
16.27
14.71
13.13
11.48
9.65
7.53
5.1
2.47
-0.15
-2.59
-4.8
-7.01
-9.6
-12.89
-16.98
-21.49
-25.68
-28.68
-29.78
-28.69
-25.63
-21.21
-16.14
-11.02
-6.22
-1.82
2.24
6.07
9.72
13.16
16.3
19.05
21.33
23.14
24.5
25.47
26.06
26.26
26.03
25.31
24.14
22.57
20.74
18.76
16.65
14.41
11.99
9.38
6.67
3.91
1.09
-1.93
-5.43
-9.73
-14.98
-21.07
-27.5
-33.47
-38.07
-40.51
-40.34
-37.6
-32.74
-26.49
-19.69
-13.03
-7.02
-1.84
2.49
6.18
9.42
12.36
14.96
17.04
18.41
19
19
18.76
18.67
18.96
19.61
20.35
20.81
20.67
19.81
18.29
16.3
14.09
11.86
9.71
7.63
5.46
3.01
0.07
-3.47
-7.62
-12.21
-16.93
-21.36
-24.99
-27.26
-27.72
-26.13
-22.61
-17.62
-11.87
-6.02
-0.56
4.36
8.82
13
17
20.72
23.97
26.53
28.31
29.29
29.55
29.2
28.32
26.99
25.33
23.55
21.84
20.33
19
17.67
16.06
13.87
10.96
7.35
3.21
-1.19
-5.61
-9.96
-14.27
-18.63
-23.12
-27.63
-31.83
-35.25
-37.36
-37.81
-36.56
-33.89
-30.26
-26.23
-22.15
-18.19
-14.35
-10.51
-6.6
-2.67
1.06
4.33
6.87
8.52
9.34
9.56
9.56
9.66
10.04
10.66
11.26
11.52
11.23
10.35
9.03
7.54
6.11
4.89
3.84
2.8
1.47
-0.45
-3.22
-6.97
-11.62
-16.77
-21.72
-25.64
-27.78
-27.75
-25.62
-21.85
-17.19
-12.25
-7.48
-2.98
1.29
5.35
9.09
12.29
14.7
16.24
17.05
17.33
17.39
17.39
17.35
17.18
16.76
16.04
15.08
14
12.92
11.89
10.87
9.71
8.19
6.13
3.34
-0.23
-4.53
-9.41
-14.57
-19.53
-23.77
-26.68
-27.79
-26.88
-24.15
-20.08
-15.35
-10.58
-6.1
-2.02
1.81
5.49
9.02
12.22
14.87
16.8
18
18.62
18.84
18.82
18.57
18.04
17.12
15.76
14.07
12.26
10.57
9.17
8.05
7.03
5.77
3.94
1.34
-2.07
-6.17
-10.7
-15.43
-20.06
-24.23
-27.48
-29.29
-29.25
-27.22
-23.48
-18.63
-13.44
-8.52
-4.15
-0.22
3.55
7.4
11.32
15.03
18.13
20.3
21.44
21.7
21.39
20.8
20.16
19.51
18.84
18.1
17.27
16.37
15.33
14.04
12.31
9.95
6.85
3.05
-1.24
-5.72
-10.16
-14.47
-18.72
-22.99
-27.16
-30.85
-33.4
-34.13
-32.65
-29.03
-23.81
-17.77
-11.67
-5.98
-0.88
3.63
7.6
11
13.79
15.94
17.55
18.79
19.82
20.76
21.59
22.23
22.52
22.34
21.61
20.32
18.63
16.72
14.84
13.19
11.81
10.61
9.38
7.87
5.9
3.38
0.27
-3.42
-7.66
-12.41
-17.47
-22.46
-26.87
-30.07
-31.58
-31.12
-28.79
-24.96
-20.21
-15.07
-9.82
-4.55
0.84
6.39
12.02
17.39
22.06
25.61
27.86
28.79
28.6
27.58
26.04
24.24
22.41
20.74
19.28
17.96
16.63
15
12.92
10.3
7.2
3.76
0.15
-3.5
-7.11
-10.71
-14.39
-18.32
-22.62
-27.26
-31.92
-36.01
-38.83
-39.73
-38.37
-34.86
-29.7
-23.6
-17.26
-11.19
-5.66
-0.74
3.6
7.31
10.29
12.38
13.5
13.7
13.26
12.57
12
11.75
11.71
11.54
10.86
9.41
7.21
4.52
1.72
-0.94
-3.36
-5.72
-8.27
-11.27
-14.91
-19.26
-24.24
-29.67
-35.19
-40.26
-44.16
-46.11
-45.52
-42.24
-36.65
-29.61
-22.16
-15.17
-9.08
-3.92
0.59
4.7
8.39
11.46
13.62
14.72
14.92
14.61
14.2
13.97
13.94
13.94
13.74
13.2
12.33
11.31
10.29
9.34
8.38
7.25
5.79
3.94
1.73
-0.71
-3.35
-6.26
-9.61
-13.51
-17.8
-21.97
-25.21
-26.71
-25.94
-22.87
-18.02
-12.2
-6.26
-0.76
4.07
8.26
11.84
14.75
16.73
17.6
17.3
16.08
14.36
12.6
11.09
9.83
8.63
7.23
5.51
3.54
1.49
-0.42
-2.12
-3.7
-5.36
-7.35
-9.91
-13.22
-17.32
-22.14
-27.4
-32.62
-37.16
-40.29
-41.32
-39.83
-35.76
-29.43
-21.5
-12.72
-3.8
4.71
12.44
19.05
24.21
27.58
29.03
28.74
27.25
25.34
23.67
22.53
21.77
20.99
19.79
18.05
15.91
13.71
11.76
10.1
8.52
6.66
4.15
0.74
-3.66
-8.94
-14.77
-20.63
-25.87
-29.71
-31.48
-30.79
-27.59
-22.31
-15.65
-8.46
-1.43
5.01
10.7
15.65
19.86
23.24
25.6
26.79
26.83
25.92
24.43
22.71
21.03
19.43
17.86
16.24
14.53
12.79
11.08
9.42
7.71
5.77
3.36
0.26
-3.64
-8.36
-13.65
-19.02
-23.71
-26.89
-27.85
-26.28
-22.36
-16.7
-10.1
-3.24
3.39
9.56
15.09
19.83
23.59
26.22
27.74
28.33
28.34
28.07
27.69
27.21
26.45
25.21
23.31
20.78
17.81
14.67
11.6
8.75
6.02
3.18
-0.11
-4.16
-9.1
-14.81
-20.8
-26.27
-30.23
-31.74
-30.29
-25.93
-19.36
-11.6
-3.71
3.56
9.89
15.23
19.65
23.11
25.48
26.63
26.64
25.83
24.68
23.69
23.07
22.75
22.35
21.4
19.59
16.9
13.64
10.26
7.16
4.47
1.95
-0.94
-4.76
-9.88
-16.22
-23.19
-29.84
-35.01
-37.68
-37.31
-33.92
-28.1
-20.74
-12.77
-4.93
2.36
8.92
14.69
19.57
23.41
26.05
27.46
27.81
27.42
26.65
25.77
24.85
23.79
22.49
20.85
18.89
16.75
14.59
12.52
10.6
8.77
6.82
4.42
1.11
-3.47
-9.45
-16.54
-23.99
-30.69
-35.49
-37.47
-36.15
-31.62
-24.46
-15.59
-6.12
2.89
10.64
16.72
21.08
23.99
25.84
26.97
27.59
27.84
27.83
27.71
27.57
27.43
27.16
26.56
25.45
23.81
21.81
19.71
17.8
16.27
15.12
14.16
13.11
11.67
9.54
6.48
2.33
-2.84
-8.65
-14.39
-19.04
-21.58
-21.38
-18.41
-13.33
-7.25
-1.25
3.99
8.34
12.13
15.75
19.33
22.66
25.26
26.69
26.82
25.86
24.29
22.59
21.09
19.87
18.84
17.82
16.74
15.65
14.58
13.52
12.23
10.36
7.54
3.65
-1.12
-6.28
-11.26
-15.71
-19.65
-23.39
-27.33
-31.56
-35.69
-38.9
-40.18
-38.79
-34.57
-28.02
-20.11
-11.95
-4.42
2.01
7.21
11.31
14.48
16.84
18.49
19.54
20.16
20.58
21.02
21.62
22.43
23.37
24.26
24.89
24.99
24.39
23.04
21.08
18.76
16.37
14.07
11.83
9.44
6.67
3.35
-0.57
-5.04
-9.96
-15.12
-20.16
-24.46
-27.25
-27.84
-25.9
-21.67
-15.93
-9.8
-4.21
0.31
3.78
6.6
9.17
11.66
13.87
15.44
16.05
15.66
14.53
13.14
11.98
11.29
10.98
10.69
9.96
8.46
6.1
3.07
-0.29
-3.67
-6.94
-10.16
-13.55
-17.34
-21.64
-26.39
-31.39
-36.35
-40.9
-44.62
-47.05
-47.72
-46.29
-42.72
-37.38
-31.01
-24.46
-18.45
-13.35
-9.1
-5.44
-2.1
0.96
3.61
5.58
6.75
7.22
7.26
7.23
7.4
7.86
8.48
9.01
9.25
9.09
8.57
7.79
6.8
5.6
4.08
2.1
-0.37
-3.27
-6.46
-9.88
-13.56
-17.68
-22.36
-27.4
-32.28
-36.12
-38.01
-37.33
-33.99
-28.44
-21.53
-14.21
-7.24
-1.11
3.99
8.05
11.12
13.27
14.57
15.13
15.08
14.63
14
13.39
12.89
12.48
12.02
11.38
10.51
9.48
8.42
7.39
6.35
5.05
3.19
0.58
-2.78
-6.7
-10.9
-15.24
-19.75
-24.58
-29.76
-34.99
-39.55
-42.5
-42.99
-40.64
-35.74
-29.1
-21.79
-14.71
-8.35
-2.77
2.21
6.75
10.82
14.23
16.75
18.33
19.16
19.58
19.97
20.49
21.09
21.48
21.29
20.29
18.41
15.9
13.14
10.53
8.35
6.64
5.21
3.67
1.59
-1.41
-5.54
-10.76
-16.87
-23.46
-29.95
-35.61
-39.68
-41.46
-40.62
-37.27
-31.95
-25.52
-18.85
-12.54
-6.88
-1.86
2.68
6.87
10.71
14.08
16.8
18.74
19.83
20.12
19.74
18.91
17.9
16.96
16.31
15.94
15.69
15.19
14.09
12.11
9.21
5.58
1.56
-2.57
-6.71
-11.01
-15.76
-21.19
-27.27
-33.64
-39.66
-44.57
-47.66
-48.45
-46.8
-42.88
-37.15
-30.28
-22.98
-15.87
-9.36
-3.58
1.57
6.27
10.62
14.51
17.7
19.88
20.94
21
20.49
19.89
19.55
19.52
19.49
19.09
18.02
16.23
13.92
11.4
8.94
6.62
4.39
2.06
-0.51
-3.49
-7.02
-11.25
-16.31
-22.09
-28.18
-33.79
-37.91
-39.64
-38.48
-34.56
-28.59
-21.62
-14.67
-8.44
-3.2
1.14
4.92
8.38
11.64
14.64
17.17
19
19.99
20.16
19.66
18.72
17.56
16.32
15
13.57
11.97
10.15
8.07
5.67
2.89
-0.3
-3.92
-7.91
-12.15
-16.56
-21.05
-25.59
-30.16
-34.69
-38.96
-42.55
-44.84
-45.19
-43.03
-38.22
-31.1
-22.42
-13.18
-4.24
3.84
10.85
16.8
21.77
25.82
28.95
31.29
33.07
34.63
36.23
38
39.76
41.21
42.02
42.02
41.26
39.95
38.36
36.71
35.11
33.48
31.62
29.18
25.74
20.92
14.54
6.69
-2.16
-11.36
-20.21
-28.24
-35.2
-40.96
-45.29
-47.76
-47.86
-45.21
-39.98
-32.9
-25.11
-17.7
-11.3
-5.88
-0.88
4.24
9.66
15.03
19.56
22.55
23.67
23.23
21.92
20.57
19.73
19.55
19.88
20.36
20.65
20.57
19.98
18.82
17.06
14.67
11.73
8.34
4.62
0.63
-3.62
-8.2
-13.22
-18.72
-24.6
-30.49
-35.66
-39.19
-40.17
-38.06
-32.98
-25.72
-17.46
-9.41
-2.34
3.57
8.56
13.07
17.34
21.36
24.91
27.71
29.56
30.45
30.46
29.73
28.52
27.17
26.02
25.33
25.18
25.28
25.15
24.28
22.35
19.38
15.64
11.55
7.42
3.36
-0.7
-4.91
-9.39
-14.11
-18.83
-23.14
-26.45
-28.18
-27.9
-25.51
-21.32
-15.9
-9.96
-4.08
1.4
6.33
10.64
14.17
16.65
17.81
17.57
16.13
14.03
11.96
10.48
9.85
9.86
10
9.66
8.44
6.26
3.42
0.31
-2.69
-5.47
-8.15
-11.01
-14.38
-18.45
-23.23
-28.5
-33.79
-38.43
-41.65
-42.75
-41.26
-37.13
-30.77
-22.95
-14.65
-6.75
0.09
5.62
9.87
13.06
15.34
16.83
17.59
17.67
17.25
16.59
15.92
15.34
14.82
14.2
13.38
12.33
11.13
9.88
8.6
7.11
5.17
2.49
-1.12
-5.71
-11.19
-17.29
-23.58
-29.38
