-33.94
-31.58
-28.77
-26.21
-24.49
-23.88
-24.38
-25.67
-27.27
-28.57
-28.99
-28.12
-25.87
-22.59
-18.85
-15.42
-12.91
-11.62
-11.43
-11.83
-12.22
-12.13
-11.54
-10.88
-10.87
-12.15
-14.83
-18.27
-21.07
-21.56
-18.46
-11.41
-1.23
10.36
21.41
30.46
37.06
41.79
45.82
50.22
55.35
60.56
64.32
64.68
59.92
48.99
31.85
9.39
-16.71
-44.39
-71.35
-95.35
-114.52
-127.63
-134.32
-135.07
-131
-123.62
-114.52
-105.15
-96.55
-89.32
-83.7
-79.61
-76.71
-74.44
-72.16
-69.62
-66.79
-63.83
-61.02
-58.74
-57.33
-56.89
-57.1
-57.23
-57.14
-56.64
-55.51
-53.66
-51.51
-50.14
-50.97
-55.22
-63.41
-76.66
-94.61
-114.96
-134.12
-148.74
-157.16
-159.76
-158.29
-154.66
-152.59
-154.23
-159.21
-165.31
-170.24
-173.06
-174.44
-175.97
-179.6
-190.49
-212.69
-246.72
-288.54
-330.97
-366.38
-389.15
-397.26
-369.36
-298.11
-192.08
-72.21
39.77
131.16
199.78
249.92
288.32
319.64
348.04
374.88
399.06
417.3
424.35
414.37
383.86
334.42
271.25
202.99
140.05
91.8
64.32
59.22
73.92
103.09
140.01
177.42
206.9
221.12
216.3
193.22
156.19
110.56
61.12
11.7
-33.93
-71.79
-98.04
-110.47
-110.44
-103.32
-96.59
-96.24
-103.88
-116.53
-129.46
-139.89
-148.71
-158.92
-172.3
-186.64
-195.56
-191.79
-171.38
-136.22
-93.54
-52.16
-18.08
8.15
30.67
55.33
86.23
123.94
166.18
209.63
251.79
291.58
329.03
363.93
395.21
421.04
439.58
450.1
452.96
449.16
439.44
424.29
403.7
377.47
345.43
307.96
266.54
223.13
179.87
138.55
101.39
70.61
47.7
32.65
23.97
19.76
17.99
17.24
16.5
16.15
16.9
18.9
21.28
19.33
10.89
-3.12
-15.83
-24.95
-31.04
-36.78
-44.37
-55.36
-70.2
-87.67
-106.14
-124.27
-141.95
-159.11
-176.02
-193.59
-213.34
-236.53
-262.47
-288.09
-307.96
-315.95
-306.29
-275.73
-224.64
-156.95
-78.85
2.86
81.25
149.67
201.98
234.07
244.67
235.71
211.59
177.86
139.79
101.14
64.07
29.48
-2.29
-31.09
-57.01
-80.22
-100.75
-118.19
-131.84
-140.99
-145.16
-143.82
-136.03
-120.39
-95.76
-62.39
-22.82
18.38
55.94
85.98
107.43
122.26
134.15
146.71
161.98
179.99
199.2
217.36
232.25
242.08
245.79
242.95
234.15
220.88
205.03
188.22
171.3
154.58
138.05
121.79
105.58
88.88
70.63
49.17
22.74
-9.62
-47.12
-86.76
-123.66
-152.84
-170.23
-174.1
-165.92
-150.23
-133.41
-121.29
-117.24
-121.14
-131.68
-146.02
-161.05
-174.62
-186.13
-196.43
-206.61
-216.97
-226.83
-238.68
-254.59
-275.55
-301.15
-330.31
-362.36
-397.16
-434.86
-475.57
-524.25
-582.73
-647.08
-707.66
-753.02
-774.93
-771.17
-745.24
-704.13
-662.31
-629.91
-609.34
-595.97
-583.32
-568.03
-551.06
-535.43
-478.1
-355.89
-171.69
44.51
254.91
433.26
569.08
662.59
719.16
746.39
745.46
719.82
677.26
629.96
588.98
561.14
547.61
545.08
548.03
545.38
529.55
499.19
459.12
416.72
378.22
346.85
322.75
304.95
287.51
264.55
232.3
190.35
140.81
86.82
31.19
-23.93
-76.87
-127.8
-175.92
-218.78
-252.84
-275.15
-284.74
-282.8
-271.41
-252.14
-226.11
-193.42
-154.01
-108.48
-58.62
-6.95
44.18
93.55
141.27
188.13
234.39
278.66
317.22
344.64
355.32
345.46
314.73
266.58
207.34
144.5
85
33.96
-6
-35
-56
-74.58
-97.8
-132.02
-180.1
-239.36
-301.69
-356.3
-393.84
-409.92
-406.06
-387.85
-361.49
-330.79
-296.27
-256.22
-208.67
-152.49
-87.69
-15.02
63.78
145.26
223.58
290.85
339.14
363.12
361.99
339.66
303.21
260.47
217.95
179.73
147.39
120.48
97.11
74.63
50.45
22.91
-8.06
-40.82
-72.64
-100.67
-122.66
-137.39
-144.46
-143.96
-136.3
-122.15
-102.62
-79.32
-54.32
-30.03
-9.07
6.02
13.06
10.64
-1.37
-21.55
-46.85
-73.12
-95.83
-111.11
-116.6
-111.72
-97.58
-76.29
-50.32
-21.63
8.78
40.97
75.28
111.35
147.24
179.24
202.8
213.89
210.19
191.56
159.84
118.45
72.11
26.57
-11.89
-37.82
-48.17
-43.73
-29.15
-11.46
2.58
8.96
7.57
1.57
-4.44
-6.38
-2.16
8.04
22.27
37.75
51.74
62.27
68.54
70.82
70.18
67.99
65.5
63.52
62.47
62.46
63.53
65.71
69.03
73.36
78.41
83.8
89.17
94.11
97.93
99.44
97.01
88.98
74.48
54.01
29.59
4.29
-18.81
-37.39
-50.46
-58.11
-61.12
-60.47
-57.04
-51.61
-44.94
-37.83
-31
-24.95
-19.95
-16.01
-13.05
-10.99
-9.83
-9.62
-10.28
-11.57
-12.96
-13.86
-13.74
-12.52
-10.67
-9.06
-8.69
-10.26
-13.86
-19
-24.78
-30.19
-34.47
-37.2
-38.38
-38.22
-37.16
-35.65
-34.14
-32.95
-32.2
-31.88
-31.81
-31.78
-31.55
-30.83
-29.3
-26.65
-22.74
-17.72
-12.09
-6.51
-1.63
2.23
5.09
7.2
8.92
10.48
11.97
13.41
14.76
16
17.04
17.76
18.02
17.73
16.92
15.77
14.53
13.5
12.96
13.1
14.04
15.69
17.88
20.28
22.58
24.48
25.88
26.79
27.36
27.77
28.17
28.61
29.04
29.3
29.22
28.77
28.14
27.66
27.73
28.42
29.3
29.38
27.47
22.73
15.19
5.97
-3.07
-9.96
-13.34
-12.93
-9.43
-4.22
1.14
5.16
6.6
4.56
-1.36
-10.76
-22.46
-34.64
-45.48
-53.79
-59.37
-62.98
-65.76
-68.59
-71.67
-74.58
-76.55
-77.02
-75.83
-73.28
-69.78
-65.74
-61.38
-56.8
-52.07
-47.27
-42.43
-37.51
-32.31
-26.6
-20.26
-13.38
-6.35
0.22
5.69
9.47
11.25
11.04
9.24
6.6
4.03
2.38
2.16
3.42
5.68
8.22
10.4
11.84
12.42
12.23
11.27
9.4
6.44
2.29
-2.91
-8.73
-14.69
-20.41
-25.77
-30.87
-35.91
-41.02
-46.17
-51.14
-55.62
-59.32
-61.91
-63.1
-62.58
-60.01
-55.17
-48.03
-38.9
-28.48
-17.73
-7.7
0.81
7.37
12.11
15.5
18.12
20.43
22.61
24.62
26.32
27.61
28.41
28.68
28.36
27.34
25.59
23.16
20.23
17
13.63
10.23
6.78
3.18
-0.73
-5.08
-9.94
-15.31
-21.07
-27.1
-33.24
-39.4
-45.37
-50.84
-55.35
-58.44
-59.8
-59.46
-57.73
-55.07
-51.86
-48.21
-43.93
-38.73
-32.37
-24.72
-15.78
-5.45
6.59
20.84
37.77
57.43
79.07
101.04
120.97
136.24
144.87
146.17
141.02
131.7
120.99
111.28
103.69
97.84
92.06
84.23
72.86
57.93
41.07
25.11
13.05
6.91
6.78
10.39
13.5
11.06
-1.14
-24.59
-57.14
-93.14
-125.23
-147.04
-155.93
-154.4
-149.42
-149.84
-162.71
-190.32
-229.05
-270.56
-304.75
-323.05
-321.01
-299.3
-263.16
-220.58
-180.18
-149.11
-131.43
-127.17
-132.37
-140.38
-144.07
-138.13
-120.71
-93.7
-61.65
-30.03
-3.72
13.85
20.96
17.67
5.95
-10.26
-25.67
-35.06
-35.12
-25.92
-10.66
5.94
20.01
30.03
36.78
41.98
46.74
50.93
53.79
55.07
55.74
57.75
62.81
71.3
82.11
93.4
103.91
113.89
125.1
139.72
159.04
182.37
206.95
228.73
243.68
249.17
244.78
232.26
214.74
195.48
176.79
159.57
143.59
128.27
113.39
99.33
86.74
76.02
66.82
58.13
48.74
37.92
25.78
13.51
2.81
-4.65
-7.9
-7.01
-2.97
2.71
8.52
13.43
17.06
19.63
21.59
23.39
25.13
26.62
27.48
27.44
26.44
24.71
22.66
20.68
19.06
17.96
17.38
17.24
17.45
17.84
18.26
18.53
18.42
17.68
16.14
13.67
10.38
6.55
2.72
-0.5
-2.56
-3.13
-2.25
-0.28
2.17
4.47
6.15
7.04
7.24
7.08
6.97
7.17
7.83
8.84
10.04
11.2
12.19
12.91
13.28
13.2
12.55
11.33
9.66
7.86
6.35
5.44
5.22
5.49
5.89
5.97
5.37
3.86
1.39
-1.91
-5.69
-9.45
-12.6
-14.63
-15.24
-14.37
-12.19
-9.02
-5.24
-1.25
2.5
5.57
7.56
8.33
8.09
7.33
6.71
6.77
7.79
9.65
11.88
13.84
14.92
14.73
13.28
10.98
8.44
6.23
4.61
3.43
2.26
0.6
-1.82
-4.87
-8.18
-11.2
-13.45
-14.6
-14.5
-13.18
-10.82
-7.75
-4.46
-1.38
1.15
3.05
4.47
5.69
6.94
8.32
9.78
11.15
12.31
13.15
13.6
13.62
13.2
12.29
10.98
9.42
7.91
6.76
6.19
6.2
6.52
6.63
5.97
4.04
0.68
-3.87
-9.04
-14.02
-18.07
-20.67
-21.68
-21.26
-19.73
-17.45
-14.62
-11.44
-8.07
-4.75
-1.82
0.39
1.73
2.3
2.39
2.41
2.63
3.1
3.69
4.15
4.32
4.1
3.5
2.63
1.58
0.45
-0.67
-1.71
-2.65
-3.55
-4.54
-5.74
-7.22
-8.85
-10.31
-11.21
-11.14
-9.88
-7.46
-4.23
-0.72
2.45
4.81
6.11
6.44
6.05
5.3
4.49
3.82
3.4
3.28
3.5
4.05
4.83
5.72
6.5
7.03
7.28
7.32
7.25
7.17
7.1
6.94
6.59
5.9
4.77
3.1
0.92
-1.7
-4.51
-7.1
-9.04
-9.91
-9.47
-7.78
-5.12
-1.91
1.44
4.61
7.41
9.73
11.48
12.59
13.02
12.83
12.17
11.28
10.41
9.73
9.32
9.12
8.95
8.66
8.1
7.25
6.23
5.19
4.36
3.77
3.34
2.78
1.74
-0.05
-2.7
-6.04
-9.69
-13.09
-15.69
-17.02
-16.87
-15.35
-12.86
-9.96
-7.22
-5.06
-3.68
-3.05
-2.98
-3.22
-3.53
-3.68
-3.52
-2.91
-1.82
-0.29
1.48
3.22
4.68
5.66
6.05
5.86
5.18
4.22
3.25
2.52
2.2
2.32
2.7
3.04
3.06
2.5
1.24
-0.72
-3.26
-6.14
-8.95
-11.23
-12.54
-12.59
-11.4
-9.29
-6.72
-4.21
-2.07
-0.4
0.82
1.67
2.24
2.57
2.75
2.86
2.97
3.12
3.29
3.41
3.44
3.39
3.24
2.97
2.5
1.72
0.64
-0.66
-1.97
-3.09
-3.87
-4.37
-4.79
-5.39
-6.38
-7.82
-9.6
-11.47
-13.11
-14.24
-14.67
-14.35
-13.37
-11.89
-10.09
-8.11
-6.06
-4.06
-2.2
-0.61
0.64
1.5
2.02
2.28
2.37
2.32
2.16
1.9
1.58
1.28
1.13
1.23
1.59
2.13
2.69
3.09
3.23
3.09
2.73
2.22
1.56
0.7
-0.48
-2.08
-4.04
-6.2
-8.3
-10.06
-11.27
-11.78
-11.54
-10.54
-8.86
-6.66
-4.22
-1.91
-0.06
1.17
1.8
2.06
2.17
2.28
2.42
2.52
2.57
2.63
2.76
2.99
3.23
3.32
3.12
2.58
1.78
0.92
0.15
-0.42
-0.81
-1.18
-1.71
-2.59
-3.93
-5.73
-7.82
-9.95
-11.8
-13.1
-13.63
-13.32
-12.18
-10.32
-7.95
-5.26
-2.47
0.27
2.86
5.24
7.34
9.08
10.29
10.84
10.71
10.05
9.11
8.22
7.64
7.46
7.6
7.84
7.97
7.81
7.29
6.46
5.45
4.41
3.47
2.67
1.99
1.26
0.3
-1.05
-2.87
-4.98
-7.1
-8.79
-9.65
-9.36
-7.84
-5.24
-2.02
1.19
3.76
5.17
5.31
4.42
3.05
1.76
0.95
0.67
0.75
0.94
1.11
1.28
1.59
2.06
2.59
2.91
2.84
2.31
1.48
0.6
-0.12
-0.61
-1.01
-1.54
-2.48
-3.98
-6.06
-8.57
-11.09
-13.09
-14.01
-13.55
-11.74
-9.03
-6.03
-3.36
-1.32
0.05
0.96
1.65
2.29
2.94
3.6
4.28
4.98
5.72
6.43
7
7.31
7.27
6.86
6.07
4.94
3.56
2.07
0.64
-0.56
-1.54
-2.39
-3.34
-4.63
-6.34
-8.44
-10.72
-12.86
-14.51
-15.37
-15.29
-14.26
-12.49
-10.29
-8.02
-5.9
-4.04
-2.37
-0.77
0.84
2.44
3.91
5.09
5.85
6.18
6.15
5.87
5.42
4.83
4.12
3.26
2.29
1.34
0.52
-0.08
-0.49
-0.84
-1.37
-2.29
-3.73
-5.72
-8.11
-10.62
-12.87
-14.45
-15.04
-14.48
-12.85
-10.39
-7.47
-4.46
-1.64
0.9
3.16
5.19
7.03
8.65
9.96
10.91
11.47
11.77
11.99
12.33
12.84
13.45
13.91
14.03
13.67
12.88
11.89
10.94
10.22
9.8
9.62
9.53
9.35
8.86
7.85
6.15
3.76
0.95
-1.74
-3.63
-4.12
-2.97
-0.43
2.84
6
8.36
9.61
9.84
9.38
8.62
7.84
7.11
6.34
5.37
4.02
2.24
0.08
-2.29
-4.69
-6.93
-8.92
-10.62
-12.06
-13.26
-14.19
-14.84
-15.21
-15.42
-15.63
-16.04
-16.79
-17.89
-19.25
-20.72
-22.13
-23.35
-24.2
-24.52
-24.12
-22.85
-20.69
-17.75
-14.32
-10.73
-7.3
-4.21
-1.5
0.86
2.89
4.6
5.95
6.9
7.44
7.55
7.32
6.82
6.22
5.71
5.47
5.6
6.02
6.5
6.72
6.43
5.56
4.24
2.69
1.15
-0.3
-1.71
-3.19
-4.87
-6.77
-8.82
-10.9
-12.87
-14.55
-15.76
-16.32
-16.1
-15.06
-13.3
-11.01
-8.4
-5.63
-2.79
0.04
2.78
5.33
7.56
9.35
10.67
11.54
12.04
12.32
12.48
12.64
12.86
13.11
13.31
13.31
12.96
12.19
11
9.45
7.66
5.68
3.6
1.43
-0.79
-3.06
-5.43
-7.99
-10.86
-14.05
-17.42
-20.56
-22.89
-23.77
-22.72
-19.68
-15.05
-9.65
-4.46
-0.37
2.09
2.8
2.06
0.46
-1.36
-2.84
-3.61
-3.5
-2.6
-1.12
0.65
2.45
4.02
5.23
5.96
6.17
5.88
5.17
4.21
3.21
2.34
1.7
1.21
0.68
-0.16
-1.51
-3.48
-6.07
-9.15
-12.54
-15.98
-19.03
-21.19
-21.91
-20.83
-17.95
-13.7
-8.77
-3.94
0.33
3.98
7.25
10.51
13.9
17.2
19.92
21.52
21.58
20.1
17.41
14.09
10.72
7.68
5.12
3.03
1.35
0.09
-0.65
-0.8
-0.41
0.34
1.22
2.05
2.8
3.53
4.18
4.59
4.44
3.49
1.84
-0.06
-1.49
-1.74
-0.48
2.17
5.6
9.06
11.88
13.67
14.35
14.08
13.15
11.85
10.39
8.92
7.42
5.78
3.81
1.34
-1.71
-5.17
-8.75
-11.98
-14.42
-15.74
-15.78
-14.49
-11.98
-8.48
-4.36
-0.17
3.46
5.9
6.78
6.07
4.1
1.45
-1.24
-3.4
-4.64
-4.8
-3.88
-2.06
0.4
3.17
5.95
8.47
10.58
12.23
13.46
14.34
15
15.55
16.07
16.63
17.22
17.73
18.05
17.97
17.33
16.09
14.32
12.27
10.22
8.41
6.92
5.63
4.33
2.84
1.06
-0.97
-3.14
-5.37
-7.62
-9.86
-11.97
-13.73
-14.78
-14.79
-13.62
-11.36
-8.38
-5.18
-2.16
0.43
2.58
4.4
6.01
7.4
8.44
8.95
8.78
7.91
6.42
4.46
2.17
-0.3
-2.81
-5.24
-7.45
-9.34
-10.89
-12.14
-13.17
-14.03
-14.74
-15.29
-15.67
-15.94
-16.2
-16.61
-17.25
-18.05
-18.78
-19.15
-18.8
-17.54
-15.36
-12.46
-9.13
-5.64
-2.19
1.14
4.27
7.11
9.48
11.17
12.03
12.05
11.41
10.44
9.51
8.88
8.64
8.67
8.75
8.65
8.29
7.67
6.93
6.16
5.42
4.65
3.76
2.68
1.43
-0.02
-1.66
-3.55
-5.72
-8.08
-10.36
-12.11
-12.87
-12.33
-10.47
-7.66
-4.42
-1.33
1.21
3.02
4.15
4.73
4.9
4.75
4.4
3.94
3.55
3.39
3.57
4.04
4.64
5.14
5.32
5.1
4.52
3.75
3
2.46
2.17
2.03
1.8
1.15
-0.15
-2.14
-4.65
-7.28
-9.53
-10.94
-11.23
-10.34
-8.47
-5.98
-3.35
-1.01
0.75
1.85
2.39
2.58
2.59
2.5
2.31
2
1.59
1.18
0.89
0.76
0.76
0.81
0.82
0.78
0.69
0.58
0.42
0.11
-0.47
-1.43
-2.83
-4.7
-6.99
-9.6
-12.32
-14.83
-16.73
-17.63
-17.24
-15.58
-12.91
-9.71
-6.52
-3.77
-1.63
-0.06
1.11
2.06
2.84
3.4
3.65
3.6
3.37
3.08
2.85
2.65
2.38
1.93
1.31
0.64
0.11
-0.16
-0.21
-0.23
-0.46
-1.07
-2.11
-3.49
-5.05
-6.58
-7.88
-8.72
-8.89
-8.28
-6.93
-5.04
-2.94
-0.99
0.54
1.55
2.06
2.18
2.04
1.77
1.5
1.31
1.26
1.31
1.37
1.31
1.02
0.44
-0.44
-1.53
-2.72
-3.83
-4.75
-5.43
-5.9
-6.35
-7.04
-8.21
-9.91
-11.99
-14.06
-15.6
-16.17
-15.58
-13.94
-11.63
-9.12
-6.83
-4.94
-3.48
-2.28
-1.21
-0.2
0.7
1.41
1.87
2.16
2.4
2.71
3.13
3.54
3.73
3.55
2.98
2.16
1.29
0.53
-0.07
-0.6
-1.21
-2.02
-3.1
-4.48
-6.09
-7.81
-9.35
-10.32
-10.32
-9.17
-7.01
-4.26
-1.49
0.88
2.68
4
5.01
5.82
6.4
6.67
6.61
6.28
5.83
5.37
4.91
4.37
3.63
2.69
1.66
0.69
-0.04
-0.49
-0.68
-0.74
-0.78
-0.89
-1.18
-1.78
-2.8
-4.29
-6.1
-7.9
-9.23
-9.66
-9.02
-7.41
-5.18
-2.75
-0.39
1.86
4.14
6.55
9.11
11.59
13.73
15.3
16.26
16.81
17.25
17.86
18.73
19.68
20.4
20.6
20.26
19.57
18.9
18.59
18.75
19.18
19.43
19.01
17.71
15.63
13.17
10.91
9.41
9.07
9.89
11.44
13.21
14.89
16.54
18.48
21.19
25.01
30.1
35.91
41.28
45.09
46.75
46.27
43.89
39.99
35.08
30.24
26.8
26.01
29.27
37.55
50.5
66.18
81.73
94.73
104.26
110.31
111.97
107.07
92.54
65.77
26.44
-22.12
-74.89
-121.59
-152.32
-164.33
-163.02
-157.14
-152.82
-151.21
-149.93
-146.14
-140.29
-132.82
-125.12
-117.52
-108.99
-98.34
-85.79
-73.3
-63.21
-56.47
-51.62
-46.6
-39.19
-28.45
-15.74
-3.75
5.37
11.51
16.62
22.77
29.81
35.49
36.98
32.92
24.55
15.07
7.76
4.31
4.05
4.5
3.33
-0.33
-5.63
-10.66
-13.55
-13.37
-10.29
-5.39
-0.22
4.11
7.29
9.81
12.52
15.98
20.01
23.7
25.87
25.5
22.2
16.11
7.71
-2.51
-14.1
-26.54
-38.93
-49.7
-56.74
-57.94
-52.15
-39.79
-22.8
-3.79
14.99
32.36
48.09
62.12
73.79
81.67
84.17
80.72
72.36
61.69
51.74
44.74
41.21
39.99
38.8
35.34
28.21
17.54
5
-7.05
-16.62
-22.95
-26.47
-28.28
-29.26
-29.55
-28.75
-26.36
-22.44
-17.79
-13.44
-10.08
-7.89
-6.84
-6.99
-8.72
-12.31
-17.75
-24.78
-32.59
-39.92
-45.8
-49.87
-52.19
-52.89
-51.43
-46.89
-39.18
-28.78
-16.49
-3.97
6.68
13.43
14.66
10.13
0.78
-12.52
-27.67
-41
-49.17
-50.6
-46.35
-39.78
-34.28
-31.85
-33.64
-38.2
-41.46
-39.25
-28.78
-9.42
12.33
27.77
38.13
43.24
37.71
19.3
-11.69
-52.57
-98.83
-144.6
-182.62
-205.69
-209.96
-194.97
-163.38
-120.97
-74.34
-28.02
16.76
61.76
108.67
155.13
195.48
223.47
234.96
230.45
215.31
197.45
183.99
177.94
176.75
174.99
168.12
154.94
138.34
123.98
117.02
119.34
128.21
137.18
139.58
131.94
115.14
93.3
71.25
51.83
35.08
19.12
2.09
-16.11
-33.49
-47.18
-55.2
-57.5
-55.96
-53.36
-51.87
-52.24
-53.73
-54.76
-53.97
-50.88
-46
-40.51
-35.63
-32.16
-30.24
-29.41
-28.98
-28.3
-27.01
-25.08
-22.8
-20.6
-18.89
-17.97
-17.95
-18.71
-19.99
-21.54
-23.11
-24.56
-25.82
-26.74
-27.14
-26.79
-25.54
-23.39
-20.5
-17.15
-13.66
-10.26
-7.09
-4.26
-1.83
0.15
1.58
2.45
2.78
2.71
2.42
2.09
1.81
1.55
1.18
0.56
-0.39
-1.6
-2.92
-4.14
-5.16
-6.03
-6.97
-8.23
-10.02
-12.28
-14.78
-17.13
-18.92
-19.87
-19.85
-18.93
-17.25
-15.04
-12.49
-9.79
-7.07
-4.43
-1.89
0.56
2.97
5.34
7.56
9.44
10.77
11.41
11.36
10.8
10.01
9.2
8.45
7.67
6.69
5.44
4
2.6
1.49
0.78
0.35
-0.12
-0.95
-2.3
-4.08
-6.01
-7.75
-9.04
-9.73
-9.87
-9.51
-8.74
-7.62
-6.23
-4.65
-3.04
-1.56
-0.33
0.6
1.29
1.87
2.47
3.18
3.93
4.63
5.13
5.36
5.34
5.21
5.11
5.09
5.12
5.06
4.79
4.24
3.47
2.58
1.66
0.75
-0.16
-1.07
-1.93
-2.68
-3.31
-3.92
-4.67
-5.78
-7.31
-9.12
-10.84
-12.03
-12.29
-11.47
-9.68
-7.25
-4.61
-2.14
-0.15
1.28
2.16
2.7
3.13
3.66
4.38
5.27
6.18
6.95
7.44
7.59
7.46
7.15
6.8
6.51
6.36
6.34
6.39
6.38
6.15
5.59
4.66
3.43
2.1
0.85
-0.21
-1.03
-1.71
-2.34
-3.05
-3.92
-5.06
-6.51
-8.26
-10.19
-11.96
-13.14
-13.37
-12.47
-10.66
-8.39
-6.19
-4.47
-3.29
-2.45
-1.6
-0.44
1.08
2.85
4.6
6.09
7.2
7.87
8.15
8.12
7.85
7.44
6.99
6.6
6.31
6.15
6.04
5.94
5.76
5.42
4.87
4.08
3.06
1.86
0.6
-0.55
-1.45
-2
-2.3
-2.55
-3.01
-3.89
-5.28
-7.06
-9.04
-10.9
-12.42
-13.41
-13.79
-13.54
-12.71
-11.41
-9.77
-7.99
-6.19
-4.45
-2.8
-1.22
0.26
1.59
2.68
3.49
4.02
4.33
4.51
4.65
4.86
5.17
5.56
5.94
6.18
6.19
6
5.72
5.48
5.31
5.13
4.71
3.82
2.39
0.54
-1.42
-3.16
-4.47
-5.33
-5.87
-6.34
-6.94
-7.79
-8.88
-10.11
-11.32
-12.31
-12.88
-12.86
-12.12
-10.63
-8.49
-5.92
-3.27
-0.88
0.99
2.26
3.06
3.6
4.08
4.58
5.07
5.46
5.71
5.86
6.01
6.23
6.51
6.77
6.92
6.92
6.83
6.78
6.85
6.98
7.03
6.8
6.21
5.29
4.27
3.41
2.89
2.73
2.78
2.79
2.56
2.03
1.32
0.72
0.58
1.18
2.73
5.24
8.57
12.54
16.87
21.36
25.84
30.21
34.44
38.59
42.83
47.34
52.28
57.69
63.46
69.34
75.09
80.59
85.93
91.35
97.16
103.5
110.21
116.8
122.53
126.62
128.44
127.68
124.53
119.64
113.98
108.67
104.74
102.95
103.76
107.39
113.83
122.76
133.33
144.1
153.05
158.05
157.26
149.63
134.87
113.26
85.46
52.52
16.18
-21.03
-55.96
-85.67
-108.34
-123.85
-133.66
-140.06
-145.09
-149.88
-154.6
-158.91
-162.39
-164.83
-166.08
-165.87
-163.9
-160.11
-155.01
-149.74
-145.74
-144.25
-145.83
-150.17
-156.11
-162
-166.26
-167.87
-166.59
-163.03
-158.35
-153.86
-150.51
-148.63
-147.93
-147.78
-147.6
-147.08
-146.11
-144.3
-140.96
-135.29
-127.06
-117.13
-107.74
-101.82
-101.88
-108.69
-120.75
-134.82
-147.08
-154.22
-154.09
-145.87
-130.13
-108.81
-84.94
-61.95
-42.37
-26.82
-13.77
-0.63
14.48
31.13
46.33
55.91
56.69
48.44
34.42
20.15
11.16
11.23
21.66
41.64
69.1
101.63
136.88
172.4
205.29
232.1
249.37
254.27
245.45
223.65
191.95
155.49
120.55
93.04
76.47
70.38
70.19
69.09
61.23
44.62
22.21
0.29
-14.77
-19.39
-14.02
-2.1
12.23
26.03
37.87
46.99
52.19
51.7
44.13
29.64
10.55
-9.3
-25.93
-36.73
-40.88
-39.16
-33.04
-23.85
-12.43
0.61
14.5
28.19
40.4
50.17
57.29
62.43
66.8
71.25
75.53
78.07
76.55
69.22
56.17
39.64
23.2
10.17
2.1
-1.62
-3.06
-4.27
-6.21
-8.53
-10.29
-11.01
-11.07
-11.58
-13.64
-17.83
-24.22
-32.55
-42.48
-53.62
-65.25
-76.17
-85.06
-91.11
-94.49
-96.19
-97.23
-97.52
-95.56
-89.21
-77.23
-60.83
-43.59
-30.09
-23.46
-23.88
-28.62
-33.67
-36.03
-34.92
-31.63
-28.23
-26.15
-25.58
-25.89
-26.5
-27.66
-30.37
-35.5
-42.69
-50.03
-54.9
-55.49
-52.22
-47.78
-45.64
-47.49
-51.6
-53.38
-47.9
-33.09
-11.44
11.25
29.23
40.29
46.84
53.89
65.31
80.94
96.63
106.86
108.39
102.53
94.43
90.28
93.98
105.28
120.2
133.33
140.5
140.14
133.32
122.28
108.89
94.07
78.05
61.17
44.38
29.02
16.3
6.73
-0.06
-5.05
-9.4
-14.07
-19.68
-26.45
-34.09
-41.86
-48.63
-53.22
-55
-54.28
-52.33
-50.84
-51.15
-53.64
-57.43
-60.62
-61.11
-57.31
-48.75
-36.36
-22.12
-8.46
2.49
9.59
12.91
13.38
12.37
11.02
10
9.48
9.36
9.48
9.69
9.75
9.36
8.32
6.74
5.1
4
3.69
3.68
2.86
0.01
-5.5
-13.21
-21.74
-29.28
-34.25
-35.69
-33.34
-27.42
-18.49
-7.42
4.64
16.33
26.36
33.81
38.31
40.06
39.69
37.98
35.76
33.73
32.38
31.9
32.14
32.63
32.74
31.86
29.58
25.89
21.22
16.28
11.71
7.88
4.7
1.79
-1.36
-5.19
-10.11
-16.5
-24.64
-34.5
-45.58
-56.79
-66.68
-73.9
-77.66
-77.83
-74.83
-69.35
-61.91
-52.72
-41.73
-28.87
-14.44
0.76
15.37
27.88
37.12
42.71
45.1
45.18
43.79
41.34
37.82
33.15
27.61
21.89
16.85
13.08
10.46
8.27
5.57
1.91
-2.37
-6.16
-8.12
-7.42
-4.24
0.24
4.38
6.73
6.58
4.07
-0.14
-5.33
-10.97
-16.77
-22.49
-27.84
-32.68
-36.76
-39.82
-41.65
-42.24
-41.97
-41.41
-41.13
-41.32
-42.13
-43.26
-44.36
-45.43
-47
-49.64
-53.34
-57.22
-59.91
-61.26
-62.18
-64.47
-69.76
-78.15
-87.8
-95.44
-98.13
-95.07
-89.22
-85
-85.78
-91.92
-100.28
-106.05
-105.39
-97.32
-78.4
-49.61
-14.12
24.55
63.2
98.12
124.32
136.71
133.45
118.62
100.74
89.86
92.49
106.96
124.93
134.77
126.58
97.14
51.53
0.18
-45.02
-75.32
-88.02
-86.2
-74.49
-58.91
-43.48
-28.93
-13.89
3.32
22.9
42.82
60.14
72.89
81.04
86.69
92.2
97.84
101.17
98.33
86.23
64.7
36.97
8.13
-16.47
-33.06
-40.34
-39.16
-31.66
-20.49
-8.17
3.25
12.35
19.15
25.06
32.32
42.97
57.52
74.49
90.79
102.89
108.14
105.75
96.69
82.93
66.46
48.78
31.01
14.36
0.49
-8.84
-12.32
-9.93
-3.19
5.29
12.7
17
17.41
14.31
8.76
1.99
-5.01
-11.69
-17.88
-23.64
-28.88
-33.15
-35.51
-34.81
-30.25
-21.92
-11.05
0.33
10.15
17.12
21.1
22.96
23.9
24.84
25.98
26.87
26.89
25.65
23.21
19.96
16.35
12.61
8.63
4.14
-1
-6.54
-11.8
-15.85
-18.03
-18.17
-16.91
-15.41
-14.89
-16.05
-18.8
-22.36
-25.67
-27.95
-28.95
-29.04
-28.83
-28.77
-28.91
-28.79
-27.76
-25.19
-20.84
-14.92
-8.03
-0.92
5.73
11.5
16.24
19.99
22.76
24.41
24.67
23.3
20.33
16.22
11.74
7.73
4.72
2.81
1.64
0.66
-0.59
-2.33
-4.44
-6.57
-8.26
-9.04
-8.55
-6.58
-3.24
1.01
5.34
8.79
10.51
10.04
7.52
3.6
-0.79
-4.72
-7.55
-9.08
-9.41
-8.88
-7.8
-6.41
-4.87
-3.34
-2.01
-1.08
-0.71
-0.9
-1.52
-2.39
-3.35
-4.3
-5.21
-6.02
-6.64
-6.97
-7.05
-7.12
-7.56
-8.79
-10.98
-13.91
-16.97
-19.38
-20.43
-19.72
-17.26
-13.42
-8.75
-3.85
0.84
5.01
8.53
11.46
13.91
16.07
18.08
20
21.78
23.26
24.28
24.76
24.71
24.23
23.45
22.44
21.22
19.78
18.12
16.26
14.22
12.03
9.73
7.4
5.14
2.99
0.94
-1.18
-3.61
-6.57
-10.11
-14.02
-17.86
-21.03
-22.99
-23.41
-22.24
-19.72
-16.26
-12.32
-8.34
-4.58
-1.21
1.75
4.32
6.56
8.53
10.29
11.89
13.36
14.68
15.82
16.74
17.41
17.78
17.8
17.44
16.71
15.66
14.37
12.95
11.45
9.88
8.24
6.5
4.62
2.5
0.01
-3.03
-6.66
-10.73
-14.79
-18.16
-20.15
-20.25
-18.38
-14.83
-10.28
-5.46
-1.07
2.46
5.01
6.71
7.85
8.69
9.34
9.72
9.67
9.04
7.9
6.46
5.07
4
3.33
2.88
2.4
1.63
0.54
-0.77
-2.08
-3.29
-4.45
-5.76
-7.43
-9.61
-12.3
-15.37
-18.58
-21.65
-24.19
-25.81
-26.1
-24.87
-22.16
-18.33
-13.93
-9.48
-5.34
-1.58
1.9
5.27
8.56
11.65
14.33
16.31
17.41
17.57
16.88
15.55
13.81
11.88
9.95
8.17
6.64
5.37
4.39
3.67
3.18
2.86
2.57
2.11
1.21
-0.35
-2.72
-5.86
-9.56
-13.47
-17.11
-19.98
-21.59
-21.58
-19.9
-16.76
-12.71
-8.39
-4.36
-0.88
2.09
4.8
7.51
10.3
13
15.32
16.94
17.7
17.65
16.95
15.9
14.72
13.54
12.39
11.24
10.03
8.75
7.46
6.25
5.17
4.21
3.25
2.11
0.58
-1.48
-4.19
-7.53
-11.37
-15.44
-19.3
-22.38
-24.11
-24.09
-22.24
-18.87
-14.59
-10.08
-5.83
-2.04
1.38
4.68
7.99
11.26
14.28
16.79
18.62
19.72
20.17
20.01
19.27
17.91
15.98
13.71
11.43
9.54
8.28
7.68
7.43
7.1
6.27
4.72
2.49
-0.13
-2.72
-4.88
-6.36
-7.15
-7.48
-7.81
-8.68
-10.5
-13.4
-17.03
-20.67
-23.42
-24.54
-23.68
-21.02
-17.14
-12.79
-8.6
-4.92
-1.83
0.83
3.24
5.5
7.57
9.29
10.53
11.19
11.39
11.31
11.19
11.11
11.02
10.75
10.14
9.2
8.11
7.17
6.64
6.56
6.77
6.97
6.87
6.3
5.3
3.98
2.5
0.92
-0.74
-2.54
-4.56
-6.88
-9.54
-12.54
-15.73
-18.84
-21.44
-23.07
-23.37
-22.2
-19.68
-16.15
-12.04
-7.82
-3.81
-0.24
2.83
5.4
7.54
9.29
10.66
11.56
11.98
11.88
11.4
10.66
9.82
8.93
7.95
6.84
5.62
4.41
3.44
2.86
2.68
2.72
2.68
2.26
1.34
-0.04
-1.72
-3.45
-5.09
-6.63
-8.19
-9.98
-12.21
-14.94
-18.02
-21.04
-23.45
-24.68
-24.34
-22.38
-19.04
-14.87
-10.43
-6.27
-2.69
0.21
2.54
4.43
6.04
7.41
8.45
9.05
9.13
8.72
7.99
7.2
6.56
6.13
5.83
5.47
4.83
3.78
2.28
0.37
-1.78
-4.01
-6.14
-8.01
-9.56
-10.84
-11.98
-13.2
-14.7
-16.58
-18.75
-20.88
-22.45
-22.91
-21.85
-19.21
-15.28
-10.62
-5.87
-1.55
2.06
4.88
6.94
8.32
9.1
9.32
9.09
8.5
7.68
6.7
5.67
4.66
3.75
3.01
2.48
2.12
1.88
1.72
1.6
1.54
1.48
1.38
1.11
0.55
-0.44
-1.95
-4
-6.52
-9.28
-11.94
-14.05
-15.14
-14.89
-13.25
-10.47
-7.09
-3.71
-0.88
1.12
2.26
2.77
2.94
3.03
3.2
3.48
3.85
4.31
4.86
5.55
6.37
7.22
7.96
8.42
8.5
8.21
7.67
7.05
6.47
5.96
5.47
4.85
3.89
2.39
0.15
-3.01
-7.15
-12.17
-17.69
-23.06
-27.42
-29.93
-30.03
-27.66
-23.3
-17.8
-12.09
-6.84
-2.32
1.62
5.25
8.82
12.37
15.69
18.54
20.6
21.74
21.98
21.46
20.47
19.28
18.14
17.14
16.23
15.26
14.06
12.51
10.6
8.38
5.96
3.44
0.88
-1.71
-4.37
-7.17
-10.24
-13.62
-17.28
-21
-24.4
-26.95
-28.12
-27.51
-24.98
-20.74
-15.31
-9.42
-3.81
1
4.78
7.65
9.94
11.99
14
16.01
17.95
19.64
20.94
21.69
21.75
21.07
19.69
17.8
15.73
13.77
12.11
10.77
9.57
8.32
6.85
5.09
3.07
0.88
-1.37
-3.49
-5.29
-6.58
-7.3
-7.58
-7.76
-8.27
-9.49
-11.58
-14.35
-17.33
-19.87
-21.37
-21.4
-19.9
-17.11
-13.56
-9.84
-6.48
-3.73
-1.6
0.13
1.66
3.12
4.51
5.74
6.71
7.41
7.93
8.41
8.99
9.78
10.86
12.29
14.04
16
17.95
19.6
20.71
21.13
20.86
19.98
18.61
16.8
14.57
11.96
9.07
6.11
3.28
0.69
-1.74
-4.28
-7.29
-11
-15.38
-20.1
-24.58
-28.17
-30.32
-30.74
-29.37
-26.4
-22.16
-17.03
-11.5
-5.99
-0.9
3.47
6.99
9.68
11.66
13.14
14.29
15.2
15.87
16.22
16.19
15.77
15.07
14.24
13.38
12.51
11.56
10.43
9.1
7.66
6.26
5.03
4.01
3.14
2.31
1.46
0.65
-0.01
-0.42
-0.54
-0.42
-0.18
0.01
0.01
-0.32
-1.1
-2.45
-4.46
-7.12
-10.32
-13.75
-16.98
-19.41
-20.55
-20.07
-18
-14.76
-10.96
-7.24
-4.05
-1.48
0.57
2.34
3.95
5.38
6.47
7.06
7.09
6.69
6.06
5.43
4.95
4.66
4.53
4.5
4.5
4.55
4.67
4.89
5.22
5.57
5.87
6
5.94
5.7
5.34
4.87
4.32
3.65
2.72
1.39
-0.47
-2.89
-5.7
-8.59
-11.1
-12.8
-13.37
-12.78
-11.22
-8.97
-6.21
-2.96
0.94
5.64
11.12
17.09
22.77
27.17
29.47
29.47
27.8
25.77
24.89
26.32
30.44
36.44
42.87
48.39
52.37
54.92
56.5
57.67
59.27
62.71
69.1
78.72
90
99.22
101.59
93.09
72.71
43.59
12.01
-16.08
-37.68
-53.87
-68.75
-86.8
-110.8
-140.76
-174.25
-203.13
-218.96
-216.17
-194.9
-160.55
-120.27
-80.44
-45.87
-20.01
-5.09
-2.38
-11.04
-27.66
-47.55
-65.03
-75.44
-76.76
-69.83
-57.49
-43.57
-31.19
-21.87
-15.54
-11.01
-7.16
-3.59
-0.58
1.03
0.35
-2.86
-8.05
-14.37
-21.19
-28.61
-37.31
-47.68
-59
-69.43
-76.64
-78.95
-76.21
-69.76
-61.75
-54.1
-47.6
-41.89
-36.01
-29.14
-21.13
-12.42
-3.63
4.85
13.03
21.3
30.15
39.89
50.5
61.52
72.12
81.39
88.62
93.59
96.65
98.61
100.36
102.48
105.03
107.65
109.83
111.12
111.3
110.22
107.74
103.73
98.2
91.48
84.2
77.25
71.46
67.46
65.38
64.96
65.66
66.81
67.75
67.8
66.37
62.94
57.24
49.26
39.39
28.56
18.03
9.02
2.29
-2.06
-4.61
-6.08
-7.09
-7.65
-6.92
-3.53
3.64
14.87
29.3
45.27
61.06
75.26
87.29
97.62
107.17
116.48
125.06
131.26
132.81
127.6
114.02
91.49
61.25
26.28
-9.47
-41.87
-67.6
-86.19
-96.46
-99.1
-97.8
-97.15
-99.91
-106.17
-114.17
-122.19
-129.69
-138.23
-149.32
-163.02
-176.83
-186.46
-187.76
-179.09
-162.98
-146.17
-137.57
-143.55
-166.54
-201.84
-238.22
-261.84
-261.6
-233.5
-182.02
-118.36
-56.44
-8.6
18.16
23.47
12.62
-5.41
-20.86
-25.95
-16.97
4.84
34.15
64.2
89.61
108.08
120.21
128
133.17
136.14
136.35
133.17
126.92
118.96
110.94
103.62
96.32
87.25
74.48
57.12
35.83
12.72
-9.59
-29.01
-44.73
-57.17
-67.33
-75.87
-82.34
-85.26
-82.7
-73.32
-57.25
-36.36
-13.57
8.05
26.23
39.92
49.19
54.82
57.98
60.02
62.27
65.84
71.25
78.25
85.9
92.99
98.5
102.04
103.82
104.39
104.28
103.78
102.83
101.14
98.46
94.64
89.81
84.3
78.56
72.98
67.7
62.6
57.35
51.72
45.7
39.61
34.05
29.78
27.75
28.89
33.9
42.85
54.86
68.18
80.65
90.31
95.96
97.19
93.95
86.1
73.21
54.85
31.19
3.55
-25.6
-53.13
-76.04
-92.29
-101.16
-103.29
-100.3
-94.18
-86.72
-79.11
-71.91
-65.31
-59.43
-54.59
-51.08
-48.89
-47.43
-45.65
-42.47
-37.4
-30.84
-23.94
-18.08
-14.25
-12.74
-13.11
-14.5
-15.95
-16.64
-16.05
-14.03
-10.97
-7.79
-5.72
-5.94
-9.1
-14.98
-22.46
-29.93
-35.8
-39.15
-40.08
-39.58
-39.11
-39.94
-42.54
-46.38
-50.18
-52.37
-51.85
-48.29
-42.19
-34.63
-26.84
-19.9
-14.53
-11.07
-9.44
-9.21
-9.62
-9.91
-9.46
-8.13
-6.2
-4.29
-3.04
-2.9
-3.98
-6.17
-9.17
-12.69
-16.51
-20.43
-24.31
-28.03
-31.51
-34.65
-37.41
-39.84
-42.03
-44.17
-46.35
-48.53
-50.49
-51.93
-52.57
-52.34
-51.39
-50.03
-48.52
-47.07
-45.75
-44.61
-43.64
-42.72
-41.57
-39.65
-36.38
-31.35
-24.59
-16.67
-8.57
-1.33
4.29
8.06
10.32
11.71
12.93
14.4
16.14
17.75
18.68
18.48
17.03
14.61
11.72
8.87
6.34
4.05
1.68
-1.16
-4.6
-8.41
-12.04
-14.87
-16.5
-16.98
-16.67
-16.09
-15.65
-15.47
-15.45
-15.3
-14.71
-13.36
-10.9
-6.9
-1.03
6.69
15.62
24.59
32.37
38.33
42.81
47.04
52.39
59.67
68.69
78.49
88.1
97.04
105.43
113.53
121.07
127.01
129.89
128.76
123.73
116.11
107.69
99.81
92.72
85.62
77.26
66.84
54.5
41.25
28.47
17.22
7.83
-0.06
-7.1
-13.71
-19.83
-25.02
-28.86
-31.37
-33.04
-34.67
-36.88
-39.74
-42.73
-44.98
-45.59
-44.01
-40.06
-34.01
-26.43
-18.12
-10.01
-2.9
2.73
6.87
9.93
12.43
14.69
16.61
17.73
17.53
15.73
12.46
8.22
3.6
-0.88
-4.96
-8.57
-11.67
-14.24
-16.19
-17.53
-18.36
-18.95
-19.72
-21.02
-23.03
-25.56
-28.21
-30.53
-32.24
-33.41
-34.35
-35.43
-36.82
-38.39
-39.89
-41.07
-41.82
-42.1
-41.84
-40.82
-38.75
-35.44
-30.98
-25.7
-20.07
-14.4
-8.7
-2.64
4.27
12.33
21.48
31.22
40.75
49.19
55.94
60.75
63.79
65.45
66.17
66.22
65.61
64.2
61.8
58.32
53.8
48.39
42.25
35.48
28.14
20.31
12.14
3.92
-4.02
-11.41
-18.26
-24.83
-31.54
-38.67
-46.24
-53.9
-61.12
-67.36
-72.22
-75.31
-76.14
-74.13
-68.81
-60.29
-49.39
-37.56
-26.23
-16.13
-6.89
2.66
13.81
27.09
41.89
56.7
69.84
80.16
87.37
91.88
94.32
95.15
94.51
92.36
88.73
83.89
78.31
72.54
66.9
61.41
55.75
49.48
42.2
33.88
24.87
15.81
7.44
0.25
-5.59
-10.25
-14.04
-17.26
-20.07
-22.48
-24.45
-25.89
-26.74
-26.95
-26.51
-25.47
-24.01
-22.46
-21.23
-20.69
-21.11
-22.52
-24.77
-27.46
-30.1
-32.22
-33.51
-33.92
-33.6
-32.83
-31.82
-30.7
-29.47
-28.13
-26.81
-25.65
-24.74
-23.93
-22.9
-21.27
-18.9
-15.98
-12.91
-10.1
-7.65
-5.46
-3.24
-0.89
1.49
3.56
4.95
5.49
5.19
4.25
2.88
1.25
-0.55
-2.43
-4.35
-6.26
-8.15
-10.03
-11.9
-13.75
-15.52
-17.16
-18.66
-20.07
-21.52
-23.2
-25.34
-28.08
-31.37
-34.93
-38.29
-40.88
-42.25
-42.17
-40.77
-38.34
-35.22
-31.68
-27.89
-24.03
-20.37
-17.28
-15.11
-14.05
-13.97
-14.47
-15.05
-15.3
-15.04
-14.35
-13.46
-12.65
-12.15
-12.02
-12.13
-12.17
-11.69
-10.22
-7.51
-3.67
0.71
4.74
7.46
8.37
7.64
6.09
4.9
5.05
6.87
9.86
12.93
14.85
14.72
12.33
8.09
2.84
-2.54
-7.3
-10.96
-13.23
-14
-13.19
-10.84
-7.1
-2.33
2.92
7.96
12.13
14.97
16.42
16.76
16.45
15.96
15.58
15.33
15.09
14.7
14.05
13.11
11.81
10.01
7.44
3.89
-0.72
-6.17
-12.04
-17.81
-23.12
-27.83
-32
-35.72
-38.92
-41.33
-42.61
-42.56
-41.28
-39.15
-36.63
-34.02
-31.27
-28.05
-23.94
-18.65
-12.14
-4.66
3.38
11.5
19.24
26.18
31.99
36.41
39.36
40.89
41.17
40.48
39.1
37.24
35
32.33
29.2
25.61
21.72
17.69
13.64
9.51
5.22
0.79
-3.47
-6.99
-9.2
-9.89
-9.4
-8.57
-8.33
-9.28
-11.37
-14.01
-16.4
-17.93
-18.41
-18.05
-17.17
-15.98
-14.44
-12.3
-9.29
-5.27
-0.36
5.08
10.59
15.8
20.55
24.88
28.92
32.74
36.22
39.08
40.98
41.64
40.92
38.73
35.03
29.78
23.1
15.41
7.42
0
-6.2
-11.04
-14.92
-18.63
-22.87
-27.95
-33.67
-39.42
-44.58
-48.72
-51.74
-53.78
-55.02
-55.62
-55.69
-55.34
-54.67
-53.8
-52.75
-51.47
-49.85
-47.78
-45.16
-41.99
-38.27
-34.04
-29.33
-24.13
-18.45
-12.31
-5.89
0.51
6.46
11.49
15.25
17.65
18.9
19.42
19.67
19.94
20.28
20.58
20.7
20.57
20.17
19.46
18.39
16.86
14.94
12.86
11.09
10.07
10.02
10.73
11.71
12.31
12.05
10.8
8.75
6.39
4.26
2.95
2.93
4.54
7.88
12.73
18.58
24.79
30.74
36.01
40.43
43.93
46.52
48.21
49.09
49.34
49.23
48.97
48.64
48.04
46.83
44.73
41.65
37.81
33.66
29.68
26.22
23.43
21.32
19.75
18.53
17.39
16.02
14.16
11.69
8.76
5.64
2.65
-0.14
-2.98
-6.33
-10.64
-15.99
-21.89
-27.43
-31.53
-33.4
-32.81
-30.12
-26.06
-21.42
-16.77
-12.33
-8.03
-3.74
0.62
4.94
9.04
12.74
16.05
19.09
22.02
24.86
27.4
29.28
30.09
29.62
27.93
25.35
22.32
19.29
16.6
14.49
13.03
12.16
11.6
10.87
9.47
7
3.44
-0.88
-5.37
-9.43
-12.72
-15.24
-17.3
-19.35
-21.78
-24.8
-28.37
-32.18
-35.73
-38.36
-39.42
-38.46
-35.36
-30.46
-24.38
-17.92
-11.73
-6.2
-1.37
2.91
6.86
10.57
14
17.01
19.47
21.32
22.57
23.33
23.73
23.9
23.94
23.87
23.66
23.32
22.8
22.17
21.45
20.63
19.64
18.33
16.58
14.34
11.72
8.91
6.09
3.4
0.86
-1.55
-3.89
-6.19
-8.5
-10.93
-13.62
-16.71
-20.28
-24.27
-28.38
-32.17
-35
-36.26
-35.51
-32.64
-27.91
-21.94
-15.52
-9.36
-3.9
0.71
4.55
7.81
10.62
13.04
15.03
16.54
17.6
18.29
18.77
19.18
19.61
20.07
20.5
20.78
20.76
20.33
19.44
18.12
16.43
14.49
12.39
10.16
7.75
5.07
1.95
-1.76
-6.19
-11.37
-17.16
-23.21
-28.92
-33.64
-36.83
-38.3
-38.36
-37.75
-37.43
-38.17
-40.37
-43.82
-47.9
-51.82
-54.93
-56.81
-57.31
-56.36
-53.91
-49.85
-44.15
-36.93
-28.52
-19.35
-9.86
-0.29
9.25
18.77
28.11
36.85
44.34
49.93
53.26
54.39
53.86
52.38
50.56
48.64
46.45
43.72
40.28
36.35
32.46
29.27
27.21
26.3
26.09
25.93
25.19
23.45
20.59
16.71
12.03
6.8
1.3
-4.15
-9.25
-13.75
-17.61
-21.04
-24.46
-28.32
-32.8
-37.64
-42.15
-45.34
-46.37
-44.85
-41.05
-35.81
-30.25
-25.34
-21.67
-19.33
-18.01
-17.23
-16.5
-15.47
-13.95
-11.93
-9.51
-6.96
-4.55
-2.5
-0.79
0.79
2.63
5.04
8.1
11.59
15.13
18.35
21.05
23.3
25.24
27
28.63
30.09
31.38
32.53
33.59
34.53
35.13
35.03
33.88
31.5
27.98
23.56
18.53
13.06
7.26
1.42
-3.81
-7.42
-8.4
-6.18
-1.12
5.47
11.76
16.07
17.52
16.33
13.56
10.46
7.88
5.96
4.22
1.93
-1.4
-5.83
-10.97
-16.19
-20.89
-24.66
-27.36
-29.01
-29.71
-29.57
-28.66
-27.03
-24.79
-22.1
-19.2
-16.4
-14
-12.25
-11.26
-10.93
-10.93
-10.91
-10.57
-9.84
-8.95
-8.28
-8.29
-9.29
-11.38
-14.45
-18.21
-22.25
-26.09
-29.13
-30.69
-30.18
-27.29
-22.18
-15.49
-8.23
-1.35
4.48
9.11
12.8
15.95
18.88
21.67
24.23
26.39
28.1
29.45
30.62
31.78
33.02
34.27
35.38
36.16
36.45
36.18
35.4
34.28
33.03
31.83
30.73
29.58
28.1
25.96
22.98
19.22
14.94
10.55
6.41
2.68
-0.66
-3.83
-7.1
-10.71
-14.81
-19.35
-24.06
-28.39
-31.62
-33
-32.04
-28.77
-23.77
-18.02
-12.53
-7.96
-4.42
-1.61
0.98
3.76
6.92
10.44
14.21
18.09
21.98
25.68
28.89
31.27
32.48
32.38
31.06
28.83
26.07
23.16
20.37
17.85
15.58
13.48
11.35
9.01
6.33
3.35
0.19
-2.92
-5.77
-8.25
-10.37
-12.23
-14
-15.91
-18.22
-21.19
-24.92
-29.17
-33.36
-36.56
-37.89
-36.8
-33.4
-28.33
-22.58
-17.06
-12.34
-8.57
-5.6
-3.18
-1.02
1.04
3.13
5.3
7.52
9.67
11.55
12.95
13.66
13.58
12.73
11.29
9.55
7.83
6.44
5.49
4.93
4.53
4
3.11
1.79
0.08
-1.9
-4
-6.18
-8.44
-10.79
-13.28
-15.96
-18.9
-22.16
-25.72
-29.32
-32.45
-34.36
-34.38
-32.12
-27.74
-21.9
-15.5
-9.37
-4.02
0.42
4.02
6.86
8.92
10.14
10.57
10.5
10.38
10.6
11.22
11.96
12.26
11.54
9.54
6.36
2.46
-1.63
-5.45
-8.74
-11.44
-13.54
-15.09
-16.16
-16.89
-17.45
-18.01
-18.62
-19.24
-19.76
-20.11
-20.38
-20.69
-21.2
-21.92
-22.57
-22.65
-21.57
-18.89
-14.46
-8.57
-1.72
5.47
12.49
19.02
24.86
29.91
33.95
36.71
37.91
37.35
35.01
31.05
25.94
20.47
15.7
12.8
12.65
15.53
20.84
27.26
33.1
36.94
38
36.25
32.21
26.6
20.06
13.06
5.98
-0.87
-7.22
-13.01
-18.32
-23.31
-27.98
-31.99
-34.8
-35.78
-34.6
-31.35
-26.59
-21.09
-15.59
-10.56
-6.17
-2.34
1.09
4.28
7.3
10.15
12.77
15.06
16.89
18.14
18.67
18.47
17.54
16.04
14.18
12.22
10.38
8.77
7.4
6.2
5.06
3.85
2.49
0.92
-0.89
-3.01
-5.5
-8.27
-11.03
-13.17
-13.92
-12.53
-8.58
-2.19
5.88
14.49
22.58
29.47
35.03
39.46
43.2
46.72
50.51
54.71
59.1
63.23
66.39
67.74
66.6
62.84
57.16
51.08
45.71
41.37
37.44
32.63
25.36
14.66
0.74
-14.67
-28
-35.8
-35.4
-25.6
-7.56
14.97
36.36
50.72
53.96
45.8
28.46
5.91
-17.4
-35.81
-44.44
-41.16
-27.86
-13.72
-3.37
0.86
-2.38
-11.64
-25.19
-40.41
-53.92
-62.46
-63.84
-57.05
-43.92
-27.95
-12.64
-0.58
7.09
10.47
10.37
7.96
5.04
2.66
1.44
1.76
3.58
6.48
9.71
12.3
13.43
13.07
11.34
8.63
5.56
2.6
-0.13
-2.98
-6.49
-11.07
-16.37
-21.64
-25.91
-28.36
-28.76
-27.53
-25.55
-23.69
-22.38
-21.46
-20.41
-18.67
-15.92
-12.21
-7.87
-3.4
0.73
4.16
6.78
8.66
9.99
10.99
11.73
12.1
11.83
10.72
8.69
5.97
2.97
0.08
-2.45
-4.56
-6.34
-7.87
-9.16
-10.18
-10.9
-11.4
-11.89
-12.55
-13.52
-14.76
-16.17
-17.59
-18.93
-20.14
-21.27
-22.33
-23.31
-24.12
-24.61
-24.62
-23.99
-22.68
-20.8
-18.55
-16.18
-13.87
-11.66
-9.52
-7.35
-5.09
-2.79
-0.59
1.37
2.9
3.92
4.39
4.42
4.17
3.87
3.72
3.78
4.02
4.24
4.25
3.9
3.13
1.98
0.53
-1.05
-2.56
-3.75
-4.44
-4.57
-4.28
-3.88
-3.71
-3.99
-4.71
-5.72
-6.81
-7.89
-9.08
-10.57
-12.5
-14.74
-16.86
-18.27
-18.49
-17.37
-15.16
-12.41
-9.7
-7.46
-5.74
-4.4
-3.15
-1.82
-0.39
1.01
2.23
3.19
3.82
4.11
4.04
3.59
2.8
1.8
0.77
-0.08
-0.63
-0.85
-0.83
-0.74
-0.71
-0.83
-1.05
-1.2
-1.11
-0.65
0.1
0.9
1.36
1.2
0.36
-0.95
-2.31
-3.36
-3.96
-4.27
-4.68
-5.6
-7.23
-9.51
-12.11
-14.56
-16.43
-17.46
-17.52
-16.69
-15.17
-13.27
-11.29
-9.49
-8
-6.85
-5.96
-5.23
-4.6
-4.06
-3.67
-3.38
-3.11
-2.73
-2.12
-1.32
-0.43
0.4
1.1
1.72
2.38
3.1
3.8
4.25
4.24
3.78
3.08
2.56
2.58
3.3
4.57
6.02
7.25
7.93
8.03
7.69
7.14
6.58
6.06
5.48
4.7
3.55
1.98
0.05
-2.09
-4.24
-6.19
-7.77
-8.83
-9.26
-8.96
-7.93
-6.24
-4.11
-1.79
0.48
2.61
4.63
6.68
8.85
11.09
13.21
14.9
15.84
15.94
15.35
14.36
13.35
12.59
12.11
11.81
11.54
11.22
10.94
10.81
10.9
11.1
11.16
10.8
9.88
8.49
6.87
5.32
4.05
3.15
2.59
2.28
2.14
2.04
1.85
1.36
0.46
-0.94
-2.77
-4.86
-6.95
-8.78
-10.12
-10.82
-10.87
-10.33
-9.36
-8.16
-6.87
-5.62
-4.47
-3.43
-2.53
-1.78
-1.14
-0.6
-0.09
0.42
0.94
1.46
1.91
2.28
2.56
2.76
2.92
3.07
3.17
3.17
2.99
2.57
1.9
1.05
0.12
-0.77
-1.5
-2.07
-2.53
-3.04
-3.79
-4.89
-6.36
-8.06
-9.8
-11.42
-12.78
-13.87
-14.63
-15.06
-15.1
-14.72
-13.96
-12.85
-11.5
-9.95
-8.2
-6.27
-4.19
-2.06
-0.04
1.71
3.12
4.15
4.88
5.38
5.73
5.94
6.02
6.01
5.95
5.92
5.96
6.03
6
5.74
5.17
4.34
3.35
2.31
1.28
0.16
-1.19
-2.79
-4.57
-6.31
-7.76
-8.73
-9.14
-9.02
-8.49
-7.68
-6.76
-5.96
-5.46
-5.45
-5.97
-6.92
-8.02
-8.94
-9.35
-9.07
-8.1
-6.61
-4.87
-3.16
-1.71
-0.62
0.1
0.52
0.73
0.83
0.89
0.89
0.78
0.47
-0.1
-0.92
-1.89
-2.9
-3.81
-4.57
-5.14
-5.55
-5.82
-5.99
-6.08
-6.21
-6.39
-6.6
-6.57
-6.01
-4.7
-2.72
-0.5
1.35
2.33
2.36
1.88
1.67
2.41
4.39
7.35
10.64
13.54
15.45
16.11
15.55
13.92
11.48
8.55
5.53
2.8
0.73
-0.51
-1.05
-1.27
-1.7
-2.78
-4.71
-7.36
-10.4
-13.48
-16.41
-19.2
-22.04
-25.05
-28.14
-30.97
-33.08
-34.11
-33.92
-32.7
-30.81
-28.64
-26.54
-24.67
-23.06
-21.61
-20.23
-18.94
-18
-17.76
-18.56
-20.44
-23.01
-25.6
-27.51
-28.35
-28.22
-27.65
-27.33
-27.78
-29.28
-31.82
-35.22
-39.21
-43.4
-47.29
-50.33
-52.11
-52.55
-52.05
-51.24
-50.74
-50.81
-51.12
-50.83
-48.95
-44.75
-38.17
-29.9
-21.15
-13.13
-6.59
-1.54
2.61
6.61
10.84
15.15
19
21.85
23.58
24.52
25.25
26.19
27.44
28.72
29.67
30.17
30.31
30.36
30.47
30.53
30.25
29.37
27.8
25.79
23.7
21.8
20.18
18.63
16.8
14.29
10.85
6.45
1.3
-4.1
-9.06
-12.69
-14.22
-13.08
-9.23
-3.12
4.35
12.19
19.57
25.96
31.16
35.12
37.88
39.51
40.17
40.16
39.84
39.51
39.29
39.07
38.64
37.85
36.77
35.7
35.02
35.06
35.84
37.08
38.29
38.9
38.49
36.89
34.2
30.75
26.91
23.06
19.45
16.18
13.19
10.28
7.11
3.39
-0.94
-5.6
-9.95
-13.21
-14.86
-14.8
-13.44
-11.42
-9.31
-7.37
-5.57
-3.7
-1.6
0.74
3.17
5.53
7.67
9.57
11.26
12.74
14
14.92
15.37
15.28
14.62
13.55
12.33
11.28
10.67
10.64
11.23
12.31
13.65
14.76
15.01
13.75
10.54
5.41
-1.12
-8.19
-15
-21.05
-26.35
-31.22
-36.15
-41.56
-47.76
-54.95
-63.2
-72.42
-82.09
-91.22
-98.4
-102.14
-101.37
-95.88
-86.42
-74.57
-62.26
-51.16
-42.4
-36.43
-33.25
-32.62
-34.11
-37.01
-40.18
-42.19
-41.69
-37.98
-31.39
-23.08
-14.53
-6.77
-0.03
6.25
12.88
20.36
28.63
37.08
44.97
51.79
57.35
61.67
64.72
66.26
65.92
63.46
59.02
53.18
46.81
40.79
35.67
31.5
27.95
24.46
20.56
15.97
10.72
4.97
-0.94
-6.6
-11.52
-15.09
-16.85
-16.59
-14.5
-11.1
-7.07
-2.93
1.13
5.32
10.02
15.47
21.59
27.93
33.8
38.61
42
44.01
44.96
45.29
45.49
45.97
46.98
48.68
51.06
53.92
56.93
59.72
62.05
63.91
65.56
67.3
69.26
71.27
72.88
73.59
73.15
71.68
69.64
67.69
66.23
65.36
64.86
64.24
62.96
60.48
56.21
49.71
40.75
29.64
17.41
5.61
-4.03
-10.29
-13
-13.14
-12.51
-12.83
-14.95
-18.46
-21.8
-23.25
-21.72
-17.35
-11.31
-5.01
0.75
6.22
12.28
19.73
28.52
37.74
46.15
52.95
58.21
62.5
66.25
69.01
69.52
66.4
59.19
48.87
37.71
28.17
21.85
18.76
17.62
16.62
14.36
10.41
5.1
-0.91
-7.14
-13.43
-19.74
-25.89
-31.5
-36.14
-39.59
-41.99
-43.77
-45.28
-46.7
-47.83
-48.36
-48.08
-46.95
-45.13
-42.87
-40.38
-37.84
-35.36
-33.04
-30.88
-28.79
-26.61
-24.24
-21.68
-19.1
-16.68
-14.53
-12.59
-10.7
-8.79
-6.96
-5.46
-4.55
-4.33
-4.58
-4.97
-5.2
-5.22
-5.31
-5.84
-7.04
-8.85
-10.93
-12.89
-14.48
-15.78
-17.01
-18.45
-20.23
-22.34
-24.61
-26.86
-28.85
-30.35
-31.03
-30.61
-28.94
-26.1
-22.49
-18.63
-14.99
-11.82
-9.11
-6.71
-4.5
-2.53
-0.92
0.16
0.72
0.91
0.99
1.18
1.56
2.05
2.5
2.81
2.96
3.04
3.04
2.9
2.5
1.7
0.52
-0.89
-2.29
-3.52
-4.54
-5.52
-6.69
-8.29
-10.41
-13.01
-15.91
-18.89
-21.64
-23.78
-24.93
-24.78
-23.19
-20.36
-16.74
-12.89
-9.32
-6.3
-3.82
-1.72
0.17
1.91
3.41
4.53
5.19
5.37
5.18
4.71
4.06
3.25
2.3
1.18
-0.09
-1.52
-3.08
-4.8
-6.68
-8.75
-11.02
-13.43
-15.93
-18.44
-20.99
-23.68
-26.72
-30.21
-34.03
-37.72
-40.57
-41.86
-41.15
-38.51
-34.59
-30.31
-26.53
-23.66
-21.59
-19.87
-18.02
-15.92
-13.82
-12.18
-11.4
-11.67
-12.87
-14.65
-16.58
-18.14
-18.74
-17.88
-15.33
-11.36
-6.82
-2.93
-0.89
-1.47
-4.69
-9.95
-16.18
-22.12
-26.68
-29.17
-29.47
-28.04
-25.84
-23.86
-22.77
-22.58
-22.63
-21.85
-19.22
-14.13
-6.6
2.84
13.33
23.95
33.95
42.82
50.3
56.24
60.51
62.99
63.58
62.42
59.92
56.69
53.3
50.03
46.72
42.86
37.8
31.09
22.67
12.91
2.44
-8
-17.67
-25.91
-32.2
-36.26
-38.24
-38.78
-38.96
-39.99
-42.77
-47.49
-53.5
-59.6
-64.61
-67.97
-69.99
-71.63
-73.92
-77.36
-81.65
-85.79
-88.64
-89.46
-88.3
-85.92
-83.47
-81.88
-81.49
-81.79
-81.5
-78.9
-72.06
-59.04
-38.15
-8.54
29.38
73.2
118.41
159.03
188.4
200.54
190.89
157.42
101.83
30.92
-43.51
-106.6
-144.6
-149.43
-121.32
-68.61
-4.66
56.26
102.52
127.24
129.22
112.89
87.49
65.32
58.27
73.3
109.31
156.58
199.81
223.68
218.82
184.92
130.7
69.9
15.65
-24.57
-51.73
-73.6
-100.02
-137.11
-183.61
-231.11
-268.32
-286.33
-282.2
-259.07
-223.13
-179.77
-131.65
-79.16
-22.83
34.54
87.57
129.94
156.68
166.37
161.97
149.46
135.54
125.03
119.11
115.12
108.36
94.74
73.22
46.72
21
2.1
-6.24
-3.98
5.66
18
29.03
36.74
41.16
43.33
44.18
43.8
41.4
36.09
27.69
17.27
6.95
-0.81
-4.41
-3.98
-1.49
0
-2.02
-8.17
-16.51
-23.4
-25.3
-20.4
-9.41
5.14
20.29
34.02
45.62
55.14
62.48
66.98
67.71
64.17
57.07
48.24
39.96
33.91
30.45
28.62
26.83
23.81
19.14
13.41
7.76
3.22
0.22
-1.66
-3.48
-6.34
-10.94
-17.2
-24.25
-30.97
-36.42
-40.25
-42.67
-44.13
-44.96
-45.04
-44.01
-41.46
-37.44
-32.61
-28.04
-24.77
-23.39
-23.85
-25.74
-28.72
-32.93
-39.02
-47.84
-60.01
-75.56
-93.73
-112.99
-131.16
-145.84
-154.91
-157.32
-153.5
-145.34
-135.58
-126.74
-120.22
-116.06
-113.37
-111.23
-109.36
-108.33
-109.05
-112.11
-117.22
-123.09
-127.75
-129.11
-125.45
-115.91
-100.62
-80.67
-57.77
-33.78
-10.27
11.8
32.06
50.64
67.73
83.44
97.76
110.62
122.04
132.04
140.61
147.5
152.14
153.77
151.76
146.03
137.43
127.68
118.89
112.78
109.96
109.65
110.12
109.64
107.42
103.99
100.84
99.45
100.33
102.72
105.19
106.73
107.53
108.95
112.52
118.76
126.64
133.96
138.63
139.86
138.57
136.82
136.71
139.53
145.42
153.74
163.64
174.19
184.39
192.9
198.15
198.77
194.11
184.62
171.83
158.07
145.93
137.61
134.33
135.86
140.48
145.49
148.11
146.54
140.52
131.21
120.49
110.06
100.95
93.43
87.53
83.28
80.75
79.66
79.08
77.35
72.56
63.22
48.9
30.33
9.04
-13.37
-35.84
-58.3
-81.5
-106.66
-135.05
-167.5
-203.98
-243.22
-282.48
-317.79
-344.72
-359.71
-361.25
-350.54
-331
-306.86
-281.54
-256.5
-231.23
-204.34
-174.92
-143.49
-111.93
-82.64
-57.34
-36.53
-19.61
-5.6
6.06
15.24
21.43
24.51
25.34
25.69
27.61
32.51
40.5
50.41
60.52
69.33
76.13
80.91
84.03
85.83
86.59
86.62
86.3
85.86
85.07
83
78.34
69.94
57.42
41.43
23.33
4.46
-14.49
-33.65
-53.53
-74.34
-95.51
-115.54
-132.61
-145.29
-153.27
-157.53
-159.91
-162.28
-165.63
-169.62
-172.8
-173.42
-170.14
-162.55
-151.07
-136.56
-119.92
-102.03
-83.81
-66.29
-50.33
-36.18
-23.32
-10.79
2.07
14.86
26.01
33.35
35.43
32.55
26.97
22.11
21.03
24.96
32.9
42.2
50
54.56
55.9
55.35
54.54
54.39
54.69
54.34
52.21
47.95
42.16
36.05
30.73
26.57
23.21
20
16.65
13.73
12.53
14.51
20.57
30.47
42.82
55.42
66
72.87
75.36
73.9
69.75
64.6
59.95
56.78
55.3
55.15
55.66
56.17
56.14
55.1
52.6
48.34
42.42
35.66
29.38
24.71
21.76
19.1
14.2
4.8
-9.63
-27.12
-43.79
-55.53
-59.79
-56.65
-48.64
-39.47
-32.42
-29.29
-30.03
-33.2
-36.82
-39.06
-38.78
-35.93
-31.49
-27.16
-24.84
-25.99
-31.1
-39.42
-49.14
-57.98
-64.21
-67.43
-68.84
-70.61
-74.72
-81.74
-90.44
-98.21
-102.35
-101.27
-95.15
-85.67
-75.15
-65.6
-58.09
-52.77
-49.17
-46.62
-44.56
-42.74
-41.3
-40.58
-40.83
-41.69
-42.14
-40.8
-36.56
-29.23
-19.71
-9.56
-0.15
8.02
15.52
23.42
32.61
43.09
53.95
63.82
71.67
77.41
81.86
86.3
91.62
97.73
103.63
107.86
109.45
108.4
105.65
102.51
99.86
97.65
94.91
90.4
83.22
73.27
61.11
47.56
33.34
18.93
4.62
-9.26
-22.34
-34.35
-45.29
-55.45
-65.21
-74.77
-83.89
-91.93
-98.22
-102.37
-104.63
-105.87
-107.27
-110
-114.87
-122.27
-132.18
-144.24
-157.74
-171.51
-183.86
-192.74
-196.18
-192.86
-182.75
-167.32
-149.31
-131.89
-117.71
-107.8
-101.07
-94.54
-84.3
-66.81
-40.12
-4.01
40.73
93.22
152.76
217.91
285.04
347.29
395.7
421.9
421.52
396.35
353.71
303.13
252.39
205.13
161.34
120.08
81.91
49.44
25.34
9.4
-2.87
-18.78
-44.65
-81.95
-125.52
-165.09
-189.32
-189.98
-164.32
-114.94
-48.01
28.61
106.12
175.15
226.18
250.76
243.77
205.79
144.71
74.61
11.93
-30.09
-46.49
-42.65
-31.71
-28.43
-42.24
-73.21
-112.79
-148.77
-171.26
-176.49
-166.73
-147.21
-122.64
-95.78
-68.22
-42.06
-20.66
-7.58
-4.66
-10.9
-22.69
-35.25
-44.63
-48.71
-47.2
-41.12
-32.41
-23.4
-16.37
-12.85
-12.98
-15.29
-17.21
-16.09
-10.44
-0.59
11.55
23.31
32.41
37.73
39.41
38.48
36.17
33.41
30.56
27.55
24.22
20.63
17.14
14.27
12.41
11.57
11.36
11.2
10.65
9.61
8.33
7.15
6.34
5.91
5.68
5.46
5.11
4.66
4.14
3.53
2.69
1.36
-0.68
-3.57
-7.24
-11.46
-15.95
-20.41
-24.62
-28.41
-31.73
-34.52
-36.74
-38.24
-38.75
-37.93
-35.53
-31.54
-26.28
-20.32
-14.29
-8.68
-3.69
0.63
4.29
7.22
9.29
10.47
10.97
11.21
11.68
12.64
14
15.34
16.19
16.19
15.36
13.95
12.36
10.94
9.86
9.15
8.66
8.24
7.69
6.88
5.72
4.18
2.33
0.31
-1.7
-3.59
-5.32
-7.02
-8.93
-11.3
-14.25
-17.65
-21.14
-24.19
-26.22
-26.88
-26.07
-23.96
-20.95
-17.47
-13.9
-10.49
-7.39
-4.65
-2.27
-0.25
1.46
2.94
4.29
5.64
7.07
8.57
10.09
11.46
12.48
12.95
12.79
11.98
10.62
8.97
7.33
6
5.26
5.15
5.53
6.08
6.4
6.18
5.27
3.65
1.39
-1.41
-4.53
-7.63
-10.24
-11.88
-12.24
-11.29
-9.35
-6.9
-4.45
-2.34
-0.72
0.48
1.37
2.15
2.97
3.92
4.98
6
6.77
7.1
7.03
6.73
6.47
6.44
6.62
6.85
6.82
6.36
5.42
4.14
2.67
1.15
-0.33
-1.72
-2.92
-3.84
-4.41
-4.72
-5.02
-5.7
-7.12
-9.4
-12.32
-15.31
-17.64
-18.64
-17.97
-15.74
-12.49
-8.98
-5.94
-3.83
-2.71
-2.23
-1.86
-1.06
0.43
2.53
4.88
7
8.51
9.25
9.28
8.8
7.99
7.04
6.04
5.11
4.34
3.79
3.46
3.23
2.95
2.48
1.74
0.76
-0.4
-1.63
-2.81
-3.86
-4.77
-5.63
-6.58
-7.72
-9.01
-10.25
-11.05
-11.08
-10.15
-8.32
-5.89
-3.19
-0.52
1.98
4.27
6.3
7.95
9.05
9.53
9.51
9.32
9.35
9.84
10.78
11.87
12.67
12.86
12.41
11.54
10.59
9.79
9.14
8.4
7.27
5.56
3.27
0.67
-1.96
-4.34
-6.38
-8.1
-9.61
-11.05
-12.5
-14.02
-15.63
-17.29
-18.94
-20.34
-21.25
-21.42
-20.68
-19.07
-16.78
-14.07
-11.21
-8.43
-5.89
-3.67
-1.79
-0.18
1.25
2.61
3.94
5.15
6.08
6.58
6.62
6.32
5.92
5.68
5.8
6.29
7.07
7.95
8.74
9.31
9.58
9.54
9.2
8.61
7.81
6.87
5.85
4.81
3.81
2.86
1.94
0.99
-0.11
-1.45
-3.15
-5.22
-7.6
-10.14
-12.63
-14.84
-16.53
-17.5
-17.58
-16.7
-14.91
-12.45
-9.7
-7.06
-4.8
-3.02
-1.59
-0.25
1.19
2.78
4.38
5.8
6.88
7.59
8.02
8.32
8.57
8.81
8.97
8.99
8.85
8.57
8.23
7.92
7.74
7.71
7.82
7.96
7.94
7.59
6.78
5.54
4.05
2.56
1.29
0.31
-0.5
-1.36
-2.48
-3.97
-5.8
-7.85
-10.01
-12.15
-14.15
-15.85
-17.03
-17.42
-16.86
-15.32
-12.97
-10.18
-7.34
-4.8
-2.71
-1.05
0.39
1.83
3.39
5.07
6.7
8.1
9.16
9.85
10.27
10.51
10.65
10.67
10.54
10.26
9.88
9.49
9.17
8.95
8.74
8.41
7.78
6.8
5.5
4.02
2.52
1.16
-0.02
-1.1
-2.24
-3.59
-5.24
-7.14
-9.18
-11.18
-12.97
-14.34
-15.16
-15.27
-14.59
-13.16
-11.14
-8.8
-6.47
-4.4
-2.68
-1.24
0.06
1.38
2.73
4.02
5.08
5.79
6.1
6.13
6.04
6
6.12
6.43
6.9
7.48
8.11
8.79
9.42
9.91
10.15
10.03
9.51
8.62
7.49
6.25
4.98
3.69
2.3
0.74
-1.07
-3.17
-5.49
-7.95
-10.34
-12.41
-13.89
-14.55
-14.3
-13.15
-11.28
-8.9
-6.24
-3.55
-1.04
1.09
2.8
4.12
5.24
6.38
7.65
9.05
10.39
11.51
12.28
12.74
13
13.23
13.47
13.66
13.68
13.45
13.02
12.45
11.83
11.16
10.29
9
7.11
4.6
1.63
-1.51
-4.52
-7.22
-9.61
-11.77
-13.78
-15.64
-17.2
-18.27
-18.69
-18.41
-17.51
-16.09
-14.3
-12.23
-9.99
-7.66
-5.35
-3.19
-1.23
0.53
2.16
3.7
5.21
6.61
7.81
8.66
9.1
9.16
8.97
8.76
8.69
8.83
9.09
9.33
9.35
9.05
8.44
7.57
6.54
5.38
4.11
2.78
1.48
0.3
-0.67
-1.43
-2.14
-3
-4.19
-5.77
-7.63
-9.52
-11.12
-12.12
-12.35
-11.8
-10.6
-9
-7.26
-5.58
-4.06
-2.71
-1.49
-0.38
0.6
1.4
2.03
2.5
2.91
3.34
3.89
4.55
5.28
6.03
6.71
7.27
7.68
7.98
8.21
8.4
8.55
8.58
8.37
7.84
6.99
5.93
4.83
3.86
3.13
2.57
2.08
1.5
0.66
-0.49
-1.96
-3.71
-5.62
-7.6
-9.47
-11.08
-12.26
-12.89
-12.89
-12.31
-11.26
-9.97
-8.65
-7.47
-6.44
-5.44
-4.26
-2.71
-0.77
1.4
3.46
5.04
5.91
6.1
5.85
5.54
5.51
5.9
6.69
7.67
8.58
9.23
9.55
9.54
9.21
8.59
7.67
6.45
5.01
3.49
2.07
0.87
-0.07
-0.85
-1.58
-2.43
-3.43
-4.54
-5.67
-6.77
-7.87
-9.05
-10.34
-11.65
-12.75
-13.33
-13.18
-12.3
-10.9
-9.33
-7.92
-6.87
-6.15
-5.57
-4.92
-3.98
-2.68
-1.05
0.79
2.62
4.24
5.46
6.22
6.53
6.47
6.18
5.83
5.53
5.43
5.62
6.11
6.86
7.67
8.32
8.64
8.56
8.2
7.7
7.21
6.76
6.23
5.43
4.27
2.78
1.12
-0.46
-1.81
-2.9
-3.86
-4.9
-6.17
-7.74
-9.55
-11.46
-13.22
-14.59
-15.34
-15.39
-14.73
-13.52
-11.94
-10.2
-8.47
-6.82
-5.28
-3.81
-2.38
-0.97
0.42
1.76
2.99
4.04
4.91
5.59
6.17
6.68
7.16
7.65
8.15
8.68
9.25
9.8
10.22
10.38
10.18
9.64
8.87
8.04
7.25
6.54
5.86
5.16
4.4
3.6
2.77
1.89
0.9
-0.26
-1.59
-2.98
-4.29
-5.35
-6.15
-6.83
-7.65
-8.9
-10.61
-12.57
-14.28
-15.19
-14.92
-13.52
-11.42
-9.33
-7.86
-7.32
-7.46
-7.67
-7.18
-5.48
-2.59
0.91
4.05
5.95
6.2
5.09
3.56
2.8
3.68
6.34
9.99
13.23
14.46
12.37
6.32
-3.54
-16.06
-29.14
-39.93
-45.51
-43.97
-35.47
-22.73
-10.5
-3.88
-6.24
-17.75
-35.29
-53.87
-68.75
-77.24
-79.28
-76.75
-72.05
-66.96
-62.15
-57.55
-52.96
-48.44
-44.21
-40.23
-35.82
-29.73
-20.69
-8.16
7.16
23.35
37.87
48.61
54.6
56.4
55.71
54.57
54.48
55.94
58.39
60.67
61.6
60.47
57.17
52.09
45.86
39.13
32.45
26.3
21.2
17.64
16.03
16.58
19.13
23.13
27.8
32.32
35.98
38.32
39.12
38.34
36.11
32.69
28.43
23.82
19.28
15.15
11.51
8.29
5.28
2.32
-0.69
-3.73
-6.66
-9.44
-12.11
-14.85
-17.88
-21.19
-24.45
-26.94
-27.81
-26.45
-22.91
-17.99
-13.11
-9.72
-8.75
-10.23
-13.26
-16.43
-18.41
-18.46
-16.7
-14.01
-11.64
-10.74
-11.95
-15.16
-19.4
-23.12
-24.45
-21.77
-14.26
-2.3
12.54
27.88
41.38
51.59
58.59
63.95
70.18
79.6
93.32
110.6
128.69
143.62
151.24
148.48
134.35
110.19
79.31
45.92
13.96
-13.88
-36.65
-54.89
-70.03
-83.45
-95.88
-107.04
-115.86
-121.15
-122.28
-119.65
-114.81
-109.98
-107.21
-107.66
-111.19
-116.52
-121.98
-126.25
-128.95
-130.68
-132.56
-135.42
-139.29
-143.29
-146.02
-146.4
-144.26
-140.38
-135.99
-131.96
-128.34
-124.65
-120.83
-117.81
-117.38
-120.87
-127.44
-133.48
-133.98
-125.42
-108.42
-88.07
-71.19
-62.01
-58.95
-54.73
-40.33
-10.22
34.11
84.7
131.45
167.31
191.4
208.54
225.59
247.59
275.39
306.08
335.11
358.49
374
380.92
379.2
368.8
349.57
321.68
286.19
245.13
201.25
157.48
116.37
79.77
48.79
23.99
5.67
-6.05
-11.15
-9.91
-2.89
8.82
23.47
38.47
50.34
55.07
48.8
29.14
-3.72
-46.22
-91.77
-132.25
-160.29
-171.4
-165.11
-144.81
-116.27
-85.61
-57.68
-35.33
-19.51
-10.12
-6.65
-8.48
-14.71
-23.84
-33.69
-41.8
-46.15
-45.82
-41.37
-34.61
-27.96
-23.67
-23.13
-26.48
-32.65
-39.8
-45.97
-49.76
-50.55
-48.64
-45.04
-40.99
-37.41
-34.49
-31.74
-28.38
-23.89
-18.02
-11.04
-3.63
3.45
9.92
16.3
23.65
33.05
44.91
59.2
75.07
90.68
103.41
110.03
107.28
92.7
65.9
29.56
-9.45
-41.77
-58.75
-55.47
-32.62
3.93
45.48
83.88
110.02
118.27
108.85
87.66
62.54
39.45
22.06
13.1
15.81
30.67
56.05
86.74
114.68
131.78
133.16
119.08
92.92
62.42
34.94
17.32
11.84
14.12
18.08
19.14
15.84
7.75
-4.94
-22.79
-46.25
-75.46
-109.24
-144.44
-176.6
-201.44
-216.4
-221.2
-218.1
-210.37
-201.05
-191.6
-181.48
-169.33
-154.31
-137.06
-119.21
-102.78
-88.96
-77.75
-68.09
-58.46
-47.95
-36.76
-26.07
-17.11
-10.64
-6.48
-3.86
-1.77
0.57
3.28
5.89
7.63
7.93
6.72
4.47
1.92
-0.16
-1.25
-1.35
-0.89
-0.59
-1.09
-2.68
-5.29
-8.53
-11.84
-14.74
-16.78
-17.59
-16.81
-14.19
-9.69
-3.65
3.28
10.21
16.4
21.38
25.11
27.88
30.12
32.14
34.09
35.88
37.3
38.14
38.33
37.91
37.07
36.01
34.89
33.83
32.83
31.87
30.85
29.67
28.19
26.27
23.81
20.78
17.23
13.27
8.98
4.3
-0.91
-6.77
-13.25
-19.99
-26.32
-31.36
-34.31
-34.68
-32.38
-27.82
-21.67
-14.74
-7.74
-1.23
4.53
9.44
13.61
17.22
20.42
23.29
25.8
27.87
29.41
30.41
30.9
30.95
30.58
29.75
28.43
26.65
24.57
22.44
20.55
19.05
17.88
16.77
15.36
13.3
10.49
7.09
3.47
0.1
-2.72
-4.9
-6.62
-8.23
-10.17
-12.82
-16.37
-20.75
-25.47
-29.7
-32.39
-32.61
-29.87
-24.33
-16.83
-8.57
-0.7
6.03
11.44
15.76
19.38
22.63
25.68
28.49
31.02
33.2
35.05
36.55
37.68
38.38
38.58
38.29
37.58
36.6
35.52
34.47
33.44
32.33
31.01
29.34
27.31
24.96
22.44
19.8
17
13.95
10.52
6.68
2.54
-1.7
-5.81
-9.64
-13.16
-16.45
-19.62
-22.87
-26.35
-30.18
-34.25
-38.27
-41.65
-43.7
-43.74
-41.4
-36.73
-30.18
-22.51
-14.55
-6.98
-0.17
5.83
11.19
16.13
20.78
25.06
28.71
31.47
33.18
33.92
33.92
33.41
32.59
31.5
30.18
28.65
27.02
25.41
23.87
22.32
20.51
18.2
15.29
11.88
8.25
4.7
1.45
-1.45
-4.06
-6.47
-8.72
-10.83
-12.79
-14.66
-16.53
-18.59
-20.95
-23.71
-26.96
-30.77
-35.09
-39.67
-43.9
-46.9
-47.73
-45.73
-40.85
-33.69
-25.29
-16.79
-9.06
-2.49
2.91
7.31
10.86
13.58
15.41
16.37
16.67
16.66
16.67
16.87
17.22
17.48
17.39
16.82
15.87
14.79
13.83
13.07
12.34
11.28
9.44
6.57
2.72
-1.76
-6.36
-10.6
-14.24
-17.41
-20.53
-24.12
-28.69
-34.55
-41.84
-50.54
-60.34
-70.45
-79.51
-85.69
-87.2
-82.95
-73.08
-58.99
-42.7
-26.06
-10.05
5.29
20.36
35.3
49.53
62.03
71.99
79.35
84.87
89.62
94.18
98.26
100.87
101.14
98.88
94.94
90.68
87.37
85.5
84.87
84.86
85.08
85.58
86.82
89.38
93.53
99.09
105.51
111.99
117.58
121.22
121.78
118.18
109.69
96.19
78.45
57.99
36.8
16.85
-0.31
-13.85
-23.68
-30.14
-33.82
-35.26
-34.94
-33.31
-30.93
-28.35
-26.04
-24.15
-22.51
-20.71
-18.45
-15.76
-13.15
-11.41
-11.24
-12.94
-16.24
-20.37
-24.43
-27.64
-29.61
-30.34
-30.13
-29.34
-28.33
-27.32
-26.44
-25.75
-25.3
-25.26
-25.9
-27.52
-30.29
-33.91
-37.53
-39.95
-40.05
-37.4
-32.46
-26.57
-21.37
-18.06
-16.98
-17.67
-19.26
-21.06
-22.84
-24.7
-26.75
-28.77
-30.27
-30.65
-29.59
-27.28
-24.29
-21.31
-18.95
-17.51
-17.05
-17.43
-18.37
-19.5
-20.48
-21.01
-21.06
-20.91
-21.03
-21.87
-23.58
-25.78
-27.64
-28.1
-26.3
-21.91
-15.31
-7.45
0.39
7.02
11.66
14.04
14.37
13.08
10.61
7.29
3.23
-1.49
-6.74
-12.26
-17.72
-22.77
-27.21
-31
-34.25
-37.09
-39.57
-41.6
-43.01
-43.57
-43.21
-41.93
-39.84
-37.07
-33.75
-30
-25.92
-21.66
-17.37
-13.2
-9.26
-5.63
-2.34
0.61
3.22
5.44
7.12
8.03
7.92
6.58
4.03
0.56
-3.25
-6.73
-9.27
-10.51
-10.47
-9.44
-7.93
-6.48
-5.59
-5.56
-6.46
-8.1
-10.01
-11.54
-12.09
-11.29
-9.22
-6.42
-3.67
-1.71
-0.84
-0.87
-1.19
-1.12
-0.2
1.56
3.83
6.18
8.3
10.11
11.65
12.95
13.94
14.46
14.46
14.01
13.42
13.04
13.14
13.78
14.75
15.7
16.22
16.12
15.42
14.38
13.39
12.76
12.63
12.97
13.58
14.27
14.94
15.58
16.25
16.99
17.77
18.51
19.09
19.46
19.6
19.52
19.23
18.7
17.81
16.32
13.95
10.51
6.09
1.16
-3.58
-7.42
-9.96
-11.25
-11.69
-11.78
-11.84
-11.9
-11.81
-11.5
-11.11
-10.94
-11.29
-12.27
-13.8
-15.7
-18
-20.91
-24.74
-29.53
-34.85
-39.81
-43.32
-44.58
-43.35
-40.09
-35.64
-30.83
-26.23
-21.92
-17.77
-13.62
-9.57
-5.9
-2.99
-0.96
0.39
1.54
2.93
4.79
6.89
8.74
9.87
10.04
9.43
8.43
7.39
6.44
5.39
3.98
2.03
-0.32
-2.76
-4.88
-6.39
-7.18
-7.25
-6.7
-5.67
-4.39
-3.22
-2.61
-2.95
-4.34
-6.53
-8.92
-10.79
-11.58
-11.13
-9.59
-7.35
-4.79
-2.1
0.64
3.48
6.39
9.31
12.16
14.88
17.49
20.02
22.42
24.52
26.21
27.44
28.3
28.97
29.53
29.82
29.48
28.18
25.85
22.86
19.91
17.75
16.81
16.98
17.63
17.92
17.19
15.16
12
8.1
3.9
-0.25
-4.14
-7.57
-10.36
-12.38
-13.68
-14.5
-15.23
-16.27
-17.87
-20.04
-22.56
-25.05
-27.1
-28.37
-28.73
-28.26
-27.28
-26.19
-25.26
-24.48
-23.59
-22.18
-19.97
-16.96
-13.45
-9.84
-6.47
-3.41
-0.62
2.04
4.54
6.75
8.5
9.73
10.53
11.14
11.81
12.71
13.88
15.22
16.61
17.84
18.72
19
18.54
17.28
15.37
13.19
11.17
9.71
8.99
8.86
8.96
8.79
8
6.34
3.86
0.82
-2.35
-5.15
-7.19
-8.23
-8.27
-7.47
-6.12
-4.49
-2.87
-1.49
-0.49
0.12
0.47
0.8
1.4
2.41
3.87
5.61
7.41
9.04
10.31
11.17
11.55
11.49
11.02
10.27
9.34
8.36
7.42
6.55
5.81
5.21
4.82
4.62
4.53
4.4
4
3.1
1.53
-0.8
-3.83
-7.37
-11.1
-14.62
-17.62
-19.9
-21.54
-22.75
-23.82
-25.04
-26.48
-28.03
-29.4
-30.21
-30.12
-28.97
-26.84
-24.02
-21
-18.2
-15.87
-13.88
-11.84
-9.29
-6.02
-2.22
1.55
4.57
6.37
6.87
6.46
5.75
5.29
5.39
6.04
7.04
8.08
8.87
9.24
9.08
8.44
7.43
6.27
5.11
4.06
3.13
2.3
1.6
1.05
0.59
-0.01
-1.07
-2.89
-5.46
-8.42
-11.13
-12.96
-13.63
-13.26
-12.3
-11.29
-10.56
-10.08
-9.58
-8.72
-7.21
-4.92
-1.91
1.64
5.43
9.09
12.31
14.84
16.55
17.45
17.6
17.11
16.24
15.36
14.98
15.57
17.37
20.17
23.37
26.09
27.52
27.17
24.97
21.19
16.23
10.48
4.31
-1.85
-7.39
-11.57
-13.68
-13.37
-10.79
-6.68
-2.21
1.39
3.1
2.4
-0.69
-5.63
-11.56
-17.55
-22.83
-26.97
-29.9
-31.9
-33.34
-34.65
-36.11
-37.77
-39.47
-40.81
-41.31
-40.49
-38.16
-34.46
-29.9
-25.2
-21.1
-18.06
-16.18
-15.26
-14.84
-14.55
-14.07
-13.28
-12.24
-11.06
-9.91
-8.89
-8.02
-7.17
-6.21
-5
-3.46
-1.63
0.42
2.6
4.82
6.87
8.53
9.51
9.65
9.02
7.92
6.84
6.14
5.96
6.04
5.88
4.97
3.06
0.26
-3.08
-6.47
-9.6
-12.39
-14.97
-17.6
-20.48
-23.72
-27.18
-30.55
-33.34
-34.99
-35.01
-33.1
-29.35
-24.23
-18.53
-13.08
-8.48
-4.96
-2.33
-0.13
2.13
4.76
7.86
11.28
14.75
17.95
20.54
22.18
22.63
21.82
19.96
17.59
15.44
14.27
14.55
16.38
19.4
22.91
26.16
28.53
29.69
29.66
28.78
27.52
26.34
25.56
25.2
25
24.58
23.56
21.74
19.16
16.06
12.71
9.31
5.83
2.19
-1.75
-5.98
-10.38
-14.59
-18.23
-20.83
-21.96
-21.35
-18.92
-14.9
-9.8
-4.31
0.89
5.31
8.79
11.47
13.71
15.83
17.99
20.17
22.16
23.78
24.91
25.59
25.95
26.09
26.05
25.77
25.23
24.51
23.84
23.51
23.71
24.37
25.14
25.55
25.26
24.2
22.62
20.89
19.32
17.99
16.78
15.45
13.85
11.98
9.92
7.82
5.82
3.99
2.37
0.9
-0.54
-2.15
-4.11
-6.57
-9.49
-12.67
-15.85
-18.76
-21.18
-22.91
-23.72
-23.38
-21.72
-18.71
-14.65
-10.02
-5.43
-1.38
1.89
4.41
6.43
8.26
10.12
12.04
13.91
15.59
17.01
18.19
19.22
20.17
21.04
21.73
22.14
22.19
21.93
21.51
21.09
20.71
20.32
19.73
18.75
17.31
15.45
13.34
11.19
9.1
7.11
5.14
3.12
0.98
-1.27
-3.64
-6.1
-8.59
-11
-13.15
-14.8
-15.71
-15.71
-14.7
-12.79
-10.22
-7.41
-4.81
-2.75
-1.32
-0.33
0.61
1.94
3.84
6.23
8.76
11.05
12.78
13.84
14.31
14.31
13.98
13.44
12.78
12.14
11.61
11.28
11.14
11.16
11.27
11.43
11.58
11.67
11.57
11.14
10.25
8.86
7.1
5.12
3.15
1.26
-0.53
-2.37
-4.37
-6.61
-9.08
-11.72
-14.47
-17.26
-20.04
-22.69
-24.96
-26.54
-27.12
-26.53
-24.77
-22.1
-18.85
-15.4
-12
-8.75
-5.65
-2.67
0.2
2.89
5.32
7.39
9.11
10.5
11.67
12.72
13.8
14.94
16.11
17.17
17.89
18.07
17.64
16.71
15.58
14.64
14.21
14.4
15.02
15.66
15.88
15.35
14.02
12.13
10.08
8.22
6.71
5.45
4.25
2.91
1.36
-0.39
-2.34
-4.59
-7.25
-10.36
-13.63
-16.52
-18.36
-18.67
-17.36
-14.69
-11.21
-7.38
-3.39
0.85
5.58
11
17.04
23.3
29.16
33.95
37.18
38.71
38.81
37.95
36.64
35.18
33.61
31.78
29.5
26.71
23.38
19.37
14.29
7.63
-1.03
-11.69
-23.66
-35.76
-46.64
-55.23
-61.06
-64.15
-64.71
-62.82
-58.34
-51.27
-42.21
-32.74
-25.18
-21.87
-24.1
-31.36
-41.34
-50.74
-56.5
-56.8
-51.37
-41.12
-27.35
-11.2
6.42
24.49
41.45
55.22
63.68
65.45
60.59
50.68
38.37
26.57
17.43
11.84
9.27
8.22
6.85
3.86
-1.19
-7.67
-14.32
-19.88
-23.61
-25.72
-27.2
-29.36
-33.23
-39.09
-46.37
-53.86
-60.23
-64.41
-65.81
-64.16
-59.38
-51.67
-41.8
-31.38
-22.52
-16.97
-14.91
-14.4
-11.91
-4.12
10.12
28.73
47.02
59.84
64.07
59.96
50.76
40.91
33.82
30.66
30.61
31.92
33.37
34.78
36.87
40.36
45.16
50.03
52.99
52.35
47.48
39.4
30.49
23.39
19.82
19.82
21.83
23.5
22.75
18.64
11.52
2.71
-6.1
-13.5
-18.73
-22.03
-24.8
-29.53
-39.41
-57.76
-87.04
-128.19
-179.95
-238.5
-297.6
-349.63
-387.23
-405.03
-400.92
-375.51
-331.36
-271.58
-199.01
-116.74
-29.55
54.79
126.65
176.4
198.64
193.42
166.43
127.08
85.4
49.34
22.74
6.22
-1.73
-1.21
8.49
28.34
58.29
96.07
137.15
174.83
203.59
220.1
226.89
229.57
234.21
244.5
260.21
277.99
292.47
300.4
287.02
245.34
178.27
98.13
19.85
-47.13
-95.09
-129.92
-156.37
-175.86
-184.96
-179.4
-158.34
-123.41
-79.21
-32.13
10.06
41.66
58.83
62.04
54.24
39.37
20.97
1.25
-18.48
-37.69
-54.47
-66.63
-71.38
-67.3
-55.15
-37.46
-17.69
0.7
14.44
21.46
20.08
10.24
-6.43
-26.25
-44.31
-56.24
-59.82
-55.81
-46.83
-36.06
-25.66
-16.94
-11.01
-9.25
-12.89
-21.63
-32.92
-42.26
-45.27
-39.71
-26.36
-8.35
10.51
27.07
39.5
47.02
49.59
48.37
46.69
49.67
62.54
87.78
122.68
159.34
187.44
198.49
189.41
163.27
127.41
90
56.97
30.65
10.46
-5.4
-18.3
-28.43
-35.33
-38.92
-40.11
-40.63
-42.27
-45.85
-50.82
-55.57
-58.16
-57.41
-53.46
-47.68
-42.03
-38.12
-36.47
-36.26
-35.96
-34.05
-29.95
-24.21
-18.28
-13.7
-11.39
-11.31
-12.52
-13.72
-13.9
-12.69
-10.41
-7.75
-5.39
-3.65
-2.54
-1.8
-1.24
-0.77
-0.43
-0.27
-0.26
-0.3
-0.37
-0.62
-1.33
-2.76
-5
-7.84
-10.92
-13.92
-16.67
-19.23
-21.79
-24.45
-27.17
-29.71
-31.76
-32.96
-33.09
-32.03
-29.86
-26.77
-23.03
-18.97
-14.95
-11.24
-8
-5.28
-3.06
-1.26
0.19
1.38
2.4
3.3
4.18
5.05
5.89
6.62
7.16
7.48
7.58
7.54
7.43
7.3
7.05
6.56
5.72
4.52
3.07
1.52
-0.05
-1.64
-3.35
-5.28
-7.44
-9.77
-12.12
-14.39
-16.57
-18.69
-20.74
-22.53
-23.72
-23.92
-22.84
-20.48
-17.15
-13.34
-9.55
-6.16
-3.28
-0.88
1.22
3.15
4.97
6.61
8
9.06
9.77
10.17
10.39
10.55
10.75
11.02
11.29
11.43
11.29
10.75
9.83
8.68
7.45
6.25
5.02
3.53
1.52
-1.2
-4.6
-8.5
-12.66
-16.88
-21.09
-25.27
-29.27
-32.78
-35.33
-36.43
-35.82
-33.56
-30.06
-25.94
-21.84
-18.2
-15.2
-12.77
-10.72
-8.87
-7.12
-5.42
-3.73
-1.93
0.16
2.65
5.4
7.95
9.69
10.16
9.36
7.78
6.23
5.48
5.89
7.28
9.13
10.84
12.05
12.68
12.81
12.53
11.76
10.27
7.84
4.39
0.11
-4.56
-9.04
-12.69
-15.02
-15.78
-14.99
-12.88
-9.8
-6.11
-2.12
1.92
5.84
9.49
12.81
15.74
18.32
20.53
22.39
23.86
24.89
25.47
25.64
25.46
25.03
24.45
23.79
23.13
22.54
22.07
21.65
21.15
20.39
19.17
17.39
15.06
12.34
9.42
6.5
3.71
1.15
-1.22
-3.52
-6.01
-8.97
-12.6
-16.91
-21.53
-25.81
-28.97
-30.39
-29.82
-27.46
-23.85
-19.58
-15.17
-10.88
-6.78
-2.86
0.86
4.29
7.36
10.02
12.32
14.36
16.25
18.02
19.59
20.82
21.55
21.71
21.38
20.74
20.04
19.44
18.93
18.32
17.33
15.75
13.56
10.99
8.41
6.12
4.24
2.67
1.18
-0.49
-2.53
-5.09
-8.16
-11.66
-15.4
-19
-21.94
-23.67
-23.74
-22.02
-18.73
-14.19
-8.84
-3.16
2.37
7.34
11.51
14.84
17.52
19.83
22.47
25.91
30.2
34.86
39.06
42.1
43.72
44.11
43.66
43.68
45.27
48.91
54.1
59.63
64.24
67.18
68.31
67.93
68.01
70.32
75.65
83.28
91.46
98.39
103.14
105.74
106.89
109.54
116.68
130.64
152.31
181
214.71
250.34
283.77
298.84
283.3
233.54
158.38
75.15
0.2
-57.57
-97.6
-124.44
-143.88
-158
-168.67
-177.48
-186.54
-198.1
-212.68
-227.66
-237.9
-237.99
-223.52
-191.56
-145.86
-94.84
-48.1
-12.34
10.63
23.15
29.23
32.88
35.95
37.89
37.19
32.67
24.31
13.15
0.48
-12.75
-25.78
-38.07
-49.3
-58.9
-66.17
-70.55
-71.89
-70.65
-67.83
-64.51
-61.59
-59.73
-59
-59.04
-59.22
-58.88
-57.62
-55.4
-52.48
-49.21
-45.95
-42.76
-39.41
-35.6
-31.17
-26.27
-21.29
-16.76
-13.02
-10.14
-7.88
-5.88
-3.88
-1.88
-0.1
1.25
2.09
2.56
2.94
3.51
4.4
5.59
6.96
8.37
9.74
10.99
12.07
12.89
13.35
13.38
12.97
12.15
10.99
9.63
8.22
6.89
5.73
4.75
3.86
2.9
1.69
0.17
-1.61
-3.49
-5.24
-6.68
-7.84
-8.92
-10.26
-12.17
-14.68
-17.51
-20.05
-21.67
-21.93
-20.78
-18.57
-15.84
-13.07
-10.5
-8.17
-6.02
-4.05
-2.3
-0.84
0.38
1.49
2.69
4.05
5.52
6.91
8.04
8.85
9.42
9.93
10.56
11.38
12.36
13.42
14.48
15.45
16.28
16.85
17.03
16.71
15.82
14.38
12.5
10.31
7.91
5.34
2.6
-0.27
-3.19
-5.95
-8.33
-10.14
-11.38
-12.23
-13.04
-14.19
-15.99
-18.49
-21.46
-24.37
-26.49
-27.1
-25.67
-22.08
-16.66
-10.12
-3.34
2.88
8.08
12.13
15.25
17.77
20.04
22.26
24.52
26.78
28.96
30.94
32.59
33.8
34.55
34.88
35
35.18
35.71
36.71
38.13
39.73
41.16
42.12
42.49
42.36
41.99
41.68
41.64
41.88
42.18
42.2
41.54
39.9
37.27
33.91
30.37
27.28
25.06
23.62
22.17
19.39
13.87
4.6
-8.54
-24.7
-42.33
-59.51
-74.31
-85.14
-90.89
-91.28
-87
-79.78
-71.87
-65.31
-61.03
-58.52
-56.15
-52.15
-45.54
-36.64
-26.65
-16.89
-7.95
0.53
9.5
19.83
31.72
44.63
57.46
69.08
78.68
85.83
90.4
92.34
91.6
88.16
82.15
73.94
64.21
53.83
43.66
34.38
26.27
19.27
13.06
7.26
1.57
-4.12
-9.65
-14.61
-18.54
-21.06
-22.19
-22.4
-22.48
-23.2
-24.91
-27.41
-29.96
-31.76
-32.35
-31.83
-30.79
-30.04
-30.16
-31.28
-33.07
-34.82
-35.74
-35.23
-33.17
-29.92
-26.22
-22.91
-20.52
-19.12
-18.43
-18.03
-17.75
-17.71
-18.24
-19.62
-21.86
-24.74
-27.92
-31.16
-34.21
-36.73
-38.14
-37.79
-35.24
-30.77
-25.35
-20.4
-17.11
-15.86
-16.11
-16.75
-16.72
-15.58
-13.69
-11.9
-11.08
-11.74
-13.95
-17.45
-21.92
-27.13
-32.91
-39
-44.92
-49.88
-52.99
-53.52
-51.23
-46.63
-40.91
-35.71
-32.54
-32.26
-34.9
-39.71
-45.6
-51.68
-57.52
-63.03
-68.18
-72.53
-75.24
-75.27
-71.83
-64.8
-54.78
-42.8
-29.9
-16.88
-4.14
8.01
19.32
29.37
37.7
43.93
47.74
48.88
47.12
42.36
34.92
25.75
16.4
8.66
4.04
3.17
5.7
10.41
15.81
20.55
23.85
25.62
26.27
26.57
27.23
28.65
30.74
32.92
34.42
34.62
33.41
31.17
28.63
26.35
24.48
22.77
20.77
18.2
15.17
12.12
9.45
7.37
5.76
4.32
2.83
1.38
0.25
-0.22
0.2
1.48
3.42
5.78
8.26
10.49
11.92
11.88
9.81
5.63
-0.07
-6.12
-11.28
-14.9
-17.42
-20.22
-24.95
-32.69
-43.26
-55.3
-66.77
-76
-82.36
-86.47
-89.71
-93.37
-97.86
-102.48
-105.78
-106.35
-103.68
-98.48
-92.43
-87.49
-85.04
-85.53
-88.74
-94.29
-102.2
-112.82
-126.45
-142.76
-160.71
-178.88
-196.07
-211.69
-225.68
-238.22
-249.43
-259.4
-268.7
-278.84
-292.24
-311.35
-337.11
-367.52
-397.4
-419.54
-427.03
-415.59
-385.26
-340.48
-288.81
-238.63
-196.64
-166.08
-146.04
-132.17
-118.47
-99.43
-71.77
-35.19
8.07
54.58
101.18
145.87
187.81
226.82
262.7
295.05
323.51
348.07
369.37
388.81
408.17
429.06
452.34
477.76
503.84
528.33
549.05
564.38
573.13
573.67
563.42
539.62
501.13
450.37
393.66
339.59
295.53
264.89
245.64
231.7
216.3
195.18
167.98
137.36
107.2
80.72
60.89
49.33
46.55
51.85
63.42
78.57
93.97
106.98
115.71
121.68
126.96
133.17
140.86
149.83
159.77
170.21
181.67
194.35
211.26
233.78
260.78
288.85
313.67
332.04
341.77
343.47
338.22
331.43
327.08
326.32
327.39
326.68
320.8
306.44
283.05
223.79
118.11
-25.71
-182.46
-323.3
-429.73
-491.09
-518.53
-523.86
-516.97
-501.1
-478.52
-453.3
-429.74
-411.02
-396.71
-384.18
-367.07
-341.45
-305.25
-261.63
-217.16
-176.02
-141.48
-114.88
-96.72
-85.41
-79.47
-77.55
-77.24
-76.51
-74.34
-71.2
-68
-66.05
-65.56
-66.63
-68.05
-68.06
-65.31
-59.24
-50.65
-40.9
-31.66
-23.92
-18.27
-14.44
-11.51
-8.71
-5.69
-2.63
0.28
3.25
7.08
12.6
20.18
29.72
40.52
51.55
61.83
70.75
78.07
83.75
87.81
90.36
91.82
92.91
94.48
97.15
100.97
105.28
108.74
109.65
106.31
97.54
83.04
63.57
40.88
17.41
-4.41
-22.78
-36.91
-47.09
-54.29
-59.76
-64.42
-68.77
-72.86
-76.56
-79.77
-82.54
-84.94
-86.99
-88.53
-89.28
-89
-87.67
-85.44
-82.64
-79.56
-76.35
-72.98
-69.29
-65.12
-60.43
-55.31
-50.05
-45
-40.47
-36.66
-33.56
-31.04
-28.88
-26.91
-25.04
-23.26
-21.53
-19.75
-17.69
-15.19
-12.2
-8.85
-5.41
-2.1
0.92
3.67
6.18
8.48
10.53
12.17
13.25
13.57
13.02
11.57
9.35
6.65
3.81
1.16
-1.12
-3.03
-4.69
-6.16
-7.4
-8.28
-8.62
-8.37
-7.65
-6.68
-5.61
-4.52
-3.3
-1.77
0.16
2.45
4.93
7.34
9.44
11.07
12.19
12.9
13.31
13.55
13.65
13.55
13.11
12.24
10.96
9.4
7.8
6.38
5.29
4.53
3.99
3.51
2.93
2.17
1.21
0.09
-1.12
-2.29
-3.32
-4.1
-4.58
-4.8
-4.86
-4.93
-5.18
-5.79
-6.84
-8.34
-10.21
-12.24
-14.27
-16.11
-17.69
-18.98
-19.98
-20.67
-20.98
-20.88
-20.41
-19.73
-19.03
-18.46
-18.02
-17.6
-17.02
-16.22
-15.24
-14.21
-13.23
-12.29
-11.28
-10.11
-8.78
-7.37
-6
-4.72
-3.47
-2.2
-0.92
0.22
1.01
1.26
0.98
0.41
-0.15
-0.46
-0.46
-0.29
-0.22
-0.43
-0.98
-1.79
-2.71
-3.6
-4.37
-4.95
-5.29
-5.29
-4.9
-4.07
-2.86
-1.39
0.2
1.83
3.46
5.13
6.81
8.45
9.85
10.84
11.24
11.07
10.46
9.68
8.94
8.4
8.05
7.79
7.47
6.99
6.34
5.53
4.69
3.9
3.24
2.71
2.27
1.83
1.37
0.9
0.47
0.13
-0.14
-0.36
-0.57
-0.73
-0.79
-0.67
-0.39
-0.07
0.14
0.14
-0.05
-0.26
-0.27
0.03
0.63
1.37
2.02
2.42
2.5
2.29
1.87
1.3
0.62
-0.1
-0.82
-1.46
-1.97
-2.34
-2.55
-2.65
-2.64
-2.57
-2.47
-2.41
-2.48
-2.78
-3.35
-4.14
-5.08
-6.03
-6.84
-7.43
-7.77
-7.85
-7.72
-7.45
-7.05
-6.52
-5.81
-4.88
-3.71
-2.36
-0.98
0.33
1.41
2.23
2.74
2.98
2.99
2.88
2.72
2.65
2.7
2.85
2.98
2.97
2.76
2.36
1.82
1.2
0.55
-0.13
-0.84
-1.57
-2.36
-3.23
-4.23
-5.35
-6.5
-7.5
-8.11
-8.18
-7.64
-6.65
-5.4
-4.07
-2.79
-1.54
-0.29
1
2.27
3.46
4.47
5.25
5.85
6.31
6.7
7.06
7.36
7.56
7.63
7.55
7.33
6.99
6.52
5.93
5.21
4.4
3.56
2.75
1.96
1.14
0.22
-0.82
-1.95
-3.06
-4.02
-4.71
-5.09
-5.15
-4.91
-4.44
-3.8
-3.09
-2.38
-1.73
-1.15
-0.61
-0.06
0.51
1.08
1.61
2.03
2.28
2.33
2.19
1.9
1.54
1.23
1.08
1.19
1.54
2.08
2.69
3.23
3.61
3.77
3.72
3.48
3.05
2.42
1.52
0.37
-0.99
-2.42
-3.78
-4.94
-5.89
-6.69
-7.5
-8.39
-9.36
-10.25
-10.85
-10.99
-10.59
-9.75
-8.62
-7.38
-6.12
-4.84
-3.53
-2.17
-0.88
0.2
0.89
1.11
0.89
0.38
-0.2
-0.68
-1.02
-1.29
-1.63
-2.13
-2.74
-3.19
-3.12
-2.16
-0.09
3.02
6.79
10.66
13.98
16.25
17.22
16.93
15.67
13.84
11.88
10.09
8.69
7.74
7.24
7.09
7.08
6.98
6.53
5.66
4.44
3.19
2.29
2.06
2.7
4.18
6.33
8.82
11.29
13.38
14.75
15.18
14.62
13.16
11.03
8.48
5.76
3.06
0.51
-1.75
-3.6
-4.92
-5.62
-5.71
-5.3
-4.55
-3.58
-2.52
-1.4
-0.26
0.84
1.78
2.4
2.59
2.27
1.52
0.49
-0.62
-1.7
-2.69
-3.67
-4.74
-5.97
-7.37
-8.85
-10.25
-11.39
-12.11
-12.29
-11.9
-10.94
-9.45
-7.52
-5.32
-3.03
-0.85
1.11
2.85
4.46
6
7.47
8.73
9.56
9.75
9.18
7.82
5.79
3.29
0.57
-2.07
-4.36
-6.13
-7.32
-8.02
-8.38
-8.54
-8.57
-8.5
-8.29
-7.99
-7.65
-7.38
-7.26
-7.31
-7.52
-7.84
-8.27
-8.8
-9.44
-10.18
-10.93
-11.55
-11.86
-11.7
-11
-9.82
-8.31
-6.64
-4.95
-3.3
-1.68
-0.06
1.56
3.17
4.75
6.28
7.7
8.97
9.94
10.47
10.46
9.86
8.78
7.45
6.11
4.98
4.13
3.47
2.8
1.98
0.93
-0.26
-1.37
-2.19
-2.6
-2.67
-2.59
-2.61
-2.88
-3.44
-4.15
-4.85
-5.4
-5.75
-5.93
-5.96
-5.87
-5.61
-5.18
-4.51
-3.61
-2.51
-1.27
0.03
1.26
2.3
3.05
3.49
3.71
3.85
4.03
4.29
4.56
4.74
4.71
4.46
3.99
3.32
2.46
1.41
0.15
-1.27
-2.81
-4.42
-6.04
-7.6
-9.01
-10.16
-10.99
-11.52
-11.92
-12.42
-13.23
-14.4
-15.83
-17.31
-18.53
-19.22
-19.16
-18.2
-16.22
-13.13
-8.83
-3.17
4.05
13.05
23.99
36.79
51.05
66.06
80.89
94.66
106.7
116.59
124.18
129.53
132.82
134.3
134.03
131.79
127.01
119.04
107.48
92.54
75.21
56.95
39.19
22.81
7.95
-5.9
-19.32
-32.57
-45.37
-57.05
-66.96
-74.76
-80.53
-84.6
-87.34
-88.9
-89.24
-88.23
-85.84
-82.33
-78.18
-73.95
-70.08
-66.73
-63.65
-60.36
-56.2
-50.64
-43.48
-34.97
-25.72
-16.62
-8.45
-1.7
3.53
7.4
10.13
11.87
12.69
12.66
12
11.05
10.2
9.7
9.56
9.57
9.47
9.05
8.22
6.94
5.08
2.47
-1.07
-5.49
-10.48
-15.49
-19.93
-23.47
-26.08
-28.04
-29.66
-31.06
-32.06
-32.22
-31.1
-28.49
-24.51
-19.62
-14.49
-9.75
-5.91
-3.16
-1.38
-0.17
1.08
3.01
6.03
10.15
14.88
19.36
22.69
24.21
23.81
21.88
19.15
16.34
13.98
12.27
11.19
10.6
10.43
10.58
10.95
11.28
11.19
10.33
8.51
5.9
3.02
0.45
-1.36
-2.44
-3.22
-4.34
-6.27
-9.1
-12.48
-15.82
-18.59
-20.52
-21.56
-21.84
-21.47
-20.53
-19.07
-17.19
-15.1
-12.98
-10.96
-9.01
-7
-4.82
-2.47
-0.13
1.9
3.38
4.17
4.36
4.19
3.92
3.74
3.74
3.85
3.97
3.97
3.74
3.25
2.52
1.69
0.93
0.45
0.33
0.52
0.85
1.09
1.07
0.71
0.06
-0.78
-1.66
-2.5
-3.15
-3.52
-3.53
-3.14
-2.46
-1.66
-0.94
-0.41
-0.01
0.4
1.01
1.91
3.03
4.2
5.18
5.81
6.04
5.97
5.73
5.47
5.27
5.18
5.15
5.11
4.96
4.59
3.9
2.85
1.49
-0.06
-1.65
-3.16
-4.54
-5.86
-7.25
-8.77
-10.37
-11.83
-12.9
-13.38
-13.21
-12.55
-11.64
-10.73
-9.96
-9.38
-8.92
-8.51
-8.06
-7.5
-6.75
-5.8
-4.69
-3.56
-2.58
-1.88
-1.49
-1.31
-1.2
-1.08
-0.91
-0.72
-0.55
-0.39
-0.19
0.07
0.36
0.57
0.58
0.27
-0.38
-1.32
-2.46
-3.69
-4.9
-6
-6.9
-7.53
-7.79
-7.65
-7.08
-6.15
-4.95
-3.66
-2.4
-1.25
-0.24
0.65
1.45
2.19
2.84
3.37
3.74
3.97
4.1
4.16
4.2
4.27
4.43
4.72
5.08
5.41
5.53
5.33
4.81
4.09
3.34
2.71
2.24
1.87
1.51
1.08
0.56
-0.04
-0.74
-1.59
-2.64
-3.85
-5.08
-6.12
-6.79
-7.02
-6.84
-6.34
-5.62
-4.72
-3.66
-2.46
-1.19
0.07
1.27
2.38
3.45
4.55
5.66
6.71
7.55
8.04
8.19
8.08
7.9
7.83
7.91
8.08
8.16
7.96
7.44
6.69
5.93
5.31
4.88
4.51
4
3.22
2.21
1.13
0.2
-0.5
-1.03
-1.57
-2.29
-3.26
-4.44
-5.73
-7.02
-8.29
-9.46
-10.43
-11.03
-11.14
-10.71
-9.85
-8.76
-7.58
-6.34
-4.94
-3.24
-1.19
1.09
3.33
5.22
6.54
7.24
7.48
7.47
7.44
7.55
7.83
8.26
8.7
9
9.05
8.79
8.26
7.61
6.98
6.51
6.21
5.99
5.7
5.2
4.45
3.54
2.64
1.92
1.41
1.02
0.58
-0.06
-0.97
-2.08
-3.23
-4.25
-5.07
-5.76
-6.48
-7.36
-8.41
-9.48
-10.35
-10.78
-10.65
-9.96
-8.84
-7.48
-6.05
-4.69
-3.48
-2.44
-1.51
-0.64
0.21
1.04
1.82
2.47
2.95
3.26
3.46
3.58
3.64
3.67
3.68
3.73
3.9
4.21
4.6
4.91
5.01
4.8
4.32
3.71
3.13
2.71
2.54
2.65
2.97
3.41
3.84
4.16
4.33
4.39
4.37
4.32
4.2
3.86
3.2
2.1
0.61
-1.16
-3.04
-4.85
-6.47
-7.76
-8.61
-8.9
-8.59
-7.72
-6.43
-4.95
-3.49
-2.19
-1.08
-0.1
