39.37
39.99
40.24
40.05
39.52
38.88
38.41
38.25
38.35
38.44
38.17
37.2
35.28
32.4
28.69
24.43
19.98
15.57
11.27
6.96
2.39
-2.65
-8.14
-13.79
-19.14
-23.77
-27.48
-30.48
-33.27
-36.57
-40.91
-46.56
-53.26
-60.29
-66.52
-70.6
-71.25
-67.6
-59.45
-47.48
-33.08
-18.06
-4.18
7.28
15.82
21.64
25.44
28
30.01
31.89
33.82
35.82
37.81
39.66
41.18
42.23
42.73
42.71
42.28
41.63
40.88
40.12
39.31
38.35
37.15
35.56
33.45
30.69
27.21
23.09
18.59
14.14
10.18
6.96
4.41
2.15
-0.32
-3.39
-7.18
-11.49
-15.9
-20.05
-23.73
-26.96
-29.9
-32.84
-36.09
-39.99
-44.8
-50.59
-57.05
-63.28
-67.9
-69.33
-66.35
-58.56
-46.66
-32.34
-17.66
-4.51
6.02
13.68
18.92
22.49
25.01
26.88
28.26
29.26
29.97
30.54
31.09
31.65
32.15
32.44
32.36
31.85
30.95
29.82
28.69
27.79
27.21
26.86
26.43
25.54
23.84
21.24
17.92
14.32
10.87
7.87
5.33
3.01
0.57
-2.28
-5.62
-9.39
-13.3
-17.07
-20.43
-23.33
-25.89
-28.4
-31.3
-34.98
-39.66
-45.25
-51.25
-56.72
-60.46
-61.24
-58.19
-51.1
-40.6
-28.03
-15.09
-3.33
6.22
13.19
17.78
20.49
21.87
22.39
22.38
22.1
21.74
21.47
21.38
21.52
21.88
22.42
23.1
23.8
24.43
24.86
25
24.76
24.02
22.68
20.66
18
14.93
11.76
8.78
6.12
3.67
1.11
-1.86
-5.4
-9.36
-13.39
-17.07
-20.2
-22.82
-25.31
-28.2
-31.98
-36.87
-42.63
-48.52
-53.35
-55.76
-54.6
-49.34
-40.27
-28.52
-15.74
-3.64
6.47
13.94
18.83
21.61
22.97
23.53
23.67
23.66
23.62
23.65
23.85
24.28
24.89
25.56
26.09
26.32
26.2
25.83
25.41
25.1
24.93
24.73
24.15
22.85
20.62
17.56
13.97
10.29
6.87
3.82
0.97
-1.99
-5.35
-9.21
-13.39
-17.52
-21.22
-24.25
-26.69
-28.85
-31.23
-34.29
-38.36
-43.49
-49.32
-55.13
-59.78
-61.96
-60.52
-54.86
-45.26
-32.91
-19.6
-7.15
3.07
10.54
15.44
18.45
20.31
21.51
22.33
22.83
23.12
23.35
23.76
24.5
25.58
26.78
27.82
28.42
28.49
28.15
27.68
27.31
27.13
26.98
26.53
25.38
23.31
20.35
16.79
13.05
9.53
6.47
3.84
1.4
-1.12
-3.98
-7.28
-10.98
-14.91
-18.82
-22.45
-25.62
-28.29
-30.63
-33.01
-35.88
-39.64
-44.44
-50.01
-55.64
-60.2
-62.38
-61.02
-55.51
-46.04
-33.69
-20.16
-7.3
3.43
11.27
16.22
18.85
19.91
20.12
20.06
20.06
20.37
21.05
22.02
23.09
24.02
24.62
24.77
24.55
24.07
23.54
23.12
22.9
22.86
22.87
22.69
21.99
20.51
18.11
14.91
11.21
7.48
4.16
1.47
-0.65
-2.54
-4.62
-7.21
-10.41
-14
-17.62
-20.91
-23.7
-26.08
-28.34
-30.89
-34.06
-38.05
-42.8
-47.96
-52.81
-56.34
-57.49
-55.36
-49.55
-40.42
-29.03
-16.86
-5.43
4.11
11.16
15.73
18.17
19.07
19.05
18.61
18.11
17.76
17.61
17.63
17.79
18.1
18.6
19.28
20.1
20.89
21.47
21.68
21.48
20.84
19.77
18.21
16.08
13.42
10.32
7.05
3.78
0.59
-2.57
-5.85
-9.32
-12.99
-16.7
-20.3
-23.73
-27.09
-30.6
-34.59
-39.27
-44.62
-50.26
-55.34
-58.71
-59.16
-55.76
-48.26
-37.3
-24.24
-10.83
1.29
11.02
17.96
22.31
24.66
25.67
25.91
25.78
25.54
25.38
25.41
25.65
26.07
26.57
27.03
27.41
27.67
27.87
27.96
27.9
27.5
26.52
24.79
22.23
18.98
15.26
11.36
7.47
3.65
-0.19
-4.16
-8.31
-12.6
-16.84
-20.85
-24.51
-27.9
-31.27
-34.99
-39.45
-44.83
-50.96
-57.22
-62.54
-65.64
-65.32
-60.9
-52.44
-40.82
-27.51
-14.16
-2.19
7.58
14.89
19.96
23.29
25.37
26.71
27.7
28.65
29.82
31.25
32.85
34.38
35.55
36.2
36.34
36.09
35.64
35.07
34.38
33.43
32.03
30.07
27.51
24.42
20.96
17.28
13.49
9.63
5.65
1.52
-2.77
-7.17
-11.56
-15.79
-19.75
-23.43
-26.94
-30.56
-34.57
-39.29
-44.85
-51.15
-57.69
-63.53
-67.4
-67.98
-64.28
-56.04
-43.92
-29.42
-14.44
-0.75
10.41
18.62
24.13
27.58
29.77
31.31
32.62
33.91
35.27
36.68
38.09
39.36
40.36
40.96
41.12
40.94
40.56
40.18
39.82
39.4
38.64
37.25
35.02
31.96
28.26
24.25
20.25
16.52
13.1
9.82
6.39
2.48
-2.12
-7.35
-12.85
-18.13
-22.72
-26.46
-29.54
-32.49
-35.92
-40.3
-45.77
-52.01
-58.27
-63.42
-66.18
-65.35
-60.22
-50.84
-38.12
-23.69
-9.45
2.95
12.5
19.07
23.16
25.57
27.06
28.13
28.98
29.66
30.22
30.74
31.3
31.99
32.78
33.6
34.31
34.8
34.95
34.75
34.19
33.27
32
30.32
28.15
25.42
22.08
18.16
13.78
9.08
4.24
-0.61
-5.36
-9.95
-14.29
-18.33
-22.05
-25.59
-29.2
-33.24
-37.99
-43.51
-49.43
-54.89
-58.61
-59.23
-55.76
-47.96
-36.55
-22.99
-9.14
3.34
13.41
20.76
25.72
28.92
30.99
32.35
33.19
33.6
33.7
33.66
33.71
33.99
34.48
35.03
35.39
35.39
34.98
34.21
33.18
31.91
30.3
28.17
25.33
21.73
17.47
12.8
8.02
3.35
-1.1
-5.4
-9.67
-14.04
-18.49
-22.9
-27.1
-31.06
-35.02
-39.38
-44.59
-50.79
-57.55
-63.77
-67.93
-68.47
-64.36
-55.54
-42.98
-28.4
-13.79
-0.83
9.45
16.79
21.62
24.73
27
29.16
31.67
34.71
38.14
41.65
44.76
47.05
48.19
48.08
46.85
44.87
42.59
40.42
38.58
37.05
35.57
33.83
31.54
28.55
24.89
20.79
16.47
12.19
8.09
4.16
0.32
-3.58
-7.67
-12.01
-16.57
-21.17
-25.59
-29.63
-33.24
-36.61
-40.21
-44.6
-50.23
-57.09
-64.45
-70.97
-74.87
-74.58
-69.22
-58.97
-45.07
-29.48
-14.27
-1.1
9.18
16.55
21.57
25.1
27.9
30.46
32.93
35.25
37.3
39.03
40.47
41.66
42.67
43.47
43.96
44.05
43.76
43.22
42.58
41.93
41.17
40.03
38.16
35.3
31.38
26.63
21.45
16.29
11.53
7.32
3.62
0.27
-2.99
-6.39
-10.11
-14.23
-18.65
-23.17
-27.55
-31.61
-35.29
-38.84
-42.65
-47.19
-52.82
-59.52
-66.83
-73.77
-79.04
-81.31
-79.61
-73.66
-63.99
-51.8
-38.59
-25.75
-14.26
-4.63
3.03
8.85
13.07
15.97
17.9
19.26
20.36
21.38
22.3
22.91
23.03
22.63
21.91
21.34
21.47
22.93
26.24
31.83
39.76
49.73
60.93
72.25
82.52
90.93
97.23
101.71
104.98
107.57
109.76
111.52
112.72
113.32
113.45
113.31
112.96
112.19
110.52
107.29
101.97
94.3
84.46
73.06
61.02
49.43
39.35
31.65
26.74
24.57
24.6
26.02
27.93
29.61
30.55
30.48
29.17
26.41
21.96
15.73
7.91
-0.87
-9.7
-17.53
-23.57
-27.41
-29.19
-29.43
-28.86
-28.2
-27.98
-28.52
-30.02
-32.59
-36.33
-41.28
-47.37
-54.33
-61.65
-68.7
-74.74
-79.22
-81.81
-82.51
-81.68
-79.84
-77.62
-75.53
-73.87
-72.69
-71.89
-71.24
-70.6
-69.89
-69.15
-68.51
-68.12
-68.14
-68.7
-69.82
-71.4
-73.08
-74.27
-74.16
-71.99
-67.27
-59.98
-50.65
-40.27
-29.97
-20.7
-13.03
-7.04
-2.41
1.32
4.55
7.47
10.11
12.35
14.14
15.51
16.58
17.47
18.21
18.75
19.01
18.93
18.52
17.87
17.09
16.26
15.39
14.42
13.25
11.74
9.8
7.38
4.6
1.67
-1.14
-3.63
-5.82
-7.88
-10.05
-12.52
-15.24
-18.01
-20.54
-22.68
-24.48
-26.18
-28.1
-30.55
-33.68
-37.52
-41.93
-46.54
-50.7
-53.5
-53.94
-51.21
-45.09
-36.08
-25.34
-14.38
-4.56
3.25
8.89
12.74
15.45
17.61
19.51
21.19
22.52
23.43
23.99
24.37
24.7
25.01
25.21
25.16
24.82
24.3
23.84
23.65
23.78
24.04
24.09
23.6
22.37
20.44
17.97
15.26
12.53
9.95
7.57
5.34
3.14
0.77
-1.95
-5.11
-8.66
-12.39
-15.95
-19.06
-21.59
-23.72
-25.84
-28.46
-31.97
-36.41
-41.42
-46.22
-49.76
-50.98
-49.05
-43.67
-35.25
-24.82
-13.82
-3.7
4.51
10.38
14.01
15.94
16.75
16.96
16.86
16.65
16.41
16.21
16.08
16.05
16.12
16.32
16.65
17.04
17.35
17.43
17.16
16.51
15.6
14.55
13.43
12.14
10.5
8.26
5.33
1.77
-2.17
-6.13
-9.84
-13.12
-15.99
-18.58
-21.14
-23.96
-27.32
-31.42
-36.29
-41.56
-46.47
-49.89
-50.6
-47.68
-40.96
-31.1
-19.53
-7.94
2.21
10.1
15.63
19.24
21.53
22.99
23.85
24.15
23.91
23.26
22.48
21.94
21.9
22.45
23.41
24.41
25.1
25.25
24.85
24.09
23.23
22.37
21.42
20.03
17.82
14.5
10.14
5.09
-0.09
-4.91
-9.13
-12.83
-16.3
-19.87
-23.76
-28.06
-32.84
-38.14
-43.97
-50.03
-55.52
-59.17
-59.57
-55.69
-47.44
-35.79
-22.52
-9.61
1.39
9.78
15.62
19.48
21.98
23.57
24.49
24.91
25.04
25.19
25.64
26.47
27.57
28.62
29.29
29.44
29.13
28.61
28.16
27.94
27.89
27.75
27.17
25.86
23.7
20.79
17.38
13.8
10.33
7.06
3.9
0.62
-2.98
-7.01
-11.36
-15.75
-19.84
-23.36
-26.24
-28.69
-31.15
-34.19
-38.29
-43.66
-50.03
-56.5
-61.68
-64.01
-62.18
-55.65
-44.9
-31.34
-16.95
-3.64
7.2
15
19.97
22.83
24.47
25.65
26.86
28.23
29.69
31.02
32.05
32.72
33.11
33.35
33.55
33.76
34
34.27
34.59
34.96
35.29
35.38
34.97
33.83
31.93
29.38
26.44
23.33
20.2
17.07
13.9
10.73
7.63
4.73
2.12
-0.24
-2.52
-4.93
-7.66
-10.73
-14.03
-17.37
-20.57
-23.61
-26.61
-29.8
-33.5
-37.93
-43.2
-49.21
-55.5
-61.2
-65.08
-65.8
-62.35
-54.45
-42.86
-29.13
-15.25
-2.96
6.68
13.44
17.73
20.22
21.55
22.15
22.33
22.36
22.49
22.97
23.91
25.25
26.78
28.18
29.23
29.81
29.98
29.91
29.76
29.62
29.46
29.08
28.18
26.54
24.09
20.98
17.54
14.12
10.99
8.18
5.5
2.69
-0.54
-4.24
-8.32
-12.44
-16.23
-19.41
-21.95
-24.11
-26.39
-29.35
-33.4
-38.62
-44.6
-50.46
-55.02
-56.95
-55.21
-49.31
-39.52
-26.99
-13.38
-0.47
10.31
18.21
23.27
26.08
27.47
28.15
28.61
28.98
29.29
29.51
29.71
30.03
30.56
31.29
32.1
32.78
33.15
33.16
32.89
32.48
32.05
31.57
30.86
29.72
28
25.68
22.96
20.08
17.25
14.56
11.94
9.3
6.56
3.66
0.62
-2.52
-5.82
-9.29
-12.94
-16.64
-20.19
-23.4
-26.16
-28.61
-31.09
-34.06
-37.94
-42.91
-48.75
-54.76
-59.78
-62.45
-61.55
-56.43
-47.23
-35.01
-21.41
-8.23
3.11
11.85
17.92
21.75
23.91
24.98
25.37
25.43
25.44
25.63
26.13
26.91
27.83
28.69
29.38
29.85
30.2
30.55
31
31.55
32.07
32.35
32.11
31.15
29.4
27.04
24.36
21.66
19.13
16.72
14.25
11.5
8.45
5.26
2.2
-0.51
-2.82
-4.92
-7.09
-9.54
-12.34
-15.36
-18.41
-21.33
-24.03
-26.58
-29.11
-31.79
-34.82
-38.39
-42.65
-47.58
-52.84
-57.62
-60.74
-60.9
-57.09
-49.11
-37.74
-24.58
-11.55
-0.3
8.23
13.88
17.14
18.7
19.26
19.31
19.22
19.23
19.51
20.13
21.1
22.35
23.81
25.38
26.98
28.5
29.82
30.85
31.55
31.93
31.96
31.62
30.83
29.49
27.56
25.09
22.17
18.96
15.63
12.34
9.2
6.28
3.57
0.96
-1.74
-4.67
-7.94
-11.46
-15.05
-18.46
-21.55
-24.26
-26.67
-28.96
-31.35
-34.09
-37.41
-41.43
-45.99
-50.57
-54.21
-55.73
-54.05
-48.61
-39.69
-28.34
-16.14
-4.69
4.83
11.9
16.58
19.31
20.64
21.02
20.78
20.17
19.44
18.83
18.54
18.69
19.22
19.99
20.8
21.51
22.08
22.6
23.15
23.73
24.17
24.17
23.39
21.64
19
15.82
12.54
9.5
6.82
4.32
1.7
-1.36
-4.94
-8.92
-13.04
-16.99
-20.61
-23.92
-27.1
-30.41
-34.16
-38.58
-43.77
-49.58
-55.48
-60.51
-63.41
-62.95
-58.35
-49.66
-37.84
-24.5
-11.45
-0.08
8.81
15.11
19.18
21.55
22.71
23.06
22.94
22.65
22.47
22.61
23.16
24.07
25.17
26.23
27.07
27.59
27.82
27.89
27.94
28.06
28.19
28.1
27.46
25.96
23.45
20.07
16.16
12.22
8.62
5.42
2.39
-0.91
-4.8
-9.35
-14.24
-18.94
-23.01
-26.24
-28.89
-31.46
-34.57
-38.7
-44.05
-50.38
-57
-62.84
-66.54
-66.83
-62.87
-54.55
-42.6
-28.51
-14.11
-1.1
9.3
16.63
21.13
23.53
24.69
25.33
25.88
26.54
27.35
28.31
29.43
30.72
32.04
33.19
33.94
34.14
33.88
33.44
33.16
33.26
33.68
34.06
33.91
32.81
30.58
27.4
23.7
19.92
16.4
13.16
9.95
6.46
2.41
-2.23
-7.26
-12.31
-17
-21.04
-24.33
-27.04
-29.59
-32.54
-36.47
-41.77
-48.42
-55.81
-62.79
-67.82
-69.37
-66.4
-58.67
-46.93
-32.71
-17.92
-4.31
6.88
15.16
20.69
24.05
25.93
26.89
27.38
27.66
27.96
28.47
29.31
30.51
31.89
33.23
34.25
34.82
34.95
34.84
34.69
34.58
34.37
33.76
32.43
30.27
27.39
24.14
20.89
17.87
15.09
12.28
9.1
5.26
0.69
-4.42
-9.67
-14.61
-18.9
-22.42
-25.32
-28
-30.99
-34.87
-40
-46.39
-53.45
-59.99
-64.37
-64.95
-60.68
-51.51
-38.57
-23.82
-9.46
2.76
11.98
18.21
22.06
24.28
25.44
25.84
25.64
25.03
24.27
23.67
23.49
23.8
24.57
25.62
26.79
27.91
28.82
29.32
29.29
28.62
27.35
25.59
23.44
20.88
17.84
14.17
9.86
5.02
-0.08
-5.09
-9.81
-14.17
-18.29
-22.4
-26.73
-31.51
-36.9
-43
-49.65
-56.3
-61.94
-65.16
-64.57
-59.29
-49.35
-35.84
-20.59
-5.65
7.3
17.31
24.2
28.35
30.45
31.2
31.24
31.12
31.21
31.72
32.61
33.69
34.67
35.33
35.57
35.47
35.16
34.82
34.54
34.32
33.99
33.34
32.09
30.08
27.28
23.86
20.13
16.34
12.63
8.87
4.82
0.28
-4.77
-10.1
-15.3
-19.98
-23.97
-27.43
-30.8
-34.71
-39.71
-46.13
-53.74
-61.66
-68.38
-72.07
-71.14
-64.75
-53.26
-38.19
-21.76
-6.27
6.59
16.07
22.33
26.13
28.42
30.02
31.45
32.95
34.52
36.08
37.51
38.75
39.76
40.51
40.98
41.14
41.01
40.69
40.3
39.96
39.65
39.23
38.44
37.03
34.82
31.77
28.01
23.78
19.4
15.21
11.47
8.26
5.42
2.61
-0.57
-4.4
-8.85
-13.59
-18.16
-22.14
-25.42
-28.2
-30.93
-34.16
-38.34
-43.69
-50.17
-57.34
-64.37
-69.99
-72.7
-71.14
-64.6
-53.37
-38.81
-22.97
-7.98
4.57
13.96
20.38
24.47
27.07
28.82
30.1
31.1
31.93
32.69
33.46
34.3
35.18
36.03
36.75
37.28
37.56
37.59
37.4
37.04
36.56
35.98
35.24
34.22
32.72
30.53
27.57
23.94
19.91
15.86
12.1
8.82
5.91
3.15
0.25
-3.04
-6.79
-10.88
-15.02
-18.89
-22.23
-25.01
-27.48
-30.1
-33.41
-37.91
-43.76
-50.72
-57.98
-64.23
-67.85
-67.38
-61.97
-51.79
-38.11
-22.95
-8.48
3.63
12.54
18.34
21.7
23.38
24
23.95
23.5
22.91
22.48
22.45
22.93
23.81
24.89
25.93
26.82
27.59
28.3
28.97
29.5
29.69
29.26
27.98
25.76
22.7
19.07
15.25
11.59
8.27
5.23
2.24
-1.01
-4.72
-8.81
-12.99
-16.91
-20.33
-23.34
-26.33
-29.81
-34.31
-40.02
-46.72
-53.66
-59.64
-63.22
-63.04
-58.26
-48.91
-35.97
-21.17
-6.53
6.21
15.98
22.6
26.55
28.65
29.67
30.13
30.29
30.24
30.03
29.76
29.61
29.68
29.99
30.45
30.85
31.03
30.94
30.68
30.38
30.18
30.04
29.75
29.03
27.58
25.26
22.1
18.34
14.35
10.54
7.2
4.41
1.98
-0.5
-3.52
-7.37
-12
-17.02
-21.84
-25.94
-29.1
-31.51
-33.67
-36.22
-39.73
-44.57
-50.71
-57.64
-64.29
-69.16
-70.66
-67.56
-59.5
-47.21
-32.32
-16.9
-2.84
8.62
16.98
22.44
25.57
27.09
27.72
27.97
28.21
28.6
29.09
29.58
29.97
30.24
30.46
30.67
30.88
31.1
31.28
31.42
31.47
31.37
31.01
30.24
28.96
27.17
24.92
22.34
19.52
16.55
13.48
10.35
7.19
4
0.79
-2.47
-5.77
-9.09
-12.39
-15.62
-18.78
-21.91
-25.07
-28.29
-31.55
-34.89
-38.44
-42.41
-47.07
-52.46
-58.19
-63.29
-66.38
-65.99
-61.17
-51.87
-39.07
-24.52
-10.19
2.28
11.99
18.76
23
25.33
26.37
26.58
26.29
25.8
25.37
25.25
25.59
26.43
27.62
28.86
29.84
30.37
30.43
30.2
29.92
29.72
29.57
29.24
28.41
26.84
24.47
21.48
18.15
14.79
11.61
8.71
6.07
3.59
1.09
-1.61
-4.7
-8.22
-12.07
-16.01
-19.78
-23.13
-26
-28.5
-30.99
-33.89
-37.66
-42.6
-48.64
-55.21
-61.18
-65.05
-65.33
-61.07
-52.26
-39.89
-25.71
-11.69
0.55
10.08
16.74
20.89
23.11
23.99
23.99
23.46
22.68
21.89
21.27
20.94
20.93
21.22
21.73
22.44
23.27
24.14
24.89
25.37
25.37
24.76
23.44
21.41
18.73
15.57
12.17
8.74
5.42
2.22
-1.02
-4.5
-8.37
-12.55
-16.82
-20.84
-24.38
-27.45
-30.35
-33.58
-37.7
-43.01
-49.39
-56.06
-61.69
-64.67
-63.56
-57.64
-47.25
-33.69
-18.9
-4.83
7.11
16.23
22.5
26.27
28.02
28.24
27.44
26.2
25.08
24.52
24.7
25.5
26.59
27.57
28.18
28.32
28.15
27.9
27.79
27.88
28.05
27.97
27.28
25.73
23.26
20.04
16.38
12.63
8.99
5.57
2.29
-1.03
-4.61
-8.62
-13.08
-17.9
-22.76
-27.34
-31.37
-34.84
-38.07
-41.58
-45.96
-51.49
-57.94
-64.39
-69.39
-71.36
-69.04
-61.92
-50.51
-36.22
-20.94
-6.57
5.45
14.45
20.46
24.02
25.91
26.85
27.35
27.76
28.24
28.86
29.65
30.58
31.59
32.58
33.44
34.05
34.37
34.46
34.42
34.35
34.28
34.09
33.52
32.29
30.18
27.14
23.37
19.24
15.15
11.37
8.04
5.02
2.11
-0.97
-4.41
-8.27
-12.45
-16.72
-20.82
-24.56
-27.95
-31.15
-34.52
-38.5
-43.46
-49.64
-56.88
-64.54
-71.42
-75.93
-76.49
-71.99
-62.33
-48.49
-32.38
-16.27
-2.08
9.05
16.88
21.86
24.78
26.38
27.22
27.66
27.96
28.36
29.04
30.08
31.44
32.96
34.4
35.61
36.48
37.04
37.38
37.6
37.75
37.75
37.37
36.31
34.31
31.31
27.47
23.2
18.98
15.21
11.97
9.1
6.21
2.9
-1.05
-5.58
-10.42
-15.19
-19.54
-23.27
-26.38
-29.09
-31.76
-34.84
-38.79
-43.89
-50.06
-56.65
-62.42
-65.78
-65.24
-59.96
-50.08
-36.83
-22.07
-7.83
4.32
13.54
19.76
23.45
25.3
26
26.05
25.83
25.55
25.36
25.33
25.53
25.98
26.65
27.49
28.41
29.32
30.15
30.83
31.26
31.3
30.76
29.45
27.26
24.26
20.68
16.85
13.04
9.31
5.51
1.31
-3.5
-8.92
-14.62
-20.12
-24.97
-28.98
-32.39
-35.73
-39.71
-44.92
-51.53
-59.08
-66.4
-71.76
-73.32
-69.79
-60.91
-47.63
-31.83
-15.75
-1.24
10.6
19.46
25.62
29.59
31.91
33.06
33.51
33.73
34.08
34.8
35.88
37.12
38.26
39.06
39.45
39.48
39.33
39.19
39.2
39.39
39.55
39.35
38.36
36.26
32.94
28.61
23.76
18.96
14.63
10.86
7.38
3.72
-0.57
-5.66
-11.33
-17.1
-22.43
-26.93
-30.54
-33.55
-36.54
-40.19
-45.12
-51.62
-59.44
-67.63
-74.6
-78.43
-77.38
-70.6
-58.43
-42.48
-25.1
-8.72
4.91
15.04
21.88
26.19
28.89
30.71
32.09
33.27
34.4
35.57
36.82
38.12
39.39
40.5
41.35
41.88
42.08
42.03
41.86
41.68
41.6
41.56
41.36
40.7
39.28
36.86
33.48
29.31
24.67
19.93
15.38
11.23
7.54
4.24
1.12
-2.11
-5.71
-9.82
-14.35
-19.02
-23.47
-27.4
-30.76
-33.78
-36.96
-40.92
-46.15
-52.85
-60.66
-68.63
-75.23
-78.76
-77.75
-71.46
-60.22
-45.36
-28.86
-12.8
1.17
12.15
20.06
25.35
28.73
30.78
31.9
32.29
32.13
31.66
31.2
31.06
31.41
32.22
33.22
34.07
34.54
34.6
34.42
34.26
34.25
34.31
34.11
33.23
31.4
28.56
24.98
21.08
17.3
13.91
10.91
8.06
4.98
1.36
-2.97
-7.92
-13.15
-18.22
-22.69
-26.36
-29.3
-31.87
-34.62
-38.09
-42.72
-48.62
-55.46
-62.33
-67.91
-70.59
-69.03
-62.56
-51.51
-37.23
-21.68
-6.92
5.51
14.85
21.16
25.02
27.21
28.34
28.82
28.86
28.62
28.33
28.27
28.64
29.45
30.55
31.62
32.42
32.87
33.09
33.32
33.67
34.06
34.16
33.51
31.76
28.78
24.77
20.18
15.54
11.27
7.47
3.96
0.32
-3.86
-8.76
-14.19
-19.65
-24.54
-28.46
-31.41
-33.89
-36.68
-40.63
-46.29
-53.62
-61.91
-69.79
-75.53
-77.41
-74.23
-65.71
-52.64
-36.71
-20.05
-4.68
7.99
17.35
23.55
27.22
29.21
30.25
30.87
31.36
31.84
32.31
32.8
33.38
34.12
35.05
36.1
37.09
37.83
38.21
38.27
38.15
38.01
37.83
37.39
36.34
34.33
31.23
27.22
22.71
18.22
14.14
10.58
7.4
4.25
0.75
-3.34
-8.05
-13.16
-18.32
-23.18
-27.44
-31.06
-34.18
-37.15
-40.52
-44.84
-50.55
-57.68
-65.72
-73.47
-79.27
-81.29
-78.19
-69.57
-56.19
-39.88
-22.9
-7.38
5.27
14.51
20.66
24.45
26.77
28.33
29.56
30.71
31.83
32.95
34.04
35.11
36.14
37.15
38.15
39.09
39.91
40.52
40.85
40.87
40.54
39.83
38.65
36.9
34.51
31.45
27.86
23.97
20.03
16.3
12.88
9.73
6.68
3.5
-0.06
-4.12
-8.68
-13.51
-18.28
-22.65
-26.45
-29.72
-32.78
-36.13
-40.27
-45.6
-52.2
-59.77
-67.5
-74.14
-78.17
-78.15
-73.18
-63.23
-49.33
-33.28
-17.22
-3.04
8.14
16.02
21.03
23.89
25.36
25.98
26.09
25.92
25.75
25.82
26.32
27.32
28.66
30.09
31.32
32.21
32.78
33.16
33.5
33.84
34.01
33.74
32.7
30.68
27.72
24.11
20.31
16.74
13.63
10.9
8.15
4.9
0.82
-4.08
-9.44
-14.71
-19.4
-23.36
-26.8
-30.23
-34.23
-39.33
-45.73
-53.22
-61.03
-67.82
-71.89
-71.62
-66.03
-55.22
-40.5
-24.04
-8.15
5.39
15.72
22.93
27.66
30.65
32.47
33.41
33.63
33.34
32.82
32.38
32.23
32.43
32.83
33.25
33.47
33.46
33.34
33.31
33.53
33.95
34.24
33.92
32.5
29.77
25.83
21.14
16.31
11.76
7.61
3.66
-0.48
-5.14
-10.38
-15.94
-21.36
-26.21
-30.28
-33.72
-36.98
-40.72
-45.57
-51.88
-59.5
-67.57
-74.59
-78.68
-78.07
-71.76
-59.95
-44.11
-26.52
-9.63
4.66
15.45
22.82
27.48
30.34
32.13
33.25
33.95
34.37
34.71
35.17
35.88
36.84
37.87
38.69
39.07
38.96
38.46
37.78
37.16
36.66
36.15
35.34
33.9
31.59
28.31
24.21
19.65
15.07
10.9
7.33
4.23
1.19
-2.3
-6.6
-11.7
-17.2
-22.43
-26.82
-30.11
-32.53
-34.75
-37.65
-42.01
-48.25
-56.15
-64.77
-72.48
-77.27
-77.3
-71.58
-60.35
-45.08
-28.11
-11.85
1.92
12.37
19.58
24.2
27.02
28.71
29.74
30.47
31.18
32.09
33.32
34.8
36.33
37.67
38.61
39.08
39.09
38.81
38.41
38.09
37.92
37.82
37.58
36.87
35.35
32.82
29.29
24.97
20.31
15.79
11.75
8.27
5.19
2.11
-1.33
-5.34
-9.82
-14.49
-18.94
-22.88
-26.22
-29.08
-31.78
-34.68
-38.2
-42.69
-48.38
-55.13
-62.29
-68.59
-72.33
-71.89
-66.27
-55.58
-41.16
-25.11
-9.73
3.25
12.96
19.46
23.37
25.48
26.44
26.66
26.4
25.9
25.43
25.26
25.55
26.27
27.26
28.26
29.09
29.71
30.2
30.67
31.13
31.43
31.21
30.13
27.93
24.67
20.69
16.47
12.45
8.81
5.41
1.92
-2
-6.49
-11.37
-16.26
-20.68
-24.39
-27.42
-30.12
-33.02
-36.71
-41.68
-48.09
-55.61
-63.23
-69.31
-72
-69.74
-61.97
-49.37
-33.77
-17.5
-2.75
9.14
17.76
23.53
27.2
29.5
30.97
31.92
32.56
33.03
33.48
33.97
34.51
35.05
35.52
35.86
36.04
36.06
35.95
35.76
35.5
35.17
34.66
33.78
32.32
30.11
27.09
23.38
19.25
15
10.91
7.17
3.78
0.61
-2.57
-5.99
-9.85
-14.15
-18.75
-23.3
-27.47
-31.04
-34.09
-36.99
-40.33
-44.74
-50.62
-57.89
-65.84
-73.1
-77.91
-78.53
-73.81
-63.69
-49.28
-32.6
-15.96
-1.35
10.11
18.21
23.43
26.58
28.42
29.51
30.19
30.74
31.37
32.3
33.63
35.29
37.06
38.59
39.57
39.86
39.55
38.88
38.13
37.51
37
36.41
35.48
33.98
31.75
28.83
25.32
21.42
17.35
13.3
9.43
5.88
2.67
-0.25
-3.07
-6.05
-9.44
-13.31
-17.54
-21.79
-25.7
-29.07
-31.99
-34.8
-37.97
-41.97
-47.04
-53.23
-60.26
-67.47
-73.74
-77.57
-77.41
-72.18
-61.78
-47.3
-30.77
-14.53
-0.52
10.23
17.64
22.31
25.07
26.61
27.39
27.7
27.79
27.9
28.29
29.05
30.15
31.36
32.39
33.04
33.31
33.33
33.32
33.47
33.79
34.13
34.17
33.54
31.99
29.37
25.76
21.46
16.95
12.72
9.13
6.24
3.77
1.18
-2
-6.01
-10.69
-15.55
-20.04
-23.78
-26.68
-29.05
-31.37
-34.23
-38.13
-43.33
-49.76
-56.9
-63.66
-68.53
-69.94
-66.67
-58.4
-45.82
-30.6
-14.82
-0.43
11.23
19.65
25.03
28
29.26
29.44
29
28.26
27.46
26.82
26.51
26.65
27.24
28.18
29.26
30.32
31.25
32.04
32.74
33.39
33.88
33.96
33.33
31.68
28.9
25.14
20.76
16.22
11.98
8.29
5.16
2.39
-0.4
-3.59
-7.43
-11.92
-16.85
-21.8
-26.39
-30.38
-33.75
-36.77
-39.89
-43.6
-48.35
-54.32
-61.2
-68.13
-73.67
-76.05
-73.77
-66.1
-53.48
-37.5
-20.49
-4.78
7.97
17.09
22.87
26.17
27.98
29.07
29.85
30.52
31.12
31.71
32.36
33.15
34.07
35.01
35.83
36.39
36.66
36.74
36.79
36.93
37.14
37.2
36.79
35.59
33.42
30.35
26.64
22.67
18.74
15.02
11.55
8.24
4.99
1.69
-1.8
-5.6
-9.8
-14.36
-19.07
-23.53
-27.4
-30.46
-32.92
-35.26
-38.17
-42.26
-47.84
-54.78
-62.44
-69.69
-75.02
-76.86
-73.96
-65.85
-53.11
-37.31
-20.64
-5.2
7.49
16.85
23.09
26.87
28.97
29.99
30.36
30.4
30.41
30.62
31.16
32.01
33.02
33.97
34.71
35.18
35.39
35.43
35.37
35.17
34.75
34.03
32.9
31.3
29.23
26.73
23.88
20.79
17.63
14.57
11.8
9.45
7.47
5.64
3.6
1.02
-2.31
-6.33
-10.76
-15.21
-19.33
-22.95
-26.13
-29.1
-32.25
-36.03
-40.74
-46.5
-53
-59.39
-64.37
-66.44
-64.35
-57.59
-46.64
-32.94
-18.47
-5.17
5.59
13.24
17.96
20.37
21.14
20.83
19.77
18.27
16.64
15.22
14.3
14
14.28
14.91
15.7
16.48
17.19
17.81
18.33
18.72
18.9
18.76
18.18
17
15.04
12.15
8.3
3.58
-1.7
-7.11
-12.23
-16.75
-20.55
-23.82
-26.95
-30.41
-34.64
-39.84
-45.85
-52.01
-57.3
-60.39
-60.08
-55.61
-46.95
-34.9
-20.91
-6.73
6
16.12
23.13
27.16
28.79
28.81
27.93
26.67
25.31
24.01
22.89
22.02
21.46
21.18
21.06
20.9
20.59
20.15
19.72
19.46
19.33
19.04
18.05
15.84
12.05
6.8
0.57
-5.86
-11.76
-16.76
-20.97
-24.97
-29.61
-35.63
-43.24
-51.92
-60.35
-66.66
-69.04
-66.22
-58.04
-45.45
-30.3
-14.72
-0.55
11.05
19.7
25.61
29.33
31.47
32.6
33.18
33.54
33.88
34.24
34.57
34.76
34.7
34.32
33.55
32.4
30.93
29.33
27.88
26.79
26.03
25.25
23.82
21.09
16.71
10.85
4.13
-2.58
-8.61
-13.67
-18.01
-22.22
-27.01
-32.99
-40.4
-48.97
-57.84
-65.58
-70.45
-70.83
-65.78
-55.46
-41.16
-24.98
-9.17
4.51
15.18
22.85
28.14
31.83
34.56
36.71
38.41
39.74
40.74
41.49
41.98
42.21
42.08
41.52
40.6
39.45
38.33
37.47
36.94
36.64
36.24
35.31
33.47
30.56
26.7
22.23
17.58
13.04
8.65
4.23
-0.49
-5.67
-11.16
-16.64
-21.72
-26.15
-30.03
-33.74
-37.87
-42.97
-49.41
-57.14
-65.54
-73.4
-79
-80.6
-76.92
-67.68
-53.75
-36.98
-19.62
-3.7
9.43
19.31
26.18
30.72
33.66
35.64
37.1
38.28
39.31
40.24
41.05
41.74
42.3
42.78
43.18
43.52
43.82
44.07
44.24
44.27
44.08
43.53
42.47
40.76
38.27
35.01
31.09
26.75
22.25
17.85
13.66
9.72
5.96
2.28
-1.41
-5.18
-9.12
-13.29
-17.67
-22.16
-26.55
-30.62
-34.26
-37.58
-40.91
-44.8
-49.79
-56.22
-63.88
-71.9
-78.79
-82.66
-81.8
-75.28
-63.34
-47.47
-29.94
-13.13
1.16
12.08
19.71
24.69
27.83
29.75
30.91
31.58
32.01
32.49
33.23
34.34
35.75
37.24
38.53
39.39
39.8
39.87
39.82
39.86
40.02
40.12
39.78
38.57
36.17
32.49
27.78
22.5
17.22
12.41
8.29
4.76
1.48
-1.95
-5.82
-10.15
-14.71
-19.14
-23.11
-26.48
-29.42
-32.33
-35.77
-40.3
-46.26
-53.62
-61.75
-69.4
-74.85
-76.33
-72.59
-63.34
-49.51
-32.96
-15.97
-0.59
11.83
20.85
26.81
30.41
32.5
33.75
34.57
35.16
35.59
35.87
36.05
36.27
36.66
37.33
38.27
39.35
40.36
41.1
41.42
41.24
40.58
39.46
37.91
35.93
33.51
30.63
27.27
23.47
19.35
15.09
10.95
7.16
3.83
0.9
-1.9
-4.91
-8.45
-12.65
-17.41
-22.38
-27.15
-31.36
-34.89
-37.89
-40.84
-44.33
-48.95
-54.96
-62.18
-69.77
-76.3
-80.01
-79.25
-72.99
-61.33
-45.52
-27.69
-10.21
4.9
16.52
24.46
29.25
31.75
32.87
33.33
33.56
33.79
34.14
34.55
34.99
35.41
35.81
36.22
36.67
37.17
37.69
38.22
38.71
39.08
39.2
38.85
37.85
36.1
33.67
30.7
27.41
23.94
20.38
16.76
13.15
9.6
6.17
2.87
-0.38
-3.71
-7.23
-10.99
-14.95
-19.01
-23.05
-26.96
-30.65
-34.05
-37.17
-40.12
-43.24
-46.98
-51.78
-57.78
-64.57
-71.03
-75.52
-76.3
-72.16
-62.83
-49.21
-33.09
-16.65
-1.84
10.05
18.54
23.85
26.65
27.77
27.98
27.85
27.74
27.8
28.03
28.4
28.88
29.5
30.28
31.19
32.12
32.92
33.48
33.76
33.77
33.54
33.07
32.27
30.98
29.06
26.42
23.1
19.28
15.27
11.4
7.88
4.76
1.84
-1.17
-4.58
-8.5
-12.85
-17.33
-21.63
-25.45
-28.69
-31.42
-33.89
-36.47
-39.56
-43.55
-48.64
-54.64
-60.85
-66.01
-68.53
-66.99
-60.6
-49.59
-35.27
-19.64
-4.88
7.38
16.35
22.07
25.14
26.31
26.22
25.33
23.98
22.5
21.21
20.4
20.19
20.55
21.3
22.23
23.16
24.07
24.95
25.84
26.67
27.24
27.28
26.44
24.53
21.59
17.89
13.91
10.1
6.72
3.73
0.8
-2.5
-6.53
-11.35
-16.7
-22.11
-27.06
-31.16
-34.37
-37
-39.7
-43.25
-48.22
-54.74
-62.11
-68.93
-73.31
-73.49
-68.37
-58
-43.6
-27.2
-11.04
3.01
13.87
21.31
25.76
27.94
28.64
28.53
28.09
27.68
27.55
27.84
28.57
29.61
30.76
31.8
32.58
33.03
33.22
33.27
33.32
33.4
33.42
33.11
32.15
30.23
27.22
23.23
18.62
13.84
9.3
5.21
1.49
-2.13
-5.96
-10.18
-14.77
-19.52
-24.1
-28.23
-31.8
-34.91
-37.9
-41.22
-45.4
-50.79
-57.45
-64.91
-72.08
-77.4
-79.14
-75.97
-67.41
-54.1
-37.68
-20.39
-4.42
8.68
18.25
24.5
28.18
30.18
31.25
31.87
32.3
32.68
33.12
33.66
34.3
34.99
35.67
36.25
36.75
37.19
37.6
37.94
38.13
38.03
37.51
36.47
34.82
32.56
29.72
26.42
22.78
18.95
15.09
11.26
7.55
3.96
0.44
-3.08
-6.74
-10.62
-14.74
-19.02
-23.32
-27.47
-31.39
-35.15
-38.95
-43.11
-48.01
-53.97
-61.01
-68.65
-75.76
-80.68
-81.62
-77.21
-67.1
-52.21
-34.55
-16.59
-0.57
12.11
21.1
26.85
30.24
32.1
33.04
33.4
33.41
33.31
33.36
33.78
34.67
35.9
37.19
38.26
38.93
39.22
39.27
39.23
39.18
39.02
38.57
37.58
35.84
33.23
29.78
25.68
21.26
16.95
13.06
9.72
6.8
3.91
0.59
-3.47
-8.31
-13.6
-18.81
-23.44
-27.19
-30.14
-32.64
-35.25
-38.57
-43.04
-48.9
-55.97
-63.56
-70.41
-74.84
-75.16
-70.23
-59.92
-45.33
-28.48
-11.7
3
14.41
22.26
26.95
29.23
29.9
29.64
28.99
28.34
27.96
28.01
28.52
29.39
30.48
31.61
32.66
33.59
34.43
35.21
35.93
36.45
36.47
35.63
33.64
30.44
26.28
21.64
17.06
12.9
9.17
5.59
1.71
-2.81
-8.05
-13.7
-19.27
-24.28
-28.49
-32.01
-35.3
-39
-43.76
-49.9
-57.25
-64.92
-71.36
-74.66
-73.12
-65.84
-53.15
-36.69
-18.88
-2.21
11.49
21.45
27.91
31.67
33.67
34.61
34.9
34.81
34.58
34.45
34.64
35.21
36.01
36.74
37.14
37.09
36.68
36.18
35.9
36
36.42
36.82
36.74
35.68
33.38
29.83
25.34
20.42
15.65
11.49
8.09
5.29
2.63
-0.45
-4.38
-9.3
-14.89
-20.58
-25.72
-29.9
-33.13
-35.83
-38.74
-42.65
-48.16
-55.43
-64.08
-72.96
-80.38
-84.36
-83.17
-75.95
-63.13
-46.36
-28.11
-10.9
3.41
13.98
20.98
25.23
27.71
29.23
30.31
31.24
32.15
33.15
34.3
35.6
37.02
38.43
39.72
40.83
41.73
42.44
42.94
43.14
42.9
42.11
40.69
38.66
36.12
33.18
29.89
26.27
22.36
18.23
14.01
9.87
5.89
2.02
-1.92
-6.13
-10.75
-15.65
-20.56
-25.09
-29
-32.27
-35.21
-38.29
-42.07
-46.97
-53.19
-60.58
-68.47
-75.68
-80.56
-81.37
-76.81
-66.58
-51.61
-33.9
-15.94
0.07
12.74
21.73
27.47
30.81
32.63
33.55
33.99
34.2
34.38
34.66
35.19
36
37.03
38.14
39.12
39.8
40.11
40.1
39.89
39.63
39.37
39.03
38.38
37.19
35.29
32.64
29.33
25.58
21.59
17.59
13.73
10.08
6.57
3.05
-0.7
-4.83
-9.38
-14.2
-18.95
-23.28
-27.05
-30.3
-33.37
-36.75
-40.93
-46.3
-53
-60.73
-68.61
-75.16
-78.6
-77.27
-70.3
-58.03
-42.04
-24.73
-8.55
4.74
14.42
20.75
24.54
26.65
27.71
28.04
27.84
27.36
26.94
26.91
27.45
28.5
29.77
30.96
31.87
32.53
33.09
33.71
34.41
34.99
35.07
34.25
32.26
29.11
25.08
20.66
16.37
12.55
9.21
6.06
2.62
-1.51
-6.46
-12.03
-17.71
-22.95
-27.4
-31.04
-34.18
-37.44
-41.5
-46.84
-53.52
-60.93
-67.79
-72.33
-72.8
-68.09
-58.11
-43.96
-27.61
-11.27
3.17
14.56
22.62
27.67
30.38
31.46
31.53
31.07
30.43
29.88
29.6
29.68
30.14
30.83
31.57
32.23
32.77
33.3
33.95
34.75
35.51
35.77
35.04
32.96
29.53
25.13
20.35
15.73
11.55
7.75
3.98
-0.12
-4.77
-9.87
-15.12
-20.11
-24.56
-28.46
-32.06
-35.87
-40.4
-46.07
-53.02
-60.95
-68.93
-75.45
-78.67
-76.93
-69.43
-56.58
-40.09
-22.39
-5.94
7.54
17.42
24.02
28.17
30.75
32.37
33.37
33.94
34.24
34.52
35.04
35.93
37.2
38.66
40.05
41.13
41.74
41.88
41.64
41.18
40.58
39.8
38.69
37.03
34.59
31.27
27.12
22.41
17.55
12.94
8.85
5.25
1.8
-1.94
-6.33
-11.39
-16.82
-22.05
-26.62
-30.35
-33.43
-36.34
-39.66
-43.9
-49.41
-56.3
-64.27
-72.46
-79.37
-83.08
-81.79
-74.49
-61.48
-44.43
-25.92
-8.62
5.54
15.77
22.41
26.49
29.13
31.18
33.02
34.69
36.07
37.1
37.85
38.49
39.15
39.88
40.55
40.99
41.08
40.83
40.4
39.98
39.63
39.23
38.47
36.96
34.42
30.82
26.37
21.56
16.88
12.7
9.12
5.97
2.85
-0.7
-5.01
-10.12
-15.75
-21.42
-26.58
-30.88
-34.26
-36.99
-39.64
-42.92
-47.44
-53.51
-60.85
-68.48
-74.76
-77.77
-75.89
-68.34
-55.62
-39.34
-21.82
-5.36
8.36
18.53
25.18
28.89
30.44
30.6
30.02
29.25
28.69
28.58
28.94
29.62
30.39
31.03
31.49
31.84
32.23
32.79
33.49
34.18
34.55
34.22
32.9
30.46
27.06
23.03
18.83
14.84
11.19
7.69
3.92
-0.52
-5.78
-11.65
-17.57
-22.95
-27.37
-30.84
-33.75
-36.77
-40.6
-45.76
-52.38
-59.98
-67.42
-72.99
-74.79
-71.32
-62.11
-48
-31.01
-13.69
1.66
13.65
21.98
27.21
30.26
31.97
32.91
33.34
33.42
33.34
33.33
33.61
34.25
35.15
36.08
36.78
37.12
37.17
37.13
37.23
37.56
37.96
38.02
37.21
35.12
31.59
26.85
21.42
15.99
11.14
7.16
3.95
1.1
-1.96
-5.72
-10.33
-15.58
-21
-26.05
-30.36
-33.91
-36.97
-40.06
-43.82
-48.79
-55.24
-62.92
-70.92
-77.68
-81.26
-79.88
-72.62
-59.81
-43.08
-24.88
-7.73
6.55
17.15
24.25
28.6
31.1
32.5
33.31
33.88
34.44
35.16
36.12
37.27
38.48
39.59
40.5
41.13
41.52
41.69
41.68
41.52
41.18
40.57
39.56
38.03
35.81
32.85
29.15
24.84
20.15
15.37
10.81
6.71
3.15
-0.01
-3.05
-6.3
-9.99
-14.17
-18.66
-23.11
-27.21
-30.78
-33.85
-36.63
-39.51
-42.97
-47.47
-53.38
-60.69
-68.85
-76.64
-82.25
-83.73
-79.63
-69.59
-54.56
-36.64
-18.4
-2.13
10.7
19.71
25.38
28.64
30.44
31.53
32.32
33.02
33.69
34.39
35.16
36.03
36.98
37.93
38.79
39.49
40.01
40.43
40.81
41.15
41.34
41.16
40.33
38.71
36.28
33.11
29.38
25.26
20.93
16.54
12.3
8.35
4.79
1.59
-1.41
-4.48
-7.87
-11.75
-16.08
-20.62
-25.05
-29.09
-32.58
-35.66
-38.65
-42.03
-46.33
-51.89
-58.7
-66.18
-73.1
-77.73
-78.27
-73.47
-63.13
-48.32
-31.11
-13.96
1.06
12.71
20.75
25.64
28.12
28.94
28.64
27.72
26.59
25.72
25.45
25.93
27.02
28.38
29.58
30.37
30.73
30.92
31.27
32
33.01
33.97
34.34
33.68
31.78
28.74
24.93
20.8
16.75
12.99
9.49
6
2.24
-2.06
-6.93
-12.2
-17.51
-22.44
-26.71
-30.26
-33.33
-36.34
-39.89
-44.51
-50.52
-57.77
-65.43
-72.06
-75.79
-74.94
-68.57
-56.91
-41.41
-24.27
-7.81
6.23
16.97
24.42
29.16
31.95
33.45
34.11
34.23
34.03
33.73
33.54
33.62
34.01
34.63
35.34
35.95
36.37
36.59
36.71
36.8
36.87
36.83
36.46
35.49
33.66
30.85
27.11
22.68
17.95
13.34
9.15
5.47
2.13
-1.17
-4.78
-8.88
-13.45
-18.25
-22.92
-27.14
-30.7
-33.65
-36.22
-38.81
-41.96
-46.22
-51.98
-59.26
-67.41
-75.05
-80.27
-81.09
-76.22
-65.51
-50.19
-32.46
-14.82
0.67
12.83
21.4
26.84
29.92
31.45
32.08
32.3
32.43
32.65
32.98
33.38
33.79
34.22
34.69
35.23
35.84
36.48
37.1
37.65
38.08
38.26
38.02
37.15
35.5
33.07
29.96
26.37
22.47
18.42
14.27
10.12
6.09
2.26
-1.35
-4.89
-8.57
-12.62
-17.05
-21.68
-26.18
-30.24
-33.78
-36.95
-40.13
-43.8
-48.37
-54.09
-60.84
-67.99
-74.38
-78.4
-78.42
-73.32
-63.01
-48.55
-31.94
-15.45
-1
10.34
18.39
23.63
26.78
28.49
29.28
29.44
29.28
29.04
29.02
29.45
30.37
31.65
32.99
34.04
34.57
34.58
34.33
34.15
34.29
34.69
35.02
34.76
33.44
30.88
27.26
23.02
18.68
14.64
11.01
7.62
4.09
0.05
-4.68
-10.02
-15.6
-20.93
-25.53
-29.16
-31.91
-34.21
-36.74
-40.17
-44.99
-51.3
-58.6
-65.78
-71.26
-73.32
-70.62
-62.64
-50
-34.3
-17.72
-2.4
10.13
19.24
25.08
28.32
29.74
29.99
29.51
28.62
27.57
26.61
25.96
25.71
25.81
26.12
26.46
26.74
27.04
27.48
28.15
28.95
29.59
29.65
28.76
26.78
23.82
20.17
16.18
12.07
7.83
3.32
-1.65
-7.13
-12.89
-18.55
-23.67
-27.94
-31.38
-34.32
-37.42
-41.39
-46.79
-53.73
-61.63
-69.23
-74.72
-76.25
-72.49
-63.12
-49.09
-32.34
-15.25
0.04
12.17
20.78
26.28
29.49
31.25
32.17
32.59
32.7
32.64
32.61
32.81
33.33
34.16
35.08
35.82
36.19
36.18
35.97
35.84
35.94
36.16
36.1
35.21
33.07
29.59
25.08
20.12
15.36
11.22
7.73
4.57
1.22
-2.81
-7.72
-13.37
-19.29
-24.88
-29.68
-33.54
-36.72
-39.78
-43.44
-48.28
-54.62
-62.19
-70.11
-76.94
-80.88
-80.26
-74.12
-62.57
-46.93
-29.38
-12.36
2.17
13.21
20.7
25.39
28.24
30.13
31.64
33.02
34.37
35.71
37.03
38.3
39.47
40.45
41.23
41.84
42.38
42.89
43.38
43.7
43.7
43.25
42.28
40.84
38.95
36.61
33.78
30.41
26.52
22.26
17.88
13.63
9.67
6.04
2.59
-0.9
-4.68
-8.88
-13.48
-18.32
-23.1
-27.55
-31.54
-35.09
-38.49
-42.17
-46.67
-52.43
-59.57
-67.65
-75.54
-81.54
-83.77
-80.78
-72.06
-58.33
-41.42
-23.68
-7.36
5.99
15.77
22.24
26.17
28.43
29.72
30.51
31.07
31.59
32.27
33.25
34.54
35.99
37.3
38.17
38.45
38.27
37.93
37.79
38
38.44
38.72
38.35
36.96
34.4
30.82
26.59
22.16
17.92
14.08
10.61
7.28
3.77
-0.2
-4.76
-9.77
-14.93
-19.81
-24.06
-27.57
-30.47
-33.18
-36.27
-40.31
-45.69
-52.42
-59.95
-67.1
-72.21
-73.57
-69.9
-60.95
-47.61
-31.74
-15.6
-1.16
10.41
18.84
24.52
28.15
30.33
31.44
31.69
31.29
30.56
29.89
29.63
29.92
30.68
31.61
32.45
33.05
33.47
33.91
34.51
35.16
35.55
35.16
33.63
30.82
26.97
22.55
18.08
13.93
10.2
6.68
3
-1.25
-6.26
-11.93
-17.83
-23.36
-28.05
-31.73
-34.69
-37.61
-41.33
-46.52
-53.41
-61.58
-69.83
-76.44
-79.47
-77.35
-69.51
-56.54
-40.2
-22.86
-6.78
6.49
16.34
23
27.18
29.67
31.16
32.13
32.94
33.85
35.01
36.43
37.98
39.45
40.63
41.33
41.52
41.26
40.72
40.17
39.81
39.74
39.81
39.62
38.69
36.57
33.16
28.72
23.79
18.96
14.62
10.83
7.32
3.7
-0.37
-5
-10.08
-15.35
-20.5
-25.25
-29.46
-33.14
-36.52
-40.02
-44.23
-49.67
-56.6
-64.69
-72.94
-79.71
-83.14
-81.65
-74.55
-62.27
-46.38
-29.07
-12.57
1.46
12.21
19.67
24.45
27.39
29.26
30.69
32.05
33.56
35.29
37.22
39.23
41.14
42.77
43.93
44.58
44.74
44.56
44.2
43.82
43.44
42.97
42.23
41.02
39.11
36.42
32.93
28.75
24.14
19.44
14.96
10.9
7.24
3.76
0.14
-3.94
-8.58
-13.67
-18.91
-23.93
-28.45
-32.36
-35.8
-39.09
-42.76
-47.35
-53.32
-60.74
-69.06
-77.03
-82.84
-84.6
-80.95
-71.57
-57.37
-40.29
-22.67
-6.6
6.49
16.09
22.41
26.13
28.02
28.8
29.04
29.16
29.48
30.2
31.4
32.96
34.62
36.03
36.88
37.07
36.76
36.32
36.14
36.36
36.79
36.91
36.11
33.95
30.44
26
21.3
16.98
13.36
10.33
7.45
4.17
0.1
-4.78
-10.19
-15.62
-20.59
-24.81
-28.31
-31.37
-34.47
-38.19
-43.04
-49.31
-56.8
-64.66
-71.4
-75.12
-74.15
-67.68
-56.13
-41.11
-24.89
-9.62
3.24
13.17
20.35
25.3
28.53
30.37
31.11
31.09
30.74
30.54
30.82
31.65
32.85
34.1
35.05
35.55
35.62
35.49
35.42
35.51
35.65
35.46
34.48
32.36
29.01
24.72
19.97
15.26
10.86
6.68
2.43
-2.24
-7.46
-13.08
-18.75
-24.06
-28.78
-32.92
-36.66
-40.32
-44.25
-48.77
-54.1
-60.14
-66.24
-71.18
-73.31
-71.07
-63.65
-51.43
-35.95
-19.52
-4.39
7.88
16.79
22.74
26.59
29.22
31.15
32.57
33.49
33.94
34.11
34.32
34.87
35.85
37.1
38.27
38.99
39.11
38.76
38.3
38.1
38.29
38.65
38.61
37.5
34.84
30.56
25.07
19.14
13.57
8.95
5.36
2.48
-0.29
-3.54
-7.57
-12.36
-17.56
-22.72
-27.48
-31.65
-35.29
-38.67
-42.21
-46.45
-51.9
-58.8
-66.84
-74.88
-81.11
-83.42
-80.16
-70.8
-56.22
-38.56
-20.44
-4.23
8.65
17.88
23.94
27.74
30.19
31.95
33.41
34.8
36.24
37.78
39.41
41.03
42.44
43.47
44.01
44.14
44.08
44.08
44.26
44.54
44.59
44.01
42.52
40.09
36.94
33.42
29.85
26.37
22.94
19.41
15.7
11.79
7.78
3.78
-0.16
-4.1
-8.2
-12.61
-17.39
-22.51
-27.8
-33
-37.79
-41.92
-45.21
-47.76
-49.92
-52.3
-55.56
-60.08
-65.63
-71.19
-75.11
-75.62
-71.44
-62.33
-49.28
-34.2
-19.28
-6.33
3.66
10.65
15.25
18.38
20.84
23.14
25.44
27.62
29.43
30.59
30.92
30.31
28.81
26.59
23.84
20.84
17.9
15.33
13.4
12.19
11.53
10.91
9.72
7.4
3.76
-0.89
-5.9
-10.48
-14.11
-16.68
-18.52
-20.17
-22.17
-24.87
-28.37
-32.52
-36.89
-40.88
-43.88
-45.45
-45.63
-45.02
-44.68
-45.71
-48.91
-54.46
-61.91
-70.45
-79.11
-86.98
-93.22
-97.14
-98.26
-96.49
-92.13
-85.87
-78.48
-70.53
-62.19
-53.19
-43.11
-31.62
-18.76
-4.99
8.85
21.82
33.13
42.33
49.44
54.87
59.38
63.91
69.43
76.68
85.89
96.63
107.8
117.88
125.41
129.51
130.04
127.59
123.04
117.17
110.47
103.18
95.5
87.73
80.24
73.24
66.56
59.68
51.98
43.07
33.1
22.7
12.71
3.7
-4.24
-11.64
-19.37
-28.28
-38.88
-51.14
-64.49
-77.91
-90.03
-99.35
-104.49
-104.51
-99.25
-89.47
-76.73
-62.91
-49.7
-38.14
-28.43
-20.25
-13.04
-6.43
-0.3
5.3
10.28
14.77
18.98
23.18
27.44
31.62
35.43
38.56
40.89
42.51
43.76
44.91
46.09
47.09
47.45
46.63
44.34
40.65
36.04
31.23
26.81
23.06
19.82
16.61
12.93
8.45
3.19
-2.54
-8.3
-13.69
-18.48
-22.68
-26.53
-30.4
-34.82
-40.27
-47.07
-55.04
-63.31
-70.27
-73.92
-72.48
-65.06
-52.15
-35.56
-17.83
-1.42
11.96
21.73
28.23
32.26
34.72
36.25
37.29
38.15
39.08
40.25
41.72
43.32
44.74
45.7
46.01
45.76
45.19
44.63
44.32
44.29
44.4
44.33
43.67
42.09
39.41
35.66
31.15
26.3
21.58
17.31
13.55
10.12
6.71
3
-1.2
-5.88
-10.85
-15.82
-20.46
-24.51
-27.93
-30.93
-33.99
-37.77
-42.89
-49.58
-57.44
-65.37
-71.64
-74.4
-72.18
-64.42
-51.74
-35.77
-18.77
-2.99
9.87
19.02
24.56
27.24
28.1
28.12
27.99
28.04
28.36
28.89
29.55
30.28
31.02
31.73
32.31
32.71
32.96
33.13
33.3
33.47
33.42
32.84
31.39
28.92
25.57
21.66
17.64
13.82
10.24
6.72
2.96
-1.27
-6
-11.02
-15.98
-20.51
-24.45
-27.83
-31.01
-34.52
-38.91
-44.56
-51.4
-58.74
-65.22
-69.07
-68.62
-62.86
-51.88
-36.97
-20.27
-4.13
9.58
19.9
26.76
30.75
32.71
33.38
33.28
32.75
32.09
31.57
31.45
31.84
32.69
33.76
34.68
35.21
35.31
35.17
35.06
35.19
35.49
35.58
34.95
33.14
30.02
25.81
21.03
16.23
11.82
7.86
4.09
0.12
-4.44
-9.67
-15.35
-20.99
-26.06
-30.26
-33.6
-36.5
-39.64
-43.72
-49.25
-56.26
-64.12
-71.55
-76.75
-77.89
-73.67
-63.81
-49.31
-32.18
-14.88
0.41
12.36
20.6
25.65
28.42
29.88
30.78
31.57
32.44
33.44
34.56
35.75
36.98
38.18
39.26
40.1
40.58
40.69
40.45
39.96
39.3
38.54
37.63
36.45
34.81
32.52
29.47
25.64
21.19
16.44
11.77
7.52
3.85
0.67
-2.31
-5.48
-9.12
-13.25
-17.63
-21.87
-25.6
-28.7
-31.35
-33.92
-36.9
-40.69
-45.61
-51.71
-58.79
-66.15
-72.58
-76.4
-75.94
-70.06
-58.78
-43.36
-26.07
-9.43
4.54
14.83
21.52
25.42
27.58
28.89
29.86
30.75
31.61
32.46
33.29
34.1
34.85
35.51
36.06
36.49
36.88
37.26
37.65
37.98
38.12
37.85
36.96
35.32
32.95
29.99
26.67
23.21
19.75
16.31
12.88
9.46
6.13
2.97
0.04
-2.74
-5.55
-8.62
-12.12
-16.02
-20.11
-24.09
-27.69
-30.82
-33.63
-36.47
-39.83
-44.17
-49.7
-56.23
-63.04
-68.83
-72.01
-71.1
-65.25
-54.65
-40.56
-25
-10.16
2.32
11.6
17.76
21.4
23.3
24.12
24.24
23.97
23.51
23.19
23.25
23.85
24.91
26.17
27.25
27.91
28.13
28.1
28.08
28.26
28.56
28.64
28.11
26.64
24.21
21.03
17.53
14.1
11
8.2
5.48
2.49
-1.05
-5.23
-9.9
-14.7
-19.21
-23.12
-26.32
-28.96
-31.37
-34.02
-37.4
-41.9
-47.62
-54.17
-60.5
-65.05
-66.11
-62.44
-53.81
-41.22
-26.59
-12.15
0.25
9.68
16.13
20.24
22.9
24.79
26.26
27.38
28.09
28.38
28.35
28.21
28.18
28.42
28.95
29.67
30.41
31.02
31.41
31.58
31.54
31.22
30.5
29.26
27.35
24.74
21.51
17.8
13.86
9.96
6.3
3.02
0.09
-2.69
-5.64
-9.02
-12.93
-17.21
-21.48
-25.36
-28.61
-31.28
-33.71
-36.4
-39.86
-44.42
-50.15
-56.7
-63.21
-68.43
-70.81
-69.05
-62.48
-51.43
-37.27
-22.01
-7.73
4.01
12.47
17.78
20.61
21.88
22.44
22.94
23.72
24.83
26.15
27.41
28.44
29.16
29.66
30.12
30.66
31.31
31.99
32.52
32.75
32.57
31.93
30.82
29.27
27.36
25.13
22.63
19.86
16.79
13.43
9.88
6.38
3.17
0.44
-1.81
-3.85
-6.04
-8.74
-12.1
-15.98
-20.03
-23.87
-27.31
-30.33
-33.13
-36.03
-39.34
-43.31
-48.08
-53.62
-59.43
-64.57
-67.6
-66.99
-61.65
-51.48
-37.57
-22.02
-7.25
4.72
12.86
17.24
18.71
18.46
17.56
16.73
16.33
16.51
17.29
18.64
20.48
22.64
24.85
26.83
28.31
29.19
29.54
29.57
29.56
29.73
30.14
30.6
30.82
30.44
29.19
26.98
23.89
20.15
16.09
12.04
8.21
4.7
1.42
-1.84
-5.31
-9.16
-13.36
-17.75
-22.04
-26.03
-29.61
-32.87
-36.04
-39.45
-43.41
-48.17
-53.81
-60.08
-66.31
-71.31
-73.62
-71.91
-65.44
-54.44
-40.21
-24.69
-9.92
2.54
11.94
18.3
22.12
24.08
24.75
24.61
24.03
23.33
22.76
22.45
22.42
22.56
22.81
23.16
23.68
24.41
25.33
26.27
26.95
27.09
26.51
25.11
22.97
20.18
16.92
13.32
9.54
5.71
1.86
-2.02
-6.04
-10.25
-14.58
-18.85
-22.81
-26.31
-29.41
-32.42
-35.81
-40.07
-45.39
-51.49
-57.47
-61.95
-63.39
-60.55
-53.02
-41.37
-27.09
-12.14
1.61
12.83
20.93
26.01
28.62
29.45
29.13
28.14
26.83
25.49
24.34
23.56
23.26
23.44
24.02
24.85
25.72
26.46
26.93
27
26.58
25.61
24.1
22.11
19.74
17.05
14.01
10.54
6.5
1.85
-3.32
-8.79
-14.29
-19.52
-24.32
-28.68
-32.85
-37.23
-42.28
-48.34
-55.37
-62.7
-69.01
-72.62
-71.9
-65.95
-54.97
-40.29
-24.05
-8.47
4.72
14.71
21.49
25.68
28.01
29.17
29.68
29.95
30.32
31.07
32.28
33.86
35.52
36.9
37.79
38.11
38.02
37.76
37.57
37.54
37.58
37.4
36.57
34.67
31.41
26.79
21.15
15.09
9.29
4.27
0.17
-3.32
-6.8
-10.93
-16.12
-22.4
-29.42
-36.59
-43.24
-48.86
-53.18
-56.31
-58.71
-61.17
-64.56
-69.41
-75.41
-81.15
-84.41
-82.79
-74.71
-60.05
-40.18
-17.43
5.79
27.73
47.58
65.26
81.06
95.19
107.74
118.66
127.9
135.47
141.39
145.61
148.07
148.75
147.77
145.45
142.25
138.74
135.5
132.96
131.35
130.57
130.36
130.42
130.71
131.56
133.37
136.2
139.1
140.11
136.76
127.28
111.65
91.91
71.44
53.49
39.68
29.43
20.5
10.42
-2.3
-17.62
-34.34
-51.09
-67.02
-82.06
-96.47
-110.36
-123.33
-134.56
-143.15
-148.6
-150.91
-150.52
-147.96
-143.62
-137.6
-129.86
-120.53
-110.03
-99.17
-88.89
-79.95
-72.62
-66.62
-61.29
-55.9
-49.96
-43.37
-36.41
-29.51
-23.11
-17.48
-12.67
-8.63
-5.19
-2.2
0.49
2.93
5.09
6.84
7.99
8.31
7.73
6.4
4.66
2.93
1.53
0.5
-0.42
-1.65
-3.56
-6.3
-9.71
-13.4
-17.01
-20.25
-23.1
-25.73
-28.48
-31.76
-35.94
-41.17
-47.18
-53.21
-57.97
-60.05
-58.31
-52.37
-42.79
-30.93
-18.5
-7.04
2.41
9.46
14.19
16.97
18.25
18.48
18.12
17.64
17.4
17.62
18.33
19.36
20.44
21.32
21.87
22.07
22.04
21.91
21.82
21.78
21.72
21.49
20.91
19.79
18.06
15.73
12.98
10.05
7.2
4.58
2.15
-0.29
-3
-6.18
-9.79
-13.57
-17.16
-20.23
-22.73
-24.9
-27.27
-30.36
-34.47
-39.42
-44.58
-48.91
-51.25
-50.64
-46.64
-39.49
-30.09
-19.73
-9.76
-1.22
5.38
10.03
13.05
14.87
15.88
16.32
16.43
16.44
16.61
17.14
18.09
19.3
20.49
21.38
21.79
21.74
21.37
20.89
20.46
20.12
19.79
19.31
18.43
16.99
14.92
12.31
9.37
6.48
3.96
2.01
0.64
-0.44
-1.62
-3.3
-5.72
-8.81
-12.27
-15.64
-18.5
-20.61
-22
-22.97
-23.96
-25.46
-27.84
-31.17
-35.18
-39.18
-42.19
-43.16
-41.29
-36.32
-28.65
-19.33
-9.69
-1.03
5.78
10.43
13.11
14.36
14.77
14.85
14.9
15.08
15.42
15.93
16.59
17.35
18.09
18.7
19.05
19.07
18.79
18.28
17.69
17.14
16.69
16.31
15.86
15.14
13.95
12.21
9.97
7.43
4.88
2.6
0.72
-0.86
-2.34
-4.03
-6.11
-8.58
-11.28
-13.92
-16.24
-18.1
-19.56
-20.86
-22.34
-24.37
-27.23
-30.95
-35.21
-39.33
-42.3
-43.08
-40.93
-35.7
-27.94
-18.79
-9.6
-1.52
4.77
9.12
11.79
13.17
13.66
13.55
13.04
12.35
11.68
11.23
11.15
11.51
12.22
13.12
14.01
14.7
15.07
15.13
14.96
14.71
14.44
14.13
13.61
12.66
11.13
9
6.48
3.87
1.52
-0.35
-1.73
-2.84
-4.04
-5.66
-7.84
-10.52
-13.44
-16.27
-18.76
-20.84
-22.65
-24.49
-26.75
-29.77
-33.74
-38.52
-43.54
-47.87
-50.33
-49.9
-46.07
-39.06
-29.82
-19.68
-9.97
-1.64
4.88
9.57
12.73
14.71
15.86
16.49
16.88
17.28
17.82
18.55
19.37
20.16
20.79
21.22
21.49
21.7
21.96
22.35
22.83
23.3
23.6
23.52
22.91
21.73
20
17.9
15.59
13.22
10.87
8.51
6.13
3.74
1.4
-0.79
-2.81
-4.74
-6.75
-9.03
-11.75
-14.87
-18.25
-21.62
-24.72
-27.39
-29.67
-31.82
-34.3
-37.61
-42.12
-47.73
-53.8
-59.09
-62.14
-61.67
-57.06
-48.64
-37.53
-25.35
-13.68
-3.73
3.92
9.28
12.76
14.94
16.37
17.47
18.47
19.51
20.6
21.76
22.98
24.22
25.37
26.37
27.13
27.69
28.12
28.54
28.98
29.4
29.68
29.63
29.16
28.21
26.81
25
22.81
20.29
17.47
14.51
11.54
8.76
6.2
3.84
1.51
-0.99
-3.78
-6.88
-10.18
-13.53
-16.8
-19.93
-22.93
-25.89
-28.9
-32.14
-35.85
-40.27
-45.55
-51.46
-57.28
-61.76
-63.47
-61.27
-54.75
-44.48
-31.85
-18.65
-6.52
3.42
10.75
15.64
18.57
20.1
20.75
20.98
21.11
21.38
21.92
22.69
23.57
24.38
25.02
25.47
25.84
26.29
26.97
27.95
29.09
30.15
30.75
30.53
29.26
26.94
23.79
20.25
16.75
13.6
10.9
8.45
5.93
2.94
-0.75
-5.16
-10.04
-14.99
-19.59
-23.59
-27.04
-30.27
-33.82
-38.24
-43.82
-50.33
-56.93
-62.27
-64.81
-63.29
-57.2
-46.97
-33.9
-19.78
-6.35
5.09
13.95
20.23
24.3
26.71
27.95
28.46
28.57
28.57
28.66
28.98
29.6
30.51
31.61
32.78
33.88
34.79
35.48
35.97
36.33
36.49
36.3
35.51
33.83
31.16
27.59
23.45
19.2
15.27
11.88
8.99
6.25
3.21
-0.5
-4.97
-9.95
-14.96
-19.51
-23.32
-26.49
-29.43
-32.7
-36.86
-42.27
-48.97
-56.51
-63.92
-69.78
-72.5
-70.78
-64.06
-52.81
-38.43
-22.82
-7.88
4.94
14.94
22.05
26.71
29.51
31.06
31.85
32.24
32.5
32.83
33.4
34.31
35.54
36.93
38.22
39.16
39.59
39.58
39.36
39.17
39.15
39.22
39.09
38.34
36.65
33.88
30.2
25.98
21.69
17.69
14.15
10.96
7.82
4.38
0.39
-4.24
-9.33
-14.52
-19.39
-23.68
-27.33
-30.59
-33.96
-37.99
-43.13
-49.48
-56.63
-63.57
-68.83
-70.84
-68.33
-60.82
-48.88
-34.01
-18.26
-3.61
8.54
17.61
23.77
27.64
29.91
31.08
31.51
31.45
31.15
30.91
31
31.53
32.41
33.38
34.15
34.53
34.56
34.46
34.47
34.75
35.2
35.5
35.21
33.93
31.46
27.92
23.73
19.44
15.51
12.11
9.03
5.82
2.05
-2.49
-7.58
-12.68
-17.15
-20.65
-23.25
-25.49
-28.15
-31.94
-37.22
-43.81
-50.98
-57.48
-61.83
-62.61
-58.9
-50.58
-38.44
-24
-9.14
4.38
15.37
23.32
28.36
30.99
31.82
31.41
30.21
28.59
26.86
25.34
24.28
23.88
24.15
24.96
26.04
27.04
27.67
27.77
27.35
26.56
25.57
24.49
23.25
21.6
19.2
15.75
11.22
5.83
0.12
-5.34
-10.08
-13.99
-17.31
-20.55
-24.3
-29.04
-35
-42
-49.46
-56.29
-61.09
-62.38
-59.1
-51.01
-38.9
-24.41
-9.54
3.92
14.85
22.87
28.2
31.29
32.62
32.64
31.74
30.38
29.02
28.05
27.68
27.86
28.34
28.76
28.78
28.23
27.2
25.94
24.82
24.05
23.63
23.18
22.18
20.1
16.65
11.93
6.4
0.73
-4.51
-9.01
-12.83
-16.34
-20.1
-24.71
-30.6
-37.89
-46.18
-54.41
-60.97
-64.06
-62.25
-55.01
-43.06
-28.16
-12.59
1.61
13.1
21.47
27.04
30.45
32.41
33.51
34.18
34.73
35.35
36.02
36.61
36.93
36.82
36.3
35.55
34.83
34.39
34.36
34.69
35.14
35.29
34.67
32.95
30.06
26.25
21.99
17.81
14.02
10.62
7.34
3.8
-0.3
-4.99
-10.08
-15.2
-19.99
-24.22
-27.89
-31.25
-34.79
-39.13
-44.74
-51.69
-59.33
-66.27
-70.68
-70.76
-65.45
-54.89
-40.43
-24.25
-8.64
4.61
14.68
21.63
26.1
28.93
30.83
32.26
33.5
34.68
35.85
36.99
38.03
38.83
39.29
39.36
39.14
38.78
38.51
38.5
38.81
39.36
39.88
40
39.32
37.61
34.9
31.53
27.96
24.64
21.8
19.35
16.99
14.32
11.13
7.45
3.6
-0.02
-3.1
-5.65
-7.94
-10.42
-13.46
-17.16
-21.35
-25.65
-29.68
-33.21
-36.28
-39.18
-42.34
-46.24
-51.27
-57.54
-64.64
-71.58
-76.79
-78.48
-75.24
-66.57
-53.17
-36.83
-19.88
-4.48
7.93
16.84
22.51
25.68
27.16
27.68
27.79
27.89
28.29
29.11
30.29
31.61
32.75
33.48
33.71
33.53
33.2
33
33.1
33.51
34.05
34.39
34.18
33.18
31.41
29.05
26.45
23.9
21.49
19.12
16.54
13.55
10.18
6.64
3.25
0.24
-2.36
-4.74
-7.23
-10.09
-13.45
-17.27
-21.32
-25.31
-28.99
-32.18
-34.92
-37.44
-40.21
-43.75
-48.55
-54.66
-61.52
-67.92
-72.14
-72.48
-67.86
-58.26
-44.8
-29.49
-14.54
-1.74
7.93
14.43
18.34
20.57
21.95
23.07
24.24
25.52
26.84
28.05
29.06
29.82
30.35
30.69
30.91
31.06
31.2
31.4
31.65
31.91
32.05
31.89
31.27
30.1
28.38
26.18
23.63
20.8
17.75
14.48
11
7.37
3.71
0.2
-3
-5.82
-8.32
-10.68
-13.13
-15.82
-18.78
-21.84
-24.79
-27.46
-29.9
-32.37
-35.31
-39.16
-44.18
-50.16
-56.35
-61.52
-64.19
-63.11
-57.64
-48.1
-35.62
-21.91
-8.71
2.63
11.39
17.44
21.08
22.8
23.11
22.5
21.46
20.4
19.65
19.41
19.65
20.21
20.81
21.26
21.52
21.71
22.07
22.78
23.85
25.01
25.77
25.58
24.04
21.1
17.09
12.61
8.32
4.67
1.73
-0.8
-3.38
-6.4
-10.04
-14.16
-18.44
-22.51
-26.12
-29.25
-32.07
-34.99
-38.48
-42.94
-48.38
-54.25
-59.38
-62.19
-61.21
-55.65
-45.75
-32.75
-18.52
-4.94
6.54
15.24
21.09
24.52
26.11
26.47
26.15
25.59
25.15
24.95
25.03
25.23
25.41
25.46
25.38
25.25
25.18
25.28
25.56
26
26.48
26.82
26.8
26.16
24.69
22.26
18.98
15.17
11.24
7.56
4.28
1.27
-1.8
-5.26
-9.26
-13.68
-18.17
-22.3
-25.79
-28.58
-30.89
-33.12
-35.79
-39.38
-44.25
-50.43
-57.41
-64.07
-68.85
-70.09
-66.61
-58.16
-45.66
-30.85
-15.86
-2.51
8.08
15.58
20.33
23.03
24.41
25.08
25.46
25.79
26.18
26.64
27.17
27.74
28.32
28.83
29.18
29.3
29.18
28.9
28.6
28.41
28.34
28.26
27.88
26.92
25.18
22.67
19.57
16.2
12.87
9.81
7.1
4.61
2.1
-0.74
-4.14
-8.21
-12.83
-17.7
-22.44
-26.65
-30.18
-33.14
-35.96
-39.23
-43.53
-49.1
-55.71
-62.56
-68.32
-71.49
-70.67
-65.12
-54.97
-41.29
-25.89
-10.76
2.39
12.52
19.39
23.44
25.43
26.19
26.4
26.47
26.6
26.84
27.19
27.63
28.13
28.63
29.08
29.39
29.54
29.57
29.61
29.86
30.37
31.05
31.53
31.37
30.14
27.67
24.13
19.98
15.79
12
8.73
5.75
2.63
-1.01
-5.32
-10.11
-14.97
-19.44
-23.24
-26.4
-29.22
-32.2
-35.82
-40.46
-46.23
-52.89
-59.68
-65.42
-68.6
-67.85
-62.36
-52.27
-38.74
-23.62
-8.96
3.64
13.32
20.03
24.26
26.64
27.74
27.91
27.34
26.26
24.93
23.66
22.71
22.17
22.01
22.11
22.38
22.8
23.41
24.23
25.14
25.91
26.24
25.85
24.56
22.38
19.36
15.66
11.41
6.74
1.82
-3.19
-8.1
-12.77
-17.14
-21.2
-25.05
-28.95
-33.22
-38.29
-44.44
-51.53
-58.78
-64.75
-67.66
-65.99
-59.06
-47.4
-32.65
-16.97
-2.39
9.73
18.88
25.18
29.12
31.25
32.07
32.06
31.66
31.21
30.9
30.76
30.71
30.64
30.5
30.35
30.22
30.14
30.04
29.8
29.3
28.47
27.28
25.71
23.74
21.26
18.19
14.45
10.04
5.07
-0.25
-5.66
-10.9
-15.79
-20.31
-24.57
-28.85
-33.55
-39.06
-45.65
-53.21
-61.03
-67.83
-71.92
-71.7
-66.2
-55.55
-40.99
-24.58
-8.52
5.44
16.38
24.2
29.37
32.6
34.5
35.52
35.98
36.15
36.27
36.51
36.92
37.4
37.79
37.9
37.71
37.35
37.04
36.98
37.18
37.43
37.32
36.38
34.31
31.13
27.15
22.87
18.73
14.92
11.34
7.65
3.49
-1.34
-6.78
-12.46
-17.97
-22.91
-27.15
-30.83
-34.35
-38.29
-43.22
-49.53
-57.11
-65.18
-72.19
-76.19
-75.37
-68.74
-56.61
-40.6
-23.15
-6.69
6.99
17.21
24.18
28.65
31.47
33.27
34.45
35.28
35.96
36.65
37.48
38.46
39.51
40.47
41.19
41.56
41.54
41.15
40.54
39.85
39.23
38.7
38.09
37.09
35.35
32.61
28.92
24.61
20.19
16.15
12.67
9.6
6.5
2.86
-1.59
-6.78
-12.27
-17.49
-21.96
-25.52
-28.37
-31.04
-34.15
-38.28
-43.8
-50.72
-58.58
-66.42
-72.78
-76.02
-74.71
-68.16
-56.72
-41.8
-25.49
-9.94
3.23
13.28
20.24
24.72
27.44
28.99
29.76
30.03
30.03
29.99
30.09
30.43
30.97
31.59
32.18
32.68
33.12
33.56
34
34.31
34.31
33.75
32.44
30.3
27.38
23.85
19.97
15.94
11.89
7.8
3.57
-0.91
-5.65
-10.49
-15.18
-19.42
-23.11
-26.4
-29.71
-33.66
-38.81
-45.39
-53.02
-60.62
-66.55
-68.97
-66.52
-58.77
-46.53
-31.58
-16.13
-2.14
9.17
17.46
23.08
26.69
28.95
30.27
30.92
31.04
30.84
30.54
30.35
30.42
30.81
31.46
32.29
33.19
34.04
34.74
35.14
35.09
34.42
32.96
30.68
27.63
24.04
20.16
16.27
12.51
8.83
5.02
0.82
-3.93
-9.14
-14.49
-19.54
-23.94
-27.63
-30.89
-34.34
-38.69
-44.53
-51.89
-60.1
-67.68
-72.65
-73.16
-68.15
-57.77
-43.49
-27.52
-12.17
0.91
10.97
18.14
23.02
26.3
28.5
29.96
30.93
31.65
32.34
33.16
34.15
35.22
36.16
36.82
37.09
37
36.73
36.49
36.48
36.77
37.18
37.35
36.77
35
31.87
27.55
22.56
17.57
13.12
9.42
6.28
3.25
-0.21
-4.4
-9.33
-14.65
-19.86
-24.5
-28.31
-31.38
-34.11
-37.11
-41.04
-46.39
-53.31
-61.35
-69.38
-75.76
-78.62
-76.52
-68.88
-56.34
-40.56
-23.78
-8.16
4.79
14.49
21.12
25.35
28
29.74
31.05
32.23
33.42
34.68
36.01
37.36
38.64
39.74
40.59
41.1
41.27
41.15
40.8
40.31
39.72
38.98
37.95
36.43
34.23
31.21
27.4
23.01
18.39
13.96
10.08
6.89
4.29
1.95
-0.57
-3.62
-7.3
-11.44
-15.66
-19.54
-22.83
-25.55
-27.98
-30.56
-33.73
-37.85
-43.14
-49.54
-56.62
-63.47
-68.68
-70.65
-68.05
-60.38
-48.2
-33.15
-17.41
-3.02
8.59
16.86
22.01
24.68
25.65
25.64
25.17
24.62
24.21
24.05
24.14
24.41
24.81
25.31
25.89
26.56
27.31
28.05
28.66
28.88
28.45
27.13
24.87
21.86
18.45
14.98
11.61
8.25
4.64
0.5
-4.15
-9.06
-13.78
-17.97
-21.49
-24.53
-27.47
-30.74
-34.72
-39.63
-45.42
-51.64
-57.35
-61.21
-61.79
-58.04
-49.74
-37.69
-23.49
-9.11
3.73
13.96
21.26
25.89
28.46
29.63
29.97
29.93
29.81
29.8
29.91
30.1
30.24
30.26
30.14
29.97
29.87
29.97
30.26
30.61
30.73
30.29
29.01
26.77
23.7
20.08
16.3
12.7
9.39
6.26
2.98
-0.77
-5.18
-10.18
-15.4
-20.35
-24.59
-27.93
-30.57
-33.01
-36
-40.15
-45.77
-52.52
-59.38
-64.78
-67.01
-64.77
-57.58
-46.09
-31.88
-16.96
-3.29
7.81
15.84
21.02
24.03
25.69
26.7
27.53
28.43
29.45
30.56
31.64
32.6
33.34
33.76
33.81
33.49
32.85
32.06
31.34
30.82
30.52
30.27
29.76
28.62
26.58
23.62
19.97
16.05
12.35
9.22
6.8
4.85
2.95
0.55
-2.71
-6.87
-11.57
-16.26
-20.4
-23.73
-26.35
-28.72
-31.42
-35.03
-39.91
-46.13
-53.31
-60.51
-66.3
-69.03
-67.25
-60.31
-48.71
-34.04
-18.55
-4.39
6.93
14.9
19.85
22.59
23.99
24.74
25.22
25.66
26.16
26.79
27.55
28.39
29.16
29.7
29.9
29.75
29.35
28.87
28.46
28.22
28.1
27.91
27.4
26.27
24.35
21.61
18.22
14.5
10.83
7.52
4.65
2.1
-0.51
-3.54
-7.26
-11.63
-16.37
-21.01
-25.11
-28.4
-30.9
-32.94
-35.06
-37.88
-41.87
-47.09
-52.98
-58.35
-61.57
-61.14
-56.15
-46.73
-34.04
-19.94
-6.36
5.15
13.82
19.55
22.77
24.13
24.3
23.83
23.15
22.53
22.06
21.74
21.52
21.35
21.31
21.47
21.88
22.49
23.12
23.52
23.46
22.82
21.61
19.94
17.88
15.46
12.6
9.26
5.43
1.27
-2.99
-7.12
-10.94
-14.46
-17.74
-20.94
-24.21
-27.67
-31.52
-35.95
-41.06
-46.63
-51.91
-55.72
-56.68
-53.68
-46.4
-35.48
-22.39
-8.98
3.05
12.62
19.33
23.41
25.45
26.14
26.09
25.78
25.53
25.57
25.96
26.67
27.55
28.36
28.87
28.91
28.49
27.76
27.02
26.55
26.46
26.65
26.74
26.23
24.7
21.93
18.1
13.71
9.41
5.74
2.92
0.72
-1.39
-4.01
-7.52
-11.89
-16.7
-21.28
-25.1
-27.9
-29.84
-31.38
-33.15
-35.73
-39.53
-44.69
-50.89
-57.27
-62.48
-64.92
-63.22
-56.75
-45.92
-32.21
-17.64
-4.25
6.59
14.34
19.27
22.08
23.53
24.23
24.53
24.64
24.73
24.95
25.41
26.13
27.02
27.9
28.61
29.08
29.32
29.42
29.42
29.32
29
28.39
27.39
25.97
24.16
22
19.55
16.89
14.04
11.07
8.01
4.94
1.98
-0.77
-3.25
-5.55
-7.92
-10.63
-13.81
-17.39
-21.07
-24.48
-27.39
-29.84
-32.05
-34.42
-37.32
-41.09
-45.9
-51.64
-57.76
-63.17
-66.37
-65.82
-60.51
-50.48
-36.88
-21.71
-7.18
4.94
13.75
19.26
22.14
23.28
23.52
23.41
23.29
23.35
23.67
24.25
25.04
25.88
26.56
26.94
27
26.91
26.88
27.08
27.46
27.8
27.78
27.15
25.87
24.05
21.87
19.5
16.97
14.29
11.45
8.5
5.58
2.83
0.32
-2.02
-4.33
-6.81
-9.58
-12.65
-15.91
-19.17
-22.24
-24.98
-27.39
-29.61
-31.88
-34.54
-37.92
-42.29
-47.65
-53.58
-59.11
-62.83
-63.25
-59.34
-50.95
-39
-25.23
-11.63
0.1
9.08
15.2
18.94
20.97
21.84
21.89
21.32
20.31
19.13
18.14
17.68
17.96
18.95
20.4
21.91
23.14
23.93
24.37
24.67
25.02
25.39
25.49
24.89
23.21
20.43
16.84
12.97
9.32
6.1
3.19
0.21
-3.26
-7.39
-12.05
-16.79
-21.08
-24.59
-27.3
-29.61
-32.06
-35.26
-39.63
-45.23
-51.72
-58.25
-63.55
-66.1
-64.64
-58.55
-48.21
-34.97
-20.72
-7.32
3.93
12.52
18.59
22.6
25.04
26.27
26.55
26.17
25.46
24.81
24.52
24.77
25.52
26.57
27.67
28.61
29.27
29.73
30.13
30.58
31.05
31.29
30.95
29.66
27.25
23.83
19.75
15.49
11.5
8
4.96
2.03
-1.2
-5.09
-9.71
-14.82
-19.96
-24.61
-28.44
-31.46
-33.99
-36.67
-40.18
-45.11
-51.63
-59.29
-66.92
-72.8
-75.08
-72.43
-64.47
-52
-36.78
-20.91
-6.32
5.77
14.87
21.12
25.04
27.24
28.34
28.84
29.17
29.59
30.23
31.06
32
32.9
33.63
34.08
34.22
34.14
33.97
33.87
33.97
34.23
34.47
34.32
33.38
31.36
28.18
24.08
19.52
14.99
10.92
7.43
4.31
1.17
-2.43
-6.72
-11.66
-16.92
-22.01
-26.57
-30.4
-33.68
-36.83
-40.47
-45.22
-51.45
-59.04
-67.22
-74.56
-79.24
-79.49
-74.21
-63.36
-48.09
-30.47
-12.9
2.59
14.74
23.2
28.41
31.16
32.32
32.62
32.57
32.54
32.78
33.42
34.45
35.72
37.03
38.14
38.93
39.43
39.72
39.93
40.13
40.3
40.29
39.89
38.83
36.9
33.98
30.16
25.73
21.14
16.83
13.07
9.76
6.56
3.01
-1.25
-6.2
-11.51
-16.62
-21.03
-24.52
-27.25
-29.7
-32.58
-36.53
-41.99
-48.94
-56.81
-64.44
-70.16
-72.24
-69.34
-61.02
-47.98
-31.99
-15.32
-0.14
12.06
20.72
26.11
28.99
30.18
30.36
29.97
29.27
28.45
27.72
27.29
27.3
27.81
28.76
29.98
31.26
32.43
33.34
33.91
34.11
33.87
33.13
31.81
29.88
27.36
24.3
20.75
16.75
12.32
7.47
2.25
-3.22
-8.76
-14.13
-19.1
-23.54
-27.58
-31.6
-36.18
-41.85
-48.75
-56.27
-63.07
-67.27
-67.11
-61.53
-50.69
-35.97
-19.53
-3.63
9.99
20.41
27.57
31.91
34.13
34.9
34.8
34.31
33.81
33.54
33.62
34.01
34.58
35.17
35.67
36.08
36.45
36.9
37.46
38.08
38.47
38.26
37.04
34.62
31.12
26.91
22.49
18.23
14.23
10.29
6.07
1.3
-4.1
-9.92
-15.81
-21.37
-26.31
-30.58
-34.37
-38.15
-42.5
-47.96
-54.76
-62.51
-70.07
-75.68
-77.41
-73.81
-64.49
-50.33
-33.34
-15.98
-0.43
11.99
20.93
26.84
30.55
32.84
34.3
35.28
36.03
36.76
37.65
38.76
40.04
41.31
42.32
42.92
43.08
42.93
42.69
42.52
42.44
42.29
41.82
40.76
38.95
36.37
33.13
29.36
25.22
20.87
16.5
12.29
8.43
4.97
1.8
-1.33
-4.77
-8.75
-13.31
-18.24
-23.14
-27.62
-31.4
-34.54
-37.39
-40.55
-44.74
-50.46
-57.85
-66.37
-74.75
-81.14
-83.56
-80.46
-71.34
-57
-39.4
-21.04
-4.33
9.11
18.68
24.69
28.01
29.7
30.6
31.3
32.08
33.01
34.08
35.21
36.35
37.4
38.27
38.89
39.18
39.21
39.07
38.93
38.9
38.98
39
38.65
37.59
35.58
32.58
28.76
24.49
20.13
16.01
12.28
8.92
5.77
2.55
-0.96
-4.88
-9.16
-13.59
-17.86
-21.68
-24.95
-27.74
-30.42
-33.42
-37.27
-42.31
-48.63
-55.93
-63.32
-69.45
-72.67
-71.52
-65.23
-54.13
-39.59
-23.7
-8.56
4.22
13.87
20.46
24.5
26.68
27.57
27.59
27.05
26.29
25.6
25.28
25.45
26.09
27.02
27.99
28.83
29.5
30.05
30.55
30.99
31.12
30.64
29.3
27.02
23.97
20.46
16.8
13.1
9.27
5.12
0.52
-4.51
-9.74
-14.85
-19.52
-23.62
-27.24
-30.72
-34.62
-39.47
-45.62
-52.83
-60.18
-66.1
-68.75
-66.65
-59.19
-47.01
-31.79
-15.72
-0.86
11.38
20.47
26.57
30.23
32.05
32.6
32.37
31.8
31.28
31.12
31.41
32.02
32.7
33.17
33.29
33.09
32.79
32.61
32.68
32.95
33.18
32.98
31.95
29.86
26.7
22.7
18.26
13.75
9.43
5.36
1.41
-2.62
-6.92
-11.51
-16.3
-21.09
-25.59
-29.62
-33.18
-36.55
-40.28
-44.98
-51.09
-58.48
-66.28
-72.87
-76.34
-75.05
-68.21
-56.22
-40.62
-23.6
-7.42
6.19
16.37
23.13
27.14
29.3
30.43
31.1
31.57
31.96
32.35
32.82
33.45
34.26
35.11
35.8
36.12
36
35.56
35.08
34.79
34.8
34.97
34.91
34.12
32.19
28.96
24.61
19.63
14.68
10.32
6.83
4.09
1.66
-1.03
-4.45
-8.78
-13.86
-19.26
-24.42
-28.87
-32.41
-35.18
-37.64
-40.47
-44.36
-49.76
-56.65
-64.35
-71.47
-76.19
-76.71
-71.87
-61.61
-47.08
-30.37
-13.84
0.57
11.82
19.78
25.01
28.25
30.15
31.08
31.29
31.04
30.62
30.43
30.72
31.55
32.71
33.79
34.4
34.36
33.82
33.17
32.84
33.07
33.72
34.31
34.19
32.85
30.06
26.03
21.26
16.37
11.87
8.06
4.92
2.17
-0.62
-3.84
-7.73
-12.24
-17.07
-21.77
-25.89
-29.2
-31.79
-34.05
-36.64
-40.23
-45.28
-51.67
-58.64
-64.78
-68.37
-67.87
-62.46
-52.34
-38.73
-23.49
-8.61
4.31
14.33
21.22
25.26
27.03
27.19
26.32
24.93
23.46
22.24
21.49
21.27
21.49
21.98
22.59
23.29
24.11
25.14
26.35
27.57
28.4
28.47
27.54
25.58
22.81
19.58
16.18
12.79
9.41
5.9
2.08
-2.15
-6.82
-11.75
-16.71
-21.43
-25.76
-29.69
-33.46
-37.43
-42.03
-47.52
-53.72
-59.88
-64.66
-66.44
-63.85
-56.33
-44.36
-29.49
-13.81
0.63
12.39
20.87
26.27
29.21
30.42
30.53
29.95
28.96
27.84
26.81
26.13
25.97
26.35
27.12
28.07
28.98
29.72
30.3
30.76
31.05
31
30.35
28.86
26.45
23.29
19.74
16.15
12.69
9.27
5.62
1.43
-3.4
-8.75
-14.22
-19.37
-23.87
-27.68
-31
-34.26
-37.96
-42.57
-48.3
-54.96
-61.71
-67.18
-69.69
-67.79
-60.77
-49.08
-34.24
-18.41
-3.73
8.3
17.06
22.79
26.19
28.05
29.01
29.43
29.56
29.61
29.77
30.17
30.82
31.55
32.08
32.22
31.94
31.43
31.03
30.96
31.3
31.81
32.07
31.66
30.25
27.77
24.41
20.53
16.57
12.84
9.48
6.37
3.23
-0.24
-4.25
-8.78
-13.57
-18.28
-22.55
-26.2
-29.29
-32.1
-35.15
-39
-44.12
-50.56
-57.79
-64.58
-69.22
-69.99
-65.74
-56.34
-42.89
-27.35
-11.99
1.28
11.38
18.08
21.88
23.59
24.05
23.88
23.54
23.26
23.17
23.27
23.52
23.82
24.12
24.38
24.65
25.01
25.5
26.07
26.58
26.78
26.43
25.39
23.65
21.29
18.44
15.21
11.62
7.68
3.4
-1.15
-5.86
-10.55
-15.05
-19.2
-22.95
-26.33
-29.54
-32.91
-36.88
-41.81
-47.7
-54.01
-59.56
-62.77
-62.13
-56.76
-46.77
-33.36
-18.45
-4.1
8.06
17.2
23.28
26.8
28.48
28.99
28.83
28.4
27.96
27.7
27.71
27.92
28.2
28.36
28.31
28.11
27.9
27.87
28.05
28.3
28.27
27.6
26.03
23.54
20.33
16.76
13.12
9.56
6.02
2.28
-1.81
-6.32
-11.12
-15.96
-20.54
-24.62
-28.16
-31.34
-34.54
-38.28
-43.07
-49.1
-56.02
-62.78
-67.8
-69.34
-66.06
-57.59
-44.72
-29.21
-13.31
0.98
12.32
20.34
25.39
28.25
29.77
30.56
30.99
31.22
31.37
31.53
31.83
32.34
33.01
33.68
34.16
34.35
34.27
34.07
33.96
34.02
34.18
34.21
33.76
32.48
30.17
26.8
22.55
17.82
13.07
8.71
4.97
1.82
-0.99
-3.84
-7.03
-10.72
-14.83
-19.1
-23.24
-27.02
-30.38
-33.45
-36.51
-39.91
-44.04
-49.17
-55.31
-62.04
-68.35
-72.78
-73.66
-69.74
-60.65
-47.18
-31.12
-14.69
0.1
12.03
20.7
26.45
29.91
31.74
32.48
32.57
32.37
32.18
32.25
32.68
33.42
34.33
35.2
35.9
36.39
36.72
36.94
37.09
37.14
37
36.51
35.55
34.05
32.03
29.56
26.73
23.62
20.28
16.8
13.26
9.8
6.55
3.6
0.91
-1.68
-4.4
-7.51
-11.15
-15.25
-19.58
-23.79
-27.61
-30.9
-33.79
-36.62
-39.87
-44.04
-49.45
-56.05
-63.16
-69.44
-73.13
-72.5
-66.57
-55.47
-40.56
-24.03
-8.13
5.43
15.8
22.95
27.31
29.45
29.89
29.18
27.86
26.52
25.62
25.37
25.71
26.32
26.9
27.22
27.28
27.2
27.25
27.65
28.49
29.62
30.7
31.25
30.77
29.01
25.97
22
17.65
13.46
9.8
6.74
4.04
1.31
-1.82
-5.56
-9.88
-14.51
-19.09
-23.25
-26.84
-29.94
-32.89
-36.21
-40.38
-45.67
-51.85
-58.12
-63.1
-65.27
-63.36
-56.87
-46.32
-33.09
-19.01
-5.85
5.15
13.47
19.14
22.61
24.36
24.83
24.32
23.09
21.4
19.55
17.84
16.59
15.98
16.04
16.64
17.53
18.44
19.13
19.47
19.41
19.01
18.28
17.16
15.44
12.92
9.45
5.09
0.14
-4.92
-9.62
-13.71
-17.2
-20.38
-23.69
-27.61
-32.52
-38.65
-45.87
-53.55
-60.52
-65.12
-65.73
-61.29
-51.77
-38.31
-22.9
-7.7
5.54
15.93
23.33
28.16
30.97
32.26
32.39
31.71
30.59
29.41
28.45
27.85
27.54
27.34
27.02
26.41
25.51
24.34
23.08
21.88
20.86
20.03
19.2
18.04
16.14
13.14
8.94
3.72
-2.07
-7.87
-13.24
-18
-22.29
-26.53
-31.26
-36.97
-43.92
-51.85
-59.95
-66.77
-70.63
-69.99
-64.06
-53.13
-38.58
-22.48
-6.95
6.32
16.51
23.53
27.9
30.35
31.61
32.28
32.77
33.34
34.06
34.88
35.63
36.1
36.1
35.53
34.5
33.26
32.23
31.83
32.31
33.55
35.1
36.26
36.38
35.03
32.22
28.22
23.41
18.1
12.37
6.23
-0.31
-7.05
-13.64
-19.69
-24.93
-29.41
-33.41
-37.5
-42.28
-48.24
-55.5
-63.58
-71.3
-76.92
-78.58
-74.92
-65.59
-51.55
-34.78
-17.69
-2.37
9.92
18.9
24.97
28.83
31.19
32.6
33.49
34.23
35.1
36.24
37.56
38.82
39.72
40.06
39.9
39.49
39.16
39.17
39.49
39.87
39.93
39.33
37.94
35.84
33.27
30.54
27.83
25.2
22.57
19.83
16.87
13.74
10.54
7.43
4.46
1.53
-1.61
-5.2
-9.33
-13.91
-18.65
-23.24
-27.48
-31.38
-35.17
-39.16
-43.77
-49.36
-56.08
-63.61
-71.04
-76.82
-79.13
-76.46
-68.19
-54.97
-38.53
-21.18
-5.05
8.4
18.59
25.66
30.2
32.9
34.38
35.17
35.66
36.18
36.89
37.78
38.74
39.57
40.16
40.52
40.79
41.16
41.73
42.45
43.11
43.44
43.19
42.23
40.57
38.3
35.56
32.47
29.13
25.65
22.1
18.55
15.07
11.68
8.41
5.23
2.1
-1.04
-4.27
-7.68
-11.26
-14.97
-18.68
-22.25
-25.59
-28.75
-31.88
-35.32
-39.46
-44.62
-50.84
-57.64
-63.95
-68.23
-68.85
-64.69
-55.58
-42.46
-27.17
-11.86
1.65
12.27
19.76
24.49
27.09
28.18
28.19
27.55
26.64
25.89
25.64
26.12
27.27
28.86
30.51
31.88
32.82
33.33
33.61
33.82
34.08
34.29
34.22
33.6
32.17
29.81
26.56
22.67
18.5
14.48
10.9
7.86
5.16
2.43
-0.7
-4.39
-8.51
-12.7
-16.58
-19.92
-22.76
-25.37
-28.08
-31.2
-34.98
-39.57
-45.01
-51.03
-56.9
-61.43
-63.14
-60.8
-53.89
-42.92
-29.33
-15.08
-1.97
8.74
16.61
21.83
24.98
26.64
27.27
27.16
26.55
25.71
24.95
24.59
24.77
25.46
26.43
27.41
28.16
28.58
28.72
28.7
28.56
28.27
27.67
26.62
25.05
23
20.59
17.9
15.03
12.02
8.97
5.99
3.25
0.82
-1.37
-3.55
-6.06
-9.13
-12.78
-16.7
-20.44
-23.61
-26.04
-27.91
-29.65
-31.82
-34.88
-39.04
-44.23
-50
-55.49
-59.56
-60.93
-58.56
-52.03
-41.8
-29.16
-15.86
-3.61
6.36
13.55
18.09
20.54
21.55
21.69
21.4
20.97
20.63
20.47
20.5
20.69
20.94
21.23
21.51
21.84
22.23
22.68
23.16
23.58
23.84
23.83
23.42
22.53
21.11
19.18
16.85
14.26
11.55
8.86
6.24
3.76
1.45
-0.66
-2.57
-4.42
-6.41
-8.78
-11.7
-15.15
-18.9
-22.58
-25.83
-28.49
-30.66
-32.72
-35.22
-38.67
-43.33
-48.95
-54.72
-59.34
-61.38
-59.68
-53.79
-44.12
-31.89
-18.78
-6.45
3.86
11.52
16.52
19.26
20.38
20.51
20.19
19.85
19.72
19.93
20.44
21.13
21.81
22.27
22.4
22.17
21.72
21.23
20.91
20.83
20.98
21.18
21.2
20.77
19.74
18.02
15.7
12.95
9.99
7
4.14
1.48
-0.99
-3.38
-5.84
-8.54
-11.59
-14.91
-18.31
-21.49
-24.22
-26.45
-28.35
-30.27
-32.6
-35.67
-39.61
-44.28
-49.15
-53.32
-55.63
-54.96
-50.6
-42.56
-31.76
-19.67
-7.98
1.98
9.53
14.64
17.69
19.18
19.52
19.05
18.09
16.98
16.09
15.67
15.76
16.22
16.77
17.18
17.4
17.56
17.86
18.44
19.26
20.05
20.45
20.12
18.87
16.76
14.04
11.01
7.94
4.96
2.05
-0.92
-4.11
-7.66
-11.53
-15.58
-19.49
-22.96
-25.75
-27.87
-29.64
-31.59
-34.37
-38.36
-43.47
-48.93
-53.37
-55.24
-53.25
-46.99
-37.1
-25.16
-13.15
-2.88
4.58
9.07
11.15
11.71
11.57
11.28
11.04
10.88
10.73
10.64
10.73
11.15
12.02
13.32
14.84
16.3
17.41
18.02
18.1
17.78
17.17
16.3
15.11
13.47
11.26
8.43
5.01
1.11
-3.13
-7.51
-11.86
-16.01
-19.93
-23.69
-27.55
-31.85
-36.92
-42.87
-49.56
-56.33
-62.15
-65.71
-65.74
-61.42
-52.73
-40.59
-26.63
-12.74
-0.5
9.15
16.08
20.74
23.76
25.73
27.02
27.86
28.39
28.78
29.18
29.68
30.25
30.77
31.08
31.15
31.03
30.88
30.87
31.03
31.2
31.1
30.41
28.9
26.53
23.45
19.89
16.05
12.04
7.8
3.25
-1.62
-6.72
-11.79
-16.56
-20.79
-24.45
-27.72
-31.03
-34.94
-39.98
-46.42
-53.98
-61.73
-68.15
-71.47
-70.23
-63.77
-52.58
-38.16
-22.61
-7.98
4.26
13.52
20.04
24.51
27.75
30.4
32.8
35.03
37.04
38.81
40.32
41.66
42.86
43.95
44.87
45.52
45.86
45.92
45.78
45.5
45.07
44.41
43.33
41.7
39.47
36.7
33.51
30.04
26.38
22.58
18.71
14.89
11.25
7.9
4.85
1.93
-1.12
-4.61
-8.67
-13.26
-18.1
-22.79
-26.96
-30.52
-33.68
-36.92
-40.9
-46.18
-53.02
-61.08
-69.38
-76.32
-80.08
-79.04
-72.45
-60.67
-45.19
-28.18
-11.89
1.99
12.59
19.91
24.49
27.17
28.77
29.97
31.24
32.84
34.85
37.13
39.42
41.4
42.75
43.35
43.24
42.69
42.08
41.73
41.75
42.04
42.27
42.12
41.33
39.85
37.73
35.12
32.14
28.86
25.34
21.65
17.91
14.25
10.78
7.52
4.44
1.4
-1.75
-5.16
-8.88
-12.83
-16.85
-20.73
-24.34
-27.66
-30.86
-34.23
-38.16
-43.05
-49.1
-56.18
-63.57
-69.96
-73.67
-73.1
-67.29
-56.39
-41.72
-25.42
-9.75
3.49
13.43
20.08
24.11
26.33
27.49
28.07
28.4
28.7
29.2
30
31.14
32.48
33.81
34.89
35.57
35.89
35.96
35.97
36.06
36.2
36.23
35.84
34.71
32.6
29.48
25.59
21.34
17.24
13.61
10.51
7.68
4.69
1.14
-3.13
-7.92
-12.83
-17.39
-21.33
-24.66
-27.68
-30.85
-34.67
-39.51
-45.51
-52.4
-59.41
-65.25
-68.32
-67.2
-61.11
-50.3
-36.1
-20.54
-5.75
6.67
15.96
22.24
26.18
28.6
30.14
31.16
31.81
32.18
32.38
32.64
33.11
33.84
34.72
35.53
36.1
36.43
36.63
36.89
37.31
37.76
37.93
37.4
35.82
33.01
29.08
24.39
19.47
14.83
10.79
7.36
4.27
1.06
-2.65
-7.04
-11.91
-16.85
-21.4
-25.24
-28.31
-30.84
-33.3
-36.23
-40.23
-45.71
-52.64
-60.43
-67.8
-73
-74.24
-70.35
-61.2
-47.82
-32.11
-16.25
-2.08
9.33
17.71
23.4
27.03
29.29
30.72
31.76
32.62
33.42
34.2
34.94
35.66
36.38
37.13
37.92
38.66
39.24
39.56
39.62
39.48
39.22
38.84
38.19
37.03
35.1
32.32
28.77
24.77
20.68
16.83
13.44
10.47
7.78
5.12
2.25
-1.01
-4.71
-8.83
-13.21
-17.65
-21.96
-25.98
-29.67
-33.1
-36.49
-40.17
-44.59
-50.05
-56.59
-63.59
-69.83
-73.57
-73.13
-67.5
-56.73
-42.09
-25.63
-9.59
4.21
14.8
22.06
26.47
28.8
29.86
30.27
30.48
30.72
31.09
31.58
32.17
32.83
33.54
34.26
34.98
35.68
36.29
36.78
37.08
37.07
36.66
35.73
34.24
32.23
29.77
27
23.98
20.79
17.47
14.09
10.74
7.53
4.57
1.92
-0.53
-2.93
-5.51
-8.42
-11.68
-15.16
-18.66
-21.98
-25.01
-27.88
-30.82
-34.19
-38.32
-43.4
-49.35
-55.68
-61.38
-65.1
-65.43
-61.35
-52.7
-40.3
-25.83
-11.29
1.53
11.49
18.31
22.31
24.16
24.57
24.09
23.17
22.14
21.33
20.97
21.22
22
23.09
24.18
24.98
25.37
25.41
25.34
25.38
25.58
25.78
25.59
24.57
22.47
19.37
15.67
11.94
8.65
5.97
3.7
1.39
-1.42
-4.94
-9.03
-13.32
-17.37
-20.88
-23.8
-26.32
-28.81
-31.66
-35.28
-39.88
-45.33
-51.01
-55.74
-58.07
-56.64
-50.77
-40.75
-27.88
-14.04
-1.11
9.56
17.38
22.46
25.31
26.54
26.69
26.18
25.31
24.35
23.55
23.06
22.92
23.04
23.25
23.39
23.36
23.21
23.06
23.03
23.19
23.4
23.45
23.01
21.82
19.79
17.03
13.82
10.49
7.34
4.45
1.67
-1.29
-4.74
-8.83
-13.43
-18.16
-22.54
-26.21
-29.05
-31.29
-33.36
-35.81
-39.15
-43.68
-49.31
-55.47
-61.01
-64.41
-64.17
-59.3
-49.79
-36.74
-22.09
-7.97
3.9
12.65
18.32
21.55
23.16
23.79
23.84
23.5
22.97
22.44
22.17
22.28
22.75
23.41
24.05
24.54
24.87
25.14
25.43
25.77
26.1
26.29
26.17
25.56
24.28
22.21
19.36
15.9
12.21
8.68
5.62
3.04
0.67
-1.9
-5.08
-8.94
-13.27
-17.63
-21.56
-24.8
-27.37
-29.56
-31.76
-34.41
-37.87
-42.36
-47.89
-54.03
-59.85
-63.98
-64.91
-61.55
-53.62
-41.94
-28.13
-14.09
-1.51
8.58
15.88
20.61
23.26
24.39
24.54
24.16
23.66
23.35
23.36
23.69
24.2
24.7
25.04
25.17
25.18
25.21
25.41
25.83
26.41
26.95
27.18
26.85
25.79
23.97
21.46
18.44
15.14
11.8
8.63
5.72
3.04
0.4
-2.42
-5.62
-9.22
-13.09
-16.95
-20.48
-23.46
-25.84
-27.8
-29.75
-32.21
-35.7
-40.47
-46.3
-52.37
-57.33
-59.66
-58.09
-52.11
-42.17
-29.61
-16.27
-3.9
6.22
13.52
18.12
20.55
21.46
21.49
21.1
20.61
20.21
20.02
20.04
20.25
20.54
20.8
20.98
21.13
21.36
21.79
22.46
23.25
23.88
24.01
23.3
21.57
18.9
15.6
12.1
8.79
5.88
3.26
0.69
-2.18
-5.52
-9.29
-13.23
-17.02
-20.4
-23.31
-25.95
-28.65
-31.85
-35.91
-41.07
-47.21
-53.7
-59.36
-62.71
-62.31
-57.33
-47.92
-35.27
-21.22
-7.76
3.61
12.16
17.93
21.45
23.41
24.4
24.81
24.89
24.84
24.85
25.06
25.5
26.11
26.69
27.09
27.23
27.22
27.28
27.6
28.22
28.89
29.18
28.6
26.84
23.86
19.97
15.69
11.57
7.98
4.98
2.32
-0.47
-3.81
-7.86
-12.49
-17.28
-21.71
-25.45
-28.44
-30.95
-33.51
-36.7
-41.01
-46.63
-53.28
-60.16
-65.94
-69.03
-68.06
-62.3
-52.03
-38.49
-23.55
-9.17
3.11
12.46
18.8
22.63
24.71
25.86
26.74
27.74
28.98
30.37
31.73
32.95
34
34.95
35.85
36.69
37.37
37.82
38
37.96
37.74
37.34
36.67
35.56
33.92
31.69
28.91
25.68
22.11
18.32
14.49
10.85
7.55
4.64
1.95
-0.89
-4.27
-8.39
-13.19
-18.24
-23.04
-27.19
-30.57
-33.39
-36.11
-39.23
-43.22
-48.37
-54.65
-61.58
-68.16
-72.89
-74.1
-70.53
-61.8
-48.72
-33.05
-17.02
-2.62
8.93
17.26
22.73
26.03
27.85
28.77
29.26
29.68
30.32
31.33
32.67
34.14
35.46
36.44
37
37.25
37.37
37.51
37.71
37.89
37.88
37.5
36.66
35.35
33.62
31.5
29.06
26.29
23.23
19.96
16.59
13.25
10.02
6.9
3.8
0.64
-2.65
-6.06
-9.54
-13.01
-16.43
-19.75
-22.93
-25.94
-28.82
-31.77
-35.12
-39.34
-44.8
-51.57
-59.17
-66.44
-71.78
-73.48
-70.37
-62.19
-49.75
-34.75
-19.26
-5.14
6.39
14.85
20.42
23.67
25.28
25.87
25.99
26
26.19
26.66
27.43
28.39
29.4
30.34
31.1
31.67
32.05
32.34
32.64
33.02
33.45
33.7
33.44
32.23
29.85
26.34
22.07
17.62
13.53
10.11
7.27
4.62
1.68
-1.91
-6.24
-11.07
-15.98
-20.49
-24.29
-27.32
-29.81
-32.3
-35.4
-39.71
-45.47
-52.44
-59.73
-65.85
-69.02
-67.75
-61.27
-49.98
-35.32
-19.45
-4.54
7.85
17.02
23.15
26.93
29.17
30.5
31.28
31.7
31.89
31.98
32.12
32.45
32.98
33.67
34.39
35.02
35.47
35.71
35.78
35.77
35.71
35.59
35.24
34.39
32.71
30.01
26.3
21.84
17.12
12.63
8.74
5.52
2.77
0.07
-2.99
-6.66
-10.9
-15.43
-19.86
-23.83
-27.17
-29.97
-32.5
-35.2
-38.56
-43.05
-48.93
-56.06
-63.65
-70.27
-74.12
-73.53
-67.59
-56.58
-41.91
-25.74
-10.27
2.88
12.95
20
24.57
27.36
28.97
29.86
30.37
30.81
31.43
32.37
33.6
34.91
36.04
36.81
37.2
37.38
37.53
37.77
38.02
38.06
37.66
36.72
35.31
33.57
31.61
29.4
26.8
23.72
20.18
16.38
12.57
8.99
5.69
2.58
-0.55
-3.92
-7.66
-11.8
-16.21
-20.71
-25.06
-29.04
-32.55
-35.68
-38.72
-42.13
-46.41
-51.9
-58.5
-65.51
-71.62
-75.15
-74.5
-68.74
-57.98
-43.44
-27.1
-11.18
2.52
13.04
20.25
24.64
27.02
28.18
28.74
29.15
29.66
30.37
31.24
32.19
33.09
33.86
34.5
35.05
35.51
35.92
36.26
36.53
36.72
36.8
36.72
36.3
35.31
33.57
30.99
27.66
23.82
19.79
15.81
12.11
8.73
5.62
2.66
-0.38
-3.69
-7.41
-11.52
-15.84
-20.1
-24.01
-27.45
-30.5
-33.44
-36.7
-40.73
-45.82
-51.99
-58.8
-65.31
-70.14
-71.8
-69.06
-61.47
-49.56
-34.76
-19.05
-4.36
7.86
16.95
22.96
26.38
27.89
28.12
27.56
26.61
25.58
24.75
24.3
24.33
24.8
25.56
26.43
27.23
27.91
28.53
29.18
29.92
30.66
31.12
30.95
29.82
27.67
24.64
21.13
17.55
14.21
11.16
8.17
4.9
1.03
-3.49
-8.49
-13.53
-18.16
-22.1
-25.32
-28.11
-30.91
-34.21
-38.41
-43.72
-50.08
-56.98
-63.4
-67.86
-68.77
-64.91
-56.01
-42.93
-27.54
-12.09
1.44
11.89
19.06
23.46
25.89
27.13
27.68
27.83
27.75
27.59
27.52
27.68
28.17
28.95
29.93
30.92
31.78
32.41
32.84
33.15
33.44
33.67
33.68
33.12
31.64
28.93
25.05
20.35
15.43
10.92
7.16
4.08
1.23
-1.97
-5.95
-10.73
-15.94
-20.99
-25.37
-28.9
-31.8
-34.58
-37.9
-42.3
-48.06
-55.05
-62.66
-69.73
-74.72
-76
-72.39
-63.64
-50.59
-35.04
-19.21
-5.06
6.17
14.17
19.36
22.52
24.43
25.69
26.68
27.61
28.6
29.71
30.9
32.1
33.2
34.09
34.72
35.09
35.29
35.45
35.72
36.15
36.7
37.14
37.13
36.28
34.33
31.24
27.24
22.75
18.24
14.1
10.5
7.38
4.47
1.4
-2.14
-6.3
-11
-15.91
-20.62
-24.8
-28.35
-31.49
-34.73
-38.66
-43.84
-50.53
-58.49
-66.82
-74.04
-78.31
-78.02
-72.29
-61.43
-46.9
-30.82
-15.36
-2.08
8.31
15.84
20.98
24.28
26.26
27.4
28.12
28.83
29.77
30.99
32.39
33.75
34.9
35.76
36.36
36.79
37.14
37.48
37.8
38.04
38.06
37.67
36.65
34.87
32.34
29.17
25.58
21.79
17.98
14.28
10.7
7.25
3.8
0.18
-3.8
-8.2
-12.88
-17.52
-21.7
-25.17
-27.93
-30.32
-32.93
-36.37
-41.11
-47.26
-54.53
-62.09
-68.66
-72.65
-72.57
-67.5
-57.53
-43.79
-28.26
-13.13
-0.12
9.84
16.69
20.98
23.46
24.82
25.49
25.79
25.87
25.89
25.98
26.2
26.56
27.02
27.55
28.09
28.59
29.04
29.43
29.69
29.69
29.22
28.04
26.01
23.11
19.54
15.57
11.53
7.58
3.72
-0.2
-4.36
-8.78
-13.34
-17.77
-21.85
-25.45
-28.72
-31.98
-35.68
-40.27
-45.91
-52.32
-58.58
-63.29
-64.81
-61.88
-54.1
-42.23
-27.95
-13.4
-0.45
9.78
17.09
21.93
25
26.91
28.04
28.54
28.54
28.15
27.54
26.87
26.26
25.78
25.45
25.25
25.11
24.88
24.42
23.61
22.52
21.26
19.95
18.5
16.61
13.84
9.85
4.73
-1.03
-6.64
-11.44
-15.21
-18.36
-21.73
