-0.19
1.36
2.78
4.11
5.34
6.39
7.19
7.73
8.02
8.12
8.05
7.82
7.44
6.92
6.34
5.81
5.47
5.41
5.61
5.95
6.22
6.18
5.61
4.38
2.49
0.09
-2.63
-5.32
-7.64
-9.22
-9.78
-9.2
-7.58
-5.2
-2.44
0.37
2.98
5.36
7.52
9.54
11.39
12.99
14.21
14.93
15.14
14.92
14.42
13.8
13.14
12.46
11.75
10.95
10.04
8.99
7.78
6.39
4.73
2.77
0.52
-1.94
-4.45
-6.81
-8.84
-10.43
-11.5
-11.99
-11.9
-11.24
-10.08
-8.56
-6.85
-5.07
-3.31
-1.52
0.37
2.42
4.59
6.71
8.5
9.72
10.28
10.26
9.9
9.48
9.19
9.06
8.98
8.78
8.32
7.56
6.56
5.42
4.22
3
1.75
0.41
-1.04
-2.6
-4.19
-5.61
-6.63
-7.03
-6.7
-5.71
-4.27
-2.68
-1.17
0.16
1.44
2.83
4.47
6.31
8.17
9.74
10.79
11.18
10.95
10.23
9.23
8.14
7.09
6.14
5.24
4.25
2.93
0.97
-1.89
-5.77
-10.6
-16.1
-21.85
-27.45
-32.56
-37.01
-40.69
-43.48
-45.14
-45.36
-43.9
-40.81
-36.42
-31.29
-25.89
-20.39
-14.68
-8.54
-1.94
4.71
10.69
15.3
18.2
19.66
20.35
21.12
22.63
25.19
28.83
33.33
38.29
43.16
47.25
49.94
50.93
50.44
49.27
48.43
48.8
50.75
54.07
58.15
62.29
65.92
68.76
70.86
72.51
74.18
76.46
79.79
84.25
89.38
94.21
97.53
98.3
96.07
91.12
84.29
76.72
69.34
62.66
56.64
50.76
44.38
37.05
28.81
20.26
12.43
6.42
2.96
2.13
3.31
5.3
6.68
6.02
2.21
-5.25
-15.99
-28.74
-41.43
-51.75
-57.88
-59.07
-55.89
-50
-43.47
-38.07
-34.71
-33.44
-33.76
-35.09
-37.02
-39.45
-42.43
-45.91
-49.77
-53.8
-57.83
-61.87
-66.12
-70.76
-75.77
-80.99
-86.46
-92.7
-100.75
-111.65
-125.69
-141.88
-157.92
-170.97
-178.73
-180.35
-176.53
-168.82
-158.74
-147.08
-133.98
-119.32
-103.19
-85.96
-67.92
-49.14
-29.48
-9.28
10.14
26.38
36.49
37.99
30.02
13.96
-6.77
-27.77
-44.98
-55.88
-59.96
-58.42
-53.23
-46.22
-38.34
-29.77
-20.25
-9.58
2.14
14.5
27.01
39.17
50.65
61.17
70.4
77.97
83.41
86.25
86.11
82.88
76.94
69.23
61.11
53.82
48.07
43.76
40.19
36.49
32.17
27.2
21.94
16.86
12.15
7.74
3.38
-1.2
-6.1
-11.2
-16.25
-20.93
-24.93
-28.08
-30.39
-32.01
-33.21
-34.25
-35.35
-36.57
-37.88
-39.11
-39.99
-40.12
-38.93
-35.67
-29.48
-19.6
-5.77
11.69
31.81
53.32
75.07
96.31
116.8
136.51
155.36
172.96
188.73
202.15
213.1
221.89
229.05
234.93
239.44
242.09
242.25
239.68
234.78
228.62
222.56
217.61
213.84
210.09
204.21
193.79
177.15
154.14
126.46
97.19
69.81
47.13
30.53
19.8
13.4
8.73
2.33
-9.78
-31.26
-64.05
-107
-155.38
-201.94
-239.37
-262.84
-271.53
-268.3
-257.76
-244.13
-229.84
-215.59
-201.36
-187.31
-174.14
-162.62
-153.02
-144.99
-137.9
-131.4
-125.82
-122.04
-121.16
-124.24
-131.79
-143.71
-159.11
-176.39
-193.29
-207.3
-216.14
-218.31
-213.59
-202.87
-187.55
-168.63
-146.46
-121.26
-94.22
-68.18
-47.24
-34.98
-32.4
-36.89
-42.89
-44.4
-37.64
-22.63
-2.58
18.1
36.19
50.79
62.91
74.16
85.49
96.71
106.82
114.85
120.27
123.28
124.65
125.09
124.98
124.11
121.81
117.33
110.31
101.06
90.47
79.67
69.4
59.89
50.8
41.69
32.5
23.73
16.39
11.41
9.32
9.6
11.04
11.9
10.75
7.05
1.45
-4.43
-8.91
-11.03
-11.83
-13.75
-20.21
-34.15
-56.72
-86.46
-119.19
-149.01
-169.29
-174.96
-162.99
-134
-92.6
-47.03
-7.36
17.76
23.74
11.87
-12.57
-37.36
-50.61
-44.74
-20.46
13.74
47.15
68.79
78.46
79.27
74.95
68.07
60.25
54.34
52.1
54.46
61.22
71.39
82.35
91.38
95.92
94.17
85.39
70.11
50.57
30.26
13.12
1.47
-4.08
-4.9
-3.56
-2.92
-5.18
-10.92
-19.28
-28.3
-36.4
-42.47
-46.12
-47.38
-46.38
-43.22
-37.78
-30.02
-20.17
-9.18
1.67
11.13
18.25
22.54
23.91
22.74
19.78
16.01
12.33
9.42
7.59
6.84
6.97
7.81
9.32
11.49
14.22
17.15
19.74
21.4
21.77
20.84
18.92
16.5
14.04
11.8
9.79
7.86
5.75
3.32
0.6
-2.17
-4.65
-6.44
-7.24
-6.86
-5.24
-2.48
1.19
5.38
9.55
13.14
15.66
16.87
16.77
15.62
13.85
11.99
10.49
9.66
9.57
10.03
10.68
11.14
11.16
10.7
9.92
8.98
7.98
6.84
5.41
3.52
1.08
-1.89
-5.3
-8.93
-12.47
-15.45
-17.36
-17.76
-16.48
-13.72
-9.96
-5.82
-1.85
1.64
4.53
6.77
8.35
9.27
9.62
9.61
9.52
9.58
9.88
10.34
10.72
10.8
10.49
9.85
9.04
8.24
7.58
7.05
6.59
6.05
5.31
4.22
2.72
0.77
-1.58
-4.23
-6.93
-9.33
-11.01
-11.58
-10.79
-8.59
-5.15
-0.89
3.71
8.17
12.15
15.49
18.16
20.14
21.42
21.96
21.82
21.22
20.6
20.4
20.93
22.06
23.24
23.67
22.64
19.88
15.66
10.61
5.43
0.58
-3.8
-7.9
-11.9
-15.91
-19.81
-23.35
-26.26
-28.33
-29.42
-29.42
-28.21
-25.68
-21.82
-16.81
-11.07
-5.22
0.14
4.5
7.6
9.45
10.29
10.43
10.23
9.94
9.73
9.62
9.57
9.44
9.1
8.45
7.49
6.31
5.1
4.05
3.31
2.86
2.53
2.05
1.09
-0.61
-3.12
-6.26
-9.64
-12.69
-14.78
-15.45
-14.53
-12.19
-8.91
-5.29
-1.83
1.21
3.82
6.16
8.32
10.27
11.79
12.69
12.88
12.48
11.74
10.93
10.19
9.49
8.7
7.65
6.31
4.75
3.15
1.72
0.62
-0.12
-0.64
-1.2
-2.1
-3.55
-5.59
-8.06
-10.56
-12.58
-13.62
-13.32
-11.61
-8.78
-5.38
-2
0.89
3.11
4.77
6.11
7.34
8.48
9.41
9.97
10.13
9.98
9.75
9.62
9.6
9.59
9.37
8.75
7.67
6.19
4.47
2.68
0.96
-0.62
-2.04
-3.32
-4.58
-5.96
-7.6
-9.56
-11.73
-13.81
-15.36
-15.93
-15.27
-13.38
-10.55
-7.25
-3.94
-0.97
1.53
3.61
5.4
6.98
8.35
9.39
9.94
9.9
9.33
8.42
7.44
6.59
5.93
5.39
4.81
4.1
3.31
2.56
1.98
1.54
1.08
0.34
-0.92
-2.82
-5.29
-8.15
-11.14
-13.93
-16.17
-17.47
-17.58
-16.37
-14.01
-10.88
-7.48
-4.24
-1.37
1.09
3.24
5.11
6.66
7.81
8.51
8.84
8.97
9.06
9.15
9.19
9.05
8.66
8
7.15
6.23
5.31
4.43
3.56
2.64
1.53
0.12
-1.73
-4.06
-6.81
-9.76
-12.59
-14.89
-16.26
-16.42
-15.27
-12.98
-9.89
-6.49
-3.16
-0.12
2.65
5.3
7.9
10.38
12.52
14.1
15.01
15.34
15.3
15.02
14.55
13.82
12.76
11.36
9.75
8.12
6.62
5.3
4.09
2.87
1.51
-0.09
-2.01
-4.25
-6.81
-9.65
-12.67
-15.68
-18.4
-20.53
-21.73
-21.74
-20.45
-17.99
-14.71
-11.12
-7.72
-4.88
-2.67
-0.97
0.44
1.7
2.78
3.48
3.64
3.28
2.64
2.1
1.98
2.36
3.05
3.75
4.17
4.2
3.91
3.46
2.98
2.51
1.99
1.29
0.31
-1.1
-3
-5.43
-8.33
-11.49
-14.56
-17.1
-18.64
-18.89
-17.73
-15.33
-12.09
-8.46
-4.88
-1.6
1.28
3.77
5.93
7.79
9.32
10.46
11.13
11.24
10.8
9.87
8.62
7.25
5.96
4.81
3.77
2.71
1.47
-0.01
-1.71
-3.58
-5.55
-7.53
-9.46
-11.32
-13.18
-15.31
-18.16
-22.21
-27.74
-34.61
-42.11
-49.16
-54.8
-58.54
-60.67
-62.09
-63.79
-66.34
-69.58
-72.69
-74.56
-74.25
-71.22
-65.34
-56.66
-45.31
-31.52
-15.88
0.54
16.29
29.94
40.61
48.26
53.59
57.67
61.36
64.97
68.22
70.51
71.27
70.25
67.53
63.46
58.38
52.62
46.47
40.28
34.47
29.51
25.87
23.77
23.17
23.74
24.99
26.39
27.56
28.33
28.68
28.72
28.57
28.32
27.99
27.55
26.96
26.16
25.14
23.94
22.61
21.2
19.74
18.2
16.53
14.74
12.87
11.04
9.35
7.83
6.39
4.86
3.1
1.01
-1.37
-3.92
-6.53
-9.1
-11.62
-13.98
-15.96
-17.22
-17.41
-16.32
-14.05
-10.97
-7.57
-4.34
-1.47
1.01
3.25
5.34
7.28
8.95
10.26
11.18
11.78
12.15
12.32
12.26
11.87
11.11
10.01
8.67
7.27
5.98
4.96
4.28
3.93
3.76
3.57
3.08
2.07
0.38
-1.99
-4.83
-7.87
-10.8
-13.4
-15.66
-17.7
-19.67
-21.59
-23.23
-24.2
-24.04
-22.47
-19.55
-15.64
-11.36
-7.28
-3.77
-0.92
1.43
3.56
5.66
7.77
9.75
11.41
12.55
13.12
13.19
12.85
12.25
11.45
10.54
9.55
8.58
7.67
6.85
6.1
5.36
4.57
3.67
2.65
1.45
0.09
-1.41
-2.98
-4.56
-6.14
-7.77
-9.62
-11.83
-14.49
-17.44
-20.35
-22.69
-23.92
-23.64
-21.75
-18.52
-14.45
-10.21
-6.35
-3.21
-0.8
1.09
2.73
4.38
6.13
7.94
9.69
11.24
12.5
13.47
14.17
14.66
14.96
15.06
14.91
14.53
13.95
13.26
12.53
11.78
10.87
9.64
7.92
5.71
3.17
0.55
-1.87
-3.98
-5.84
-7.7
-9.81
-12.3
-15.13
-18.01
-20.54
-22.25
-22.79
-21.96
-19.84
-16.73
-13.06
-9.31
-5.86
-2.88
-0.38
1.78
3.75
5.62
7.36
8.9
10.11
10.87
11.16
11.03
10.59
10.02
9.51
9.16
8.95
8.79
8.5
7.94
7.02
5.77
4.3
2.73
1.18
-0.29
-1.68
-3.06
-4.54
-6.28
-8.4
-10.98
-13.97
-17.14
-20.1
-22.34
-23.39
-22.95
-21.02
-17.91
-14.15
-10.3
-6.82
-3.91
-1.56
0.33
1.97
3.49
5.06
6.73
8.48
10.19
11.65
12.69
13.28
13.6
13.9
14.43
15.22
16.1
16.79
17.02
16.66
15.74
14.32
12.47
10.2
7.55
4.65
1.72
-1.02
-3.46
-5.65
-7.83
-10.23
-12.92
-15.66
-17.94
-19.14
-18.84
-16.96
-13.88
-10.29
-6.9
-4.2
-2.3
-0.97
0.17
1.4
2.81
4.29
5.63
6.7
7.45
7.93
8.21
8.28
8.08
7.54
6.64
5.47
4.15
2.82
1.55
0.32
-0.96
-2.33
-3.78
-5.2
-6.45
-7.45
-8.26
-9.07
-10.13
-11.68
-13.74
-16.12
-18.42
-20.17
-20.92
-20.41
-18.58
-15.61
-11.84
-7.72
-3.71
-0.15
2.8
5.15
7.08
8.73
10.18
11.36
12.12
12.35
12.09
11.45
10.65
9.85
9.15
8.55
8.01
7.49
6.9
6.17
5.24
4.12
2.88
1.65
0.55
-0.43
-1.49
-2.93
-5.04
-7.91
-11.32
-14.69
-17.35
-18.66
-18.33
-16.42
-13.3
-9.48
-5.4
-1.31
2.7
6.62
10.38
13.78
16.58
18.5
19.4
19.32
18.4
16.84
14.86
12.65
10.32
7.98
5.63
3.19
0.48
-2.76
-6.72
-11.49
-16.87
-22.6
-28.32
-33.83
-39.14
-44.43
-49.9
-55.58
-61.3
-66.63
-71.12
-74.45
-76.53
-77.56
-77.85
-77.8
-77.82
-78.29
-79.62
-82.15
-86.08
-91.41
-97.85
-105.04
-112.68
-120.66
-129.2
-138.76
-149.84
-162.81
-177.66
-193.9
-210.55
-226.41
-240.3
-251.43
-259.65
-265.38
-269.42
-272.68
-275.85
-279.18
-282.13
-283.15
-279.77
-269.15
-249.1
-219.06
-180.66
-137.31
-93.09
-51.31
-13.63
20
50.61
79.34
106.86
133.41
159.28
185.13
212.14
241.66
274.93
312.65
354.54
398.91
442.56
481.14
510.14
526.19
528.09
517.07
496.06
468.47
437.03
403.48
368.79
333.77
299.39
266.65
236.13
207.66
180.47
153.76
127.31
101.75
78.28
58.2
42.29
30.62
22.55
17.04
12.96
9.3
5.39
0.92
-4
-9.04
-13.81
-17.99
-21.5
-24.39
-26.77
-28.67
-30.05
-30.92
-31.39
-31.74
-32.29
-33.19
-34.39
-35.71
-36.97
-38.06
-39.05
-40.04
-41.15
-42.43
-43.91
-45.58
-47.39
-49.31
-51.25
-53.09
-54.7
-55.96
-56.77
-57.02
-56.59
-55.35
-53.21
-50.09
-46.07
-41.33
-36.13
-30.84
-25.77
-21.15
-17.09
-13.62
-10.68
-8.26
-6.32
-4.84
-3.76
-3.02
-2.54
-2.28
-2.23
-2.38
-2.74
-3.29
-3.99
-4.77
-5.58
-6.45
-7.38
-8.43
-9.63
-11.04
-12.67
-14.6
-16.9
-19.59
-22.55
-25.45
-27.81
-29.07
-28.79
-26.8
-23.24
-18.54
-13.28
-8.06
-3.35
0.53
3.55
5.83
7.67
9.37
11.12
12.93
14.67
16.17
17.35
18.3
19.17
20.14
21.26
22.47
23.66
24.68
25.48
26.11
26.59
26.96
27.15
27
26.23
24.56
21.77
17.82
12.88
7.27
1.42
-4.29
-9.55
-14.1
-17.76
-20.39
-21.96
-22.59
-22.6
-22.34
-22.06
-21.81
-21.42
-20.68
-19.54
-18.21
-17.09
-16.54
-16.66
-17.24
-17.96
-18.57
-19.05
-19.53
-20.18
-20.96
-21.64
-21.96
-21.87
-21.59
-21.55
-22.04
-23.17
-24.76
-26.54
-28.31
-30.01
-31.67
-33.31
-34.79
-35.73
-35.72
-34.39
-31.62
-27.56
-22.7
-17.73
-13.42
-10.37
-8.73
-8.28
-8.56
-9.12
-9.7
-10.28
-11.11
-12.65
-15.54
-20.14
-26.91
-36.05
-47.01
-57.92
-65.57
-66.31
-57.74
-39.81
-14.57
13.87
40.96
63.44
80.31
92.61
102.31
110.55
117.57
123.8
129.13
133.1
134.97
133.89
129.32
121.73
112.6
105.48
106.49
120.87
150.62
193
240.99
285.58
318.94
336.34
326.97
287.35
221.37
139.85
55.93
-20.53
-85.67
-136.72
-178.54
-214.53
-244.03
-264.99
-275.55
-275.34
-264.58
-245.16
-220.17
-194.03
-170.32
-150.46
-134.73
-122.62
-113.36
-106.23
-100.55
-95.48
-90.54
-84.84
-77.17
-67.16
-55.43
-43.41
-32.78
-24.83
-19.9
-17.78
-17.4
-17.32
-16.69
-15.32
-13.7
-12.55
-12.44
-13.45
-15.31
-17.34
-18.79
-19.29
-18.85
-17.84
-16.76
-16.02
-15.86
-16.41
-17.63
-19.52
-22.11
-25.43
-29.47
-34.11
-39.1
-44.02
-48.21
-50.95
-51.59
-49.88
-46.02
-40.7
-34.81
-29.1
-23.89
-19.15
-14.6
-10.02
-5.4
-0.97
2.95
6.06
8.21
9.38
9.63
9.13
8.06
6.67
5.23
4
3.14
2.72
2.65
2.69
2.52
1.76
0.08
-2.68
-6.59
-11.54
-17.25
-23.36
-29.31
-34.47
-38.19
-40.01
-39.79
-37.77
-34.52
-30.7
-26.86
-23.19
-19.51
-15.39
-10.38
-4.24
2.97
10.99
19.43
27.95
36.27
44.08
51.06
56.77
60.9
63.28
64.05
63.52
62.06
59.92
57.22
53.98
50.27
46.27
42.19
38.19
34.28
30.31
26.08
21.44
16.42
11.28
6.45
2.54
0.07
-0.57
0.67
3.48
7.28
11.38
15.17
18.29
20.61
22.23
23.33
24.1
24.63
24.97
25.12
25.04
24.7
24.06
23.17
22.07
20.87
19.69
18.58
17.54
16.5
15.38
14.1
12.6
10.87
8.93
6.79
4.51
2.11
-0.42
-3.1
-6.02
-9.24
-12.76
-16.37
-19.69
-22.1
-23.02
-22.02
-19.08
-14.55
-9.09
-3.47
1.69
6
9.36
11.85
13.65
14.91
15.78
16.33
16.62
16.67
16.52
16.2
15.72
15.13
14.48
13.8
13.13
12.45
11.72
10.82
9.64
8.1
6.2
4
1.6
-0.89
-3.39
-5.81
-8.13
-10.36
-12.56
-14.87
-17.35
-19.94
-22.32
-23.98
-24.34
-22.96
-19.8
-15.24
-9.96
-4.68
-0.03
3.69
6.4
8.24
9.42
10.14
10.57
10.83
10.99
11.06
11.03
10.92
10.73
10.54
10.34
10.12
9.78
9.22
8.37
7.25
5.96
4.61
3.22
1.77
0.19
-1.56
-3.42
-5.31
-7.15
-9
-11.04
-13.45
-16.27
-19.24
-21.84
-23.38
-23.31
-21.39
-17.79
-13.05
-7.9
-3.04
1.06
4.22
6.52
8.21
9.53
10.65
11.6
12.31
12.69
12.72
12.49
12.08
11.63
11.14
10.61
9.98
9.28
8.54
7.82
7.09
6.24
5.13
3.67
1.84
-0.27
-2.53
-4.82
-7.1
-9.39
-11.74
-14.23
-16.9
-19.66
-22.23
-24.13
-24.8
-23.78
-20.94
-16.61
-11.44
-6.19
-1.46
2.48
5.66
8.21
10.26
11.8
12.79
13.26
13.34
13.24
13.18
13.21
13.32
13.39
13.31
13.1
12.85
12.72
12.78
13.03
13.32
13.41
13.08
12.26
11.12
9.97
9.19
8.94
9.15
9.41
9.2
8.11
6.05
3.35
0.65
-1.37
-2.16
-1.49
0.58
3.77
7.77
12.34
17.41
22.94
28.81
34.71
40.1
44.4
47.25
48.6
48.78
48.29
47.62
47.11
46.9
46.99
47.12
46.77
45.06
41.09
34.27
24.79
13.86
3.48
-4.19
-7.65
-6.61
-2.14
3.74
8.83
11.57
11.64
9.92
7.92
6.9
7.13
7.55
6.35
1.85
-6.53
-17.83
-29.95
-40.53
-47.93
-51.81
-52.92
-52.5
-51.56
-50.44
-48.94
-46.66
-43.49
-39.71
-35.85
-32.37
-29.33
-26.4
-23.1
-19.1
-14.39
-9.27
-4.11
0.86
5.7
10.62
15.74
20.86
25.44
28.81
30.51
30.59
29.71
28.93
29.28
31.32
34.81
38.77
41.88
42.96
41.43
37.54
32.3
27.24
24.07
24.23
28.55
36.86
47.84
59.03
67.42
70.29
66.3
56.24
42.91
30.12
21.29
18.05
19.98
25.31
32.43
40.87
51.41
64.83
80.39
94.97
103.66
101.58
85.83
56.69
17.39
-27.02
-71.27
-110.92
-142.92
-165.61
-178.71
-183.1
-180.71
-174.03
-165.5
-157.01
-149.59
-143.39
-138.05
-132.94
-127.33
-120.63
-112.47
-102.88
-92.3
-81.43
-71.06
-61.8
-53.98
-47.61
-42.46
-38.13
-34.22
-30.36
-26.37
-22.31
-18.45
-15.15
-12.7
-11.18
-10.39
-9.97
-9.51
-8.75
-7.65
-6.4
-5.33
-4.77
-4.95
-5.95
-7.7
-10.04
-12.76
-15.63
-18.41
-20.74
-22.22
-22.41
-21.02
-18.04
-13.8
-8.9
-4.08
0.06
3.24
5.54
7.25
8.67
9.97
11.08
11.81
12.01
11.66
10.93
10.06
9.27
8.62
8.06
7.48
6.82
6.13
5.5
5.03
4.66
4.22
3.45
2.19
0.38
-1.88
-4.47
-7.3
-10.36
-13.64
-16.9
-19.69
-21.35
-21.29
-19.25
-15.47
-10.65
-5.69
-1.31
2.16
4.81
7.01
9.13
11.38
13.69
15.82
17.48
18.43
18.64
18.16
17.19
15.94
14.58
13.2
11.81
10.39
8.93
7.46
6.01
4.66
3.39
2.13
0.79
-0.78
-2.65
-4.91
-7.58
-10.66
-14.07
-17.53
-20.57
-22.57
-22.93
-21.33
-17.86
-13
-7.5
-2.07
2.79
6.88
10.23
12.9
14.97
16.44
17.35
17.79
17.91
17.86
17.72
17.5
17.13
16.59
15.91
15.18
14.51
13.89
13.26
12.48
11.47
10.17
8.62
6.92
5.14
3.37
1.6
-0.17
-1.98
-3.93
-6.16
-8.79
-11.85
-15.18
-18.37
-20.83
-21.95
-21.31
-18.79
-14.67
-9.55
-4.15
0.83
4.98
8.15
10.51
12.33
13.9
15.33
16.59
17.54
18.04
18.05
17.65
17.01
16.34
15.8
15.43
15.15
14.75
14.04
12.89
11.33
9.53
7.7
6.01
4.45
2.89
1.17
-0.82
-3.09
-5.62
-8.41
-11.46
-14.72
-17.87
-20.35
-21.48
-20.69
-17.83
-13.27
-7.82
-2.41
2.19
5.67
8.14
9.98
11.57
13.09
14.49
15.58
16.21
16.34
16.09
15.65
15.16
14.7
14.25
13.78
13.28
12.73
12.11
11.37
10.41
9.12
7.45
5.44
3.18
0.8
-1.51
-3.68
-5.7
-7.74
-10.04
-12.81
-16.03
-19.32
-21.99
-23.27
-22.59
-19.88
-15.57
-10.47
-5.39
-0.91
2.84
5.96
8.69
11.11
13.15
14.64
15.48
15.77
15.73
15.66
15.74
16.01
16.33
16.5
16.42
16.06
15.56
15
14.44
13.75
12.75
11.21
9.03
6.31
3.36
0.55
-1.79
-3.55
-4.9
-6.2
-7.85
-10.15
-13.17
-16.72
-20.35
-23.5
-25.56
-26.05
-24.74
-21.72
-17.44
-12.52
-7.59
-3.12
0.72
3.97
6.82
9.44
11.91
14.17
16.14
17.71
18.84
19.57
19.95
20
19.68
18.95
17.84
16.48
15.1
13.96
13.16
12.66
12.25
11.62
10.57
9.01
7.05
4.86
2.62
0.46
-1.56
-3.44
-5.22
-6.96
-8.81
-10.97
-13.58
-16.69
-20.07
-23.24
-25.55
-26.37
-25.34
-22.47
-18.19
-13.2
-8.22
-3.8
-0.21
2.59
4.82
6.72
8.46
10.08
11.51
12.67
13.51
14.07
14.42
14.67
14.85
14.92
14.77
14.33
13.63
12.83
12.12
11.6
11.24
10.85
10.19
9.11
7.59
5.76
3.78
1.78
-0.25
-2.35
-4.59
-6.95
-9.38
-11.85
-14.38
-17.04
-19.82
-22.57
-24.91
-26.32
-26.33
-24.69
-21.51
-17.23
-12.47
-7.81
-3.65
-0.12
2.82
5.29
7.35
8.99
10.22
11.05
11.58
11.93
12.19
12.35
12.35
12.1
11.56
10.8
9.9
8.98
8.08
7.2
6.27
5.25
4.11
2.85
1.53
0.17
-1.2
-2.61
-4.14
-5.91
-8.08
-10.72
-13.83
-17.23
-20.55
-23.28
-24.85
-24.78
-22.9
-19.41
-14.86
-10
-5.51
-1.8
1.05
3.26
5.1
6.76
8.25
9.49
10.34
10.73
10.7
10.36
9.88
9.38
8.99
8.7
8.45
8.1
7.5
6.6
5.42
4.06
2.62
1.13
-0.42
-2.08
-3.88
-5.85
-8.01
-10.4
-13.09
-16.06
-19.13
-21.89
-23.74
-24.13
-22.74
-19.66
-15.41
-10.7
-6.22
-2.38
0.74
3.3
5.51
7.48
9.21
10.64
11.71
12.42
12.8
12.88
12.66
12.19
11.53
10.84
10.24
9.78
9.35
8.79
7.93
6.7
5.19
3.56
1.99
0.51
-0.96
-2.61
-4.63
-7.14
-10.17
-13.66
-17.45
-21.29
-24.79
-27.47
-28.8
-28.36
-26.01
-21.94
-16.71
-11.04
-5.62
-0.97
2.68
5.37
7.32
8.79
10.03
11.2
12.32
13.36
14.26
14.96
15.4
15.5
15.22
14.56
13.55
12.31
10.98
9.68
8.43
7.19
5.85
4.38
2.77
1.01
-0.88
-2.96
-5.28
-7.86
-10.65
-13.59
-16.66
-19.91
-23.34
-26.78
-29.82
-31.87
-32.44
-31.32
-28.71
-25.04
-20.68
-15.72
-10.02
-3.38
4.14
12.03
19.52
25.79
30.33
33.03
34.12
33.96
32.8
30.82
28.19
25.19
22.23
19.73
17.99
17.06
16.72
16.61
16.3
15.47
13.92
11.64
8.85
5.89
3.11
0.74
-1.25
-3.12
-5.3
-8.12
-11.69
-15.78
-19.88
-23.36
-25.65
-26.38
-25.42
-22.86
-19.01
-14.3
-9.25
-4.38
-0.17
3.12
5.46
7.04
8.24
9.44
10.89
12.5
13.97
14.83
14.73
13.58
11.65
9.44
7.45
6.02
5.18
4.74
4.31
3.58
2.38
0.71
-1.29
-3.45
-5.61
-7.69
-9.66
-11.52
-13.35
-15.25
-17.4
-19.98
-23.01
-26.27
-29.22
-31.11
-31.27
-29.33
-25.46
-20.3
-14.7
-9.44
-4.88
-1.01
2.44
5.73
8.86
11.69
14.01
15.75
16.98
17.91
18.7
19.33
19.7
19.63
19.12
18.27
17.31
16.45
15.8
15.33
14.91
14.35
13.4
11.92
9.84
7.26
4.48
1.82
-0.46
-2.34
-4
-5.81
-8.12
-11.15
-14.86
-18.95
-22.86
-25.92
-27.43
-26.91
-24.27
-19.85
-14.36
-8.63
-3.34
1.16
4.86
7.98
10.77
13.4
15.86
18.06
19.89
21.28
22.25
22.88
23.27
23.5
23.6
23.54
23.28
22.76
21.97
20.94
19.71
18.32
16.8
15.15
13.38
11.49
9.45
7.25
4.89
2.36
-0.28
-2.96
-5.57
-8.05
-10.39
-12.65
-14.99
-17.56
-20.41
-23.43
-26.25
-28.34
-29.16
-28.3
-25.64
-21.43
-16.22
-10.65
-5.36
-0.75
3.02
6.07
8.65
11
13.29
15.5
17.49
19.04
19.97
20.24
19.97
19.42
18.87
18.53
18.45
18.59
18.84
19.07
19.16
18.97
18.39
17.34
15.84
13.98
11.98
10.03
8.22
6.57
4.98
3.33
1.55
-0.39
-2.46
-4.58
-6.73
-8.9
-11.11
-13.43
-15.93
-18.66
-21.59
-24.58
-27.31
-29.36
-30.3
-29.77
-27.65
-24.04
-19.32
-14
-8.65
-3.73
0.52
4.05
6.96
9.39
11.45
13.19
14.63
15.77
16.63
17.26
17.72
18.04
18.2
18.18
17.94
17.5
16.92
16.26
15.58
14.9
14.17
13.34
12.35
11.2
9.96
8.69
7.48
6.31
5.13
3.82
2.28
0.46
-1.55
-3.58
-5.47
-7.11
-8.54
-9.84
-11.19
-12.75
-14.68
-17.08
-19.99
-23.28
-26.58
-29.3
-30.75
-30.39
-28.01
-23.84
-18.5
-12.77
-7.33
-2.63
1.18
4.16
6.47
8.34
9.92
11.33
12.62
13.82
14.85
15.69
16.33
16.82
17.22
17.58
17.9
18.14
18.26
18.2
17.95
17.56
17.07
16.58
16.23
16.12
16.31
16.67
17.01
17.08
16.76
16.17
15.6
15.47
15.98
17.07
18.45
19.77
20.84
21.8
23.06
25.06
28.04
31.79
35.69
39.04
41.4
42.89
44.3
46.72
51.19
58.36
68.53
81.91
98.69
118.76
141.05
162.96
180.53
189.42
186.49
171.01
144.85
111.42
74
34.78
-5.11
-44.53
-81.3
-112.1
-133.58
-144.06
-144.5
-138.34
-129.93
-122.7
-117.98
-115.1
-112.51
-109.05
-104.66
-100.3
-97.13
-95.77
-95.93
-96.71
-97.02
-96.11
-93.88
-90.79
-87.58
-84.88
-82.94
-81.52
-80.02
-77.7
-74.04
-68.85
-62.42
-55.2
-47.72
-40.25
-32.85
-25.43
-17.98
-10.74
-4.13
1.34
5.4
8.02
9.55
10.46
11.19
12.01
12.95
13.95
14.85
15.56
15.97
15.97
15.45
14.36
12.84
11.1
9.47
8.15
7.15
6.31
5.38
4.18
2.68
1.03
-0.6
-2.08
-3.4
-4.69
-6.07
-7.64
-9.45
-11.56
-13.96
-16.62
-19.33
-21.75
-23.38
-23.81
-22.79
-20.35
-16.78
-12.51
-8.01
-3.67
0.26
3.56
6.13
7.94
9.07
9.65
9.88
9.87
9.69
9.35
8.85
8.24
7.63
7.13
6.77
6.52
6.31
6.03
5.65
5.14
4.47
3.5
2.11
0.15
-2.39
-5.37
-8.5
-11.45
-14.01
-16.12
-17.99
-20.03
-22.71
-26.39
-31.07
-36.31
-41.27
-45.04
-46.89
-46.72
-45.02
-42.7
-40.68
-39.48
-39.03
-38.79
-38.05
-36.26
-33.23
-29.13
-24.36
-19.37
-14.55
-10.19
-6.38
-2.96
0.56
4.96
10.98
18.98
28.62
38.86
48.3
55.94
61.63
66.25
71.27
77.95
86.62
96.41
105.61
112.33
115.17
113.62
108.02
99.23
88.21
75.85
62.84
49.86
37.71
27.26
19.35
14.48
12.54
12.8
14.2
15.7
16.7
17.23
17.73
18.78
20.7
23.43
26.55
29.51
31.78
32.99
32.94
31.6
29.08
25.67
21.74
17.69
13.79
10.07
6.28
2.06
-2.9
-8.61
-14.69
-20.49
-25.31
-28.74
-30.77
-31.86
-32.65
-33.74
-35.49
-37.98
-41.06
-44.52
-48.07
-51.39
-54.09
-55.68
-55.66
-53.72
-49.88
-44.5
-38.26
-31.97
-26.26
-21.51
-17.69
-14.57
-11.79
-9.09
-6.38
-3.74
-1.34
0.66
2.2
3.32
4.11
4.68
5.08
5.33
5.47
5.55
5.65
5.85
6.16
6.5
6.68
6.5
5.82
4.6
2.92
0.95
-1.13
-3.12
-4.93
-6.55
-8.09
-9.8
-11.95
-14.7
-18.04
-21.69
-25.13
-27.71
-28.87
-28.21
-25.7
-21.66
-16.67
-11.44
-6.59
-2.5
0.73
3.28
5.4
7.34
9.21
11.02
12.66
14.02
15.02
15.67
16.08
16.38
16.69
17.07
17.47
17.77
17.83
17.57
16.98
16.07
14.91
13.52
11.93
10.15
8.23
6.26
4.32
2.49
0.82
-0.72
-2.16
-3.57
-5.01
-6.54
-8.24
-10.16
-12.39
-14.96
-17.79
-20.67
-23.17
-24.76
-24.96
-23.52
-20.53
-16.4
-11.74
-7.14
-3.03
0.38
3.04
5.02
6.42
7.31
7.85
8.24
8.69
9.35
10.22
11.16
11.91
12.25
12.06
11.41
10.51
9.62
8.91
8.4
7.96
7.39
6.51
5.26
3.67
1.85
-0.07
-2.01
-3.94
-5.87
-7.9
-10.15
-12.71
-15.63
-18.84
-22.14
-25.22
-27.76
-29.45
-30.08
-29.55
-27.86
-25.12
-21.56
-17.55
-13.5
-9.82
-6.78
-4.47
-2.92
-2.07
-1.89
-2.3
-3.04
-3.6
-3.36
-1.89
0.78
4.02
6.88
8.74
9.78
11.11
14.33
20.66
30.1
41.22
51.53
58.45
60.22
56.44
47.92
36.11
22.51
8.19
-6.18
-20.24
-33.66
-46.16
-57.47
-67.38
-75.79
-82.55
-87.48
-90.28
-90.7
-88.58
-84.01
-77.35
-69.21
-60.34
-51.41
-42.89
-34.94
-27.44
-20.19
-13.07
-6.2
0.15
5.72
10.47
14.64
18.73
23.19
28.29
33.93
39.8
45.53
50.85
55.65
59.91
63.59
66.51
68.31
68.55
66.82
62.98
57.17
49.89
41.82
33.73
26.2
19.58
13.89
8.92
4.29
-0.27
-4.99
-9.87
-14.79
-19.53
-23.93
-27.81
-30.98
-33.15
-33.98
-33.23
-30.93
-27.41
-23.34
-19.52
-16.62
-14.96
-14.39
-14.42
-14.54
-14.4
-13.91
-13.27
-12.97
-13.64
-15.8
-19.5
-24.36
-29.76
-34.98
-39.39
-42.83
-45.71
-48.82
-52.76
-57.22
-61.06
-62.87
-61.44
-55.99
-46.72
-34.89
-22.67
-12.79
-7.74
-9.3
-18.01
-32.01
-46.56
-55.26
-52.29
-34.81
-4.28
34.24
73.87
107.96
128.96
131.84
116.22
86.71
50.57
14.25
-18.04
-42.32
-58.73
-67.63
-68.97
-62.84
-49.85
-30.97
-8.48
16.26
42.47
69
94.46
117.3
136.03
149.79
158.58
163.25
165.26
165.79
164.96
162.33
157.49
150.49
142.05
133.21
124.87
117.65
111.7
106.65
102.15
97.77
92.43
84.17
70.04
47.15
14.4
-25.87
-67.78
-103.03
-123.57
-124.82
-107.47
-77.71
-45.21
-19.74
-7.64
-11.2
-29.2
-58.58
-96
-137.26
-176.92
-208.03
-223.28
-216.98
-188.89
-145.19
-96.31
-52.76
-19.59
5.39
29.87
62.72
109.74
169.41
233.08
288.65
325.06
337.62
328.55
305.02
269.86
227.82
183.24
139.38
101.41
67.9
36.83
6.38
-25.65
-60.93
-99.35
-139.14
-176.46
-206.18
-224.16
-227.87
-218.34
-200.06
-179.18
-160.64
-147.4
-139.82
-136.19
-134.09
-130.64
-123.91
-113.52
-100.53
-86.43
-72.96
-61.52
-52.8
-47.16
-44.1
-42.98
-43.17
-44.1
-44.99
-45.07
-43.92
-41.52
-38.56
-35.92
-34.58
-35.23
-38.03
-42.46
-47.54
-52.12
-55.21
-56.13
-54.59
-50.78
-45.39
-39.5
-34.44
-31.47
-31.48
-34.88
-41.53
-50.8
-61.77
-73.35
-84.46
-94.27
-102.42
-109.03
-114.74
-120.21
-125.76
-131.16
-135.79
-139.19
-141.51
-143.62
-146.54
-150.41
-153.71
-153.23
-145.05
-126.18
-96.01
-56.86
-13.38
29.01
65.81
94.52
114.83
128.02
136.16
141.57
146.67
154.11
166.4
185.24
210.38
239.1
266.63
287.56
297.78
295.89
283.22
262.9
238.27
211.9
185.33
159.54
135.49
114.05
95.53
79.01
62.4
43.04
18.87
-10.76
-44.83
-80.84
-115.36
-144.51
-164.45
-172.22
-166.64
-149.18
-123.94
-96.46
-71.5
-50.88
-32.6
-11.94
15.8
52.45
95.48
138.9
175.89
201.72
215.39
219.33
217.53
213.5
209.1
204.71
200.04
194.88
189.2
182.62
174.04
161.81
144.47
121.73
95.05
67.37
42.18
22.34
9.05
1.57
-2.39
-5.74
-10.85
-18.68
-28.61
-38.83
-47.33
-52.85
-55.28
-55.62
-55.11
-54.5
-53.55
-51.2
-46.21
-37.78
-26.13
-12.48
1.17
12.43
18.92
18.78
11.24
-3.06
-21.92
-42.11
-60.29
-73.98
-82.24
-85.62
-85.5
-83.32
-80.04
-76.21
-72.31
-69.04
-67.2
-67.17
-68.52
-69.95
-69.85
-67.14
-61.94
-55.51
-49.65
-45.87
-44.69
-45.45
-46.4
-44.91
-37.74
-21.85
4.25
39.03
77.26
111.09
132.65
137.35
125.77
103.32
77.51
54.47
36.68
22.93
10.36
-3.12
-17.49
-31
-41.72
-48.82
-52.99
-55.75
-58.38
-61.22
-63.72
-64.9
-64.04
-61.12
-56.88
-52.55
-49.36
-48.07
-48.65
-50.31
-51.77
-51.89
-50.05
-46.44
-41.86
-37.47
-34.4
-33.51
-35.32
-39.82
-46.4
-53.94
-61.07
-66.69
-70.37
-72.53
-74.11
-76.07
-78.81
-81.85
-83.98
-83.68
-79.65
-71.08
-57.81
-40.25
-19.25
3.77
26.87
47.74
64.3
75.48
81.9
85.79
89.95
96.18
104.11
111.43
115.29
114.41
110.27
106.54
107.04
113.42
124.01
134.71
141.13
140.7
133.42
120.94
104.85
85.32
61.19
31.08
-5.27
-46.39
-89.59
-131.69
-169.4
-199.29
-217.58
-220.68
-206.62
-176.82
-136.83
-95.02
-59.69
-35.72
-22.9
-16.64
-10.85
-1.14
13.3
30.1
45.66
57.44
65.07
70
74.17
78.69
83.4
87.23
89.25
89.48
89.21
90.42
94.93
103.5
115.51
129.25
142.85
155.06
165.78
175.81
186.22
197.65
209.89
221.94
232.32
239.45
242.14
240.09
234.22
226.68
220.01
215.96
214.42
213.17
208.82
198.52
181.43
159.22
135.17
112.5
93.01
76.67
62.25
48.49
34.77
21.08
7.41
-6.91
-23.39
-44.09
-70.87
-104.55
-144.09
-186.33
-226.4
-258.87
-279.37
-286.05
-280.19
-265.55
-246.83
-227.85
-210.49
-194.64
-179.2
-163.25
-146.78
-130.73
-116.33
-104.36
-94.8
-86.99
-80.06
-73.37
-66.76
-60.39
-54.43
-48.67
-42.48
-35
-25.58
-14.2
-1.65
10.66
21.22
28.98
33.75
36.17
37.37
38.45
39.95
41.62
42.41
40.84
35.5
25.56
11.1
-6.83
-26.45
-45.8
-63.2
-77.6
-88.53
-95.93
-99.9
-100.65
-98.52
-94.11
-88.27
-81.92
-75.85
-70.55
-66.17
-62.53
-59.26
-55.81
-51.63
-46.38
-40.15
-33.61
-27.88
-24.11
-22.94
-24.08
-26.2
-27.21
-24.86
-17.59
-5.14
11.22
28.86
44.66
55.97
61.48
61.53
57.9
52.99
49.13
47.99
50.38
56.17
64.3
72.79
79.05
80.37
74.78
61.72
42.34
19.06
-5.16
-27.69
-46.7
-61.29
-71.24
-76.8
-78.53
-77.3
-74.3
-70.77
-67.79
-65.93
-65.17
-64.99
-64.71
-63.81
-62.15
-60.05
-58.09
-56.83
-56.53
-57.05
-57.88
-58.37
-57.98
-56.49
-54.03
-51.02
-47.96
-45.25
-43.09
-41.43
-40.05
-38.58
-36.75
-34.48
-31.98
-29.67
-27.95
-26.95
-26.43
-25.78
-24.29
-21.37
-16.79
-10.69
-3.48
4.22
11.77
18.54
24.06
28.07
30.56
31.77
32.02
31.65
30.86
29.77
28.36
26.59
24.39
21.78
18.83
15.71
12.62
9.72
7.11
4.75
2.56
0.44
-1.62
-3.63
-5.56
-7.44
-9.35
-11.37
-13.6
-16.03
-18.57
-20.99
-22.88
-23.73
-22.97
-20.22
-15.47
-9.13
-2.07
4.62
9.9
13.12
14.12
13.32
11.55
9.75
8.61
8.35
8.72
9.14
9.02
8.14
6.64
5.03
3.87
3.46
3.74
4.31
4.68
4.47
3.62
2.34
1.04
0.09
-0.31
-0.16
0.32
0.88
1.27
1.39
1.28
1.06
0.9
0.89
1.05
1.27
1.41
1.36
1.04
0.5
-0.18
-0.86
-1.44
-1.8
-1.83
-1.43
-0.55
0.8
2.52
4.43
6.27
7.83
8.93
9.51
9.6
9.35
8.96
8.62
8.43
8.42
8.45
8.31
7.72
6.47
4.5
1.92
-1
-3.94
-6.61
-8.81
-10.49
-11.67
-12.48
-13.03
-13.5
-13.97
-14.49
-15.05
-15.57
-15.93
-16.02
-15.8
-15.27
-14.54
-13.78
-13.19
-12.97
-13.23
-13.92
-14.85
-15.72
-16.29
-16.48
-16.44
-16.47
-16.82
-17.64
-18.87
-20.31
-21.79
-23.21
-24.55
-25.9
-27.32
-28.89
-30.67
-32.75
-35.19
-37.9
-40.54
-42.56
-43.34
-42.4
-39.62
-35.26
-29.88
-24.07
-18.36
-13.01
-8.21
-4.08
-0.79
1.43
2.46
2.33
1.4
0.18
-0.79
-1.16
-0.95
-0.52
-0.42
-1.2
-3.15
-6.2
-10.03
-14.18
-18.27
-22.14
-25.84
-29.62
-33.76
-38.49
-43.85
-49.58
-55.14
-59.74
-62.58
-63
-60.76
-56.05
-49.45
-41.76
-33.74
-25.96
-18.69
-12.02
-5.91
-0.33
4.63
8.86
12.31
15.03
17.18
18.96
20.4
21.44
21.92
21.75
20.98
19.88
18.8
18.03
17.65
17.45
17.04
15.93
13.7
10.08
5.03
-1.26
-8.32
-15.4
-21.53
-25.66
-26.95
-25.03
-20.17
-13.22
-5.4
2.17
8.82
14.45
19.42
24.22
29.1
34.03
38.61
42.37
44.98
46.36
46.64
46.12
45.07
43.72
42.16
40.47
38.68
36.82
34.84
32.69
30.28
27.57
24.58
21.43
18.24
15.01
11.55
7.51
2.49
-3.66
-10.66
-17.67
-23.5
-26.88
-27
-23.69
-17.54
-9.63
-1.16
6.91
14.15
20.51
26.24
31.55
36.56
41.18
45.23
48.51
50.89
52.32
52.82
52.55
51.7
50.58
49.44
48.45
47.62
46.84
45.93
44.77
43.34
41.69
39.87
37.84
35.48
32.63
29.23
25.36
21.23
17.17
13.39
9.98
6.81
3.64
0.19
-3.79
-8.4
-13.66
-19.39
-25.23
-30.57
-34.6
-36.52
-35.76
-32.22
-26.35
-19.05
-11.31
-3.97
2.54
8.23
13.34
18.13
22.75
27.16
31.21
34.68
37.42
39.36
40.52
41
40.98
40.64
40.21
39.89
39.82
40.02
40.34
40.5
40.17
39.07
37.12
34.4
31.21
27.85
24.65
21.8
19.35
17.18
15.11
12.92
10.44
7.64
4.57
1.39
-1.74
-4.79
-7.81
-10.99
-14.53
-18.61
-23.28
-28.39
-33.47
-37.77
-40.37
-40.44
-37.6
-32.12
-24.9
-17.12
-9.87
-3.74
1.19
5.27
8.93
12.42
15.78
18.88
21.6
23.86
25.67
27.03
27.92
28.28
28.11
27.47
26.55
25.58
24.8
24.31
24.07
23.88
23.49
22.63
21.24
19.38
17.27
15.13
13.1
11.13
9.05
6.68
3.92
0.89
-2.25
-5.22
-7.89
-10.24
-12.42
-14.69
-17.27
-20.34
-23.88
-27.63
-31.05
-33.44
-34.12
-32.61
-28.9
-23.42
-16.97
-10.41
-4.41
0.68
4.81
8.14
10.84
13.06
14.88
16.37
17.6
18.63
19.5
20.24
20.81
21.22
21.45
21.52
21.48
21.35
21.18
20.95
20.57
19.93
18.9
17.44
15.63
13.65
11.68
9.81
7.97
5.97
3.65
0.96
-1.99
-4.99
-7.8
-10.29
-12.48
-14.45
-16.36
-18.41
-20.81
-23.74
-27.25
-31.11
-34.74
-37.27
-37.81
-35.79
-31.27
-24.94
-17.92
-11.35
-5.98
-2.06
0.73
2.94
5.14
7.63
10.41
13.27
15.88
17.98
19.42
20.21
20.43
20.23
19.77
19.19
18.62
18.16
17.85
17.67
17.52
17.22
16.62
15.63
14.21
12.44
10.49
8.52
6.63
4.86
3.14
1.34
-0.68
-2.98
-5.5
-8.07
-10.53
-12.7
-14.56
-16.17
-17.72
-19.44
-21.58
-24.3
-27.58
-31.15
-34.38
-36.51
-36.78
-34.75
-30.52
-24.66
-18.08
-11.66
-6.02
-1.38
2.39
5.58
8.46
11.18
13.76
16.14
18.23
19.98
21.36
22.38
23.11
23.62
24.04
24.5
25.11
25.94
26.95
28.06
29.1
29.88
30.2
29.94
29.09
27.76
26.18
24.67
23.55
22.97
22.88
22.97
22.79
21.9
20.04
17.2
13.61
9.59
5.4
1.15
-3.23
-7.89
-12.96
-18.39
-24
-29.39
-34.11
-37.66
-39.64
-39.83
-38.24
-35.15
-31.01
-26.41
-21.86
-17.74
-14.23
-11.33
-8.94
-6.94
-5.21
-3.7
-2.4
-1.32
-0.53
-0.05
0.09
0.01
-0.16
-0.26
-0.19
0.03
0.33
0.59
0.78
0.93
1.07
1.2
1.15
0.72
-0.28
-1.88
-3.9
-6.07
-8.15
-10.05
-11.85
-13.71
-15.78
-18.14
-20.79
-23.69
-26.75
-29.77
-32.37
-34.02
-34.17
-32.45
-28.85
-23.82
-18.12
-12.59
-7.86
-4.19
-1.53
0.39
1.87
3.11
4.2
5.19
6.13
7.02
7.85
8.48
8.74
8.53
7.84
6.88
5.91
5.19
4.8
4.62
4.41
3.85
2.75
1.05
-1.15
-3.65
-6.19
-8.6
-10.8
-12.86
-14.97
-17.36
-20.21
-23.61
-27.41
-31.26
-34.58
-36.7
-37.05
-35.3
-31.56
-26.36
-20.45
-14.6
-9.39
-5.04
-1.51
1.39
3.87
6.05
7.99
9.71
11.2
12.44
13.35
13.87
13.94
13.55
12.81
11.85
10.86
9.96
9.21
8.59
7.98
7.19
6
4.25
1.9
-0.94
-4.02
-7.03
-9.77
-12.27
-14.77
-17.64
-21.17
-25.37
-29.87
-33.97
-36.8
-37.65
-36.14
-32.4
-27.01
-20.78
-14.58
-9.06
-4.56
-1.05
1.72
4.12
6.47
8.88
11.25
13.31
14.77
15.47
15.47
14.98
14.34
13.79
13.44
13.25
13.06
12.71
12.09
11.15
9.91
8.38
6.57
4.44
2
-0.75
-3.76
-7.02
-10.54
-14.41
-18.61
-22.91
-26.81
-29.59
-30.5
-29.06
-25.34
-19.83
-13.4
-6.87
-0.85
4.44
9.03
13.12
16.96
20.83
24.94
29.42
34.18
38.79
42.62
45.04
45.66
44.63
42.54
40.27
38.65
38.17
38.87
40.36
42.05
43.26
43.45
42.32
39.88
36.42
32.42
28.39
24.67
21.34
18.19
14.86
11.03
6.56
1.59
-3.53
-8.32
-12.35
-15.33
-17.18
-17.97
-17.86
-17
-15.47
-13.25
-10.31
-6.63
-2.33
2.42
7.32
12.1
16.54
20.45
23.71
26.24
27.98
28.93
29.2
29.03
28.75
28.67
28.94
29.43
29.8
29.64
28.65
26.75
24.08
20.97
17.86
15.32
14
14.48
16.94
21.01
25.78
30.15
33.43
35.57
37.14
38.8
40.62
41.81
40.89
36.49
28.09
16.45
3.38
-8.93
-18.82
-25.54
-29.34
-31.01
-31.38
-30.99
-30.03
-28.57
-26.77
-24.99
-23.61
-22.93
-22.97
-23.49
-24.21
-24.97
-25.76
-26.71
-28.04
-29.9
-32.4
-35.61
-39.44
-43.58
-47.49
-50.33
-51.24
-49.46
-44.68
-37.1
-27.41
-16.64
-5.93
3.74
11.7
17.71
21.84
24.47
26.09
27.07
27.58
27.46
26.28
23.45
18.38
10.63
0.08
-13.04
-28.19
-44.46
-60.75
-75.79
-88.39
-97.6
-102.94
-104.5
-102.85
-98.86
-93.42
-87.17
-80.41
-73.17
-65.39
-57.09
-48.5
-39.94
-31.75
-24.07
-16.86
-9.98
-3.32
3.07
9.03
14.39
19.1
23.19
26.82
30.03
32.69
34.48
35.07
34.34
32.46
29.94
27.36
25.21
23.66
22.59
21.63
20.38
18.53
16.02
12.97
9.65
6.35
3.29
0.54
-1.96
-4.37
-6.88
-9.7
-12.96
-16.69
-20.75
-24.76
-28.14
-30.21
-30.37
-28.29
-24.03
-18.03
-10.96
-3.53
3.69
10.33
16.23
21.37
25.85
29.78
33.26
36.32
38.95
41.14
42.91
44.35
45.56
46.54
47.15
47.14
46.35
44.83
42.92
41.09
39.77
39.12
39.01
39.13
39.16
38.9
38.26
37.15
35.46
33
29.65
25.44
20.6
15.44
10.25
5.23
0.38
-4.33
-8.9
-13.22
-17.17
-20.54
-23.29
-25.53
-27.53
-29.6
-31.96
-34.6
-37.26
-39.49
-40.83
-40.95
-39.76
-37.46
-34.38
-30.93
-27.43
-24.06
-20.88
-17.77
-14.58
-11.16
-7.49
-3.68
-0.01
3.22
5.74
7.45
8.42
8.83
8.93
8.91
8.94
9.08
9.35
9.71
10.08
10.31
10.22
9.72
8.82
7.65
6.39
5.2
4.13
3.12
2.04
0.81
-0.6
-2.19
-3.88
-5.57
-7.12
-8.4
-9.33
-9.95
-10.49
-11.24
-12.51
-14.38
-16.69
-19.06
-21.03
-22.2
-22.33
-21.4
-19.58
-17.1
-14.27
-11.42
-8.79
-6.55
-4.76
-3.38
-2.29
-1.34
-0.39
0.67
1.92
3.39
5.05
6.83
8.57
10.14
11.43
12.41
13.1
13.55
13.76
13.67
13.11
11.92
10.04
7.53
4.63
1.58
-1.52
-4.77
-8.53
-13.16
-18.81
-25.29
-32.11
-38.72
-44.63
-49.58
-53.38
-55.8
-56.55
-55.47
-52.76
-49.16
-45.76
-43.62
-43.26
-44.39
-46.1
-47.27
-47.11
-45.42
-42.55
-39
-35.1
-30.84
-25.99
-20.38
-14.02
-7.14
0.03
7.37
14.98
22.97
31.37
39.96
48.43
56.41
63.66
69.99
75.14
78.83
80.76
80.91
79.69
77.89
76.4
75.84
76.28
77.28
78.15
78.21
77.03
74.31
69.9
63.72
55.99
47.41
39.24
33.04
30.17
31.23
35.72
42.18
48.61
53.18
54.74
53.02
48.54
42.23
35.09
27.93
21.31
15.51
10.63
6.63
3.37
0.58
-2.05
-4.89
-8.2
-12.09
-16.42
-20.78
-24.59
-27.22
-28.15
-27.33
-25.36
-23.6
-23.82
-27.6
-35.53
-46.78
-59.17
-69.96
-76.87
-78.93
-76.68
-71.7
-65.84
-60.46
-56.12
-52.77
-50.17
-48.19
-46.93
-46.48
-46.69
-47.05
-46.85
-45.44
-42.64
-38.71
-34.26
-29.97
-26.19
-23.06
-20.47
-18.38
-16.94
-16.51
-17.3
-19.16
-21.47
-23.42
-24.4
-24.36
-23.82
-23.72
-25.13
-28.76
-34.72
-42.56
-51.35
-60.15
-68.18
-74.93
-80.14
-84.36
-88.24
-92.43
-97.35
-102.72
-108.1
-112.73
-115.68
-116.31
-115.38
-114.14
-113.76
-114.71
-115.46
-113.56
-105.36
-87.04
-56.29
-15.33
30.1
71.55
100
109.13
94.8
56.65
-1.51
-72.56
-148.6
-220.3
-278.69
-317.35
-333.05
-329.24
-313.56
-294.58
-268.4
-233.83
-191.65
-145.65
-108.92
-82.59
-64.39
-50.91
-37.15
-20.48
-1.59
17.88
36.02
51.37
64.72
76.41
87.24
98.51
111.36
125.16
138.92
151.42
161.78
170.69
178.39
185.49
192.99
201.88
212.25
224.13
237.52
252.16
267.85
282.72
293.96
298.78
295.35
283.33
264.47
241.95
219.18
198.88
181.75
166.93
153.1
139.5
126.49
115.47
108
104.77
105.15
107.13
108.24
106.66
101.91
94.68
86.07
76.91
67.34
57.15
46.33
35.35
24.95
15.42
6
-5.12
-20.14
-40.5
-66.03
-94.71
-123.4
-148.98
-169.35
-183.87
-193.08
-197.9
-199.04
-196.65
-190.52
-180.46
-166.69
-149.82
-130.81
-110.57
-89.91
-69.5
-49.99
-32.07
-16.47
-3.82
5.54
11.67
15.09
16.68
17.57
18.79
21.05
24.54
28.92
33.53
37.68
40.96
43.34
45.07
46.44
47.53
48.19
48.21
47.51
46.27
44.86
43.6
42.47
41.08
38.84
35.35
30.67
25.35
20.15
15.63
11.85
8.38
4.55
-0.19
-6
-12.69
-19.79
-26.77
-33.19
-38.55
-42.35
-44.04
-43.17
-39.61
-33.63
-25.87
-17.17
-8.25
0.47
8.95
17.45
26.25
35.46
44.78
53.63
61.32
67.37
71.67
74.44
76.15
77.14
77.53
77.18
75.89
73.55
70.26
66.32
62.02
57.54
52.87
47.91
42.62
37.12
31.6
26.18
20.82
15.31
9.37
2.91
-3.82
-10.29
-15.92
-20.38
-23.74
-26.47
-29.24
-32.6
-36.7
-41.3
-45.75
-49.25
-51.07
-50.74
-48.24
-43.97
-38.66
-33.16
-28.19
-24.08
-20.77
-17.88
-14.92
-11.55
-7.74
-3.74
0.08
3.39
6.05
8.17
9.96
11.69
13.6
15.81
18.42
21.45
24.89
28.63
32.43
35.93
38.67
40.27
40.51
39.42
37.22
34.24
30.8
27.1
23.24
19.2
14.92
10.35
5.5
0.44
-4.61
-9.32
-13.24
-15.96
-17.17
-16.83
-15.12
-12.41
-9.12
-5.65
-2.35
0.49
2.63
3.94
4.43
4.29
3.8
3.24
2.79
2.5
2.29
2.1
1.96
2.02
2.44
3.34
4.62
6.03
7.2
7.74
7.41
6.11
3.92
1.07
-2.13
-5.31
-8.06
-10.05
-11.16
-11.55
-11.71
-12.27
-13.84
-16.62
-20.35
-24.24
-27.29
-28.64
-27.8
-24.82
-20.25
-14.85
-9.44
-4.66
-0.89
1.77
3.49
4.61
5.58
6.77
8.33
10.2
12.11
13.71
14.74
15.07
14.73
13.82
12.48
10.87
9.15
7.41
5.69
3.9
1.87
-0.55
-3.36
-6.35
-9.17
-11.48
-13.08
-14.03
-14.57
-15.06
-15.78
-16.91
-18.37
-19.86
-20.89
-20.85
-19.27
-15.91
-10.96
-5.04
1.05
6.56
11.07
14.55
17.25
19.47
21.43
23.15
24.6
25.78
26.77
27.65
28.35
28.68
28.39
27.33
25.6
23.56
21.6
20
18.78
17.72
16.49
14.84
12.61
9.82
6.63
3.25
-0.09
-3.16
-5.85
-8.22
-10.5
-13.07
-16.19
-19.85
-23.68
-26.93
-28.79
-28.69
-26.48
-22.56
-17.7
-12.72
-8.26
-4.64
-1.89
0.15
1.66
2.84
3.81
4.71
5.64
6.62
7.62
8.53
9.19
9.52
9.46
9.06
8.44
7.7
6.93
6.13
5.2
4.02
2.5
0.63
-1.46
-3.61
-5.64
-7.48
-9.12
-10.63
-12.14
-13.83
-15.9
-18.5
-21.55
-24.66
-27.1
-28.09
-27.11
-24.17
-19.83
-14.96
-10.37
-6.54
-3.51
-1.01
1.29
3.59
5.92
8.22
10.39
12.35
14
15.29
16.16
16.62
16.73
16.56
16.2
15.69
15.09
14.5
14.01
13.67
13.4
12.99
12.11
10.51
8.13
5.12
1.85
-1.3
-4.05
-6.32
-8.23
-10.03
-12.02
-14.52
-17.71
-21.55
-25.73
-29.63
-32.49
-33.66
-32.81
-30.06
-25.94
-21.14
-16.29
-11.82
-7.82
-4.21
-0.86
2.36
5.51
8.62
11.71
14.75
17.62
20.15
22.11
23.33
23.8
23.63
23.07
22.4
21.83
21.4
21.08
20.76
20.31
19.69
18.87
17.85
16.65
15.29
13.78
12.12
10.27
8.19
5.89
3.41
0.83
-1.79
-4.46
-7.27
-10.34
-13.74
-17.35
-20.96
-24.26
-27.02
-29.1
-30.47
-31.04
-30.67
-29.19
-26.5
-22.78
-18.51
-14.31
-10.71
-7.89
-5.63
-3.43
-0.85
2.31
5.81
9.19
11.98
13.96
15.2
16.01
16.67
17.33
17.97
18.46
18.73
18.84
18.85
18.81
18.66
18.25
17.41
16.09
14.37
12.4
10.42
8.6
7.07
5.85
4.9
4.07
3.15
1.96
0.39
-1.55
-3.79
-6.21
-8.71
-11.26
-13.85
-16.56
-19.42
-22.44
-25.5
-28.26
-30.21
-30.8
-29.6
-26.55
-22.02
-16.75
-11.5
-6.84
-2.92
0.46
3.68
7.06
10.71
14.57
18.42
22.11
25.52
28.59
31.25
33.35
34.72
35.29
35.17
34.65
34.09
33.79
33.79
33.89
33.75
33.06
31.65
29.55
26.9
23.84
20.45
16.82
13.03
9.28
5.75
2.6
-0.05
-2.15
-3.63
-4.39
-4.4
-3.76
-2.86
-2.33
-2.83
-4.82
-8.22
-12.38
-16.26
-18.79
-19.36
-18.04
-15.5
-12.76
-10.71
-9.82
-10.11
-11.24
-12.77
-14.33
-15.65
-16.45
-16.47
-15.47
-13.38
-10.38
-6.91
-3.49
-0.54
1.73
3.38
4.63
5.75
6.96
8.34
9.8
11.1
11.95
12.12
11.54
10.3
8.55
6.45
4
1.12
-2.28
-6.13
-10.24
-14.32
-18.17
-21.82
-25.44
-29.25
-33.27
-37.24
-40.58
-42.6
-42.77
-40.89
-37.21
-32.31
-26.95
-21.82
-17.37
-13.77
-10.92
-8.64
-6.74
-5.12
-3.75
-2.63
-1.72
-1
-0.44
-0.04
0.16
0.17
0.01
-0.2
-0.38
-0.45
-0.39
-0.24
-0.02
0.23
0.47
0.58
0.39
-0.27
-1.46
-3.13
-5.04
-6.93
-8.62
-10.04
-11.26
-12.39
-13.53
-14.76
-16.15
-17.81
-19.86
-22.31
-24.97
-27.42
-29.05
-29.29
-27.82
-24.73
-20.52
-15.87
-11.45
-7.65
-4.59
-2.11
0.03
2.02
3.94
5.75
7.38
8.76
9.87
10.75
11.47
12.09
12.62
13.07
13.37
13.5
13.46
13.26
12.97
12.65
12.31
11.89
11.31
10.48
9.38
8.04
6.55
5
3.44
1.85
0.22
-1.5
-3.36
-5.38
-7.58
-9.97
-12.55
-15.35
-18.43
-21.78
-25.34
-28.83
-31.8
-33.66
-33.92
-32.34
-29.12
-24.79
-20.04
-15.49
-11.49
-8.14
-5.29
-2.76
-0.4
1.89
4.13
6.25
8.14
9.69
10.79
11.48
11.86
12.09
12.27
12.45
12.57
12.54
12.35
11.96
11.48
10.93
10.28
9.43
8.27
6.72
4.77
2.58
0.31
-1.82
-3.68
-5.27
-6.75
-8.37
-10.4
-13
-16.16
-19.73
-23.36
-26.55
-28.79
-29.55
-28.57
-25.84
-21.79
-17.05
-12.34
-8.17
-4.75
-1.95
0.46
2.69
4.8
6.72
8.37
9.71
10.82
11.78
12.61
13.28
13.72
13.91
13.89
13.75
13.52
13.22
12.85
12.36
11.77
11.07
10.2
9.04
7.47
5.42
3.02
0.48
-1.96
-4.17
-6.22
-8.31
-10.64
-13.33
-16.39
-19.74
-23.22
-26.58
-29.43
-31.24
-31.49
-29.89
-26.54
-21.97
-16.93
-12.1
-7.91
-4.36
-1.27
1.64
4.51
7.27
9.79
11.96
13.73
15.16
16.33
17.27
17.94
18.3
18.35
18.15
17.81
17.45
17.14
16.87
16.61
16.28
15.76
14.93
13.64
11.83
9.53
6.88
4.1
1.37
-1.2
-3.62
-6.01
-8.51
-11.3
-14.57
-18.39
-22.68
-27.12
-31.12
-33.97
-35
-33.85
-30.64
-25.89
-20.39
-14.84
-9.73
-5.27
-1.42
1.95
4.94
7.64
10.1
12.35
14.44
16.32
17.89
19.03
19.66
19.82
19.67
19.41
19.16
18.92
18.56
18.01
17.25
16.44
15.73
15.18
14.7
14.05
12.94
11.22
8.92
6.24
3.42
0.62
-2.09
-4.78
-7.5
-10.31
-13.23
-16.3
-19.57
-23.09
-26.77
-30.25
-32.95
-34.22
-33.59
-30.97
-26.75
-21.59
-16.23
-11.17
-6.64
-2.65
0.94
4.2
7.19
9.91
12.37
14.58
16.5
18.05
19.16
19.85
20.24
20.5
20.81
21.23
21.69
22.04
22.14
21.95
21.55
21.01
20.39
19.62
18.54
17.01
14.9
12.26
9.27
6.14
3.1
0.27
-2.36
-4.86
-7.28
-9.7
-12.13
-14.69
-17.46
-20.58
-24.03
-27.53
-30.53
-32.29
-32.18
-29.86
-25.51
-19.78
-13.55
-7.69
-2.72
1.21
4.25
6.74
8.92
10.93
12.75
14.34
15.66
16.74
17.64
18.38
18.93
19.23
19.22
18.91
18.36
17.68
16.97
16.28
15.58
14.84
13.95
12.8
11.29
9.35
6.96
4.22
1.22
-1.88
-5.03
-8.2
-11.42
-14.7
-18.03
-21.37
-24.75
-28.24
-31.99
-36.07
-40.35
-44.41
-47.63
-49.31
-49.01
-46.68
-42.71
-37.82
-32.81
-28.37
-24.96
-22.59
-20.83
-18.69
-14.92
-8.54
0.43
10.41
18.34
20.52
13.94
-2.58
-27.74
-58.02
-88.41
-113.41
-127.95
-128.25
-112.8
-82.93
-43.01
0.44
40.45
71.58
91.28
100.17
100.99
97.13
91.39
85.51
80.33
76.27
73.54
72.09
71.52
71.01
69.54
66.35
61.27
54.83
48.12
42.49
39.15
38.81
41.43
46.16
51.55
55.95
58.06
57.36
54.23
49.67
44.79
40.31
36.37
32.68
29.03
25.59
22.93
21.64
21.82
22.82
23.47
22.63
19.79
15.23
9.86
4.64
0.11
-3.74
-7.34
-11.14
-15.28
-19.62
-23.82
-27.56
-30.7
-33.24
-35.24
-36.79
-38.01
-39.02
-39.95
-40.87
-41.74
-42.39
-42.58
-42.07
-40.7
-38.41
-35.23
-31.33
-26.93
-22.35
-17.92
-13.9
-10.44
-7.52
-4.97
-2.62
-0.3
2.02
4.25
6.24
7.87
9.08
9.9
10.46
10.9
11.3
11.63
11.77
11.6
11.1
10.35
9.53
8.81
8.27
7.86
7.45
6.92
6.18
5.25
4.16
2.99
1.85
0.85
0.06
-0.55
-1.22
-2.32
-4.21
-6.95
-10.13
-12.93
-14.42
-14.04
-11.92
-8.9
-6.2
-4.79
-4.92
-5.96
-6.7
-6
-3.41
0.51
4.31
6.16
4.45
-1.62
-11.81
-24.72
-37.97
-48.53
-53.37
-50.31
-39.18
-22.56
-5.65
5.1
4.41
-9.62
-34.25
-63.06
-88.32
-104.02
-107.85
-101.42
-88.73
-73.97
-59.88
-47.33
-36.12
-26.05
-17.48
-11.19
-7.55
-5.95
-4.77
-2.07
3.41
11.6
21.03
29.51
35.17
37.27
36.46
34.41
33.01
33.62
36.56
41.17
46.18
50.35
52.98
54.04
54.01
53.4
52.31
50.32
46.65
40.79
32.87
23.82
14.97
7.39
1.32
-3.88
-9.35
-15.98
-23.93
-32.58
-41.01
-48.53
-55.24
-61.8
-69.04
-77.31
-86.14
-94.3
-100.35
-103.18
-102.42
-98.48
-92.28
-84.93
-77.36
-70.19
-63.71
-57.96
-52.85
-48.16
-43.64
-38.85
-33.27
-26.31
-17.68
-7.64
2.85
12.38
19.5
23.35
23.96
22.18
19.27
16.33
14.01
12.45
11.43
10.54
9.24
6.8
2.35
-4.87
-15.15
-27.95
-41.79
-54.58
-64.14
-68.87
-68.05
-61.89
-51.22
-37.08
-20.4
-1.92
17.64
37.4
56.21
72.77
85.96
95.29
101.06
104.3
106.4
108.63
111.86
116.38
122.02
128.29
134.48
139.76
143.27
144.3
142.46
137.85
130.98
122.65
113.61
104.4
95.27
86.28
77.46
68.91
60.89
53.63
47.32
41.92
37.2
32.73
28.05
22.89
17.28
11.59
6.36
2.08
-1.07
-3.15
-4.45
-5.25
-5.68
-5.74
-5.39
-4.68
-3.8
-3.09
-2.87
-3.32
-4.44
-5.99
-7.65
-9.05
-9.98
-10.39
-10.43
-10.38
-10.51
-10.94
-11.57
-12.08
-12.11
-11.38
-9.83
-7.65
-5.2
-2.87
-0.96
0.37
1.11
1.36
1.24
0.86
0.26
-0.6
-1.69
-2.98
-4.28
-5.29
-5.62
-4.94
-3.08
-0.11
3.66
7.77
11.71
15.06
17.51
18.88
19.13
18.25
16.31
13.47
9.95
6.11
2.3
-1.14
-4.02
-6.37
-8.39
-10.38
-12.58
-15.07
-17.78
-20.5
-23.07
-25.38
-27.42
-29.23
-30.86
-32.34
-33.72
-35.08
-36.55
-38.26
-40.29
-42.62
-45.14
-47.67
-50.04
-52.09
-53.75
-54.94
-55.62
-55.7
-55
-53.3
-50.35
-46.01
-40.35
-33.67
-26.47
-19.28
-12.52
-6.44
-1.13
3.48
7.44
10.84
13.73
16.15
18.13
19.68
20.79
21.44
21.66
21.52
21.18
20.78
20.41
20.09
19.74
19.26
18.58
17.68
16.56
15.24
13.71
11.95
9.91
7.63
5.2
2.77
0.49
-1.59
-3.53
-5.51
-7.74
-10.35
-13.31
-16.44
-19.42
-21.9
-23.56
-24.16
-23.59
-21.9
-19.34
-16.29
-13.2
-10.44
-8.19
-6.43
-4.95
-3.56
-2.15
-0.8
0.33
1.08
1.43
1.5
1.47
1.46
1.49
1.49
1.32
0.95
0.43
-0.07
-0.34
-0.27
0.1
0.56
0.75
0.37
-0.7
-2.37
-4.32
-6.13
-7.52
-8.41
-9.01
-9.67
-10.7
-12.23
-14.17
-16.23
-18.1
-19.51
-20.32
-20.46
-19.87
-18.55
-16.51
-13.89
-10.94
-7.96
-5.28
-3.06
-1.34
-0.01
1.11
2.15
3.16
4.13
5.03
5.8
6.45
6.99
7.49
7.98
8.49
9.02
9.5
9.92
10.22
10.38
10.37
10.16
9.74
9.12
8.32
7.36
6.22
4.81
3.05
0.9
-1.59
-4.2
-6.77
-9.2
-11.56
-13.97
-16.51
-19.12
-21.48
-23.24
-24.09
-23.86
-22.63
-20.59
-18.05
-15.29
-12.6
-10.16
-8.09
-6.38
-4.93
-3.6
-2.36
-1.21
-0.25
0.41
0.76
0.79
0.6
0.23
-0.23
-0.71
-1.08
-1.16
-0.78
0.12
1.44
2.97
4.43
5.64
6.6
7.44
8.31
9.26
10.22
11.04
11.59
11.84
11.89
11.83
11.74
11.57
11.19
10.41
9.09
7.2
4.86
2.31
-0.09
-1.93
-2.9
-2.83
-1.77
0.02
2.13
4.14
5.72
6.68
7.02
6.85
6.4
5.88
5.46
5.22
5.19
5.33
5.59
5.9
6.2
6.4
6.44
6.28
5.93
5.46
4.96
4.54
4.2
3.88
3.39
2.62
1.49
0.1
-1.43
-2.95
-4.39
-5.79
-7.28
-9.01
-11.05
-13.36
-15.77
-17.93
-19.43
-19.92
-19.2
-17.35
-14.74
-11.87
-9.2
-7.01
-5.37
-4.21
-3.42
-2.93
-2.73
-2.78
-2.98
-3.16
-3.2
-3.06
-2.86
-2.83
-3.16
-3.95
-5.17
-6.67
-8.3
-9.94
-11.58
-13.24
-14.98
-16.81
-18.68
-20.49
-22.12
-23.53
-24.77
-25.98
-27.33
-28.96
-30.93
-33.17
-35.52
-37.7
-39.35
-39.98
-39.14
-36.49
-31.97
-25.81
-18.58
-10.97
-3.63
2.96
8.56
13.09
16.63
19.29
21.25
22.71
23.84
24.77
25.49
25.93
25.91
25.35
24.27
22.86
21.36
20.06
19.12
18.6
18.43
18.49
18.65
18.75
18.64
18.12
17.05
15.36
13.11
10.49
7.72
4.94
2.17
-0.66
-3.57
-6.36
-8.62
-9.84
-9.61
-7.89
-5.03
-1.69
1.45
3.96
5.78
7.19
8.6
10.28
12.25
14.29
16.07
17.4
18.3
19.04
20
21.46
23.52
25.98
28.47
30.57
32.01
32.83
33.34
33.96
35.08
36.9
39.27
41.85
44.21
45.85
46.18
44.51
40.15
32.75
22.66
11.13
-0.02
-8.95
-14.56
-16.9
-16.94
-16.07
-15.41
-15.42
-15.98
-16.71
-17.4
-18.02
-18.69
-19.41
-19.93
-19.91
-19.09
-17.5
-15.46
-13.47
-12.02
-11.32
-11.28
-11.59
-11.81
-11.64
-10.97
-9.9
-8.71
-7.65
-6.92
-6.61
-6.65
-6.98
-7.53
-8.29
-9.35
-10.77
-12.59
-14.65
-16.66
-18.24
-19.05
-18.95
-18.03
-16.58
-14.9
-13.21
-11.59
-9.97
-8.22
-6.21
-3.83
-1.01
2.18
5.57
8.83
11.6
13.58
14.69
15.1
15.16
15.24
15.58
16.25
17.13
18.03
18.78
19.24
19.31
18.94
18.05
16.61
14.64
12.23
9.52
6.59
3.5
0.15
-3.56
-7.69
-12.02
-16.04
-18.96
-19.95
-18.49
-14.54
-8.62
-1.61
5.57
12.15
17.66
21.83
24.55
25.86
25.99
25.42
24.72
24.35
24.42
24.64
24.43
23.29
21.08
18.04
14.74
11.75
9.46
7.93
6.98
6.28
5.48
4.34
2.79
0.93
-0.99
-2.68
-3.92
-4.71
-5.28
-5.99
-7.15
-8.83
-10.85
-12.88
-14.64
-16.11
-17.52
-19.3
-21.81
-25.21
-29.35
-33.81
-37.96
-41.16
-42.79
-42.35
-39.67
-34.89
-28.55
-21.46
-14.46
-8.19
-2.94
1.37
5.07
8.47
11.78
15.02
18.08
20.82
23.15
25.05
26.54
27.63
28.33
28.66
28.67
28.5
28.29
28.16
28.13
28.1
27.88
27.29
26.21
24.62
22.64
20.44
18.21
16.13
14.25
12.54
10.85
9
6.82
4.27
1.45
-1.46
-4.27
-6.87
-9.25
-11.5
-13.75
-16.12
-18.74
-21.75
-25.25
-29.19
-33.33
-37.12
-39.81
-40.65
-39.15
-35.31
-29.65
-23.05
-16.46
-10.57
-5.68
-1.68
1.74
4.9
7.93
10.81
13.38
15.54
17.28
18.67
19.84
20.83
21.6
22.06
22.13
21.85
21.34
20.79
20.37
20.15
20.1
20.05
19.83
19.25
18.21
16.7
14.82
12.76
10.73
8.94
7.45
6.18
4.94
3.46
1.54
-0.86
-3.62
-6.49
-9.18
-11.51
-13.46
-15.19
-16.99
-19.17
-21.92
-25.28
-28.99
-32.58
-35.38
-36.73
-36.12
-33.44
-28.97
-23.4
-17.56
-12.11
-7.43
-3.53
-0.19
2.83
5.69
8.41
10.91
13.11
15
16.58
17.87
18.85
19.43
19.57
19.28
18.65
17.89
17.19
16.74
16.57
16.57
16.54
16.27
15.65
14.66
13.42
12.05
10.61
9.16
7.69
6.21
4.74
3.25
1.69
-0.04
-2.02
-4.23
-6.54
-8.77
-10.74
-12.43
-13.94
-15.51
-17.4
-19.81
-22.72
-25.85
-28.74
-30.77
-31.4
-30.29
-27.43
-23.16
-18.07
-12.86
-8.1
-4.13
-0.99
1.48
3.51
5.31
7
8.63
10.17
11.6
12.85
13.89
14.66
15.14
15.33
15.27
15.06
14.79
14.56
14.42
14.37
14.32
14.14
13.65
12.71
11.32
9.6
7.76
6.01
4.51
3.22
2.06
0.88
-0.47
-2.06
-3.9
-5.91
-8.02
-10.13
-12.18
-14.17
-16.16
-18.25
-20.52
-22.95
-25.37
-27.45
-28.75
-28.84
-27.44
-24.54
-20.44
-15.69
-10.93
-6.68
-3.24
-0.67
1.17
2.49
3.48
4.28
4.94
5.53
6.07
6.58
7.09
7.58
8.01
8.33
8.47
8.39
8.07
7.54
6.87
6.11
5.27
4.25
2.92
1.14
-1.1
-3.64
-6.24
-8.61
-10.62
-12.34
-14
-15.88
-18.18
-20.96
-24.09
-27.27
-30.06
-31.98
-32.57
-31.52
-28.81
-24.74
-19.92
-15.01
-10.56
-6.82
-3.75
-1.15
1.16
3.29
5.18
6.75
7.95
8.8
9.35
9.66
9.72
9.6
9.34
9.11
9.02
9.13
9.34
9.42
9.08
8.13
6.52
4.37
1.85
-0.87
-3.67
-6.51
-9.37
-12.24
-15.17
-18.2
-21.49
-25.09
-28.92
-32.59
-35.47
-36.81
-36.05
-33.05
-28.22
-22.35
-16.35
-10.94
-6.46
-2.85
0.21
3.01
5.74
8.38
10.84
13
14.84
16.4
17.67
18.6
19.04
18.87
18.08
16.86
15.52
14.42
13.73
13.39
13.06
12.32
10.84
8.55
5.64
2.47
-0.57
-3.25
-5.54
-7.62
-9.82
-12.49
-15.91
-20.12
-24.89
-29.61
-33.48
-35.64
-35.48
-32.88
-28.24
-22.36
-16.13
-10.3
-5.22
-0.92
2.79
6.12
9.22
12.15
14.88
17.4
19.66
21.61
23.19
24.34
25.04
25.34
25.39
25.35
25.35
25.45
25.58
25.59
25.29
24.53
23.26
21.57
19.59
17.52
15.44
13.38
11.27
9.01
6.54
3.86
1.01
-1.92
-4.88
-7.89
-11.01
-14.37
-18.12
-22.33
-26.9
-31.48
-35.46
-38.08
-38.64
-36.77
-32.54
-26.53
-19.63
-12.74
-6.53
-1.3
3.01
6.64
9.87
12.87
15.66
18.19
20.37
22.19
23.62
24.71
25.45
25.84
25.88
25.58
25.02
24.28
23.47
22.62
21.77
20.89
19.93
18.85
17.6
16.17
14.52
12.63
10.47
8.05
5.36
2.5
-0.42
-3.32
-6.11
-8.8
-11.47
-14.23
-17.24
-20.61
-24.37
-28.38
-32.33
-35.71
-37.92
-38.42
-36.89
-33.39
-28.35
-22.48
-16.53
-11.07
-6.44
-2.67
0.39
2.91
5.03
6.85
8.42
9.8
11.04
12.16
13.16
14.01
14.66
15.1
15.33
15.37
15.26
15.02
14.71
14.36
13.94
13.36
12.46
11.1
9.2
6.81
4.12
1.4
-1.14
-3.38
-5.38
-7.37
-9.61
-12.37
-15.75
-19.65
-23.71
-27.29
-29.69
-30.28
-28.77
-25.3
-20.39
-14.81
-9.28
-4.36
-0.28
2.96
5.53
7.58
9.25
10.6
11.66
12.48
13.08
13.52
13.8
13.93
13.91
13.75
13.5
13.2
12.91
12.64
12.32
11.82
10.97
9.63
7.73
5.26
2.33
-0.85
-4.01
-6.88
-9.32
-11.41
-13.48
-15.95
-19.18
-23.11
-27.21
-30.56
-32.19
-31.45
-28.3
-23.3
-17.37
-11.46
-6.23
-2
1.27
3.72
5.56
6.98
8.14
9.25
10.49
11.94
13.53
15.04
16.2
16.8
16.79
16.31
15.68
15.15
14.89
14.81
14.64
14.05
12.78
10.81
8.31
5.62
3.04
0.71
-1.41
-3.5
-5.8
-8.54
-11.81
-15.63
-19.8
-23.92
-27.32
-29.27
-29.15
-26.78
-22.53
-17.23
-11.87
-7.18
-3.44
-0.43
2.3
5.16
8.3
11.55
14.63
17.25
19.25
20.63
21.51
21.94
21.98
21.63
20.93
19.98
18.97
18.1
17.53
17.26
17.08
16.68
15.72
13.97
11.46
8.41
5.15
2.01
-0.82
-3.33
-5.64
-7.95
-10.5
-13.51
-17.04
-20.94
-24.8
-27.94
-29.63
-29.3
-26.85
-22.62
-17.34
-11.82
-6.66
-2.15
1.7
5.05
8.1
10.95
13.69
16.29
18.68
20.72
22.22
23.09
23.34
23.14
22.7
22.22
21.77
21.33
20.8
20.17
19.47
18.77
18.09
17.33
16.38
15.15
13.62
11.91
10.14
8.4
6.62
4.63
2.26
-0.53
-3.61
-6.7
-9.51
-11.84
-13.71
-15.3
-16.95
-18.99
-21.68
-25.06
-28.9
-32.73
-35.84
-37.5
-37.13
-34.52
-29.95
-24.11
-17.9
-12.13
-7.29
-3.49
-0.46
2.23
4.95
7.88
10.93
13.84
16.32
18.22
19.53
20.4
20.98
21.36
21.52
21.42
21.05
20.55
20.07
19.76
19.68
19.7
19.65
19.35
18.66
17.52
15.97
14.08
12
9.9
7.95
6.27
4.84
3.53
2.16
0.59
-1.23
-3.25
-5.3
-7.29
-9.15
-10.9
-12.66
-14.57
-16.76
-19.33
-22.3
-25.58
-28.92
-31.88
-33.83
-34.17
-32.51
-28.89
-23.83
-18.17
-12.77
-8.24
-4.72
-1.96
0.48
2.99
5.73
8.59
11.33
13.67
15.44
16.59
17.21
17.45
17.48
17.38
17.21
16.99
16.76
16.59
16.57
16.69
16.86
16.89
16.58
15.83
14.69
13.29
11.78
10.27
8.75
7.19
5.52
3.71
1.73
-0.41
-2.7
-5.03
-7.29
-9.36
-11.21
-12.92
-14.74
-16.93
-19.68
-23.01
-26.66
-30.19
-33.03
-34.62
-34.52
-32.54
-28.81
-23.75
-18.03
-12.33
-7.22
-2.98
0.4
3.12
5.42
7.44
9.23
10.75
12.03
13.15
14.26
15.4
16.49
17.34
17.73
17.61
17.06
16.35
15.73
15.29
14.96
14.49
13.68
12.44
10.91
9.27
7.71
6.25
4.75
3
0.86
-1.65
-4.34
-7
-9.47
-11.73
-13.9
-16.17
-18.68
-21.51
-24.61
-27.82
-30.86
-33.32
-34.68
-34.47
-32.42
-28.57
-23.36
-17.46
-11.61
-6.38
-2.09
1.28
3.94
6.2
8.27
10.24
12.06
13.6
14.77
15.52
15.9
15.99
15.89
15.72
15.59
15.6
15.78
16.09
16.37
16.44
16.12
15.4
14.32
12.99
11.46
9.74
7.75
5.49
3.01
0.44
-2.06
-4.43
-6.67
-8.86
-11.06
-13.32
-15.69
-18.27
-21.16
-24.47
-28.11
-31.73
-34.75
-36.49
-36.39
-34.27
-30.33
-25.16
-19.48
-13.97
-9.04
-4.86
-1.33
1.77
4.65
7.43
10.1
12.58
14.74
16.49
17.8
18.72
19.32
19.69
19.9
20
20
19.9
19.66
19.28
18.73
18.01
17.09
15.95
14.56
12.9
10.99
8.86
6.59
4.22
1.81
-0.61
-3
-5.38
-7.75
-10.15
-12.67
-15.44
-18.55
-22.04
-25.79
-29.42
-32.39
-34.01
-33.73
-31.33
-27.03
-21.48
-15.49
-9.79
-4.83
-0.69
2.76
5.69
8.24
10.41
12.21
13.67
14.87
15.94
16.96
17.94
18.83
19.58
20.12
20.44
20.52
20.37
20.01
19.43
18.64
17.62
16.35
14.83
13.05
11.1
9.01
6.86
4.66
2.4
0.06
-2.37
-4.86
-7.39
-9.97
-12.68
-15.65
-18.98
-22.7
-26.63
-30.35
-33.22
-34.54
-33.77
-30.71
-25.69
-19.44
-12.88
-6.81
-1.72
2.33
5.56
8.27
10.71
13
15.18
17.23
19.09
20.7
21.97
22.81
23.17
23.08
22.65
22.08
21.5
21
20.58
20.11
19.41
18.34
16.88
15.11
13.19
11.29
9.46
7.62
5.62
3.36
0.85
-1.81
-4.43
-6.89
-9.17
-11.35
-13.56
-15.96
-18.72
-21.96
-25.65
-29.54
-33.09
-35.55
-36.17
-34.47
-30.46
-24.65
-17.93
-11.27
-5.36
-0.52
3.34
6.55
9.47
12.32
15.08
17.58
19.58
20.95
21.7
22
22.09
22.23
22.58
23.16
23.88
24.56
24.99
24.99
24.51
23.61
22.48
21.32
20.25
19.3
18.35
17.29
16.05
14.6
12.99
11.25
9.34
7.28
5.06
2.75
0.39
-2.07
-4.78
-7.9
-11.51
-15.43
-19.2
-22.12
-23.57
-23.16
-20.92
-17.26
-12.82
-8.36
-4.48
-1.48
0.68
2.39
4.19
6.54
9.57
13.05
16.39
18.98
20.51
21.07
21.14
21.28
21.86
22.85
23.96
24.61
24.33
23.05
21.13
19.32
18.35
18.63
20.01
21.83
22.79
21.83
18.56
13.56
8.09
3.51
0.73
-0.04
1
2.75
3.96
3.21
-0.81
-9.04
-21.76
-38.2
-56.64
-74.84
-91.67
-107.1
-122.18
-138.11
-155.22
-172.54
-188
-199.34
-200.18
-186.88
-159.7
-123.51
-85.4
-50.96
-21.88
3.67
28.78
55.14
80.34
100.44
110.99
109.41
96.64
76.75
55.28
37.05
24.55
17.14
13.11
10.7
9.25
9.28
11.52
15.89
21.24
25.88
28.28
28.09
25.95
23.12
20.77
19.35
18.55
17.7
16.32
14.31
12.17
10.59
10.23
11.48
14.29
18.16
22.39
26.25
29.07
30.5
30.4
28.94
26.54
23.72
20.91
18.37
16.16
14.26
12.62
11.22
10.02
8.94
7.88
6.78
5.72
4.84
4.34
4.23
4.3
4.16
3.41
1.89
-0.22
-2.46
-4.34
-5.54
-6.1
-6.34
-6.68
-7.43
-8.73
-10.55
-12.8
-15.48
-18.55
-21.87
-24.99
-27.26
-28
-26.82
-23.89
-19.9
-15.73
-12.05
-9.04
-6.4
-3.66
-0.55
2.8
5.89
8.14
9.24
9.28
8.74
8.2
8.08
8.45
9.08
9.66
10.01
10.17
10.3
10.45
10.44
9.83
8.18
5.3
1.41
-2.92
-6.99
-10.3
-12.73
-14.56
-16.33
-18.63
-21.86
-26.13
-31.16
-36.25
-40.51
-42.98
-43
-40.37
-35.4
-28.79
-21.42
-14.08
-7.37
-1.59
3.25
7.34
11
14.61
18.42
22.54
26.86
31.12
34.98
38.17
40.51
41.98
42.69
42.83
42.64
42.34
42.04
41.7
41.07
39.78
37.43
33.76
28.88
23.19
17.38
12.13
7.87
4.73
2.53
0.91
-0.58
-2.38
-4.81
-8.11
-12.31
-17.23
-22.49
-27.54
-31.79
-34.68
-35.75
-34.7
-31.55
-26.65
-20.75
-14.81
-9.67
-5.83
-3.23
-1.37
0.39
2.55
5.23
8.25
11.22
13.76
15.66
16.89
17.56
17.9
18.12
18.39
18.8
19.3
19.81
20.16
20.27
20.1
19.66
18.99
18.09
16.88
15.33
13.38
11.11
8.61
6.01
3.33
0.51
-2.56
-5.99
-9.79
-13.87
-18.14
-22.53
-27.14
-32.1
-37.52
-43.24
-48.88
-53.84
-57.47
-59.34
-59.43
-58.07
-55.86
-53.4
-51.12
-49.15
-47.4
-45.59
-43.31
-40.14
-35.7
-29.8
-22.49
-14.15
-5.4
3.1
10.86
17.59
23.26
27.98
31.98
35.58
39.16
43.07
47.55
52.61
58.06
63.54
68.63
72.93
76.11
77.87
77.95
76.1
72.18
66.16
58.2
48.66
38.03
26.96
16.15
6.21
-2.41
-9.55
-15.22
-19.49
-22.43
-24.05
-24.39
-23.65
-22.17
-20.39
-18.65
-17.09
-15.63
-14.06
-12.27
-10.36
-8.58
-7.24
-6.52
-6.32
-6.31
-6.07
-5.24
-3.69
-1.54
0.88
3.14
4.92
6
6.41
6.28
5.79
5.06
4.16
3.09
1.89
0.64
-0.61
-1.87
-3.18
-4.6
-6.12
-7.68
-9.22
-10.81
-12.59
-14.76
-17.3
-19.99
-22.27
-23.52
-23.26
-21.32
-17.92
-13.54
-8.82
-4.3
-0.39
2.68
4.92
6.52
7.83
9.23
11.02
13.25
15.76
18.21
20.2
21.5
22.01
21.9
21.43
20.93
20.68
20.81
21.28
21.89
22.32
22.25
21.49
20.03
18.03
15.74
13.38
11.05
8.79
6.58
4.38
2.17
-0.1
-2.53
-5.19
-8.08
-11.1
-14.09
-16.87
-19.42
-21.8
-24.17
-26.64
-29.06
-31.04
-32.03
-31.52
-29.28
-25.45
-20.53
-15.24
-10.23
-5.98
-2.66
-0.23
1.51
2.77
3.77
4.68
5.63
6.68
7.81
8.94
9.99
10.89
11.64
12.3
12.97
13.7
14.46
15.15
15.62
15.75
15.49
14.88
14.02
13
11.86
10.57
9.15
7.61
5.99
4.34
2.63
0.81
-1.17
-3.25
-5.3
-7.15
-8.71
-10.07
-11.5
-13.34
-15.86
-19.07
-22.67
-26.09
-28.63
-29.7
-28.97
-26.5
-22.71
-18.25
-13.78
-9.78
-6.45
-3.73
-1.44
0.67
2.72
4.72
6.58
8.18
9.46
10.45
11.22
11.86
12.39
12.79
12.98
12.95
12.79
12.63
12.61
12.73
12.86
12.75
12.2
11.07
9.38
7.28
4.95
2.54
0.1
-2.33
-4.76
-7.12
-9.37
-11.48
-13.54
-15.71
-18.22
-21.13
-24.26
-27.14
-29.1
-29.55
-28.2
-25.21
-21.12
-16.59
-12.25
-8.46
-5.35
-2.92
-1.08
0.32
1.45
2.56
3.91
5.61
7.61
9.65
11.41
12.66
13.34
13.57
13.54
13.42
13.26
13.03
12.66
12.12
11.43
10.58
9.58
8.38
6.94
5.23
3.22
0.95
-1.56
-4.24
-7.02
-9.81
-12.56
-15.26
-18.01
-20.92
-24.16
-27.78
-31.7
-35.67
-39.23
-41.92
-43.27
-43
-41.06
-37.7
-33.39
-28.74
-24.34
-20.57
-17.54
-15.06
-12.79
-10.44
-7.85
-5.06
-2.29
0.3
2.63
4.77
6.84
8.96
11.11
13.18
15.03
16.62
18
19.31
20.62
21.92
23.02
23.63
23.52
22.58
20.94
18.85
16.58
14.35
12.21
10.14
8.01
5.7
3.11
0.13
-3.35
-7.35
-11.73
-16.12
-19.93
-22.49
-23.23
-21.92
-18.7
-14.11
-8.9
-3.81
0.65
4.22
6.95
9.07
10.8
12.34
13.74
15
16.14
17.2
18.25
19.35
20.47
21.49
22.2
22.44
22.21
21.65
21.03
20.59
20.44
20.43
20.26
19.57
18.12
15.86
12.99
9.8
6.57
3.42
0.35
-2.79
-6.09
-9.62
-13.34
-17.21
-21.23
-25.36
-29.45
-33.12
-35.74
-36.64
-35.31
-31.7
-26.3
-19.96
-13.64
-8.06
-3.52
0.06
2.98
5.52
7.86
10.07
12.1
13.9
15.41
16.56
17.27
17.51
17.31
16.81
16.17
15.54
14.99
14.46
13.81
12.92
11.71
10.13
8.2
6
3.57
0.99
-1.66
-4.36
-7.05
-9.72
-12.33
-14.86
-17.25
-19.48
-21.56
-23.55
-25.54
-27.69
-30.1
-32.77
-35.49
-37.78
-39.01
-38.51
-35.91
-31.23
-24.98
-18
-11.13
-5
0.15
4.4
8.01
11.26
14.33
17.28
20.1
22.71
25.05
27.03
28.55
29.53
29.95
29.86
29.4
28.79
28.23
27.88
27.75
27.73
27.64
27.26
26.51
25.39
24.08
22.73
21.45
20.15
18.63
16.64
14
10.76
7.19
3.64
0.43
-2.33
-4.75
-7.12
-9.79
-13.03
-16.95
-21.41
-26
-30.07
-32.85
-33.66
-32.12
-28.34
-22.89
-16.62
-10.41
-4.89
-0.36
3.23
6.1
8.5
10.7
12.87
15.1
17.34
19.43
21.15
22.31
22.88
23.02
22.97
22.96
23.07
23.23
23.33
23.26
23
22.57
21.96
21.12
19.97
18.45
16.6
14.55
12.44
10.38
8.35
6.24
3.9
1.29
-1.48
-4.2
-6.65
-8.74
-10.59
-12.51
-14.86
-17.96
-21.9
-26.53
-31.43
-35.94
-39.31
-40.81
-39.95
-36.65
-31.3
-24.67
-17.69
-11.17
-5.57
-0.94
2.91
6.24
9.24
11.91
14.2
16.04
17.44
18.52
19.4
20.17
20.83
21.34
21.66
21.8
21.87
21.94
22.07
22.19
22.15
21.73
20.79
19.31
17.4
15.28
13.22
11.43
9.97
8.74
7.53
6.13
4.37
2.24
-0.18
-2.73
-5.27
-7.7
-10.02
-12.31
-14.72
-17.46
-20.65
-24.32
-28.22
-31.78
-34.27
-34.97
-33.49
-29.96
-24.97
-19.4
-14.05
-9.42
-5.64
-2.53
0.18
2.69
5.01
7.12
8.94
10.44
11.62
12.48
13.02
13.26
13.22
13.04
12.88
12.9
13.22
13.79
14.47
15.05
15.34
15.19
14.57
13.5
12.06
10.32
8.35
6.27
4.15
2.09
0.14
-1.71
-3.47
-5.23
-7.06
-8.97
-10.98
-13.09
-15.38
-18
-21.18
-25.02
-29.29
-33.41
-36.49
-37.68
-36.46
-32.9
-27.62
-21.54
-15.53
-10.15
-5.56
-1.63
1.85
5.02
7.91
10.5
12.76
14.7
16.35
17.79
19.05
20.13
21.09
21.94
22.7
23.4
24.05
24.59
24.93
24.95
24.57
23.76
22.55
21.06
19.43
17.77
16.18
14.63
13.04
11.24
9.13
6.69
4.07
1.46
-0.89
-2.79
-4.2
-5.17
-5.87
-6.55
-7.49
-8.89
-10.85
-13.21
-15.45
-16.9
-16.86
-14.91
-11.12
-6.01
-0.39
4.97
9.5
13
15.5
17.14
18.09
18.51
18.58
18.44
18.23
17.93
17.39
16.42
14.82
12.62
10.01
7.34
4.94
3
1.46
0.09
-1.41
-3.21
-5.27
-7.4
-9.32
-10.85
-12.01
-12.93
-13.77
-14.63
-15.45
-16.13
-16.62
-16.97
-17.34
-17.92
-18.85
-20.25
-22.2
-24.81
-28.06
-31.73
-35.29
-37.97
-39
-37.86
-34.54
-29.48
-23.47
-17.36
-11.79
-7.14
-3.48
-0.67
1.49
3.25
4.82
6.33
7.84
9.31
10.66
11.82
12.76
13.51
14.1
14.63
15.11
15.57
15.98
16.37
16.73
17.07
17.38
17.59
17.65
17.51
17.19
16.72
16.1
15.33
14.42
13.53
12.81
12.44
12.45
12.65
12.67
12.05
10.51
7.96
4.63
0.75
-3.47
-8.01
-13.12
-19.19
-26.49
-34.81
-43.31
-50.42
-54.44
-54.03
-48.7
-39.17
-27.32
-15.62
-6.43
-1.49
-1.32
-5.53
-12.53
-19.55
-23.29
-20.87
-10.65
7.09
30.1
55.15
78.58
97.59
110.84
117.97
118.62
112.35
98.88
78.72
53.93
27.11
1.1
-20.11
-32.84
-35.37
-28.8
-16.49
-5.06
2.97
6.49
4.41
-4.72
-20.96
-44.01
-71.75
-99.96
-123.15
-135.82
-135.03
-121.05
-96.91
-67.45
-38.07
-13.06
5.21
16.38
21.92
23.75
23.89
24.23
26.17
30.34
36.77
44.92
53.73
61.66
66.6
66.51
60.37
48.86
34.33
20.5
11.2
9.2
15.31
28.12
44.61
61.37
75.56
85.49
90.65
91.36
88.33
82.46
74.74
66.38
58.79
53.31
50.69
50.77
52.36
53.66
52.82
48.71
41.24
31.31
20.35
9.71
0.24
-7.75
-14.33
-19.57
-23.4
-25.64
-26.29
-25.78
-25.03
-25.21
-27.29
-31.69
-38.04
-45.36
-52.44
-58.31
-62.47
-65.01
-66.37
-67.15
-67.73
-68.26
-68.61
-68.42
-67.24
-64.67
-60.54
-55.07
-48.93
-43.02
-38.18
-34.78
-32.6
-30.94
-29.08
-26.63
-23.63
-20.46
-17.52
-15.2
-13.94
-14.27
-16.64
-21.11
-27.02
-33.04
-37.77
-40.32
-40.69
-39.54
-37.6
-35.08
-31.63
-26.7
-20.14
-12.53
-4.91
1.72
6.86
10.61
13.33
15.22
16.19
15.94
14.31
11.54
8.27
5.37
3.6
3.4
4.71
7.11
9.91
12.43
14.21
15.15
15.52
15.81
16.54
18.1
20.71
24.4
29.07
34.46
40.1
45.28
49.25
51.45
51.89
51.23
50.59
51.02
52.9
55.5
57.09
55.43
48.61
35.8
17.65
-3.8
-25.63
-44.82
-58.91
-66.61
-67.88
-63.85
-56.38
-47.59
-39.43
-33.34
-30.11
-29.85
-32.04
-35.73
-39.77
-43.05
-44.73
-44.4
-42.13
-38.35
-33.68
-28.76
-24.06
-19.88
-16.35
-13.45
-11.11
-9.26
-7.81
-6.69
-5.79
-4.97
-4.12
-3.14
-1.99
-0.71
0.6
1.81
2.81
3.54
4.07
4.57
5.26
6.24
7.44
8.48
8.82
7.86
5.24
1.02
-4.31
-9.97
-15.15
-19.26
-22.14
-23.93
-24.99
-25.65
-26.08
-26.28
-26.1
-25.49
-24.44
-23.07
-21.55
-20.01
-18.56
-17.26
-16.12
-15.04
-13.84
-12.26
-10.06
-7.22
-3.91
-0.57
2.38
4.72
6.66
8.77
11.66
15.62
20.25
24.53
27.01
26.46
22.38
15.25
6.48
-2.2
-9.26
-13.86
-15.96
-16.13
-15.06
-13.31
-11.17
-8.77
-6.25
-3.87
-1.99
-0.9
-0.66
-1.1
-1.87
-2.62
-3.14
-3.33
-3.07
-2.19
-0.35
2.7
6.99
12.19
17.61
22.55
26.46
29.27
31.17
32.43
33.02
32.52
30.27
25.74
18.96
10.59
1.82
-6.11
-12.31
-16.44
-18.73
-19.7
-19.94
-19.8
-19.42
-18.78
-17.82
-16.63
-15.4
-14.38
-13.73
-13.43
-13.21
-12.72
-11.7
-10.13
-8.32
-6.7
-5.67
-5.32
-5.38
-5.4
-4.95
-3.87
-2.29
-0.61
0.71
1.33
1.13
0.29
-0.83
-1.77
-2.1
-1.61
-0.34
1.38
3.03
4.09
4.23
3.33
1.56
-0.81
-3.46
-6.07
-8.35
-10.08
-11.05
-11.17
-10.49
-9.18
-7.52
-5.78
-4.18
-2.86
-1.84
-1.05
-0.32
0.52
1.64
3.1
4.82
6.66
8.39
9.84
10.91
11.62
12.04
12.27
12.43
12.61
12.84
13.08
13.22
13.11
12.7
11.98
11.09
10.17
9.33
8.61
7.98
7.4
6.83
6.28
5.73
5.11
4.34
3.37
2.21
0.88
-0.59
-2.23
-4.07
-6.05
-7.93
-9.28
-9.6
-8.53
-6.03
-2.49
1.39
4.85
7.28
8.45
8.49
7.82
6.96
6.3
6.05
6.19
6.54
6.86
7.02
6.95
6.72
6.46
6.36
6.54
7.07
7.83
8.57
8.99
8.85
8.06
6.8
5.39
4.21
3.52
3.37
3.6
3.96
4.14
3.95
3.25
2.07
0.49
-1.3
-3.1
-4.75
-6.19
-7.46
-8.58
-9.58
-10.37
-10.8
-10.75
-10.21
-9.34
-8.39
-7.61
-7.15
-6.98
-6.97
-6.95
-6.8
-6.45
-5.88
-5.13
-4.25
-3.31
-2.41
-1.6
-0.93
-0.32
0.3
1
1.75
2.39
2.75
2.72
2.36
1.87
1.48
1.36
1.51
1.84
2.19
2.44
2.53
2.48
2.35
2.15
1.9
1.54
1.01
0.25
-0.73
-1.89
-3.14
-4.42
-5.66
-6.83
-7.86
-8.61
-8.98
-8.88
-8.41
-7.75
-7.17
-6.84
-6.76
-6.77
-6.6
-6.03
-4.97
-3.43
-1.58
0.37
2.19
3.74
4.95
5.88
6.61
7.25
7.82
8.29
8.63
8.82
8.95
9.07
9.21
9.31
9.26
9.04
8.71
8.44
8.37
8.53
8.74
8.73
8.3
7.43
6.3
5.22
4.38
3.81
3.33
2.69
1.69
0.31
-1.32
-2.99
-4.55
-5.94
-7.15
-8.19
-9
-9.46
-9.47
-9
-8.14
-7.06
-5.92
-4.83
-3.72
-2.52
-1.09
0.56
2.27
3.83
5.05
5.87
6.38
6.75
7.11
7.49
7.83
8.03
8.06
7.97
7.88
7.91
8.09
8.37
8.66
8.83
8.83
8.66
8.31
7.85
7.34
6.81
6.29
5.78
5.22
4.55
3.75
2.87
1.98
1.19
0.49
-0.19
-1.03
-2.16
-3.65
-5.43
-7.36
-9.27
-11.02
-12.53
-13.74
-14.63
-15.2
-15.44
-15.38
-15.04
-14.48
-13.79
-13.08
-12.51
-12.23
-12.35
-12.92
-13.94
-15.31
-16.91
-18.62
-20.34
-22.02
-23.75
-25.72
-28.18
-31.37
-35.36
-40.02
-45.06
-50.1
-54.88
-59.37
-63.82
-68.56
-73.93
-80.06
-86.84
-93.93
-100.94
-107.35
-112.47
-115.52
-115.82
-113.33
-109.05
-104.89
-102.97
-104.49
-109.04
-114.49
-117.94
-116.89
-110.23
-98.39
-82.69
-64.49
-44.53
-22.93
0.35
25.01
50.19
74.66
97.2
116.81
132.79
144.6
151.87
154.41
152.46
146.83
138.88
130.23
122.32
115.92
110.99
106.77
102.28
96.65
89.55
81.2
72.12
63
54.39
46.68
40.09
34.68
30.45
27.29
25.03
23.37
22
20.62
19.05
17.29
15.53
13.98
12.78
11.9
11.11
10.15
8.82
7.15
5.35
3.7
2.38
1.38
0.53
-0.48
-1.83
-3.54
-5.52
-7.51
-9.33
-10.85
-11.98
-12.67
-12.89
-12.61
-11.84
-10.71
-9.38
-8.07
-6.92
-5.97
-5.14
-4.28
-3.23
-1.89
-0.26
1.55
3.31
4.74
5.52
5.52
4.76
3.58
2.53
2.23
3.12
5.3
8.43
11.9
15
17.22
18.38
18.62
18.28
17.7
17.09
16.52
15.91
15.21
14.37
13.45
12.5
11.51
10.42
9.08
7.39
5.33
3.04
0.76
-1.23
-2.76
-3.76
-4.27
-4.35
-4.07
-3.42
-2.42
-1.15
0.19
1.37
2.19
2.59
2.64
2.51
2.39
2.44
2.75
3.39
4.35
5.58
6.91
8.15
9.08
9.59
9.71
9.63
9.54
9.63
9.91
10.28
10.59
10.68
10.45
9.85
8.86
7.48
5.7
3.61
1.31
-1.01
-3.2
-5.1
-6.64
-7.78
-8.52
-8.81
-8.63
-7.93
-6.75
-5.21
-3.51
-1.86
-0.42
0.76
1.74
2.61
3.43
4.22
4.91
5.41
5.64
5.55
5.12
4.38
3.41
2.35
1.37
0.71
0.49
0.77
1.44
2.24
2.84
2.95
2.39
1.19
-0.5
-2.49
-4.58
-6.72
-8.89
-11.03
-12.96
-14.39
-14.98
-14.5
-12.96
-10.59
-7.79
-4.92
-2.25
0.05
1.88
3.18
3.94
4.25
4.33
4.44
4.81
5.54
6.51
7.5
8.27
8.67
8.71
8.48
8.12
7.74
7.42
7.19
7.05
6.97
6.87
6.63
6.14
5.26
3.91
2.03
-0.3
-2.91
-5.56
-7.97
-9.92
-11.34
-12.17
-12.41
-12.05
-11.07
-9.55
-7.69
-5.75
-3.98
-2.44
-1
0.6
2.58
4.96
7.51
9.82
11.49
12.37
12.54
12.3
11.97
11.8
11.8
11.84
11.74
11.38
10.83
10.23
9.77
9.54
9.51
9.52
9.4
8.96
8.11
6.75
4.87
2.5
-0.27
-3.2
-6.02
-8.39
-10.03
-10.75
-10.55
-9.56
-8.05
-6.3
-4.52
-2.83
-1.19
0.49
2.36
4.49
6.82
9.18
11.34
13.13
14.49
15.49
16.26
16.94
17.56
18.04
18.29
18.22
17.84
17.24
16.54
15.86
15.26
14.77
14.37
14.09
13.9
13.74
13.5
13
12.06
10.61
8.68
6.44
4.13
1.91
-0.16
-2.17
-4.25
-6.49
-8.87
-11.24
-13.42
-15.2
-16.4
-16.95
-16.83
-16.15
-15.02
-13.58
-11.9
-9.95
-7.73
-5.24
-2.63
-0.07
2.21
4.09
5.59
6.8
7.9
9
10.15
11.32
12.4
13.24
13.74
13.82
13.56
13.15
12.83
12.75
12.91
13.17
13.31
13.17
12.76
12.14
11.46
10.72
9.92
8.93
7.73
6.36
4.91
3.51
2.22
1.05
-0.06
-1.17
-2.33
-3.62
-5.08
-6.73
-8.49
-10.21
-11.66
-12.6
-12.85
-12.35
-11.17
-9.47
-7.45
-5.34
-3.29
-1.42
0.23
1.65
2.9
4.04
5.18
6.37
7.63
8.91
10.1
11.08
11.76
12.08
12.09
11.86
11.51
11.13
10.79
10.51
10.31
10.16
10.04
9.84
9.47
8.83
7.86
6.58
5.05
3.4
1.75
0.17
-1.34
-2.81
-4.27
-5.74
-7.17
-8.5
-9.66
-10.65
-11.54
-12.5
-13.7
-15.24
-17.06
-18.89
-20.39
-21.18
-21.04
-20.01
-18.28
-16.17
-13.97
-11.88
-9.91
-8.03
-6.19
-4.37
-2.6
-0.92
0.63
2.03
3.25
4.28
5.09
5.68
6.04
6.19
6.17
6
5.77
5.56
5.48
5.6
5.93
6.37
6.77
7
6.97
6.73
6.34
5.91
5.47
4.99
4.45
3.81
3.09
2.28
1.32
0.14
-1.32
-3.01
-4.79
-6.48
-7.97
-9.29
-10.55
-11.87
-13.27
-14.59
-15.56
-15.9
-15.42
-14.09
-12.05
-9.51
-6.75
-4
-1.44
0.84
2.82
4.55
6.06
7.43
8.62
9.66
10.5
11.16
11.7
12.22
12.82
13.57
14.44
15.29
15.93
16.16
15.9
15.14
14
12.62
11.13
9.65
8.28
7.12
6.22
5.58
5.12
4.71
4.22
3.58
2.82
2.01
1.17
0.34
-0.55
-1.55
-2.71
-4.01
-5.41
-6.86
-8.36
-9.93
-11.6
-13.38
-15.2
-16.92
-18.29
-19.15
-19.38
-19.02
-18.23
-17.17
-15.96
-14.66
-13.24
-11.69
-10.02
-8.32
-6.65
-5.08
-3.62
-2.24
-0.9
0.39
1.61
2.71
3.64
4.37
4.87
5.13
5.16
5.05
4.89
4.8
4.84
4.97
5.08
5.06
4.84
4.46
4.03
3.69
3.53
3.5
3.49
3.31
2.82
1.98
0.84
-0.53
-2.04
-3.68
-5.43
-7.32
-9.3
-11.3
-13.2
-14.84
-16.1
-16.89
-17.12
-16.73
-15.75
-14.25
-12.39
-10.41
-8.46
-6.63
-4.91
-3.25
-1.64
-0.1
1.26
2.42
3.41
4.37
5.45
6.69
8.03
9.32
10.39
11.16
11.65
11.95
12.12
12.17
12
11.47
10.5
9.07
7.27
5.28
3.29
1.55
0.21
-0.6
-0.93
-0.96
-1
-1.4
-2.4
-4.07
-6.24
-8.62
-10.87
-12.77
-14.29
-15.52
-16.6
-17.65
-18.69
-19.67
-20.48
-20.98
-21.03
-20.52
-19.38
-17.68
-15.6
-13.39
-11.3
-9.45
-7.84
-6.34
-4.81
-3.16
-1.4
0.37
2.03
3.47
4.68
5.68
6.54
7.33
8.09
8.8
9.43
9.92
10.23
10.35
10.29
10.08
9.75
9.3
8.76
8.18
7.67
7.32
7.16
7.11
6.99
6.57
5.68
4.29
2.52
0.63
-1.13
-2.61
-3.81
-4.88
-6.03
-7.45
-9.18
-11.1
-13
-14.65
-15.89
-16.65
-16.97
-16.88
-16.38
-15.41
-13.94
-12.02
-9.81
-7.57
-5.57
-3.93
-2.64
-1.51
-0.31
1.14
2.88
4.76
6.56
8.05
9.08
9.67
9.91
9.96
9.94
9.9
9.84
9.73
9.57
9.43
9.37
9.38
9.41
9.3
8.89
8.13
7.09
5.96
4.87
3.89
2.92
1.82
0.48
-1.09
-2.77
-4.42
-5.93
-7.3
-8.6
-9.93
-11.31
-12.69
-13.93
-14.83
-15.24
-15.04
-14.22
-12.84
-11.1
-9.21
-7.32
-5.57
-3.98
-2.52
-1.16
0.12
1.35
2.52
3.61
4.61
5.48
6.18
6.71
7.08
7.32
7.49
7.62
7.68
7.67
7.56
7.34
7.01
6.58
6.06
5.48
4.88
4.31
3.86
3.54
3.37
3.24
3.02
2.58
1.85
0.83
-0.47
-1.99
-3.68
-5.46
-7.24
-8.9
-10.33
-11.44
-12.21
-12.67
-12.79
-12.57
-12
-11.09
-9.91
-8.59
-7.29
-6.07
-4.96
-3.93
-2.94
-2.01
-1.14
-0.35
0.39
1.18
2.08
3.09
4.12
5.04
5.73
6.16
6.39
6.5
6.55
6.53
6.35
5.97
5.39
4.66
3.86
3
2.02
0.82
-0.6
-2.21
-3.89
-5.49
-6.99
-8.42
-9.88
-11.4
-12.97
-14.42
-15.59
-16.29
-16.42
-15.96
-14.92
-13.4
-11.55
-9.5
-7.44
-5.47
-3.69
-2.11
-0.72
0.56
1.78
2.99
4.23
5.42
6.47
7.2
7.43
7.02
5.99
4.54
3.08
2.07
1.88
2.62
4.07
5.75
7.12
7.79
7.62
6.79
5.65
4.56
3.8
3.42
3.29
3.15
2.76
1.92
0.57
-1.22
-3.29
-5.37
-7.25
-8.64
-9.33
-9.17
-8.15
-6.46
-4.4
-2.36
-0.63
0.71
1.79
2.86
4.14
5.68
7.38
9.03
10.44
11.53
12.28
12.75
12.97
12.98
12.82
12.55
12.28
12.06
11.87
11.6
11.09
10.28
9.18
7.89
6.56
5.3
4.17
3.18
2.34
1.57
0.78
-0.19
-1.51
-3.27
-5.46
-7.93
-10.42
-12.66
-14.4
-15.45
-15.71
-15.16
-13.88
-12.08
-10.01
-7.95
-6.06
-4.42
-2.94
-1.48
0.07
1.76
3.52
5.24
6.8
8.1
9.06
9.71
10.15
10.59
11.29
12.38
13.82
15.32
16.46
16.86
16.4
15.17
13.54
11.89
10.48
9.37
8.52
7.82
7.23
6.7
6.23
5.71
5.02
3.98
2.54
0.75
-1.22
-3.16
-4.9
-6.41
-7.8
-9.22
-10.83
-12.64
-14.53
-16.28
-17.67
-18.56
-18.9
-18.71
-18.01
-16.83
-15.21
-13.27
-11.22
-9.23
-7.49
-5.98
-4.59
-3.14
-1.52
0.23
1.95
3.46
4.63
5.5
6.21
6.89
7.6
8.27
8.81
9.13
9.25
9.25
9.25
9.35
9.56
9.81
9.97
9.96
9.73
9.33
8.89
8.48
8.11
7.75
7.28
6.65
5.86
4.99
4.08
3.11
2.02
0.73
-0.74
-2.32
-3.91
-5.45
-7.03
-8.71
-10.51
-12.3
-13.86
-14.95
-15.48
-15.49
-15.1
-14.45
-13.59
-12.51
-11.2
-9.7
-8.07
-6.42
-4.74
-3.03
-1.28
0.5
2.18
3.65
4.81
5.7
6.42
7.1
7.83
8.63
9.42
10.07
10.52
10.73
10.77
10.71
10.59
10.41
10.11
9.66
9.05
8.37
7.68
7.06
6.46
5.77
4.84
3.62
2.17
0.61
-0.86
-2.12
-3.16
-4.06
-4.92
-5.83
-6.83
-7.93
-9.16
-10.52
-12.02
-13.53
-14.85
-15.7
-15.8
-15.05
-13.5
-11.39
-9.07
-6.84
-4.86
-3.14
-1.63
-0.22
1.14
2.46
3.73
4.98
6.22
7.46
8.69
9.8
10.67
11.18
11.29
11.07
10.69
10.39
10.3
10.46
10.7
10.76
10.42
9.61
8.45
7.19
6.08
5.25
4.64
4.1
3.48
2.7
1.77
0.75
-0.36
-1.56
-2.86
-4.19
-5.51
-6.74
-7.91
-9.12
-10.46
-11.96
-13.47
-14.75
-15.53
-15.64
-15.06
-13.97
-12.61
-11.22
-9.9
-8.64
-7.34
-5.91
-4.31
-2.65
-1.09
0.26
1.33
2.22
3.05
3.95
4.89
5.77
6.46
6.86
7.04
7.15
7.36
7.75
8.24
8.66
8.82
8.66
8.18
7.49
6.69
5.79
4.79
3.65
2.43
1.25
0.2
-0.64
-1.36
-2.15
-3.22
-4.72
-6.63
-8.76
-10.8
-12.45
-13.49
-13.87
-13.63
-12.87
-11.66
-10.04
-8.05
-5.78
-3.44
-1.3
0.43
1.62
2.33
2.8
3.3
4
4.92
5.87
6.62
6.96
6.89
6.55
6.16
5.91
5.83
5.84
5.82
5.7
5.48
5.26
5.08
4.93
4.73
4.37
3.76
2.93
1.9
0.71
-0.64
-2.18
-3.98
-6.04
-8.29
-10.51
-12.48
-13.98
-14.83
-15.04
-14.63
-13.74
-12.45
-10.91
-9.22
-7.47
-5.74
-4.08
-2.45
-0.85
0.73
2.23
3.58
4.7
5.59
6.28
6.87
7.42
7.93
8.38
8.73
8.93
9.03
9.06
9.09
9.14
9.2
9.24
9.2
9
8.55
7.81
6.78
5.52
4.14
2.79
1.55
0.43
-0.66
-1.83
-3.16
-4.67
-6.27
-7.91
-9.53
-11.12
-12.65
-14.03
-15.07
-15.57
-15.4
-14.54
-13.16
-11.53
-9.86
-8.31
-6.87
-5.45
-3.96
-2.33
-0.56
1.26
3.09
4.84
6.51
8.07
9.53
10.78
11.71
12.25
12.38
12.24
12.01
11.87
