20.84
18.8
16.77
14.4
11.74
9.13
6.8
4.6
1.88
-2.33
-8.98
-18.44
-30.21
-42.73
-53.62
-60.23
-60.5
-53.53
-40.03
-22.04
-2.35
16.38
32.22
44.28
52.42
56.91
58.11
56.33
52.05
46.02
39.18
32.52
26.72
22.03
18.3
15.19
12.37
9.68
7.08
4.55
2
-0.81
-4.24
-8.8
-15.03
-23.34
-33.52
-44.44
-53.92
-59.17
-57.76
-48.61
-32.64
-12.58
7.92
25.55
38.24
45.51
48.04
46.96
43.31
37.85
31.14
23.82
16.59
10.11
4.79
0.66
-2.6
-5.44
-8.22
-11.09
-14.03
-16.97
-19.97
-23.37
-27.79
-33.98
-42.41
-52.8
-63.73
-72.8
-77.07
-74.16
-63.18
-45.27
-23.35
-1.16
17.94
31.93
40.38
44.09
44.29
42.03
37.93
32.33
25.62
18.38
11.39
5.34
0.61
-2.8
-5.24
-7.15
-8.92
-10.84
-13.12
-15.99
-19.85
-25.26
-32.73
-42.31
-53.17
-63.43
-70.42
-71.44
-64.8
-50.55
-30.73
-8.73
11.83
28.15
38.96
44.44
45.63
43.76
39.74
34.13
27.27
19.59
11.63
4.02
-2.73
-8.34
-12.86
-16.58
-19.86
-23.04
-26.27
-29.67
-33.41
-37.9
-43.76
-51.59
-61.32
-71.76
-80.45
-84.28
-80.57
-68.34
-48.94
-25.73
-2.96
15.78
28.57
35.33
37.25
35.89
32.35
27.22
20.74
13.24
5.36
-2.08
-8.34
-13.08
-16.39
-18.74
-20.68
-22.57
-24.59
-26.79
-29.34
-32.69
-37.55
-44.48
-53.4
-63.04
-70.98
-74.29
-70.49
-58.66
-39.99
-17.51
4.94
24.03
37.89
46.38
50.54
51.72
50.88
48.3
43.88
37.55
29.68
21.07
12.71
5.36
-0.71
-5.78
-10.42
-15.23
-20.64
-26.98
-34.53
-43.67
-54.66
-67.13
-79.75
-90.08
-95.14
-92.45
-81.14
-62.51
-39.71
-16.68
3.17
17.89
27.15
31.77
32.88
31.39
27.81
22.45
15.74
8.34
1.04
-5.41
-10.5
-14.09
-16.35
-17.69
-18.7
-19.99
-22.17
-25.82
-31.45
-39.24
-48.75
-58.68
-66.86
-70.69
-67.98
-57.82
-41.06
-20.23
1.3
20.36
34.93
44.4
49.37
50.99
50.3
47.88
43.92
38.46
31.74
24.36
17.14
10.83
5.83
1.97
-1.25
-4.53
-8.38
-13.07
-18.81
-25.84
-34.47
-44.74
-55.98
-66.52
-73.84
-75.37
-69.35
-55.76
-36.39
-14.34
7
24.95
38.21
46.77
51.48
53.4
53.3
51.59
48.4
43.84
38.18
31.85
25.45
19.47
14.28
9.98
6.41
3.23
-0.01
-3.83
-8.73
-15.17
-23.49
-33.74
-45.32
-56.81
-65.95
-70.2
-67.47
-57.04
-39.95
-18.8
3.06
22.61
37.98
48.63
55.08
58.26
58.95
57.62
54.56
50.03
44.48
38.47
32.55
27.01
21.92
17.09
12.3
7.49
2.79
-1.63
-5.76
-9.97
-15.07
-22.07
-31.75
-44.03
-57.58
-69.87
-77.74
-78.43
-70.57
-54.81
-33.62
-10.47
11.3
29.41
42.98
52.24
57.9
60.53
60.46
57.86
53.18
47.2
40.92
35.15
30.18
25.77
21.4
16.66
11.56
6.49
1.88
-2.09
-5.73
-9.8
-15.26
-22.94
-33.22
-45.72
-59.07
-70.92
-78.4
-78.9
-70.98
-55.12
-33.65
-10.13
11.9
29.84
42.64
50.54
54.47
55.39
53.98
50.64
45.76
39.87
33.58
27.52
22.07
17.34
13.17
9.29
5.52
1.76
-2
-5.8
-9.89
-14.85
-21.5
-30.52
-41.88
-54.35
-65.43
-71.86
-70.81
-60.98
-43.44
-21.27
1.4
20.9
35.16
43.92
48.29
49.66
49.05
46.79
42.82
37.19
30.32
23.03
16.19
10.47
6.03
2.66
-0.15
-2.92
-6.08
-9.98
-14.93
-21.31
-29.48
-39.63
-51.31
-63.18
-72.92
-77.78
-75.49
-65.14
-47.81
-26.23
-3.99
15.69
30.86
41.1
47.16
50.2
51.16
50.45
48.06
43.89
38.09
31.16
23.95
17.32
11.86
7.7
4.51
1.7
-1.33
-4.97
-9.51
-15.22
-22.5
-31.61
-42.18
-52.8
-60.99
-63.83
-59.04
-46.03
-26.34
-3.2
19.59
38.9
53.14
62.24
67.19
69.2
69.19
67.6
64.52
59.95
53.99
46.93
39.19
31.31
23.82
17.12
11.45
6.76
2.73
-1.23
-5.9
-12.1
-20.53
-31.38
-44.04
-56.87
-67.36
-72.67
-70.51
-60.09
-42.45
-20.28
2.9
23.86
40.45
51.96
58.88
62.3
63.3
62.59
60.42
56.81
51.75
45.45
38.35
31.04
24.15
18.11
13.06
8.89
5.3
1.89
-1.76
-6.2
-12.09
-20.08
-30.43
-42.48
-54.36
-63.25
-66.09
-60.78
-47.06
-26.72
-3.04
20.47
41.1
57.6
69.93
78.73
84.59
87.79
88.36
86.42
82.36
76.81
70.39
63.51
56.25
48.55
40.47
32.33
24.67
17.99
12.36
7.26
1.65
-5.8
-16.17
-29.87
-46.23
-63.37
-78.46
-88.38
-90.55
-83.87
-69.13
-48.83
-26.42
-5.19
12.61
26.06
35.3
40.93
43.51
43.34
40.69
36.05
30.27
24.32
18.93
14.38
10.4
6.48
2.24
-2.33
-6.92
-11.05
-14.48
-17.37
-20.32
-24.3
-30.3
-39.03
-50.52
-63.81
-76.76
-86.44
-89.88
-85.09
-71.91
-52.16
-29.07
-6.24
13.52
28.77
39.33
45.74
48.58
48.19
44.74
38.56
30.44
21.52
13.01
5.77
-0.03
-4.79
-9.26
-14.05
-19.33
-24.7
-29.52
-33.27
-36.04
-38.6
-42.21
-48.09
-56.8
-67.77
-79.15
-88.26
-92.27
-89.12
-78.19
-60.53
-38.6
-15.48
5.95
23.79
37.28
46.72
52.93
56.78
58.74
58.9
57.1
53.29
47.75
41.21
34.65
28.98
24.68
21.66
19.33
16.79
13.15
7.6
-0.69
-12.61
-28.81
-49.13
-72
-94.24
-111.78
-121.01
-120.24
-110.36
-94.46
-76.39
-59.1
-43.48
-28.09
-9.9
14.44
47.14
88.19
134.9
182.22
223.94
254.27
269.36
268.22
252.69
226.68
195.27
163.85
137.6
120.78
115.95
122.96
138.55
156.87
171.19
175.85
167.93
147.57
117.13
79.96
39.33
-1.91
-41.53
-77.99
-110.7
-140.13
-167.11
-191.7
-212.06
-224.34
-223.97
-207.8
-175.83
-131.58
-80.78
-29.35
18.25
59.28
91.96
114.47
124.85
121.85
106.04
80.2
48.56
15.31
-16.8
-46.95
-75.62
-103.62
-131.14
-157.39
-180.84
-199.45
-211.01
-213.45
-205.04
-185.01
-154.13
-115.06
-72.03
-29.91
7.05
36.1
56.33
68.3
73.4
73.25
69.36
63.02
55.21
46.68
37.98
29.62
22.32
17.04
14.79
16.13
20.66
26.8
32.17
34.21
31.03
21.84
7.03
-11.92
-32.55
-51.55
-65.13
-69.79
-63.49
-46.63
-22.29
4.63
28.95
46.87
56.86
59.7
57.62
53.24
48.66
45.07
42.65
40.82
38.58
34.88
28.98
20.76
10.78
0.21
-9.46
-16.78
-20.78
-21.37
-19.59
-17.61
-18.16
-23.68
-35.2
-51.72
-70.08
-85.86
-94.72
-93.84
-82.73
-63.38
-39.52
-15.46
5.13
19.92
28.19
30.42
27.79
21.66
13.27
3.73
-5.93
-14.77
-22.06
-27.45
-31.1
-33.57
-35.61
-37.84
-40.64
-44.13
-48.43
-53.68
-59.95
-66.89
-73.36
-77.49
-77.13
-70.72
-58.05
-40.58
-20.91
-1.97
14.02
26.02
34.08
38.76
40.61
39.88
36.66
31.3
24.57
17.58
11.41
6.71
3.53
1.36
-0.49
-2.6
-5.26
-8.53
-12.53
-17.5
-23.79
-31.41
-39.72
-47.15
-51.59
-51.06
-44.53
-32.5
-16.86
-0.3
14.64
26.27
34.08
38.42
40.04
39.58
37.38
33.6
28.42
22.27
15.78
9.74
4.77
1.13
-1.24
-2.78
-4.06
-5.66
-8.04
-11.59
-16.6
-23.17
-31.06
-39.42
-46.75
-51.09
-50.64
-44.38
-32.57
-16.74
0.73
17.34
31.21
41.43
47.96
51.31
52.11
50.87
47.96
43.66
38.33
32.38
26.29
20.5
15.32
10.91
7.27
4.22
1.47
-1.39
-4.87
-9.53
-15.82
-23.84
-33.05
-42.18
-49.31
-52.37
-49.83
-41.29
-27.72
-11.25
5.55
20.42
31.99
39.9
44.53
46.55
46.56
44.91
41.77
37.32
31.9
26.01
20.19
14.92
10.44
6.76
3.71
1.05
-1.43
-3.92
-6.72
-10.28
-15.23
-22.09
-30.85
-40.52
-49.14
-54.16
-53.31
-45.57
-31.64
-13.84
4.8
21.49
34.55
43.6
49.21
52.18
53.15
52.38
50.03
46.42
42.16
37.89
33.95
30.19
26.22
21.88
17.48
13.77
11.25
9.76
8.28
5.48
0.57
-6.19
-13.5
-19.58
-22.91
-22.6
-18.33
-10.05
2.11
17.62
35.29
53.12
68.72
80.05
85.94
86.29
81.75
73.28
61.79
48.11
32.99
17.28
1.84
-12.58
-25.49
-36.68
-46.18
-54.06
-60.43
-65.35
-68.91
-71.29
-72.85
-74.13
-75.81
-78.61
-83.05
-89.13
-96.02
-101.95
-104.46
-101.12
-90.38
-72.36
-48.96
-23.45
0.58
20.3
34.3
42.59
46.12
46.09
43.46
38.84
32.73
25.76
18.73
12.47
7.5
3.9
1.3
-0.88
-3.14
-5.69
-8.51
-11.48
-14.67
-18.51
-23.68
-30.74
-39.62
-49.22
-57.39
-61.46
-59.2
-49.78
-34.24
-15.23
3.84
19.98
31.53
38.32
41.32
41.74
40.51
37.95
34
28.62
22.08
15.01
8.2
2.38
-2.07
-5.06
-6.8
-7.62
-7.97
-8.36
-9.47
-12.06
-16.79
-23.86
-32.61
-41.4
-47.86
-49.58
-44.99
-34.07
-18.43
-0.8
15.9
29.51
39.01
44.54
46.83
46.68
44.69
41.15
36.33
30.58
24.35
18.21
12.6
7.77
3.73
0.35
-2.6
-5.35
-8.09
-11.17
-15.06
-20.44
-27.87
-37.39
-48
-57.66
-63.66
-63.54
-56.1
-41.97
-23.47
-3.78
14.07
28.14
37.82
43.52
46.12
46.44
45.03
42.17
38.12
33.15
27.69
22.14
16.9
12.23
8.23
4.86
1.93
-0.82
-3.71
-7.08
-11.38
-17.11
-24.69
-34.15
-44.66
-54.44
-61.02
-61.96
-55.82
-42.79
-24.8
-4.88
13.9
29.32
40.44
47.43
51.04
52.03
50.93
48.07
43.78
38.47
32.67
26.82
21.25
16.13
11.51
7.43
3.91
0.91
-1.77
-4.53
-8.03
-13.05
-20.28
-29.93
-41.33
-52.73
-61.55
-65.08
-61.42
-50.25
-33.15
-13
6.89
23.9
36.72
45.27
50.29
52.64
52.91
51.32
47.93
42.92
36.72
30.01
23.49
17.76
13.1
9.52
6.78
4.5
2.27
-0.4
-4.04
-9.22
-16.43
-25.71
-36.29
-46.43
-53.62
-55.27
-49.74
-37
-18.9
1.47
20.75
36.41
47.27
53.47
55.93
55.65
53.37
49.55
44.48
38.57
32.41
26.62
21.73
17.96
15.21
13.1
11.11
8.85
6.1
2.85
-0.99
-5.83
-12.61
-22.65
-37.13
-56.35
-79.28
-103.56
-126.13
-144.19
-156.14
-162.08
-163.53
-162.62
-161.1
-159.56
-157.23
-152.34
-142.9
-127.31
-105.12
-77.42
-47
-18.03
4.9
18.21
20.83
14.91
5.29
-2.24
-3.34
3.12
14.74
26.66
33.55
31.46
19.26
-0.5
-21.25
-33.08
-24.95
11.67
78.87
170.14
271.56
366.31
440.56
487.82
509.76
513.36
506.51
494.57
479.6
461.79
441.52
420.33
400.31
382.62
366.53
349.62
329.07
303.32
272.83
239.76
207.01
176.72
149.47
124.25
99.14
72.32
42.99
11.64
-20.28
-51.03
-79.49
-105.72
-131.07
-157.58
-186.87
-218.94
-251.54
-280.48
-301
-309.51
-305.03
-289.42
-266.53
-240.54
-214.61
-190.23
-167.56
-146.29
-126.27
-107.73
-90.98
-75.97
-62.27
-49.33
-36.97
-25.64
-16.3
-9.95
-6.99
-6.85
-8
-8.5
-6.74
-2.15
4.53
11.52
16.77
18.81
17.35
13.27
8.17
3.46
-0.24
-3.43
-7.39
-13.38
-21.86
-32.04
-42.12
-50.08
-54.68
-56.2
-56.55
-58.71
-65.8
-80.12
-102.56
-132.45
-167.54
-204.28
-238.14
-264.15
-277.86
-276.37
-259.11
-227.88
-186.12
-137.65
-85.55
-31.86
21.7
72.59
116.83
149.64
167.31
169.43
160.18
147.63
140.97
146.9
166.71
195.57
224.39
243.48
246.24
231.21
201.97
165.09
127.66
95.29
71.54
58.03
54.96
61.33
74.71
91.18
105.89
114.17
112.9
101.43
81.58
56.77
30.62
5.68
-17.25
-39.06
-61.61
-86.71
-115.03
-145.51
-175.54
-201.71
-221.19
-232.64
-236.69
-235.45
-231.6
-227.28
-223.41
-219.7
-214.85
-207.21
-195.26
-178.05
-155.46
-128.34
-98.43
-68.05
-39.61
-14.99
4.73
19.42
29.67
36.44
40.71
43.3
44.92
46.2
47.84
50.5
54.72
60.77
68.52
77.5
86.86
95.32
101.19
102.66
98.14
86.94
69.73
48.46
25.79
4.18
-14.96
-31.44
-45.9
-59.05
-71
-81.15
-88.59
-92.77
-93.91
-93.02
-91.45
-90.35
-90.3
-91.2
-92.55
-93.72
-94.23
-93.8
-92.39
-90.09
-87.2
-84.24
-82.06
-81.72
-84.24
-90
-98.29
-107.01
-112.93
-112.49
-103.05
-83.84
-56.47
-24.47
7.69
36.02
57.9
72.49
80.38
82.86
81.27
76.62
69.68
61.11
51.78
42.64
34.57
28.1
23.16
19.14
15.12
10.24
3.94
-3.95
-13.4
-24.25
-36.17
-48.44
-59.63
-67.62
-69.95
-64.67
-51.09
-30.35
-5.18
20.81
44.22
62.64
75.08
81.68
83.25
80.83
75.3
67.48
58.07
47.8
37.41
27.55
18.66
10.9
4.19
-1.73
-7.15
-12.41
-17.8
-23.73
-30.73
-39.33
-49.75
-61.47
-72.87
-81.31
-83.86
-78.2
-63.68
-41.7
-15.4
11.32
34.93
53.21
65.45
72.06
74
72.26
67.64
60.84
52.59
43.67
34.82
26.59
19.24
12.72
6.85
1.39
-3.8
-8.76
-13.51
-18.17
-23.08
-28.87
-36.24
-45.61
-56.56
-67.43
-75.49
-77.6
-71.37
-56.18
-33.62
-7.04
19.49
42.49
59.9
71.18
76.88
77.95
75.27
69.53
61.42
51.74
41.49
31.61
22.77
15.26
8.93
3.45
-1.57
-6.41
-11.22
-16.08
-21.16
-26.8
-33.62
-42.25
-52.83
-64.55
-75.25
-81.79
-80.94
-70.74
-51.36
-25.46
2.69
28.58
48.86
62.06
68.46
69.33
66.07
59.78
51.2
41.04
30.19
19.69
10.52
3.26
-2.04
-5.77
-8.63
-11.28
-14.27
-17.91
-22.42
-28.01
-34.98
-43.56
-53.52
-63.78
-72.19
-75.94
-72.37
-60.13
-39.97
-14.72
11.47
34.52
51.59
61.74
65.62
64.69
60.42
53.77
45.3
35.49
25.01
14.81
5.83
-1.36
-6.73
-10.76
-14.13
-17.43
-21.03
-25.06
-29.75
-35.54
-43.02
-52.47
-63.27
-73.52
-80.22
-80.2
-71.31
-53.48
-29.09
-2.14
22.95
42.8
55.85
62.36
63.66
61.25
56.3
49.49
41.26
32.17
22.93
14.31
6.96
1.11
-3.33
-6.78
-9.77
-12.81
-16.33
-20.77
-26.58
-34.18
-43.81
-54.96
-66.07
-74.46
-77.01
-71.17
-56.16
-33.55
-6.84
19.63
42.11
58.48
68.38
72.71
72.74
69.48
63.58
55.51
45.86
35.49
25.36
16.34
8.94
3.24
-1.03
-4.4
-7.46
-10.77
-14.75
-19.8
-26.36
-34.83
-45.3
-57.05
-68.15
-75.68
-76.52
-68.56
-51.77
-28.4
-2.24
22.68
43.43
58.71
68.64
73.97
75.4
73.32
67.95
59.79
49.73
39.04
29
20.53
14
9.25
5.72
2.73
-0.29
-3.77
-8.06
-13.53
-20.75
-30.2
-41.86
-54.58
-65.93
-72.57
-71.35
-60.65
-41.22
-16.21
9.89
32.71
49.35
58.94
62.22
60.72
55.84
48.52
39.27
28.62
17.38
6.65
-2.52
-9.42
-14.01
-16.76
-18.46
-19.86
-21.49
-23.66
-26.67
-31.04
-37.33
-45.83
-55.97
-65.93
-72.85
-73.62
-66.11
-50.12
-27.72
-2.66
20.89
39.62
51.9
57.81
58.52
55.49
49.84
42.29
33.31
23.49
13.7
4.99
-1.76
-6.11
-8.33
-9.25
-9.95
-11.44
-14.4
-19.25
-26.22
-35.4
-46.43
-58.1
-68.14
-73.58
-71.71
-61.22
-42.93
-19.82
4.08
24.97
40.57
50.39
55.27
56.53
55.11
51.38
45.39
37.39
28.13
18.81
10.68
4.52
0.44
-2.18
-4.27
-6.76
-10.29
-15.2
-21.69
-30.01
-40.16
-51.61
-62.8
-71.23
-74
-68.87
-55.29
-34.84
-10.79
12.96
33.21
48.28
58.11
63.63
65.96
65.82
63.41
58.77
52.15
44.17
35.81
28
21.39
16.12
11.95
8.3
4.67
0.55
-4.41
-10.65
-18.61
-28.56
-40.16
-52.04
-61.82
-66.61
-64.01
-53.08
-34.95
-12.46
10.73
31.31
47.27
58.04
64.16
66.53
65.96
62.99
57.97
51.3
43.55
35.42
27.64
20.76
15.09
10.58
6.93
3.65
0.27
-3.68
-8.62
-14.98
-23.17
-33.31
-44.77
-55.86
-63.97
-66.22
-60.54
-46.63
-26.25
-2.76
20.02
39.02
52.66
60.88
64.58
64.84
62.49
57.94
51.48
43.52
34.8
26.26
18.77
12.94
8.87
6.2
4.29
2.48
0.21
-2.89
-7.19
-13.17
-21.28
-31.7
-43.79
-55.72
-64.69
-67.69
-62.57
-49.05
-29.05
-6.07
16.03
34.28
47.34
55.42
59.55
60.76
59.59
56.17
50.56
43.17
34.81
26.45
18.9
12.52
7.23
2.75
-1.26
-5.08
-8.97
-13.26
-18.48
-25.32
-34.35
-45.62
-58.2
-70.03
-78.16
-79.71
-72.85
-57.76
-36.71
-13.37
8.5
26.22
38.75
46.51
50.52
51.7
50.4
46.71
40.75
33.12
24.79
16.85
10.13
4.9
0.97
-2.15
-4.99
-7.97
-11.45
-15.88
-21.88
-30.01
-40.44
-52.34
-63.73
-71.7
-73.32
-66.68
-51.81
-30.76
-7.01
15.72
34.55
48.09
56.32
60.08
60.37
57.98
53.38
46.96
39.19
30.78
22.54
15.2
9.15
4.31
0.2
-3.87
-8.5
-14.11
-20.94
-29.21
-39.17
-50.8
-63.35
-75.02
-83.1
-84.67
-77.8
-62.45
-40.69
-16.11
7.45
27.09
41.54
51.01
56.57
59.32
59.89
58.39
54.67
48.76
41.12
32.61
24.22
16.8
10.71
5.83
1.66
-2.36
-6.69
-11.66
-17.68
-25.21
-34.61
-45.67
-57.18
-66.83
-71.79
-69.66
-59.42
-42.07
-20.24
2.56
23.14
39.43
50.78
57.6
60.81
61.31
59.67
56.2
51.04
44.43
36.81
28.86
21.29
14.66
9.21
4.8
1.03
-2.6
-6.59
-11.44
-17.71
-25.97
-36.47
-48.63
-60.73
-69.97
-73.28
-68.4
-54.86
-34.36
-10.22
13.75
34.43
50.12
60.56
66.37
68.52
67.8
64.76
59.87
53.63
46.56
39.17
31.82
24.76
18.17
12.19
6.89
2.27
-1.86
-5.84
-10.2
-15.69
-23.04
-32.75
-44.58
-57.18
-68.01
-73.91
-72.11
-61.36
-42.6
-18.82
5.93
27.89
44.65
55.63
61.54
63.61
62.87
59.8
54.56
47.36
38.73
29.56
20.83
13.28
7.24
2.59
-1.07
-4.21
-7.27
-10.63
-14.79
-20.4
-28.19
-38.49
-50.78
-63.28
-73.1
-77.04
-72.7
-59.6
-39.47
-15.8
7.42
26.97
41.18
50.04
54.49
55.62
54.16
50.4
44.47
36.76
28.09
19.5
11.98
6.06
1.71
-1.57
-4.43
-7.46
-11
-15.28
-20.65
-27.64
-36.79
-48.15
-60.68
-72.06
-79.11
-78.8
-69.42
-51.39
-27.32
-1.12
23.23
42.9
56.66
64.82
68.45
68.77
66.63
62.52
56.71
49.53
41.49
33.17
25.17
17.96
11.81
6.73
2.51
-1.26
-5.17
-9.88
-16.13
-24.57
-35.58
-48.85
-63.03
-75.62
-83.35
-83.2
-73.47
-54.63
-29.34
-1.69
24.17
45.21
60.13
69.12
73.16
73.33
70.37
64.78
57.04
47.8
37.83
27.88
18.5
9.95
2.28
-4.61
-10.82
-16.45
-21.58
-26.36
-31.17
-36.64
-43.56
-52.62
-63.75
-75.73
-86.08
-91.58
-89.38
-78.08
-58.46
-33.28
-6.41
18.48
38.86
53.74
63.35
68.49
69.99
68.47
64.38
58.23
50.71
42.62
34.72
27.5
21.15
15.61
10.7
6.23
2.08
-1.87
-5.91
-10.58
-16.67
-25.03
-36.12
-49.49
-63.44
-75.12
-81.22
-79.05
-67.58
-47.92
-23.01
3.33
27.59
47.45
61.94
71.14
75.57
75.86
72.67
66.85
59.52
51.85
44.83
38.86
33.76
28.99
24.01
18.58
12.87
7.24
2.04
-2.67
-7.27
-12.51
-19.36
-28.77
-41.08
-55.54
-70.13
-81.65
-86.66
-82.64
-69.04
-47.62
-21.9
4.03
26.81
44.56
56.94
64.48
67.95
67.92
64.8
59.11
51.73
43.71
36.06
29.37
23.72
18.75
13.99
9.12
4.11
-0.84
-5.56
-10.17
-15.14
-21.34
-29.67
-40.63
-53.74
-67.28
-78.41
-83.86
-81.07
-69.12
-49.29
-24.67
0.78
23.47
41.13
52.99
59.5
61.61
60.31
56.32
50.25
42.78
34.69
26.77
19.6
13.43
8.15
3.4
-1.15
-5.65
-10.04
-14.23
-18.32
-22.87
-28.88
-37.46
-49.01
-62.64
-75.78
-84.78
-86.04
-77.42
-59.22
-34.18
-6.49
19.64
41.23
57.03
67.22
72.66
74.25
72.58
68.11
61.44
53.45
45.2
37.62
31.31
26.39
22.59
19.49
16.67
13.88
10.98
7.84
4.19
-0.42
-6.47
-14.05
-22.45
-29.81
-33.42
-30.43
-18.97
1.05
27.61
57.34
86.53
112.31
133.27
149.29
160.96
168.78
172.94
173.33
170
163.53
155.11
146.19
138.08
131.42
126.07
121.21
115.66
108.28
98.19
84.88
68.06
47.71
24.16
-1.61
-27.73
-51.47
-69.84
-80.46
-82.48
-76.99
-66.81
-55.53
-46.34
-41.17
-40.4
-43.18
-48.23
-54.38
-60.9
-67.5
-74.04
-80.36
-86.26
-91.5
-95.9
-99.44
-102.24
-104.53
-106.62
-108.85
-111.58
-115.19
-120.05
-126.26
-133.4
-140.15
-144.26
-143
-134.02
-116.44
-91.53
-62.6
-33.99
-9.73
7.71
17.84
21.71
20.88
16.62
9.55
-0.13
-12.05
-25.31
-38.49
-50.05
-58.82
-64.4
-67.21
-68.24
-68.74
-69.85
-72.57
-77.64
-85.64
-96.61
-109.63
-122.48
-131.61
-132.95
-123.21
-101.28
-68.96
-30.67
7.92
41.7
67.58
84.95
95.1
100.03
101.34
99.65
94.81
86.57
75.23
61.96
48.55
36.83
27.95
21.98
18.01
14.59
10.28
3.98
-5.05
-17.29
-32.89
-51.23
-70.37
-86.88
-96.31
-94.6
-79.67
-52.64
-17.61
19.48
52.9
78.76
95.74
104.63
107.2
105.14
99.52
90.9
79.8
66.96
53.4
40.23
28.33
18.21
9.95
3.31
-2.15
-7.06
-12.17
-18.32
-26.43
-37.36
-51.57
-68.59
-86.56
-102.11
-110.94
-109.15
-94.67
-68.36
-34.01
2.78
36.41
62.94
80.9
91
95.08
95.01
91.96
86.34
78.25
67.92
55.99
43.49
31.48
20.79
11.78
4.37
-1.83
-7.35
-12.73
-18.52
-25.4
-34.25
-45.98
-61.07
-78.81
-96.77
-110.89
-116.43
-109.67
-89.42
-57.9
-20.15
17.61
49.99
73.86
88.65
95.61
96.53
92.96
85.88
76
64.09
51.25
38.62
27.13
17.28
9.13
2.42
-3.18
-8.03
-12.51
-17.05
-22.25
-28.96
-38.22
-50.91
-67.18
-85.72
-103.37
-115.53
-117.47
-106.08
-81.31
-46.52
-7.48
29.57
59.86
81.22
93.8
99.1
98.77
94.08
85.99
75.56
64.22
53.57
44.8
38.29
33.47
29.25
24.61
19.15
13.05
6.82
0.78
-5.41
-12.74
-22.65
-36.38
-54.19
-74.7
-94.63
-109.28
-113.86
-105.04
-82.39
-48.71
-9.33
29.66
63.2
88.4
104.63
112.79
114.2
110.04
101.28
89.02
74.74
60.17
46.84
35.51
26.02
17.58
9.37
0.98
-7.37
-15.09
-21.69
-27.26
-32.61
-39.22
-48.81
-62.68
-80.91
-101.76
-121.44
-134.76
-136.66
-124.01
-96.95
-59.11
-16.46
24.65
59.4
85.44
102.59
111.82
114.2
110.55
101.59
88.46
73.01
57.39
43.41
31.91
22.57
14.31
6.06
-2.67
-11.53
-19.71
-26.59
-32.23
-37.57
-44.23
-53.99
-68.03
-86.46
-107.62
-128.14
-143.32
-148.42
-140.08
-117.72
-83.98
-43.97
-3.64
32.02
60.06
79.7
91.45
96.23
94.73
87.64
76.05
61.73
46.95
33.74
23.24
15.34
8.98
2.81
-4.04
-11.6
-19.2
-26
-31.54
-36.17
-41.03
-47.8
-58.05
-72.55
-90.47
-108.98
-123.49
-128.82
-120.92
-98.62
-64.37
-23.59
17.18
52.55
79.64
98.3
109.89
115.91
117.02
113.18
104.44
91.77
77.28
63.55
52.64
45.23
40.46
36.49
31.54
24.69
16.21
7.21
-1.09
-8.06
-13.98
-19.93
-27.25
-36.94
-49.18
-63.14
-77.14
-88.96
-96.33
-97.47
-91.46
-78.5
-59.73
-36.98
-12.35
12.22
35.07
54.8
70.25
80.51
85.09
84.25
79.04
71.19
62.56
54.64
48.09
42.66
37.57
32.11
25.95
19.37
12.94
7.14
1.95
-3.21
-9.41
-17.82
-29.37
-44.22
-61.49
-78.91
-93.2
-100.73
-98.58
-85.7
-63.34
-34.79
-4.32
24.11
47.75
65.37
76.84
82.51
82.85
78.36
69.91
58.88
46.97
35.84
26.45
18.92
12.59
6.6
0.34
-6.28
-12.88
-18.97
-24.33
-29.22
-34.46
-41.17
-50.43
-62.81
-77.75
-93.29
-106.11
-112.43
-109.19
-95.3
-72.25
-43.55
-13.65
13.61
35.87
52.39
63.41
69.37
70.54
67.06
59.35
48.42
35.85
23.3
12.12
2.99
-4.08
-9.5
-13.85
-17.59
-21.1
-24.6
-28.42
-33.02
-39.06
-47.23
-57.74
-69.82
-81.3
-88.85
-88.84
-78.71
-58.29
-30.17
0.96
29.94
52.91
68.32
76.87
80.5
81
79.12
74.67
67.07
56.31
43.31
29.8
17.59
7.9
0.97
-3.92
-7.93
-12.16
-17.31
-23.77
-31.91
-42.23
-55.16
-70.42
-86.4
-99.99
-107.27
-104.86
-91.35
-68.05
-38.69
-8.07
19.53
41.54
57.42
67.94
74.27
77.15
76.75
72.95
65.86
56.21
45.27
34.55
25.29
18.1
12.79
8.61
4.6
-0.06
-6.01
-13.82
-24.02
-36.94
-52.21
-68.17
-81.76
-89.19
-87.24
-74.54
-52.4
-24.35
4.95
31.4
52.51
67.68
77.65
83.58
86.33
86.21
83.16
77.15
68.49
57.97
46.64
35.64
25.82
17.62
10.98
5.49
0.52
-4.68
-10.94
-19.17
-30.12
-43.94
-59.6
-74.65
-85.57
-88.71
-81.71
-64.36
-38.97
-9.55
19.44
44.46
63.59
76.6
84.39
88.13
88.85
87.19
83.49
77.97
70.89
62.52
53.34
43.86
34.63
26.1
18.51
11.91
6.05
0.52
-5.35
-12.44
-21.8
-34.26
-49.85
-67.24
-83.58
-94.95
-97.63
-89.41
-70.57
-43.9
-13.8
15.23
39.88
58.59
71.36
79.08
82.73
83.09
80.65
75.8
69.02
60.89
52.01
42.88
33.88
25.22
17.04
9.45
2.49
-3.89
-9.94
-16.21
-23.61
-33.28
-46.17
-62.34
-80.34
-97.09
-108.49
-110.76
-101.8
-82.15
-54.78
-24.16
5.34
30.53
49.97
63.58
72
75.95
76.08
73.02
67.49
60.43
52.71
45
37.63
30.68
24.1
17.81
11.89
6.44
1.56
-2.87
-7.23
-12.31
-19.2
-29
-42.22
-58.26
-75.01
-89.09
-96.72
-94.98
-82.89
-61.83
-35.13
-6.87
19.35
41.2
57.79
69.17
75.78
78.06
76.44
71.5
64.22
55.77
47.31
39.6
32.84
26.8
21.08
15.36
9.63
4.08
-1.07
-5.86
-10.7
-16.42
-24.08
-34.6
-48.17
-63.82
-79.16
-90.79
-95.2
-89.92
-74.54
-50.88
-22.5
6.44
32.47
53.44
68.63
78.2
82.68
82.56
78.42
71.18
62.09
52.61
43.9
36.53
30.35
24.78
19.25
13.53
7.77
2.32
-2.69
-7.47
-12.7
-19.28
-28.13
-39.75
-53.87
-69.1
-82.9
-92.02
-93.36
-85.1
-67.45
-42.73
-14.65
12.83
36.65
55.11
67.82
75.13
77.65
76.02
71
63.58
55.02
46.55
39.09
32.96
27.95
23.51
19.12
14.53
9.78
5.1
0.6
-3.92
-9.07
-15.81
-25.14
-37.6
-52.74
-68.84
-82.98
-91.66
-91.89
-82.22
-63.31
-37.78
-9.33
18.38
42.62
61.9
75.72
84.09
87.22
85.56
80.01
72.05
63.48
55.89
50.07
45.84
42.27
38.32
33.41
27.74
22.05
17.11
13.21
9.88
5.98
0.07
-9.02
-21.68
-37.05
-52.85
-65.71
-71.97
-68.77
-55.18
-32.69
-4.81
23.9
49.2
68.04
78.82
81
74.4
58.68
33.31
-2.04
-46.71
-98.16
-151.62
-200.51
-237.83
-258.17
-259.57
-244.26
-217.97
-187.81
-160.06
-138.54
-124.45
-117.27
-116.03
-120.07
-129
-142.08
-157.79
-173.84
-187.91
-198.43
-205.15
-209.05
-211.78
-214.84
-218.97
-223.95
-228.87
-232.71
-234.86
-235.45
-235.29
-235.39
-236.48
-238.69
-241.44
-243.62
-243.93
-241.34
-235.28
-225.87
-213.71
-199.68
-184.73
-169.64
-154.99
-141.16
-128.54
-117.61
-109.04
-103.61
-102
-104.51
-110.81
-119.85
-130.04
-139.57
-146.99
-151.57
-153.45
-153.42
-152.4
-150.91
-148.59
-144.4
-136.84
-124.68
-107.4
-85.39
-59.51
-30.52
1.58
37.88
80.22
130.95
192.42
266.74
355.07
456.59
567.27
679.29
782.06
864.68
919.33
943.62
941.07
919.14
886.07
848.09
808.39
767.74
726.17
684.17
642.92
603.54
566.33
530.59
495.16
459.22
422.79
386.65
351.91
319.26
288.58
259.03
229.36
198.5
165.96
131.95
97.28
62.88
29.33
-3.52
-36.56
-71
-107.5
-145.39
-182.26
-214.44
-238.17
-251
-252.73
-245.31
-231.97
-215.91
-199.33
-183.22
-167.77
-153.03
-139.35
-127.25
-117.13
-108.96
-102.24
-96.27
-90.51
-84.85
-79.47
-74.79
-71.03
-68.17
-65.85
-63.53
-60.68
-56.94
-52.29
-47.03
-41.69
-36.84
-32.95
-30.31
-28.94
-28.68
-29.28
-30.46
-31.84
-32.95
-33.19
-31.97
-28.87
-23.9
-17.51
-10.56
-4.03
1.19
4.47
5.52
4.39
1.48
-2.55
-6.86
-10.67
-13.48
-15.2
-16.17
-16.89
-17.79
-19.04
-20.54
-22.09
-23.52
-24.82
-26.08
-27.44
-28.95
-30.62
-32.41
-34.24
-35.91
-37.08
-37.21
-35.73
-32.24
-26.77
-19.84
-12.34
-5.24
0.68
4.96
7.51
8.43
7.87
6.01
3.03
-0.76
-4.93
-8.99
-12.47
-15.1
-16.83
-17.82
-18.34
-18.68
-19.06
-19.63
-20.55
-21.92
-23.83
-26.28
-29.1
-31.81
-33.72
-34.09
-32.32
-28.28
-22.3
-15.18
-7.92
-1.42
3.65
7.01
8.61
8.6
7.16
4.55
1.08
-2.89
-6.94
-10.68
-13.79
-16.16
-17.84
-19.05
-20.1
-21.22
-22.47
-23.77
-25.08
-26.47
-28.27
-30.8
-34.15
-37.88
-40.97
-42.13
-40.28
-35.1
-27.1
-17.53
-7.87
0.65
7.35
12.08
15
16.31
16.08
14.37
11.32
7.28
2.82
-1.48
-5.14
-7.98
-10.14
-12
-13.94
-16.26
-19.08
-22.34
-25.91
-29.69
-33.61
-37.53
-41.1
-43.73
-44.67
-43.21
-38.97
-32.1
-23.23
-13.3
-3.33
5.92
13.88
20.19
24.59
26.9
27.08
25.28
21.92
17.56
12.84
8.39
4.73
2.21
0.98
0.84
1.34
1.87
1.81
0.77
-1.43
-4.75
-9.01
-13.86
-18.72
-22.68
-24.61
-23.48
-18.74
-10.63
-0.11
11.39
22.52
32.27
40.09
45.72
49.06
49.99
48.49
44.75
39.21
32.49
25.27
18.08
11.23
4.79
-1.38
-7.46
-13.67
-20.04
-26.54
-33.04
-39.55
-46.2
-53.2
-60.46
-67.34
-72.48
-74.14
-70.74
-61.56
-47.15
-29.19
-10.02
8.05
23.32
34.82
42.27
45.79
45.68
42.43
36.64
29.13
20.84
12.68
5.37
-0.67
-5.43
-9.14
-12.19
-14.99
-17.91
-21.27
-25.36
-30.53
-37.04
-44.93
-53.62
-61.79
-67.43
-68.31
-62.79
-50.44
-32.46
-11.38
9.68
27.94
41.63
50.16
53.84
53.35
49.4
42.61
33.67
23.45
13.07
3.59
-4.18
-9.98
-14.06
-17.03
-19.62
-22.4
-25.82
-30.15
-35.67
-42.6
-50.96
-60.27
-69.24
-75.82
-77.57
-72.43
-59.56
-39.87
-15.97
8.61
30.39
46.98
57.4
61.91
61.39
56.88
49.25
39.34
28.17
16.94
6.91
-1
-6.45
-9.76
-11.74
-13.39
-15.59
-19.02
-24.06
-30.91
-39.61
-49.92
-61.11
-71.74
-79.64
-82.35
-77.78
-65.05
-45.03
-20.22
5.87
29.8
49.1
62.62
70.42
73.16
71.61
66.43
58.23
47.75
35.98
24.08
13.17
3.99
-3.24
-8.77
-13.22
-17.25
-21.53
-26.63
-33.08
-41.34
-51.64
-63.51
-75.46
-84.93
-88.7
-84.02
-69.6
-46.41
-17.51
12.72
40.05
61.49
75.84
83.48
85.64
83.6
78.26
70.14
59.69
47.56
34.75
22.42
11.59
2.76
-4.12
-9.59
-14.41
-19.23
-24.54
-30.74
-38.18
-47.28
-58.17
-70.22
-81.64
-89.51
-90.51
-82.09
-63.63
-36.95
-5.9
24.82
51.11
70.46
82.19
87.01
86.25
81.24
73.08
62.74
51.18
39.37
28.17
18.1
9.3
1.62
-5.21
-11.42
-17.16
-22.49
-27.59
-32.77
-38.63
-45.94
-55.39
-67.06
-79.92
-91.58
-98.61
-97.5
-86.03
-64.29
-34.95
-2.52
28.16
53.38
71.39
82.28
87.11
87.14
83.26
76.13
66.48
55.34
43.97
33.47
24.41
16.78
10.17
4.15
-1.51
-6.79
-11.68
-16.41
-21.6
-28.14
-37.01
-48.79
-63.21
-78.73
-92.43
-100.44
-98.98
-85.69
-60.81
-27.46
9.05
42.85
69.23
85.9
93.12
92.84
87.52
79.11
68.76
56.99
44.31
31.44
19.36
9.02
0.92
-4.97
-9.21
-12.55
-15.69
-19.08
-23.04
-27.95
-34.44
-43.32
-55.07
-69.16
-83.43
-94.11
-96.85
-88.23
-67.37
-36.69
-1.33
32.59
59.9
77.91
86.59
87.76
83.83
76.7
67.5
56.72
44.8
32.36
20.26
9.29
-0.06
-7.71
-13.99
-19.35
-24.31
-29.19
-34.27
-39.87
-46.51
-54.88
-65.39
-77.63
-89.72
-98.35
-99.53
-90.13
-69.27
-39.11
-4.43
29.04
56.42
75.07
84.86
87.4
84.82
78.87
70.6
60.58
49.4
37.82
26.67
16.64
8.03
0.76
-5.43
-10.8
-15.52
-19.63
-23.33
-27.11
-31.83
-38.57
-48.25
-60.91
-75.1
-87.75
-94.62
-91.75
-76.94
-50.89
-17.31
18.23
50.16
74.54
89.9
96.92
97.43
93.37
86.16
76.69
65.68
53.87
42.06
30.84
20.54
11.17
2.68
-4.9
-11.42
-16.71
-20.83
-24.21
-27.69
-32.43
-39.67
-50.31
-64.34
-80.32
-95.06
-104.26
-103.67
-90.75
-65.87
-32.54
3.65
36.96
63.25
80.98
90.9
94.92
94.83
91.62
85.59
76.83
65.78
53.4
40.86
29.13
18.7
9.61
1.54
-5.84
-12.73
-19.23
-25.47
-31.81
-38.94
-47.82
-59.19
-72.99
-87.77
-100.52
-107.26
-104.34
-89.89
-64.89
-33.06
0.3
30.02
52.67
67.23
74.64
76.77
75.25
70.97
64.15
54.82
43.45
31.03
18.89
8.22
-0.31
-6.7
-11.47
-15.37
-19.09
-23.13
-27.92
-33.93
-41.72
-51.72
-63.6
-75.86
-85.62
-89.18
-83.33
-66.69
-40.67
-9.24
22.33
49.27
68.68
80.03
84.53
84.01
79.98
73.27
64.32
53.58
41.88
30.22
19.49
10.23
2.54
-3.72
-8.76
-12.76
-15.98
-18.89
-22.24
-27.08
-34.44
-44.83
-57.73
-71.11
-81.55
-85.06
-78.39
-60.48
-33.19
-0.95
30.61
56.56
74.04
82.71
84.12
80.44
73.54
64.48
53.82
42.06
29.92
18.36
8.24
0.04
-6.33
-11.29
-15.44
-19.3
-23.21
-27.37
-32.06
-37.73
-44.95
-54.1
-64.76
-75.32
-82.89
-83.97
-75.75
-57.27
-30.27
1.21
32
57.52
75.04
84.03
85.71
81.98
74.63
64.96
53.82
42.01
30.45
20
11.27
4.4
-0.94
-5.32
-9.25
-13.06
-16.83
-20.63
-24.76
-29.82
-36.67
-45.94
-57.4
-69.48
-79.26
-83.15
-78.09
-62.84
-38.69
-9.32
20.37
45.84
64.15
74.5
77.78
75.72
69.93
61.59
51.52
40.4
29.09
18.53
9.52
2.45
-2.78
-6.69
-9.92
-13.06
-16.53
-20.58
-25.5
-31.61
-39.26
-48.58
-59.04
-69.07
-76.06
-76.91
-69.05
-51.68
-26.38
3.01
31.61
54.97
70.39
77.41
77.29
72.1
63.67
53.21
41.4
28.83
16.31
4.96
-4.19
-10.62
-14.53
-16.78
-18.49
-20.6
-23.59
-27.55
-32.5
-38.63
-46.31
-55.63
-65.76
-74.6
-79.07
-76.03
-63.68
-42.49
-15.33
13.36
39.12
58.73
70.95
76.17
75.74
71.03
63.14
52.89
41.18
29.11
17.92
8.59
1.56
-3.38
-6.91
-9.84
-12.81
-16.22
-20.29
-25.3
-31.74
-40.11
-50.65
-62.66
-74.25
-82.38
-83.72
-75.89
-58.52
-33.72
-5.48
21.63
43.92
59.47
68.21
71.18
69.77
65.01
57.61
48.08
37.17
25.81
15.07
5.85
-1.36
-6.55
-10.12
-12.73
-15.07
-17.75
-21.21
-25.92
-32.32
-40.81
-51.36
-62.98
-73.35
-79.2
-77.17
-65.27
-43.82
-15.73
14.37
41.7
62.79
76.31
82.91
84.34
82.38
78.26
72.45
65.11
56.37
46.69
36.78
27.46
19.42
13
8.14
4.42
1.2
-2.17
-6.21
-11.38
-18.13
-26.87
-37.79
-50.35
-62.83
-72.27
-75.24
-68.93
-52.5
-27.65
1.71
30.83
55.6
73.77
85.09
90.67
91.91
89.77
84.51
76.14
64.87
51.47
37.09
22.97
9.92
-1.73
-12.1
-21.38
-29.6
-36.66
-42.49
-47.38
-52.15
-58.06
-66.35
-77.53
-90.74
-103.47
-111.97
-112.35
-101.98
-80.64
-50.77
-16.81
16.23
44.23
64.9
77.75
83.56
83.5
78.69
70.09
58.75
45.95
33.11
21.51
11.89
4.36
-1.51
-6.34
-10.6
-14.48
-17.93
-20.95
-23.86
-27.47
-32.94
-41.41
-53.37
-68.03
-82.92
-94.13
-97.31
-89.18
-68.87
-38.66
-3.41
30.97
59.41
79.05
89.56
92.41
89.63
82.9
73.29
61.53
48.45
35.23
23.13
13.1
5.51
0.05
-3.96
-7.26
-10.39
-13.63
-17.13
-21.15
-26.17
-33.01
-42.49
-54.93
-69.35
-83.15
-92.31
-92.58
-81.1
-57.82
-25.92
9.1
41.22
65.88
81.03
87.14
86.14
80.24
71.13
59.81
47.06
33.73
20.93
9.75
0.94
-5.37
-9.61
-12.61
-15.24
-18.23
-22.05
-26.96
-33.24
-41.31
-51.66
-64.38
-78.49
-91.52
-99.68
-98.91
-86.5
-62.42
-29.88
5.67
38.27
63.46
79.36
86.63
87.33
83.72
77.31
68.76
58.36
46.55
34.15
22.26
11.9
3.64
-2.52
-7.05
-10.64
-13.99
-17.65
-22.07
-27.85
-35.7
-46.36
-59.94
-75.32
-89.67
-98.87
-98.7
-86.47
-62.4
-29.88
5.58
38.14
63.51
79.96
88.02
89.54
86.48
80.21
71.49
60.81
48.85
36.52
24.8
14.44
5.84
-1.03
-6.41
-10.65
-14.16
-17.43
-21.05
-25.75
-32.33
-41.57
-53.83
-68.56
-83.77
-96.05
-101.19
-95.55
-77.6
-48.85
-13.63
22.23
53.37
76.43
90.62
97.1
97.78
94.28
87.5
77.94
66.17
53.16
40.2
28.38
18.3
9.89
2.71
-3.66
-9.33
-14.17
-18.07
-21.3
-24.67
-29.46
-37.07
-48.44
-63.41
-80.25
-95.62
-105.12
-104.59
-91.65
-66.81
-33.56
2.6
36.05
62.71
80.9
91.04
94.62
93.07
87.35
78.09
66.13
52.77
39.6
27.96
18.46
10.96
4.79
-0.72
-5.88
-10.71
-15.13
-19.28
-23.6
-28.87
-36.02
-45.84
-58.67
-73.84
-89.29
-101.58
-106.57
-100.84
-83.08
-54.97
-20.87
13.59
43.38
65.48
79.24
85.67
86.35
82.54
75.02
64.48
51.96
39.02
27.2
17.58
10.32
4.77
-0.12
-5.15
-10.61
-16.28
-21.77
-26.95
-32.28
-38.78
-47.75
-60.19
-76.01
-93.41
-108.81
-117.53
-115.29
-99.75
-71.72
-35.12
4.17
40.27
68.93
88.39
99.08
102.55
100.43
93.91
83.82
71.02
56.76
42.54
29.75
19.33
11.51
5.94
1.92
-1.31
-4.33
-7.54
-11.25
-15.91
-22.24
-31.15
-43.31
-58.42
-74.56
-88.1
-94.49
-89.83
-72.43
-43.8
-8.36
28.01
59.89
83.81
98.67
105.31
105.39
100.55
92.01
80.74
67.67
53.96
40.79
29.12
19.45
11.73
5.5
0.18
-4.75
-9.62
-14.68
-20.27
-27.05
-35.93
-47.79
-62.82
-79.84
-96.02
-107.18
-109.04
-98.77
-76.23
-44.3
-7.98
27.18
56.79
78.51
92.03
98.25
98.42
93.7
85.1
73.8
61.25
48.94
37.99
28.8
21.08
14.12
7.33
0.48
-6.21
-12.41
-17.96
-23.21
-29.06
-36.78
-47.6
-62.17
-79.87
-98.43
-113.99
-121.97
-118.57
-102.16
-74.19
-38.8
-1.49
32.61
60.21
80.2
93.05
99.82
101.27
97.79
89.77
78.15
64.56
50.96
38.96
29.27
21.57
14.94
8.42
1.59
-5.37
-11.91
-17.61
-22.6
-27.74
-34.44
-44.14
-57.68
-74.53
-92.46
-107.65
-115.56
-112.37
-96.38
-68.89
-33.88
3.25
37.45
65.31
85.52
98.37
104.71
105.27
100.52
91.11
78.29
63.97
50.25
38.74
29.89
23.11
17.22
11.16
4.48
-2.5
-9.15
-15.01
-20.2
-25.61
-32.6
-42.55
-56.19
-72.96
-90.64
-105.49
-113.09
-109.68
-93.62
-66.18
-31.34
5.46
39.06
65.96
84.84
96.02
100.52
99.31
93.11
82.74
69.51
55.27
41.92
30.77
22.06
15.09
8.69
1.92
-5.46
-13.05
-20.15
-26.35
-31.89
-37.65
-44.93
-54.92
-68.21
-84.2
-100.8
-114.46
-120.92
-116.39
-99.02
-69.87
-32.88
6.18
41.54
69.14
87.35
96.75
99.05
96.03
88.99
78.93
66.91
54.31
42.7
33.27
26.49
22.02
19.01
16.6
14.23
11.79
9.32
6.73
3.53
-1.19
-8.48
-19.07
-32.7
-47.49
-59.92
-65.54
-60.36
-42.59
-13.64
21.95
57.98
88.6
110.12
121.62
124.38
120.55
111.94
99.63
84.26
66.63
48.04
30.13
14.34
1.41
-8.77
-16.92
-23.95
-30.49
-36.91
-43.34
-50.05
-57.67
-67.23
-79.76
-95.55
-113.39
-130.18
-141.46
-142.75
-131.24
-107.21
-74.21
-37.94
-4.38
22.13
39.82
49.22
52.06
50.16
44.75
36.59
26.42
15.27
4.45
-4.83
-11.92
-16.88
-20.33
-23.12
-25.88
-28.94
-32.3
-36
-40.35
-46.08
-54.21
-65.52
-79.78
-95.09
-107.83
-113.43
-107.9
-89.45
-59.43
-22.1
16.78
51.77
79.26
97.98
108.52
112.27
110.64
104.65
95.09
82.88
69.23
55.45
42.67
31.53
22.12
14.09
7.02
0.53
-5.61
-11.52
-17.52
-24.22
-32.58
-43.61
-57.76
-74.22
-90.54
-102.8
-106.69
-98.93
-78.66
-48
-11.54
25.09
56.96
81.03
96.46
103.99
104.99
100.83
92.59
81.22
67.85
53.74
40.1
27.77
17.1
7.98
0.19
-6.43
-11.98
-16.59
-20.69
-25.14
-31.23
-40.32
-53.41
-70.34
-89.24
-106.45
-117.06
-116.38
-101.65
-73.34
-35.33
6.11
44.43
74.61
94.4
104.1
105.6
101.09
92.31
80.4
66.23
50.84
35.5
21.48
9.71
0.53
-6.33
-11.56
-15.95
-20.2
-24.79
-30.13
-36.79
-45.57
-57.27
-72.14
-88.91
-104.46
-114.11
-113
-98.09
-69.72
-31.98
8.53
44.93
72.32
88.96
95.91
95.69
90.69
82.27
70.89
56.81
40.77
24.34
9.4
-2.42
-10.43
-15.03
-17.45
-19.21
-21.65
-25.67
-31.87
-40.76
-52.79
-67.95
-85.07
-101.3
-112.26
-113.28
-101.12
-75.57
-39.97
-0.26
37.03
66.86
86.98
97.8
101.34
99.78
94.63
86.5
75.66
62.55
48.1
33.58
20.22
8.85
-0.31
-7.6
-13.67
-19.28
-25.15
-32.01
-40.71
-52.18
-67.02
-84.84
-103.46
-118.88
-126.06
-120.65
-100.77
-68.09
-27.54
14.25
51.18
79.32
97.58
107.05
109.75
107.55
101.64
92.66
81.15
67.88
53.9
40.37
28.24
18.08
9.92
3.39
-2.18
-7.55
-13.46
-20.61
-29.7
-41.43
-56.27
-73.85
-92.46
-108.68
-117.99
-116.07
-100.48
-71.93
-34.31
6.44
44.25
74.73
95.99
108.36
113.38
112.68
107.45
98.52
86.7
73.07
58.87
45.22
32.81
21.81
12.05
3.36
-4.35
-11.01
-16.67
-21.7
-26.93
-33.61
-43.22
-56.88
-74.73
-95.17
-114.66
-128.17
-130.58
-118.55
-91.95
-54.34
-11.83
28.9
62.66
86.95
101.84
108.91
109.91
106.08
98.06
86.47
72.34
57.22
42.74
30.09
19.73
11.38
4.41
-1.76
-7.46
-12.79
-17.86
-23.07
-29.31
-37.92
-50.2
-66.74
-86.47
-106.23
-120.99
-125.29
-115.11
-89.74
-52.43
-9.54
31.63
65.17
88.15
100.7
104.96
103.45
98.06
89.74
79.04
66.56
53.31
40.5
29.03
19.3
11.08
3.83
-2.98
-9.62
-16.19
-22.75
-29.69
-37.83
-48.39
-62.45
-80.14
-99.79
-117.54
-128.1
-126.34
-109.37
-78.03
-36.96
6.84
46.41
76.97
96.92
107.28
110.32
108.12
101.82
91.96
79
63.93
48.24
33.52
21
11.11
3.62
-2.22
-7.23
-12.13
-17.43
-23.58
-31.14
-40.91
-53.69
-69.76
-88.08
-105.7
-118.07
-120.21
-108.59
-82.78
-46.07
-4.5
35.18
67.69
90.57
104.09
110.06
110.46
106.63
99.17
88.58
75.67
61.66
47.85
35.17
23.99
14.18
5.44
-2.49
-9.75
-16.5
-23.11
-30.22
-38.82
-50.02
-64.7
-82.79
-102.7
-121.03
-132.99
-133.79
-120.35
-92.77
-54.59
-11.9
28.72
62.15
85.9
100.04
106.15
106.1
101.29
92.65
81.03
67.56
53.65
40.59
29.11
19.26
10.62
2.71
-4.61
-11.18
-16.76
-21.42
-25.82
-31.17
-39.03
-50.77
-66.93
-86.45
-106.23
-121.39
-126.43
-117.14
-92.35
-54.88
-10.81
32.47
68.64
94.18
108.74
114.12
112.78
106.68
96.94
84.24
69.45
53.88
39.1
26.4
16.38
8.83
3.01
-1.9
-6.47
-10.95
-15.42
-20.17
-25.97
-34.08
-45.94
-62.29
-82.22
-102.54
-118.03
-122.84
-112.62
-86.43
-47.69
-3.11
39.41
73.55
96.19
107.6
110.23
106.9
99.66
89.48
76.8
62.26
46.99
32.41
19.63
9.15
0.78
-6.07
-11.98
-17.37
-22.48
-27.58
-33.21
-40.27
-49.94
-63.21
-80.12
-98.94
-115.95
-126
-124.06
-107.21
-76.2
-35.48
8.03
47.34
77.47
96.68
105.93
107.64
104.2
97.14
87.22
74.95
61.08
46.7
32.95
20.58
9.84
0.54
-7.64
-14.9
-21.26
-26.77
-31.64
-36.54
-42.6
-51.24
-63.66
-79.95
-98.35
-115.02
-124.74
-122.53
-105.62
-74.84
-34.71
7.98
46.43
75.99
95.08
104.75
107.36
105.13
99.43
90.85
79.73
66.73
52.89
39.38
27.1
16.49
7.49
-0.17
-6.81
-12.64
-17.93
-23.08
-28.79
-36.13
-46.31
-60.23
-77.76
-97.09
-114.47
-124.87
-123.49
-107.61
-77.88
-38.54
3.99
43.14
74.2
95.29
107.06
111.49
110.6
105.74
97.51
86.37
73.01
58.57
44.32
31.32
20.05
10.48
2.26
-4.94
-11.28
-16.88
-22
-27.3
-34
-43.54
-57.09
-74.65
-94.4
-112.59
-124.13
-124.17
-109.87
-81.69
-43.6
-1.84
37.06
68.24
89.6
101.55
105.85
104.47
98.78
89.62
77.78
64.36
50.74
38.18
27.43
18.52
10.92
4
-2.62
-8.92
-14.73
-20.01
-25.22
-31.37
-39.82
-51.78
-67.54
-85.71
-102.9
-114.15
-114.39
-100.19
-71.48
-31.88
12.18
53.6
86.88
109.49
121.78
125.92
124.35
118.82
110.28
99.39
87.05
74.58
63.4
54.51
48.19
44.02
41.26
39.29
37.74
36.51
35.41
33.91
30.96
25.22
15.73
2.86
-11.06
-21.74
-24.07
-14.1
9.13
42.68
80.48
115.31
141.39
155.86
158.98
153.01
140.57
123.57
103.05
79.7
54.46
28.68
3.77
-19.37
-40.54
-60.2
-78.96
-97.11
-114.48
-130.66
-145.3
-158.42
-170.53
-182.4
-194.91
-208.69
-223.97
-240.58
-258.06
-275.77
-293.16
-309.72
-325.04
-338.67
-349.96
-357.93
-361.35
-358.92
-349.7
-333.51
-311.22
-284.6
-255.94
-227.44
-200.74
-176.62
-155.09
-135.77
-118.21
-102.08
-87.23
-73.65
-61.29
-50.14
-40.26
-31.86
-25.28
-20.87
-18.88
-19.3
-21.86
-26.02
-31.17
-36.69
-42.09
-47.06
-51.46
-55.26
-58.45
-61.05
-63.07
-64.57
-65.74
-66.98
-68.87
-72.19
-77.72
-86.08
-97.5
-111.72
-128.02
-145.36
-162.64
-178.94
-193.63
-206.36
-216.88
-224.8
-229.45
-229.92
-225.33
-215.06
-199.07
-177.91
-152.46
-123.68
-92.26
-58.46
-22.26
16.48
57.93
102.4
150.2
201.41
255.13
308.84
358.23
398.01
423.55
432.58
426.17
408.31
384.26
358.46
333.29
309.03
284.93
260.44
235.75
211.3
186.95
161.65
134.2
104.73
75.8
52.23
39.62
41.72
58.55
86.03
117.4
145.72
166.08
176.67
178.26
173.01
163.08
150.12
135.34
119.95
105.34
92.8
82.95
75.37
68.66
61.04
51.18
38.78
24.49
9.35
-6.05
-22.21
-40.39
-61.73
-85.93
-110.41
-130.61
-141.35
-138.79
-122.14
-94.2
-60.56
-27.8
-1.25
16.48
25.84
29.54
30.9
32.28
34
34.52
31.28
22.16
6.8
-13.05
-33.81
-50.93
-59.84
-56.78
-39.72
-9.59
28.68
66.32
92.85
100.12
86.58
59.4
32.77
22.64
40.24
87.64
157.55
236.96
312.72
375.59
421.52
450.16
462.5
459.4
441.73
411.46
372.35
329.62
288.47
252.42
222.59
197.95
176.48
156.54
137.56
119.93
104.28
90.7
78.32
65.54
50.88
33.88
15.65
-1.24
-13.71
-19.25
-17
-8.04
5.01
18.93
30.87
39.02
42.67
41.97
37.54
30.2
20.87
10.51
0.02
-9.98
-19.23
-27.85
-36.13
-44.2
-51.88
-58.68
-64.03
-67.62
-69.57
-70.47
-71.16
-72.39
-74.53
-77.41
-80.33
-82.2
-81.9
-78.61
-72.07
-62.79
-51.85
-40.67
-30.55
-22.32
-16.27
-12.27
-10.01
-9.22
-9.66
-11.05
-12.87
-14.49
-15.38
-15.32
-14.49
-13.38
-12.47
-12.04
-12.02
-12.18
-12.28
-12.31
-12.44
-12.94
-13.96
-15.42
-17.05
-18.43
-19.17
-19.04
-18.02
-16.23
-13.96
-11.46
-9.03
-6.82
-5.03
-3.77
-3.14
-3.18
-3.8
-4.87
-6.17
-7.49
-8.67
-9.61
-10.28
-10.69
-10.92
-11.07
-11.23
-11.52
-12.03
-12.79
-13.73
-14.7
-15.49
-15.88
-15.74
-15.07
-14
-12.71
-11.37
-10.17
-9.21
-8.57
-8.31
-8.38
-8.71
-9.18
-9.71
-10.25
-10.76
-11.22
-11.62
-11.92
-12.1
-12.21
-12.31
-12.48
-12.76
-13.13
-13.52
-13.79
-13.84
-13.58
-13.02
-12.25
-11.33
-10.37
-9.34
-8.22
-6.95
-5.54
-4.08
-2.69
-1.51
-0.62
-0.11
0.01
-0.29
-0.99
-2.01
-3.18
-4.33
-5.27
-5.91
-6.24
-6.29
-6.15
-5.93
-5.76
-5.78
-6.1
-6.82
-7.93
-9.34
-10.88
-12.34
-13.57
-14.45
-14.94
-15.05
-14.87
-14.5
-14.05
-13.6
-13.21
-12.89
-12.63
-12.49
-12.48
-12.66
-13.02
-13.52
-14.04
-14.45
-14.62
-14.44
-13.89
-13.03
-12
-10.99
-10.19
-9.74
-9.68
-9.98
-10.46
-10.95
-11.26
-11.3
-11.09
-10.69
-10.24
-9.82
-9.51
-9.36
-9.38
-9.61
-10.05
-10.66
-11.3
-11.78
-11.89
-11.54
-10.74
-9.64
-8.45
-7.32
-6.4
-5.72
-5.27
-5.03
-4.98
-5.15
-5.57
-6.23
-7.05
-7.88
-8.5
-8.78
-8.75
-8.56
-8.47
-8.69
-9.21
-9.83
-10.21
-10.07
-9.32
-8.17
-7.02
-6.27
-6.16
-6.66
-7.55
-8.51
-9.24
-9.64
-9.69
-9.47
-9.01
-8.31
-7.42
-6.46
-5.61
-5.09
-4.99
-5.21
-5.53
-5.72
-5.65
-5.33
-4.88
-4.46
-4.17
-3.99
-3.83
-3.61
-3.26
-2.86
-2.51
-2.32
-2.36
-2.54
-2.7
-2.67
-2.37
-1.91
-1.5
-1.41
-1.77
-2.54
-3.51
-4.46
-5.21
-5.72
-5.99
-6.05
-5.96
-5.83
-5.8
-6.09
-6.83
-8.03
-9.53
-11.04
-12.27
-13.04
-13.29
-13.05
-12.4
-11.46
-10.35
-9.23
-8.25
-7.5
-6.98
-6.6
-6.29
-6.05
-5.96
-6.15
-6.67
-7.46
-8.3
-8.92
-9.09
-8.75
-8.02
-7.13
-6.39
-6
-6.06
-6.5
-7.19
-7.98
-8.74
-9.39
-9.84
-9.99
-9.7
-8.92
-7.74
-6.39
-5.16
-4.31
-3.92
-3.91
-4.06
-4.22
-4.28
-4.28
-4.31
-4.49
-4.84
-5.36
-5.98
-6.62
-7.2
-7.65
-7.89
-7.86
-7.56
-7.08
-6.57
-6.19
-6.12
-6.43
-7.06
-7.86
-8.54
-8.85
-8.6
-7.8
-6.65
-5.47
-4.57
-4.09
-4.02
-4.21
-4.46
-4.71
-4.92
-5.12
-5.26
-5.23
-4.93
-4.36
-3.7
-3.18
-2.97
-3.03
-3.17
-3.12
-2.8
-2.35
-2.05
-2.16
-2.76
-3.71
-4.68
-5.38
-5.65
-5.5
-5.04
-4.42
-3.76
-3.11
-2.53
-2.02
-1.57
-1.15
-0.76
-0.47
-0.39
-0.65
-1.26
-2.15
-3.05
-3.69
-3.93
-3.81
-3.53
-3.31
-3.33
-3.62
-4.14
-4.83
-5.7
-6.68
-7.68
-8.47
-8.78
-8.44
-7.44
-6.03
-4.56
-3.4
-2.78
-2.66
-2.9
-3.27
-3.65
-4.02
-4.45
-4.96
-5.51
-5.95
-6.11
-5.92
-5.47
-4.94
-4.52
-4.27
-4.13
-3.99
-3.78
-3.6
-3.63
-3.98
-4.61
-5.29
-5.71
-5.65
-5.07
-4.16
-3.18
-2.38
-1.83
-1.5
-1.27
-1.07
-0.89
-0.75
-0.69
-0.73
-0.89
-1.2
-1.68
-2.3
-2.96
-3.51
-3.81
-3.81
-3.63
-3.49
-3.61
-4.1
-4.92
-5.86
-6.7
-7.22
-7.29
-6.86
-5.93
-4.52
-2.78
-0.93
0.72
1.89
2.37
2.12
1.3
0.2
-0.9
-1.79
-2.44
-2.91
-3.3
-3.7
-4.12
-4.51
-4.75
-4.78
-4.6
-4.27
-3.9
-3.59
-3.42
-3.47
-3.78
-4.37
-5.15
-5.93
-6.46
-6.52
-6.03
-5.16
-4.16
-3.31
-2.75
-2.4
-2.06
-1.58
-0.9
-0.14
0.49
0.81
0.76
0.42
-0.01
-0.36
-0.51
-0.46
-0.31
-0.16
-0.1
-0.13
-0.22
-0.35
-0.55
-0.92
-1.48
-2.23
-3.02
-3.65
-3.95
-3.86
-3.43
-2.77
-1.99
-1.11
-0.12
0.97
2.11
3.1
3.73
3.81
3.2
1.92
0.13
-1.88
-3.75
-5.22
-6.12
-6.46
-6.37
-6.08
-5.77
-5.57
-5.56
-5.77
-6.22
-6.85
-7.53
-8.07
-8.25
-7.89
-6.89
-5.26
-3.18
-0.94
1.04
2.4
2.92
2.63
1.77
0.68
-0.35
-1.14
-1.67
-2.04
-2.35
-2.71
-3.17
-3.73
-4.37
-4.98
-5.4
-5.49
-5.15
-4.42
-3.43
-2.43
-1.65
-1.34
-1.57
-2.29
-3.3
-4.25
-4.72
-4.44
-3.37
-1.72
0.1
1.71
2.85
3.44
3.59
3.43
3.02
2.41
1.67
0.92
0.3
-0.02
-0.02
0.22
0.52
0.7
0.69
0.53
0.31
0.08
-0.22
-0.73
-1.6
-2.93
-4.6
-6.42
-8.03
-9.15
-9.55
-9.15
-8.06
-6.46
-4.61
-2.78
-1.21
-0.06
0.59
0.81
0.7
0.42
0.06
-0.37
-0.87
-1.45
-2.06
-2.62
-3.04
-3.29
-3.37
-3.35
-3.29
-3.25
-3.24
-3.27
-3.36
-3.56
-3.9
-4.44
-5.14
-5.91
-6.5
-6.67
-6.22
-5.1
-3.47
-1.61
0.11
1.43
2.26
2.65
2.77
2.78
2.77
2.75
2.64
2.36
1.92
1.4
0.98
0.79
0.88
1.16
1.46
1.59
1.5
1.24
0.96
0.73
0.54
0.25
-0.28
-1.16
-2.31
-3.53
-4.56
-5.2
-5.3
-4.85
-3.95
-2.74
-1.4
-0.08
1.07
1.97
2.57
2.88
2.9
2.69
2.29
1.77
1.21
0.69
0.23
-0.15
-0.49
-0.85
-1.23
-1.61
-1.97
-2.33
-2.75
-3.33
-4.12
-5.08
-6.04
-6.75
-7.01
-6.71
-5.85
-4.53
-2.85
-0.95
1
2.82
4.27
5.18
5.47
5.23
4.63
3.93
3.35
3.01
2.9
2.91
2.83
2.46
1.74
0.71
-0.42
-1.43
-2.19
-2.75
-3.22
-3.8
-4.57
-5.52
-6.54
-7.53
-8.34
-8.89
-9.04
-8.68
-7.71
-6.13
-4.15
-2.01
-0.02
1.66
2.99
4.02
4.87
5.55
6.09
6.41
6.47
6.23
5.68
4.86
3.87
2.84
1.93
1.21
0.68
0.24
-0.25
-0.88
-1.65
-2.47
-3.24
-3.88
-4.4
-4.81
-5.12
-5.26
-5.12
-4.6
-3.64
-2.3
-0.7
1
2.62
4.02
5.1
5.8
6.06
5.82
5.08
3.89
2.44
1.04
-0.02
-0.57
-0.6
-0.32
-0
0.1
-0.17
-0.86
-1.96
-3.44
-5.27
-7.41
-9.76
-12.1
-14.12
-15.52
-16.02
-15.52
-14.06
-11.73
-8.7
-5.18
-1.45
2.07
5
7.03
8.12
8.47
8.42
8.27
8.1
7.77
7.05
5.76
3.95
1.82
-0.36
-2.37
-4.16
-5.79
-7.41
-9.2
-11.36
-14.1
-17.59
-21.91
-26.97
-32.45
-37.71
-41.82
-43.73
-42.6
-38.05
-30.44
-20.85
-10.76
-1.63
5.62
10.64
13.7
15.29
15.88
15.78
15.16
14.14
12.9
11.68
10.7
10.08
9.77
9.6
9.26
8.51
7.24
5.52
3.54
1.47
-0.56
-2.64
-4.86
-7.23
-9.55
-11.34
-12.09
-11.35
-9.07
-5.57
-1.51
2.36
5.45
7.38
8.15
7.96
7.16
6.09
5.01
3.99
2.97
1.82
0.41
-1.32
-3.33
-5.5
-7.68
-9.73
-11.61
-13.37
-15.17
-17.26
-19.82
-22.99
-26.67
-30.57
-34.21
-37.06
-38.74
-39.14
-38.54
-37.54
-36.85
-37.07
-38.52
-41.2
-44.9
-49.4
-54.67
-60.89
-68.32
-77.03
-86.7
-96.65
-106.09
-114.63
-122.5
-130.46
-139.4
-149.81
-161.43
-173.48
-184.99
-195.23
-203.73
-209.95
-212.79
-210.55
-201.27
-183.56
-157.23
-123.43
-84.06
-41.03
4.16
50.15
94.92
135.39
167.58
187.83
194.12
187.1
169.97
147.35
123.87
102.89
86.19
74.19
66.57
62.69
61.75
62.68
64.15
64.71
63.14
58.79
52.05
44.58
39.24
39.5
48.34
67.07
94.47
126.88
159.12
186.02
203.9
211.19
208.23
196.46
177.55
152.95
123.92
91.85
58.42
25.59
-4.75
-31.29
-53.6
-72.17
-88.03
-102.17
-115.09
-126.65
-136.45
-144.55
-152.04
-161.11
-174.15
-192.47
-214.91
-237.43
-254
-258.53
-247.1
-219.42
-178.94
-131.62
-83.84
-40.56
-4.17
25.33
49.54
70.34
89.01
106.01
121.27
134.78
147.06
159.17
172.25
186.94
202.95
219.12
233.73
244.79
250.04
246.55
230.53
198.01
146.68
78.05
-1.47
-81.3
-149.61
-197.13
-219.76
-219
-199.98
-168.77
-130.61
-89.86
-51
-19.26
0.2
4.27
-6.25
-26.35
-48.76
-66.95
-77.74
-81.98
-83.25
-85.38
-90.29
-97.32
-103.98
-107.62
-106.93
-102.45
-96.03
-89.62
-83.84
-77.23
-66.48
-47.46
-16.52
28.3
86.52
154.97
228.04
298.51
358.77
402.58
426.37
429.99
416.25
389.59
354.61
314.91
273.03
230.82
190.04
152.46
119.4
91.18
66.85
44.51
21.95
-2.66
-30.43
-61.57
-95.21
-129.33
-160.83
-186.01
-201.46
-205.12
-196.99
-179.09
-154.83
-127.9
-101.34
-77.09
-56.07
-38.54
-24.47
-13.62
-5.55
0.44
5.17
9.33
13.3
17.08
20.39
22.87
24.18
24.15
22.7
19.73
15.05
8.2
-1.4
-14.23
-30.02
-47.2
-62.76
-72.77
-73.66
-63.69
-43.94
-18.08
8.82
32.1
49.05
59.25
64.01
65.15
64.03
61.11
56.38
49.83
41.88
33.39
25.29
18.33
12.87
8.96
6.4
4.86
3.76
2.22
-0.98
-7.24
-17.69
-32.54
-50.51
-68.67
-82.85
-88.82
-83.68
-67.05
-41.44
-11.46
17.65
41.64
58.32
67.64
71
70.15
66.4
60.36
52.29
42.53
31.89
21.62
13.01
6.89
3.32
1.55
0.45
-1.08
-3.84
-8.32
-14.95
-24.14
-36.07
-50.04
-63.95
-74.27
-76.99
-69.11
-50.04
-22.19
9.7
40.14
64.78
81.55
90.73
93.97
93.17
89.51
83.3
74.49
63.38
50.98
38.99
29.2
22.78
19.76
19.04
18.79
17.21
13.12
6.18
-3.34
-14.8
-27.33
-39.48
-49.02
-53.08
-48.97
-35.42
-13.49
13.4
40.59
63.92
81.17
92.42
99.15
102.73
103.34
99.89
91.01
76.41
57.73
38.4
22.45
12.95
10.67
13.72
18.42
20.89
18.76
11.91
2.25
-7.45
-15.08
-20.08
-23.25
-25.83
-28.35
-29.98
-28.82
-22.85
-10.95
6.53
27.97
50.91
72.76
91.23
104.55
111.54
111.79
105.75
94.78
80.96
66.57
53.63
43.47
36.61
32.96
31.88
32.39
33.24
33.19
31.24
26.93
20.43
12.1
2.11
-9.77
-23.97
-40.33
-57.48
-72.79
-83.19
-86.46
-82.31
-72.67
-60.85
-50.17
-42.88
-39.66
-40.1
-43.51
-49.6
-58.57
-70.8
-86.3
-104.38
-123.68
-142.51
-159.42
-173.38
-183.87
-190.67
-193.67
-193.01
-189.37
-184.33
-180.24
-179.51
-183.53
-191.67
-201.18
-207.99
-208.28
-199.79
-182.52
-158.2
-129.47
-98.94
-68.76
-40.82
-16.95
1.1
12.02
15.38
11.83
2.92
-9.35
-22.99
-36.27
-47.84
-56.78
-62.83
-66.33
-68.05
-68.75
-68.78
-67.88
-65.38
-60.43
-52.15
-39.69
-22.09
1.41
30.94
65.5
102.71
139.33
172.25
199.25
219.54
233.5
242.07
246.28
247.07
245.45
242.68
240.08
238.68
238.87
240.24
241.9
242.87
242.51
240.53
236.83
231.2
223.07
211.54
195.57
174.58
149.04
121.06
94.33
73.49
62.84
65.06
80.05
104.67
133.19
158.58
174.28
175.94
162.66
137.25
105.24
73.06
45.98
26.66
14.78
7.99
3.19
-2.07
-8.93
-17.16
-25.39
-31.4
-32.38
-25.53
-9.06
16.69
48.44
80.35
105.67
118.94
118
104.8
84.53
63.59
47.32
38.39
36.38
38.54
41.01
40.22
33.76
20.91
2.73
-18.25
-38.7
-55.52
-66.87
-72.68
-74.41
-74.3
-74.35
-75.72
-78.61
-82.6
-87.09
-91.49
-95.27
-97.82
-98.54
-96.99
-93.09
-87.19
-79.99
-72.26
-64.67
-57.65
-51.44
-46.05
-41.38
-37.22
-33.4
-29.88
-26.83
-24.53
-23.3
-23.29
-24.41
-26.28
-28.26
-29.51
-29.15
-26.45
-21.14
-13.63
-5.11
2.73
8.14
9.94
7.87
2.63
-4.52
-12.3
-19.87
-26.93
-33.46
-39.42
-44.54
-48.47
-51.07
-52.66
-53.91
-55.42
-57.31
-58.95
-59.09
-56.23
-49.14
-37.13
-20.19
0.99
24.99
49.62
72.02
89.1
98.34
98.55
90.43
76.43
60.03
44.66
32.76
25.27
21.85
21.47
23.09
26.08
30.23
35.54
41.91
48.87
55.6
60.88
63.24
61.25
53.97
41.36
24.53
5.53
-13.14
-29.38
-41.99
-50.82
-56.39
-59.41
-60.5
-60.17
-59.08
-58.19
-58.52
-60.83
-65.18
-70.84
-76.58
-81.22
-84.13
-85.44
-85.81
-86.08
-86.86
-88.39
-90.57
-93.17
-95.98
-98.83
-101.66
-104.33
-106.75
-108.75
-110.24
-111.15
-111.49
-111.18
-110.13
-108.22
-105.29
-101.26
-95.98
-89.26
-80.71
-69.97
-56.87
-41.67
-25.18
-8.64
6.58
19.33
28.96
35.35
38.82
39.95
39.44
38.13
36.98
36.93
38.7
42.47
47.82
53.74
58.98
62.36
63.13
61.1
56.51
49.94
42.04
33.43
24.59
15.94
7.76
0.27
-6.4
-12.29
-17.54
-22.44
-27.32
-32.49
-38.1
-44.11
-50.32
-56.44
-62.2
-67.49
-72.31
-76.81
-81.09
-85.16
-88.87
-91.97
-94.24
-95.6
-96.21
-96.46
-96.85
-97.68
-98.97
-100.37
-101.33
-101.42
-100.47
-98.71
-96.53
-94.21
-91.53
-87.47
-80.23
-67.45
-46.75
-16.52
23.31
70.83
122.13
172.1
215.54
248.49
269.13
278.09
277.89
272.02
263.83
255.64
248.45
242.23
236.47
230.82
225.41
220.61
216.55
212.61
207.28
198.51
184.48
164.24
137.86
106.16
70.32
31.74
-7.73
-45.56
-78.54
-103.64
-118.99
-124.76
-123.24
-118
-112.52
-109.11
-108.43
-109.96
-112.77
-116.2
-120.11
-124.63
-129.92
-135.92
-142.42
-149.2
-156.14
-163.25
-170.58
-178.08
-185.64
-193.19
-200.93
-209.43
-219.59
-232.21
-247.54
-264.92
-282.8
-299.15
-312.3
-321.49
-327.21
-330.85
-333.91
-337.27
-340.62
-342.65
-341.55
-335.96
-325.49
-310.9
-293.76
-275.78
-258.25
-241.69
-225.99
-210.69
-195.44
-180.06
-164.53
-148.78
-132.51
-115.23
-96.4
-75.74
-53.39
-30
-6.53
15.91
36.4
54.41
69.87
83.15
94.77
105.13
114.28
121.77
126.79
128.5
126.43
120.73
112.33
102.55
92.69
83.46
74.72
65.65
55.28
43.13
29.61
16.01
4.02
-4.78
-9.16
-7.95
0.2
16.6
41.58
73.42
108.04
140.16
165.44
182.55
193.86
204.02
217.29
235.21
255.99
276.01
292.42
304.84
315.17
325.63
336.64
346.02
350.24
346.98
337.15
325.01
316.33
315.45
322.82
334.44
343.55
343.46
330.13
303.16
265.03
219.27
168.78
115.27
59.94
4.65
-47.4
-92.24
-126.6
-149.62
-163.53
-172.95
-182.99
-197.27
-216.51
-238.6
-259.6
-275.16
-281.71
-277.16
-261.05
-234.56
-200.37
-162.49
-125.9
-95.66
-75.69
-67.63
-70.18
-79.52
-90.6
-98.84
-101.49
-97.98
-89.4
-77.37
-63.13
-47.29
-30.21
-12.51
4.76
20.48
34.13
46.16
57.97
71.16
86.82
104.92
124.3
143.17
159.77
172.91
182.23
188.08
191.17
192.34
192.2
191.11
189.02
185.65
180.58
173.58
164.93
155.41
146.12
137.93
130.97
124.38
116.64
106.19
92.18
74.89
55.68
36.54
19.42
5.75
-3.91
-9.78
-12.73
-14.03
-15.07
-17.05
-20.57
-25.43
-30.46
-33.84
-33.76
-29.07
-19.84
-7.29
6.76
20.71
33.77
46.03
58.03
70.06
81.8
92.26
100.27
104.99
106.23
104.38
99.96
93.22
84.01
72.06
57.51
41.4
25.5
11.73
1.15
-6.61
-12.99
-19.55
-26.99
-34.95
-42.81
-50.88
-60.74
-74.15
-90.97
-107.61
-117.69
-114.86
-96.49
-65.8
-30.99
-1.53
16
20.41
15.16
5.32
-5.75
-17.79
-32.8
-52.7
-77.21
-103.6
-128.16
-148.46
-164.87
-180.41
-198.78
-221.94
-248.31
-272.78
-288.42
-289.23
-272.48
-239.65
-195.74
-147.42
-101.02
-61.32
-31.21
-11.85
-2.87
-2.14
-5.77
-8.77
-6.51
3.39
19.92
38.9
54.78
63.09
62.28
54.01
41.75
28.87
17.12
6.45
-4.06
-15.05
-26.1
-36.12
-43.96
-49.12
-51.84
-52.84
-52.82
-52.08
-50.33
-47
-41.46
-33.44
-23.46
-12.93
-3.9
1.66
2.85
0.55
-2.45
-2.3
4.59
20.28
44.63
75.05
106.79
133.44
148.23
145.75
124.06
86.2
39.96
-4.11
-35.68
-47.41
-36.59
-5.27
40.57
92.32
140.21
175.13
190.76
185.62
163.73
133.48
104.6
84.58
76.16
76.91
80.88
81.23
72.68
53.16
24.11
-10.13
-43.78
-71.32
-89.29
-97.33
-97.99
-95.64
-94.72
-98.31
-107.21
-120.06
-133.89
-144.9
-149.19
-143.55
-126.39
-98.75
-65.04
-32.69
-10.41
-5.29
-19.94
-51.16
-90.85
-129.1
-157.75
-172.87
-174.91
-166.93
-152.09
-132.05
-106.89
-76.39
-41.39
-4.18
32.16
65.12
93.69
118.33
139.97
158.9
174.09
183.52
185.27
178.68
165
147.13
128.5
111.87
98.45
87.78
78.27
68.07
55.84
41.19
24.83
8.34
-6.18
-16.62
-21.45
-20.14
-13.38
-2.76
9.67
22.06
33.17
42.47
49.8
55.05
57.83
57.61
53.97
47.07
37.74
27.35
17.36
8.78
1.88
-3.84
-9.32
-15.53
-23.15
-32.45
-43.21
-54.73
-65.7
-74.37
-78.83
-77.59
-70.2
-57.5
-41.4
-24.26
-8.1
5.88
17.31
26.21
32.51
35.88
35.85
32.32
25.82
17.52
8.85
0.93
-5.83
-11.76
-17.66
-24.36
-32.39
-41.88
-52.69
-64.46
-76.53
-87.82
-96.8
-101.76
-101.33
-95.08
-83.73
-69
-53.03
-37.76
-24.48
-13.77
-5.67
0.03
3.58
5.28
5.45
4.47
2.8
0.83
-1.2
-3.11
-4.72
-5.61
-4.82
-0.75
8.64
25.18
49.57
80.57
114.81
147.43
173.56
189.89
195.69
192.72
184.18
173.2
161.8
150.64
139.44
127.79
115.42
102.11
87.16
69.21
46.43
17.38
-18.01
-57.81
-98.11
-134.03
-160.86
-175.46
-176.71
-165.49
-143.97
-114.76
-80.27
-42.64
-3.97
33.51
67.48
96.1
118.69
136.22
150.95
165.53
181.76
199.65
217.19
230.94
237.15
233.05
217.78
192.61
160.71
126.28
93.61
66.06
45.32
31.03
21.01
12.05
1.05
-13.84
-32.64
-53.59
-73.9
-90.72
-102.03
-107.18
-107.15
-104.35
-102.05
-103.41
-110.42
-123.04
-139.05
-154.69
-166.07
-170.37
-166.73
-156.11
-140.6
-122.52
-103.81
-86.01
-70.3
-57.64
-48.64
-43.31
-40.92
-39.95
-38.4
-34.13
-25.39
-11.32
7.6
29.48
51.38
70.15
83.42
90.32
91.64
89.37
85.96
83.59
83.77
87.33
94.37
104.39
116.18
127.89
137.11
141.39
138.63
127.58
108.09
81.02
47.9
10.55
-29.1
-69.05
-106.94
-139.82
-164.29
-177.11
-176.25
-161.99
-137.15
-106.54
-75.49
-48.35
-27.41
-12.81
-3.15
3.62
9.31
15.08
21.25
27.39
32.6
35.82
36.26
33.53
27.67
18.97
7.75
-5.84
-21.67
-39.42
-58.45
-77.75
-95.99
-111.66
-123.05
-128.39
-126.15
-115.51
-96.91
-72.23
-44.54
-17.39
5.94
23.15
33.19
36.23
33.46
26.71
18.03
9.31
1.87
-3.76
-7.74
-10.71
-13.42
-16.58
-20.74
-26.21
-32.85
-39.8
-45.41
-47.54
-44.3
-34.93
-20.35
-2.99
14.13
28.48
38.88
45.59
49.73
52.35
53.82
53.76
51.51
46.85
40.38
33.46
27.64
24.06
23.01
23.98
26.03
28.12
29.5
29.59
28.11
25.09
21.1
17.36
15.64
17.7
24.56
35.99
50.46
65.71
79.61
90.75
98.63
103.34
105.07
103.8
99.37
91.76
81.29
68.61
54.46
39.32
23.23
5.99
-12.58
-32.38
-52.89
-73.36
-93.18
-112.07
-129.93
-146.47
-160.66
-170.59
-173.98
-168.97
-155.1
-133.68
-107.55
-80.11
-54.32
-32.01
-13.84
0.27
10.63
17.4
20.64
20.61
18.03
14
9.76
6.24
3.83
2.32
1.08
-0.53
-2.98
-6.48
-11.08
-16.71
-23.17
-29.91
-35.88
-39.65
-39.72
-35.14
-25.83
-12.75
2.41
17.75
31.58
42.72
50.43
54.29
54.14
50.09
42.65
32.85
22.09
11.83
3.19
-3.32
-7.87
-11.04
-13.45
-15.66
-18.13
-21.52
-26.74
-34.6
-45.15
-57.03
-67.48
-73.15
-71.38
-61.36
-44.44
-23.68
-2.68
15.3
28.05
34.55
35.02
30.92
24.66
19.02
16.22
16.95
19.99
22.71
22.22
16.59
5.61
-9.31
-25.85
-41.65
-54.95
-64.82
-70.89
-73.1
-71.26
-64.87
-53.22
-35.88
-13.17
13.33
40.99
66.7
87.73
102.34
109.97
110.95
106
95.93
81.64
64.43
46.24
29.49
16.55
9.12
7.59
10.93
17.09
23.67
28.61
30.58
29.08
24.19
16.5
6.91
-3.43
-13.34
-21.99
-29.09
-35.02
-40.35
-45.24
-48.96
-49.91
-46.37
-37.48
-24.04
-8.53
5.81
16.32
21.99
23.82
24.15
25.68
30.6
40.21
54.93
74.19
96.27
118.08
135.56
144.76
143.46
132.23
114.29
94.08
75.36
59.89
47.36
36.43
25.85
15.04
3.78
-8.43
-22.45
-39.03
-57.88
-77.18
-93.97
-105.18
-108.86
-104.84
-94.76
-81.46
-68.31
-58.58
-54.88
-58.4
-68.41
-82.22
-95.88
-105.49
-108.53
-104.53
-94.81
-81.35
-65.74
-48.77
-30.84
-12.84
3.45
15.66
21.82
21.37
15.51
6.66
-2.66
-10.83
-17.46
-22.95
-27.77
-31.74
-34.22
-34.58
-33.08
-31.25
-31.41
-35.51
-43.68
-53.48
-60.3
-59.02
-46.11
-21.21
12.56
49.87
85.11
114.15
135.11
148
153.77
153.36
147.42
136.5
121.53
104.02
85.91
68.91
53.96
40.91
28.61
15.44
-0.11
-18.87
-40.6
-63.94
-86.55
-105.73
-119.23
-125.97
-126.41
-122.29
-115.78
-108.65
-101.66
-94.76
-87.69
-80.61
-74.45
-70.44
-69.51
-71.71
-76.16
-81.56
-86.8
-91.37
-95.25
-98.45
-100.69
-101.33
-99.81
-96.28
-91.74
-87.7
-85.22
-84.09
-82.56
-78.11
-68.76
-54.09
-35.56
-15.55
4.04
22.83
41.99
63.13
87.11
113.1
138.92
162
180.35
193.04
199.87
200.91
196.18
185.95
171.12
153.43
135.14
118.2
103.43
90.14
76.46
60.34
40.71
18.45
-3.52
-20.9
-29.36
-26.03
-10.3
16.1
49.84
86.76
122.47
152.68
173.56
182.48
179.05
165.77
147.67
130.7
119.44
115.32
116.26
117.92
115.79
107.1
91.68
71.62
50.16
30.4
14.47
3.17
-3.82
-7.56
-9.21
-9.52
-8.56
-5.74
-0.2
8.82
21.42
36.89
53.68
69.68
82.6
90.51
92.34
88.32
80.14
70.55
62.7
59.16
61.23
68.79
80.55
94.7
109.52
123.6
135.76
144.87
149.82
149.79
144.59
134.7
121.11
104.83
86.49
66.22
44.01
20.08
-4.85
-29.57
-52.82
-73.62
-91.58
-106.9
-120.13
-131.75
-142.05
-151.03
-158.51
-164.38
-168.77
-171.97
-174.41
-176.36
-177.79
-178.45
-178.05
-176.52
-174.06
-171.06
-167.84
-164.37
-160.3
-155.09
-148.38
-140.2
-131.09
-121.85
-113.37
-106.25
-100.73
-96.7
-93.84
-91.75
-90.02
-88.25
-86.05
-83.06
-78.98
-73.7
-67.32
-60.21
-52.92
-45.98
-39.82
-34.54
-30.05
-26.08
-22.4
-18.9
-15.59
-12.6
-9.99
-7.77
-5.84
-4.05
-2.29
-0.48
1.29
2.88
4.11
4.79
4.9
4.52
3.84
3.09
2.4
1.81
1.31
0.85
0.44
0.07
-0.27
-0.64
-1.11
-1.68
-2.26
-2.64
-2.66
-2.24
-1.49
-0.6
0.25
0.95
1.51
1.97
2.39
2.75
3
3.09
2.98
2.68
2.22
1.67
1.08
0.56
0.14
-0.19
-0.52
-1
-1.76
-2.79
-3.9
-4.8
-5.16
-4.82
-3.88
-2.62
-1.48
-0.79
-0.69
-1.1
-1.84
-2.73
-3.69
-4.82
-6.23
-8.03
-10.2
-12.62
-15.06
-17.32
-19.26
-20.88
-22.4
-24.12
-26.32
-29.11
-32.31
-35.36
-37.43
-37.67
-35.38
-30.36
-22.92
-13.94
-4.59
4.03
11.28
17.17
22.28
27.48
33.35
39.96
46.65
52.34
55.91
56.65
54.57
50.37
45.24
40.31
36.34
33.34
30.65
27.18
21.9
14.23
4.28
-7.1
-18.63
-28.95
-37.02
-42.44
-45.48
-46.98
-47.84
-48.51
-48.6
-46.97
-42.4
-34.39
-23.75
-12.47
-2.92
3.19
5.65
5.77
5.55
6.7
9.83
14.37
19.09
22.83
25.09
26
26.07
25.66
24.76
23.02
20.04
15.72
10.51
5.39
1.47
-0.38
0.01
2.07
4.67
6.55
6.93
5.75
3.62
1.5
0.26
0.34
1.76
4.2
7.29
10.69
14.1
17.12
19.18
19.6
17.85
13.82
8.12
1.91
-3.3
-6.22
-6.16
-3.27
1.56
7.14
12.36
16.53
19.37
20.87
21.02
19.7
16.73
12.05
5.84
-1.43
-9.1
-16.53
-23.23
-28.97
-33.78
-37.85
-41.4
-44.66
-47.77
-50.81
-53.7
-56.22
-57.93
-58.14
-56.12
-51.3
-43.6
-33.54
-22.09
-10.36
0.81
11.13
20.79
30.29
40.09
50.32
60.78
70.97
80.21
87.76
92.88
94.94
93.42
88.12
79.2
67.23
53.06
37.76
22.38
7.74
-5.72
-17.94
-28.94
-38.43
-45.62
-49.35
-48.49
-42.52
-31.92
-18.18
-3.42
10.22
21.21
28.96
33.73
36.34
37.61
37.95
37.33
35.37
31.7
26.23
19.21
11.07
2.27
-6.87
-16.05
-24.9
-32.93
-39.72
-45.28
-50.09
-55.04
-60.87
-67.78
-75.3
-82.53
-88.65
-93.4
-97.16
-100.74
-104.9
-109.88
-115.3
-120.35
-124.22
-126.4
-126.86
-125.99
-124.44
-123.11
-123.29
-126.66
-135.1
-149.97
-171.21
-196.62
-221.86
-241.4
-250.21
-245.38
-226.96
-197.66
-161.42
-121.72
-80.35
-37.3
8.26
56.48
105.65
152.15
191.56
220.32
237.2
243.73
243.45
240.35
237.48
236.1
235.75
234.87
231.67
224.72
213.54
198.68
181.54
163.87
147.05
131.59
116.87
101.37
83.09
60.14
31.25
-3.73
-43.46
-85.29
-125.65
-160.91
-188.22
-205.93
-213.24
-209.43
-193.55
-165.2
-126.29
-82.57
-43.29
-18.54
-15.12
-33.18
-65.67
-100.71
-125.92
-132.44
-116.9
-81.17
-30.87
26.77
84.34
135.44
175.7
203.39
219.46
226.39
226.52
220.57
207.64
186.24
156.08
118.92
78.17
37.6
0.36
-31.05
-53.95
-64.56
-58.62
-33.57
8.71
60.25
108.21
138.71
142.05
116.58
69.53
14.17
-35.2
-68.14
-80.86
-75.99
-60.07
-40.27
-22.03
-8.1
0.93
5.49
6.15
3.28
-2.78
-11.34
-21.04
-30.15
-37.1
-41.19
-42.76
-43.17
-44.26
-47.76
-54.85
-65.77
-79.63
-94.39
-107.16
-114.79
-114.8
-106.41
-91.24
-73.33
-58.21
-51.24
-55.62
-70.96
-92.93
-114.34
-127.08
-124.27
-102.21
-61.45
-7.14
51.87
104.83
142.02
157.34
150.3
126.13
93.82
63.22
42.51
36.91
48.43
76.27
116.55
161.99
202.27
226
223.76
191.39
131.87
54.77
-26.2
-96.49
-143.74
-160.15
-143.92
-99.98
-39.4
22.88
71.87
96.88
94.37
68.17
26.96
-19.67
-64.09
-101.9
-131.14
-150.96
-160.94
-161.9
-156.98
-151.83
-153.23
-166.08
-190.93
-223.25
-255
-277.79
-285.98
-278.1
-256.46
-225.39
-189.25
-151.31
-113.41
-76.1
-38.98
-1.18
37.93
77.83
116.29
149.59
173.7
185.73
185.4
175.26
159.97
144.96
134.82
132.25
137.76
150.02
166.58
184.59
201.47
215.2
224.41
228.4
227
220.53
209.83
196.39
182.04
168.58
157.07
147.36
138.16
127.76
115.19
100.97
87.13
76.15
69.61
67.07
66.05
62.8
53.69
36.5
10.95
-21.03
-55.73
-88.27
-113.4
-126.47
-124.46
-106.95
-76.6
-38.94
-1.32
28.76
45.55
46.6
33.41
10.94
-13.85
-34.05
-44.72
-44.03
-33.28
-16.14
2.79
19.35
30.69
35.85
35.64
32.1
27.86
25.17
25.45
29
34.9
41.43
46.27
47.15
42.37
31.41
15.17
-4.15
-23.54
-40.11
-51.84
-58.13
-59.75
-58.45
-56.19
-54.62
-54.65
-56.49
-59.87
-64.21
-68.76
-72.54
-74.29
-72.62
-66.35
-55.04
-39.32
-20.91
-2.07
15.11
29.44
40.95
50.58
59.51
68.43
77.18
84.82
90.3
92.94
92.76
90.29
86.08
80.31
72.72
62.91
50.79
36.87
22.08
7.53
-5.81
-17.12
-25.71
-30.88
-32.13
-29.41
-23.33
-15.12
-6.18
2.27
9.49
15.15
18.98
20.68
19.8
16.07
9.69
1.48
-7.27
-15.24
-21.49
-25.82
-28.73
-31.2
-34.24
-38.52
-44.01
-49.89
-54.68
-56.44
-53.33
-44.08
-28.56
-8.01
15.02
37.3
55.72
68.1
73.62
72.71
66.6
56.67
44.07
29.63
14.01
-2.09
-17.85
-32.48
-45.36
-56.19
-64.97
-71.97
-77.58
-82.27
-86.51
-90.7
-94.98
-99.04
-101.98
-102.39
-98.68
-89.58
-74.64
-54.44
-30.5
-4.75
20.91
45.04
66.74
85.42
100.62
111.82
118.58
120.69
118.35
112.2
103.22
92.46
80.94
69.44
58.52
48.53
39.68
32.06
25.7
20.59
16.69
14
12.45
12
12.58
14.12
16.54
19.68
23.3
26.99
30.26
32.64
33.75
33.46
31.84
29.16
25.71
21.79
17.62
13.46
9.53
6.05
3.15
0.76
-1.4
-3.73
-6.68
-10.51
-15.2
-20.41
-25.46
-29.59
-32.07
-32.48
-30.75
-27.23
-22.49
-17.16
-11.83
-6.98
-2.98
-0.19
1.15
0.96
-0.55
-2.95
-5.69
-8.28
-10.46
-12.2
-13.71
-15.18
-16.8
-18.66
-20.84
-23.42
-26.45
-29.81
-33.11
-35.67
-36.68
-35.5
-31.93
-26.36
-19.67
-12.87
-6.71
-1.57
2.55
5.78
8.07
9.12
8.58
6.34
2.8
-1.14
-4.36
-6.03
-5.97
-4.7
-3.18
-2.45
-3.14
-5.36
-8.73
-12.55
-16.01
-18.39
-19.02
-17.51
-13.7
-7.82
-0.47
7.44
14.96
21.36
26.19
29.35
30.99
31.3
30.38
28.33
25.3
21.58
17.66
14.04
11.07
8.73
6.66
4.25
0.93
-3.65
-9.43
-15.91
-22.31
-27.73
-31.46
-33.15
-32.9
-31.21
-28.81
-26.41
-24.63
-23.89
-24.43
-26.34
-29.54
-33.8
-38.7
-43.83
-48.86
-53.76
-58.76
-64.22
-70.5
-77.65
-85.45
-93.43
-101.06
-107.88
-113.57
-117.98
-120.99
-122.43
-122.14
-120
-116.05
-110.54
-103.8
-96.06
-87.24
-76.9
-64.41
-49.32
-31.65
-12.06
8.36
28.46
47.54
65.54
82.88
100.01
116.97
133.17
147.58
159.14
167.18
171.61
172.8
171.49
168.67
165.61
163.86
164.98
169.99
178.86
190.13
201.22
209.14
211.49
207.04
196.1
180.21
161.59
142.54
124.84
109.6
97.2
87.58
80.37
75.07
71.03
67.39
63.14
57.27
49.21
39.03
27.52
15.9
5.43
-3.08
-9.4
-13.8
-16.85
-19.15
-21.29
-23.76
-27.04
-31.57
-37.72
-45.77
-55.8
-67.62
-80.63
-93.87
-106.03
-115.84
-122.4
-125.57
-126
-124.85
-123.31
-122.09
-121.1
-119.65
-116.78
-111.8
-104.65
-95.8
-85.95
-75.44
-63.75
-49.5
-30.81
-6.15
24.76
60.52
98.12
133.73
163.74
185.71
198.82
203.77
202.4
197.21
190.8
185.51
182.87
183.35
186.17
189.61
191.64
190.64
185.84
177.38
166
152.51
137.58
121.66
105.07
88.15
71.16
54.13
36.72
18.25
-2.07
-24.9
-50.45
-78.35
-107.63
-136.87
-164.49
-189.09
-209.87
-226.85
-240.83
-253.09
-264.87
-277.02
-289.77
-302.92
-316.06
-328.81
-340.88
-351.92
-361.44
-368.86
-373.65
-375.52
-374.48
-370.82
-364.93
-357.24
-348.16
-338.05
-327.26
-316.16
-305.09
-294.43
-284.55
-275.7
-267.94
-260.94
-254.14
-246.93
-238.98
-230.41
-221.72
-213.57
-206.5
-201.02
-197.55
-196.55
-198.06
-201.33
-204.5
-204.82
-199.55
-186.97
-167.13
-141.75
-113.42
-84.61
-56.79
-30.38
-5.13
19.27
42.81
65.17
85.96
104.98
122.27
137.96
152.08
164.38
174.41
181.65
185.82
186.91
185.27
181.36
175.58
168.12
158.92
147.84
134.83
120.04
103.88
86.9
69.54
52
34.25
16.16
-2.27
-20.66
-38.41
-54.76
-69.28
-82.07
-93.85
-105.69
-118.56
-132.79
-147.79
-162.16
-174.13
-182.22
-185.64
-184.44
-179.08
-169.91
-156.74
-138.62
-114.17
-82.03
-41.05
9.62
70.27
140
215.75
291.89
361.1
416.38
453.64
473.21
479.43
478.38
475.01
471.23
465.98
457.05
443.09
424.61
403.47
381.3
358.33
333.3
304.46
270.89
233.21
193.34
153.9
117.33
85.49
59.55
40.2
27.71
21.89
22.01
26.74
34.37
42.97
50.69
56.03
58
56.33
51.41
44.14
35.56
26.54
17.57
8.69
-0.32
-9.84
-20.2
-31.67
-44.28
-57.79
-71.74
-85.63
-99.22
-112.59
-126.11
-140.13
-154.62
-168.99
-182.27
-193.33
-201.34
-205.91
-207.14
-205.39
-201.11
-194.66
-186.4
-176.82
-166.7
-157.1
-149.15
-143.6
-140.48
-139.01
-138
-136.46
-134.17
-131.72
-130.09
-129.77
-130.13
-129.25
-124.51
-113.46
-94.78
-68.71
-36.92
-1.82
34.02
68.44
99.77
126.82
148.8
165.45
177.15
184.87
189.82
192.96
194.6
194.33
191.43
185.46
176.72
166.11
154.84
143.79
133.27
123.02
112.61
101.65
89.91
77.27
63.7
49.44
35.26
22.54
13.12
8.64
9.93
16.61
27.12
39.22
50.63
59.52
64.75
65.79
62.49
54.94
43.39
28.47
11.59
-4.6
-16.26
-19.21
-10.47
9.8
37.34
64.45
82.24
83.52
65.18
28.9
-19.67
-72.86
-122.87
-163.06
-188.56
-196.53
-186.4
-160.02
-121.35
-75.52
-27.44
19.51
63.68
104.43
140.76
170.68
191.61
201.72
201.27
192.81
180.07
166.12
151.85
135.94
116.24
91.53
62.77
32.86
5.36
-16.92
-32.8
-42.5
-46.96
-47.15
-43.86
-37.75
-29.42
-19.59
-9.07
0.97
9.11
13.92
14.42
10.62
3.45
-5.92
-17.08
-30.87
-48.96
-72.54
-100.86
-130.82
-157.93
-178.44
-191.14
-197.75
-201.44
-204.26
-205.3
-200.57
-185.07
-155.78
-113.75
-64.25
-14.73
28.17
60.91
83.68
99.1
110.1
118.15
122.97
123.36
118.6
109.46
98.11
87.21
78.69
72.97
69.1
65.52
60.98
55.14
48.56
42.14
36.55
32.14
29.14
28.27
30.95
39.02
53.91
75.67
102.4
130.42
155.14
172.3
178.94
173.86
157.51
131.75
99.39
64
29.59
0.1
-21.29
-32.91
-35.04
-29.74
-20.26
-10.05
-1.89
2.49
2.48
-1.71
-9.28
-19.07
-29.57
-39.14
-46.27
-50.03
-50.34
-47.96
-44.1
-40
-36.51
-34.01
-32.53
-32
-32.32
-33.43
-35.15
-37.21
-39.31
-41.3
-43.18
-45.15
-47.41
-50.05
-53.04
-56.3
-59.87
-64
-69.03
-75.25
-82.6
-90.55
-98.21
-104.56
-108.84
-110.89
-111.16
-110.6
-110.2
-110.72
-112.42
-115.18
-118.63
-122.47
-126.49
-130.6
-134.71
-138.67
-142.3
-145.36
-147.45
-147.81
-145.28
-138.39
-125.79
-106.6
-80.69
-48.62
-11.44
29.59
73.17
117.93
162.52
205.49
245.51
281.28
311.69
335.76
352.71
362.26
364.71
361.2
353.46
343.55
333.3
323.95
315.89
308.72
301.42
292.77
281.75
267.89
251.39
232.93
213.34
193.27
173
152.54
131.84
110.95
90.15
69.92
50.93
34.01
20.15
10.23
4.78
3.67
5.92
9.96
14.02
16.62
16.85
14.46
9.64
2.94
-4.93
-13.14
-20.84
-27.36
-32.34
-35.91
-38.65
-41.35
-44.73
-49.19
-54.7
-60.89
-67.15
-72.84
-77.46
-80.7
-82.52
-83.14
-82.93
-82.34
-81.8
-81.63
-82.05
-83.18
-85.03
-87.64
-90.95
-94.85
-99.17
-103.6
-107.87
-111.7
-114.91
-117.53
-119.76
-121.99
-124.61
-127.99
-132.25
-137.21
-142.39
-147.02
-150.34
-151.67
-150.65
-147.3
-142.03
-135.52
-128.6
-122.1
-116.69
-112.71
-110.16
-108.72
-107.89
-107.22
-106.52
-105.83
-105.26
-104.72
-103.8
-101.81
-98.16
-92.69
-85.83
-78.45
-71.37
-65.05
-59.33
-53.69
-47.59
-40.82
-33.63
-26.51
-20.02
-14.41
-9.67
-5.67
-2.29
0.38
2.04
2.46
1.72
0.27
-1.33
-2.97
-5.24
-9.36
-16.5
-26.93
-39.47
-51.82
-61.5
-67.02
-68.67
-68.23
-67.92
-69.16
-71.83
-74.49
-75.37
-73.52
-69.27
-63.95
-58.99
-55
-51.54
-47.53
-42.17
-35.78
-29.85
-26.34
-26.53
-30.07
-34.94
-38.28
-37.67
-32.31
-23.37
-13.5
-5.82
-2.82
-5.73
-14.35
-27.11
-41.24
-53.06
-58.47
-53.9
-37.51
-10.05
25
62.39
96.72
124.11
143.01
153.95
158.44
157.84
152.77
143.43
130.27
114.53
98.24
83.51
71.69
62.88
55.99
49.28
41.22
30.95
18.3
3.72
-11.95
-27.34
-40.57
-49.34
-51.54
-46.08
-33.52
-16.03
3.27
21.43
36.5
47.82
55.57
60.09
61.45
59.52
54.32
46.47
37.13
27.72
19.46
12.96
8.22
4.8
2.04
-0.72
-4.08
-8.67
-15.13
-23.9
-34.88
-46.96
-57.84
-64.45
-63.84
-54.38
-36.52
-12.89
12.68
36.4
55.75
69.89
79.26
84.76
87
86.12
82.11
75.33
66.75
57.89
50.25
44.8
41.65
40.1
39.04
37.34
34.29
29.6
23.29
15.57
6.9
-1.75
-8.65
-11.43
-7.74
3.77
22.74
46.87
72.7
96.77
116.68
131.47
141.27
146.57
147.56
144.09
136.09
124.15
109.71
94.86
81.61
71.25
64.03
59.23
55.69
52.25
48.16
43.04
36.76
29.3
20.81
11.74
2.94
-4.46
-9.43
-11.44
-10.74
-8.21
-5.06
-2.31
-0.5
0.3
0.27
-0.46
-1.92
-4.27
-7.54
-11.58
-15.99
-20.3
-24.21
-27.68
-30.97
-34.48
-38.65
-43.82
-50.21
-57.81
-66.35
-75.14
-83.03
-88.64
-90.69
-88.39
-81.76
-71.64
-59.36
-46.34
-33.68
-21.89
-10.95
-0.38
10.44
22.05
34.69
48.16
61.75
74.45
85.21
93.26
98.3
100.51
100.34
98.31
94.74
89.78
83.43
75.69
66.68
56.58
45.73
34.5
23.37
12.87
3.47
-4.54
-11.29
-17.34
-23.66
-31.28
-41
-53.1
-67.39
-83.36
-100.59
-118.98
-138.75
-160.19
-183.26
-207.36
-231.39
-254.13
-274.52
-291.8
-305.41
-314.71
-318.93
-317.4
-309.9
-296.99
-279.87
-260.02
-238.66
-216.56
-194.27
-172.53
-152.53
-135.47
-121.71
-109.97
-97.13
-79.12
-52.65
-16.93
25.48
69.29
108.36
137.95
156.41
165.35
168.56
170.11
172.71
176.85
181.04
182.79
179.66
170.25
154.78
135.2
114.84
97.67
87.16
85.25
91.78
104.79
121.45
139.21
156.5
172.81
188.18
202.57
215.58
226.59
235.12
241.07
244.62
245.98
245.24
242.61
238.65
234.44
231.24
229.92
230.41
231.61
231.77
229.19
222.84
212.63
199.29
183.92
167.44
150.25
132.28
113.49
94.36
76.19
60.78
49.57
42.77
38.95
35.48
29.65
19.85
6.09
-10.43
-28.25
-46.48
-64.99
-83.84
-102.59
-120.12
-135.06
-146.56
-154.8
-161.1
-167.22
-174.64
-183.87
-194.32
-204.54
-212.83
-217.76
-218.62
-215.54
-209.31
-201.16
-192.4
-184.11
-176.96
-171.16
-166.43
-162.03
-156.96
-150.09
-140.6
-128.18
-113.3
-97.07
-80.9
-66.15
-53.82
-44.48
-38.28
-35.02
-34.26
-35.4
-37.93
-41.59
-46.46
-52.73
-60.29
-68.14
-74.1
-75.25
-68.97
-54.4
-33.25
-9.71
11.02
24.61
29.17
25.73
17.3
7.35
-1.65
-8.76
-14.18
-18.38
-21.38
-22.72
-21.91
-19.04
-15.04
-11.51
-10.25
-12.64
-19.26
-29.5
-41.71
-53.52
-62.45
-66.69
-65.56
-59.75
-50.91
-41.05
-31.95
-24.87
-20.57
-19.52
-21.85
-27.27
-34.73
-42.47
-48.4
-50.74
-48.79
-43.2
-35.96
-29.89
-28.02
-32.97
-46.4
-68.58
-98.03
-131.45
-164.01
-190.34
-205.63
-206.72
-192.76
-165.13
-126.93
-82.27
-35.5
9.28
48.67
80.1
101.98
113.7
115.62
108.93
95.58
77.96
58.68
40.06
23.85
10.83
0.74
-7.63
-16.21
-26.97
-41.23
-58.83
-77.65
-93.84
-102.86
-101.13
-87.48
-63.66
-33.58
-1.71
28.54
55.51
78.98
98.99
114.91
125.32
128.69
124.36
113.32
97.99
81.52
66.57
54.57
45.43
37.89
30.21
20.77
8.54
-6.8
-24.81
-44.27
-63.18
-78.88
-88.52
-89.74
-81.56
-64.89
-42.39
-17.64
6.02
26.38
42.58
54.61
62.47
65.68
63.47
55.51
42.72
27.48
13.05
2.36
-3.12
-3.97
-2.42
-1.32
-3.18
-9.45
-20.41
-35.36
-52.68
-69.81
-83.41
-89.94
-86.57
-72.22
-48.15
-17.57
15.39
46.94
74.57
97.11
114.19
125.66
131.29
130.97
125.19
115.27
103.22
91.15
80.68
72.44
66.12
60.67
54.74
47.05
36.61
22.93
6.26
-12.05
-29.45
-42.59
-48.17
-44.2
-30.77
-10.25
13.58
36.87
56.87
72.37
83.39
90.23
92.81
90.55
82.93
70.19
53.74
35.93
19.24
5.32
-5.47
-14.09
-22.25
-31.67
-43.54
-58.29
-75.83
-95.51
-116.04
-135.22
-149.99
-157.14
-154.51
-142.25
-123.14
-101.71
-82.37
-67.53
-56.8
-47.63
-37.05
-23.49
-7.48
8.95
23.61
35.4
44.74
52.9
61.05
69.59
78.14
85.85
92.15
96.89
100.21
101.95
101.26
96.7
86.99
72.15
54.24
37.46
26.91
26.81
38.62
60.37
87.4
114.2
136.47
152.27
161.95
167.03
168.96
168.48
165.67
160.54
153.54
145.53
137.42
129.65
122.01
113.72
104.04
92.55
79.42
65.16
50.36
35.23
19.49
2.59
-15.62
-34.22
-50.95
-62.55
-65.91
-59.29
-43.31
-20.81
4.1
27.51
46.87
61.36
71.5
78.16
81.92
82.84
80.79
75.96
69.07
61.34
54
47.86
43.01
38.92
34.77
29.77
23.52
15.92
7.07
-2.95
-14.13
-26.42
-39.33
-51.68
-61.6
-67.01
-66.32
-59.12
-46.58
-31.1
-15.66
-2.79
6
10.47
11.34
9.79
6.94
3.52
-0.08
-3.75
-7.44
-11.1
-14.62
-17.9
-20.88
-23.6
-26.16
-28.71
-31.35
-34.2
-37.35
-40.94
-45.06
-49.7
-54.65
-59.42
-63.25
-65.36
-65.12
-62.34
-57.27
-50.59
-43.21
-36
-29.62
-24.44
-20.55
-17.87
-16.27
-15.6
-15.76
-16.65
-18.17
-20.17
-22.59
-25.3
-28.29
-31.58
-35.22
-39.29
-43.86
-48.93
-54.54
-60.69
-67.38
-74.59
-82.17
-89.79
-96.94
-102.86
-106.71
-107.82
-105.84
-100.96
-93.8
-85.23
-76.01
-66.6
-57.11
-47.5
-37.79
-28.26
-19.48
-12.13
-6.77
-3.61
-2.45
-2.72
-3.65
-4.46
-4.61
-3.99
-2.99
-2.46
-3.5
-7.25
-14.55
-25.52
-39.25
-53.52
-65.03
-69.93
-65.04
-48.95
-22.82
9.85
44.25
75.86
101.8
121.41
135.79
146.73
155.68
163.29
169.47
174.03
177.12
179.34
181.35
183.35
184.73
184.36
181.16
174.75
165.68
155.05
143.78
131.93
118.75
103.38
85.9
68.03
52.74
43.25
41.43
46.96
57.34
68.93
78.27
83.12
82.64
77.13
67.42
54.46
39.25
22.88
6.6
-8.21
-20.27
-28.74
-33.47
-35.09
-34.91
-34.47
-34.95
-36.62
-38.72
-39.88
-38.93
-35.65
-31.01
-26.8
-24.72
-25.55
-28.8
-33.01
-36.53
-38.28
-38.18
-37.01
-35.84
-35.58
-36.55
-38.52
-40.96
-43.39
-45.56
-47.49
-49.32
-51.21
-53.2
-55.3
-57.6
-60.23
-63.37
-67.03
-71.01
-74.88
-78.11
-80.34
-81.43
-81.52
-80.86
-79.64
-77.88
-75.5
-72.42
-68.65
-64.4
-59.95
-55.59
-51.48
-47.67
-44.18
-41
-38.19
-35.81
-33.93
-32.5
-31.39
-30.37
-29.25
-27.97
-26.61
-25.45
-24.74
-24.69
-25.21
-26.08
-26.99
-27.75
-28.41
-29.18
-30.33
-31.92
-33.79
-35.55
-36.75
-37.16
-36.83
-36.14
-35.63
-35.89
-37.33
-40.09
-43.98
-48.55
-53.26
-57.67
-61.67
-65.51
-69.67
-74.67
-80.83
-88.17
-96.36
-104.85
-112.87
-119.63
-124.4
-126.7
-126.48
-124.19
-120.64
-116.63
-112.31
-106.78
-98.14
-84.03
-62.67
-33.77
1.2
39.31
77.18
111.89
141.46
164.8
181.31
190.42
191.64
184.84
170.66
150.65
127
101.95
77.18
53.49
30.83
8.72
-13.29
-35.23
-56.62
-76.59
-94.22
-108.77
-119.77
-126.96
-130.11
-129.07
-123.81
-114.66
-102.39
-88.19
-73.25
-58.6
-44.79
-32.01
-20.29
-9.69
-0.35
7.47
13.46
17.39
19.05
18.49
16.13
12.76
9.41
6.85
5.23
3.85
1.37
-3.64
-12.12
-24.13
-38.82
-54.52
-69.07
-79.93
-84.66
-81.33
-69.16
-48.96
-23.04
5.34
32.96
57.45
77.71
93.69
105.87
114.64
120.04
121.86
120
114.95
107.78
100.01
92.98
87.43
83.29
80
76.94
73.77
70.39
66.46
61.2
53.58
43.09
30.6
18.57
10.43
9.22
16.4
31.23
51.25
73.24
94.27
112.25
125.93
134.65
138.1
136.4
129.97
119.65
106.41
91.24
74.91
58.04
41.07
24.36
8.19
-7.24
-21.92
-36.07
-50.2
-65.06
-81.25
-98.71
-116.24
-131.46
-141.38
-143.43
-136.49
-121.42
-100.68
-77.48
-54.73
-34.36
-17.28
-3.68
6.53
13.48
17.25
17.92
15.69
10.91
4.22
-3.48
-11.12
-17.8
-23.12
-27.33
-31.16
-35.41
-40.54
-46.57
-53.13
-59.65
-65.33
-68.91
-68.61
-62.36
-48.6
-27.2
-0
29.5
57.23
79.85
95.79
105.45
110.49
112.88
113.92
113.85
112.01
107.42
99.43
88.13
74.43
59.79
45.69
33.14
22.34
12.63
2.63
-9.49
-25.58
-46.91
-73.59
-103.81
-133.75
-158.07
-171.4
-170.11
-153.66
-124.89
-89.09
-52.22
-19.31
6.58
24.41
34.58
38.44
37.88
35.12
32.54
32.33
36.09
44.6
57.89
75.23
95.47
117.07
138.18
156.91
171.56
181.01
184.78
182.87
175.5
163.01
145.89
125.01
101.79
77.98
55.36
35.24
18.38
4.91
-5.38
-12.87
-18.13
-21.71
-24.23
-26.12
-27.56
-28.44
-28.54
-27.73
-26.22
-24.51
-23.25
-22.99
-23.98
-26.11
-28.94
-31.93
-34.58
-36.57
-37.88
-38.76
-39.55
-40.51
-41.61
-42.56
-42.9
-42.21
-40.3
-37.2
-33.07
-28.04
-22.11
-15.2
-7.26
1.6
11
20.37
29.07
36.53
42.41
46.61
49.28
50.72
51.3
51.34
51.07
50.6
49.92
49
47.71
45.88
43.23
39.52
34.62
28.73
22.37
16.23
10.96
6.85
3.71
0.98
-2.05
-5.86
-10.57
-15.93
-21.59
-27.28
-32.96
-38.7
-44.56
-50.42
-56
-61.02
-65.38
-69.28
-73.12
-77.34
-82.16
-87.47
-92.85
-97.69
-101.37
-103.43
-103.56
-101.63
-97.61
-91.59
-83.77
-74.48
-64.08
-52.9
-41.2
-29.01
-16.31
-3.07
10.63
24.47
37.97
50.54
61.58
70.6
77.27
81.43
83.07
82.3
79.42
74.78
68.85
62.11
54.95
47.47
39.45
30.22
18.86
4.46
-13.37
-34.06
-55.8
-75.68
-90.26
-96.55
-92.97
-79.95
-59.83
-36.2
-12.84
7.25
22.4
32.29
37.52
39.16
38.34
36.04
33.07
30.06
27.48
25.6
24.51
24.11
24.24
24.68
25.19
25.51
25.34
24.43
22.61
19.95
16.82
13.95
12.3
12.91
16.71
24.23
35.49
49.83
65.91
81.82
95.45
104.84
108.63
106.39
98.48
85.87
69.68
50.94
30.49
9.1
-12.38
-33
-51.79
-68.08
-81.63
-92.62
-101.47
-108.67
-114.55
-119.31
-123.11
-126.11
-128.47
-130.24
-131.17
-130.67
-127.86
-121.81
-111.95
-98.35
-81.98
-64.64
-48.63
-36.28
-29.39
-28.74
-33.86
-43.05
-53.72
-63.02
-68.54
-68.95
-64.33
-56.04
-46.24
-37.12
-30.4
-26.84
-26.27
-27.72
-29.59
-30.03
-27.26
-20.05
-8.13
7.53
24.98
41.65
55.2
64.01
67.57
66.42
61.78
55.08
47.38
39.18
30.45
20.97
10.67
0.03
-10.01
-18.34
-24.29
-27.96
-30.33
-32.9
-37
-43.25
-51.19
-59.38
-65.82
-68.58
-66.29
-58.6
-46.3
-31.19
-15.71
-2.35
6.97
11.28
10.84
6.93
1.4
-3.89
-7.69
-9.57
-9.84
-9.2
-8.23
-7.06
-5.45
-3.16
-0.36
2.12
3.16
1.97
-1.21
-4.89
-6.75
-4.64
2.58
14.58
30.01
47.3
65.53
84.83
106.14
130.48
158.37
189.38
221.94
253.47
280.66
300.1
309.08
306.43
293.14
272.1
247.33
222.59
200.23
180.76
163.14
145.59
126.48
104.98
81.37
56.96
33.76
14
-0.61
-9.56
-13.84
-15.68
-17.86
-22.74
-31.55
-44.29
-60.02
-77.38
-95.01
-111.49
-125.43
-135.56
-141.11
-142.2
-140.05
-136.56
-133.68
-132.78
-134.26
-137.77
