35.99
37.84
37.77
35.8
32.45
28.6
25.15
22.73
21.39
20.7
19.99
18.59
16.21
12.91
9.05
5.07
1.29
-2.24
-5.73
-9.57
-14.21
-20.03
-27.2
-35.56
-44.46
-52.76
-58.96
-61.52
-59.34
-52.16
-40.74
-26.66
-11.88
1.85
13.4
22.38
28.99
33.63
36.63
38.11
38.04
36.52
33.89
30.72
27.7
25.36
23.94
23.25
22.86
22.21
20.89
18.73
15.86
12.61
9.27
6.05
2.89
-0.46
-4.34
-9.07
-14.83
-21.65
-29.35
-37.45
-45.1
-51.01
-53.69
-51.86
-44.96
-33.53
-19.15
-3.99
9.86
21.03
29.08
34.36
37.52
39.12
39.38
38.3
35.9
32.48
28.66
25.23
22.85
21.72
21.49
21.39
20.6
18.65
15.64
12.08
8.62
5.62
2.95
0.08
-3.65
-8.67
-15.1
-22.69
-30.97
-39.25
-46.57
-51.67
-53.22
-50.16
-42.25
-30.29
-15.99
-1.45
11.54
21.98
29.7
35.05
38.39
39.79
39.13
36.36
31.89
26.62
21.77
18.33
16.73
16.57
16.9
16.6
14.89
11.66
7.41
2.98
-0.91
-3.96
-6.49
-9.21
-12.93
-18.34
-25.62
-34.36
-43.55
-51.69
-57.04
-58.08
-53.95
-44.8
-31.83
-16.93
-2.18
10.85
21.3
29.1
34.63
38.28
40.29
40.63
39.36
36.69
33.21
29.71
26.95
25.33
24.78
24.73
24.39
23.1
20.59
17.03
12.97
8.98
5.37
2.1
-1.21
-5.05
-9.86
-15.94
-23.38
-32.04
-41.41
-50.44
-57.58
-61.05
-59.42
-52.19
-40.13
-25.14
-9.6
4.39
15.62
23.89
29.77
34.04
37.29
39.7
41.18
41.53
40.71
38.92
36.59
34.22
32.18
30.57
29.18
27.63
25.54
22.69
19.15
15.21
11.23
7.45
3.89
0.39
-3.34
-7.57
-12.53
-18.36
-25.21
-33.03
-41.49
-49.63
-55.93
-58.6
-56.2
-48.26
-35.63
-20.28
-4.63
9.25
20.27
28.3
33.96
37.96
40.84
42.75
43.63
43.42
42.17
40.1
37.56
34.9
32.39
30.21
28.38
26.86
25.47
23.99
22.18
19.81
16.73
12.92
8.56
3.92
-0.66
-4.91
-8.75
-12.35
-16.14
-20.67
-26.44
-33.59
-41.51
-48.85
-53.7
-54.19
-49.25
-39.11
-25.37
-10.42
3.33
14.29
22.01
27.04
30.33
32.68
34.33
35.07
34.52
32.51
29.31
25.61
22.22
19.77
18.45
17.93
17.58
16.75
15.06
12.5
9.39
6.13
3.04
0.21
-2.46
-5.12
-8.01
-11.34
-15.38
-20.4
-26.53
-33.52
-40.43
-45.76
-47.77
-45.11
-37.46
-25.79
-12.04
1.46
12.88
21.3
26.83
30.17
32.01
32.7
32.1
29.99
26.38
21.79
17.18
13.55
11.53
11.07
11.48
11.79
11.19
9.37
6.55
3.34
0.3
-2.28
-4.53
-6.85
-9.74
-13.6
-18.64
-24.85
-31.92
-39.22
-45.69
-49.94
-50.56
-46.62
-38.12
-26.1
-12.44
0.8
11.99
20.41
26.17
29.89
32.2
33.42
33.49
32.23
29.64
26.08
22.22
18.83
16.46
15.29
15.04
15.17
15.02
14.05
12.03
9.03
5.35
1.38
-2.57
-6.33
-9.91
-13.46
-17.19
-21.35
-26.25
-32.12
-38.93
-46.08
-52.32
-55.93
-55.27
-49.42
-38.73
-24.75
-9.76
4
15.04
22.9
27.98
31.06
32.88
33.88
34.14
33.58
32.17
29.99
27.3
24.48
21.89
19.84
18.41
17.5
16.83
16.01
14.64
12.45
9.35
5.45
1.05
-3.54
-8.03
-12.3
-16.38
-20.48
-24.92
-30.07
-36.17
-43.11
-50.15
-55.91
-58.63
-56.78
-49.75
-38.18
-23.87
-9.15
3.92
14.13
21.32
26.03
29.07
31.04
32.23
32.62
32.13
30.74
28.57
25.89
23.09
20.59
18.74
17.65
17.15
16.8
16.07
14.51
11.94
8.42
4.28
-0.12
-4.45
-8.52
-12.32
-15.94
-19.66
-23.85
-28.93
-35.11
-42.05
-48.72
-53.45
-54.39
-50.23
-40.86
-27.57
-12.68
1.27
12.37
19.9
24.27
26.5
27.56
27.94
27.62
26.31
23.92
20.71
17.31
14.41
12.51
11.71
11.66
11.82
11.62
10.7
9.04
6.85
4.44
2.09
-0.15
-2.41
-4.97
-8.11
-12.09
-17.02
-22.89
-29.4
-35.86
-41.16
-43.94
-42.96
-37.59
-28.19
-16.06
-3.07
8.98
18.83
26.02
30.69
33.24
34.01
33.15
30.76
27.06
22.54
17.94
14.04
11.4
10.14
9.89
9.92
9.41
7.79
4.95
1.28
-2.6
-6.09
-8.93
-11.3
-13.71
-16.76
-20.9
-26.33
-32.88
-39.98
-46.61
-51.46
-53.13
-50.56
-43.46
-32.53
-19.34
-5.83
6.29
15.96
22.96
27.64
30.52
32.04
32.36
31.56
29.73
27.16
24.28
21.6
19.49
18.12
17.3
16.65
15.67
14
11.49
8.33
4.91
1.63
-1.29
-3.94
-6.62
-9.68
-13.41
-17.97
-23.42
-29.79
-36.91
-44.27
-50.83
-55.08
-55.47
-50.95
-41.59
-28.64
-14.2
-0.52
10.78
19.04
24.62
28.33
30.97
32.98
34.32
34.76
34.06
32.25
29.64
26.7
23.92
21.6
19.82
18.41
17.07
15.54
13.64
11.3
8.56
5.48
2.11
-1.51
-5.36
-9.39
-13.53
-17.79
-22.33
-27.43
-33.32
-39.92
-46.47
-51.63
-53.68
-51.22
-43.78
-32.12
-18.11
-4.06
8.08
17.28
23.6
27.76
30.58
32.49
33.46
33.19
31.51
28.59
25
21.46
18.57
16.6
15.48
14.96
14.66
14.33
13.74
12.72
11.16
8.97
6.18
2.85
-0.87
-4.85
-9.01
-13.33
-17.95
-23.09
-28.88
-35.15
-41.16
-45.65
-47.11
-44.34
-37.04
-26.08
-13.27
-0.78
9.7
17.43
22.65
26.09
28.39
29.66
29.6
27.87
24.52
20.19
15.89
12.61
10.82
10.32
10.39
10.18
9.09
7
4.26
1.43
-1
-2.9
-4.51
-6.37
-9.04
-12.96
-18.28
-24.87
-32.2
-39.41
-45.27
-48.34
-47.37
-41.72
-31.77
-18.94
-5.28
7.18
17.08
24.03
28.44
31.08
32.55
33.05
32.46
30.61
27.6
23.9
20.21
17.22
15.35
14.52
14.27
13.93
12.91
10.91
8.02
4.61
1.12
-2.15
-5.14
-8
-11.02
-14.48
-18.65
-23.72
-29.81
-36.79
-44.06
-50.44
-54.28
-53.98
-48.57
-38.27
-24.54
-9.65
4.09
15.08
22.74
27.47
30.15
31.61
32.35
32.46
31.82
30.31
27.96
24.98
21.78
18.82
16.47
14.94
14.14
13.75
13.27
12.19
10.19
7.22
3.47
-0.66
-4.78
-8.57
-11.94
-15
-18.05
-21.53
-25.89
-31.47
-38.15
-45.23
-51.31
-54.59
-53.38
-46.84
-35.34
-20.52
-4.77
9.51
20.7
28.21
32.44
34.3
34.71
34.33
33.46
32.22
30.71
29.04
27.35
25.71
24.13
22.58
21
19.43
17.88
16.36
14.75
12.8
10.26
6.95
2.89
-1.69
-6.44
-11.03
-15.26
-19.15
-22.85
-26.69
-31.05
-36.24
-42.19
-48.21
-52.96
-54.65
-51.7
-43.42
-30.49
-14.91
0.69
13.87
23.28
28.78
31.27
31.98
31.91
31.47
30.56
28.93
26.44
23.31
20.08
17.34
15.54
14.79
14.9
15.39
15.73
15.47
14.32
12.23
9.27
5.69
1.77
-2.21
-6.06
-9.67
-13.08
-16.55
-20.45
-25.27
-31.25
-38.17
-45.03
-50.2
-51.78
-48.35
-39.61
-26.64
-11.61
2.91
14.89
23.36
28.43
30.97
31.97
32.02
31.28
29.54
26.67
22.84
18.62
14.8
12.05
10.66
10.41
10.73
10.9
10.35
8.86
6.5
3.55
0.3
-3.05
-6.44
-9.88
-13.44
-17.14
-21.09
-25.5
-30.65
-36.78
-43.69
-50.53
-55.72
-57.4
-54.07
-45.29
-32.03
-16.35
-0.78
12.58
22.6
29.2
33.05
34.99
35.7
35.54
34.59
32.9
30.56
27.78
24.85
22.04
19.55
17.5
15.88
14.57
13.41
12.18
10.63
8.5
5.67
2.08
-2.13
-6.68
-11.23
-15.51
-19.45
-23.21
-27.19
-31.91
-37.74
-44.61
-51.78
-57.8
-60.82
-59.2
-52.11
-40.02
-24.58
-8.16
6.93
19.14
27.88
33.44
36.54
37.91
38.05
37.29
35.81
33.88
31.72
29.57
27.53
25.56
23.58
21.55
19.56
17.74
16.21
14.93
13.59
11.75
8.94
5.02
0.19
-5.02
-10
-14.31
-17.87
-21.04
-24.42
-28.72
-34.43
-41.58
-49.54
-56.92
-61.85
-62.44
-57.51
-47.08
-32.53
-16.09
-0.18
13.37
23.73
30.93
35.51
38.06
39.05
38.76
37.49
35.55
33.33
31.12
29.08
27.18
25.33
23.47
21.63
19.96
18.61
17.66
16.97
16.19
14.83
12.42
8.71
3.79
-1.87
-7.62
-12.84
-17.18
-20.71
-23.92
-27.58
-32.44
-38.83
-46.42
-54.02
-59.72
-61.56
-58.06
-48.95
-35.34
-19.45
-3.81
9.5
19.44
26.05
30.07
32.32
33.36
33.3
32.05
29.61
26.29
22.66
19.4
17
15.67
15.26
15.36
15.43
14.99
13.74
11.65
8.91
5.8
2.58
-0.62
-3.89
-7.36
-11.2
-15.52
-20.42
-26.01
-32.37
-39.36
-46.38
-52.18
-55.15
-53.7
-47.05
-35.62
-21.06
-5.67
8.31
19.41
27.18
32.02
34.65
35.69
35.44
33.96
31.32
27.78
23.89
20.27
17.46
15.69
14.87
14.62
14.44
13.94
12.82
11
8.47
5.31
1.58
-2.65
-7.28
-12.14
-17.08
-21.98
-26.92
-32.21
-38.32
-45.58
-53.8
-61.99
-68.4
-70.92
-67.88
-58.76
-44.52
-27.38
-10.02
5.19
16.91
24.96
29.99
32.97
34.74
35.69
35.84
35.13
33.59
31.4
28.88
26.34
24.01
21.98
20.24
18.71
17.28
15.8
14.06
11.82
8.91
5.27
1.03
-3.57
-8.21
-12.68
-16.92
-21.16
-25.86
-31.59
-38.79
-47.32
-56.23
-63.72
-67.66
-66.23
-58.69
-45.76
-29.45
-12.39
3.05
15.36
24.17
29.96
33.62
35.87
37.07
37.27
36.34
34.37
31.63
28.62
25.83
23.6
22.04
20.94
20.01
18.91
17.37
15.2
12.3
8.71
4.54
0.08
-4.4
-8.63
-12.59
-16.42
-20.52
-25.39
-31.51
-39.1
-47.8
-56.47
-63.26
-66.03
-63.07
-53.84
-39.38
-22.01
-4.59
10.49
22
29.99
35.3
38.88
41.21
42.22
41.54
38.97
34.81
29.88
25.26
21.85
20.05
19.63
19.85
19.83
18.92
16.91
14.05
10.78
7.47
4.26
1.01
-2.59
-6.79
-11.79
-17.65
-24.43
-32.1
-40.37
-48.37
-54.64
-57.34
-54.86
-46.53
-33.03
-16.33
0.93
16.34
28.37
36.66
41.74
44.48
45.59
45.36
43.76
40.76
36.59
31.81
27.16
23.36
20.71
19.09
17.94
16.58
14.5
11.54
7.9
4
0.14
-3.57
-7.31
-11.44
-16.27
-22.05
-28.93
-36.99
-46.27
-56.52
-66.96
-76.03
-81.66
-81.77
-75.14
-61.96
-43.97
-23.95
-4.81
11.31
23.52
32.08
37.91
41.93
44.67
46.21
46.41
45.19
42.77
39.66
36.46
33.7
31.65
30.22
29.09
27.81
25.98
23.36
19.91
15.73
11.05
6.09
1.01
-4.14
-9.4
-14.88
-20.8
-27.46
-35.25
-44.38
-54.59
-64.8
-73.14
-77.27
-75.23
-66.22
-51.08
-32.06
-12.11
6.12
20.98
31.99
39.55
44.4
47.24
48.57
48.76
48.11
46.9
45.3
43.39
41.18
38.69
36.1
33.67
31.64
30.12
28.92
27.6
25.58
22.39
17.78
11.92
5.28
-1.51
-7.89
-13.54
-18.59
-23.49
-28.99
-35.85
-44.48
-54.6
-64.94
-73.36
-77.38
-74.98
-65.44
-49.75
-30.36
-10.37
7.5
21.65
31.83
38.78
43.53
46.9
49.14
50.11
49.54
47.35
43.88
39.81
35.97
33.02
31.25
30.48
30.17
29.67
28.45
26.28
23.15
19.26
14.86
10.12
5.18
0.12
-5
-10.15
-15.42
-21.08
-27.53
-35.13
-43.74
-52.37
-59.13
-61.73
-58.29
-48.28
-32.93
-14.91
2.63
17.21
27.74
34.52
38.65
41.15
42.49
42.61
41.31
38.69
35.24
31.76
28.93
27.04
25.97
25.34
24.68
23.66
22.09
19.89
17
13.38
9.03
4.08
-1.28
-6.77
-12.15
-17.28
-22.28
-27.46
-33.37
-40.56
-49.12
-58.35
-66.61
-71.59
-71.09
-63.87
-50.29
-32.26
-12.68
5.59
20.59
31.57
38.88
43.38
45.93
47.08
47.04
45.92
43.87
41.17
38.19
35.25
32.63
30.4
28.58
27.08
25.7
24.21
22.3
19.67
16.17
11.81
6.83
1.58
-3.63
-8.59
-13.4
-18.31
-23.78
-30.28
-38.13
-47.24
-56.84
-65.34
-70.64
-70.69
-64.28
-51.65
-34.54
-15.63
2.27
17.19
28.34
35.99
41.01
44.27
46.31
47.31
47.35
46.54
45.11
43.35
41.47
39.53
37.46
35.19
32.74
30.26
27.94
25.85
23.79
21.33
17.97
13.42
7.76
1.45
-4.87
-10.62
-15.53
-19.75
-23.76
-28.31
-34.08
-41.49
-50.25
-59.22
-66.46
-69.63
-66.83
-57.41
-42.33
-23.97
-5.31
11.09
23.77
32.59
38.24
41.66
43.56
44.16
43.52
41.74
39.16
36.26
33.51
31.16
29.22
27.52
25.9
24.27
22.65
21.05
19.43
17.6
15.28
12.23
8.34
3.72
-1.34
-6.48
-11.36
-15.85
-20.13
-24.68
-30.13
-36.87
-44.64
-52.28
-57.83
-59.19
-54.79
-44.5
-29.62
-12.66
3.65
17.15
26.89
33.01
36.36
37.83
37.98
36.97
34.81
31.62
27.75
23.8
20.36
17.84
16.38
15.73
15.49
15.16
14.37
12.94
10.9
8.41
5.6
2.55
-0.77
-4.41
-8.36
-12.56
-17.03
-21.94
-27.63
-34.4
-42.11
-49.84
-55.91
-58.3
-55.4
-46.79
-33.49
-17.73
-2.17
10.93
20.27
25.74
27.94
27.78
26.04
23.16
19.39
14.92
10.05
5.15
0.56
-3.48
-6.94
-10.01
-12.99
-16.28
-20.19
-24.92
-30.47
-36.69
-43.33
-50.2
-57.18
-64.32
-71.75
-79.62
-88.04
-97.16
-107.24
-118.52
-130.95
-143.83
-155.43
-163.15
-164.01
-155.57
-136.79
-108.48
-73.17
-34.4
4.13
39.38
69.34
93.11
110.71
122.73
130.12
133.98
135.49
135.83
136.15
137.38
140.1
144.38
149.7
155.13
159.59
162.21
162.54
160.72
157.17
152.35
146.52
139.56
131.2
121.17
109.41
96.1
81.58
66.2
50.32
34.52
19.73
7.26
-1.51
-5.68
-5.26
-1.32
4.31
9.7
13.46
15.03
14.55
12.55
9.42
5.28
0.17
-5.81
-12.26
-18.53
-24
-28.35
-31.66
-34.34
-36.86
-39.55
-42.44
-45.36
-48.17
-50.83
-53.44
-56.11
-58.85
-61.53
-63.94
-65.92
-67.5
-68.87
-70.43
-72.62
-75.81
-79.96
-84.46
-87.99
-88.8
-85.23
-76.43
-62.87
-46.24
-28.97
-13.38
-0.9
8.16
14.37
18.61
21.55
23.43
24.13
23.51
21.7
19.18
16.6
14.58
13.46
13.16
13.33
13.42
12.97
11.69
9.58
6.77
3.53
0.06
-3.52
-7.17
-10.91
-14.78
-18.85
-23.34
-28.53
-34.69
-41.69
-48.77
-54.43
-56.85
-54.48
-46.74
-34.44
-19.55
-4.55
8.47
18.38
25.09
29.18
31.35
32.06
31.37
29.27
25.91
21.86
17.93
14.97
13.48
13.39
14.08
14.63
14.24
12.5
9.59
6.11
2.75
-0.07
-2.33
-4.45
-7.01
-10.51
-15.18
-20.94
-27.43
-33.94
-39.45
-42.69
-42.37
-37.66
-28.56
-16.14
-2.26
11.01
22.06
30.18
35.52
38.67
40.13
40.01
38.07
34.14
28.48
21.92
15.63
10.68
7.59
6.09
5.27
4
1.51
-2.36
-7.04
-11.65
-15.34
-17.74
-19.08
-19.99
-21.24
-23.5
-27.18
-32.41
-39.01
-46.33
-53.1
-57.58
-57.97
-53.02
-42.72
-28.45
-12.6
2.26
14.31
22.91
28.49
31.98
34.12
35.13
34.85
33.09
30.02
26.16
22.33
19.17
16.97
15.56
14.46
13.13
11.19
8.59
5.51
2.3
-0.78
-3.62
-6.35
-9.21
-12.54
-16.6
-21.59
-27.63
-34.71
-42.6
-50.6
-57.55
-61.9
-62.15
-57.4
-47.82
-34.73
-20.19
-6.38
5.13
13.74
19.74
23.89
26.91
29.11
30.38
30.38
28.9
26.09
22.43
18.64
15.41
13.12
11.82
11.21
10.81
10.17
9
7.2
4.9
2.28
-0.52
-3.4
-6.34
-9.35
-12.39
-15.49
-18.82
-22.74
-27.67
-33.77
-40.49
-46.44
-49.68
-48.33
-41.47
-29.64
-14.73
0.63
14.04
24.03
30.32
33.58
34.85
35.01
34.55
33.6
32.11
30.09
27.68
25.11
22.62
20.36
18.39
16.67
15.17
13.83
12.51
11.09
9.35
7.11
4.28
0.91
-2.82
-6.69
-10.53
-14.34
-18.29
-22.69
-27.85
-33.84
-40.28
-46.19
-50.1
-50.47
-46.27
-37.43
-25.05
-11.03
2.49
13.84
22.24
27.74
30.93
32.51
32.91
32.27
30.5
27.57
23.72
19.45
15.52
12.59
11.07
10.83
11.34
11.84
11.67
10.5
8.4
5.68
2.69
-0.34
-3.38
-6.49
-9.73
-13.16
-16.87
-21.08
-26.04
-31.9
-38.36
-44.44
-48.65
-49.33
-45.38
-36.68
-24.38
-10.48
2.76
13.62
21.32
26
28.4
29.36
29.38
28.61
27.01
24.59
21.53
18.25
15.26
12.94
11.5
10.85
10.66
10.49
9.88
8.53
6.33
3.39
0.05
-3.33
-6.46
-9.23
-11.77
-14.38
-17.42
-21.23
-26.12
-32.18
-39.24
-46.54
-52.77
-56.18
-55.13
-48.73
-37.39
-22.78
-7.39
6.35
16.89
23.85
27.91
30.13
31.44
32.25
32.49
31.99
30.65
28.65
26.29
23.93
21.78
19.93
18.36
17.02
15.79
14.53
13.01
11.01
8.32
4.9
0.89
-3.39
-7.55
-11.3
-14.59
-17.56
-20.62
-24.23
-28.84
-34.6
-41.17
-47.6
-52.42
-53.93
-50.83
-42.7
-30.37
-15.71
-1.09
11.47
20.86
27.04
30.79
33.01
34.33
34.95
34.75
33.67
31.91
29.82
27.82
26.07
24.52
22.95
21.23
19.43
17.76
16.44
15.44
14.44
12.91
10.38
6.66
1.96
-3.15
-8.02
-12.13
-15.34
-17.91
-20.39
-23.45
-27.69
-33.41
-40.39
-47.74
-53.97
-57.24
-55.98
-49.43
-38.05
-23.49
-8.08
5.95
17.07
24.77
29.42
31.8
32.69
32.6
31.74
30.21
28.16
25.83
23.54
21.51
19.86
18.55
17.5
16.59
15.72
14.81
13.74
12.37
10.54
8.1
4.96
1.18
-3.08
-7.52
-11.82
-15.78
-19.38
-22.9
-26.89
-31.84
-37.86
-44.34
-49.89
-52.65
-50.99
-44.14
-32.65
-18.3
-3.46
9.64
19.62
26.18
29.85
31.48
31.76
30.97
29.07
26.04
22.13
17.93
14.23
11.69
10.52
10.45
10.82
10.96
10.42
9.09
7.08
4.62
1.89
-1.04
-4.17
-7.44
-10.83
-14.3
-17.92
-21.88
-26.45
-31.89
-38.22
-44.91
-50.84
-54.37
-53.83
-48.2
-37.6
-23.45
-8.08
6.13
17.41
25.13
29.6
31.72
32.36
32.06
30.98
29.12
26.54
23.47
20.29
17.43
15.2
13.7
12.84
12.36
11.94
11.3
10.19
8.49
6.17
3.25
-0.23
-4.12
-8.28
-12.56
-16.85
-21.26
-26.04
-31.57
-38.05
-45.2
-52.01
-56.85
-57.89
-53.83
-44.49
-31.03
-15.62
-0.7
11.76
20.8
26.47
29.47
30.73
30.99
30.66
29.86
28.54
26.69
24.39
21.9
19.59
17.87
16.98
16.84
17.1
17.18
16.6
15.09
12.7
9.7
6.39
2.91
-0.72
-4.63
-8.91
-13.64
-18.89
-24.77
-31.45
-38.86
-46.5
-53.23
-57.38
-57.32
-52.03
-41.68
-27.66
-12.18
2.48
14.63
23.52
29.27
32.53
34.07
34.5
34.17
33.3
32
30.39
28.57
26.66
24.76
22.99
21.46
20.24
19.26
18.36
17.22
15.54
13.08
9.75
5.66
1.03
-3.85
-8.7
-13.32
-17.62
-21.72
-25.91
-30.63
-36.21
-42.5
-48.7
-53.27
-54.4
-50.67
-41.7
-28.49
-13.15
1.78
14.21
23.05
28.37
31.01
32.02
32.11
31.5
30.02
27.5
24.05
20.19
16.65
14.13
12.94
12.88
13.34
13.55
12.93
11.28
8.78
5.87
2.98
0.31
-2.19
-4.78
-7.77
-11.37
-15.73
-20.93
-27.03
-33.94
-41.17
-47.71
-51.96
-52.26
-47.47
-37.54
-23.81
-8.51
5.88
17.54
25.7
30.64
33.21
34.28
34.39
33.62
31.89
29.19
25.74
22.05
18.74
16.26
14.81
14.22
14.01
13.57
12.4
10.23
7.11
3.4
-0.53
-4.39
-8.09
-11.77
-15.67
-20.05
-25.07
-30.87
-37.48
-44.68
-51.75
-57.4
-59.95
-57.87
-50.42
-38.16
-22.86
-6.95
7.28
18.39
26.06
30.83
33.63
35.19
35.84
35.6
34.37
32.19
29.35
26.28
23.46
21.24
19.72
18.72
17.92
16.89
15.32
13.01
9.99
6.43
2.58
-1.38
-5.32
-9.24
-13.24
-17.5
-22.29
-27.89
-34.49
-41.89
-49.32
-55.31
-58.06
-55.97
-48.37
-35.89
-20.45
-4.52
9.61
20.56
28.07
32.7
35.37
36.81
37.37
37.13
36.03
34.19
31.85
29.35
27.02
25.05
23.48
22.21
21.08
19.88
18.41
16.5
13.98
10.76
6.87
2.42
-2.32
-7.04
-11.43
-15.33
-18.82
-22.32
-26.46
-31.81
-38.58
-46.2
-53.27
-57.8
-57.85
-52.28
-41.24
-26.29
-9.89
5.43
17.84
26.63
32.13
35.22
36.82
37.47
37.33
36.37
34.63
32.32
29.81
27.43
25.38
23.64
22.14
20.77
19.46
18.12
16.62
14.7
12.13
8.77
4.69
0.14
-4.51
-8.92
-12.91
-16.52
-20.04
-23.96
-28.8
-34.81
-41.63
-48.13
-52.51
-52.91
-48.03
-37.82
-23.64
-7.82
7.13
19.32
27.96
33.31
36.21
37.5
37.67
36.79
34.77
31.63
27.75
23.76
20.31
17.89
16.58
16.08
15.86
15.37
14.19
12.16
9.31
5.86
2.01
-2.04
-6.13
-10.23
-14.36
-18.63
-23.29
-28.67
-34.99
-42.1
-49.27
-55.04
-57.56
-55.23
-47.32
-34.47
-18.6
-2.31
12
22.84
29.93
33.94
35.87
36.54
36.29
35.07
32.76
29.5
25.77
22.24
19.51
17.86
17.11
16.79
16.3
15.22
13.4
10.92
7.93
4.57
0.93
-2.96
-7
-11.09
-15.21
-19.48
-24.24
-29.97
-37.02
-45.24
-53.71
-60.69
-64.09
-62.18
-54.24
-41.02
-24.53
-7.41
7.93
20.03
28.52
33.94
37.18
38.98
39.73
39.5
38.26
36.13
33.35
30.29
27.29
24.58
22.27
20.38
18.85
17.54
16.27
14.77
12.76
10.04
6.54
2.4
-2.11
-6.69
-11.14
-15.46
-19.88
-24.8
-30.68
-37.8
-45.97
-54.31
-61.17
-64.54
-62.67
-54.77
-41.49
-24.8
-7.42
8.16
20.3
28.65
33.8
36.79
38.48
39.33
39.4
38.61
36.95
34.63
31.98
29.37
27.06
25.16
23.67
22.48
21.41
20.3
18.9
16.98
14.36
10.95
6.82
2.19
-2.61
-7.26
-11.56
-15.63
-19.88
-24.99
-31.53
-39.57
-48.28
-55.9
-60.15
-59.02
-51.66
-38.75
-22.45
-5.61
9.21
20.47
27.95
32.38
34.85
36.19
36.66
36.07
34.18
30.95
26.8
22.44
18.66
16.01
14.54
13.9
13.47
12.69
11.21
8.98
6.18
3.05
-0.22
-3.56
-6.96
-10.53
-14.38
-18.67
-23.6
-29.38
-36.01
-43.07
-49.54
-53.86
-54.35
-49.81
-40.14
-26.53
-11.11
3.72
16.09
25.15
31.09
34.62
36.46
36.97
36.11
33.76
30.01
25.4
20.8
17.09
14.82
13.99
14.06
14.15
13.47
11.59
8.62
5.03
1.41
-1.89
-4.85
-7.78
-11.19
-15.5
-21
-27.83
-35.8
-44.35
-52.33
-58.09
-59.84
-56.28
-47.18
-33.64
-17.85
-2.29
10.97
20.93
27.63
31.76
34.16
35.33
35.4
34.3
32.05
28.97
25.58
22.49
20.13
18.59
17.64
16.83
15.66
13.79
11.15
7.91
4.37
0.83
-2.59
-6.01
-9.67
-13.82
-18.63
-24.18
-30.49
-37.56
-45.16
-52.58
-58.5
-61.13
-58.81
-50.75
-37.54
-21.17
-4.33
10.48
21.86
29.62
34.59
37.8
39.95
41.14
41.12
39.67
36.97
33.55
30.13
27.27
25.17
23.7
22.56
21.46
20.19
18.62
16.62
14.03
10.74
6.78
2.36
-2.28
-6.9
-11.46
-16.1
-21.13
-26.92
-33.71
-41.38
-49.21
-55.85
-59.53
-58.58
-52.15
-40.66
-25.82
-10.07
4.23
15.55
23.52
28.65
31.86
33.89
35.07
35.39
34.72
33.06
30.64
27.87
25.19
22.99
21.49
20.64
20.19
19.69
18.69
16.87
14.19
10.86
7.2
3.53
-0.02
-3.46
-6.95
-10.64
-14.73
-19.47
-25.14
-31.83
-39.13
-45.94
-50.55
-51.12
-46.4
-36.37
-22.41
-6.9
7.62
19.26
27.25
31.96
34.29
35.19
35.14
34.2
32.2
29.09
25.18
21.12
17.63
15.26
14.12
13.86
13.84
13.41
12.14
9.99
7.17
4.05
0.88
-2.24
-5.4
-8.8
-12.65
-17.14
-22.39
-28.46
-35.16
-41.95
-47.78
-51.2
-50.75
-45.52
-35.56
-22.11
-7.22
6.83
18.34
26.6
31.83
34.8
36.24
36.53
35.66
33.48
30.12
26.03
21.97
18.66
16.53
15.51
15.12
14.69
13.65
11.64
8.67
5.02
1.08
-2.82
-6.47
-9.91
-13.27
-16.77
-20.62
-25.06
-30.37
-36.7
-43.87
-51.07
-56.8
-59.22
-56.68
-48.57
-35.6
-19.72
-3.46
10.93
22.1
29.77
34.46
37.01
38.16
38.34
37.71
36.3
34.16
31.47
28.5
25.55
22.93
20.77
19.07
17.65
16.24
14.53
12.24
9.26
5.61
1.47
-2.89
-7.17
-11.14
-14.73
-18.02
-21.32
-25.1
-29.86
-35.91
-43.06
-50.38
-56.27
-58.79
-56.35
-48.35
-35.53
-19.85
-3.84
10.24
21.05
28.35
32.8
35.32
36.66
37.16
36.83
35.61
33.7
31.46
29.35
27.68
26.44
25.37
24.17
22.68
21.02
19.44
18.13
16.99
15.66
13.56
10.29
5.75
0.29
-5.43
-10.68
-15.05
-18.53
-21.58
-24.97
-29.44
-35.43
-42.75
-50.47
-56.95
-60.31
-58.93
-52.12
-40.39
-25.4
-9.46
5.22
17.09
25.55
30.85
33.71
34.87
34.89
34.08
32.58
30.52
28.07
25.46
22.98
20.88
19.36
18.47
18.14
18.12
18.07
17.63
16.43
14.2
10.83
6.45
1.4
-3.82
-8.73
-13
-16.56
-19.66
-22.83
-26.71
-31.81
-38.24
-45.35
-51.72
-55.4
-54.56
-48.21
-36.72
-21.83
-6.1
7.96
18.69
25.58
29.2
30.62
30.79
30.29
29.26
27.62
25.33
22.56
19.64
17.02
15.06
13.86
13.32
13.07
12.68
11.71
9.91
7.22
3.73
-0.31
-4.65
-9.02
-13.22
-17.12
-20.72
-24.18
-27.85
-32.19
-37.62
-44.16
-51.23
-57.45
-60.99
-60.07
-53.66
-42.02
-26.67
-10.02
5.5
18.08
27.01
32.56
35.58
36.92
37.15
36.49
34.97
32.73
30.05
27.29
24.77
22.59
20.67
18.86
17.05
15.25
13.51
11.78
9.85
7.43
4.24
0.3
-4.16
-8.72
-13.02
-16.9
-20.51
-24.27
-28.75
-34.44
-41.51
-49.53
-57.34
-63.15
-64.96
-61.29
-51.8
-37.58
-20.92
-4.54
9.29
19.44
26.04
30.08
32.78
34.94
36.74
37.87
37.91
36.71
34.48
31.71
28.92
26.43
24.35
22.62
21.14
19.83
18.56
17.12
15.15
12.31
8.38
3.47
-1.97
-7.38
-12.25
-16.39
-20.02
-23.66
-27.97
-33.48
-40.23
-47.66
-54.47
-58.89
-59.13
-54.07
-43.72
-29.41
-13.41
1.82
14.38
23.51
29.48
33.21
35.58
37.06
37.64
37.08
35.3
32.54
29.32
26.28
23.86
22.22
21.22
20.54
19.8
18.66
16.85
14.27
10.95
7.05
2.81
-1.56
-5.93
-10.24
-14.52
-18.85
-23.44
-28.59
-34.62
-41.53
-48.69
-54.7
-57.65
-55.77
-48.25
-35.68
-20.02
-3.86
10.42
21.39
28.79
33.18
35.4
36.13
35.71
34.21
31.72
28.46
24.87
21.44
18.63
16.66
15.54
15
14.62
13.9
12.41
9.93
6.46
2.28
-2.24
-6.72
-10.91
-14.77
-18.43
-22.1
-26.12
-30.89
-36.73
-43.69
-51.23
-58.09
-62.4
-62.24
-56.37
-44.82
-29.16
-11.89
4.27
17.35
26.65
32.57
36.12
38.23
39.31
39.3
37.95
35.25
31.55
27.53
23.89
21.1
19.25
18.12
17.28
16.32
14.87
12.69
9.68
5.84
1.33
-3.59
-8.59
-13.37
-17.76
-21.8
-25.78
-30.21
-35.66
-42.5
-50.49
-58.54
-64.8
-67.07
-63.66
-54.14
-39.6
-22.38
-5.24
9.55
20.8
28.48
33.31
36.19
37.79
38.43
38.18
37.13
35.44
33.34
31.11
28.92
26.93
25.21
23.78
22.6
21.52
20.27
18.5
15.92
12.38
7.92
2.79
-2.63
-8.01
-13.17
-18.15
-23.24
-28.9
-35.57
-43.38
-51.83
-59.66
-64.96
-65.76
-60.77
-49.96
-34.76
-17.68
-1.42
11.97
21.6
27.79
31.48
33.72
35.09
35.64
35.13
33.39
30.59
27.25
24.11
21.78
20.49
20.01
19.78
19.16
17.72
15.36
12.26
8.72
4.98
1.18
-2.68
-6.69
-10.94
-15.57
-20.8
-26.9
-34.01
-41.83
-49.42
-55.2
-57.34
-54.42
-46.07
-33.2
-17.79
-2.21
11.52
22.34
30.14
35.5
39.1
41.38
42.37
41.95
40.04
36.96
33.29
29.82
27.12
25.41
24.41
23.5
21.95
19.33
15.6
11.13
6.47
2.09
-1.86
-5.57
-9.47
-14.01
-19.52
-26.18
-33.94
-42.49
-51.13
-58.58
-63.15
-63.13
-57.42
-46.14
-30.79
-13.84
2.06
14.98
24.2
30.17
33.94
36.53
38.4
39.49
39.43
38.03
35.53
32.55
29.84
27.92
26.91
26.48
26.06
25.1
23.27
20.51
16.93
12.76
8.22
3.51
-1.24
-5.96
-10.69
-15.65
-21.19
-27.69
-35.29
-43.61
-51.59
-57.6
-59.87
-57.07
-48.91
-36.31
-21.18
-5.78
7.98
19.02
27.21
33.06
37.35
40.62
43.04
44.48
44.71
43.64
41.41
38.47
35.34
32.51
30.24
28.53
27.08
25.5
23.41
20.63
17.23
13.44
9.53
5.69
1.94
-1.84
-5.86
-10.29
-15.34
-21.23
-28.14
-35.93
-43.91
-50.7
-54.45
-53.36
-46.54
-34.45
-18.91
-2.56
12.16
23.68
31.71
36.91
40.29
42.6
44.04
44.36
43.22
40.61
37
33.18
29.96
27.78
26.55
25.67
24.36
22.02
18.5
14.17
9.66
5.54
2.12
-0.79
-3.66
-7.11
-11.64
-17.51
-24.68
-32.82
-41.23
-48.84
-54.25
-56.01
-53.06
-45.18
-33.22
-18.98
-4.55
8.27
18.49
26.01
31.23
34.64
36.41
36.51
34.87
31.77
27.88
24.07
21.07
19.14
17.98
16.91
15.27
12.7
9.34
5.71
2.4
-0.22
-2.17
-3.93
-6.17
-9.58
-14.58
-21.23
-29.09
-37.21
-44.19
-48.47
-48.68
-44.12
-35.11
-22.96
-9.6
3.08
13.72
21.81
27.46
31.1
33.04
33.33
31.92
28.97
24.98
20.8
17.3
15.06
14.07
13.79
13.38
12.1
9.68
6.36
2.83
-0.18
-2.26
-3.51
-4.59
-6.43
-9.86
-15.31
-22.58
-30.84
-38.73
-44.66
-47.16
-45.32
-39.05
-29.16
-17.15
-4.8
6.29
15.12
21.31
24.95
26.31
25.72
23.4
19.68
15.1
10.39
6.38
3.66
2.39
2.2
2.44
2.38
1.62
0.21
-1.45
-2.91
-3.97
-4.85
-6.14
-8.47
-12.29
-17.67
-24.19
-30.96
-36.78
-40.27
-40.21
-35.98
-27.79
-16.74
-4.51
7.13
16.85
24.01
28.53
30.68
30.73
28.91
25.55
21.18
16.54
12.42
9.37
7.47
6.35
5.41
4.14
2.33
0.13
-2.04
-3.85
-5.16
-6.25
-7.73
-10.33
-14.65
-20.84
-28.39
-36.04
-42.05
-44.65
-42.62
-35.81
-25.29
-12.98
-0.96
9.15
16.65
21.67
24.76
26.39
26.75
25.82
23.68
20.7
17.59
15.07
13.52
12.78
12.26
11.21
9.2
6.26
2.92
-0.13
-2.38
-3.8
-4.82
-6.21
-8.79
-13.14
-19.41
-27.14
-35.24
-42.08
-45.89
-45.27
-39.72
-29.92
-17.56
-4.76
6.64
15.61
22.01
26.38
29.33
31.24
32.08
31.64
29.79
26.78
23.21
19.82
17.2
15.52
14.53
13.63
12.27
10.18
7.48
4.58
1.95
-0.18
-1.91
-3.65
-5.93
-9.23
-13.88
-19.91
-27.04
-34.52
-41.16
-45.42
-45.9
-41.79
-33.32
-21.78
-9.12
2.67
12.22
19.12
23.75
26.88
29.12
30.67
31.3
30.64
28.56
25.32
21.58
18.11
15.51
13.93
13.06
12.34
11.25
9.54
7.32
4.9
2.62
0.59
-1.32
-3.44
-6.11
-9.59
-14.02
-19.4
-25.61
-32.26
-38.59
-43.45
-45.52
-43.73
-37.73
-28.17
-16.54
-4.73
5.7
13.82
19.54
23.25
25.43
26.36
26.03
24.39
21.6
18.16
14.78
12.18
10.72
10.23
10.13
9.64
8.26
5.93
3.09
0.33
-1.85
-3.42
-4.78
-6.57
-9.38
-13.51
-18.89
-25.11
-31.43
-36.88
-40.36
-40.85
-37.72
-31.08
-21.78
-11.26
-1.03
7.78
14.68
19.76
23.31
25.53
26.31
25.45
22.94
19.18
15.01
11.4
9.08
8.2
8.3
8.55
8.08
6.44
3.76
0.6
-2.33
-4.56
-6.11
-7.44
-9.28
-12.3
-16.93
-23.13
-30.35
-37.53
-43.16
-45.71
-44
-37.67
-27.47
-15.05
-2.45
8.52
16.82
22.38
25.74
27.71
28.85
29.31
28.9
27.37
24.73
21.33
17.81
14.84
12.81
11.62
10.75
9.53
7.52
4.71
1.53
-1.44
-3.8
-5.56
-7.09
-8.93
-11.5
-15
-19.46
-24.79
-30.77
-36.9
-42.25
-45.5
-45.34
-40.95
-32.51
-21.24
-9.05
2.17
11.2
17.73
22.19
25.32
27.64
29.27
29.97
29.46
27.65
24.81
21.51
18.43
16.11
14.77
14.23
13.98
13.43
12.08
9.78
6.72
3.31
0.01
-2.97
-5.67
-8.36
-11.4
-15.07
-19.54
-24.86
-30.91
-37.28
-43.14
-47.2
-48.03
-44.55
-36.54
-24.89
-11.42
1.76
12.93
21.24
26.77
30.17
32.14
33.11
33.14
32.11
29.97
26.93
23.45
20.16
17.56
15.92
15.13
14.79
14.33
13.24
11.27
8.5
5.28
2.04
-0.89
-3.43
-5.8
-8.36
-11.48
-15.43
-20.28
-25.9
-31.84
-37.32
-41.19
-42.25
-39.56
-32.96
-23.14
-11.58
-0.03
10
17.67
22.81
25.7
26.78
26.3
24.44
21.34
17.35
13.07
9.22
6.46
5.08
4.87
5.18
5.14
4.07
1.79
-1.26
-4.21
-6.19
-6.82
-6.43
-5.97
-6.6
-9.22
-14.06
-20.61
-27.87
-34.48
-39.11
-40.58
-38.18
-31.84
-22.22
-10.73
0.86
10.95
18.53
23.43
26.09
27.19
27.22
26.31
24.42
21.56
18.06
14.6
11.91
10.41
10.04
10.2
10.12
9.24
7.43
5.07
2.69
0.67
-1.05
-2.87
-5.29
-8.7
-13.19
-18.65
-24.84
-31.47
-38.04
-43.66
-47.08
-47
-42.56
-33.88
-22.14
-9.29
2.67
12.36
19.31
23.91
26.91
28.88
29.98
30.01
28.7
26.03
22.39
18.47
15
12.5
11.1
10.53
10.24
9.65
8.32
6.14
3.28
0.15
-2.85
-5.52
-7.97
-10.51
-13.54
-17.37
-22.12
-27.72
-33.82
-39.77
-44.55
-46.82
-45.3
-39.33
-29.25
-16.48
-3.14
8.71
17.72
23.6
26.91
28.61
29.48
29.82
29.56
28.47
26.45
23.67
20.54
17.58
15.23
13.64
12.65
11.91
10.96
9.47
7.37
4.84
2.17
-0.34
-2.61
-4.74
-7.02
-9.79
-13.29
-17.65
-22.93
-29.01
-35.55
-41.79
-46.5
-48.25
-45.81
-38.75
-27.74
-14.51
-1.22
10.22
18.75
24.33
27.56
29.18
29.6
28.86
26.82
23.56
19.57
15.7
12.82
11.4
11.29
11.79
11.94
10.99
8.74
5.54
2.1
-0.88
-3.08
-4.64
-6.04
-7.88
-10.64
-14.57
-19.71
-25.83
-32.35
-38.28
-42.32
-43.13
-39.81
-32.31
-21.59
-9.33
2.63
12.84
20.61
26.01
29.43
31.23
31.55
30.28
27.43
23.31
18.61
14.2
10.82
8.74
7.74
7.17
6.26
4.54
1.96
-1.09
-4.01
-6.32
-7.91
-9.11
-10.54
-12.86
-16.56
-21.77
-28.23
-35.28
-41.83
-46.47
-47.77
-44.66
-36.96
-25.54
-12.18
1.02
12.35
20.95
26.89
30.77
33.18
34.39
34.24
32.53
29.32
25.1
20.74
17.09
14.65
13.37
12.71
11.9
10.33
7.78
4.47
0.92
-2.4
-5.22
-7.66
-10.05
-12.86
-16.45
-21.04
-26.64
-33.06
-39.77
-45.81
-49.9
-50.65
-47.04
-38.9
-27.15
-13.58
-0.27
11.08
19.71
25.76
29.92
32.86
34.84
35.69
35.06
32.84
29.38
25.4
21.69
18.85
17
15.82
14.76
13.32
11.24
8.58
5.64
2.77
0.14
-2.3
-4.82
-7.81
-11.61
-16.41
-22.29
-29.09
-36.47
-43.67
-49.55
-52.66
-51.68
-45.86
-35.47
-21.9
-7.2
6.45
17.52
25.39
30.38
33.26
34.75
35.18
34.53
32.65
29.57
25.71
21.79
18.58
16.52
15.62
15.42
15.26
14.52
12.9
10.45
7.49
4.42
1.48
-1.31
-4.16
-7.35
-11.23
-16.03
-21.91
-28.79
-36.2
-43.22
-48.45
-50.36
-47.78
-40.44
-29.18
-15.78
-2.37
9.29
18.28
24.55
28.58
30.89
31.72
31.03
28.75
25.08
20.73
16.61
13.6
12.08
11.79
11.97
11.75
10.56
8.32
5.42
2.44
-0.2
-2.43
-4.5
-6.83
-9.82
-13.74
-18.69
-24.6
-31.21
-37.88
-43.54
-46.8
-46.3
-41.24
-31.81
-19.3
-5.67
7.04
17.44
25.02
30.05
33.14
34.69
34.76
33.2
30.02
25.63
20.88
16.79
14.08
12.9
12.72
12.63
11.78
9.72
6.6
3.03
-0.31
-2.99
-5.07
-7.05
-9.63
-13.4
-18.71
-25.48
-33.32
-41.39
-48.54
-53.27
-54.14
-50.16
-41.32
-28.72
-14.31
-0.31
11.58
20.6
26.89
31.08
33.72
34.99
34.72
32.8
29.42
25.29
21.32
18.3
16.53
15.78
15.45
14.82
13.47
11.25
8.4
5.27
2.18
-0.7
-3.45
-6.28
-9.57
-13.69
-19.04
-25.77
-33.68
-42.02
-49.41
-54.08
-54.38
-49.41
-39.45
-26.01
-11.32
2.45
13.89
22.63
29.04
33.76
37.14
39.11
39.38
37.81
34.66
30.6
26.52
23.08
20.6
18.93
17.61
16.04
13.77
10.65
6.95
3.2
-0.08
-2.6
-4.52
-6.38
-8.91
-12.74
-18.23
-25.32
-33.58
-42.08
-49.55
-54.41
-55.16
-50.86
-41.57
-28.47
-13.58
0.85
13.07
22.26
28.55
32.58
34.98
36
35.57
33.52
30.03
25.69
21.42
18.07
16.06
15.18
14.72
13.86
12.04
9.26
5.97
2.76
0.01
-2.38
-4.87
-8.09
-12.46
-18.13
-24.87
-32.2
-39.47
-45.74
-49.88
-50.68
-47.24
-39.36
-27.82
-14.26
-0.63
11.41
20.94
27.82
32.36
34.89
35.49
34.1
30.82
26.13
20.91
16.16
12.61
10.44
9.22
8.17
6.58
4.1
0.89
-2.55
-5.69
-8.26
-10.42
-12.69
-15.84
-20.53
-27.09
-35.26
-44.06
-51.94
-57.03
-57.69
-53.07
-43.43
-30.15
-15.28
-0.83
11.72
21.75
29.27
34.48
37.5
38.23
36.58
32.77
27.59
22.21
17.75
14.87
13.42
12.63
11.45
9.17
5.71
1.59
-2.39
-5.62
-8.02
-10.03
-12.41
-15.93
-21.16
-28.29
-37.04
-46.55
-55.33
-61.49
-63.18
-59.23
-49.64
-35.72
-19.64
-3.75
10.24
21.56
30.3
36.98
41.95
45.22
46.59
45.9
43.36
39.63
35.64
32.19
29.68
27.96
26.47
24.56
21.81
18.24
14.26
10.47
7.26
4.59
1.98
-1.34
-6.06
-12.63
-20.96
-30.49
-40.14
-48.46
-53.85
-54.87
-50.72
-41.56
-28.64
-13.94
0.41
12.82
22.58
29.87
35.21
38.98
41.16
41.38
39.39
35.4
30.28
25.18
21.19
18.76
17.56
16.7
15.22
12.53
8.72
4.39
0.3
-3.04
-5.66
-8.02
-10.85
-14.84
-20.45
-27.74
-36.27
-45.04
-52.49
-56.81
-56.39
-50.44
-39.44
-25.01
-9.42
5.2
17.47
26.98
33.92
38.65
41.27
41.64
39.72
35.85
30.93
26.11
22.34
20.06
18.95
18.27
17.24
15.41
12.85
9.96
7.25
4.93
2.84
0.48
-2.82
-7.65
-14.3
-22.65
-31.99
-41.05
-48.11
-51.36
-49.42
-41.88
-29.52
-14.18
1.83
16.41
28.26
37
42.89
46.34
47.58
46.58
43.33
38.18
31.97
25.91
21.04
17.85
16.01
14.58
12.48
9.03
4.27
-1.09
-6.1
-10.05
-12.9
-15.29
-18.3
-22.99
-30.03
-39.32
-49.92
-60.14
-67.84
-70.94
-68.09
-59.12
-45.2
-28.53
-11.58
3.64
16.14
25.97
33.79
40.34
45.91
50.31
53.14
54.17
53.63
52.15
50.48
49.15
48.25
47.51
46.51
45.07
43.33
41.7
40.6
40.16
40.07
39.61
37.89
34.09
27.67
18.5
6.9
-6.22
-19.36
-30.68
-38.39
-41.29
-39.15
-32.72
-23.32
-12.28
-0.45
11.87
24.63
37.57
49.98
60.77
68.95
74.04
76.35
76.79
76.49
76.32
76.67
77.36
77.82
77.28
75.02
70.5
63.51
54.19
42.96
30.26
16.48
1.71
-14.1
-31.08
-49.23
-68.25
-87.55
-106.25
-123.21
-137.11
-146.64
-150.72
-148.9
-141.68
-130.56
-117.82
-106
-97.18
-92.43
-91.53
-93.17
-95.32
-96.07
-94.12
-89.29
-82.6
-75.93
-71.33
-70.42
-73.72
-80.41
-88.48
-95.03
-96.7
-90.01
-72.09
-41.77
-0.76
45.74
89.72
122.53
137.91
134.43
116.08
90.62
66.34
48.94
40.12
38.21
40.19
43.67
47.68
52.02
56.25
58.88
57.76
51.18
39.13
23.73
8.99
-0.61
-1.72
6.59
22.41
41.6
59.11
70.61
73.71
68.37
56.46
40.8
24.06
8.05
-6.38
-19.11
-30.33
-40.21
-48.89
-56.55
-63.45
-69.73
-75.11
-78.63
-78.72
-73.54
-61.7
-43.02
-18.85
8.12
34.64
57.81
75.93
88.67
96.78
101.51
103.98
104.87
104.42
102.67
99.68
95.69
91.15
86.57
82.36
78.75
75.65
72.77
69.71
66.02
61.34
55.3
47.47
37.37
24.68
9.57
-6.97
-23.22
-37.07
-46.73
-51.38
-51.42
-48.22
-43.49
-38.68
-34.62
-31.56
-29.47
-28.38
-28.42
-29.79
-32.5
-36.23
-40.38
-44.18
-46.97
-48.4
-48.56
-47.93
-47.19
-46.91
-47.4
-48.59
-50.17
-51.81
-53.5
-55.64
-58.89
-63.87
-70.58
-78.19
-85.01
-89.06
-88.78
-83.74
-74.92
-64.32
-54.25
-46.49
-42
-41.13
-44.38
-52.7
-67.13
-87.81
-113.07
-139.35
-162.23
-178.06
-185.21
-184.06
-176.01
-162.36
-144.06
-122.42
-100.02
-80.71
-68.46
-65.39
-70.55
-80.19
-89.39
-94.07
-91.91
-82.04
-64.22
-38.28
-4.55
35.25
77.65
118.12
152.6
178.94
197.34
209.47
217.21
221.66
222.84
220.18
213.35
202.61
188.94
173.85
159.17
146.9
138.75
135.68
137.36
142.1
147.23
149.99
148.37
141.59
130.04
114.74
96.69
76.67
55.35
33.56
12.75
-5.13
-17.92
-23.92
-22.44
-14.17
-1.02
14.41
29.54
42.45
52.26
58.99
63.18
65.43
66.07
65.12
62.51
58.24
52.55
45.84
38.43
30.39
21.46
11.18
-0.92
-15.1
-31.31
-49.2
-68.16
-87.38
-105.78
-122
-134.49
-141.77
-142.93
-138.07
-128.48
-116.37
-104.16
-93.57
-85
-77.54
-69.55
-59.6
-47.23
-33.21
-18.99
-6.01
5.07
14.58
23.62
33.5
45.21
59
74.45
90.48
105.63
118.3
127.05
130.93
129.7
123.87
114.55
103.18
91.16
79.68
69.53
61.03
54.03
47.96
42.01
35.4
27.58
18.34
7.92
-3.12
-13.91
-23.3
-30.03
-32.93
-31.35
-25.56
-16.85
-7.23
1.32
7.49
11.09
12.78
13.46
13.64
13.15
11.45
8.28
4.22
0.68
-0.56
1.77
7.83
16.53
26.01
34.53
41.08
45.63
48.83
51.39
53.57
55.02
55.09
53.16
49.03
43.02
35.78
28.14
21.04
15.62
13.05
14.3
19.53
27.67
36.44
43.05
45.3
42.57
36.03
27.96
20.6
15.06
11.1
7.57
3.44
-1.55
-6.72
-11.16
-14.43
-16.93
-19.73
-23.82
-29.58
-36.43
-43.21
-48.76
-52.55
-54.86
-56.59
-58.89
-62.72
-68.51
-76.22
-85.23
-94.44
-102.26
-106.84
-106.59
-100.67
-89.45
-74.51
-58.21
-42.87
-30.07
-20.4
-13.61
-9.11
-6.51
-5.8
-7.14
-10.44
-15.13
-20.16
-24.38
-27.12
-28.48
-29.29
-30.71
-33.55
-37.95
-43.37
-48.87
-53.62
-57.21
-59.68
-61.3
-62.49
-63.53
-64.71
-66.26
-68.31
-70.69
-72.76
-73.59
-72.31
-68.52
-62.58
-55.5
-48.56
-42.7
-38.15
-34.29
-29.93
-23.8
-15.01
-3.38
10.39
24.93
38.5
49.29
55.83
57.28
53.64
45.58
34.21
20.5
5.03
-12.09
-30.92
-51.19
-72
-91.78
-108.92
-122.41
-132.48
-140.57
-148.44
-156.92
-165.1
-170.29
-168.96
-158.01
-135.69
-101.92
-58.04
-6.56
48.82
103.23
150.92
186.33
205.76
208.81
198.8
181.71
164.13
151.12
144.87
144.6
147.51
149.95
148.55
140.95
126.3
105.49
81.05
56.48
35.35
20.19
11.82
9.25
10.2
11.87
11.86
8.71
2.2
-6.81
-16.71
-25.81
-32.96
-37.94
-41.44
-44.63
-48.46
-53.07
-57.65
-60.94
-62
-61.05
-59.76
-60.81
-66.78
-78.89
-96.1
-115.03
-131.08
-139.93
-138.82
-127.07
-105.63
-76.41
-41.95
-5.65
27.84
52.85
64.1
58.71
37.75
6.35
-28.09
-58.72
-81.41
-95
-99.59
-94.57
-77.73
-46.8
-2.29
50.22
100.49
136.88
151.04
141.47
113.9
78.42
45.03
20.12
5.66
0.61
3.13
11.75
25.1
40.87
55.37
64.53
65.46
57.88
44.19
28.26
13.59
1.93
-7.04
-14.87
-22.79
-30.46
-35.56
-34.54
-24.41
-4.69
21.69
48.88
70.27
81.04
80.04
69.88
55.21
40.49
28.29
19.03
11.95
6.41
2.56
1.02
2.05
4.86
7.67
8.42
5.8
-0.21
-8.24
-16.26
-22.39
-25.77
-26.83
-27.03
-28.3
-32.26
-39.65
-49.99
-61.68
-72.36
-79.57
-81.53
-77.63
-68.65
-56.39
-42.91
-29.88
-18.12
-7.81
1.19
8.79
14.56
17.92
18.59
16.85
13.6
10.07
7.38
6.2
6.57
8.03
9.75
10.92
10.99
9.8
7.65
5.12
2.75
0.79
-0.93
-3.02
-6.26
-11.35
-18.55
-27.49
-37.07
-45.6
-51.11
-51.91
-47.15
-37.12
-23.28
-7.75
7.35
20.47
30.99
39.02
44.98
49.23
51.79
52.51
51.41
48.82
45.53
42.45
40.26
39.12
38.56
37.7
35.68
32.03
26.88
20.88
14.87
9.52
5.03
1.15
-2.64
-6.97
-12.32
-18.97
-26.81
-35.3
-43.29
-49.18
-51.27
-48.29
-39.96
-27.19
-11.84
3.93
18.31
30.3
39.64
46.51
51.06
53.29
53.15
50.8
46.86
42.25
37.96
34.62
32.24
30.28
27.96
24.58
19.99
14.49
8.81
3.66
-0.56
-3.96
-7.14
-10.9
-16.02
-22.94
-31.65
-41.64
-51.87
-60.95
-67.31
-69.59
-67.04
-59.79
-48.93
-36.09
-23.04
-11.12
-1.04
7.08
13.3
17.72
20.25
20.84
19.75
17.58
15.25
13.59
13.1
13.66
14.68
15.33
14.98
13.47
11.08
8.36
5.77
3.44
1
-2.21
-6.9
-13.49
-21.95
-31.62
-41.22
-49.05
-53.35
-52.82
-47.05
-36.79
-23.69
-9.75
3.25
14.34
23.29
30.34
35.66
39.18
40.59
39.74
37
33.26
29.7
27.25
26.19
26.05
25.88
24.78
22.27
18.55
14.31
10.29
6.96
4.28
1.69
-1.59
-6.38
-13.21
-22.02
-32.04
-41.8
-49.38
-52.96
-51.44
-44.87
-34.42
-22
-9.5
1.67
10.92
18.24
23.85
27.8
29.94
30.06
28.21
24.92
21.05
17.5
14.94
13.49
12.77
12.11
10.97
9.21
7.13
5.33
4.36
4.33
4.86
5.13
4.18
1.26
-3.94
-11.19
-19.69
-28.14
-34.91
-38.37
-37.33
-31.51
-21.67
-9.5
2.98
14.08
22.92
29.51
34.38
38
40.45
41.36
40.3
37.22
32.72
27.88
23.78
20.99
19.3
17.92
15.9
12.69
8.43
3.78
-0.44
-3.73
-6.1
-8.05
-10.36
-13.74
-18.7
-25.42
-33.66
-42.69
-51.18
-57.39
-59.54
-56.37
-47.66
-34.41
-18.6
-2.56
11.76
23.29
31.91
38.14
42.57
45.49
46.82
46.36
44.15
40.74
37.04
34.01
32.17
31.41
31.04
30.16
28.1
24.76
20.54
16.12
12.03
8.44
5.1
1.53
-2.79
-8.22
-14.96
-22.97
-31.93
-41.1
-49.27
-54.99
-56.89
-54.22
-47.2
-36.97
-25.21
-13.57
-3.17
5.53
12.56
18.1
22.14
24.47
24.89
23.49
20.87
17.98
15.86
15.14
15.84
17.35
18.74
19.14
18.23
16.2
13.65
11.25
9.35
7.91
6.46
4.38
1.05
-3.92
-10.58
-18.47
-26.59
-33.45
-37.42
-37.23
-32.39
-23.52
-12.13
-0.15
10.72
19.49
25.91
30.25
32.83
33.75
32.89
30.18
25.86
20.71
15.79
12.1
10.14
9.73
10.08
10.15
9.12
6.74
3.38
-0.24
-3.41
-5.81
-7.7
-9.71
-12.64
-17.06
-23.19
-30.87
-39.56
-48.4
-56.18
-61.41
-62.65
-58.92
-50.26
-37.86
-23.76
-10.22
1.11
9.63
15.74
20.29
23.94
26.79
28.39
28.21
26.13
22.66
18.78
15.54
13.55
12.78
12.64
12.37
11.42
9.77
7.78
6.02
4.9
4.49
4.48
4.32
3.44
1.35
-2.27
-7.54
-14.28
-21.86
-29.14
-34.56
-36.51
-33.9
-26.63
-15.67
-2.84
9.88
20.96
29.64
35.89
40.13
42.81
44.2
44.4
43.49
41.66
39.22
36.55
33.99
31.74
29.85
28.2
26.54
24.6
22.19
19.26
15.97
12.6
9.43
6.55
3.82
0.82
-2.91
-7.77
-13.95
-21.38
-29.62
-37.87
-44.97
-49.5
-50.11
-45.98
-37.15
-24.71
-10.61
2.99
14.32
22.45
27.42
29.91
30.73
30.47
29.37
27.44
24.74
21.6
18.6
16.32
15.12
14.81
14.77
14.21
12.55
9.7
6.14
2.63
-0.21
-2.24
-3.87
-5.9
-9.07
-13.85
-20.23
-27.84
-36.05
-44.06
-50.84
-55.18
-55.95
-52.37
-44.54
-33.44
-20.87
-8.78
1.27
8.54
13.1
15.45
16.14
15.4
13.32
10.03
5.99
2
-1.04
-2.48
-2.26
-0.87
0.84
2.1
2.54
2.33
1.96
1.93
2.4
3.06
3.34
2.63
0.57
-2.89
-7.49
-12.84
-18.39
-23.44
-27.02
-28.1
-25.86
-20.09
-11.44
-1.34
8.55
16.88
23.02
27.11
29.69
31.23
31.87
31.38
29.53
26.35
22.35
18.31
15.02
12.91
11.92
11.6
11.38
10.83
9.81
8.46
7.07
5.84
4.88
4.11
3.3
2.14
0.24
-2.77
-7.21
-13.23
-20.55
-28.45
-35.66
-40.68
-42.19
-39.48
-32.83
-23.42
-12.94
-3.01
5.25
11.52
16.05
19.35
21.82
23.51
24.26
23.82
22.17
19.6
16.64
13.9
11.81
10.48
9.7
9.05
8.11
6.63
4.59
2.15
-0.45
-3.04
-5.58
-8.17
-11.03
-14.36
-18.35
-23.13
-28.75
-35.11
-41.9
-48.45
-53.74
-56.58
-55.92
-51.28
-42.99
-32.22
-20.57
-9.66
-0.62
6.1
10.57
13.2
14.39
14.41
13.4
11.45
8.73
5.49
2.1
-1.04
-3.61
-5.43
-6.52
-7.05
-7.33
-7.72
-8.51
-9.84
-11.65
-13.73
-15.74
-17.35
-18.37
-18.79
-18.85
-18.98
-19.68
-21.43
-24.45
-28.54
-32.9
-36.2
-36.87
-33.63
-26.04
-14.77
-1.45
11.86
23.4
32.24
38.38
42.38
44.86
46.08
45.95
44.22
40.96
36.72
32.4
28.92
26.77
25.86
25.6
25.17
23.99
21.92
19.22
16.4
13.85
11.69
9.69
7.48
4.7
1.18
-3.1
-8.04
-13.56
-19.46
-25.34
-30.42
-33.66
-33.98
-30.74
-24.01
-14.72
-4.31
5.68
14.08
20.39
24.68
27.3
28.59
28.66
27.44
24.9
21.29
17.15
13.25
10.25
8.45
7.68
7.35
6.76
5.4
3.16
0.29
-2.73
-5.53
-7.98
-10.21
-12.54
-15.27
-18.59
-22.61
-27.31
-32.67
-38.48
-44.19
-48.85
-51.14
-49.83
-44.21
-34.6
-22.32
-9.3
2.55
11.98
18.64
23.02
25.91
27.93
29.31
29.9
29.44
27.86
25.43
22.65
20.11
18.22
17.09
16.52
16.16
15.6
14.54
12.83
10.47
7.6
4.37
0.89
-2.73
-6.52
-10.54
-14.87
-19.66
-25.06
-31.14
-37.79
-44.5
-50.35
-54.08
-54.5
-50.87
-43.28
-32.73
-20.82
-9.24
0.65
8.24
13.53
16.97
19.05
20.13
20.36
19.77
18.44
16.55
14.35
12.12
10.11
8.44
7.11
6
4.89
3.57
1.81
-0.5
-3.36
-6.63
-10.12
-13.61
-16.95
-20.08
-23.07
-26.11
-29.46
-33.4
-37.99
-42.91
-47.28
-49.81
-49.1
-44.16
-34.91
-22.25
-7.89
6.23
18.49
28.04
34.79
39.23
41.93
43.36
43.7
42.99
41.29
38.88
36.23
33.85
32.16
31.23
30.81
30.43
29.58
28
25.63
22.69
19.44
16.09
12.68
9.15
5.4
1.31
-3.21
-8.29
-14.02
-20.37
-27.03
-33.28
-38.06
-40.19
-38.77
-33.55
-25.07
-14.59
-3.63
6.39
14.58
20.6
24.56
26.76
27.46
26.81
24.95
22.1
18.68
15.22
12.28
10.16
8.88
8.16
7.57
6.67
5.23
3.21
0.78
-1.84
-4.49
-7.12
-9.82
-12.75
-16.14
-20.25
-25.32
-31.41
-38.19
-44.85
-50.07
-52.41
-50.75
-44.84
-35.44
-24.13
-12.75
-2.78
5.11
10.95
15.16
18.14
19.97
20.51
19.65
17.54
14.68
11.74
9.35
7.77
6.91
6.39
5.78
4.72
3.12
1.03
-1.37
-3.87
-6.32
-8.67
-10.96
-13.29
-15.88
-19
-22.97
-27.98
-33.94
-40.26
-45.85
-49.27
-49.14
-44.67
-35.97
-24.18
-11.07
1.49
12.11
20.16
25.82
29.63
32.23
33.93
34.73
34.49
33.11
30.78
27.92
25.1
22.78
21.12
20.01
19.12
18.1
16.75
15.01
12.91
10.48
7.69
4.52
1
-2.77
-6.63
-10.51
-14.48
-18.82
-23.83
-29.65
-35.93
-41.74
-45.72
-46.44
-42.98
-35.33
-24.44
-11.98
0.24
10.84
19.19
25.34
29.83
33.2
35.8
37.67
38.7
38.79
37.98
36.53
34.8
33.16
31.83
30.86
30.11
29.33
28.26
26.69
24.48
21.56
17.99
13.89
9.5
5.01
0.59
-3.75
-8.17
-12.97
-18.48
-24.87
-31.93
-38.89
-44.47
-47.17
-45.81
-39.99
-30.37
-18.55
-6.47
4.17
12.47
18.35
22.31
24.97
26.64
27.31
26.77
24.99
22.22
19.11
16.39
14.6
13.82
13.65
13.43
12.49
10.52
7.57
4.06
0.45
-2.94
-6.03
-8.96
-11.97
-15.3
-19.11
-23.57
-28.7
-34.37
-40.01
-44.65
-47.04
-46.03
-41.05
-32.45
-21.44
-9.71
1.18
10.24
17.2
22.25
25.72
27.73
28.17
26.95
24.24
20.63
16.99
14.07
12.26
11.38
10.89
10.12
8.68
6.6
4.29
2.25
0.8
-0.1
-0.81
-1.95
-4.1
-7.66
-12.76
-19.19
-26.39
-33.43
-39.13
-42.2
-41.61
-36.93
-28.57
-17.76
-6.17
4.61
13.49
20.12
24.71
27.7
29.39
29.82
28.9
26.63
23.36
19.73
16.5
14.25
13.15
12.88
12.82
12.33
10.99
8.79
6.04
3.18
0.57
-1.78
-4.13
-6.9
-10.52
-15.24
-21.06
-27.71
-34.57
-40.7
-44.9
-45.91
-42.89
-35.76
-25.35
-13.22
-1.12
9.55
18.15
24.73
29.72
33.5
36.16
37.52
37.36
35.69
32.88
29.59
26.49
24.08
22.44
21.28
20.14
18.59
16.41
13.64
10.52
7.33
4.2
1.13
-2.04
-5.48
-9.34
-13.7
-18.59
-24.04
-30
-36.18
-41.87
-45.99
-47.3
-44.8
-38.26
-28.4
-16.72
-5.07
5.06
12.92
18.59
22.64
25.69
28.03
29.62
30.22
29.73
28.28
26.2
23.88
21.63
19.59
17.74
16.04
14.47
13.04
11.72
10.39
8.9
7.06
4.77
2.05
-0.99
-4.21
-7.6
-11.28
-15.48
-20.48
-26.36
-32.79
-38.96
-43.63
-45.45
-43.42
-37.32
-27.86
-16.51
-5
5.19
13.28
19.22
23.45
26.53
28.78
30.2
30.6
29.78
27.79
24.98
21.86
19.01
16.82
15.32
14.29
13.3
11.97
10.09
7.69
4.97
2.18
-0.53
-3.14
-5.77
-8.59
-11.78
-15.49
-19.81
-24.78
-30.18
-35.46
-39.72
-41.78
-40.6
-35.68
-27.32
-16.64
-5.27
5.22
13.73
19.82
23.7
25.79
26.47
25.89
24.05
21.07
17.33
13.48
10.24
8.11
7.15
6.99
6.98
6.51
5.22
3.16
0.67
-1.77
-3.84
-5.44
-6.82
-8.45
-10.84
-14.39
-19.18
-24.9
-30.82
-35.89
-38.93
-38.89
-35.21
-28.04
-18.3
-7.47
2.9
11.6
18.12
22.58
25.47
27.28
28.17
28.02
26.6
23.91
20.36
16.67
13.64
11.77
11.06
11.04
11
10.3
8.7
6.34
3.62
0.95
-1.51
-3.8
-6.16
-8.84
-12
-15.81
-20.38
-25.8
-31.91
-38.11
-43.24
-45.86
-44.72
-39.33
-30.26
-19
-7.41
2.9
11.07
17.03
21.21
24.13
26.08
27.09
27.05
25.96
23.98
21.48
18.92
16.68
14.99
13.87
13.1
12.37
11.37
9.95
8.1
5.98
3.71
1.39
-1
-3.54
-6.32
-9.48
-13.15
-17.49
-22.55
-28.12
-33.59
-37.9
-39.87
-38.47
-33.37
-25.03
-14.69
-3.94
5.77
13.52
19.08
22.68
24.8
25.76
25.65
24.47
22.22
19.19
15.85
12.8
10.47
9.02
8.28
7.87
7.4
6.56
5.22
3.43
1.38
-0.72
-2.67
-4.39
-6.04
-7.85
-10.25
-13.57
-17.96
-23.25
-28.84
-33.77
-36.88
-37.14
-33.94
-27.4
-18.4
-8.35
1.27
9.36
15.46
19.65
22.26
23.58
23.65
22.36
19.72
16.06
12.06
8.54
6.17
5.15
5.16
5.5
5.42
4.43
2.49
-0.03
-2.55
-4.58
-5.97
-6.89
-7.77
-9.11
-11.29
-14.57
-18.92
-24.05
-29.3
-33.61
-35.81
-34.89
-30.47
-22.99
-13.62
-3.84
5.03
12.23
17.63
21.46
24
25.4
25.61
24.58
22.37
19.34
16.04
13.07
10.88
9.61
9.02
8.62
7.83
6.31
4.03
1.32
-1.35
-3.6
-5.39
-7
-8.89
-11.55
-15.27
-20.14
-26.03
-32.56
-39.01
-44.33
-47.26
-46.66
-41.99
-33.59
-22.67
-11.02
-0.31
8.31
14.48
18.49
20.9
22.11
22.25
21.22
18.98
15.78
12.17
8.85
6.38
4.87
3.94
2.92
1.16
-1.63
-5.21
-8.94
-12.11
-14.33
-15.79
-17.16
-19.32
-22.99
-28.36
-35.09
-42.41
-49.29
-54.41
-56.14
-52.68
-42.66
-25.9
-4.05
19.59
41.12
57.4
67.21
71.38
71.89
70.63
68.54
65.56
61.37
56.09
50.56
45.95
43.04
41.89
41.92
42.48
43.2
44.05
45.09
46.14
46.63
45.85
43.23
38.57
32.08
24.23
15.56
6.5
-2.7
-12.01
-21.51
-31.3
-41.21
-50.51
-57.93
-61.95
-61.41
-56.09
-46.97
-35.91
-24.92
-15.49
-8.07
-2.06
3.84
11.04
20.46
32.05
44.54
55.68
62.89
64.27
59.51
50.16
39.17
29.63
23.33
19.97
17.3
12.29
2.64
-12.08
-30.13
-48.18
-62.11
-67.64
-60.76
-38.52
-0.12
51.88
111.13
168.55
214.98
244.15
254.67
249.77
235.09
215.7
194.18
170.59
144.04
114.36
82.93
52.12
24.04
-0.32
-21.16
-39.16
-54.75
-67.79
-77.73
-84.22
-87.53
-88.63
-88.96
-89.94
-92.61
-97.35
-103.88
-111.55
-119.76
-128.51
-138.67
-151.81
-169.65
-193.21
-222.14
-254.51
-287.14
-316.32
-338.59
-351.46
-353.77
-345.63
-328.37
-304.1
-275.36
-244.63
-213.89
-184.39
-156.7
-130.87
-106.68
-83.74
-61.6
-39.73
-17.69
4.62
26.76
47.73
66.25
81.16
91.81
98.27
101.18
101.39
99.62
96.27
91.48
85.48
78.84
72.66
68.54
68.34
73.76
85.94
105.14
130.59
160.62
192.96
225.24
255.27
281.33
302.13
316.73
324.45
325.03
318.66
306.09
288.37
266.51
241.22
212.86
181.84
149.12
116.57
86.76
62.24
44.68
34.33
30.04
29.87
31.9
34.81
38
41.25
44.29
46.49
46.95
44.83
39.66
31.54
21.1
9.22
-3.16
-15.35
-26.92
-37.73
-47.81
-57.28
-66.15
-74.3
-81.46
-87.25
-91.35
-93.48
-93.43
-91
-86.04
-78.61
-69.2
-58.89
-49.22
-41.73
-37.35
-35.98
-36.51
-37.31
-36.99
-34.91
-31.26
-26.61
-21.35
-15.26
-7.64
2.15
14.21
27.77
41.41
53.66
63.48
70.5
74.83
76.69
76.1
72.87
66.81
58
46.91
34.22
20.6
6.54
-7.61
-21.34
-33.96
-44.63
-52.85
-58.79
-63.41
-68.06
-73.8
-80.73
-87.86
-93.59
-96.53
-96.21
-93.28
-89.12
-85.06
-81.87
-79.47
-77.19
-74.18
-69.79
-63.93
-57.04
-50.06
-44.12
-40.24
-38.96
-40.16
-43.03
-46.38
-49
-50
-49
-45.99
-41.1
-34.48
-26.29
-16.79
-6.42
4.11
13.93
22.29
28.62
32.78
35.06
36.09
36.58
36.92
36.89
35.64
31.98
25.02
14.66
1.85
-11.65
-23.94
-33.67
-40.57
-45.32
-49.15
-53.08
-57.52
-62.17
-66.31
-69.28
-70.91
-71.58
-71.99
-72.88
-74.62
-77.17
-80.12
-82.98
-85.38
-87.25
-88.79
-90.48
-92.97
-97
-103.18
-111.69
-121.86
-131.74
-138.15
-137.41
-126.62
-105.02
-74.73
-40.35
-7.6
18.44
34.74
40.73
37.79
28.32
15.02
0.7
-11.81
-19.81
-21.34
-15.97
-5.17
8.09
20.52
29.77
35.18
37.78
39.4
41.83
46.13
52.44
60.21
68.52
76.36
82.85
87.53
90.39
91.8
92.23
91.78
90.03
86.12
79.23
69.02
55.95
41.07
25.72
11.08
-1.99
-12.96
-21.58
-27.84
-31.98
-34.48
-35.99
-37.13
-38.33
-39.8
-41.45
-43.12
-44.58
-45.63
-46.23
-46.44
-46.55
-46.88
-47.74
-49.22
-51.01
-52.4
-52.45
-50.32
-45.61
-38.67
-30.57
-22.84
-17.02
-14.08
-14.14
-16.3
-18.97
-20.23
-18.53
-12.97
-3.65
8.47
21.71
34.09
43.8
49.55
50.98
48.68
44.11
39.03
34.9
32.33
30.94
29.59
27.01
22.34
15.52
7.23
-1.3
-8.58
-13.17
-13.96
-10.36
-2.55
8.52
21.25
33.78
44.43
51.99
55.93
56.32
53.68
48.88
42.92
36.86
31.58
27.56
24.75
22.67
20.67
18.23
15.24
11.99
8.95
6.55
4.86
3.63
2.41
0.76
-1.62
-4.83
-8.84
-13.32
-17.63
-20.69
-21.16
-17.89
-10.37
0.88
14.38
28.07
40.03
48.94
54.42
56.84
56.91
55.33
52.53
48.67
43.79
37.98
31.48
24.61
17.72
11.02
4.58
-1.63
-7.53
-12.94
-17.51
-20.98
-23.25
-24.58
-25.44
-26.38
-27.82
-29.9
-32.46
-35.01
-36.88
-37.26
-35.37
-30.68
-23.19
-13.59
-3.16
6.56
14.25
19.12
21
20.24
17.44
13.23
8.21
2.97
-1.84
-5.64
-8.03
-8.98
-8.83
-8.15
-7.46
-7.08
-7.08
-7.4
-8.02
-9.04
-10.69
-13.17
-16.52
-20.54
-24.73
-28.36
-30.6
-30.66
-27.97
-22.34
-14.07
-3.88
7.16
17.93
27.47
35.07
40.28
42.92
43.01
40.8
36.83
31.81
26.51
21.47
16.95
12.88
9.09
5.46
2
-1.18
-4.03
-6.59
-8.99
-11.36
-13.77
-16.21
-18.65
-21.06
-23.28
-24.91
-25.24
-23.39
-18.72
-11.18
-1.46
9.13
19.07
27.17
32.8
35.95
36.98
36.35
34.46
31.63
28.24
24.68
21.45
18.88
17.07
15.82
14.7
13.26
11.19
8.43
5.2
1.84
-1.33
-4.2
-6.83
-9.49
-12.35
-15.42
-18.33
-20.43
-20.88
-18.97
-14.39
-7.38
1.25
10.33
18.61
25.12
29.31
31.1
30.75
28.67
25.36
21.29
16.93
12.73
9.02
5.95
3.49
1.41
-0.59
-2.71
-4.99
-7.3
-9.36
-10.99
-12.16
-13.11
-14.22
-15.94
-18.45
-21.51
-24.31
-25.69
-24.48
-19.93
-12.08
-1.83
9.34
19.84
28.41
34.41
37.8
38.9
38.11
35.8
32.26
27.84
22.99
18.2
13.85
10.07
6.71
3.47
0.11
-3.46
-7.04
-10.31
-12.99
-14.95
-16.39
-17.71
-19.47
-22.16
-26.05
-31.01
-36.34
-40.86
-43.09
-41.73
-36.15
-26.71
-14.74
-2.11
9.44
18.72
25.41
29.77
32.27
33.21
32.62
30.44
26.79
22.18
17.42
13.33
10.39
8.59
7.46
6.35
4.72
2.36
-0.5
-3.41
-5.85
-7.52
-8.47
-9.01
-9.71
-11.07
-13.38
-16.6
-20.34
-23.82
-26.09
-26.14
-23.21
-17.1
-8.31
2.01
12.37
21.43
28.34
32.84
35.21
35.85
35.01
32.77
29.11
24.19
18.41
12.47
7.08
2.69
-0.62
-3.14
-5.35
-7.66
-10.19
-12.78
-15.08
-16.77
-17.77
-18.24
-18.58
-19.22
-20.49
-22.57
-25.42
-28.75
-31.96
-34.13
-34.18
-31.16
-24.66
-15.05
-3.47
8.5
19.34
28.05
34.26
38.15
39.99
39.96
38.05
34.2
28.61
21.86
14.87
8.56
3.55
-0.04
-2.53
-4.45
-6.31
-8.3
-10.35
-12.24
-13.78
-14.97
-15.94
-16.93
-18.11
-19.58
-21.3
-23.16
-24.96
-26.35
-26.85
-25.88
-22.9
-17.67
-10.43
-1.93
6.73
14.44
20.35
24.13
25.86
25.84
24.42
21.85
18.38
14.37
10.29
6.68
3.91
2.02
0.68
-0.58
-2.2
-4.27
-6.59
-8.76
-10.42
-11.47
-12.07
-12.68
-13.8
-15.86
-18.96
-22.73
-26.36
-28.66
-28.48
-25.05
-18.35
-9.17
1.17
11.2
19.77
26.24
30.46
32.53
32.62
30.9
27.58
23.05
17.93
12.94
8.68
5.44
3.13
1.4
-0.16
-1.82
-3.58
-5.27
-6.69
-7.72
-8.47
-9.28
-10.56
-12.72
-16.03
-20.48
-25.68
-30.89
-34.95
-36.6
-34.78
-29.04
-19.8
-8.28
3.86
15.03
24.12
30.68
34.82
36.97
37.5
36.72
34.79
31.89
28.31
24.5
20.93
17.97
15.73
14.03
12.43
10.44
7.75
4.33
0.49
-3.36
-6.86
-9.92
-12.66
-15.39
-18.36
-21.69
-25.38
-29.25
-32.98
-36.1
-37.89
-37.52
-34.29
-27.93
-18.88
-8.19
2.68
12.36
19.93
25.07
27.93
28.85
28.12
25.91
22.43
18.01
13.23
8.81
5.38
3.26
2.4
2.4
2.66
2.66
2.06
0.78
-1.01
-3.07
-5.1
-6.96
-8.63
-10.28
-12.17
-14.59
-17.73
-21.64
-26.14
-30.8
-34.85
-37.34
-37.27
-33.93
-27.22
-17.79
-6.9
3.87
13.13
20.06
24.51
26.83
27.67
27.59
26.92
25.72
23.88
21.35
18.17
14.6
11.02
7.81
5.2
3.18
1.57
0.13
-1.27
-2.6
-3.67
-4.3
-4.41
-4.08
-3.58
-3.2
-3.24
-3.89
-5.29
-7.48
-10.26
-13.15
-15.26
-15.5
-12.91
-7.13
1.33
11.22
20.9
29.06
35.11
39.29
42.25
44.58
46.33
47.1
46.24
43.41
38.79
33.05
27.03
21.41
16.47
12.05
7.79
3.29
-1.61
-6.79
-11.94
-16.65
-20.67
-23.95
-26.63
-29.01
-31.35
-33.86
-36.67
-39.9
-43.58
-47.46
-50.91
-52.81
-51.91
-47.26
-38.71
-27.13
-14.12
-1.5
9.33
17.63
23.32
26.62
27.81
27.03
24.51
20.65
16.2
12.05
8.95
7.24
6.67
6.6
6.23
4.96
2.67
-0.37
-3.57
-6.42
-8.68
-10.49
-12.33
-14.82
-18.49
-23.62
-30.04
-36.99
-43.23
-47.17
-47.38
-43.05
-34.37
-22.57
-9.5
2.92
13.37
21.32
26.96
30.71
32.89
33.51
32.49
29.87
26.07
21.83
17.94
14.97
13.03
11.82
10.77
9.39
7.37
4.77
1.84
-1.09
-3.82
-6.34
-8.84
-11.62
-15.05
-19.43
-24.92
-31.42
-38.39
-44.75
-48.99
-49.56
-45.42
-36.53
-24.06
-9.98
3.58
15.09
23.94
30.38
35.03
38.34
40.37
40.82
39.45
36.31
31.94
27.13
22.66
19.05
16.39
14.46
12.81
11.05
8.91
6.34
3.49
0.61
-2.05
-4.39
-6.45
-8.51
-10.97
-14.37
-19.22
-25.89
-34.41
-44.27
-54.28
-62.72
-67.73
-67.96
-63.05
-53.79
-41.9
-29.35
-17.78
-8.09
-0.4
5.61
10.42
14.31
17.34
19.46
20.66
21.1
21.17
21.34
22.11
23.79
26.42
29.72
33.13
36.08
38.07
38.85
38.34
36.62
33.78
29.93
25.16
19.6
13.37
6.46
-1.3
-10.18
-20.28
-31.19
-41.79
-50.36
-55.06
-54.58
-48.7
-38.43
-25.62
-12.44
-0.62
8.86
15.83
20.61
23.64
25.25
25.59
24.72
22.79
20.08
17.07
14.23
11.91
10.27
9.23
8.55
7.9
6.98
5.51
3.32
0.37
-3.24
-7.3
-11.58
-15.86
-20.02
-23.97
-27.72
-31.4
-35.3
-39.85
-45.3
-51.35
-56.91
-60.21
-59.32
-53.01
-41.37
-25.9
-9.01
6.87
20.07
30.04
37.09
41.92
45.01
46.52
46.37
44.55
41.41
37.6
33.96
31.13
29.36
28.44
27.86
27
25.37
22.81
19.41
15.47
11.26
6.96
2.58
-1.96
-6.71
-11.74
-17.08
-22.87
-29.32
-36.54
-44.27
-51.55
-56.84
-58.29
-54.53
-45.22
-31.44
-15.32
0.62
14.35
24.84
32.03
36.45
38.75
39.29
38.17
35.46
31.48
26.85
22.4
18.86
16.62
15.62
15.4
15.28
14.66
13.16
10.7
7.52
3.97
0.37
-3.14
-6.66
-10.41
-14.76
-19.98
-26.29
-33.68
-41.73
-49.57
-55.82
-58.87
-57.31
-50.46
-38.77
-23.77
-7.64
7.48
20.11
29.7
36.49
41.07
43.89
45.08
44.54
42.24
38.47
33.94
29.58
26.14
23.95
22.79
22
20.88
18.86
15.78
11.8
7.33
2.8
-1.46
-5.37
-9.06
-12.79
-16.99
-22.08
-28.44
-36.23
-45.26
-54.78
-63.37
-69.19
-70.37
-65.68
-55.01
-39.55
-21.52
-3.47
12.43
24.94
33.83
39.65
43.23
45.28
46.18
46.05
44.89
42.78
40.01
36.94
34.03
31.54
29.59
28.07
26.77
25.43
23.81
21.69
18.91
15.38
11.14
6.37
1.31
-3.79
-8.75
-13.64
-18.79
-24.76
-32.08
-40.89
-50.57
-59.6
-65.85
-67.13
-62.04
-50.57
-34.22
-15.56
2.61
18.16
30.08
38.43
43.92
47.28
48.92
48.99
47.53
44.78
41.26
37.6
34.27
31.52
29.26
27.31
25.5
23.7
21.88
19.89
17.55
14.64
11.11
7.06
2.76
-1.46
-5.4
-9.05
-12.7
-16.81
-22.02
-28.82
-37.29
-46.8
-55.87
-62.43
-64.34
-60.18
-49.81
-34.57
-16.89
0.5
15.41
26.74
34.5
39.44
42.43
44.08
44.54
43.72
41.58
38.38
34.65
31.04
28.1
26.04
24.77
23.9
22.96
21.47
19.15
15.9
11.84
7.2
2.33
-2.54
-7.23
-11.77
-16.32
-21.15
-26.64
-33.14
-40.76
-49.11
-57.08
-62.87
-64.49
-60.43
-50.3
-35.2
-17.43
0.33
15.76
27.57
35.58
40.37
42.71
43.16
41.95
39.18
35.07
30.19
25.32
21.25
18.48
17.02
16.37
15.78
14.58
12.4
9.3
5.65
1.94
-1.51
-4.68
-7.84
-11.42
-15.81
-21.24
-27.79
-35.34
-43.54
-51.58
-58.19
-61.69
-60.51
-53.73
-41.57
-25.58
-8.14
8.25
21.7
31.39
37.54
40.9
42.31
42.3
41.08
38.68
35.23
31.12
26.96
23.44
21.04
19.82
19.37
18.97
17.87
15.65
12.3
8.2
3.89
-0.22
-4.04
-7.72
-11.58
-15.9
-20.92
-26.83
-33.82
-41.86
-50.5
-58.56
-64.22
-65.49
-60.93
-50.27
-34.77
-16.78
0.96
16.23
27.88
35.88
40.93
43.85
45.25
45.34
44.16
41.81
38.57
34.93
31.4
28.39
26.08
24.4
23.1
21.83
20.22
17.99
15.01
11.31
7.06
2.52
-2.12
-6.72
-11.27
-15.88
-20.78
-26.32
-32.87
-40.57
-49.03
-57.13
-63.03
-64.67
-60.51
-50.2
-34.87
-16.85
1.09
16.64
28.49
36.52
41.34
43.82
44.64
44.16
42.59
40.05
36.84
33.3
29.8
26.65
23.98
21.87
20.26
18.99
17.78
16.32
14.32
11.64
8.33
4.54
0.43
-3.9
-8.45
-13.23
-18.28
-23.73
-29.8
-36.73
-44.57
-52.8
-60.08
-64.39
-63.65
-56.56
-43.29
-25.66
-6.56
10.97
24.88
34.46
40.28
43.46
44.95
45.15
43.92
41.03
36.57
31.14
25.69
21.14
18.04
16.42
15.74
15.29
14.41
12.72
10.18
7.04
3.61
0.13
-3.36
-6.93
-10.76
-15.04
-19.92
-25.6
-32.24
-39.83
-47.91
-55.34
-60.38
-61.1
-56.14
-45.33
-30
-12.57
4.2
18.15
28.29
34.73
38.23
39.54
39.02
36.71
32.68
27.41
21.86
17.22
14.34
13.4
13.78
14.39
14.2
12.61
9.7
6.04
2.36
-0.9
-3.7
-6.41
-9.55
-13.56
-18.65
-24.85
-32.11
-40.2
-48.56
-56.1
-61.21
-62.14
-57.58
-47.35
-32.64
-15.77
0.66
14.58
25.03
32.19
36.78
39.52
40.71
40.28
38.1
34.35
29.69
25.09
21.47
19.29
18.37
17.98
17.2
15.26
11.89
7.35
2.25
-2.68
-7.02
-10.7
-14.06
-17.61
-21.84
-27.1
-33.56
-41.16
-49.44
-57.44
-63.58
-66.02
-63.19
-54.5
-40.72
-23.88
-6.63
8.7
20.73
29.32
35.13
39.02
41.51
42.54
41.81
39.16
34.93
29.97
25.38
22.03
20.22
19.59
19.3
18.45
16.45
13.24
9.24
5.02
1.06
-2.52
-5.9
-9.46
-13.63
-18.74
-25.01
-32.55
-41.24
-50.46
-58.95
-64.8
-66.03
-61.19
-50.12
-34.14
-15.74
2.31
17.72
29.29
36.99
41.51
43.76
44.45
43.91
42.27
39.61
36.15
32.28
28.53
25.36
23.06
21.61
20.65
19.64
18.06
15.65
12.46
8.79
5.02
1.35
-2.25
-6.01
-10.17
-14.92
-20.37
-26.65
-33.91
-42.16
-50.86
-58.7
-63.68
-63.75
-57.6
-45.44
-29
-11.08
5.53
18.93
28.52
34.81
38.76
41.12
42.13
41.61
39.38
35.65
31.04
26.52
22.91
20.65
19.65
19.4
19.26
18.68
17.32
15.08
12.05
8.39
4.33
0.06
-4.25
-8.56
-12.96
-17.66
-23
-29.28
-36.6
-44.57
-52.14
-57.66
-59.26
-55.49
-45.94
-31.58
-14.58
2.38
16.97
27.86
34.85
38.59
39.99
39.73
38.13
35.3
31.39
26.89
22.57
19.29
17.59
17.49
18.43
19.44
19.61
18.35
15.62
11.79
7.45
3.07
-1.13
-5.22
-9.45
-14.09
-19.4
-25.55
-32.7
-40.77
-49.33
-57.28
-62.91
-64.35
-60.14
-49.98
-35.02
-17.61
-0.43
14.3
25.49
33.21
38.21
41.34
43.09
43.52
42.51
40.1
36.62
32.68
28.98
26.04
24.06
22.9
22.18
21.42
20.24
18.37
15.75
12.46
8.64
4.46
0.01
-4.67
-9.61
-14.87
-20.55
-26.81
-33.81
-41.63
-49.98
-58.05
-64.38
-67.1
-64.54
-55.9
-41.71
-23.89
-5.18
11.69
24.86
33.71
38.79
41.23
42.16
42.26
41.74
40.57
38.72
36.4
33.94
31.64
29.68
28.02
26.47
24.87
23.1
21.12
18.87
16.28
13.2
9.46
5.04
0.05
-5.2
-10.35
-15.09
-19.37
-23.41
-27.76
-33.07
-39.8
-47.81
-56.16
-63.07
-66.35
-64.14
-55.69
-41.71
-24.31
-6.25
9.93
22.66
31.62
37.41
40.99
43.07
43.98
43.74
42.45
40.43
38.22
36.31
34.85
33.66
32.32
30.54
28.34
26.08
24.21
22.96
22.12
21.04
18.99
15.44
10.32
4.1
-2.47
-8.64
-13.94
-18.29
-22.1
-26.06
-30.99
-37.49
-45.61
-54.57
-62.7
-67.79
-67.76
-61.39
-48.96
-32.26
-14.01
2.98
16.74
26.55
32.79
36.45
38.44
39.3
39.12
37.85
35.6
32.74
29.87
27.53
25.97
25.1
24.53
23.84
22.71
21.07
18.93
16.33
13.2
9.4
4.88
-0.24
-5.66
-10.95
-15.8
-20.13
-24.2
-28.52
-33.68
-40.02
-47.29
-54.48
-59.89
-61.56
-57.9
-48.46
-34.14
-17.08
0.05
14.9
26.13
33.55
37.85
39.97
40.6
40
38.13
35
30.89
26.41
22.28
19.08
17.05
16.03
15.6
15.26
14.54
13.13
10.84
7.64
3.65
-0.86
-5.54
-10.05
-14.21
-18.04
-21.76
-25.74
-30.42
-36.2
-43.1
-50.65
-57.6
-62.15
-62.38
-56.99
-45.91
-30.54
-13.33
2.96
16.23
25.55
31.2
34.21
35.66
36.3
36.39
35.83
34.54
32.5
29.93
27.14
24.38
21.84
19.62
17.81
16.43
15.37
14.34
12.93
10.67
7.32
2.97
-1.98
-6.97
-11.56
-15.58
-19.25
-23.05
-27.57
-33.29
-40.35
-48.33
-56.06
-61.81
-63.59
-59.95
-50.51
-36.31
-19.52
-2.76
11.75
22.8
30.32
35
37.74
39.24
39.81
39.53
38.46
36.78
34.77
32.66
30.54
28.34
25.97
23.41
20.81
18.37
16.21
14.2
11.99
9.18
5.53
1.1
-3.72
-8.49
-12.86
-16.7
-20.18
-23.68
-27.77
-33.01
-39.66
-47.32
-54.75
-59.99
-60.91
-56.09
-45.43
-30.38
-13.43
2.74
16.15
25.96
32.34
36.06
37.9
38.39
37.8
36.32
34.19
31.74
29.34
27.22
25.48
24.09
22.94
21.91
20.91
19.78
18.28
16.16
13.19
9.29
4.6
-0.5
-5.56
-10.27
-14.49
-18.41
-22.41
-27.05
-32.76
-39.68
-47.32
-54.48
-59.35
-60.01
-55.09
-44.41
-29.2
-11.85
4.85
18.63
28.34
34.04
36.68
37.29
36.57
34.72
31.62
27.32
22.22
17.16
13.03
10.45
9.47
9.51
9.72
9.27
7.71
5.07
1.74
-1.79
-5.16
-8.29
-11.33
-14.56
-18.21
-22.42
-27.31
-32.9
-39.13
-45.56
-51.27
-54.86
-54.8
-50.04
-40.49
-27.28
-12.44
1.75
13.53
22.06
27.46
30.39
31.55
31.29
29.63
26.59
22.41
17.78
13.66
10.83
9.66
9.8
10.41
10.53
9.51
7.29
4.28
1.13
-1.74
-4.25
-6.75
-9.72
-13.6
-18.62
-24.82
-32.04
-39.86
-47.52
-53.82
-57.21
-56.21
-50
-38.89
-24.4
-8.85
5.47
16.94
25.08
30.33
33.55
35.42
36.18
35.62
33.57
30.15
26
21.97
18.84
16.92
15.97
15.38
14.49
12.84
10.35
7.27
3.93
0.66
-2.44
-5.45
-8.59
-12.15
-16.45
-21.77
-28.32
-36.07
-44.55
-52.7
-58.91
-61.37
-58.7
-50.5
-37.65
-22.13
-6.34
7.7
18.9
27.13
32.94
36.98
39.61
40.9
40.7
39.04
36.27
32.95
29.73
27.1
25.23
23.94
22.82
21.41
19.34
16.44
12.81
8.69
4.35
-0.02
-4.37
-8.78
-13.37
-18.25
-23.52
-29.33
-35.88
-43.2
-50.96
-58.15
-63.18
-64.24
-60.02
-50.28
-36.09
-19.61
-3.27
10.87
21.78
29.4
34.35
37.43
39.27
40.19
40.28
39.53
38.01
35.89
33.41
30.84
28.38
26.16
24.26
22.56
20.94
19.2
17.12
14.48
11.15
7.11
2.45
-2.57
-7.65
-12.51
-16.98
-21.17
-25.42
-30.32
-36.4
-43.77
-51.79
-58.93
-63.05
-62.12
-55.07
-42.35
-25.9
-8.52
7.1
19.26
27.58
32.72
35.73
37.43
38.18
37.94
36.55
34.12
30.98
27.66
24.62
22.17
20.33
18.96
17.85
16.77
15.57
14.15
12.43
10.27
7.58
4.25
0.31
-4.08
-8.66
-13.2
-17.66
-22.25
-27.42
-33.57
-40.69
-48.08
-54.24
-57.31
-55.62
-48.46
-36.45
-21.47
-5.98
7.73
18.24
25.25
29.34
31.44
32.28
32.22
31.21
29.18
26.25
22.86
19.64
17.26
16.05
15.9
16.27
16.45
15.83
14.1
11.36
7.94
4.21
0.42
-3.4
-7.33
-11.42
-15.75
-20.44
-25.68
-31.76
-38.76
-46.24
-53.01
-57.3
-57.3
-51.86
-41.12
-26.55
-10.51
4.6
17.08
26.27
32.44
36.23
38.21
38.62
37.46
34.77
30.86
26.36
22.05
18.6
16.36
15.23
14.84
14.6
14
12.64
10.33
7.11
3.22
-1
-5.21
-9.19
-13
-16.89
-21.25
-26.46
-32.79
-40.22
-48.37
-56.37
-62.86
-66.22
-64.92
-58.15
-46.21
-30.63
-13.74
2.03
14.92
24.23
30.34
34.17
36.68
38.41
39.44
39.58
38.63
36.62
33.85
30.73
27.62
24.75
22.16
19.81
17.62
15.48
13.23
10.69
7.65
4.02
-0.13
-4.58
-9.02
-13.28
-17.35
-21.46
-25.97
-31.26
-37.56
-44.71
-51.98
-58.04
-61.18
-59.75
-52.87
-40.8
-25.12
-8.23
7.45
20.18
29.36
35.37
39.09
41.38
42.72
43.2
42.73
41.33
39.18
36.63
33.98
31.41
28.95
26.56
24.24
22.02
19.9
17.77
15.35
12.28
8.33
3.47
-1.99
-7.52
-12.56
-16.77
-20.16
-23.16
-26.42
-30.69
-36.48
-43.74
-51.7
-58.84
-63.23
-63.08
-57.37
-46.33
-31.41
-14.83
1.09
14.62
24.98
32.22
36.93
39.74
41.16
41.47
40.84
39.51
37.75
35.87
34.07
32.44
30.92
29.45
27.97
26.49
25.05
23.57
21.83
19.5
16.23
11.82
6.39
0.35
-5.72
-11.24
-15.89
-19.67
-22.91
-26.22
-30.25
-35.53
-42.13
-49.49
-56.26
-60.64
-60.76
-55.43
-44.7
-29.95
-13.56
1.89
14.4
23.14
28.43
31.27
32.69
33.29
33.13
31.98
29.74
26.66
23.37
20.6
18.84
18.13
18.1
18.17
17.8
16.62
14.55
11.67
8.17
4.26
0.17
-3.91
-7.83
-11.58
-15.31
-19.3
-23.92
-29.49
-36.11
-43.45
-50.59
-56.02
-58.03
-55.15
-46.82
-33.74
-17.77
-1.38
13.12
24.23
31.63
35.86
37.92
38.69
38.62
37.8
36.15
33.72
30.8
27.84
25.3
23.43
22.14
21.14
20.09
18.74
17
14.83
12.17
8.8
4.55
-0.58
-6.33
-12.1
-17.29
-21.56
-25.01
-28.32
-32.36
-37.88
-45.02
-53.08
-60.53
-65.35
-65.66
-60.35
-49.52
-34.57
-17.72
-1.43
12.43
22.89
29.96
34.27
36.63
37.66
37.75
37.09
35.87
34.3
32.59
30.91
29.27
27.61
25.9
24.14
22.48
21.06
19.94
18.96
17.75
15.85
12.9
8.75
3.59
-2.12
-7.79
-12.9
-17.23
-20.98
-24.76
-29.44
-35.72
-43.72
-52.63
-60.69
-65.65
-65.5
-59.22
-47.26
-31.4
-14.2
1.91
15.26
25.23
32.08
36.46
39.01
40.11
39.94
38.68
36.66
34.35
32.26
30.72
29.78
29.18
28.51
27.44
25.94
24.24
22.72
21.6
20.78
19.72
17.69
14.16
9.02
2.73
-3.86
-9.9
-14.88
-18.8
-22.13
-25.55
-29.78
-35.29
-42.18
-49.95
-57.47
-63.05
-64.88
-61.57
-52.8
-39.46
-23.56
-7.42
6.91
18.29
26.54
32.11
35.64
37.59
38.25
37.74
36.27
34.22
32.03
30.14
28.73
27.73
26.88
25.85
24.47
22.78
21
19.33
17.84
16.31
14.3
11.38
7.34
2.35
-3.09
-8.26
-12.63
-16.02
-18.71
-21.29
-24.49
-28.94
-34.9
-42.09
-49.56
-55.83
-59.11
-57.93
-51.55
-40.37
-25.87
-10.17
4.58
16.8
25.74
31.43
34.33
35.06
34.18
32.11
29.25
25.95
22.54
19.31
16.46
14.13
12.43
11.42
11.07
11.22
11.51
11.5
10.76
9.06
6.43
3.11
-0.52
-4.21
-7.83
-11.43
-15.14
-19.11
-23.6
-28.85
-35.04
-41.96
-48.84
-54.25
-56.42
-53.87
-45.99
-33.48
-18.16
-2.41
11.62
22.57
30.09
34.6
36.81
37.36
36.6
34.73
31.87
28.39
24.81
21.64
19.27
17.73
16.77
16.01
15.11
13.91
12.37
10.47
8.09
5.04
1.2
-3.39
-8.43
-13.47
-18.15
-22.31
-26.09
-29.92
-34.31
-39.74
-46.38
-53.81
-60.95
-66.13
-67.5
-63.68
-54.36
-40.5
-24.17
-7.78
6.69
18.14
26.46
32.13
35.78
37.86
38.6
38.14
36.69
34.57
32.11
29.62
27.23
25.03
23.02
21.22
19.58
17.99
16.27
14.23
11.73
8.73
5.25
1.35
-2.88
-7.34
-11.89
-16.39
-20.89
-25.58
-30.92
-37.32
-44.8
-52.65
-59.33
-62.89
-61.61
-54.72
-42.77
-27.53
-11.32
3.67
16.01
25.2
31.48
35.44
37.69
38.68
38.64
37.67
35.89
33.43
30.49
27.33
24.31
21.73
19.77
18.42
17.44
16.42
14.87
12.47
9.1
4.89
0.22
-4.5
-8.93
-12.92
-16.57
-20.18
-24.19
-29.08
-35.21
-42.49
-50.21
-56.93
-60.8
-60.07
-53.81
-42.33
-27.22
-10.87
4.38
16.89
26.08
32.27
36.22
38.62
39.82
39.86
38.77
36.72
34.13
31.47
29.1
27
24.83
22.12
18.56
14.21
9.44
4.79
0.66
-2.86
-5.97
-8.95
-11.97
-14.83
-17.12
-18.41
-18.56
-17.92
-17.31
-17.52
-18.81
-20.31
-20.09
-15.7
-5.2
11.9
34.09
58.25
80.51
97.46
106.9
108.21
101.96
89.38
71.82
50.53
26.61
1.11
-25.02
-51.14
-76.99
-102.57
-127.66
-151.36
-171.93
-187.18
-195.43
-196.31
-191.21
-182.79
-174.07
-167.35
-163.77
-163.45
-166.01
-171.08
-178.17
-186.42
-194.28
-199.73
-200.93
-197.03
-188.63
-177.34
-165.09
-153.09
-141.24
-128.15
-111.62
-89.19
-58.59
-18.33
31.35
87.41
143.75
192.23
225.08
237.88
231.32
210.74
183.45
155.54
129.78
105.66
81.23
55.44
29.27
5.2
-14.47
-29.11
-39.98
-49.19
-58.14
-66.55
-72.55
-73.55
-67.44
-53.5
-32.5
-6.38
22.39
51.19
77.45
98.9
113.79
121.33
122.2
118.59
113.42
109.36
107.82
108.66
110.72
112.76
114.32
115.98
118.84
123.57
129.79
135.99
140.06
140.33
136.17
128.13
117.48
105.55
93.14
80.51
67.61
54.43
41.21
28.4
16.5
5.98
-2.72
-9.13
-12.76
-13.19
-10.33
-4.45
3.74
13.23
22.9
31.65
38.56
43
44.72
43.8
40.62
35.63
29.27
21.9
13.92
5.85
-1.69
-8.15
-13.33
-17.54
-21.53
-26.21
-32.24
-39.71
-48.16
-56.77
-64.69
-71.36
-76.5
-80.16
-82.58
-84.2
-85.57
-87.19
-89.2
-91.03
-91.36
-88.34
-80.34
-66.63
-47.86
-26.03
-3.83
16.25
32.63
44.97
53.95
60.62
65.92
70.26
73.6
75.69
76.4
75.93
74.74
73.43
72.41
71.77
71.34
70.74
69.64
67.83
65.27
62
58.1
53.69
48.92
43.94
38.91
33.87
28.7
23.06
16.46
8.36
-1.54
-12.91
-24.59
-34.6
-40.62
-40.77
-34.44
-22.6
-7.66
7.38
20.02
29.01
34.51
37.61
39.51
40.95
42.05
42.58
42.45
41.98
41.81
42.52
44.24
46.57
48.61
49.43
48.4
45.41
40.74
34.94
28.57
22.09
15.87
10.18
5.14
0.68
-3.58
-8.29
-14.29
-22.45
-33.21
-46.22
-59.93
-71.78
-78.82
-78.74
-70.9
-56.77
-39.4
-22.32
-8.08
2.43
9.92
15.74
20.79
24.95
27.17
26.31
21.9
14.51
5.53
-3.51
-11.62
-18.68
-25.27
-32.21
-39.94
-48.25
-56.35
-63.27
-68.32
-71.43
-73.17
-74.48
-76.22
-78.92
-82.76
-87.67
-93.37
-99.34
-104.5
-107.21
-105.55
-97.91
-83.77
-64.13
-41.26
-17.89
3.66
22.18
37.49
50.02
60.11
67.69
72.35
73.8
72.29
68.67
64.24
60.19
57.28
55.56
54.51
53.34
51.33
48.11
43.63
38.08
31.69
24.62
16.97
8.83
0.38
-8.17
-16.73
-25.35
-34.31
-43.78
-53.51
-62.58
-69.44
-72.37
-70.2
-62.88
-51.67
-38.66
-26
-15.17
-6.54
0.32
6.16
11.53
16.57
21.08
24.8
27.68
29.82
31.43
32.59
33.3
33.49
33.2
32.63
32.01
31.5
30.94
29.94
27.97
24.61
19.79
13.79
7.16
0.53
-5.62
-11.14
-16.13
-21.06
-26.59
-33.35
-41.56
-50.63
-58.95
-64.2
-64.13
-57.38
-44.22
-26.58
-7.31
10.76
25.75
37.04
45
50.36
53.71
55.33
55.34
53.96
51.67
49.05
46.53
44.23
41.92
39.27
36.07
32.48
28.95
26
23.88
22.43
21.08
19.03
15.67
10.81
4.78
-1.73
-7.95
-13.34
-17.77
-21.55
-25.27
-29.66
-35.41
-42.87
-51.81
-61.2
-69.21
-73.56
-72.27
-64.41
-50.58
-32.86
-14.13
2.89
16.44
26.03
32.2
35.87
37.85
38.56
38.1
36.5
34
31.02
28.09
25.59
23.68
22.31
21.26
20.42
19.69
18.98
18.15
16.9
14.9
11.9
7.89
3.07
-2.16
-7.41
-12.36
-16.9
-21.17
-25.57
-30.72
-37.18
-45.01
-53.37
-60.4
-63.76
-61.4
-52.55
-38.24
-20.99
-3.93
10.34
20.48
26.65
29.89
31.43
31.99
31.71
30.33
27.62
23.75
19.35
15.28
12.29
10.74
10.44
10.81
11.13
10.85
9.71
7.74
5.18
2.25
-0.89
-4.17
-7.63
-11.32
-15.4
-20.09
-25.7
-32.52
-40.56
-49.26
-57.36
-62.99
-64.17
-59.56
-49.03
-33.92
-16.69
-0.14
13.48
23.1
28.81
31.55
32.48
32.48
31.96
30.91
29.18
26.7
23.66
20.54
17.88
16.11
15.37
15.37
15.58
15.37
14.3
12.22
9.25
5.62
1.54
-2.89
-7.63
-12.65
-17.91
-23.49
-29.61
-36.54
-44.52
-53.26
-61.76
-68.24
-70.64
-67.32
-57.79
-43.08
-25.51
-7.89
7.4
18.96
26.66
31.18
33.55
34.58
34.73
34.21
33.1
31.57
29.8
27.94
26.09
24.28
22.53
20.92
19.49
18.25
17.03
15.54
13.4
10.35
6.32
1.44
-3.93
-9.41
-14.74
-19.82
-24.83
-30.13
-36.17
-43.3
-51.4
-59.63
-66.39
-69.61
-67.47
-59.17
-45.43
-28.34
-10.72
4.9
16.99
25.34
30.63
33.9
35.9
36.97
37.12
36.31
34.7
32.59
30.33
28.13
26.1
24.2
22.46
20.98
19.83
18.98
18.21
17.07
15.09
12
7.8
2.83
-2.4
-7.48
-12.2
-16.65
-21.13
-26.16
-32.22
-39.64
-48.16
-56.74
-63.59
-66.52
-63.86
-55.13
-41.44
-25.18
-9.17
4.28
14.13
20.55
24.49
26.95
28.5
29.17
28.75
27.18
24.68
21.79
19.15
17.21
16.06
15.44
14.88
13.95
12.43
10.32
7.76
4.96
1.99
-1.2
-4.69
-8.54
-12.74
-17.24
-22.09
-27.48
-33.7
-40.81
-48.34
-55.11
-59.35
-59.29
-53.87
-43.29
-29.07
-13.56
0.86
12.57
21.02
26.58
30.02
31.99
32.76
32.31
30.56
27.65
24.06
20.48
17.6
15.82
15.13
15.12
15.15
14.59
13.07
10.53
7.21
3.45
-0.5
-4.55
-8.75
-13.23
-18.11
-23.5
-29.58
-36.55
-44.47
-53.03
-61.23
-67.49
-69.96
-67.09
-58.4
-44.71
-27.99
-10.79
4.59
16.72
25.26
30.78
34.21
36.44
37.9
38.67
38.56
37.45
35.4
32.71
29.79
27.06
24.75
22.92
21.46
20.14
18.71
16.89
14.47
11.31
7.43
2.96
-1.83
-6.65
-11.31
-15.76
-20.24
-25.17
-31.11
-38.45
-47.04
-55.99
-63.63
-67.87
-66.92
-59.97
-47.6
-31.72
-14.91
0.43
12.71
21.52
27.32
31
33.39
34.98
36.02
36.56
36.67
36.47
36.01
35.29
34.27
32.92
31.37
29.86
28.61
27.64
26.7
25.3
22.87
19.06
13.89
7.78
1.41
-4.5
-9.5
-13.55
-17.01
-20.6
-25.17
-31.46
-39.72
-49.4
-59.01
-66.37
-69.13
-65.65
-55.63
-40.37
-22.37
-4.52
10.84
22.49
30.4
35.22
37.83
38.89
38.81
37.82
36.18
34.24
32.27
30.5
28.97
27.6
26.33
25.09
23.91
22.77
21.56
20.08
18.02
15.09
11.13
6.26
0.82
-4.68
-9.76
-14.15
-17.88
-21.37
-25.28
-30.35
-37.04
-45.18
-53.68
-60.66
-63.91
-61.69
-53.46
-40.23
-24.3
-8.41
5.14
15.21
21.85
25.9
28.31
29.69
30.15
29.53
27.79
25.24
22.47
20.21
18.92
18.66
19.05
19.51
19.5
18.7
17.05
14.65
11.7
8.32
4.64
0.7
-3.46
-7.85
-12.55
-17.7
-23.56
-30.31
-37.99
-46.26
-54.17
-60.21
-62.62
-59.97
-51.74
-38.76
-23
-7.01
6.94
17.48
24.45
28.5
30.65
31.69
32
31.61
30.43
28.54
26.22
23.96
22.22
21.26
21.02
21.12
20.99
20.03
17.88
14.46
10.05
5.08
0.02
-4.82
-9.39
-13.82
-18.39
-23.47
-29.41
-36.45
-44.58
-53.26
-61.27
-66.89
-68.24
-64.01
-54.08
-39.67
-23.05
-6.82
6.97
17.29
24.24
28.62
31.37
33.18
34.3
34.65
34.13
32.76
30.79
28.61
26.6
25.02
23.91
23.15
22.5
21.66
20.37
18.45
15.79
12.4
8.36
3.76
-1.3
-6.75
-12.56
-18.68
-25.16
-32.09
-39.69
-47.92
-56.31
-63.67
-68.18
-67.96
-61.8
-49.84
-33.62
-15.68
1.35
15.54
26.12
33.34
38
40.94
42.73
43.67
43.9
43.54
42.75
41.6
40.13
38.31
36.16
33.85
31.62
29.75
28.31
27.1
25.64
23.33
19.73
14.72
8.58
1.88
-4.8
-11.04
-16.79
-22.3
-28.06
-34.64
-42.47
-51.53
-61.07
-69.58
-75.02
-75.4
-69.52
-57.49
-40.9
-22.28
-4.37
10.8
22.26
30.14
35.22
38.38
40.25
41.12
41.06
40.15
38.58
36.65
34.68
32.93
31.53
30.45
29.56
28.71
27.72
26.44
24.69
22.28
19.02
14.83
9.8
4.27
-1.35
-6.68
-11.64
-16.43
-21.65
-27.95
-35.73
-44.78
-54.01
-61.56
-65.25
-63.34
-55.2
-41.73
-25.12
-8.2
6.54
17.68
25.07
29.47
31.93
33.15
33.33
32.31
30.05
26.83
23.37
20.47
18.72
18.2
18.48
18.84
18.62
17.46
15.34
12.47
9.11
5.41
1.45
-2.77
-7.24
-11.94
-16.9
-22.29
-28.39
-35.54
-43.76
-52.53
-60.63
-66.18
-67.29
-62.63
-52.12
-37.04
-19.77
-2.94
11.35
22.02
29.13
33.44
35.93
37.36
38.14
38.4
38.16
37.45
36.38
35.09
33.78
32.6
31.59
30.69
29.67
28.21
25.99
22.85
18.81
14.08
8.92
3.54
-1.93
-7.49
-13.18
-19.08
-25.35
-32.24
-40.02
-48.68
-57.67
-65.66
-70.69
-70.83
-64.86
-52.94
-36.69
-18.71
-1.72
12.34
22.73
29.8
34.52
37.85
40.3
41.98
42.73
42.49
41.39
39.72
37.8
35.81
33.81
31.8
29.83
28.07
26.61
25.37
23.96
21.75
18.2
13.16
6.97
0.36
-5.88
-11.25
-15.74
-19.85
-24.31
-29.86
-36.98
-45.58
-54.86
-63.23
-68.63
-69.05
-63.29
-51.58
-35.59
-18
-1.52
11.94
21.73
28.29
32.58
35.5
37.49
38.67
39.07
38.83
38.28
37.7
37.17
36.53
35.52
34
32.13
30.33
29.1
28.67
28.84
28.92
27.99
25.3
20.58
14.25
7.18
0.38
-5.44
-10.08
-13.95
-17.82
-22.56
-28.8
-36.61
-45.3
-53.4
-58.89
-59.75
-54.63
-43.47
-27.63
-9.61
7.83
22.42
33
39.6
43.03
44.38
44.5
43.86
42.58
40.68
38.23
35.48
32.8
30.48
28.65
27.23
25.96
24.53
22.68
20.25
17.14
13.31
8.78
3.61
-2.04
-7.95
-13.92
-19.76
-25.5
-31.32
-37.61
-44.75
-52.91
-61.6
-69.65
-75.25
-76.53
-72.26
-62.38
-48.21
-31.97
-16.1
-2.46
8.05
15.43
20.23
23.07
24.38
24.39
23.2
21.03
18.21
15.21
12.47
10.31
8.81
7.82
7.08
6.27
5.09
3.28
0.56
-3.21
-8.05
-13.69
-19.55
-24.91
-29.08
-31.74
-32.97
-33.3
-33.47
-34.2
-35.99
-38.83
-42.11
-44.58
-44.68
-40.92
-32.49
-19.6
-3.52
13.84
30.41
44.64
55.73
63.62
68.76
71.76
73.24
73.76
73.71
73.33
72.61
71.28
68.91
65.04
59.35
51.8
42.66
32.37
21.4
9.99
-1.91
-14.62
-28.48
-43.59
-59.62
-75.7
-90.68
-103.49
-113.5
-120.79
-126.2
-130.97
-136.27
-142.52
-148.95
-153.54
-153.4
-145.62
-128.29
-101.25
-66.32
-26.95
12.75
49.05
79.43
102.76
119.21
129.66
135.31
137.4
137.09
135.52
133.69
132.3
131.52
131.01
129.94
127.41
122.82
116.15
107.93
99.06
90.39
82.33
74.65
66.36
55.98
41.94
23.15
-0.54
-28.15
-57.74
-87.07
-114.32
-138.81
-161.06
-182.38
-203.74
-224.72
-242.8
-253.72
-252.62
-235.57
-201.06
-150.64
-88.94
-22.73
40.43
93.78
132.65
155.27
162.8
158.61
147.11
132.52
118
105.4
95.5
88.37
83.72
80.95
79.23
77.69
75.76
73.49
71.6
71.18
73.18
77.89
84.74
92.39
99.21
103.71
104.96
102.7
97.25
89.23
79.19
67.39
53.71
37.8
19.47
-0.99
-22.53
-43.28
-60.92
-73.29
-79.02
-78.01
-71.45
-61.49
-50.55
-40.54
-32.5
-26.44
-21.78
-17.86
-14.3
-11.19
-8.87
-7.55
-7.1
-6.98
-6.47
-4.97
-2.2
1.75
6.43
11.2
15.21
17.51
17.15
13.51
6.53
-3.1
-14.2
-25.44
-35.79
-44.86
-52.86
-60.38
-67.92
-75.57
-82.74
-88.23
-90.48
-88.09
-80.33
-67.46
-50.84
-32.6
-14.97
0.28
12.29
21.05
27.05
30.87
32.94
33.49
32.74
31.02
28.87
26.88
25.53
24.95
24.94
24.95
24.35
22.63
19.52
15.08
9.67
3.7
-2.41
-8.45
-14.41
-20.42
-26.67
-33.35
-40.69
-48.93
-58.26
-68.48
-78.69
-87.12
-91.43
-89.39
-79.8
-63.14
-41.59
-18.44
3.03
20.52
33.16
41.4
46.36
49.2
50.62
50.79
49.59
46.93
42.94
38.1
33.1
28.52
24.74
21.74
19.2
16.61
13.53
9.71
5.16
0.06
-5.32
-10.76
-16.14
-21.45
-26.75
-32.16
-37.88
-44.21
-51.55
-60.14
-69.73
-79.22
-86.57
-89.25
-85.03
-72.95
-53.89
-30.45
-6.15
15.73
33.05
45.14
52.54
56.25
57.23
56.13
53.41
49.55
45.15
40.8
36.8
33.07
29.25
25.05
20.47
15.94
12
9.02
6.89
5.02
2.56
-1.19
-6.48
-13.04
-20.22
-27.3
-33.73
-39.42
-44.72
-50.35
-57.07
-65.2
-74.23
-82.54
-87.73
-87.25
-79.41
-64.16
-43.33
-20.15
1.81
19.8
32.59
40.53
44.93
47.17
48.06
47.72
45.86
42.31
