-224.6
-185.55
-145.69
-107.93
-74.51
-46.61
-24.61
-8.66
1.33
6.22
8.28
11.13
18.57
32.62
52.08
72.53
88.13
94.2
89.22
75.33
57.07
39.41
26.28
19.91
21.2
30.19
46.47
68.97
95.7
123.73
149.64
170.35
184.03
190.58
191.36
188.54
184.02
178.75
172.55
164.56
153.99
140.62
124.93
107.68
89.34
69.93
49.17
27.09
4.29
-18.05
-38.82
-57.66
-75.2
-92.64
-110.76
-129
-145.14
-155.88
-158
-149.78
-131.69
-106.3
-77.24
-47.9
-20.58
3.78
25.03
43.12
57.66
68.03
73.91
75.79
75.15
74.11
74.74
78.54
86.14
97.57
112.61
131.05
152.46
175.7
198.29
216.27
225.1
221.21
203.96
176.65
145.98
119.93
104.98
103.8
114.68
132.79
152.49
169.37
181.05
186.78
186.41
179.8
166.89
148.34
125.93
102.32
80.03
60.53
43.65
28.01
11.89
-5.86
-25.38
-46
-66.76
-86.96
-106.28
-124.67
-141.92
-157.36
-169.67
-177.04
-177.67
-170.49
-155.74
-135.27
-112.08
-89.43
-69.82
-54.47
-43.38
-36.1
-32.45
-32.82
-37.81
-47.55
-61.03
-76.09
-89.74
-99.08
-102.13
-98.4
-88.99
-76.26
-63.25
-53.03
-48.12
-50.13
-59.45
-75
-94.16
-113.18
-127.91
-135.01
-132.97
-122.65
-106.79
-88.98
-72.32
-58.5
-47.75
-39.4
-32.61
-26.93
-22.42
-19.32
-17.65
-17
-16.42
-14.81
-11.22
-5.27
2.77
12.02
21.27
29.21
34.67
36.73
34.83
29.14
20.87
12.5
7.49
9.44
20.96
42.66
72.78
107.67
142.89
174.44
199.6
217.16
227.02
229.65
225.65
215.65
200.6
181.97
161.72
141.89
124.06
108.82
95.72
83.7
71.84
59.98
48.91
39.9
33.86
30.64
28.93
26.78
22.61
16.12
8.48
2
-0.9
1.33
8.75
19.91
32.39
43.62
51.66
55.58
55.52
52.26
46.72
39.54
30.85
20.41
7.86
-6.97
-23.88
-42.26
-61.12
-79.33
-95.84
-110.01
-121.71
-131.45
-140.09
-148.71
-158.24
-169.44
-182.59
-197.31
-212.32
-225.39
-233.79
-235.06
-227.94
-212.86
-191.71
-167.03
-140.98
-114.78
-88.8
-63.24
-38.76
-16.7
1.36
14.4
22.46
26.66
28.68
29.92
31.07
31.99
32.19
31.29
29.38
26.92
24.41
21.89
18.77
13.95
6.3
-4.68
-18.3
-32.57
-44.49
-50.92
-49.54
-39.71
-22.73
-1.44
20.69
40.64
56.53
67.78
74.75
78.1
78.36
75.82
70.71
63.51
55.07
46.53
38.9
32.73
27.89
23.72
19.36
14.28
8.46
2.34
-3.6
-9.31
-15.39
-22.85
-32.39
-43.62
-54.77
-63.07
-65.72
-61.04
-49.15
-31.84
-11.93
7.68
24.67
37.54
45.51
48.4
46.58
41.08
33.41
25.37
18.49
13.62
10.87
9.75
9.63
10.06
10.9
12.19
14.03
16.38
19.02
21.49
23.1
22.94
20.02
13.6
3.73
-8.36
-20.24
-28.94
-31.92
-28.18
-18.76
-6.35
5.77
14.94
19.94
21.09
19.47
16.22
11.96
6.8
0.72
-6.04
-12.87
-19.05
-23.93
-27.16
-28.58
-28.18
-26.13
-22.79
-18.84
-15.15
-12.53
-11.57
-12.52
-15.43
-20.18
-26.4
-33.12
-38.61
-40.5
-36.56
-25.65
-8.54
12.11
32.63
49.56
60.93
66.58
67.71
65.87
62.07
56.42
48.54
38.26
26.16
13.63
2.25
-6.89
-13.76
-19.28
-24.69
-30.84
-37.87
-45.28
-52.47
-59.31
-66.22
-73.8
-82
-89.57
-94.14
-93
-84.52
-69.17
-49.72
-30.3
-14.86
-5.56
-2.08
-2.09
-2.52
-1.05
2.97
8.51
13.63
16.5
16.3
13.55
9.95
7.82
9.15
14.89
24.38
35.57
45.69
52.25
53.91
50.61
43.33
33.31
21.61
9.1
-3.17
-13.44
-19.44
-19.01
-11.25
2.84
20.46
38.01
52.57
63.02
70.21
76.16
82.82
91
100.16
108.89
115.85
120.48
123.13
124.62
125.62
126.14
125.58
123.17
118.57
112.17
105.05
98.45
93.11
88.8
84.38
78.28
69.37
57.63
44.31
31.59
21.64
15.83
14.27
15.97
19.39
23.1
26.19
28.15
28.7
27.73
25.44
22.51
20.17
19.8
22.12
26.77
32.07
35.68
35.43
30.17
19.94
5.67
-11.49
-30.68
-51.36
-73.12
-95.38
-117.34
-138.13
-157.13
-174.04
-188.79
-201.32
-211.48
-218.94
-223.35
-224.32
-221.48
-214.35
-202.5
-185.8
-164.7
-140.38
-114.59
-89.22
-65.83
-45.45
-28.51
-15.13
-5.24
1.28
4.72
5.56
4.44
1.96
-1.49
-5.81
-11.21
-18.05
-26.82
-37.88
-51.19
-65.86
-79.91
-90.37
-94.1
-88.83
-74.21
-52.01
-25.65
1.1
25.28
45.43
61.33
73.41
82.01
87.14
88.68
86.79
82.25
76.25
70.06
64.44
59.5
54.74
49.51
43.43
36.6
29.55
22.92
17.05
11.7
6.09
-0.89
-10.15
-21.95
-35.53
-48.99
-59.66
-64.79
-62.48
-52.35
-35.83
-15.7
4.82
23.08
37.69
48.46
55.95
60.75
63.14
63.08
60.61
56.2
50.81
45.54
41.17
37.78
34.8
31.41
27.03
21.71
16.06
10.94
6.93
3.96
1.32
-2.14
-7.45
-15.25
-25.44
-37.14
-48.67
-57.79
-62.26
-60.38
-51.63
-36.99
-18.63
0.69
18.6
33.72
45.73
54.91
61.54
65.5
66.37
63.94
58.65
51.69
44.56
38.43
33.63
29.67
25.56
20.52
14.4
7.81
1.71
-3.09
-6.42
-8.92
-11.79
-16.35
-23.65
-34.02
-46.88
-60.73
-73.31
-82.05
-84.7
-80.09
-68.53
-51.82
-32.7
-13.92
2.51
15.72
25.74
32.95
37.56
39.46
38.44
34.66
28.9
22.5
16.84
12.82
10.47
8.99
7.15
3.9
-1.12
-7.5
-14.28
-20.49
-25.68
-30.15
-34.88
-41.14
-50.02
-61.96
-76.51
-92.26
-106.97
-118.08
-123.3
-121.38
-112.51
-98.33
-81.45
-64.55
-49.59
-37.35
-27.56
-19.54
-12.79
-7.32
-3.51
-1.63
-1.44
-2.08
-2.42
-1.64
0.34
2.81
4.6
4.67
2.59
-1.29
-6.17
-11.28
-16.31
-21.64
-28.18
-36.98
-48.81
-63.83
-81.34
-99.76
-116.71
-129.42
-135.27
-132.49
-120.68
-100.93
-75.56
-47.48
-19.45
6.42
28.91
47.6
62.59
74.19
82.9
89.31
94.21
98.42
102.62
107.17
111.89
116.16
119.13
120.15
119.15
116.84
114.43
113.24
114.05
116.75
120.31
123.12
123.51
120.43
113.86
105.03
96.26
90.4
90.08
96.97
111.14
130.98
153.52
175.1
192.19
202.07
203.06
194.77
177.86
154.03
125.7
95.77
67.17
42.4
23.1
9.83
2.05
-1.59
-2.96
-4.05
-6.71
-12.3
-21.53
-34.39
-50.17
-67.68
-85.7
-103.29
-120.08
-136.32
-152.7
-169.9
-188.05
-206.3
-222.69
-234.55
-239.18
-234.78
-221.06
-199.38
-172.21
-142.31
-111.97
-82.64
-55.1
-29.95
-8.01
9.69
22.15
28.94
30.46
28.03
23.44
18.54
14.76
12.78
12.57
13.52
14.75
15.35
14.6
11.92
6.93
-0.49
-10.01
-20.52
-30.09
-36.27
-36.93
-31.01
-19.13
-3.45
13.1
27.86
39.21
46.78
51.06
52.81
52.57
50.53
46.76
41.5
35.23
28.56
21.95
15.54
9.19
2.69
-3.97
-10.55
-16.7
-22.21
-27.22
-32.2
-37.73
-44.12
-51.19
-58.13
-63.71
-66.57
-65.62
-60.44
-51.45
-39.82
-27.14
-14.89
-3.98
5.45
13.85
21.73
29.23
35.88
40.84
43.27
42.9
40.11
35.81
31.08
26.68
22.95
19.7
16.54
13.06
9.01
4.3
-1.2
-7.74
-15.7
-25.19
-35.65
-45.71
-53.3
-56.47
-54.12
-46.6
-35.67
-23.73
-12.97
-4.57
1.38
5.55
8.65
11.05
12.63
13.08
12.17
10.07
7.31
4.69
2.89
2.33
3.04
4.66
6.75
8.89
10.8
12.29
12.96
12.24
9.41
4.09
-3.29
-11.34
-17.97
-21.11
-19.47
-13.16
-3.5
7.48
17.85
26.32
32.42
36.26
38.03
37.88
35.7
31.44
25.3
17.73
9.4
0.96
-7.13
-14.73
-21.81
-28.43
-34.57
-40.09
-44.96
-49.29
-53.54
-58.38
-64.42
-71.76
-79.68
-86.6
-90.44
-89.26
-81.95
-68.58
-50.36
-29.3
-7.54
13.03
31.11
45.94
57.22
64.93
69.27
70.59
69.36
66.11
61.4
55.72
49.55
43.29
37.29
31.84
27.09
23
19.37
15.8
11.71
6.49
-0.46
-9.41
-20.08
-31.43
-41.68
-48.7
-50.63
-46.55
-36.94
-23.54
-8.75
5.24
17.06
26.38
33.54
39.06
43.2
45.88
46.96
46.52
44.96
42.86
40.65
38.42
35.89
32.75
28.89
24.56
20.27
16.47
13.24
10.28
6.87
2.28
-4.13
-12.52
-22.45
-32.74
-41.61
-47.05
-47.39
-41.95
-31.33
-17.24
-1.83
12.95
26.01
37.03
46.17
53.52
58.84
61.73
61.92
59.62
55.58
50.84
46.29
42.4
39.08
35.83
32.13
27.69
22.63
17.41
12.53
8.26
4.44
0.47
-4.46
-11.1
-19.85
-30.41
-41.74
-52.08
-59.32
-61.58
-57.85
-48.36
-34.58
-18.68
-2.84
11.41
23.4
33.13
40.75
46.23
49.3
49.75
47.73
43.95
39.49
35.41
32.34
30.25
28.58
26.55
23.59
19.59
14.89
10.12
5.79
2.1
-1.24
-4.85
-9.48
-15.74
-23.85
-33.41
-43.35
-52.03
-57.56
-58.39
-53.81
-44.24
-31.15
-16.55
-2.27
10.46
21.14
29.75
36.34
40.78
42.83
42.41
39.93
36.28
32.57
29.65
27.75
26.48
25.01
22.64
19.12
14.79
10.32
6.38
3.23
0.61
-2.19
-6.01
-11.51
-18.99
-28.16
-38.14
-47.51
-54.48
-57.35
-55.04
-47.45
-35.61
-21.38
-6.82
6.45
17.53
26.26
32.8
37.29
39.68
39.85
37.9
34.34
30.05
25.96
22.72
20.44
18.75
17
14.67
11.53
7.77
3.84
0.18
-3.04
-6.08
-9.52
-14.12
-20.47
-28.67
-38.15
-47.57
-55.13
-58.93
-57.65
-50.98
-39.84
-26
-11.54
1.81
13.05
21.86
28.31
32.49
34.37
33.98
31.6
27.93
23.92
20.44
17.9
16.13
14.56
12.56
9.78
6.33
2.67
-0.68
-3.41
-5.63
-7.83
-10.77
-15.11
-21.28
-29.17
-37.98
-46.29
-52.3
-54.29
-51.21
-43.07
-30.97
-16.79
-2.6
9.99
20.07
27.42
32.14
34.45
34.47
32.44
28.79
24.27
19.75
15.94
13.11
11.07
9.31
7.31
4.79
1.81
-1.37
-4.45
-7.32
-10.07
-13.06
-16.78
-21.71
-28.18
-35.95
-44.15
-51.17
-55.11
-54.38
-48.37
-37.78
-24.36
-10.34
2.42
12.85
20.75
26.41
30.16
32.09
32.13
30.26
26.82
22.53
18.27
14.75
12.22
10.41
8.74
6.67
4.02
0.98
-2.02
-4.64
-6.95
-9.39
-12.72
-17.6
-24.31
-32.48
-41.03
-48.35
-52.65
-52.48
-47.21
-37.36
-24.41
-10.41
2.7
13.63
21.91
27.68
31.32
33.09
33.04
31.2
27.83
23.56
19.19
15.44
12.66
10.69
9.07
7.26
5.05
2.52
0.04
-2.12
-3.98
-5.92
-8.62
-12.76
-18.83
-26.76
-35.87
-44.72
-51.47
-54.24
-51.81
-44.05
-32.1
-18.01
-4.03
8.13
17.67
24.64
29.51
32.63
34.08
33.76
31.72
28.4
24.59
21.12
18.42
16.43
14.6
12.31
9.23
5.51
1.64
-1.81
-4.62
-7.02
-9.62
-13.15
-18.15
-24.72
-32.39
-40.14
-46.49
-49.85
-48.97
-43.3
-33.36
-20.55
-6.8
6.1
16.92
25.2
31
34.54
35.98
35.35
32.81
28.77
23.98
19.3
15.34
12.28
9.8
7.37
4.59
1.38
-1.98
-5.05
-7.53
-9.48
-11.32
-13.76
-17.53
-23.13
-30.55
-39.05
-47.2
-53.04
-54.73
-51.14
-42.41
-29.9
-15.79
-2.29
9.04
17.61
23.65
27.73
30.28
31.35
30.79
28.54
24.94
20.72
16.73
13.58
11.37
9.67
7.83
5.33
2.07
-1.6
-5.17
-8.34
-11.23
-14.46
-18.73
-24.57
-31.88
-39.87
-47.11
-51.87
-52.63
-48.59
-39.92
-27.74
-13.79
0.07
12.41
22.4
29.83
34.79
37.43
37.9
36.36
33.23
29.17
25.03
21.49
18.84
16.88
15.12
13.03
10.38
7.31
4.23
1.54
-0.66
-2.65
-5.04
-8.54
-13.66
-20.48
-28.51
-36.65
-43.32
-46.86
-45.96
-40.16
-30.1
-17.39
-4.04
8.11
17.96
25.2
30.09
33.05
34.32
33.93
31.9
28.54
24.46
20.47
17.2
14.87
13.18
11.57
9.53
6.88
3.77
0.62
-2.27
-4.9
-7.6
-11.03
-15.8
-22.26
-30.15
-38.56
-45.93
-50.48
-50.67
-45.8
-36.31
-23.67
-9.94
2.9
13.52
21.42
26.81
30.15
31.89
32.19
31.14
28.85
25.62
21.97
18.4
15.25
12.59
10.24
7.87
5.31
2.49
-0.45
-3.38
-6.31
-9.45
-13.26
-18.27
-24.79
-32.61
-40.73
-47.48
-50.9
-49.42
-42.53
-31.06
-16.94
-2.57
10.02
19.63
26.07
29.79
31.42
31.39
29.93
27.2
23.51
19.41
15.52
12.28
9.82
7.89
6.07
4
1.59
-1.02
-3.59
-6.04
-8.56
-11.65
-15.96
-21.97
-29.65
-38.3
-46.45
-52.16
-53.59
-49.7
-40.64
-27.88
-13.64
-0.21
10.85
18.96
24.38
27.77
29.66
30.36
29.9
28.38
26.03
23.24
20.33
17.47
14.58
11.52
8.25
4.9
1.73
-1.04
-3.4
-5.6
-8.21
-11.85
-17.06
-24.01
-32.32
-40.9
-48.07
-51.94
-50.98
-44.63
-33.6
-19.7
-5.25
7.73
18.06
25.56
30.75
34.28
36.59
37.7
37.54
36.12
33.66
30.63
27.43
24.26
21.07
17.68
13.94
9.92
5.87
2.14
-1.02
-3.68
-6.29
-9.59
-14.42
-21.28
-30.02
-39.51
-47.82
-52.63
-52.13
-45.64
-34.01
-19.35
-4.23
9.19
19.73
27.31
32.53
36.07
38.29
39.21
38.66
36.62
33.36
29.34
25.06
20.87
16.99
13.53
10.69
8.66
7.63
7.65
8.47
9.59
10.33
9.93
7.8
3.7
-1.99
-8.13
-12.91
-14.38
-11.07
-2.7
9.71
24.12
38.25
50.27
59.18
64.72
66.93
65.85
61.43
53.76
43.43
31.52
19.46
8.44
-0.94
-8.78
-15.69
-22.33
-28.99
-35.48
-41.34
-46.17
-49.97
-53.23
-56.71
-61.14
-66.93
-73.98
-81.65
-88.89
-94.29
-96.41
-94.12
-87.03
-75.7
-61.56
-46.43
-31.98
-19.2
-8.4
0.59
7.97
13.76
17.78
19.98
20.66
20.49
20.32
20.73
21.78
23.01
23.69
23.25
21.56
19.03
16.33
14.05
12.41
11.13
9.55
6.89
2.59
-3.55
-11.14
-19.18
-26.2
-30.51
-30.67
-25.98
-16.83
-4.6
8.76
21.36
31.93
40.04
45.84
49.69
51.83
52.29
51.12
48.63
45.5
42.54
40.33
38.91
37.74
36.01
33.08
28.9
24.08
19.5
15.92
13.52
11.78
9.76
6.5
1.43
-5.45
-13.55
-21.81
-28.91
-33.45
-34.23
-30.59
-22.6
-11.1
2.55
16.83
30.46
42.46
52.05
58.57
61.48
60.63
56.6
50.79
45.18
41.73
41.63
44.9
50.22
55.27
57.25
53.77
43.61
27.24
6.89
-14.28
-33.35
-48.82
-61.13
-71.96
-82.77
-93.22
-100.61
-100.59
-88.82
-62.97
-23.91
24.14
74.6
120.16
154.57
174.01
177.92
168.86
151.49
130.97
111.38
94.87
81.83
71.81
64.43
59.67
57.29
56.11
53.76
47.37
34.82
15.75
-8.35
-35
-61.96
-88.03
-112.9
-136.47
-158.11
-176.5
-190.14
-198.02
-199.83
-195.77
-186.11
-170.93
-150.44
-125.45
-97.68
-69.47
-43.1
-20.05
-0.81
14.84
27.19
36.27
41.98
44.56
44.88
44.27
44
44.52
45.34
45.37
43.67
40.11
35.34
30.39
25.99
22.24
18.66
14.54
9.28
2.51
-5.84
-15.5
-25.78
-35.31
-42.2
-44.52
-41.02
-31.88
-18.77
-4.4
8.47
17.94
23.4
25.43
25.21
23.86
22.09
20.21
18.28
16.46
15.02
14.21
14.03
14.04
13.45
11.45
7.6
2.12
-4.15
-10.04
-14.61
-17.45
-18.81
-19.38
-19.8
-20.26
-20.34
-19.12
-15.58
-9.04
0.49
12.24
24.9
36.99
47.33
55.24
60.58
63.61
64.81
64.77
64.01
63.02
62.13
61.49
61.03
60.53
59.79
58.74
57.6
56.77
56.65
57.36
58.59
59.52
59
55.9
49.55
40.13
28.84
17.86
9.76
6.8
10.12
19.12
31.36
43.06
50.23
49.89
41.24
25.98
7.75
-9.28
-21.96
-29.36
-32.88
-35.45
-40.11
-48.82
-61.9
-78.38
-96.74
-115.71
-134.51
-152.61
-169.33
-183.64
-194.45
-200.99
-203.21
-201.6
-196.83
-189.13
-178.11
-163.11
-143.72
-120.45
-94.95
-69.63
-46.98
-28.83
-15.86
-7.65
-3.13
-1.16
-0.95
-2.19
-4.89
-9
-14.23
-19.94
-25.36
-29.88
-33.22
-35.42
-36.72
-37.33
-37.48
-37.5
-38.01
-39.73
-43.19
-48.24
-53.79
-57.96
-58.66
-54.42
-45
-31.54
-16.17
-1.24
11.41
20.86
27.15
30.82
32.52
32.61
31.14
28.1
23.78
18.99
15.01
13.16
14.35
18.65
25.28
32.97
40.44
46.78
51.52
54.43
55.29
53.89
50.33
45.33
40.34
37.22
37.51
41.84
49.65
59.48
69.64
78.77
86.24
91.97
96.14
98.83
99.88
98.9
95.53
89.57
81.08
70.43
58.2
45.08
31.79
19.05
7.5
-2.38
-10.4
-16.9
-22.79
-29.34
-37.77
-48.56
-60.96
-73.03
-82.26
-86.53
-84.97
-78.24
-68.24
-57.19
-46.84
-37.99
-30.65
-24.4
-18.92
-14.24
-10.65
-8.45
-7.74
-8.31
-9.78
-11.76
-14.05
-16.59
-19.42
-22.48
-25.54
-28.27
-30.44
-32.12
-33.84
-36.46
-40.81
-47.16
-54.84
-62.18
-67.03
-67.48
-62.64
-53.02
-40.32
-26.76
-14.34
-4.27
3.16
8.27
11.59
13.5
14.19
13.75
12.37
10.29
7.85
5.29
2.67
-0.05
-3.02
-6.32
-9.98
-13.99
-18.31
-23
-28.18
-34.07
-40.87
-48.63
-56.97
-64.89
-70.68
-72.3
-67.97
-56.94
-39.92
-18.97
3.12
23.74
41.18
54.82
64.86
71.75
75.84
77.31
76.42
73.75
70.19
66.64
63.67
61.22
58.74
55.51
51.1
45.58
39.54
33.66
28.45
23.9
19.47
14.35
7.77
-0.64
-10.66
-21.22
-30.64
-36.92
-38.32
-34.01
-24.35
-10.94
3.94
18.1
30.04
39.21
45.79
50.13
52.33
52.22
49.62
44.78
38.58
32.37
27.4
24.29
22.8
21.95
20.59
17.94
13.95
9.21
4.61
0.86
-1.9
-4.07
-6.51
-10.17
-15.83
-23.81
-33.74
-44.47
-54.09
-60.37
-61.3
-55.85
-44.4
-28.71
-11.36
5.09
18.78
28.96
35.8
39.9
41.86
42.14
41
38.81
36.01
33.14
30.65
28.8
27.55
26.71
26.01
25.22
24.26
23.13
21.86
20.37
18.36
15.27
10.42
3.34
-5.84
-16.1
-25.59
-32.11
-33.75
-29.56
-19.79
-5.86
10.19
26.31
40.91
53.06
62.44
69.07
73.05
74.54
73.84
71.54
68.58
65.9
63.97
62.49
60.35
56.11
48.75
38.37
26.35
14.92
6.2
1.32
-0.08
0.4
0.7
-0.59
-3.52
-6.63
-7.59
-4.28
4.25
17.35
33.16
49.53
64.85
78.44
90.17
99.89
107.03
110.71
110.22
105.5
97.33
86.87
75.2
62.89
50.06
36.65
22.75
8.63
-5.46
-19.49
-33.78
-48.83
-65.13
-82.99
-102.51
-123.65
-146.04
-168.75
-190.01
-207.24
-217.6
-218.92
-210.58
-193.92
-171.95
-148.32
-126.2
-107.53
-92.8
-81.53
-72.9
-66.2
-61.01
-57.02
-53.82
-50.82
-47.3
-42.66
-36.55
-29.01
-20.34
-11
-1.38
8.25
17.71
26.77
35.04
41.92
46.64
48.62
47.59
43.85
38.32
32.36
27.48
24.99
25.6
29.17
34.77
41
46.52
50.56
53.16
54.96
56.74
58.93
61.35
63.38
64.4
64.16
62.94
61.43
60.26
59.71
59.59
59.45
58.92
58.07
57.48
58.01
60.32
64.39
69.29
73.29
74.32
70.59
61.12
46.05
26.6
4.94
-16.24
-34.21
-46.74
-52.57
-51.73
-45.47
-35.91
-25.33
-15.68
-8.23
-3.58
-1.93
-3.24
-7.32
-13.75
-21.76
-30.21
-37.85
-43.66
-47.21
-48.81
-49.35
-49.9
-51.27
-53.63
-56.49
-58.92
-60.02
-59.29
-56.82
-53.17
-49.06
-45.11
-41.67
-38.86
-36.52
-34.2
-31.02
-25.74
-17.06
-4.18
12.63
31.83
51.04
67.88
80.86
89.81
95.61
99.37
101.67
102.23
100.3
95.26
87.26
77.28
66.71
56.69
47.64
39.26
30.94
22.28
13.44
5.08
-2.03
-7.51
-11.6
-15.15
-19.22
-24.63
-31.71
-40.2
-49.37
-58.18
-65.42
-69.77
-70.05
-65.48
-56.03
-42.61
-26.87
-10.77
3.95
16.18
25.46
31.79
35.3
36.11
34.43
30.82
26.28
22.16
19.63
19.22
20.46
22.03
22.31
20.1
15.22
8.57
1.69
-4.01
-7.9
-10.34
-12.44
-15.4
-20.03
-26.38
-33.79
-41.09
-46.85
-49.71
-48.65
-43.29
-34.06
-22.15
-9.19
3.22
13.97
22.58
29.06
33.6
36.29
37.12
36.14
33.79
30.83
28.25
26.74
26.38
26.57
26.37
24.96
22.08
18.2
14.2
10.94
8.76
7.38
5.98
3.46
-1.32
-9.3
-20.91
-35.74
-52.16
-67.44
-78.32
-82.09
-77.59
-65.67
-48.89
-30.47
-13.13
1.55
13.15
21.84
27.78
30.94
31.22
28.83
24.5
19.33
14.35
10.18
6.88
4.04
1.18
-1.99
-5.48
-9.09
-12.62
-16.1
-19.87
-24.54
-30.81
-39.12
-49.28
-60.15
-69.8
-75.83
-76.22
-70.13
-58.26
-42.78
-26.5
-11.98
-0.75
6.91
11.62
14.29
15.59
15.74
14.58
11.98
8.02
3.11
-2.16
-7.28
-11.98
-16.28
-20.39
-24.49
-28.65
-32.87
-37.13
-41.66
-46.93
-53.56
-61.92
-71.7
-81.67
-89.8
-93.87
-92.21
-84.42
-71.66
-56.2
-40.62
-27.02
-16.49
-9.06
-4.13
-0.92
1.25
2.81
4.05
5.17
6.37
7.74
9.33
11.09
12.93
14.7
16.2
17.18
17.43
16.72
14.93
11.9
7.5
1.67
-5.29
-12.5
-18.39
-21.05
-18.84
-11.14
1.29
16.41
31.67
44.79
54.49
60.56
63.62
64.48
63.77
61.78
58.55
54.19
48.96
43.28
37.65
32.46
27.89
23.94
20.44
17.12
13.67
9.81
5.24
-0.33
-7.23
-15.68
-25.48
-35.78
-45
-51.03
-51.94
-46.74
-35.89
-21.28
-5.62
8.51
19.42
26.7
30.92
33.04
33.87
33.8
32.82
30.8
27.77
23.92
19.64
15.31
11.23
7.47
3.96
0.54
-2.99
-6.78
-10.98
-15.77
-21.46
-28.39
-36.72
-46.01
-54.99
-61.65
-63.79
-59.85
-49.64
-34.59
-17.33
-0.74
12.97
22.84
29.09
32.6
34.27
34.61
33.73
31.61
28.36
24.34
20.07
15.99
12.31
8.98
5.8
2.55
-0.9
-4.59
-8.53
-12.89
-18.04
-24.49
-32.67
-42.53
-53.16
-62.8
-69.06
-69.8
-63.89
-51.82
-35.59
-18
-1.62
12.06
22.83
31.35
38.42
44.35
48.8
51.13
51
48.69
45.02
40.96
37.14
33.63
30.08
26.08
21.51
16.67
12.04
7.97
4.31
0.43
-4.65
-11.82
-21.47
-33.14
-45.38
-55.95
-62.36
-62.65
-56.09
-43.5
-26.9
-8.86
8.5
24.01
37.49
49.34
59.85
68.86
75.77
79.95
81.24
80.17
77.85
75.54
74.13
73.82
74.24
74.68
74.53
73.57
71.95
70.05
68.17
66.44
64.73
62.77
60.3
57.18
53.45
49.33
45.15
41.21
37.71
34.63
31.73
28.68
25.28
21.53
17.7
14.14
11.19
8.88
6.97
5
2.45
-1.03
-5.44
-10.49
-15.65
-20.41
-24.44
-27.78
-30.8
-34.05
-38.05
-43.07
-48.96
-55.25
-61.31
-66.69
-71.24
-75.22
-79.14
-83.67
-89.49
-97.09
-106.69
-117.86
-129.25
-138.62
-143.25
-140.76
-130.05
-111.81
-88.41
-63.07
-38.8
-17.61
-0.25
13.46
24.06
32.07
37.84
41.73
44.27
46.21
48.21
50.68
53.52
56.26
58.24
59
58.52
57.13
55.34
53.47
51.51
49.06
45.62
40.8
34.48
26.97
18.96
11.49
5.9
3.61
5.71
12.72
24.23
39.13
56.01
73.64
91.37
109.04
126.59
143.6
158.98
171.18
178.72
180.72
177.31
169.48
158.62
145.83
131.65
115.98
98.53
79.26
58.72
37.92
17.89
-0.89
-18.86
-37.23
-57.41
-80.11
-104.59
-128.48
-148.41
-161.17
-164.81
-159.18
-145.6
-125.86
-101.3
-72.48
-39.61
-3.33
34.71
71.86
105.16
132.2
151.73
163.65
168.73
168.03
162.62
153.46
141.49
127.75
113.28
99.03
85.64
73.28
61.5
49.27
35.19
17.8
-3.86
-29.92
-59.47
-90.69
-121.23
-148.79
-171.53
-188.45
-199.5
-205.43
-207.74
-208.3
-209
-211.12
-214.88
-219.01
-221.04
-218.16
-208.34
-191.44
-169.45
-145.98
-125
-109.44
-100.06
-95.17
-91.11
-83.37
-68.07
-43.31
-9.85
29.12
69.08
105.62
135.61
157.64
171.74
178.88
180.79
179.77
178.31
178.1
178.81
177.48
169.29
149.78
117.37
74.76
28.39
-13.97
-46.01
-64.57
-69.66
-63.25
-47.96
-26.51
-1.82
22.9
44.46
60.66
70.91
76.22
78.35
78.89
78.56
77.5
75.86
74.3
74.01
76.08
80.85
87.64
94.92
100.94
104.25
104.05
100.18
93.07
83.55
72.79
62.14
52.88
45.81
41.03
37.78
34.63
29.89
22.1
10.57
-4.33
-21.1
-37.56
-51.54
-61.6
-67.55
-70.43
-72.07
-74.36
-78.58
-85
-92.91
-100.93
-107.64
-111.97
-113.6
-113.01
-111.24
-109.47
-108.68
-109.33
-111.37
-114.15
-116.4
-116.38
-112.25
-102.76
-88.02
-69.82
-51.2
-35.41
-24.5
-18.69
-16.53
-15.92
-15.33
-14.42
-13.76
-14.03
-15.37
-17.21
-18.9
-20.37
-22.48
-26.63
-34.1
-45.21
-59.03
-73.78
-87.54
-99.15
-108.41
-115.92
-122.25
-127.45
-130.87
-131.49
-128.72
-122.8
-114.88
-106.52
-98.96
-92.85
-88.05
-84.06
-80.29
-76.27
-71.61
-65.88
-58.69
-49.85
-39.53
-28.31
-16.97
-6.21
3.62
12.52
20.64
28.03
34.44
39.34
42.17
42.61
40.9
37.75
34.01
30.2
26.11
20.76
12.81
1.21
-14.26
-32.74
-52.71
-72.65
-91.67
-109.83
-127.94
-147.11
-168.12
-191.11
-215.32
-239.05
-259.78
-274.47
-280.28
-275.18
-258.76
-232.3
-198.4
-160.14
-120.07
-79.63
-39.1
1.86
43.28
84.22
122.64
155.95
181.98
199.8
210.12
214.83
216.19
215.83
214.37
211.64
207.37
201.81
195.92
190.84
187.21
184.62
181.7
176.68
168.28
156.28
141.68
126.44
112.86
103.08
98.63
100.17
107.37
119.04
133.33
148.18
161.72
172.52
179.77
182.94
181.69
175.73
165.01
149.94
131.64
111.69
91.69
72.76
55.2
38.61
22.37
6.1
-10.06
-25.56
-39.8
-52.48
-63.84
-74.57
-85.52
-97.45
-110.63
-124.6
-138.05
-148.84
-154.3
-151.91
-140.05
-118.69
-89.56
-55.72
-20.69
12.52
41.96
66.95
87.65
104.64
118.5
129.58
138
143.63
146.29
145.7
141.52
133.25
120.18
101.41
76.15
44.34
7.1
-33.07
-72.86
-109.17
-140.22
-166.03
-187.91
-207.19
-223.77
-235.7
-239.82
-233.4
-215.64
-188.4
-155.53
-121.39
-89.36
-60.95
-36.11
-14.02
5.87
23.41
37.85
48.41
54.76
57.29
56.99
55.1
52.73
50.42
48.14
45.26
40.98
34.7
26.29
16.03
4.27
-8.9
-23.67
-40.06
-57.21
-73
-84.32
-88.11
-82.72
-68.87
-49.62
-29.31
-11.93
0.19
6.88
9.62
10.36
10.59
10.78
10.59
9.39
6.81
2.87
-2.09
-7.69
-13.71
-20.04
-26.59
-33.04
-38.9
-43.56
-46.66
-48.37
-49.43
-51.07
-54.48
-60.13
-67.25
-73.68
-76.39
-72.54
-60.62
-41.05
-16.23
10.49
35.88
57.78
75.48
89.22
99.53
106.65
110.41
110.59
107.33
101.42
93.98
86.16
78.6
71.37
64.07
56.35
48.11
39.61
31.15
22.76
14
4.1
-7.6
-21.2
-35.95
-50.23
-61.79
-68.17
-67.27
-58.01
-40.73
-17.33
9.14
35.21
57.99
75.74
87.97
95.03
97.52
95.87
90.5
82.08
71.89
61.63
52.91
46.59
42.48
39.58
36.72
33.21
29.14
25.21
22.14
20.19
18.84
17.02
13.38
6.71
-3.66
-17.65
-34.23
-51.31
-65.97
-75.14
-76.47
-69.33
-55.11
-36.88
-18.26
-2.17
9.98
18.38
24.11
28.18
31
32.38
32.01
30.1
27.43
25.17
24.18
24.66
26
27.14
27.17
25.76
23.26
20.43
18.02
16.3
14.88
12.83
9
2.48
-6.92
-18.4
-30.17
-39.79
-44.82
-43.53
-35.52
-21.89
-4.9
12.68
28.47
41.05
50.14
56.33
60.48
63.26
64.89
65.21
63.99
61.13
56.79
51.35
45.12
38.25
30.61
21.91
11.86
0.32
-12.71
-27.13
-42.82
-59.68
-77.44
-95.36
-112.14
-126.09
-135.84
-141
-142.68
-143.38
-146.17
-153.5
-166.02
-182.23
-198.88
-212.19
-219.26
-219.13
-212.97
-203.5
-193.69
-185.49
-179.03
-172.73
-164.18
-151.36
-133.69
-112.33
-89.62
-68.01
-49.11
-33.15
-19.01
-4.69
12.41
35.22
66.69
109.01
162.32
223.6
286.62
343.31
386.48
412.39
422
420.18
413.24
406.31
401.63
398.74
395.81
391.19
384.11
374.39
361.77
345.34
323.82
296.23
262.51
223.61
181.11
136.63
91.4
46.33
2.35
-39.24
-76.62
-107.78
-131.05
-145.63
-151.89
-151.23
-145.64
-137.2
-127.65
-118.23
-109.66
-102.13
-95.24
-87.76
-77.75
-63.09
-42.53
-16.65
11.83
38.76
60.24
74.18
80.86
82.3
80.81
77.68
72.94
66.14
57.43
48.1
39.99
34.39
31.1
28.57
24.84
18.86
11.1
3.21
-2.93
-6.23
-6.82
-5.84
-4.67
-4.42
-5.56
-7.95
-11.2
-14.87
-18.59
-22.12
-25.39
-28.62
-32.42
-37.74
-45.51
-56.18
-69.37
-83.92
-98.11
-110.45
-120.07
-126.93
-131.58
-134.66
-136.65
-137.71
-138
-137.78
-137.55
-137.84
-138.92
-140.72
-142.92
-145.23
-147.58
-150.03
-152.68
-155.51
-158.48
-161.78
-166
-171.95
-180.27
-190.75
-202.03
-211.73
-217.26
-216.75
-209.8
-197.67
-182.89
-168.59
-157.52
-151.48
-150.98
-155.19
-162.55
-171.35
-180.51
-190.01
-201.01
-215.25
-234.18
-258.04
-285.36
-313.14
-337.78
-356.21
-366.84
-369.81
-366.45
-358.44
-346.79
-331.52
-311.91
-287.13
-256.97
-222.05
-183.5
-142.47
-99.61
-55.13
-9.14
37.67
83.73
126.6
163.51
192.37
212.33
224.19
229.99
232.33
233.45
234.85
237.36
241.47
247.49
255.18
263.32
269.55
271.1
265.98
254.15
237.64
219.68
203.12
189.19
177.48
166.87
156.88
148.29
142.77
141.59
144.6
150.15
155.88
160.1
162.67
165.02
169.45
177.86
190.71
206.55
222.44
234.87
240.92
239.15
229.73
214.02
193.68
169.91
143.11
113.21
80.49
46.36
13.71
-13.74
-32.42
-40.38
-38.01
-27.9
-13.91
0.33
12.53
22.12
29.69
36.12
41.72
46.09
48.54
48.62
46.5
42.95
38.87
34.82
30.86
26.57
21.39
14.99
7.43
-0.73
-8.68
-15.61
-21.13
-25.35
-28.91
-32.73
-37.69
-44.35
-52.58
-61.43
-69.08
-73.1
-71.09
-61.55
-44.63
-22.35
1.89
24.36
42.15
53.89
59.62
60.18
56.39
48.71
37.35
22.63
5.33
-13.4
-32.43
-51.09
-69.29
-87.3
-105.29
-122.89
-139.14
-152.72
-162.48
-167.79
-168.72
-165.87
-160.13
-152.45
-143.72
-134.73
-125.88
-117.04
-107.18
-94.52
-77.03
-53.3
-23.33
11.2
47.24
81.26
110.24
132.32
146.99
154.91
157.49
156.51
153.86
151.08
148.92
146.96
143.59
136.51
123.63
103.96
78.14
48.36
17.67
-10.91
-35.23
-54.28
-68.08
-77.29
-82.59
-84.41
-82.69
-77.01
-66.79
-51.68
-31.76
-7.68
19.48
48.2
76.61
102.29
122.33
133.59
133.47
120.79
96.68
64.74
30.52
0.47
-19.67
-26.23
-18.69
-0.11
23.16
42.94
51.73
45.46
25.81
0.53
-18.67
-20.52
0.93
43.13
95.13
141.36
167.04
163.15
128.73
70.17
-1.79
-75.52
-141.13
-191.53
-222.57
-232.71
-222.85
-196.16
-157.52
-112.8
-67.69
-26.77
6.96
32.22
49.05
58.36
61.27
58.81
52.02
42.35
32.04
24.03
21.35
25.86
37.37
53.32
69.49
81.53
86.35
83.11
73.09
58.99
44
31.06
22.33
19.17
22.1
30.88
44.57
61.52
79.56
96.14
109.05
116.95
119.96
119.74
119.04
120.62
126.08
135.1
145.58
154.69
160.24
161.8
160.79
159.66
160.62
164.68
171.42
179.49
187
191.63
190.44
180
157.71
123.98
83.96
46.91
22.92
18
30.49
51.02
66.49
66.06
45.8
9.5
-34.45
-78.01
-117.1
-152.07
-185.31
-217.92
-247.92
-270.96
-282.73
-281.53
-269.24
-250.53
-230.56
-212.77
-197.77
-183.71
-167.9
-148.71
-126.62
-104.01
-83.97
-68.66
-58.41
-51.71
-46.18
-39.72
-31.34
-21.33
-10.75
-0.77
7.94
15.38
22.09
28.77
35.95
43.68
51.45
58.47
63.85
67.11
68.32
68.1
67.2
66.02
64.19
60.75
54.57
44.92
31.88
16.28
-0.55
-17.33
-33.14
-47.47
-60.15
-71.23
-80.9
-89.46
-97.21
-104.31
-110.59
-115.28
-117.18
-114.96
-107.72
-95.28
-78.32
-58.19
-36.58
-15.18
4.4
20.84
33.31
41.71
46.8
50
52.83
56.14
59.77
62.56
62.98
59.96
53.4
44.24
33.99
24.13
15.6
8.73
3.47
-0.34
-2.84
-4.06
-4.07
-3.06
-1.17
1.66
5.84
12.08
20.96
32.4
45.25
57.45
66.64
71.07
70.36
65.67
59.19
53.24
49.48
48.51
49.99
53
56.45
59.4
61.18
61.47
60.3
58.03
55.16
52.13
49.12
46.03
42.52
38.11
32.25
24.29
13.59
-0.3
-17.3
-36.66
-57.08
-77.16
-95.97
-113.35
-129.87
-146.29
-163.02
-179.84
-195.91
-210.28
-222.36
-232.17
-240.14
-246.77
-252.21
-256.15
-258.06
-257.56
-254.75
-250.26
-244.93
-239.38
-233.67
-227.25
-219.32
-209.42
-197.8
-185.57
-174.16
-164.67
-157.01
-149.74
-140.36
-126.08
-104.79
-75.65
-39.33
2.25
46.31
89.68
129.18
162.05
186.36
201.28
207.18
205.45
198.08
187.15
174.49
161.51
149.14
137.82
127.48
117.68
107.71
96.97
85.15
72.31
58.78
44.9
30.92
16.99
3.38
-9.31
-20.12
-27.9
-31.69
-31.09
-26.49
-18.9
-9.73
-0.28
8.49
16.07
22.34
27.33
31.1
33.61
34.78
34.45
32.56
29.18
24.66
19.59
14.71
10.66
7.72
5.74
4.18
2.38
-0.18
-3.78
-8.51
-14.44
-21.61
-29.83
-38.4
-45.93
-50.59
-50.78
-45.89
-36.6
-24.76
-12.53
-1.5
7.81
15.81
23.16
30.13
36.27
40.73
42.69
41.8
38.31
32.8
25.85
17.82
8.78
-1.37
-12.76
-25.4
-38.98
-52.78
-65.75
-76.73
-84.97
-90.51
-94.11
-96.92
-99.74
-102.41
-103.82
-102.37
-96.72
-86.4
-71.89
-54.23
-34.55
-13.57
8.39
31.14
54.2
76.55
96.71
113.03
124.26
129.84
130.13
126.1
118.91
109.4
98.04
84.96
70.41
54.95
39.4
24.53
10.6
-2.77
-16.35
-30.82
-46.22
-61.64
-75.28
-84.97
-88.79
-85.64
-75.65
-60.22
-41.7
-22.83
-5.96
7.42
16.96
23.31
27.71
31.43
35.2
39.04
42.3
43.98
43.25
39.69
33.49
25.23
15.64
5.35
-5.16
-15.55
-25.59
-35.25
-44.78
-54.72
-65.63
-77.71
-90.43
-102.45
-111.94
-117.18
-117.24
-112.41
-104.26
-95.32
-88.32
-85.51
-88.13
-96.11
-108.26
-122.73
-137.55
-151.21
-163.03
-173.41
-183.83
-196.52
-213.8
-237.08
-265.86
-297.34
-326.97
-349.87
-362.67
-364.69
-358.1
-346.68
-334.17
-322.71
-312.54
-302.37
-290.57
-275.96
-258.13
-237.2
-213.28
-186.3
-156.05
-122.52
-86.32
-48.78
-11.84
22.3
51.79
75.47
93.25
106.02
115.4
123.19
130.84
139.09
147.89
156.64
164.69
171.74
178.15
184.82
192.97
203.86
218.54
237.63
260.78
286.11
310.07
327.78
334.43
326.99
305.67
274.34
239.39
207.72
184.52
171.9
168.86
172.4
179.03
185.98
191.64
195.36
196.89
196
192.43
186.07
177.24
166.79
155.8
145.16
135.1
125.16
114.44
102.28
88.66
74.36
60.66
48.71
38.98
31.05
23.71
15.43
4.88
-8.5
-24.14
-40.23
-54.01
-62.46
-63.21
-55.27
-39.4
-17.77
6.81
31.68
54.94
75.45
92.52
105.61
114.31
118.42
118.25
114.6
108.49
100.85
92.14
82.36
71.2
58.34
43.7
27.53
10.44
-6.74
-23.19
-38.35
-52.03
-64.42
-75.75
-85.72
-93.11
-95.84
-91.59
-78.74
-57.31
-29.19
2.32
33.53
61.31
83.84
100.56
111.83
118.42
121.1
120.63
117.8
113.42
108.24
102.72
96.86
90.15
81.83
71.23
58.11
42.92
26.64
10.49
-4.54
-18.12
-30.66
-43.18
-56.86
-72.43
-89.7
-107.14
-122.07
-131.24
-131.92
-122.89
-105.05
-81.19
-55.13
-30.43
-9.44
7
19.19
27.86
33.57
36.55
36.93
35.08
31.71
27.69
23.69
19.93
16.26
12.4
8.26
4.12
0.39
-2.57
-4.8
-6.78
-9.33
-13.43
-19.94
-29.32
-41.3
-54.58
-66.73
-74.68
-75.63
-68.21
-53.2
-33.33
-12.34
6.47
21.32
32.15
40.02
46.04
50.65
53.47
53.93
51.89
48.05
43.69
40.05
37.72
36.35
34.95
32.44
28.22
22.36
15.53
8.56
1.99
-4.2
-10.62
-18.28
-28.27
-41.26
-57.03
-74.19
-90.13
-101.76
-106.41
-102.95
-92.18
-76.6
-59.36
-43.15
-29.49
-18.73
-10.57
-4.61
-0.69
1.28
1.59
0.79
-0.37
-1.31
-1.79
-2.03
-2.42
-3.24
-4.26
-4.57
-2.77
2.57
12.16
25.4
40.25
53.68
62.65
65.15
60.91
51.47
39.67
28.74
21.4
19.25
22.49
30.16
40.55
51.85
62.64
72.07
79.7
85.28
88.48
88.94
86.58
81.82
75.58
69.01
63.06
58.05
53.73
49.44
44.56
38.84
32.49
26.06
20.18
15.3
11.52
8.57
5.76
2.1
-3.55
-12.18
-24.17
-38.76
-53.94
-66.77
-74.23
-74.38
-66.97
-53.58
-36.88
-19.57
-3.51
10.5
22.45
32.47
40.37
45.66
47.94
47.35
44.77
41.54
38.86
37.34
36.76
36.31
35.03
32.44
28.67
24.41
20.48
17.38
15
12.61
9.13
3.48
-5.07
-16.53
-29.95
-43.47
-54.54
-60.64
-60.02
-52.45
-39.34
-23.24
-6.97
7.35
18.78
27.43
33.9
38.64
41.71
42.83
41.89
39.23
35.61
31.96
28.84
26.25
23.67
20.44
16.16
11.05
5.85
1.45
-1.62
-3.48
-4.97
-7.31
-11.68
-18.82
-28.85
-41.13
-54.36
-66.57
-75.49
-78.95
-75.62
-65.49
-50.01
-31.71
-13.24
3.42
17.44
28.92
38.35
45.95
51.49
54.49
54.72
52.52
48.84
44.89
41.59
39.25
37.5
35.53
32.59
28.37
23.13
17.6
12.55
8.29
4.52
0.41
-5.05
-12.52
-22.1
-33.28
-45.07
-56.15
-65
-70.02
-69.85
-63.85
-52.45
-37.28
-20.71
-5.07
8.1
18.47
26.55
33.09
38.35
41.98
43.3
41.92
38.29
33.56
29.15
26.05
24.45
23.64
22.48
20.02
16
10.88
5.59
0.95
-2.71
-5.77
-9.08
-13.63
-20.19
-29.06
-39.95
-51.92
-63.41
-72.39
-76.8
-75.14
-67.06
-53.62
-37.03
-19.89
-4.36
8.45
18.48
26.26
32.29
36.66
39.1
39.31
37.46
34.31
30.98
28.5
27.36
27.32
27.53
26.93
24.81
21.06
16.27
11.33
7.03
3.62
0.69
-2.63
-7.29
-13.92
-22.58
-32.72
-43.25
-52.65
-59.2
-61.3
-57.92
-48.97
-35.54
-19.67
-3.69
10.44
21.76
30.32
36.81
41.89
45.8
48.23
48.63
46.73
42.8
37.66
32.38
27.83
24.31
21.48
18.67
15.21
10.91
6.08
1.38
-2.58
-5.62
-8.11
-10.8
-14.54
-19.89
-27.01
-35.62
-45.07
-54.3
-61.88
-66.11
-65.47
-59.13
-47.41
-31.91
-15.05
0.83
14.19
24.7
32.92
39.57
44.88
48.33
49.09
46.57
41.04
33.68
26.07
19.64
15.02
11.91
9.42
6.5
2.55
-2.42
-7.85
-12.97
-17.17
-20.26
-22.53
-24.56
-26.94
-30.15
-34.43
-39.88
-46.4
-53.56
-60.45
-65.58
-67.2
-63.92
-55.28
-42.15
-26.55
-10.93
2.71
13.36
21.13
26.8
31.16
34.59
36.93
37.77
36.87
34.45
31.18
27.88
25.25
23.48
22.3
21.07
19.14
16.11
12
7.19
2.22
-2.52
-6.88
-11.03
-15.32
-20.08
-25.57
-31.89
-39.07
-47.01
-55.31
-63.11
-68.93
-71
-67.82
-58.88
-45.04
-28.38
-11.56
3.21
14.79
23.27
29.51
34.47
38.62
41.83
43.65
43.74
42.2
39.53
36.45
33.58
31.18
29.19
27.23
24.87
21.75
17.7
12.79
7.27
1.51
-4.13
-9.39
-14.25
-18.82
-23.33
-28.05
-33.24
-39.22
-46.28
-54.44
-63.14
-71.03
-76.09
-76.32
-70.53
-58.98
-43.45
-26.59
-11
1.72
11.19
17.98
22.96
26.65
29.12
30.14
29.57
27.65
25.01
22.43
20.56
19.69
19.71
20.27
20.89
21.23
21.13
20.6
19.71
18.55
17.1
15.29
13.03
10.19
6.65
2.16
-3.57
-10.89
-19.95
-30.53
-41.75
-51.98
-59.2
-61.44
-57.52
-47.55
-33.02
-16.35
-0.09
13.83
24.61
32.47
38.21
42.68
46.37
49.29
51.13
51.56
50.41
47.81
44.12
39.8
35.32
30.89
26.52
21.96
16.87
11
4.33
-2.94
-10.42
-17.7
-24.43
-30.42
-35.62
-40.14
-44.23
-48.31
-52.91
-58.49
-65.07
-72
-77.74
-80.28
-77.82
-69.5
-55.96
-39.21
-21.92
-6.52
5.59
14.24
20.19
24.47
27.77
30.27
31.7
31.78
30.51
28.3
25.84
23.83
22.66
22.33
22.49
22.57
22.07
20.69
18.41
15.39
11.84
7.99
4
-0.05
-4.14
-8.31
-12.73
-17.64
-23.37
-30.14
-37.83
-45.75
-52.47
-56.15
-55.09
-48.44
-36.72
-21.71
-5.97
8.14
19.17
26.89
32
35.54
38.22
40.19
41.15
40.74
38.9
35.97
32.65
29.62
27.33
25.81
24.73
23.57
21.82
19.17
15.57
11.19
6.32
1.26
-3.81
-8.81
-13.74
-18.66
-23.61
-28.69
-34.11
-40.13
-46.95
-54.38
-61.55
-66.85
-68.36
-64.56
-55.09
-41.09
-24.92
-9.27
3.79
13.46
20.15
24.95
28.85
32.28
35
36.49
36.39
34.76
32.08
29.02
26.16
23.83
22.08
20.76
19.62
18.41
16.91
14.93
12.27
8.76
4.31
-1.03
-7.03
-13.31
-19.5
-25.34
-30.92
-36.63
-43.07
-50.64
-59.14
-67.44
-73.61
-75.51
-71.57
-61.51
-46.62
-29.39
-12.6
1.56
12.11
19.25
23.94
27.22
29.71
31.56
32.6
32.66
31.77
30.25
28.44
26.63
24.9
23.2
21.38
19.38
17.21
14.87
12.28
9.25
5.54
1.02
-4.24
-9.95
-15.65
-20.94
-25.63
-29.81
-33.85
-38.33
-43.77
-50.28
-57.31
-63.5
-66.89
-65.64
-58.74
-46.61
-31.1
-14.82
-0.22
11.29
19.58
25.51
30.2
34.4
38.18
41.08
42.52
42.2
40.27
37.32
34.06
31.14
28.88
27.19
25.7
23.89
21.4
18.09
14.16
9.96
5.82
1.91
-1.85
-5.76
-10.2
-15.48
-21.82
-29.18
-37.25
-45.25
-51.91
-55.63
-54.88
-48.79
-37.62
-22.81
-6.59
8.64
21.14
30.17
35.96
39.31
40.95
41.3
40.4
38.19
34.8
30.76
26.84
23.74
21.79
20.73
19.81
18.16
15.16
10.78
5.5
0.09
-4.8
-8.96
-12.65
-16.46
-20.94
-26.45
-33.11
-40.85
-49.45
-58.37
-66.51
-72.24
-73.66
-69.27
-58.8
-43.49
-25.79
-8.55
6.08
17.23
25.29
31.36
36.4
40.73
44.03
45.73
45.43
43.27
39.92
36.25
32.97
30.32
28.02
25.49
22.2
17.97
13.09
8.2
3.87
0.36
-2.55
-5.47
-9.1
-13.97
-20.39
-28.32
-37.44
-47.03
-55.89
-62.38
-64.78
-61.85
-53.37
-40.44
-25.1
-9.71
3.83
14.64
22.79
28.93
33.74
37.49
40.02
40.96
40.04
37.34
33.36
28.8
24.26
20.08
16.1
11.88
6.88
0.84
-6.11
-13.49
-20.75
-27.56
-34.01
-40.5
-47.57
-55.64
-64.92
-75.42
-86.95
-99.01
-110.57
-119.9
-124.85
-123.46
-114.71
-99.04
-78.35
-55.27
-32.29
-11.01
8.09
25.26
40.88
54.96
67.03
76.38
82.52
85.45
85.76
84.37
82.25
80.03
77.9
75.59
72.63
68.59
63.39
57.32
50.92
44.77
39.2
34.22
29.52
24.63
19.05
12.32
4.06
-5.86
-17.25
-29.27
-40.45
-48.85
-52.63
-50.69
-43.22
-31.69
-18.41
-5.73
4.69
12.25
17.26
20.48
22.55
23.7
23.83
22.74
20.52
17.73
15.18
13.65
13.42
14.15
14.98
14.94
13.4
10.39
6.47
2.47
-0.98
-3.72
-6.09
-8.72
-12.29
-17.29
-23.91
-32.01
-40.94
-49.47
-55.89
-58.35
-55.52
-47.13
-34.2
-18.8
-3.28
10.51
21.64
30.16
36.57
41.34
44.54
45.91
45.26
42.7
38.85
34.63
30.91
28.14
26.19
24.45
22.18
18.85
14.43
9.32
4.18
-0.51
-4.63
-8.56
-13
-18.73
-26.29
-35.89
-47.21
-59.29
-70.57
-79.07
-82.82
-80.53
-72.16
-59.04
-43.52
-28.14
-14.8
-4.23
3.9
10.41
15.9
20.36
23.25
23.89
21.99
17.89
12.45
6.7
1.39
-3.26
-7.54
-11.95
-16.94
-22.59
-28.65
-34.59
-39.92
-44.32
-47.82
-50.72
-53.46
-56.4
-59.81
-63.69
-67.87
-71.86
-74.73
-75.13
-71.46
-62.4
-47.5
-27.64
-4.92
17.92
38.43
55.2
68.11
77.88
85.42
91.15
94.95
96.38
95.3
92.1
87.72
83.24
79.38
76.24
73.35
69.95
65.47
59.78
53.26
46.54
40.14
34.22
28.55
22.65
16.13
8.86
0.94
-7.43
-16.1
-24.86
-33.19
-40.07
-43.97
-43.42
-37.65
-27.06
-13.25
1.57
15.42
27.15
36.57
44.08
50.05
54.45
56.76
56.4
53.21
47.64
40.69
33.52
26.97
21.36
16.39
11.49
6.15
0.25
-5.89
-11.63
-16.34
-19.68
-21.72
-22.96
-24.16
-26.09
-29.41
-34.56
-41.58
-50.01
-58.71
-65.86
-69.41
-67.6
-59.75
-46.63
-30.3
-13.45
1.56
13.42
22.08
28.42
33.45
37.77
41.25
43.28
43.29
41.15
37.35
32.79
28.38
24.66
21.59
18.72
15.55
11.8
7.63
3.48
-0.17
-3.1
-5.41
-7.59
-10.29
-14.14
-19.64
-26.91
-35.61
-44.81
-53.04
-58.52
-59.66
-55.53
-46.17
-32.64
-16.69
-0.33
14.63
26.76
35.16
39.44
39.61
36.19
30.14
22.78
15.58
9.89
6.6
5.93
7.47
10.33
13.56
16.45
18.76
20.63
22.36
24.06
25.44
25.89
24.62
20.97
14.65
5.88
-4.4
-14.62
-22.75
-26.78
-25.41
-18.5
-7.32
5.95
18.92
29.84
37.91
43.2
46.12
46.91
45.54
41.79
35.71
27.82
19.17
10.93
4.05
-1.12
-4.86
-7.73
-10.08
-11.68
-11.61
-8.66
-1.99
8.21
20.51
32.63
42.33
48.3
50.68
50.95
51.3
53.68
59.22
68
79.28
92.07
105.56
119.47
133.91
148.97
164.16
177.9
187.45
189.24
179.89
157.48
122.76
79.96
36.79
3.21
-11.02
0.31
37
91.45
150.38
199.09
226.39
228.01
206.93
170.74
127.64
83.18
39.4
-4.02
-47.85
-92.01
-135.59
-177.66
-217.82
-256
-291.52
-322.37
-345.29
-356.73
-354.11
-337.13
-308.04
-271.1
-231.46
-193.81
-161.3
-135.12
-114.58
-97.94
-83.34
-69.6
-56.57
-44.91
-35.52
-28.96
-25.09
-23.23
-22.44
-22.14
-22.3
-23.45
-26.44
-32.01
-40.46
-51.32
-63.22
-73.94
-80.82
-81.42
-74.28
-59.46
-38.71
-14.89
8.9
30.21
47.72
61.21
71.08
77.84
81.8
83.12
81.98
78.81
74.26
68.95
63.29
57.3
50.82
43.73
36.19
28.62
21.61
15.57
10.51
5.97
1.14
-4.94
-13.07
-23.47
-35.55
-47.73
-57.65
-62.76
-61.19
-52.47
-37.81
-19.79
-1.43
14.73
27.28
35.97
41.33
44.08
44.77
43.72
41.17
37.49
33.18
28.75
24.49
20.41
16.31
11.96
7.31
2.58
-1.87
-5.73
-8.92
-11.73
-14.76
-18.82
-24.62
-32.5
-42.04
-51.85
-59.73
-63.13
-60.08
-49.98
-34.01
-14.82
4.31
20.64
32.71
40.43
44.64
46.39
46.38
44.92
42.04
37.9
32.87
27.51
22.26
17.35
12.76
8.34
3.99
-0.22
-4.17
-7.75
-11.04
-14.41
-18.51
-24.13
-31.95
-42.05
-53.48
-64.18
-71.31
-72.14
-65.13
-50.63
-30.96
-9.68
9.72
24.82
34.84
40.33
42.5
42.43
40.7
37.53
33.02
27.52
21.6
15.89
10.85
6.64
3.09
-0.08
-3.08
-6
-8.75
-11.33
-13.95
-17.16
-21.77
-28.56
-37.72
-48.37
-58.44
-65.04
-65.43
-58.14
-43.68
-24.53
-4.29
13.61
27.04
35.51
39.87
41.42
41.19
39.56
36.48
31.88
26.04
19.57
13.24
7.63
2.98
-0.84
-4.14
-7.23
-10.34
-13.59
-17.16
-21.33
-26.58
-33.45
-42.14
-52.12
-61.8
-68.78
-70.43
-64.95
-52.2
-33.95
-13.36
6.09
21.76
32.53
38.71
41.48
42.01
41.02
38.71
35.01
29.98
24.02
17.8
11.98
7.05
3.08
-0.15
-3.05
-5.92
-8.92
-12.08
-15.52
-19.68
-25.28
-32.93
-42.6
-53.04
-61.81
-65.94
-63.03
-52.32
-35.22
-14.87
4.98
21.26
32.49
38.87
41.7
42.47
42.15
41
38.79
35.28
30.46
24.71
18.62
12.74
7.41
2.73
-1.37
-5.04
-8.41
-11.64
-15.04
-19.17
-24.77
-32.41
-42.01
-52.39
-61.29
-65.79
-63.43
-53.17
-36.02
-14.85
6.62
25.06
38.56
46.96
51.38
53.38
54.13
54.06
52.93
50.38
46.33
41.15
35.56
30.19
25.39
21.05
16.81
12.26
7.23
1.72
-4.24
-10.8
-18.46
-27.71
-38.58
-50.14
-60.28
-66.25
-65.55
-56.98
-41.32
-21.18
-0.16
18.43
32.56
41.77
46.9
49.24
49.9
49.43
47.91
45.23
41.35
36.44
30.81
24.89
19.17
14.13
10.18
7.62
6.45
6.34
6.68
6.58
5.11
1.39
-5.01
-13.76
-23.37
-31.34
-34.69
-30.96
-19.23
-0.64
21.94
44.87
64.94
80.26
90.42
96.06
98.21
97.73
95.11
90.57
84.25
76.24
66.64
55.52
42.99
29.29
14.8
-0.08
-14.97
-29.73
-44.5
-59.65
-75.66
-92.94
-111.79
-132.18
-153.55
-174.5
-192.66
-204.91
-208.11
-200.16
-181.04
-153.08
-120.47
-88
-59.5
-36.86
-19.8
-6.59
4.81
15.58
25.67
33.95
38.96
39.77
36.38
29.91
22.12
14.9
9.75
7.51
8.32
11.67
16.5
21.16
23.57
21.45
13.08
-1.9
-21.84
-43.15
-61.41
-73.02
-76.8
-74.53
-70.04
-67.45
-69.14
-74.92
-82.51
-89.15
-93.08
-94.18
-93.37
-91.42
-87.99
-81.63
-70.63
-54.13
-32.58
-7.4
20.04
49.17
80.2
113.31
147.59
180.37
207.77
225.89
232.32
226.92
211.61
189.45
163.48
136.13
109.12
83.81
61.4
42.81
28.33
17.45
8.94
1.37
-6.26
-14.21
-22.05
-29.07
-34.7
-38.82
-41.72
-43.84
-45.53
-46.9
-47.96
-48.68
-49.15
-49.61
-50.34
-51.66
-53.78
-56.9
-61.1
-66.39
-72.67
-79.73
-87.35
-95.35
-103.47
-111.21
-117.6
-121.23
-120.54
-114.42
-102.74
-86.53
-67.67
-48.22
-29.72
-12.82
2.53
16.61
29.53
41.15
51.23
59.76
66.95
73.12
78.29
82.13
84.11
83.83
81.3
76.93
71.26
64.58
56.71
47.08
34.94
19.75
1.35
-19.72
-42.03
-63.25
-80.39
-90.57
-91.9
-84.34
-69.77
-51.52
-33.25
-17.81
-6.62
0.27
3.62
4.28
2.76
-0.77
-6.25
-13.31
-21.19
-28.96
-35.9
-41.96
-47.81
-54.57
-63.16
-73.71
-85.36
-96.54
-105.79
-112.45
-117.15
-121.46
-127.17
-135.3
-145.49
-155.91
-163.82
-166.48
-162.03
-149.99
-131.34
-108.01
-82.33
-56.34
-31.45
-8.28
13.25
33.99
55.43
79.38
107.35
139.61
174.52
208.54
237.16
256.54
265.13
264.52
258.79
252.71
249.69
250.22
251.81
250.28
241.67
223.91
197.76
166.49
135.2
109.78
95.87
97.7
116.85
151.24
194.98
239.48
275.78
297.17
301.02
288.96
265.56
236.23
205.52
176.33
150.06
127.24
107.83
91.28
76.16
60.12
40.22
13.69
-20.84
-62.28
-106.71
-147.98
-179.56
-196.77
-198.49
-187.55
-169.43
-150.01
-133.52
-121.52
-113.37
-107.49
-102.65
-98.48
-95.17
-92.81
-90.83
-88.17
-83.89
-77.84
-70.95
-64.95
-61.57
-61.68
-64.89
-69.7
-74.39
-77.85
-80.11
-82.31
-85.99
-92.45
-102.25
-115.32
-131.36
-150.29
-172.3
-197.59
-225.67
-254.95
-282.52
-304.69
-317.84
-319.65
-309.89
-290.58
-265.37
-238.3
-212.64
-190.16
-171.1
-154.83
-140.46
-127.29
-114.72
-101.89
-87.47
-69.79
-47.35
-19.54
13.11
48.96
85.75
121.18
153.22
180.3
201.24
215.26
222
221.68
215.15
203.95
190.29
176.72
165.76
159.33
158.24
161.98
169.13
177.83
186.63
194.76
202.06
208.38
213.11
215.01
212.47
204.19
189.68
169.38
144.53
116.62
87.19
57.69
29.57
4.36
-16.51
-32.01
-41.92
-46.85
-48.18
-47.63
-46.76
-46.57
-47.13
-47.64
-46.64
-42.56
-34.31
-21.79
-5.96
11.39
28.33
43.48
56.27
66.9
75.71
82.69
87.21
88.4
85.8
80.03
73
67.51
66.37
71.25
81.89
95.94
109.74
119.59
123.08
119.86
111.44
100.27
88.56
77.38
66.41
54.35
39.85
22.38
2.88
-16.34
-32.31
-42.54
-46.06
-43.78
-38.13
-31.94
-27.29
-24.84
-24.01
-23.79
-23.71
-24.2
-26.23
-30.46
-36.62
-43.34
-48.87
-52.03
-52.94
-53.1
-54.72
-59.81
-69.26
-82.6
-98.28
-114.5
-129.93
-144.1
-157.36
-170.31
-183.17
-195.35
-205.3
-210.97
-210.37
-202.35
-187.12
-166.32
-142.66
-119.15
-98.2
-81.05
-67.6
-56.81
-47.33
-38.19
-29.04
-20.07
-11.56
-3.53
4.24
12.06
19.97
27.57
34.23
39.41
43.04
45.67
48.28
51.97
57.42
64.61
72.79
80.61
86.56
89.3
88.14
83.25
75.89
68.2
62.74
61.8
66.56
76.54
89.7
102.98
113.33
118.69
118.49
113.44
104.96
94.36
82.51
69.93
57.11
44.83
34.08
25.58
19.31
14.35
9.05
1.77
-8.3
-20.71
-33.76
-45.24
-53.41
-57.86
-59.78
-61.44
-65.06
-71.69
-80.71
-90.11
-97.64
-101.96
-103.33
-103.4
-104.33
-107.69
-113.89
-122.31
-131.88
-141.79
-151.79
-162.02
-172.67
-183.69
-194.74
-205.4
-215.41
-224.59
-232.7
-239.19
-243.2
-243.76
-240.15
-232.27
-220.63
-206.19
-189.95
-172.6
-154.25
-134.29
-111.55
-84.62
-52.46
-15.05
26.27
69
110.24
147.73
180.43
208.55
232.9
254.04
271.76
285.14
293.27
295.74
292.92
285.65
274.72
260.53
243.14
222.73
199.92
175.93
152.2
129.78
108.82
88.26
66.26
40.95
11.62
-20.43
-51.63
-76.91
-91.31
-91.8
-78.6
-55.16
-26.96
0.38
22.77
38.5
47.97
52.8
54.79
55.06
53.69
49.65
41.26
26.95
6.24
-19.54
-47.12
-72.21
-90.77
-100.41
-100.88
-93.8
-81.89
-68.22
-55.74
-47.14
-44.39
-48.08
-56.66
-66.22
-71.18
-65.99
-47.13
-14.56
27.97
73.95
116.18
148.99
169.81
179.49
181.21
178.67
174.41
169
161.46
150.4
135.22
116.49
95.66
74.3
53.57
34.22
16.96
2.63
-7.96
-14.8
-19.15
-23.49
-30.7
-43.02
-61.28
-84.72
-111.52
-139.3
-165.38
-186.7
-199.85
-201.43
-189.02
-162.27
-123.49
-77.39
-29.78
14.08
50.69
78.83
99.01
112.65
121.05
125.15
125.46
122.53
117.2
110.58
103.81
97.73
92.52
87.79
82.8
76.96
70.08
62.46
54.67
47.12
39.7
31.67
21.9
9.4
-5.91
-22.78
-38.75
-50.83
-56.59
-55.1
-47.29
-35.48
-22.42
-10.37
-0.57
6.5
10.72
11.96
10.1
5.47
-0.97
-7.69
-13.31
-17.32
-20.35
-23.89
-29.33
-37.2
-46.78
-56.53
-64.86
-70.92
-74.97
-77.97
-80.99
-84.52
-88.16
-90.83
-91.19
-88.36
-82.21
-73.55
-63.88
-55.09
-48.8
-45.85
-45.83
-47.15
-47.34
-43.89
-35.04
-20.4
-0.96
21.34
44.31
66.14
85.75
102.71
117.01
128.85
138.47
146.18
152.29
157.08
160.67
162.94
163.6
162.3
158.79
153.05
145.38
136.36
126.74
117.22
108.27
99.87
91.51
82.43
72.05
60.29
47.74
35.38
24.21
14.78
7.03
0.35
-6.05
-12.91
-20.67
-29.4
-38.83
-48.36
-57.17
-64.41
-69.46
-72.18
-72.99
-72.67
-72.15
-72.08
-72.87
-74.59
-77.19
-80.56
-84.47
-88.43
-91.65
-93.08
-91.71
-87.04
-79.34
-69.87
-60.63
-53.77
-51
-52.93
-58.92
-67.31
-76.13
-83.71
-89.29
-92.96
-95.34
-96.94
-97.63
-96.57
-92.46
-84.22
-71.52
-55.06
-36.39
-17.45
-0.23
13.56
22.6
26.22
24.68
19.47
13.27
9.32
10.36
17.56
30.02
45.1
59.58
70.8
77.54
79.95
79.02
75.76
70.85
64.61
57.26
49.22
41.08
33.39
26.5
20.38
14.73
9.26
3.9
-1.15
-5.57
-9.25
-12.58
-16.48
-22.12
-30.35
-41.05
-52.83
-63.26
-69.6
-69.84
-63.47
-51.67
-36.94
-22.08
-9.32
0.27
6.79
11.05
14.02
16.25
17.73
18.08
16.9
14.15
10.31
6.22
2.76
0.45
-0.82
-1.61
-2.76
-4.96
-8.62
-13.88
-20.85
-29.55
-39.81
-50.84
-60.8
-67.03
-66.55
-57.23
-38.73
-12.87
16.76
45.91
70.96
89.82
102.07
108.56
110.61
109.42
105.75
100.01
92.44
83.36
73.16
62.26
50.99
39.56
28.11
16.77
5.78
-4.6
-14.2
-23.12
-31.98
-41.89
-54.18
-69.72
-88.28
-108.03
-125.8
-137.94
-141.61
-135.91
-122.21
-103.63
-83.82
-65.73
-50.88
-39.39
-30.6
-23.76
-18.46
-14.64
-12.35
-11.52
-11.86
-13.02
-14.68
-16.52
-18.28
-19.58
-20.01
-19.3
-17.45
-14.93
-12.48
-11.04
-11.48
-14.48
-20.27
-28.28
-36.87
-43.35
-44.42
-37.34
-21.04
3.16
31.84
60.69
86.06
106.01
120.45
130.32
136.65
139.82
139.66
135.92
128.9
119.58
109.3
99.38
90.61
83.28
77.24
72.2
67.89
64.18
61.05
58.55
56.65
54.99
52.93
49.54
44.04
36.21
26.7
16.9
8.44
2.5
-0.77
-2.24
-3.28
-4.92
-7.31
-9.64
-10.74
-9.79
-6.92
-3.15
0.02
1.28
-0.03
-3.9
-10.03
-18.09
-28
-39.75
-53.13
-67.54
-82.04
-95.7
-107.98
-119.05
-129.77
-141.42
-155.27
-172.09
-191.96
-214.1
-237.07
-258.91
-277.43
-290.44
-296
-292.56
-279.16
-255.57
-222.32
-180.9
-133.64
-83.52
-33.84
12.34
52.71
86.11
112.48
132.64
147.65
158.38
165.34
168.73
168.81
166.12
161.46
155.73
149.59
143.26
136.53
128.92
119.86
109.11
97.01
84.63
73.72
66.3
63.97
67.29
75.4
86.26
97.42
106.83
113.46
117.27
118.66
117.84
114.47
107.86
97.52
83.71
67.57
50.81
35.05
21.34
9.89
0.33
-7.85
-14.91
-20.79
-25.27
-28.27
-30.07
-31.24
-32.49
-34.49
-37.71
-42.43
-48.59
-55.71
-62.79
-68.41
-71.04
-69.59
-63.86
-54.68
-43.64
-32.57
-22.87
-15.24
-9.7
-5.97
-3.8
-3.23
-4.56
-8.07
-13.71
-20.99
-29.08
-37.05
-44.23
-50.47
-56.18
-62.12
-69.02
-77.25
-86.57
-96.31
-105.5
-113.38
-119.47
-123.55
-125.47
-124.93
-121.51
-114.83
-104.88
-92.14
-77.46
-61.77
-45.71
-29.44
-12.72
4.77
23.1
41.93
60.51
77.89
93.14
105.54
114.67
120.43
122.9
122.25
118.58
111.92
102.34
90.01
75.34
58.89
41.19
22.54
3.11
-16.74
-36
-52.66
-64.07
-67.73
-62.43
-48.98
-30.19
-9.91
8.22
21.92
30.61
35.07
36.56
36.15
34.43
31.62
27.9
23.62
19.27
15.26
11.83
9.03
6.88
5.49
5.19
6.39
9.4
14.24
20.44
26.94
32.15
34.3
32.13
25.61
16.45
7.86
3.55
6.36
17.01
33.77
53.12
71.09
84.79
93.11
96.61
96.62
94.35
90.31
84.3
75.81
64.54
50.59
34.55
17.37
0.06
-16.38
-31.18
-43.83
-54.17
-62.4
-69.09
-75.1
-81.35
-88.7
-97.53
-107.45
-116.93
-123.44
-124.09
-116.6
-100.49
-77.46
-50.99
-25.09
-2.79
14.84
28.62
40.31
51.37
62.23
72.24
80.43
86.29
90.15
93.01
95.89
99.29
103.03
106.46
108.89
109.95
109.59
107.85
104.61
99.44
91.79
81.21
67.66
51.62
34.14
16.74
1.21
-10.64
-17.41
-18.51
-14.45
-6.79
2.39
11.1
18.03
22.69
25.15
25.59
23.82
19.31
11.54
0.39
-13.47
-28.7
-43.72
-57.21
-68.61
-78.09
-86.41
-94.39
-102.64
-111.32
-120.26
-129.14
-137.67
-145.71
-153.21
-160.13
-166.4
-171.87
-176.39
-179.89
-182.55
-184.72
-186.78
-188.66
-189.4
-186.93
-178.26
-160.27
-130.99
-90.68
-42.4
8.37
55.23
92.53
117.07
128.64
129.62
123.6
114.02
103.2
92.16
81.11
70.06
59.31
49.37
40.66
33.3
27.08
21.51
16.18
10.73
4.95
-1.31
-8.02
-14.76
-20.56
-24.06
-23.81
-18.81
-8.82
5.51
22.94
41.96
61.1
79.1
94.82
107.26
115.59
119.45
119.03
115.25
109.48
103.23
97.69
93.53
90.92
89.72
89.64
90.3
91.1
91.15
89.36
84.72
76.61
64.9
49.95
32.49
13.37
-6.39
-25.53
-42.42
-55.18
-62.08
-62.06
-55.2
-42.8
-27
-10.18
5.64
19.18
29.86
37.43
41.72
42.38
39.13
32
21.57
9
-4.37
-17.51
-29.92
-41.69
-53.17
-64.7
-76.31
-87.73
-98.58
-108.48
-117.31
-125.38
-133.33
-142.02
-152.03
-163.26
-174.73
-184.72
-191.25
-192.72
-188.36
-178.21
-162.94
-143.5
-120.91
-96.18
-70.29
-44
-17.61
9.22
37.25
67.08
98.55
130.35
160.34
186.15
206.1
219.52
226.73
228.49
225.64
218.93
209.21
197.82
186.62
177.67
172.43
171.09
172.22
173.04
170.22
160.93
143.67
118.83
88.7
56.94
27.8
5.04
-8.99
-13.9
-11.25
-3.81
5.29
13.49
19.24
21.97
21.76
18.94
13.95
7.43
0.27
-6.4
-11.56
-14.63
-15.76
-15.75
-15.8
-17.07
-20.34
-25.95
-33.89
-44.06
-56.59
-71.77
-90
-111.35
-135.16
-159.88
-183.08
-201.99
-214.19
-218.31
-214.62
-204.93
-192.17
-179.36
-168.69
-160.85
-155.15
-150.2
-144.95
-139.33
-134.12
-130.24
-127.75
-125.36
-120.89
-112.27
-98.68
-80.79
-60.28
-38.89
-17.83
2.04
19.63
33.23
41.02
42.31
38.76
34.52
34.98
44.48
64.25
91.54
120.51
144.17
156.83
155.91
142.8
122.64
103.03
92.11
96.19
117.74
154.44
199.79
245.22
282.85
307.7
318.38
316.27
303.95
283.9
258.17
228.84
198.44
169.86
145.5
126.1
110.09
94.01
73.85
46.84
12.65
-26.45
-66.49
-103.14
-132.88
-153.79
-165.41
-168.44
-164.21
-154.23
-140.05
-123.2
-105.18
-87.39
-71.14
-57.46
-47.11
-40.48
-37.5
-37.56
-39.49
-41.76
-42.72
-41.13
-36.41
-28.93
-19.98
-11.47
-5.58
-4.12
-8.03
-16.84
-28.56
-40.04
-47.79
-49.02
-42.54
-29.07
-10.86
9.12
28.15
44.46
57.34
66.94
73.8
78.45
81.34
82.83
83.25
82.99
82.36
81.5
80.38
78.73
76.16
72.22
66.62
59.32
50.57
40.73
29.92
17.78
3.32
-14.69
-37.05
-63.34
-91.52
-118.08
-138.95
-150.69
-151.71
-142.68
-126.35
-106.53
-86.86
-69.95
-56.93
-47.83
-42.25
-39.91
-40.79
-44.79
-51.22
-58.74
-65.61
-70.47
-73.02
-74.22
-75.69
-78.73
-83.4
-88.27
-91.02
-89.5
-82.86
-72.02
-59.34
-47.85
-40.19
-37.89
-40.91
-47.63
-55.29
-60.72
-61.3
-55.99
-45.7
-33.17
-21.74
-14.11
-11.18
-11.99
-14.53
-17.06
-19
-21.03
-24.28
-29.36
-35.74
-42.03
-46.71
-48.94
-48.85
-47.41
-45.79
-44.86
-44.87
-45.46
-45.79
-44.83
-41.59
-35.43
-26.37
-15.26
-3.69
6.49
13.71
17.13
17.1
15.06
13.33
14.45
20.46
32.12
48.48
67.01
84.32
97.13
103.33
102.37
95.08
83.15
68.52
53.07
38.45
25.99
16.52
10.2
6.67
5.21
5.16
6.19
8.2
11.04
14.16
16.67
17.7
17.09
15.85
15.89
19.24
27.06
39.01
53.34
67.73
80.14
89.43
95.43
98.54
99.15
97.42
93.38
87.23
79.53
71.15
62.9
55.25
48.23
41.55
34.83
27.89
20.64
13.17
5.49
-2.38
-10.51
-19.1
-28.64
-40.04
-54.48
-72.73
-94.53
-118.01
-139.99
-156.87
-165.88
-165.88
-157.53
-142.55
-122.84
-99.87
-74.79
-48.93
-24.2
-2.84
13.29
23.73
29.8
34.37
40.87
52.17
69.79
93.72
122.6
154.28
186.17
215.54
239.6
255.77
261.96
257.02
240.98
215.23
182.25
145.25
107.67
72.68
42.71
19.11
2
-9.58
-17.23
-22.66
-27.06
-31
-34.5
-37.42
-39.9
-42.4
-45.57
-49.9
-55.4
-61.53
-67.31
-71.7
-73.88
-73.53
-70.95
-66.95
-62.61
-59.01
-56.99
-57.07
-59.57
-64.86
-73.36
-85.32
-100.3
-116.73
-131.76
-141.84
-143.85
-136.29
-119.88
-97.37
-72.51
-48.73
-28.2
-11.62
1.25
10.93
17.67
21.45
22.28
20.53
17.01
12.63
8.08
3.59
-1.08
-6.25
-12
-18
-23.55
-27.93
-30.7
-31.88
-32.06
-32.22
-33.5
-36.81
-42.41
-49.56
-56.47
-60.7
-59.95
-52.86
-39.71
-22.22
-2.98
15.53
31.71
45
55.58
63.75
69.58
72.84
73.32
71.19
67.09
62.01
56.86
52.17
47.94
43.78
39.26
34.2
28.77
23.39
18.45
13.96
9.48
4.11
-3.11
-12.82
-24.85
-38.01
-50.17
-58.75
-61.45
-57.05
-45.88
-29.73
-11.24
6.95
22.95
35.86
45.62
52.46
56.59
58.05
56.91
53.61
48.95
44.01
39.63
36.18
33.39
30.59
27.11
22.6
17.28
11.67
6.39
1.75
-2.49
-7.05
-12.96
-21.08
-31.64
-43.88
-55.98
-65.41
-69.61
-66.9
-57.03
-41.38
-22.55
-3.48
13.44
26.9
36.66
43.14
47
48.68
48.41
46.37
42.93
38.65
34.17
30.01
26.4
23.27
20.32
17.24
13.9
10.29
6.47
2.41
-2.17
-7.8
-15.17
-24.74
-36.36
-48.82
-59.84
-66.64
-66.8
-59.29
-45.02
-26.55
-7.21
10.12
23.81
33.64
40.28
44.52
46.75
47.02
45.3
41.84
37.31
32.46
27.82
23.51
19.3
14.89
10.15
5.24
0.45
-3.99
-8.11
-12.3
-17.22
-23.68
-32.33
-43.32
-55.86
-68.14
-77.51
-81.29
-77.67
-66.6
-49.82
-30.34
-11.29
5.11
18.01
27.72
35.04
40.5
44.21
45.93
45.54
43.38
40.12
36.49
32.96
29.51
25.8
21.52
16.64
11.54
6.77
2.66
-0.9
-4.65
-9.71
-17.2
-27.78
-41.2
-56.12
-70.24
-80.8
-85.36
-82.63
-72.92
-58.05
-40.74
-23.64
-8.51
4.02
14.2
22.47
28.92
33.17
34.69
33.3
29.5
24.4
19.25
14.92
11.51
8.4
4.6
-0.69
-7.65
-15.68
-23.57
-29.88
-33.37
-33.35
-29.78
-23.29
-15.13
-6.89
-0.19
3.84
5.04
4.33
3.29
3.32
4.86
7.23
9.16
9.76
9.28
9.07
10.73
14.98
21.05
27.04
31.03
32.31
31.83
31.55
33.28
37.67
43.86
50.07
54.52
56.21
55.11
51.81
46.93
40.62
32.5
21.9
8.29
-8.41
-27.69
-48.46
-69.15
-87.89
-102.72
-111.89
-114.27
-109.72
-99.24
-84.79
-68.7
-52.98
-38.87
-26.75
-16.63
-8.71
-3.77
-3.02
-7.46
-17.21
-31.12
-47.13
-62.93
-76.92
-88.69
-98.88
-108.66
-118.92
-129.8
-140.57
-150.04
-157.15
-161.43
-163.12
-162.68
-160.36
-155.81
-148.2
-136.7
-120.81
-100.5
-75.96
-47.36
-14.86
21
58.78
96.04
129.74
157.2
177.01
189.41
195.97
198.72
199.23
198.36
196.3
193.19
189.41
185.65
182.64
180.66
179.33
177.6
174.21
168.19
159.32
148.27
136.25
124.53
113.91
104.63
96.52
89.52
83.96
80.66
80.63
84.66
93.08
105.73
122.01
140.79
160.17
177.29
188.62
191.08
183.39
167.26
147.26
129.45
119.01
118.36
126.42
139.54
153.26
164.16
170.48
171.81
168.04
158.7
142.84
119.67
89.34
53.27
14.02
-25.29
-61.75
-93.14
-118.14
-136.34
-148.18
-154.75
-157.56
-158.14
-157.6
-156.44
-154.57
-151.61
-147.38
-142.08
-136.26
-130.53
-125.11
-119.86
-114.48
-108.99
-104
-100.55
-99.57
-101.23
-104.67
-108.22
-110.16
-109.44
-106.04
-100.86
-95.18
-90.01
-85.82
-82.47
-79.55
-76.69
-73.81
-71.26
-69.74
-70.17
-73.31
-79.49
-88.25
-98.23
-107.39
-113.44
-114.51
-109.72
-99.45
-85.22
-69.12
-53.24
-38.99
-27
-17.26
-9.65
-4.38
-2.13
-3.87
-10.34
-21.58
-36.71
-54.14
-71.9
-88.07
-100.99
-109.34
-112.25
-109.44
-101.51
-90.21
-78.23
-68.71
-64.39
-66.74
-75.36
-88.17
-101.89
-113.07
-118.76
-116.79
-105.33
-82.43
-46.14
4.6
68.54
141.35
215.88
283.85
338.09
374.22
390.97
389.31
371.51
341.07
303.52
266.79
240.28
231.99
244.91
274.93
311.53
341.65
354.65
345.84
317.12
274.72
225.87
176.05
128.12
82.88
40.27
0.14
-37.61
-73.2
-106.77
-138.17
-166.78
-191.36
-210.51
-223.2
-229.05
-228.49
-222.53
-212.64
-200.47
-187.76
-175.85
-165.38
-156.17
-147.38
-138.12
-127.97
-117.25
-106.85
-97.86
-91.21
-87.43
-86.69
-88.83
-93.51
-100.23
-108.47
-117.74
-127.78
-138.36
-149.06
-158.93
-166.42
-169.73
-167.44
-159.06
-145.21
-127.35
-107.12
-85.84
-64.21
-42.43
-20.31
2.58
26.96
53.64
83.06
114.72
146.64
175.65
198.17
211.44
214.49
208.4
195.57
178.71
159.8
139.56
117.78
93.97
67.97
40.35
12.32
-14.63
-39.05
-59.56
-75.06
-84.55
-87.37
-83.39
-73.25
-58.38
-40.75
-22.45
-5.15
10.14
23.15
34.27
44.27
54.02
64.29
75.36
86.93
98.08
107.48
113.83
116.25
114.46
108.72
99.6
87.72
73.57
57.49
39.9
21.4
3
-13.96
-27.98
-37.64
-41.99
-40.77
-34.42
-24
-10.81
3.94
19.36
34.92
50.29
65.15
78.95
90.88
99.94
105.15
105.71
101.33
92.24
79.27
63.68
46.84
29.99
13.98
-0.85
-14.66
-28.02
-41.68
-56.33
-72.16
-88.51
-103.73
-115.43
-121.07
-118.78
-108.16
-90.52
-68.49
-45.28
-23.67
-5.45
8.73
19
25.77
29.43
30.27
28.6
24.9
19.87
14.29
8.79
3.54
-1.71
-7.48
-14.34
-22.58
-32.13
-42.65
-53.81
-65.35
-77.11
-88.69
-99.13
-106.91
-110.29
-108.02
-99.98
-87.44
-72.75
-58.51
-46.63
-37.91
-31.98
-27.87
-24.63
-21.81
-19.5
-18.09
-17.99
-19.32
-21.95
-25.55
-29.74
-34.16
-38.55
-42.69
-46.49
-49.97
-53.3
-56.82
-60.97
-66.2
-72.88
-81.09
-90.39
-99.73
-107.5
-111.93
-111.6
-106.02
-95.79
-82.42
-67.73
-53.26
-39.99
-28.34
-18.51
-10.75
-5.49
-3.2
-4.06
-7.81
-13.56
-19.86
-24.88
-26.83
-24.47
-17.59
-7.28
4.24
14.29
20.56
21.75
17.86
9.87
-0.79
-12.75
-24.83
-35.98
-45.03
-50.65
-51.58
-47.06
-37.12
-22.64
-5.08
13.98
33.26
51.94
69.59
85.87
100.33
112.27
120.99
126.03
127.54
126.32
123.64
120.84
118.8
117.71
117.13
116.24
114.3
110.94
106.25
100.59
94.37
87.84
80.95
73.4
64.52
53.48
39.52
22.41
2.92
-17.12
-35.12
-48.55
-55.74
-56.43
-51.69
-43.3
-33.14
-22.65
-12.86
-4.56
1.51
4.66
4.57
1.56
-3.35
-8.69
-13.02
-15.48
-16.01
-15.29
-14.36
-14.11
-14.94
-16.63
-18.59
-20.17
-21.08
-21.54
-22.23
-24.07
-27.82
-33.82
-41.73
-50.48
-58.37
-63.44
-63.99
-59.12
-49.04
-35.06
-19.2
-3.5
10.52
22.13
31.38
38.62
44.14
47.87
49.52
48.91
46.21
42.11
37.6
33.6
30.51
28.16
25.85
22.82
18.67
13.6
8.25
3.39
-0.52
-3.58
-6.44
-9.99
-15.08
-22.16
-31.19
-41.52
-51.91
-60.7
-66.1
-66.68
-61.8
-51.98
-38.76
-24.19
-10.13
2.23
12.57
21.07
28.01
33.38
36.87
38.15
37.15
34.27
30.26
25.99
22.11
18.82
15.95
13.16
10.25
7.35
4.95
3.62
3.75
5.28
7.59
9.69
10.46
8.91
4.38
-3.22
-13.26
-24.24
-33.98
-40.07
-40.61
-34.96
-23.95
-9.54
5.88
20.52
33.52
44.9
55.05
64.03
71.32
76.06
77.55
75.75
71.44
65.94
60.54
56.01
52.37
49.01
45.16
40.29
34.37
27.85
21.32
15.21
9.49
3.71
-2.85
-10.86
-20.71
-32.35
-45.16
-57.98
-69.16
-76.86
-79.48
-76.23
-67.38
-54.29
-39
-23.58
-9.58
2.24
11.7
18.88
23.76
26.19
26.04
23.5
19.21
14.13
9.25
5.24
2.26
-0.04
-2.28
-4.94
-8.16
-11.62
-14.74
-17.03
-18.36
-19.13
-20.06
-21.88
-24.95
-29.07
-33.54
-37.29
-39.11
-37.89
-32.77
-23.45
-10.34
5.36
21.85
37.26
50.12
59.77
66.34
70.4
72.45
72.65
70.89
67
61.19
54.11
46.62
39.48
32.98
26.85
20.45
13.27
5.18
-3.33
-11.38
-18.05
-22.81
-25.74
-27.47
-28.97
-31.26
-35.16
-41.12
-49.11
-58.46
-67.77
-75.09
-78.34
-76.03
-67.82
-54.77
-39.08
-23.22
-9.22
1.92
10.12
15.79
19.34
20.88
20.37
17.98
14.23
9.97
6.06
3.01
0.86
-0.76
-2.31
-4.07
-6.01
-7.96
-9.77
-11.48
-13.34
-15.84
-19.48
-24.63
-31.36
-39.18
-46.96
-53.11
-55.98
-54.4
-48.22
-38.37
-26.66
-15.04
-5.04
2.63
8.03
11.63
13.89
14.94
14.66
12.9
9.75
5.64
1.25
-2.76
-5.92
-8.13
-9.51
-10.21
-10.28
-9.6
-8.09
-5.91
-3.58
-1.94
-1.95
-4.31
-9.1
-15.63
-22.48
-27.87
-30.1
-28.12
-21.85
-12.2
-0.74
10.84
21.29
29.98
36.9
42.35
46.59
49.67
51.51
52.08
51.58
50.45
49.19
48.1
47.12
45.86
43.76
40.34
35.41
29.1
21.77
13.84
5.62
-2.72
-11.22
-19.89
-28.61
-36.96
-44.07
-48.74
-49.73
-46.2
-38.14
-26.51
-13.01
0.41
12.18
21.5
28.4
33.33
36.81
39.01
39.79
38.9
36.31
32.42
27.9
23.51
19.68
16.45
13.46
10.31
6.75
2.91
-0.84
-4.08
-6.67
-8.8
-11.05
-14.07
-18.41
-24.25
-31.27
-38.62
-44.97
-48.72
-48.44
-43.35
-33.66
-20.64
-6.26
7.46
19.03
27.85
34.04
38.02
40.13
40.42
38.81
35.41
30.74
25.71
21.33
18.27
16.59
15.73
14.8
12.96
9.84
5.62
0.84
-3.86
-8.14
-12.01
-15.84
-20.11
-25.21
-31.29
-38.13
-45.08
-51.1
-54.84
-54.99
-50.75
-42.15
-30.19
-16.54
-3
9.09
19.16
27.3
33.91
39.21
43.11
45.28
45.49
43.9
41.13
38.05
35.44
33.67
32.62
31.78
30.54
28.54
25.71
22.33
18.69
14.87
10.64
5.49
-1.13
-9.52
-19.54
-30.59
-41.64
-51.4
-58.55
-62.02
-61.22
-56.25
-47.91
-37.47
-26.37
-15.83
-6.67
0.74
6.28
9.88
11.49
11.1
8.92
5.47
1.52
-2.15
-5.01
-6.95
-8.28
-9.55
-11.22
-13.46
-16.06
-18.6
-20.69
-22.17
-23.27
-24.49
-26.43
-29.53
-33.77
-38.48
-42.3
-43.43
-40.11
-31.24
-16.82
1.93
22.95
43.98
63.19
79.52
92.59
102.38
108.92
112.15
112.02
108.71
102.68
94.62
85.22
74.98
64.17
52.93
41.43
29.97
18.99
8.88
-0.1
-8.09
-15.6
-23.44
-32.53
-43.57
-56.67
-71.1
-85.2
-96.69
-103.3
-103.57
-97.39
-86.11
-72.05
-57.66
-44.75
-34.14
-25.71
-18.9
-13.24
-8.58
-5.02
-2.68
-1.43
-0.87
-0.45
0.32
1.62
3.35
5.28
7.27
9.41
12
15.32
19.36
23.71
27.68
30.64
32.42
33.51
35.01
38.33
44.69
54.67
68.06
83.88
100.73
117.13
131.89
144.17
153.5
159.62
162.44
162.05
158.79
153.24
146.07
137.68
127.88
115.86
100.5
80.88
56.91
29.44
-0.01
-29.88
-59.3
-88.28
-117.45
-147.35
-177.83
-207.75
-235.28
-258.49
-275.81
-286.26
-289.26
-284.35
-271.06
-249.1
-218.7
-180.75
-136.58
-87.47
-34.46
21.39
78.15
132.33
178.87
212.28
228.5
226.5
208.86
180.76
148.08
115.42
85.28
58.26
34.08
12.52
-6.36
-22.61
-36.91
-50.77
-66.03
-84.02
-104.93
-127.5
-149.31
-167.54
-179.85
-185.11
-183.69
-177.31
-168.29
-158.77
-149.95
-142
-134.34
-126.33
-117.81
-109.19
-101.2
-94.25
-88.08
-81.81
-74.26
-64.55
-52.36
-38.09
-22.55
-6.7
8.65
22.81
35.29
45.68
53.54
58.57
60.72
60.55
59.33
58.89
61.15
67.39
77.66
90.71
104.39
116.43
125.21
130.14
131.51
130.06
126.44
121.06
114.13
105.9
96.83
87.51
78.48
70.03
62.19
54.8
47.72
40.91
34.49
28.58
23.2
18.09
12.73
6.45
-1.49
-11.51
-23.42
-36.19
-47.94
-56.35
-59.37
-55.97
-46.55
-32.86
-17.32
-2.24
10.81
21.16
28.78
33.85
36.54
36.93
35.28
32.16
28.36
24.63
21.36
18.44
15.41
11.81
7.45
2.6
-2.19
-6.39
-9.77
-12.6
-15.54
-19.45
-25.13
-33.04
-43.04
-54.15
-64.6
-72.11
-74.48
-70.35
-59.82
-44.44
-26.71
-9.25
6.02
18.22
27.42
34.09
38.6
41.06
41.42
39.75
36.48
32.33
28.04
24.07
20.43
16.78
12.72
8.09
3.15
-1.54
-5.48
-8.48
-10.92
-13.69
-17.86
-24.29
-33.24
-44.11
-55.35
-64.78
-70.08
-69.55
-62.66
-50.31
-34.52
-17.74
-2.02
11.48
22.54
31.4
38.28
43.05
45.36
45.03
42.42
38.44
34.25
30.75
28.23
26.3
24.19
21.22
17.18
12.42
7.59
3.32
-0.18
-3.3
-6.92
-12.07
-19.56
-29.62
-41.59
-53.94
-64.45
-70.76
-71.03
-64.57
-52.16
-35.82
-18.12
-1.35
13.12
24.99
34.63
42.48
48.56
52.5
53.81
52.43
48.97
44.52
40.21
36.72
33.99
31.38
28.12
23.76
18.45
12.82
7.65
3.45
0.19
-2.66
-6.02
-10.84
-17.86
-27.34
-38.78
-50.82
-61.33
-67.87
-68.38
-61.93
-49.14
-31.98
-13.11
5.02
20.78
33.58
43.59
51.23
56.75
60.09
61.11
59.84
56.7
52.57
48.47
45.21
43.02
41.53
39.9
37.25
33.21
27.98
22.37
17.27
13.21
9.97
6.74
2.35
-4.14
-13.2
-24.57
-37.32
-49.96
-60.59
-67.32
-68.61
-63.77
-53.27
-38.66
-22.21
-6.12
8.06
19.76
29.15
36.72
42.65
46.74
48.56
47.88
45.02
40.85
36.56
33.04
30.6
28.81
26.8
23.75
19.29
13.65
7.52
1.63
-3.64
-8.38
-13.1
-18.47
-25.07
-33.25
-43.06
-54.18
-65.83
-76.65
-84.79
-88.34
-85.96
-77.48
-64.18
-48.43
-32.96
-19.99
-10.62
-4.86
-2
-1.21
-1.92
-3.81
-6.51
-9.35
-11.28
-11.13
-8.1
-2.27
5.21
12.42
17.19
17.85
13.65
4.73
-8.29
-24.82
-44.5
-66.92
-90.97
-114.36
-133.81
-146.08
-149.26
-143.87
-132.93
-121.07
-112.84
-111.23
-116.83
-128.03
-141.88
-155.28
-165.86
-172.32
-174.35
-172.25
-166.47
-157.26
-144.48
-127.67
-106.18
-79.31
-46.54
-7.82
35.84
81.99
126.53
164.49
191.45
205.16
206.58
199.6
189.52
180.89
175.72
173.01
169.66
162.25
148.93
130.34
109.41
90.11
75.99
68.95
68.89
74.01
81.7
89.57
95.9
99.85
101.06
99.38
94.73
87.27
77.64
66.97
56.72
48.11
41.76
37.46
34.34
31.3
27.44
22.39
16.35
9.85
3.43
-2.73
-8.89
-15.58
-23.2
-31.57
-39.62
-45.6
-47.59
-44.25
-35.31
-21.67
-4.99
12.86
30.29
46.13
59.55
69.91
76.78
80.12
80.46
78.83
76.5
74.51
73.44
73.36
74.14
75.72
78.28
82.17
87.61
94.59
102.75
111.47
119.93
127.14
132
133.5
131.24
126.02
120.09
116.77
119.3
129.48
146.61
167.46
187.4
202.1
209.08
208.39
202.13
193.21
184.09
175.98
168.87
162.01
154.65
146.32
136.89
126.21
113.85
99.05
81.03
59.26
33.89
5.53
-25.06
-57.36
-91.18
-126.26
-161.76
-195.97
-226.72
-252.05
-270.87
-283.05
-288.89
-288.49
-281.48
-267.53
-247.23
-222.74
-197.53
-175.29
-158.61
-148.17
-142.81
-140.3
-138.16
-134.06
-125.79
-111.35
-89.48
-60.45
-26.61
7.7
37.37
58.2
68.33
68.61
61.83
51.33
39.72
28.26
17.31
6.92
-2.49
-10.12
-15.24
-17.9
-19.13
-20.8
-24.83
-32.42
-43.55
-56.84
-69.99
-80.45
-86.19
-86.15
-80.45
-70.16
-56.9
-42.33
-27.88
-14.6
-3.25
5.6
11.56
14.49
14.73
12.98
10.23
7.42
5.14
3.49
2.19
0.71
-1.48
-4.78
-9.37
-15.2
-21.91
-28.81
-35.04
-39.69
-42.2
-42.6
-41.57
-40.21
-39.73
-41
-44.36
-49.43
-55.24
-60.34
-63.08
-61.92
-55.82
-44.59
-28.99
-10.61
8.51
26.48
41.96
54.32
63.6
70.26
74.79
77.56
78.63
77.84
75.04
70.27
63.99
57.05
50.4
44.77
40.36
36.76
33.27
29.17
24.15
18.36
12.29
6.49
1.27
-3.39
-7.8
-12.5
-18.1
-25.23
-34.42
-45.8
-58.81
-71.91
-82.67
-88.34
-86.68
-76.89
-60
-38.62
-16.14
4.37
20.89
32.77
40.41
44.81
47.08
48.19
48.89
49.68
50.82
52.25
53.54
54.02
52.89
49.54
43.77
35.84
26.48
16.59
7.04
-1.61
-9.23
-16.11
-22.82
-30.12
-38.78
-49.57
-63.03
-79.44
-98.45
-118.91
-138.76
-155.35
-165.95
-168.47
-162.2
-148.04
-128.29
-105.89
-83.66
-63.56
-46.45
-32.28
-20.54
-10.77
-2.84
3.05
6.46
6.94
4.25
-1.48
-9.72
-19.6
-30.05
-40.05
-48.86
-56.23
-62.42
-68.16
-74.42
-82.15
-92.02
-104.14
-118.14
-133.24
-148.57
-163.5
-177.82
-191.66
-205.17
-218.12
-229.61
-238.16
-241.99
-239.59
-230.15
-213.68
-190.94
-163.06
-131.23
-96.47
-59.59
-21.32
17.57
56.08
93.15
127.89
160.17
190.91
222.03
255.77
293.59
335.06
377.45
416.3
446.72
465.05
469.89
462.35
445.4
422.77
397.9
373.22
349.87
327.87
306.35
284.02
259.74
233.15
205.06
177.53
153.47
135.73
126.17
124.84
129.82
137.62
144.08
145.42
139.06
123.84
99.78
67.7
29.18
-13.13
-55.33
-92.59
-120.4
-136.13
-140.28
-136.42
-129.86
-125.35
-125.27
-129.09
-134.29
-138.08
-138.9
-136.98
-133.91
-131.72
-131.91
-135.09
-140.95
-148.49
-156.22
-162.53
-165.91
-165.37
-160.62
-152.25
-141.55
-130.13
-119.36
-109.98
-101.93
-94.53
-86.86
-78.25
-68.56
-58.17
-47.71
-37.74
-28.62
-20.61
-14.13
-9.84
-8.49
-10.54
-15.87
-23.79
-33.3
-43.48
-53.82
-64.1
-74.23
-84.06
-93.35
-101.92
-109.68
-116.47
-121.77
-124.37
-122.59
-114.84
-100.53
-80.57
-57.23
-33.39
-11.39
7.63
23.83
37.85
49.61
57.53
58.51
49.04
26.76
-7.96
-51.62
-98.39
-141.93
-177.36
-202.5
-217.92
-225.86
-228.92
-228.92
-226.92
-223.61
-219.84
-216.69
-215.06
-215.12
-216.07
-216.47
-214.84
-210.29
-202.69
-192.4
-179.84
-165.2
-148.4
-129.28
-107.67
-83.45
-56.49
-26.83
5.01
37.58
68.38
94.17
111.87
119.66
117.67
108.04
94.22
79.82
67.47
58.34
52.19
48.08
45.14
43.1
42.22
42.81
44.59
46.42
46.66
44.24
39.55
34.72
32.8
36.32
45.8
59.41
73.86
86.3
96.01
105.03
117.22
136.45
164.62
200.6
240.5
278.93
310.59
331.62
340.37
337.6
326.16
310.24
294.16
281.1
272.21
266.58
262.33
257.94
253.34
249.61
247.61
246.46
242.94
232.71
212.6
182.75
147.05
111.54
81.6
59.72
44.81
33.53
22.31
8.99
-6.74
-23.99
-41.73
-59.45
-77.31
-95.88
-115.83
-137.65
-161.58
-187.53
-215.01
-243.24
-271.2
-297.75
-321.33
-339.89
-350.91
-352.16
-342.75
-324.05
-299.56
-273.69
-249.76
-228.52
-207.92
-184.55
-155.63
-120.51
-80.74
-38.74
3.98
47.86
94.66
145.64
199.74
253.01
299.65
334.27
353.89
358.85
351.98
337.12
317.56
295.25
270.84
244.15
214.73
182.18
146.5
108.41
69.69
33.02
1.26
-23.69
-41.86
-55.29
-67.08
-79.96
-94.88
-110.51
-123.77
-131.09
-129.7
-118.58
-98.51
-71.79
-41.41
-10.6
17.64
40.67
56.51
64.16
63.82
56.8
45.05
30.32
13.61
-4.98
-25.83
-49.16
-74.68
-101.53
-128.64
-155.01
-179.69
-201.53
-219
-230.45
-234.87
-232.73
-226.32
-219.18
-214.68
-214.42
-217.38
-220.15
-218.33
-208.32
-188.61
-159.91
-124.3
-83.94
-40.48
4.85
50.45
93.75
131.41
160.22
178.32
185.88
184.86
178.13
168.28
157
144.86
131.74
117.15
100.67
82.12
61.93
41.34
22.36
7.18
-2.71
-7.38
-8.64
-9.32
-11.9
-17.11
-23.49
-27.99
-27.6
-20.86
-8.54
6.7
21.65
33.93
42.77
48.76
53.06
56.51
59.15
60.48
60.04
57.91
54.87
51.96
49.91
48.67
47.43
44.98
40.38
33.44
24.8
15.66
7.17
-0.08
-6.23
-12.12
-18.86
-27.4
-38.01
-49.85
-61.01
-68.82
-70.59
-64.7
-51.33
-32.55
-11.68
7.93
24
35.88
44.19
50.05
54.28
57.01
57.9
56.69
53.56
49.14
44.26
39.48
34.92
30.37
25.56
20.49
15.56
11.3
8.11
5.86
3.81
0.81
-4.28
-12.06
-22.19
-33.26
-43.09
-49.26
-49.94
-44.47
-33.57
-19.06
-3.18
12.12
25.67
37.03
46.26
53.48
58.66
61.68
62.59
61.71
59.59
56.79
53.69
50.44
47.12
43.84
40.89
38.52
36.85
35.64
34.41
32.64
30.02
26.54
22.36
17.68
12.61
7.38
2.64
-0.39
-0.1
4.92
15.16
29.77
46.8
63.87
79.1
91.58
101.16
107.82
110.93
109.18
101.21
86.66
66.94
45.17
25.22
10.23
1.64
-1.08
0.47
4.79
11.34
20.62
33.19
48.27
62.95
72.64
72.62
60.24
36.18
4.42
-29.26
-59.34
-82.07
-95.77
-100.27
-96.04
-83.83
-64.99
-41.85
-17.77
3.65
19.63
29.13
32.85
32.5
29.92
26.42
22.88
19.93
18.22
18.38
20.71
24.88
29.9
34.62
38.2
40.64
42.79
45.96
51.28
59.11
68.83
78.91
87.29
91.78
90.65
83.12
69.9
53.41
37.53
26.49
23.42
29.03
41.06
55.09
66.25
70.99
68.2
59.05
45.96
31.35
16.84
3.13
-9.43
-20.39
-29.02
-34.6
-36.79
-35.83
-32.44
-27.48
-21.61
-15.19
-8.32
-1.09
6.08
12.27
16.03
15.69
9.93
-1.58
-17.89
-36.97
-56.44
-74.45
-90.08
-103.24
-113.94
-121.64
-125.16
-123.15
-114.99
-101.42
-84.43
-66.64
-50.32
-36.83
-26.65
-19.86
-16.6
-17.16
-21.54
-28.81
-36.86
-42.73
-43.58
-37.77
-25.67
-9.54
7.43
22.38
33.89
42.06
47.9
52.26
55.16
55.72
52.81
45.78
34.81
20.87
5.45
-9.61
-22.1
-29.44
-29.12
-19.53
-0.94
24.12
51.37
76.21
95.27
107.31
113
113.95
111.56
106.59
99.32
90.24
80.29
70.65
62.12
54.66
47.3
38.77
28.27
15.89
2.71
-9.81
-20.4
-28.42
-33.95
-37.78
-41.26
-46.15
-54.41
-67.69
-86.78
-111.08
-138.65
-166.58
-191.79
-211.81
-225.27
-232.07
-233.17
-230.37
-226
-222.52
-222.02
-225.62
-233.24
-243.57
-254.63
-264.38
-271.33
-274.81
-275.04
-273.15
-270.9
-270.36
-273.19
-279.69
-288.06
-294.61
-295.02
-286.41
-268.85
-245.49
-220.98
-199
-180.56
-163.81
-145.6
-123.62
-97.78
-70.12
-43.32
-19.12
2.62
23.51
45.58
70.16
97.49
126.77
156.57
185.15
210.6
231.15
245.67
253.92
256.63
255.16
250.83
244.55
236.86
228.29
219.85
212.95
208.91
208.36
210.78
214.83
218.94
222.02
223.66
223.95
223.19
221.84
220.86
221.88
227.03
238.16
255.74
278.24
302.27
323.53
338.21
344.13
341.05
330.32
314.09
294.54
273.46
252.17
231.68
212.64
195.48
180.24
166.54
153.64
140.53
126.25
110.14
92.08
72.53
52.34
32.45
13.48
-4.46
-21.75
-39.09
-57.15
-76.45
-97.28
-119.82
-144.06
-169.74
-196.05
-221.64
-244.9
-264.48
-279.9
-291.8
-301.69
-311.29
-321.88
-333.96
-347.37
-361.56
-375.92
-389.87
-402.85
-414.17
-422.99
-428.24
-428.73
-423.24
-410.87
-391.32
-365.27
-334.34
-300.67
-266.28
-232.45
-199.45
-166.77
-133.6
-99.28
-63.26
-25.07
15.84
59.61
105.47
151.18
193.28
227.9
252.08
264.84
267.42
262.6
253.48
242.37
230.37
217.49
203.37
187.76
170.79
152.86
134.52
116.48
99.57
84.7
72.59
63.4
56.59
51.02
45.39
38.76
30.96
22.6
15.04
10.1
9.7
15.45
28.12
47.25
70.99
96.44
120.38
140.16
154.37
163.02
167.16
168.13
166.88
163.56
157.61
148.21
134.75
117.15
95.9
71.85
45.87
18.74
-8.81
-35.88
-61.31
-83.87
-102.77
-118.1
-130.99
-143.28
-156.71
-172.09
-188.63
-203.91
-214.49
-216.94
-208.92
-189.94
-161.63
-127.42
-91.66
-58.68
-31.79
-12.63
-1.09
4.41
6.14
6.4
6.83
8.21
10.44
12.74
14.04
13.37
10.18
4.64
-2.41
-9.62
-15.59
-19.55
-21.85
-24.05
-28.48
-37.43
-52.27
-72.85
-97.35
-122.57
-144.5
-159.09
-163.03
-154.45
-133.46
-102.14
-64.22
-24.09
14.15
47.59
74.91
96.28
112.85
126.03
136.95
146.12
153.52
158.84
161.94
163.14
163.26
163.39
164.43
166.65
169.48
171.64
171.71
168.67
162.38
153.36
142.33
129.56
114.81
97.95
79.77
62.45
49
41.77
40.73
42.72
42.36
34.29
15.52
-13.31
-48.62
-85.82
-121.29
-153.31
-181.74
-206.88
-228.76
-247.15
-262.26
-275.24
-288.13
-302.94
-320.45
-339.41
-356.65
-367.96
-369.51
-359.14
-336.87
-304.77
-266.05
-224.12
-181.8
-140.83
-101.81
-64.48
-28.2
7.36
41.68
73.34
100.28
120.57
133.21
138.6
138.4
134.87
130.12
125.51
121.6
118.44
115.96
114.1
112.59
110.75
107.42
101.43
92.11
79.75
65.6
51.34
38.34
27.12
17.26
7.99
-1.17
-10
-17.79
-23.69
-27.27
-28.48
-27.32
-23.55
-16.7
-6.5
6.58
21.36
36.28
50.14
62.53
73.71
84.11
93.79
102.19
108.4
111.7
112
109.94
106.65
103.24
100.43
98.34
96.6
94.63
91.88
88.07
83.23
77.55
71.26
64.3
56.26
46.3
33.43
17.01
-2.59
-23.56
-42.74
-56.39
-61.51
-57.05
-44.52
-27.58
-10.72
2.34
9.75
11.85
10.42
7.66
5.11
3.28
1.8
0.05
-2.29
-5.01
-7.62
-9.87
-12.05
-15
-19.55
-25.96
-33.52
-40.81
-46.48
-49.98
-52.02
-54.21
-58.26
-65
-73.84
-82.92
-89.71
-91.86
-87.96
-77.92
-62.86
-44.85
-26.36
-9.76
3.21
11.69
15.78
16.35
14.69
12.19
10.06
9.16
9.84
11.8
14.05
15.09
13.45
8.33
0.05
-9.87
-19.38
-26.69
-31.13
-33.28
-34.62
-36.65
-40.07
-44.51
-48.59
-50.6
-49.06
-43.19
-33.04
-19.45
-3.81
12.24
27.07
39.43
48.6
54.45
57.31
57.66
55.93
52.48
47.93
43.38
40.51
41.16
46.48
56.22
68.47
80.22
88.63
92.41
92.39
91.02
90.85
92.96
96.39
98.76
97.7
92.09
82.31
69.56
54.98
39.51
24.57
12.8
7.98
13.69
31.3
58.55
89.97
118.84
139.83
150.81
152.85
148.83
141.53
132.56
122.23
110.3
96.76
82.18
67.36
52.93
38.96
25.01
10.4
-5.42
-22.49
-40.21
-57.34
-72.35
-83.73
-90.28
-91.27
-86.43
-75.95
-60.62
-42.05
-22.71
-5.63
6.35
11.63
10.48
5.03
-1.68
-7.02
-9.95
-11.26
-12.94
-17.16
-25.38
-37.98
-54.08
-71.16
-84.77
-88.71
-76.62
-44.92
4.27
62.33
116.46
154.7
171
167.69
153.68
139.38
131.38
129.94
130.45
127.46
118.58
105.68
93.18
84.67
80.62
78.15
73.05
62.47
46.54
28.5
12.9
3.36
0.72
2.49
3.75
-0.98
-15.51
-40.39
-72.46
-105.98
-134.86
-155.17
-166.65
-172.73
-178.87
-190.13
-209.18
-235.64
-266.77
-298.8
-327.97
-350.94
-364.6
-365.96
-352.65
-323.61
-280.08
-225.52
-164.69
-102.03
-40.29
20.46
82.44
148.9
221.91
300.3
378.79
448.95
501.82
531.34
536.6
522.05
495.29
463.75
432.18
402.02
372.71
343.59
315.23
289.12
266.57
247.54
230.5
213.26
194.25
173.25
151.25
129.95
110.73
94.08
79.47
65.74
51.64
36.44
20.11
3.31
-13.03
-28.14
-41.69
-53.92
-65.46
-77.03
-89.15
-102.03
-115.6
-129.71
-144.43
-160
-176.64
-194.08
-211.23
-226.27
-237.06
-242.02
-240.75
-234.32
-224.82
-214.57
-205.29
-197.67
-191.39
-185.68
-179.79
-173.32
-166.17
-158.39
-149.96
-140.83
-131.1
-121.12
-111.53
-103.12
-96.47
-91.72
-88.52
-86.15
-83.82
-80.95
-77.3
-72.92
-68.07
-62.98
-57.72
-52.2
-46.11
-39.05
-30.66
-20.8
-9.66
2.25
14.19
25.4
35.34
43.71
50.5
55.82
59.76
62.33
63.46
63.22
61.84
59.72
57.33
55
52.86
50.81
48.64
46.13
43.17
39.72
35.73
31.11
25.73
19.52
12.66
5.53
-1.32
-7.38
-12.36
-16.28
-19.42
-22.22
-25.13
-28.39
-32
-35.55
-38.51
-40.36
-40.81
-40
-38.4
-36.65
-35.22
-34.27
-33.61
-32.87
-31.75
-30.2
-28.44
-26.92
-26.01
-26
-26.94
-28.77
-31.24
-34.11
-37.04
-39.72
-41.77
-42.82
-42.61
-41.12
-38.71
-35.97
-33.65
-32.32
-32.21
-33.19
-34.96
-37.22
-39.91
-43.08
-46.77
-50.92
-55.27
-59.58
-63.7
-67.65
-71.51
-75.27
-78.72
-81.56
-83.66
-85.3
-87.19
-90.24
-95.12
-101.89
-109.9
-118.02
-125.13
-130.73
-135.13
-139.43
-144.99
-152.93
-163.6
-176.52
-190.79
-205.41
-219.76
-233.81
-248.03
-263.15
-280.09
-299.9
-323.54
-351.31
-382.06
-412.72
-438.48
-454.15
-455.97
-443.11
-418.03
-385.45
-350.48
-316.86
-286.21
-258.46
-232.89
-209.12
-187.3
-167.76
-150.46
-134.71
-119.49
-103.98
-87.94
-71.82
-56.56
-43.04
-31.76
-22.52
-14.65
-7.25
0.44
8.8
17.71
26.66
35.11
42.59
49.01
54.61
59.91
65.54
72
79.52
87.98
96.95
105.88
114.28
121.95
129.06
136.17
144.04
153.26
164.06
176.13
188.83
201.39
213.34
224.69
235.9
247.72
260.91
276.19
294.18
315.17
338.78
363.4
386.06
402.79
409.79
404.59
387.06
359.38
325.19
288.37
252.05
218.25
188.06
162.07
140.4
122.4
106.28
89.3
68.54
42.04
9.7
-26.38
-62.44
-94
-117.08
-129.09
-129.43
-119.42
-101.92
-80.49
-58.42
-37.9
-19.59
-3.09
12.2
25.91
36.25
40.59
36.77
24.64
6.49
-13.54
-31.15
-43.51
-50.07
-52.15
-51.7
-50.06
-47.46
-43.32
-37.12
-29.01
-19.99
-11.49
-4.86
-0.98
-0.18
-2.28
-6.69
-12.39
-18.02
-21.98
-22.68
-18.61
-8.5
8.53
32.38
61.3
91.53
117.75
134.56
138.34
128.69
108.56
82.9
56.52
32.36
11.05
-8.23
-26.13
-42.05
-54.08
-59.93
-58.22
-49.15
-34.25
-15.44
5.97
29.73
56.2
85.44
116.29
146.25
172.02
190.81
201.44
204.82
203.55
200.75
198.81
198.49
198.77
197.36
191.68
179.68
160.52
134.72
104.04
70.99
38.36
8.65
-16.27
-35.32
-48.29
-55.71
-58.72
-58.74
-57.1
-54.81
-52.37
-49.79
-46.8
-43.14
-38.84
-34.34
-30.4
-27.73
-26.54
-26.12
-24.92
-20.96
-12.68
0.32
17.02
35.38
53.28
69.43
83.82
97.34
110.85
124.43
137.11
147.47
154.5
158.4
160.67
163.61
169.42
179.43
193.79
211.43
230.4
248.11
261.7
268.5
266.76
256.45
239.8
221.01
205.14
196.38
196.51
204.12
214.99
223.56
224.72
215.23
194.37
163.58
125.54
83.18
39.01
-5.25
-48.63
-90.83
-131.93
-172.05
-210.95
-247.57
-280.1
-306.46
-324.9
-334.71
-336.4
-331.49
-321.89
-309.4
-295.41
-281.07
-267.4
-255.45
-246.01
-239.45
-235.44
-233.22
-231.93
-231.02
-230.4
-230.36
-231.29
-233.54
-237.32
-242.62
-249.26
-256.77
-264.31
-270.76
-275.02
-276.46
-275.34
-272.96
-271.34
-272.71
-278.77
-290.27
-306.89
-327.43
-350.15
-373.16
-394.54
-412.46
-425.25
-431.48
-430.09
-420.46
-402.36
-375.9
-341.5
-299.88
-252.13
-199.77
-144.63
-88.69
-33.7
19.09
69.03
115.94
159.85
200.65
238.01
271.48
300.79
326.09
348.17
368.25
387.86
408.61
432.1
459.65
491.55
526.3
560.12
587.49
602.66
601.87
584.75
554.58
516.85
476.97
438.33
401.64
365.7
328.85
290.36
250.76
211.43
173.65
138
104.43
72.72
43.09
16.33
-6.37
-24.14
-37.05
-46.21
-53.29
-59.64
-65.44
-69.52
-69.9
-64.81
-53.64
-37.35
-18.01
1.97
20.72
37.21
51.06
62.02
69.62
73.25
72.47
67.52
59.33
49.28
38.65
28.25
18.38
9.06
0.47
-7.07
-13.24
-18.11
-22.39
-27.15
-33.34
-41.29
-50.51
-59.87
-68.2
-74.65
-78.91
-81.06
-81.24
-79.51
-75.85
-70.3
-63.13
-54.79
-45.78
-36.45
-27.02
-17.7
