-20.75
-20.81
-20.07
-18.39
-16.09
-13.73
-11.84
-10.59
-9.79
-9.11
-8.33
-7.69
-7.77
-9.37
-13.03
-18.94
-26.86
-36.44
-47.49
-59.96
-73.84
-88.83
-104.05
-118.12
-129.47
-136.76
-139.38
-137.69
-132.98
-126.93
-120.76
-114.39
-106.09
-93.11
-72.97
-44.84
-10.27
27.01
62.34
91.69
112.82
125.6
131.49
132.69
131.2
128.24
124.15
118.3
109.19
94.67
72.74
42.7
6.32
-31.76
-65
-86.85
-93.18
-83.88
-62.91
-36.66
-11.52
8.26
21.3
28.35
30.88
29.96
26.06
19.66
11.91
4.73
0.1
-0.84
1.57
5.59
8.85
9.5
6.96
2.16
-2.95
-6.25
-6.25
-2.5
4.4
13.16
22.31
30.69
37.77
43.81
49.58
55.81
62.7
69.58
75.22
78.37
78.34
75.29
69.91
63.02
55.29
47.18
38.96
30.61
21.58
10.63
-3.76
-22.39
-44.39
-66.85
-85.67
-97.35
-100.59
-96.9
-89.59
-81.91
-75.41
-69.54
-62.56
-53.16
-41.7
-30.45
-22.89
-22.33
-30.37
-46.02
-65.79
-85.07
-99.85
-108.23
-110.74
-109.35
-105.91
-101.08
-94.37
-85.19
-73.89
-61.88
-50.73
-40.96
-31.34
-19.7
-4.37
14.42
34.49
52.81
67.13
76.88
83.06
87.34
91.01
94.42
96.94
97.46
94.82
88.26
77.69
63.81
47.9
31.46
15.67
0.98
-12.83
-26.34
-39.93
-53.34
-65.67
-75.42
-80.83
-80.18
-71.97
-55.3
-30.25
1.73
37.83
74.11
106.22
130.31
143.74
145.56
136.52
118.88
95.83
70.81
46.7
25.3
7.09
-8.38
-22.08
-34.78
-46.88
-58.32
-68.8
-77.97
-85.41
-90.73
-93.52
-93.48
-90.74
-85.96
-80.23
-74.65
-69.89
-65.89
-62.08
-57.85
-53
-47.93
-43.29
-39.42
-36.04
-32.36
-27.65
-21.85
-15.81
-10.83
-8
-7.56
-8.88
-10.99
-13.42
-16.57
-21.62
-29.83
-41.7
-56.59
-72.86
-88.5
-101.8
-111.81
-118.38
-121.81
-122.23
-119.4
-112.79
-102.05
-87.49
-70.15
-51.36
-32.14
-12.84
6.86
27.24
48.08
68.38
86.8
102.29
114.57
124.1
131.52
137.15
140.84
142.36
141.93
140.55
139.62
140.19
142.3
144.71
145.44
142.48
134.48
120.94
102.13
78.87
52.52
25
-1.3
-23.93
-41.09
-52.24
-58.23
-60.68
-61.04
-59.86
-56.68
-50.77
-42.02
-31.46
-20.93
-12.08
-5.38
0.22
6.72
15.89
28.1
41.84
54.17
61.76
62.14
54.43
39.47
19.55
-2.19
-22.47
-38.4
-47.95
-50.4
-46.54
-38.47
-28.95
-20.58
-15.01
-12.7
-13.1
-15.17
-17.9
-20.46
-22.2
-22.47
-20.67
-16.55
-10.48
-3.57
2.61
6.65
7.89
6.68
4.04
1.05
-1.58
-3.67
-5.29
-6.44
-6.98
-6.67
-5.52
-3.89
-2.39
-1.5
-1.36
-1.66
-1.85
-1.45
-0.28
1.53
3.54
5.24
6.17
5.98
4.48
1.71
-2.09
-6.43
-10.68
-14.02
-15.6
-14.64
-10.73
-3.93
5.15
15.55
26.26
36.53
45.88
53.93
60.16
63.92
64.54
61.76
55.86
47.59
37.86
27.33
16.34
5.01
-6.47
-17.64
-27.71
-35.73
-40.74
-41.98
-39.14
-32.56
-23.28
-13.09
-4.1
1.85
3.72
1.64
-3.32
-9.56
-15.66
-20.77
-24.76
-28.07
-31.34
-35.18
-40.02
-45.96
-52.83
-60.13
-67.14
-73.03
-77.14
-79.17
-79.18
-77.38
-73.82
-68.09
-59.46
-47.23
-31.4
-13.01
5.83
22.54
34.9
41.75
43.21
40.43
35.05
28.67
22.57
17.63
14.37
12.94
13
13.75
14.07
13
10.23
6.33
2.5
-0.08
-1.02
-1.01
-1.54
-3.97
-8.7
-14.75
-20.23
-23.37
-23.44
-21.15
-18.15
-16.03
-15.47
-15.91
-15.9
-13.59
-7.35
3.81
20.08
40.63
63.53
85.98
104.96
118.17
124.85
126.14
124.44
122.39
121.82
123.17
125.71
128.26
129.87
130.12
129.04
126.6
122.48
115.94
106.12
92.52
75.25
55.13
33.27
10.53
-12.73
-36.73
-61.8
-87.81
-113.71
-137.49
-156.72
-169.45
-175.01
-174.42
-169.96
-164.14
-158.78
-154.3
-150.08
-145.12
-139.06
-132.55
-126.89
-123.2
-121.62
-121.12
-119.98
-116.57
-109.99
-100.22
-87.73
-73.01
-56.46
-38.38
-19.25
0.14
18.86
36.11
51.46
64.86
76.43
86.16
93.83
98.98
101.09
99.81
95.1
87.3
77.12
65.64
54.09
43.79
35.87
31
29.23
29.9
31.9
34.01
35.23
34.99
33.33
30.72
27.99
26.04
25.66
27.29
30.96
36.28
42.52
48.82
54.36
58.54
61.09
62.13
62.11
61.69
61.57
62.16
63.49
65.28
66.98
68.03
67.76
65.37
59.94
50.68
37.36
20.65
2.24
-15.72
-31.22
-43.15
-51.46
-56.89
-60.36
-62.48
-63.32
-62.71
-60.65
-57.58
-54.3
-51.57
-49.57
-47.78
-45.11
-40.47
-33.5
-24.87
-16.11
-8.97
-4.67
-3.39
-4.25
-5.82
-6.77
-6.4
-4.76
-2.45
-0.26
1.16
1.51
0.88
-0.43
-2.06
-3.84
-5.88
-8.44
-11.68
-15.33
-18.58
-20.36
-19.86
-16.97
-12.52
-7.9
-4.56
-3.42
-4.64
-7.78
-11.97
-16.07
-18.7
-18.41
-14.12
-5.65
5.98
18.63
29.84
37.7
41.55
41.98
40.31
37.9
35.64
33.9
32.7
31.92
31.26
30.29
28.44
25.39
21.4
17.43
14.82
14.55
16.48
18.97
19.25
14.41
2.75
-15.45
-37.92
-61.31
-82.58
-99.98
-113.4
-123.83
-132.49
-140.24
-147.32
-153.56
-158.59
-161.71
-161.59
-156.2
-143.32
-121.5
-91.19
-55.08
-17.59
16.66
44.3
64.15
77.22
85.77
92.22
98.32
104.91
112.11
119.78
127.87
136.4
145.51
155.2
165.34
175.61
185.64
194.95
203.07
209.5
213.72
215.32
213.99
209.55
201.94
191.12
177.04
159.76
139.55
117.11
93.76
71.26
51.62
36.54
27.1
23.42
24.69
29.39
35.54
41.15
44.48
44.36
40.42
33.18
23.93
14.32
5.75
-1.25
-7.24
-13.65
-22.16
-33.96
-49.28
-67.21
-86.16
-104.27
-120
-132.33
-140.84
-145.54
-146.79
-145.09
-141.07
-135.37
-128.56
-121.12
-113.32
-105.29
-97.15
-89.01
-81.21
-74.15
-68.25
-63.74
-60.56
-58.34
-56.56
-54.76
-52.6
-50.04
-47.26
-44.75
-43.12
-43.05
-45.01
-49
-54.41
-60.08
-64.54
-66.47
-65.12
-60.48
-53.18
-44.29
-34.94
-26.1
-18.4
-12.19
-7.61
-4.61
-3.02
-2.5
-2.59
-2.72
-2.36
-1.21
0.75
3.15
5.46
7.09
7.68
7.2
5.97
4.46
3.04
1.82
0.56
-1.19
-3.78
-7.26
-11.25
-15.11
-18.13
-19.79
-19.85
-18.35
-15.54
-11.77
-7.48
-3.18
0.62
3.44
4.97
5.21
4.43
3.12
1.88
1.13
1.12
1.88
3.23
4.92
6.64
8.12
9.11
9.5
9.3
8.69
7.99
7.47
7.13
6.64
5.4
2.8
-1.32
-6.53
-11.8
-15.86
-17.67
-16.73
-13.24
-7.95
-1.87
4.05
9.12
12.95
15.47
16.75
16.97
16.26
14.74
12.61
10.2
8.01
6.56
6.24
7.04
8.62
10.4
11.72
12.08
11.22
9.11
6
2.33
-1.4
-4.66
-7.14
-8.83
-9.98
-10.85
-11.54
-11.82
-11.22
-9.29
-5.85
-1.11
4.37
9.88
14.65
17.98
19.23
17.94
14.03
7.98
0.86
-5.9
-10.99
-13.73
-14.3
-13.6
-12.74
-12.62
-13.64
-15.79
-18.96
-23.06
-28.07
-33.78
-39.69
-45.1
-49.44
-52.56
-54.72
-56.32
-57.41
-57.6
-56.28
-53.23
-48.98
-44.6
-41.04
-38.4
-35.83
-32
-26.07
-18.26
-9.85
-2.37
3.32
7.41
10.89
14.75
19.39
24.51
29.58
34.35
39.06
44.28
50.34
57.07
63.82
69.78
74.29
77.15
78.48
78.59
77.8
76.33
74.32
71.9
69.26
66.65
64.37
62.75
61.96
61.97
62.44
62.83
62.58
61.3
58.84
55.27
50.72
45.34
39.3
32.76
26.02
19.43
13.25
7.63
2.46
-2.58
-7.82
-13.43
-19.3
-25.02
-29.98
-33.53
-35.12
-34.41
-31.28
-25.8
-18.24
-9.12
0.76
10.37
18.62
24.61
27.85
28.36
26.62
23.47
19.79
16.35
13.6
11.6
10.08
8.51
6.3
2.97
-1.72
-7.7
-14.6
-21.79
-28.48
-33.83
-37.19
-38.29
-37.42
-35.26
-32.67
-30.28
-28.34
-26.66
-24.93
-22.87
-20.47
-17.94
-15.58
-13.66
-12.33
-11.55
-11.1
-10.63
-9.74
-8.13
-5.59
-2.12
2.11
6.83
11.67
16.2
20
22.73
24.22
24.56
24.08
23.21
22.28
21.39
20.47
19.42
18.26
17.21
16.5
16.29
16.53
17.02
17.46
17.62
17.33
16.5
15.1
13.16
10.83
8.35
6.06
4.26
3.19
2.93
3.44
4.56
6.05
7.66
9.18
10.55
11.84
13.17
14.54
15.72
16.24
15.58
13.51
10.32
6.71
3.59
1.52
0.56
0.23
-0.16
-1.16
-2.96
-5.4
-8.18
-11.05
-14.05
-17.28
-20.87
-24.79
-28.81
-32.62
-35.95
-38.6
-40.46
-41.37
-40.99
-38.75
-34.08
-26.66
-16.63
-4.7
8.06
20.62
32.24
42.6
51.59
59.08
64.89
68.75
70.7
71.2
71.09
71.22
72.08
73.54
74.99
75.65
74.89
72.41
68.21
62.46
55.36
47.14
38.12
28.71
19.29
10.06
0.98
-8.15
-17.5
-27.02
-36.37
-44.99
-52.42
-58.38
-62.84
-65.91
-67.72
-68.38
-68.02
-66.87
-65.2
-63.36
-61.64
-60.18
-59.06
-58.34
-58.07
-58.28
-58.84
-59.33
-59.2
-57.87
-54.98
-50.63
-45.29
-39.69
-34.46
-29.99
-26.29
-23.02
-19.74
-16.1
-12.02
-7.64
-3.22
0.96
4.69
7.83
10.27
11.92
12.68
12.5
11.5
9.93
8.11
6.35
4.81
3.52
2.41
1.38
0.29
-0.98
-2.58
-4.56
-6.85
-9.23
-11.41
-13.12
-14.22
-14.77
-15.03
-15.25
-15.58
-15.99
-16.27
-16.16
-15.51
-14.36
-12.99
-11.81
-11.24
-11.5
-12.55
-14.12
-15.84
-17.48
-19.08
-20.96
-23.56
-27.12
-31.49
-36.08
-40.01
-42.42
-42.75
-40.84
-36.89
-31.33
-24.65
-17.36
-9.92
-2.78
3.64
9.01
13.12
15.94
17.51
17.95
17.47
16.29
14.65
12.73
10.67
8.51
6.31
4.15
2.16
0.48
-0.79
-1.62
-2.1
-2.41
-2.73
-3.21
-3.98
-5.07
-6.48
-8.15
-9.92
-11.65
-13.25
-14.68
-15.97
-17.15
-18.2
-18.95
-19.12
-18.39
-16.6
-13.79
-10.27
-6.56
-3.15
-0.42
1.55
2.9
3.93
4.84
5.72
6.4
6.64
6.19
4.92
2.89
0.36
-2.34
-4.86
-6.89
-8.24
-8.83
-8.71
-7.99
-6.9
-5.66
-4.48
-3.53
-2.83
-2.3
-1.78
-1.05
0.05
1.54
3.32
5.21
7.05
8.75
10.28
11.66
12.95
14.13
15.16
15.94
16.36
16.31
15.8
14.98
14.1
13.41
13.03
12.85
12.58
11.92
10.73
9.11
7.37
5.77
4.49
3.45
2.48
1.49
0.59
0.11
0.4
1.63
3.63
5.92
7.93
9.22
9.67
9.42
8.7
7.69
6.41
4.84
3.1
1.43
0.16
-0.58
-0.94
-1.35
-2.26
-3.93
-6.21
-8.69
-10.89
-12.54
-13.57
-14.19
-14.6
-14.94
-15.3
-15.73
-16.31
-17.21
-18.63
-20.68
-23.28
-26.1
-28.6
-30.17
-30.36
-29.13
-26.82
-24.06
-21.34
-18.8
-16.13
-12.86
-8.75
-4.1
0.22
3.15
3.84
1.99
-2.04
-7.48
-13.47
-19.41
-25.03
-30.33
-35.37
-40.08
-44.3
-47.8
-50.39
-52
-52.69
-52.54
-51.53
-49.47
-46
-40.82
-33.76
-24.99
-14.94
-4.25
6.48
16.78
26.3
34.8
42.04
47.75
51.78
54.23
55.46
55.98
56.19
56.21
55.85
54.74
52.57
49.3
45.16
40.49
35.52
30.24
24.42
17.9
10.81
3.72
-2.46
-6.77
-8.51
-7.45
-3.89
1.5
7.93
14.71
21.31
27.34
32.44
36.41
39.19
41.01
42.36
43.86
46.08
49.35
53.58
58.3
62.8
66.3
68.19
68.16
66.18
62.58
57.79
52.31
46.53
40.71
35
29.46
24.15
19.17
14.65
10.84
8.02
6.5
6.47
7.93
10.71
14.51
18.99
23.88
28.99
34.13
39.15
43.86
48.15
52.04
55.71
59.31
62.87
66.16
68.82
70.53
71.11
70.65
69.32
67.12
63.73
58.53
50.8
40.07
26.49
10.85
-5.48
-20.92
-34.12
-44.24
-51.04
-54.92
-56.62
-57.01
-56.92
-57.03
-57.76
-59.28
-61.42
-63.75
-65.76
-67.05
-67.47
-67.1
-66.11
-64.7
-62.95
-60.9
-58.56
-55.94
-52.92
-49.2
-44.34
-37.91
-29.67
-19.89
-9.3
1.12
10.39
17.84
23.17
26.43
27.84
27.72
26.45
24.42
22
19.48
17.01
14.58
12.05
9.3
6.28
3.09
-0.15
-3.31
-6.37
-9.4
-12.49
-15.64
-18.66
-21.3
-23.22
-24.26
-24.56
-24.48
-24.53
-25.15
-26.54
-28.63
-31.2
-34.03
-37.04
-40.25
-43.71
-47.42
-51.25
-54.92
-58.08
-60.37
-61.52
-61.44
-60.32
-58.59
-56.92
-56
-56.31
-58.04
-61
-64.81
-69.02
-73.32
-77.59
-81.88
-86.26
-90.69
-94.94
-98.69
-101.68
-103.92
-105.85
-108.06
-111.03
-114.84
-119.01
-122.76
-125.47
-127
-127.82
-128.77
-130.47
-132.99
-135.6
-136.99
-135.62
-129.99
-118.74
-100.85
-75.77
-43.75
-6.26
34.04
73.63
108.88
137.02
156.73
168.25
172.93
172.51
168.53
162.13
154.08
145.1
135.99
127.56
120.41
114.56
109.41
103.89
96.94
88.02
77.42
66.11
55.3
45.79
37.65
30.32
23.1
15.77
8.79
3.06
-0.62
-2.12
-2.12
-1.75
-2.05
-3.54
-6.03
-8.88
-11.37
-12.98
-13.55
-13.27
-12.54
-11.75
-11.29
-11.39
-12.22
-13.84
-16.1
-18.62
-20.64
-21.19
-19.33
-14.5
-6.77
3.05
13.8
24.29
33.66
41.39
47.28
51.26
53.45
54.11
53.68
52.52
50.67
47.67
42.77
35.39
25.65
14.51
3.56
-5.66
-12.17
-15.87
-17.42
-17.67
-17.36
-16.94
-16.66
-16.79
-17.78
-20.06
-23.84
-29.01
-35.14
-41.76
-48.57
-55.5
-62.5
-69.42
-75.83
-81.17
-85.03
-87.33
-88.26
-88.09
-86.87
-84.44
-80.64
-75.6
-69.9
-64.34
-59.63
-55.92
-52.81
-49.55
-45.49
-40.49
-34.89
-29.41
-24.77
-21.45
-19.59
-19.09
-19.55
-20.42
-21.04
-20.84
-19.48
-17.05
-13.97
-10.81
-7.97
-5.42
-2.66
1
6.04
12.44
19.53
26.25
31.6
34.96
36.27
35.98
34.7
33.01
31.3
29.69
28.21
26.96
26.18
26.26
27.56
30.37
34.75
40.59
47.69
55.85
64.87
74.36
83.63
91.7
97.47
100.09
99.32
95.59
89.89
83.35
76.86
70.83
65.32
60.24
55.63
51.67
48.58
46.34
44.64
42.94
40.86
38.32
35.76
33.83
33.03
33.37
34.3
34.96
34.6
32.88
29.94
26.15
21.83
16.99
11.46
5.08
-2.03
-9.32
-15.92
-20.93
-23.79
-24.38
-23.08
-20.47
-17.2
-13.87
-11.04
-9.31
-9.18
-11.01
-14.75
-19.94
-25.8
-31.52
-36.53
-40.64
-43.95
-46.69
-49.01
-50.98
-52.55
-53.77
-54.79
-55.96
-57.6
-60.01
-63.11
-66.48
-69.32
-70.69
-69.75
-66.18
-60.24
-52.79
-44.88
-37.45
-31.02
-25.7
-21.38
-17.94
-15.34
-13.7
-12.99
-13.04
-13.5
-13.9
-13.91
-13.42
-12.59
-11.62
-10.75
-10.08
-9.56
-9.04
-8.2
-6.63
-3.78
0.94
8.26
18.67
32.27
48.6
66.77
85.7
104.57
123
141.08
159.28
177.73
195.8
212.11
224.93
232.87
235.34
232.76
226.16
217.25
207.26
196.72
185.61
173.72
161.21
148.73
137.31
127.81
121.46
118.53
118.44
120
121.97
123.65
125.14
127.22
130.95
138.55
151.64
170.6
193.96
218.28
238.82
251.03
252.12
234.67
196.56
140.14
71.58
-1.15
-70.76
-132.39
-183.71
-224.09
-253.89
-272.93
-281.94
-282.72
-277.77
-269.63
-260.25
-250.65
-240.99
-231.15
-220.24
-207.87
-194.33
-180.38
-166.92
-154.65
-143.8
-134.18
-125.44
-116.82
-107.87
-98.6
-89.32
-80.53
-72.61
-65.71
-59.72
-54.46
-49.5
-44.59
-39.67
-34.86
-30.38
-26.37
-22.92
-19.98
-17.45
-15.16
-12.99
-10.9
-8.89
-7.02
-5.35
-3.9
-2.67
-1.63
-0.75
-0.01
0.6
1.15
1.63
2.08
2.51
2.94
3.38
3.82
4.28
4.75
5.21
5.7
6.2
6.72
7.24
7.76
8.29
8.83
9.41
10.04
10.78
11.73
12.92
14.39
16.1
17.93
19.72
21.2
21.97
21.74
20.18
17.04
12.17
5.64
-2.29
-11.2
-20.5
-29.56
-37.64
-44.07
-48.4
-50.33
-49.82
-47.02
-42.21
-35.41
-27.48
-19.01
-10.43
-2.07
5.89
13.32
20.18
26.44
32.05
36.83
40.63
43.24
44.44
44.1
42.23
38.9
34.35
28.85
22.61
15.92
9.02
2.17
-4.39
-10.35
-15.39
-19.25
-21.82
-23.25
-23.84
-24.02
-24.21
-24.63
-25.19
-25.62
-25.56
-24.81
-23.46
-21.88
-20.61
-20.08
-20.45
-21.42
-22.47
-23.06
-22.93
-22.25
-21.51
-21.22
-21.69
-23
-25.06
-27.8
-31.05
-34.12
-35.65
-33.75
-26.75
-14.28
2.12
19.36
33.98
43.51
47.37
46.61
43.03
38.1
32.51
26.54
20.71
16.15
14.2
15.52
19.41
23.71
25.59
22.59
13.47
-1.51
-20.21
-39.59
-56.49
-68.59
-74.99
-76.24
-73.76
-68.97
-62.74
-55.04
-45.45
-33.79
-20.53
-6.78
6.16
17.46
27.04
35.48
43.54
51.63
59.57
66.75
72.6
77.04
80.68
84.62
90.02
97.52
106.94
117.22
126.83
134.32
138.82
140.17
138.81
135.35
130.17
123.23
114.21
102.88
89.4
74.42
58.84
43.5
29.01
15.7
3.75
-6.62
-15.19
-21.86
-26.76
-30.38
-33.34
-36.24
-39.39
-42.84
-46.53
-50.34
-54.17
-57.97
-61.58
-64.78
-67.41
-69.39
-70.78
-71.71
-72.15
-71.97
-70.95
-68.91
-65.87
-62.04
-57.74
-53.28
-48.85
-44.53
-40.31
-36.1
-31.84
-27.47
-22.97
-18.43
-13.95
-9.79
-6.15
-3.28
-1.39
-0.65
-1.22
-3.21
-6.62
-11.26
-16.82
-22.76
-28.6
-33.91
-38.54
-42.61
-46.47
-50.57
-55.2
-60.38
-65.86
-71.18
-76.06
-80.45
-84.69
-89.25
-94.59
-100.83
-107.62
-114.04
-118.52
-119.06
-113.52
-100.02
-77.48
-45.98
-6.9
37.27
83.33
127.93
168.01
201.21
225.97
241.63
248.26
246.5
237.47
222.59
203.48
181.88
159.4
137.33
116.38
96.79
78.47
61.39
45.7
31.84
20.32
11.52
5.5
2.03
0.76
1.39
3.73
7.6
12.69
18.5
24.42
29.96
34.88
39.27
43.38
47.41
51.3
54.76
57.45
59.16
60.03
60.41
60.69
61.03
61.3
61.08
59.95
57.55
53.69
48.32
41.42
32.99
23.05
11.74
-0.65
-13.65
-26.64
-38.93
-49.79
-58.51
-64.56
-67.74
-68.27
-66.87
-64.48
-62.06
-60.13
-58.59
-56.77
-53.82
-49.26
-43.35
-37.12
-31.96
-29.08
-29.07
-31.81
-36.65
-42.79
-49.63
-56.79
-64.08
-71.35
-78.45
-85.28
-91.88
-98.53
-105.51
-112.9
-120.19
-126.25
-129.63
-129.12
-124.55
-116.93
-108.12
-99.88
-92.83
-86.07
-77.63
-65.58
-49.1
-28.81
-6.41
16.27
38.06
58.59
77.81
95.38
110.14
120.38
124.45
121.49
111.79
96.66
77.98
57.57
36.86
16.77
-2.08
-19.15
-33.85
-45.46
-53.35
-57.16
-56.99
-53.38
-47.33
-40.01
-32.64
-26.17
-21.19
-17.78
-15.62
-14.25
-13.33
-12.72
-12.57
-12.91
-13.58
-14.07
-13.79
-12.3
-10.11
-7.97
-6.45
-5.7
-5.48
-5.26
-4.26
-1.71
2.77
8.49
14.52
20.17
25.13
29.32
32.81
35.88
38.85
41.94
44.01
44.41
43.57
42.49
41.82
41.49
41.07
40.17
38.7
33.68
24.07
11.98
1
-6.8
-11.63
-14.96
-18.3
-22.61
-34.86
-58.1
-88.93
-120.56
-148.58
-172.49
-193.87
-214.3
-234.31
-264.06
-307.39
-357.75
-403.54
-437.44
-459.08
-472.2
-481.2
-489.57
-513.67
-561.6
-627.11
-694.96
-752.27
-792.53
-813.99
-818.26
-721.06
-501.17
-214.19
53.13
250.92
376.39
448.37
487.22
507.66
518.8
512.29
485.37
447.11
412.3
389.62
378.76
374.62
372.13
368.4
351.92
318.36
273.91
230.24
195.37
171.04
155.39
145.86
140.55
130.91
113.45
91.3
70.99
56.94
49.65
47.43
48.05
49.63
47.45
38.97
25.45
10.08
-4.7
-18.05
-30.05
-40.94
-50.84
-61.14
-72.66
-84.63
-95.89
-105.55
-113.18
-118.42
-120.63
-118.76
-111.21
-100.79
-88.63
-75.67
-62.63
-49.81
-37.1
-24.09
-10.33
4.34
19.58
35.29
50.91
65.88
79.96
93.28
106.28
119.6
133.91
149.63
167.38
186.87
206.74
224.57
237.39
242.55
238.74
226.49
207.89
186.15
164.07
143.39
124.67
107.74
92.36
78.51
66.27
55.45
45.53
35.53
24.45
11.82
-1.93
-15.5
-27.03
-34.77
-37.49
-34.79
-27.07
-15.38
-1.07
14.46
29.89
44.15
56.44
66.2
73.02
76.47
76.18
71.96
64.11
53.57
41.82
30.47
20.71
12.8
6.1
-0.5
-7.92
-16.43
-25.52
-34.23
-41.67
-47.52
-52.13
-56.43
-61.52
-68.31
-77.01
-86.95
-96.47
-103.25
-105
-100.14
-88.45
-71.21
-50.77
-29.67
-9.98
7.21
21.61
33.4
42.71
49.49
53.52
54.74
53.39
50.04
45.51
40.69
36.32
32.9
30.51
28.82
27.21
25.04
21.93
17.93
13.5
9.2
5.4
2.02
-1.37
-5.39
-10.53
-16.93
-24.36
-32.14
-39.21
-44.26
-45.97
-43.3
-35.97
-24.61
-10.7
3.8
17.05
27.81
35.73
41.2
45.06
48.09
50.78
53.29
55.55
57.59
59.54
61.74
64.45
67.73
71.27
74.56
77.14
78.93
80.34
81.99
84.28
86.94
88.9
88.6
84.63
76.37
64.25
49.81
35.12
22.41
13.6
10
12.1
19.54
30.99
44.39
57.37
67.87
74.61
77.31
76.43
72.74
66.92
59.42
50.61
41
31.3
22.22
14.26
7.42
1.38
-4.36
-10.19
-16.16
-22.07
-27.63
-32.67
-37.07
-40.85
-44.13
-47.17
-50.35
-54.15
-58.72
-63.72
-68.09
-70.37
-69.11
-63.42
-53.17
-38.9
-21.42
-1.5
20.23
43.09
66.1
87.89
106.97
122.18
133.02
139.67
142.75
142.76
139.79
133.62
123.98
111
95.32
77.77
58.95
38.89
17.16
-6.78
-32.97
-60.73
-88.77
-115.58
-139.96
-161.23
-179.15
-193.71
-204.9
-212.66
-216.89
-217.6
-214.88
-208.95
-200.11
-188.65
-174.86
-158.96
-141.2
-121.81
-101.21
-80
-58.98
-39.03
-20.84
-4.7
9.56
22.48
34.66
46.46
57.87
68.57
78.12
86.36
93.52
100.26
107.39
115.49
124.56
133.87
142.3
148.71
152.59
154.29
155.04
156.55
160.44
167.67
178.3
191.35
204.97
216.7
223.91
224.38
216.94
201.81
180.62
155.75
129.47
103.12
76.83
49.9
21.49
-8.77
-40.45
-72.5
-103.65
-132.85
-159.52
-183.58
-205.37
-225.32
-243.81
-260.97
-276.65
-290.65
-302.82
-313.16
-321.68
-328.1
-331.57
-330.75
-324.17
-310.68
-289.94
-262.46
-229.52
-192.9
-154.6
-116.72
-81.08
-49.01
-21.14
2.59
22.62
39.36
52.93
63.14
69.83
73.17
73.85
72.84
71.02
68.85
66.27
62.84
58.11
51.8
43.82
34.21
23.14
11
-1.28
-12.15
-19.72
-22.28
-19.07
-10.65
1.17
13.93
25.29
33.73
38.71
40.54
39.88
37.51
34.07
30.18
26.44
23.35
21.18
19.78
18.66
17.13
14.66
11.07
6.66
1.9
-2.74
-7.11
-11.42
-16.23
-22.2
-29.8
-39.05
-49.18
-58.6
-65.2
-66.96
-62.74
-52.78
-38.72
-23.08
-8.29
4.06
13.51
20.5
25.8
29.96
33.17
35.34
36.33
36.13
34.78
32.26
28.45
23.27
16.83
9.64
2.52
-3.7
-8.62
-12.43
-15.93
-20.07
-25.63
-32.82
-41.15
-49.57
-56.64
-60.81
-60.82
-56.02
-46.66
-34
-20.05
-6.99
3.47
10.53
14.34
15.71
15.48
14.17
11.82
8.12
2.66
-4.66
-13.43
-22.58
-30.58
-35.81
-37.23
-34.87
-29.96
-24.52
-20.54
-19.26
-20.82
-24.71
-30.17
-36.69
-43.8
-50.64
-55.73
-57.02
-52.81
-42.58
-27.53
-10.23
6.37
20.09
30.15
37.05
41.92
45.72
48.9
51.4
53.06
53.87
54.11
54.1
54.02
53.74
52.96
51.43
49.06
45.95
42.27
38.02
32.92
26.43
18.03
7.57
-4.37
-16.32
-26.32
-32.63
-34.38
-31.94
-26.63
-20.13
-13.88
-8.82
-5.49
-4.25
-5.44
-9.35
-16.21
-26.03
-38.67
-53.61
-69.8
-85.4
-97.95
-104.96
-104.77
-97.21
-83.65
-66.35
-47.48
-28.42
-9.63
8.9
27.05
44.27
59.73
72.65
82.81
90.64
97.04
102.9
108.63
113.78
117.25
117.94
115.5
110.82
105.82
102.56
102.26
104.7
108.41
111.6
112.99
112.3
109.95
106.45
101.92
96.16
89.03
80.97
73.06
66.58
62.49
61
61.59
63.31
65.24
66.69
67.27
66.87
65.6
63.68
61.45
59.1
56.59
53.59
49.53
43.82
36.13
26.54
15.61
4.31
-6.15
-14.7
-20.69
-24.09
-25.47
-25.63
-25.25
-24.47
-22.91
-19.91
-14.95
-7.98
0.6
10.07
19.7
28.87
37.15
44.22
49.86
53.98
56.7
58.25
58.94
58.95
58.19
56.34
52.88
47.29
39.24
28.67
15.8
0.98
-15.5
-33.57
-53.33
-74.81
-97.61
-120.62
-142.04
-159.89
-172.59
-179.53
-181.05
-178.01
-171.12
-160.55
-146
-127.27
-104.88
-80.45
-56.4
-35.25
-18.89
-8.02
-2.15
-0.03
-0.11
-0.95
-1.41
-0.79
1.04
3.39
4.81
3.35
-2.75
-14.22
-30.34
-49.11
-68.01
-84.84
-98.35
-108.14
-114.17
-116.35
-114.52
-108.86
-100.22
-90.26
-80.9
-73.73
-69.49
-67.84
-67.77
-68
-67.39
-65.13
-60.82
-54.46
-46.49
-37.76
-29.33
-22.26
-17.35
-14.92
-14.92
-16.95
-20.49
-24.97
-29.93
-34.94
-39.74
-44.1
-47.89
-51.03
-53.54
-55.46
-56.83
-57.6
-57.76
-57.45
-57.02
-57.08
-58.12
-60.18
-62.55
-63.71
-61.81
-55.22
-43.2
-26.15
-5.43
17.13
39.68
60.7
79.13
94.15
105.21
111.95
114.35
112.81
108.14
101.39
93.59
85.54
77.68
70.13
62.81
55.58
48.32
40.98
33.46
25.68
17.56
9.06
0.45
-7.61
-13.95
-17.15
-15.84
-9.2
2.71
18.78
37.13
55.5
71.94
85.08
94.32
99.64
101.37
99.95
95.87
89.74
82.33
74.57
67.32
61.1
55.87
51.11
46.1
40.21
33.22
25.18
16.25
6.58
-3.64
-13.87
-23.11
-29.87
-32.73
-30.92
-24.8
-15.81
-6.01
2.69
9.03
12.57
13.42
11.87
8.17
2.48
-4.88
-13.37
-22.18
-30.4
-37.34
-42.7
-46.69
-49.84
-52.81
-56.12
-59.97
-64.36
-69.23
-74.58
-80.45
-86.67
-92.48
-96.51
-97.05
-92.65
-82.84
-68.26
-50.47
-31.29
-12.08
6.47
24.24
41.12
56.63
69.9
79.94
86.15
88.63
88.1
85.67
82.32
78.62
74.69
70.32
65.26
59.37
52.7
45.2
36.7
26.85
15.47
2.93
-9.55
-20.03
-26.38
-27.05
-21.69
-11.28
2.26
16.78
30.52
42.43
52.07
59.3
64.09
66.44
66.6
65.14
62.83
60.4
58.17
55.89
52.95
48.7
42.86
35.54
27.09
17.75
7.51
-3.81
-16.31
-29.72
-43.38
-56.4
-67.85
-76.87
-82.56
-83.97
-80.31
-71.32
-57.55
-40.48
-22.01
-3.96
12.34
25.99
36.26
42.47
44.09
41.3
35.2
27.61
20.33
14.4
9.8
6.09
3.17
1.84
3.34
8.38
16.19
24.5
30.39
31.64
27.54
19
7.77
-4.17
-15.01
-22.99
-26.33
-23.59
-14.34
0.31
17.73
34.57
48
56.41
59.57
58.16
53.03
44.88
34.32
22.12
9.47
-2.19
-11.4
-17.03
-18.39
-15.44
-8.9
-0.3
8.06
13.68
14.67
10.49
2.44
-6.89
-14.79
-19.71
-21.93
-23.33
-25.97
-30.73
-36.47
-40.46
-39.69
-32.54
-19.63
-3.58
12.23
25.3
34.97
42.3
49.01
56.15
63.22
68.39
69.71
66.43
59.72
52.31
47.09
45.68
47.55
50.46
51.84
50.17
45.66
39.8
34.17
29.43
25.01
19.84
13.25
5.61
-2.02
-8.75
-14.61
-20.46
-27.12
-34.22
-39.66
-40.33
-33.53
-18.49
3
27.44
51.2
71.85
88.65
101.93
112.07
118.81
121.35
119.11
112.29
102.04
89.91
77.12
64.2
51.13
37.84
24.6
11.95
0.29
-10.41
-20.53
-30.46
-40.22
-49.62
-58.73
-68.33
-79.96
-95.1
-114.01
-134.94
-154.22
-167.55
-171.8
-166.41
-153.62
-137.49
-122.15
-110.28
-102.34
-96.9
-91.62
-84.41
-74.18
-61.08
-46.17
-30.88
-16.43
-3.53
7.57
16.87
24.4
30.19
34.61
38.62
43.79
51.79
63.73
79.48
97.56
115.63
131.21
142.44
148.39
149.01
144.88
137.02
126.67
115.12
103.4
92.09
81.19
70.53
60.14
50.49
42.39
36.37
32.08
28.15
22.64
13.98
1.74
-13.09
-28.6
-42.95
-55.1
-65.16
-73.91
-82.14
-90.02
-96.94
-101.95
-104.24
-103.58
-100.41
-95.55
-89.78
-83.73
-77.64
-71.66
-65.93
-60.65
-55.96
-51.88
-48.12
-44.2
-39.59
-33.88
-27.03
-19.41
-11.63
-4.33
1.98
7.11
11.16
14.38
17.08
19.4
21.35
22.77
23.43
23.12
21.78
19.56
16.78
13.87
11.19
8.9
6.91
4.99
2.85
0.31
-2.66
-6.04
-9.78
-13.76
-17.79
-21.57
-24.7
-26.83
-27.76
-27.5
-26.23
-24.18
-21.5
-18.31
-14.77
-11.16
-7.9
-5.4
-3.95
-3.51
-3.84
-4.5
-5.18
-5.65
-5.93
-6.13
-6.36
-6.65
-6.93
-7.15
-7.32
-7.61
-8.26
-9.53
-11.6
-14.39
-17.57
-20.6
-22.9
-24.04
-23.89
-22.59
-20.49
-17.95
-15.26
-12.54
-9.83
-7.12
-4.48
-2.09
-0.15
1.15
1.72
1.61
1.04
0.3
-0.29
-0.53
-0.38
-0.04
0.19
0.07
-0.45
-1.21
-1.92
-2.42
-2.79
-3.37
-4.65
-6.96
-10.32
-14.37
-18.5
-22.12
-24.79
-26.38
-26.9
-26.47
-25.13
-22.95
-20.06
-16.73
-13.37
-10.39
-8.1
-6.54
-5.54
-4.81
-4.1
-3.34
-2.59
-1.98
-1.61
-1.38
-1.06
-0.35
0.95
2.86
5.1
7.3
9.08
10.2
10.64
10.5
9.93
9.07
8.09
7.19
6.66
6.78
7.7
9.34
11.45
13.71
15.78
17.48
18.71
19.5
19.95
20.18
20.32
20.35
20.14
19.44
18.03
15.9
13.32
10.67
8.27
6.04
3.55
0.14
-4.73
-11.23
-19.05
-27.58
-36.12
-44.15
-51.37
-57.7
-63.09
-67.41
-70.41
-71.8
-71.44
-69.39
-65.93
-61.49
-56.45
-51.04
-45.32
-39.27
-32.91
-26.41
-19.94
-13.65
-7.63
-1.95
3.25
7.68
11
12.99
13.77
13.87
13.99
14.71
16.22
18.19
20
21.04
21.05
20.14
18.7
17.11
15.57
14.07
12.52
10.91
9.39
8.28
7.9
8.5
10.07
12.49
15.48
18.7
21.77
24.34
26.12
26.99
27.02
26.56
26.15
26.37
27.67
30.09
33.28
36.53
39.1
40.49
40.67
40
38.97
37.99
37.2
36.55
35.92
35.3
34.79
34.57
34.75
35.38
36.5
38.26
40.77
43.97
47.46
50.5
52.25
52.13
50.09
46.66
42.69
39.06
36.31
34.54
33.58
33.1
32.8
32.37
31.53
29.94
27.28
23.34
18.11
11.91
5.25
-1.15
-6.7
-11.11
-14.6
-17.96
-22.15
-27.97
-35.5
-43.99
-52.05
-58.13
-61.11
-60.6
-56.94
-51.04
-44.1
-37.46
-32.5
-30.33
-31.47
-35.45
-40.86
-45.64
-47.98
-47.02
-43.19
-37.95
-32.98
-29.33
-27.03
-25.2
-22.57
-18.16
-11.66
-3.58
4.98
12.7
18.54
22.19
24.33
26.69
31.68
41.72
58.35
81.59
109.73
139.72
168.04
191.62
208.58
218.58
222.67
222.88
221.34
219.65
218.32
216.8
213.91
208.7
201.04
191.84
182.61
174.66
168.36
163.01
157.24
149.74
139.79
127.24
112.22
94.59
74.03
50.44
24.54
-1.84
-26.21
-46.5
-62.19
-74.87
-87.81
-104.56
-127.38
-156.12
-188.38
-220.52
-249.34
-273.34
-293.07
-310.4
-327.3
-344.82
-362.64
-379.73
-395.12
-408.61
-420.9
-432.93
-445.26
-457.62
-469.05
-478.22
-483.86
-484.69
-479.26
-465.78
-442.37
-407.56
-361.14
-304.56
-240.94
-174.6
-110.19
-51.91
-2.88
35.19
61.99
78.52
86.79
89.56
89.88
90.56
93.72
100.33
110.19
122.12
134.48
145.79
155.15
162.36
167.68
171.58
174.37
176.23
177.13
177
175.82
173.72
170.95
167.88
164.91
162.28
159.99
157.67
154.56
149.76
142.4
131.99
118.64
103.15
86.74
70.7
55.75
41.77
27.94
13.23
-2.75
-19.3
-34.68
-46.72
-53.69
-54.97
-51.24
-44.19
-35.98
-28.58
-23.5
-21.54
-22.86
-27.09
-33.38
-40.54
-47.25
-52.36
-55.13
-55.44
-53.78
-51.01
-48.08
-45.68
-44.11
-43.25
-42.81
-42.45
-41.83
-40.51
-37.83
-32.99
-25.23
-14.19
-0.03
16.53
34.4
52.4
69.4
84.45
96.75
105.76
111.31
113.59
113.17
110.83
107.37
103.42
99.43
95.53
91.64
87.38
82.19
75.5
67.14
57.76
48.95
43
42.05
47.15
57.66
71.36
85.28
96.77
104.31
107.62
107.25
103.8
97.71
89.26
78.96
67.67
56.44
45.96
36.21
26.57
16.18
4.65
-7.73
-20.02
-31.19
-40.52
-47.83
-53.44
-57.89
-61.65
-64.99
-67.89
-70.12
-71.28
-71.05
-69.31
-66.29
-62.41
-58.13
-53.69
-49.11
-44.32
-39.42
-34.8
-31.07
-28.76
-28
-28.39
-29.23
-29.76
-29.49
-28.31
-26.4
-24.08
-21.63
-19.2
-16.73
-14.01
-10.67
-6.31
-0.78
5.67
12.24
17.76
21.02
21.22
18.33
13.18
7.36
2.82
1.49
4.71
12.87
25.06
39.18
52.47
62.37
67.29
67.06
62.73
55.93
48.13
40.26
32.77
25.91
19.97
15.3
12.12
10.37
9.66
9.43
9.17
8.48
7.05
4.66
1.22
-3.14
-7.99
-12.75
-16.96
-20.45
-23.39
-26.15
-28.98
-31.77
-34.15
-35.68
-36.18
-35.83
-35.1
-34.52
-34.35
-34.51
-34.66
-34.56
-34.24
-34.08
-34.54
-35.84
-37.74
-39.66
-40.86
-40.82
-39.38
-36.76
-33.41
-29.83
-26.41
-23.45
-21.15
-19.51
-18.38
-17.4
-16.16
-14.3
-11.68
-8.37
-4.6
-0.64
3.36
7.28
11.08
14.64
17.86
20.73
23.44
26.44
30.21
35.01
40.68
46.67
52.26
56.91
60.36
62.61
63.69
63.48
61.72
58.25
53.17
46.95
40.28
33.79
27.89
22.79
18.55
15.27
13.03
11.88
11.61
11.84
12.06
11.88
11.13
9.87
8.33
6.8
5.51
4.63
4.22
4.3
4.78
5.52
6.35
7.05
7.41
7.29
6.63
5.5
4.08
2.59
1.24
0.18
-0.46
-0.65
-0.37
0.36
1.42
2.62
3.7
4.45
4.72
4.47
3.71
2.52
1.01
-0.63
-2.18
-3.34
-3.85
-3.61
-2.64
-1.09
0.91
3.3
6.11
9.38
13.03
16.79
20.28
23.17
25.29
26.83
28.18
29.84
32.19
35.25
38.69
42.04
44.93
47.14
48.73
49.69
49.76
48.51
45.59
41.08
35.65
30.29
25.66
21.52
16.53
8.82
-3.1
-19.5
-39.32
-60.79
-82.38
-103.63
-125.06
-147.55
-171.3
-195.35
-217.69
-236.12
-249.06
-256.13
-257.96
-255.64
-250.28
-242.71
-233.55
-223.44
-213.04
-202.91
-193.39
-184.52
-176.06
-167.76
-159.4
-150.76
-141.61
-131.71
-120.77
-108.6
-95.04
-79.98
-63.4
-45.55
-27.1
-9.13
7.11
20.71
31.42
39.77
46.92
54.2
62.83
73.47
86.18
100.12
113.66
124.72
131.55
133.57
131.72
127.97
124.2
120.99
117.27
111.19
101.44
88.55
74.76
62.79
54.1
47.98
41.83
32.87
19.96
4.46
-10.4
-21.28
-26.68
-27.77
-27.89
-30.88
-39.36
-53.53
-71.31
-89.25
-103.9
-112.82
-115.01
-110.6
-100.35
-85.1
-65.49
-42.16
-15.99
11.79
39.84
67.28
93.95
120.11
145.45
168.1
184.45
190.34
183.08
163.17
134.54
103.05
74.02
50.47
32.77
19.93
11.17
6.83
7.78
14.25
24.89
37
47.63
54.9
58.4
58.85
57.11
53.49
47.75
39.59
29.37
18.4
8.92
3.74
5.44
15.63
34.24
59.25
87.08
113.61
135.38
150.42
158.4
160.03
156.25
147.75
135.05
118.9
100.78
82.7
66.7
54.19
45.55
40.32
37.53
36.24
35.62
34.95
33.57
30.91
26.54
20.14
11.57
0.69
-12.42
-27.28
-42.72
-57.08
-68.66
-76.41
-80.54
-82.39
-83.86
-86.45
-90.51
-94.99
-98.07
-97.95
-93.7
-85.58
-74.74
-62.7
-50.8
-39.92
-30.56
-23.04
-17.65
-14.69
-14.4
-16.81
-21.71
-28.66
-37.07
-46.32
-55.72
-64.56
-72.02
-77.3
-79.78
-79.31
-76.41
-72.27
-68.44
-66.22
-66.2
-67.88
-69.85
-70.25
-67.43
-60.37
-48.93
-33.64
-15.39
4.8
25.9
46.85
66.58
84.09
98.56
109.6
117.21
121.75
123.79
123.98
122.98
121.36
119.54
117.51
114.77
110.38
103.4
93.38
80.9
67.57
55.68
47.37
43.64
43.84
45.68
45.96
41.75
31.48
15.61
-3.46
-22.07
-36.45
-43.84
-43.11
-34.81
-20.7
-3.07
15.8
33.87
49.33
60.71
66.98
67.92
64.31
57.78
50.41
43.94
39.27
36.24
33.9
31.03
26.76
20.77
13.44
5.51
-2.11
-8.74
-14.03
-18.21
-21.88
-25.87
-30.85
-37.11
-44.38
-51.96
-58.92
-64.29
-67.18
-66.74
-62.25
-53.23
-39.71
-22.44
-2.82
17.28
35.99
51.86
63.97
72.05
76.18
76.73
74.38
70.07
64.98
60.22
56.45
53.43
50.15
45.24
37.92
28.44
18.1
8.53
0.7
-5.72
-12.27
-20.73
-32.03
-45.64
-59.76
-72.28
-81.62
-87.14
-88.87
-87.11
-82.17
-74.64
-65.73
-57.16
-50.59
-46.53
-43.89
-40.36
-33.73
-23.34
-10.84
0.39
6.85
6.5
-0.36
-11.53
-24.03
-35.46
-44.43
-50.59
-54.04
-54.94
-53.44
-49.93
-45.18
-40.33
-36.5
-34.45
-34.43
-36.14
-38.84
-41.33
-42.1
-39.39
-31.76
-18.54
-0.25
21.45
44.29
66.21
85.9
102.87
117.26
129.28
139
146.35
151.3
154.05
155.07
154.97
154.4
154.03
154.54
156.56
160.46
166.09
172.79
179.41
184.82
188.26
189.56
188.97
186.84
183.14
177.39
168.88
157.18
142.67
126.67
111.04
97.5
86.81
78.39
70.56
61.34
49.22
33.82
15.8
-3.6
-23.17
-42.26
-60.8
-79.02
-97.1
-114.95
-132.25
-148.59
-163.72
-177.58
-190.21
-201.65
-211.77
-220.35
-227.1
-231.86
-234.63
-235.71
-235.66
-235.16
-234.81
-234.76
-234.53
-233.07
-229.07
-221.41
-209.58
-193.79
-174.75
-153.38
-130.52
-107.02
-83.7
-61.51
-41.36
-23.81
-8.94
3.73
14.81
24.79
33.72
41.32
47.3
51.58
54.41
56.19
57.25
57.62
57.14
55.58
52.84
48.99
44.16
38.4
31.7
24.13
16.03
8.27
2.16
-0.86
0.32
6.08
15.9
28.5
42.21
55.41
66.72
75.15
80.02
81.12
78.72
73.6
66.92
59.89
53.44
47.95
43.35
39.23
35.23
31.13
26.92
22.71
18.59
14.65
10.81
6.8
2.1
-3.93
-11.88
-21.98
-33.81
-46.33
-58
-67.21
-72.76
-74.16
-71.74
-66.43
-59.31
-51.26
-42.72
-33.78
-24.6
-15.67
-7.94
-2.46
0.11
0.02
-1.62
-3.26
-3.65
-2.38
0.06
2.63
4.33
4.64
3.67
1.96
0.14
-1.31
-2.23
-2.76
-3.32
-4.52
-6.89
-10.67
-15.51
-20.42
-24.03
-25.01
-22.5
-16.38
-7.3
3.57
14.8
24.97
32.93
37.95
39.86
38.99
36.03
31.8
27.08
22.45
18.32
15.02
12.68
11.27
10.45
9.74
8.56
6.58
3.65
-0.13
-4.59
-9.59
-15.11
-21.2
-27.99
-35.61
-44
-52.73
-60.74
-66.4
-67.9
-63.93
-54.33
-40.31
-24.16
-8.37
5.19
15.7
23.41
28.99
33.05
35.82
37.25
37.27
36.16
34.5
33.01
32.21
32.15
32.45
32.51
31.84
30.32
28.21
25.89
23.54
21.02
17.83
13.42
7.54
0.38
-7.39
-14.77
-20.58
-23.58
-22.64
-17.11
-7.12
6.03
20.14
32.81
42.31
48.26
51.48
53.21
54.06
53.64
50.9
45.21
37.17
28.65
21.81
17.87
16.38
15.57
13.55
9.5
4.09
-1.09
-4.69
-6.5
-7.64
-9.93
-14.9
-23.07
-33.82
-45.64
-56.67
-65.1
-69.48
-68.84
-62.99
-52.53
-38.89
-24.08
-10.27
0.74
7.84
10.67
9.57
5.19
-1.56
-9.67
-18.03
-25.57
-31.44
-35.33
-37.63
-39.26
-41.26
-44.26
-48.16
-52.17
-55.35
-57.16
-57.76
-57.88
-58.36
-59.76
-62.05
-64.9
-67.99
-71.16
-74.35
-77.26
-79.03
-78.31
-73.6
-63.92
-49.33
-31.07
-11.14
8.3
25.59
39.87
50.9
58.7
63.17
64.08
61.32
55.37
47.46
39.36
32.79
28.65
26.63
25.32
23.01
18.61
12.3
5.35
-0.67
-4.83
-7.56
-10.29
-14.58
-21.01
-28.67
-35.64
-39.85
-40.03
-35.84
-27.52
-15.27
0.86
20.58
42.74
65.04
84.53
98.53
105.57
105.75
100.43
91.43
80.38
68.41
56.17
44.02
32.29
21.31
11.47
3.22
-3.2
-7.98
-11.9
-16.05
-21.38
-28.09
-35.42
-42.09
-47.07
-50.4
-53.36
-57.87
-65.36
-75.68
-86.82
-95.56
-98.72
-94.48
-82.93
-65.89
-46.06
-25.97
-7.36
8.9
22.5
33.27
40.94
45.27
46.23
44.28
40.26
35.3
30.44
26.39
23.37
21.12
19.05
16.5
12.94
8.16
2.29
-4.32
-11.24
-18.21
-25.29
-32.81
-41.2
-50.69
-60.97
-70.92
-78.78
-82.45
-80.14
-70.99
-55.34
-34.73
-11.4
12.31
34.41
53.48
68.65
79.47
85.84
88.12
87.12
84.05
80.24
76.82
74.35
72.76
71.52
69.93
67.47
63.93
59.39
54.07
48.04
41.22
33.3
23.96
12.98
0.29
-13.82
-28.67
-43.18
-55.96
-65.48
-70.3
-69.43
-62.76
-51.17
-36.23
-19.73
-3.26
12
25.23
35.75
43.07
46.84
47.02
44.29
39.88
34.83
29.41
23.1
14.99
4.89
-6.6
-18.45
-28.91
-36.12
-39.11
-37.96
-33.6
-27.33
-19.99
-12.76
-7.95
-6.86
-9.37
-14.52
-20.61
-25.67
-27.86
-24.78
-15.42
-1.73
14.56
32.29
50.28
67.7
84.27
99.95
115.82
131.31
142.18
145
138.38
122.48
99.15
71.35
33.25
-14.55
-55.04
-81.13
-92.89
-89.1
-70.24
-39.21
-0.98
38.66
76.09
108.53
132.07
144.95
147.25
139.53
123.28
101.2
76.79
54.46
36.79
22.65
10.6
-0.04
-9.59
-17.71
-23.78
-27.46
-28.36
-27.03
-25.42
-24.6
-24.34
-24.04
-23.12
-21.38
-19.23
-17.14
-15.84
-16.49
-19.71
-25.57
-34.03
-44.95
-57.91
-72.02
-85.76
-97.35
-105.29
-108.49
-106.51
-99.77
-89.34
-76.58
-62.75
-48.76
-35.16
-22.26
-10.36
0.04
8.37
14.08
17
17.39
15.87
13.07
9.32
4.54
-1.61
-9.4
-18.7
-28.82
-38.7
-47.22
-53.61
-57.68
-59.8
-60.62
-60.77
-60.61
-60.28
-59.84
-59.55
-59.83
-61
-63.05
-65.31
-66.66
-65.89
-62.14
-55.33
-46.18
-35.94
-25.97
-17.34
-10.58
-5.74
-2.45
-0.21
1.45
3.01
4.92
7.67
11.65
16.95
23.22
29.71
35.66
40.64
44.87
49
53.6
58.64
63.39
66.73
68.01
67.58
66.89
67.86
71.98
79.58
89.77
101.02
111.98
122.1
131.69
141.51
152.11
163.41
174.63
184.54
191.78
195.11
193.59
186.72
174.77
159.05
142.02
126.79
116.09
111.11
110.73
111.74
110.1
102.62
88.32
68.7
46.91
26.21
8.73
-4.87
-14.9
-21.68
-25.01
-24.41
-19.93
-12.98
-6.37
-3.53
-7.14
-17.97
-34.47
-53.28
-70.46
-82.75
-88.55
-88.02
-82.61
-74.28
-64.77
-55.13
-45.93
-37.58
-30.7
-26.2
-24.98
-27.48
-33.55
-42.52
-53.67
-66.53
-80.98
-96.81
-113.46
-129.93
-145.13
-158.41
-169.9
-180.28
-190.32
-200.43
-210.53
-220.33
-229.6
-238.24
-246.08
-252.4
-255.95
-255.19
-248.87
-236.46
-218.2
-194.82
-167.27
-136.61
-104.12
-71.47
-40.6
-13.5
8.38
24.34
34.63
40.32
42.97
44.36
46.19
49.93
56.71
67.29
82.04
100.81
122.98
147.36
172.29
195.89
216.27
232.01
242.45
247.81
249.13
247.9
245.59
243.22
241.1
238.91
235.96
231.56
225.27
216.9
206.42
193.76
178.74
161.17
140.88
117.77
91.69
62.52
30.41
-3.87
-38.64
-71.51
-99.94
-122.02
-137.04
-145.52
-148.61
-147.5
-142.94
-135.32
-125.2
-113.63
-102.25
-92.76
-86.3
-83.14
-82.79
-84.46
-87.52
-91.73
-97.01
-103.11
-109.4
-115.1
-119.57
-122.78
-125.23
-127.73
-130.84
-134.48
-137.86
-139.8
-139.2
-135.45
-128.58
-119.08
-107.59
-94.7
-80.86
-66.52
-52.28
-38.98
-27.42
-18.12
-10.96
-5.29
-0.18
4.98
10.11
14.36
16.58
15.88
12.23
6.67
0.99
-2.73
-2.67
2.18
11.85
25.2
40.02
53.34
62.2
64.59
60.25
50.92
39.66
29.73
23.34
20.99
21.68
23.79
26.08
28.17
30.41
33.21
36.44
39.29
40.7
40.1
37.83
35
32.96
32.37
32.81
32.92
31.16
26.62
19.53
11.12
3.04
-3.36
-7.49
-9.46
-9.92
-9.67
-9.72
-11.26
-15.64
-23.86
-35.96
-50.38
-64.08
-73.29
-74.77
-67.13
-51.39
-30.65
-8.77
11.16
27.85
41.76
54.08
65.41
74.84
80.17
79.1
70.73
56.41
39.62
24.62
14.9
12.04
15.67
24.08
35.08
46.45
56.04
61.63
61.18
53.4
38.51
18.5
-3.36
-23.58
-39.73
-50.98
-57.86
-61.28
-61.52
-57.85
-49.11
-34.71
-15.5
6.09
26.89
44.25
56.97
65.38
70.66
73.74
74.59
72.36
66.02
55.19
40.68
24.18
7.67
-7.38
-20.38
-31.66
-41.94
-51.94
-61.98
-71.92
-81.26
-89.46
-96.19
-101.56
-106.13
-110.78
-116.38
-123.48
-132.05
-141.61
-151.31
-160.21
-167.32
-171.56
-171.68
-166.38
-154.84
-137.14
-114.77
-90.36
-67.04
-47.46
-33.09
-24
-19.28
-17.85
-19.02
-22.79
-29.48
-39.16
-51.03
-63.32
-73.53
-79.15
-78.46
-71.01
-57.75
-40.57
-21.68
-2.96
14.33
29.56
42.41
52.58
59.73
63.57
64.16
62.07
58.17
53.34
48.02
42.25
35.9
29.25
23.31
19.72
20.16
25.48
35.27
47.86
61.04
72.74
81.72
87.57
90.35
90.23
87.21
81.31
72.82
62.44
51.2
40.09
29.75
20.3
11.53
3.12
-4.97
-12.46
-18.74
-23.22
-25.48
-25.51
-23.72
-20.81
-17.57
-14.62
-12.15
-10.04
-7.95
-5.72
-3.64
-2.37
-2.63
-4.68
-7.95
-11.08
-12.23
-9.8
-2.99
7.89
21.54
36.04
49.36
59.76
66.05
67.7
64.99
58.89
50.92
42.73
35.77
30.93
28.42
27.94
28.91
30.77
33.15
35.72
38.19
40.15
41.19
40.93
39.21
36.05
31.62
26.12
19.69
12.46
4.57
-3.66
-11.8
-19.35
-26
-31.75
-36.94
-41.92
-46.82
-51.23
-54.16
-54.39
-50.82
-43.01
-31.35
-17.02
-1.76
12.6
24.46
32.8
37.36
38.61
37.64
35.76
34.2
33.69
34.37
35.82
37.43
38.67
39.31
39.4
39.04
38.31
37.07
35.14
32.36
28.77
24.57
20.08
15.56
11
6.26
1.05
-4.79
-11.25
-18.14
-25.09
-31.71
-37.48
-41.82
-43.99
-43.26
-39.22
-32
-22.39
-11.65
-1.12
8.2
15.83
21.78
26.23
29.33
31.14
31.7
31.24
30.19
29.1
28.26
27.58
26.56
24.54
21.06
16.08
10.12
3.99
-1.5
-5.91
-9.19
-11.67
-13.8
-15.92
-18.29
-21.11
-24.62
-29.14
-34.9
-41.76
-49.07
-55.62
-59.9
-60.56
-56.92
-49.24
-38.62
-26.74
-15.27
-5.38
2.43
8.36
12.89
16.49
19.41
21.62
22.98
23.52
23.51
23.45
23.83
24.95
26.71
28.61
29.89
29.83
27.96
24.28
19.21
13.41
7.51
1.98
-2.96
-7.21
-10.77
-13.78
-16.62
-19.89
-24.2
-29.78
-36.07
-41.65
-44.68
-43.62
-37.97
-28.5
-16.9
-5.09
5.56
14.46
21.7
27.55
32.05
35.02
36.14
35.39
33.12
30.09
27.16
24.98
23.84
23.53
23.59
23.34
22.21
19.86
16.31
11.92
7.25
2.87
-0.84
-3.75
-6.07
-8.17
-10.51
-13.49
-17.34
-22.01
-27.12
-32.02
-35.77
-37.45
-36.28
-32
-24.95
-16.05
-6.57
2.36
9.97
16
20.56
23.76
25.53
25.58
23.73
20.17
15.58
11.01
7.38
5.19
4.29
4.11
4.04
3.68
2.96
1.93
0.61
-1.1
-3.37
-6.28
-9.75
-13.6
-17.64
-21.77
-25.91
-29.82
-33
-34.72
-34.2
-30.95
-24.97
-16.81
-7.37
2.36
11.59
19.74
26.48
31.6
35.01
36.67
36.73
35.52
33.58
31.55
29.99
29.24
29.27
29.67
29.75
28.77
26.27
22.24
17.19
11.91
7.15
3.22
-0.06
-3.31
-7.3
-12.49
-18.92
-26.12
-33.24
-39.41
-43.95
-46.49
-46.98
-45.54
-42.31
-37.39
-30.95
-23.35
-15.31
-7.81
-1.79
2.29
4.66
6.3
8.46
12.13
17.56
24.2
30.93
36.67
40.8
43.31
44.58
45.09
45.06
44.53
43.43
41.8
39.88
37.9
35.98
34.08
31.94
29.29
26.32
23.89
23.66
27.79
38.18
55.54
78.63
104.28
128.33
147.19
159.09
164.4
164.89
162.36
157.5
149.81
138.34
122.72
103.73
82.95
61.82
40.8
19.09
-4.99
-33.24
-66.84
-105.94
-149.57
-195.77
-241.79
-284.55
-321.12
-349.02
-366.57
-372.82
-367.42
-350.65
-323.47
-287.57
-245.46
-200.46
-156.38
-117
-85.22
-62.32
-47.59
-38.76
-32.99
-28.15
-23.47
-19.5
-17.22
-17.08
-18.51
-20.31
-21.37
-21.32
-20.6
-19.84
-19.37
-19.01
-18.34
-17.3
-16.42
-16.4
-17.81
-20.67
-24.62
-29.41
-35.36
-43.43
-54.68
-69.31
-85.96
-101.73
-112.98
-116.68
-111.63
-98.67
-80.09
-58.5
-35.89
-13.53
7.56
26.17
40.92
50.7
55.26
55.3
52.12
47.2
41.97
38.11
37.64
42.57
53.8
70.24
88.55
104.12
112.77
112.31
103
86.98
66.85
44.62
21.39
-2.04
-24.24
-42.5
-53.11
-52.31
-37.6
-8.91
31.09
77.35
123.67
164.18
194.63
213.01
219.49
215.93
205.11
190.17
174.1
159.35
147.65
139.76
135.46
133.73
133.06
131.88
128.89
123.09
113.66
99.75
80.29
54.31
21.39
-17.82
-61.35
-106.18
-148.78
-185.77
-214.37
-232.64
-239.49
-234.64
-218.69
-193.03
-159.64
-120.73
-78.27
-33.58
12.76
60.77
110.52
161.56
212.48
260.78
303.28
337
360.05
372.47
376.25
374.68
371.05
367.13
362.51
354.67
340.27
316.82
284
243.91
200.32
157.25
117.79
83.63
55.21
32.45
15.1
2.74
-5.67
-12.04
-19.04
-29.41
-44.88
-65.57
-89.85
-114.89
-137.75
-156.31
-169.87
-179.02
-185.15
-189.67
-193.47
-196.71
-199.03
-199.98
-199.32
-197.21
-194.14
-190.75
-187.6
-185.11
-183.71
-183.72
-185.32
-188.14
-190.88
-191.34
-186.79
-174.96
-155.04
-128.22
-97.5
-66.8
-39.66
-18.34
-3.54
5.32
9.36
9.76
7.48
3.33
-1.77
-6.89
-11.15
-14.04
-15.54
-16.02
-16.05
-16.09
-16.39
-17.01
-18.01
-19.71
-22.76
-27.97
-35.91
-46.47
-58.38
-69.24
-75.99
-75.82
-67.17
-50.47
-28.12
-3.84
18.53
36.03
47.27
52.36
52.4
48.89
43.27
36.68
30.03
23.99
18.92
14.83
11.33
7.86
3.9
-0.7
-5.71
-10.68
-15.14
-18.91
-22.24
-25.8
-30.5
-37.22
-46.44
-57.76
-69.69
-79.77
-85.14
-83.57
-74.38
-58.86
-39.86
-20.78
-4.51
7.31
14.26
16.59
14.59
8.32
-2.05
-15.85
-31.63
-47.43
-61.57
-73.35
-83.32
-92.87
-103.42
-115.75
-129.77
-144.82
-160.07
-174.61
-187.48
-197.38
-202.95
-203.25
-198.3
-189.23
-177.59
-164.32
-148.86
-129.17
-102.75
-68
-25.22
23.46
75.13
127.44
179.22
230.28
280.54
328.98
373.19
409.65
434.71
445.65
441.45
422.89
392.2
352.47
307.29
260.55
216.18
177.68
147.31
125.33
109.69
96.66
82.18
63.39
39.73
13.1
-12.96
-34.48
-48.11
-51.86
-45.17
-29.05
-6.04
20.04
44.63
63.38
73.32
73.54
65.34
51.59
35.74
20.95
9.54
2.7
0.47
1.82
4.81
7.01
6.31
1.62
-6.67
-16.91
-27.16
-36.12
-43.81
-51.41
-60.42
-71.66
-84.69
-97.8
-108.5
-114.24
-112.93
-103.32
-85.21
-59.67
-28.98
3.52
34.09
59.47
77.6
88.02
91.72
90.51
86.19
79.95
72.18
62.67
51.01
37.01
20.82
2.88
-16.41
-36.8
-58.23
-80.59
-103.45
-125.84
-146.33
-163.33
-175.55
-182.54
-184.9
-184.1
-181.83
-178.95
-174.7
-166.71
-151.85
-127.87
-94.78
-55.3
-14.11
23.88
55.2
78.64
94.94
105.59
111.66
113.25
109.79
100.91
87.25
70.66
53.53
37.87
24.41
12.4
0.21
-13.63
-29.39
-45.86
-60.89
-72.5
-80
-84.42
-88.05
-93.18
-100.78
-109.73
-117.14
-119.46
-114.14
-100.79
-81.34
-59.25
-37.99
-19.92
-5.7
5.18
13.55
19.78
23.74
25.25
24.7
23.19
22.04
22.02
22.81
23.07
21.22
16.31
8.54
-0.83
-9.96
-17.33
-22.18
-24.71
-26.01
-27.71
-31.52
-38.67
-49.34
-62.24
-74.71
-83.35
-84.98
-77.72
-61.46
-37.91
-10.02
18.68
44.86
65.86
80.03
86.88
87
81.84
73.09
62.31
50.53
38.37
26.17
14.13
2.37
-9.18
-20.66
-32.09
-42.98
-52.26
-58.59
-61.08
-59.99
-56.88
-54.13
-53.8
-56.45
-60.66
-63.4
-61.27
-51.86
-34.65
-11.14
15.93
43.62
69.53
92.22
110.98
125.38
135.09
139.89
139.95
136.15
129.92
123.04
117.01
112.8
110.53
109.71
109.47
108.85
107.07
103.71
98.63
91.95
83.84
74.31
63.17
50.12
35.08
18.6
2.11
-12.27
-22.21
-26.01
-23.24
-14.9
-3.15
9.49
20.96
30.2
37.12
42.22
45.99
48.58
49.89
49.79
48.49
46.61
44.83
43.58
42.71
41.55
39.28
35.36
29.83
23.26
16.49
10.18
4.55
-0.73
-6.45
-13.52
-22.65
-33.8
-45.96
-57.18
-65
-67.24
-62.76
-51.95
-36.54
-19.11
-2.23
12.05
22.49
28.57
30.31
28.13
22.82
15.6
7.92
1.15
-3.83
-6.86
-8.4
-9.27
-10.15
-11.34
-12.69
-13.81
-14.36
-14.24
-13.69
-13.07
-12.89
-13.69
-16.07
-20.38
-26.49
-33.45
-39.33
-41.71
-38.24
-27.56
-9.75
13.78
40.83
69.13
96.89
122.9
146.36
166.59
182.97
195.1
203.12
207.8
210.31
211.85
213.11
213.91
213.4
210.39
203.96
193.76
179.87
162.59
141.88
117.42
88.76
55.91
19.72
-18.09
-55.36
-90.16
-121.17
-147.78
-169.77
-187.06
-199.65
-207.83
-212.39
-214.55
-215.6
-216.26
-216.43
-215.38
-212.21
-206.5
-198.51
-188.95
-178.53
-167.57
-155.92
-143.31
-129.68
-115.37
-101.06
-87.49
-75.19
-64.46
-55.44
-48.3
-43.21
-40.23
-39.12
-39.16
-39.23
-38.03
-34.37
-27.53
-17.34
-4.12
11.45
28.53
46.14
63.26
78.84
92.02
102.27
109.45
113.7
115.17
113.88
109.75
103.05
94.78
86.66
80.68
78.21
79.38
82.94
86.86
89.18
88.58
84.52
76.82
65.22
49.44
29.61
6.84
-16.52
-37.37
-52.84
-61.23
-62.57
-58.45
-51.24
-43.16
-35.7
-29.4
-24.12
-19.58
-15.7
-12.8
-11.35
-11.72
-13.85
-17.32
-21.42
-25.5
-29.24
-32.65
-35.9
-39.16
-42.33
-45.14
-47.24
-48.52
-49.31
-50.33
-52.31
-55.58
-59.54
-62.62
-62.61
-57.4
-45.78
-27.93
-5.47
19.14
43.24
64.66
82.11
95.08
103.73
108.53
110.1
109.06
106.05
101.63
96.25
90.22
83.63
76.41
68.45
59.64
49.99
39.71
29.14
18.67
8.62
-0.96
-10.25
-19.58
-29.14
-38.7
-47.44
-53.98
-56.77
-54.67
-47.37
-35.64
-21.12
-5.86
8.26
19.86
28.16
32.89
34.1
32.08
27.39
21.04
14.3
8.51
4.58
2.76
2.68
3.55
4.75
6.08
7.8
10.38
14.1
18.84
24.02
28.9
32.93
36.1
39.01
42.81
48.95
58.76
73.05
91.72
113.52
136.17
156.79
172.6
181.6
183.11
177.86
167.61
154.51
140.49
126.67
113.34
100
85.75
69.6
50.74
28.72
3.86
-22.59
-48.42
-70.95
-87.84
-98.04
-102.24
-102.58
-101.75
-101.85
-103.71
-106.98
-110.66
-113.84
-115.87
-116.09
-113.48
-106.59
-94.26
-76.44
-54.86
-32.56
-12.78
2.38
12.86
20.36
27.43
36.19
47.71
61.95
78.33
96.11
114.39
132.02
147.39
158.98
166.18
170.07
173.39
179.43
190.35
205.66
221.87
233.43
234.79
222.34
195.48
156.29
108.2
54.64
-1.69
-58.64
-114.08
-165.45
-210
-245.53
-271.09
-287.49
-297.02
-302.79
-307.74
-314.06
-322.8
-333.83
-346.14
-358.22
-368.55
-376
-380.1
-380.87
-378.58
-373.49
-365.72
-355.45
-342.97
-328.63
-312.67
-295.05
-275.37
-253.19
-228.26
-200.71
-170.89
-139.13
-105.5
-70.02
-33.13
4.04
39.62
71.45
97.94
118.56
134.01
145.87
155.77
164.75
172.88
179.4
183.17
183.28
179.37
171.64
160.67
146.95
130.79
112.38
92.23
71.64
52.85
38.45
30.67
30.44
37.02
48.33
61.81
75.27
87.44
97.82
106.18
112.09
114.89
113.99
109.45
102.13
93.49
84.94
77.35
70.73
64.55
58.18
51.34
44.16
36.99
30.03
23.08
15.55
6.65
-4.26
-17.32
-31.76
-45.72
-56.37
-60.49
-55.54
-40.57
-16.96
11.73
40.67
65.05
81.27
87.51
83.91
72.25
55.39
36.79
19.73
6.51
-2.08
-7.01
-10.46
-14.92
-22.09
-32.36
-44.8
-57.79
-69.73
-79.52
-86.62
-91
-93
-93.29
-92.72
-92.09
-91.76
-91.34
-89.88
-86.29
-79.99
-71.27
-61.21
-51.07
-41.56
-32.53
-23.12
-12.49
-0.51
11.85
22.85
30.72
34.41
33.95
30.14
24.06
16.49
7.82
-1.65
-11.43
-20.77
-29.08
-36.44
-43.84
-52.81
-64.56
-79.21
-95.27
-110.05
-120.55
-124.42
-120.52
-108.94
-90.75
-67.59
-41.54
-14.97
9.7
30.41
46.07
56.74
63.4
67.23
68.92
68.25
64.54
57.35
47.12
35.21
23.3
12.6
3.6
-3.62
-8.71
-10.72
-8.49
-1.68
8.35
18.45
24.83
24.82
18.18
7.29
-4.13
-12.83
-17.32
-17.97
-16.05
-12.55
-7.58
-0.86
7.29
15.13
19.83
18.73
10.89
-2.15
-16.98
-29.94
-38.77
-43.36
-45.14
-45.67
-45.56
-44.22
-40.58
-34.1
-25.29
-15.41
-5.63
3.62
12.57
21.38
29.43
35.27
37.47
35.77
31.94
29.45
32.25
43.07
62.11
86.89
113.04
135.68
150.68
155.36
148.77
131.62
106.12
75.78
44.85
17.44
-3.55
-17.21
-24.61
-27.94
-29.31
-29.69
-28.7
-25.19
-18.21
-7.89
4.53
17.14
28.05
36.1
40.98
43.23
44.07
45.29
49.04
57.43
71.9
92.56
117.88
144.9
170.05
190.14
203.18
208.63
207.22
200.32
189.39
175.62
159.81
142.45
123.88
104.42
84.5
64.62
45.22
26.53
8.51
-9.12
-26.6
-43.93
-60.75
-76.57
-91.11
-104.71
-118.41
-133.53
-151.06
-170.98
-191.96
-211.54
-226.72
-234.76
-233.7
-222.6
-201.59
-171.82
-135.49
-95.74
-56.34
-21.04
7.27
27.31
39.66
46.28
49.61
51.65
53.3
54.46
54.48
52.74
49.03
43.48
36.28
27.53
17.16
5.23
-7.87
-21.27
-33.92
-45.06
-54.55
-62.9
-70.78
-78.41
-85.14
-89.55
-89.98
-85.18
-74.74
-59.08
-39.13
-16.04
8.89
34.04
57.47
77.13
91.44
99.93
103.48
104.02
103.69
103.84
104.43
104.01
100.39
91.62
76.83
56.63
32.83
7.76
-16.51
-38.68
-58.29
-75.39
-90.18
-102.75
-113.02
-120.88
-126.37
-129.59
-130.52
-128.92
-124.33
-116.43
-105.33
-91.85
-77.4
-63.62
-51.82
-42.62
-35.78
-30.45
-25.46
-19.65
-12.07
-2.14
10.18
24.24
38.78
52.16
62.97
70.61
75.5
78.86
82.01
85.57
88.94
90.5
88.16
80.22
66.02
46.21
22.58
-2.29
-25.57
-44.72
-57.86
-64.24
-64.3
-59.66
-52.62
-45.53
-40.11
-37.15
-36.48
-37.38
-39.05
-40.9
-42.74
-44.57
-46.42
-48.28
-50.16
-52.22
-54.81
-58.39
-63.32
-69.62
-77
-85.06
-93.7
-103.28
-114.51
-127.76
-142.28
-155.73
-164.5
-164.76
-153.74
-130.6
-96.39
-53.3
-3.82
49.59
104.3
157.03
203.87
240.99
265.82
277.99
279.45
273.57
264.01
253.71
244.57
237.49
232.52
228.72
224.34
217.15
205.33
188.57
168.62
148.73
132.25
120.94
113.94
108.21
99.96
86.57
67.78
45.67
23.72
5.32
-7.19
-13.01
-12.64
-7.55
0.2
8.24
14.32
16.82
15.44
11.26
6.41
3.02
2.37
4.34
7.73
11.05
13.32
14.35
14.45
13.83
12.21
8.94
3.54
-3.76
-11.95
-19.71
-26.02
-30.67
-34.2
-37.53
-41.5
-46.6
-52.96
-60.46
-68.81
-77.55
-86
-93.49
-99.56
-104.23
-108.12
-112.09
-116.86
-122.69
-129.22
-135.7
-141.22
-144.94
-146.12
-144.25
-139.06
-130.83
-120.43
-109.31
-99.11
-91.28
-86.64
-85.13
-85.9
-87.56
-88.56
-87.58
-83.77
-76.92
-67.47
-56.32
-44.59
-33.41
-23.72
-16.2
-11.27
-9.07
-9.44
-11.91
-15.69
-19.93
-23.88
-27.06
-29.28
-30.57
-30.91
-30.24
-28.33
-24.96
-20.05
-13.76
-6.56
0.88
7.81
13.71
18.4
22.11
25.42
28.95
33.27
38.72
45.43
53.38
62.43
72.26
82.35
92
100.41
106.88
110.95
112.53
111.83
109.24
105.16
99.85
93.35
85.54
76.23
65.5
53.72
41.71
30.42
20.7
12.93
6.82
1.48
-4.27
-11.26
-19.58
-28.32
-35.77
-40
-39.6
-34.26
-24.94
-13.58
-2.44
6.56
12.33
14.65
13.99
11.09
6.65
1.16
-5.09
-11.84
-18.79
-25.61
-31.99
-37.8
-43.09
-48.01
-52.54
-56.44
-59.19
-60.33
-59.83
-58.35
-57.2
-57.78
-60.87
-65.88
-70.67
-72
-66.64
-52.62
-30.28
-2.36
26.68
52.08
70.21
79.53
80.59
75.42
66.52
56.28
46.58
39.02
34.95
35.25
39.9
47.55
55.6
61.05
61.56
56.35
46.31
33.1
18.18
2.13
-15.07
-33.06
-50.21
-63.58
-70.01
-67.65
-57.22
-41.9
-25.92
-12.74
-3.55
2.65
7.91
13.59
19.42
23.57
23.8
18.95
9.64
-1.91
-12.96
-21.45
-26.86
-30.03
-32.54
-35.95
-41.12
-48.25
-57.1
-67.39
-78.81
-90.9
-102.62
-112.26
-117.71
-117.15
-109.82
-96.43
-79.05
-60.34
-42.85
-28.29
-17.43
-10.41
-7.1
-7.36
-11.01
-17.7
-26.74
-37.3
-48.57
-59.92
-70.98
-81.48
-91.11
-99.46
-106.03
-110.42
-112.41
-112.17
-110.33
-107.87
-105.8
-104.55
-103.39
-100.28
-92.22
-76.36
-51.13
-17.21
22.52
63.92
102.82
136.31
163.21
183.68
198.58
208.68
214.4
215.92
213.55
207.94
200.06
190.99
181.56
172.05
162.14
151.16
138.42
123.73
107.61
91.15
75.64
61.94
50.16
39.75
30.13
21.33
14.33
10.83
12.45
19.89
32.45
48.11
64.13
77.78
86.99
90.59
88.37
80.85
69.11
54.56
38.68
23
8.95
-2.14
-9.18
-11.49
-9.16
-3.12
4.95
13.15
19.97
24.64
27.22
28.19
28.11
27.08
24.78
20.66
14.22
5.39
-5.4
-17.17
-28.64
-38.49
-45.66
-49.67
-50.62
-49.18
-46.2
-42.52
-38.7
-35.06
-31.79
-29.15
-27.46
-26.96
-27.65
-29.09
-30.58
-31.41
-31.17
-29.96
-28.32
-26.94
-26.28
-26.41
-27
-27.51
-27.64
-27.42
-27.3
-27.95
-30.01
-33.8
-39.17
-45.48
-51.67
-56.49
-58.71
-57.52
-52.7
-44.78
-34.88
-24.47
-15.11
-8.11
-4.45
-4.55
-8.26
-14.79
-22.77
-30.34
-35.64
-37.25
-34.54
-27.9
-18.45
-7.69
2.95
12.42
20.13
25.71
28.84
29.21
26.54
20.85
12.5
2.15
-9.64
-22.56
-36.52
-51.24
-65.81
-78.62
-87.68
-91.53
-89.8
-83.47
-74.38
-64.52
-55.29
-47.37
-41.04
-36.52
-34.12
-34.09
-36.24
-39.83
-43.62
-46.29
-46.77
-44.58
-39.8
-33.07
-25.43
-18
-11.79
-7.35
-4.76
-3.75
-4.07
-5.72
-9.01
-14.17
-21.09
-29.11
-37.12
-43.77
-47.72
-47.69
-42.49
-31.19
-13.41
10.37
38.6
68.85
98.32
124.43
145.19
159.42
166.76
167.69
163.66
156.95
150.32
146.27
146.16
149.73
155.11
159.64
160.91
157.55
149.54
137.81
123.59
107.87
91.04
73.08
53.91
33.74
13.25
-6.31
-23.45
-36.81
-45.65
-50.05
-51
-50.05
-48.7
-47.98
-48.06
-48.46
-48.37
-47.15
-44.62
-41.05
-36.92
-32.67
-28.45
-24.07
-19.06
-12.87
-5.11
4.18
14.45
24.55
33.01
38.39
39.84
37.36
31.88
24.9
18.02
12.58
9.54
9.59
13.24
20.73
31.6
44.46
56.95
66.29
70.2
67.76
59.75
48.37
36.32
25.82
18.11
13.27
10.69
9.54
9.12
8.97
8.8
8.38
7.54
6.18
4.31
1.95
-0.98
-4.7
-9.57
-15.88
-23.66
-32.44
-41.26
-48.68
-52.97
-52.49
-46.06
-33.47
-15.71
5.03
25.96
44.4
58.52
67.69
72.34
73.34
71.38
66.6
58.59
46.93
31.72
13.85
-5.11
-23.37
-39.49
-52.86
-63.61
-72.45
-80.21
-87.48
-94.57
-101.58
-108.61
-115.79
-123.27
-130.96
-138.48
-145.07
-149.83
-151.97
-151.17
-147.84
-143.02
-138.16
-134.61
-133.17
-133.84
-135.86
-138.09
-139.5
-139.47
-137.87
-134.81
-130.4
-124.48
-116.77
-107.02
-95.41
-82.62
-69.74
-57.95
-48.14
-40.58
-35.06
-31.16
-28.57
-27.44
-28.03
-30.45
-34.06
-37.34
-38.27
-34.9
-26.09
-11.71
7.44
30.11
54.97
80.75
106.05
129.15
148.16
161.47
168.4
169.46
166.25
160.95
155.51
151.26
148.71
147.8
148.28
149.97
152.73
156.33
160.16
163.26
164.54
163.23
159.31
153.74
148.27
144.78
144.48
147.22
151.31
154.1
152.94
146.2
133.89
117.53
99.4
81.72
65.94
52.5
41.1
31.03
21.6
12.25
2.54
-7.77
-18.74
-30.04
-41.09
-51.11
-59.51
-66.03
-70.91
-74.8
-78.57
-83.07
-88.93
-96.27
-104.49
-112.23
-117.62
-118.82
-114.76
-105.58
-92.82
-78.82
-65.97
-55.89
-49.06
-44.95
-42.52
-40.8
-39.27
-37.87
-36.82
-36.28
-36.26
-36.56
-36.98
-37.43
-38.01
-38.9
-40.24
-42.01
-44.07
-46.37
-49.15
-53
-58.67
-66.6
-76.36
-86.51
-94.95
-99.65
-99.65
-95.48
-88.99
-82.6
-78.33
-77.18
-79.03
-83.11
-88.58
-95.01
-102.32
-110.62
-119.77
-129.26
-138.28
-146
-151.89
-155.92
-158.46
-159.97
-160.75
-160.83
-160.07
-158.5
-156.48
-154.41
-152.33
-149.28
-143.15
-131.19
-110.92
-81.08
-42.08
4.23
55.12
107.67
159.09
206.84
248.45
281.82
305.6
319.71
325.56
325.68
322.72
318.64
314.2
309.15
302.92
295.41
287.18
279.14
271.75
264.35
255.11
241.61
221.9
195.56
163.97
130
97.03
67.79
43.6
24.64
10.32
-0.07
-7.38
-12.81
-18.13
-25.31
-35.94
-50.4
-67.59
-85.49
-102.47
-118.43
-135.05
-154.69
-178.63
-205.84
-232.67
-253.75
-263.73
-259.14
-239.56
-207.84
-168.9
-128.06
-89.55
-55.75
-27.08
-2.88
17.62
35.17
47.97
53.06
48.9
36.73
19.81
1.36
-16.81
-34.38
-51.78
-69.16
-86.19
-101.68
-114.24
-122.97
-127.87
-129.98
-130.66
-131.6
-132.1
-131.35
-128.54
-123.32
-115.8
-106.8
-97.9
-90.38
-83.89
-77.22
-69.66
-60.94
-51.2
-40.31
-27.96
-14.04
3
23.24
47.83
76.65
108.33
140.92
173.36
204.98
234.1
259.65
282.69
303.71
321.6
334.4
340.6
341.14
338.18
333.21
311.31
265.78
199.67
124.91
55.57
0.46
-37.96
-54.82
-59.01
-58.19
-54.66
-48.78
-40.54
-30.09
-25.18
-28.59
-40.55
-60.26
-83.58
-103.45
-113.96
-112.14
-98.34
-75.49
-46.48
-14.98
14.03
36.74
51.48
57.51
55.13
45.39
29.8
10.86
-9.73
-31.56
-53.47
-73.14
-88.14
-96.76
-98.76
-95.54
-88.8
-80.64
-73.1
-67.12
-62.7
-59.52
-57.2
-55.27
-52.87
-48.19
-39.27
-24.71
-3.84
22.73
52.67
82.33
107.63
125.24
133.98
134.62
128.77
119.11
108.81
100.5
95.97
95.92
99.78
106.43
113.49
116.8
113.51
103.39
87.99
69.75
50.85
32.49
16.09
2.47
-9.8
-20.94
-29.43
-34.08
-34.4
-30.45
-22.19
-7.66
14.6
41.56
69.62
96.22
119.23
137.91
152.72
154.28
136.29
110.51
79.01
36.18
-16.8
-74.06
-127.46
-170.1
-198.72
-212.69
-211.57
-199.33
-180.25
-156.88
-130.95
-103.45
-75.68
-49.97
-28.11
-11.68
-2.92
-1.27
-2.7
-2.3
3.83
17.18
36.7
60.38
85.81
109.76
129.51
144.57
155.19
161.49
163.12
159.55
151.12
138.9
123.63
106.16
87.61
68.61
49.59
31.14
14.26
0.32
-9.64
-15.76
-19.09
-20.96
-22.89
-26.47
-33.37
-45.1
-62.67
-86.05
-113.94
-143.94
-173.04
-198.28
-217.19
-227.67
-227.85
-216.37
-193.09
-159.93
-121.08
-82.07
-48.12
-22.57
-6.17
2.49
5.81
5.96
4.35
1.82
-0.95
-3.14
-3.92
-2.85
-0.1
3.46
6.64
8.16
7.11
2.99
-4.22
-14.2
-26.44
-40.24
-54.73
-68.58
-79.96
-86.78
-87.34
-81.11
-69.24
-54.31
-39.36
-26.74
-17.24
-10.05
-3.55
3.7
12.2
21.25
29.28
34.35
34.73
29.41
18.66
4.46
-9.53
-18.77
-19.38
-9.87
7.94
29.27
48.08
59.41
61.15
54.55
43.13
31.06
21.61
16.45
15.76
18.99
25.49
34.96
47.44
62.93
80.73
98.9
114.29
123.28
123.26
113.99
97.73
77.96
57.2
35.48
10.88
-18.26
-50.48
-79.97
-98.04
-96.85
-73.24
-30.65
21.94
73.41
114.14
138.33
144.31
133.43
108.65
73.76
33.09
-8.5
-45.97
-74.83
-92.16
-97.36
-92.33
-80.94
-67.61
-55.98
-48.07
-44.17
-43.45
-44.62
-46.34
-47.29
-46.01
-41.11
-31.8
-18.49
-2.86
12.77
26.66
38.51
49.49
61.23
74.61
89
102.6
113.56
120.93
125.05
126.97
127.66
127.68
127.41
127.58
129.49
134.49
142.99
153.73
163.92
170.36
170.9
165.37
155.37
143.18
130.46
117.53
103.57
87.41
68.51
47.41
25.59
4.87
-13.35
-28.57
-41.41
-53.41
-66.6
-82.83
-103.12
-127.33
-154.12
-181.54
-207.68
-231.25
-251.78
-269.17
-283.21
-293.07
-297.39
-294.69
-283.97
-265.2
-239.28
-207.73
-172.23
-134.39
-95.69
-57.67
-21.96
9.68
35.56
54.19
64.51
65.94
58.6
43.46
22.47
-1.53
-25.31
-45.99
-61.89
-72.97
-80.63
-86.92
-93.47
-100.66
-107.51
-112.11
-112.6
-107.87
-97.86
-83.38
-65.64
-45.92
-25.48
-5.65
12.07
26.19
35.59
39.96
39.98
37.21
33.55
30.45
28.51
27.27
25.64
22.53
17.49
10.98
4.16
-1.7
-5.85
-8.44
-10.34
-12.67
-16.07
-20.21
-23.86
-25.32
-23.26
-17.31
-8.36
1.75
10.94
17.64
21.34
22.47
21.94
20.51
18.5
15.79
12.15
7.53
2.14
-3.64
-9.52
-15.38
-21.22
-27.04
-32.72
-38.11
-43.13
-47.94
-52.98
-58.74
-65.61
-73.59
-82.02
-89.6
-94.42
-94.36
-87.71
-73.77
-53.13
-27.64
0.13
27.58
52.71
74.27
91.62
104.26
111.64
113.37
109.66
101.73
91.88
82.94
77.43
76.87
81.51
90.56
102.87
117.34
132.99
148.78
163.23
174.55
180.9
181.06
174.89
163.43
148.58
132.52
117.23
103.98
93.25
84.81
78.01
72.12
66.59
61.1
55.5
49.72
43.47
36.3
27.67
17.25
5.18
-7.78
-20.32
-30.86
-38.11
-41.58
-41.79
-40.21
-38.67
-38.69
-40.93
-45.02
-49.84
-54.12
-56.97
-58.13
-57.9
-56.8
-55.37
-54.01
-53.04
-52.69
-53.18
-54.61
-56.9
-59.8
-62.94
-65.91
-68.41
-70.26
-71.52
-72.38
-73.1
-73.93
-74.97
-76.35
-78.26
-81.13
-85.5
-91.79
-100.03
-109.53
-119.08
-127.3
-133.13
-136.07
-136.19
-133.84
-129.37
-122.98
-114.84
-105.27
-94.8
-84.09
-73.73
-64.09
-55.27
-47.27
-40.12
-33.95
-28.96
-25.28
-22.87
-21.44
-20.64
-20.2
-20.08
-20.53
-22.05
-25.12
-30.11
-37.03
-45.41
-54.31
-62.41
-68.33
-71.03
-70.2
-66.53
-61.54
-57.19
-55.24
-56.69
-61.54
-69.02
-77.96
-87.26
-96.05
-103.63
-109.24
-111.98
-110.86
-105.15
-94.69
-80.06
-62.39
-42.97
-22.8
-2.41
17.97
38.11
57.46
75.13
90.28
102.46
111.97
119.67
126.58
133.31
139.83
145.52
149.74
152.22
153.17
153.07
152.23
150.58
147.81
143.8
139.04
134.62
131.92
131.89
134.72
139.76
145.88
152.05
157.47
161.66
164.21
164.74
163.03
159.26
154.24
149.14
145.1
142.64
141.43
140.45
138.51
134.83
129.33
122.55
115.34
108.49
102.49
97.48
93.49
90.53
88.78
88.45
89.75
92.67
96.9
101.87
106.83
111.09
114.1
115.42
114.74
111.67
105.8
96.76
84.46
69.16
51.54
32.46
12.82
-6.73
-25.83
-44.34
-62.21
-79.3
-95.41
-110.28
-123.72
-135.57
-145.7
-153.89
-159.8
-162.94
-162.81
-158.96
-151.17
-139.6
-124.76
-107.57
-89.21
-70.89
-53.59
-37.88
-23.82
-11.11
0.69
11.86
22.37
31.85
39.79
45.69
49.33
50.77
50.2
47.7
43.06
35.7
25
10.62
-7.15
-27.18
-47.72
-66.81
-82.78
-94.67
-102.32
-106.19
-107
-105.41
-101.75
-96.11
-88.57
-79.28
-68.57
-57.05
-45.36
-34.16
-24.13
-15.98
-10.33
-7.65
-8.01
-11.07
-16.21
-22.74
-30.1
-37.94
-46.04
-54.15
-61.95
-69.11
-75.36
-80.59
-84.84
-88.16
-90.53
-91.87
-92.11
-91.46
-90.42
-89.7
-89.96
-91.46
-94.07
-97.14
-99.86
-101.48
-101.57
-100.09
-97.28
-93.51
-89.05
-84
-78.28
-71.69
-64.11
-55.57
-46.34
-36.89
-27.79
-19.52
-12.39
-6.4
-1.09
4.5
11.54
21
33.08
46.76
60.16
71.24
79
84.06
88.6
95.3
105.98
120.73
137.84
154.64
168.14
175.63
175.09
165.61
148
125.1
101.47
81.92
69.84
65.85
67.73
71.83
74.8
74.93
72.15
67.3
60.9
52.94
43.25
32.21
21.21
12.12
6.42
4.42
5.01
6.13
5.69
2.5
-3.31
-10.38
-16.92
-21.5
-23.66
-24.02
-23.91
-24.64
-26.91
-30.7
-35.34
-39.98
-44
-47.16
-49.52
-51.23
-52.31
-52.51
-51.45
-48.83
-44.66
-39.27
-33.3
-27.45
-22.38
-18.53
-16.14
-15.32
-16.06
-18.25
-21.58
-25.47
-29.11
-31.58
-32.1
-30.28
-26.21
-20.44
-13.81
-7.21
-1.39
3.09
5.98
7.28
7.23
6.17
4.49
2.46
0.19
-2.45
-5.79
-10.23
-16.15
-23.74
-32.67
-42.15
-50.89
-57.47
-60.81
-60.52
-57.05
-51.54
-45.31
-39.42
-34.41
-30.25
-26.62
-23.01
-18.82
-13.38
-6.03
3.55
15.15
27.8
40.08
50.45
57.83
61.96
63.33
62.9
61.59
59.94
57.91
55.03
50.56
43.86
34.73
23.48
10.88
-1.95
-13.88
-24.05
-31.79
-36.66
-38.3
-36.43
-31.04
-22.53
-11.66
0.49
12.94
25.02
36.5
47.3
57.32
66.21
73.45
78.74
82.29
84.9
87.77
92.08
98.32
105.99
113.52
118.63
119.04
113.11
100.41
81.8
59.12
34.56
10.11
-12.83
-33.51
-51.53
-66.66
-78.71
-87.5
-93.09
-95.75
-95.99
-94.38
-91.45
-87.69
-83.51
-79.24
-75.14
-71.35
-68.02
-65.34
-63.51
-62.73
-63
-64.12
-65.69
-67.34
-68.93
-70.6
-72.71
-75.63
-79.54
-84.34
-89.76
-95.48
-101.23
-106.85
-112.22
-117.26
-121.95
-126.27
-130.38
-134.46
-138.63
-142.68
-145.98
-147.5
-146.18
-141.35
-133.01
-121.91
-109.19
-95.92
-82.79
-70.02
-57.44
-44.86
-32.13
-19.27
-6.34
6.52
19.25
31.71
43.73
54.99
64.93
73.05
79.07
83.25
86.51
90.14
95.34
102.61
111.54
120.97
129.59
136.58
141.83
145.81
149.05
151.78
153.87
155.26
156.43
158.54
163.18
171.54
183.71
198.33
212.87
224.53
231.39
233.16
231.3
228.45
227.38
230.04
236.74
245.94
254.4
257.87
252.29
235.08
206.27
168.66
126.85
85.52
47.74
14.19
-16.34
-45.54
-74.18
-101.51
-125.86
-145.78
-161.04
-172.82
-183.03
-193.24
-203.83
-213.98
-222.26
-227.59
-229.99
-230.67
-231.67
-234.9
-241.43
-250.87
-261.64
-271.38
-277.74
-278.9
-273.75
-261.64
-242.15
-215.02
-180.47
-139.73
-95.13
-49.77
-6.67
32.16
66.13
95.75
121.83
144.74
164.17
179.56
190.82
198.88
205.54
212.95
222.87
236.17
252.71
271.62
291.44
310.22
325.53
334.72
335.39
326.2
307.52
281.69
252.52
223.98
198.72
177.05
156.98
135.44
109.98
80.18
47.94
16.58
-10.81
-32.73
-49.71
-63.72
-76.83
-90.24
-103.82
-116.62
-127.66
-136.69
-144.27
-151.25
-158.17
-164.63
-169.34
-170.7
-167.51
-159.66
-148.17
-134.91
-121.83
-110.51
-101.81
-96.08
-93.48
-94.25
-98.72
-107.23
-119.77
-135.79
-154.04
-172.76
-189.92
-203.68
-212.65
-216.06
-213.62
-205.24
-190.8
-170.36
-144.4
-114.22
-81.89
-49.77
-19.83
6.84
30.05
50.07
66.98
80.48
90.03
95.35
96.73
95.12
91.68
87.37
82.65
77.57
72.11
66.45
60.97
56.14
52.31
49.56
47.64
45.96
43.72
40.01
34.1
25.62
14.82
2.45
-10.59
-23.58
-36.33
-49.08
-62.11
-75.34
-88.08
-99.25
-107.79
-113.1
-115.36
-115.36
-114.31
-113.4
-113.41
-114.3
-114.9
-112.97
-105.78
-90.91
-67.1
-34.47
5.75
51.87
102.31
155.65
210.31
264.36
315.65
362.29
402.94
436.41
460.93
473.66
471.24
451.39
414.78
365.77
311.36
258.67
212.28
173.17
139.34
108.02
77.64
48.63
22.55
0.56
-17.71
-34.09
-50.7
-68.7
-87.51
-105.22
-119.62
-129.33
-134.42
-136.17
-136.44
-136.81
-138.11
-140.37
-143.07
-145.67
-147.87
-149.72
-151.5
-153.35
-155.09
-156.19
-155.9
-153.58
-149.01
-142.46
-134.54
-126.02
-117.64
-109.98
-103.54
-98.7
-95.74
-94.63
-94.9
-95.67
-95.73
-94.03
-89.99
-83.79
-76.24
-68.43
-61.25
-55.03
-49.49
-43.95
-37.53
-29.25
-18.26
-3.99
13.22
31.71
48.46
59.83
63.11
57.72
45.72
30.83
16.71
5.25
-3.92
-12.75
-23.31
-36.58
-52.11
-68.55
-84.46
-98.77
-110.85
-120.03
-125.4
-125.7
-119.51
-105.75
-84.1
-55.38
-21.84
12.84
43.97
66.66
77.04
73.48
57.28
32.64
5.48
-18.34
-34.89
-43.21
-45.04
-43.44
-40.81
-37.72
-32.86
-24.37
-11.68
3.54
17.69
26.94
29.24
25.42
18.9
14.1
14.47
21.14
32.8
46.75
60.25
71.58
80.23
86.21
89.23
88.21
81.51
67.85
47.18
21.2
-6.97
-33.78
-56.39
-73.47
-85.27
-93.14
-98.58
-102.66
-105.67
-107.46
-107.85
-106.95
-105.13
-102.79
-100.34
-98.2
-97.05
-97.57
-100.04
-103.78
-107.06
-107.89
-105
-98.75
-90.88
-83.66
-78.37
-74.69
-71.01
-65.63
-58.01
-49.24
-41.52
-37.05
-37.05
-41.19
-47.67
-53.73
-56.11
-51.71
-38.18
-14.56
18.29
57.75
100.08
141.29
178.03
208.13
230.66
245.68
253.7
255.47
251.68
243.21
231.24
217.38
203.63
191.91
183.53
178.73
176.68
175.86
174.79
172.64
169.36
165.52
161.75
158.3
154.88
150.88
145.68
138.93
130.76
121.79
113.13
106.14
102.13
101.89
105.34
111.53
118.91
125.84
130.97
133.44
132.85
129.19
122.96
115.24
107.56
101.5
98.09
97.22
97.63
97.42
94.76
88.64
79.02
66.59
52.37
37.31
22.19
7.59
-5.98
-18.3
-29.48
-40.08
-50.95
-62.93
-76.34
-90.79
-105.16
-118.11
-128.67
-136.69
-142.87
-148.36
-154.06
-160.3
-166.77
-172.92
-178.69
-184.87
-193.12
-205.51
-223.74
-248.32
-277.99
-309.44
-337.78
-357.6
-364.37
-355.88
-333
-299.49
-260.84
-222.72
-189.41
-163.06
-143.63
-129.54
-118.41
-107.75
-95.45
-80.06
-61.22
-39.73
-17.47
3.05
19.56
30.63
36.29
37.99
38.15
39.21
42.88
49.52
58.09
66.77
73.57
77.27
77.7
75.62
72.15
68.25
64.4
60.71
57.3
54.39
52.13
50.14
47.2
41.36
30.81
14.82
-5.53
-27.31
-46.57
-59.62
-63.96
-58.89
-45.44
-26
-3.83
17.59
35.5
48.67
57.88
65.53
74.25
85.32
97.84
109.17
116.58
119.11
118.31
117.28
118.97
124.62
133.43
143.45
152.37
157.65
155.88
142.68
114.24
70.26
16.21
-37.16
-77.5
-96.26
-92.72
-74.42
-53.62
-41.67
-44.27
-60.05
-82.35
-103.06
-116.06
-118.92
-112.6
-99.99
-84.14
-67.18
-50.18
-33.47
-17.32
-2.71
9.18
17.59
23.26
28.48
36.17
48.2
64.14
81.03
94.5
100.73
98.12
87.78
72.55
55.28
37.47
19.24
0.39
-18.33
-34.65
-45.75
-49.81
-47.11
-39.7
-29.95
-19.12
-7.04
6.8
21.79
35.56
44.95
47.8
44.28
36.7
28.05
20.18
13.23
6.46
-0.29
-5.73
-7.7
-4.57
3.57
14.76
26.32
36.09
43.12
47.42
49.16
48.24
44.51
38.25
30.52
22.83
16.59
12.83
12.33
16.06
25.28
40.99
62.87
88.56
113.93
134.5
147.17
151.25
148.36
141.22
132.49
124.01
116.82
111.55
108.31
106.25
103.12
95.19
78.1
48.39
5.08
-49.28
-108.69
-165.05
-210.96
-242.58
-261.19
-272.57
-283.95
-300.12
-320.54
-339.42
-348.3
-340.67
-315.16
-275.98
-230.44
-185.29
-144.08
-106.89
-71.96
-37.48
-3.23
29.71
60.25
88.62
116.44
145.45
175.87
205.17
229.92
246.4
252.81
250.53
243.71
237.2
233.93
233.56
232.67
230.23
226.88
225.33
228.96
239.62
256.26
274.97
290.67
298.26
299.83
299.79
303.23
313.38
330.62
352.39
373.85
389.28
391.44
380.23
356.61
322.42
280.55
235.97
196.74
173.4
176.96
184.73
180.22
150.14
90.38
6.85
-88.92
-184.02
-267.23
-320.93
-351.11
-362.02
-358.86
-346.49
-328.41
-306.29
-279.85
-252.95
-227.03
-205.61
-186.45
-167.73
-148.77
-130.5
-114.91
-104
-98.96
-99.14
-104.85
-112.62
-120.32
-128.08
-138.08
-153.1
-174.36
-200.2
-225.37
-244.06
-249.31
-237.9
-212.05
-178.72
-146.54
-121.96
-106.87
-98.37
-92.05
-83.7
-72.1
-58.79
-46.07
-34.63
-23.05
-9.35
7.12
23.94
36.7
40.85
33.92
17.01
-5
-25.42
-38.33
-40.63
-32.84
-18.13
-0.51
19.02
39.95
62.15
85.28
108.25
129.03
144.98
153.96
156.55
153.34
145.34
134.03
120.78
106.41
91.06
74.41
56.95
39.39
22.14
4.96
-12.98
-33.12
-56.89
-84.69
-114.84
-143.44
-165.61
-177.53
-178.21
-169.9
-157.17
-144.65
-134.96
-127.59
-119.63
-107.66
-89.68
-65.73
-37.59
-7.8
21.01
46.27
65.45
76.25
77.41
69.61
56.06
41.84
32.17
30.4
36.78
48.52
61.11
70.11
72.71
68.34
58.32
44.89
30.29
16.32
4.38
-4.24
-8.2
-6.48
0.99
12.52
24.36
31.43
28.73
13.32
-14.33
-50.26
-88.33
-122.44
-148.66
-166.24
-177.3
-185.29
-192.95
-200.95
-207.57
-209.69
-204.31
-189.99
-167.42
-139.06
-108.21
-78.07
-51.11
-29.01
-12.72
-2.69
1.26
-0.02
-4.89
-11.35
-17.29
-21.11
-21.99
-20.02
-16.03
-11.25
-6.97
-4.23
-3.6
-5.15
-8.52
-13.07
-17.91
-22.03
-24.38
-24
-20.21
-12.79
-2
11.36
26.1
40.86
54.31
65.46
73.77
79.34
82.65
84.46
85.37
85.63
85.02
83.13
79.69
74.85
69.25
63.56
58.05
52.31
45.38
36.27
24.49
10.33
-5.24
-20.86
-34.96
-45.77
-51.28
-49.42
-38.63
-18.52
9.68
43.22
78.63
112.74
143.39
169.68
191.61
209.64
224.41
236.6
246.95
256.24
265.11
273.95
282.81
291.42
299.24
305.5
309.26
309.62
306.01
298.25
286.46
270.76
250.88
226.19
195.99
160.18
119.79
77.07
35.1
-2.99
-34.79
-59.23
-76.77
-89.17
-98.93
-108.53
-119.81
-133.37
-148.69
-164.51
-179.67
-193.7
-207.04
-220.75
-235.83
-252.54
-270.02
-286.29
-298.7
-304.67
-302.41
-291.4
-272.51
-247.69
-219.45
-190.36
-162.65
-138.12
-118.08
-103.34
-94.01
-89.4
-88.08
-88.21
-88.14
-86.82
-84.08
-80.43
-76.75
-73.91
-72.61
-73.24
-75.96
-80.68
-87.09
-94.69
-102.84
-110.85
-118.13
-124.35
-129.56
-134.06
-138.3
-142.4
-145.8
-147.21
-144.97
-137.72
-125.2
-108.41
-89.15
-69.21
-49.72
-31.08
-13.48
2.57
16.17
26.59
34.2
40.92
49.71
63.32
82.81
106.85
132.17
154.93
172.23
182.99
187.75
187.73
183.76
175.91
163.86
147.83
129.21
110.51
94.49
82.87
75.49
70.38
64.85
56.86
45.89
32.95
19.6
6.83
-5.46
-18.04
-31.38
-44.69
-55.81
-61.93
-60.87
-52.04
-36.75
-17.62
2.37
20.74
35.95
47.38
55.06
59.34
60.8
60.13
58.02
55.11
51.85
48.51
45.17
41.71
37.8
33.02
26.91
19.26
10.14
-0.06
-10.84
-21.83
-32.91
-44.22
-55.87
-67.68
-78.93
-88.37
-94.53
-96.11
-92.43
-83.69
-70.97
-55.8
-39.79
-24.22
-9.85
2.89
13.74
22.43
28.68
32.37
33.74
33.38
32.12
30.76
29.76
29.17
28.7
27.92
26.48
24.26
21.31
17.81
13.87
9.42
4.24
-1.98
-9.49
-18.28
-27.87
-37.27
-45.02
-49.51
-49.47
-44.37
-34.6
-21.36
-6.25
9.18
23.8
36.9
48.09
57.1
63.62
67.45
68.61
67.5
64.82
61.41
57.91
54.56
51.23
47.58
43.3
38.27
32.72
27.02
21.46
16.17
10.99
5.64
-0.19
-6.74
-14.21
-22.73
-32.35
-42.7
-52.82
-61.13
-65.77
-65.2
-58.89
-47.5
-32.73
-16.59
-0.8
13.67
26.43
37.36
46.19
52.49
55.89
56.45
54.83
52.12
49.4
47.27
45.66
43.96
41.44
37.64
32.65
26.99
21.33
16.18
11.56
7.14
2.34
-3.51
-10.87
-19.89
-30.33
-41.39
-51.81
-60
-64.44
-64.09
-58.76
-49.14
-36.59
-22.72
-9.03
3.3
13.46
20.84
25.09
26.13
24.3
20.44
15.7
11.25
7.88
5.76
4.44
3.14
1.17
-1.67
-5.07
-8.33
-10.74
-11.98
-12.29
-12.39
-13.27
-15.8
-20.43
-27.11
-35.18
-43.52
-50.65
-54.98
-55.11
-50.2
-40.22
-25.97
-8.92
9.24
27.04
43.48
58.05
70.54
80.83
88.76
94.27
97.51
98.85
98.75
97.4
94.52
89.45
81.45
70.25
56.42
41.25
26.38
13.11
1.99
-7.32
-15.75
-24.4
-34.16
-45.6
-58.86
-73.57
-88.58
-101.93
-111.05
-113.36
-107.23
-92.52
-70.77
-44.68
-17.19
9.22
32.83
52.48
67.16
75.93
78.13
73.96
64.91
53.68
43.58
37.46
36.79
41.31
49.37
58.91
68.37
77.11
85.16
92.42
97.95
99.92
96.21
85.47
67.91
45.54
21.66
0.05
-15.85
-23.48
-21.57
-10.36
8.32
31.18
54.12
73.2
85.61
90.29
87.91
80.29
69.59
57.7
45.97
35.27
26.11
18.77
13.25
9.19
5.96
2.83
-0.83
-5.34
-10.73
-16.8
-23.42
-30.71
-39.15
-49.47
-62.34
-78.08
-96.36
-116.18
-135.92
-153.62
-167.14
-174.5
-174.23
-165.69
-149.35
-126.71
-99.94
-71.36
-42.98
-16.18
8.17
29.57
47.55
61.69
71.71
77.67
80.05
79.65
77.37
73.97
70.02
65.86
61.69
57.66
53.85
50.25
46.68
42.77
37.92
31.48
22.91
11.92
-1.28
-15.95
-30.77
-44.08
-54.16
-59.65
-59.9
-55.12
-46.17
-34.27
-20.55
-5.96
8.72
22.63
34.78
44.21
50.28
53.1
53.61
53.24
53.43
55.08
58.26
62.37
66.45
69.49
70.69
69.31
64.71
56.27
43.45
25.95
3.72
-23.03
-53.84
-87.93
-123.96
-159.84
-192.73
-219.42
-237
-243.63
-238.95
-224.13
-201.33
-173.11
-141.85
-109.68
-78.55
-50.4
-27.05
-10.01
0.04
3.52
2.09
-1.58
-4.35
-3.39
2.89
14.35
28.99
43.74
55.57
62.64
64.85
63.39
59.84
55.1
48.99
40.65
29.42
15.7
1.1
-12.05
-21.66
-26.7
-27.52
-25.52
-22.46
-19.8
-18.24
-17.7
-17.67
-17.55
-16.94
-15.71
-13.83
-11.25
-7.88
-3.66
1.23
6.33
11.01
14.78
17.39
18.88
19.42
19.01
17.55
14.83
10.87
5.98
0.85
-3.66
-6.64
-7.28
-4.92
0.62
8.98
19.2
29.77
39.06
45.83
49.78
51.58
52.52
53.66
55.5
57.77
59.61
59.93
57.8
52.89
45.59
37.12
28.97
22.78
19.74
20.07
22.82
26.35
29.25
30.87
31.54
31.28
30.42
29.34
28.48
28.4
29.89
33.85
40.87
50.61
60.12
66.58
68.42
65.61
59.08
49.9
38.8
25.96
11.26
-7.81
-32.1
-60.29
-90.1
-120.11
-150.73
-183.58
-219.97
-259.51
-302.6
-345.94
-382.99
-406.56
-412.03
-399.15
-371.82
-336.38
-279.95
-202.52
-115.16
-33.82
30.16
73.39
97.78
107.43
107.81
105.02
101.07
96.38
89.31
75.81
49.82
8.05
-48.51
-113.73
-177.66
-231.91
-269.04
-283.95
-275.5
-247.43
-207.46
-164.97
-128.03
-101.1
-85.48
-79.16
-76.37
-70.67
-58.32
-39.5
-17.03
6.35
29.9
54.4
81.86
114.41
152.97
196.96
245.14
296.03
348.03
398.69
443.97
479.21
500.83
507.6
500.77
483.23
457.8
426.15
388.77
346.04
299.23
251.3
205.98
166.33
133.57
106.75
83.52
61.68
40.41
20.54
3.96
-7.58
-13.52
-14.72
-12.92
-9.97
-7.16
-5.12
-4.02
-3.86
-4.66
-6.55
-9.62
-13.89
-19.31
-25.69
-32.65
-39.5
-45.05
-47.65
-45.57
-37.6
-23.88
-6.35
11.51
25.54
32.3
30.2
19.83
3.38
-16.5
-37.52
-58.21
-77.58
-94.57
-107.91
-116.26
-118.92
-116.14
-109.23
-100.11
-90.7
-82.39
-75.77
-70.71
-66.66
-63.02
-59.45
-55.94
-52.7
-49.94
-47.58
-45.39
-43.14
-40.85
-38.87
-37.74
-37.85
-39.31
-41.95
-45.53
-49.86
-54.7
-59.53
-63.36
-64.92
-63.06
-57.28
-48.02
-36.44
-24.02
-12.2
-2.09
5.49
10.1
11.76
11.06
9.16
7.37
6.62
6.94
7.51
7.01
4.42
-0.45
-6.93
-13.94
-20.39
-25.73
-30.11
-34.54
-41.05
-52.81
-73.72
-107.25
-154.47
-212.26
-272.78
-325.13
-358.62
-366.55
-348.44
-309.77
-259.39
-206.23
-156.71
-114.07
-79.26
-52.21
-32.57
-19.53
-11.36
-5.31
1.43
10.5
21.44
32.03
39.69
42.88
42.14
39.57
37.54
37.4
38.9
40.71
41.54
41.19
40.81
42.36
47.58
57.16
70.55
86.35
102.92
118.88
133.29
145.45
154.81
160.8
162.99
161.25
155.96
148.08
139.03
130.19
122.48
116.03
110.18
104.03
97.08
89.49
82.09
75.74
70.64
66.11
60.82
53.55
43.81
32.17
19.99
8.97
0.6
-4.11
-4.73
-1.4
5.11
13.44
21.81
28.49
32.23
32.67
30.35
26.25
21.36
16.26
11.1
5.8
0.35
-5.07
-10.13
-14.56
-18.23
-21.16
-23.45
-25.11
-26.17
-26.76
-27.23
-28.15
-30.07
-33.32
-37.69
-42.48
-46.61
-48.95
-48.52
-44.73
-37.44
-26.99
-14.23
-0.47
12.67
23.67
31.59
36.37
38.85
40.29
41.72
43.37
44.71
44.87
43.32
40.28
36.64
33.4
31.07
29.44
27.79
25.41
22.02
17.8
13.06
7.88
2.06
-4.57
-11.71
-18.28
-22.63
-23.2
-19.27
-11.38
-1.14
9.39
18.42
24.93
28.73
30.11
29.58
27.57
24.47
20.57
16.16
11.45
6.53
1.44
-3.7
-8.69
-13.21
-16.95
-19.84
-22.08
-24.13
-26.48
-29.46
-33.17
-37.49
-42.09
-46.46
-49.88
-51.39
-49.98
-44.85
-35.75
-23.23
-8.54
6.74
21.1
33.55
43.66
51.46
57.19
61.12
63.5
64.59
64.64
63.84
62.24
59.87
56.76
53.1
49.21
45.4
41.85
38.47
34.99
31.05
26.44
21.13
15.22
8.94
2.67
-3
-7.2
-8.97
-7.59
-2.88
4.59
13.7
23.12
31.72
38.86
44.25
47.8
49.37
48.76
45.95
41.27
35.48
29.52
24.22
19.91
16.46
13.43
10.37
7.05
3.48
-0.18
-3.83
-7.43
-11.06
-14.82
-18.83
-23.27
-28.33
-34.03
-40.01
-45.44
-49.17
-50.1
-47.61
-41.84
-33.65
-24.3
-14.98
-6.57
0.48
5.94
9.62
11.34
11.03
8.86
5.33
1.1
-3.21
-7.26
-11.04
-14.76
-18.64
-22.68
-26.68
-30.3
-33.29
-35.62
-37.55
-39.45
-41.77
-44.81
-48.65
-53.05
-57.39
-60.69
-61.71
-59.39
-53.12
-43.06
-30.14
-15.71
-1.19
12.39
24.41
34.58
42.67
48.43
51.67
52.37
50.82
47.5
43.06
38.13
33.26
28.83
25.06
21.94
19.25
16.76
14.25
11.66
9.02
6.33
3.46
0.19
-3.62
-7.8
-11.72
-14.46
-15.06
-12.82
-7.47
0.75
11.21
22.95
34.82
45.65
54.44
60.62
64.08
65.13
64.27
61.97
58.62
54.51
49.96
45.35
41.05
37.25
33.9
30.78
27.66
24.38
20.83
16.82
12.01
5.96
-1.65
-10.87
-21.41
-32.79
-44.44
-55.71
-65.82
-73.71
-78.3
-78.8
-75.15
-68.17
-59.3
-50.07
-41.65
-34.59
-29.01
-24.85
-22.09
-20.7
-20.37
-20.45
-20.06
-18.39
-15.07
-10.41
-5.13
0.03
4.59
8.51
11.95
14.97
17.23
18.03
16.59
12.36
5.32
-4.1
-15.23
-27.31
-39.57
-51.14
-60.96
-67.94
-71.27
-70.73
-66.91
-61
-54.41
-48.31
-43.56
-40.64
-39.83
-41.25
-44.7
-49.65
-55.21
-60.35
-64.33
-66.98
-68.72
-70.31
-72.39
-75.06
-77.7
-79.22
-78.48
-74.8
-68.37
-60.13
-51.38
-43.13
-35.68
-28.44
-20.34
-10.34
2.15
17.1
34.05
52.37
71.47
90.75
109.5
126.77
141.35
151.94
157.33
156.67
149.83
137.49
121.23
103.07
84.92
67.9
52.1
36.75
20.91
4.03
-13.57
-30.94
-46.83
-60.17
-70.3
-76.92
-80.1
-80.24
-78.22
-75.24
-72.3
-69.49
-65.54
-58.16
-45.13
-25.71
-1.47
24.01
46.4
62.25
70.16
70.76
65.94
57.76
47.82
37.28
27.25
19.05
14.01
12.89
15.39
20.15
25.27
29.18
31.24
31.83
31.9
32.24
33.03
33.71
33.38
31.26
27.16
21.5
15.32
9.91
6.52
6.14
9.36
16.31
26.64
39.49
53.48
66.85
77.73
84.61
86.79
84.7
79.8
74.08
69.22
65.96
63.78
61.29
56.91
49.62
39.39
27.09
14.2
2.18
-7.9
-15.64
-21.26
-25.54
-29.56
-34.46
-41.22
-50.4
-61.88
-74.92
-88.2
-100.14
-109.2
-114.15
-114.32
-109.73
-101.13
-89.94
-78.11
-67.65
-60.25
-56.84
-57.37
-60.88
-65.89
-70.76
-74.08
-74.91
-72.76
-67.64
-59.89
-50.24
-39.62
-28.98
-19.1
-10.49
-3.3
2.52
7.12
10.72
13.62
16.27
19.25
23.15
28.3
34.55
41.15
46.97
51
52.59
51.7
48.78
44.6
40.03
35.84
32.58
30.5
29.78
30.25
31.37
32.31
32.31
30.98
28.49
25.37
22.29
20.25
19.84
20.93
22.6
23.58
22.7
19.45
14.09
7.64
2.28
-0.08
1.28
5.37
10.11
13.38
14.22
13.24
12.36
15.09
24.11
40.06
61.11
83.89
104.86
121.6
133.02
132.8
117.76
89.57
55.22
23.34
-0.16
-13.59
-18.19
-16.64
-11.78
-5.03
2.45
9.46
14.58
17.5
17.66
15.63
12.57
9.39
7.15
5.7
4.06
0.72
-5.77
-16.26
-30.73
-48.73
-69.91
-90.95
-109.14
-122.2
-128.69
-128.04
-120.83
-108.52
-93.48
-78.52
-65.73
-56.35
-50.15
-45.76
-41.55
-36.32
-29.66
-21.87
-13.4
-4.43
4.74
13.61
21.21
26.43
28.48
27.47
24.43
20.91
18.46
18.13
20.66
26.59
36.15
48.92
63.51
77.6
88.5
93.95
92.51
83.64
67.34
43.92
14.2
-20.02
-55.6
-88.45
-114.61
-131.42
-138.26
-136.34
-127.71
-114.16
-96.58
-75.15
-50
-21.92
7.49
35.96
61.16
81.19
94.78
101.4
101.2
95.07
84.52
71.54
58.24
46.39
37.12
30.85
27.43
26.46
27.48
29.99
33.36
36.68
38.82
38.62
35.19
28.15
17.79
5.03
-8.67
-21.58
-32.08
-38.88
-41.37
-39.63
-34.45
-27
-18.53
-10.14
-2.6
3.63
8.26
11.15
12.3
12.01
10.81
9.34
8.02
6.81
5.2
2.43
-2.13
-8.61
-16.47
-24.61
-31.78
-36.97
-39.81
-40.71
-40.79
-41.38
-43.48
-47.18
-51.42
-54.35
-54.13
-49.7
-41.39
-30.68
-19.57
-9.8
-2.38
2.39
4.59
4.35
1.82
-2.65
-8.31
-14.11
-19
-22.5
-24.74
-26.41
-28.17
-30.19
-32
-32.67
-31.39
-27.91
-22.79
-17.3
-13.01
-11.34
-13.22
-18.83
-27.5
-37.71
-47.31
-53.95
-55.73
-51.74
-42.46
-29.47
-14.95
-0.83
11.7
22.33
31.21
38.51
44.05
47.34
47.95
45.85
41.6
36.19
30.76
26.22
23.02
21.14
20.12
19.38
18.37
16.77
14.52
11.81
8.88
5.95
3.08
0.22
-2.72
-5.83
-9.22
-13.01
-17.24
-21.73
-25.92
-28.78
-29.02
-25.55
-17.95
-6.74
6.66
20.35
32.59
42.22
48.86
52.71
54.15
53.44
50.7
46.06
39.88
32.85
25.89
