58.55
59.08
57.74
55.84
54.54
54.45
55.47
56.83
57.35
55.8
51.32
43.75
33.88
23.36
14.32
8.77
7.91
11.77
19.13
28.09
36.76
43.88
49.06
52.61
55.04
56.66
57.47
57.3
55.96
53.28
49.11
43.29
35.64
26.3
15.75
4.77
-5.9
-15.81
-25.01
-33.98
-43.3
-53.37
-64.29
-75.82
-87.59
-99.09
-109.69
-118.79
-125.88
-130.8
-133.78
-135.25
-135.51
-134.5
-131.83
-127.17
-120.65
-113.06
-105.54
-99.06
-93.75
-88.88
-83.12
-75.34
-65.18
-53.21
-40.62
-28.62
-17.96
-8.83
-1.05
5.75
11.86
17.48
22.61
27.11
30.62
32.58
32.52
30.27
26.42
22.26
19.67
20.46
25.89
36.25
50.7
67.55
84.65
99.99
112.05
120.15
124.34
125.11
122.97
118.28
111.41
103.04
94.47
87.48
83.82
84.35
88.47
94.14
98.6
99.54
96.06
89.03
80.64
73.29
68.5
66.34
65.51
64.02
60.13
53
42.89
30.91
18.48
6.92
-2.86
-10.49
-16.06
-20.09
-23.31
-26.56
-30.62
-36.18
-43.81
-54.01
-67.19
-83.5
-102.61
-123.45
-144.25
-162.81
-177.06
-185.66
-188.43
-186.53
-181.96
-176.92
-172.95
-170.37
-168.13
-164.44
-157.63
-147.06
-133.49
-118.96
-105.86
-95.88
-89.18
-84.15
-78.08
-68.26
-53.23
-33.41
-10.96
11.18
30.39
45.28
55.82
62.83
67.2
69.3
69.01
66.09
60.8
54.12
47.66
43.07
41.37
42.59
45.64
48.93
50.96
51.02
49.42
47.22
45.63
45.24
45.73
46
44.69
40.84
34.27
25.54
15.8
6.37
-1.51
-6.85
-8.95
-7.5
-2.64
5.02
14.61
25.06
35.36
44.62
52.14
57.38
60.03
60.04
57.59
53.17
47.41
41.04
34.79
29.22
24.64
21.05
18.19
15.65
13.12
10.52
7.98
5.77
4.05
2.72
1.44
-0.25
-2.74
-6.32
-11.03
-16.7
-22.88
-28.82
-33.58
-36.15
-35.81
-32.36
-26.24
-18.35
-9.79
-1.51
5.88
12.05
16.87
20.18
21.88
21.94
20.54
18.08
15.19
12.48
10.43
9.26
8.88
8.98
9.14
8.99
8.34
7.14
5.54
3.66
1.6
-0.75
-3.55
-7.07
-11.55
-17.1
-23.56
-30.46
-36.94
-41.9
-44.25
-43.19
-38.48
-30.55
-20.33
-8.98
2.35
12.77
21.63
28.49
33.05
35.21
35.07
33.04
29.79
26.11
22.7
20.05
18.29
17.3
16.8
16.5
16.2
15.77
15.2
14.45
13.46
12.07
10.12
7.43
3.91
-0.51
-5.79
-11.77
-18.05
-24
-28.79
-31.52
-31.56
-28.66
-23.15
-15.75
-7.42
1.01
8.86
15.68
21.12
24.9
26.78
26.73
24.99
22.07
18.67
15.48
13.02
11.45
10.62
10.23
9.88
9.29
8.36
7.13
5.71
4.2
2.56
0.64
-1.8
-4.97
-9
-13.73
-18.73
-23.31
-26.62
-27.86
-26.44
-22.13
-15.14
-6.07
4.12
14.37
23.59
30.88
35.63
37.61
36.98
34.31
30.45
26.37
22.86
20.48
19.28
18.93
18.74
17.93
15.84
12.23
7.31
1.74
-3.63
-8.06
-11.19
-13.25
-14.89
-16.91
-19.89
-23.85
-28.13
-31.6
-33.03
-31.48
-26.57
-18.63
-8.51
2.64
13.63
23.46
31.37
36.81
39.48
39.35
36.71
32.23
26.86
21.63
17.33
14.31
12.39
11.06
9.74
8.07
6.02
3.79
1.7
-0.05
-1.45
-2.63
-3.84
-5.35
-7.42
-10.19
-13.68
-17.68
-21.6
-24.62
-25.86
-24.63
-20.72
-14.49
-6.73
1.55
9.49
16.48
22.2
26.44
28.99
29.63
28.27
25.17
20.98
16.66
13.13
10.94
10.11
10.14
10.34
10.14
9.31
7.92
6.23
4.45
2.62
0.67
-1.55
-4.17
-7.21
-10.63
-14.35
-18.17
-21.74
-24.48
-25.63
-24.49
-20.68
-14.35
-6.26
2.5
10.77
17.67
22.71
25.75
26.9
26.29
24.16
20.86
16.87
12.83
9.3
6.67
5
4.02
3.34
2.57
1.49
0.12
-1.36
-2.74
-3.91
-4.9
-5.88
-7.1
-8.84
-11.31
-14.49
-18.06
-21.42
-23.69
-24.01
-21.84
-17.16
-10.51
-2.82
4.83
11.6
16.96
20.68
22.71
23.09
21.92
19.46
16.14
12.52
9.19
6.54
4.68
3.43
2.45
1.43
0.24
-1.01
-2.16
-3.07
-3.81
-4.6
-5.76
-7.57
-10.15
-13.44
-17.16
-20.9
-24.11
-26.21
-26.62
-24.95
-21.15
-15.53
-8.77
-1.72
4.75
10.02
13.71
15.67
15.92
14.65
12.22
9.1
5.89
3.09
1.05
-0.18
-0.8
-1.11
-1.42
-1.87
-2.5
-3.25
-4.11
-5.15
-6.54
-8.51
-11.3
-14.97
-19.39
-24.11
-28.4
-31.42
-32.38
-30.82
-26.75
-20.62
-13.26
-5.62
1.46
7.33
11.59
14.06
14.76
13.84
11.63
8.58
5.26
2.15
-0.39
-2.24
-3.49
-4.36
-5.04
-5.67
-6.28
-6.88
-7.48
-8.21
-9.24
-10.79
-13.06
-16.12
-19.89
-23.96
-27.62
-30.01
-30.29
-28.02
-23.25
-16.57
-8.88
-1.15
5.79
11.4
15.29
17.27
17.32
15.63
12.69
9.15
5.74
2.98
1.08
-0.06
-0.73
-1.27
-1.96
-2.91
-4.07
-5.3
-6.47
-7.45
-8.29
-9.15
-10.32
-12.08
-14.52
-17.42
-20.2
-22.08
-22.26
-20.29
-16.16
-10.32
-3.56
3.27
9.45
14.48
18.07
20.08
20.44
19.2
16.61
13.11
9.37
6.08
3.72
2.42
1.93
1.75
1.42
0.72
-0.33
-1.48
-2.54
-3.44
-4.4
-5.75
-7.8
-10.71
-14.35
-18.32
-22
-24.67
-25.67
-24.51
-21.04
-15.48
-8.43
-0.71
6.75
13.13
17.8
20.45
21.06
19.87
17.34
14.06
10.64
7.57
5.21
3.63
2.7
2.16
1.72
1.2
0.52
-0.24
-1.02
-1.82
-2.73
-3.9
-5.57
-7.96
-11.18
-15.1
-19.32
-23.13
-25.65
-26.12
-24.09
-19.62
-13.24
-5.87
1.5
8.04
13.16
16.55
18.04
17.68
15.67
12.41
8.55
4.77
1.67
-0.42
-1.55
-2.03
-2.31
-2.74
-3.46
-4.44
-5.57
-6.76
-8.01
-9.38
-10.97
-12.86
-15.18
-18.02
-21.33
-24.91
-28.24
-30.58
-31.12
-29.25
-24.74
-17.9
-9.47
-0.46
8.1
15.32
20.63
23.77
24.78
23.96
21.77
18.74
15.43
12.35
9.9
8.31
7.58
7.39
7.28
6.78
5.59
3.74
1.49
-0.78
-2.84
-4.75
-6.76
-9.2
-12.22
-15.81
-19.64
-23.27
-26.19
-27.9
-27.94
-25.96
-21.82
-15.76
-8.41
-0.65
6.56
12.49
16.75
19.34
20.46
20.35
19.23
17.29
14.85
12.35
10.31
9.1
8.77
9
9.2
8.83
7.65
5.77
3.61
1.59
-0.13
-1.64
-3.25
-5.21
-7.64
-10.48
-13.62
-17
-20.51
-23.9
-26.59
-27.79
-26.7
-22.91
-16.68
-8.85
-0.61
6.93
13.02
17.4
20.14
21.49
21.7
20.96
19.51
17.6
15.53
13.66
12.28
11.54
11.42
11.7
12.04
12.08
11.62
10.63
9.25
7.64
5.87
3.93
1.72
-0.84
-3.7
-6.83
-10.2
-13.82
-17.71
-21.7
-25.32
-27.84
-28.47
-26.61
-22.17
-15.58
-7.71
0.42
7.86
13.92
18.21
20.61
21.27
20.5
18.74
16.45
14.12
12.1
10.67
10.01
10.04
10.58
11.25
11.65
11.47
10.57
9.06
7.14
5.09
3.09
1.22
-0.54
-2.27
-4.14
-6.35
-9.11
-12.57
-16.6
-20.78
-24.37
-26.46
-26.29
-23.49
-18.29
-11.37
-3.76
3.6
9.96
14.96
18.49
20.64
21.5
21.23
19.99
18.01
15.65
13.26
11.21
9.7
8.8
8.43
8.33
8.22
7.77
6.77
5.15
3.04
0.7
-1.57
-3.61
-5.41
-7.12
-9.02
-11.29
-14.07
-17.32
-20.83
-24.29
-27.15
-28.76
-28.44
-25.75
-20.66
-13.72
-5.92
1.69
8.2
13.19
16.68
18.93
20.23
20.7
20.34
19.12
17.2
14.89
12.62
10.8
9.61
8.94
8.51
7.97
7.06
5.73
4.07
2.21
0.29
-1.68
-3.63
-5.55
-7.28
-8.77
-10.1
-11.57
-13.57
-16.36
-19.83
-23.35
-26.01
-26.79
-25.05
-20.73
-14.34
-6.82
0.83
7.77
13.55
17.97
20.99
22.65
22.99
22.19
20.51
18.41
16.34
14.69
13.55
12.82
12.23
11.56
10.71
9.72
8.72
7.74
6.79
5.78
4.63
3.27
1.63
-0.31
-2.66
-5.44
-8.67
-12.27
-16.07
-19.83
-23.19
-25.75
-27.02
-26.54
-24.03
-19.47
-13.25
-5.99
1.44
8.31
14.03
18.31
21.04
22.25
22.07
20.65
18.31
15.39
12.33
9.54
7.3
5.77
4.97
4.78
5
5.41
5.73
5.77
5.38
4.52
3.25
1.65
-0.15
-2.13
-4.26
-6.6
-9.18
-12.04
-15.17
-18.46
-21.65
-24.25
-25.63
-25.16
-22.41
-17.39
-10.61
-3.03
4.33
10.61
15.34
18.44
20.08
20.47
19.8
18.2
15.81
12.94
9.92
7.14
4.9
3.32
2.37
1.89
1.63
1.3
0.67
-0.4
-1.89
-3.66
-5.47
-7.09
-8.47
-9.71
-11.07
-12.84
-15.2
-18.08
-21.14
-23.71
-25.07
-24.56
-21.84
-17.04
-10.72
-3.74
2.96
8.62
12.82
15.49
16.78
16.96
16.33
15.11
13.52
11.76
10.03
8.52
7.4
6.7
6.32
6.04
5.62
4.9
3.86
2.62
1.39
0.32
-0.59
-1.49
-2.68
-4.43
-6.91
-10.12
-13.88
-17.86
-21.58
-24.46
-25.9
-25.41
-22.84
-18.38
-12.63
-6.39
-0.48
4.53
8.37
11.02
12.61
13.23
12.98
11.94
10.27
8.25
6.25
4.62
3.61
3.28
3.44
3.8
4.02
3.87
3.28
2.39
1.37
0.36
-0.65
-1.85
-3.47
-5.68
-8.49
-11.78
-15.34
-18.86
-22.02
-24.4
-25.52
-24.94
-22.38
-17.94
-12.05
-5.49
0.87
6.3
10.42
13.16
14.71
15.3
15.06
14.12
12.59
10.76
8.99
7.64
6.91
6.77
6.93
7.01
6.72
5.91
4.63
3.05
1.4
-0.14
-1.5
-2.74
-4.05
-5.66
-7.78
-10.47
-13.58
-16.79
-19.6
-21.45
-21.85
-20.45
-17.18
-12.31
-6.41
-0.23
5.49
10.15
13.42
15.25
15.78
15.25
13.92
12.05
9.96
8
6.53
5.79
5.79
6.27
6.78
6.89
6.32
5.13
3.56
1.94
0.52
-0.69
-1.83
-3.11
-4.73
-6.91
-9.84
-13.65
-18.25
-23.17
-27.61
-30.56
-31.16
-28.97
-24.17
-17.47
-9.85
-2.26
4.57
10.14
14.1
16.26
16.63
15.32
12.72
9.4
6.04
3.26
1.49
0.86
1.19
2.08
3.01
3.61
3.68
3.25
2.52
1.68
0.73
-0.46
-2.11
-4.38
-7.32
-10.8
-14.7
-18.8
-22.81
-26.29
-28.6
-29.07
-27.25
-23.09
-17.06
-9.99
-2.76
3.94
9.7
14.32
17.75
19.89
20.73
20.37
19.04
17.15
15.05
13.11
11.5
10.32
9.53
8.99
8.48
7.72
6.53
4.8
2.63
0.24
-2.1
-4.14
-5.81
-7.13
-8.32
-9.69
-11.62
-14.37
-17.91
-21.8
-25.22
-27.19
-26.83
-23.77
-18.26
-11.15
-3.53
3.55
9.38
13.71
16.55
18.13
18.6
18.08
16.67
14.59
12.19
9.89
8.15
7.19
7.02
7.36
7.83
8.11
8.03
7.67
7.15
6.61
5.99
5.14
3.84
1.98
-0.4
-3.2
-6.27
-9.59
-13.12
-16.77
-20.19
-22.79
-23.89
-22.91
-19.67
-14.39
-7.74
-0.55
6.27
12.01
16.24
18.82
19.92
19.86
19.05
17.79
16.29
14.65
12.96
11.37
10.03
9.04
8.31
7.63
6.69
5.3
3.47
1.4
-0.64
-2.45
-4.01
-5.46
-6.97
-8.67
-10.59
-12.74
-15.12
-17.73
-20.43
-22.87
-24.51
-24.7
-22.96
-19.15
-13.59
-6.97
-0.11
6.22
11.53
15.53
18.15
19.41
19.39
18.3
16.45
14.28
12.26
10.78
10.01
9.87
10.07
10.25
10.08
9.45
8.39
7.04
5.53
3.93
2.22
0.38
-1.6
-3.67
-5.8
-8.01
-10.4
-13.12
-16.3
-19.85
-23.43
-26.4
-27.98
-27.49
-24.55
-19.31
-12.41
-4.79
2.52
8.72
13.37
16.42
17.99
18.33
17.68
16.32
14.52
12.64
11.02
9.92
9.43
9.44
9.71
9.95
9.93
9.54
8.73
7.5
5.87
3.89
1.68
-0.61
-2.82
-4.87
-6.75
-8.59
-10.55
-12.8
-15.38
-18.12
-20.62
-22.22
-22.25
-20.22
-15.99
-9.93
-2.84
4.27
10.49
15.17
18.09
19.37
19.32
18.29
16.6
14.51
12.25
10.05
8.13
6.67
5.83
5.59
5.83
6.33
6.81
7.04
6.9
6.35
5.4
4.09
2.45
0.49
-1.8
-4.43
-7.37
-10.56
-13.9
-17.22
-20.23
-22.6
-23.89
-23.69
-21.71
-17.89
-12.53
-6.18
0.44
6.68
11.98
16.05
18.76
20.13
20.26
19.33
17.56
15.25
12.81
10.64
9.1
8.34
8.24
8.48
8.61
8.25
7.24
5.65
3.75
1.88
0.28
-1.03
-2.16
-3.3
-4.66
-6.39
-8.61
-11.38
-14.67
-18.24
-21.64
-24.14
-24.99
-23.61
-19.88
-14.21
-7.44
-0.56
5.57
10.39
13.7
15.48
15.81
14.84
12.8
10.05
7.04
4.26
2.06
0.59
-0.17
-0.41
-0.36
-0.26
-0.31
-0.61
-1.19
-1.94
-2.77
-3.59
-4.45
-5.52
-7.05
-9.19
-11.94
-15.12
-18.48
-21.73
-24.57
-26.66
-27.59
-26.92
-24.3
-19.65
-13.34
-6.06
1.34
8.06
13.6
17.73
20.47
21.92
22.2
21.45
19.87
17.72
15.41
13.35
11.89
11.14
11
11.14
11.15
10.65
9.47
7.62
5.37
3.01
0.79
-1.2
-3.03
-4.88
-6.98
-9.5
-12.53
-16.01
-19.69
-23.16
-25.9
-27.32
-26.98
-24.64
-20.43
-14.79
-8.45
-2.18
3.36
7.75
10.86
12.76
13.67
13.81
13.39
12.6
11.65
10.82
10.37
10.43
10.98
11.81
12.52
12.75
12.26
10.99
9.11
6.9
4.69
2.68
0.94
-0.67
-2.42
-4.59
-7.37
-10.72
-14.42
-17.97
-20.76
-22.17
-21.69
-19.09
-14.47
-8.31
-1.39
5.42
11.26
15.6
18.22
19.23
18.97
17.79
15.98
13.8
11.47
9.23
7.37
6.08
5.4
5.16
5.04
4.68
3.88
2.66
1.22
-0.18
-1.36
-2.36
-3.43
-4.9
-7.09
-10.18
-14.09
-18.51
-22.88
-26.49
-28.6
-28.62
-26.29
-21.76
-15.61
-8.68
-1.83
4.26
9.19
12.83
15.2
16.31
16.2
14.92
12.69
9.89
7.07
4.73
3.21
2.55
2.46
2.51
2.27
1.58
0.48
-0.8
-2.02
-3.12
-4.21
-5.53
-7.31
-9.75
-12.84
-16.54
-20.66
-24.81
-28.43
-30.78
-31.12
-28.98
-24.4
-17.98
-10.73
-3.66
2.48
7.37
11.06
13.69
15.32
15.89
15.38
13.96
12.04
10.24
9.04
8.64
8.83
9.13
9.05
8.24
6.67
4.54
2.23
-0.01
-2.02
-3.86
-5.68
-7.72
-10.2
-13.28
-17.03
-21.3
-25.75
-29.71
-32.38
-32.95
-30.9
-26.19
-19.31
-11.21
-2.94
4.52
10.59
15.01
17.79
19.1
19.16
18.23
16.63
14.74
12.97
11.65
10.91
10.63
10.55
10.29
9.57
8.31
6.59
4.68
2.87
1.43
0.35
-0.53
-1.64
-3.5
-6.52
-10.78
-15.94
-21.23
-25.61
-28.07
-27.93
-25.02
-19.69
-12.71
-4.98
2.6
9.25
14.46
17.89
19.44
19.23
17.57
14.97
12.03
9.35
7.42
6.51
6.55
7.27
8.2
8.82
8.81
8.04
6.66
4.93
3.14
1.46
-0.17
-1.93
-4.11
-6.89
-10.4
-14.51
-18.91
-23.06
-26.31
-27.95
-27.37
-24.32
-18.96
-11.85
-3.87
4.07
11.26
17.25
21.83
24.91
26.41
26.29
24.63
21.75
18.24
14.88
12.29
10.86
10.51
10.81
11.22
11.24
10.63
9.42
7.78
5.95
4.07
2.19
0.22
-1.93
-4.48
-7.6
-11.48
-16.05
-20.96
-25.44
-28.45
-29.02
-26.59
-21.29
-13.85
-5.36
3.09
10.72
17.1
22.07
25.53
27.37
27.56
26.2
23.69
20.59
17.55
15.08
13.42
12.5
12.04
11.69
11.13
10.15
8.65
6.59
3.99
0.9
-2.6
-6.32
-10.07
-13.69
-17.11
-20.42
-23.7
-26.92
-29.76
-31.66
-31.9
-29.87
-25.37
-18.67
-10.53
-1.94
6.11
12.91
18.16
21.8
23.94
24.66
24.09
22.35
19.8
16.95
14.39
12.66
12.03
12.35
13.16
13.82
13.76
12.71
10.74
8.17
5.46
2.94
0.72
-1.31
-3.37
-5.69
-8.45
-11.71
-15.45
-19.5
-23.48
-26.71
-28.35
-27.56
-23.9
-17.49
-9.13
-0.02
8.58
15.73
20.96
24.22
25.73
25.78
24.66
22.69
20.23
17.68
15.41
13.67
12.56
12.01
11.83
11.77
11.55
10.97
9.89
8.38
6.63
4.81
3.05
1.26
-0.82
-3.49
-6.98
-11.28
-16.11
-20.9
-24.87
-27.26
-27.43
-25.11
-20.41
-13.88
-6.36
1.24
8.16
13.87
18.13
20.84
22.01
21.67
20.05
17.51
14.62
11.97
10.06
9.09
8.91
9.11
9.23
8.9
8
6.61
4.91
3.09
1.24
-0.64
-2.58
-4.73
-7.25
-10.35
-14.17
-18.65
-23.43
-27.8
-30.85
-31.71
-29.82
-25.15
-18.18
-9.82
-1.14
6.88
13.52
18.34
21.25
22.35
21.97
20.5
18.37
15.99
13.75
11.9
10.55
9.65
8.97
8.26
7.31
5.99
4.38
2.66
1
-0.45
-1.75
-3.1
-4.78
-7.07
-10.14
-13.99
-18.38
-22.8
-26.58
-28.94
-29.23
-27.09
-22.61
-16.33
-9.11
-1.9
4.51
9.59
13.16
15.27
16.14
16.01
15.1
13.7
12.02
10.33
8.9
7.93
7.44
7.28
7.18
6.79
5.86
4.35
2.43
0.4
-1.5
-3.24
-4.99
-7.05
-9.72
-13.15
-17.19
-21.39
-25.04
-27.29
-27.47
-25.25
-20.84
-14.89
-8.3
-1.89
3.81
8.57
12.28
14.87
16.13
15.87
14.15
11.35
8.23
5.57
3.94
3.46
3.79
4.37
4.63
4.26
3.25
1.8
0.13
-1.58
-3.29
-5.08
-7.05
-9.32
-12.02
-15.19
-18.72
-22.23
-25.12
-26.65
-26.15
-23.26
-18.13
-11.38
-3.93
3.31
9.62
14.66
18.34
20.64
21.53
21.01
19.2
16.48
13.41
10.6
8.45
7.02
6.07
5.21
4.14
2.81
1.31
-0.12
-1.4
-2.54
-3.68
-5.03
-6.82
-9.22
-12.31
-16.06
-20.18
-24.15
-27.2
-28.54
-27.51
-23.89
-17.98
-10.56
-2.66
4.75
10.97
15.68
18.83
20.45
20.59
19.27
16.65
13.21
9.63
6.68
4.89
4.33
4.57
4.94
4.87
4.11
2.77
1.2
-0.3
-1.69
-3.12
-4.86
-7.13
-10
-13.43
-17.28
-21.39
-25.48
-28.98
-31.15
-31.12
-28.26
-22.53
-14.57
-5.56
3.2
10.71
16.47
20.42
22.75
23.61
23.14
21.51
19.08
16.39
14.02
12.34
11.45
11.1
10.91
10.52
9.71
8.45
6.83
5
3.1
1.26
-0.5
-2.23
-4.12
-6.43
-9.45
-13.4
-18.23
-23.59
-28.72
-32.61
-34.17
-32.6
-27.69
-19.91
-10.35
-0.35
8.87
16.48
22.11
25.76
27.67
28.11
27.41
25.85
23.73
21.39
19.11
17.11
15.59
14.61
14.11
13.9
13.63
12.93
11.56
9.48
6.89
4.14
1.54
-0.79
-2.89
-5
-7.39
-10.29
-13.82
-17.92
-22.36
-26.67
-30.1
-31.82
-31.07
-27.45
-21.1
-12.75
-3.55
5.31
12.86
18.57
22.35
24.39
25.02
24.56
23.32
21.62
19.81
18.19
16.98
16.31
16.13
16.27
16.47
16.44
15.89
14.65
12.67
10.12
7.3
4.55
2.06
-0.15
-2.27
-4.6
-7.39
-10.85
-15.05
-19.9
-25.08
-29.97
-33.77
-35.56
-34.65
-30.77
-24.23
-15.83
-6.65
2.25
10.08
16.35
20.94
23.84
25.22
25.32
24.45
22.97
21.24
19.6
18.28
17.4
16.96
16.82
16.73
16.38
15.46
13.77
11.25
8.07
4.55
1.04
-2.17
-4.97
-7.47
-9.88
-12.48
-15.48
-18.99
-22.86
-26.69
-29.86
-31.58
-31.18
-28.25
-22.82
-15.37
-6.78
2.01
10.1
16.9
22.05
25.45
27.1
27.13
25.8
23.47
20.61
17.7
15.16
13.24
11.94
11.11
10.48
9.74
8.69
7.19
5.2
2.83
0.25
-2.35
-4.83
-7.16
-9.52
-12.16
-15.28
-18.91
-22.81
-26.45
-29.11
-30.04
-28.66
-24.71
-18.37
-10.21
-1.19
7.65
15.37
21.39
25.49
27.76
28.45
27.87
26.31
24.08
21.48
18.78
16.18
13.82
11.67
9.71
7.87
6.08
4.31
2.54
0.8
-0.85
-2.31
-3.52
-4.56
-5.61
-6.95
-8.85
-11.44
-14.69
-18.36
-21.99
-24.9
-26.34
-25.55
-22.08
-15.98
-7.87
1.2
10.01
17.58
23.32
27.14
29.19
29.69
28.82
26.73
23.67
20.11
16.63
13.72
11.7
10.56
9.96
9.49
8.76
7.61
6.08
4.36
2.66
1.12
-0.19
-1.35
-2.48
-3.73
-5.29
-7.33
-9.98
-13.26
-16.98
-20.66
-23.59
-24.9
-23.9
-20.23
-14.1
-6.21
2.4
10.55
17.2
21.67
23.71
23.43
21.29
17.9
13.94
10.02
6.57
3.87
2.03
1.03
0.8
1.17
1.89
2.64
3.06
2.9
2.06
0.57
-1.32
-3.35
-5.31
-7.18
-9.15
-11.53
-14.59
-18.37
-22.56
-26.49
-29.25
-30
-28.24
-23.94
-17.59
-10.05
-2.28
4.86
10.79
15.19
17.93
19.02
18.57
16.83
14.15
11
7.9
5.3
3.49
2.49
2.07
1.88
1.57
0.92
-0.06
-1.22
-2.31
-3.21
-3.96
-4.81
-6.1
-8.14
-11.04
-14.65
-18.55
-22.16
-24.78
-25.78
-24.65
-21.17
-15.56
-8.42
-0.68
6.67
12.83
17.38
20.23
21.63
21.83
21.08
19.52
17.31
14.69
12
9.62
7.85
6.81
6.34
6.12
5.75
4.9
3.49
1.67
-0.3
-2.2
-3.97
-5.75
-7.8
-10.36
-13.46
-16.97
-20.53
-23.64
-25.76
-26.35
-24.96
-21.38
-15.73
-8.54
-0.65
6.94
13.39
18.09
20.79
21.54
20.57
18.29
15.16
11.7
8.39
5.65
3.73
2.7
2.4
2.55
2.8
2.87
2.6
1.94
1.01
-0.09
-1.28
-2.62
-4.24
-6.31
-8.97
-12.28
-16.14
-20.31
-24.29
-27.46
-29.11
-28.7
-25.99
-21.19
-14.87
-7.77
-0.66
5.84
11.25
15.26
17.72
18.6
18.05
16.43
14.21
11.92
9.94
8.47
7.5
6.82
6.17
5.3
4.12
2.61
0.86
-0.98
-2.8
-4.53
-6.11
-7.61
-9.13
-10.92
-13.2
-16.09
-19.35
-22.44
-24.55
-24.89
-22.97
-18.77
-12.79
-5.83
1.24
7.71
13.07
17.05
19.53
20.5
20.01
18.24
15.55
12.39
9.27
6.62
4.67
3.41
2.61
1.97
1.15
0.03
-1.39
-2.95
-4.44
-5.72
-6.83
-7.99
-9.52
-11.73
-14.71
-18.23
-21.79
-24.68
-26.2
-25.85
-23.42
-19.11
-13.41
-6.99
-0.62
5.03
9.49
12.51
14
14.07
12.94
10.89
8.36
5.78
3.57
2
1.07
0.57
0.17
-0.44
-1.4
-2.66
-3.99
-5.18
-6.08
-6.77
-7.52
-8.69
-10.65
-13.59
-17.46
-21.87
-26.13
-29.4
-30.87
-29.97
-26.54
-20.89
-13.73
-6.01
1.35
7.61
12.33
15.42
16.97
17.2
16.31
14.6
12.38
10.11
8.19
6.91
6.29
6.1
5.97
5.56
4.67
3.38
1.85
0.24
-1.4
-3.17
-5.25
-7.86
-11.13
-15.04
-19.41
-23.8
-27.6
-30.05
-30.48
-28.49
-24.07
-17.64
-10.02
-2.16
5.03
10.86
14.99
17.39
18.24
17.81
16.45
14.46
12.19
10.02
8.24
7.04
6.42
6.25
6.22
6.07
5.66
4.96
4.03
2.95
1.71
0.21
-1.63
-3.93
-6.7
-9.94
-13.57
-17.35
-20.9
-23.62
-24.86
-24.06
-20.97
-15.74
-8.97
-1.44
5.98
12.59
17.93
21.72
23.85
24.37
23.48
21.5
18.86
16.1
13.65
11.83
10.73
10.19
9.86
9.39
8.49
7.08
5.27
3.25
1.19
-0.9
-3.16
-5.79
-9.05
-13.01
-17.54
-22.18
-26.21
-28.8
-29.22
-27.04
-22.36
-15.8
-8.28
-0.83
5.75
10.98
14.69
16.92
17.73
17.23
15.6
13.16
10.4
7.92
6.23
5.54
5.71
6.2
6.43
5.95
4.65
2.73
0.54
-1.58
-3.5
-5.27
-7.1
-9.28
-12.09
-15.69
-20.06
-24.79
-29.15
-32.17
-32.9
-30.76
-25.78
-18.6
-10.24
-1.79
5.84
12.05
16.53
19.19
20.14
19.65
18.17
16.17
14.14
12.41
11.15
10.36
9.96
9.75
9.45
8.79
7.5
5.55
3.09
0.45
-2.03
-4.18
-6.07
-8
-10.34
-13.38
-17.16
-21.39
-25.42
-28.43
-29.53
-28.09
-23.93
-17.39
-9.32
-0.78
7.15
13.68
18.42
21.34
22.6
22.46
21.19
19.05
16.44
13.86
11.86
10.87
10.95
11.76
12.68
13.05
12.46
10.93
8.79
6.47
4.31
2.36
0.46
-1.7
-4.37
-7.73
-11.74
-16.12
-20.34
-23.65
-25.28
-24.6
-21.39
-15.9
-8.82
-1.1
6.37
12.84
17.9
21.36
23.23
23.67
22.88
21.09
18.65
15.97
13.47
11.59
10.59
10.51
11.05
11.73
12.01
11.57
10.43
8.93
7.51
6.49
5.86
5.34
4.45
2.82
0.27
-3.05
-6.72
-10.12
-12.51
-13.2
-11.74
-7.96
-2.17
4.97
12.54
19.6
25.42
29.5
31.65
31.89
30.41
27.59
23.81
19.6
15.43
11.74
8.79
6.59
4.98
3.55
1.99
0.03
-2.31
-4.74
-6.88
-8.36
-9.02
-8.93
-8.41
-7.88
-7.76
-8.34
-9.77
-11.95
-14.46
-16.64
-17.65
-16.77
-13.6
-8.29
-1.48
5.86
12.81
18.76
23.48
27.04
29.51
30.95
31.31
30.64
29.21
27.49
26.01
25.12
24.9
25.07
25.23
24.98
24.1
22.62
20.69
18.54
16.31
14.04
11.65
8.96
5.8
1.98
-2.56
-7.79
-13.39
-18.81
-23.16
-25.46
-24.91
-21.21
-14.78
-6.68
1.68
9.06
14.65
18.19
19.84
19.82
18.31
15.33
11.04
5.78
0.2
-4.88
-8.75
-11.06
-11.98
-12.1
-12.23
-13.08
-15
-17.94
-21.5
-25.19
-28.61
-31.67
-34.51
-37.42
-40.65
-44.3
-48.3
-52.45
-56.46
-59.84
-61.91
-61.76
-58.59
-52.03
-42.45
-31.02
-19.32
-8.92
-0.85
4.6
7.71
9.03
9.1
8.31
6.9
5.15
3.4
1.98
1.07
0.66
0.48
0.1
-0.82
-2.51
-4.9
-7.71
-10.59
-13.2
-15.4
-17.21
-18.86
-20.66
-22.96
-26.08
-30.14
-35.06
-40.32
-45.11
-48.43
-49.41
-47.7
-43.63
-38.12
-32.38
-27.38
-23.51
-20.51
-17.66
-14.25
-9.85
-4.46
1.6
7.91
14.07
19.74
24.66
28.61
31.52
33.52
34.92
36.11
37.29
38.37
39.01
38.76
37.32
34.61
30.82
26.21
21.05
15.45
9.43
2.99
-3.75
-10.36
-16.11
-20.02
-21.16
-18.92
-13.26
-4.77
5.5
16.33
26.67
35.76
43.17
48.73
52.42
54.32
54.61
53.61
51.77
49.65
47.85
46.87
47.02
48.36
50.71
53.81
57.35
61.05
64.52
67.12
67.91
65.9
60.46
51.7
40.55
28.48
16.85
6.37
-3.06
-11.98
-20.92
-29.84
-38.1
-44.75
-49.02
-50.75
-50.41
-48.87
-47.11
-45.85
-45.42
-45.74
-46.39
-46.82
-46.52
-45.23
-43.05
-40.38
-37.75
-35.5
-33.71
-32.06
-30.1
-27.44
-23.91
-19.61
-14.87
-10.06
-5.53
-1.59
1.5
3.41
3.85
2.65
-0.04
-3.63
-7.11
-9.21
-8.82
-5.29
1.27
10.05
19.82
29.3
37.5
43.86
48.23
50.73
51.63
51.24
49.88
47.94
45.81
43.77
41.88
39.77
36.7
31.71
23.9
12.83
-1.2
-17.03
-32.88
-46.79
-57.19
-63.38
-65.63
-65.13
-63.6
-62.72
-63.68
-66.71
-70.96
-74.7
-75.99
-73.34
-66.31
-55.68
-43.08
-30.33
-18.87
-9.37
-1.91
3.71
7.7
10.08
10.95
10.64
9.81
9.21
9.43
10.67
12.62
14.8
16.8
18.5
20.14
22.11
24.64
27.59
30.36
31.98
31.42
27.89
21.08
11.32
-0.53
-13.16
-25.02
-34.53
-40.37
-41.73
-38.51
-31.42
-21.73
-10.99
-0.56
8.57
15.84
20.9
23.54
23.65
21.34
17.18
12.11
7.3
3.74
1.88
1.58
2.17
2.84
3.01
2.42
1.15
-0.49
-2.21
-3.8
-5.22
-6.5
-7.77
-9.21
-11.05
-13.48
-16.61
-20.22
-23.72
-26.22
-26.8
-24.86
-20.36
-13.84
-6.27
1.32
8.08
13.53
17.42
19.71
20.41
19.67
17.77
15.17
12.45
10.16
8.59
7.76
7.37
6.99
6.25
4.98
3.26
1.37
-0.42
-1.96
-3.36
-4.87
-6.83
-9.47
-12.9
-17.06
-21.79
-26.69
-31.19
-34.47
-35.62
-33.88
-29
-21.4
-12.14
-2.56
6.06
12.87
17.57
20.18
20.94
20.07
17.84
14.62
10.97
7.61
5.15
3.94
3.89
4.5
5.09
5.07
4.12
2.27
-0.12
-2.59
-4.77
-6.46
-7.81
-9.19
-11.1
-13.97
-17.99
-22.9
-27.98
-32.07
-33.93
-32.47
-27.22
-18.43
-7.1
5.28
17.13
27.12
34.48
38.96
40.73
40.23
37.94
34.3
29.75
24.79
19.97
15.85
12.85
11.09
10.35
10.14
9.89
9.16
7.78
5.91
3.85
1.91
0.14
-1.61
-3.67
-6.36
-9.85
-14.03
-18.57
-22.94
-26.45
-28.41
-28.17
-25.37
-20.03
-12.62
-4
4.8
12.82
19.4
24.17
27.02
27.97
27.14
24.74
21.16
17.01
12.94
9.64
7.51
6.65
6.71
7.12
7.29
6.86
5.79
4.32
2.78
1.41
0.2
-1.1
-2.81
-5.2
-8.33
-12.14
-16.44
-20.9
-25.03
-28.05
-29.08
-27.37
-22.63
-15.21
-6.05
3.6
12.59
20.07
25.73
29.51
31.46
31.64
30.05
26.94
22.81
18.41
14.53
11.75
10.23
9.65
9.44
8.98
7.88
6.11
3.93
1.64
-0.54
-2.58
-4.62
-6.84
-9.43
-12.53
-16.18
-20.25
-24.35
-27.74
-29.49
-28.75
-25.02
-18.5
-10.02
-0.81
7.9
15.2
20.6
24.01
25.55
25.42
23.87
21.27
18.01
14.62
11.6
9.3
7.83
7.05
6.66
6.27
5.61
4.52
3.04
1.34
-0.39
-2.01
-3.49
-4.92
-6.53
-8.62
-11.47
-15.22
-19.68
-24.22
-27.8
-29.27
-27.77
-23.14
-15.98
-7.51
0.9
8.21
13.88
17.87
20.32
21.43
21.21
19.72
17.17
14.05
11.05
8.73
7.4
6.94
6.93
6.86
6.31
5.19
3.68
2.12
0.82
-0.13
-0.93
-1.93
-3.51
-5.94
-9.31
-13.49
-18.07
-22.46
-25.84
-27.33
-26.22
-22.24
-15.7
-7.51
1.1
8.94
15.13
19.31
21.54
22.07
21.25
19.41
16.88
14.05
11.35
9.12
7.56
6.63
6.07
5.55
4.79
3.66
2.19
0.54
-1.15
-2.77
-4.31
-5.86
-7.55
-9.55
-12
-14.92
-18.15
-21.28
-23.7
-24.74
-23.8
-20.61
-15.32
-8.45
-0.79
6.76
13.47
18.79
22.45
24.37
24.69
23.61
21.44
18.57
15.42
12.45
10.03
8.39
7.5
7.1
6.79
6.18
4.99
3.22
1.11
-0.98
-2.77
-4.16
-5.27
-6.43
-8.05
-10.47
-13.78
-17.7
-21.59
-24.53
-25.6
-24.12
-19.97
-13.57
-5.83
2.16
9.41
15.26
19.3
21.46
21.79
20.49
17.93
14.64
11.26
8.37
6.35
5.33
5.15
5.51
5.99
6.22
5.89
4.86
3.18
1.06
-1.21
-3.4
-5.51
-7.68
-10.23
-13.43
-17.31
-21.56
-25.52
-28.33
-29.11
-27.23
-22.5
-15.27
-6.42
2.9
11.48
18.42
23.23
25.87
26.5
25.36
22.68
18.78
14.17
9.55
5.65
3.05
1.84
1.67
1.85
1.76
1
-0.35
-1.96
-3.47
-4.65
-5.56
-6.44
-7.61
-9.4
-12.01
-15.48
-19.55
-23.67
-27.01
-28.66
-27.87
-24.34
-18.35
-10.68
-2.35
5.66
12.68
18.34
22.51
25.16
26.3
25.96
24.31
21.72
18.78
16.12
14.21
13.2
12.81
12.57
11.93
10.61
8.63
6.31
4.02
2.09
0.54
-0.76
-2.1
-3.87
-6.33
-9.69
-13.88
-18.46
-22.6
-25.28
-25.56
-22.9
-17.45
-9.97
-1.59
6.61
13.88
19.87
24.52
27.86
29.85
30.37
29.4
27.02
23.57
19.55
15.51
11.96
9.17
7.2
5.8
4.65
3.38
1.81
0.03
-1.69
-3.09
-4.05
-4.75
-5.6
-6.99
-9.15
-12.06
-15.4
-18.75
-21.55
-23.21
-23.2
-21.13
-16.89
-10.83
-3.66
3.65
10.14
15.15
18.38
19.91
19.99
18.93
17
14.49
11.67
8.89
6.56
4.95
4.2
4.11
4.26
4.15
3.4
1.93
-0.02
-2.02
-3.68
-4.85
-5.68
-6.57
-7.96
-10.17
-13.24
-16.88
-20.46
-23.25
-24.5
-23.65
-20.58
-15.56
-9.21
-2.33
4.29
10.03
14.47
17.43
18.86
18.85
17.61
15.42
12.73
10
7.71
6.21
5.62
5.79
6.29
6.62
6.37
5.34
3.58
1.32
-1.15
-3.63
-6.04
-8.44
-10.93
-13.61
-16.51
-19.54
-22.42
-24.69
-25.78
-25.15
-22.47
-17.73
-11.32
-3.95
3.56
10.41
15.99
19.91
22.04
22.39
21.19
18.75
15.52
12.08
8.92
6.43
4.77
3.84
3.38
3.01
2.44
1.49
0.23
-1.24
-2.76
-4.28
-5.82
-7.47
-9.4
-11.72
-14.55
-17.87
-21.48
-24.91
-27.44
-28.32
-26.91
-22.99
-16.87
-9.33
-1.38
6.03
12.26
17.05
20.36
22.31
22.95
22.35
20.66
18.24
15.64
13.46
12.15
11.78
12.04
12.35
12.12
11.01
9.07
6.61
4.05
1.68
-0.44
-2.46
-4.66
-7.3
-10.52
-14.33
-18.5
-22.63
-26.05
-28.01
-27.82
-25.15
-20.13
-13.37
-5.75
1.88
8.87
14.85
19.58
22.94
24.82
25.21
24.22
22.18
19.55
16.8
14.35
12.47
11.24
10.54
10.13
9.71
8.97
7.75
6.05
4.05
1.97
-0
-1.84
-3.63
-5.56
-7.81
-10.52
-13.75
-17.34
-20.88
-23.77
-25.21
-24.55
-21.44
-16.08
-9.15
-1.61
5.61
11.82
16.66
19.96
21.68
21.88
20.74
18.58
15.87
13.12
10.7
8.79
7.4
6.4
5.65
5.02
4.37
3.56
2.43
0.93
-0.92
-2.92
-4.93
-6.78
-8.51
-10.31
-12.42
-15.01
-17.99
-20.96
-23.31
-24.38
-23.69
-21.02
-16.55
-10.69
-4
2.95
9.64
15.6
20.4
23.65
25.08
24.65
22.63
19.58
16.18
13.09
10.68
9.01
7.91
7.03
6.06
4.83
3.28
1.51
-0.32
-2.07
-3.65
-5.11
-6.58
-8.26
-10.35
-12.89
-15.81
-18.78
-21.35
-22.96
-23.11
-21.44
-17.86
-12.64
-6.4
0.13
6.22
11.32
15.11
17.48
18.36
17.76
15.76
12.61
8.78
4.9
1.58
-0.72
-1.85
-1.95
-1.39
-0.58
0.19
0.72
1
1.04
0.79
0.21
-0.83
-2.41
-4.6
-7.42
-10.81
-14.61
-18.42
-21.67
-23.63
-23.63
-21.3
-16.73
-10.56
-3.72
2.85
8.46
12.76
15.64
17.15
17.31
16.18
13.92
10.9
7.64
4.7
2.52
1.3
0.97
1.25
1.72
1.99
1.78
1.03
-0.15
-1.52
-2.84
-4
-5.02
-6.09
-7.5
-9.46
-12.1
-15.26
-18.49
-21.05
-22.11
-20.94
-17.27
-11.42
-4.25
3.11
9.65
14.72
18.1
19.84
20.1
19.03
16.8
13.7
10.21
6.92
4.33
2.67
1.89
1.65
1.51
1.17
0.5
-0.42
-1.44
-2.42
-3.32
-4.2
-5.17
-6.34
-7.76
-9.43
-11.37
-13.55
-15.84
-17.92
-19.24
-19.15
-17.13
-13.04
-7.29
-0.72
5.68
11.14
15.23
17.91
19.31
19.54
18.63
16.59
13.58
10.01
6.45
3.49
1.55
0.67
0.58
0.77
0.75
0.24
-0.77
-2.02
-3.2
-4.04
-4.55
-4.93
-5.56
-6.85
-9
-12.02
-15.54
-18.96
-21.46
-22.27
-20.91
-17.34
-12.04
-5.78
0.54
6.22
10.85
14.27
16.44
17.33
16.92
15.24
12.53
9.2
5.88
3.16
1.38
0.58
0.48
0.64
0.63
0.23
-0.64
-1.86
-3.25
-4.66
-6.04
-7.4
-8.86
-10.61
-12.86
-15.74
-19.13
-22.6
-25.33
-26.39
-24.98
-20.78
-14.12
-6.04
2.08
8.79
13.05
14.45
13.25
10.16
6.07
1.77
-2.17
-5.36
-7.58
-8.67
-8.58
-7.48
-5.74
-3.84
-2.25
-1.23
-0.78
-0.7
-0.73
-0.68
-0.58
-0.58
-1.01
-2.18
-4.3
-7.36
-11.02
-14.61
-17.27
-18.19
-16.91
-13.44
-8.31
-2.31
3.77
9.31
13.96
17.46
19.67
20.43
19.68
17.55
14.43
10.88
7.52
4.81
2.99
2.06
1.82
1.98
2.25
2.33
2.03
1.28
0.22
-0.93
-1.95
-2.79
-3.69
-5.06
-7.31
-10.57
-14.52
-18.38
-21.12
-21.89
-20.27
-16.37
-10.81
-4.4
2.04
7.87
12.66
16.15
18.12
18.47
17.24
14.74
11.44
7.98
4.98
2.85
1.75
1.54
1.91
2.47
2.85
2.84
2.37
1.53
0.52
-0.46
-1.32
-2.14
-3.16
-4.69
-6.97
-9.99
-13.47
-16.76
-19.09
-19.73
-18.22
-14.55
-9.25
-3.12
2.85
7.83
11.31
13.11
13.34
12.3
10.36
7.91
5.34
3.06
1.38
0.58
0.65
1.42
2.49
3.39
3.69
3.24
2.12
0.65
-0.8
-2.01
-3
-4.01
-5.38
-7.39
-10.1
-13.35
-16.69
-19.51
-21.18
-21.11
-18.97
-14.81
-9.03
-2.31
4.52
10.72
15.72
19.2
21.05
21.29
20.02
17.47
14.02
10.19
6.6
3.81
2.11
1.42
1.34
1.29
0.82
-0.25
-1.75
-3.35
-4.68
-5.65
-6.35
-7.1
-8.19
-9.86
-12.19
-15.07
-18.19
-21.02
-22.91
-23.19
-21.4
-17.43
-11.62
-4.65
2.63
9.45
15.24
19.61
22.35
23.29
22.38
19.78
15.96
11.67
7.7
4.64
2.67
1.6
0.96
0.35
-0.4
-1.25
-1.98
-2.49
-2.79
-3.01
-3.32
-3.87
-4.76
-6.1
-8.05
-10.67
-13.85
-17.1
-19.62
-20.55
-19.24
-15.62
-10.2
-3.94
2.1
7.11
10.74
13.05
14.32
14.85
14.77
14.1
12.81
10.96
8.83
6.77
5.15
4.17
3.84
3.84
3.8
3.44
2.7
1.8
0.99
0.48
0.17
-0.2
-1
-2.45
-4.53
-7.12
-9.97
-12.88
-15.58
-17.67
-18.61
-17.89
-15.15
-10.44
-4.27
2.56
9.16
14.79
19
21.62
22.68
22.28
20.65
18.1
15.03
11.89
9.11
6.99
5.67
5.11
5.05
5.17
5.11
4.64
3.66
2.28
0.69
-0.9
-2.37
-3.77
-5.22
-6.92
-9.02
-11.63
-14.67
-17.78
-20.38
-21.66
-20.89
-17.64
-12.05
-4.84
2.93
10.16
16.02
20.1
22.36
22.97
22.13
20.09
17.09
13.58
10.07
7.14
5.19
4.31
4.21
4.36
4.22
3.42
1.91
-0.09
-2.19
-4.12
-5.72
-7.05
-8.27
-9.58
-11.18
-13.26
-15.94
-19.17
-22.6
-25.51
-26.95
-26.03
-22.27
-15.87
-7.72
0.88
8.67
14.84
19.1
21.67
22.88
22.99
22.06
20.07
17.13
13.6
10.04
7.08
5.13
4.28
4.29
4.63
4.82
4.48
3.51
2.08
0.5
-0.95
-2.15
-3.11
-4.09
-5.38
-7.25
-9.86
-13.17
-16.89
-20.52
-23.35
-24.6
-23.67
-20.32
-14.77
-7.76
-0.24
6.88
12.91
17.55
20.72
22.45
22.78
21.73
19.49
16.41
13.03
9.95
7.64
6.3
5.76
5.61
5.45
4.91
3.95
2.74
1.56
0.63
0.03
-0.41
-0.99
-2
-3.69
-6.15
-9.33
-13.11
-17.12
-20.77
-23.31
-24.01
-22.36
-18.32
-12.34
-5.22
2.09
8.76
14.21
18.08
20.23
20.7
19.65
17.46
14.65
11.79
9.41
7.8
6.97
6.68
6.55
6.22
5.49
4.42
3.15
1.9
0.79
-0.19
-1.17
-2.34
-3.87
-5.9
-8.45
-11.49
-14.76
-17.81
-19.97
-20.56
-19.03
-15.26
-9.62
-2.9
3.89
9.89
14.5
17.56
19.15
19.41
18.5
16.51
13.69
10.36
7.09
4.4
2.72
2.12
2.36
2.96
3.39
3.33
2.71
1.65
0.39
-0.95
-2.34
-3.94
-5.92
-8.46
-11.56
-15.11
-18.78
-22.1
-24.5
-25.37
-24.27
-21.02
-15.87
-9.44
-2.56
3.94
9.37
13.32
15.67
16.45
15.87
14.16
11.65
8.73
5.81
3.3
1.47
0.45
0.16
0.35
0.72
0.94
0.84
0.32
-0.54
-1.6
-2.74
-3.94
-5.31
-7.06
-9.43
-12.45
-15.97
-19.45
-22.15
-23.26
-22.18
-18.74
-13.24
-6.45
0.69
7.28
12.65
16.49
18.69
19.32
18.55
16.63
13.96
11.09
8.56
6.79
5.96
5.89
6.16
6.31
5.93
4.89
3.26
1.29
-0.78
-2.74
-4.51
-6.13
-7.71
-9.42
-11.41
-13.75
-16.34
-18.92
-20.91
-21.68
-20.6
-17.37
-12.08
-5.3
2.1
9.22
15.27
19.75
22.42
23.22
22.34
20.12
17.06
13.8
10.87
8.58
6.97
5.83
4.82
3.67
2.23
0.53
-1.32
-3.14
-4.72
-5.92
-6.73
-7.29
-7.97
-9.27
-11.6
-15.11
-19.46
-23.91
-27.42
-29
-27.98
-24.25
-18.19
-10.6
-2.41
5.5
12.4
17.79
21.43
23.24
23.41
22.23
20.1
17.4
14.54
11.85
9.59
7.93
6.87
6.24
5.77
5.19
4.35
3.25
2.04
0.87
-0.2
-1.21
-2.3
-3.61
-5.31
-7.52
-10.32
-13.65
-17.18
-20.26
-22.06
-21.76
-18.92
-13.63
-6.57
1.2
8.56
14.61
18.87
21.2
21.75
20.8
18.71
15.92
12.86
9.95
7.5
5.69
4.55
4
3.82
3.82
3.75
3.46
2.85
1.96
0.9
-0.2
-1.27
-2.41
-3.81
-5.72
-8.33
-11.67
-15.48
-19.19
-22.05
-23.25
-22.2
-18.73
-13.18
-6.33
0.85
7.45
12.85
16.73
19.04
19.84
19.23
17.39
14.61
11.44
8.54
6.5
5.63
5.84
6.6
7.25
7.19
6.16
4.28
1.96
-0.31
-2.21
-3.66
-4.77
-5.79
-6.94
-8.49
-10.62
-13.41
-16.68
-19.87
-22.1
-22.43
-20.21
-15.38
-8.53
-0.73
6.92
13.49
18.53
21.87
23.54
23.65
22.29
19.67
16.17
12.35
8.78
6
4.28
3.66
3.84
4.37
4.73
4.58
3.81
2.56
1.11
-0.33
-1.71
-3.19
-5.04
-7.5
-10.65
-14.4
-18.44
-22.27
-25.29
-26.84
-26.35
-23.53
-18.44
-11.6
-3.81
3.95
10.87
16.34
20.04
21.92
22.07
20.77
18.37
15.34
12.16
9.29
7.09
5.72
5.17
5.2
5.44
5.51
5.14
4.28
3.08
1.8
0.64
-0.4
-1.53
-3
-5.06
-7.78
-11.08
-14.76
-18.45
-21.64
-23.64
-23.75
-21.42
-16.49
-9.44
-1.18
7.04
14.12
19.36
22.56
23.88
23.65
22.2
19.78
16.74
13.5
10.58
8.48
7.47
7.49
8.05
8.5
8.24
7.01
4.96
2.63
0.58
-0.86
-1.73
-2.42
-3.39
-5.06
-7.56
-10.79
-14.39
-17.82
-20.4
-21.36
-20.1
-16.37
-10.46
-3.16
4.41
11.21
16.54
20.1
21.96
22.25
21.11
18.7
15.25
11.24
7.29
4.02
1.89
0.99
1
1.42
1.73
1.56
0.88
-0.21
-1.43
-2.59
-3.58
-4.44
-5.31
-6.42
-8.04
-10.34
-13.39
-16.89
-20.28
-22.67
-23.22
-21.39
-17.13
-11.01
-4
2.9
8.93
13.7
17.15
19.29
20.09
19.47
17.42
14.2
10.37
6.64
3.65
1.71
0.75
0.41
0.23
-0.12
-0.8
-1.74
-2.74
-3.64
-4.28
-4.68
-4.97
-5.39
-6.21
-7.67
-9.89
-12.8
-16.09
-19.19
-21.36
-21.85
-20.15
-16.17
-10.29
-3.36
3.6
9.63
14.09
16.77
17.76
17.42
16.15
14.29
12.14
9.95
7.98
6.4
5.35
4.83
4.69
4.65
4.39
3.73
2.61
1.14
-0.48
-2.08
-3.63
-5.18
-6.92
-9.03
-11.62
-14.64
-17.8
-20.62
-22.48
-22.79
-21.18
-17.61
-12.43
-6.22
0.23
6.26
11.28
14.92
16.97
17.4
16.28
13.85
10.51
6.76
3.23
0.5
-1.02
-1.18
-0.26
1.27
2.77
3.71
3.78
3.04
1.71
0.16
-1.36
-2.77
-4.17
-5.79
-7.86
-10.53
-13.72
-17.12
-20.13
-22.01
-22.08
-19.88
-15.39
-9.07
-1.8
5.39
11.6
16.23
19.02
20.02
19.42
17.47
14.46
10.8
6.95
3.51
0.97
-0.38
-0.6
-0.11
0.52
0.8
0.47
-0.36
-1.44
-2.5
-3.41
-4.22
-5.13
-6.39
-8.26
-10.88
-14.18
-17.78
-21.04
-23.1
-23.17
-20.83
-16.15
-9.72
-2.53
4.5
10.56
15.21
18.3
19.87
20.03
18.97
16.93
14.2
11.2
8.33
5.97
4.38
3.56
3.23
2.96
2.26
0.88
-1.17
-3.59
-6.01
-8.13
-9.94
-11.63
-13.48
-15.74
-18.48
-21.51
-24.45
-26.77
-27.79
-26.94
-23.87
-18.64
-11.79
-4.19
3.17
9.48
14.24
17.3
18.7
18.63
17.36
15.24
12.77
10.47
8.73
7.69
7.2
6.84
6.25
5.17
3.58
1.65
-0.42
-2.47
-4.44
-6.28
-8.02
-9.78
-11.76
-14.25
-17.46
-21.29
-25.21
-28.33
-29.63
-28.35
-24.28
-17.86
-9.95
-1.64
6.08
12.53
17.29
20.21
21.26
20.6
18.49
15.42
11.92
8.56
5.85
4.07
3.26
3.13
3.27
3.22
2.62
1.43
-0.18
-1.9
-3.46
-4.79
-6.04
-7.52
-9.55
-12.33
-15.83
-19.78
-23.6
-26.58
-27.95
-27.12
-23.88
-18.51
-11.69
-4.35
2.67
8.75
13.52
16.81
18.52
18.59
17.05
14.23
10.68
7.14
4.29
2.6
2.1
2.45
3.06
3.33
2.88
1.69
0.03
-1.71
-3.16
-4.19
-4.94
-5.74
-6.98
-8.96
-11.79
-15.28
-18.94
-22.04
-23.73
-23.31
-20.43
-15.3
-8.59
-1.29
5.71
11.79
16.67
20.3
22.68
23.75
23.43
21.83
19.34
16.66
14.52
13.44
13.43
14.06
14.63
14.49
13.35
11.34
8.95
6.63
4.62
2.84
0.98
-1.32
-4.28
-7.93
-12.16
-16.69
-21.11
-24.85
-27.19
-27.37
-24.91
-19.77
-12.53
-4.23
3.94
10.98
16.38
20.07
22.28
23.28
23.21
22.11
20.05
17.3
14.38
11.94
10.47
10.05
10.33
10.67
10.45
9.31
7.3
4.79
2.26
-0.01
-2.01
-3.98
-6.26
-9.13
-12.67
-16.84
-21.4
-26.05
-30.33
-33.62
-35.16
-34.23
-30.39
-23.77
-15.08
-5.51
3.71
11.61
17.7
21.96
24.61
25.9
26.05
25.23
23.62
21.5
19.26
17.22
15.6
14.4
13.44
12.45
11.16
9.43
7.31
5.02
2.85
0.99
-0.52
-1.85
-3.28
-5.07
-7.42
-10.4
-13.94
-17.87
-21.86
-25.39
-27.77
-28.26
-26.33
-21.86
-15.25
-7.33
0.86
8.37
14.58
19.16
22.1
23.52
23.59
22.54
20.63
18.21
15.69
13.5
12
11.32
11.35
11.75
12.03
11.67
10.33
8.01
4.99
1.7
-1.44
-4.24
-6.7
-9.02
-11.4
-13.99
-16.83
-19.82
-22.77
-25.3
-26.9
-26.93
-24.91
-20.62
-14.34
-6.73
1.26
8.68
14.8
19.21
21.86
22.89
22.6
21.31
19.34
17.07
14.87
13.14
12.11
11.85
12.1
12.42
12.3
11.43
9.75
7.47
5
2.65
0.61
-1.18
-2.86
-4.63
-6.64
-9.04
-11.89
-15.18
-18.72
-22.07
-24.55
-25.4
-24.02
-20.23
-14.37
-7.25
0.12
6.85
12.36
16.41
19.09
20.61
21.25
21.24
20.79
20.03
19.13
18.19
17.31
16.62
16.17
15.92
15.75
15.4
14.59
13.15
11.04
8.43
5.55
2.57
-0.42
-3.49
-6.7
-10.14
-13.79
-17.57
-21.28
-24.6
-27.09
-28.17
-27.28
-24.07
-18.54
-11.18
-2.86
5.44
12.82
18.71
22.85
25.26
26.12
25.6
23.95
21.45
18.48
15.46
12.8
10.79
9.56
9.05
9.06
9.28
9.34
8.95
7.97
6.43
4.54
2.58
0.73
-1.01
-2.86
-5.09
-7.99
-11.6
-15.78
-20.11
-24.03
-26.86
-27.96
-26.84
-23.36
-17.81
-10.89
-3.53
3.36
9.15
13.55
16.58
18.43
19.22
19.03
17.9
16.01
13.68
11.39
9.61
8.53
8.04
7.74
7.15
5.95
4.14
2.03
-0.01
-1.75
-3.16
-4.47
-5.91
-7.63
-9.6
-11.7
-13.77
-15.72
-17.45
-18.71
-19.12
-18.17
-15.53
-11.19
-5.59
0.5
6.26
11.05
14.54
16.7
17.69
17.61
16.56
14.62
11.96
8.98
6.16
3.98
2.7
2.24
2.24
2.28
1.96
1.18
0.08
-1.12
-2.2
-3.13
-4.1
-5.32
-7.01
-9.22
-11.92
-14.93
-18.02
-20.84
-22.97
-23.93
-23.26
-20.7
-16.31
-10.53
-4.05
2.3
7.82
12.08
14.94
16.47
16.8
16.02
14.23
11.59
8.39
5.12
2.31
0.35
-0.62
-0.9
-0.94
-1.15
-1.75
-2.66
-3.62
-4.37
-4.82
-5.02
-5.23
-5.71
-6.69
-8.35
-10.67
-13.46
-16.25
-18.3
-18.84
-17.26
-13.41
-7.68
-0.9
5.96
12.03
16.75
19.83
21.23
21.07
19.6
17.19
14.3
11.4
8.86
6.89
5.47
4.45
3.6
2.7
1.61
0.26
-1.26
-2.79
-4.14
-5.2
-6.06
-6.99
-8.35
-10.38
-13.13
-16.39
-19.75
-22.68
-24.56
-24.86
-23.22
-19.55
-14.12
-7.5
-0.44
6.26
11.92
16.1
18.54
19.24
18.35
16.19
13.16
9.79
6.59
3.95
2.11
1.05
0.59
0.42
0.22
-0.24
-1.06
-2.2
-3.54
-4.97
-6.42
-7.9
-9.49
-11.29
-13.45
-16.05
-19
-21.99
-24.37
-25.43
-24.51
-21.38
-16.3
-9.99
-3.39
2.63
7.48
10.91
12.89
13.52
12.97
11.48
9.4
7.09
4.92
3.11
1.79
0.91
0.4
0.13
-0.02
-0.16
-0.42
-0.88
-1.6
-2.59
-3.87
-5.43
-7.35
-9.71
-12.58
-15.94
-19.58
-23.1
-25.9
-27.28
-26.68
-23.88
-19.12
-13.05
-6.62
-0.67
4.25
7.93
10.48
12.08
12.85
12.8
11.97
10.53
8.83
7.33
6.42
6.23
6.62
7.18
7.42
7.02
5.89
4.2
2.25
0.32
-1.51
-3.32
-5.31
-7.64
-10.37
-13.45
-16.75
-20.1
-23.24
-25.71
-26.9
-26.23
-23.32
-18.27
-11.71
-4.54
2.31
8.18
12.8
16.17
18.42
19.58
19.7
18.82
17.13
15.03
12.96
11.38
10.48
10.25
10.37
10.41
10.03
9.04
7.55
5.83
4.16
2.7
1.37
-0.07
-1.92
-4.4
-7.6
-11.44
-15.66
-19.87
-23.55
-26.09
-26.87
-25.46
-21.71
-15.87
-8.6
-0.8
6.61
12.85
17.52
20.54
22.06
22.38
21.77
20.46
18.68
16.73
14.98
13.74
13.16
13.09
13.16
12.92
12.04
10.45
8.37
6.12
4.01
2.14
0.46
-1.21
-3.02
-5.09
-7.53
-10.4
-13.74
-17.45
-21.16
-24.27
-26.04
-25.79
-23.19
-18.36
-11.89
-4.65
2.45
8.7
13.62
17.03
18.98
19.63
19.23
18.03
16.35
14.5
12.79
11.47
10.68
10.34
10.3
10.29
10.07
9.53
8.65
7.49
6.13
4.6
2.92
1.1
-0.83
-2.86
-5.08
-7.69
-10.92
-14.79
-19.1
-23.2
-26.23
-27.33
-25.91
-21.91
-15.78
-8.4
-0.78
6.14
11.65
15.4
17.32
17.62
16.64
14.8
12.52
10.18
8.06
6.43
5.43
5.05
5.17
5.51
5.77
5.66
5.08
4.06
2.75
1.34
-0.1
-1.55
-3.07
-4.68
-6.42
-8.24
-10.2
-12.38
-14.83
-17.45
-19.81
-21.19
-20.79
-18.09
-13.06
-6.31
1.14
8.23
14.16
18.58
21.51
23.13
23.62
23.08
21.59
19.38
16.91
14.69
13.14
12.41
12.31
12.39
12.19
11.42
10.08
8.46
6.88
5.6
4.67
3.93
3.12
2.05
0.63
-1.15
-3.27
-5.76
-8.7
-12.08
-15.74
-19.2
-21.73
-22.56
-21.11
-17.25
-11.38
-4.34
2.87
9.36
14.48
17.96
19.82
20.27
19.66
18.34
16.66
14.95
13.45
12.29
11.48
10.93
10.44
9.83
8.95
7.74
6.26
4.6
2.87
1.06
-0.9
-3.16
-5.76
-8.58
-11.4
-13.96
-16.06
-17.77
-19.27
-20.7
-21.97
-22.64
-22.07
-19.72
-15.49
-9.79
-3.49
2.48
7.44
11.16
13.77
15.55
16.68
17.14
16.81
15.61
13.68
11.4
9.34
7.92
7.39
7.63
8.26
8.74
8.62
7.68
5.93
3.64
1.19
-1.09
-3.09
-4.86
-6.62
-8.53
-10.61
-12.77
-14.84
-16.69
-18.26
-19.5
-20.25
-20.21
-18.93
-16.07
-11.61
-5.92
0.24
6.01
10.61
13.59
14.89
14.74
13.55
11.69
9.49
7.2
5.01
3.15
1.78
0.97
0.61
0.45
0.16
-0.45
-1.49
-2.78
-4.06
-5.06
-5.65
-5.89
-6.01
-6.27
-6.88
-7.99
-9.64
-11.77
-14.32
-17.03
-19.5
-21.12
-21.23
-19.28
-15.15
-9.28
-2.59
3.78
8.96
12.56
14.69
15.79
16.25
16.22
15.64
14.38
12.48
10.25
8.19
6.78
6.26
6.57
7.39
8.29
8.87
8.92
8.35
7.22
5.65
3.74
1.57
-0.81
-3.29
-5.78
-8.21
-10.6
-13.03
-15.57
-18.13
-20.33
-21.56
-21.09
-18.45
-13.7
-7.45
-0.74
5.35
10.03
13.08
14.67
15.17
14.9
13.98
12.41
10.24
7.74
5.35
3.54
2.54
2.3
2.46
2.61
2.46
1.98
1.23
0.41
-0.41
-1.21
-2.07
-3.06
-4.24
-5.66
-7.37
-9.4
-11.75
-14.4
-17.19
-19.8
-21.79
-22.6
-21.72
-18.91
-14.33
-8.53
-2.34
3.41
8.15
11.68
14.09
15.59
16.35
16.35
15.54
13.93
11.72
9.32
7.18
5.71
5
4.87
4.87
4.56
3.68
2.25
0.53
-1.14
-2.56
-3.73
-4.79
-5.91
-7.2
-8.65
-10.25
-12.04
-14.08
-16.31
-18.41
-19.77
-19.71
-17.76
-13.93
-8.67
-2.81
2.85
7.64
11.22
13.46
14.39
14.14
12.87
10.83
8.33
5.68
3.16
1.02
-0.56
-1.52
-1.91
-1.96
-1.97
-2.17
-2.65
-3.28
-3.83
-4.12
-4.12
-4
-4.02
-4.48
-5.57
-7.38
-9.85
-12.7
-15.44
-17.42
-17.94
-16.57
-13.33
-8.67
-3.34
1.87
6.42
9.99
12.49
13.82
13.94
12.84
10.66
7.81
4.81
2.21
0.36
-0.65
-1.05
-1.14
-1.25
-1.52
-1.95
-2.43
-2.84
-3.09
-3.24
-3.41
-3.76
-4.39
-5.43
-6.92
-8.89
-11.27
-13.79
-15.99
-17.27
-17.1
-15.14
-11.47
-6.51
-1
4.27
8.69
11.87
13.77
14.5
14.26
13.26
11.67
9.75
7.83
6.27
5.38
5.27
5.7
6.2
6.26
5.56
4.15
2.42
0.83
-0.26
-0.83
-1.18
-1.8
-3.16
-5.51
-8.8
-12.68
-16.52
-19.62
-21.26
-20.91
-18.4
-13.92
-8.09
-1.68
4.47
9.74
13.76
16.41
17.73
17.83
16.82
14.87
12.21
9.19
6.21
3.63
1.77
0.75
0.45
0.63
0.9
0.91
0.39
-0.73
-2.38
-4.33
-6.33
-8.2
-9.9
-11.6
-13.51
-15.81
-18.44
-21.07
-23.09
-23.85
-22.81
-19.74
-14.83
-8.58
-1.74
4.95
10.85
15.48
18.53
19.85
19.4
17.31
13.91
9.79
5.72
2.47
0.54
0.03
0.52
1.31
1.72
1.39
0.38
-0.92
-2.11
-2.98
-3.64
-4.49
-5.9
-8.12
-11.19
-14.87
-18.75
-22.24
-24.71
-25.51
-24.2
-20.72
-15.36
-8.86
-2.07
4.16
9.26
12.9
15.03
15.75
15.25
13.8
11.71
9.35
7.07
5.15
3.74
2.82
2.24
1.82
1.45
1.05
0.64
0.28
-0.03
-0.31
-0.72
-1.47
-2.8
-4.9
-7.89
-11.61
-15.65
-19.31
-21.71
-22.07
-19.99
-15.53
-9.28
-2.1
5.1
11.55
16.74
20.38
22.28
22.41
20.91
18.15
14.7
11.21
8.27
6.22
5.15
4.81
4.77
4.55
3.79
2.37
0.46
-1.64
-3.59
-5.2
-6.61
-8.15
-10.21
-13.03
-16.53
-20.32
-23.78
-26.21
-26.94
-25.57
-21.95
-16.32
-9.31
-1.69
5.66
12.03
16.97
20.33
22.13
22.5
21.62
19.72
17.16
14.42
12.02
10.31
9.35
8.9
8.56
7.95
6.92
5.55
4.06
2.62
1.26
-0.12
-1.66
-3.48
-5.61
-8.08
-10.9
-13.96
-17.01
-19.59
-21.05
-20.79
-18.47
-14.17
-8.4
-1.9
4.53
10.26
14.95
18.42
20.64
21.56
21.19
19.59
17.03
13.94
10.88
8.36
6.74
6.08
6.14
6.54
6.83
6.7
6
4.79
3.27
1.66
0.06
-1.56
-3.35
-5.49
-8.1
-11.2
-14.69
-18.33
-21.74
-24.29
-25.3
-24.12
-20.46
-14.55
-7.12
0.74
7.97
13.78
17.86
20.22
21.08
20.67
19.19
16.9
14.11
11.33
9.06
7.67
7.2
7.34
7.55
7.28
6.27
4.57
2.54
0.57
-1.03
-2.17
-2.96
-3.62
-4.42
-5.61
-7.44
-10
-13.22
-16.71
-19.75
-21.53
-21.37
-19
-14.7
-9.17
-3.26
2.27
6.98
10.7
13.37
14.94
15.23
14.13
11.73
8.47
5.06
2.35
0.91
0.89
1.96
3.45
4.69
5.17
4.75
3.55
1.9
0.12
-1.52
-2.9
-4.05
-5.12
-6.4
-8.18
-10.71
-13.99
-17.69
-21.11
-23.32
-23.46
-21.04
-16.12
-9.37
-1.82
5.47
11.75
16.64
20.13
22.32
23.28
23
21.5
18.97
15.79
12.58
9.92
8.24
7.66
7.97
8.68
9.26
9.26
8.5
7.05
5.17
3.15
1.16
-0.82
-2.94
-5.36
-8.18
-11.36
-14.74
-18.03
-20.83
-22.64
-22.89
-21.14
-17.21
-11.34
-4.17
3.43
10.61
16.71
21.4
24.59
26.31
26.68
25.83
24.01
21.56
18.91
16.48
14.56
13.25
12.45
11.9
11.31
10.4
9.01
7.08
4.68
1.98
-0.78
-3.32
-5.44
-7.16
-8.74
-10.6
-13.14
-16.49
-20.33
-23.95
-26.36
-26.68
-24.41
-19.6
-12.8
-4.94
2.93
9.92
15.43
19.22
21.35
22.01
21.44
19.85
17.44
14.52
11.49
8.79
6.83
5.79
5.61
5.96
6.44
6.7
6.58
6.14
5.57
5.03
4.55
4.03
3.25
2.1
0.53
-1.38
-3.51
-5.72
-7.94
-10.05
-11.83
-13.01
-13.23
-12.27
-10.07
-6.84
-3.03
0.88
4.38
7.12
8.96
9.84
9.81
8.92
7.31
5.22
3
1.09
-0.14
-0.55
-0.23
0.55
1.43
2.11
2.41
2.23
1.6
0.55
-0.88
-2.63
-4.68
-7.06
-9.84
-13.05
-16.61
-20.16
-23.12
-24.75
-24.37
-21.64
-16.73
-10.25
-3.16
3.61
9.34
13.66
16.51
17.99
18.26
17.42
15.62
13.06
10.06
7.07
4.56
2.91
2.34
2.75
3.85
5.22
6.39
7.1
7.3
7.12
6.84
6.65
6.5
6.18
5.32
3.59
0.92
-2.42
-5.88
-8.66
-9.96
-9.18
-6.16
-1.14
5.13
11.65
17.42
21.67
24.06
24.65
23.72
21.62
18.62
14.94
10.84
6.71
3.01
0.23
-1.41
-2.02
-1.99
-1.87
-2.13
-2.92
-4.12
-5.45
-6.59
-7.34
-7.73
-7.91
-8.15
-8.73
-9.9
-11.79
-14.34
-17.25
-19.98
-21.78
-21.98
-20.08
-16.03
-10.17
-3.25
3.87
10.36
15.61
19.31
21.39
21.88
20.92
18.67
15.51
11.95
8.64
6.18
4.92
4.78
5.33
5.91
5.95
5.16
3.64
1.7
-0.24
-1.9
-3.18
-4.21
-5.24
-6.59
-8.48
-10.99
-13.94
-17.02
-19.69
-21.42
-21.76
-20.39
-17.31
-12.74
-7.23
-1.44
3.96
8.43
11.69
13.63
14.31
13.81
12.27
9.88
7.03
4.18
1.8
0.15
-0.75
-1.08
-1.19
-1.33
-1.66
-2.25
-3.13
-4.34
-5.89
-7.68
-9.58
-11.47
-13.39
-15.49
-17.95
-20.77
-23.56
-25.6
-26.04
-24.29
-20.25
-14.42
-7.69
-0.99
4.98
9.89
13.69
16.37
17.81
17.78
16.19
13.29
9.75
6.5
4.34
3.59
3.96
4.76
5.22
4.87
3.72
2.12
0.52
-0.79
-1.85
-2.86
-4.12
-5.9
-8.3
-11.31
-14.73
-18.14
-20.93
-22.4
-21.92
-19.18
-14.34
-7.99
-0.99
5.73
11.44
15.75
18.52
19.82
19.78
18.59
16.5
13.88
11.19
8.87
7.27
6.48
6.32
6.4
6.33
5.81
4.75
3.29
1.69
0.2
-1.04
-2.07
-3.14
-4.63
-6.88
-10.03
-13.82
-17.55
-20.31
-21.22
-19.76
-15.93
-10.32
-3.82
2.64
8.3
12.69
15.59
16.89
16.61
14.89
12.09
8.74
5.47
2.84
1.08
0.16
-0.29
-0.67
-1.31
-2.28
-3.43
-4.51
-5.33
-5.81
-6.1
-6.45
-7.12
-8.31
-10.12
-12.41
-14.86
-16.94
-18.06
-17.67
-15.52
-11.65
-6.49
-0.7
5.03
10.09
14.08
16.77
18.05
17.94
16.58
14.27
11.41
8.49
5.94
4.04
2.82
2.13
1.74
1.4
0.99
0.53
0.09
-0.29
-0.66
-1.19
-2.12
-3.65
-5.83
-8.54
-11.48
-14.26
-16.5
-17.95
-18.42
-17.79
-16.01
-13.08
-9.14
-4.5
0.35
4.87
8.54
11.03
12.19
12.1
10.97
9.14
6.95
4.79
3
1.85
1.43
1.65
2.25
2.85
3.17
3.04
2.49
1.69
0.78
-0.22
-1.41
-3.01
-5.18
-7.91
-11.01
-14.1
-16.7
-18.34
-18.66
-17.49
-14.87
-11.04
-6.42
-1.49
3.27
7.44
10.63
12.58
13.12
12.34
10.54
8.2
5.85
3.94
2.67
1.99
1.76
1.72
1.69
1.47
1
0.24
-0.73
-1.79
-2.8
-3.68
-4.51
-5.53
-6.99
-9.07
-11.67
-14.41
-16.65
-17.74
-17.16
-14.74
-10.68
-5.46
0.28
5.95
11.02
15.09
17.84
19.1
18.85
17.29
14.87
12.12
9.54
7.44
5.89
4.74
3.76
2.75
1.66
0.58
-0.31
-0.83
-0.97
-0.86
-0.79
-1.14
-2.21
-4.14
-6.86
-10.09
-13.4
-16.24
-18
-18.13
-16.28
-12.46
-7.13
-1.04
4.89
9.95
13.78
16.43
18.2
19.39
20.12
20.3
19.82
18.68
17.04
15.24
13.59
12.2
10.95
9.59
7.86
5.67
3.16
0.65
-1.53
-3.14
-4.14
-4.72
-5.2
-5.97
-7.33
-9.35
-11.83
-14.35
-16.36
-17.31
-16.84
-14.81
-11.33
-6.8
-1.7
3.41
8.02
11.73
14.27
15.57
15.68
14.77
13.13
11.19
9.4
8.17
7.68
7.79
8.09
8.04
7.26
5.69
3.57
1.34
-0.61
-2.08
-3.11
-3.88
-4.7
-5.87
-7.64
-10.09
-13.06
-16.07
-18.39
-19.25
-18.14
-14.99
-10.19
-4.49
1.3
6.47
10.54
13.24
14.51
14.45
13.29
11.42
9.25
7.15
5.34
3.83
2.52
1.19
-0.31
-2
-3.76
-5.4
-6.73
-7.65
-8.24
-8.63
-9.03
-9.66
-10.69
-12.25
-14.35
-16.85
-19.4
-21.46
-22.44
-21.83
-19.4
-15.32
-10.06
-4.25
1.48
6.68
11.02
14.28
16.29
16.91
16.1
14.07
11.23
8.17
5.47
3.53
2.45
2.02
1.87
1.64
1.11
0.27
-0.75
-1.76
-2.62
-3.27
-3.74
-4.18
-4.8
-5.91
-7.75
-10.33
-13.28
-15.89
-17.26
-16.65
-13.81
-9.08
-3.23
2.84
8.39
13.03
16.6
19.02
20.23
20.17
18.95
16.94
14.68
12.74
11.46
10.8
10.43
9.86
8.76
7.02
4.87
2.66
0.72
-0.82
-2.05
-3.19
-4.49
-6.13
-8.19
-10.67
-13.52
-16.55
-19.38
-21.44
-22.05
-20.65
-16.99
-11.38
-4.52
2.64
9.27
14.79
18.97
21.75
23.13
23.12
21.8
19.36
16.25
13.02
10.22
8.14
6.84
6.11
5.64
5.2
4.64
3.89
2.94
1.8
0.53
-0.77
-1.97
-3.03
-4.02
-5.19
-6.82
-9.11
-11.98
-14.94
-17.26
-18.16
-17.09
-13.99
-9.28
-3.78
1.69
6.45
10.2
12.85
14.41
14.88
14.27
12.63
10.24
7.63
5.34
3.85
3.31
3.6
4.34
5.06
5.37
5.1
4.27
3.11
1.86
0.69
-0.39
-1.53
-2.96
-4.83
-7.24
-10.13
-13.28
-16.32
-18.73
-19.92
-19.41
-17
-12.91
-7.73
-2.22
2.9
7.16
10.39
12.5
13.51
13.43
12.38
10.59
8.49
6.48
4.88
3.74
2.93
2.2
1.36
0.31
-0.88
-2.07
-3.13
-3.95
-4.55
-5.03
-5.52
-6.21
-7.27
-8.86
-11.04
-13.74
-16.69
-19.33
-21
-21.04
-19.05
-15.13
-9.81
-3.94
1.58
6.12
9.41
11.51
12.64
13.01
12.71
11.74
10.18
8.18
6.05
4.14
2.68
1.69
1.04
0.54
0.07
-0.35
-0.7
-0.97
-1.3
-1.83
-2.74
-4.05
-5.78
-7.94
-10.55
-13.55
-16.63
-19.15
-20.3
-19.41
-16.28
-11.32
-5.38
0.63
5.99
10.38
13.76
16.18
17.66
18.11
17.51
15.96
13.79
11.43
9.33
7.83
7.01
6.79
6.89
6.95
6.65
5.82
4.49
2.86
1.17
-0.4
-1.82
-3.21
-4.8
-6.85
-9.42
-12.37
-15.28
-17.52
-18.44
-17.52
-14.66
-10.18
-4.78
0.7
5.54
9.31
11.95
13.54
14.29
14.32
13.69
12.52
10.97
9.25
7.6
6.14
4.83
3.58
2.26
0.84
-0.62
-1.98
-3.14
-4.06
-4.76
-5.43
-6.24
-7.41
-9.06
-11.2
-13.66
-16.09
-18.02
-18.86
-18.14
-15.58
-11.29
-5.72
0.36
6.14
10.92
14.33
16.32
16.97
16.51
15.14
13.05
10.49
7.78
5.24
3.14
1.59
0.51
-0.31
-1.11
-2.04
-3.19
-4.49
-5.83
-7.07
-8.14
-9.09
-10.07
-11.35
-13.09
-15.27
-17.66
-19.74
-20.96
-20.8
-19.08
-15.86
-11.51
-6.53
-1.39
3.4
7.46
10.41
11.98
12.06
10.79
8.53
5.8
3.18
1.16
-0.06
-0.57
-0.66
-0.72
-1.04
-1.74
-2.68
-3.62
-4.33
-4.81
-5.35
-6.34
-8.15
-10.87
-14.25
-17.78
-20.76
-22.56
-22.68
-20.88
-17.19
-11.91
-5.6
1.01
7.11
12.03
15.34
16.93
17.04
16.05
14.4
12.46
10.43
8.42
6.49
4.72
3.22
2.1
1.4
0.98
0.69
0.37
-0.03
-0.46
-0.92
-1.47
-2.41
-4.06
-6.63
-9.97
-13.55
-16.53
-18.04
-17.48
-14.74
-10.22
-4.64
1.12
6.39
10.74
14.03
16.27
17.52
17.77
17.03
15.41
13.2
10.9
8.98
7.74
7.14
6.88
6.5
5.72
4.49
3
1.51
0.21
-0.96
-2.16
-3.64
-5.6
-8.11
-11.08
-14.25
-17.15
-19.19
-19.76
-18.39
-14.98
-9.86
-3.67
2.78
8.72
13.61
17.1
19.1
19.63
18.88
17.11
14.7
12.01
9.41
7.17
5.38
4.06
3.1
2.3
1.49
0.5
-0.71
-2.06
-3.37
-4.43
-5.18
-5.74
-6.41
-7.52
-9.3
-11.72
-14.41
-16.71
-17.84
-17.14
-14.33
-9.57
-3.49
3.08
9.26
14.36
17.96
19.92
20.29
19.25
17.08
14.24
11.2
8.49
6.45
5.13
4.33
3.69
2.88
1.77
0.38
-1.09
-2.47
-3.64
-4.61
-5.48
-6.35
-7.35
-8.63
-10.32
-12.46
-14.95
-17.42
-19.26
-19.79
-18.48
-15.11
-9.98
-3.75
2.72
8.6
13.29
16.49
18.15
18.38
17.38
15.39
12.72
9.72
6.76
4.15
2.07
0.53
-0.6
-1.48
-2.25
-2.98
-3.66
-4.26
-4.76
-5.24
-5.83
-6.71
-8.06
-10.03
-12.64
-15.75
-19.04
-21.93
-23.72
-23.71
-21.51
-17.16
-11.16
-4.37
2.32
8.18
12.85
16.19
18.22
18.95
18.42
16.71
14.13
11.19
8.5
6.57
5.59
5.42
5.65
5.85
5.72
5.2
4.38
3.48
2.62
1.79
0.87
-0.31
-1.91
-3.97
-6.49
-9.33
-12.21
-14.69
-16.18
-16.06
-13.9
-9.68
-3.83
2.82
9.38
15.09
19.51
22.53
24.19
24.6
23.85
22.1
19.63
16.83
14.12
11.81
10.08
8.94
8.23
7.72
7.1
6.07
4.41
2.11
-0.63
-3.4
-5.79
-7.52
-8.6
-9.26
-9.89
-10.88
-12.5
-14.69
-17.15
-19.3
-20.45
-19.97
-17.45
-12.93
-6.87
-0.03
6.7
12.59
17.15
20.18
21.69
21.84
20.86
19
16.57
13.89
11.32
9.16
7.64
6.84
6.65
6.83
7.1
7.2
7
6.51
5.8
4.98
4.01
2.81
1.22
-0.86
-3.42
-6.4
-9.7
-13.21
-16.77
-20.05
-22.53
-23.56
-22.57
-19.31
-14.01
-7.39
-0.45
5.84
10.82
14.2
16.08
16.71
16.4
15.41
13.93
12.17
10.37
8.85
7.93
7.78
8.35
9.34
10.28
10.72
10.45
9.47
8.05
6.53
5.13
3.88
2.66
1.28
-0.4
-2.5
-5.09
-8.18
-11.62
-15.05
-17.86
-19.34
-18.87
-16.24
-11.68
-5.89
0.29
6.02
10.73
14.08
15.91
16.2
15.03
12.61
9.39
5.89
2.71
0.29
-1.12
-1.56
-1.31
-0.8
-0.44
-0.54
-1.25
-2.51
-4.11
-5.77
-7.3
-8.62
-9.8
-11.05
-12.57
-14.56
-17.06
-19.91
-22.68
-24.78
-25.54
-24.42
-21.25
-16.26
-10.12
-3.65
2.36
7.35
11.11
13.63
15.04
15.42
14.84
13.42
11.34
8.93
6.55
4.6
3.24
2.47
2.02
1.6
0.91
-0.11
-1.3
-2.39
-3.1
-3.38
-3.41
-3.53
-4.05
-5.18
-6.93
-9.24
-11.91
-14.61
-16.9
-18.12
-17.59
-14.84
-9.88
-3.28
3.99
10.86
16.58
20.79
23.55
25.01
25.29
24.41
22.46
19.67
16.53
13.62
11.35
9.87
8.92
8.07
6.91
5.26
3.23
1.08
-0.84
-2.34
-3.34
-3.9
-4.27
-4.75
-5.71
-7.45
-10.14
-13.63
-17.44
-20.81
-22.84
-22.85
-20.53
-16.08
-10.09
-3.35
3.36
9.46
14.58
18.5
21.1
22.33
22.24
20.99
18.87
16.31
13.75
11.51
9.78
8.61
7.88
7.4
6.9
6.14
5.01
3.55
1.97
0.55
-0.55
-1.3
-1.95
-2.85
-4.39
-6.74
-9.88
-13.42
-16.77
-19.19
-20
-18.7
-15.17
-9.75
-3.15
3.63
9.65
14.22
17.03
18.14
17.89
16.64
14.7
12.21
9.29
6.12
2.97
0.22
-1.82
-3.02
-3.5
-3.56
-3.53
-3.6
-3.88
-4.27
-4.71
-5.19
-5.84
-6.83
-8.42
-10.78
-13.94
-17.76
-21.84
-25.47
-27.87
-28.31
-26.44
-22.37
-16.68
-10.22
-3.8
1.94
6.62
10.02
12.03
12.57
11.64
9.41
6.3
2.88
-0.19
-2.41
-3.59
-3.8
-3.49
-3.14
-3.14
-3.56
-4.23
-4.84
-5.16
-5.2
-5.2
-5.48
-6.36
-8.04
-10.56
-13.86
-17.72
-21.63
-24.86
-26.53
-25.9
-22.7
-17.31
-10.61
-3.66
2.66
7.88
11.91
14.84
16.72
17.49
17.13
15.72
13.59
11.18
8.97
7.28
6.14
5.47
5.03
4.61
4.12
3.51
2.81
2.07
1.26
0.32
-0.9
-2.61
-4.99
-8.11
-11.87
-15.99
-19.93
-23.01
-24.46
-23.64
-20.24
-14.45
-6.95
1.27
9.16
15.92
21.07
24.45
26.05
25.97
24.31
21.37
17.62
13.77
10.49
8.27
7.14
6.76
6.61
6.19
5.27
3.89
2.28
0.71
-0.67
-1.91
-3.21
-4.85
-7.07
-9.98
-13.47
-17.27
-20.86
-23.66
-25.01
-24.41
-21.54
-16.53
-9.88
-2.45
4.75
10.86
15.34
18.07
19.26
19.22
18.16
16.21
13.48
10.22
6.86
3.97
1.98
0.94
0.59
0.41
0
-0.76
-1.65
-2.31
-2.45
-2.13
-1.74
-1.81
-2.87
-5.23
-8.9
-13.61
-18.79
-23.58
-27.04
-28.27
-26.78
-22.62
-16.42
-9.21
-2.13
3.95
8.56
11.57
13.07
13.2
12.11
9.99
7.24
4.39
2.08
0.79
0.68
1.51
2.74
3.71
3.98
3.35
1.97
0.17
-1.75
-3.58
-5.3
-7
-8.91
-11.25
-14.14
-17.44
-20.69
-23.15
-23.96
-22.48
-18.55
-12.61
-5.53
1.68
8.15
13.4
17.3
19.85
21.11
21.02
19.55
16.89
13.44
9.87
6.93
5.11
4.52
4.8
5.3
5.4
4.81
3.67
2.39
1.41
0.84
0.46
-0.19
-1.59
-4.03
-7.53
-11.87
-16.64
-21.21
-24.79
-26.48
-25.56
-21.8
-15.6
-7.98
-0.13
6.92
12.6
16.75
19.42
20.61
20.22
18.26
15.03
11.23
7.8
5.56
4.84
5.37
6.44
7.2
7.14
6.2
4.72
3.2
2.03
1.28
0.75
0.14
-0.85
-2.44
-4.75
-7.8
-11.44
-15.3
-18.68
-20.72
-20.62
-17.99
-12.99
-6.34
0.94
7.89
13.81
18.41
21.59
23.36
23.65
22.46
19.87
16.28
12.33
8.75
6.12
4.65
4.17
4.17
4.08
3.51
2.42
1.05
-0.21
-1.05
-1.42
-1.52
-1.71
-2.39
-3.88
-6.31
-9.59
-13.38
-17.14
-20.08
-21.36
-20.29
-16.58
-10.56
-3.15
4.47
11.14
16.18
19.48
21.31
22.07
22.02
21.14
19.36
16.66
13.32
9.84
6.71
4.3
2.65
1.55
0.7
-0.12
-0.96
-1.74
-2.32
-2.64
-2.78
-2.99
-3.53
-4.67
-6.53
-9.15
-12.42
-16.1
-19.84
-23.1
-25.22
-25.51
-23.52
-19.23
-13.08
-5.93
1.27
7.75
13.1
17.21
20.08
21.64
21.72
20.2
17.2
13.25
9.14
5.71
3.53
2.65
2.69
3.01
3.07
2.6
1.64
0.45
-0.68
-1.65
-2.52
-3.48
-4.7
-6.25
-8.22
-10.65
-13.61
-17.09
-20.78
-23.99
-25.78
-25.27
-22.04
-16.35
-9.08
-1.43
5.57
11.22
15.27
17.7
18.57
17.92
15.94
13.03
9.83
7.05
5.25
4.63
4.98
5.84
6.65
7
6.7
5.81
4.52
3.07
1.66
0.34
-0.96
-2.41
-4.19
-6.5
-9.47
-13.05
-17.04
-20.98
-24.15
-25.71
-24.92
-21.4
-15.39
-7.62
0.74
8.53
14.96
19.7
22.85
24.63
25.23
24.64
22.83
19.93
16.35
12.74
9.74
7.74
6.73
6.32
5.97
5.29
4.22
2.99
1.93
1.24
0.87
0.54
-0.13
-1.43
-3.46
-6.18
-9.49
-13.21
-17.03
-20.41
-22.57
-22.65
-20.05
-14.69
-7.16
1.39
9.68
16.64
21.75
24.98
26.61
26.93
26.13
24.24
21.38
17.82
14.1
10.85
8.57
7.4
7.1
7.17
7.04
6.39
5.21
3.69
2.12
0.65
-0.76
-2.32
-4.27
-6.78
-9.91
-13.6
-17.76
-22.16
-26.36
-29.69
-31.33
-30.57
-27.14
-21.33
-14.02
-6.33
0.73
6.53
10.88
13.83
15.44
15.76
14.78
12.69
9.93
7.12
4.85
3.46
2.93
2.96
3.11
3.07
2.69
2.02
1.23
0.39
-0.43
-1.26
-2.22
-3.46
-5.12
-7.35
-10.25
-13.83
-17.88
-21.94
-25.27
-27.03
-26.46
-23.21
-17.51
-10.1
-2.06
5.56
12.04
16.99
20.35
22.15
22.42
21.22
18.66
15.15
11.19
7.43
4.33
2.15
0.87
0.24
-0.05
-0.29
-0.67
-1.26
-2.03
-2.97
-4.04
-5.3
-6.79
-8.56
-10.64
-13.07
-15.88
-19.01
-22.14
-24.65
-25.66
-24.35
-20.26
-13.6
-5.25
3.56
11.62
18.15
22.87
25.83
27.19
27.05
25.46
22.54
18.68
14.5
10.71
7.89
6.26
5.6
5.42
5.19
4.55
3.45
2.09
0.73
-0.48
-1.6
-2.87
-4.56
-6.84
-9.73
-13.11
-16.81
-20.56
-23.97
-26.42
-27.16
-25.58
-21.42
-15
-7.14
1.08
8.72
15.17
20.17
23.7
25.7
26.09
24.82
22.02
18.14
13.88
10.01
7.17
5.61
5.19
5.43
5.74
5.61
4.8
3.4
1.72
0.07
-1.35
-2.62
-4.03
-5.95
-8.68
-12.36
-16.83
-21.63
-26.09
-29.34
-30.58
-29.22
-25.13
-18.75
-10.96
-2.86
4.56
10.66
15.18
18.13
19.61
19.7
18.49
16.17
13.11
9.9
7.08
5.1
4.06
3.75
3.78
3.68
3.15
2.13
0.85
-0.34
-1.14
-1.52
-1.74
-2.32
-3.81
-6.58
-10.67
-15.6
-20.57
-24.54
-26.57
-26.03
-22.77
-17.16
-10
-2.27
5.08
11.36
16.17
19.35
20.85
20.67
18.86
15.63
11.42
6.92
2.87
-0.13
-1.86
-2.46
-2.4
-2.17
-2.15
-2.47
-3.03
-3.69
-4.36
-5.03
-5.85
-7.08
-9.01
-11.88
-15.76
-20.37
-25.03
-28.76
-30.49
-29.45
-25.46
-19.04
-11.2
-3.16
4.09
10.04
14.54
17.68
19.52
19.96
18.88
16.36
12.74
8.75
5.19
2.71
1.54
1.44
1.85
2.26
2.34
2.04
1.54
0.98
0.41
-0.35
-1.57
-3.56
-6.49
-10.4
-15.12
-20.19
-24.95
-28.53
-30.13
-29.17
-25.54
-19.64
-12.28
-4.43
3.08
9.65
14.99
18.93
21.38
22.27
21.65
19.81
17.24
14.59
12.41
11.01
10.35
10.05
9.66
8.81
7.41
5.62
3.77
2.1
0.73
-0.39
-1.57
-3.15
-5.49
-8.8
-13.03
-17.78
-22.34
-25.72
-26.91
-25.26
-20.72
-13.92
-5.98
1.92
8.94
14.65
19.04
22.23
24.19
24.78
23.81
21.38
17.97
14.33
11.27
9.24
8.25
7.87
7.55
6.86
5.7
4.2
2.67
1.27
0.11
-0.93
-2
-3.29
-5.08
-7.59
-11.03
-15.33
-20.08
-24.47
-27.47
-28.14
-25.92
-20.89
-13.69
-5.38
2.92
10.24
15.99
19.93
22.11
22.68
21.85
19.85
17.01
13.76
10.67
8.29
6.97
6.66
6.96
7.22
6.94
5.88
4.22
2.41
0.84
-0.36
-1.38
-2.54
-4.17
-6.36
-9.07
-12.21
-15.73
-19.58
-23.49
-26.81
-28.56
-27.77
-23.86
-17.06
-8.3
1.01
9.51
16.27
20.99
23.82
25.09
25.02
23.71
21.25
17.87
14.09
10.58
7.94
6.47
6.07
6.35
6.75
6.81
6.3
5.2
3.62
1.72
-0.35
-2.57
-4.93
-7.51
-10.36
-13.53
-17.04
-20.81
-24.66
-28.2
-30.87
-31.9
-30.6
-26.54
-19.85
-11.25
-1.88
7.02
14.52
20.14
23.86
25.89
26.5
25.87
24.1
21.37
18.04
14.63
11.75
9.88
9.23
9.59
10.5
11.36
11.7
11.29
10.21
8.69
7
5.31
3.65
1.94
0.06
-2.11
-4.72
-7.94
-11.85
-16.31
-20.83
-24.55
-26.46
-25.66
-21.77
-15.06
-6.52
2.49
10.69
17.21
21.8
24.69
26.35
27.12
27.1
26.21
24.39
21.79
18.83
16.09
14.02
12.77
12.14
11.66
10.89
9.59
7.8
5.74
3.64
1.57
-0.51
-2.76
-5.26
-7.93
-10.58
-13.03
-15.29
-17.52
-19.98
-22.72
-25.42
-27.26
-27.23
-24.49
-18.78
-10.64
-1.25
8.01
15.95
21.94
25.84
27.87
28.37
27.62
25.88
23.49
20.82
18.33
16.39
15.16
14.57
14.33
14.11
13.58
12.56
11.01
8.99
6.65
4.08
1.4
-1.28
-3.9
-6.35
-8.61
-10.75
-12.99
-15.62
-18.91
-22.88
-27.16
-30.98
-33.34
-33.31
-30.38
-24.59
-16.52
-7.19
2.26
10.82
17.79
22.81
25.79
26.82
26.16
24.14
21.2
17.88
14.64
11.88
9.82
8.49
7.79
7.58
7.6
7.59
7.27
6.4
4.93
3.04
1.07
-0.61
-1.84
-2.73
-3.63
-5
-7.23
-10.54
-14.89
-20.01
-25.31
-29.94
-32.92
-33.31
-30.58
-24.82
-16.8
-7.74
1.06
8.56
14.2
17.86
19.69
19.93
18.85
16.69
13.76
10.52
7.46
5.08
3.71
3.37
3.82
4.62
5.3
5.48
5.02
4.01
2.61
1.02
-0.64
-2.34
-4.08
-5.87
-7.72
-9.71
-11.99
-14.73
-17.92
-21.23
-23.95
-25.18
-24.05
-20.13
-13.59
-5.17
4.05
12.97
20.72
26.78
30.89
33
33.15
31.52
28.41
24.36
19.97
15.86
12.53
10.16
8.73
7.95
7.48
7.01
6.3
5.23
3.82
2.13
0.28
-1.64
-3.62
-5.7
-8.03
-10.74
-14.03
-17.95
-22.33
-26.68
-30.17
-31.82
-30.75
-26.6
-19.62
-10.71
-1.09
8.05
15.82
21.77
25.8
27.96
28.3
26.89
23.98
20.05
15.76
11.84
8.8
6.84
5.88
5.62
5.78
6.08
6.31
6.19
5.42
3.8
1.32
-1.81
-5.22
-8.54
-11.61
-14.51
-17.45
-20.63
-23.99
-27.12
-29.38
-30.01
-28.45
-24.53
-18.58
-11.34
-3.72
3.4
9.48
14.2
17.54
19.54
20.25
19.7
17.96
15.24
11.88
8.32
5
2.3
0.37
-0.86
-1.61
-2.2
-2.89
-3.75
-4.72
-5.65
-6.41
-7.02
-7.7
-8.74
-10.44
-12.95
-16.26
-20.08
-23.85
-26.84
-28.31
-27.66
-24.66
-19.52
-12.86
-5.51
1.72
8.21
13.62
17.77
20.55
21.84
21.56
19.73
16.62
12.76
8.84
5.51
3.24
2.15
2.01
2.35
2.61
2.36
1.37
-0.33
-2.48
-4.75
-6.82
-8.53
-9.91
-11.17
-12.61
-14.47
-16.86
-19.56
-22.02
-23.48
-23.15
-20.56
-15.7
-9.04
-1.42
6.23
13.07
18.52
22.28
24.28
24.64
23.57
21.38
18.46
15.26
12.22
9.7
7.96
7
6.61
6.47
6.2
5.54
4.42
2.93
1.19
-0.73
-2.87
-5.28
-8
-11
-14.25
-17.68
-21.18
-24.5
-27.19
-28.64
-28.17
-25.33
-20.15
-13.15
-5.29
2.39
9.02
14.12
17.55
19.44
19.96
19.29
17.65
15.33
12.71
10.21
8.15
6.65
5.6
4.74
3.74
2.46
0.94
-0.57
-1.81
-2.61
-3.04
-3.41
-4.12
-5.61
-8.08
-11.53
-15.72
-20.16
-24.24
-27.24
-28.49
-27.52
-24.22
-18.9
-12.21
-4.95
2.08
8.24
13.11
16.46
18.21
18.41
17.25
14.97
12
8.8
5.81
3.35
1.56
0.33
-0.59
-1.48
-2.52
-3.73
-4.93
-5.91
-6.52
-6.77
-6.86
-7.13
-7.9
-9.47
-11.91
-15.01
-18.24
-20.87
-22.14
-21.47
-18.68
-14.02
-8.08
-1.58
4.75
10.34
14.79
17.8
19.23
19.07
17.45
14.67
11.17
7.43
3.95
1.09
-0.96
-2.22
-2.88
-3.24
-3.54
-3.94
-4.44
-5.01
-5.58
-6.2
-7
-8.19
-9.96
-12.39
-15.41
-18.74
-21.88
-24.27
-25.34
-24.65
-22.02
-17.59
-11.77
-5.19
1.44
7.47
12.37
15.82
17.61
17.75
16.36
13.73
10.31
6.71
3.56
1.42
0.59
0.94
1.96
2.97
3.32
2.69
1.18
-0.83
-2.85
-4.57
-6
-7.46
-9.37
-12.05
-15.56
-19.52
-23.27
-25.98
-26.82
-25.27
-21.29
-15.26
-7.95
-0.25
7.04
13.32
18.18
21.36
22.68
22.16
20.08
16.99
13.64
10.77
8.86
8.02
7.98
8.27
8.41
8.06
7.07
5.53
3.68
1.77
-0.01
-1.58
-3.07
-4.73
-6.85
-9.59
-12.94
-16.53
-19.82
-22.11
-22.72
-21.23
-17.56
-12.1
-5.54
1.22
7.41
12.52
16.31
18.8
20.05
20.15
19.2
17.34
14.94
12.44
10.33
8.97
8.41
8.37
8.42
8.11
7.15
5.51
3.39
1.07
-1.18
-3.23
-5.12
-7.05
-9.26
-12
-15.34
-19.11
-22.76
-25.55
-26.68
-25.59
-22.18
-16.83
-10.29
-3.37
3.2
8.92
13.42
16.41
17.71
17.3
15.46
12.73
9.84
7.48
6.05
5.62
5.87
6.37
6.64
6.38
5.5
4.13
2.49
0.83
-0.71
-2.08
-3.39
-4.86
-6.74
-9.15
-12.13
-15.4
-18.47
-20.72
-21.5
-20.35
-17.18
-12.25
-6.15
0.42
6.73
12.22
16.49
19.26
20.43
19.96
18.07
15.19
11.94
8.97
6.85
5.83
5.78
6.33
6.92
7.14
6.7
5.59
3.92
1.89
-0.33
-2.56
-4.78
-7.01
-9.39
-12.08
-15.25
-18.87
-22.67
-26.08
-28.35
-28.71
-26.64
-22.04
-15.33
-7.32
1
8.72
15.19
20.13
23.5
25.4
25.85
24.92
22.76
19.77
16.59
13.93
12.29
11.79
12.11
12.62
12.7
11.96
10.34
8.08
5.51
2.92
0.46
-1.84
-4.04
-6.25
-8.55
-11.05
-13.82
-16.84
-19.92
-22.61
-24.28
-24.2
-21.83
-17.05
-10.23
-2.25
5.79
12.88
18.33
21.93
23.83
24.35
23.87
22.59
20.71
18.44
16.06
13.94
12.34
11.41
11.09
11.09
11.04
10.64
9.7
8.26
6.46
4.51
2.55
0.62
-1.32
-3.31
-5.39
-7.56
-9.89
-12.52
-15.57
-19.04
-22.62
-25.61
-27.04
-26.11
-22.44
-16.33
-8.65
-0.49
7.15
13.65
18.76
22.48
24.84
25.87
25.59
24.1
21.69
18.81
15.96
13.58
11.89
10.92
10.5
10.34
10.12
9.65
8.8
7.59
6.05
4.17
1.9
-0.79
-3.83
-7.02
-10.04
-12.61
-14.62
-16.21
-17.82
-19.82
-22.43
-25.47
-28.28
-29.94
-29.63
-26.86
-21.69
-14.78
-7.03
0.62
7.39
12.83
16.73
19.04
19.84
19.36
17.93
16
14
12.2
10.75
9.63
8.75
8.09
7.62
7.33
7.19
7.08
6.87
6.41
5.56
4.29
2.63
0.67
-1.4
-3.39
-5.18
-6.79
-8.42
-10.38
-12.94
-16.13
-19.62
-22.76
-24.63
-24.38
-21.56
-16.25
-9.1
-1.15
6.52
13.13
18.29
21.97
24.34
25.51
25.56
24.53
22.58
20.02
17.34
14.98
13.22
12.14
11.54
11.15
10.69
10.03
9.14
8.09
6.88
5.46
3.73
1.65
-0.68
-3.05
-5.23
-7.1
-8.74
-10.41
-12.47
-15.13
-18.39
-21.89
-25
-26.91
-26.9
-24.51
-19.71
-13
-5.22
2.66
9.76
15.48
19.58
22.01
22.95
22.64
21.38
19.57
17.57
15.75
14.31
13.36
12.83
12.56
12.37
12.06
11.53
10.74
9.69
8.39
6.79
4.78
2.29
-0.66
-3.88
-7.09
-10
-12.48
-14.58
-16.6
-18.9
-21.68
-24.84
-27.84
-29.87
-30.07
-27.9
-23.28
-16.71
-9.02
-1.19
5.92
11.75
16
18.6
19.61
19.2
17.6
15.17
12.33
9.47
6.99
5.13
4.02
3.59
3.66
3.89
3.99
3.75
3.06
2.06
0.88
-0.29
-1.38
-2.4
-3.42
-4.51
-5.69
-7.04
-8.7
-10.89
-13.81
-17.37
-21.07
-24.15
-25.62
-24.73
-21.25
-15.52
-8.43
-1.05
5.58
10.8
14.33
16.24
16.81
16.29
14.9
12.81
10.2
7.32
4.53
2.23
0.73
0.19
0.44
1.13
1.78
2.04
1.74
0.93
-0.18
-1.33
-2.35
-3.19
-3.89
-4.59
-5.44
-6.63
-8.29
-10.47
-12.97
-15.29
-16.64
-16.23
-13.43
-8.12
-0.7
7.94
16.68
24.43
30.33
33.84
34.77
33.25
29.69
24.7
19.01
13.27
7.99
3.46
-0.21
-2.99
-4.91
-6.08
-6.71
-7.1
-7.55
-8.27
-9.24
-10.34
-11.34
-12.07
-12.52
-12.82
-13.15
-13.77
-14.9
-16.65
-18.89
-21.28
-23.18
-23.82
-22.54
-19.03
-13.44
-6.42
1.09
8.18
14.12
18.48
21.17
22.26
21.92
20.37
17.83
14.59
11.08
7.75
5
3.09
2.02
1.59
1.44
1.25
0.79
0.01
-1
-2.06
-3.04
-3.88
-4.67
-5.56
-6.72
-8.23
-10.06
-12.09
-14.14
-15.97
-17.36
-17.96
-17.42
-15.42
-11.79
-6.71
-0.66
5.61
11.28
15.68
18.46
19.56
19.16
17.55
15.08
12.09
8.92
5.92
3.38
1.52
0.42
-0.07
-0.24
-0.46
-1.1
-2.27
-3.92
-5.73
-7.37
-8.61
-9.44
-10.06
-10.8
-11.95
-13.72
-16.17
-19.15
-22.32
-25.08
-26.69
-26.45
-23.95
-19.23
-12.84
-5.66
1.33
7.36
11.95
14.95
16.43
16.54
15.51
13.6
11.12
8.44
5.9
3.78
2.28
1.51
1.41
1.8
2.39
2.86
2.99
2.73
2.15
1.38
0.46
-0.69
-2.24
-4.29
-6.85
-9.8
-12.9
-15.95
-18.69
-20.81
-21.85
-21.33
-18.89
-14.58
-8.88
-2.71
2.95
7.34
10.09
11.24
11.04
9.79
7.71
5.03
2.04
-0.91
-3.43
-5.19
-6.05
-6.1
-5.56
-4.72
-3.82
-3.01
-2.33
-1.78
-1.41
-1.34
-1.76
-2.94
-5.08
-8.24
-12.27
-16.82
-21.33
-25.12
-27.48
-27.81
-25.78
-21.47
-15.38
-8.28
-1.15
5.26
10.36
13.9
15.83
16.25
15.34
13.37
10.69
7.76
5.04
2.84
1.32
0.45
0.01
-0.2
-0.36
-0.55
-0.76
-0.95
-1.11
-1.28
-1.63
-2.33
-3.63
-5.76
-8.8
-12.69
-17
-21
-23.76
-24.45
-22.56
-18.18
-11.9
-4.67
2.6
9.18
14.65
18.82
21.57
22.78
22.36
20.41
17.26
13.56
10.04
7.37
5.9
5.56
5.91
6.37
6.46
6
5.09
3.97
2.89
1.88
0.77
-0.78
-3.06
-6.26
-10.35
-15.04
-19.78
-23.87
-26.54
-27.19
-25.52
-21.62
-15.91
-9.07
-1.84
5.11
11.18
15.92
19.02
20.31
19.85
17.94
15.06
11.81
8.72
6.2
4.45
3.45
3
2.79
2.5
1.93
1.02
-0.07
-1.19
-2.21
-3.13
-4.18
-5.68
-7.95
-11.11
-14.94
-18.86
-22.04
-23.66
-23.11
-20.25
-15.41
-9.25
-2.57
3.94
9.81
14.78
18.66
21.25
22.3
21.64
19.35
15.86
11.91
8.3
5.64
4.18
3.82
4.16
4.75
5.17
5.1
4.3
2.67
0.18
-3.01
-6.6
-10.2
-13.54
-16.52
-19.27
-21.95
-24.54
-26.73
-27.88
-27.25
-24.33
-19.13
-12.21
-4.53
2.87
9.25
14.25
17.85
20.12
21.08
20.73
19.15
16.69
13.99
11.7
10.19
9.32
8.55
7.19
4.82
1.54
-2.12
-5.51
-8.1
-9.75
-10.63
-11.08
-11.51
-12.26
-13.64
-15.86
-18.89
-22.32
-25.38
-27.06
-26.53
-23.39
-17.86
-10.66
-2.79
4.79
11.33
16.36
19.6
20.95
20.48
18.46
15.43
12.03
8.94
6.64
5.29
4.72
4.55
4.36
3.89
3.12
2.16
1.19
0.31
-0.52
-1.45
-2.67
-4.39
-6.8
-10.09
-14.23
-18.93
-23.45
-26.73
-27.69
-25.62
-20.49
-13.04
-4.42
4.14
11.75
17.99
22.78
26.14
28.01
28.22
26.74
23.8
19.98
16.1
12.92
10.87
9.94
9.65
9.35
8.53
7.03
5.02
2.91
1.04
-0.46
-1.75
-3.11
-4.83
-7.09
-9.97
-13.47
-17.5
-21.76
-25.59
-28.05
-28.15
-25.24
-19.33
-11.16
-1.92
7.13
14.97
21.08
25.34
27.8
28.56
27.7
25.38
21.93
17.96
14.17
11.28
9.64
9.27
9.82
10.72
11.5
11.86
11.7
11.09
10.11
8.7
6.81
4.35
1.26
-2.45
-6.74
-11.57
-16.77
-21.9
-26.27
-28.98
-29.14
-26.25
-20.42
-12.39
-3.36
5.35
12.7
18.12
21.45
22.85
22.58
20.97
18.37
15.22
12.04
9.34
7.51
6.66
6.58
6.84
7.01
6.74
5.94
4.74
3.37
2.01
0.72
-0.62
-2.18
-4.12
-6.53
-9.43
-12.78
-16.47
-20.16
-23.31
-25.15
-24.95
-22.2
-16.94
-9.75
-1.61
6.41
13.46
18.98
22.76
24.75
24.99
23.65
21.07
17.76
14.36
11.45
9.36
8.15
7.58
7.33
7.09
6.64
5.84
4.69
3.24
1.67
0.1
-1.34
-2.76
-4.38
-6.51
-9.37
-12.99
-17.13
-21.26
-24.73
-26.81
-26.88
-24.51
-19.61
-12.56
-4.12
4.66
12.75
19.38
24.12
26.91
27.85
27.15
25.02
21.82
18
14.19
11.09
9.22
8.81
9.64
11.09
12.32
12.6
11.49
9.07
5.8
2.41
-0.52
-2.72
-4.29
-5.6
-7.07
-9.01
-11.61
-14.84
-18.52
-22.25
-25.35
-26.94
-26.2
-22.59
-16.21
-7.83
1.34
9.99
17.1
22.21
25.33
26.75
26.82
25.87
24.12
21.79
19.19
16.61
14.36
12.64
11.49
10.76
10.21
9.51
8.46
6.99
5.17
3.21
1.25
-0.62
-2.45
-4.36
-6.52
-9.01
-11.87
-15.12
-18.73
-22.5
-26.05
-28.7
-29.65
-28.15
-23.89
-17.1
-8.62
0.39
8.78
15.68
20.72
23.85
25.2
24.97
23.31
20.45
16.78
12.86
9.28
6.51
4.73
3.82
3.45
3.27
3
2.51
1.79
0.85
-0.26
-1.54
-2.96
-4.47
-6.05
-7.71
-9.49
-11.54
-14.05
-17.18
-20.83
-24.62
-27.8
-29.43
-28.65
-25.03
-18.74
-10.53
-1.54
7.09
14.46
20.07
23.81
25.77
26.18
25.27
23.29
20.54
17.31
13.95
10.8
8.14
6.11
4.7
3.72
2.93
2.07
1
-0.3
-1.78
-3.4
-5.1
-6.86
-8.65
-10.5
-12.49
-14.75
-17.47
-20.74
-24.36
-27.79
-30.17
-30.59
-28.48
-23.78
-17.08
-9.34
-1.61
5.34
11.07
15.48
18.54
20.2
20.39
19.09
16.54
13.24
9.9
7.14
5.34
4.48
4.21
4.08
3.68
2.85
1.62
0.22
-1.17
-2.4
-3.47
-4.44
-5.43
-6.59
-8.04
-9.91
-12.3
-15.25
-18.65
-22.07
-24.87
-26.18
-25.24
-21.64
-15.54
-7.69
0.84
8.95
15.85
21.11
24.65
26.49
26.69
25.35
22.66
19.04
15.1
11.5
8.75
7.08
6.32
6.1
5.91
5.38
4.37
2.98
1.49
0.13
-1
-1.99
-3.04
-4.41
-6.29
-8.81
-12.04
-15.92
-20.26
-24.52
-27.88
-29.37
-28.13
-23.82
-16.78
-7.99
1.26
9.78
16.7
21.65
24.58
25.65
25.06
23.07
20.01
16.39
12.73
9.52
7.1
5.57
4.79
4.47
4.29
3.9
3.15
2.03
0.67
-0.74
-2.06
-3.33
-4.75
-6.56
-8.97
-12.12
-15.99
-20.43
-25
-29.06
-31.77
-32.3
-30.08
-25.12
-18
-9.73
-1.43
6.05
12.18
16.8
19.89
21.47
21.54
20.22
17.79
14.71
11.58
8.83
6.76
5.39
4.52
3.85
3.04
1.89
0.36
-1.45
-3.32
-5.03
-6.47
-7.72
-8.94
-10.42
-12.38
-14.97
-18.17
-21.64
-24.81
-26.87
-27.04
-24.78
-20.1
-13.48
-5.84
1.78
8.54
13.93
17.72
19.93
20.59
19.78
17.72
14.77
11.43
8.27
5.71
3.92
2.8
2.08
1.38
0.48
-0.7
-2.07
-3.41
-4.52
-5.35
-6.02
-6.82
-8.13
-10.26
-13.38
-17.35
-21.64
-25.43
-27.81
-28
-25.68
-21.01
-14.6
-7.3
0.07
6.84
12.58
16.97
19.84
21.09
20.85
19.41
17.26
14.87
12.63
10.76
9.26
8.04
6.96
5.9
4.75
3.48
2.11
0.77
-0.43
-1.52
-2.6
-3.92
-5.77
-8.35
-11.77
-15.89
-20.34
-24.48
-27.5
-28.57
-27.13
-23.08
-16.92
-9.55
-2.04
4.77
10.4
14.68
17.63
19.2
19.28
17.9
15.26
11.9
8.56
5.92
4.36
3.83
3.88
3.96
3.65
2.82
1.59
0.19
-1.22
-2.63
-4.16
-6.01
-8.37
-11.4
-15.14
-19.45
-23.9
-27.76
-30.13
-30.2
-27.52
-22.24
-15.05
-6.96
1.02
8.08
13.72
17.72
20.01
20.63
19.71
17.51
14.46
11.11
8.03
5.7
4.35
3.94
4.09
4.31
4.17
3.46
2.28
0.86
-0.59
-2.04
-3.7
-5.83
-8.66
-12.22
-16.33
-20.63
-24.58
-27.54
-28.82
-27.82
-24.23
-18.25
-10.53
-2.1
6.01
12.93
18.12
21.39
22.77
22.43
20.69
17.97
14.8
11.74
9.23
7.51
6.57
6.15
5.87
5.36
4.42
3.11
1.7
0.55
-0.12
-0.42
-0.77
-1.8
-4.08
-7.87
-13.01
-18.91
-24.64
-29.12
-31.39
-30.85
-27.45
-21.65
-14.28
-6.3
1.48
8.5
14.39
18.88
21.72
22.77
22.11
20.21
17.79
15.64
14.32
13.96
14.23
14.58
14.51
13.74
12.34
10.55
8.69
6.98
5.37
3.68
1.64
-1.01
-4.42
-8.64
-13.52
-18.66
-23.34
-26.65
-27.63
-25.66
-20.7
-13.37
-4.73
3.97
11.81
18.21
22.95
26.01
27.34
26.88
24.74
21.29
17.16
13.15
9.89
7.69
6.47
5.82
5.24
4.31
2.87
1.02
-0.98
-2.83
-4.28
-5.29
-6
-6.76
-8.02
-10.18
-13.47
-17.67
-22.11
-25.82
-27.64
-26.7
-22.65
-15.84
-7.19
2.07
10.82
18.23
23.81
27.42
29.1
29.03
27.49
24.9
21.77
18.66
16
14.04
12.76
11.94
11.24
10.33
8.98
7.13
4.87
2.47
0.19
-1.85
-3.77
-5.87
-8.51
-11.93
-16.16
-20.91
-25.64
-29.6
-31.98
-32.07
-29.43
-24.1
-16.6
-7.9
0.88
8.75
15.07
19.6
22.36
23.51
23.21
21.69
19.29
16.49
13.83
11.72
10.34
9.61
9.21
8.73
7.89
6.58
4.88
3.02
1.22
-0.4
-1.91
-3.46
-5.32
-7.68
-10.7
-14.38
-18.52
-22.63
-25.95
-27.51
-26.48
-22.39
-15.47
-6.63
2.84
11.69
19.03
24.51
28.07
29.8
29.78
28.1
24.99
21.02
16.89
13.35
10.89
9.56
8.98
8.58
7.78
6.3
4.18
1.73
-0.63
-2.59
-4.04
-5.1
-6.08
-7.31
-9.11
-11.62
-14.82
-18.43
-21.91
-24.52
-25.47
-24.12
-20.23
-14.03
-6.25
2.12
10.1
16.94
22.21
25.73
27.53
27.69
26.37
23.92
20.77
17.51
14.66
12.55
11.18
10.32
9.51
8.36
6.74
4.73
2.6
0.7
-0.83
-2.03
-3.12
-4.46
-6.3
-8.79
-11.95
-15.62
-19.46
-22.91
-25.23
-25.65
-23.67
-19.16
-12.55
-4.69
3.43
10.88
17.01
21.43
24.02
24.72
23.74
21.36
18.05
14.42
11.03
8.28
6.41
5.43
5.13
5.2
5.31
5.16
4.59
3.57
2.26
0.82
-0.63
-2.12
-3.78
-5.85
-8.49
-11.78
-15.66
-19.85
-23.82
-26.84
-28.12
-27.02
-23.34
-17.4
-9.98
-2.12
5.17
11.21
15.64
18.4
19.55
19.2
17.51
14.77
11.48
8.22
5.64
4.12
3.66
3.91
4.28
4.24
3.53
2.29
0.87
-0.33
-1.15
-1.69
-2.25
-3.23
-4.89
-7.34
-10.5
-14.19
-18.04
-21.5
-23.85
-24.29
-22.24
-17.57
-10.75
-2.75
5.17
11.96
16.95
19.95
21.1
20.73
19.16
16.69
13.65
10.4
7.36
4.88
3.14
2.05
1.35
0.69
-0.23
-1.54
-3.17
-4.93
-6.61
-8.11
-9.42
-10.62
-11.85
-13.28
-15.02
-17.15
-19.52
-21.72
-23.15
-23.08
-20.98
-16.67
-10.46
-3.08
4.52
11.45
17.04
20.91
22.97
23.26
21.97
19.38
