181.35
154.85
111.49
57.3
0.03
-53.69
-100.75
-142.08
-181.49
-223.36
-270.16
-320.11
-368.23
-407.67
-432.17
-438.47
-427.49
-403.87
-374.03
-343.56
-314.89
-287.95
-261.29
-233.8
-205.56
-177.47
-150.31
-123.85
-97.08
-68.72
-38.83
-9.12
17.57
38.27
51.3
56.9
57.1
54.85
53.04
53.39
56.08
60.18
64.34
67.63
69.8
71.27
72.62
74.29
76.04
77.28
77.4
76.29
74.54
73.37
74.17
77.98
85.16
95.38
107.92
122.08
137.45
154.09
172.45
193.31
217.47
245.34
276.22
307.74
335.92
355.84
363.19
355.88
334.92
304.13
268.76
233.67
201.95
174.62
151.2
130.83
112.96
97.49
84.45
73.54
64.03
54.95
45.66
36.07
26.75
18.59
12.28
7.98
5.14
2.82
0.04
-3.74
-8.42
-13.34
-17.64
-20.71
-22.44
-23.21
-23.69
-24.47
-25.82
-27.65
-29.6
-31.24
-32.28
-32.53
-31.97
-30.69
-28.87
-26.72
-24.47
-22.38
-20.56
-19.05
-17.75
-16.53
-15.27
-13.95
-12.6
-11.26
-10.06
-9.1
-8.47
-8.22
-8.28
-8.53
-8.8
-8.96
-8.88
-8.54
-7.98
-7.28
-6.6
-6.15
-6.05
-6.39
-7.08
-7.95
-8.77
-9.47
-10.03
-10.57
-11.14
-11.65
-11.95
-11.83
-11.21
-10.18
-8.96
-7.82
-6.94
-6.3
-5.78
-5.23
-4.57
-3.87
-3.29
-2.96
-2.9
-3.01
-3.11
-3.07
-2.82
-2.43
-1.93
-1.33
-0.54
0.52
1.84
3.19
4.27
4.78
4.55
3.69
2.42
1.05
-0.26
-1.47
-2.72
-4.15
-5.85
-7.82
-9.96
-12.19
-14.44
-16.67
-18.87
-20.98
-22.95
-24.68
-26.14
-27.34
-28.38
-29.5
-30.94
-32.87
-35.39
-38.57
-42.61
-47.96
-55.26
-65.03
-77.35
-91.6
-106.57
-120.86
-133.34
-143.24
-149.92
-152.53
-149.83
-140.7
-124.81
-103.15
-77.76
-50.83
-23.57
4.08
32.93
63.46
94.95
125.42
152.46
174.21
189.91
199.66
203.78
202.34
195.28
182.94
166.64
148.68
131.68
117.68
107.37
99.88
93.38
85.91
76.25
64.52
52.08
40.79
32.1
26.28
22.28
18.39
13.26
6.75
0.13
-4.58
-5.51
-1.82
6.14
17.02
28.82
39.13
45.07
43.71
33.02
13.09
-13.13
-40.2
-62.07
-74.34
-75.96
-69.3
-58.7
-48.33
-40.61
-36.13
-34.54
-35.75
-40.35
-49.24
-62.67
-79.68
-98.16
-115.58
-130.02
-140.71
-148.06
-153.33
-157.94
-162.9
-168.43
-174.13
-179.31
-183.43
-186.4
-188.49
-189.94
-190.5
-189.35
-185.44
-178.12
-167.77
-155.84
-144.35
-134.99
-128.25
-123.11
-117.4
-108.57
-94.65
-74.86
-49.73
-20.73
10.24
41.6
72.48
102.69
132.72
163.4
195.4
228.55
261.26
290.74
313.76
327.87
332.3
328.05
316.99
300.74
279.87
254.09
223.29
188.54
152.52
118.78
90.45
69.14
54.5
44.83
37.98
32.2
26.32
19.56
11.52
2.13
-8.3
-18.88
-28.33
-35.4
-39.24
-39.68
-37.08
-32.05
-25.26
-17.35
-9.14
-1.65
4.05
7.34
8.45
8.54
9.43
12.8
19.44
28.86
39.32
48.36
53.67
54.14
50.51
45.42
42.37
44.18
51.46
62.04
71.72
76.02
72
59.07
38.65
12.91
-16.26
-47.63
-80.03
-111.68
-140
-162.23
-176.54
-182.77
-182.51
-178.3
-172.51
-166.62
-160.96
-155.15
-148.67
-141.25
-133
-124.19
-115.1
-105.86
-96.55
-87.22
-78.1
-69.46
-61.61
-54.78
-49.03
-44.24
-40.15
-36.47
-32.91
-29.32
-25.74
-22.27
-19.04
-16.04
-13.14
-10.15
-7
-3.88
-1.2
0.53
0.96
0.03
-1.99
-4.64
-7.54
-10.48
-13.41
-16.27
-18.84
-20.67
-21.23
-20.17
-17.48
-13.56
-9.07
-4.7
-0.95
2.03
4.31
6.08
7.5
8.64
9.43
9.72
9.42
8.53
7.23
5.78
4.46
3.42
2.63
1.93
1.15
0.19
-0.9
-2.03
-3.23
-4.66
-6.66
-9.49
-13.24
-17.57
-21.86
-25.37
-27.39
-27.47
-25.48
-21.6
-16.24
-10.01
-3.47
2.79
8.43
13.2
17.04
19.92
21.81
22.75
22.83
22.36
21.66
21.06
20.72
20.58
20.4
19.89
18.86
17.26
15.23
12.93
10.49
7.98
5.37
2.68
-0.04
-2.77
-5.46
-8.2
-11.09
-14.23
-17.54
-20.67
-23.08
-24.09
-23.2
-20.21
-15.35
-9.14
-2.25
4.73
11.39
17.5
22.97
27.68
31.45
34.04
35.32
35.36
34.5
33.22
32.03
31.25
31.01
31.24
31.72
32.25
32.59
32.44
31.56
29.83
27.29
24.19
20.92
17.78
14.89
12.18
9.46
6.6
3.58
0.47
-2.6
-5.43
-7.73
-9.08
-9.04
-7.35
-4.1
0.18
4.59
8.27
10.62
11.56
11.43
10.72
9.86
9.08
8.46
8.08
8.19
9.09
11.01
13.9
17.37
20.76
23.43
24.96
25.31
24.78
23.73
22.54
21.39
20.3
19.21
18.04
16.71
15.2
13.42
11.17
8.3
4.76
0.76
-3.13
-6.09
-7.33
-6.33
-3.18
1.46
6.62
11.31
14.93
17.36
18.88
19.9
20.7
21.31
21.57
21.39
20.79
20.01
19.32
18.87
18.58
18.19
17.45
16.24
14.73
13.16
11.77
10.59
9.42
7.95
5.98
3.46
0.55
-2.56
-5.77
-9.11
-12.61
-16.24
-19.73
-22.58
-24.24
-24.29
-22.64
-19.53
-15.32
-10.33
-4.71
1.6
8.62
16.17
23.74
30.65
36.16
39.81
41.46
41.29
39.69
37.11
34.03
30.97
28.46
26.93
26.62
27.43
28.89
30.28
30.84
30.01
27.63
23.95
19.58
15.2
11.36
8.28
5.9
3.91
2
-0.01
-2.09
-4.04
-5.47
-6
-5.31
-3.23
0.11
4.38
9.13
14.02
18.97
24.22
30.16
36.96
44.49
52.15
59.21
65.06
69.64
73.51
77.73
83.53
91.76
102.44
114.7
126.95
137.59
145.66
151.25
155.57
160.51
168
179.41
194.96
213.31
231.39
244.67
248.01
237.15
209.98
167.5
113.41
52.93
-8.91
-68.73
-125.38
-179.48
-231.94
-282.31
-327.77
-363.37
-383.59
-384.73
-366.66
-333.28
-291.15
-246.99
-205.69
-169.52
-138.88
-113.84
-94.98
-83.18
-78.43
-79.07
-81.98
-84.02
-83.51
-80.88
-77.93
-76.45
-77.09
-79.17
-81.42
-82.81
-82.86
-81.43
-78.09
-71.98
-62.2
-48.55
-31.99
-14.54
1.44
13.82
21.19
22.72
18.19
8.14
-5.77
-20.65
-32.87
-38.97
-36.89
-26.48
-9.42
11.55
33.66
54.76
73.54
89.26
101.38
109.31
112.62
111.32
106.17
98.77
91.11
84.95
81.05
78.89
76.97
73.61
67.9
60.06
51.27
42.78
35.22
28.25
20.96
12.63
3.37
-5.83
-13.52
-18.45
-20.1
-18.78
-15.36
-10.94
-6.52
-2.89
-0.53
0.43
0.4
0.24
1.09
3.86
8.83
15.38
22.21
27.82
31.08
31.76
30.5
28.46
26.68
25.56
24.68
23.14
20.03
14.9
7.93
-0.2
-8.71
-17.01
-24.77
-31.74
-37.54
-41.58
-43.22
-42.13
-38.59
-33.42
-27.7
-22.27
-17.48
-13.11
-8.64
-3.7
1.76
7.3
12.35
16.37
19.15
20.76
21.38
21.11
19.75
16.97
12.46
6.2
-1.46
-9.97
-18.78
-27.49
-35.78
-43.22
-49.06
-52.38
-52.46
-49.17
-43.19
-35.83
-28.38
-21.73
-16.13
-11.32
-7.07
-3.33
-0.34
1.75
3.07
4.06
5.29
7.11
9.47
12.09
14.59
16.75
18.55
20.02
21.06
21.45
20.97
19.65
17.79
15.93
14.53
13.76
13.45
13.19
12.61
11.56
10.2
8.85
7.79
7.17
6.9
6.78
6.51
5.86
4.62
2.73
0.18
-2.9
-6.32
-9.85
-13.26
-16.26
-18.51
-19.67
-19.57
-18.24
-16.07
-13.62
-11.46
-9.92
-8.99
-8.32
-7.54
-6.43
-5.07
-3.69
-2.51
-1.49
-0.42
1.07
3.11
5.54
7.8
9.33
9.71
9.01
7.61
6.04
4.61
3.33
1.98
0.36
-1.38
-2.83
-3.52
-3.36
-2.72
-2.35
-2.91
-4.51
-6.64
-8.43
-9.2
-8.77
-7.45
-5.71
-3.73
-1.31
1.91
6.14
11.12
16.2
20.63
23.85
25.68
26.29
26.06
25.5
25.15
25.5
26.82
29
31.5
33.56
34.52
34.23
33.06
31.69
30.73
30.42
30.67
31.18
31.76
32.34
32.86
33.1
32.67
31.28
29.07
26.79
25.62
26.62
30.24
36.05
42.9
49.32
54.01
56.12
55.33
51.84
46.42
40.31
34.99
31.65
30.72
31.52
32.42
31.48
27.01
17.99
4.01
-15.04
-39.14
-68
-100.58
-134.72
-167.14
-194.04
-212.14
-219.56
-216.13
-203.15
-182.79
-157.55
-130.08
-103.16
-79.68
-62.19
-52.21
-49.55
-52.1
-56.48
-59.24
-58.08
-52.54
-43.66
-33.16
-22.34
-11.69
-1.12
9.39
19.3
27.64
33.55
36.98
38.84
40.64
43.6
48.02
53.2
57.82
60.78
61.69
60.91
59.2
57.35
55.85
54.85
54.35
54.16
54.02
53.64
52.79
51.61
50.61
50.53
51.97
54.98
58.86
62.39
64.41
64.37
62.62
60.2
58.23
57.44
57.85
58.83
59.42
58.5
54.97
47.94
36.9
21.99
4.16
-14.99
-33.58
-50.12
-63.78
-74.57
-83
-89.68
-95.02
-99.11
-101.72
-102.42
-100.75
-96.36
-89.21
-79.73
-68.79
-57.58
-47.28
-38.67
-32.04
-27.23
-23.81
-21.4
-19.88
-19.39
-20.18
-22.32
-25.47
-28.8
-31.24
-31.93
-30.6
-27.68
-24.05
-20.45
-17.17
-13.94
-10.17
-5.5
-0.18
5
8.94
10.9
10.74
8.94
6.37
3.81
1.66
-0.21
-2.2
-4.71
-7.86
-11.42
-15.03
-18.33
-21
-22.88
-24.05
-24.85
-25.8
-27.52
-30.48
-35.04
-40.89
-46.84
-51.38
-53.32
-52.56
-50.21
-48.22
-48.63
-53.29
-62.67
-75.48
-89.43
-101.92
-110.76
-114.7
-113.09
-105.85
-93.89
-77.75
-56.97
-30.38
3.61
46.18
96.99
153.93
212.85
267.74
308.32
325.73
316.05
283.33
238.39
193.5
157.22
136.38
127.26
124.59
124.91
126.45
128.64
131.44
132.58
132.31
132.4
134.33
139.18
146.75
155.34
163.01
168.73
172.8
176.89
182.44
189.21
196.07
201.31
203.17
200.28
191.55
175.8
152.35
121.15
83.13
41.09
-0.92
-38.79
-69.68
-92.81
-109.68
-122.97
-135.67
-150.03
-166.66
-184.82
-203.24
-220.9
-237.66
-254.21
-271.42
-289.78
-308.81
-326.66
-340.26
-346.07
-341.11
-324.02
-295.81
-259.97
-221.55
-185.85
-156.75
-135.91
-122.67
-114.88
-109.92
-105.57
-100.32
-93.33
-84.37
-73.8
-62.57
-52.17
-44.14
-39.56
-38.48
-39.76
-41.39
-41.1
-37.14
-28.83
-16.87
-2.99
10.53
21.74
29.63
34.49
37.63
40.78
45.33
51.82
59.92
68.88
78.11
87.52
97.38
107.82
118.3
127.36
132.91
132.9
126.03
112.12
92.22
68.31
42.86
18.42
-2.7
-18.87
-29.27
-34.13
-34.57
-32.28
-29.03
-26.12
-24.06
-22.57
-20.87
-18.12
-13.82
-7.99
-1.07
6.35
13.68
20.37
25.84
29.36
30.09
27.43
21.36
12.63
2.56
-7.45
-16.41
-24.03
-30.47
-35.99
-40.67
-44.28
-46.6
-47.56
-47.41
-46.44
-44.83
-42.43
-38.97
-34.22
-28.23
-21.37
-14.26
-7.51
-1.65
2.96
6.12
7.76
8.03
7.28
6.02
4.78
3.98
3.8
4.25
5.23
6.72
8.81
11.65
15.22
19.24
23.09
26.04
27.43
26.94
24.6
20.77
16.03
11
6.28
2.31
-0.74
-3.05
-5.11
-7.6
-11.04
-15.52
-20.64
-25.49
-29.16
-30.98
-30.69
-28.49
-24.71
-19.68
-13.62
-6.68
0.98
9.01
16.9
24.01
29.72
33.64
35.65
35.92
34.81
32.77
30.17
27.29
24.26
21.13
17.94
14.71
11.44
8.09
4.62
0.99
-2.79
-6.6
-10.24
-13.42
-15.86
-17.36
-17.8
-17.21
-15.79
-13.83
-11.67
-9.57
-7.61
-5.64
-3.41
-0.67
2.62
6.21
9.65
12.46
14.34
15.32
15.64
15.67
15.67
15.66
15.47
14.91
13.93
12.72
11.62
11.01
11.1
11.9
13.22
14.87
16.65
18.46
20.18
21.66
22.74
23.23
22.98
21.96
20.2
17.78
14.78
11.26
7.37
3.36
-0.41
-3.55
-5.75
-6.91
-7.06
-6.43
-5.31
-4.02
-2.83
-1.91
-1.26
-0.78
-0.24
0.57
1.72
3.16
4.71
6.18
7.51
8.74
9.99
11.27
12.49
13.39
13.76
13.51
12.77
11.73
10.6
9.43
8.15
6.65
4.88
2.86
0.76
-1.27
-3.09
-4.63
-5.9
-6.9
-7.58
-7.9
-7.77
-7.06
-5.71
-3.76
-1.38
1.1
3.27
4.74
5.26
4.81
3.49
1.5
-0.97
-3.75
-6.68
-9.49
-11.87
-13.5
-14.17
-13.8
-12.5
-10.48
-7.96
-5.19
-2.37
0.24
2.42
4.02
5.02
5.49
5.57
5.35
4.85
4.07
3.04
1.87
0.74
-0.1
-0.46
-0.28
0.35
1.24
2.18
2.97
3.44
3.5
3.08
2.21
0.97
-0.46
-1.85
-2.96
-3.59
-3.62
-3.03
-1.91
-0.37
1.43
3.4
5.45
7.53
9.53
11.34
12.87
14.06
14.88
15.33
15.39
15
14.08
12.62
10.72
8.62
6.66
5.2
4.47
4.5
5.12
6.02
6.87
7.45
7.71
7.77
7.83
8.09
8.57
9.17
9.72
10.11
10.46
11.05
12.19
14.02
16.36
18.72
20.54
21.42
21.35
20.65
19.79
19.09
18.59
18.03
17.06
15.33
12.65
8.98
4.43
-0.79
-6.31
-11.64
-16.25
-19.63
-21.49
-21.82
-20.93
-19.22
-17.12
-14.9
-12.68
-10.49
-8.35
-6.37
-4.75
-3.61
-2.95
-2.61
-2.32
-1.87
-1.21
-0.42
0.29
0.76
0.92
0.79
0.39
-0.24
-1.16
-2.43
-4.06
-6
-8.12
-10.19
-12.04
-13.56
-14.8
-15.86
-16.95
-18.18
-19.48
-20.53
-20.84
-19.93
-17.5
-13.63
-8.75
-3.55
1.3
5.32
8.32
10.36
11.58
12.09
11.95
11.26
10.26
9.34
8.86
9.04
9.78
10.71
11.46
11.74
11.46
10.67
9.35
7.43
4.82
1.55
-2.19
-6.05
-9.78
-13.28
-16.62
-19.96
-23.33
-26.6
-29.42
-31.37
-32.06
-31.25
-28.83
-24.89
-19.69
-13.61
-7.16
-0.83
4.97
9.94
13.89
16.75
18.6
19.64
20.22
20.75
21.51
22.57
23.73
24.63
24.91
24.4
23.16
21.45
19.49
17.36
14.98
12.24
9.17
5.98
3.01
0.53
-1.4
-3.01
-4.68
-6.72
-9.24
-11.96
-14.44
-16.17
-16.82
-16.28
-14.68
-12.24
-9.2
-5.79
-2.2
1.32
4.48
7
8.73
9.67
10.06
10.24
10.58
11.34
12.57
14.11
15.65
16.85
17.4
17.18
16.16
14.42
12.12
9.44
6.61
3.83
1.31
-0.83
-2.61
-4.12
-5.52
-6.95
-8.5
-10.21
-12.07
-13.97
-15.73
-17.12
-17.9
-17.93
-17.18
-15.8
-13.95
-11.81
-9.53
-7.24
-5.12
-3.27
-1.7
-0.28
1.25
3.08
5.22
7.46
9.43
10.78
11.29
10.96
9.92
8.39
6.61
4.79
3.09
1.67
0.57
-0.21
-0.77
-1.17
-1.47
-1.71
-1.95
-2.35
-3.06
-4.17
-5.61
-7.12
-8.27
-8.67
-8
-6.2
-3.39
0.09
3.79
7.25
10.09
12.12
13.35
13.95
14.17
14.2
14.16
14.06
13.94
13.92
14.16
14.76
15.66
16.6
17.16
16.98
15.88
13.99
11.63
9.15
6.77
4.56
2.46
0.42
-1.57
-3.4
-5
-6.37
-7.58
-8.77
-9.99
-11.2
-12.14
-12.46
-11.77
-9.84
-6.78
-2.96
1.05
4.69
7.59
9.61
10.7
10.84
9.95
7.94
4.86
1.03
-3.03
-6.79
-9.88
-12.2
-13.9
-15.22
-16.33
-17.33
-18.23
-19.08
-19.94
-20.88
-21.9
-22.92
-23.83
-24.55
-25.07
-25.52
-26.04
-26.74
-27.61
-28.46
-29.01
-28.9
-27.89
-25.91
-23.08
-19.62
-15.76
-11.68
-7.5
-3.37
0.51
3.89
6.47
8.13
8.93
9.11
9
8.84
8.73
8.66
8.56
8.43
8.36
8.42
8.58
8.63
8.3
7.41
6.02
4.4
2.88
1.67
0.77
-0.03
-0.96
-2.15
-3.56
-5.06
-6.55
-7.99
-9.35
-10.47
-11.01
-10.53
-8.71
-5.48
-1.11
3.95
9.25
14.54
19.81
25.26
31.1
37.38
43.9
50.3
56.17
61.18
65.11
67.8
69.05
68.58
66.06
61.18
53.86
44.34
33.26
21.5
10
-0.5
-9.58
-17.21
-23.58
-29.01
-33.72
-37.81
-41.32
-44.18
-46.33
-47.69
-48.12
-47.42
-45.46
-42.22
-37.91
-33.01
-28.13
-23.95
-20.95
-19.33
-18.96
-19.44
-20.27
-20.96
-21.2
-20.84
-19.89
-18.42
-16.52
-14.32
-11.92
-9.46
-7.05
-4.84
-2.87
-1.22
-0.02
0.6
0.48
-0.44
-2.08
-4.21
-6.54
-8.84
-11
-13.04
-15.01
-16.88
-18.5
-19.66
-20.12
-19.75
-18.52
-16.46
-13.72
-10.49
-7.01
-3.62
-0.59
1.89
3.8
5.21
6.27
7.06
7.64
8.03
8.25
8.42
8.57
8.65
8.47
7.8
6.46
4.5
2.16
-0.24
-2.41
-4.2
-5.62
-6.74
-7.59
-8.22
-8.67
-9.07
-9.58
-10.35
-11.34
-12.37
-13.08
-13.15
-12.38
-10.72
-8.31
-5.36
-2.16
1.05
4.12
6.96
9.53
11.81
13.79
15.44
16.76
17.79
18.63
19.44
20.33
21.29
22.2
22.8
22.85
22.15
20.61
18.27
15.28
11.85
8.23
4.71
1.53
-1.11
-3.17
-4.77
-6.22
-7.86
-9.93
-12.36
-14.79
-16.62
-17.26
-16.44
-14.29
-11.23
-7.82
-4.53
-1.59
0.92
2.93
4.34
5.04
4.97
4.29
3.32
2.4
1.75
1.35
1.03
0.59
-0.08
-0.89
-1.59
-1.97
-1.9
-1.47
-0.93
-0.59
-0.69
-1.3
-2.35
-3.67
-5.11
-6.6
-8.15
-9.87
-11.82
-13.92
-15.94
-17.48
-18.13
-17.54
-15.63
-12.54
-8.66
-4.51
-0.57
2.77
5.32
6.98
7.83
8.01
7.78
7.37
7.02
6.85
6.91
7.14
7.54
8.13
8.98
10.02
11.08
11.88
12.17
11.87
11.14
10.23
9.38
8.66
7.96
7.13
6.02
4.59
2.87
0.92
-1.24
-3.52
-5.73
-7.57
-8.75
-9.09
-8.67
-7.79
-6.73
-5.71
-4.75
-3.75
-2.67
-1.58
-0.63
0.07
0.54
0.94
1.52
2.42
3.59
4.87
6.12
7.31
8.52
9.9
11.46
13.14
14.8
16.33
17.72
18.99
20.12
20.98
21.39
21.15
20.14
18.35
15.87
12.79
9.2
5.19
0.93
-3.27
-6.98
-9.74
-11.15
-11
-9.37
-6.57
-3.15
0.32
3.36
5.73
7.43
8.59
9.43
10.1
10.65
11.04
11.2
11.11
10.77
10.24
9.55
8.7
7.67
6.45
5.04
3.46
1.73
-0.14
-2.19
-4.42
-6.83
-9.24
-11.41
-13.08
-14.08
-14.48
-14.56
-14.63
-14.92
-15.36
-15.61
-15.19
-13.72
-11.08
-7.5
-3.46
0.51
3.99
6.73
8.72
10.01
10.73
11
10.9
10.53
10.08
9.81
9.96
10.69
11.89
13.25
14.27
14.56
13.94
12.56
10.8
9.04
7.58
6.44
5.47
4.43
3.06
1.18
-1.29
-4.36
-7.89
-11.64
-15.22
-18.18
-20.16
-20.99
-20.64
-19.32
-17.3
-14.95
-12.63
-10.67
-9.3
-8.61
-8.5
-8.7
-8.89
-8.79
-8.33
-7.56
-6.7
-5.96
-5.46
-5.25
-5.31
-5.63
-6.17
-6.89
-7.73
-8.61
-9.48
-10.31
-11.14
-12
-12.92
-13.84
-14.71
-15.48
-16.15
-16.84
-17.66
-18.75
-20.17
-21.83
-23.49
-24.8
-25.35
-24.94
-23.57
-21.52
-19.25
-17.21
-15.72
-14.79
-14.19
-13.41
-11.79
-8.7
-3.7
3.34
12.09
21.9
31.91
41.34
49.6
56.44
61.8
65.77
68.43
69.82
69.91
68.48
65.27
59.97
52.44
42.93
32.21
21.46
11.99
4.87
0.54
-1.17
-0.94
0.39
2.01
3.41
4.31
4.64
4.53
4.24
4.13
4.57
5.8
7.82
10.29
12.61
14.12
14.32
13.01
10.39
6.95
3.28
-0.14
-3
-5.23
-6.91
-8.21
-9.35
-10.51
-11.82
-13.3
-14.87
-16.38
-17.61
-18.44
-18.9
-19.12
-19.28
-19.54
-20
-20.67
-21.47
-22.33
-23.09
-23.55
-23.49
-22.7
-21.09
-18.68
-15.63
-12.19
-8.64
-5.24
-2.17
0.44
2.56
4.2
5.41
6.31
7.01
7.61
8.22
8.9
9.66
10.4
10.91
10.94
10.34
9.1
7.42
5.59
3.85
2.32
0.98
-0.27
-1.5
-2.65
-3.66
-4.51
-5.3
-6.24
-7.42
-8.83
-10.27
-11.44
-12.06
-12.01
-11.33
-10.16
-8.68
-6.95
-5.06
-3.11
-1.26
0.25
1.27
1.78
2.01
2.33
3.07
4.42
6.25
8.24
10.01
11.28
11.98
12.23
12.16
11.8
11.08
9.9
8.3
6.47
4.76
3.45
2.63
2.09
1.5
0.55
-0.84
-2.48
-4.05
-5.19
-5.7
-5.54
-4.78
-3.5
-1.74
0.5
3.19
6.2
9.26
12.07
14.3
15.64
15.94
15.21
13.63
11.52
9.21
6.92
4.74
2.65
0.58
-1.41
-3.17
-4.53
-5.4
-5.9
-6.34
-7.03
-8.12
-9.5
-10.86
-11.86
-12.45
-12.76
-13.13
-13.85
-15
-16.4
-17.67
-18.42
-18.34
-17.34
-15.47
-12.83
-9.6
-5.93
-2.05
1.71
4.99
7.44
8.94
9.64
9.96
10.42
11.47
13.27
15.6
18.02
19.97
20.95
20.62
18.84
15.62
11.16
5.8
-0
-5.73
-10.92
-15.25
-18.58
-20.96
-22.53
-23.46
-23.92
-24.06
-23.93
-23.59
-23
-22.04
-20.65
-18.76
-16.44
-13.86
-11.25
-8.82
-6.69
-4.85
-3.22
-1.67
-0.11
1.46
2.96
4.31
5.49
6.59
7.76
9.16
10.83
12.61
14.14
15.05
15.05
14.11
12.48
10.54
8.64
6.86
5.07
3.01
0.49
-2.4
-5.44
-8.32
-10.8
-12.81
-14.38
-15.45
-15.85
-15.32
-13.68
-11.04
-7.79
-4.52
-1.75
0.2
1.38
2.03
2.39
2.57
2.49
2.05
1.28
0.38
-0.32
-0.56
-0.31
0.21
0.71
0.95
0.88
0.63
0.32
-0.04
-0.51
-1.16
-1.96
-2.63
-2.85
-2.4
-1.28
0.33
2.2
4.27
6.74
9.92
14.09
19.18
24.79
30.14
34.4
36.8
36.83
34.33
29.45
22.68
14.68
6.21
-1.99
-9.39
-15.59
-20.44
-23.93
-26.1
-27.06
-26.95
-25.92
-24.17
-21.94
-19.47
-17.03
-14.89
-13.37
-12.74
-13.14
-14.55
-16.75
-19.39
-22.05
-24.29
-25.71
-25.98
-24.93
-22.6
-19.24
-15.22
-10.95
-6.68
-2.42
2
6.8
12.1
17.82
23.66
29.25
34.18
38.12
40.75
41.79
40.94
38.05
33.18
26.69
19.2
11.47
4.15
-2.27
-7.59
-11.82
-15.03
-17.27
-18.59
-19.06
-18.85
-18.34
-17.98
-18.14
-18.94
-20.15
-21.18
-21.33
-20.01
-16.94
-12.21
-6.27
0.23
6.65
12.39
17.01
20.19
21.8
21.91
20.72
18.62
16.08
13.54
11.38
9.75
8.67
8.04
7.69
7.44
7.12
6.63
5.87
4.87
3.73
2.63
1.76
1.21
0.87
0.51
-0.16
-1.31
-2.92
-4.85
-6.84
-8.63
-9.88
-10.27
-9.49
-7.38
-4.16
-0.34
3.35
6.24
8.06
8.95
9.35
9.67
10.1
10.58
10.99
11.27
11.5
11.87
12.46
13.17
13.73
13.87
13.51
12.72
11.7
10.61
9.55
8.45
7.3
6.14
5.1
4.34
3.94
3.8
3.75
3.47
2.7
1.28
-0.79
-3.32
-5.99
-8.4
-10.16
-10.94
-10.57
-9.1
-6.73
-3.79
-0.71
2.11
4.45
6.27
7.78
9.3
11.06
13.11
15.25
17.15
18.6
19.63
20.43
21.24
22.1
22.81
23.08
22.75
21.95
21.09
20.59
20.67
21.17
21.7
21.8
21.28
20.29
19.2
18.47
18.34
18.77
19.44
19.89
19.76
18.96
17.74
16.49
15.63
15.21
14.88
14.12
12.46
9.84
6.45
2.5
-2.04
-7.41
-13.71
-20.34
-25.96
-28.92
-28.05
-23.43
-16.35
-8.76
-2.17
3.01
7.35
11.78
16.65
21.43
24.98
26.22
24.76
21.07
16.16
11.07
6.51
2.66
-0.59
-3.39
-5.79
-7.68
-8.86
-9.23
-8.86
-8.05
-7.32
-7.12
-7.78
-9.28
-11.32
-13.48
-15.45
-17.18
-18.87
-20.79
-23.05
-25.47
-27.65
-29.03
-29.15
-27.8
-25.09
-21.4
-17.27
-13.31
-9.98
-7.5
-5.82
-4.79
-4.2
-3.99
-4.19
-4.89
-6.09
-7.64
-9.26
-10.6
-11.36
-11.38
-10.76
-9.88
-9.3
-9.63
-11.19
-13.88
-17.1
-20.1
-22.2
-23.26
-23.51
-23.35
-23.11
-22.86
-22.63
-22.62
-23.3
-25.07
-27.68
-29.83
-29.32
-23.85
-12.17
5.31
26.56
48.85
69.89
88.52
104.65
118.6
130.3
139.11
144.15
144.98
142.2
137.34
132.21
128.06
125.04
122.33
119.02
114.9
110.94
109.04
110.99
117.28
126.46
135.3
139.97
137.47
126.73
108.84
86.4
62.44
39.4
18.73
0.9
-14.42
-28.03
-41.01
-54.42
-68.94
-84.39
-99.72
-113.33
-123.77
-130.48
-134.08
-136.11
-138.24
-141.58
-146.25
-151.54
-156.43
-160.14
-162.27
-162.73
-161.43
-158.12
-152.5
-144.45
-134.32
-122.89
-111.25
-100.44
-91.12
-83.38
-76.88
-70.93
-64.87
-58.34
-51.32
-44.2
-37.61
-32.16
-28.18
-25.65
-24.21
-23.3
-22.45
-21.3
-19.67
-17.49
-14.72
-11.33
-7.39
-3.16
0.79
3.53
3.94
1.13
-5.13
-14.11
-24.16
-33.25
-39.62
-42.52
-42.37
-40.33
-37.57
-34.63
-31.23
-26.59
-20.18
-12.11
-3.22
5.37
12.81
18.85
23.85
28.33
32.58
36.4
39.21
40.31
39.25
35.99
30.85
24.32
16.86
8.87
0.71
-7.15
-14.05
-19.33
-22.43
-23.21
-22.01
-19.57
-16.76
-14.31
-12.58
-11.58
-11.01
-10.52
-9.76
-8.48
-6.52
-3.82
-0.43
3.48
7.58
11.47
14.74
17.11
18.57
19.32
19.75
20.21
20.91
21.82
22.75
23.48
23.91
24.11
24.28
24.62
25.21
25.96
26.69
27.15
27.2
26.81
26.04
25.04
23.95
22.91
22
21.29
20.79
20.49
20.32
20.18
19.88
19.16
17.81
15.77
13.2
10.52
8.27
6.88
6.45
6.72
7.17
7.21
6.49
4.88
2.56
-0.17
-3.03
-5.82
-8.37
-10.63
-12.53
-14
-15
-15.42
-15.09
-13.83
-11.53
-8.2
-4.23
-0.31
2.53
3.22
1.03
-4.03
-11.13
-18.72
-25.01
-28.56
-28.65
-25.42
-19.59
-12.04
-3.46
5.77
15.48
25.41
35.11
43.87
50.92
55.6
57.56
56.77
53.56
48.48
42.19
35.32
28.37
21.62
15.15
8.86
2.57
-3.92
-10.79
-18.18
-26.15
-34.62
-43.32
-51.74
-59.14
-64.74
-67.83
-67.99
-65.21
-59.9
-52.76
-44.69
-36.52
-28.9
-22.27
-16.86
-12.71
-9.72
-7.58
-5.85
-4
-1.61
1.5
5.18
9.04
12.76
16.28
19.92
24.23
29.67
36.24
43.39
50.12
55.24
57.77
57.14
53.33
46.72
38.04
28.11
17.8
7.83
-1.2
-8.89
-15.1
-19.86
-23.4
-26.03
-28.1
-29.91
-31.66
-33.43
-35.19
-36.8
-38.02
-38.52
-37.95
-36.03
-32.68
-28.17
-22.98
-17.64
-12.54
-7.76
-3.15
1.46
6.07
10.37
13.93
16.4
17.74
18.3
18.58
19.05
19.82
20.68
21.23
21.15
20.38
19.13
17.76
16.55
15.59
14.78
13.95
13.01
12.03
11.07
10.2
9.27
8.08
6.42
4.29
1.94
-0.18
-1.64
-2.19
-1.89
-0.99
0.16
1.31
2.3
3.14
3.82
4.36
4.67
4.66
4.27
3.54
2.64
1.75
0.97
0.26
-0.53
-1.6
-3.03
-4.69
-6.25
-7.39
-7.9
-7.84
-7.49
-7.21
-7.27
-7.83
-8.89
-10.41
-12.34
-14.49
-16.55
-18.1
-18.73
-18.17
-16.42
-13.74
-10.53
-7.12
-3.64
-0.11
3.6
7.54
11.66
15.76
19.48
22.46
24.39
25.11
24.64
23.14
20.87
18.05
14.86
11.41
7.8
4.26
1.06
-1.55
-3.45
-4.77
-5.85
-7.16
-9.07
-11.76
-15.2
-19.06
-22.93
-26.37
-28.96
-30.43
-30.62
-29.55
-27.41
-24.47
-21.01
-17.3
-13.54
-9.86
-6.38
-3.17
-0.31
2.23
4.49
6.57
8.47
10.1
11.24
11.56
10.84
8.98
6.21
2.96
-0.2
-2.84
-4.77
-6.12
-7.24
-8.51
-10.16
-12.19
-14.37
-16.38
-17.83
-18.4
-17.8
-15.93
-12.78
-8.57
-3.63
1.66
6.94
12.04
16.89
21.53
25.95
30.04
33.56
36.25
37.87
38.35
37.75
36.23
33.94
31
27.47
23.44
19.05
14.6
10.47
6.99
4.33
2.49
1.33
0.69
0.45
0.43
0.52
0.56
0.42
0.11
-0.21
-0.21
0.47
2.05
4.51
7.5
10.51
12.97
14.51
14.95
14.35
12.9
10.82
8.29
5.5
2.65
0.05
-1.98
-3.14
-3.38
-2.86
-1.95
-1.04
-0.33
0.17
0.64
1.33
2.35
3.74
5.35
7.05
8.69
10.05
10.92
11.12
10.67
9.88
9.32
9.64
11.27
14.23
18.12
22.35
26.37
29.9
32.93
35.57
37.88
39.85
41.42
42.59
43.46
44.1
44.36
43.85
41.96
38.18
32.34
24.74
16.08
7.21
-1.14
-8.57
-15
-20.53
-25.33
-29.5
-33.06
-36.02
-38.36
-40.01
-40.83
-40.61
-39.06
-36.04
-31.6
-26.05
-19.91
-13.82
-8.41
-4.19
-1.41
-0.08
0.02
-0.69
-1.71
-2.56
-2.87
-2.45
-1.34
0.2
1.73
2.73
2.78
1.66
-0.53
-3.42
-6.53
-9.45
-11.96
-14.05
-15.82
-17.36
-18.68
-19.76
-20.58
-21.14
-21.49
-21.61
-21.35
-20.49
-18.73
-15.96
-12.27
-8.03
-3.76
0.05
3.03
5.05
6.18
6.62
6.58
6.23
5.68
4.98
4.15
3.24
2.32
1.48
0.86
0.49
0.38
0.45
0.61
0.84
1.14
1.54
1.95
2.23
2.15
1.51
0.27
-1.5
-3.61
-5.8
-7.71
-8.98
-9.21
-8.13
-5.7
-2.21
1.76
5.62
8.88
11.35
13.01
13.98
14.33
14.11
13.48
12.72
12.19
12.12
12.54
13.05
13.13
12.41
10.87
8.97
7.33
6.49
6.5
6.94
7.07
6.26
4.37
1.86
-0.4
-1.54
-1.21
0.19
1.67
2.08
0.79
-2.02
-5.24
-7.4
-7.23
-4.2
1.3
8.16
14.62
18.3
16.39
6.31
-13.06
-40.14
-70.29
-96.75
-112.93
-115.06
-103.65
-83.26
-60.51
-41.47
-29.64
-25.51
-27.36
-32.59
-38.77
-43.97
-46.56
-45.15
-38.8
-27.43
-12.19
4.58
19.89
30.98
36.34
36.22
32.53
28.03
25.31
25.89
29.89
36.36
43.97
51.57
58.46
64.3
69.11
73.32
78.05
84.89
95.38
109.99
127.45
144.9
158.99
167.4
169.86
168.21
165.27
163.21
162.81
163.19
162.75
160.2
155.04
147.45
138.13
128.26
119.67
114.63
114.98
120.83
129.82
137.13
137.12
125.61
101.6
67.73
28.91
-9.69
-44.49
-74.1
-98.81
-119.48
-136.64
-150.42
-160.9
-168.46
-173.79
-177.62
-180.26
-181.72
-181.74
-180.22
-177.52
-174.31
-171.3
-168.87
-167.07
-165.55
-163.69
-160.69
-155.63
-147.74
-136.52
-122.02
-104.96
-86.54
-68.07
-50.43
-33.88
-18.14
-2.81
12.06
25.75
36.91
44.02
45.98
42.58
34.66
23.94
12.45
2.01
-6.12
-11.43
-14.08
-14.75
-14.43
-14.26
-15.17
-17.76
-22.03
-27.47
-33.24
-38.42
-42.3
-44.39
-44.42
-42.19
-37.6
-30.71
-21.81
-11.52
-0.65
9.99
19.84
28.57
36.04
42.1
46.51
48.88
48.9
46.48
41.91
35.76
28.81
21.76
15.16
9.38
4.63
1.12
-0.96
-1.47
-0.46
1.82
4.91
8.28
11.48
14.3
16.7
18.7
20.12
20.46
18.91
14.73
7.63
-1.93
-12.66
-22.78
-30.57
-34.92
-35.61
-33.25
-28.89
-23.56
-17.92
-12.29
-6.85
-1.99
1.53
2.71
0.59
-5.35
-14.93
-27.28
-40.94
-54.16
-65.05
-71.91
-73.31
-68.45
-57.31
-40.88
-21.04
-0.28
18.76
33.98
44.28
49.63
50.87
49.24
45.89
41.71
37.36
33.49
30.83
30
31.25
34.22
38.02
41.62
44.32
45.97
46.85
47.32
47.46
46.93
45.13
41.55
36.05
28.93
20.88
12.77
5.43
-0.47
-4.64
-7.15
-8.45
-9.19
-10.04
-11.53
-13.92
-17.27
-21.39
-25.97
-30.61
-34.83
-38.11
-40.01
-40.18
-38.49
-35.1
-30.48
-25.36
-20.55
-16.68
-14.03
-12.45
-11.5
-10.75
-9.96
-9.22
-8.74
-8.72
-9.15
-9.85
-10.48
-10.79
-10.6
-9.77
-8.22
-5.85
-2.65
1.26
5.54
9.76
13.51
16.54
18.76
20.25
21.22
21.88
22.48
23.21
24.18
25.35
26.54
27.51
27.99
27.78
26.85
25.3
23.32
21.16
19.05
17.15
15.52
14.03
12.44
10.46
7.82
4.41
0.33
-4.15
-8.72
-13.01
-16.76
-19.8
-22.06
-23.59
-24.5
-24.91
-24.93
-24.66
-24.23
-23.83
-23.76
-24.38
-25.93
-28.44
-31.65
-35.06
-38.09
-40.25
-41.34
-41.43
-40.75
-39.54
-37.83
-35.43
-32.01
-27.31
-21.26
-14.13
-6.5
0.93
7.46
12.6
16.15
18.21
19.16
19.54
19.91
20.77
22.4
24.9
28.03
31.34
34.22
36.01
36.19
34.51
31.1
26.39
21.09
16.01
11.94
9.45
8.94
10.5
14
19.05
25.11
31.57
37.88
43.69
48.85
53.38
57.34
60.7
63.27
64.75
64.81
63.22
59.9
54.85
48.22
40.21
31.21
21.77
12.54
4.07
-3.39
-9.97
-16.06
-22.07
-28.11
-33.94
-38.97
-42.6
-44.44
-44.47
-42.97
-40.44
-37.42
-34.48
-32.15
-30.83
-30.83
-32.15
-34.56
-37.58
-40.65
-43.27
-45.04
-45.73
-45.2
-43.46
-40.66
-37.08
-33.14
-29.27
-25.85
-23.03
-20.75
-18.79
-16.81
-14.49
-11.62
-8.14
-4.12
0.23
4.65
8.83
12.47
15.39
17.53
18.99
19.97
20.65
21.17
21.5
21.6
21.44
21.14
20.91
20.96
21.38
21.99
22.46
22.41
21.61
20.13
18.24
16.29
14.51
12.97
11.49
9.79
7.67
5.11
2.31
-0.33
-2.38
-3.43
-3.34
-2.24
-0.57
1.21
2.71
3.78
4.49
4.98
5.41
5.76
5.95
5.9
5.68
5.44
5.37
5.59
6.06
6.66
7.22
7.6
7.73
7.49
6.78
5.54
3.79
1.63
-0.73
-3.08
-5.28
-7.27
-9.07
-10.69
-12.13
-13.29
-14.06
-14.32
-13.96
-12.94
-11.25
-9.03
-6.48
-3.92
-1.65
0.08
1.14
1.56
1.45
1.03
0.52
0.05
-0.26
-0.32
-0.06
0.54
1.44
2.56
3.77
4.86
5.69
6.07
5.9
5.16
3.9
2.25
0.43
-1.42
-3.2
-4.93
-6.63
-8.31
-9.85
-10.99
-11.48
-11.12
-9.93
-8.11
-6.04
-4.14
-2.76
-2.02
-1.82
-1.88
-1.88
-1.62
-1.08
-0.39
0.23
0.61
0.68
0.47
0.05
-0.56
-1.35
-2.27
-3.24
-4.12
-4.74
-5.02
-4.98
-4.72
-4.38
-4.11
-4.03
-4.2
-4.62
-5.27
-6.04
-6.79
-7.29
-7.29
-6.56
-4.91
-2.33
1.03
4.79
8.42
11.39
13.31
14.02
13.65
12.54
11.17
9.99
9.32
9.28
9.82
10.74
11.8
12.82
13.72
14.39
14.72
14.53
13.65
11.98
9.64
6.92
4.23
1.88
-0
-1.54
-2.96
-4.41
-5.93
-7.41
-8.74
-9.91
-11.02
-12.18
-13.37
-14.34
-14.68
-14.01
-12.21
-9.46
-6.23
-3.08
-0.45
1.45
2.67
3.42
3.96
4.48
5.08
5.74
6.44
7.19
7.98
8.85
9.73
10.49
10.94
10.89
10.26
9.12
7.66
6.06
4.49
2.99
1.54
0.11
-1.28
-2.6
-3.8
-4.92
-5.97
-6.97
-7.85
-8.43
-8.49
-7.85
-6.48
-4.44
-1.91
0.9
3.75
6.44
8.75
10.48
11.55
11.99
11.99
11.8
11.72
11.92
12.46
13.25
14.1
14.74
14.94
14.5
13.38
11.67
9.57
7.27
4.94
2.66
0.47
-1.62
-3.53
-5.18
-6.43
-7.3
-7.91
-8.52
-9.4
-10.7
-12.32
-13.93
-15.04
-15.16
-14.01
-11.61
-8.27
-4.52
-0.96
1.96
3.95
5.04
5.41
5.35
5.1
4.81
4.52
4.27
4.13
4.18
4.44
4.8
5
4.68
3.58
1.6
-1.1
-4.18
-7.25
-10.02
-12.31
-14.12
-15.57
-16.73
-17.67
-18.35
-18.67
-18.54
-17.95
-16.91
-15.58
-14.13
-12.72
-11.4
-10.16
-8.91
-7.54
-6.01
-4.32
-2.62
-1.1
0.1
0.86
1.2
1.19
0.93
0.53
0.11
-0.22
-0.29
0.01
0.66
1.38
1.78
1.42
0.01
-2.36
-5.31
-8.23
-10.59
-12.13
-12.86
-13.01
-12.91
-12.8
-12.76
-12.82
-12.98
-13.29
-13.79
-14.37
-14.76
-14.5
-13.13
-10.41
-6.51
-1.99
2.37
5.85
8.14
9.25
9.5
9.24
8.67
7.83
6.72
5.45
4.26
3.46
3.22
3.43
3.74
3.74
3.2
2.2
1.06
0.09
-0.56
-1.03
-1.65
-2.76
-4.55
-6.9
-9.55
-12.11
-14.26
-15.73
-16.35
-15.98
-14.48
-11.8
-7.98
-3.27
1.95
7.18
11.96
15.92
18.9
20.9
22.05
22.53
22.51
22.21
21.84
21.63
21.75
22.31
23.24
24.33
25.26
25.69
25.32
24.03
21.85
18.98
15.74
12.49
9.51
6.95
4.85
3.12
1.62
0.18
-1.29
-2.91
-4.7
-6.62
-8.44
-9.84
-10.47
-10.09
-8.73
-6.71
-4.6
-2.9
-1.93
-1.69
-1.9
-2.26
-2.56
-2.78
-3.02
-3.34
-3.64
-3.71
-3.38
-2.58
-1.49
-0.42
0.31
0.54
0.29
-0.26
-0.87
-1.35
-1.63
-1.79
-2.06
-2.75
-4.12
-6.32
-9.22
-12.47
-15.57
-17.98
-19.29
-19.3
-17.96
-15.46
-12.15
-8.55
-5.28
-2.86
-1.62
-1.5
-2.13
-2.98
-3.58
-3.66
-3.23
-2.44
-1.43
-0.3
0.9
2.1
3.17
3.91
4.15
3.87
3.12
2.09
0.94
-0.2
-1.31
-2.4
-3.54
-4.77
-6.14
-7.67
-9.26
-10.7
-11.68
-11.89
-11.16
-9.53
-7.3
-4.9
-2.8
-1.3
-0.53
-0.4
-0.68
-1.09
-1.33
-1.19
-0.55
0.62
2.25
4.17
6.16
7.99
9.44
10.33
10.58
10.17
9.1
7.51
5.56
3.45
1.39
-0.44
-1.9
-2.89
-3.44
-3.65
-3.74
-3.94
-4.41
-5.14
-5.91
-6.35
-6.06
-4.79
-2.57
0.33
3.49
6.48
9.05
11.03
12.4
13.14
13.25
12.7
11.59
10.13
8.66
7.56
7.07
7.21
7.76
8.36
8.6
8.22
7.1
5.25
2.83
0.05
-2.76
-5.31
-7.36
-8.86
-9.91
-10.73
-11.53
-12.38
-13.24
-13.95
-14.37
-14.39
-13.91
-12.83
-11.04
-8.54
-5.51
-2.34
0.49
2.57
3.73
4.1
4.08
4.15
4.75
6.11
8.2
10.85
13.79
16.73
19.48
21.86
23.71
24.84
25.13
24.55
23.25
21.56
19.88
18.61
17.93
17.81
17.99
18.08
17.64
16.3
13.82
10.1
5.27
-0.33
-6.16
-11.55
-15.89
-18.74
-19.92
-19.5
-17.82
-15.38
-12.72
-10.35
-8.59
-7.63
-7.46
-7.87
-8.62
-9.44
-10.16
-10.74
-11.18
-11.5
-11.7
-11.77
-11.74
-11.72
-11.91
-12.48
-13.52
-14.93
-16.47
-17.75
-18.43
-18.25
-17.12
-15.1
-12.35
-9.07
-5.5
-1.91
1.39
4.12
6.07
7.18
7.68
7.98
8.56
9.75
11.61
13.87
16.1
17.94
19.2
19.96
20.42
20.76
21.03
21.21
21.21
21.02
20.71
20.36
20.07
19.83
19.59
19.27
18.8
18.16
17.3
16.19
14.78
13.06
11
8.58
5.83
2.81
-0.35
-3.47
-6.34
-8.83
-10.87
-12.57
-14.08
-15.47
-16.7
-17.56
-17.74
-16.99
-15.28
-12.85
-10.17
-7.82
-6.17
-5.34
-5.18
-5.35
-5.54
-5.57
-5.38
-4.98
-4.36
-3.48
-2.31
-0.83
0.82
2.43
3.75
4.58
4.87
4.65
4.1
3.39
2.69
2.1
1.63
1.18
0.63
-0.15
-1.2
-2.52
-4.08
-5.84
-7.78
-9.83
-11.78
-13.35
-14.18
-14.02
-12.88
-11.05
-8.98
-7.11
-5.7
-4.7
-3.92
-3.13
-2.18
-1.09
0.07
1.27
2.56
4.05
5.79
7.74
9.69
11.38
12.47
12.67
11.8
9.86
7.05
3.73
0.32
-2.86
-5.61
-8
-10.18
-12.36
-14.63
-16.91
-19.02
-20.77
-22.04
-22.76
-22.88
-22.32
-20.99
-18.85
-15.96
-12.47
-8.68
-4.94
-1.55
1.26
3.46
5.2
6.75
8.43
10.49
12.9
15.4
17.54
18.9
19.27
18.74
17.67
16.41
15.22
14.12
13.01
11.79
10.48
9.19
8.1
7.3
6.69
6.1
5.34
4.34
3.08
1.62
-0.01
-1.76
-3.53
-5.11
-6.21
-6.53
-5.92
-4.47
-2.51
-0.46
1.31
2.6
3.37
3.69
3.67
3.43
3.11
2.88
2.88
3.2
3.82
4.6
5.4
6.14
6.78
7.31
7.67
7.71
7.29
6.42
5.26
4.17
3.45
3.24
3.45
3.75
3.79
3.28
2.14
0.5
-1.31
-2.89
-3.82
-3.72
-2.38
0.21
3.78
7.83
11.72
14.83
16.72
17.18
16.22
13.97
10.6
6.32
1.45
-3.56
-8.15
-11.77
-14.06
-14.97
-14.71
-13.6
-11.94
-9.92
-7.64
-5.26
-3.08
-1.47
-0.74
-1.05
-2.22
-3.92
-5.73
-7.36
-8.74
-9.93
-11.07
-12.22
-13.23
-13.84
-13.67
-12.43
-10.02
-6.63
-2.63
1.42
5
7.74
9.46
10.22
10.22
9.74
9
8.16
7.29
6.47
5.75
5.23
4.94
4.88
4.96
4.99
4.82
4.34
3.52
2.44
1.23
0.08
-0.87
-1.48
-1.78
-1.87
-1.97
-2.31
-3.03
-4.12
-5.39
-6.58
-7.41
-7.69
-7.33
-6.36
-4.87
-3.09
-1.27
0.32
1.47
2.15
2.47
2.64
2.83
3.06
3.23
3.19
2.87
2.37
1.85
1.52
1.44
1.55
1.66
1.6
1.29
0.82
0.38
0.17
0.26
0.59
0.93
1.08
0.89
0.34
-0.56
-1.83
-3.51
-5.61
-7.97
-10.17
-11.61
-11.76
-10.38
-7.73
-4.45
-1.3
1.19
2.86
3.91
4.67
5.31
5.84
6.1
5.99
5.6
5.18
5.03
5.28
5.8
6.25
6.25
5.6
4.35
2.74
1.07
-0.49
-1.85
-3.03
-4.01
-4.68
-4.96
-4.84
-4.54
-4.52
-5.29
-7.19
-10.19
-13.83
-17.29
-19.74
-20.56
-19.55
-16.97
-13.4
-9.5
-5.88
-2.93
-0.85
0.33
0.72
0.55
0.1
-0.35
-0.56
-0.38
0.2
1.12
2.25
3.47
4.7
5.91
7.11
8.29
9.39
10.26
10.77
10.85
10.54
9.95
9.22
8.36
7.31
5.95
4.21
2.16
-0.07
-2.3
-4.4
-6.3
-7.92
-9.09
-9.51
-8.82
-6.79
-3.42
0.96
5.74
10.2
13.74
16.08
17.26
17.56
17.37
16.96
16.47
15.95
15.41
14.93
14.64
14.64
14.88
15.13
15.08
14.43
13.12
11.29
9.28
7.4
5.81
4.42
3.02
1.37
-0.57
-2.69
-4.8
-6.74
-8.48
-10.06
-11.44
-12.47
-12.83
-12.28
-10.77
-8.57
-6.22
-4.31
-3.3
-3.25
-3.87
-4.64
-5.03
-4.77
-3.85
-2.55
-1.16
0.08
1.16
2.19
3.28
4.42
5.43
6.1
6.26
5.91
5.21
4.35
3.49
2.68
1.87
1.02
0.15
-0.66
-1.27
-1.62
-1.77
-1.87
-2.14
-2.78
-3.93
-5.57
-7.53
-9.42
-10.81
-11.31
-10.66
-8.96
-6.5
-3.8
-1.32
0.68
2.14
3.21
4.03
4.67
5.11
5.29
5.23
5.09
5.04
5.27
5.82
6.56
7.26
7.63
7.51
6.89
5.92
4.78
3.64
2.58
1.55
0.45
-0.8
-2.17
-3.54
-4.73
-5.58
-6.12
-6.46
-6.85
-7.48
-8.41
-9.52
-10.56
-11.2
-11.17
-10.3
-8.58
-6.15
-3.23
-0.1
2.96
5.76
8.2
10.21
11.77
12.79
13.18
12.85
11.83
10.26
8.44
6.66
5.12
3.89
2.93
2.16
1.56
1.17
1.02
1.08
1.23
1.25
0.97
0.32
-0.66
-1.81
-2.96
-3.94
-4.7
-5.22
-5.62
-5.99
-6.51
-7.3
-8.43
-9.88
-11.49
-13.07
-14.35
-15.07
-15.04
-14.13
-12.37
-9.95
-7.28
-4.83
-3.05
-2.19
-2.27
-3.09
-4.34
-5.74
-7.12
-8.43
-9.61
-10.52
-10.91
-10.52
-9.2
-7.03
-4.37
-1.79
0.15
1.04
0.78
-0.47
-2.38
-4.59
-6.8
-8.81
-10.49
-11.68
-12.3
-12.25
-11.52
-10.22
-8.58
-6.93
-5.62
-4.93
-4.95
-5.51
-6.21
-6.56
-6.11
-4.63
-2.13
1.16
4.91
8.78
12.5
15.89
18.84
21.38
23.61
25.67
27.72
29.83
32.01
34.18
36.21
38.03
39.6
40.92
42.03
42.91
43.56
43.95
44.08
43.98
43.65
43.07
42.18
40.92
39.17
36.83
33.85
30.21
26
21.32
16.32
11.21
6.26
1.75
-2.08
-5.12
-7.43
-9.22
-10.71
-12.1
-13.48
-14.83
-16.2
-17.71
-19.59
-22.12
-25.46
-29.53
-34.07
-38.65
-42.86
-46.35
-48.88
-50.16
-49.9
-47.77
-43.55
-37.23
-29.03
-19.41
-8.95
1.78
12.28
22.1
30.85
38.11
43.43
46.4
46.67
44.07
38.73
31.09
21.83
11.75
1.67
-7.77
-16.01
-22.63
-27.31
-29.89
-30.44
-29.29
-27.04
-24.33
-21.7
-19.44
-17.54
-15.84
-14.16
-12.41
-10.64
-8.96
-7.51
-6.32
-5.39
-4.58
-3.82
-2.99
-2.1
-1.18
-0.33
0.36
0.8
0.92
0.65
-0.1
-1.31
-2.88
-4.65
-6.46
-8.26
-10.09
-12.12
-14.55
-17.49
-20.9
-24.63
-28.39
-31.86
-34.69
-36.53
-37.1
-36.32
-34.32
-31.45
-28.22
-25.05
-22.2
-19.7
-17.35
-14.91
-12.18
-9.11
-5.89
-2.85
-0.32
1.45
2.44
2.84
2.96
3.09
3.43
4.07
4.97
6.11
7.47
9.07
10.94
12.99
15.1
17.07
18.72
19.89
20.48
20.39
19.5
17.7
14.91
11.22
6.99
2.78
-0.72
-2.96
-3.69
-3.12
-1.79
-0.34
0.74
1.27
1.35
1.26
1.19
1.21
1.24
1.13
0.81
0.36
-0.04
-0.19
0
0.49
1.11
1.6
1.74
1.37
0.47
-0.87
-2.42
-3.91
-5.06
-5.8
-6.15
-6.33
-6.58
-7.13
-8.09
-9.44
-11.06
-12.69
-14.01
-14.65
-14.25
-12.61
-9.81
-6.2
-2.35
1.2
4.05
6.01
7.17
7.69
7.82
7.8
7.81
8.02
8.52
9.34
10.39
11.48
12.35
12.81
12.75
12.17
11.19
10
8.82
7.79
7
6.35
5.71
4.92
3.91
2.66
1.21
-0.43
-2.32
-4.52
-7
-9.51
-11.57
-12.6
-12.07
-9.83
-6.14
-1.6
3.01
6.99
9.87
11.52
11.98
11.51
10.44
9.17
8.1
7.6
7.82
8.71
10.01
11.31
12.28
12.67
12.46
11.75
10.71
9.51
8.28
7.11
6.05
5.1
4.23
3.37
2.44
1.39
0.17
-1.23
-2.79
-4.44
-6.03
-7.33
-8.13
-8.22
-7.58
-6.36
-4.89
-3.55
-2.68
-2.42
-2.72
-3.34
-3.91
-4
-3.29
-1.59
1.07
4.41
7.97
11.2
13.58
14.77
14.69
13.5
11.59
9.37
7.18
5.24
3.62
2.28
1.16
0.19
-0.67
-1.45
-2.17
-2.82
-3.39
-3.86
-4.22
-4.52
-4.93
-5.57
-6.47
-7.48
-8.27
-8.37
-7.38
-5.14
-1.77
2.34
6.67
10.72
14.07
16.41
17.52
17.26
15.63
12.84
9.32
5.66
2.43
-0.02
-1.63
-2.52
-2.93
-2.96
-2.52
-1.49
0.21
2.37
4.56
6.26
7.04
6.76
5.6
3.99
2.38
1.12
0.37
0.13
0.31
0.83
1.54
2.3
2.93
3.31
3.42
3.45
3.77
4.8
6.9
10.18
14.53
19.65
25.16
30.72
36.06
40.98
45.27
48.69
51.02
52.13
52.08
51.08
49.47
47.56
45.46
43.09
40.15
36.35
31.5
25.66
19.09
12.16
5.1
-2.08
-9.62
-17.81
-26.83
-36.53
-46.42
-55.77
-63.78
-70
-74.3
-76.98
-78.56
-79.58
-80.39
-81.01
-81.19
-80.43
-78.29
-74.45
-68.91
-61.95
-54.07
-45.88
-37.95
-30.81
-24.77
-20.01
-16.51
-14.11
-12.51
-11.25
-9.85
-7.88
-5.1
-1.53
2.55
6.71
10.53
13.67
15.97
17.41
18.07
18.01
17.32
16.14
14.71
13.37
12.53
12.56
13.66
15.84
18.85
22.33
25.81
28.84
31.08
32.35
32.7
32.41
31.88
31.49
31.42
31.54
31.44
30.58
28.54
25.2
20.77
15.79
10.86
6.52
3.16
0.9
-0.32
-0.71
-0.61
-0.36
-0.25
-0.45
-0.98
-1.76
-2.65
-3.54
-4.43
-5.38
-6.39
-7.46
-8.47
-9.31
-9.79
-9.77
-9.19
-8.14
-6.92
-5.98
-5.83
-6.85
-9.1
-12.34
-16.13
-19.95
-23.28
-25.63
-26.55
-25.74
-23.24
-19.46
-15.2
-11.27
-8.14
-5.72
-3.43
-0.61
3.11
7.56
12.18
16.22
19.15
20.74
21.03
20.17
18.32
15.63
12.27
8.51
4.72
1.33
-1.32
-3.1
-4.16
-4.88
-5.73
-7.07
-9.01
-11.38
-13.79
-15.73
-16.82
-16.84
-15.87
-14.26
-12.47
-11.01
-10.17
-9.93
-9.98
-9.87
-9.25
-8.05
-6.49
-4.91
-3.61
-2.72
-2.15
-1.74
-1.3
-0.75
-0.08
0.64
1.32
1.82
2.02
1.81
1.15
0.17
-0.89
-1.83
-2.48
-2.83
-3.05
-3.4
-4.21
-5.71
-7.89
-10.52
-13.07
-14.9
-15.47
-14.55
-12.34
-9.35
-6.19
-3.35
-1.06
0.67
1.9
2.63
2.83
2.53
1.92
1.31
1.02
1.25
1.98
2.98
3.98
4.75
5.19
5.33
5.22
4.89
4.33
3.51
2.37
0.84
-1.15
-3.57
-6.28
-9.03
-11.53
-13.49
-14.75
-15.23
-14.87
-13.69
-11.65
-8.77
-5.18
-1.18
2.78
6.22
8.78
10.32
10.88
10.67
9.91
8.82
7.55
6.25
5.09
4.23
3.78
3.67
3.68
3.45
2.71
1.36
-0.33
-1.94
-3
-3.23
-2.69
-1.67
-0.62
0.06
0.18
-0.3
-1.28
-2.59
-4.04
-5.35
-6.15
-6.09
-4.87
-2.51
0.7
4.15
7.17
9.28
10.31
10.45
10.06
9.54
9.12
8.95
9.09
9.67
10.88
12.84
15.52
18.63
21.63
23.91
24.99
24.62
22.88
20.11
16.73
13.09
9.38
5.67
1.95
-1.73
-5.23
-8.39
-11.02
-13
-14.26
-14.68
-14.09
-12.3
-9.24
-5.05
-0.14
4.95
9.75
14.05
17.88
21.39
24.71
27.71
30.1
31.46
31.44
29.87
26.81
22.5
17.25
11.38
5.19
-1
-6.92
-12.21
-16.57
-19.72
-21.57
-22.19
-21.88
-21.07
-20.23
-19.77
-19.9
-20.56
-21.47
-22.2
-22.25
-21.26
-19.01
-15.47
-10.74
-4.94
1.79
9.29
17.33
25.45
32.96
38.98
42.7
43.52
41.25
36.16
28.88
20.31
11.38
2.9
-4.47
-10.37
-14.64
-17.33
-18.65
-18.83
-18.11
-16.8
-15.23
-13.78
-12.85
-12.74
-13.61
-15.4
-17.84
-20.49
-22.83
-24.38
-24.76
-23.89
-21.91
-19.21
-16.21
-13.26
-10.59
-8.26
-6.26
-4.55
-3.14
-1.98
-1.02
-0.14
0.83
1.94
3.17
4.33
5.12
5.23
4.41
2.62
0.06
-2.91
-5.79
-8.17
-9.86
-10.9
-11.49
-11.83
-12.01
-12.04
-11.88
-11.57
-11.18
-10.77
-10.22
-9.2
-7.32
-4.3
-0.22
4.46
9.01
12.7
15.07
16.03
15.82
14.82
13.43
11.96
10.68
9.9
9.92
11.03
13.26
16.34
19.77
22.88
25.12
26.2
26.13
25.12
23.47
21.41
19.03
16.47
13.84
11.27
8.87
6.68
4.55
2.29
-0.31
-3.29
-6.41
-9.23
-11.14
-11.68
-10.66
-8.32
-5.25
-2.23
0.05
1.22
1.33
0.84
0.32
0.28
0.94
2.29
4.06
5.94
7.59
8.78
9.34
9.18
8.32
6.87
4.96
2.66
-0.03
-3.15
-6.63
-10.19
-13.32
-15.48
-16.26
-15.59
-13.8
-11.47
-9.23
-7.53
-6.54
-6.2
-6.29
-6.51
-6.59
-6.28
-5.39
-3.83
-1.63
1.03
3.91
6.69
9.1
10.92
12.12
12.81
13.16
13.41
13.68
13.99
14.24
14.27
13.98
13.38
12.58
11.7
10.83
9.92
8.89
7.61
5.99
4.06
1.94
-0.3
-2.57
-4.87
-7.19
-9.54
-11.89
-14.26
-16.67
-19.09
-21.45
-23.5
-24.83
-25.06
-23.95
-21.57
-18.32
-14.79
-11.54
-8.91
-6.94
-5.41
-4.04
-2.53
-0.78
1.18
3.27
5.3
7.17
8.77
10.03
10.83
11.07
10.68
9.67
8.21
6.58
5.07
3.98
3.45
3.47
3.93
4.65
5.46
6.2
6.76
6.94
6.59
5.54
3.79
1.5
-0.95
-3.04
-4.27
-4.32
-3.15
-0.98
1.78
4.7
7.48
9.94
11.99
13.55
14.47
14.65
14.07
12.89
11.44
10.15
9.4
9.36
9.98
11
12.06
12.83
13.05
12.59
11.41
9.61
7.34
4.84
2.35
0.09
-1.84
-3.52
-5.13
-6.89
-8.97
-11.41
-14.09
-16.77
-19.11
-20.75
-21.4
-20.88
-19.27
-16.84
-14.05
-11.34
-9.09
-7.38
-6.1
-4.96
-3.63
-1.85
0.49
3.37
6.61
10
13.3
16.34
18.95
20.98
22.29
22.75
22.31
21.1
19.46
17.83
16.61
15.93
15.61
15.22
14.34
12.71
10.31
7.34
4.04
0.6
-2.87
-6.19
-9.13
-11.27
-12.22
-11.76
-9.94
-7.13
-3.89
-0.78
1.79
3.67
4.9
5.57
5.79
5.56
4.9
3.82
2.45
0.97
-0.43
-1.68
-2.79
-3.85
-4.96
-6.14
-7.27
-8.21
-8.78
-8.93
-8.72
-8.27
-7.76
-7.37
-7.2
-7.32
-7.76
-8.57
-9.79
-11.43
-13.37
-15.29
-16.71
-17.09
-16.04
-13.54
-10.01
-6.16
-2.77
-0.35
0.96
1.39
1.34
1.13
0.83
0.4
-0.27
-1.21
-2.31
-3.39
-4.26
-4.84
-5.18
-5.4
-5.64
-6.01
-6.5
-7.04
-7.52
-7.82
-7.97
-8.09
-8.31
-8.76
-9.43
-10.26
-11.21
-12.26
-13.48
-14.87
-16.27
-17.4
-17.87
-17.39
-15.88
-13.5
-10.56
-7.42
-4.33
-1.43
1.24
3.66
5.77
7.43
8.49
8.83
8.47
7.56
6.36
5.21
4.36
3.93
3.83
3.9
3.99
4.08
4.24
4.63
5.3
6.17
7.01
7.52
7.52
6.93
5.8
4.19
2.23
0.09
-1.95
-3.47
-3.96
-3.04
-0.57
3.21
7.83
12.72
17.37
21.37
24.46
26.45
27.27
26.93
25.64
23.73
21.67
19.81
18.36
17.28
16.35
15.26
13.82
11.96
9.78
7.47
5.21
3.06
1.01
-1.11
-3.49
-6.3
-9.61
-13.36
-17.36
-21.33
-24.87
-27.53
-29.01
-29.17
-28.12
-26.13
-23.6
-20.9
-18.28
-15.92
-13.9
-12.3
-11.2
-10.62
-10.49
-10.62
-10.74
-10.61
-10.09
-9.21
-8.14
-7.02
-5.97
-5.05
-4.23
-3.52
-3.01
-2.81
-2.96
-3.43
-4.11
-4.88
-5.78
-6.93
-8.51
-10.52
-12.74
-14.63
-15.61
-15.19
-13.22
-9.88
-5.64
-1.1
3.22
6.91
9.81
11.88
13.16
13.77
13.85
13.57
13.16
12.85
12.89
13.39
14.32
15.45
16.4
16.81
16.44
15.19
13.13
10.41
7.2
3.7
0.16
-3.22
-6.32
-9.17
-11.97
-14.99
-18.43
-22.22
-25.98
-29.14
-31.06
-31.26
-29.6
-26.27
-21.8
-16.8
-11.9
-7.55
-4.02
-1.36
0.54
1.88
2.9
3.8
4.79
6.04
7.66
9.61
11.72
13.74
15.38
16.43
16.81
16.5
15.55
13.95
11.69
8.76
5.24
1.31
-2.77
-6.7
-10.27
-13.39
-16.11
-18.43
-20.32
-21.52
-21.67
-20.39
-17.45
-12.98
-7.44
-1.54
4.06
8.89
12.81
15.95
18.54
20.8
22.79
24.46
25.72
26.55
26.93
26.91
26.53
25.79
24.73
23.34
21.62
19.58
17.24
14.69
12.07
9.54
7.24
5.19
3.29
1.35
-0.83
-3.39
-6.39
-9.75
-13.26
-16.7
-19.75
-22.17
-23.67
-24.06
-23.21
-21.15
-18.08
-14.31
-10.28
-6.46
-3.19
-0.66
1.12
2.3
3.12
3.78
4.48
5.37
6.57
8.11
9.91
11.76
13.37
14.47
14.87
14.51
13.47
11.88
9.88
7.55
4.97
2.13
-0.89
-4.05
-7.25
-10.41
-13.48
-16.46
-19.42
-22.44
-25.59
-28.8
-31.82
-34.18
-35.32
-34.74
-32.13
-27.57
-21.5
-14.62
-7.64
-1.17
4.44
9.02
12.56
15.14
16.88
17.95
18.59
19.09
19.68
20.51
21.61
22.87
24.16
25.28
26.09
26.48
26.49
26.16
25.57
24.74
23.56
21.92
19.66
16.81
13.5
9.97
6.5
3.25
0.26
-2.61
-5.54
-8.7
-12.07
-15.42
-18.29
-20.08
-20.28
-18.59
-15.08
-10.22
-4.73
0.6
5.16
8.64
11.04
12.56
13.49
14.04
14.37
14.57
14.73
14.96
15.38
16.08
17
17.97
18.78
19.26
19.34
19.09
18.59
17.83
16.7
15.03
12.7
9.81
6.68
3.81
1.65
0.37
-0.23
-0.53
-1.02
-1.99
-3.43
-5.14
-6.71
-7.7
-7.75
-6.66
-4.41
-1.3
2.2
5.53
8.27
10.24
11.57
12.51
13.26
13.86
14.2
14.19
13.83
13.2
12.48
11.73
10.93
10.03
8.97
7.81
6.69
5.74
5
4.42
3.89
3.32
2.67
1.94
1.12
0.14
-1.11
-2.7
-4.63
-6.83
-9.17
-11.58
-13.93
-16.1
-17.82
-18.73
-18.43
-16.67
-13.47
-9.15
-4.25
0.68
5.24
9.23
12.56
15.16
16.89
17.63
17.35
16.25
14.72
13.25
12.19
11.71
11.66
11.77
11.78
11.46
10.75
9.62
8.05
6.01
3.55
0.76
-2.19
-5.09
-7.81
-10.27
-12.42
-14.22
-15.56
-16.29
-16.39
-15.99
-15.41
-15.08
-15.27
-16.07
-17.25
-18.36
-18.91
-18.49
-16.97
-14.41
-11.1
-7.36
-3.55
-0.01
2.96
5.1
6.21
6.27
5.43
4.05
2.59
1.44
0.82
0.73
1.03
1.54
2.08
2.53
2.78
2.7
2.21
1.28
0.01
-1.48
-2.98
-4.36
-5.55
-6.53
-7.39
-8.21
-9.1
-10.2
-11.62
-13.38
-15.38
-17.42
-19.19
-20.46
-20.97
-20.62
-19.39
-17.34
-14.7
-11.73
-8.77
-6.08
-3.81
-2.01
-0.58
0.49
1.28
1.82
2.21
2.61
3.21
4.16
5.47
7.02
8.52
9.7
10.36
10.47
10.1
9.41
8.57
7.7
6.92
6.24
5.65
5.06
4.34
3.37
2.09
0.54
-1.19
-2.95
-4.68
-6.38
-8.02
-9.55
-10.8
-11.53
-11.49
-10.61
-8.95
-6.72
-4.16
-1.48
1.16
3.65
5.87
7.75
9.19
10.21
10.88
11.33
11.7
12.08
12.52
13.03
13.57
14.06
14.4
14.5
14.24
13.57
12.41
10.79
8.74
6.42
4.01
1.75
-0.19
-1.76
-3.03
-4.15
-5.27
-6.44
-7.59
-8.59
-9.23
-9.34
-8.8
-7.54
-5.65
-3.31
-0.88
1.15
2.36
2.45
1.46
-0.3
-2.34
-4.16
-5.41
-5.96
-5.88
-5.34
-4.55
-3.65
-2.73
-1.84
-1.01
-0.34
0.04
-0.02
-0.64
-1.85
-3.51
-5.33
-6.95
-8.03
-8.42
-8.21
-7.68
-7.22
-7.16
-7.68
-8.74
-10.21
-11.88
-13.56
-15.02
-16.06
-16.43
-15.94
-14.47
-12.13
-9.16
-5.95
-2.83
-0.03
2.35
4.24
5.66
6.56
6.98
7.02
6.85
6.68
6.68
6.92
7.36
7.87
8.33
8.64
8.78
8.7
8.32
7.58
6.43
4.94
3.27
1.62
0.12
-1.16
-2.28
-3.34
-4.43
-5.63
-6.93
-8.24
-9.45
-10.33
-10.59
-9.98
-8.35
-5.78
-2.6
0.7
3.66
5.94
7.42
8.11
8.07
7.37
6.01
3.99
1.38
-1.57
-4.56
-7.18
-9.11
-10.2
-10.48
-10.25
-9.88
-9.74
-10.04
-10.76
-11.71
-12.59
-13.25
-13.69
-14.07
-14.59
-15.4
-16.52
-17.88
-19.32
-20.68
-21.77
-22.36
-22.21
-21.11
-19.01
-16.1
-12.72
-9.35
-6.38
-4.03
-2.36
-1.29
-0.68
-0.39
-0.28
-0.24
-0.14
0.12
0.62
1.33
2.12
2.88
3.44
3.69
3.55
3.01
2.07
0.81
-0.66
-2.18
-3.6
-4.85
-5.96
-7.06
-8.29
-9.77
-11.52
-13.43
-15.35
-17.03
-18.22
-18.6
-17.88
-15.83
-12.4
-7.73
-2.22
3.55
8.93
13.38
16.56
18.41
19.1
18.99
18.43
17.69
16.9
16.13
15.42
14.85
14.5
14.43
14.56
14.71
14.67
14.31
13.56
12.43
11
9.29
7.33
5.18
2.92
0.68
-1.47
-3.54
-5.67
-8.03
-10.69
-13.51
-16.07
-17.83
-18.25
-17.07
-14.35
-10.49
-6.1
-1.77
2.07
5.17
7.47
8.99
9.76
9.81
9.21
8.11
6.73
5.38
4.35
3.78
3.7
3.95
4.3
4.52
4.5
4.31
4.04
3.79
3.57
3.32
3
2.6
2.25
2
1.82
1.56
1
0.04
-1.13
-1.99
-1.9
-0.32
2.92
7.55
12.99
18.58
23.85
28.55
32.65
36.22
39.32
41.99
44.22
46.07
47.54
48.63
49.22
49.13
48.16
46.2
43.29
39.62
35.51
31.3
27.33
23.85
21
18.79
17.11
15.73
14.4
12.9
11.06
8.78
6.05
2.87
-0.72
-4.58
-8.49
-12.12
-15.11
-17.14
-18.07
-17.94
-17.03
-15.81
-14.76
-14.29
-14.6
-15.7
-17.35
-19.29
-21.17
-22.73
-23.81
-24.31
-24.2
-23.53
-22.35
-20.76
-18.9
-16.92
-15.06
-13.56
-12.67
-12.58
-13.3
-14.68
-16.49
-18.44
-20.3
-22.01
-23.57
-25.04
-26.48
-27.93
-29.32
-30.57
-31.54
-32.07
-31.9
-30.81
-28.61
-25.29
-21.11
-16.51
-12.02
-8.06
-4.87
-2.32
-0.15
1.92
4.07
6.3
8.48
10.53
12.4
14.12
15.71
17.1
18.09
18.5
18.21
17.24
15.8
14.14
12.52
11.02
9.55
7.91
5.93
3.54
0.86
-1.8
-4.08
-5.71
-6.68
-7.18
-7.51
-7.88
-8.29
-8.52
-8.21
-7.1
-5.15
-2.62
0.04
2.31
3.84
4.52
4.51
4.12
3.64
3.22
2.84
2.4
1.86
1.31
0.93
0.87
1.17
1.67
2.12
2.32
2.21
1.87
1.44
0.98
0.44
-0.3
-1.32
-2.61
-4
-5.33
-6.44
-7.33
-8.16
-9.16
-10.57
-12.47
-14.73
-17.05
-19.03
-20.32
-20.69
-20.1
-18.75
-16.93
-15.02
-13.37
-12.17
-11.45
-11.05
-10.67
-10.01
-8.89
-7.32
-5.45
-3.55
-1.79
-0.27
1.06
2.26
3.41
4.51
5.51
6.39
7.18
7.92
8.66
9.36
9.96
10.33
10.43
10.29
9.97
9.52
8.88
7.85
6.23
3.92
1.12
-1.69
-3.85
-4.72
-3.92
-1.56
1.88
5.63
8.94
11.26
12.39
12.4
11.59
10.31
8.83
7.43
6.27
5.47
5.11
5.17
5.59
6.25
7.04
7.85
8.63
9.38
10.06
10.7
11.23
11.56
11.5
10.84
9.34
6.85
3.32
-1.09
-6.06
-11.14
-15.82
-19.56
-21.91
-22.58
-21.46
-18.68
-14.6
-9.78
-4.8
-0.18
3.72
6.72
8.73
9.78
9.94
9.34
8.17
6.69
5.15
3.78
2.72
2.14
2.16
2.84
4.1
5.69
7.17
8.14
8.32
7.7
6.45
4.77
2.73
0.23
-2.88
-6.69
-11.04
-15.53
-19.6
-22.62
-24.1
-23.67
-21.26
-17.16
-11.96
-6.46
-1.42
2.59
5.4
7.11
8.03
8.43
8.55
8.51
8.46
8.6
9.14
10.31
12.14
14.46
16.92
18.98
20.17
20.11
18.71
16.1
12.63
8.65
4.43
0.12
-4.26
-8.63
-12.87
-16.78
-20.2
-23.1
-25.63
-27.97
-30.22
-32.26
-33.71
-34.09
-33.04
-30.5
-26.77
-22.39
-17.96
-13.92
-10.49
-7.64
-5.19
-2.97
-0.87
1.13
3.02
4.77
6.43
7.98
9.42
10.66
11.6
12.14
12.23
11.87
11.13
10.13
8.95
7.68
6.34
4.94
3.49
1.96
0.32
-1.57
-3.81
-6.57
-9.87
-13.59
-17.35
-20.57
-22.58
-22.76
-20.87
-17.03
-11.79
-5.97
-0.38
4.36
7.96
10.41
11.94
12.84
13.42
13.9
14.39
14.92
15.42
15.78
15.86
15.61
14.96
13.93
12.54
10.81
8.82
6.74
4.78
3.19
2.12
1.58
1.47
1.69
2.1
2.67
3.34
3.96
4.26
3.95
2.87
1.15
-0.67
-1.85
-1.67
0.22
3.72
8.32
13.32
18.14
22.38
25.8
28.21
29.39
29.04
27.01
23.45
18.8
13.78
9.12
5.29
2.46
0.47
-0.96
-2.1
-3.09
-3.99
-4.83
-5.66
-6.63
-7.88
-9.46
-11.34
-13.35
-15.33
-17.13
-18.72
-20.18
-21.68
-23.37
-25.33
-27.5
-29.61
-31.32
-32.22
-31.95
-30.33
-27.44
-23.62
-19.43
-15.53
-12.49
-10.67
-10.08
-10.41
-11.18
-11.88
-12.11
-11.65
-10.46
-8.58
-6.07
-3.04
0.38
3.96
7.39
10.36
12.69
14.32
15.3
15.73
15.7
15.28
14.57
13.74
13.02
12.59
12.48
12.43
12.02
10.79
8.43
4.96
0.7
-3.79
-7.9
-11.05
-12.78
-12.85
-11.17
-7.94
-3.61
1.23
5.91
9.91
12.86
14.69
15.49
15.46
14.74
13.46
11.7
9.61
7.47
5.6
4.36
4.03
4.73
6.36
8.65
11.16
13.43
15.09
15.95
16.03
15.52
14.67
13.57
12.15
10.2
7.41
3.65
-1
-6.2
-11.35
-15.81
-18.94
-20.28
-19.61
-17.02
-12.82
-7.48
-1.56
4.46
10.09
14.92
18.55
20.66
21.07
19.87
17.43
14.33
11.28
8.87
7.53
7.51
8.84
11.43
15.05
19.29
23.61
27.44
30.3
31.94
32.41
31.89
30.61
28.66
26.03
22.66
18.68
14.34
10.07
6.35
3.54
1.79
1.08
1.15
1.62
2.04
1.91
0.82
-1.53
-5.3
-10.44
-16.73
-23.76
-30.99
-37.78
-43.54
-47.79
-50.34
-51.32
-51.15
-50.34
-49.4
-48.64
-48.1
-47.64
-47
-46.02
-44.64
-42.9
-40.85
-38.5
-35.83
-32.84
-29.63
-26.33
-23.03
-19.68
-16.02
-11.68
-6.4
-0.16
6.73
13.68
19.96
24.92
28.11
29.36
28.78
26.62
23.24
19.07
14.55
10.19
6.51
4.04
3.15
4.01
6.44
9.93
13.72
17.01
19.21
20.08
19.76
18.65
17.19
15.73
14.42
13.22
12.04
10.74
9.21
7.33
5
2.31
-0.43
-2.64
-3.59
-2.72
0.11
4.47
9.4
13.74
16.52
17.21
15.9
13.22
10.12
7.54
6.17
6.25
7.64
9.88
12.48
14.99
17.16
18.77
19.54
19.21
17.55
14.56
10.58
6.17
1.83
-2.19
-5.97
-9.79
-14
-18.85
-24.52
-31.15
-38.7
-46.92
-55.18
-62.59
-68.42
-72.39
-74.8
-76.27
-77.22
-77.53
-76.6
-73.85
-69.33
-63.94
-58.99
-55.56
-53.69
-52.24
-49.56
-44.44
-36.75
-27.41
-17.45
-7.13
4.36
18.23
35.01
53.77
72.26
87.97
99.28
106.11
109.59
111.15
111.68
111.31
109.87
107.52
105.13
103.98
105.05
108.5
113.43
118.3
121.52
122.07
119.94
115.98
111.5
107.55
104.49
101.7
98.07
92.5
84.57
74.75
64.1
53.74
44.3
35.76
27.51
18.89
9.63
0.08
-8.83
-16.18
-21.4
-24.6
-26.5
-28.02
-29.83
-31.92
-33.79
-34.71
-34.29
-32.65
-30.34
-27.94
-25.68
-23.29
-20.09
-15.53
-9.49
-2.52
4.49
10.7
15.72
19.67
22.93
26.01
28.91
31.44
32.83
32.58
30.61
27.4
23.72
20.21
17.57
15.71
14.44
12.7
9.69
5.1
-0.67
-6.7
-11.96
-14.85
-15.08
-12.69
-9.59
-7.99
-10.12
-17.53
-31.08
-51.24
-77.01
-108.68
-146.25
-191.19
-244.54
-306.23
-374.15
-444.24
-511.54
-569.89
-617.08
-639.03
-626.04
-574.7
-489.97
-381.9
-260.09
-140.78
-21.8
99.2
220.63
335.64
436.73
514.94
562.93
576.68
556.02
506.85
437.68
360.26
285.45
221.04
169.53
128.95
95.03
63.78
34.05
4.93
-23.97
-54.13
-87.14
-123.42
-160.54
-193.27
-215.46
-222.1
-212.92
-191.56
-163.93
-135.01
-107.15
-79.81
-51.53
-22.36
5.59
28.28
42.48
47.46
45.1
38.43
30.08
21.64
14.39
10.8
14.55
29.22
55.98
92.1
131.27
166.03
190.87
203.9
206.84
203.33
196.85
189.5
182.02
174.4
166.93
160.55
156.58
156
158.78
163.32
166.55
164.59
153.73
131.5
97.44
53.56
3.84
-46.53
-91.98
-127.64
-150.17
-158.55
-154.45
-141.82
-125.98
-111.89
-102.87
-99.9
-101.94
-106.81
-112.26
-116.54
-118.49
-117.49
-113.2
-105.8
-96.17
-85.94
-76.97
-70.68
-67.36
-65.84
-64.2
-60.45
-53.65
-44.22
-33.79
-24.22
-16.82
-11.78
-8.26
-5.05
-1.28
3.07
7.29
10.35
11.49
10.62
8.24
5.24
2.32
-0.2
-2.36
-4.32
-6.01
-7.09
-7.13
-6
-4.1
-2.42
-2.12
-3.99
-8.08
-13.6
-19.3
-23.84
-26.21
-25.8
-22.4
-16.02
-6.82
4.72
17.81
31.28
43.76
53.97
60.99
64.34
64.02
60.4
54.09
45.93
36.89
27.99
20.04
13.51
8.41
4.38
1.02
-1.92
-4.37
-6.06
-6.83
-6.82
-6.49
-6.47
-7.24
-9
-11.62
-14.78
-18.2
-21.81
-25.82
-30.61
-36.53
-43.72
-51.96
-60.63
-68.88
-75.84
-80.9
-83.8
-84.74
-84.2
-82.83
-81.29
-80.19
-80.16
-81.68
-84.98
-89.62
-94.47
-97.83
-97.97
-93.88
-85.68
-74.72
-62.91
-51.89
-42.35
-33.94
-25.79
-17.28
-8.54
-0.43
5.94
9.97
11.98
13.03
14.33
16.69
20.12
24
27.57
30.37
32.55
34.69
37.44
41.1
45.42
49.74
53.27
55.45
56.18
55.78
54.79
53.65
52.57
51.48
50.19
48.61
46.78
44.92
43.23
41.76
40.33
38.63
36.38
33.48
29.99
26.12
22.12
18.24
14.68
11.57
8.97
6.84
5.07
3.54
2.26
1.44
1.45
2.66
5.19
8.82
12.93
16.77
19.75
21.56
22.3
22.23
21.63
20.64
19.28
17.57
15.68
13.87
12.39
11.37
10.66
9.99
9.07
7.82
6.37
4.94
3.71
2.61
1.34
-0.52
-3.21
-6.6
-10.23
-13.41
-15.5
-16.12
-15.29
-13.27
-10.44
-7.07
-3.22
1.07
5.68
10.29
14.38
17.41
19.11
19.54
19.08
18.26
17.46
16.86
16.36
15.75
14.86
13.73
12.5
11.38
10.48
9.79
9.17
8.46
7.5
6.22
4.57
2.53
0.1
-2.71
-5.77
-8.78
-11.31
-12.85
-13.03
-11.73
-9.13
-5.62
-1.66
2.34
6.15
9.65
12.7
15.11
16.63
17.08
16.47
15.08
13.36
11.82
10.75
10.17
9.9
9.68
9.36
8.9
8.38
7.83
7.16
6.18
4.69
2.61
0.01
-2.98
-6.26
-9.74
-13.33
-16.79
-19.63
-21.25
-21.07
-18.86
-14.88
-9.77
-4.37
0.61
4.78
8.08
10.6
12.44
13.6
14.07
13.92
13.45
13.02
13.01
13.5
14.3
14.99
15.16
14.57
13.25
11.43
9.44
7.53
5.8
4.23
2.72
1.16
-0.54
-2.44
-4.57
-6.97
-9.61
-12.36
-14.95
-16.94
-17.85
-17.3
-15.21
-11.81
-7.61
-3.15
1.14
5.05
8.53
11.56
14.06
15.89
16.9
17.13
16.77
16.17
15.65
15.38
15.31
15.23
14.92
14.26
13.22
11.85
10.21
8.37
6.4
4.44
2.66
1.18
-0.02
-1.15
-2.51
-4.41
-6.93
-9.89
-12.89
-15.39
-16.91
-17.05
-15.64
-12.72
-8.58
-3.73
1.23
5.74
9.4
12.09
13.92
15.06
15.69
15.88
15.68
15.11
14.33
13.54
12.95
12.66
12.63
12.66
12.54
12.04
11.06
9.56
7.65
5.48
3.26
1.25
-0.37
-1.55
-2.38
-3.11
-4.03
-5.4
-7.36
-9.82
-12.52
-15.02
-16.83
-17.49
-16.73
-14.54
-11.16
-7.02
-2.63
1.58
5.35
8.52
11.03
12.86
13.96
14.34
14.08
13.33
12.31
11.26
10.31
9.54
8.94
8.49
8.15
7.89
7.59
7.14
6.4
5.28
3.8
2.06
0.18
-1.72
-3.57
-5.4
-7.27
-9.26
-11.44
-13.83
-16.3
-18.65
-20.46
-21.29
-20.77
-18.75
-15.35
-10.94
-6.06
-1.23
3.08
6.57
9.1
10.68
11.47
11.69
11.61
11.46
11.4
11.51
11.82
12.21
12.58
12.79
12.67
12.12
11.08
9.59
7.78
5.82
3.89
2.07
0.41
-1.14
-2.61
-4.05
-5.44
-6.73
-7.87
-8.87
-9.89
-11.16
-12.88
-15.01
-17.28
-19.07
-19.71
-18.66
-15.8
-11.48
-6.43
-1.51
2.66
5.73
7.75
8.96
9.66
10.06
10.26
10.27
10.11
9.83
9.46
9.09
8.72
8.31
7.76
7.02
6.08
4.94
3.67
2.28
0.78
-0.89
-2.74
-4.74
-6.82
-8.87
-10.84
-12.75
-14.68
-16.71
-18.94
-21.39
-23.97
-26.46
-28.47
-29.57
-29.32
-27.53
-24.27
-19.95
-15.11
-10.31
-5.95
-2.22
0.88
3.41
5.36
6.78
7.74
8.45
9.19
10.16
11.43
12.8
14.01
14.82
15.16
15.15
14.99
14.73
14.23
13.26
11.62
9.35
6.7
4.02
1.55
-0.64
-2.68
-4.74
-6.88
-9.06
-11.18
-13.16
-14.96
-16.47
-17.49
-17.7
-16.79
-14.61
-11.28
-7.2
-2.85
1.28
4.92
7.94
10.32
12.05
13.1
13.49
13.27
12.63
11.77
10.92
10.2
9.63
9.12
8.6
7.99
7.24
6.36
5.32
4.11
2.73
1.21
-0.4
-2.06
-3.73
-5.43
-7.15
-8.92
-10.79
-12.87
-15.2
-17.7
-20.1
-21.88
-22.49
-21.52
-18.88
-14.89
-10.15
-5.31
-0.91
2.77
5.72
8.03
9.81
11.09
11.84
12.06
11.79
11.15
10.35
9.6
9.02
8.6
8.21
7.64
6.72
5.39
3.74
1.92
0.17
-1.41
-2.74
-3.87
-4.9
-5.92
-7.05
-8.41
-10.07
-12.02
-14.14
-16.15
-17.63
-18.15
-17.32
-15.02
-11.38
-6.82
-1.89
2.82
6.84
9.91
11.92
12.99
13.3
13.11
12.61
11.96
11.27
10.64
10.13
9.76
9.48
9.15
8.63
7.84
6.73
5.38
3.89
2.35
0.79
-0.81
-2.5
-4.28
-6.16
-8.15
-10.26
-12.52
-14.94
-17.46
-19.84
-21.73
-22.73
-22.44
-20.72
-17.67
-13.62
-9.05
-4.44
-0.16
3.57
6.63
8.98
10.58
11.4
11.5
11.01
10.15
9.15
8.27
7.6
7.18
6.86
6.47
5.84
4.9
3.68
2.34
1.01
-0.19
-1.23
-2.21
-3.22
-4.35
-5.73
-7.39
-9.38
-11.67
-14.11
-16.43
-18.21
-18.98
-18.4
-16.34
-13.02
-8.84
-4.35
0.01
3.92
7.23
9.86
11.79
12.92
13.21
12.71
11.6
10.19
8.85
7.85
7.32
7.21
7.35
7.56
7.7
7.69
7.51
7.11
6.45
5.47
4.18
2.6
0.83
-0.99
-2.76
-4.46
-6.18
-8.05
-10.16
-12.52
-14.95
-17.13
-18.58
-18.84
-17.59
-14.8
-10.73
-5.82
-0.63
4.38
8.86
12.63
15.59
17.68
18.86
19.16
18.68
17.67
16.44
15.29
14.46
13.96
13.66
13.36
12.87
12.11
11.1
9.94
8.66
7.22
5.5
3.46
1.16
-1.19
-3.32
-5.08
-6.5
-7.84
-9.44
-11.59
-14.31
-17.34
-20.24
-22.55
-23.86
-23.93
-22.71
-20.27
-16.83
-12.69
-8.22
-3.84
0.09
3.37
5.94
7.9
9.33
10.3
10.81
10.9
10.67
10.32
10.1
10.13
10.4
10.74
10.96
11
10.94
10.92
10.98
11
10.71
9.78
8.06
5.61
2.72
-0.21
-2.84
-5.02
-6.78
-8.31
-9.85
-11.58
-13.55
-15.68
-17.72
-19.33
-20.17
-19.95
-18.54
-15.95
-12.38
-8.18
-3.73
0.61
4.58
8.03
10.89
13.2
14.94
16.12
16.73
16.8
16.45
15.86
15.2
14.57
13.98
13.34
12.56
11.59
10.5
9.44
8.55
7.84
7.18
6.32
5.03
3.25
1.14
-1.03
-2.94
-4.47
-5.75
-7.07
-8.76
-10.98
-13.63
-16.32
-18.57
-19.9
-20.03
-18.85
-16.49
-13.18
-9.29
-5.21
-1.3
2.11
4.87
6.95
8.42
9.4
10.03
10.37
10.43
10.23
9.76
9.09
8.28
7.42
6.59
5.85
5.25
4.74
4.23
3.52
2.48
1.05
-0.76
-2.76
-4.76
-6.58
-8.2
-9.66
-11.1
-12.61
-14.23
-15.97
-17.76
-19.55
-21.23
-22.62
-23.39
-23.25
-21.91
-19.3
-15.61
-11.2
-6.55
-2.09
1.86
5.19
7.9
10.02
11.62
12.68
13.23
13.29
13
12.55
12.16
11.98
12
12.1
12.1
11.87
11.39
10.72
9.91
8.95
7.76
6.21
4.25
1.92
-0.6
-3.11
-5.37
-7.27
-8.81
-10.11
-11.35
-12.73
-14.37
-16.27
-18.27
-20.09
-21.39
-21.82
-21.22
-19.51
-16.79
-13.26
-9.2
-4.88
-0.56
3.52
7.13
10.08
12.25
13.6
14.25
14.38
14.24
14.03
13.88
13.81
13.76
13.64
13.34
12.82
12.1
11.23
10.33
9.47
8.62
7.7
6.59
5.22
3.61
1.92
0.25
-1.26
-2.62
-3.91
-5.26
-6.73
-8.38
-10.18
-12.1
-14.08
-16.03
-17.7
-18.71
-18.6
-17.06
-14.01
-9.74
-4.8
0.17
4.65
8.37
11.28
13.4
14.79
15.44
15.4
14.79
13.91
13.05
12.44
12.06
11.74
11.26
10.44
9.37
8.18
7.08
6.13
5.24
4.22
2.95
1.37
-0.43
-2.3
-4.09
-5.69
-7.05
-8.18
-9.17
-10.15
-11.27
-12.74
-14.65
-16.99
-19.52
-21.85
-23.46
-23.91
-22.94
-20.57
-17.06
-12.86
-8.46
-4.26
-0.51
2.66
5.23
7.21
8.63
9.52
9.91
9.86
9.41
8.65
7.71
6.72
5.87
5.28
4.98
4.86
4.71
4.3
3.47
2.22
0.69
-0.89
-2.33
-3.56
-4.69
-5.89
-7.34
-9.15
-11.3
-13.63
-15.93
-17.93
-19.34
-19.93
-19.45
-17.77
-14.91
-11.09
-6.74
-2.34
1.57
4.66
6.77
7.96
8.42
8.39
8.12
7.74
7.34
6.92
6.48
5.97
5.38
4.74
4.07
3.41
2.81
2.22
1.59
0.79
-0.27
-1.65
-3.33
-5.23
-7.22
-9.21
-11.19
-13.22
-15.39
-17.71
-20
-21.91
-22.97
-22.78
-21.1
-17.94
-13.6
-8.52
-3.26
1.65
5.81
8.98
11.14
12.44
13.19
13.68
14.07
14.36
14.34
13.8
12.63
10.98
9.12
7.43
6.14
5.3
4.71
4.09
3.2
1.98
0.44
-1.31
-3.19
-5.2
-7.35
-9.65
-12.07
-14.56
-17.09
-19.62
-22.07
-24.28
-25.92
-26.58
-25.89
-23.7
-20.13
-15.53
-10.41
-5.19
-0.25
4.19
7.96
10.92
13.02
14.31
14.95
15.17
15.22
15.26
15.31
15.29
15.13
14.77
14.21
13.46
12.56
11.5
10.27
8.88
7.3
5.58
3.8
2.06
0.44
-1.06
-2.54
-4.16
-6.1
-8.47
-11.19
-14.07
-16.78
-18.92
-20.11
-20.06
-18.63
-15.85
-11.88
-7.11
-2.02
2.83
6.92
9.92
11.78
12.72
13.08
13.21
13.31
13.42
13.52
13.58
13.65
13.78
13.98
14.12
14.01
13.48
12.49
11.16
9.66
8.15
6.68
5.18
3.51
1.5
-0.88
-3.6
-6.49
-9.35
-12.06
-14.54
-16.79
-18.74
-20.18
-20.74
-20.01
-17.74
-13.96
-9.05
-3.61
1.72
6.4
10.14
12.87
14.65
15.63
15.99
15.87
15.43
14.83
14.21
13.68
13.3
13.04
12.81
12.48
11.97
11.22
10.21
8.91
7.34
5.51
3.56
1.64
-0.1
-1.64
-3.1
-4.69
-6.61
-8.92
-11.54
-14.24
-16.73
-18.7
-19.84
-19.8
-18.33
-15.35
-11.06
-5.96
-0.74
3.95
7.68
10.35
12.07
13.1
13.54
13.47
12.87
11.82
10.55
9.36
8.56
8.25
8.32
8.46
8.35
7.74
6.61
5.08
3.34
1.58
-0.08
-1.61
-3.04
-4.41
-5.79
-7.24
-8.85
-10.66
-12.65
-14.66
-16.46
-17.71
-18.13
-17.49
-15.72
-12.85
-9.06
-4.67
-0.09
4.22
7.87
10.61
12.36
13.23
13.39
13.04
12.32
11.31
10.13
8.92
7.86
7.1
6.69
6.53
6.44
6.22
5.73
4.91
3.72
2.19
0.3
-1.88
-4.25
-6.6
-8.75
-10.62
-12.26
-13.86
-15.53
-17.19
-18.51
-18.99
-18.2
-15.94
-12.41
-8.06
-3.54
0.61
4.03
6.59
8.34
9.39
9.91
9.97
9.68
9.11
8.37
7.6
6.96
6.59
6.51
6.62
6.71
6.57
6.03
5.1
3.88
2.53
1.14
-0.34
-2.09
-4.26
-6.92
-9.94
-13.07
-15.99
-18.43
-20.15
-20.94
-20.57
-18.89
-15.87
-11.67
-6.74
-1.66
3.02
6.93
9.94
12.08
13.45
14.14
14.18
13.65
12.66
11.44
10.23
9.27
8.67
8.43
8.41
8.4
8.23
7.78
7.08
6.2
5.22
4.11
2.74
0.92
-1.47
-4.43
-7.73
-11.09
-14.22
-16.84
-18.75
-19.77
-19.65
-18.26
-15.52
-11.56
-6.75
-1.62
3.27
7.38
10.33
11.97
12.39
11.88
10.91
9.92
9.24
8.98
9.04
9.21
9.28
9.1
8.61
7.81
6.71
5.34
3.8
2.21
0.71
-0.6
-1.78
-2.96
-4.32
-5.98
-7.99
-10.27
-12.61
-14.72
-16.24
-16.81
-16.18
-14.26
-11.19
-7.31
-3.07
1.07
4.71
7.58
9.51
10.47
10.53
9.89
8.85
7.75
6.83
6.25
6.01
5.97
5.91
5.63
4.97
3.84
2.29
0.42
-1.61
-3.64
-5.58
-7.39
-9.12
-10.84
-12.7
-14.74
-16.9
-18.96
-20.53
-21.14
-20.51
-18.52
-15.38
-11.49
-7.27
-3.07
0.87
4.42
7.46
9.9
11.65
12.71
13.2
13.3
13.19
12.97
12.68
12.26
11.64
10.76
9.58
8.15
6.53
4.82
3.08
1.37
-0.29
-1.88
-3.38
-4.8
-6.22
-7.75
-9.57
-11.76
-14.21
-16.57
-18.32
-18.92
-18.03
-15.64
-12.04
-7.71
-3.12
1.36
5.49
9.1
12.03
14.16
15.41
15.83
15.57
14.86
13.94
13
12.22
11.71
11.54
11.66
11.9
11.98
11.62
10.66
9.11
7.17
5.09
3.05
1.11
-0.79
-2.75
-4.78
-6.82
-8.84
-10.85
-12.93
-15.1
-17.17
-18.74
-19.27
-18.34
-15.79
-11.93
-7.31
-2.58
1.77
5.53
8.68
11.31
13.43
15
15.97
16.34
16.22
15.82
15.36
15.02
14.88
14.89
14.95
14.91
14.65
14.1
13.22
12.01
10.49
8.68
6.66
4.55
2.51
0.67
-0.96
-2.5
-4.1
-5.85
-7.76
-9.75
-11.76
-13.81
-15.92
-17.98
-19.62
-20.28
-19.41
-16.75
-12.56
-7.52
-2.45
1.95
5.4
7.92
9.74
11.04
11.94
12.48
12.74
12.86
13.03
13.35
13.82
14.24
14.31
13.83
12.73
11.16
9.37
7.65
6.14
4.84
3.61
2.31
0.86
-0.73
-2.35
-3.96
-5.57
-7.25
-9.09
-11.13
-13.35
-15.63
-17.82
-19.7
-21.05
-21.62
-21.21
-19.71
-17.12
-13.64
-9.55
-5.23
-1.07
2.6
5.55
7.67
9.01
9.7
9.95
9.92
9.74
9.48
9.16
8.8
8.41
8.02
7.63
7.2
6.69
6.07
5.32
4.4
3.31
2.05
0.64
-0.85
-2.33
-3.76
-5.15
-6.56
-8.05
-9.69
-11.45
-13.26
-14.97
-16.42
-17.42
-17.74
-17.15
-15.53
-12.84
-9.23
-5.02
-0.62
3.57
7.16
9.89
11.67
12.57
12.8
12.64
12.35
12.07
11.83
11.57
11.3
11.04
10.88
10.84
10.84
10.71
10.25
9.38
8.1
6.6
5
3.39
1.72
-0.09
-2.07
-4.16
-6.22
-8.18
-9.99
-11.76
-13.62
-15.56
-17.42
-18.78
-19.19
-18.24
-15.81
-12.09
-7.52
-2.69
1.84
5.66
8.57
10.56
11.73
12.26
12.36
12.21
11.97
11.72
11.43
11.08
10.63
10.08
9.46
8.79
8.09
7.39
6.69
6
5.33
4.64
3.86
2.87
1.56
-0.12
-2.06
-4.11
-6.08
-7.95
-9.82
-11.84
-14.06
-16.29
-18.12
-18.99
-18.47
-16.41
-13.01
-8.71
-4.1
0.37
4.39
7.78
10.49
12.44
13.59
13.94
13.64
12.89
11.95
11.04
10.25
9.55
8.87
8.19
7.5
6.86
6.28
5.63
4.8
3.64
2.17
0.5
-1.21
-2.88
-4.51
-6.2
-8.06
-10.05
-12.11
-14.1
-15.93
-17.53
-18.77
-19.4
-19.09
-17.49
-14.49
-10.32
-5.5
-0.75
3.28
6.19
7.86
8.41
8.1
7.2
5.95
4.54
3.16
1.96
1.08
0.61
0.55
0.78
1.16
1.48
1.63
1.52
1.11
0.42
-0.51
-1.66
-2.95
-4.3
-5.62
-6.86
-7.98
-9.06
-10.2
-11.51
-13.07
-14.8
-16.43
-17.53
-17.61
-16.31
-13.57
-9.65
-5.13
-0.62
3.43
6.76
9.28
11.03
12.01
12.26
11.81
10.82
9.54
8.27
7.23
6.57
6.22
6
5.65
5.02
4.03
2.8
1.56
0.53
-0.18
-0.64
-1.08
-1.76
-2.87
-4.4
-6.26
-8.29
-10.38
-12.5
-14.62
-16.61
-18.25
-19.14
-18.94
-17.41
-14.56
-10.67
-6.19
-1.59
2.73
6.51
9.57
11.81
13.11
13.46
12.88
11.61
10.02
8.5
7.39
6.81
6.69
6.8
6.91
6.84
6.53
5.96
5.15
4.11
2.85
1.41
-0.13
-1.68
-3.17
-4.59
-5.99
-7.46
-9.12
-11.08
-13.37
-15.85
-18.17
-19.83
-20.28
-19.15
-16.39
-12.32
-7.52
-2.66
1.71
5.3
8.01
9.9
11.06
11.59
11.58
11.09
10.17
8.92
7.44
5.85
4.31
2.93
1.81
0.94
0.24
-0.39
-1.04
-1.74
-2.52
-3.42
-4.52
-5.89
-7.54
-9.38
-11.3
-13.14
-14.86
-16.51
-18.12
-19.63
-20.84
-21.37
-20.84
-18.96
-15.75
-11.51
-6.75
-2.04
2.17
5.64
8.25
10
10.87
10.87
10.08
8.74
7.23
5.98
5.32
5.33
5.78
6.25
6.33
5.82
4.73
3.27
1.7
0.15
-1.33
-2.81
-4.38
-6.06
-7.81
-9.6
-11.39
-13.2
-15.06
-16.93
-18.64
-19.89
-20.27
-19.42
-17.15
-13.57
-9.05
-4.2
0.35
4.14
6.96
8.89
10.16
11.01
11.54
11.73
11.51
10.89
10
9.09
8.38
7.94
7.68
7.33
6.63
5.45
3.84
2.05
0.41
-0.8
-1.5
-1.78
-1.92
-2.27
-3.08
-4.45
-6.29
-8.34
-10.32
-11.96
-13.07
-13.48
-13.03
-11.6
-9.11
-5.67
-1.58
2.77
6.93
10.56
13.46
15.56
16.86
17.36
17.06
16.06
14.55
12.81
11.15
9.81
8.85
8.15
7.46
6.53
5.21
3.51
1.59
-0.37
-2.21
-3.9
-5.53
-7.23
-9.15
-11.36
-13.84
-16.5
-19.18
-21.68
-23.74
-24.99
-25
-23.4
-20.06
-15.13
-9.14
-2.86
2.92
7.59
10.89
12.91
13.96
14.39
14.47
14.27
13.83
13.14
12.31
11.51
10.91
10.6
10.5
10.4
10.06
9.34
8.24
6.82
5.2
3.42
1.49
-0.63
-2.91
-5.28
-7.68
-10.05
-12.43
-14.85
-17.25
-19.41
-20.95
-21.41
-20.42
-17.85
-13.85
-8.9
-3.59
1.46
5.77
9.07
11.36
12.84
13.76
14.4
14.9
15.29
15.53
15.62
15.58
15.49
15.42
15.29
14.91
14.01
12.43
10.19
7.57
4.96
2.73
1.03
-0.23
-1.34
-2.61
-4.24
-6.26
-8.55
-10.95
-13.32
-15.5
-17.26
-18.24
-18.05
-16.42
-13.34
-9.13
-4.35
0.39
4.62
8.1
10.8
12.86
14.33
15.29
15.77
15.84
15.57
15.09
14.5
13.88
13.31
12.79
12.35
11.97
11.61
11.2
10.62
9.75
8.47
6.78
4.73
2.44
0.02
-2.44
-4.9
-7.34
-9.75
-12.16
-14.57
-16.99
-19.26
-21.09
-21.99
-21.45
-19.16
-15.17
-9.9
-3.99
1.86
7.12
11.48
14.81
17.07
18.26
18.5
17.95
16.89
15.59
14.31
13.19
12.28
11.54
10.91
10.31
9.67
8.96
8.13
7.19
6.13
4.91
3.55
2.02
0.37
-1.38
-3.18
-5.03
-6.93
-8.85
-10.74
-12.56
-14.23
-15.63
-16.66
-17.12
-16.77
-15.38
-12.77
-8.98
-4.27
0.88
5.87
10.16
13.4
15.46
16.44
16.56
16.07
15.18
14.07
12.92
11.92
11.26
11.08
11.32
11.8
12.21
12.27
11.82
10.88
9.58
8.06
6.43
4.68
2.84
0.92
-1.03
-2.95
-4.82
-6.71
-8.7
-10.87
-13.23
-15.64
-17.86
-19.57
-20.47
-20.3
-18.96
-16.47
-13.01
-8.83
-4.23
0.45
4.85
8.65
11.55
13.44
14.37
14.59
14.45
14.25
14.14
14.11
13.99
13.63
12.94
11.96
10.83
9.71
8.73
7.89
7.09
6.18
4.99
3.47
1.65
-0.35
-2.39
-4.41
-6.38
-8.3
-10.18
-12.04
-13.89
-15.74
-17.53
-19.05
-19.94
-19.73
-18.03
-14.72
-10.08
-4.72
0.6
5.25
8.89
11.46
13.08
13.91
14.03
13.51
12.49
11.23
10.06
9.29
9.01
9.1
9.31
9.38
9.19
8.79
8.31
7.86
7.48
7.08
6.59
5.98
5.25
4.39
3.33
1.92
0.04
-2.31
-5.04
-7.91
-10.71
-13.27
-15.49
-17.24
-18.32
-18.4
-17.21
-14.62
-10.85
-6.34
-1.71
2.54
6.11
8.91
10.96
12.29
12.95
13.01
12.65
12.12
11.69
11.46
11.34
11.09
10.49
9.49
8.27
7.09
6.13
5.39
4.68
3.7
2.32
0.53
-1.47
-3.43
-5.2
-6.73
-8.11
-9.47
-10.95
-12.57
-14.29
-16
-17.5
-18.5
-18.7
-17.86
-15.89
-12.91
-9.23
-5.3
-1.61
1.44
3.65
5.04
5.78
6.1
6.19
6.18
6.13
6.04
5.95
5.85
5.75
5.57
5.23
4.77
4.34
4.28
4.86
6.22
8.03
9.7
10.54
10.02
8.1
5.14
1.75
-1.51
-4.29
-6.53
-8.29
-9.72
-10.98
-12.25
-13.71
-15.39
-17.13
-18.44
-18.73
-17.5
-14.65
-10.57
-5.97
-1.61
2.03
4.82
6.94
8.57
9.77
10.44
10.42
9.67
8.34
6.76
5.3
4.28
3.91
4.25
5.21
6.58
8.05
9.21
9.71
9.26
7.73
5.25
2.13
-1.18
-4.19
-6.53
-8
-8.7
-8.95
-9.18
-9.77
-10.85
-12.24
-13.52
-14.26
-14.2
-13.31
-11.77
-9.8
-7.56
-5.17
-2.69
-0.27
1.86
3.42
4.2
4.19
3.65
2.96
2.45
2.31
2.53
2.94
3.36
3.67
3.85
3.93
3.9
3.63
2.98
1.83
0.26
-1.47
-2.99
-3.99
-4.34
-4.18
-3.88
-3.82
-4.31
-5.47
-7.16
-9.07
-10.77
-11.85
-11.93
-10.84
-8.58
-5.34
-1.5
2.51
6.25
9.31
11.41
12.39
12.27
11.2
9.5
7.53
5.72
4.33
3.48
3.1
3.07
3.29
3.71
4.33
5.06
5.77
6.23
6.19
5.5
4.1
2.06
-0.48
-3.39
-6.53
-9.73
-12.71
-15.21
-16.93
-17.72
-17.57
-16.65
-15.2
-13.46
-11.58
-9.58
-7.49
-5.37
-3.4
-1.82
-0.8
-0.31
-0.15
-0.04
0.19
0.53
0.77
0.69
0.26
-0.34
-0.81
-0.96
-0.8
-0.57
-0.49
-0.66
-0.98
-1.25
-1.33
-1.31
-1.37
-1.75
-2.54
-3.69
-5.06
-6.58
-8.24
-10.01
-11.82
-13.41
-14.37
-14.33
-13.09
-10.7
-7.49
-3.92
-0.43
2.68
5.26
7.28
8.76
9.62
9.79
9.17
7.84
6.02
4.08
2.38
1.15
0.44
0.08
-0.2
-0.62
-1.25
-2.03
-2.8
-3.48
-4.07
-4.7
-5.47
-6.41
-7.43
-8.44
-9.41
-10.4
-11.54
-12.8
-13.95
-14.56
-14.17
-12.49
-9.63
-5.98
-2.08
1.55
4.62
7.02
8.74
9.79
10.23
10.13
9.66
9.06
8.55
8.25
8.15
8.15
8.11
7.88
7.34
6.43
5.16
3.6
1.9
0.22
-1.35
-2.82
-4.33
-6.02
-7.93
-10.01
-12.08
-13.94
-15.36
-16.15
-16.06
-14.9
-12.58
-9.2
-5.07
-0.73
3.27
6.52
8.78
10.09
10.62
10.59
10.21
9.67
9.09
8.57
8.17
7.91
7.76
7.71
7.7
7.67
7.54
7.23
6.67
5.85
4.81
3.62
2.37
1.04
-0.43
-2.11
-4.07
-6.25
-8.5
-10.57
-12.17
-13.07
-13.09
-12.14
-10.3
-7.72
-4.64
-1.31
2.04
5.28
8.25
10.82
12.82
14.09
14.5
14.12
13.13
11.88
10.71
9.9
9.49
9.36
9.21
8.79
7.97
6.81
5.51
4.27
3.17
2.11
0.89
-0.65
-2.54
-4.59
-6.59
-8.34
-9.85
-11.2
-12.49
-13.64
-14.37
-14.33
-13.24
-11.03
-7.92
-4.33
-0.73
2.45
4.98
6.74
7.76
8.12
7.9
7.23
6.24
5.06
3.87
2.83
2.06
1.61
1.42
1.38
1.35
1.22
0.98
0.67
0.31
-0.08
-0.56
-1.23
-2.19
-3.51
-5.2
-7.23
-9.46
-11.66
-13.49
-14.55
-14.48
-13.09
-10.44
-6.84
-2.78
1.26
4.9
7.96
10.44
12.35
13.7
14.41
14.46
13.91
13.02
12.12
11.53
11.33
11.35
11.26
10.75
9.77
8.46
7.12
6.01
5.15
4.41
3.57
2.49
1.16
-0.37
-2.05
-3.93
-6.1
-8.64
-11.45
-14.22
-16.45
-17.65
-17.48
-15.89
-13.09
-9.51
-5.62
-1.84
1.57
4.46
6.74
8.4
9.39
9.76
9.58
9.01
8.3
7.63
7.19
7.02
7.12
7.39
7.74
8.07
8.28
8.28
8
7.37
6.45
5.31
4.09
2.93
1.88
0.9
-0.16
-1.52
-3.4
-5.86
-8.76
-11.72
-14.21
-15.66
-15.69
-14.23
-11.48
-7.82
-3.68
0.61
4.72
8.4
11.35
13.4
14.43
14.53
13.93
12.89
11.61
10.22
8.87
7.68
6.86
6.47
6.41
6.41
6.1
5.21
3.75
1.91
-0
-1.72
-3.11
-4.18
-5.01
-5.7
-6.38
-7.17
-8.2
-9.52
-11.09
-12.74
-14.15
-15.01
-15.05
-14.1
-12.17
-9.39
-5.99
-2.29
1.35
4.65
7.39
9.43
10.79
11.52
11.74
11.56
11.11
10.48
9.75
8.94
8.08
7.24
6.5
5.97
5.66
5.54
5.5
5.43
5.24
4.84
4.19
3.22
1.96
0.5
-0.98
-2.32
-3.4
-4.26
-5.08
-6.11
-7.53
-9.29
-11.05
-12.35
-12.71
-11.85
-9.79
-6.81
-3.32
0.22
3.44
6.07
8
9.21
9.74
9.69
9.2
8.45
7.64
6.95
6.44
6.11
5.88
5.64
5.28
4.77
4.17
3.56
3.01
2.52
2.02
1.4
0.62
-0.32
-1.33
-2.37
-3.42
-4.55
-5.79
-7.16
-8.61
-10.06
-11.46
-12.76
-13.85
-14.55
-14.56
-13.61
-11.62
-8.76
-5.47
-2.24
0.59
2.9
4.79
6.35
7.58
8.32
8.41
7.77
6.59
5.2
3.99
3.21
2.89
2.9
3
3
2.82
2.43
1.85
1.07
0.02
-1.33
-2.91
-4.58
-6.1
-7.27
-8.01
-8.37
-8.53
-8.68
-8.94
-9.32
-9.76
-10.2
-10.5
-10.58
-10.26
-9.36
-7.73
-5.36
-2.36
1
4.33
7.25
9.44
10.75
11.18
10.91
10.26
9.54
9.02
8.81
8.81
8.78
8.51
7.83
6.71
5.26
3.56
1.72
-0.25
-2.35
-4.58
-6.81
-8.86
-10.48
-11.56
-12.16
-12.55
-13.11
-14.15
-15.83
-18.01
-20.34
-22.4
-23.74
-24.05
-23.12
-20.91
-17.59
-13.48
-9.04
-4.72
-0.82
2.54
5.33
7.58
9.19
10.05
10.06
9.31
8.11
6.9
6.06
5.81
6.15
6.93
7.93
8.97
9.88
10.57
10.99
11.19
11.31
11.61
12.36
13.78
15.9
18.56
21.49
24.43
27.16
29.56
31.63
33.35
34.75
35.87
36.76
37.4
37.62
37.03
35.18
31.69
26.51
19.98
12.68
5.18
-2.21
-9.45
-16.61
-23.6
-30.08
-35.56
-39.72
-42.59
-44.54
-46.11
-47.65
-49.14
-50.34
-50.91
-50.69
-49.72
-48.25
-46.57
-44.86
-43.19
-41.56
-39.95
-38.35
-36.79
-35.29
-33.91
-32.72
-31.83
-31.37
-31.34
-31.62
-31.93
-31.86
-31.02
-29.2
-26.39
-22.93
-19.3
-15.95
-13.11
-10.7
-8.34
-5.59
-2.19
1.87
6.28
10.61
14.5
17.71
20.15
21.82
22.72
22.77
21.85
19.86
16.7
12.36
6.97
0.82
-5.65
-11.94
-17.68
-22.64
-26.79
-30.12
-32.53
-33.73
-33.3
-30.83
-26.09
-19.1
-10.12
0.3
11.29
21.83
30.77
37.27
40.95
42.05
41.36
39.86
38.39
37.4
36.94
36.72
36.4
35.76
34.77
33.57
32.33
31.22
30.24
29.3
28.2
26.82
25.2
23.53
22.08
21.02
20.35
19.85
19.25
18.34
17.09
15.58
13.96
12.33
10.77
9.42
8.47
8.17
8.69
10.06
12.14
14.76
17.77
21.12
24.72
28.38
31.72
34.31
35.81
36.22
35.8
34.94
33.92
32.73
31.18
29.05
26.37
23.48
20.85
18.88
17.66
16.96
16.4
15.64
14.5
12.96
10.9
8.18
4.58
0.06
-5.16
-10.63
-15.94
-20.92
-25.68
-30.48
-35.38
-40.07
-43.94
-46.33
-46.88
-45.7
-43.24
-40.03
-36.49
-32.79
-29.02
-25.32
-21.92
-19.11
-17.06
-15.72
-14.83
-14.04
-13.02
-11.62
-9.87
-7.96
-6.13
-4.61
-3.54
-2.97
-2.87
-3.14
-3.61
-4.13
-4.61
-5.05
-5.58
-6.27
-7.19
-8.28
-9.38
-10.28
-10.8
-10.83
-10.36
-9.41
-8.03
-6.27
-4.18
-1.9
0.39
2.42
3.95
4.83
5.05
4.75
4.11
3.34
2.52
1.75
1.07
0.55
0.3
0.31
0.44
0.51
0.3
-0.25
-1.1
-2.08
-3.09
-4.16
-5.38
-6.8
-8.38
-9.95
-11.41
-12.78
-14.27
-16.01
-17.91
-19.65
-20.67
-20.54
-19.09
-16.55
-13.34
-9.99
-6.86
-4.16
-2
-0.35
0.77
1.41
1.62
1.54
1.26
0.92
0.65
0.55
0.67
1
1.49
2
2.38
2.45
2.09
1.29
0.16
-1.12
-2.37
-3.49
-4.53
-5.7
-7.18
-9.1
-11.35
-13.58
-15.27
-15.92
-15.13
-12.85
-9.41
-5.43
-1.71
1.13
2.87
3.76
4.37
5.28
6.72
8.52
10.27
11.81
13.58
16.92
23.62
35.27
52.26
