6.72
5.91
5.46
5.48
6
6.92
8.01
8.99
9.63
9.86
9.78
9.58
9.46
9.44
9.37
9
8.11
6.63
4.69
2.58
0.61
-1.01
-2.3
-3.47
-4.84
-6.66
-9.04
-11.86
-14.85
-17.58
-19.59
-20.42
-19.74
-17.44
-13.74
-9.13
-4.32
0.07
3.61
6.21
8.07
9.47
10.63
11.5
11.93
11.76
11.01
9.98
9.08
8.69
8.99
9.82
10.86
11.74
12.25
12.42
12.39
12.32
12.21
11.93
11.29
10.13
8.48
6.49
4.39
2.4
0.62
-0.99
-2.55
-4.16
-5.92
-7.81
-9.85
-12.07
-14.53
-17.29
-20.25
-23.13
-25.47
-26.69
-26.3
-24.06
-20.11
-14.91
-9.18
-3.66
1.06
4.66
7.05
8.37
8.84
8.73
8.25
7.65
7.12
6.85
6.94
7.36
8.01
8.68
9.22
9.53
9.61
9.54
9.37
9.12
8.77
8.25
7.52
6.56
5.38
4
2.51
0.97
-0.58
-2.12
-3.66
-5.21
-6.77
-8.34
-9.96
-11.76
-13.87
-16.41
-19.19
-21.76
-23.46
-23.62
-21.9
-18.47
-13.94
-9.11
-4.64
-0.84
2.29
4.92
7.2
9.14
10.65
11.63
12.07
12.08
11.81
11.42
11.01
10.71
10.58
10.7
11.03
11.39
11.55
11.29
10.57
9.56
8.57
7.84
7.42
7.05
6.35
5.02
3.01
0.59
-1.79
-3.71
-5.01
-5.9
-6.79
-8.18
-10.41
-13.48
-17.09
-20.68
-23.65
-25.5
-25.91
-24.74
-22.04
-18.02
-13.03
-7.6
-2.35
2.12
5.38
7.32
8.15
8.23
7.95
7.53
7.08
6.68
6.43
6.47
6.92
7.71
8.59
9.24
9.39
9
8.29
7.61
7.32
7.55
8.14
8.69
8.78
8.12
6.63
4.52
2.16
-0.13
-2.15
-3.87
-5.43
-6.95
-8.56
-10.35
-12.36
-14.65
-17.16
-19.66
-21.73
-22.89
-22.73
-21.07
-18.07
-14.14
-9.78
-5.45
-1.48
1.94
4.68
6.68
7.93
8.53
8.68
8.57
8.36
8.13
7.87
7.57
7.28
7.07
7.01
7.15
7.38
7.58
7.6
7.34
6.8
6.06
5.2
4.3
3.36
2.32
1.1
-0.32
-1.91
-3.58
-5.23
-6.84
-8.45
-10.17
-12.13
-14.37
-16.79
-19.14
-20.98
-21.81
-21.16
-18.84
-14.98
-10.06
-4.78
0.17
4.34
7.59
10.01
11.73
12.81
13.16
12.71
11.55
9.98
8.46
7.44
7.12
7.43
8.07
8.67
8.96
8.84
8.34
7.55
6.58
5.51
4.49
3.66
3.07
2.66
2.2
1.34
-0.11
-2.15
-4.54
-6.91
-9.01
-10.78
-12.43
-14.21
-16.31
-18.73
-21.33
-23.82
-25.86
-27.04
-26.91
-25.14
-21.6
-16.53
-10.52
-4.4
1.09
5.41
8.39
10.09
10.72
10.52
9.77
8.77
7.86
7.34
7.36
7.84
8.54
9.17
9.52
9.58
9.43
9.2
8.98
8.81
8.66
8.5
8.22
7.7
6.76
5.28
3.26
0.94
-1.34
-3.28
-4.71
-5.78
-6.79
-8.11
-9.97
-12.46
-15.43
-18.6
-21.6
-23.95
-25.21
-24.99
-23.1
-19.62
-14.96
-9.7
-4.5
0.16
3.98
6.88
8.91
10.19
10.78
10.8
10.36
9.69
9.03
8.63
8.62
8.97
9.5
9.93
10.08
9.88
9.47
9.03
8.74
8.62
8.56
8.33
7.75
6.73
5.29
3.55
1.68
-0.14
-1.77
-3.16
-4.33
-5.37
-6.48
-7.83
-9.59
-11.85
-14.57
-17.59
-20.58
-23.1
-24.59
-24.54
-22.59
-18.73
-13.32
-7.06
-0.8
4.74
9.09
12.13
14.01
14.97
15.26
15.05
14.48
13.74
13.05
12.67
12.73
13.19
13.82
14.28
14.3
13.8
12.9
11.87
11
10.48
10.3
10.27
10.08
9.46
8.23
6.42
4.2
1.85
-0.41
-2.43
-4.24
-5.99
-7.89
-10.11
-12.65
-15.37
-17.88
-19.76
-20.58
-20.12
-18.39
-15.59
-12.05
-8.1
-3.96
0.19
4.15
7.67
10.5
12.37
13.19
13.02
12.14
10.91
9.68
8.73
8.2
8.14
8.53
9.25
10.12
10.94
11.5
11.65
11.3
10.46
9.21
7.67
6.01
4.38
2.85
1.45
0.14
-1.14
-2.48
-3.98
-5.74
-7.83
-10.27
-13.02
-15.9
-18.69
-21.1
-22.89
-23.84
-23.82
-22.7
-20.32
-16.66
-11.83
-6.27
-0.68
4.19
7.81
10.02
11.08
11.42
11.48
11.48
11.38
11.04
10.38
9.53
8.76
8.4
8.68
9.59
10.89
12.18
13.11
13.43
13.13
12.35
11.34
10.3
9.31
8.34
7.33
6.21
4.99
3.68
2.32
0.93
-0.54
-2.11
-3.86
-5.9
-8.34
-11.19
-14.3
-17.3
-19.66
-20.87
-20.62
-18.85
-15.81
-11.91
-7.54
-3.07
1.27
5.31
8.85
11.68
13.63
14.6
14.63
13.92
12.76
11.46
10.34
9.62
9.46
9.93
10.9
12.11
13.16
13.66
13.39
12.38
10.93
9.43
8.17
7.18
6.24
5.05
3.41
1.37
-0.83
-2.92
-4.71
-6.25
-7.74
-9.38
-11.28
-13.39
-15.59
-17.79
-19.92
-21.88
-23.43
-24.12
-23.43
-21.03
-16.9
-11.51
-5.59
-0
4.61
7.92
9.92
10.83
10.93
10.5
9.78
9.03
8.44
8.17
8.24
8.56
8.98
9.32
9.48
9.49
9.46
9.54
9.75
9.99
9.99
9.49
8.32
6.56
4.47
2.42
0.67
-0.68
-1.74
-2.69
-3.69
-4.87
-6.34
-8.23
-10.63
-13.53
-16.63
-19.35
-20.97
-20.89
-18.89
-15.27
-10.67
-5.9
-1.6
1.93
4.69
6.8
8.39
9.46
9.96
9.86
9.29
8.5
7.82
7.48
7.54
7.89
8.23
8.4
8.29
8
7.73
7.6
7.61
7.55
7.14
6.19
4.67
2.72
0.61
-1.42
-3.2
-4.67
-5.92
-7.06
-8.31
-9.84
-11.77
-14.1
-16.71
-19.31
-21.48
-22.8
-22.87
-21.5
-18.68
-14.73
-10.09
-5.31
-0.88
2.92
5.9
8.04
9.3
9.7
9.3
8.32
7.1
6.05
5.49
5.5
5.98
6.68
7.38
7.96
8.4
8.73
8.95
9.01
8.83
8.35
7.52
6.37
4.94
3.3
1.54
-0.2
-1.74
-2.97
-3.91
-4.79
-5.94
-7.69
-10.24
-13.48
-17.02
-20.24
-22.47
-23.18
-22.1
-19.31
-15.19
-10.29
-5.25
-0.61
3.2
5.97
7.69
8.53
8.75
8.65
8.43
8.22
8.05
7.96
7.99
8.19
8.6
9.16
9.74
10.18
10.37
10.25
9.85
9.24
8.49
7.66
6.81
6
5.23
4.45
3.55
2.39
0.89
-0.93
-2.97
-5.08
-7.14
-9.16
-11.19
-13.29
-15.46
-17.57
-19.34
-20.43
-20.54
-19.47
-17.2
-13.85
-9.73
-5.27
-1
2.63
5.25
6.8
7.47
7.66
7.81
8.22
8.9
9.69
10.3
10.54
10.39
10
9.6
9.33
9.29
9.43
9.68
9.96
10.19
10.35
10.37
10.16
9.59
8.51
6.87
4.74
2.38
0.06
-2
-3.74
-5.29
-6.85
-8.57
-10.53
-12.73
-15.09
-17.54
-19.89
-21.84
-22.97
-22.81
-21.1
-17.85
-13.46
-8.52
-3.68
0.59
4.02
6.56
8.27
9.28
9.77
9.89
9.8
9.6
9.35
9.04
8.6
8.02
7.34
6.7
6.25
6.14
6.36
6.78
7.17
7.29
6.98
6.21
5.09
3.75
2.33
0.86
-0.65
-2.21
-3.8
-5.35
-6.83
-8.31
-9.95
-11.91
-14.2
-16.59
-18.6
-19.68
-19.36
-17.48
-14.21
-9.99
-5.36
-0.86
3.12
6.36
8.74
10.29
11.1
11.29
11.03
10.48
9.8
9.15
8.66
8.44
8.5
8.81
9.26
9.77
10.25
10.63
10.79
10.59
9.9
8.68
7.06
5.27
3.61
2.23
1.09
-0.03
-1.4
-3.16
-5.24
-7.44
-9.57
-11.58
-13.67
-16.11
-19.02
-22.23
-25.24
-27.37
-28.06
-27.11
-24.7
-21.28
-17.38
-13.39
-9.57
-6.06
-3.06
-0.81
0.47
0.69
0.02
-1.18
-2.39
-3.22
-3.48
-3.27
-2.9
-2.78
-3.26
-4.53
-6.51
-8.79
-10.8
-11.9
-11.64
-10.02
-7.44
-4.69
-2.59
-1.7
-2.17
-3.74
-5.91
-8.2
-10.35
-12.33
-14.25
-16.27
-18.48
-20.84
-23.27
-25.54
-27.39
-28.41
-28.15
-26.19
-22.33
-16.79
-10.19
-3.44
2.64
7.57
11.3
14.17
16.55
18.65
20.36
21.44
21.69
21.18
20.28
19.48
19.16
19.39
20.03
20.75
21.26
21.46
21.43
21.4
21.69
22.55
24.04
25.99
27.99
29.59
30.33
29.95
28.41
25.97
23.1
20.36
18.26
17.05
16.66
16.69
16.64
16.07
14.82
13.1
11.31
9.84
8.91
8.56
8.69
9.24
10.27
11.79
13.71
15.77
17.65
19.06
19.88
20.17
20.1
19.84
19.44
18.88
18.15
17.3
16.47
15.81
15.42
15.28
15.25
15.14
14.84
14.36
13.76
13.14
12.54
11.9
11.12
10.09
8.79
7.2
5.39
3.43
1.42
-0.65
-2.88
-5.45
-8.56
-12.21
-16.14
-19.83
-22.59
-23.84
-23.33
-21.23
-18.03
-14.36
-10.72
-7.4
-4.48
-1.95
0.21
1.97
3.25
4.04
4.37
4.36
4.19
4.02
3.96
3.97
4.02
4.05
4.05
4.03
3.97
3.79
3.36
2.58
1.43
0
-1.58
-3.27
-5.13
-7.33
-10.03
-13.29
-16.96
-20.8
-24.56
-28.11
-31.43
-34.53
-37.35
-39.71
-41.36
-42.07
-41.81
-40.63
-38.71
-36.24
-33.28
-29.83
-25.9
-21.57
-17.15
-13.06
-9.7
-7.24
-5.51
-4.06
-2.37
-0.11
2.72
5.74
8.42
10.29
11.26
11.57
11.71
12.11
12.95
14.09
15.2
15.88
15.95
15.36
14.23
12.64
10.62
8.09
4.99
1.35
-2.69
-6.91
-11.09
-14.99
-18.34
-20.82
-22.12
-22.04
-20.63
-18.2
-15.21
-12.11
-9.19
-6.53
-4.08
-1.81
0.23
1.91
3.09
3.66
3.6
2.98
1.99
0.87
-0.05
-0.45
-0.15
0.76
1.9
2.73
2.74
1.7
-0.34
-2.99
-5.89
-8.74
-11.48
-14.15
-16.81
-19.46
-22.04
-24.59
-27.22
-30.12
-33.39
-36.96
-40.51
-43.59
-45.79
-46.85
-46.66
-45.17
-42.31
-38
-32.19
-25.06
-16.99
-8.61
-0.55
6.61
12.52
16.95
19.76
20.9
20.4
18.57
15.97
13.34
11.33
10.31
10.19
10.58
11.02
11.19
11.1
10.95
11.02
11.46
12.22
13.18
14.19
15.24
16.4
17.74
19.28
20.92
22.51
23.92
25.14
26.14
26.87
27.16
26.81
25.77
24.28
22.88
22.18
22.66
24.37
26.96
29.79
32.27
34.03
34.95
35.11
34.6
33.49
31.9
29.97
27.93
25.99
24.23
22.61
21.02
19.33
17.54
15.79
14.21
12.96
12.04
11.41
10.91
10.41
9.81
9.06
8.14
6.99
5.57
3.79
1.64
-0.81
-3.37
-5.82
-7.94
-9.6
-10.74
-11.3
-11.21
-10.32
-8.46
-5.58
-1.87
2.24
6.16
9.32
11.4
12.31
12.29
11.69
10.9
10.24
9.89
9.92
10.2
10.54
10.65
10.28
9.3
7.75
5.89
4.04
2.48
1.26
0.2
-1.02
-2.76
-5.21
-8.39
-12.1
-16.01
-19.78
-23.2
-26.22
-29.01
-31.78
-34.64
-37.46
-39.81
-41.11
-40.8
-38.63
-34.82
-29.94
-24.85
-20.33
-16.97
-15.03
-14.49
-15.1
-16.5
-18.38
-20.45
-22.55
-24.58
-26.43
-27.98
-29.08
-29.65
-29.64
-29.11
-28.13
-26.74
-24.9
-22.59
-19.86
-16.92
-14.19
-12.05
-10.77
-10.38
-10.63
-11.15
-11.6
-11.88
-12.12
-12.63
-13.74
-15.68
-18.48
-21.95
-25.77
-29.44
-32.44
-34.16
-34.17
-32.23
-28.52
-23.54
-17.97
-12.36
-7
-1.82
3.42
8.86
14.37
19.49
23.62
26.31
27.45
27.4
26.73
26.12
26.05
26.73
28.08
29.89
31.87
33.72
35.23
36.15
36.33
35.68
34.3
32.46
30.49
28.69
27.11
25.64
24.04
22.2
20.2
18.3
16.76
15.62
14.63
13.42
11.74
9.72
7.89
6.95
7.43
9.5
12.81
16.75
20.66
24.03
26.58
28.26
29.01
28.76
27.39
24.84
21.23
16.87
12.31
8.1
4.73
2.38
0.87
-0.19
-1.22
-2.45
-3.76
-4.81
-5.17
-4.6
-3.15
-1.21
0.62
1.73
1.61
-0.06
-3.28
-7.76
-12.99
-18.32
-23.14
-27.05
-29.96
-32.03
-33.6
-35.04
-36.6
-38.35
-40.15
-41.68
-42.47
-42.04
-40.02
-36.36
-31.35
-25.57
-19.68
-14.24
-9.57
-5.76
-2.8
-0.66
0.62
1.05
0.74
-0.1
-1.16
-2.21
-3.14
-3.94
-4.64
-5.21
-5.58
-5.66
-5.49
-5.22
-5.04
-5.08
-5.39
-5.9
-6.57
-7.4
-8.46
-9.8
-11.29
-12.73
-13.83
-14.47
-14.75
-15
-15.68
-17.08
-19.13
-21.31
-22.81
-22.79
-20.72
-16.6
-11
-4.81
1.04
5.89
9.54
12.11
13.95
15.33
16.42
17.15
17.38
17.05
16.26
15.33
14.6
14.36
14.67
15.32
15.96
16.27
16.14
15.66
15.05
14.48
13.93
13.25
12.19
10.64
8.64
6.41
4.17
2.09
0.21
-1.54
-3.28
-5.16
-7.31
-9.8
-12.66
-15.76
-18.83
-21.46
-23.18
-23.58
-22.43
-19.75
-15.75
-10.86
-5.51
-0.17
4.76
8.95
12.13
14.15
14.94
14.65
13.6
12.2
10.89
9.96
9.44
9.16
8.85
8.3
7.38
6.12
4.62
3.06
1.62
0.42
-0.54
-1.54
-3.02
-5.38
-8.75
-12.71
-16.36
-18.65
-18.74
-16.3
-11.47
-4.8
2.88
10.48
16.74
20.42
20.67
17.51
11.95
5.75
0.75
-1.75
-1.39
1.39
5.73
10.85
16.18
21.29
25.74
29.02
30.72
30.71
29.33
27.32
25.54
24.7
25.01
26.19
27.62
28.7
29.06
28.67
27.78
26.71
25.68
24.69
23.62
22.34
20.77
18.93
16.88
14.69
12.34
9.8
7.01
3.93
0.56
-3.05
-6.83
-10.62
-14.28
-17.66
-20.7
-23.4
-25.73
-27.54
-28.55
-28.36
-26.7
-23.55
-19.31
-14.63
-10.2
-6.46
-3.48
-1
1.31
3.6
5.71
7.31
8.09
8.01
7.27
6.27
5.37
4.72
4.31
4.02
3.77
3.6
3.65
4
4.59
5.3
5.94
6.41
6.69
6.77
6.55
5.85
4.46
2.33
-0.36
-3.23
-5.85
-7.99
-9.67
-11.15
-12.75
-14.7
-17.04
-19.63
-22.12
-24.1
-25.09
-24.69
-22.76
-19.47
-15.31
-10.94
-6.94
-3.6
-0.88
1.42
3.49
5.33
6.79
7.63
7.7
7.05
5.86
4.46
3.11
1.97
1.11
0.51
0.1
-0.17
-0.33
-0.46
-0.65
-1.01
-1.64
-2.64
-4.03
-5.76
-7.73
-9.75
-11.61
-13.12
-14.19
-14.87
-15.36
-15.99
-16.99
-18.49
-20.38
-22.37
-24.09
-25.2
-25.43
-24.74
-23.24
-21.14
-18.65
-15.85
-12.6
-8.61
-3.58
2.57
9.57
16.82
23.54
29.02
32.92
35.28
36.48
37.1
37.64
38.44
39.56
40.88
42.11
43.02
43.45
43.4
42.92
42.04
40.74
38.95
36.53
33.41
29.57
25.11
20.14
14.84
9.4
3.99
-1.22
-6.14
-10.75
-15.1
-19.18
-22.87
-25.85
-27.74
-28.17
-27
-24.4
-20.82
-16.88
-13.15
-10.08
-7.76
-6.08
-4.8
-3.72
-2.81
-2.29
-2.36
-3.13
-4.43
-5.84
-6.87
-7.2
-6.79
-5.83
-4.64
-3.51
-2.63
-2.06
-1.81
-1.83
-2.07
-2.42
-2.81
-3.23
-3.7
-4.37
-5.39
-6.86
-8.8
-11.07
-13.39
-15.44
-16.78
-17.06
-16.06
-13.79
-10.49
-6.62
-2.67
0.99
4.08
6.51
8.26
9.33
9.74
9.54
8.82
7.75
6.5
5.28
4.22
3.42
2.92
2.72
2.77
2.96
3.15
3.16
2.89
2.29
1.45
0.52
-0.28
-0.87
-1.27
-1.72
-2.57
-4.14
-6.5
-9.42
-12.33
-14.51
-15.35
-14.51
-12.09
-8.53
-4.45
-0.51
2.82
5.31
7.02
8.13
8.87
9.35
9.49
9.14
8.17
6.65
4.84
3.06
1.61
0.61
0.09
-0.02
0.21
0.68
1.2
1.57
1.55
1.09
0.28
-0.6
-1.35
-1.96
-2.69
-3.91
-5.89
-8.58
-11.56
-14.2
-15.86
-16.16
-15
-12.5
-8.93
-4.62
0.08
4.73
8.84
11.95
13.74
14.2
13.55
12.17
10.39
8.49
6.62
4.89
3.48
2.55
2.19
2.28
2.55
2.67
2.35
1.55
0.42
-0.74
-1.7
-2.35
-2.77
-3.15
-3.73
-4.7
-6.17
-8.19
-10.62
-13.19
-15.44
-16.88
-17.04
-15.75
-13.14
-9.62
-5.69
-1.76
1.87
5.13
7.96
10.31
12.07
13.08
13.27
12.68
11.48
9.93
8.33
6.92
5.86
5.17
4.79
4.62
4.56
4.53
4.43
4.15
3.54
2.48
0.96
-0.89
-2.88
-4.87
-6.83
-8.86
-11.06
-13.37
-15.5
-17.01
-17.45
-16.53
-14.27
-10.96
-7
-2.79
1.34
5.16
8.41
10.84
12.23
12.54
11.91
10.7
9.31
8.03
6.96
6.03
5.2
4.5
4.09
4.15
4.69
5.5
6.23
6.55
6.28
5.45
4.28
2.98
1.67
0.33
-1.13
-2.81
-4.78
-7.07
-9.61
-12.24
-14.67
-16.48
-17.28
-16.79
-14.94
-11.91
-8.07
-3.87
0.22
3.83
6.66
8.58
9.61
9.87
9.57
8.9
7.99
6.96
5.91
4.98
4.38
4.23
4.51
5.07
5.66
6.07
6.22
6.15
5.93
5.55
4.93
3.94
2.51
0.67
-1.42
-3.56
-5.6
-7.53
-9.38
-11.22
-13.01
-14.59
-15.72
-16.1
-15.49
-13.74
-10.88
-7.09
-2.7
1.78
5.8
8.86
10.67
11.28
10.97
10.14
9.11
8.03
6.93
5.88
5.03
4.58
4.59
4.9
5.13
4.97
4.32
3.45
2.77
2.56
2.79
3.08
2.99
2.28
1.02
-0.52
-2.08
-3.62
-5.33
-7.46
-10.06
-12.84
-15.16
-16.29
-15.79
-13.65
-10.39
-6.74
-3.33
-0.44
2.03
4.37
6.7
8.9
10.62
11.49
11.44
10.65
9.53
8.43
7.5
6.68
5.89
5.14
4.55
4.29
4.42
4.83
5.29
5.52
5.32
4.61
3.5
2.14
0.75
-0.5
-1.53
-2.46
-3.51
-4.98
-7.1
-9.88
-13.13
-16.38
-19.13
-20.9
-21.37
-20.39
-17.96
-14.23
-9.5
-4.29
0.78
5.07
8.14
9.84
10.35
10.05
9.3
8.34
7.24
6.01
4.71
3.49
2.59
2.13
2.13
2.44
2.88
3.3
3.61
3.8
3.81
3.58
3
2.06
0.8
-0.62
-2.06
-3.45
-4.88
-6.51
-8.44
-10.64
-12.81
-14.57
-15.51
-15.33
-13.96
-11.49
-8.18
-4.32
-0.29
3.56
6.87
9.36
10.88
11.42
11.15
10.28
9.09
7.8
6.57
5.51
4.69
4.11
3.76
3.64
3.7
3.88
4.03
4.01
3.69
3.02
2.08
1
-0.08
-1.06
-1.95
-2.8
-3.74
-4.94
-6.55
-8.64
-11.21
-14.06
-16.79
-18.89
-19.85
-19.33
-17.31
-14.08
-10.1
-5.94
-2.04
1.36
4.16
6.39
8.08
9.29
10.03
10.31
10.2
9.79
9.22
8.6
8.06
7.7
7.56
7.66
7.93
8.29
8.62
8.81
8.79
8.5
7.83
6.74
5.22
3.38
1.42
-0.41
-1.96
-3.24
-4.4
-5.69
-7.33
-9.41
-11.88
-14.57
-17.21
-19.52
-21.18
-21.84
-21.2
-19.17
-15.83
-11.58
-6.94
-2.44
1.56
4.95
7.75
9.99
11.61
12.46
12.42
11.59
10.32
9.13
8.43
8.4
8.86
9.46
9.84
9.83
9.48
8.99
8.52
8.11
7.65
6.99
6.02
4.69
3.07
1.26
-0.63
-2.5
-4.21
-5.61
-6.63
-7.33
-7.98
-8.99
-10.74
-13.36
-16.58
-19.7
-21.87
-22.4
-20.98
-17.78
-13.36
-8.35
-3.32
1.34
5.36
8.52
10.66
11.67
11.6
10.7
9.36
8.04
7.05
6.53
6.46
6.72
7.18
7.76
8.37
8.94
9.43
9.79
10.02
10.11
9.99
9.55
8.66
7.27
5.47
3.49
1.57
-0.14
-1.68
-3.27
-5.08
-7.12
-9.22
-11.12
-12.65
-13.92
-15.13
-16.41
-17.59
-18.18
-17.55
-15.3
-11.47
-6.61
-1.56
2.92
6.38
8.76
10.2
10.9
11
10.54
9.56
8.2
6.76
5.57
4.91
4.97
5.71
6.91
8.23
9.36
10.03
10.23
10.05
9.71
9.34
8.94
8.32
7.25
5.58
3.43
1.14
-0.86
-2.25
-3.02
-3.48
-4.1
-5.28
-7.22
-9.76
-12.56
-15.12
-16.99
-17.87
-17.6
-16.19
-13.74
-10.48
-6.67
-2.6
1.4
5.02
7.96
10
11.01
11.05
10.32
9.1
7.71
6.42
5.39
4.73
4.51
4.67
5.12
5.67
6.16
6.43
6.5
6.47
6.45
6.5
6.51
6.3
5.66
4.47
2.78
0.73
-1.42
-3.47
-5.29
-6.85
-8.21
-9.52
-10.96
-12.64
-14.52
-16.43
-18.06
-19.04
-19.11
-18.14
-16.16
-13.32
-9.84
-5.98
-2.07
1.52
4.53
6.72
8.09
8.77
8.97
8.94
8.81
8.69
8.6
8.51
8.46
8.44
8.48
8.56
8.68
8.78
8.87
8.94
9.02
9.07
9.02
8.74
8.09
7.02
5.54
3.77
1.79
-0.29
-2.41
-4.48
-6.4
-8.04
-9.36
-10.49
-11.67
-13.17
-15.11
-17.35
-19.44
-20.77
-20.8
-19.22
-16.07
-11.71
-6.72
-1.75
2.61
6.04
8.43
9.93
10.8
11.26
11.46
11.4
11.05
10.45
9.73
9.09
8.7
8.59
8.66
8.75
8.74
8.64
8.54
8.51
8.53
8.46
8.1
7.35
6.21
4.85
3.46
2.15
0.95
-0.24
-1.55
-3.06
-4.75
-6.57
-8.46
-10.4
-12.36
-14.3
-16.1
-17.54
-18.38
-18.47
-17.75
-16.3
-14.26
-11.73
-8.79
-5.58
-2.29
0.87
3.7
6.08
8.02
9.52
10.56
11.02
10.82
10
8.83
7.7
6.97
6.74
6.91
7.19
7.39
7.47
7.54
7.71
7.97
8.15
8.06
7.56
6.68
5.5
4.14
2.66
1.06
-0.64
-2.39
-4.1
-5.7
-7.18
-8.57
-9.98
-11.49
-13.16
-14.94
-16.73
-18.27
-19.3
-19.55
-18.79
-16.96
-14.15
-10.58
-6.6
-2.56
1.19
4.43
6.98
8.79
9.89
10.37
10.33
9.87
9.1
8.18
7.31
6.7
6.49
6.66
7.03
7.33
7.36
7.09
6.67
6.3
6.1
5.99
5.68
4.91
3.58
1.85
0.03
-1.52
-2.63
-3.36
-3.89
-4.48
-5.3
-6.44
-7.96
-9.91
-12.29
-14.98
-17.66
-19.76
-20.66
-19.92
-17.42
-13.49
-8.78
-3.99
0.3
3.79
6.45
8.34
9.52
10.02
9.86
9.1
7.93
6.58
5.3
4.31
3.73
3.63
3.97
4.61
5.37
6.07
6.57
6.83
6.87
6.73
6.39
5.74
4.64
3.05
1.07
-1.06
-3.06
-4.69
-5.94
-6.95
-7.98
-9.28
-10.96
-12.99
-15.16
-17.16
-18.6
-19.14
-18.5
-16.58
-13.45
-9.43
-5
-0.64
3.2
6.25
8.4
9.72
10.32
10.3
9.77
8.85
7.72
6.64
5.83
5.45
5.48
5.76
6.04
6.08
5.83
5.39
4.99
4.79
4.83
4.93
4.77
4.09
2.83
1.15
-0.65
-2.3
-3.69
-4.89
-6.06
-7.33
-8.81
-10.51
-12.46
-14.61
-16.81
-18.72
-19.88
-19.81
-18.27
-15.28
-11.23
-6.69
-2.24
1.66
4.79
7.03
8.41
8.98
8.84
8.12
7.03
5.79
4.64
3.8
3.41
3.53
4.12
4.99
5.94
6.76
7.36
7.74
8
8.23
8.39
8.35
7.93
7.02
5.63
3.95
2.2
0.57
-0.86
-2.14
-3.41
-4.88
-6.75
-9.13
-11.98
-14.96
-17.56
-19.17
-19.29
-17.74
-14.7
-10.66
-6.24
-2.02
1.62
4.49
6.65
8.21
9.33
10.06
10.37
10.16
9.4
8.18
6.82
5.67
5.04
4.98
5.33
5.79
6.12
6.25
6.28
6.33
6.4
6.39
6.14
5.53
4.58
3.39
2.09
0.73
-0.67
-2.12
-3.6
-5.09
-6.66
-8.5
-10.8
-13.62
-16.72
-19.54
-21.34
-21.56
-19.98
-16.94
-13.06
-9.05
-5.36
-2.13
0.79
3.57
6.24
8.6
10.32
11.16
11.05
10.19
8.91
7.6
6.53
5.88
5.67
5.86
6.34
6.97
7.6
8.11
8.36
8.26
7.74
6.78
5.43
3.87
2.28
0.86
-0.3
-1.29
-2.29
-3.58
-5.35
-7.69
-10.52
-13.62
-16.68
-19.32
-21.18
-21.92
-21.29
-19.18
-15.71
-11.28
-6.43
-1.84
1.88
4.38
5.61
5.81
5.38
4.61
3.61
2.31
0.57
-1.54
-3.73
-5.56
-6.65
-6.88
-6.5
-6.02
-5.93
-6.53
-7.8
-9.52
-11.44
-13.49
-15.73
-18.27
-21.12
-24.14
-27.07
-29.76
-32.26
-34.85
-37.84
-41.34
-45
-48
-49.28
-47.88
-43.29
-35.66
-25.71
-14.51
-3.21
7.29
16.43
24.07
30.31
35.39
39.44
42.44
44.22
44.59
43.45
40.98
37.53
33.53
29.31
25.02
20.64
16.11
11.51
7
2.75
-1.2
-5.04
-9.17
-14.05
-19.97
-27
-34.88
-43.19
-51.56
-59.77
-67.77
-75.61
-83.31
-90.82
-98.03
-104.65
-110.21
-113.85
-114.4
-110.59
-101.5
-87.04
-68.14
-46.57
-24.55
-4.05
13.51
27.41
37.47
43.92
47.22
48.09
47.38
46.06
44.94
44.55
45.16
46.82
49.51
53.23
58
63.82
70.59
78.14
86.17
94.34
102.25
109.44
115.46
119.9
122.49
123.17
122.16
119.95
117.18
114.54
112.57
111.59
111.63
112.37
113.15
112.91
110.36
104.26
93.78
78.94
60.78
41.15
22.2
5.75
-7.18
-16.47
-22.67
-26.56
-28.88
-30.05
-30.33
-29.83
-28.6
-26.69
-24.1
-20.87
-17.1
-13.08
-9.27
-6.13
-4.1
-3.47
-4.39
-6.87
-10.68
-15.46
-20.64
-25.69
-30.24
-34.2
-37.72
-41.02
-44.21
-47.19
-49.81
-51.98
-53.74
-55.22
-56.42
-57.13
-57.02
-55.87
-53.68
-50.79
-47.68
-44.72
-42.12
-39.82
-37.67
-35.47
-33.02
-30.12
-26.66
-22.61
-18.12
-13.52
-9.19
-5.4
-2.22
0.42
2.64
4.38
5.42
5.42
4.11
1.53
-1.95
-5.65
-8.79
-10.68
-10.98
-9.66
-7.04
-3.74
-0.57
1.64
2.19
0.82
-2.21
-6.06
-9.67
-12
-12.44
-10.99
-8.16
-4.81
-1.82
0.16
0.81
0.1
-1.74
-4.38
-7.45
-10.62
-13.61
-16.12
-17.86
-18.59
-18.18
-16.79
-14.84
-12.93
-11.58
-11
-11.04
-11.29
-11.28
-10.72
-9.55
-7.89
-5.84
-3.42
-0.52
2.93
6.91
11.2
15.51
19.52
22.95
25.54
27.03
27.2
25.92
23.3
19.7
15.73
12.14
9.6
8.56
9.22
11.42
14.8
18.89
23.17
27.25
30.89
33.95
36.44
38.33
39.57
40.08
39.82
38.87
37.45
35.92
34.64
33.84
33.58
33.67
33.83
33.84
33.54
32.93
32.01
30.72
28.88
26.25
22.67
18.11
12.7
6.64
0.08
-6.96
-14.55
-22.7
-31.22
-39.73
-47.7
-54.6
-60
-63.67
-65.52
-65.52
-63.75
-60.32
-55.42
-49.34
-42.38
-34.91
-27.24
-19.72
-12.64
-6.25
-0.75
3.76
7.28
9.89
11.7
12.79
13.25
13.11
12.48
11.55
10.54
9.75
9.43
9.74
10.75
12.38
14.47
16.84
19.26
21.5
23.35
24.68
25.45
25.68
25.44
24.73
23.44
21.47
18.72
15.22
11.16
6.79
2.33
-2.05
-6.34
-10.54
-14.62
-18.37
-21.5
-23.64
-24.52
-24.02
-22.26
-19.49
-16
-12.03
-7.65
-2.85
2.29
7.59
12.7
17.17
20.59
22.73
23.6
23.4
22.47
21.18
19.84
18.63
17.61
16.76
16.04
15.38
14.71
13.94
13
11.84
10.46
8.87
7.04
4.93
2.42
-0.56
-4.04
-7.87
-11.75
-15.26
-17.97
-19.58
-20.08
-19.77
-19.15
-18.75
-18.88
-19.44
-20.02
-19.97
-18.76
-16.18
-12.41
-8
-3.55
0.4
3.52
5.71
6.99
7.48
7.26
6.41
5.05
3.35
1.6
0.2
-0.42
-0.02
1.34
3.23
5.02
6.25
6.78
6.93
7.33
8.44
10.32
12.46
14.05
14.28
12.74
9.55
5.19
0.25
-4.79
-9.68
-14.22
-18.22
-21.4
-23.5
-24.4
-24.22
-23.29
-22.07
-20.92
-20.02
-19.27
-18.36
-16.85
-14.4
-10.91
-6.64
-2.19
1.76
4.68
6.39
7.16
7.54
8.03
8.91
10.08
11.23
12.03
12.3
12.08
11.54
10.91
10.33
9.9
9.67
9.71
10.08
10.81
11.87
13.12
14.33
15.27
15.77
15.77
15.39
14.78
14.05
13.19
12.03
10.34
8.04
5.27
2.38
-0.15
-2.06
-3.35
-4.32
-5.32
-6.59
-8.07
-9.5
-10.54
-10.95
-10.67
-9.76
-8.37
-6.64
-4.71
-2.78
-1.07
0.17
0.75
0.59
-0.27
-1.71
-3.58
-5.73
-7.96
-10.1
-11.92
-13.2
-13.77
-13.56
-12.59
-10.99
-8.95
-6.67
-4.31
-1.99
0.25
2.35
4.21
5.7
6.65
6.95
6.64
5.92
5.08
4.41
4
3.7
3.18
2.15
0.49
-1.66
-4.05
-6.43
-8.66
-10.72
-12.49
-13.71
-14.02
-13.13
-11.01
-8.03
-4.75
-1.74
0.69
2.55
4
5.17
5.99
6.2
5.56
4.06
1.96
-0.23
-2.05
-3.2
-3.66
-3.65
-3.41
-3.13
-2.84
-2.47
-2.02
-1.54
-1.22
-1.21
-1.57
-2.21
-2.94
-3.6
-4.14
-4.65
-5.24
-6.03
-6.99
-8.01
-8.93
-9.68
-10.31
-10.99
-11.83
-12.84
-13.82
-14.43
-14.31
-13.2
-11.04
-7.92
-4.09
0.1
4.24
7.93
10.83
12.79
13.85
14.25
14.28
14.1
13.69
12.97
11.92
10.73
9.77
9.44
9.92
11.09
12.55
13.88
14.77
15.09
14.88
14.18
13.02
11.39
9.38
7.13
4.85
2.67
0.63
-1.36
-3.46
-5.79
-8.37
-11.14
-13.99
-16.83
-19.55
-22
-23.99
-25.25
-25.56
-24.76
-22.83
-19.91
-16.22
-12.05
-7.72
-3.51
0.37
3.78
6.68
9.09
11.01
12.43
13.26
13.46
13.07
12.29
11.48
10.95
10.86
11.1
11.37
11.33
10.81
9.82
8.53
7.11
5.66
4.11
2.34
0.25
-2.17
-4.8
-7.48
-10.03
-12.33
-14.32
-15.99
-17.41
-18.7
-19.99
-21.39
-22.92
-24.47
-25.76
-26.48
-26.28
-24.92
-22.33
-18.61
-14.07
-9.14
-4.27
0.14
3.87
6.81
8.98
10.48
11.37
11.7
11.6
11.25
10.92
10.86
11.21
11.92
12.76
13.48
13.92
14.1
14.13
14.12
14.12
14.04
13.76
13.13
12.05
10.5
8.55
6.37
4.19
2.19
0.45
-1.15
-2.86
-4.97
-7.62
-10.85
-14.52
-18.45
-22.4
-26.1
-29.2
-31.21
-31.72
-30.47
-27.59
-23.51
-18.88
-14.27
-10.11
-6.6
-3.84
-1.86
-0.65
-0.09
0.08
0.2
0.61
1.48
2.75
4.19
5.6
6.86
8.04
9.26
10.6
11.99
13.34
14.51
15.43
16.02
16.17
15.7
14.52
12.7
10.51
8.37
6.59
5.23
3.99
2.37
-0.09
-3.52
-7.7
-12.12
-16.15
-19.22
-20.96
-21.19
-19.95
-17.47
-14.1
-10.31
-6.49
-2.93
0.2
2.81
4.85
6.23
6.89
6.87
6.36
5.7
5.23
5.24
5.79
6.8
8.07
9.37
10.54
11.49
12.16
12.53
12.58
12.36
11.89
11.21
10.32
9.18
7.8
6.26
4.7
3.36
2.39
1.75
1.2
0.33
-1.19
-3.51
-6.49
-9.81
-13.12
-16.16
-18.72
-20.64
-21.7
-21.65
-20.29
-17.62
-13.86
-9.44
-4.89
-0.68
2.8
5.34
6.87
7.5
7.44
6.97
6.39
5.92
5.71
5.83
6.26
6.95
7.81
8.71
9.54
10.23
10.74
11.09
11.26
11.2
10.85
10.16
9.15
7.88
6.42
4.88
3.33
1.81
0.38
-0.97
-2.25
-3.54
-4.96
-6.65
-8.69
-11.11
-13.88
-16.89
-19.95
-22.76
-24.94
-26.04
-25.71
-23.72
-20.18
-15.5
-10.3
-5.26
-0.86
2.72
5.62
8.16
10.62
13.04
15.25
16.97
17.99
18.3
18.14
17.86
17.75
17.9
18.2
18.49
18.63
18.62
18.57
18.52
18.39
17.99
17.14
15.81
14.19
12.6
11.24
10.11
9.02
7.65
5.85
3.68
1.41
-0.68
-2.51
-4.22
-6.12
-8.44
-11.25
-14.34
-17.39
-19.99
-21.77
-22.41
-21.66
-19.48
-16.09
-11.95
-7.65
-3.74
-0.49
2.09
4.15
5.8
7.04
7.73
7.8
7.31
6.46
5.54
4.81
4.41
4.45
4.95
5.87
7.1
8.45
9.67
10.57
11.07
11.21
11.07
10.7
10.09
9.23
8.09
6.68
5.04
3.16
1.13
-0.92
-2.79
-4.27
-5.28
-5.95
-6.58
-7.57
-9.2
-11.56
-14.45
-17.43
-19.95
-21.44
-21.49
-19.94
-16.93
-12.92
-8.53
-4.42
-1.09
1.23
2.58
3.17
3.27
3.09
2.8
2.49
2.23
2.09
2.09
2.16
2.21
2.16
1.97
1.74
1.63
1.82
2.39
3.33
4.47
5.6
6.48
6.93
6.88
6.32
5.41
4.34
3.36
2.62
2.13
1.68
0.96
-0.31
-2.23
-4.68
-7.37
-10.01
-12.44
-14.62
-16.52
-17.99
-18.7
-18.28
-16.55
-13.63
-9.92
-5.96
-2.16
1.25
4.24
6.82
8.95
10.55
11.56
12.05
12.13
11.99
11.77
11.52
11.31
11.16
11.15
11.31
11.6
11.88
11.96
11.73
11.15
10.33
9.42
8.54
7.71
6.85
5.85
4.62
3.12
1.38
-0.53
-2.54
-4.53
-6.42
-8.09
-9.52
-10.76
-12
-13.42
-15.17
-17.25
-19.56
-21.86
-23.89
-25.3
-25.79
-25.06
-23.02
-19.76
-15.58
-10.96
-6.34
-2.08
1.6
4.57
6.82
8.32
9.12
9.34
9.16
8.81
8.51
8.44
8.72
9.39
10.39
11.53
12.6
13.38
13.78
13.85
13.73
13.57
13.44
13.26
12.9
12.27
11.33
10.13
8.75
7.25
5.66
3.99
2.33
0.81
-0.48
-1.51
-2.4
-3.35
-4.61
-6.34
-8.51
-10.94
-13.24
-15.04
-15.99
-15.9
-14.73
-12.61
-9.75
-6.41
-2.92
0.43
3.36
5.65
7.22
8.08
8.39
8.31
8.01
7.55
6.99
6.34
5.69
5.16
4.82
4.65
4.5
4.19
3.6
2.78
1.9
1.15
0.63
0.26
-0.12
-0.68
-1.45
-2.37
-3.34
-4.33
-5.39
-6.57
-7.86
-9.12
-10.19
-11
-11.65
-12.37
-13.43
-14.93
-16.73
-18.5
-19.82
-20.33
-19.77
-18.06
-15.25
-11.54
-7.3
-3
0.86
3.93
6.1
7.51
8.4
9.02
9.43
9.55
9.3
8.76
8.21
7.96
8.23
8.97
9.89
10.61
10.94
10.9
10.72
10.59
10.55
10.43
10.01
9.2
8.07
6.84
5.66
4.55
3.43
2.21
0.95
-0.19
-1.01
-1.48
-1.78
-2.28
-3.34
-5.16
-7.67
-10.54
-13.37
-15.74
-17.31
-17.9
-17.38
-15.77
-13.19
-9.93
-6.31
-2.75
0.4
2.89
4.58
5.44
5.61
5.3
4.8
4.35
4.08
3.95
3.78
3.39
2.7
1.87
1.13
0.72
0.65
0.71
0.57
0.01
-0.93
-2.02
-2.96
-3.64
-4.23
-5
-6.22
-7.89
-9.78
-11.53
-12.9
-13.8
-14.35
-14.76
-15.19
-15.78
-16.55
-17.49
-18.54
-19.64
-20.68
-21.56
-22.2
-22.43
-22.05
-20.84
-18.64
-15.51
-11.72
-7.68
-3.76
-0.11
3.35
6.8
10.29
13.71
16.78
19.21
20.87
21.85
22.35
22.64
22.91
23.29
23.85
24.63
25.65
26.82
27.97
28.9
29.37
29.24
28.48
27.16
25.48
23.64
21.84
20.18
18.67
17.21
15.63
13.76
11.51
8.91
6.12
3.37
0.82
-1.47
-3.63
-5.89
-8.44
-11.3
-14.22
-16.77
-18.48
-19.01
-18.28
-16.42
-13.77
-10.71
-7.65
-4.89
-2.65
-1
0.13
0.84
1.25
1.43
1.4
1.23
0.96
0.7
0.53
0.56
0.84
1.39
2.21
3.23
4.35
5.39
6.1
6.31
5.89
4.82
3.23
1.28
-0.87
-3.07
-5.23
-7.24
-9.04
-10.59
-11.87
-12.91
-13.85
-14.85
-16.11
-17.74
-19.68
-21.7
-23.38
-24.24
-23.92
-22.26
-19.39
-15.7
-11.68
-7.75
-4.23
-1.23
1.22
3.16
4.67
5.85
6.85
7.88
9.14
10.67
12.39
14.05
15.35
16.11
16.27
15.93
15.3
14.55
13.81
13.09
12.34
11.49
10.5
9.33
8
6.54
5.01
3.43
1.83
0.18
-1.6
-3.56
-5.73
-8.08
-10.57
-13.18
-15.88
-18.61
-21.2
-23.28
-24.45
-24.39
-22.99
-20.44
-17.14
-13.54
-10
-6.75
-3.88
-1.43
0.57
2.13
3.27
4.08
4.6
4.85
4.77
4.31
3.57
2.74
2.12
1.95
2.32
3.13
4.14
5.1
5.85
6.35
6.62
6.71
6.58
6.17
5.41
4.32
2.97
1.54
0.19
-1.03
-2.11
-3.15
-4.22
-5.36
-6.59
-7.89
-9.35
-11.02
-12.94
-14.96
-16.8
-18.05
-18.31
-17.37
-15.28
-12.33
-8.97
-5.63
-2.61
-0.05
2.09
3.9
5.48
6.89
8.16
9.22
10.01
10.43
10.49
10.28
9.97
9.77
9.84
10.2
10.77
11.33
11.66
11.64
11.22
10.53
9.74
9.03
8.52
8.23
8.04
7.77
7.22
6.24
4.81
3.04
1.08
-0.87
-2.67
-4.23
-5.61
-6.97
-8.55
-10.57
-13.04
-15.73
-18.13
-19.64
-19.75
-18.25
-15.33
-11.48
-7.33
-3.41
-0.06
2.62
4.65
6.1
7
7.33
7.13
6.54
5.78
5.12
4.77
4.76
5
5.31
5.51
5.53
5.38
5.16
4.93
4.74
4.51
4.14
3.5
2.52
1.2
-0.37
-2.05
-3.64
-4.99
-6.02
-6.76
-7.41
-8.21
-9.38
-11
-12.92
-14.78
-16.11
-16.52
-15.91
-14.45
-12.48
-10.31
-8.03
-5.54
-2.67
0.59
3.97
7.06
9.48
11.02
11.8
12.09
12.22
12.33
12.48
12.59
12.67
12.81
13.2
13.96
15.11
16.52
17.93
19.05
19.68
19.72
19.27
18.45
17.41
16.18
14.71
12.93
10.81
8.47
6.13
4.02
2.29
0.9
-0.35
-1.75
-3.58
-5.97
-8.87
-12.04
-15.14
-17.77
-19.58
-20.3
-19.84
-18.26
-15.79
-12.77
-9.6
-6.64
-4.16
-2.26
-0.85
0.28
1.35
2.53
3.79
5
5.95
6.55
6.86
7.05
7.29
7.69
8.24
8.89
9.64
10.51
11.5
12.46
13.14
13.21
12.46
10.91
8.81
6.52
4.33
2.41
0.72
-0.87
-2.5
-4.25
-6.08
-7.88
-9.57
-11.15
-12.72
-14.5
-16.64
-19.14
-21.76
-24.05
-25.51
-25.72
-24.53
-22.09
-18.82
-15.2
-11.63
-8.33
-5.38
-2.74
-0.41
1.55
3.09
4.18
4.94
5.51
6.04
6.61
7.24
7.97
8.87
10.02
11.41
12.89
14.16
14.88
14.93
14.33
13.27
11.98
10.63
9.24
7.78
6.25
4.66
3.11
1.69
0.47
-0.54
-1.43
-2.35
-3.5
-5.07
-7.19
-9.79
-12.67
-15.48
-17.82
-19.38
-19.86
-19.15
-17.2
-14.14
-10.22
-5.81
-1.32
2.84
6.31
8.85
10.28
10.62
10.05
8.91
7.66
6.68
6.2
6.23
6.6
7.08
7.54
7.88
8.08
8.09
7.88
7.49
7.02
6.64
6.4
6.19
5.72
4.71
3
0.75
-1.58
-3.52
-4.77
-5.4
-5.8
-6.56
-8.11
-10.59
-13.72
-16.89
-19.43
-20.77
-20.64
-19.11
-16.5
-13.2
-9.54
-5.75
-1.98
1.6
4.79
7.36
9.13
10.05
10.23
9.88
9.24
8.44
7.54
6.6
5.72
5.12
5.02
5.44
6.26
7.15
7.69
7.68
7.14
6.29
5.42
4.73
4.19
3.65
2.91
1.89
0.63
-0.74
-2.13
-3.56
-5.11
-6.83
-8.73
-10.75
-12.81
-14.87
-16.86
-18.66
-19.98
-20.47
-19.76
-17.67
-14.37
-10.31
-6.12
-2.38
0.58
2.73
4.27
5.46
6.46
7.29
7.8
7.89
7.49
6.77
6.03
5.61
5.78
6.59
7.86
9.24
10.4
11.13
11.41
11.32
10.97
10.36
9.47
8.26
6.84
5.43
4.26
3.44
2.89
2.28
1.31
-0.2
-2.16
-4.37
-6.58
-8.67
-10.65
-12.6
-14.54
-16.36
-17.85
-18.8
-19.03
-18.47
-17.13
-15.06
-12.4
-9.32
-6.06
-2.87
-0.03
2.32
4.14
5.51
6.55
7.34
7.95
8.37
8.61
8.74
8.85
9.04
9.36
9.79
10.24
10.58
10.68
10.49
10.06
9.52
8.99
8.62
8.44
8.41
8.36
8.09
7.42
6.31
4.83
3.09
1.26
-0.5
-2.09
-3.38
-4.38
-5.13
-5.79
-6.55
-7.57
-8.86
-10.26
-11.43
-11.97
-11.51
-9.87
-7.14
-3.61
0.27
4.03
7.25
9.67
11.21
11.93
12.01
11.66
11.1
10.5
9.99
9.68
9.57
9.65
9.79
9.81
9.56
8.99
8.24
7.52
7.09
6.96
6.93
6.67
5.86
4.42
2.48
0.33
-1.75
-3.57
-5.06
-6.18
-6.88
-7.2
-7.34
-7.69
-8.7
-10.67
-13.49
-16.66
-19.37
-20.78
-20.36
-18.02
-14.17
-9.53
-4.89
-0.81
2.49
5.05
7.03
8.47
9.29
9.37
8.75
7.76
6.94
6.77
7.37
8.43
9.33
9.59
9.12
8.26
7.57
7.44
7.84
8.42
8.67
8.27
7.2
5.63
3.8
1.81
-0.4
-2.89
-5.66
-8.52
-11.2
-13.41
-15.06
-16.22
-17.14
-18.12
-19.39
-21.02
-22.87
-24.68
-26.07
-26.67
-26.18
-24.46
-21.56
-17.7
-13.3
-8.81
-4.69
-1.27
1.34
3.2
4.47
5.34
5.9
6.23
6.34
6.3
6.21
6.19
6.33
6.67
7.16
7.71
8.22
8.63
8.94
9.17
9.38
9.55
9.57
9.32
8.69
7.64
6.26
4.74
3.23
1.86
0.62
-0.54
-1.71
-3
-4.46
-6.1
-7.92
-9.89
-11.93
-13.93
-15.72
-17.11
-17.88
-17.8
-16.72
-14.6
-11.58
-7.99
-4.26
-0.83
2.02
4.16
5.68
6.78
7.64
8.38
8.96
9.28
9.27
8.97
8.57
8.3
8.38
8.86
9.62
10.41
10.98
11.18
10.99
10.49
9.79
8.96
8.05
7.11
6.21
5.42
4.74
4.11
3.43
2.6
1.56
0.33
-1.03
-2.46
-3.93
-5.5
-7.26
-9.27
-11.48
-13.75
-15.74
-17.06
-17.35
-16.4
-14.26
-11.22
-7.74
-4.27
-1.14
1.49
3.63
5.35
6.67
7.55
7.92
7.72
6.95
5.78
4.46
3.31
2.55
2.28
2.42
2.77
3.15
3.43
3.59
3.65
3.62
3.48
3.17
2.68
2.04
1.32
0.63
0.03
-0.5
-1.05
-1.72
-2.63
-3.87
-5.48
-7.46
-9.71
-12.01
-14.13
-15.79
-16.81
-17.13
-16.74
-15.64
-13.79
-11.12
-7.65
-3.63
0.52
4.27
7.21
9.13
10.13
10.48
10.45
10.2
9.77
9.13
8.33
7.52
6.97
6.86
7.21
7.82
8.39
8.63
8.5
8.13
7.77
7.59
7.62
7.69
7.58
7.13
6.3
5.16
3.75
2.08
0.14
-1.99
-4.13
-6
-7.38
-8.24
-8.77
-9.28
-10.12
-11.53
-13.55
-16.03
-18.62
-20.9
-22.4
-22.82
-21.98
-19.94
-16.89
-13.08
-8.78
-4.27
0.16
4.16
7.36
9.54
10.65
10.9
10.62
10.17
9.79
9.57
9.54
9.66
9.89
10.16
10.4
10.5
10.36
9.98
9.42
8.79
8.22
7.74
7.33
6.87
6.25
5.37
4.21
2.79
1.19
-0.42
-1.83
-2.86
-3.45
-3.68
-3.77
-4.02
-4.67
-5.82
-7.46
-9.47
-11.69
-13.92
-15.92
-17.33
-17.75
-16.85
-14.55
-11.08
-6.97
-2.88
0.68
3.51
5.72
7.59
9.34
11.01
12.41
13.34
13.7
13.6
13.34
13.21
13.33
13.59
13.73
13.55
13.04
12.36
11.74
11.32
11.05
10.72
10.14
9.16
7.79
6.13
4.26
2.27
0.23
-1.73
-3.52
-5.05
-6.33
-7.47
-8.59
-9.77
-11.04
-12.44
-14.09
-16.21
-18.91
-22.05
-25.08
-27.19
-27.59
-25.86
-22.15
-17.16
-11.84
-7.08
-3.42
-0.96
0.53
1.44
2.08
2.56
2.86
2.89
2.65
2.27
2.01
2.13
2.71
3.64
4.68
5.64
6.43
7.15
7.9
8.72
9.47
9.93
9.88
9.27
8.19
6.84
5.39
3.97
2.59
1.2
-0.27
-1.87
-3.71
-5.83
-8.25
-10.86
-13.42
-15.58
-16.98
-17.33
-16.55
-14.71
-12.08
-9
-5.83
-2.84
-0.2
2.04
3.86
5.3
6.33
6.91
6.99
6.61
5.92
5.16
4.64
4.57
5.03
5.89
6.86
7.66
8.09
8.14
7.92
7.62
7.36
7.14
6.85
6.32
5.49
4.35
2.97
1.42
-0.22
-1.93
-3.65
-5.3
-6.79
-8.08
-9.33
-10.74
-12.54
-14.76
-17.14
-19.11
-20.06
-19.55
-17.46
-14.12
-10.07
-5.87
-1.9
1.7
4.96
7.83
10.17
11.79
12.53
12.44
11.75
10.82
9.95
9.34
9.07
9.15
9.54
10.21
11.1
12.1
13.07
13.86
14.35
14.47
14.21
13.64
12.87
12.01
11.05
9.88
8.34
6.34
3.94
1.4
-1
-3.06
-4.84
-6.65
-8.82
-11.51
-14.57
-17.59
-20.03
-21.45
-21.69
-20.81
-19.03
-16.61
-13.77
-10.73
-7.74
-5.02
-2.81
-1.22
-0.25
0.24
0.38
0.26
-0.08
-0.59
-1.1
-1.4
-1.21
-0.45
0.81
2.32
3.74
4.86
5.61
6.12
6.56
7.07
7.72
8.42
9.03
9.34
9.16
8.37
7.02
5.27
3.33
1.36
-0.6
-2.62
-4.79
-7.11
-9.53
-11.93
-14.15
-16.08
-17.54
-18.32
-18.17
-16.88
-14.43
-11.06
-7.21
-3.35
0.17
3.22
5.81
7.94
9.56
10.56
10.83
10.38
9.44
8.35
7.5
7.13
7.31
7.88
8.58
9.16
9.5
9.65
9.69
9.72
9.68
9.42
8.77
7.67
6.24
4.69
3.24
1.95
0.78
-0.44
-1.87
-3.64
-5.72
-8.03
-10.4
-12.62
-14.45
-15.59
-15.79
-14.87
-12.8
-9.71
-5.89
-1.78
2.17
5.55
8.1
9.76
10.66
11.02
11.01
10.75
10.27
9.64
8.96
8.41
8.14
8.17
8.42
8.7
8.83
8.67
8.19
7.45
6.54
5.58
4.69
3.9
3.13
2.28
1.18
-0.22
-1.9
-3.71
-5.49
-7.17
-8.82
-10.63
-12.71
-15.01
-17.26
-18.99
-19.71
-19.08
-17.01
-13.7
-9.56
-5.13
-0.89
2.76
5.57
7.48
8.53
8.91
8.89
8.71
8.59
8.61
8.78
9.02
9.25
9.41
9.45
9.36
9.13
8.83
8.57
8.47
8.56
8.69
8.6
8.01
6.8
5.12
3.29
1.69
0.5
-0.34
-1.14
-2.24
-3.86
-5.94
-8.28
-10.6
-12.66
-14.27
-15.25
-15.39
-14.5
-12.53
-9.64
-6.21
-2.71
0.41
2.92
4.83
6.28
7.46
8.51
9.45
10.22
10.79
11.11
11.13
10.87
10.3
9.49
8.56
7.67
6.99
6.61
6.51
6.59
6.74
6.81
6.7
6.29
5.54
4.46
3.22
2
0.96
0.15
-0.58
-1.45
-2.69
-4.43
-6.61
-9.06
-11.57
-13.91
-15.83
-17.02
-17.18
-16.1
-13.75
-10.39
-6.49
-2.6
0.84
3.63
5.77
7.42
8.73
9.82
10.69
11.33
11.8
12.15
12.5
12.89
13.31
13.67
13.87
13.81
13.43
12.71
11.65
10.31
8.78
7.16
5.56
4.06
2.67
1.37
0.14
-1.09
-2.43
-3.98
-5.9
-8.28
-11.11
-14.27
-17.5
-20.46
-22.83
-24.31
-24.75
-24.07
-22.33
-19.67
-16.27
-12.34
-8.13
-3.97
-0.26
2.61
4.34
4.84
4.27
3
1.46
0
-1.14
-1.94
-2.43
-2.74
-2.98
-3.23
-3.54
-3.9
-4.23
-4.46
-4.59
-4.67
-4.87
-5.35
-6.2
-7.32
-8.39
-8.91
-8.38
-6.56
-3.58
-0.04
3.18
5.23
5.6
4.32
1.97
-0.56
-2.45
-3.18
-2.63
-1
1.41
4.33
7.57
10.99
14.39
17.46
19.85
21.29
21.67
21.18
20.2
19.12
18.23
17.56
16.96
16.2
15.13
13.81
12.49
11.42
10.74
10.42
10.2
9.86
9.23
8.34
7.27
6.1
4.8
3.24
1.38
-0.68
-2.74
-4.54
-6.04
-7.43
-9.08
-11.26
-13.94
-16.63
-18.6
-19.17
-18.02
-15.27
-11.41
-7.06
-2.75
1.16
4.47
7.06
8.87
9.94
10.39
10.42
10.24
9.92
9.45
8.76
7.84
6.8
5.83
5.11
4.72
4.63
4.71
4.84
4.93
4.95
4.88
4.68
4.2
3.32
1.9
-0.05
-2.45
-5.11
-7.78
-10.23
-12.29
-13.9
-15.1
-16.02
-16.77
-17.34
-17.59
-17.29
-16.2
-14.26
-11.59
-8.47
-5.23
-2.13
0.66
3.09
5.12
6.73
7.91
8.68
9.12
9.29
9.25
8.99
8.48
7.69
6.73
5.75
4.95
4.46
4.24
4.11
3.77
2.98
1.61
-0.26
-2.35
-4.3
-5.81
-6.74
-7.23
-7.65
-8.42
-9.9
-12.15
-14.96
-17.79
-20.01
-21.05
-20.63
-18.84
-16
-12.53
-8.83
-5.18
-1.77
1.26
3.73
5.5
6.46
6.58
5.96
4.84
3.51
2.29
1.43
1.03
1.09
1.51
2.12
2.78
3.34
3.67
3.68
3.33
2.62
1.65
0.55
-0.63
-1.93
-3.48
-5.43
-7.79
-10.4
-13
-15.31
-17.19
-18.6
-19.55
-19.98
-19.7
-18.53
-16.43
-13.58
-10.36
-7.15
-4.27
-1.87
-0.01
1.3
2.04
2.24
2.04
1.71
1.6
1.99
2.99
4.51
6.31
8.14
9.78
11.15
12.21
13.03
13.65
14.05
14.13
13.63
12.28
9.87
6.34
1.88
-3.11
-8.11
-12.58
-16.08
-18.32
-19.17
-18.65
-16.98
-14.41
-11.27
-7.84
-4.27
-0.59
3.2
7.11
11.01
14.72
17.99
20.62
22.57
23.92
24.8
25.3
25.45
25.19
24.53
23.56
22.43
21.17
19.67
17.66
14.93
11.58
8.12
5.37
4.03
4.35
5.94
7.9
9.17
9.08
7.54
4.98
2.11
-0.55
-2.8
-4.82
-6.98
-9.52
-12.45
-15.44
-18.02
-19.71
-20.21
-19.51
-17.79
-15.29
-12.3
-8.95
-5.37
-1.74
1.67
4.52
6.46
7.27
7.05
6.13
5.09
4.47
4.62
5.52
6.81
7.97
8.53
8.31
7.48
6.43
5.58
5.13
5.02
4.99
4.82
4.43
3.95
3.57
3.4
3.35
3.18
2.63
1.58
0.09
-1.69
-3.6
-5.59
-7.66
-9.76
-11.68
-13.09
-13.64
-13.12
-11.59
-9.29
-6.58
-3.79
-1.14
1.22
3.22
4.77
5.86
6.49
6.67
6.45
5.87
5.01
4
3.03
2.25
1.72
1.37
1.03
0.58
0.02
-0.54
-0.98
-1.21
-1.33
-1.5
-1.85
-2.42
-3.11
-3.79
-4.39
-4.94
-5.55
-6.38
-7.49
-8.86
-10.37
-11.82
-12.96
-13.56
-13.43
-12.4
-10.46
-7.72
-4.39
-0.83
2.6
5.55
7.75
9.13
9.73
9.7
9.2
8.38
7.28
5.93
4.36
2.72
1.22
0.13
-0.33
-0.12
0.57
1.42
2.04
2.14
1.62
0.58
-0.77
-2.2
-3.55
-4.78
-5.94
-7.13
-8.42
-9.84
-11.37
-12.96
-14.5
-15.82
-16.69
-16.87
-16.14
-14.47
-12.05
-9.23
-6.46
-4.11
-2.39
-1.25
-0.54
-0.1
0.16
0.25
0.18
0.01
-0.15
-0.2
-0.09
0.15
0.49
0.96
1.68
2.76
4.26
6.03
7.77
9.11
9.69
9.36
8.21
6.49
4.46
2.36
0.28
-1.75
-3.75
-5.71
-7.59
-9.3
-10.79
-11.93
-12.57
-12.51
-11.58
-9.69
-6.95
-3.68
-0.32
2.69
5.06
6.64
7.45
7.56
7.06
6.06
4.71
3.18
1.68
0.39
-0.57
-1.13
-1.32
-1.18
-0.77
-0.19
0.46
1.02
1.38
1.44
1.18
0.65
-0.09
-1
-2.09
-3.39
-4.89
-6.57
-8.39
-10.22
-11.97
-13.49
-14.57
-14.98
-14.46
-12.9
-10.35
-7.14
-3.73
-0.67
1.65
3.06
3.57
3.36
2.62
1.53
0.25
-1.03
-2.14
-2.96
-3.49
-3.85
-4.24
-4.75
-5.32
-5.71
-5.61
-4.84
-3.5
-1.92
-0.6
0.08
-0
-0.63
-1.38
-1.84
-1.8
-1.33
-0.75
-0.48
-0.8
-1.75
-3.06
-4.27
-4.84
-4.33
-2.56
0.39
4.11
8.03
11.56
14.3
16.12
17.13
17.55
17.58
17.28
16.64
15.63
14.25
12.66
11.03
9.61
8.52
7.83
7.51
7.46
7.53
7.56
7.36
6.87
6.08
5.07
3.98
2.9
1.89
0.98
0.22
-0.35
-0.74
-1.1
-1.59
-2.36
-3.31
-4.11
-4.23
-3.22
-0.9
2.45
6.3
10.1
13.55
16.71
19.86
23.2
26.71
30.07
32.89
34.89
36.05
36.63
37.03
37.68
38.92
40.9
43.47
46
47.38
46.08
40.65
30.26
15.22
-3.03
-22.22
-40.02
-54.71
-65.57
-72.94
-77.77
-81.18
-84.06
-86.85
-89.63
-92.22
-94.37
-95.75
-96.07
-95.03
-92.41
-88.18
-82.61
-76.32
-70.19
-65.05
-61.4
-59.15
-57.68
-56.11
-53.75
-50.32
-46.07
-41.55
-37.29
-33.53
-30.17
-26.87
-23.31
-19.44
-15.49
-11.9
-9.1
-7.31
-6.51
-6.55
-7.22
-8.34
-9.67
-10.83
-11.35
-10.71
-8.58
-4.96
-0.24
5
10.21
15.13
19.9
25.02
31.08
38.53
47.35
57.01
66.56
75.01
81.66
86.38
89.63
92.29
95.31
99.4
104.71
110.8
116.62
120.84
122.31
120.44
115.44
108.2
99.89
91.42
83.12
74.71
65.6
55.3
43.69
31.11
18.19
5.67
-5.72
-15.41
-23.1
-28.85
-33.07
-36.43
-39.65
-43.37
-48.11
-54.25
-61.96
-71.13
-81.13
-90.85
-98.92
-104.21
-106.18
-105.14
-101.88
-97.22
-91.48
-84.33
-75.1
-63.27
-48.92
-32.79
-16.12
-0.28
13.62
24.81
32.99
38.25
41
41.86
41.55
40.74
39.93
39.38
39.13
39.12
39.23
39.35
39.39
39.24
38.85
38.12
37.04
35.61
33.92
32.14
30.56
29.55
29.4
30.24
31.94
34.12
36.33
38.15
39.35
39.9
39.88
39.43
38.59
37.39
35.85
33.99
31.89
29.62
27.26
24.84
22.36
19.8
17.1
14.16
10.87
7.13
2.94
-1.57
-6.14
-10.42
-14.13
-17.08
-19.24
-20.72
-21.7
-22.35
-22.76
-22.84
-22.49
-21.61
-20.2
-18.42
-16.56
-14.88
-13.61
-12.82
-12.44
-12.33
-12.31
-12.26
-12.09
-11.76
-11.3
-10.81
-10.41
-10.18
-10.09
-9.95
-9.5
-8.57
-7.14
-5.41
-3.68
-2.23
-1.2
-0.6
-0.39
-0.51
-0.95
-1.65
-2.53
-3.46
-4.4
-5.44
-6.77
-8.59
-10.92
-13.56
-16.12
-18.11
-19.16
-19
-17.56
-14.94
-11.41
-7.37
-3.27
0.45
3.49
5.7
7.09
7.68
7.51
6.6
5.04
3.06
0.92
-1.04
-2.65
-3.84
-4.7
-5.36
-5.91
-6.36
-6.66
-6.82
-6.91
-7.08
-7.5
-8.24
-9.18
-10.12
-10.82
-11.19
-11.36
-11.64
-12.45
-14.07
-16.49
-19.4
-22.15
-24
-24.27
-22.63
-19.2
-14.54
-9.43
-4.61
-0.6
2.41
4.47
5.75
6.39
6.53
6.34
6.07
6.03
6.41
7.21
8.17
8.92
9.13
8.75
7.95
7.07
6.42
6.12
6.15
6.33
6.47
6.4
5.99
5.21
4.06
2.62
1.05
-0.51
-1.97
-3.29
-4.56
-5.86
-7.31
-8.92
-10.6
-12.12
-13.15
-13.33
-12.44
-10.49
-7.73
-4.59
-1.54
1.08
3.14
4.67
5.79
6.62
7.24
7.68
7.99
8.18
8.24
8.16
7.95
7.7
7.55
7.62
7.88
8.23
8.47
8.51
8.39
8.26
8.25
8.33
8.28
7.83
6.76
5.08
3.04
1.01
-0.66
-1.84
-2.61
-3.14
-3.69
-4.41
-5.4
-6.63
-7.98
-9.29
-10.31
-10.83
-10.65
-9.71
-8.03
-5.75
-3.06
-0.17
2.68
5.25
7.35
8.85
9.7
9.99
9.9
9.62
9.28
8.94
8.62
8.31
8.02
7.77
7.57
7.44
7.35
7.34
7.39
7.48
7.48
7.26
6.73
5.91
4.98
4.14
3.49
3.01
2.53
1.91
1.05
-0.06
-1.36
-2.85
-4.52
-6.39
-8.36
-10.22
-11.67
-12.41
-12.27
-11.23
-9.46
-7.24
-4.87
-2.64
-0.71
0.87
2.16
3.24
4.17
4.94
5.44
5.57
5.22
4.43
3.31
2.07
0.93
0.03
-0.56
-0.9
-1.19
-1.64
-2.46
-3.72
-5.4
-7.33
-9.35
-11.33
-13.22
-15.09
-17.01
-19.03
-21.11
-23.22
-25.3
-27.38
-29.46
-31.49
-33.34
-34.77
-35.61
-35.73
-35.11
-33.77
-31.75
-29.04
-25.67
-21.74
-17.41
-12.91
-8.44
-4.18
-0.21
3.41
6.69
9.62
12.23
14.58
16.74
18.76
20.7
22.57
24.44
26.33
28.23
30.15
32.02
33.76
35.34
36.68
37.76
38.54
38.98
39.07
38.9
38.61
38.37
38.33
38.55
38.99
39.52
40.02
40.42
40.68
40.83
40.81
40.57
39.96
38.93
37.5
35.84
34.19
32.79
31.74
31.03
30.51
30.04
29.54
28.95
28.26
27.39
26.2
24.53
22.33
19.71
16.91
14.2
11.8
9.72
7.85
5.99
3.94
1.49
-1.54
-5.27
-9.68
-14.55
-19.45
-23.85
-27.23
-29.3
-30.14
-30.18
-30.04
-30.17
-30.74
-31.51
-31.98
-31.61
-30.04
-27.18
-23.19
-18.29
-12.79
-7.05
-1.55
3.14
6.5
8.26
8.56
7.82
6.51
4.83
2.62
-0.51
-4.83
-10.28
-16.39
-22.39
-27.52
-31.3
-33.55
-34.42
-34.15
-32.98
-31.14
-28.86
-26.32
-23.73
-21.23
-18.92
-16.83
-14.98
-13.37
-11.96
-10.69
-9.5
-8.35
-7.27
-6.38
-5.8
-5.52
-5.38
-5.06
-4.25
-2.73
-0.51
2.25
5.31
8.44
11.43
14.06
16.16
17.58
18.31
18.44
18.14
17.54
16.64
15.32
13.48
11.22
8.87
6.84
5.43
4.72
4.49
4.48
4.46
4.4
4.4
4.52
4.69
4.68
4.17
2.96
0.92
-1.87
-5.28
-9.15
-13.27
-17.36
-21.08
-24.07
-26.07
-27.05
-27.23
-27.03
-26.93
-27.25
-28.02
-29.04
-29.96
-30.51
-30.59
-30.24
-29.54
-28.42
-26.72
-24.2
-20.71
-16.35
-11.4
-6.21
-1.15
3.55
7.73
11.3
14.13
16.13
17.28
17.62
17.28
16.39
15.06
13.37
11.38
9.17
6.85
4.5
2.16
-0.17
-2.56
-5.02
-7.58
-10.19
-12.71
-14.86
-16.28
-16.59
-15.54
-13.1
-9.57
-5.51
-1.64
1.44
3.41
4.32
4.45
4.23
3.95
3.79
3.75
3.73
3.68
3.52
3.23
2.81
2.26
1.61
0.9
0.26
-0.23
-0.5
-0.62
-0.72
-0.94
-1.42
-2.23
-3.34
-4.71
-6.19
-7.62
-8.88
-9.92
-10.85
-11.82
-12.98
-14.31
-15.58
-16.47
-16.73
-16.33
-15.52
-14.62
-13.86
-13.16
-12.33
-11.15
-9.73
-8.42
-7.72
-7.87
-8.75
-9.84
-10.49
-10.22
-8.87
-6.6
-3.77
-0.78
1.99
4.17
5.53
5.95
5.53
4.51
3.19
1.81
0.43
-0.97
-2.42
-3.92
-5.4
-6.76
-7.91
-8.72
-9.03
-8.67
-7.6
-5.9
-3.84
-1.8
-0.12
1.02
1.57
1.55
1.06
0.2
-0.89
-2.04
-3.08
-3.9
-4.45
-4.81
-5.06
-5.3
-5.58
-5.93
-6.32
-6.68
-6.93
-6.98
-6.77
-6.29
-5.61
-4.82
-4.08
-3.55
-3.45
-3.93
-5.08
-6.84
-8.98
-11.14
-12.89
-13.8
-13.57
-12.06
-9.32
-5.67
-1.56
2.48
6.05
8.9
10.97
12.3
12.96
13
12.48
11.52
10.31
9.11
8.08
7.29
6.66
6.03
5.29
4.46
3.77
3.54
4.02
5.28
6.96
8.39
8.71
7.29
4.05
-0.46
-5.34
-9.75
-13.38
-16.65
-20.41
-25.49
-32.21
-40.11
-47.97
-54.16
-56.93
-54.96
-47.79
-36.17
-22
-7.87
3.69
11.1
14.12
13.7
11.22
7.72
3.41
-2.34
-10.59
-22.22
-37.45
-55.48
-74.29
-90.71
-100.92
-101.53
-90.86
-69.88
-42.2
-12.86
13.34
33.46
46.97
55.18
60.03
62.92
64.35
64.22
62.49
59.59
56.3
53.36
51.02
49
46.78
44.03
40.9
38.02
36.09
35.62
36.57
38.41
40.29
41.42
41.36
40.11
38.08
35.85
33.88
32.42
31.36
30.38
29.1
27.27
24.86
22.1
19.35
16.98
15.19
13.99
13.18
12.48
11.67
10.65
9.46
8.23
7.07
6.09
5.41
5.09
5.1
5.15
4.72
3.12
-0.11
-4.92
-10.59
-15.96
-19.85
-21.55
-21.06
-18.97
-16.11
-13.16
-10.43
-7.95
-5.66
-3.53
-1.62
0.05
1.51
2.81
3.9
4.54
4.41
3.23
1.03
-1.87
-4.87
-7.36
-9.01
-9.86
-10.37
-11.24
-13.15
-16.52
-21.51
-27.87
-35.04
-42.25
-48.56
-53.05
-54.95
-53.89
-50.02
-44.05
-37.06
-30.09
-23.83
-18.39
-13.43
-8.49
-3.3
2.07
7.28
11.94
15.88
19.1
21.72
23.77
25.17
25.74
25.33
23.91
21.71
19.1
16.51
14.28
12.6
11.45
10.6
9.82
8.87
7.67
6.34
5.02
3.87
2.94
2.2
1.64
1.35
1.44
1.95
2.79
3.67
4.21
4.14
3.31
1.84
-0.05
-2.1
-4.11
-5.92
-7.36
-8.22
-8.31
-7.49
-5.79
-3.34
-0.37
2.91
6.35
9.82
13.21
16.36
19.05
21.09
22.38
22.95
22.98
22.75
22.52
22.5
22.82
23.48
24.39
25.39
26.34
27.15
27.77
28.18
28.35
28.22
27.76
26.95
25.84
24.55
23.26
22.13
21.24
20.56
19.96
19.27
18.38
17.29
16.03
14.65
13.13
11.39
9.49
7.57
5.97
5.11
5.31
6.62
8.85
11.56
14.31
16.78
18.72
19.97
20.44
20.1
19.04
17.48
15.73
14.03
12.51
11.16
9.92
8.74
7.56
6.41
5.26
4.1
2.9
1.69
0.54
-0.52
-1.55
-2.76
-4.39
-6.55
-9.12
-11.73
-13.88
-15.18
-15.54
-15.19
-14.58
-14.09
-13.97
-14.23
-14.74
-15.34
-15.91
-16.27
-16.21
-15.52
-14.06
-11.93
-9.44
-6.94
-4.68
-2.59
-0.35
2.33
5.51
8.95
12.15
14.7
16.41
17.39
17.88
18.13
18.21
18.11
17.78
17.31
16.85
16.62
16.63
16.75
16.7
16.17
15.05
13.45
11.63
9.84
8.23
6.82
5.56
4.39
3.28
2.17
0.98
-0.38
-1.94
-3.61
-5.27
-6.81
-8.21
-9.5
-10.68
-11.68
-12.28
-12.24
-11.44
-9.9
-7.79
-5.32
-2.69
-0.09
2.27
4.11
5.27
5.68
5.55
5.19
4.97
5.09
5.56
6.22
6.92
7.56
8.13
8.71
9.33
10
10.67
11.28
11.79
12.14
12.25
12.01
11.33
10.16
8.5
6.42
4.04
1.51
-1
-3.32
-5.37
-7.14
-8.77
-10.4
-12.1
-13.78
-15.19
-16.05
-16.18
-15.53
-14.24
-12.54
-10.61
-8.59
-6.53
-4.5
-2.64
-1.16
-0.3
-0.16
-0.67
-1.49
-2.12
-2.16
-1.43
-0.11
1.36
2.55
3.25
3.53
3.62
3.67
3.65
3.33
2.54
1.32
-0.04
-1.14
-1.69
-1.68
-1.37
-1.12
-1.23
-1.78
-2.7
-3.77
-4.83
-5.83
-6.77
-7.78
-8.95
-10.29
-11.67
-12.87
-13.64
-13.76
-13.17
-11.93
-10.18
-8.08
-5.73
-3.28
-0.86
1.28
2.87
3.72
3.83
3.43
2.95
2.76
2.98
3.4
3.54
2.98
1.66
-0
-1.34
-1.77
-1.17
0.03
1.16
1.63
1.32
0.49
-0.4
-1.04
-1.47
-1.94
-2.59
-3.33
-3.89
-4.19
-4.57
-5.78
-8.51
-12.9
-18.23
-23.2
-26.51
-27.54
-26.53
-24.36
-21.91
-19.55
-17.03
-13.93
-10.15
-6.16
-2.9
-1.17
-1.26
-2.75
-4.76
-6.42
-7.21
-7.02
-6.04
-4.49
-2.47
0.01
2.87
5.88
8.67
10.86
12.15
12.41
11.72
10.3
8.46
6.49
4.63
2.95
1.32
-0.5
-2.74
-5.42
-8.27
-10.84
-12.63
-13.38
-13.15
-12.31
-11.32
-10.6
-10.4
-10.74
-11.48
-12.32
-12.89
-12.8
-11.74
-9.68
-6.88
-3.9
-1.38
0.18
0.63
0.21
-0.56
-1.2
-1.47
-1.34
-0.99
-0.58
-0.17
0.3
0.91
1.64
2.41
3.08
3.55
3.79
3.78
3.51
2.96
2.09
0.92
-0.39
-1.67
-2.76
-3.64
-4.4
-5.21
-6.21
-7.41
-8.69
-9.85
-10.71
-11.15
-11.19
-10.84
-10.17
-9.18
-7.96
-6.6
-5.27
-4.09
-3.05
-2.08
-0.99
0.25
1.5
2.49
2.91
2.67
1.91
0.98
0.22
-0.21
-0.39
-0.49
-0.59
-0.64
-0.48
-0.03
0.6
1.15
1.36
1.09
0.47
-0.25
-0.85
-1.24
-1.5
-1.84
-2.47
-3.48
-4.82
-6.31
-7.69
-8.73
-9.25
-9.15
-8.47
-7.36
-6.02
-4.65
-3.42
-2.38
-1.49
-0.61
0.35
1.45
2.66
3.87
4.95
5.8
6.35
6.56
6.45
6.04
5.48
4.93
4.61
4.63
4.96
5.48
5.99
6.34
6.45
6.3
5.83
5
3.81
2.34
0.8
-0.6
-1.75
-2.71
-3.65
-4.74
-6.04
-7.44
-8.74
-9.73
-10.23
-10.14
-9.39
-7.97
-5.93
-3.42
-0.76
1.72
3.69
5.03
5.79
6.15
6.32
6.43
6.51
6.52
6.43
6.26
6.13
6.08
6.14
6.24
6.31
6.25
6.06
5.75
5.31
4.73
3.89
2.77
1.39
-0.11
-1.51
-2.65
-3.49
-4.17
-4.9
-5.95
-7.48
-9.43
-11.56
-13.46
-14.69
-14.96
-14.25
-12.74
-10.78
-8.68
-6.63
-4.66
-2.74
-0.89
0.79
2.11
2.95
3.35
3.48
3.55
3.7
3.9
4.04
4.01
3.83
3.65
3.63
3.8
4.04
4.16
4
3.55
3.01
2.58
2.36
2.27
2.04
1.42
0.27
-1.32
-3.12
-4.89
-6.48
-7.9
-9.15
-10.17
-10.8
-10.83
-10.1
-8.63
-6.63
-4.36
-2.13
-0.11
1.6
2.97
4.05
4.85
5.43
5.81
6.02
6.04
5.93
5.68
5.35
4.99
4.65
4.32
3.96
3.6
3.29
3.1
3.12
3.32
3.6
3.75
3.58
2.96
1.91
0.55
-0.89
-2.27
-3.49
-4.59
-5.71
-6.99
-8.44
-9.9
-11.09
-11.68
-11.47
-10.44
-8.7
-6.49
-3.96
-1.26
1.44
3.89
5.78
6.82
6.91
6.22
5.11
4.05
3.4
3.34
3.81
4.64
5.55
6.26
6.6
6.46
5.93
5.22
4.56
4.1
3.84
3.6
3.13
2.26
0.97
-0.55
-2.09
-3.45
-4.6
-5.62
-6.71
-8.02
-9.56
-11.23
-12.74
-13.75
-13.98
-13.33
-11.95
-10.19
-8.48
-7.1
-6.13
-5.5
-5.09
-4.91
-5.03
-5.56
-6.33
-6.88
-6.54
-4.76
-1.47
2.76
6.89
9.85
10.99
10.32
8.44
6.31
4.88
4.8
6.35
9.37
13.37
17.59
21.21
23.52
24.21
23.47
21.93
20.43
19.71
20.14
21.78
24.41
27.74
31.47
35.29
38.84
41.76
43.75
44.74
44.92
44.64
44.24
43.8
43.15
41.92
39.68
36.18
31.4
25.58
19.15
12.67
6.67
1.59
-2.37
-5.23
-7.2
-8.54
-9.52
-10.31
-11
-11.67
-12.47
-13.58
-15.15
-17.14
-19.25
-21.02
-22.01
-21.91
-20.75
-18.77
-16.27
-13.49
-10.5
-7.29
-3.84
-0.27
3.14
6.11
8.46
10.2
11.51
12.64
13.74
14.9
16.12
17.52
19.34
21.92
25.47
29.85
34.41
38.12
39.9
39.04
35.53
30
23.47
16.96
11.17
6.44
2.81
0.25
-1.28
-1.88
-1.77
-1.3
-0.85
-0.66
-0.71
-0.67
-0.07
1.47
4.11
7.63
11.48
14.91
17.15
17.59
15.93
12.2
6.76
0.2
-6.78
-13.53
-19.47
-24.21
-27.52
-29.38
-29.92
-29.39
-28.11
-26.35
-24.34
-22.24
-20.09
-17.94
-15.81
-13.73
-11.68
-9.66
-7.57
-5.38
-3.08
-0.86
1
2.2
2.65
2.59
2.54
3.12
4.74
7.4
10.69
13.93
16.43
17.7
17.56
16
13.21
9.46
5.18
0.96
-2.55
-4.76
-5.41
-4.62
-2.86
-0.73
1.21
2.63
3.42
3.62
3.36
2.67
1.58
0.14
-1.57
-3.42
-5.27
-7.07
-8.84
-10.69
-12.74
-15.14
-17.97
-21.28
-24.96
-28.74
-32.1
-34.42
-35.03
-33.52
-29.82
-24.35
-17.8
-11
-4.68
0.65
4.69
7.27
8.33
7.89
6.09
3.22
-0.35
-4.22
-8.04
-11.54
-14.61
-17.29
-19.7
-22.02
-24.3
-26.41
-28.14
-29.18
-29.41
-28.93
-28.08
-27.24
-26.7
-26.53
-26.55
-26.54
-26.33
-25.92
-25.44
-25.03
-24.79
-24.64
-24.39
-23.75
-22.48
-20.37
-17.35
-13.44
-8.76
-3.58
1.72
6.79
11.31
15.09
18.12
20.41
22
22.87
22.98
22.37
21.19
19.68
18.11
16.71
15.51
14.43
13.36
12.18
10.8
9.17
7.26
5.02
2.5
-0.22
-2.98
-5.62
-8.02
-10.06
-11.72
-13.03
-14.07
-14.99
-15.96
-17.14
-18.58
-20.21
-21.76
-22.88
-23.18
-22.4
-20.51
-17.77
-14.63
-11.59
-9.04
-7.16
-5.91
-5.1
-4.5
-3.95
-3.36
-2.67
-1.89
-1.02
-0.1
0.79
1.59
2.31
3
3.76
4.65
5.62
6.6
7.46
8.15
8.61
8.79
8.6
7.93
6.76
5.2
3.46
1.8
0.38
-0.76
-1.71
-2.65
-3.76
-5.16
-6.87
-8.73
-10.48
-11.76
-12.16
-11.44
-9.59
-6.87
-3.73
-0.62
2.12
4.33
5.99
7.11
7.75
7.99
7.98
7.86
7.79
7.83
7.95
8.01
7.88
7.47
6.81
6.05
5.34
4.75
4.33
4.01
3.76
3.59
3.51
3.52
3.51
3.29
2.71
1.69
0.28
-1.35
-3.03
-4.68
-6.29
-7.91
-9.5
-10.94
-12.02
-12.53
-12.34
-11.39
-9.7
-7.42
-4.8
-2.17
0.15
1.94
3.18
4.02
4.62
5.11
5.51
5.79
5.96
6.08
6.26
6.5
6.71
6.72
6.44
5.94
5.42
5.11
5.13
5.36
5.56
5.43
4.86
3.94
2.89
1.91
1.09
0.33
-0.58
-1.8
-3.38
-5.21
-7.07
-8.68
-9.8
-10.25
-9.92
-8.78
-6.89
-4.49
-1.9
0.49
2.42
3.8
4.76
5.5
6.22
7
7.76
8.31
8.48
8.15
7.32
6.13
4.71
3.32
2.16
1.43
1.29
1.75
2.6
3.48
3.95
3.67
2.56
0.77
-1.31
-3.29
-4.91
-6.14
-7.13
-8.1
-9.23
-10.58
-12.14
-13.82
-15.49
-16.98
-18.08
-18.58
-18.26
-17.02
-14.9
-12.12
-9.03
-6.03
-3.4
-1.31
0.24
1.33
2.05
2.44
2.51
2.28
1.81
1.24
0.72
0.38
0.19
0.07
-0.08
-0.33
-0.61
-0.84
-0.98
-1.11
-1.39
-2.01
-3.06
-4.43
-5.89
-7.12
-7.95
-8.45
-8.86
-9.5
-10.56
-12.03
-13.66
-15.14
-16.24
-16.86
-17.05
-16.92
-16.49
-15.69
-14.39
-12.47
-9.95
-6.95
-3.74
-0.59
2.31
4.85
7.05
8.99
10.79
12.55
14.36
16.23
18.13
20.01
21.79
23.41
24.82
25.99
26.92
27.58
27.91
27.81
27.26
26.27
24.92
23.35
21.61
19.64
17.28
14.47
11.2
7.65
4.09
0.72
-2.37
-5.27
-8.09
-10.83
-13.31
-15.19
-16.12
-15.9
-14.6
-12.58
-10.34
-8.39
-7.03
-6.34
-6.22
-6.5
-7.05
-7.9
-9.09
-10.64
-12.44
-14.27
-15.85
-16.92
-17.23
-16.55
-14.65
-11.41
-6.94
-1.6
3.97
9.08
13.22
16.17
18.02
18.99
19.21
18.69
17.36
15.25
12.59
9.65
6.7
3.76
0.68
-2.66
-6.18
-9.55
-12.17
-13.57
-13.53
-12.22
-10.05
-7.49
-4.8
-2.15
0.34
2.54
4.23
5.27
5.69
5.69
5.56
5.49
5.46
5.27
4.73
3.77
2.53
1.3
0.33
-0.27
-0.58
-0.81
-1.16
-1.77
-2.67
-3.8
-5.07
-6.41
-7.78
-9.13
-10.4
-11.46
-12.19
-12.58
-12.74
-12.94
-13.52
-14.72
-16.54
-18.63
-20.34
-20.93
-19.86
-16.94
-12.48
-7.15
-1.77
2.95
6.64
9.32
11.36
13.2
15.21
17.5
19.94
22.24
24.1
25.28
25.73
25.62
25.3
25.2
25.53
26.2
26.85
26.98
26.26
24.75
22.78
20.78
18.96
17.19
15.12
12.49
9.32
5.97
2.87
0.29
-1.81
-3.76
-5.93
-8.5
-11.32
-14.11
-16.52
-18.36
-19.62
-20.34
-20.5
-19.99
-18.69
-16.61
-13.97
-11.23
-8.88
-7.27
-6.39
-6.02
-5.75
-5.34
-4.72
-4.02
-3.44
-3.11
-3.01
-2.98
-2.86
-2.48
-1.84
-1.09
-0.45
-0.14
-0.23
-0.63
-1.14
-1.58
-1.88
-2.13
-2.52
-3.2
-4.22
-5.5
-6.92
-8.37
-9.79
-11.19
-12.55
-13.81
-14.83
-15.5
-15.72
-15.47
-14.76
-13.6
-12.02
-10
-7.59
-4.87
-2
0.82
3.4
5.6
7.34
8.6
9.33
9.49
9.12
8.34
7.46
6.8
6.65
7.1
7.95
8.9
9.58
9.78
9.48
8.8
7.9
6.93
5.98
5.07
4.24
3.47
2.72
1.87
0.79
-0.66
-2.47
-4.52
-6.52
-8.15
-9.08
-9.14
-8.28
-6.66
-4.55
-2.27
-0.13
1.69
3.15
4.31
5.28
6.11
6.75
7.11
7.07
6.64
5.94
5.13
4.33
3.63
3.03
2.55
2.18
1.94
1.81
1.73
1.63
1.42
1.04
0.48
-0.25
-1.12
-2.11
-3.2
-4.35
-5.56
-6.83
-8.16
-9.52
-10.78
-11.71
-12.06
-11.59
-10.22
-8.05
-5.36
-2.54
0.02
2.02
3.31
3.94
4.08
3.92
3.58
3.11
2.48
1.67
0.75
-0.12
-0.72
-0.89
-0.6
0
0.69
1.25
1.54
1.62
1.6
1.61
1.7
1.86
2
2
1.7
0.94
-0.39
-2.29
-4.56
-6.83
-8.6
-9.39
-8.94
-7.26
-4.63
-1.5
1.67
4.49
6.7
8.21
9.06
9.4
9.47
9.45
9.46
9.42
9.28
8.95
8.42
7.79
7.19
6.73
6.48
6.45
6.56
6.66
6.53
5.97
4.86
3.26
1.4
-0.46
-2.04
-3.2
-3.97
-4.43
-4.72
-4.98
-5.37
-6.03
-7.11
-8.71
-10.77
-13.1
-15.41
-17.27
-18.31
-18.26
-16.95
-14.44
-10.99
-6.99
-2.91
0.82
3.96
6.44
8.41
10.04
11.47
12.67
13.47
13.73
13.39
12.66
11.86
11.36
11.32
11.64
12.06
12.31
12.27
11.98
11.54
10.96
10.1
8.74
6.75
4.2
1.45
-1.07
-3
-4.26
-5.04
-5.68
-6.54
-7.83
-9.61
-11.76
-14.13
-16.58
-18.94
-21.1
-22.87
-24.03
-24.4
-23.85
-22.36
-20.06
-17.21
-14.08
-10.95
-7.95
-5.11
-2.38
0.22
2.66
4.77
6.42
7.53
8.11
8.27
8.19
8.07
8.05
8.23
8.54
8.85
9.01
8.9
8.56
8.18
8
8.25
8.98
10.07
11.23
12.08
12.35
11.91
10.83
9.36
7.74
6.17
4.67
3.22
1.77
0.35
-0.92
-1.95
-2.71
-3.25
-3.61
-3.72
-3.34
-2.19
-0.13
2.71
5.89
8.86
11.22
12.87
13.98
14.84
15.67
16.41
16.82
16.57
15.45
13.47
10.91
8.22
5.85
4.13
3.18
2.88
2.97
3.15
3.14
2.73
1.79
0.3
-1.66
-3.96
-6.45
-9.05
-11.76
-14.62
-17.65
-20.82
-24.1
-27.45
-30.89
-34.44
-38.09
-41.76
-45.35
-48.8
-52.16
-55.53
-58.83
-61.63
-63.2
-62.6
-59.23
-53.07
-44.83
-35.79
-27.39
-20.69
-16.17
-13.56
-12.07
-10.8
-9.05
-6.61
-3.74
-0.94
1.34
2.95
4.07
5.26
7.19
10.63
16.38
25.12
37.22
52.45
69.78
87.5
103.65
116.7
125.95
131.61
134.17
133.82
130
121.64
107.9
89.05
66.78
43.86
23.19
6.8
-4.72
-12.04
-16.48
-19.22
-20.92
-21.68
-21.38
-20.09
-18.19
-16.26
-14.85
-14.14
-13.91
-13.63
-12.79
-11.12
-8.8
-6.34
-4.4
-3.42
-3.49
-4.34
-5.53
-6.68
-7.63
-8.4
-9.03
-9.51
-9.64
-9.21
-8.1
-6.36
-4.22
-2.01
-0.01
1.64
2.9
3.81
4.34
4.42
4.02
3.2
2.11
1
0.01
-0.84
-1.61
-2.42
-3.2
-3.83
-4.1
-3.85
-3.04
-1.72
0.03
2.14
4.55
7.15
9.73
11.98
13.61
14.43
14.43
13.8
12.87
12.03
11.61
11.86
12.76
14.11
15.56
16.69
17.25
17.16
16.49
15.35
13.8
11.84
9.5
6.78
3.8
0.65
-2.54
-5.66
-8.6
-11.29
-13.69
-15.82
-17.71
-19.36
-20.63
-21.37
-21.4
-20.7
-19.45
-17.9
-16.26
-14.55
-12.59
-10.21
-7.4
-4.45
-1.8
0.09
1.05
1.25
1.1
1.07
1.42
2.1
2.86
3.38
3.49
3.22
2.74
2.19
1.66
1.09
0.44
-0.29
-1.04
-1.7
-2.21
-2.61
-2.98
-3.44
-4.07
-4.95
-6.12
-7.62
-9.4
-11.28
-12.97
-14.16
-14.64
-14.38
-13.5
-12.15
-10.52
-8.72
-6.85
-5.1
-3.61
-2.53
-1.88
-1.65
-1.75
-2.16
-2.91
-3.97
-5.24
-6.46
-7.33
-7.67
-7.49
-7
-6.55
-6.39
-6.59
-7.07
-7.64
-8.14
-8.43
-8.51
-8.41
-8.24
-8.14
-8.23
-8.6
-9.25
-10.1
-10.97
-11.59
-11.66
-10.86
-8.99
-6.02
-2.24
1.87
5.82
9.29
12.35
15.29
18.44
21.93
25.5
28.65
30.85
31.84
31.68
30.68
29.14
27.2
24.76
21.6
17.61
12.87
7.78
2.9
-1.25
-4.42
-6.69
-8.39
-9.9
-11.41
-12.87
-14
-14.57
-14.57
-14.26
-14.1
-14.49
-15.67
-17.49
-19.62
-21.57
-23.01
-23.78
-23.96
-23.75
-23.44
-23.22
-23.21
-23.38
-23.68
-24.18
-25.02
-26.44
-28.55
-31.17
-33.83
-35.84
-36.64
-35.92
-33.8
-30.67
-26.95
-22.9
-18.57
-13.9
-8.86
-3.65
1.37
5.78
9.21
11.53
12.83
13.39
13.58
13.65
13.76
13.87
13.91
13.85
13.78
13.85
14.22
14.92
15.86
16.85
17.76
18.57
19.38
20.34
21.51
22.83
24.09
25.04
25.48
25.4
24.9
24.21
23.56
23.11
22.86
22.75
22.64
22.39
21.9
21.06
19.82
18.16
16.19
14.11
12.17
10.49
9.03
7.58
5.89
3.74
1.08
-1.96
-5.19
-8.33
-11.18
-13.55
-15.37
-16.59
-17.28
-17.54
-17.56
-17.54
-17.69
-18.18
-19.14
-20.67
-22.76
-25.34
-28.24
-31.29
-34.4
-37.49
-40.51
-43.39
-45.98
-48.21
-50.12
-51.96
-54.11
-56.93
-60.55
-64.74
-68.94
-72.34
-74.24
-74.15
-71.97
-68.04
-62.86
-56.92
-50.49
-43.54
-35.96
-27.82
-19.42
-11.38
-4.37
1.16
5.11
7.81
9.86
11.91
14.55
18.17
22.94
28.8
35.53
42.76
50.04
56.84
62.61
66.78
68.94
68.97
67.22
64.48
61.65
59.51
58.41
58.26
58.7
59.35
59.89
60.15
59.99
59.35
58.24
56.87
55.53
54.51
53.87
53.48
53.04
52.27
51
49.13
46.61
43.23
38.68
32.62
24.86
15.44
4.77
-6.43
-17.22
-26.68
-34.14
-39.31
-42.37
-43.75
-43.86
-42.92
-40.93
-37.82
-33.71
-28.96
-24.07
-19.47
-15.3
-11.48
-7.86
-4.43
-1.43
0.83
2.08
2.23
1.41
-0.3
-2.98
-6.88
-12.27
-19.12
-26.86
-34.42
-40.42
-43.66
-43.49
-40.08
-34.33
-27.49
-20.7
-14.57
-9.05
-3.64
2.21
8.72
15.66
22.44
28.37
32.94
35.94
37.41
37.54
36.53
34.52
31.75
28.48
25
21.54
18.14
14.72
11.14
7.36
3.61
0.32
-2.08
-3.4
-3.88
-4.23
-5.4
-8.22
-13
-19.3
-25.99
-31.64
-35.03
-35.51
-33.21
-28.81
-23.16
-16.99
-10.7
-4.44
1.67
7.47
12.64
16.77
19.45
20.38
19.49
17.01
13.43
9.5
5.99
3.54
2.57
3.16
5.23
8.54
12.77
17.57
22.51
27.07
30.75
33.07
33.76
32.69
29.97
25.88
20.85
15.32
9.63
4.04
-1.3
-6.23
-10.59
-14.27
-17.27
-19.82
-22.29
-25.13
-28.58
-32.7
-37.22
-41.71
-45.7
-48.81
-50.78
-51.47
-50.85
-49.01
-46.16
-42.61
-38.72
-34.83
-31.18
-27.86
-24.81
-21.91
-19.01
-16.13
-13.35
-10.85
-8.79
-7.24
-6.17
-5.48
-5.03
-4.64
-4.16
-3.47
-2.55
-1.53
-0.64
-0.19
-0.36
-1.22
-2.59
-4.12
-5.43
-6.22
-6.38
-6.03
-5.42
-4.86
-4.71
-5.2
-6.51
-8.63
-11.35
-14.17
-16.32
-16.86
-15.01
-10.45
-3.56
4.64
12.84
19.95
25.49
29.63
32.88
35.72
38.2
40.02
40.7
39.94
37.84
34.8
31.45
28.32
25.77
23.94
22.85
22.37
22.28
22.32
22.21
21.75
20.79
19.3
17.27
14.75
11.79
8.58
5.35
2.32
-0.37
-2.76
-5.02
-7.37
-9.96
-12.79
-15.75
-18.67
-21.42
-23.81
-25.59
-26.51
-26.31
-24.96
-22.64
-19.71
-16.61
-13.69
-11.17
-9.2
-7.81
-7.04
-6.8
-6.89
-7.02
-6.93
-6.51
-5.77
-4.84
-3.83
-2.8
-1.74
-0.68
0.27
0.99
1.39
1.59
1.87
2.56
3.91
5.81
7.9
9.72
10.95
11.65
12.28
13.44
15.63
18.88
22.72
26.33
28.78
29.42
28.02
24.75
20.11
14.82
9.62
5.26
2.28
0.99
1.29
2.73
4.6
6.19
6.93
6.6
5.24
3.12
0.5
-2.33
-5.15
-7.74
-9.87
-11.32
-11.99
-11.95
-11.34
-10.4
-9.32
-8.19
-7.06
-5.99
-5.06
-4.34
-3.83
-3.48
-3.13
-2.65
-1.99
-1.21
-0.41
0.3
0.85
1.17
1.18
0.78
-0.07
-1.29
-2.6
-3.56
-3.77
-3.03
-1.4
0.76
3.06
5.17
6.9
8.19
8.98
9.23
8.92
8.12
7.01
5.9
5.04
4.6
4.6
4.91
5.39
5.94
6.52
7.11
7.7
8.23
8.58
8.66
8.41
7.9
7.22
6.5
5.79
5.08
4.24
3.11
1.59
-0.41
-2.89
-5.83
-9.08
-12.36
-15.26
-17.25
-17.94
-17.17
-15.17
-12.36
-9.27
-6.27
-3.49
-0.92
1.48
3.66
5.42
6.5
6.77
6.26
5.25
4.21
3.58
3.66
4.46
5.73
7.05
8.07
8.65
8.85
8.83
8.69
8.38
7.74
6.65
5.14
3.47
1.89
0.58
-0.52
-1.63
-2.94
-4.59
-6.52
-8.59
-10.66
-12.55
-14.02
-14.75
-14.4
-12.72
-9.76
-5.91
-1.82
1.89
4.83
6.94
8.43
9.48
10.18
10.4
10.01
9.05
7.78
6.62
5.93
5.8
6
6.15
5.96
5.4
4.7
4.16
3.91
3.84
3.68
3.14
2.17
0.9
-0.4
-1.6
-2.79
-4.18
-5.95
-8.08
-10.35
-12.37
-13.8
-14.47
-14.3
-13.38
-11.74
-9.48
-6.74
-3.75
-0.81
1.79
3.86
5.35
6.33
6.86
7
6.74
6.12
5.24
4.22
3.23
2.43
1.92
1.75
1.9
2.27
2.73
3.13
3.35
3.29
2.95
2.38
1.62
0.72
-0.31
-1.48
-2.83
-4.34
-6.01
-7.78
-9.64
-11.51
-13.27
-14.74
-15.62
-15.62
-14.47
-12.15
-8.88
-5.13
-1.49
1.57
3.82
5.28
6.16
6.66
6.91
6.93
6.71
6.3
5.86
5.54
5.42
5.39
5.26
4.83
4.1
3.24
2.54
2.21
2.2
2.26
1.99
1.05
-0.66
-2.99
-5.6
-8.06
-9.97
-11.07
-11.24
-10.58
-9.29
-7.6
-5.63
-3.34
-0.56
2.86
6.86
11.12
15.19
18.63
21.2
22.86
23.72
23.9
23.39
22.11
19.96
17.02
13.53
9.9
6.58
3.93
2.11
1.11
0.75
0.77
0.88
0.81
0.4
-0.39
-1.5
-2.85
-4.38
-6.04
-7.84
-9.75
-11.75
-13.79
-15.89
-18.09
-20.42
-22.7
-24.56
-25.51
-25.12
-23.28
-20.3
-16.78
-13.38
-10.56
-8.49
-7.11
-6.26
-5.88
-6.01
-6.73
-8.08
-9.95
-12.11
-14.3
-16.39
-18.36
-20.36
-22.55
-25.04
-27.86
-30.93
-34.2
-37.7
-41.57
-46.03
-51.2
-56.93
-62.75
-67.93
-71.77
-73.72
-73.63
-71.68
-68.32
-64.11
-59.55
-55.02
-50.71
-46.62
-42.58
-38.23
-33.07
-26.7
-18.93
-9.98
-0.56
8.28
15.38
19.73
20.89
19.22
15.91
12.78
11.84
14.76
22.57
35.36
52.29
71.7
91.4
109.04
122.66
131.11
134.27
132.98
128.65
122.69
116.17
109.64
103.24
96.94
90.71
84.46
78.05
71.22
63.82
55.95
48.22
41.52
36.76
34.48
34.52
36.16
38.34
40.08
40.78
40.24
38.67
36.41
33.8
31.11
28.55
26.21
24.1
22.1
20.01
17.7
15.16
12.57
10.22
8.32
6.94
6
5.35
4.82
4.3
3.72
3.03
2.19
1.19
0.11
-0.97
-1.93
-2.82
-3.8
-5.09
-6.87
-9.2
-11.96
-14.85
-17.56
-19.79
-21.47
-22.77
-24.18
-26.29
-29.66
-34.58
-40.95
-48.34
-56.04
-63.31
-69.46
-74.01
-76.73
-77.6
-76.81
-74.61
-71.26
-66.9
-61.53
-54.99
-47.13
-37.93
-27.64
-16.8
-6.14
3.68
12.2
19.32
25.14
29.83
33.51
36.2
37.9
38.71
38.86
38.6
38.07
37.04
35.1
31.8
27.02
21.12
14.85
9.05
4.3
0.74
-1.94
-4.23
-6.55
-9.01
-11.41
-13.33
-14.35
-14.22
-12.96
-10.78
-7.9
-4.41
-0.25
4.73
10.49
16.66
22.58
27.5
30.91
32.71
33.2
32.77
31.6
29.52
26.2
21.45
15.5
9.05
2.95
-2.07
-5.65
-7.88
-9.08
-9.66
-9.98
-10.34
-11.01
-12.23
-14.2
-16.86
-19.87
-22.57
-24.2
-24.17
-22.29
-18.93
-14.84
-10.93
-7.95
-6.18
-5.52
-5.51
-5.66
-5.62
-5.3
-4.78
-4.15
-3.43
-2.46
-1.06
0.87
3.25
5.76
7.9
9.15
9.16
7.83
5.31
1.88
-2.13
-6.41
-10.69
-14.62
-17.86
-20.09
-21.19
-21.27
-20.75
-20.14
-19.94
-20.42
-21.66
-23.59
-26.05
-28.83
-31.56
-33.72
-34.71
-34.08
-31.64
-27.6
-22.41
-16.64
-10.77
-5.13
0.04
4.6
8.4
11.38
13.55
14.96
15.74
16
15.79
15.19
14.21
12.91
11.35
9.56
7.62
5.73
4.14
3.07
2.6
2.51
2.38
1.75
0.41
-1.41
-3.03
-3.48
-1.84
2.33
8.78
16.59
24.36
30.64
34.22
34.46
31.32
25.43
17.83
9.8
2.54
-3.03
-6.49
-7.87
-7.61
-6.31
-4.63
-3.14
-2.38
-2.81
-4.73
-8.14
-12.66
-17.57
-22.15
-25.93
-28.84
-31.09
-32.94
-34.39
-35.12
-34.72
-32.94
-29.96
-26.35
-22.84
-20.02
-18.08
-16.88
-16.08
-15.32
-14.38
-13.21
-11.9
-10.62
-9.55
-8.85
-8.57
-8.67
-8.99
-9.29
-9.41
-9.31
-9.12
-9.11
-9.52
-10.41
-11.64
-12.88
-13.81
-14.24
-14.16
-13.68
-12.85
-11.64
-9.93
-7.66
-4.93
-2.04
0.62
2.76
4.28
5.24
5.82
6.16
6.35
6.41
6.4
6.42
6.56
6.85
7.21
7.52
7.68
7.65
7.43
7
6.28
5.21
3.74
1.96
0.1
-1.62
-3.07
-4.29
-5.5
-7.01
-9.04
-11.62
-14.59
-17.66
-20.48
-22.66
-23.85
-23.78
-22.27
-19.34
-15.19
-10.24
-4.92
0.27
4.94
8.79
11.68
13.61
14.74
15.28
15.42
15.26
14.77
13.94
12.79
11.49
10.3
9.51
9.35
9.85
10.9
12.22
13.42
14.16
14.18
13.4
11.92
10.01
7.93
5.87
3.94
2.17
0.6
-0.78
-2.06
-3.47
-5.3
-7.69
-10.47
-13.08
-14.76
-14.85
-13.11
-9.82
-5.66
-1.44
2.29
5.33
7.78
9.77
11.36
12.42
12.79
12.43
11.51
10.28
9.01
7.8
6.61
5.43
4.31
3.47
3.16
3.53
4.5
5.79
7.02
7.87
8.17
7.87
7.08
5.93
4.63
3.36
2.24
1.31
0.42
-0.66
-2.21
-4.43
-7.35
-10.83
-14.52
-17.9
-20.35
-21.25
-20.15
-16.97
-12.11
-6.39
-0.78
3.91
7.24
9.23
10.19
10.53
10.5
10.22
9.68
8.92
8.1
7.43
7.1
7.13
7.38
7.64
7.78
7.87
8.1
8.63
9.46
10.31
10.78
10.52
9.44
7.82
6.11
4.76
3.98
3.73
3.73
3.6
2.99
1.74
-0.03
-1.8
-2.77
-2
1.21
6.98
14.8
23.62
32.34
40.15
46.81
52.58
57.96
63.43
69.29
75.51
81.72
87.03
90
88.84
82.06
69.22
51.56
31.82
13.48
-0.58
-9.04
-12.53
-13.01
-12.79
-13.43
-15.42
-18.39
-21.73
-25.06
-28.33
-31.64
-34.86
-37.57
-39.18
-39.19
-37.5
-34.49
-30.87
-27.41
-24.65
-22.68
-21.13
-19.45
-17.17
-14.2
-10.9
-7.93
-5.99
-5.55
-6.68
-9.04
-12.03
-14.98
-17.37
-18.91
-19.61
-19.7
-19.45
-19.08
-18.67
-18.19
-17.6
-16.95
-16.28
-15.71
-15.25
-14.88
-14.55
-14.25
-14.11
-14.28
-14.92
-16.11
-17.82
-19.83
-21.79
-23.19
-23.51
-22.32
-19.5
-15.27
-10.09
-4.52
0.99
6.13
10.67
14.39
17.1
18.67
19.12
18.73
17.92
17.09
16.48
16.07
15.67
15.07
14.19
13.08
11.88
10.7
9.5
8.11
6.32
4.02
1.21
-1.98
-5.42
-9.11
-13.14
-17.68
-22.81
-28.45
-34.34
-40.1
-45.26
-49.41
-52.19
-53.31
-52.63
-50.1
-45.95
-40.58
-34.51
-28.32
-22.43
-17.07
-12.27
-8
-4.17
-0.75
2.32
5.12
7.86
10.81
14.24
18.35
23.14
28.45
33.94
39.18
43.73
47.17
49.23
49.77
48.84
46.65
43.5
39.72
35.56
31.17
26.5
21.45
15.92
9.97
3.91
-1.81
-6.67
-10.23
-12.27
-12.86
-12.3
-11.09
-9.79
-8.86
-8.59
-8.93
-9.69
-10.59
-11.47
-12.38
-13.52
-15.02
-16.77
-18.42
-19.48
-19.64
-18.9
-17.56
-16.11
-15
-14.46
-14.47
-14.9
-15.55
-16.25
-16.86
-17.35
-17.74
-18.2
-18.96
-20.23
-22.12
-24.53
-27.11
-29.27
-30.23
-29.11
-25.13
-17.84
-7.43
5.23
18.68
31.27
41.63
49
53.33
55.08
54.93
53.52
51.35
48.85
46.39
44.3
42.81
41.91
41.31
40.5
38.93
36.23
32.36
27.69
22.75
18.13
14.1
10.62
7.39
4.05
0.39
-3.57
-7.64
-11.53
-14.95
-17.62
-19.22
-19.46
-18.17
-15.39
-11.45
-6.88
-2.31
1.76
5.05
7.6
9.56
11.12
12.36
13.22
13.59
13.41
12.8
11.99
11.28
10.85
10.6
10.21
9.26
7.43
4.64
1.08
-2.9
-6.96
-10.87
-14.53
-17.95
-21.2
-24.34
-27.43
-30.55
-33.7
-36.82
-39.68
-41.98
-43.28
-43.24
-41.65
-38.52
-34.09
-28.74
-22.91
-17.03
-11.39
-6.13
-1.23
3.46
8.15
13.04
18.22
23.65
29.22
34.7
39.75
43.89
46.54
47.08
45.02
40.17
32.77
23.55
13.63
4.25
-3.47
-8.86
-11.76
-12.59
-12.12
-11.26
-10.83
-11.31
-12.75
-14.82
-16.88
-18.24
-18.33
-16.85
-13.86
-9.66
-4.7
0.6
5.94
11.04
15.58
19.14
21.25
21.63
20.32
17.81
14.8
12.04
9.98
8.68
7.85
7.04
5.89
4.21
2.06
-0.39
-2.97
-5.53
-8.05
-10.56
-13.05
-15.41
-17.48
-19.05
-20.07
-20.64
-21.06
-21.66
-22.56
-23.55
-24.13
-23.71
-21.92
-18.8
-14.82
-10.64
-6.82
-3.64
-1.07
1.01
2.69
3.89
4.49
4.44
3.94
3.26
2.66
2.22
1.85
1.37
0.8
0.21
-0.2
-0.39
-0.47
-0.67
-1.12
-1.8
-2.47
-2.82
-2.66
-1.98
-0.99
0
0.71
0.89
0.47
-0.5
-1.72
-2.75
-3.06
-2.3
-0.42
2.3
5.35
8.17
10.39
11.84
12.61
12.85
12.7
12.19
11.35
10.17
8.77
7.32
6.01
4.95
4.09
3.23
2.12
0.6
-1.26
-3.2
-4.86
-6.05
-6.85
-7.63
-8.86
-10.85
-13.58
-16.7
-19.64
-21.83
-22.82
-22.4
-20.54
-17.41
-13.29
-8.6
-3.72
0.93
5.04
8.36
10.8
12.34
13.08
13.15
12.69
11.82
10.56
8.94
7.04
5.19
3.95
3.9
5.36
8.16
11.66
14.93
17.2
18.05
17.55
15.99
13.66
10.69
7.06
2.82
-1.79
-6.27
-9.96
-12.35
-13.2
-12.64
-11.04
-8.87
-6.46
-3.97
-1.44
1.08
3.45
5.35
6.5
6.75
6.23
5.23
4.14
3.18
2.38
1.62
0.8
-0.07
-0.86
-1.44
-1.8
-2.03
-2.31
-2.73
-3.26
-3.81
-4.3
-4.8
-5.5
-6.62
-8.24
-10.16
-11.96
-13.14
-13.32
-12.4
-10.49
-7.91
-4.92
-1.75
1.44
4.43
6.97
8.76
9.58
9.37
8.28
6.61
4.7
2.87
1.36
0.28
-0.34
-0.59
-0.59
-0.52
-0.54
-0.7
-1
-1.38
-1.82
-2.35
-3.09
-4.13
-5.47
-7.01
-8.55
-9.85
-10.72
-11.05
-10.8
-9.9
-8.33
-6.07
-3.22
-0
3.18
5.91
7.87
8.95
9.28
9.13
8.74
8.2
7.52
6.62
5.44
4.05
2.53
0.99
-0.52
-1.94
-3.24
-4.29
-5.02
-5.39
-5.52
-5.65
-6.04
-6.89
-8.21
-9.86
-11.53
-12.86
-13.52
-13.29
-12.08
-9.98
-7.17
-3.91
-0.43
2.98
6.05
8.49
10.03
10.57
10.16
9.05
7.57
6.04
4.65
3.47
2.49
1.68
0.97
0.36
-0.19
-0.67
-1.1
-1.48
-1.86
-2.27
-2.77
-3.44
-4.3
-5.38
-6.66
-8.04
-9.42
-10.62
-11.39
-11.48
-10.69
-8.95
-6.38
-3.26
0.03
3.09
5.63
7.43
8.46
8.75
8.44
7.67
6.63
5.47
4.35
3.33
2.42
1.55
0.59
-0.56
-1.92
-3.39
-4.74
-5.73
-6.16
-6.07
-5.72
-5.56
-6.06
-7.45
-9.63
-12.13
-14.31
-15.59
-15.6
-14.2
-11.52
-7.81
-3.4
1.26
5.67
9.34
11.88
13.17
13.38
12.86
11.95
10.86
9.61
8.13
6.42
4.61
2.9
1.51
0.51
-0.13
-0.57
-0.96
-1.38
-1.8
-2.23
-2.67
-3.26
-4.17
-5.55
-7.35
-9.36
-11.13
-12.18
-12.15
-10.89
-8.51
-5.36
-1.86
1.57
4.59
6.98
8.65
9.6
9.93
9.75
9.22
8.47
7.62
6.8
6.1
5.54
5.06
4.47
3.62
2.43
1.04
-0.29
-1.28
-1.87
-2.17
-2.52
-3.21
-4.38
-5.93
-7.6
-9.08
-10.1
-10.48
-10.11
-8.93
-6.9
-4.08
-0.66
2.99
6.43
9.18
10.94
11.54
11.08
9.78
7.94
5.88
3.89
2.19
0.94
0.19
-0.12
-0.19
-0.24
-0.47
-0.96
-1.63
-2.3
-2.81
-3.1
-3.28
-3.54
-4.11
-5.09
-6.39
-7.78
-8.95
-9.65
-9.67
-8.9
-7.29
-4.83
-1.63
2.04
5.73
8.89
11.09
12.1
11.99
11.04
9.6
8.01
6.52
5.26
4.31
3.63
3.11
2.55
1.8
0.8
-0.34
-1.44
-2.28
-2.78
-3.06
-3.37
-4.04
-5.3
-7.21
-9.6
-12.14
-14.37
-15.81
-16.07
-14.98
-12.61
-9.23
-5.25
-1.09
2.87
6.26
8.8
10.31
10.74
10.23
9.11
7.78
6.6
5.8
5.44
5.41
5.48
5.42
5.02
4.24
3.13
1.87
0.66
-0.32
-1.04
-1.59
-2.09
-2.72
-3.6
-4.86
-6.5
-8.48
-10.58
-12.46
-13.67
-13.82
-12.69
-10.35
-7.1
-3.41
0.21
3.4
5.91
7.62
8.47
8.51
7.82
6.62
5.26
4.19
3.77
4.17
5.21
6.46
7.43
7.77
7.42
6.59
5.61
4.75
4.03
3.29
2.33
0.98
-0.77
-2.84
-5.12
-7.53
-9.94
-12.11
-13.63
-14.05
-13.03
-10.55
-6.99
-2.98
0.77
3.82
6.03
7.56
8.62
9.31
9.62
9.42
8.67
7.44
5.97
4.51
3.34
2.58
2.2
2.1
2.06
1.92
1.61
1.14
0.62
0.14
-0.28
-0.68
-1.16
-1.83
-2.73
-3.91
-5.37
-7.11
-8.98
-10.69
-11.84
-11.99
-10.9
-8.61
-5.45
-1.93
1.39
4.14
6.13
7.39
8.05
8.23
8.03
7.48
6.65
5.64
4.64
3.89
3.61
3.85
4.5
5.22
5.6
5.26
4.07
2.24
0.27
-1.36
-2.32
-2.71
-2.94
-3.54
-4.88
-6.95
-9.35
-11.49
-12.84
-13.11
-12.32
-10.64
-8.28
-5.42
-2.22
1.09
4.23
6.87
8.78
9.87
10.17
9.82
9
7.89
6.68
5.57
4.75
4.4
4.56
5.15
5.95
6.65
6.95
6.66
5.78
4.53
3.22
2.14
1.45
1.06
0.69
-0.01
-1.28
-3.17
-5.52
-7.97
-10.09
-11.45
-11.75
-10.87
-8.89
-6.06
-2.72
0.7
3.8
6.21
7.73
8.33
8.19
7.64
6.99
6.43
5.95
5.43
4.78
4.06
3.45
3.19
3.36
3.83
4.33
4.57
4.41
3.89
3.13
2.24
1.26
0.12
-1.2
-2.68
-4.19
-5.69
-7.19
-8.84
-10.75
-12.81
-14.6
-15.52
-15.02
-12.92
-9.51
-5.45
-1.5
1.83
4.37
6.23
7.66
8.76
9.49
9.72
9.35
8.52
7.47
6.57
6.06
6.08
6.6
7.5
8.54
9.49
10.06
10.02
9.21
7.71
5.82
3.95
2.44
1.39
0.57
-0.35
-1.63
-3.27
-5.03
-6.64
-7.99
-9.13
-10.22
-11.26
-12.01
-12.01
-10.86
-8.42
-5.03
-1.31
2.05
4.59
6.18
6.97
7.24
7.15
6.76
6.04
4.99
3.79
2.71
2.03
1.92
2.36
3.12
3.95
4.6
4.93
4.95
4.75
4.44
4.07
3.61
2.97
2.06
0.88
-0.44
-1.7
-2.73
-3.51
-4.24
-5.22
-6.68
-8.66
-10.87
-12.84
-14.02
-14.01
-12.65
-10.09
-6.69
-2.92
0.74
3.87
6.2
7.56
8.02
7.8
7.26
6.74
6.52
6.63
6.9
7.1
6.99
6.54
5.87
5.24
4.87
4.83
5.03
5.26
5.3
4.96
4.2
3.05
1.64
0.15
-1.27
-2.48
-3.47
-4.3
-5.16
-6.19
-7.48
-9
-10.6
-12.03
-13.01
-13.31
-12.72
-11.15
-8.61
-5.3
-1.54
2.2
5.4
7.67
8.82
8.91
8.3
7.38
6.52
5.93
5.64
5.62
5.79
6.13
6.55
6.92
7.05
6.81
6.22
5.43
4.67
4.09
3.63
3.08
2.25
1.1
-0.16
-1.29
-2.09
-2.6
-3.06
-3.78
-4.98
-6.69
