-7.34
-6.49
-4.81
-2.5
0.09
2.56
4.54
5.78
6.14
5.65
4.47
2.91
1.44
0.5
0.44
1.33
2.93
4.82
6.5
7.66
8.21
8.32
8.2
8.02
7.76
7.27
6.42
5.11
3.48
1.87
0.81
0.83
2.25
4.96
8.27
11.08
12.11
10.46
6
-0.43
-7.25
-12.68
-15.33
-14.63
-10.94
-5.23
1.28
7.52
12.64
15.97
16.93
15.07
10.27
2.97
-5.68
-14.06
-20.44
-23.52
-22.74
-18.45
-11.68
-3.83
3.69
9.81
13.79
15.3
14.31
11.12
6.34
0.86
-4.29
-8.2
-10.21
-10.14
-8.25
-5.08
-1.31
2.44
5.62
7.86
8.94
8.79
7.52
5.43
2.92
0.44
-1.52
-2.56
-2.43
-1.16
0.9
3.12
4.81
5.45
4.86
3.26
1.11
-1.07
-2.82
-3.87
-4.15
-3.81
-3.15
-2.62
-2.62
-3.42
-5
-7.01
-8.84
-9.78
-9.23
-6.89
-2.8
2.64
8.81
15.08
20.88
25.77
29.39
31.42
31.52
29.54
25.62
20.35
14.6
9.26
4.94
1.78
-0.55
-2.55
-4.53
-6.42
-7.73
-7.82
-6.19
-2.9
1.49
5.99
9.57
11.46
11.34
9.32
5.8
1.37
-3.35
-7.71
-11.05
-12.85
-12.9
-11.35
-8.69
-5.51
-2.34
0.58
3.19
5.51
7.49
8.92
9.56
9.17
7.76
5.58
3.09
0.81
-0.87
-1.77
-1.95
-1.63
-1.07
-0.46
0.04
0.27
0.05
-0.75
-2.09
-3.72
-5.18
-5.95
-5.73
-4.58
-3.04
-1.83
-1.62
-2.74
-4.99
-7.77
-10.21
-11.54
-11.27
-9.34
-6.19
-2.52
0.91
3.59
5.38
6.47
7.18
7.77
8.25
8.47
8.27
7.64
6.74
5.85
5.17
4.73
4.42
4.14
3.91
3.87
4.18
4.87
5.76
6.52
6.8
6.43
5.48
4.21
2.94
1.84
0.92
0.03
-0.98
-2.11
-3.15
-3.81
-3.84
-3.21
-2.11
-0.88
0.18
0.84
1.04
0.86
0.46
0.08
-0.05
0.24
1
2.12
3.36
4.39
4.94
4.86
4.12
2.79
1.01
-0.98
-2.88
-4.26
-4.7
-3.92
-1.95
0.8
3.65
5.81
6.69
6.12
4.31
1.81
-0.83
-3.21
-5.2
-6.82
-8.09
-8.9
-9.02
-8.21
-6.47
-4.13
-1.77
-0.03
0.71
0.48
-0.31
-1.04
-1.21
-0.63
0.53
1.9
3.1
3.93
4.36
4.51
4.44
4.11
3.41
2.27
0.81
-0.72
-1.87
-2.24
-1.62
-0.08
1.98
3.93
5.15
5.21
4.1
2.16
-0.06
-2.07
-3.62
-4.8
-5.88
-7.15
-8.69
-10.28
-11.49
-11.84
-10.97
-8.81
-5.64
-2.01
1.45
4.28
6.32
7.69
8.65
9.34
9.75
9.73
9.24
8.42
7.46
6.41
5.02
2.84
-0.52
-5.05
-10.26
-15.33
-19.4
-21.9
-22.6
-21.5
-18.86
-15.05
-10.67
-6.46
-3.07
-0.78
0.61
1.78
3.48
6.21
9.91
13.89
17.1
18.45
17.38
14.02
9.23
4.33
0.78
-0.32
1.38
5.42
10.85
16.58
21.77
25.92
28.87
31.06
33.14
35.63
38.56
41.58
44.02
45.43
45.82
45.64
46.04
48.24
52.99
59.98
68.05
75.49
80.49
81.13
75.7
64.29
48.99
34.05
24.34
23.46
31.73
46.02
60.57
66.17
57.41
35.5
8.7
-12.58
-21.79
-18.99
-8.63
3.78
14.53
23.11
30.08
35.69
39.05
40.46
40.29
40.67
44.21
51.72
61.44
68.79
68.89
57.98
36.07
6.54
-25.39
-55.74
-83.95
-109.29
-133.2
-157.04
-182.28
-208.18
-231.83
-248.56
-254.16
-247.16
-229.74
-207.45
-186.5
-173.75
-173.23
-185.59
-208.41
-237.85
-270.69
-304.25
-335.79
-350.1
-335.81
-289.99
-220.76
-142.44
-68.24
-7.22
36.46
61.83
70.63
64.71
48.88
29.1
12.61
6.8
15.34
36.58
64.12
89.81
105.87
109.2
102.42
87.83
71.2
56.82
45.71
36.24
26.31
13.99
-0.96
-17.75
-35.44
-53
-70.65
-88.91
-107.56
-125.16
-140.13
-151.13
-157.54
-159.52
-157.04
-150.33
-139.47
-124.16
-103.99
-79.05
-50.13
-18.69
13.71
46.32
78.96
112.08
146.3
181.78
217.82
253.03
285.66
314.39
339.02
360.29
379.77
399.58
422.1
449.28
481.62
516.89
549.56
571.69
575.08
554.22
508.54
442.75
365.09
284.41
207.5
137.9
76.14
21.12
-28.5
-73.46
-113.8
-149.15
-179.03
-202.81
-219.64
-228.69
-229.69
-223.5
-212.51
-200.37
-191.1
-187.72
-191.01
-198.89
-206.47
-207.38
-195.7
-167.97
-124.76
-71.08
-15.08
34.39
70.89
92.77
103.54
109.93
118.54
132.72
150.82
167.22
175.06
169.5
149.76
118.92
82.33
45.47
12.07
-16.61
-41.55
-64.84
-88.34
-112.49
-135.81
-155.31
-168
-172.81
-171.47
-167.9
-166.2
-168.19
-172.01
-172.79
-164.96
-145.2
-114.2
-76.21
-36.95
-1.21
28.44
52.02
70.8
86.15
98.55
107.36
111.6
110.79
105.71
98.71
93
91.18
93.72
98.34
100.78
96.75
83.95
63.24
38.33
14.03
-5.84
-19.93
-29.45
-37.14
-45.58
-56.09
-68.31
-80.78
-91.85
-100.46
-106.41
-110.11
-112
-112.15
-110.12
-105.25
-97.12
-86.16
-73.77
-62.06
-53.21
-48.65
-48.55
-51.71
-56.12
-59.54
-60.21
-57.16
-50.13
-39.53
-26.36
-12.28
0.39
9.13
12.13
9.1
1.68
-7.13
-14.17
-17.32
-16.23
-12.01
-6.47
-1.2
2.83
5.09
5.17
2.59
-3.01
-11.38
-21.46
-31.58
-40
-45.63
-48.39
-49.01
-48.69
-48.42
-48.67
-49.29
-49.76
-49.5
-48.15
-45.67
-42.28
-38.39
-34.37
-30.48
-26.89
-23.65
-20.82
-18.37
-16.15
-13.8
-10.79
-6.73
-1.5
4.41
10.11
14.44
16.36
15.21
10.89
3.79
-5.23
-14.9
-23.72
-30.1
-32.75
-31.05
-25.37
-17.04
-8.1
-0.7
3.54
3.96
1.03
-3.9
-9.01
-12.62
-13.61
-11.6
-6.93
-0.51
6.46
12.69
17.07
18.85
17.83
14.37
9.33
3.82
-1.03
-4.42
-5.88
-5.3
-2.88
0.99
5.7
10.5
14.51
16.85
16.87
14.3
9.38
2.82
-4.32
-10.97
-16.34
-20.15
-22.58
-24.07
-25.15
-26.12
-27.07
-27.9
-28.44
-28.51
-27.86
-26.16
-22.99
-18.04
-11.42
-3.79
3.71
9.85
13.85
15.73
16.3
16.74
18.03
20.45
23.44
26.01
27.26
26.93
25.45
23.75
22.74
22.84
23.85
25.1
25.94
25.99
25.34
24.28
23.07
21.73
20.01
17.72
14.92
12.1
9.87
8.61
8.14
7.66
6.12
2.79
-2.24
-7.96
-12.8
-15.27
-14.56
-10.8
-4.96
1.57
7.5
12.02
14.9
16.45
17.22
17.71
18.2
18.71
19.11
19.35
19.48
19.64
19.84
19.94
19.63
18.68
17.11
15.26
13.6
12.49
11.93
11.54
10.87
9.65
7.97
6.19
4.75
3.89
3.58
3.48
3.18
2.27
0.54
-2.09
-5.44
-9.1
-12.43
-14.61
-14.87
-12.8
-8.6
-3.1
2.45
6.95
9.85
11.33
12.07
12.85
14.07
15.64
17.07
17.89
17.9
17.24
16.27
15.32
14.53
13.84
13.08
12.12
10.92
9.63
8.43
7.54
7.07
6.94
6.97
6.91
6.6
6.04
5.39
4.73
3.96
2.71
0.48
-3.07
-7.79
-12.97
-17.44
-19.94
-19.62
-16.31
-10.68
-4.05
2.08
6.46
8.51
8.45
7.08
5.38
4.12
3.6
3.71
4.14
4.69
5.3
5.99
6.68
7.1
6.84
5.63
3.52
1.04
-1.08
-2.2
-2.07
-1
0.42
1.57
2.12
2.17
2.08
2.27
2.93
3.89
4.68
4.69
3.41
0.67
-3.26
-7.68
-11.52
-13.73
-13.53
-10.82
-6.24
-1.01
3.54
6.43
7.39
6.88
5.76
4.83
4.5
4.76
5.36
6.11
6.98
8.07
9.38
10.68
11.55
11.57
10.66
9.13
7.51
6.25
5.43
4.75
3.75
2.13
-0.05
-2.32
-4.03
-4.67
-4.09
-2.64
-0.94
0.18
0.01
-1.89
-5.49
-10.25
-15.03
-18.45
-19.28
-16.9
-11.7
-4.9
1.86
7.14
10.29
11.42
11.3
10.71
10.17
9.8
9.46
9.02
8.46
7.84
7.21
6.5
5.57
4.31
2.76
1.15
-0.21
-1.05
-1.28
-1.03
-0.61
-0.34
-0.51
-1.21
-2.3
-3.46
-4.29
-4.48
-3.97
-3.02
-2.2
-2.15
-3.4
-6.02
-9.5
-12.89
-15
-14.94
-12.44
-8.06
-2.91
1.76
5.11
7
7.84
8.3
8.81
9.35
9.5
8.88
7.39
5.4
3.53
2.32
1.93
2.07
2.25
2.1
1.53
0.8
0.19
-0.2
-0.56
-1.27
-2.56
-4.35
-6.16
-7.38
-7.58
-6.75
-5.36
-4.24
-4.19
-5.71
-8.7
-12.44
-15.76
-17.4
-16.53
-13.13
-8.05
-2.72
1.48
3.78
4.3
3.87
3.46
3.7
4.57
5.62
6.31
6.41
5.99
5.35
4.72
4.16
3.58
2.85
2.01
1.2
0.58
0.22
0.07
-0.04
-0.27
-0.71
-1.39
-2.3
-3.33
-4.28
-4.96
-5.22
-5.16
-5.13
-5.65
-7.08
-9.4
-12.04
-14.05
-14.5
-12.9
-9.47
-5.12
-0.99
2.01
3.52
3.86
3.68
3.64
4.02
4.72
5.38
5.75
5.8
5.76
5.89
6.24
6.52
6.27
5.11
3.09
0.72
-1.21
-2.04
-1.6
-0.35
0.84
1.1
0.03
-2.17
-4.76
-6.88
-7.91
-7.72
-6.7
-5.57
-5.13
-5.99
-8.29
-11.66
-15.22
-17.86
-18.62
-17.08
-13.53
-8.84
-4.06
-0.03
2.96
5.06
6.6
7.82
8.72
9.09
8.77
7.78
6.38
5
3.98
3.5
3.48
3.66
3.79
3.71
3.42
3.08
2.95
3.21
3.89
4.85
5.72
6.09
5.61
4.14
1.85
-0.81
-3.26
-5
-5.8
-5.86
-5.7
-5.97
-7.19
-9.5
-12.54
-15.48
-17.31
-17.16
-14.66
-10.16
-4.6
0.86
5.24
8.13
9.75
10.75
11.88
13.61
15.92
18.4
20.45
21.58
21.67
21.05
20.35
20.26
21.18
23.04
25.35
27.4
28.6
28.79
28.26
27.71
27.86
29.18
31.59
34.53
37.21
38.97
39.65
39.61
39.59
40.32
42.15
45.01
48.55
52.17
55.11
56.26
54.29
48
37.2
23.38
9.62
-0.23
-3.64
-1.15
2.81
1.5
-10.88
-35.78
-68.74
-101.01
-123.47
-131.08
-125.04
-111.98
-100.4
-96.92
-104.02
-120.09
-141.25
-163.12
-181.67
-192.95
-193.15
-179.18
-150.13
-108.51
-60.12
-12.49
27.74
56.85
75.08
85.79
93.38
101.11
109.36
115.42
114.53
102.17
76.39
39.17
-3.66
-44.22
-75.17
-92.03
-94.29
-85.03
-69.21
-51.95
-37.06
-26.58
-20.97
-19.7
-21.46
-24.39
-26.09
-23.8
-14.95
1.9
26.22
54.93
82.88
104.22
114.46
112.19
99.58
81.46
63.24
48.76
39.18
33.3
28.95
24.49
19.61
15.04
11.68
9.85
9.13
8.8
8.45
8.34
9.21
11.73
15.93
20.94
25.3
27.59
27.07
24.02
19.58
15.25
12.27
11.29
12.36
15.17
19.28
24.16
29.22
33.67
36.72
37.69
36.31
32.86
28.06
22.89
18.24
14.67
12.28
10.74
9.4
7.6
4.85
1.04
-3.52
-8.22
-12.28
-14.91
-15.42
-13.32
-8.48
-1.28
7.25
15.71
22.61
26.9
28.31
27.41
25.29
23.1
21.57
20.85
20.75
21.01
21.61
22.81
24.96
28.29
32.68
37.72
42.79
47.29
50.72
52.78
53.36
52.6
50.95
49.23
48.59
50.17
54.72
62
70.53
77.74
80.84
78.06
69.66
58.08
46.89
39.07
35.36
33.67
29.96
20.06
1.68
-24.46
-54.97
-85.15
-110.82
-129.58
-141.03
-146.21
-146.76
-144.22
-139.71
-133.73
-125.69
-113.69
-94.9
-66.91
-29.59
13.52
55.41
87.68
103.62
100.72
81.35
51.34
17.48
-14.67
-41.65
-61.81
-74.6
-80.22
-79.7
-75.08
-69.09
-64.22
-62.06
-62.67
-64.89
-66.96
-67.1
-63.94
-56.8
-45.87
-32.19
-17.53
-4.02
6.52
13.07
15.61
15.01
12.54
9.43
6.55
4.29
2.73
1.78
1.33
1.33
1.76
2.62
3.94
5.68
7.74
9.91
11.97
13.64
14.75
15.2
15
14.23
13.02
11.49
9.8
8.18
6.9
6.28
6.58
7.88
9.95
12.34
14.42
15.67
15.77
14.65
12.5
9.68
6.55
3.57
1.11
-0.53
-1.26
-1.29
-1.1
-1.22
-2.07
-3.61
-5.35
-6.46
-6.29
-4.77
-2.73
-1.69
-3.18
-8.03
-15.78
-24.75
-32.7
-37.71
-38.96
-36.95
-33.18
-29.43
-27.03
-26.4
-27.02
-27.82
-27.59
-25.47
-21.16
-14.97
-7.69
-0.29
6.23
11.03
13.63
13.94
12.33
9.55
6.53
4.13
2.92
3.05
4.33
6.35
8.68
10.9
12.64
13.53
13.29
11.9
9.74
7.51
6.12
6.22
8
11.03
14.42
17.16
18.4
17.63
14.69
9.75
3.2
-4.26
-11.74
-18.24
-23.03
-25.9
-27.23
-27.77
-28.28
-29.16
-30.27
-31.06
-30.83
-28.97
-25.19
-19.59
-12.64
-5.11
2.11
8.27
12.96
16.23
18.43
19.93
20.95
21.49
21.49
21.04
20.4
19.92
19.83
20.06
20.27
20.03
19.11
17.6
15.9
14.53
13.9
14.11
14.94
15.91
16.51
16.35
15.32
13.58
11.51
9.54
8.01
7.15
7.04
7.58
8.52
9.4
9.67
8.87
6.83
3.8
0.43
-2.43
-3.99
-3.83
-2
1.08
4.76
8.39
11.45
13.73
15.16
15.81
15.76
14.96
13.31
10.75
7.41
3.77
0.6
-1.33
-1.67
-0.71
0.54
0.83
-0.83
-4.6
-9.73
-14.96
-18.95
-20.82
-20.34
-17.94
-14.82
-12.99
-15.19
-24.06
-40.6
-62.94
-86.26
-104.29
-111.71
-106.2
-89.01
-63.86
-35.11
-6.24
20.53
43.83
62.64
76.27
84.76
89.01
90.4
89.96
87.72
82.95
74.97
64.07
51.62
39.38
28.61
19.63
11.96
4.94
-1.95
-9.01
-16.54
-25.02
-34.85
-46.03
-57.75
-68.67
-77.39
-83.03
-85.58
-85.9
-85.54
-86.41
-90.13
-97.2
-106.15
-113.11
-112.63
-99.58
-71.61
-30.85
16.36
61.71
98.06
121.83
133.51
136.26
133.71
128.26
120.84
111.63
100.96
89.71
78.69
68.13
57.4
45.28
30.67
13.4
-5.73
-25.26
-43.66
-59.64
-72.52
-82.27
-89.47
-94.88
-98.99
-101.54
-101.33
-96.39
-84.94
-66.41
-42.15
-15.37
9.96
30.57
44.91
53.28
56.95
56.8
52.76
44.11
30.58
13.32
-4.96
-21.11
-33.25
-41.92
-50.24
-62.28
-80.97
-106.54
-136.09
-164.33
-185.21
-193.7
-186.74
-163.91
-127.44
-81.89
-33.55
10.71
45
65.7
72.14
66.55
52.96
35.65
17.67
0.23
-16.72
-33.18
-47.69
-56.92
-56.47
-42.95
-15.68
22.61
66.46
109.61
146.88
175.23
193.54
202.1
201.73
193.69
180.01
163.1
145.22
127.47
109.63
91.16
72.6
56.09
44.96
42.03
47.87
60.4
75.85
90.37
101.4
107.83
109.3
105.58
96.69
83.88
70.4
61.21
61.5
74.6
100.21
133.8
167.69
193.29
203.56
195.25
170.05
133.71
93.96
57.37
26.94
1.45
-23.1
-50.68
-82.61
-116.64
-148.24
-172.66
-187.18
-191.69
-187.69
-176.58
-158.51
-132.74
-98.74
-57.76
-13.33
29.41
65.03
89.06
98.53
92
69.64
33.63
-11.39
-58.54
-100.05
-129.66
-144.5
-145.85
-137.83
-125.23
-111.47
-97.82
-84.22
-70.46
-56.95
-44.62
-34.61
-27.42
-22.84
-20.24
-18.87
-18.14
-17.51
-16.57
-14.96
-12.68
-10.02
-7.52
-5.75
-5.02
-5.32
-6.48
-8.28
-10.64
-13.51
-16.65
-19.5
-21.24
-21.03
-18.46
-13.84
-8.16
-2.77
1.15
3.13
3.6
3.67
4.57
7
10.75
14.8
17.97
19.45
19.15
17.59
15.36
12.72
9.55
5.58
0.89
-3.87
-7.56
-9.02
-7.61
-3.57
2.03
7.69
12.04
14.26
14.26
12.54
9.9
7.09
4.54
2.37
0.49
-1.19
-2.61
-3.58
-3.93
-3.7
-3.18
-2.87
-3.2
-4.35
-6.07
-7.76
-8.67
-8.25
-6.48
-3.96
-1.75
-0.84
-1.75
-4.16
-7.12
-9.46
-10.33
-9.5
-7.44
-4.98
-3.04
-2.33
-3.34
-6.2
-10.68
-16.07
-21.24
-24.88
-25.86
-23.68
-18.71
-12.01
-4.99
1.08
5.47
8.13
9.54
10.34
10.98
11.45
11.3
10.01
7.3
3.6
-0.15
-2.76
-3.36
-1.87
1.05
4.25
6.63
7.52
6.9
5.26
3.33
1.75
0.85
0.58
0.7
0.92
1.14
1.36
1.66
1.96
2.02
1.58
0.58
-0.66
-1.59
-1.65
-0.82
0.27
0.58
-0.82
-4.15
-8.6
-12.64
-14.64
-13.67
-10.02
-5.04
-0.63
1.64
1.06
-2.02
-6.6
-11.37
-15.17
-17.14
-16.72
-13.86
-9.11
-3.76
0.42
1.74
-0.59
-5.92
-12.38
-17.64
-20.04
-19.41
-16.98
-14.58
-13.5
-13.74
-14.01
-12.52
-8.11
-0.87
7.82
16.14
22.73
27.23
30.11
32.04
33.24
33.31
31.64
27.94
22.64
16.68
11.06
6.27
2.28
-1.29
-4.5
-6.93
-7.8
-6.37
-2.46
3.35
9.92
16
20.59
23.18
23.77
22.62
20.15
16.83
13.16
9.83
7.56
6.99
8.41
11.54
15.53
19.21
21.45
21.5
19.05
14.26
7.52
-0.53
-9.03
-16.79
-22.38
-24.47
-22.42
-16.58
-8.37
0.31
7.73
13.01
16.18
17.83
18.53
18.46
17.59
15.94
13.88
12.2
11.8
13.24
16.38
20.46
24.43
27.37
28.92
29.25
28.8
27.8
25.79
21.22
11.56
-5.73
-31.82
-65.47
-102.93
-139.02
-168.69
-188.68
-198.36
-199.53
-195.35
-189.07
-183.17
-179.01
-176.55
-173.86
-167.52
-153.53
-129.13
-94.09
-51.33
-6.26
34.79
66.72
87.6
98.93
104.41
108.3
114.44
125.57
142.23
161.65
177.51
182.26
170.48
141.81
102.01
61.39
30.81
17.64
23.39
40.46
56.36
62.04
56.69
45.52
34.17
25.11
17.62
10.35
3.05
-1.26
1.53
13.16
30.77
47.9
57.19
53.61
35.88
6.2
-30.72
-69.08
-103.4
-129.96
-147.24
-155.87
-158.51
-159.28
-162.22
-169.06
-178.3
-185.98
-188.15
-182.96
-171.32
-155.8
-138.87
-121.42
-102.69
-81.26
-56.46
-28.96
-0.44
27.07
51.5
70.66
82.4
85.46
80.45
70.4
59.87
53.19
52.5
57.11
64.29
71.2
76.48
80.55
84.67
89.48
94.35
97.72
98.24
95.71
91.34
87.09
84.58
84.35
85.65
86.93
86.51
83.22
76.6
67.07
55.71
44.05
33.71
25.88
20.88
17.88
15.27
11.4
5.42
-2.13
-9.39
-13.79
-13.1
-6.23
6.51
23.7
43.3
63.09
80.75
94.06
101.21
101.27
94.66
82.92
68.05
51.51
33.74
14.48
-6.31
-27.55
-46.86
-61.39
-69.07
-69.52
-64.19
-55.66
-46.6
-39
-33.92
-31.67
-32.14
-35.09
-40.19
-46.86
-54.17
-60.73
-64.88
-65
-60.1
-50.26
-36.78
-21.76
-7.21
5.61
16.59
26.27
35.12
42.99
48.98
52.19
52.51
51.12
50.24
52.05
57.46
65.31
72.7
76.18
73.37
63.97
49.83
33.94
19.01
6.46
-3.88
-13.08
-22.21
-31.62
-40.77
-48.78
-55.16
-60.26
-65.25
-71.4
-79.17
-87.69
-94.96
-98.83
-97.99
-92.68
-84.57
-76.04
-69.15
-64.91
-63.06
-62.39
-61.38
-58.86
-54.45
-48.56
-42.12
-36.04
-30.73
-26.03
-21.4
-16.49
-11.44
-6.84
-3.27
-0.81
1.1
3.35
6.46
10.27
13.87
16.08
16.02
13.49
8.95
3.26
-2.68
-8.12
-12.57
-15.81
-17.73
-18.27
-17.24
-14.39
-9.52
-2.68
5.67
14.68
23.33
30.73
36.38
40.25
42.65
43.98
44.65
44.96
45.22
45.72
46.77
48.52
50.95
53.78
56.52
58.55
59.2
57.95
54.65
49.72
44.26
39.65
37.09
37.01
38.75
40.83
41.63
40.11
36.05
29.78
21.82
12.72
3.35
-4.86
-10.06
-10.91
-7.72
-2.96
-0.65
-4.46
-15.69
-32.29
-49.55
-62.32
-67.32
-64.56
-56.95
-48.51
-42.39
-39.56
-38.75
-37.51
-33.62
-26.29
-16.41
-5.93
3.31
10.47
16.03
21.31
27.56
35.18
43.54
51.51
58.12
63.11
66.83
69.73
71.81
72.45
70.92
66.88
60.96
54.54
49.2
46.04
45.28
46.29
47.99
49.21
49.1
47.44
44.69
41.86
39.99
39.49
39.54
38.13
32.83
22.01
5.84
-13.59
-33.14
-50.02
-62.79
-71.57
-77.24
-80.59
-81.78
-80.45
-76.31
-69.67
-61.51
-53.09
-45.5
-39.17
-33.94
-29.28
-24.72
-20.14
-15.8
-12.29
-10.2
-9.87
-11.24
-13.81
-16.82
-19.55
-21.45
-22.26
-22.03
-21.01
-19.66
-18.48
-17.76
-17.47
-17.11
-15.89
-13.14
-8.59
-2.53
4.22
10.78
16.5
21.15
24.9
27.93
30.29
31.75
32.09
31.31
29.73
27.94
26.43
25.44
24.79
24.15
23.23
21.99
20.62
19.38
18.44
17.79
17.26
16.62
15.75
14.59
13.12
11.33
9.2
6.73
4.04
1.27
-1.41
-3.97
-6.54
-9.38
-12.73
-16.61
-20.73
-24.44
-27.04
-27.93
-26.87
-23.93
-19.34
-13.24
-5.74
3
12.48
21.71
29.35
34.18
35.6
34.01
30.65
27.12
24.75
24.15
24.98
26.28
26.91
26.02
23.31
18.96
13.33
6.59
-1.33
-10.52
-20.7
-31.11
-40.74
-48.79
-55.17
-60.61
-66.31
-73.24
-81.64
-90.82
-99.56
-106.61
-111.2
-113.2
-112.84
-110.33
-105.69
-98.82
-89.73
-78.84
-67.03
-55.39
-44.74
-35.25
-26.23
-16.4
-4.51
9.92
26.17
42.4
56.33
66.07
70.94
71.61
69.86
67.79
67.05
68.36
71.4
75.14
78.4
80.27
80.19
77.87
73.07
65.51
55.14
42.47
28.91
16.6
7.89
4.56
7.19
15.03
26.4
39.43
52.71
65.59
77.92
89.61
100.01
107.84
111.48
109.55
101.59
88.24
71.03
51.81
32.26
13.6
-3.24
-17.55
-28.82
-36.95
-42.5
-46.62
-50.69
-55.66
-61.64
-67.9
-73.34
-77.14
-79.13
-79.77
-79.71
-79.26
-78.28
-76.32
-73.12
-68.86
-64.38
-60.74
-58.84
-58.91
-60.49
-62.64
-64.43
-65.41
-65.72
-65.92
-66.62
-68.11
-70.23
-72.32
-73.5
-72.89
-69.87
-64.23
-56.28
-46.73
-36.5
-26.57
-17.72
-10.49
-5.02
-1.1
1.88
4.75
8.31
13.05
18.93
25.47
32.11
38.51
44.84
51.63
59.28
67.34
74.13
77.15
74.09
64.18
48.95
31.81
16.75
6.66
2.39
2.86
6.19
10.95
16.7
23.72
32.12
41.08
48.92
53.83
54.82
52.19
47.29
41.85
37.25
34.13
32.36
31.25
29.89
27.54
23.88
19.18
14.28
10.32
8.33
8.92
12.08
17.2
23.36
29.51
34.62
37.81
38.48
36.48
32.36
27.48
23.64
22.37
24.18
27.97
31.5
32.19
28.38
19.95
8.11
-5.49
-19.74
-34.5
-50.14
-66.64
-83
-97.39
-107.93
-113.76
-115.48
-114.73
-113.27
-111.83
-109.73
-105.33
-97.04
-84.22
-67.54
-48.59
-29.05
-10.01
8.2
25.58
41.81
55.66
65.02
67.4
60.91
45.16
21.93
-4.91
-30.42
-50.14
-61.7
-65.51
-64.37
-61.76
-60.04
-59.41
-58.16
-54.12
-46.2
-35.2
-23.48
-13.8
-8.18
-7.44
-11.38
-19.5
-31.42
-46.89
-65.06
-83.7
-98.91
-105.8
-100.15
-80.32
-48.56
-10.62
26.28
56.25
76.75
88.97
96.24
101.71
106.75
110.71
112.12
110.27
105.95
101.02
97.25
95.25
94.11
92.07
87.66
80.58
71.82
62.84
54.53
46.54
37.48
25.74
10.59
-7.24
-25.55
-41.37
-51.82
-54.97
-50.54
-40.03
-26.37
-12.89
-1.97
6.1
13.4
23.3
38.76
60.65
86.88
113.1
134.27
146.49
148.34
141.1
127.91
112.47
97.73
85.14
74.67
65.5
56.76
48.01
39.17
30.09
20.22
8.82
-4.44
-18.92
-32.98
-44.59
-52.3
-56.01
-56.94
-57.07
-58.26
-61.7
-67.55
-75.02
-82.7
-89
-92.72
-93.39
-91.42
-87.78
-83.54
-79.39
-75.52
-71.8
-68.07
-64.35
-60.78
-57.39
-53.95
-50.02
-45.29
-39.85
-34.24
-29.23
-25.37
-22.68
-20.74
-18.91
-16.71
-13.95
-10.64
-6.83
-2.43
2.64
8.29
14.08
19.37
23.57
26.45
28.36
29.88
31.48
33.16
34.37
34.36
32.68
29.39
25.16
20.89
17.33
14.88
13.66
13.6
14.53
16.15
17.83
18.63
17.6
14.18
8.54
1.6
-5.38
-11.25
-15.41
-17.85
-18.91
-18.93
-18.17
-16.93
-15.76
-15.61
-17.57
-22.43
-30.19
-39.81
-49.56
-57.66
-63.02
-65.68
-66.68
-67.46
-69.12
-72.11
-76.09
-80.34
-84.08
-86.63
-87.42
-85.98
-81.92
-75.22
-66.38
-56.36
-46.25
-36.68
-27.68
-18.77
-9.52
0.03
9.29
17.5
24.15
29.41
33.98
38.72
44.18
50.34
56.68
62.43
66.8
69.26
69.53
67.71
64.39
60.52
57.28
55.57
55.7
57.23
59.23
60.7
61
60.01
57.95
55.16
51.96
48.78
46.29
45.3
46.45
49.76
54.27
58.25
59.8
57.48
50.92
40.78
28.44
15.42
3.07
-7.65
-16.05
-21.56
-23.69
-22.08
-16.69
-7.96
3.09
14.97
26.03
34.83
40.65
43.59
44.37
43.78
42.1
38.87
33.22
24.34
12.09
-2.87
-19.2
-35.32
-49.73
-61.15
-68.46
-70.8
-67.75
-59.62
-47.62
-33.78
-20.38
-9.32
-1.63
2.65
4.25
4.2
3.44
2.54
1.72
0.92
0.01
-1.09
-2.29
-3.28
-3.6
-2.84
-0.82
2.3
6.07
9.93
13.39
16.16
18.12
19.23
19.39
18.51
16.53
13.56
9.88
5.8
1.51
-3.04
-8.05
-13.59
-19.39
-24.79
-28.95
-31.28
-31.73
-30.84
-29.44
-28.3
-27.76
-27.73
-27.87
-27.92
-27.84
-27.8
-27.93
-28.12
-27.96
-26.75
-23.93
-19.25
-12.98
-5.82
1.27
7.45
12.17
15.35
17.28
18.44
19.26
19.98
20.61
21.09
21.32
21.32
21.12
20.81
20.34
19.64
18.54
16.94
14.83
12.39
9.86
7.48
5.36
3.43
1.54
-0.48
-2.69
-5.09
-7.56
-9.99
-12.29
-14.38
-16.15
-17.46
-18.15
-18.08
-17.12
-15.24
-12.47
-9.01
-5.17
-1.39
1.89
4.35
5.89
6.66
6.94
7.02
7.08
7.17
7.26
7.3
7.33
7.43
7.66
7.94
8.07
7.82
7.03
5.73
4.13
2.52
1.12
-0.03
-1.06
-2.18
-3.51
-4.91
-6.11
-6.73
-6.56
-5.71
-4.55
-3.64
-3.46
-4.21
-5.73
-7.51
-8.86
-9.21
-8.32
-6.32
-3.71
-1.11
1.02
2.47
3.38
4.02
4.59
5.1
5.33
5
3.99
2.46
0.82
-0.4
-0.9
-0.68
-0.02
0.67
1.16
1.44
1.71
2.12
2.63
2.98
2.8
1.87
0.29
-1.55
-3.1
-3.93
-3.94
-3.35
-2.63
-2.28
-2.64
-3.81
-5.65
-7.77
-9.7
-10.94
-11.14
-10.15
-8.1
-5.32
-2.27
0.63
3.11
5.1
6.65
7.86
8.75
9.23
9.23
8.73
7.86
6.9
6.1
5.65
5.55
5.63
5.63
5.33
4.66
3.7
2.7
1.94
1.64
1.77
2.13
2.33
2.02
1.01
-0.67
-2.68
-4.62
-6.11
-6.93
-7.15
-7.07
-7.1
-7.61
-8.8
-10.57
-12.53
-14.09
-14.62
-13.7
-11.22
-7.49
-3.1
1.28
5.07
7.96
9.9
11.05
11.56
11.53
11.01
10.08
8.91
7.8
7.07
6.87
7.1
7.42
7.39
6.74
5.49
3.94
2.54
1.69
1.51
1.79
2.14
2.12
1.48
0.27
-1.27
-2.78
-3.99
-4.74
-5.1
-5.27
-5.54
-6.24
-7.57
-9.52
-11.8
-13.87
-15.1
-14.97
-13.32
-10.42
-6.82
-3.22
-0.16
2.07
3.49
4.27
4.65
4.76
4.66
4.36
3.9
3.38
3.02
3
3.38
4.04
4.67
4.93
4.62
3.82
2.86
2.11
1.8
1.84
1.88
1.53
0.6
-0.8
-2.33
-3.57
-4.33
-4.65
-4.84
-5.19
-5.89
-6.97
-8.27
-9.63
-10.85
-11.76
-12.2
-11.98
-10.99
-9.24
-6.91
-4.34
-1.92
0.05
1.38
2.04
2.05
1.41
0.15
-1.61
-3.56
-5.24
-6.17
-6.15
-5.41
-4.58
-4.41
-5.37
-7.43
-10
-12.2
-13.33
-13.09
-11.67
-9.64
-7.67
-6.41
-6.46
-8.23
-11.83
-16.66
-21.43
-24.58
-24.98
-22.68
-19.02
-15.93
-14.75
-15.15
-14.98
-11.19
-1.44
14.57
34.83
55.88
74.4
88.42
97.55
102.44
103.7
101.36
94.88
83.87
68.59
50.2
30.46
11.06
-6.88
-22.9
-36.79
-48.15
-56.21
-59.96
-58.66
-52.39
-42.3
-30.44
-19.18
-10.66
-6.18
-6.03
-9.57
-15.64
-22.81
-29.79
-35.63
-39.77
-42.15
-42.99
-42.67
-41.42
-39.19
-35.64
-30.37
-23.22
-14.51
-5.07
3.93
11.3
16.18
18.24
17.74
15.4
12.14
8.85
6.23
4.68
4.37
5.27
7.18
9.86
12.9
15.8
18
19.04
18.66
16.89
14.04
10.6
6.99
3.56
0.5
-2.07
-4.08
-5.42
-6.04
-5.98
-5.43
-4.78
-4.53
-5.23
-7.23
-10.47
-14.31
-17.72
-19.48
-18.82
-15.67
-10.83
-5.56
-1.15
1.55
2.33
1.4
-0.8
-3.88
-7.51
-11.34
-14.93
-17.83
-19.64
-20.15
-19.37
-17.31
-13.89
-8.95
-2.38
5.54
14.11
22.2
28.61
32.44
33.4
31.74
28.12
23.34
18.05
12.78
7.94
3.89
0.84
-1.24
-2.72
-4.19
-6.26
-9.28
-13.13
-17.19
-20.51
-22.05
-20.95
-16.85
-10.01
-1.38
7.48
14.9
19.55
20.91
19.5
16.56
13.58
11.66
11.17
11.79
12.89
13.87
14.4
14.52
14.35
13.95
13.27
12.24
10.85
9.26
7.73
6.52
5.74
5.32
5
4.51
3.67
2.49
1.19
0.1
-0.56
-0.75
-0.76
-1.09
-2.28
-4.61
-7.87
-11.4
-14.17
-15.21
-13.99
-10.6
-5.73
-0.39
4.42
8.09
10.45
11.69
12.16
12.19
11.94
11.45
10.66
9.57
8.25
6.88
5.71
4.96
4.75
5.03
5.6
6.15
6.38
6.07
5.16
3.68
1.75
-0.44
-2.63
-4.51
-5.73
-5.95
-4.96
-2.72
0.62
4.67
8.82
12.34
14.44
14.45
11.92
6.87
-0.14
-8.02
-15.3
-20.47
-22.33
-20.37
-14.84
-6.79
2.29
10.8
17.39
21.32
22.5
21.54
19.39
17.17
15.63
15.04
15.05
14.82
13.37
9.86
3.85
-4.52
-14.51
-24.88
-34.08
-40.66
-43.66
-42.89
-39.04
-33.4
-27.48
-22.44
-18.88
-16.73
-15.64
-15.31
-15.76
-17.31
-20.24
-24.47
-29.24
-33.18
-34.59
-32.09
-25.31
-15.23
-3.98
5.89
12.53
15.55
16.2
16.61
18.7
23.1
28.94
34.39
37.76
38.42
36.96
34.74
32.96
32.09
31.72
31.02
29.23
25.94
21.18
15.18
8.16
0.32
-8.04
-16.4
-23.96
-29.81
-33.11
-33.33
-30.48
-25.14
-18.36
-11.45
-5.62
-1.77
-0.21
-0.72
-2.58
-4.82
-6.38
-6.48
-4.64
-0.93
4.13
9.62
14.46
17.67
18.58
17
13.25
8.03
2.26
-3.14
-7.51
-10.6
-12.56
-13.76
-14.57
-15.13
-15.25
-14.56
-12.71
-9.66
-5.76
-1.64
1.92
4.16
4.55
2.83
-0.79
-5.52
-9.98
-12.43
-11.3
-5.91
3
13.29
21.96
26.22
24.63
17.66
7.56
-2.6
-10.05
-13.35
-12.56
-8.85
-3.73
1.66
6.82
11.7
16.25
20.1
22.62
23.22
21.8
18.99
15.96
13.89
13.51
14.73
16.78
18.6
19.31
18.6
16.72
14.27
11.81
9.63
7.77
6.1
4.51
3.01
1.6
0.18
-1.5
-3.71
-6.55
-9.75
-12.67
-14.58
-14.96
-13.77
-11.55
-9.19
-7.59
-7.35
-8.55
-10.84
-13.52
-15.83
-17.08
-16.79
-14.78
-11.16
-6.35
-1.01
4.07
8.05
10.31
10.56
8.98
6.13
2.79
-0.25
-2.41
-3.48
-3.59
-3.08
-2.37
-1.78
-1.46
-1.38
-1.38
-1.34
-1.13
-0.78
-0.42
-0.25
-0.46
-1.19
-2.47
-4.23
-6.38
-8.76
-11.13
-13.27
-14.93
-16.01
-16.55
-16.75
-16.78
-16.67
-16.2
-15.03
-12.85
-9.57
-5.46
-1.02
3.19
6.79
9.62
11.68
13
13.58
13.37
12.46
11.06
9.55
8.33
7.65
7.52
7.75
8.08
8.27
8.18
7.78
7.09
6.16
5.04
3.75
2.27
0.57
-1.33
-3.27
-4.96
-6.06
-6.35
-5.89
-5.07
-4.49
-4.68
-5.84
-7.76
-9.9
-11.59
-12.29
-11.74
-9.96
-7.22
-3.91
-0.52
2.52
4.87
6.38
7.06
7.04
6.53
5.76
4.99
4.47
4.39
4.85
5.78
6.96
8.1
8.99
9.55
9.85
9.98
9.94
9.64
8.93
7.69
6.02
4.14
2.39
1.01
0.1
-0.44
-0.85
-1.43
-2.4
-3.89
-5.87
-8.12
-10.29
-11.96
-12.68
-12.18
-10.37
-7.52
-4.11
-0.78
1.91
3.69
4.6
4.94
5.09
5.24
5.35
5.24
4.75
3.89
2.86
2
1.54
1.54
1.81
2.1
2.17
1.96
1.59
1.25
1.12
1.17
1.29
1.25
0.91
0.21
-0.76
-1.82
-2.8
-3.6
-4.22
-4.71
-5.19
-5.83
-6.79
-8.18
-9.95
-11.85
-13.41
-14.08
-13.39
-11.19
-7.7
-3.5
0.68
4.18
6.65
8.07
8.72
8.98
9.11
9.2
9.18
8.92
8.39
7.74
7.23
7.06
7.28
7.71
8.01
7.9
7.26
6.24
5.12
4.19
3.56
3.14
2.7
2.03
1.1
0.07
-0.75
-1.12
-0.96
-0.45
0.08
0.3
-0.06
-1.12
-2.88
-5.26
-8.09
-11.11
-13.94
-16.08
-17.06
-16.56
-14.57
-11.44
-7.79
-4.3
-1.47
0.51
1.76
2.65
3.49
4.41
5.25
5.69
5.43
4.45
3.05
1.77
1.13
1.36
2.31
3.53
4.52
5.04
5.19
5.34
5.85
6.86
8.14
9.19
9.51
8.82
7.2
5.07
2.99
1.39
0.46
0.17
0.33
0.75
1.23
1.58
1.58
0.96
-0.47
-2.71
-5.45
-8.08
-9.89
-10.24
-8.88
-6.03
-2.3
1.42
4.31
5.82
5.82
4.64
2.86
1.03
-0.47
-1.57
-2.37
-2.99
-3.42
-3.54
-3.17
-2.25
-0.9
0.58
1.88
2.81
3.37
3.77
4.22
4.86
5.61
6.26
6.55
6.32
5.61
4.65
3.71
3
2.53
2.22
1.91
1.5
0.94
0.24
-0.59
-1.58
-2.77
-4.12
-5.45
-6.38
-6.47
-5.35
-2.88
0.7
4.83
8.81
11.98
14.02
14.97
15.14
14.84
14.2
13.06
11.13
8.26
4.61
0.81
-2.36
-4.18
-4.36
-3.18
-1.31
0.41
1.44
1.57
0.96
-0.11
-1.43
-2.92
-4.59
-6.37
-8.17
-9.86
-11.42
-13.02
-14.98
-17.53
-20.68
-24.12
-27.3
-29.58
-30.49
-29.85
-27.82
-24.76
-21.18
-17.52
-14.1
-11.08
-8.41
-5.91
-3.42
-0.87
1.62
3.79
5.31
5.94
5.66
4.68
3.41
2.21
1.29
0.71
0.34
0.03
-0.3
-0.66
-1.02
-1.32
-1.54
-1.62
-1.51
-1.18
-0.7
-0.21
0.11
0.12
-0.2
-0.72
-1.28
-1.74
-2.04
-2.23
-2.32
-2.28
-2
-1.35
-0.24
1.31
3.14
4.97
6.49
7.38
7.39
6.4
4.49
1.94
-0.76
-2.98
-4.13
-3.76
-1.78
1.49
5.4
9.12
11.95
13.45
13.66
12.97
11.97
11.23
11.06
11.47
12.19
12.84
13.09
12.85
12.27
11.63
11.16
10.94
10.81
10.56
10.06
9.36
8.7
8.32
8.36
8.75
9.31
9.81
10.12
10.27
10.28
10.23
10.12
9.98
9.86
9.85
10
10.21
10.18
9.52
7.87
5.11
1.45
-2.66
-6.63
-9.93
-12.2
-13.43
-13.88
-14.04
-14.44
-15.46
-17.2
-19.45
-21.82
-23.98
-25.75
-27.14
-28.28
-29.19
-29.72
-29.5
-28.19
-25.59
-21.84
-17.39
-12.84
-8.83
-5.8
-3.99
-3.35
-3.6
-4.25
-4.67
-4.28
-2.62
0.42
4.64
9.48
14.3
18.52
21.8
24.1
25.59
26.39
26.43
25.47
23.18
19.44
14.44
8.78
3.2
-1.62
-5.25
-7.66
-8.96
-9.39
-9.15
-8.42
-7.41
-6.37
-5.58
-5.19
-5.21
-5.5
-5.89
-6.23
-6.47
-6.59
-6.6
-6.43
-5.98
-5.11
-3.72
-1.81
0.53
3.07
5.52
7.56
8.94
9.47
9.1
7.79
5.55
2.41
-1.53
-6.06
-10.86
-15.55
-19.73
-23.08
-25.38
-26.55
-26.64
-25.89
-24.65
-23.31
-22.22
-21.47
-20.84
-19.88
-18.14
-15.44
-12.07
-8.59
-5.58
-3.19
-1.01
1.71
5.58
10.66
16.27
21.31
24.64
25.39
23.01
17.2
8.04
-3.86
-17.09
-29.48
-38.65
-42.76
-41.28
-35.15
-26.3
-16.75
-7.81
0.14
7.36
14.09
20.2
25.07
28
28.61
27.07
24.12
20.59
17.1
13.75
10.26
6.34
2.03
-2.13
-5.31
-6.71
-6.08
-3.85
-0.97
1.54
3.01
3.35
3
2.58
2.65
3.43
4.86
6.67
8.47
9.9
10.61
10.4
9.2
7.13
4.36
1.03
-2.93
-7.7
-13.48
-20.25
-27.7
-35.4
-42.95
-50.16
-56.97
-63.02
-67.46
-68.89
-65.95
-57.96
-45.4
-29.86
-13.32
2.64
17.42
31.27
44.78
58.2
71.09
82.45
91.24
96.82
99.24
99.04
96.96
93.54
88.93
82.94
75.29
65.81
54.76
42.79
30.71
19.08
8
-2.81
-13.71
-24.58
-34.72
-42.95
-48.2
-50.08
-49.18
-46.82
-44.52
-43.4
-43.86
-45.7
-48.42
-51.51
-54.51
-56.85
-57.69
-56.12
-51.37
-43.19
-32.01
-18.84
-4.96
8.37
20.11
29.48
35.97
39.36
39.82
37.84
34.06
29.08
23.31
17.02
10.4
3.74
-2.68
-8.58
-13.73
-17.77
-20.16
-20.28
-17.69
-12.66
-6.41
-1.01
1.38
-0.65
-7.02
-16.11
-25.33
-31.99
-34.14
-31.04
-23.12
-11.72
1.26
13.69
23.55
29.24
29.94
25.85
18.06
8.31
-1.41
-9.37
-14.32
-15.71
-13.66
-9.05
-3.38
1.51
3.98
3.25
-0.26
-4.98
-8.76
-9.72
-6.87
-0.24
9.34
20.78
33.12
45.62
57.62
68.37
77.03
82.84
85.46
85.08
82.48
78.67
74.57
70.84
67.8
65.54
64.16
63.82
64.8
67.32
71.36
76.42
81.46
85.04
85.72
82.54
75.39
64.97
52.54
39.3
25.97
12.73
-0.5
-13.68
-26.31
-37.56
-46.52
-52.55
-55.45
-55.38
-52.69
-47.83
-41.23
-33.43
-25.06
-16.92
-9.94
-5.04
-2.95
-3.9
-7.24
-11.24
-13.38
-11.3
-3.9
7.78
20.71
31.03
35.7
33.69
26.2
15.79
4.85
-5.37
-15.02
-24.87
-35.34
-45.98
-55.65
-63.24
-68.36
-71.38
-72.94
-73.31
-72.08
-68.36
-61.48
-51.66
-40.11
-28.69
-19.12
-12.26
-7.83
-4.64
-1.25
3.41
9.65
17.02
24.51
30.85
34.75
35.07
31.06
22.66
10.61
-3.53
-17.77
-30.28
-39.97
-46.68
-50.94
-53.41
-54.33
-53.42
-50.21
-44.56
-37.01
-28.58
-20.27
-12.67
-5.93
-0.14
4.12
5.67
3.21
-3.83
-14.61
-26.83
-37.47
-43.97
-45.12
-41.37
-34.4
-26.27
-18.73
-12.85
-9.07
-7.42
-7.74
-9.68
-12.69
-16.03
-18.94
-20.76
-21.11
-19.87
-17.12
-13.13
-8.3
-3.29
1.15
4.32
5.92
6.2
5.94
6.08
7.29
9.64
12.54
15.16
16.81
17.29
16.85
16
15.15
14.53
14.07
13.58
12.84
11.64
9.82
7.33
4.22
0.76
-2.57
-5.21
-6.68
-6.76
-5.64
-3.77
-1.7
0.12
1.49
2.44
3.18
3.99
5.09
6.51
8.12
9.57
10.45
10.48
9.61
8.18
6.73
5.91
6.11
7.35
9.29
11.34
12.91
13.58
13.2
11.87
9.94
7.8
5.83
4.28
3.24
2.7
2.56
2.73
3.08
3.4
3.36
2.59
0.8
-2.02
-5.56
-9.29
-12.7
-15.47
-17.51
-18.91
-19.66
-19.62
-18.59
-16.47
-13.39
-9.78
-6.23
-3.3
-1.41
-0.71
-1.15
-2.49
-4.38
-6.47
-8.47
-10.27
-12.04
-14.26
-17.59
-22.68
-29.94
-39.44
-50.74
-63.08
-75.36
-86.44
-95.38
-101.6
-105.16
-106.57
-106.51
-105.42
-103.3
-99.67
-93.94
-85.66
-74.73
-61.32
-45.62
-27.77
-8.06
12.73
33.13
51.23
65.33
74.79
80.33
83.69
86.72
90.4
94.5
98
100.01
100.44
100.15
100.35
101.85
104.62
107.92
110.91
112.94
113.64
112.43
108.33
100.12
87
69.37
49.13
29.32
12.96
2.17
-2.52
-2.14
1.42
6.02
9.91
12.04
12.09
10.29
7.28
3.9
0.89
-1.24
-2.25
-2.14
-1.1
0.53
2.27
3.52
3.65
2.2
-0.9
-5.31
-10.25
-14.82
-18.18
-19.87
-19.81
-18.28
-15.76
-12.76
-9.71
-6.88
-4.39
-2.3
-0.62
0.57
1.17
1.03
0.12
-1.53
-3.71
-6.07
-8.22
-9.82
-10.64
-10.62
-9.94
-8.91
-7.93
-7.28
-7.04
-7.07
-7.08
-6.86
-6.34
-5.71
-5.22
-5.03
-5.04
-4.95
-4.39
-3.2
-1.61
-0.21
0.26
-0.74
-3.29
-6.9
-10.71
-13.83
-15.6
-15.91
-15.03
-13.52
-11.86
-10.33
-8.96
-7.67
-6.4
-5.16
-4.04
-3.13
-2.43
-1.85
-1.28
-0.59
0.27
1.27
2.3
3.16
3.67
3.67
3.21
2.48
1.86
1.69
2.08
2.83
3.47
3.44
2.46
0.6
-1.73
-3.92
-5.54
-6.42
-6.72
-6.77
-6.97
-7.57
-8.71
-10.35
-12.29
-14.22
-15.67
-16.24
-15.62
-13.82
-11.14
-8.09
-5.12
-2.45
-0.09
2.12
4.28
6.32
7.98
8.99
9.21
8.74
7.89
7.07
6.61
6.66
7.18
7.97
8.83
9.56
10.06
10.27
10.16
9.77
9.12
8.25
7.19
6.01
4.77
3.55
2.41
1.4
0.52
-0.27
-0.99
-1.68
-2.33
-3
-3.87
-5.13
-6.98
-9.32
-11.79
-13.76
-14.59
-13.86
-11.65
-8.48
-5.09
-2.16
-0.1
1.04
1.47
1.51
1.45
1.47
1.64
1.95
2.35
2.71
2.85
2.61
1.87
0.64
-0.91
-2.41
-3.41
-3.49
-2.4
-0.19
2.78
5.97
8.87
11.09
12.48
13.09
13.07
12.57
11.67
10.45
8.98
7.36
5.68
4.02
2.42
0.88
-0.57
-1.9
-3.1
-4.22
-5.43
-6.89
-8.65
-10.52
-12.05
-12.71
-12.05
-9.97
-6.78
-3.1
0.37
3.06
4.74
5.5
5.72
5.79
6.01
6.44
6.93
7.24
7.18
6.72
6.03
5.37
4.99
4.95
5.17
5.44
5.57
5.49
5.23
4.9
4.58
4.3
4.03
3.78
3.53
3.32
3.13
2.93
2.69
2.37
1.97
1.53
1.07
0.61
0.08
-0.6
-1.6
-3.01
-4.87
-7.08
-9.4
-11.44
-12.78
-13.06
-12.09
-9.97
-7.03
-3.78
-0.72
1.77
3.49
4.47
4.92
5.08
5.17
5.29
5.37
5.27
4.87
4.2
3.45
2.83
2.55
2.58
2.77
2.91
2.84
2.55
2.18
1.9
1.85
2.09
2.59
3.25
3.92
4.42
4.58
4.29
3.53
2.45
1.24
0.11
-0.8
-1.44
-1.87
-2.19
-2.55
-3.15
-4.15
-5.64
-7.53
-9.53
-11.24
-12.28
-12.45
-11.82
-10.67
-9.41
-8.43
-7.98
-8.1
-8.68
-9.48
-10.22
-10.67
-10.76
-10.47
-9.83
-8.87
-7.58
-5.96
-4.18
-2.52
-1.33
-0.85
-0.99
-1.41
-1.65
-1.5
-1.07
-0.84
-1.39
-3.07
-5.84
-9.24
-12.58
-15.14
-16.31
-15.7
-13.29
-9.51
-5.3
-1.94
-0.56
-1.67
-4.76
-8.51
-11.27
-11.85
-9.95
-6.26
-1.9
2.11
5.31
7.77
9.75
11.39
12.55
13
12.65
11.71
10.61
9.78
9.46
9.56
9.75
9.66
9.07
7.99
6.57
5.02
3.52
2.2
1.12
0.3
-0.29
-0.67
-0.93
-1.19
-1.6
-2.22
-3.06
-3.97
-4.71
-5.04
-4.86
-4.33
-3.89
-4.05
-5.24
-7.46
-10.27
-12.92
-14.57
-14.68
-13.13
-10.28
-6.78
-3.32
-0.44
1.61
2.83
3.45
3.72
3.76
3.62
3.27
2.75
2.23
2.04
2.39
3.27
4.34
5.08
5.08
4.32
3.25
2.54
2.69
3.73
5.14
6.14
6.06
4.71
2.42
-0.15
-2.4
-4.03
-5.14
-6.02
-6.94
-7.96
-8.96
-9.71
-10.04
-9.88
-9.29
-8.32
-7.05
-5.52
-3.82
-2.09
-0.54
0.69
1.6
2.29
3.01
3.92
4.91
5.43
4.57
1.39
-4.59
-12.94
-22.36
-31.02
-37.29
-40.39
-40.64
-39.19
-37.34
-35.9
-34.92
-33.86
-32.06
-29.15
-25.22
-20.63
-15.69
-10.46
-4.8
1.5
8.38
15.39
21.72
26.52
29.17
29.52
27.91
24.96
21.36
17.7
14.39
11.76
10.13
9.76
10.84
13.21
16.45
19.82
22.59
24.23
24.59
24.01
23.04
22.3
22.17
22.7
23.63
24.61
25.36
25.79
25.94
25.81
25.29
24.08
21.9
18.66
14.56
10.07
5.78
2.19
-0.36
-1.84
-2.51
-2.84
-3.39
-4.56
-6.4
-8.59
-10.56
-11.85
-12.36
-12.41
-12.57
-13.26
-14.52
-15.98
-17.1
-17.46
-16.9
-15.54
-13.59
-11.23
-8.64
-5.96
-3.44
-1.32
0.28
1.36
2.06
2.51
2.74
2.67
2.24
1.48
0.58
-0.19
-0.66
-0.77
-0.6
-0.23
0.29
0.98
1.86
2.87
3.92
4.85
5.53
5.86
5.79
5.26
4.31
3.08
1.83
0.91
0.6
1.1
2.31
3.9
5.37
6.18
5.92
4.35
1.58
-2.01
-5.78
-9.02
-11.05
-11.46
-10.21
-7.63
-4.31
-0.93
1.98
4.25
5.98
7.49
9
10.51
11.82
12.69
13.03
13.05
13.12
13.51
14.22
14.94
15.18
14.6
13.19
11.29
9.39
7.86
6.76
5.87
4.75
2.99
0.35
-3.14
-7.23
-11.45
-15.31
-18.35
-20.28
-21.01
-20.77
-19.95
-19.05
-18.49
-18.5
-19.02
-19.77
-20.33
-20.31
-19.39
-17.45
-14.63
-11.26
-7.89
-5.15
-3.54
-3.26
-4.06
-5.26
-5.97
-5.39
-3.17
0.48
4.86
9.1
12.58
15.11
16.95
18.55
20.19
21.77
22.84
22.89
21.67
19.36
16.5
13.72
11.43
9.63
8.06
6.44
4.61
2.66
0.75
-1.04
-2.83
-4.77
-6.91
-9.01
-10.58
-11.08
-10.18
-7.94
-4.8
-1.46
1.43
3.43
4.41
4.54
4.17
3.67
3.32
3.25
3.47
3.89
4.44
5.03
5.57
5.94
6
5.64
4.87
3.84
2.77
1.85
1.16
0.58
-0.07
-0.93
-1.97
-2.99
-3.69
-3.88
-3.57
-3.01
-2.56
-2.61
-3.3
-4.56
-6.08
-7.45
-8.28
-8.28
-7.32
-5.42
-2.78
0.27
3.33
6.08
8.28
9.85
10.87
11.45
11.73
11.77
11.6
11.21
10.54
9.59
8.34
6.78
5.01
3.13
1.31
-0.31
-1.61
-2.61
-3.41
-4.17
-5.08
-6.23
-7.59
-8.99
-10.12
-10.69
-10.47
-9.45
-7.87
-6.2
-4.97
-4.64
-5.4
-7.01
-8.93
-10.38
-10.75
-9.75
-7.62
-4.97
-2.57
-1
-0.46
-0.76
-1.53
-2.45
-3.42
-4.51
-5.81
-7.27
-8.63
-9.53
-9.69
-9.1
-8.03
-6.87
-5.98
-5.47
-5.25
-5.13
-4.93
-4.6
-4.24
-3.93
-3.73
-3.57
-3.36
-3.04
-2.67
-2.43
-2.56
-3.22
-4.44
-6.09
-7.85
-9.3
-9.95
-9.41
-7.45
-4.2
-0.1
4.19
8
10.89
12.75
13.74
14.17
14.26
14.12
13.77
13.21
12.55
11.92
11.43
11.07
10.72
10.19
9.38
8.28
7.02
5.8
4.74
3.91
3.27
2.77
2.39
2.14
2.05
2.08
2.13
2.03
1.67
0.97
-0.07
-1.42
-2.99
-4.59
-5.93
-6.65
-6.45
-5.26
-3.35
-1.25
0.49
1.55
1.99
2.2
2.58
3.37
4.44
5.45
6.05
6.11
5.73
5.22
4.89
4.85
5.03
5.2
5.12
4.67
3.88
2.92
1.97
1.21
0.66
0.24
-0.26
-1
-2.11
-3.52
-5.05
-6.44
-7.42
-7.9
-7.96
-7.88
-8.02
-8.64
-9.69
-10.85
-11.57
-11.32
-9.86
-7.29
-4.04
-0.71
2.18
4.34
5.68
6.31
6.34
5.87
5.04
4.02
3.01
2.24
1.82
1.78
2
2.37
2.74
3.05
3.3
3.59
4.04
4.76
5.72
6.74
7.48
7.6
6.9
5.39
3.33
1.13
-0.78
-2.14
-2.85
-2.99
-2.82
-2.7
-3
-4.03
-5.83
-8.13
-10.35
-11.75
-11.75
-10.08
-6.98
-3.09
0.72
3.7
5.42
5.86
5.38
4.47
3.56
2.86
2.37
2.01
1.75
1.7
2
2.74
3.81
4.94
5.75
6.05
5.87
5.56
5.55
6.07
7.03
7.92
8.15
7.37
5.78
4.11
3.31
4.05
6.29
9.23
11.65
12.43
11.11
8.08
4.42
1.46
0.3
1.47
4.78
9.52
14.58
18.78
21.14
21.25
19.43
16.7
14.38
13.4
13.89
15.05
15.6
14.52
11.6
7.71
4.44
3.52
6.13
12.37
20.96
29.37
34.59
34.21
27.47
15.86
2.69
-8.32
-14.72
-16.47
-15.64
-15.05
-16.62
-20.44
-24.94
-28.17
-28.97
-27.66
-25.7
-24.76
-25.77
-28.52
-31.75
-33.9
-33.85
-31.37
-27.27
-22.99
-19.9
-18.75
-19.42
-20.97
-22.19
-22.12
-20.31
-16.76
-11.7
-5.36
2.1
10.38
18.86
26.67
32.94
37.25
40
42.23
45.14
49.33
54.43
59.2
62.16
62.25
59.24
53.59
45.97
36.94
26.93
16.58
7.06
-0.05
-3.44
-2.82
0.63
4.52
6.2
3.83
-2.93
-12.94
-24.2
-34.7
-42.99
-48.5
-51.32
-51.93
-50.82
-48.48
-45.24
-41.42
-37.26
-32.87
-28.19
-23.08
-17.53
-11.87
-6.85
-3.39
-2.09
-2.8
-4.62
-6.28
-6.82
-6.13
-5.06
-4.85
-6.44
-9.9
-14.38
-18.67
-21.83
-23.71
-24.77
-25.76
-27.12
-28.69
-29.76
-29.23
-26.01
-19.3
-9.01
3.92
17.34
28.35
34.25
33.77
27.73
18.85
10.64
5.81
5.26
7.98
11.92
15.18
16.81
16.75
15.28
12.48
7.97
1.27
-7.72
-18.43
-29.67
-40.11
-48.51
-54.07
-56.38
-55.31
-50.86
-43.11
-32.34
-19.27
-5.17
8.18
18.86
25.35
26.95
24.01
17.82
10.12
2.72
-2.91
-6
-6.53
-5.18
-3.12
-1.49
-1.14
-2.26
-4.48
-7.1
-9.53
-11.43
-12.81
-13.76
-14.26
-14.19
-13.5
-12.49
-11.87
-12.57
-15.23
-19.84
-25.52
-30.83
-34.41
-35.59
-34.67
-32.67
-30.8
-29.77
-29.56
-29.52
-28.86
-27.08
-24.16
-20.42
-16.26
-11.95
-7.62
-3.39
0.58
4.04
6.73
8.53
9.46
9.73
9.67
9.7
10.2
11.46
13.53
16.19
18.94
21.25
22.71
23.22
23
22.46
21.9
21.5
21.17
20.76
20.14
19.36
18.58
17.98
17.66
17.5
17.26
16.65
15.48
13.75
11.67
9.55
7.72
6.42
5.67
5.33
5.14
4.76
3.95
2.57
0.76
-1.09
-2.42
-2.71
-1.7
0.4
2.86
4.71
4.98
3.09
-0.96
-6.55
-12.72
-18.37
-22.61
-24.81
-24.67
-22.19
-17.58
-11.32
-4.13
3.12
9.52
14.28
16.98
17.63
16.67
14.83
12.88
11.45
10.91
11.42
12.99
15.52
18.83
22.55
26.06
28.52
29.01
26.87
21.84
14.34
5.34
-3.8
-11.69
-17.16
-19.58
-18.9
-15.68
-10.87
-5.59
-0.83
2.75
4.92
5.82
5.79
5.18
4.22
3.03
1.68
0.27
-1.01
-1.91
-2.25
-2
-1.28
-0.32
0.71
1.74
2.77
3.82
4.86
5.72
6.24
6.32
5.96
5.28
4.43
3.49
2.44
1.17
-0.46
-2.49
-4.85
-7.28
-9.38
-10.64
-10.62
-9.1
-6.24
-2.62
0.95
3.7
5.24
5.69
5.62
5.71
6.44
7.87
9.64
11.22
12.25
12.63
12.59
12.49
12.6
13
13.56
14.11
14.45
14.5
14.25
13.74
12.97
11.95
10.67
9.12
7.26
5.05
2.44
-0.71
-4.5
-8.98
-14.06
-19.49
-24.79
-29.4
-32.66
-34.08
-33.45
-30.93
-27.03
-22.45
-17.86
-13.71
-10.16
-7.06
-4.17
-1.27
1.7
4.68
7.57
10.29
12.89
15.44
17.99
20.43
22.59
24.25
25.32
25.85
25.94
25.67
25
23.77
21.78
18.95
15.36
11.25
6.95
2.75
-1.1
-4.47
-7.31
-9.63
-11.61
-13.47
-15.38
-17.39
-19.28
-20.62
-20.9
-19.7
-16.84
-12.41
-6.79
-0.53
5.7
11.16
15.25
17.56
18.06
17.09
15.2
12.97
10.82
8.95
7.38
6.11
5.14
4.49
4.1
3.84
3.51
2.97
2.18
1.28
0.51
0.11
0.2
0.74
1.5
2.19
2.47
2.2
1.45
0.56
0.03
0.22
1.23
2.75
4.21
5.07
5.06
4.29
3.13
1.95
1.02
0.39
0.07
0.1
0.58
1.58
3
4.56
5.9
6.8
7.31
7.7
8.29
9.18
10.16
10.74
10.42
8.9
6.25
2.92
-0.5
-3.4
-5.46
-6.62
-7.13
-7.3
-7.42
-7.63
-7.94
-8.37
-8.92
-9.61
-10.4
-11.12
-11.6
-11.71
-11.54
-11.36
-11.54
-12.32
-13.67
-15.19
-16.27
-16.24
-14.64
-11.43
-6.98
-2.02
2.58
6.08
8.1
8.72
8.34
7.5
6.64
6
5.66
5.58
5.69
5.94
6.3
6.68
6.97
7.06
6.89
6.45
5.79
4.94
3.88
2.57
0.94
-0.99
-3.07
-5
-6.44
-7.21
-7.37
-7.3
-7.6
-8.71
-10.75
-13.3
-15.56
-16.64
-15.9
-13.17
-8.8
-3.38
2.36
7.85
12.62
16.36
18.88
20.13
20.23
19.47
18.28
17.03
15.96
15.09
14.3
13.46
12.52
11.53
10.53
9.5
8.32
6.85
5.05
3.07
1.12
-0.57
-1.88
-2.85
-3.59
-4.21
-4.75
-5.2
-5.61
-6.09
-6.82
-7.96
-9.52
-11.26
-12.79
-13.61
-13.34
-11.86
-9.38
-6.33
-3.2
-0.44
1.75
3.32
4.34
4.91
5.06
4.83
4.29
3.61
3.04
2.8
3.03
3.68
4.59
5.5
6.16
6.41
6.23
5.72
5.1
4.54
4.15
3.9
3.65
3.22
2.45
1.35
0.08
-1.09
-1.92
-2.32
-2.45
-2.66
-3.43
-5.07
-7.62
-10.73
-13.71
-15.8
-16.37
-15.18
-12.42
-8.62
-4.54
-0.88
1.9
3.63
4.49
4.88
5.16
5.59
6.18
6.72
7
6.9
6.51
6.06
5.75
5.65
5.58
5.34
4.8
4.01
3.24
2.72
2.55
2.62
2.7
2.58
2.22
1.71
1.21
0.75
0.26
-0.4
-1.28
-2.29
-3.22
-3.92
-4.41
-4.88
-5.62
-6.86
-8.54
-10.36
-11.79
-12.27
-11.42
-9.19
-5.9
-2.16
1.3
3.89
5.36
5.77
5.46
4.81
4.14
3.64
3.37
3.36
3.57
3.95
4.37
4.64
4.62
4.17
3.34
2.27
1.24
0.5
0.17
0.1
-0.06
-0.7
-2.03
-3.85
-5.66
-6.76
-6.66
-5.27
-2.93
-0.23
2.2
3.92
4.69
4.38
3.01
0.69
-2.26
-5.37
-8.06
-9.85
-10.46
-9.84
-8.18
-5.76
-2.89
0.12
2.98
5.38
7.11
8.08
8.35
8.15
7.75
7.38
7.18
7.21
7.45
7.85
8.32
8.75
8.96
8.81
8.2
7.15
5.82
4.43
3.21
2.31
1.82
1.71
1.9
2.24
2.53
2.56
2.17
1.37
0.36
-0.56
-1.13
-1.22
-0.97
-0.63
-0.52
-0.82
-1.6
-2.75
-4.14
-5.56
-6.82
-7.69
-8.01
-7.68
-6.83
-5.72
-4.69
-3.94
-3.49
-3.13
-2.68
-2.12
-1.81
-2.37
-4.31
-7.72
-12.01
-16.07
-18.71
-19.14
-17.37
-14.14
-10.68
-8.06
-6.84
-6.87
-7.5
-7.97
-7.75
-6.74
-5.22
-3.6
-2.2
-1.16
-0.36
0.32
0.96
1.5
1.78
1.68
1.25
0.7
0.34
0.37
0.69
0.91
0.49
-0.97
-3.46
-6.43
-8.97
-10.24
-9.83
-8.03
-5.61
-3.52
-2.37
-2.2
-2.53
-2.68
-2.05
-0.37
2.29
5.66
9.32
12.78
15.47
16.84
16.54
14.6
11.54
8.2
5.49
3.96
3.64
4.03
4.34
3.88
2.27
-0.39
-3.69
-7.01
-9.78
-11.56
-12.14
-11.55
-10.12
-8.43
-7.17
-6.94
-7.95
-9.9
-12.05
-13.51
-13.61
-12.21
-9.72
-6.96
-4.8
-3.81
-4.15
-5.48
-7.14
-8.37
-8.58
-7.44
-5.02
-1.65
2.16
5.88
9.1
11.56
13.17
13.88
13.72
12.78
11.21
9.25
7.21
5.44
4.18
3.53
3.39
3.51
3.58
3.32
2.57
1.24
-0.61
-2.82
-5.16
-7.28
-8.75
-9.19
-8.38
-6.35
-3.38
0.05
3.39
6.1
7.78
8.21
7.44
5.74
3.61
1.51
-0.19
-1.33
-1.98
-2.29
-2.41
-2.45
-2.45
-2.37
-2.13
-1.55
-0.48
1.18
3.33
5.65
7.71
9.12
9.68
9.43
8.59
7.41
6.12
4.9
3.88
3.13
2.62
2.09
1.11
-0.76
-3.75
-7.63
-11.73
-15.14
-17.01
-16.94
-15.07
-12.07
-8.78
-5.95
-3.99
-2.83
-2.13
-1.49
-0.65
0.39
1.42
2.2
2.62
2.76
2.84
3.1
3.64
4.36
5.08
5.56
5.68
5.43
4.89
4.11
3.17
2.14
1.11
0.23
-0.39
-0.75
-1
-1.4
-2.23
-3.64
-5.51
-7.46
-8.97
-9.59
-9.05
-7.37
-4.83
-1.89
0.93
3.2
4.69
5.4
5.53
5.36
5.11
4.9
4.75
4.68
4.7
4.91
5.32
5.87
6.39
6.69
6.71
6.49
6.2
5.91
5.55
4.96
3.96
2.55
0.89
-0.69
-1.97
-2.82
-3.34
-3.74
-4.26
-5.07
-6.32
-8.09
-10.36
-12.97
-15.49
-17.3
-17.74
-16.41
-13.35
-9.14
-4.67
-0.87
1.71
3.01
3.37
3.27
3.12
3.02
2.95
2.88
2.91
3.29
4.23
5.75
7.64
9.52
11.04
11.98
12.33
12.22
11.73
10.86
9.53
7.69
5.39
2.86
0.46
-1.47
-2.76
-3.42
-3.66
-3.76
-3.99
-4.42
-5.09
-5.92
-6.82
-7.6
-8.04
-7.87
-6.9
-5.15
-2.89
-0.58
1.37
2.77
3.66
4.23
4.65
4.92
4.96
4.71
4.27
3.93
3.97
4.55
5.58
6.76
7.73
8.24
8.26
7.89
7.37
6.87
6.42
5.94
5.25
4.15
2.62
0.83
-0.91
-2.22
-2.9
-3.05
-3.04
-3.43
-4.64
-6.86
-9.88
-13.25
-16.35
-18.6
-19.55
-18.96
-16.83
-13.41
-9.26
-5.09
-1.52
1.04
2.61
3.46
3.94
4.28
4.5
4.51
4.3
4.07
4.13
4.69
5.75
6.99
7.96
8.31
8.01
7.35
6.79
6.64
6.92
7.28
7.2
6.28
4.43
1.95
-0.59
-2.61
-3.75
-4.04
-3.83
-3.62
-3.86
-4.82
-6.46
-8.48
-10.42
-11.71
-11.85
-10.54
-7.83
-4.16
-0.21
3.31
5.95
7.68
8.79
9.66
10.5
11.24
11.63
11.43
10.69
9.67
8.8
8.38
8.45
8.8
9.09
9.07
8.65
7.93
7.08
6.26
5.54
4.86
4.14
3.26
2.23
1.16
0.22
-0.43
-0.77
-0.94
-1.2
-1.88
-3.21
-5.24
-7.84
-10.7
-13.35
-15.27
-15.94
-15.02
-12.47
-8.63
-4.19
0.05
3.4
5.57
6.69
7.16
7.43
7.74
8.07
8.2
7.97
7.37
6.67
6.19
6.17
6.57
7.08
7.33
7.06
6.32
5.4
4.64
4.26
4.25
4.38
4.36
3.99
3.19
2.05
0.76
-0.44
-1.34
-1.77
-1.78
-1.59
-1.67
-2.47
-4.32
-7.17
-10.56
-13.71
-15.87
-16.48
-15.39
-12.86
-9.41
-5.63
-2.04
1
3.35
4.98
6
6.57
6.86
7
7.09
7.16
7.21
7.26
7.33
7.43
7.57
7.71
7.76
7.63
7.27
6.72
6.08
5.5
5.1
4.9
4.84
4.73
4.4
3.73
2.73
1.55
0.37
-0.66
-1.48
-2.14
-2.75
-3.44
-4.33
-5.5
-7.01
-8.85
-10.89
-12.84
-14.29
-14.76
-13.92
-11.69
-8.39
-4.62
-1.1
1.6
3.29
4.13
4.55
4.92
5.41
5.93
6.27
6.32
6.21
6.28
6.79
7.83
9.13
10.21
10.62
10.14
8.88
7.19
5.55
4.28
3.51
3.13
2.95
2.76
2.42
1.87
1.13
0.26
-0.67
-1.6
-2.44
-3.15
-3.72
-4.2
-4.69
-5.35
-6.33
-7.67
-9.25
-10.72
-11.59
-11.39
-9.85
-7.05
-3.44
0.28
3.44
5.62
6.77
7.12
7.08
6.91
6.6
5.91
4.52
2.22
-0.81
-4.06
-6.82
-8.51
-8.93
-8.36
-7.35
-6.4
-5.77
-5.38
-4.93
-4.23
-3.26
-2.26
-1.51
-1.11
-0.91
-0.59
0.13
1.31
2.74
4.09
5.07
5.59
5.72
5.57
5.17
4.36
2.9
0.57
-2.57
-6.1
-9.29
-11.33
-11.64
-10.08
-7.08
-3.46
-0.14
2.16
3.21
3.26
2.8
2.33
2.15
2.23
2.41
2.49
2.43
2.34
2.41
2.79
3.45
4.17
4.63
4.58
3.97
2.98
1.94
1.2
0.91
1.04
1.4
1.75
1.93
1.87
1.54
0.99
0.29
-0.51
-1.3
-2
-2.59
-3.17
-3.95
-5.19
-7.03
-9.4
-11.94
-14.1
-15.28
-15.02
-13.22
-10.15
-6.41
-2.72
0.29
2.32
3.43
3.96
4.32
4.8
5.43
6.04
6.42
6.44
6.2
5.9
5.78
5.92
6.23
6.51
6.54
6.21
5.6
4.87
4.2
3.68
3.3
2.98
2.62
2.13
1.5
0.75
0.01
-0.56
-0.79
-0.57
0.03
0.72
1.07
0.65
-0.78
-3.18
-6.21
-9.37
-12.11
-13.99
-14.79
-14.54
-13.54
-12.28
-11.33
-11.07
-11.59
-12.57
-13.39
-13.4
-12.27
-10.22
-7.9
-6.2
-5.69
-6.42
-7.76
-8.69
-8.28
-6.05
-2.15
2.76
7.84
12.36
15.91
18.36
19.77
20.19
19.71
18.4
16.44
14.09
11.68
9.52
7.82
6.6
5.74
4.93
3.83
2.14
-0.27
-3.39
-7.09
-11.1
-15.09
-18.68
-21.42
-22.84
-22.65
-20.79
-17.55
-13.51
-9.35
-5.67
-2.76
-0.61
1.02
2.41
3.72
4.9
5.88
6.6
7.18
7.88
8.92
10.31
11.76
12.77
12.83
11.73
9.65
7.14
4.84
3.23
2.41
2.14
2.01
1.64
0.87
-0.18
-1.29
-2.17
-2.67
-2.77
-2.63
-2.47
-2.54
-2.99
-3.88
-5.19
-6.78
-8.46
-9.87
-10.53
-9.96
-7.84
-4.27
0.22
4.75
8.46
10.86
11.99
12.34
12.52
13.01
13.9
14.94
15.75
16.04
15.79
15.27
14.98
15.37
16.58
18.32
19.86
20.34
19.19
16.28
11.93
6.58
0.62
-5.69
-11.92
-17.29
-20.84
-21.88
-20.68
-18.64
-17.92
-20.57
-27.39
-37.45
-48.22
-56.65
-60.38
-58.6
-52.17
-43.03
-33.1
-23.64
-15.09
-7.49
-1.2
2.87
3.56
0.39
-5.68
-12.31
-16.66
-16.82
-12.71
-5.96
1.2
7.2
11.84
15.98
20.55
25.8
31
34.99
37.03
37.25
36.56
36.07
36.4
37.4
38.32
38.25
36.53
32.98
27.96
22.32
17.1
13.42
12.05
13.2
16.39
20.63
24.81
28.13
30.32
31.64
32.49
33.12
33.54
33.63
33.45
33.29
33.48
34.06
34.53
33.97
31.36
26.14
18.38
8.85
-1.36
-11.21
-19.95
-27.14
-32.6
-36.39
-38.65
-39.72
-40.06
-40.15
-40.45
-41.26
-42.68
-44.56
-46.47
-47.77
-47.77
-45.95
-42.08
-36.34
-29.29
-21.71
-14.53
-8.59
-4.6
-3.02
-3.88
-6.79
-10.99
-15.51
-19.54
-22.68
-25.01
-26.87
-28.54
-29.93
-30.51
-29.5
-26.28
-20.71
-13.28
-4.92
3.32
10.68
16.82
21.79
25.82
29.07
31.51
33
33.4
32.78
31.35
29.48
27.44
25.32
22.99
20.26
16.94
13.02
8.76
4.63
1.24
-0.81
-1.16
0.12
2.36
4.34
4.52
1.39
-5.99
-17.6
-32.28
-47.78
-61.24
-69.98
-72.13
-67.23
-56.29
-41.4
-25.12
-9.74
3.18
12.95
19.59
23.6
25.7
26.66
27.21
27.98
29.43
31.85
35.39
40.04
45.52
51.04
55.19
56
51.36
39.71
20.71
-4.35
-32.75
-60.92
-85.33
-103.21
-112.96
-114.09
-107.13
-93.4
-74.87
-54.07
-33.63
-15.7
-1.34
9.76
18.92
27.67
36.95
46.64
55.85
63.4
68.22
69.3
65.43
55.14
37.09
10.94
-21.94
-58.39
-94.12
-124.77
-146.97
-158.84
-160.04
-151.45
-134.76
-112.25
-86.33
-59.13
-32.22
-6.38
18
40.43
59.95
75.23
85.18
89.52
89.02
85.1
79.14
71.92
63.66
54.47
44.9
36.03
29.1
24.73
22.35
20.46
17.5
12.84
7.23
2.29
-0.51
-0.84
0.28
1.09
0.16
-2.87
-7.06
-10.77
-12.56
-11.77
-8.76
-4.58
-0.37
3.13
5.72
7.67
9.41
11.24
13.19
15.06
16.6
17.76
18.8
20.17
22.32
25.37
29.03
32.62
35.4
36.82
36.75
35.46
33.42
31.07
28.67
26.19
23.52
20.55
17.26
13.76
10.23
6.76
3.37
-0.01
-3.4
-6.67
-9.47
-11.34
-11.83
-10.75
-8.27
-4.95
-1.53
1.26
3.06
3.88
4.14
4.38
5.08
6.38
8.13
9.91
11.3
12.02
12
11.3
10.08
8.38
6.25
3.74
0.99
-1.73
-4.16
-6.09
-7.51
-8.6
-9.62
-10.85
-12.49
-14.62
-17.19
-19.99
-22.6
-24.48
-25.05
-23.96
-21.24
-17.45
-13.52
-10.52
-9.19
-9.72
-11.55
-13.63
-14.83
-14.31
-11.95
-8.23
-4.07
-0.35
2.39
4.11
5.14
5.96
6.89
8.07
9.42
10.78
12.07
13.28
14.46
15.65
16.73
17.51
17.69
17.12
15.82
14.1
12.37
11.01
10.07
9.25
8.03
5.97
2.94
-0.77
-4.52
-7.57
-9.36
-9.65
-8.55
-6.44
-3.86
-1.44
0.22
0.65
-0.45
-3.11
-7.11
-12.04
-17.36
-22.43
-26.62
-29.34
-30.22
-29.19
-26.6
-23.09
-19.46
-16.37
-14.17
-12.89
-12.25
-11.88
-11.42
-10.6
-9.3
-7.55
-5.46
-3.21
-0.96
1.23
3.39
5.65
8.1
10.75
13.42
15.82
17.58
18.49
18.57
18.1
17.54
17.36
17.87
19.05
20.57
21.91
22.56
22.28
21.13
19.45
17.68
16.13
14.93
14
13.17
12.32
11.4
10.45
9.44
8.32
7
5.49
3.91
2.55
1.68
1.5
1.92
2.59
3.04
2.84
1.85
0.21
-1.71
-3.54
-5.12
-6.58
-8.19
-10.23
-12.75
-15.58
-18.29
-20.48
-21.83
-22.18
-21.55
-20.06
-17.94
-15.49
-12.98
-10.67
-8.65
-6.89
-5.25
-3.62
-2
-0.51
0.6
1.13
1.01
0.37
-0.48
-1.2
-1.57
-1.51
-1.15
-0.66
-0.21
0.13
0.34
0.46
0.47
0.36
0.17
-0.01
-0.02
0.23
0.72
1.29
1.68
1.7
1.31
0.69
0.21
0.31
1.3
3.28
5.95
8.78
11.1
12.36
12.33
11.18
9.4
7.56
6.08
5.09
4.54
4.27
4.18
4.31
4.62
4.99
5.18
4.95
4.19
3.09
2.04
1.39
1.31
1.64
2.04
2.09
1.64
0.76
-0.24
-1.01
-1.31
-1.12
-0.64
-0.19
-0.18
-0.9
-2.48
-4.75
-7.25
-9.29
-10.2
-9.55
-7.36
-4.12
-0.58
2.53
4.7
5.81
5.97
5.46
4.53
3.41
2.29
1.41
1.01
1.25
2.2
3.7
5.46
7.04
8.07
8.32
7.82
6.87
5.96
5.54
5.78
6.51
7.22
7.42
6.85
5.66
4.29
3.21
2.65
2.44
2.23
1.64
0.49
-1.23
-3.37
-5.78
-8.26
-10.47
-11.95
-12.2
-10.87
-8.03
-4.19
-0.19
3.13
5.16
5.82
5.4
4.44
3.45
2.73
2.34
2.21
2.29
2.6
3.15
3.9
4.64
5.1
5.06
4.52
3.73
3.13
3.05
3.59
4.5
5.33
5.58
4.97
3.54
1.66
-0.15
-1.4
-1.91
-1.87
-1.73
-2.07
-3.28
-5.4
-8.17
-11.02
-13.28
-14.35
-13.91
-11.99
-8.94
-5.44
-2.17
0.28
1.73
2.32
2.41
2.39
2.47
2.64
2.83
3.02
3.3
3.8
4.61
5.67
6.76
7.61
8.06
8.1
7.9
7.69
7.56
7.42
7.02
6.16
4.79
3.1
1.4
0.02
-0.85
-1.26
-1.41
-1.58
-2.05
-3.07
-4.72
-6.98
-9.56
-11.95
-13.5
-13.61
-11.99
-8.85
-4.89
-1.02
1.96
3.7
4.38
4.52
4.61
4.89
5.2
5.2
4.65
3.6
2.42
1.58
1.45
2.02
3.01
3.95
4.42
4.2
3.37
2.24
1.29
0.86
1.06
1.67
2.24
2.35
1.77
0.62
-0.72
-1.83
-2.44
-2.54
-2.31
-2.05
-2.07
-2.61
-3.83
-5.76
-8.16
-10.53
-12.17
-12.33
-10.6
-7.11
-2.58
1.94
5.44
7.44
8.11
8.16
8.38
9.21
10.56
11.88
12.55
12.26
11.16
9.74
8.53
7.86
7.59
7.3
6.39
4.23
0.35
-5.42
-12.69
-20.35
-26.68
-29.9
-28.9
-23.86
-16.32
-8.64
-3.1
-1.07
-2.71
-7.16
-13.13
-19.31
-24.71
-28.66
-30.86
-31.4
-30.79
-29.85
-29.31
-29.49
-30.04
-30.27
-29.55
-27.64
-24.72
-20.98
-16.36
-10.45
-2.84
6.37
16.28
25.42
32.33
36.26
37.45
36.92
35.92
35.28
35.17
35.2
34.77
33.49
31.28
28.34
24.96
21.38
17.77
14.26
11.01
8.11
5.58
3.4
1.47
-0.29
-1.84
-3.09
-3.93
-4.31
-4.33
-4.22
-4.32
-4.93
-6.25
-8.27
-10.78
-13.32
-15.32
-16.21
-15.61
-13.51
-10.25
-6.52
-3.13
-0.71
0.47
0.61
0.26
0.01
0.26
0.98
1.85
2.46
2.58
2.33
2.07
2.14
2.66
3.4
3.98
4.09
3.64
2.83
2.02
1.48
1.26
1.22
1.09
0.69
-0.02
-0.86
-1.55
-1.77
-1.35
-0.3
1.12
2.48
3.24
2.95
1.39
-1.3
-4.63
-7.89
-10.35
-11.44
-10.94
-9.01
-6.1
-2.79
0.39
3.08
5.12
6.56
7.52
8.12
8.35
8.14
7.4
6.21
4.89
3.93
3.78
4.61
6.15
7.76
8.72
8.61
7.47
5.84
4.44
3.81
4.02
4.66
4.98
4.37
2.55
-0.29
-3.64
-6.92
-9.76
-12.09
-14.1
-16.06
-18.25
-20.83
-23.96
-27.74
-32.09
-36.63
-40.58
-42.96
-42.82
-39.63
-33.46
-24.89
-14.73
-3.7
7.72
19.14
30.05
39.72
47.19
51.67
52.83
50.94
46.84
41.66
36.51
32.15
28.95
26.76
25.1
23.35
20.98
17.76
13.82
9.62
5.69
2.4
-0.21
-2.37
-4.39
-6.5
-8.7
-10.86
-12.77
-14.25
-15.22
-15.65
-15.65
-15.42
-15.23
-15.35
-15.97
-17.06
-18.37
-19.49
-19.91
-19.19
-17.17
-14.04
-10.32
-6.75
-3.99
-2.37
-1.77
-1.77
-1.88
-1.85
-1.75
-1.83
-2.25
-2.91
-3.45
-3.45
-2.71
-1.38
0.07
1.14
1.44
0.92
-0.22
-1.58
-2.79
-3.64
-4.11
-4.4
-4.73
-5.28
-6.08
-6.91
-7.45
-7.4
-6.61
-5.2
-3.5
-1.99
-1.14
-1.37
-2.88
-5.66
-9.34
-13.28
-16.58
-18.42
-18.28
-16.18
-12.71
-8.78
-5.3
-2.8
-1.33
-0.53
0.03
0.61
1.19
1.55
1.5
1.04
0.51
0.44
1.37
3.59
7
11.07
15.02
18.09
19.83
20.24
19.72
18.75
17.64
16.43
14.9
12.91
10.54
8.14
6.15
4.8
4.02
3.48
2.81
1.77
0.33
-1.44
-3.43
-5.55
-7.68
-9.62
-11.02
-11.55
-10.98
-9.27
-6.62
-3.49
-0.38
2.21
4.02
5.04
5.57
6.02
6.71
7.74
8.95
10.01
10.71
11.02
11.13
11.3
11.63
12
12.11
11.65
10.52
8.9
7.18
5.79
5.01
4.83
4.96
5.04
4.78
4.08
3.03
1.77
0.41
-0.99
-2.33
-3.47
-4.21
-4.53
-4.63
-4.96
-6.03
-8.07
-10.83
-13.59
-15.49
-15.91
-14.73
-12.33
-9.4
-6.63
-4.51
-3.32
-3.21
-4.15
-6.02
-8.42
-10.79
-12.46
-12.99
-12.31
-10.77
-8.99
-7.6
-6.94
-6.98
-7.42
-7.81
-7.79
-7.12
-5.75
-3.79
-1.45
0.9
2.88
4.1
4.36
3.7
2.47
1.13
0.14
-0.27
-0.18
0.09
0.12
-0.39
-1.54
-3.17
-4.89
-6.22
-6.76
-6.27
-4.76
-2.49
0.13
2.66
4.75
6.25
7.24
7.93
8.48
8.92
9.08
8.78
7.95
6.84
5.86
5.44
5.8
6.79
8.01
8.98
9.38
9.17
8.47
7.47
6.27
4.91
3.47
2.09
0.95
0.22
-0.08
-0.06
0.07
0.12
-0.07
-0.59
-1.52
-2.92
-4.74
-6.83
-8.85
-10.36
-11
-10.56
-9.13
-7.05
-4.83
-2.98
-1.83
-1.42
-1.46
-1.54
-1.34
-0.81
-0.13
0.38
0.57
0.58
0.77
1.48
2.76
4.3
5.6
6.2
6.04
5.39
4.69
4.26
4.11
3.94
3.46
2.5
1.21
-0.06
-0.94
-1.24
-1.05
-0.69
-0.56
-0.97
-2.11
-3.92
-6.2
-8.65
-10.87
-12.44
-12.96
-12.15
-10.08
-7.12
-3.91
-1.15
0.75
1.78
2.28
2.71
3.32
4.02
4.48
4.37
3.67
2.68
1.93
1.79
2.27
3.09
3.81
4.14
4.05
3.74
3.46
3.31
3.16
2.77
1.94
0.62
-1.02
-2.75
-4.34
-5.62
-6.52
-7.04
-7.24
-7.29
-7.5
-8.17
-9.53
-11.5
-13.67
-15.32
-15.75
-14.48
-11.51
-7.33
-2.7
1.58
4.99
7.36
8.85
9.77
10.4
10.91
11.32
11.58
11.65
11.51
11.25
11.03
11
11.27
11.82
12.46
12.86
12.77
12.07
10.88
9.52
8.38
7.7
7.44
7.33
7
6.26
5.1
3.75
2.42
1.23
0.11
-1.06
-2.35
-3.74
-5.1
-6.36
-7.57
-8.89
-10.44
-12.11
-13.53
-14.13
-13.47
-11.41
-8.28
-4.7
-1.41
1.02
2.34
2.63
2.2
1.4
0.52
-0.31
-1.03
-1.59
-1.93
-1.97
-1.7
-1.25
-0.86
-0.8
-1.24
-2.08
-2.98
-3.49
-3.23
-2.18
-0.63
0.81
1.61
1.5
0.62
-0.57
-1.51
-1.83
-1.54
-0.9
-0.35
-0.32
-1.12
-2.84
-5.34
-8.21
-10.79
-12.32
-12.2
-10.2
-6.72
-2.62
1.11
3.71
4.96
5.16
4.85
4.57
4.53
4.64
4.66
4.48
4.14
3.85
3.79
3.98
4.28
4.47
4.41
4.15
3.88
3.81
4.01
4.32
4.4
3.83
2.35
-0
-2.8
-5.38
-7.09
-7.58
-6.98
-6
-5.58
-6.54
-9.23
-13.34
-18.03
-22.27
-25.23
-26.54
-26.39
-25.37
-24.26
-23.84
-24.65
-26.95
-30.64
-35.39
-40.79
-46.53
-52.48
-58.65
-65.02
-71.38
-77.3
-82.2
-85.62
-87.27
-87.12
-85.21
-81.49
-75.78
-67.84
-57.34
-43.89
-27.06
-6.58
17.22
43.09
68.93
92.37
111.68
126.37
137.19
145.44
152.12
157.46
161.25
163.32
164
163.86
162.95
160.34
154.24
142.85
125.44
103.08
78.54
55.69
38.5
29.94
31.27
41.54
57.75
75.51
90.22
98.31
98.11
89.85
75.01
55.41
32.49
7.19
-19.82
-47.71
-75.25
-100.83
-122.75
-139.46
-149.98
-154.16
-152.91
-148.09
-142.07
-137
-134.1
-133.34
-133.54
-132.97
-130.04
-123.96
-114.95
-104.12
-92.72
-81.55
-70.52
-58.77
-45.22
-29.43
-12.05
5.22
20.15
30.82
36.21
36.31
31.83
23.79
13.4
2
-8.86
-17.77
-23.81
-26.84
-27.44
-26.56
-24.99
-23.03
-20.59
-17.48
-13.76
-9.75
-5.85
-2.23
1.23
4.83
8.79
13.02
17.05
20.22
21.77
21
17.39
10.78
1.59
-9.12
-19.79
-28.85
-35.17
-38.41
-39.03
-38.05
-36.65
-35.92
-36.54
-38.63
-41.49
-43.57
-42.53
-35.82
-21.64
0.16
27.64
57.17
84.66
106.92
122.46
131.61
135.78
136.76
136.15
135.12
134.39
134.04
133.48
131.52
126.72
118.08
105.74
91.11
76.2
62.64
50.61
38.66
24.39
5.81
-17.6
-44.5
-72.07
-96.67
-114.48
-122.01
-116.65
-97.5
-66.06
-26.76
13.74
48.11
70.56
78.58
73.42
59.21
41.11
23.64
9.6
-0
-5.52
-8.09
-9.27
-10.88
-14.94
-23.4
-37.77
-58.26
-83.09
-108.38
-129.06
-140.46
-140.19
-129.12
-110.98
-90.74
-72.52
-58.17
-47.33
-38.46
-30.26
-22.47
-15.73
-10.76
-7.78
-6.37
-5.97
-6.31
-7.4
-9.11
-10.73
-10.8
-7.63
-0.11
11.57
25.97
40.94
54.5
65.32
72.88
77.2
78.59
77.63
75.21
72.46
70.4
69.45
69.09
68.08
65.21
60.03
53.49
47.67
45.12
47.58
55.2
66.29
77.82
86.5
89.85
86.85
78.15
65.65
51.69
38.48
27.65
20.15
16.33
16.17
19.28
24.95
32.23
40.04
47.44
53.95
59.63
64.88
69.96
74.59
77.72
77.95
74.3
66.77
56.49
45.07
33.81
23.18
13.08
3.51
-4.85
-10.57
-12.29
-9.65
-3.77
3.15
8.79
11.9
12.71
12.58
13.11
15.24
18.95
23.51
28.06
32.15
35.82
39.24
42.13
43.55
42.13
36.66
26.86
13.69
-0.94
-14.87
-26.5
-35.1
-40.74
-43.95
-45.42
-45.96
-46.54
-48.07
-50.97
-54.81
-58.4
-60.42
-60.32
-58.89
-58.14
-60.51
-67.64
-79.52
-94.41
-109.42
-121.6
-128.88
-130.54
-127.05
-119.62
-109.56
-97.82
-84.95
-71.32
-57.54
-44.87
-35.05
-29.73
-29.71
-34.45
-42.2
-50.62
-57.58
-61.83
-63.02
-61.49
-57.84
-52.73
-46.94
-41.52
-37.78
-36.88
-39.25
-44.13
-49.66
-53.53
-53.81
-49.73
-41.85
-31.73
-21.22
-11.81
-4.34
0.93
4.08
5.3
4.97
3.67
2.33
1.95
3.35
6.82
11.97
17.95
23.72
28.37
31.35
32.36
31.37
28.49
23.95
18.08
11.41
4.53
-1.9
-7.29
-11.25
-13.72
-14.93
-15.27
-15.1
-14.63
-13.85
-12.72
-11.28
-9.83
-8.8
-8.6
-9.36
-10.86
-12.54
-13.75
-13.94
-12.8
-10.32
-6.69
-2.31
2.28
6.46
9.56
11.05
10.68
8.62
5.41
1.88
-1.14
-3.08
-3.78
-3.52
-2.79
-2.06
-1.51
-0.99
-0.07
1.6
4.12
7.21
10.28
12.65
13.83
13.67
12.4
10.54
8.62
7.04
5.94
5.22
4.7
4.2
3.61
2.79
1.62
-0.04
-2.21
-4.62
-6.72
-7.78
-7.2
-4.77
-0.86
3.68
7.79
10.62
11.76
11.33
9.82
7.89
6.11
4.8
4.03
3.64
3.36
2.91
2.16
1.12
-0.01
-0.89
-1.18
-0.69
0.54
2.17
3.66
4.46
4.27
3.19
1.74
0.57
0.2
0.78
1.98
3.18
3.79
3.42
2.15
0.44
-1.01
-1.43
-0.33
2.36
6.21
10.36
13.83
15.85
16.14
15.01
13.15
11.27
9.86
8.98
8.46
8.02
7.58
7.21
7.1
7.3
7.64
7.79
7.43
6.44
4.97
3.21
1.08
-1.93
-6.6
-13.49
-22.37
-32.02
-40.59
-46.37
-48.54
-47.55
-44.72
-41.47
-38.58
-35.89
-32.65
-28.11
-22
-14.62
-6.5
1.9
10.34
18.61
26.25
32.38
35.89
35.95
32.47
26.31
18.89
11.51
4.8
-1.36
-7.49
-13.73
-19.45
-23.47
-24.74
-23.05
-19.01
-13.61
-7.59
-1.23
5.35
11.71
16.88
19.71
19.68
17.36
14.22
11.83
10.82
10.56
9.5
5.98
-0.9
-11.14
-24.19
-39.4
-56.12
-73.5
-90.01
-103.49
-111.4
-111.38
-102.17
-84.04
-58.84
-29.61
0.14
27.38
50.19
68.23
82.48
94.52
105.57
115.74
123.92
128.42
127.98
122.55
113.37
102.28
90.72
79.19
67.3
54.47
40.7
26.8
13.97
3.12
-5.64
-13.08
-20.32
-28.24
-37.1
-46.46
-55.58
-63.9
-71.29
-78
-84.44
-90.73
-96.53
-101.01
-103.11
-101.83
-96.5
-86.94
-73.51
-57.11
-39.04
-20.81
-3.81
11.08
23.66
34.39
44.01
53.1
61.69
69.31
75.17
78.63
79.51
78.07
74.9
70.64
65.85
60.93
56.16
51.83
48.19
45.39
43.32
41.61
39.68
36.88
32.78
27.36
21.1
14.84
9.48
5.64
3.45
2.48
1.95
1.07
-0.63
-3.08
-5.76
-7.96
-9.1
-8.94
-7.74
-6.09
-4.67
-4.02
-4.37
-5.59
-7.35
-9.34
-11.38
-13.53
-15.95
-18.75
-21.94
-25.45
-29.24
-33.42
-38.06
-43.07
-47.85
-51.29
-51.96
-48.55
-40.29
-27.29
-10.54
8.28
27.19
44.21
57.82
67.23
72.63
74.98
75.78
76.49
77.94
80.07
81.83
81.56
77.29
67.33
50.92
28.84
3.74
-20.28
-38.88
-49.04
-50.4
-45.34
-37.94
-32.12
-30.05
-31.59
-34.95
-38.02
-39.49
-39.14
-37.38
-34.51
-30.36
-24.53
-17.06
-8.81
-1.22
4.2
6.72
6.86
6.2
6.61
9.48
14.96
22.06
29.06
34.36
37.08
37.31
35.97
34.35
33.63
34.4
36.44
38.72
39.75
38.16
33.33
25.85
17.55
10.94
8.29
10.72
17.64
27
36.02
42.35
44.85
43.85
40.88
37.96
36.91
38.81
43.85
51.45
60.47
69.57
77.54
83.53
87.15
88.32
86.97
82.78
75.16
63.51
47.73
28.36
6.54
-16.41
-39.31
-61.34
-81.78
-99.7
-113.87
-123
-126.26
-123.74
-116.54
-106.51
-95.66
-85.57
-77.14
-70.49
-65.11
-60.22
-54.91
-48.52
-40.74
-31.71
-21.85
-11.77
-1.96
7.25
15.68
23.26
29.88
35.29
39.07
40.64
39.5
35.53
29.26
21.86
14.82
9.3
5.7
3.51
1.73
-0.62
-3.93
-7.95
-12.11
-16.06
-19.89
-23.98
-28.48
-32.93
-36.28
-37.43
-35.79
-31.74
-26.38
-21.18
-17.3
-15.35
-15.41
-17.26
-20.54
-24.75
-29.16
-32.75
-34.53
-33.89
-30.95
-26.58
-22
-18.2
-15.52
-13.61
-11.8
-9.6
-7.03
-4.54
-2.58
-1.2
0.12
2.16
5.43
9.81
14.42
18.05
19.79
19.44
17.58
15.22
13.19
11.82
10.96
10.2
9.39
8.68
8.5
9.34
11.4
14.48
18.08
21.56
24.25
25.59
25.09
22.47
17.81
11.68
5.1
-0.68
-4.6
-6.14
-5.48
-3.39
-0.86
1.24
2.45
2.83
2.83
3.02
3.77
5.13
6.76
8.11
8.71
8.41
7.48
6.5
6.08
6.57
7.87
9.44
10.54
10.51
9.11
6.53
3.44
0.6
-1.4
-2.43
-2.88
-3.52
-5.17
-8.27
-12.72
-17.87
-22.7
-26.32
-28.19
-28.3
-27.15
-25.57
-24.74
-26.06
-30.92
-40.26
-53.66
-68.77
-81.5
-87.28
-82.94
-68.28
-46.44
-22.66
-2.11
12.2
20.15
23.88
26.15
28.77
31.96
34.79
36.19
35.81
34.25
32.69
32.08
32.65
33.7
33.97
32.15
27.72
21.18
13.88
7.25
2.02
-2.12
-6.2
-11.02
-16.2
-19.96
-19.83
-13.99
-2.43
12.58
27.29
37.84
41.78
38.84
30.73
20.24
10.17
2.58
-1.45
-1.71
1.4
7.16
14.62
22.72
30.41
36.81
41.47
44.29
45.61
45.93
45.72
45.28
44.77
44.3
43.95
43.79
43.79
43.73
43.23
41.74
38.71
33.75
26.76
18.07
8.37
-1.45
-10.52
-18.24
-24.45
-29.46
-33.94
-38.65
-44.14
-50.39
-56.75
-62.2
-65.79
-67.19
-66.96
-66.34
-66.55
-68.18
-70.69
-72.71
-72.69
-69.84
-64.55
-58.27
-52.77
-49.33
-48.05
-47.92
-47.38
-44.94
-39.77
-31.72
-21
-7.86
7.4
24.23
41.35
56.71
67.94
73.16
71.81
64.88
54.63
43.66
34.07
26.97
22.42
19.78
18.17
16.83
15.27
13.32
11.07
8.67
6.27
3.97
1.9
0.23
-0.81
-1.12
-0.9
-0.7
-1.3
-3.39
-7.09
-11.86
-16.5
-19.71
-20.54
-18.81
-15.15
-10.67
-6.5
-3.34
-1.32
-0.04
1.1
2.6
4.58
6.78
8.57
9.37
8.83
7.07
4.66
2.38
0.88
0.51
1.21
2.68
4.63
6.79
8.99
10.98
12.46
13.05
12.57
11.13
9.15
7.16
5.52
4.3
3.21
1.85
-0.08
-2.6
-5.44
-8.21
-10.66
-12.71
-14.51
-16.16
-17.56
-18.38
-18.22
-16.84
-14.42
-11.51
-8.78
-6.62
-4.91
-3.16
-0.86
2.09
5.25
7.83
9.23
9.38
8.81
8.33
8.49
9.29
10.13
10.25
9.18
7.03
4.44
2.2
0.75
-0.05
-0.87
-2.49
-5.36
-9.17
-12.91
-15.15
-14.8
-11.78
-7.21
-3.03
-1.3
-3.15
-8.11
-14.28
-18.88
-19.64
-16.05
-9.45
-2.48
1.99
2.07
-2.11
-8.56
-13.55
-12.93
-3.48
16.55
46.8
84.47
124.2
159.12
181.94
187.74
175.83
150.14
118.36
88.49
64.66
44.17
20.96
-11.12
-51.45
-90.46
-117.15
-125.4
-117.29
-101.96
-90.79
-89.58
-99.28
-114.88
-128.69
-134.65
-130.27
-116.57
-96.62
-73.86
-51.2
-31.23
-15.46
-4.31
2.76
7.42
11.9
18
26.71
38.52
53.63
72.65
95.82
121.98
148.36
171.12
186.63
192.82
190
180.44
167.56
154.36
142.1
130.37
117.68
102.58
84.54
64.28
43.4
23.67
6.07
-9.89
-25.87
-43.91
-65.33
-90.17
-117.18
-144.55
-170.62
-194.34
-215.34
-233.37
-247.95
-258.17
-262.93
-261.1
-251.63
-233.68
-206.84
-172.02
-131.32
-87.81
-44.72
-4.39
32.6
67.4
101.98
137.64
172.55
202.52
222.31
227.95
218.69
197.73
171.35
146.96
130.7
123.98
124.54
127.65
127.8
120.06
100.39
65.83
15.19
-49.86
-126.37
-208.2
-287.47
-356.85
-412.02
-452.89
-482.73
-505.52
-509.25
-482.79
-419.05
-320.69
-200.53
-76.13
36.88
128.38
194.23
235.12
252.67
250.27
232.59
205.41
174.99
146.96
125.52
113.04
109.99
113.53
119.56
123.95
123.86
118.53
109.15
98.3
88.83
82.63
79.31
76.34
70.44
58.89
40.7
17.09
-8.37
-30.83
-45.5
-49.66
-43.06
-28.12
-8.97
10.47
25.49
33.64
34.93
31.02
23.75
14.57
4.22
-6.85
-17.93
-27.88
-34.87
-37.38
-34.42
-26.34
-13.5
2.82
20.42
36.25
47.14
51.33
49.17
43.47
38.36
37.64
42.91
53.02
65.01
75.68
83.14
87.11
88.3
87.48
84.93
80.38
73.52
64.6
54.52
44.39
34.99
26.37
17.68
7.41
-4.81
-18.9
-33.72
-47.07
-56.17
-58.71
-53.92
-43.1
-29.31
-16.23
-7.03
-3.14
-4.05
-7.86
-12.28
-15.49
-16.64
-15.59
-12.66
-8.4
-3.22
2.64
9.1
16.12
23.66
31.49
39.15
46.06
51.58
55.43
57.78
59.08
59.66
59.37
57.64
53.8
47.62
39.53
30.51
21.54
13.13
5.07
-3.36
-12.81
-23.48
-34.96
-46.53
-57.32
-66.7
-74.27
-79.9
-83.69
-85.93
-87.15
-87.91
-88.76
-89.93
-91.29
-92.27
-91.95
-89.37
-83.9
-75.56
-65.13
-53.93
-43.39
-34.43
-27.24
-21.32
-15.98
-10.86
-6.17
-2.48
-0.3
0.4
0.24
0.19
1.05
2.97
5.46
7.56
8.29
7.05
3.85
-0.73
-5.81
-10.61
-14.73
-18.33
-21.96
-26.24
-31.51
-37.65
-44.12
-50.32
-55.95
-61.17
-66.62
-72.98
-80.71
-89.88
-100.28
-111.55
-123.33
-135.01
-145.6
-153.76
-158.06
-157.52
-152.01
-142.26
-129.46
-114.76
-98.92
-82.34
-65.23
-47.84
-30.52
-13.69
2.11
16.09
27.08
33.65
34.74
30.34
22.09
12.96
6.34
4.79
9.04
18.09
30.02
43.27
57.29
72.49
89.31
107.28
124.42
137.37
142.07
134.6
111.82
72.02
15.66
-53.62
-128.58
-199.1
-254.32
-285.72
-289.73
-268.45
-228.3
-177.06
-121.23
-64.88
-10.21
40.96
86.23
122.76
148.56
163.62
170.15
171.55
170.81
169.3
166.62
161.22
151.68
137.69
120.47
102.49
86.71
75.75
71.26
73.69
82.43
96.32
114.11
134.41
155.52
175.04
189.91
197.11
194.7
182.65
162.99
138.84
113.1
87.25
61.13
33.68
4.1
-27.12
-58.08
-86.14
-109.12
-126.27
-138.6
-148.33
-157.94
-169.08
-182.08
-195.99
-209.23
-220.45
-229.05
-235.33
-240.15
-244.24
-247.68
-249.72
-249.02
-243.86
-232.48
-213.33
-185.15
-147.29
-100.01
-44.85
15.48
77.58
138.26
195.23
247.34
294.21
335.51
370.56
398.42
418.45
430.81
436.68
437.79
435.8
431.8
426.18
418.8
409.28
397.12
381.59
361.85
337.07
306.9
271.73
232.59
190.72
147.04
101.91
55.19
6.95
-42.03
-90.11
-135.03
-174.63
-207.45
-232.92
-251.16
-262.66
-267.91
-267.5
-262.23
-253.25
-241.92
-229.37
-215.94
-200.94
-182.84
-159.94
-131.16
-96.61
-57.7
-16.84
23.31
60.43
92.92
119.81
140.49
154.43
161.12
160.22
151.63
136.02
114.97
90.96
66.79
44.99
27.17
13.6
3.22
-6.55
-18.42
-34.09
-53.45
-74.73
-95.4
-113.26
-127.27
-137.67
-146.42
-155.71
-167.12
-181.1
-197.04
-213.3
-227.44
-236.47
-237.74
-231.22
-219.09
-205.16
-193.3
-186.16
-184.35
-186.73
-191.35
-189.55
-175.36
-147.14
-108.57
-65.86
-24.11
14.09
47.37
74.34
93.37
102.34
100.63
89.68
73.55
55.6
38.15
21.92
6.29
-10.32
-30.13
-54.35
-82.46
-112.16
-140.27
-163.51
-179.6
-185.51
-180.74
-167.64
-150.19
-132.44
-116.6
-102.24
-86.5
-65.96
-38.61
-5.46
29.73
62.36
88.94
108.31
121.36
129.81
134.89
136.75
134.8
128.86
119.83
109.5
99.86
92.36
87.46
84.7
83.28
82.52
82.46
83.85
87.97
96.18
109.41
127.68
149.77
173.37
195.42
213.06
224.29
228.39
225.79
217.57
204.86
188.54
169.36
148.2
126.27
104.88
84.99
66.89
50.31
34.84
20.52
7.99
-1.57
-7.02
-7.6
-3.4
4.65
14.87
25.1
33.22
37.75
38.29
35.7
31.73
28.11
25.76
24.35
22.69
19.64
14.97
9.73
5.7
4.56
6.95
12.35
19.33
26.16
31.4
33.92
33.01
28.49
21.12
12.73
5.69
1.79
1.08
1.57
0.07
-5.91
-16.43
-28.75
-38.6
-42.43
-39.32
-31.23
-21.67
-13.58
-7.86
-3.47
1.31
7.16
12.86
15.65
12.52
1.83
-15.69
-36.94
-57.42
-72.89
-80.86
-81.44
-77.2
-72.02
-69.5
-71.59
-78.01
-86.72
-95.08
-101.18
-104.91
-108.06
-113.84
-125.72
-145.95
-174.15
-206.54
-236.07
-253.74
-251.05
-222.73
-168.87
-95.33
-12.17
69.39
140.23
195.51
234.85
260.91
277.26
286.78
291.19
291.73
290.13
289.01
291.24
298.51
309.87
321.16
325.92
317.91
294.12
256.96
214.41
177.57
156.4
155.51
171.98
196.45
217.04
224.14
213.85
188.5
154.32
117.84
83.08
50.79
19.53
-12.13
-44.08
-74.47
-100.9
-121.88
-137.98
-151.68
-166.29
-184.52
-207.65
-235.48
-266.91
-300.44
-334.23
-365.8
-391.86
-408.67
-413.07
-403.56
-381.03
-348.42
-309.7
-268.65
-228.11
-189.82
-154.77
-123.69
-97.08
-74.99
-56.8
-41.21
-26.5
-11.1
6.12
25.58
46.92
68.95
89.74
106.68
116.92
118.06
108.84
89.74
62.85
31.6
-0.2
-28.99
-52.05
-67.65
-75.02
-74.23
-66.12
-52.14
-34.22
-14.46
4.94
21.76
33.75
38.71
34.8
21.11
-1.87
-32.06
-66.02
-99.72
-129.32
-151.92
-165.86
-170.76
-167.23
-156.75
-141.37
-123.56
-105.9
-90.65
-79.43
-72.78
-70.13
-69.96
-70.35
-69.57
-66.57
-61.18
-54.12
-46.54
-39.61
-34.07
-30.1
-27.37
-25.39
-23.79
-22.54
-21.96
-22.5
-24.4
-27.51
-31.19
-34.42
-36.2
-35.77
-32.88
-27.83
-21.36
-14.38
-7.83
-2.52
1.04
2.57
2.16
0.15
-2.88
-6.27
-9.49
-12.31
-14.92
-17.84
-21.75
-27.18
-34.21
-42.47
-51.25
-59.82
-67.8
-75.3
-82.8
-90.85
-99.74
-109.38
-119.33
-128.92
-137.44
-144.08
-148.18
-149.5
-148.62
-147.18
-147.52
-151.86
-161.23
-174.92
-190.57
-205.06
-215.64
-220.64
-219.7
-213.2
-201.85
-186.31
-167.39
-146.16
-123.97
-102.15
-81.46
-61.79
-42.23
-21.53
1.31
26.4
52.97
79.64
104.92
127.85
148.35
167.19
185.83
206.01
229.44
257.11
288.72
322.11
353.38
377.73
390.99
391.22
379.4
359.15
335.18
311.56
290.52
272.39
256.23
241.06
226.4
212.39
199.29
187.03
175.07
162.71
149.46
135.46
121.41
108.42
97.39
88.69
81.89
75.99
69.82
62.56
54.08
44.91
35.98
28.13
21.7
16.41
11.57
6.42
0.44
-6.49
-14.14
-22.1
-29.86
-36.86
-42.43
-45.86
-46.52
-44.18
-39.1
-32.13
-24.31
-16.6
-9.61
-3.49
1.79
6.23
9.67
11.83
12.55
11.96
10.5
8.81
7.43
6.63
6.37
6.34
6.19
5.64
4.58
3.07
1.24
-0.74
-2.78
-4.88
-7.22
-10.02
-13.6
-18.13
-23.53
-29.36
-34.76
-38.64
-39.99
-38.24
-33.51
-26.61
-18.71
-10.95
-4.1
1.6
6.22
9.9
12.65
14.31
14.75
14.02
12.47
10.68
9.23
8.48
8.48
8.93
9.38
9.43
8.84
7.61
5.92
3.99
2.03
0.14
-1.69
-3.52
-5.47
-7.7
-10.41
-13.78
-17.87
-22.46
-27.01
-30.66
-32.52
-31.87
-28.45
-22.59
-15.09
-7.05
0.51
6.82
11.55
14.72
16.59
17.48
17.64
17.19
16.27
15.04
13.78
12.81
12.37
12.52
13.09
13.77
14.27
14.41
14.12
13.4
12.21
10.43
7.97
4.78
1.04
-2.91
-6.71
-10.1
-12.98
-15.54
-18.12
-21.14
-24.88
-29.34
-34.12
-38.43
-41.19
-41.42
-38.56
-32.75
-24.77
-15.82
-7.12
0.48
6.56
11.14
14.41
16.54
17.66
17.85
17.33
16.5
15.81
15.68
16.24
17.34
18.61
19.61
20.06
19.92
19.35
18.6
17.84
17
15.83
13.98
11.21
7.55
3.35
-0.83
-4.44
-7.14
-8.98
-10.33
-11.79
-13.94
-17.16
-21.48
-26.52
-31.54
-35.57
-37.64
-37.02
-33.54
-27.59
-20.06
-12.09
-4.71
1.43
6.11
9.42
11.63
12.97
13.6
13.58
13.08
12.33
11.7
11.55
12.11
13.34
14.91
16.33
17.18
17.24
16.62
15.61
14.51
13.45
12.31
10.8
8.69
5.92
2.73
-0.51
-3.46
-5.94
-8.05
-10
-12.08
-14.44
-17.2
-20.38
-23.96
-27.85
-31.73
-34.99
-36.86
-36.55
-33.61
-28.15
-20.85
-12.76
-5
1.63
6.74
10.36
12.71
14.09
14.67
14.56
13.9
12.9
11.95
11.45
11.7
12.7
14.15
15.6
16.56
16.83
16.45
15.74
15.02
14.43
13.84
12.9
11.31
8.87
5.71
2.17
-1.37
-4.55
-7.27
-9.57
-11.68
-13.87
-16.33
-19.17
-22.37
-25.79
-29.24
-32.36
-34.66
-35.59
-34.62
-31.5
-26.44
-20.11
-13.47
-7.45
-2.62
0.95
3.6
5.73
7.61
9.14
10.11
10.36
10
9.39
9.01
9.16
9.83
10.71
11.46
11.86
11.95
11.95
12.05
12.33
12.6
12.57
11.94
10.56
8.44
5.76
2.76
-0.29
-3.2
-5.83
-8.14
-10.16
-12.03
-13.97
-16.23
-18.98
-22.26
-25.76
-28.9
-30.9
-30.97
-28.68
-24.1
-17.85
-10.87
-4.15
1.57
5.89
8.78
10.43
11.06
10.95
10.31
9.37
8.36
7.5
6.93
6.72
6.89
7.3
7.81
8.28
8.59
8.72
8.72
8.63
8.46
8.1
7.38
6.13
4.22
1.63
-1.49
-4.89
-8.22
-11.18
-13.59
-15.45
-17.02
-18.65
-20.75
-23.47
-26.71
-29.99
-32.62
-33.84
-33.09
-30.2
-25.43
-19.4
-12.95
-6.83
-1.55
2.72
6.03
8.5
10.19
11.07
11.11
10.38
9.19
7.97
7.14
6.97
7.42
8.28
9.22
10
10.48
10.68
10.62
10.31
9.68
8.63
7.08
5.02
2.5
-0.3
-3.19
-5.92
-8.36
-10.47
-12.31
-14.09
-16.01
-18.28
-21
-24.16
-27.62
-30.97
-33.67
-35.02
-34.41
-31.54
-26.6
-20.2
-13.27
-6.73
-1.24
2.89
5.7
7.37
8.21
8.45
8.28
7.83
7.2
6.46
5.65
4.78
3.85
2.82
1.67
0.42
-0.85
-2.06
-3.16
-4.27
-5.59
-7.43
-9.97
-13.18
-16.78
-20.37
-23.69
-26.75
-29.84
-33.4
-37.79
-43.06
-49.06
-55.41
-61.71
-67.61
-72.74
-76.92
-80.35
-83.85
-88.78
-96.49
-107.42
-120.32
-132.01
-138.28
-135.33
-121.63
-98.78
-71.21
-44.53
-23.5
-10.47
-5.1
-5.27
-8.4
-12.52
-16.62
-20.52
-24.58
-29.77
-37.77
-50.77
-70.63
-97.55
-128.95
-159.49
-182.52
-192.42
-186.58
-166.26
-135.61
-99.88
-63.48
-28.96
3.22
33.97
64.76
96.72
129.95
163.18
193.79
218.56
234.57
240.27
236.02
223.99
207.32
189.26
172.58
159.36
151.11
148.72
152.09
159.98
170.02
179.25
184.98
185.55
180.73
171.47
159.45
146.17
132.4
117.93
101.75
82.67
60.1
34.55
7.71
-17.94
-40.11
-57.25
-68.77
-74.92
-76.35
-73.82
-68.08
-59.97
-50.39
-40.6
-31.62
-23.89
-17.09
-10.39
-2.83
6.31
17.04
28.88
40.24
49.51
55.92
60.19
64.54
71.85
84.73
103.56
126.33
147.61
160.95
161.27
146.8
119.54
83.91
45.42
7.81
-26.83
-59.56
-92.33
-126.42
-161.43
-195.53
-226.56
-252.15
-271.47
-274.44
-253.75
-208.54
-146.75
-81.04
-22.34
19.92
47.81
64.34
72.07
71.03
60.06
38.46
6.28
-35.71
-86.74
-145.52
-210.73
-278.55
-343.09
-396.07
-428.82
-435.05
-413.48
-368.54
-308.16
-241.55
-175.24
-112.57
-53.77
2.34
56.62
108.46
155.69
195.7
225.98
245.58
255.07
256.45
252.44
245.45
237.05
227.84
217.91
207.18
195.85
184.09
171.66
157.63
140.78
120.24
96.29
70.59
45.74
24.55
9.09
0.08
-3.14
-2.13
1.34
5.86
10.61
15.28
19.74
23.75
26.85
28.45
28.04
25.39
20.78
14.98
9.02
3.97
0.53
-1.12
-1.36
-0.84
-0.16
0.36
0.77
1.32
2.18
3.37
4.71
5.87
6.55
6.53
5.75
4.21
2
-0.69
-3.65
-6.65
-9.61
-12.54
-15.64
-19.19
-23.35
-28.06
-32.84
-36.94
-39.45
-39.64
-37.19
-32.35
-25.86
-18.76
-12
