87.39
66.16
40.15
11.2
-17.82
-44.4
-67.19
-86.02
-101.28
-113.33
-122.33
-128.58
-132.63
-135.31
-137.35
-138.79
-138.71
-135.29
-126.57
-111.23
-89.25
-61.92
-31.17
1.01
33.12
64.42
94.87
125.06
156.11
189.33
225.83
266.47
310.46
355.06
396.06
429.05
450.9
460.82
460.32
452.3
441.24
430.48
421.61
414.61
408.56
402.53
396.23
389.9
384.03
381.3
383.55
390.98
401.64
411.78
417.01
413.89
400.78
378.12
350.94
324.49
302.55
286.76
276.69
270.83
268.05
267.67
250.86
205.51
127.57
24.07
-89.27
-195.42
-282.98
-347.28
-389.44
-414.13
-424.79
-424.56
-418.21
-409.21
-398.87
-388.19
-377.21
-366.48
-357.55
-351.13
-349.42
-355.84
-372.55
-400.71
-441.16
-486.52
-524.82
-541.78
-525.34
-472.42
-390.56
-301.95
-218.84
-148.05
-90.3
-41.57
5.15
57.33
117.55
184.68
251.79
309.7
347.92
359.75
344.48
307.5
257.95
204.24
151.5
100.33
49.04
-5.95
-67.28
-135.74
-209.97
-286.47
-359.6
-421.31
-462.55
-475.55
-458.74
-418.55
-368.62
-325.37
-301.79
-302.39
-321.73
-347.75
-367.31
-372.29
-361.56
-339.5
-312.17
-283.91
-256.18
-228.63
-201.15
-175.16
-153.2
-136.98
-125.78
-116.28
-104.09
-85.73
-60.32
-30.03
0.9
28.21
49.45
64.92
77.37
90.59
107.69
129.79
155.63
182.37
206.92
227.47
244.07
258.5
273.42
291.23
313.69
341.16
372.44
404.85
434.49
457.12
469.22
469.26
458.17
439.8
418.78
398.98
382.4
369.03
357.75
347.16
336.21
324.13
311.56
298.76
285.42
270.84
254.18
234.99
213.37
190.15
166.71
146.93
134.18
130.27
134.85
145.59
159.6
174.38
188.29
200.25
211.79
223.5
234.36
242.44
245.72
243.68
237.38
228.62
202.13
149.1
68.44
-31.2
-134.43
-226.46
-297.66
-345.08
-371.29
-382.27
-382.79
-377.34
-371.63
-370.12
-375.13
-385.06
-394.07
-393.84
-377.06
-339.36
-284.35
-223.67
-172.76
-147.23
-154.72
-190.34
-238.09
-277.48
-290.61
-269.3
-216.15
-140.44
-53.02
37.13
123.54
199.94
258.96
293.87
301.49
285.13
254.56
221.47
193.6
172.08
152.07
126.79
92.33
49.61
3.41
-40.64
-80
-116.49
-153.3
-192.2
-232.12
-269.84
-302.08
-327.14
-345.32
-349.35
-334.32
-298.7
-246.34
-185
-122.27
-63.68
-16.14
19.89
42.82
48.96
35.58
2.5
-47.79
-108.56
-171.33
-222.2
-247.9
-242.07
-209.49
-163.38
-118.72
-85.8
-67.12
-59.01
-55.4
-52.16
-49.24
-49.26
-54.64
-63.97
-73.5
-79.15
-78.19
-70.42
-58.46
-46.85
-39.44
-37.63
-39.05
-39.48
-34.75
-23.32
-5.46
16
36.81
53.52
64.49
72.01
79.65
90.12
106.16
128.23
154.04
179.81
202.54
220.37
235.68
251.96
272.02
300.49
340.64
392.44
451.93
511.73
561.14
592.38
600.52
566.08
481.99
356.06
208.35
61.45
-58.94
-154.91
-232.92
-296.21
-343.98
-372.15
-377.74
-364.58
-343.23
-326.06
-322.37
-330.51
-341.09
-343.12
-327.51
-292.81
-245.28
-194.79
-149.29
-112.81
-82.79
-55.02
-26.98
2.83
34.54
67.35
100.04
131.2
158.36
180.1
195.27
203.39
206.01
206.03
206.6
210.06
217.2
226.85
237.11
245.53
249.6
247.64
238.87
223.73
204.13
183.55
166.17
155.47
152.04
152.38
149.77
137.4
111.8
74.87
32.77
-7.46
-41.53
-69.28
-93.32
-115.96
-137
-153.85
-163.78
-166.42
-164.6
-162.96
-165.22
-172.22
-181.75
-190.03
-193.83
-191.85
-184.74
-174.26
-162.44
-150.8
-140.24
-131.03
-122.98
-115.67
-108.69
-101.71
-94.54
-87.06
-79.33
-71.9
-65.93
-62.99
-64.36
-70.05
-78.04
-84.43
-84.53
-74.48
-52.67
-20.18
19.86
63.57
107.3
148.18
183.76
211.74
230
236.87
231.43
213.44
183.13
141.19
89.46
31.78
-25.46
-74.02
-105.93
-116.33
-105.65
-79.79
-47.97
-19.35
0.13
9.12
10.04
6.67
1.93
-3.19
-9.08
-16.13
-23.73
-30.31
-34.4
-35.78
-35.96
-37.14
-40.9
-47.17
-54.15
-59.23
-60.18
-56.04
-47.26
-35.42
-22.54
-10.57
-0.93
5.62
9.01
9.63
8.03
4.69
-0.04
-5.74
-11.83
-17.5
-21.81
-24
-23.78
-21.42
-17.63
-13.48
-10.24
-8.9
-9.85
-12.71
-16.41
-19.87
-22.65
-25.24
-28.74
-34.15
-41.55
-49.89
-57.22
-61.11
-59.18
-49.45
-30.72
-3.17
30.88
66.72
97.74
117.13
120.01
105.18
75.81
38.43
1.12
-28.59
-45.25
-46.22
-31.66
-4.22
31.69
70.62
107.02
136.28
155.47
163.85
162.74
154.78
142.91
129.39
115.29
100.72
85.53
70.03
55.28
42.54
32.33
23.82
14.95
3.42
-12.39
-32.68
-56.28
-81.24
-105.41
-126.74
-143.36
-153.76
-157.08
-153.49
-144.25
-131.36
-116.76
-101.66
-86.25
-70.03
-52.32
-33.03
-12.97
6.16
22.18
33.12
37.99
37.18
32.3
25.48
18.27
11.02
2.88
-7.17
-18.95
-30.17
-36.9
-35.41
-24.46
-6.66
12.13
25.41
29.11
23.27
11.49
-1.51
-12.6
-21.52
-30.07
-40.03
-51.37
-61.98
-69.02
-70.78
-67.84
-62.77
-58.64
-57.32
-58.42
-59.5
-57.29
-49.32
-35.23
-16.89
2.44
19.68
33.17
43.03
50.46
56.69
62.35
67.54
72.51
78.17
86.08
97.99
115.22
138.33
167.04
200.17
235.37
269.1
296.91
314.54
319.26
310.47
289.4
258.12
218.83
173.86
126.58
81.79
45.09
20.95
10.52
10.54
14.22
13.75
3.02
-20.42
-55.13
-96.85
-139.96
-178.78
-208.55
-226.02
-230.1
-222.19
-205.91
-186.05
-167.25
-152.7
-143.53
-139.09
-137.65
-137.28
-136.38
-134.05
-130.05
-124.76
-118.87
-113.16
-108.19
-104.04
-100.32
-96.41
-91.83
-86.64
-81.4
-76.91
-73.87
-72.51
-72.56
-73.42
-74.41
-74.98
-74.98
-74.59
-74.21
-74.19
-74.64
-75.29
-75.63
-74.94
-72.45
-67.36
-58.85
-46.28
-29.44
-8.89
13.87
36.55
56.65
72.16
82.09
86.65
86.95
84.51
80.68
76.39
72.09
67.89
63.65
59.2
54.29
48.84
43.17
38.14
35.17
35.82
41.03
50.51
62.65
75.05
85.47
92.72
96.91
99.03
100.17
100.91
101.16
100.53
98.69
95.62
91.45
86.13
79.37
70.76
60.14
47.94
35.16
23.17
13.26
6.18
1.89
-0.4
-1.95
-4.03
-7.41
-12.21
-17.88
-23.56
-28.31
-31.44
-32.58
-31.71
-29.23
-25.81
-22.36
-19.78
-18.78
-19.67
-22.4
-26.62
-31.88
-37.61
-43.12
-47.56
-49.96
-49.42
-45.47
-38.31
-28.78
-18.16
-7.86
0.94
7.44
11.35
13.02
13.37
13.77
15.7
20.21
27.49
36.71
46.32
54.62
60.49
63.7
64.86
65
65.03
65.41
66.07
66.57
66.36
65.02
62.42
58.73
54.35
49.78
45.37
41.27
37.46
33.91
30.63
27.72
25.29
23.21
21.09
18.36
14.45
9.13
2.58
-4.56
-11.52
-17.62
-22.55
-26.36
-29.36
-31.91
-34.19
-36.18
-37.75
-38.83
-39.56
-40.26
-41.26
-42.7
-44.33
-45.55
-45.56
-43.71
-39.74
-33.98
-27.38
-21.22
-16.83
-15.17
-16.51
-20.44
-25.99
-31.96
-37.24
-41.04
-43.05
-43.37
-42.44
-40.84
-39.11
-37.69
-36.79
-36.47
-36.67
-37.22
-37.91
-38.44
-38.51
-37.81
-36.19
-33.69
-30.55
-27.11
-23.7
-20.58
-17.92
-15.71
-13.81
-11.82
-9.26
-5.76
-1.24
3.98
9.23
13.74
16.91
18.46
18.51
17.39
15.42
12.93
10.18
7.41
4.94
3.04
1.87
1.3
1.05
0.86
0.69
0.92
2.14
4.79
8.94
14.01
18.99
22.81
24.75
24.63
22.84
20.03
16.88
13.81
11.02
8.52
6.34
4.49
3.01
1.87
0.92
-0.07
-1.26
-2.53
-3.36
-2.88
-0.11
5.51
13.93
24.29
35.17
44.93
52.1
55.78
55.74
52.44
46.81
40
33.06
26.69
21.15
16.36
12.15
8.42
5.31
3.16
2.27
2.76
4.35
6.42
8.1
8.47
6.75
2.46
-4.53
-14
-25.43
-38.09
-51.07
-63.36
-74.1
-82.78
-89.55
-95.24
-100.95
-107.34
-113.96
-119.18
-120.64
-116.41
-105.92
-90.31
-71.95
-53.53
-37.14
-23.8
-13.69
-6.47
-1.67
1.26
2.91
3.94
4.9
5.96
6.83
6.87
5.47
2.36
-2.26
-7.85
-13.68
-19.12
-23.69
-27.14
-29.4
-30.51
-30.54
-29.54
-27.51
-24.44
-20.36
-15.42
-9.74
-3.49
3.26
10.39
17.65
24.66
30.79
35.39
37.93
38.29
36.75
33.96
30.63
27.27
24.17
21.35
18.76
16.44
14.65
13.73
13.95
15.31
17.52
20.04
22.36
24.19
25.54
26.62
27.58
28.33
28.57
27.91
26.21
23.69
20.93
18.43
16.27
13.9
10.4
5.03
-2.23
-10.47
-18.18
-23.93
-27.02
-27.8
-27.38
-27.16
-28.18
-30.91
-35.24
-40.61
-46.25
-51.17
-54.25
-54.31
-50.36
-41.86
-28.96
-12.51
6.04
24.88
42.22
56.56
67.04
73.52
76.54
77.04
76.13
74.85
74.01
74.15
75.48
77.78
80.42
82.43
82.74
80.48
75.19
67.02
56.61
44.91
32.94
21.54
11.29
2.46
-4.99
-11.25
-16.53
-20.94
-24.47
-27.12
-28.98
-30.27
-31.21
-31.92
-32.25
-31.95
-30.77
-28.74
-26.19
-23.66
-21.67
-20.5
-20.14
-20.27
-20.41
-20.06
-18.78
-16.33
-12.77
-8.59
-4.6
-1.71
-0.47
-0.78
-1.8
-2.25
-0.92
2.84
8.79
15.95
22.91
28.38
31.52
32.12
30.55
27.42
23.32
18.67
13.58
8.03
2.16
-3.55
-8.19
-10.68
-10.22
-6.56
-0.09
8.3
17.57
26.69
34.75
40.88
44.35
44.66
41.85
36.57
30
23.49
18.14
14.44
12.2
10.71
9.07
6.44
2.35
-3.29
-10.08
-17.41
-24.57
-30.79
-35.24
-36.95
-34.94
-28.63
-18.33
-5.51
7.35
17.59
23.29
23.95
20.55
14.89
8.77
3.26
-1.46
-5.77
-10.2
-14.99
-20.07
-25.11
-29.58
-32.89
-34.49
-34.08
-31.86
-28.73
-26.34
-26.78
-31.99
-43.06
-59.67
-79.84
-100.2
-116.69
-125.51
-124.15
-111.9
-90.07
-61.67
-30.73
-1.41
22.77
39.65
48.66
50.83
48.27
43.51
38.84
35.72
34.7
35.56
37.7
40.48
43.41
46.12
48.38
50.04
51.08
51.64
51.95
52.2
52.48
52.58
52.12
50.63
47.82
43.74
38.94
34.3
30.79
29.16
29.61
31.7
34.5
36.87
37.85
37
34.55
31.21
27.89
25.21
23.31
21.79
19.94
17.11
13.03
7.98
2.64
-2.1
-5.49
-7.1
-6.95
-5.39
-3.05
-0.62
1.22
1.93
1.14
-1.26
-5.16
-10.22
-15.93
-21.75
-27.1
-31.55
-34.81
-36.81
-37.64
-37.47
-36.56
-35.13
-33.4
-31.57
-29.81
-28.27
-27.05
-26.16
-25.53
-25.01
-24.34
-23.3
-21.76
-19.76
-17.48
-15.19
-13.14
-11.47
-10.22
-9.28
-8.54
-7.86
-7.16
-6.37
-5.41
-4.23
-2.78
-1.07
0.89
3.01
5.11
6.95
8.25
8.83
8.64
7.86
6.79
5.9
5.52
5.7
6.25
6.83
7.27
7.64
8.22
9.35
11.64
15.34
20.24
25.76
31.13
35.79
39.55
42.54
45.04
48.07
52.35
58.08
64.88
72.05
78.96
85.42
91.59
97.76
105.25
114.79
126.34
138.82
150.73
160.77
168.33
173.67
177.82
184.02
195.57
214.49
240.27
269.31
295.78
313.53
318.29
299.2
252.48
181.52
96.21
9.16
-69.43
-134.41
-184.99
-222.4
-248.22
-262.48
-265.87
-260.41
-249.4
-236.48
-224.38
-214.29
-205.9
-198.33
-189.64
-178.69
-165.55
-151.37
-137.8
-126.11
-116.71
-109.19
-102.8
-96.19
-88.49
-79.65
-70.26
-61.27
-53.45
-47.07
-41.9
-37.55
-33.3
-28.68
-23.6
-18.32
-13.26
-8.76
-4.96
-1.77
0.98
3.61
6.31
9.17
12.13
15.06
17.83
20.34
22.52
24.3
25.62
26.33
26.33
25.51
23.75
21.05
17.51
13.23
8.42
3.34
-1.75
-6.57
-10.86
-14.42
-17.12
-18.89
-19.77
-19.83
-19.17
-17.97
-16.38
-14.53
-12.55
-10.48
-8.38
-6.28
-4.18
-2.04
0.09
2.22
4.36
6.52
8.74
11.05
13.47
16.08
18.94
21.99
25.19
28.56
32.12
35.91
39.98
44.4
49.26
54.68
60.55
66.84
73.57
80.83
88.67
97.17
106.37
116.4
127.37
139.04
151.22
163.7
176.18
188.17
199.03
207.85
213.31
216.31
216.54
213.62
207.31
197.62
184.87
169.62
152.66
134.9
117.29
100.31
84.39
69.69
56.14
43.38
30.92
18.15
4.45
-10.58
-27.48
-46.36
-67.11
-89.39
-112.78
-136.81
-161
-184.91
-208.12
-230.41
-251.5
-271.25
-289.73
-307.28
-324.51
-342.14
-360.52
-379.24
-397.33
-413.48
-426.78
-437.21
-445.3
-451.31
-454.33
-452.18
-442.3
-423.23
-395.45
-361.15
-323.04
-283.21
-242.78
-202.6
-164.13
-129.69
-101.54
-80.63
-65.78
-54.22
-42.98
-30.3
-16.07
-1.16
13.79
29.45
47.7
70.73
99.75
133.97
170.5
205.07
233.39
252.53
261.75
262.45
257.23
248.57
237.82
225.13
209.9
191.82
171.33
149.59
127.97
107.7
89.63
74.14
61.31
51.01
42.98
37.17
33.73
33.03
35.29
40.35
47.52
55.61
63.17
68.72
71.03
69.28
63.37
54.05
42.9
31.76
21.91
13.33
4.6
-6.37
-20.95
-38.78
-57.7
-74.56
-86.53
-91.76
-89.25
-78.27
-58.06
-28.44
9.1
50.63
90.1
121.11
139.29
143.78
137.21
124.1
108.49
92.35
75.46
56.47
34.59
10.72
-12.44
-31.29
-42.67
-44.97
-38.6
-25.67
-9.31
7.32
21.8
32.74
39.73
43.12
43.65
42.33
40.43
39.33
40.42
44.74
52.63
63.62
76.51
89.7
101.63
111.05
117.17
119.76
119.12
116.2
112.6
110.19
110.56
114.24
120.25
126.21
129.13
126.53
117.31
102.08
82.53
60.48
37.02
12.36
-13.54
-40.21
-66.1
-88.93
-106.68
-118.69
-126.12
-131.52
-137.72
-146.49
-157.78
-169.88
-180.26
-186.59
-187.39
-182.13
-171.15
-155.41
-136.27
-115.48
-94.84
-76
-60.15
-47.93
-39.46
-34.51
-32.58
-32.82
-34.04
-34.71
-33.47
-29.58
-23.26
-15.62
-8.19
-2.26
1.64
3.75
4.82
5.66
6.86
8.75
11.51
15.3
20.35
26.89
35.11
44.97
56.08
67.66
78.68
88.12
95.37
100.39
103.77
106.31
108.68
110.99
112.83
113.53
112.57
109.95
106.18
102.11
98.46
95.44
92.47
88.11
80.43
67.6
48.76
24.71
-1.83
-26.92
-46.54
-58.09
-61.31
-58.31
-52.78
-48.69
-49.16
-55.71
-67.96
-83.61
-98.91
-109.5
-111.69
-103.97
-87.83
-67.61
-48.81
-35.83
-30.1
-29.71
-30.65
-28.95
-22.49
-11.62
1.59
14.79
26.62
37.01
46.68
56.06
64.8
71.75
75.76
76.46
74.58
71.69
69.38
68.47
68.72
69
67.97
64.78
59.51
53.01
46.47
40.96
37.03
34.65
33.27
32.14
30.76
29.25
28.32
28.76
30.81
33.71
35.85
35.58
32.01
25.59
17.75
10.07
3.45
-2.29
-7.95
-14.24
-21.03
-27.39
-31.98
-33.82
-32.7
-29.18
-24.13
-18.35
-12.31
-6.27
-0.52
4.47
7.89
8.96
7.13
2.46
-4.25
-11.66
-18.28
-23
-25.58
-26.7
-27.68
-29.89
-34.12
-40.2
-47.11
-53.47
-58.11
-60.56
-61.11
-60.46
-59.41
-58.45
-57.74
-57.27
-57.03
-57.18
-57.89
-59.25
-61.07
-62.99
-64.56
-65.51
-65.75
-65.51
-65.1
-64.75
-64.56
-64.43
-64.12
-63.32
-61.72
-59.05
-55.22
-50.29
-44.44
-37.99
-31.28
-24.61
-18.23
-12.35
-7.14
-2.8
0.48
2.55
3.41
3.21
2.22
0.77
-0.85
-2.5
-4.18
-5.94
-7.84
-9.88
-11.97
-13.99
-15.89
-17.7
-19.53
-21.49
-23.61
-25.8
-27.92
-29.75
-31.05
-31.57
-31.05
-29.29
-26.31
-22.28
-17.63
-12.89
-8.51
-4.77
-1.7
0.84
3
4.9
6.51
7.75
8.56
8.98
9.12
9.16
9.19
9.18
8.98
8.34
7.05
5.02
2.33
-0.83
-4.26
-7.84
-11.61
-15.58
-19.63
-23.41
-26.33
-27.74
-27.2
-24.62
-20.36
-14.99
-9.18
-3.45
1.85
6.53
10.4
13.38
15.44
16.7
17.4
17.86
18.31
18.81
19.32
19.76
20.14
20.56
21.14
21.92
22.77
23.4
23.45
22.65
20.87
18.2
14.97
11.66
8.86
7.11
6.82
8.05
10.55
13.81
17.22
20.26
22.62
24.15
24.82
24.62
23.45
21.28
18.1
14.03
9.32
4.23
-1
-6.24
-11.44
-16.57
-21.61
-26.53
-31.32
-35.94
-40.37
-44.56
-48.43
-51.94
-55.06
-57.79
-60.07
-61.6
-61.81
-59.95
-55.3
-47.53
-36.97
-24.62
-11.88
-0.14
9.63
17.18
22.69
26.61
29.15
30.27
29.67
26.95
21.66
13.32
1.55
-13.84
-32.23
-52.13
-71.33
-87.8
-100.51
-110.03
-118.13
-126.59
-135.89
-144.6
-149.81
-148.49
-139.03
-122.03
-100.19
-77.26
-56.66
-40.53
-29.11
-20.63
-11.54
2.68
26.2
61.21
106.57
157.61
207.18
247.93
274.54
285.29
281.8
267.6
246.05
218.88
185.96
146.31
99.67
47.58
-6.4
-57.45
-100.49
-131.32
-147.4
-148.19
-135.38
-112.58
-84.85
-57.72
-35.93
-22.26
-16.74
-16.83
-18.44
-17.44
-11.1
1.17
17.93
36.58
54.23
68.59
78.23
82.48
81.09
73.97
61.37
44.35
25.03
6.41
-8.64
-18.57
-24.11
-28.07
-34.3
-45.84
-63.46
-85.3
-107.74
-127.09
-141.18
-149.99
-155.13
-158.58
-161.44
-163.55
-163.91
-161.54
-156
-147.43
-136.1
-122.06
-105.1
-85.38
-63.99
-43.03
-24.84
-10.69
0.24
10.99
25.66
47.43
76.81
110.96
144.41
170.98
185.86
187.09
176.08
156.74
134.02
112.3
94.19
80.36
70.01
61.91
55.1
49.24
44.2
39.73
35.4
30.94
26.57
22.86
20.26
18.6
17.34
16.23
16.14
19.26
28.21
44.6
67.8
94.91
121.76
144.68
161.71
172.79
179.06
181.77
181.8
179.62
175.8
171.01
165.93
160.47
153.58
143.47
128.47
108.15
83.91
58.66
35.63
16.81
2.11
-10.46
-23.62
-39.21
-57.23
-75.97
-92.94
-106.12
-114.66
-118.92
-119.84
-118.29
-114.78
-109.61
-103.37
-97.27
-93.3
-93.64
-99.88
-112.13
-128.7
-146.52
-162.03
-172.39
-176.18
-173.58
-165.89
-154.74
-141.44
-126.65
-110.56
-93.27
-75.25
-57.3
-40.43
-25.44
-12.51
-1.13
9.71
21.06
33.8
48.34
64.84
83.09
102.31
120.9
136.33
145.64
146.29
137.16
119.12
94.9
68.2
42.55
20.4
2.82
-10.32
-19.7
-26.04
-29.63
-30.38
-27.97
-22.23
-13.35
-2.04
10.66
23.74
36.42
48.22
58.78
67.7
74.56
79.09
81.32
81.84
81.56
81.46
82.29
84.26
87.18
90.61
94.13
97.5
100.76
104.05
107.41
110.63
113.1
114.06
112.87
109.38
104.19
98.52
93.8
91.12
90.65
91.5
91.95
90.02
84.27
74.29
60.93
45.95
31.2
17.91
6.16
-4.98
-16.9
-30.71
-46.84
-65.13
-85.02
-105.9
-126.93
-146.69
-162.97
-173.14
-175.08
-168.52
-155.69
-140.89
-129.09
-124.1
-127.35
-137.73
-152.28
-167.05
-177.85
-180.58
-171.74
-149.14
-112.82
-65.66
-13.01
38.55
83.17
117.19
139.7
151.9
155.83
153.34
145.65
133.61
118.18
100.65
82.38
64.65
48.4
34.27
22.66
13.58
6.49
0.27
-6.51
-14.85
-24.66
-34.42
-41.81
-44.84
-43.08
-38.16
-33.32
-31.91
-35.98
-45.42
-58.09
-70.9
-80.93
-86.39
-86.9
-83.24
-76.62
-67.98
-57.62
-45.26
-30.56
-13.71
4.34
21.94
37.37
49.5
58.2
64.09
67.89
69.66
68.5
62.92
51.8
35.29
15.24
-5.26
-22.91
-35.32
-41.74
-42.91
-40.47
-36.03
-30.6
-24.39
-17.05
-8.27
1.84
12.63
23.14
32.39
39.8
45.24
48.97
51.31
52.4
52.11
50.16
46.24
40.32
32.63
23.73
14.42
5.61
-1.83
-7.2
-10.18
-10.96
-10.15
-8.71
-7.5
-7.19
-8.03
-9.97
-12.74
-16.13
-20
-24.27
-28.66
-32.57
-35.04
-34.99
-31.64
-24.93
-15.76
-5.89
2.64
8.13
9.79
7.97
3.93
-0.6
-3.96
-4.87
-2.82
2.03
8.75
15.94
22.01
25.57
25.79
22.55
16.38
8.19
-1.01
-10.35
-19.23
-27.16
-33.84
-39.03
-42.64
-44.77
-45.78
-46.25
-46.89
-48.27
-50.65
-53.71
-56.67
-58.46
-58.1
-55.08
-49.53
-42.17
-34.07
-26.19
-19.14
-13.05
-7.8
-3.32
0.16
2.16
2.21
0.31
-3.02
-6.96
-10.85
-14.71
-19.23
-25.33
-33.47
-43.21
-53.24
-61.96
-68.07
-71.1
-71.37
-69.7
-67.05
-64.28
-62.16
-61.3
-62.03
-64.22
-67.21
-69.98
-71.54
-71.38
-69.68
-67.1
-64.43
-62.09
-60.07
-57.99
-55.2
-50.58
-42.39
-28.46
-7.1
21.64
55.05
87.97
114.4
129.79
132.77
125.53
112.58
99.03
89.37
87.11
95.15
115.68
149.01
192.12
237.94
276.44
297.52
294.23
265.07
214.25
150.23
83.25
22.77
-24.27
-54.46
-67.98
-67.99
-59.39
-47.3
-35.71
-26.85
-21.31
-18.76
-18.84
-21.31
-25.73
-31.21
-36.17
-38.89
-38.35
-35.04
-31.23
-30.47
-36.25
-50.47
-72.18
-97.29
-119.7
-133.57
-135.5
-125.86
-108.57
-89.21
-72.67
-61.38
-55
-51.64
-49.41
-47.45
-45.92
-45.08
-44.39
-42.34
-37.05
-27.25
-13.29
2.7
17.37
27.29
30.14
25.79
16.24
4.93
-4.53
-9.74
-10.23
-7.41
-3.68
-1.13
-0.36
-0.61
-0.54
0.66
2.34
2.72
-0.06
-6.7
-16.12
-25.81
-32.99
-35.91
-34.39
-29.5
-22.18
-12.3
1.68
21.72
48.68
81.11
115.02
145.22
166.98
178.08
179.59
175.63
171.86
173.28
182.18
197.13
213.62
225.9
229.39
222.11
204.88
180.02
149.88
115.91
78.97
40.34
2.46
-31.21
-57.55
-75.18
-85.26
-90.96
-95.87
-102.38
-110.68
-119.05
-124.82
-125.64
-120.45
-109.78
-95.46
-80
-65.79
-54.46
-46.65
-42.09
-39.99
-39.34
-39.14
-38.52
-36.75
-33.45
-28.76
-23.4
-18.62
-15.75
-15.78
-18.91
-24.5
-31.22
-37.57
-42.36
-45.02
-45.61
-44.63
-42.63
-39.84
-36.16
-31.11
-24.26
-15.44
-4.88
6.75
18.59
29.47
38.16
43.45
44.68
42.16
37.38
32.67
30.32
31.63
36.23
42.32
47.51
49.96
49.13
45.75
41.27
36.97
33.52
30.82
28.32
25.42
21.77
17.4
12.68
8.19
4.32
1.3
-0.97
-2.66
-3.81
-4.35
-4.17
-3.48
-3.02
-3.96
-7.38
-13.73
-22.48
-32.26
-41.4
-48.41
-52.26
-52.43
-48.82
-41.73
-31.87
-20.43
-8.88
1.29
8.91
13.29
14.27
12.23
8.06
3.12
-1.12
-3.49
-3.76
-2.83
-2.36
-3.95
-8.19
-14.33
-20.66
-25.41
-27.79
-28.28
-28.39
-29.9
-33.96
-40.73
-49.39
-58.62
-67.09
-73.8
-78.22
-80.33
-80.39
-78.66
-75.29
-70.26
-63.49
-55.07
-45.42
-35.08
-24.79
-15.33
-7.78
-3.52
-4
-10.06
-21.11
-34.67
-46.77
-53.07
-50.44
-38.03
-17.56
7.45
32.98
55.65
73.48
85.99
93.84
98.16
99.79
98.6
93.46
82.74
65.38
41.91
14.67
-12.92
-37.72
-58.13
-74.31
-87.45
-98.22
-105.76
-107.83
-101.84
-86.34
-61.86
-30.65
4.34
40.39
75.29
106.82
132.04
147.39
149.64
137.52
112.82
80.26
45.84
14.78
-9.99
-28.1
-40.51
-48.13
-50.95
-48.39
-40.39
-28.4
-15.36
-4.72
1.01
1.15
-3.33
-10.59
-18.8
-26.43
-32.17
-34.77
-33.15
-26.82
-16.04
-1.58
15.82
35.76
57.97
81.7
105.43
127.59
147.8
167.69
190.16
217.29
248.13
277.84
299.41
306.81
298.06
275.99
246.52
215.48
186.15
158.55
130.91
102.03
72.88
46.53
26.54
14.77
10.04
8.24
3.97
-7.41
-27.97
-56.53
-89.45
-122.06
-150.35
-171.87
-185.98
-193.24
-194.58
-190.74
-182.19
-169.5
-153.66
-136.27
-119.33
-104.69
-93.48
-85.64
-80.02
-74.93
-68.91
-61.35
-52.77
-44.38
-37.52
-32.97
-30.71
-30.06
-30.17
-30.4
-30.51
-30.53
-30.47
-30.17
-29.25
-27.41
-24.66
-21.51
-18.74
-17.06
-16.83
-17.94
-19.98
-22.4
-24.77
-26.8
-28.31
-29.1
-28.94
-27.65
-25.21
-21.81
-17.81
-13.67
-9.86
-6.73
-4.53
-3.35
-3.1
-3.46
-4
-4.28
-4.03
-3.26
-2.24
-1.38
-1.05
-1.41
-2.46
-4.04
-5.97
-8.13
-10.38
-12.54
-14.34
-15.57
-16.13
-16.2
-16.16
-16.41
-17.11
-18.03
-18.71
-18.68
-17.8
-16.25
-14.44
-12.68
-10.94
-8.95
-6.43
-3.39
-0.18
2.6
4.55
5.64
6.17
6.59
7.17
7.9
8.55
8.81
8.44
7.32
5.36
2.61
-0.81
-4.57
-8.18
-11.09
-12.82
-13.18
-12.19
-10.08
-7.05
-3.3
0.98
5.47
9.68
13.13
15.51
16.88
17.61
18.27
19.22
20.49
21.71
22.3
21.78
19.94
16.91
13.13
9.18
5.64
3.02
1.56
1.16
1.34
1.37
0.64
-1.06
-3.36
-5.47
-6.55
-6.15
-4.49
-2.29
-0.5
0.17
-0.49
-2.15
-4.23
-6.19
-7.76
-8.99
-10.03
-10.89
-11.31
-10.76
-8.71
-4.94
0.3
6.34
12.29
17.45
21.46
24.38
26.47
27.97
28.96
29.35
29.02
28.03
26.72
25.6
25.18
25.65
26.81
28.15
29.05
29.13
28.4
27.26
26.27
25.79
25.62
24.79
21.9
15.67
5.79
-6.52
-18.6
-27.3
-30.45
-28.07
-22.56
-17.7
-16.94
-21.89
-31.76
-44.05
-55.67
-64.09
-67.79
-66.44
-60.88
-53.4
-47.86
-49.02
-60.87
-84.35
-115.85
-147.56
-169.99
-175.46
-160.93
-128.7
-85.15
-38.25
4.87
39.31
62.65
74.53
76.07
69.62
58.37
45.94
35.55
29.52
28.89
33.3
41.08
49.39
54.65
53.41
43.55
25.34
1.68
-22.79
-43.45
-57.48
-64.82
-67.89
-70.31
-75.57
-85.86
-101.54
-121.31
-142.65
-162.67
-179
-190.22
-195.73
-195.25
-188.19
-173.72
-151.26
-121.28
-85.76
-47.77
-10.31
25.01
58.47
91.86
127.12
165.09
204.93
244.32
280.24
309.61
329.8
338.96
336.44
322.73
299.22
267.72
229.89
187.09
140.72
92.68
45.76
3.37
-31.26
-56.15
-71.06
-77.48
-77.79
-74.39
-69.07
-63.09
-57.46
-53.37
-52.02
-54.13
-59.49
-66.81
-74.33
-80.81
-86.51
-93.34
-104.06
-120.92
-144.27
-172.16
-200.93
-226.49
-245.57
-256.36
-258.25
-251.25
-235.47
-211.08
-178.84
-140.37
-98.19
-55.12
-13.56
25.08
60.51
93.22
123.82
152.48
178.68
201.24
218.88
230.85
237.55
240.56
242.11
244.14
247.32
250.83
252.8
251.43
245.74
235.93
222.88
207.49
190.27
171.5
151.59
131.48
112.57
96.18
82.99
72.82
64.91
58.28
52.03
45.29
37.06
26.11
11.42
-7.39
-29.53
-53.16
-75.84
-95.28
-109.91
-119.06
-122.87
-121.88
-116.89
-108.94
-99.55
-90.69
-84.57
-82.88
-86.09
-93.04
-101.13
-107.2
-108.76
-104.97
-96.84
-86.67
-77.09
-70.09
-66.91
-68.17
-74.17
-84.72
-98.59
-113.17
-124.79
-129.84
-126.14
-113.83
-95.15
-73.35
-51.42
-31.23
-13.68
0.65
10.74
15.16
12.7
3.59
-9.73
-22.75
-30.07
-27.37
-13.15
10.47
38.49
64.97
85.17
97.08
101.38
100.29
95.96
89.5
81.05
70.83
59.9
50.35
44.39
43.13
45.87
50.36
54.02
55.23
54.26
52.96
53.65
57.78
64.88
72.58
77.6
77.25
70.69
59.42
46.56
35.51
28.5
25.69
25.33
24.82
22.03
16.22
8.13
-0.63
-8.52
-14.58
-18.42
-19.81
-18.44
-14.02
-6.75
2.34
11.45
18.7
22.97
24.42
24.5
25.14
27.68
32.27
37.7
42.09
43.8
42.01
37.07
30.21
23.12
17.37
13.95
12.91
13.24
13.01
9.9
1.97
-11.53
-29.69
-50.25
-70.27
-87.2
-99.74
-108.04
-113.55
-118.28
-124.09
-131.94
-141.44
-150.65
-156.7
-156.92
-150.12
-137.32
-121.38
-105.7
-92.53
-82.08
-72.88
-62.92
-51
-37.32
-23.08
-9.42
3.05
14.31
24.24
32.19
37.13
38.46
36.6
33
29.38
26.67
24.57
21.96
17.79
12.04
5.95
1.29
-0.57
0.53
3.66
7.5
11.29
15.2
20.13
26.88
35.54
45.33
54.98
63.24
69.17
72.21
71.93
68.08
60.67
50.39
38.56
26.92
16.87
9.1
3.45
-0.56
-3.11
-3.78
-1.91
2.78
9.52
16.64
22.29
25.49
26.63
27.09
28.28
30.55
32.86
33.38
30.61
24.26
15.14
4.32
-7.79
-21.67
-37.89
-55.79
-72.72
-84.44
-86.86
-78
-59.06
-34
-7.98
14.64
31.36
41.41
44.9
41.97
32.65
17.45
-2.04
-23
-42.1
-56.49
-64.78
-67.36
-66.08
-63.43
-61.6
-61.61
-62.83
-63.18
-60.14
-52.21
-40.11
-26.96
-16.92
-13.14
-16.16
-23.57
-31.46
-36.3
-36.3
-31.41
-22.48
-10.25
4.63
21.28
38.06
52.98
64.65
73.25
80.5
88.57
98.43
108.95
117.16
119.95
115.94
106.51
95.4
87.16
85.09
90.07
100.51
113.5
126.35
137.52
146.72
154.13
159.46
161.67
159.51
152.44
141.37
128.48
116.29
106.41
98.9
92.38
84.84
74.72
61.59
46.21
30.09
14.71
1.07
-10.52
-20.17
-28.14
-34.58
-39.51
-42.96
-44.99
-45.78
-45.62
-44.82
-43.75
-42.9
-42.76
-43.67
-45.62
-48.12
-50.42
-51.76
-51.68
-50.18
-47.66
-44.7
-41.86
-39.59
-38.13
-37.52
-37.65
-38.29
-39.28
-40.55
-42.16
-44.21
-46.67
-49.33
-51.85
-53.99
-55.69
-57.08
-58.29
-59.2
-59.35
-58.18
-55.26
-50.58
-44.61
-38.08
-31.72
-25.99
-21.07
-17
-13.79
-11.55
-10.43
-10.48
-11.58
-13.39
-15.39
-17.08
-18.09
-18.28
-17.79
-16.8
-15.57
-14.21
-12.84
-11.61
-10.79
-10.72
-11.66
-13.65
-16.39
-19.42
-22.31
-24.91
-27.47
-30.46
-34.32
-39.09
-44.2
-48.48
-50.48
-48.99
-43.58
-34.91
-24.56
-14.55
-6.62
-1.71
0.31
0.27
-0.76
-1.87
-2.63
-2.99
-3.15
-3.31
-3.66
-4.25
-4.97
-5.44
-5.07
-3.34
0.04
4.82
10.28
15.52
19.89
23.27
26.08
28.88
32.05
35.53
38.97
42.01
44.48
46.35
47.55
47.68
46.08
42.15
35.77
27.46
18.16
8.71
-0.49
-9.45
-18.12
-25.92
-31.59
-33.7
-31.45
-25.23
-16.66
-8.15
-2.03
0.04
-2.52
-9.38
-19.46
-31.21
-42.79
-52.29
-58.25
-60.04
-58.15
-54.02
-49.47
-45.96
-43.98
-42.96
-41.66
-38.78
-33.44
-25.41
-14.96
-2.63
10.82
24.44
36.96
47
53.54
56.51
56.92
56.59
57.23
59.63
63.33
66.85
68.51
67.12
62.47
55.15
46.23
36.76
27.43
18.46
9.67
0.85
-8.01
-16.46
-23.56
-28.29
-30.03
-28.95
-26.12
-23.09
-21.35
-21.73
-24.26
-28.5
-34.05
-40.86
-49.21
-59.26
-70.56
-81.93
-91.81
-98.91
-102.92
-104.71
-105.92
-108.01
-111.52
-115.68
-118.82
-118.94
-114.47
-104.44
-88.61
-67.28
-41.22
-11.52
20.51
53.42
85.7
115.77
142.12
163.48
178.99
188.29
191.23
187.44
176.09
156.3
128.33
94.81
61.01
33.75
19.03
19.55
33.5
55.21
77.43
93.94
101.21
98.58
87.45
70.16
49.31
27.67
8.24
-5.9
-12.3
-9.85
0.52
15.78
31.37
42.38
45.07
38.09
23.21
4.74
-11.88
-22.14
-24.07
-18.84
-9.96
-1.72
2.59
1.77
-3.29
-10.58
-18.42
-26.39
-35.33
-46.45
-60.18
-75.31
-89.04
-98.03
-99.61
-92.89
-78.96
-60.27
-39.73
-19.92
-2.83
9.95
17.14
18.1
13.36
4.92
-4.19
-10.93
-13.37
-11.37
-6.41
-0.67
4.1
7.26
9.15
10.41
11.32
11.62
10.86
9.08
7.08
6.17
7.41
10.9
15.47
19.16
20.03
17.04
10.53
2.05
-6.2
-12.21
-14.62
-13.05
-8
-0.62
7.69
15.35
20.87
22.85
20.43
13.78
4.44
-4.79
-10.66
-10.84
-5.04
4.61
14.32
20.16
19.74
13.02
2.12
-9.72
-19.47
-25.26
-26.69
-24.75
-21.21
-18.2
-17.64
-20.72
-27.59
-37.59
-49.49
-62.02
-74.09
-84.64
-92.42
-95.99
-94.21
-87.01
-75.89
-63.55
-52.77
-45.02
-39.45
-33.35
-23.64
-8.59
11.38
34.1
57.12
78.83
98.64
116.21
130.47
139.33
140.71
133.85
120.38
104.01
89.11
78.98
74.74
75.25
78.1
80.74
81.32
79.04
74.16
67.57
60.29
53.01
45.78
38.27
29.88
20.11
8.75
-4.12
-18.64
-35.5
-55.61
-79.18
-104.67
-128.87
-148.06
-159.65
-163.24
-160.68
-155.14
-149.36
-144.63
-140.39
-135.86
-131.48
-129.31
-131.26
-138.3
-150.02
-164.97
-181.32
-196.59
-208.92
-216.76
-218.4
-210.25
-189.14
-154.65
-110.39
-62.87
-17.97
20.04
49.3
70.07
86.34
102.18
119.65
139.01
160.67
188.04
224.25
268.99
316.05
357.65
385.16
392.21
378.21
338
278.45
215.95
173.71
150.39
136.96
123.22
103.22
75.31
41.13
5.12
-29.68
-62.42
-93.78
-121.15
-141.01
-152.25
-155.89
-153.99
-147.99
-139.93
-132.4
-128.62
-129.43
-135.27
-148.56
-170.12
-197.09
-222.78
-239.88
-243.52
-233.36
-211.94
-174.03
-124.92
-77.26
-42.21
-22.3
-13.1
-9.3
-8.33
-9.31
-11.88
-16.57
-22.71
-26.45
-24.47
-15.78
-2.1
13.32
27.99
40.91
51.49
61.56
75.15
94.04
118.96
148.42
178.98
206.08
225.09
231.75
224.61
205.61
178.79
148.95
119.86
93.74
71.41
52.95
37.81
25.71
16.43
8.87
1.16
-9.03
-23.23
-41.04
-59.97
-76.38
-86.69
-88.77
-82.62
-69.89
-53.18
-35.07
-17.73
-2.94
7.75
13.23
13.47
9.89
5.42
3.44
6.57
15.71
30.04
47.61
66.24
84.11
99.79
111.96
119.3
120.86
116.48
107.26
95.16
82.33
70.14
58.78
47.47
35.37
22.68
11.03
3.35
2.65
10.66
26.73
47.61
68.29
83.62
89.96
86.23
74.04
56.92
39.02
23.86
13.58
8.76
8.68
11.91
16.7
21.42
24.68
25.43
23.1
17.75
10.2
1.85
-5.81
-11.87
-16.51
-20.99
-27.07
-36.09
-48.28
-62.61
-77.26
-90.45
-101.11
-109.08
-114.83
-118.99
-122.02
-124.07
-125.12
-125.13
-124.06
-121.96
-118.94
-115.13
-110.65
-105.47
-99.33
-91.84
-82.72
-72.05
-60.36
-48.46
-37.16
-27.02
-18.31
-11.3
-6.41
-4.22
-5.09
-8.81
-14.45
-20.55
-25.64
-28.75
-29.62
-28.56
-26.22
-23.31
-20.49
-18.31
-17.2
-17.39
-18.79
-21.1
-23.78
-26.33
-28.34
-29.57
-29.96
-29.5
-28.17
-25.67
-21.56
-15.36
-6.96
3.12
13.64
23.05
30.06
34.16
35.74
35.84
35.43
34.85
33.62
30.71
25.2
16.97
6.87
-3.49
-12.37
-18.49
-21.42
-21.57
-19.95
-17.77
-16.01
-15.23
-15.56
-16.79
-18.49
-20.07
-20.82
-19.99
-17.2
-12.77
-7.94
-4.57
-4.46
-8.45
-15.84
-24.5
-31.76
-35.6
-35.46
-32.49
-28.86
-26.86
-28.04
-32.74
-40.12
-48.18
-54.15
-54.93
-47.94
-32.14
-8.59
19.53
47.97
72.62
90.72
101.31
104.92
102.92
96.89
88.33
78.71
69.34
61.2
54.63
49.23
44.16
38.81
33.24
28.24
24.78
23.44
23.99
25.61
27.5
29.44
32.09
36.51
43.63
53.55
65.41
77.71
88.95
98.19
105.41
111.46
117.57
124.86
133.81
144.11
154.86
165.04
174.07
182.03
189.48
196.91
204.27
210.78
215.15
216.01
211.93
201.51
183.19
155.85
119.78
77.78
35.46
-0.15
-23.3
-32.26
-30.48
-25.45
-25.51
-36.3
-58.62
-88.64
-120.08
-147.09
-166.26
-176.98
-180.54
-178.76
-173.11
-164.52
-153.71
-141.74
-129.94
-119.71
-111.97
-106.74
-103.12
-99.52
-94.46
-87.15
-78
-68.39
-60.12
-54.57
-52.13
-52.01
-52.7
-52.66
-50.97
-47.71
-43.74
-40.23
-38.06
-37.41
-37.83
-38.47
-38.56
-37.8
-36.36
-34.77
-33.56
-33.04
-33.1
-33.32
-33.1
-31.97
-29.67
-26.24
-22.04
-17.58
-13.48
-10.22
-8.05
-6.9
-6.42
-6.18
-5.8
-5.09
-4.08
-2.87
-1.55
-0.16
1.32
2.86
4.36
5.68
6.76
7.61
8.34
9.07
9.75
10.19
10.12
9.35
7.94
6.17
4.47
3.19
2.43
2.01
1.49
0.38
-1.66
-4.61
-8.14
-11.63
-14.4
-15.91
-15.91
-14.42
-11.69
-8.1
-4.05
0.06
3.82
6.91
9.11
10.35
10.76
10.6
10.15
9.61
9.08
8.55
7.97
7.34
6.67
6
5.35
4.75
4.2
3.69
3.22
2.8
2.41
2.04
1.7
1.34
0.89
0.23
-0.77
-2.21
-4.08
-6.23
-8.34
-10.02
-10.91
-10.78
-9.63
-7.62
-5.06
-2.3
0.4
2.82
4.89
6.59
7.94
8.99
9.84
10.58
11.28
11.95
12.5
12.72
12.43
11.56
10.23
8.77
7.58
6.96
6.94
7.25
7.36
6.7
4.9
1.88
-2.13
-6.6
-10.98
-14.9
-18.48
-22.44
-28.07
-36.86
-49.85
-67.08
-87.12
-107.23
-123.99
-134.26
-136.13
-129.47
-115.81
-97.72
-78.12
-59.38
-42.91
-29.07
-17.4
-7.21
2.1
10.78
18.71
25.54
30.93
34.7
36.98
38.24
39.19
40.6
43.04
46.64
51
55.41
59.18
61.93
63.81
65.21
66.37
67.02
66.39
63.67
58.59
51.68
44.18
37.48
32.51
29.28
26.8
23.5
17.89
9.21
-2.05
-14.07
-23.92
-28.24
-24.16
-10.35
12.12
39.66
66.76
87.6
97.85
96.11
84.17
66.08
46.43
28.62
14.07
2.38
-7.58
-16.72
-25.15
-32.51
-38.56
-43.58
-48.26
-53.15
-58.05
-62.02
-63.86
-62.9
-59.63
-55.64
-52.92
-52.89
-55.64
-59.85
-63.4
-64.27
-61.43
-55.14
-46.74
-37.93
-30.02
-23.53
-18.16
-13.12
-7.76
-1.91
3.98
9.06
12.55
14.1
13.93
12.63
10.86
9.03
7.26
5.52
3.75
1.87
-0.23
-2.78
-5.93
-9.41
-12.13
-12.27
-8.03
1.22
14.01
26.86
35.45
36.5
29.3
15.96
0.48
-13.08
-22.09
-25.94
-25.59
-22.62
-18.38
-13.75
-9.38
-5.95
-4.17
-4.49
-6.74
-10.11
-13.33
-15.21
-14.97
-12.57
-8.52
-3.63
1.29
5.72
9.47
12.62
15.38
17.88
20.15
22
23.09
23.04
21.53
18.5
14.29
9.59
5.19
1.73
-0.6
-2.16
-3.59
-5.5
-8.15
-11.23
-14.07
-15.95
-16.49
-15.79
-14.35
-12.82
-11.6
-10.7
-9.75
-8.22
-5.79
-2.62
0.65
3.17
4.24
3.74
2.24
0.8
0.54
2.2
5.7
10.2
14.31
16.61
16.11
12.53
6.44
-0.93
-7.89
-12.81
-14.49
-12.54
-7.67
-1.55
3.7
6.12
4.69
-0.36
-7.7
-15.41
-21.77
-25.72
-27.01
-26.04
-23.42
-19.76
-15.58
-11.23
-7.07
-3.41
-0.47
1.77
3.75
6.39
10.94
18.56
29.79
44.05
59.49
73.5
83.46
87.62
85.72
78.89
69.11
58.36
47.77
37.37
26.31
13.53
-1.48
-18.15
-34.9
-49.56
-60.09
-65.2
-64.65
-59.21
-50.4
-40.26
-31.11
-25.19
-24.28
-29.14
-39.18
-52.46
-66.24
-77.78
-84.92
-86.58
-82.76
-74.41
-63.11
-50.79
-39.31
-30.01
-23.46
-19.29
-16.46
-13.79
-10.38
-5.99
-0.87
4.58
10.21
16.26
23.14
31.05
39.69
48.23
55.74
61.6
65.78
68.71
70.8
72
71.6
68.53
61.98
52.06
40.06
28.17
18.73
13.45
12.82
16.12
21.79
28
33.19
36.49
38.06
39.23
42.37
50.09
63.96
83.25
104.44
122.05
130.62
127.01
111.79
88.99
64.26
42.59
26.62
16.47
10.69
7.64
6.48
7.01
9.18
12.4
15.42
16.8
15.61
11.92
6.84
2.03
-1.13
-2.08
-1.41
-0.67
-1.78
-6.3
-14.79
-26.47
-39.37
-51
-59.08
-62.39
-61.06
-56.43
-50.37
-44.52
-39.76
-36.07
-32.95
-29.93
-26.95
-24.42
-22.91
-22.77
-23.75
-25.14
-25.98
-25.59
-23.79
-21.04
-18.13
-15.83
-14.58
-14.37
-14.9
-15.71
-16.5
-17.07
-17.38
-17.36
-16.82
-15.56
-13.37
-10.21
-6.22
-1.77
2.7
6.81
10.31
13.15
15.39
17.13
18.38
19.1
19.22
18.71
17.67
16.29
14.81
13.46
12.42
11.75
11.42
11.26
11.07
10.68
9.92
8.78
7.28
5.53
3.61
1.56
-0.61
-2.89
-5.31
-7.93
-10.78
-13.87
-17.13
-20.33
-23.05
-24.81
-25.18
-23.94
-21.22
-17.43
-13.15
-8.97
-5.23
-2.1
0.48
2.65
4.52
6.09
7.31
8.07
8.31
8.02
7.32
6.48
5.75
5.4
5.46
5.79
6.13
6.23
6.05
5.77
5.69
6.07
6.89
7.91
8.73
9.04
8.81
8.24
7.61
7.14
6.79
6.31
5.35
3.64
1.1
-2.09
-5.63
-9.1
-12.13
-14.43
-15.8
-16.15
-15.46
-13.88
-11.65
-9.1
-6.6
-4.38
-2.55
-1.07
0.15
1.21
2.17
3.03
3.8
4.47
5.06
5.56
5.92
6.1
6.09
5.95
5.81
5.77
5.87
6.12
6.47
6.89
7.38
7.9
8.39
8.77
8.96
8.92
8.68
8.3
7.79
7.16
6.37
5.46
4.52
3.73
3.19
2.96
2.96
3.06
3.21
3.46
4
5.06
6.8
9.2
12
14.81
17.22
18.98
20.06
20.66
21.13
21.72
22.54
23.46
24.15
24.26
23.56
22.02
19.85
17.5
15.5
14.38
14.54
16.08
18.75
21.91
24.56
25.54
23.85
19.01
11.29
1.62
-8.72
-18.66
-27.71
-36.02
-44.08
-52.2
-60.19
-67.26
-72.5
-75.25
-75.48
-73.78
-71
-68.06
-65.69
-64.42
-64.41
-65.45
-66.93
-67.95
-67.81
-66.39
-64.41
-63.14
-63.8
-66.81
-71.63
-77.12
-82.32
-87
-91.71
-97.16
-103.49
-109.91
-114.8
-116.45
-113.9
-107.39
-98.32
-88.42
-78.95
-69.9
-60.18
-48.45
-34.21
-18.39
-3.14
9.23
17.45
22
25.03
29.22
36.43
46.81
58.82
70
78.01
81.44
80.04
74.54
66.4
57.54
50.01
45.82
46.45
52.42
63.14
76.92
91.47
104.48
114.18
119.68
120.85
118.27
113.16
107.36
103.19
103.03
108.46
119.56
134.53
149.97
161.89
166.97
163.44
151.49
133.02
111.01
88.79
69.32
54.62
45.28
40.33
37.63
34.43
28.21
17.41
1.77
-17.54
-38.13
-56.94
-71.06
-78.55
-79.14
-74.52
-67.68
-61.93
-59.67
-61.59
-66.51
-72.09
-75.84
-76.14
-72.67
-66.25
-58.11
-49.22
-39.81
-29.47
-17.83
-5.02
8.01
19.89
29.61
37.04
43.06
49.01
55.85
63.58
71.4
78.38
84.17
89.35
95.06
102.33
111.39
121.34
130.52
137.11
139.94
138.79
134.34
127.7
120.02
112.25
105.28
99.94
97
96.79
98.82
101.7
103.32
101.52
94.53
81.31
61.53
35.44
3.85
-31.43
-67.29
-99.36
-122.92
-134.46
-133.27
-122.05
-106.19
-91.72
-82.98
-81.07
-83.85
-87.47
-88.47
-85.23
-78.4
-69.97
-62.04
-55.85
-51.66
-49.19
-48.15
-48.56
-50.57
-54.2
-59.08
-64.44
-69.37
-73.16
-75.58
-76.98
-78.11
-79.82
-82.58
-86.11
-89.35
-90.81
-89.18
-84.02
-76.08
-67.01
-58.78
-52.83
-49.55
-48.29
-47.81
-46.91
-44.96
-41.97
-38.51
-35.26
-32.67
-30.78
-29.28
-27.72
-25.79
-23.49
-21.08
-18.88
-17.13
-15.83
-14.79
-13.81
-12.81
-11.87
-11.24
-11.08
-11.39
-11.99
-12.62
-13.13
-13.56
-14.09
-14.99
-16.41
-18.27
-20.28
-22.04
-23.1
-23.15
-22.07
-19.95
-17.04
-13.7
-10.23
-6.9
-3.83
-1.11
1.14
2.75
3.56
3.58
3.02
2.35
2.12
2.72
4.3
6.69
9.53
12.42
15
17.05
18.4
19.05
19.05
18.61
17.95
17.28
16.63
15.86
14.72
13
10.63
7.72
4.46
1.07
-2.24
-5.28
-7.86
-9.78
-10.95
-11.39
-11.24
-10.69
-9.88
-8.82
-7.49
-5.84
-3.89
-1.7
0.68
3.17
5.61
7.71
9.05
9.3
8.44
6.88
5.34
4.49
4.66
5.64
6.86
7.8
8.19
8.18
8.07
8.09
8.21
8.2
7.81
6.95
5.71
4.28
2.79
1.22
-0.56
-2.7
-5.17
-7.79
-10.25
-12.25
-13.55
-14.09
-13.85
-12.87
-11.11
-8.44
-4.72
0.14
6.03
12.65
19.61
26.44
32.82
38.52
43.4
47.37
50.27
51.87
51.93
50.23
46.68
41.37
34.62
26.87
18.67
10.45
2.46
-5.19
-12.55
-19.66
-26.43
-32.68
-38.21
-42.93
-46.87
-50.28
-53.4
-56.42
-59.38
-62.16
-64.47
-65.98
-66.43
-65.7
-63.95
-61.58
-59.08
-56.86
-55.04
-53.46
-51.88
-50.21
-48.63
-47.62
-47.7
-49.2
-52.16
-56.37
-61.61
-67.77
-74.9
-82.98
-91.65
-100.05
-106.9
-110.9
-111.15
-107.6
-101.16
-93.4
-86.01
-80.12
-75.91
-72.63
-68.78
-62.56
-52.46
-37.51
-17.61
6.36
32.67
58.96
82.69
101.84
115.41
123.86
129.1
133.89
140.85
151.55
165.88
182.24
198.31
212.06
222.49
229.79
234.73
237.86
239.12
238.04
234.31
228.26
220.77
212.63
203.62
192.17
175.86
152.75
122.6
87.43
50.95
17.37
-9.89
-28.98
-39.67
-43.11
-41.41
-37.46
-34.52
-35.59
-42.45
-55.01
-71.16
-87.6
-101.2
-110.17
-114.58
-115.76
-115.3
-114.21
-112.57
-109.88
-105.65
-99.78
-92.68
-84.95
-77.09
-69.27
-61.42
-53.47
-45.58
-38.17
-31.76
-26.68
-22.86
-19.76
-16.58
-12.64
-7.65
-1.89
3.88
8.75
12.02
13.48
13.5
12.85
12.32
12.51
13.49
14.91
16.19
16.74
16.23
14.66
12.3
9.56
6.86
4.44
2.39
0.56
-1.29
-3.44
-6.14
-9.46
-13.18
-16.78
-19.46
-20.46
-19.29
-16.02
-11.27
-5.96
-0.97
3.22
6.56
9.32
11.75
13.97
15.87
17.3
18.23
18.83
19.35
20.05
20.98
22.01
22.87
23.35
23.32
22.9
22.3
21.71
21.23
20.73
20.03
18.93
17.35
15.33
13.04
10.62
8.25
6.05
4.09
2.34
0.7
-1.13
-3.47
-6.55
-10.29
-14.23
-17.67
-19.92
-20.55
-19.53
-17.17
-13.9
-10.08
-5.95
-1.7
2.48
6.28
9.4
11.66
13.06
13.89
14.47
15.07
15.78
16.49
16.96
17
16.49
15.48
14.1
12.59
11.17
10.08
9.45
9.32
9.56
9.89
10.01
9.68
8.86
7.76
6.73
6.13
6.07
6.42
6.78
6.64
5.62
3.6
0.73
-2.58
-5.78
-8.3
-9.66
-9.61
-8.19
-5.77
-2.89
-0.1
2.25
4.13
5.73
7.28
8.83
10.1
10.6
9.81
7.46
3.7
-0.88
-5.48
-9.34
-12.01
-13.36
-13.52
-12.86
-11.96
-11.46
-11.9
-13.49
-15.94
-18.67
-21.04
-22.73
-23.89
-24.97
-26.45
-28.53
-31.09
-33.77
-36.34
-38.92
-41.85
-45.49
-49.92
-54.75
-59.32
-62.89
-64.93
-65.29
-64.28
-62.52
-60.84
-60.07
-60.93
-63.97
-69.28
-75.96
-81.91
-84.09
-79.68
-67.43
-48.4
-25.62
-2.69
17.65
34.42
48.12
59.81
70.17
79.11
86.18
91.05
93.72
94.34
92.78
88.58
81.37
71.47
60.16
49.27
40.36
34.08
29.97
26.93
23.97
20.92
18.7
18.89
22.96
31.37
43.22
56.63
69.49
80.19
88.08
93.29
96.35
97.86
98.35
98.39
98.82
100.51
103.88
108.43
112.73
114.97
113.83
109.16
101.99
94.37
88.45
85.47
85.23
86.24
86.42
83.91
77.61
66.75
51.48
32.52
10.72
-13.3
-39.22
-66.77
-95.42
-124.38
-153.57
-182.66
-211.35
-239.31
-265.98
-289.93
-308.64
-319.22
-319.71
-311.15
-295.69
-275.55
-251.79
-224.44
-193.42
-159.48
-124.72
-85.32
-42.15
1.81
43.49
81.68
115.93
144.77
165.81
177.38
180.02
175.43
166.87
157.32
149.06
142.91
138.49
135.04
131.78
128
122.21
114.22
103.22
89.27
72.69
53.4
30.83
4.49
-25.85
-60.44
-96.53
-132.68
-166.51
-194.22
-210.72
-211.04
-192.7
-157.67
-112.67
-66.95
-29.26
-4.13
8.76
13.13
13.49
13
12.6
12.75
13.84
16.48
21.72
29.92
40.28
51.12
60.81
68.53
75.27
82.75
92.42
105
119.79
134.88
147.99
157.41
162.95
166.92
172.89
184.37
203.32
228.63
255.78
278.09
289.13
281.72
255.04
213.82
166.52
122.25
87.43
64.12
50.21
41.25
32.77
22.48
9.96
-4.2
-19.19
-34.67
-50.9
-68.2
-86.64
-106.03
-125.65
-144.7
-161.73
-174.28
-179.24
-174.34
-160.05
-140.8
-123.81
-115.9
-120.49
-135.56
-154.43
-168.61
-171.36
-160.1
-136.88
-106.93
-76.56
-51.56
-36.14
-32.55
-40.88
-59.21
-83.86
-110.59
-135.27
-154.55
-166.84
-172.68
-175.2
-179.87
-193.02
-219.26
-259.05
-307.32
-354.58
-389.9
-404.51
-394.33
-360.95
-310.63
-252.55
-196.43
-149.98
-116.86
-95.55
-79.89
-61.61
-34.06
4.48
49.81
93.61
127.52
146.89
152.29
148.3
140.16
130.85
120.43
107.42
91.04
72.66
55.14
41.14
31.52
24.77
18.02
8.87
-3.3
-16.99
-29.11
-36.18
-35.26
-24.78
-4.85
22.7
54.7
87.53
118.39
146.51
173.5
202.82
238.11
281.43
332.21
387.24
441.57
489.75
526.86
548.98
553.53
539.3
506.71
457.98
397.04
328.88
258.66
190.52
126.69
67.33
10.7
-46.22
-106.49
-171.78
-240.84
-308.78
-367.79
-409.62
-428.81
-425.29
-404.69
-376.15
-348.62
-327.36
-312.64
-300.82
-286.91
-267.29
-240.81
-208.53
-172.3
-133.71
-93.55
-52.18
-9.79
33.46
77.6
122.86
169.38
216.53
262.11
302.32
332.42
348.15
347.3
330.39
300.45
261.98
219.76
178.08
140.4
109.18
85.49
68.73
56.72
46.43
35.09
21.14
4.41
-14.51
-35.11
-57.2
-80.62
-104.51
-126.95
-145.6
-158.81
-166.66
-170.76
-173.37
-175.94
-178.47
-179.76
-178.34
-172.99
-162.93
-147.49
-126.22
-99.41
-68.79
-37.73
-10.53
9.08
19.29
20.59
15.17
5.6
-6.19
-19.03
-32
-43.73
-52.14
-55.03
-50.92
-39.75
-23.15
-4.01
14.06
27.46
33.43
30.71
19.93
3.59
-14.37
-29.53
-37.89
-36.88
-25.94
-6.72
17.26
41.43
61.43
74.15
78.4
74.76
64.91
50.83
34.2
16.35
-1.43
-17.63
-30.53
-38.58
-40.84
-37.27
-28.68
-16.51
-2.47
11.52
23.44
31.26
33.36
29.08
19.08
5.32
-9.5
-22.85
-33.22
-40.39
-45.15
-48.37
-50.13
-49.38
-44.37
-33.76
-17.61
2.11
22.09
38.76
49.58
53.75
52.14
46.66
39.4
31.99
25.32
19.75
15.29
11.88
9.49
8.08
7.52
7.6
8.02
8.49
8.73
8.49
7.55
5.74
3
-0.46
-4.13
-7.25
-8.99
-8.84
-6.82
-3.52
0.12
3.21
5.37
6.87
8.39
10.58
13.53
16.58
18.63
18.74
16.7
13.23
9.51
6.64
4.96
4.07
3.25
2.12
1
0.77
2.28
5.76
10.57
15.42
18.89
19.8
17.46
11.68
2.72
-8.49
-20.37
-30.7
-37.12
-37.84
-32.34
-21.56
-7.67
6.69
19.26
28.67
34.62
37.66
38.68
38.45
37.21
34.77
30.63
24.48
16.56
7.76
-0.53
-6.9
-10.37
-10.68
-8.32
-4.3
0.24
4.33
7.4
9.25
9.97
9.75
8.71
6.9
4.32
1.08
-2.6
-6.38
-9.99
-13.3
-16.19
-18.46
-19.59
-18.83
-15.62
-10.1
-3.41
2.51
5.69
5.06
1.06
-4.43
-8.78
-9.77
-6.48
0.34
8.71
16.2
20.91
22
19.84
15.59
10.71
6.4
3.37
1.75
1.31
1.67
2.55
3.81
5.45
7.45
9.73
12.04
13.98
15.09
14.96
13.32
10.01
5.02
-1.63
-9.83
-19.37
-29.8
-40.34
-49.8
-56.73
-59.69
-57.62
-50.18
-37.91
-22.21
-4.91
12.03
27.07
39.22
48.1
53.67
55.94
54.88
50.43
42.88
33.08
22.54
13.16
6.72
4.29
5.91
10.61
16.74
22.53
26.62
28.39
28
26.14
23.55
20.68
17.47
13.52
8.44
2.3
-4.24
-10.01
-13.82
-14.97
-13.56
-10.39
-6.66
-3.47
-1.52
-0.95
-1.37
-2.05
-2.12
-0.78
2.47
7.62
14.15
21.17
27.77
33.29
37.52
40.63
43.01
44.93
46.44
47.33
47.33
46.21
43.96
40.75
36.88
32.71
28.6
24.88
21.84
19.6
17.97
16.43
14.23
10.71
5.63
-0.54
-6.83
-12.09
-15.57
-17.28
-17.91
-18.42
-19.48
-21.14
-22.81
-23.71
-23.33
-21.84
-20.07
-19.1
-19.8
-22.37
-26.17
-29.99
-32.47
-32.62
-30.14
-25.51
-19.71
-13.91
-9.08
-5.73
-3.94
-3.45
-3.83
-4.53
-5.01
-4.72
-3.33
-0.99
1.65
3.54
3.78
2.09
-0.89
-3.79
-5.17
-4.15
-0.85
3.75
8.43
12.34
15.37
18
20.77
23.75
26.25
27.1
25.25
20.33
13.13
5.55
0.04
-1.17
2.99
12.03
24.02
36.24
46.19
52.38
54.62
53.72
51.07
47.99
45.46
44.01
43.61
43.64
42.75
39.12
31.15
18.39
2.16
-14.73
-28.87
-37.83
-41.13
-40.35
-38.17
-37.08
-38.38
-42.09
-47.51
-53.81
-60.18
-65.49
-67.94
-65.36
-56.2
-40.49
-20.38
0.5
18.3
30.31
35.72
35.35
30.77
23.46
14.45
4.39
-5.97
-15.63
-23.38
-28.17
-29.42
-27.25
-22.43
-16.24
-10.16
-5.41
-2.58
-1.49
-1.39
-1.36
-0.82
0.29
1.58
2.65
3.31
3.78
4.37
5.18
5.86
5.71
4.04
0.7
-3.71
-7.89
-10.4
-10.18
-7.03
-1.76
4.16
9.11
11.89
12.01
9.82
6.2
2.3
-0.91
-2.88
-3.7
-3.97
-4.6
-6.26
-9.08
-12.48
-15.39
-16.9
-16.76
-15.51
-14.25
-13.94
-14.76
-15.93
-15.95
-13.33
-7.38
1.47
11.74
21.54
29.22
33.95
35.73
35.13
32.82
29.16
24.26
18.24
11.51
4.94
-0.37
-3.6
-4.55
-3.77
-2.27
-1.01
-0.57
-1.11
-2.55
-4.81
-7.86
-11.63
-15.72
-19.36
-21.61
-21.74
-19.77
-16.52
-13.34
-11.43
-11.22
-12.19
-13.1
-12.69
-10.3
-6.17
-1.3
3.07
5.98
7.13
6.91
6.1
5.52
5.67
6.59
7.96
9.18
9.69
9.11
7.31
4.41
0.63
-3.65
-7.88
-11.23
-12.71
-11.35
-6.65
1.07
10.5
19.47
25.68
27.35
24.02
16.69
7.63
-0.44
-5.3
-5.93
-2.79
2.5
7.87
11.62
12.87
11.74
9.03
5.77
2.78
0.48
-1.12
-2.18
-2.85
-3.16
-3.07
-2.61
-1.97
-1.58
-1.93
-3.39
-5.95
-9.16
-12.34
-14.86
-16.5
-17.52
-18.46
-19.74
-21.32
-22.58
-22.69
-21.11
-18.08
-14.74
-12.71
-13.35
-17.06
-22.92
-28.95
-32.88
-33.09
-29.18
-22.08
-13.5
-5.24
1.56
6.63
10.41
13.53
16.41
19.05
21.21
22.68
23.46
23.77
23.86
23.85
23.74
23.51
23.3
23.4
23.99
24.92
25.53
24.77
21.66
15.73
7.42
-2.08
-11.06
-17.96
-21.77
-22.21
-19.72
-15.18
-9.66
-4.33
-0.4
0.9
-1.44
-7.83
-17.59
-28.86
-38.91
-44.99
-45.33
-39.78
-29.85
-18.07
-7.07
1.25
6.13
7.81
7.11
4.97
2.3
-0.09
-1.36
-0.71
2.43
8.1
15.54
23.18
28.92
30.91
28.3
21.67
13.04
4.96
-0.42
-2.27
-1.3
0.92
2.8
3.75
4.39
6.2
10.67
18.49
29.06
40.56
50.39
55.88
54.98
46.95
32.67
14.5
-4.35
-20.74
-32.59
-39.28
-41.52
-40.62
-37.79
-33.69
-28.5
-22.29
-15.37
-8.32
-1.8
3.73
8.08
11.22
13.03
13.17
11.27
7.24
1.5
-5.03
-11.3
-16.48
-20.29
-22.85
-24.51
-25.51
-25.88
-25.53
-24.52
-23.16
-21.97
-21.45
-21.85
-23.01
-24.54
-26.03
-27.25
-28.17
-28.86
-29.3
-29.28
-28.38
-26.13
-22.22
-16.58
-9.52
-1.59
6.53
14.11
20.52
25.23
27.96
28.71
27.85
26
23.93
22.25
21.25
20.77
20.36
19.49
17.81
15.33
12.38
9.51
7.18
5.58
4.64
4.03
3.3
2.12
0.32
-2.03
-4.64
-7.05
-8.78
-9.43
-8.85
-7.22
-5.13
-3.46
-3.18
-4.91
-8.6
-13.41
-17.84
-20.26
-19.46
-15.18
-8.17
0.04
7.73
13.49
16.59
17.1
15.62
13.04
10.25
7.89
6.39
5.95
6.57
8.03
9.98
11.96
13.5
14.22
13.95
12.78
10.97
8.84
6.64
4.41
2.06
-0.53
-3.31
-6.06
-8.31
-9.63
-9.79
-9.05
-8.09
-7.88
-9.27
-12.59
-17.4
-22.53
-26.38
-27.57
-25.37
-20.07
-12.78
-5.08
1.56
6.2
8.59
9.07
8.32
7.07
5.93
5.29
5.26
5.75
6.55
7.32
7.73
7.49
6.37
4.33
1.54
-1.64
-4.7
-7.16
-8.8
-9.74
-10.31
-10.92
-11.8
-12.87
-13.93
-14.8
-15.54
-16.47
-18.1
-20.86
-24.97
-30.3
-36.35
-42.38
-47.6
-51.38
-53.45
-53.97
-53.4
-52.33
-51.32
-50.77
-51.01
-52.4
-55.42
-60.48
-67.73
-76.84
-86.97
-96.95
-105.65
-112.4
-117.36
-121.55
-126.76
-135.02
-148.01
-166.34
-188.99
-213.35
-235.61
-251.75
-258.66
-254.91
-240.98
-218.93
-191.65
-162.18
-133.12
-106.32
-82.78
-62.61
-45.04
-28.66
-11.79
7.06
28.85
53.88
81.83
111.75
142.13
170.95
195.95
215.39
228.82
237.72
245.49
256.58
275.21
304.05
343.42
391.48
444.95
500.01
552.62
598.4
632.43
649.56
645.6
619.07
572.45
511.95
445.46
379.39
316.12
253.46
186.45
110.73
25.67
-64.37
-151.06
-225.21
-280.05
-313.44
-328.12
-329.92
-325.16
-318.34
-310.93
-301.9
-289.3
-271.81
-249.44
-222.93
-192.57
-157.32
-115.52
-66.71
-13.37
38.55
81.2
107.41
113.21
99.15
69.97
33.29
-2.03
-27.63
-37.31
-28.55
-3.67
30.21
63.21
85.79
91.99
81.11
57.01
25.83
-6.52
-35.96
-60.31
-78.53
-90.16
-95.36
-95.49
-93.14
-91.51
-92.92
-97.54
-103.21
-106.26
-103.44
-93.81
-79.46
-65.13
-56.46
-57.71
-70.01
-90.79
-114.79
-135.92
-149.31
-152.7
-146.84
-134.61
-119.63
-104.76
-91.34
-79.39
-68.54
-59.09
-52.49
-50.96
-56.49
-69.77
-89.58
-113.04
-136.42
-156.19
-169.79
-175.8
-174.14
-166.04
-153.98
-141.44
-132.01
-128.32
-130.96
-137.99
-145.44
-148.69
-144.25
-131.15
-111.47
-89.72
-71.16
-60.1
-58.56
-65.84
-79.13
-94.31
-107
-113.44
-111.13
-99.36
-79.33
-53.91
-26.79
-1.25
20.82
39.26
55.03
69.45
83.47
97.55
111.88
126.85
142.99
160.49
178.89
197.07
213.74
228.19
240.55
251.45
261.13
268.51
271
265.39
249.45
223.59
191.42
159
132.83
117.7
115.45
124.82
142.49
164.34
186.39
205.35
218.95
226.26
227.9
226.2
224.73
227.53
238.28
259.69
293.27
338.99
394.75
455.76
514.35
560.95
586.32
584.27
553.58
498.25
425.9
345.07
262.92
184.04
110.78
44.27
-14.58
-64.92
-106.49
-140.21
-168.39
-194.29
-221.19
-251.28
-284.8
-319.81
-352.56
-378.42
-392.99
-393.21
-378.21
-349.74
-311.87
-270.07
-230.13
-197.1
-174.81
-165.61
-170.36
-188.1
-215.74
-247.89
-277.22
-295.8
-297.32
-279.26
-244.32
-200.08
-156.6
-123.13
-105.12
-102.9
-112.47
-127.61
-142.65
-154.16
-161.51
-165.93
-169.1
-171.94
-174.09
-174.2
-170.49
-161.54
-146.71
-126.51
-102.68
-77.95
-55.6
-38.59
-28.83
-26.62
-30.66
-38.5
-47
-52.72
-52.44
-43.78
-25.93
-0.28
29.64
59.04
83.72
101.76
114.49
125.66
139.24
156.93
176.76
193.81
202.45
199.23
184.45
162.01
137.56
116.25
101.01
92.1
87.96
86.39
85.52
84.08
81.29
76.61
69.71
60.75
50.55
40.72
33.23
29.72
30.63
34.73
39.19
40.33
34.82
20.76
-1.41
-28.65
-55.79
-76.86
-86.83
-83.52
-68.62
-47.36
-26.86
-13.65
-11.58
-20.85
-38.65
-60.77
-83.53
-104.57
-122.79
-137.55
-148.08
-153.59
-153.77
-149.28
-141.57
-131.92
-120.18
-104.51
-82.37
-52.51
-17.04
18.41
46.48
61.4
61.76
51.24
36.68
24.61
18.51
18.08
20.96
25.19
30.93
40.08
54.51
74.03
95.52
114.08
124.89
125.18
115.14
97.8
77.73
59.6
46.77
40.35
39.13
40.05
39.36
33.95
22.31
4.91
-16.05
-37.33
-55.29
-66.19
-66.52
-53.47
-25.79
15.09
64.35
114.18
155.75
181.89
189.75
181.71
164.18
144.72
128.62
116.86
106.26
91.81
69.64
39.21
3.44
-32.69
-64.21
-87.56
-101.13
-105.06
-100.95
-91.6
-80.74
-72.2
-68.8
-71.15
-77.36
-83.78
-86.46
-82.74
-71.92
-55.21
-35.08
-14.5
3.57
16.6
22.94
22.32
15.96
6.17
-4.67
-15.02
-24.57
-33.95
-43.85
-54.17
-64.11
-72.68
-79.48
-84.98
-90.03
-95.08
-99.57
-102.1
-101.24
-96.4
-87.95
-76.41
-61.43
-41.49
-15
17.94
54.2
87.87
112.35
123.1
119.58
105.16
85.19
64.56
46.18
30.98
18.95
10.45
6.54
8.39
16.06
27.95
40.83
50.9
55.09
52.05
42.55
29
14.44
1.49
-8.46
-15.33
-20.04
-23.86
-27.99
-33.2
-39.92
-48.19
-57.56
-67.02
-75.02
-79.73
-79.61
-74
-63.49
-50.07
-36.66
-26.31
-21.2
-21.97
-27.37
-34.75
-40.94
-43.2
-40.04
-31.46
-18.66
-3.58
11.7
25.27
35.52
41.31
42.18
38.58
31.93
24.31
17.78
13.6
11.72
10.73
8.52
3.15
-6.34
-19.51
-34.78
-50.06
-63.53
-74.21
-82.05
-87.54
-91.16
-92.82
-91.73
-86.72
-76.91
-62.46
-44.83
-26.6
-10.74
0.25
5.04
3.75
-2.07
-9.78
-16.1
-17.74
-12.22
1.44
22.23
47.44
73.53
97.25
116.66
131.3
141.75
148.78
152.58
152.57
147.78
137.55
122.23
103.41
83.61
65.71
52.25
44.92
44.39
50.28
61.23
75.1
89.22
100.89
108
109.45
105.33
96.63
84.6
70.27
54.34
37.41
20.47
5.16
-6.57
-13.21
-14.46
-11.72
-7.69
-5.44
-7.23
-13.78
-24.17
-36.42
-48.3
-58.13
-65
-68.66
-69.13
-66.4
-60.48
-51.6
-40.64
-29.15
-19.03
-11.92
-8.61
-8.75
-11.06
-13.78
-15.44
-15.47
-14.32
-13.29
-14.09
-18.22
-26.58
-39.14
-54.99
-72.44
-89.54
-104.56
-116.52
-125.39
-132.13
-138.14
-144.88
-153.35
-163.78
-175.62
-187.8
-199.24
-209.33
-218.17
-226.44
-234.82
-243.07
-249.58
-251.41
-245.21
-228.59
-201.19
-164.92
-123.26
-79.86
-37.26
3.75
43.84
84.42
126.63
170.67
215.42
258.76
298.32
332.48
361.01
384.72
404.52
419.98
428.62
426.49
409.84
376.79
328.12
266.89
197.56
125.45
56.79
-1.12
-40.82
-56.83
-48.13
-19.42
20.12
60.06
92.4
113.55
124.02
126.29
122.64
114.34
102.4
88.84
77.1
71.08
72.96
81.61
92.49
99.07
95.62
79.43
51.65
16.32
-21.57
-58
-90.64
-118.44
-140.58
-155.91
-163.25
-162.43
-155.05
-144.35
-134.24
-127.81
-126.41
-129.45
-135.04
-140.95
-145.28
-146.76
-144.53
-137.99
-126.64
-110.21
-88.91
-63.61
-35.94
-8.29
16.43
35.26
45.83
47.22
40.37
28.13
14.49
3.43
-2.31
-1.96
3.37
11.45
19.97
27.34
32.81
36.23
37.6
36.81
33.65
27.86
19.45
8.65
-4.08
-18.27
-33.44
-49.07
-64.32
-77.81
-87.66
-92.1
-90.32
-83.26
-73.82
-65.61
-61.14
-60.06
-58.75
-51.85
-35.21
-8.52
23.99
55.27
78.83
91.57
94.45
90.94
83.96
73.92
58.79
36.4
7.13
-24.82
-52.55
-69.66
-73.57
-67.05
-56.99
-50.97
-53.67
-64.89
-80.06
-92.86
-98.16
-93.69
-80.02
-58.98
-32.25
-0.9
34.03
70.56
105.41
134.6
154.81
164.6
164.82
157.94
146.83
133.81
120.08
106
91.58
77.06
63.07
50.49
40
31.67
24.9
18.65
11.98
4.58
-2.99
-9.61
-14.18
-16.35
-16.76
-16.92
-18.56
-22.9
-30.11
-39.27
-48.67
-56.35
-60.68
-60.87
-57.17
-50.8
-43.55
-37.06
-32.18
-28.82
-25.97
-22.37
-16.97
-9.33
0.14
10.39
19.81
26.64
29.37
27.08
19.71
8.03
-6.54
-22.26
-37.43
-50.44
-59.8
-64.17
-62.66
-55.11
-42.44
-26.39
-9.11
7.46
21.96
33.64
42.16
47.52
50.13
50.95
51.29
52.27
53.87
54.06
49
34.38
7.74
-29.48
-71.65
-110.36
-137.09
-145.91
-134.97
-106.66
-66.52
-21.77
20.37
54.09
76.21
86.79
88.79
86.76
84.72
84.22
83.69
79.37
67.45
46.49
18.61
-10.77
-34.41
-45.63
-40.46
-18.93
14.86
54.05
91.04
119.46
135.32
137.15
125.45
102.14
70.28
34
-1.83
-32.51
-54.58
-66.92
-70.8
-69.06
-64.7
-59.66
-54.35
-48.26
-40.84
-32.34
-23.82
-16.82
-12.68
-12.13
-15.11
-20.85
-28.06
-35.07
-40.12
-41.83
-39.62
-33.86
-25.79
-17.06
-9.17
-3.01
1.18
3.69
5.15
6.4
8.3
11.53
16.41
22.53
28.77
33.6
35.6
34.03
29.05
21.47
12.3
2.3
-8.17
-18.88
-29.43
-38.93
-46.02
-49.17
-47.22
-39.77
-27.55
-12.51
2.41
13.78
18.38
14.16
0.94
-19.28
-42.65
-64.31
-79.68
-85.53
-80.65
-66.04
-44.47
-19.72
4.26
24.16
37.79
44.32
44.14
38.42
28.71
16.6
3.58
-8.96
-19.67
-27.3
-30.92
-30.24
-25.87
-19.26
-12.3
-6.76
-3.65
-2.91
-3.63
-4.49
-4.47
-3.23
-1.07
1.39
3.62
5.42
6.81
7.73
7.87
6.82
4.46
1.3
-1.5
-2.7
-1.59
1.44
4.99
7.28
7.05
4.16
-0.22
-4.1
-5.49
-3.27
2.38
10.03
17.57
23.02
25.32
24.62
22.03
19
16.63
15.33
14.89
14.86
14.98
15.3
16.06
17.33
18.85
20.02
20.2
19.04
16.53
13.01
8.84
4.26
-0.69
-6.01
-11.62
-17.24
-22.31
-26.13
-28.07
-27.77
-25.31
-21.28
-16.62
-12.38
-9.38
-7.99
-8.15
-9.46
-11.54
-14.14
-17.2
-20.7
-24.45
-28.03
-30.85
-32.44
-32.54
-31.25
-28.84
-25.66
-22.02
-18.17
-14.38
-11
-8.51
-7.38
-7.92
-9.99
-12.97
-15.81
-17.42
-17.2
-15.29
-12.62
-10.46
-9.82
-10.96
-13.21
-15.35
-16.21
-15.18
-12.53
-9.15
-6.15
-4.31
-3.8
-4.25
-5
-5.46
-5.33
-4.59
-3.31
-1.38
1.49
5.63
11.23
18.04
25.47
32.67
38.86
43.53
46.64
48.55
49.8
50.87
51.98
52.99
53.57
53.46
52.77
51.94
51.44
51.38
51.14
49.53
45.26
37.71
27.45
16.15
5.96
-1.37
-5.3
-6.5
-6.51
-6.84
-8.38
-11.13
-14.49
-17.73
-20.44
-22.61
-24.48
-26.24
-27.8
-28.81
-28.86
-27.72
-25.49
-22.52
-19.32
-16.25
-13.52
-11.18
-9.35
-8.31
-8.53
-10.48
-14.35
-19.89
-26.44
-33.07
-38.85
-42.99
-44.9
-44.3
-41.38
-36.97
-32.61
-30.11
-30.91
-35.33
-42.36
-49.95
-55.93
-58.84
-58.51
-55.81
-52.12
-48.57
-45.62
-43.11
-40.37
-36.62
-31.06
-23.01
-12.07
1.72
17.75
34.89
51.78
67.19
80.43
91.37
100.39
108.03
114.61
119.98
123.4
123.61
119.22
109.14
93.08
71.84
47.27
21.87
-1.75
-21.48
-36.03
-45.09
-49.21
-49.64
-48
-45.82
-44.13
-42.96
-41.38
-38
-31.88
-23.17
-13.34
-4.49
1.78
5.16
6.71
7.98
9.92
12.11
13.17
11.82
8.07
3.55
0.77
1.74
6.7
13.94
20.61
24.14
23.4
18.95
12.46
5.67
-0.41
-5.79
-11.03
-16.72
-22.99
-29.47
-35.43
-40.1
-42.88
-43.53
-42.15
-39.3
-35.89
-33.01
-31.58
-31.97
-33.73
-35.73
-36.56
-35.12
-30.97
-24.31
-15.75
-5.84
5.13
17.12
29.98
43.2
55.76
66.26
73.35
76.09
74.38
68.99
61.41
53.36
46.14
40.27
35.42
30.78
25.63
19.8
13.73
8.13
3.47
-0.49
-4.63
-10.06
-17.46
-26.65
-36.52
-45.53
-52.33
-56.42
-58.32
-59.33
-60.93
-64.09
-68.83
-74.19
-78.7
-80.87
-79.72
-74.96
-66.94
-56.5
-44.79
-33.11
-22.73
-14.65
-9.31
-6.29
-4.23
-1.18
4.78
14.7
28.28
43.85
58.98
71.43
79.86
84.22
85.42
84.61
82.52
79.12
73.81
66
55.68
43.69
31.48
20.48
11.45
4.19
-2.48
-10.01
-19.36
-30.29
-41.2
-49.52
-52.71
-49.23
-39.22
-24.62
-8.71
4.75
12.53
12.8
5.63
-7.02
-21.87
-35.22
-44
-46.47
-42.5
-33.18
-20.26
-5.48
9.66
23.85
35.75
43.92
47.12
44.71
36.98
25.26
11.59
-1.75
-12.71
-19.89
-22.66
-21.28
-16.86
-11.19
-6.26
-3.68
-4.03
-6.61
-9.71
-11.3
-9.99
-5.66
0.46
6.33
9.99
10.36
7.68
3.36
-0.64
-2.55
-1.44
2.59
8.62
15.33
21.6
26.75
30.53
32.92
33.92
33.58
32.04
29.71
27.18
24.92
23.07
21.34
19.22
16.42
13.2
10.37
8.83
9.06
10.64
12.35
12.42
9.21
1.69
-10.14
-25.07
-40.72
-54.01
-61.86
-62.24
-54.91
-41.65
-25.59
-10.1
2.52
11.58
17.71
22.02
25.17
27.04
27.02
24.72
20.45
15.16
9.91
5.38
1.65
-1.37
-3.36
-3.35
0.04
7.7
19.3
32.94
45.58
54.05
56.1
50.93
39.22
22.66
3.37
-16.46
-34.71
-49.41
-58.85
-61.77
-57.66
-46.99
-31.26
-12.89
5.18
20.02
29.35
32.08
28.56
20.44
10.23
0.43
-7.05
-11.29
-12.22
-10.29
-6.02
0.1
7.52
15.29
22.04
26.33
27.16
24.47
19.16
12.6
5.97
-0.33
-6.58
-13.28
-20.5
-27.58
-33.33
-36.6
-36.74
-33.82
-28.47
-21.55
-14.05
-7.04
-1.77
0.59
-0.57
-4.88
-10.85
-16.3
-19.22
-18.44
-13.86
-6.08
3.93
15.13
26.22
35.56
41.4
42.49
38.73
31.47
23.01
15.6
10.42
7.25
4.82
1.81
-2.35
-7.12
-11.23
-13.25
-12.29
-8.3
-2.13
4.74
10.65
14.21
14.86
12.9
9.39
5.59
2.43
0.16
-1.62
-3.54
-6.04
-9.05
-12.12
-14.67
-16.35
-17.18
-17.39
-17.13
-16.31
-14.68
-12.08
-8.71
-5.14
-2.12
-0.18
0.54
0.37
-0.15
-0.45
-0.21
0.69
2.17
4.06
6.17
8.38
10.56
12.63
14.5
16.01
16.93
16.97
15.98
13.95
11.14
7.87
4.46
1.14
-2
-4.86
-7.32
-9.04
-9.73
-9.14
-7.35
-4.69
-1.78
0.72
2.28
2.58
1.69
-0.04
-2.03
-3.55
-3.95
-2.76
0.1
4.25
8.85
12.88
15.44
16.04
14.73
11.91
7.98
3.04
-3.14
-10.92
-20.29
-30.55
-40.36
-48.15
-52.76
-53.9
-52.25
-49.05
-45.58
-42.69
-40.6
-39.06
-37.73
-36.38
-35
-33.65
-32.24
-30.46
-27.8
-23.75
-18.07
-10.88
-2.65
5.89
14.01
20.99
26.23
29.25
29.69
27.45
22.94
17.02
11.01
6.28
3.93
4.39
7.21
10.99
13.74
13.58
9.51
1.88
-7.64
-16.8
-23.59
-26.98
-27
-24.28
-19.45
-12.85
-4.77
4.18
12.81
19.7
23.81
25.2
25.05
25.17
27
31.05
36.56
41.89
45.23
45.35
42.12
36.7
31.19
28.04
29.23
35.56
46.3
59.26
71.34
79.37
81
75.27
62.74
45.23
25.2
5.07
-13.44
-29.77
-44.51
-59.07
-75.17
-94.31
-117.37
-144.19
-173.49
-203.02
-230.19
-252.78
-269.43
-279.68
-283.42
-280.2
-269.06
-248.93
-219.6
-182.48
-140.6
-97.84
-57.51
-21.25
11.1
40.98
70.21
100.19
131.35
162.93
192.92
218.52
237.11
247.23
249.27
245.19
237.48
227.82
216.45
202.64
185.84
166.82
147.72
131.19
118.86
110.48
104.02
96.75
86.55
72.83
56.5
39.49
24.02
11.77
3.43
-1.19
-2.93
-2.68
-0.78
3.18
10.12
20.78
34.99
51.31
67.31
80.44
88.95
92.35
91.21
86.42
78.58
67.86
54.47
39.19
23.71
10.36
1.36
-2.03
0.02
5.88
12.98
18.62
20.75
18.44
12.03
2.81
-7.66
-18.1
-28.02
-37.41
-46.21
-53.56
-57.5
-55.53
-45.7
-27.77
-3.71
22.7
47.32
67.08
80.89
89.34
93.44
93.32
87.95
76.26
59.07
40.16
25.48
20.35
26.5
40.57
55.49
63.77
60.79
45.91
21.37
-9.8
-44.89
-80.77
-112.46
-133.02
-135.87
-118.84
-87.23
-53.44
-32.61
-36.37
-67.96
-120.89
-181.76
-235.36
-269.68
-279.05
-264.68
-233.39
-195.06
-159.87
-135.43
-124.57
-124.37
-127.24
-124.06
-108.35
-79.53
-43.63
-10.59
10.11
13.65
1.44
-20.25
-43.55
-62
-72.06
-72.5
-63.3
-44.82
-18.02
14.94
50.55
84.79
114.71
139.36
159.75
177.46
193.22
206.11
213.99
214.64
207.01
191.64
170.43
145.79
119.93
94.53
70.75
49.38
30.85
15.16
1.72
-10.56
-22.82
-35.77
-49.51
-63.54
-77.25
-90.15
-102.14
-113.43
-124.23
-134.45
-143.45
-150.01
-152.58
-149.84
-141.23
-127.43
-110.24
-92
-74.88
-60.27
-48.62
-39.71
-33.09
-28.23
-24.56
-21.36
-17.76
-12.99
-6.7
0.83
8.77
16.01
21.49
24.49
24.62
21.82
16.25
8.38
-0.94
-10.47
-18.75
-24.54
-27.08
-26.46
-23.46
-19.27
-15.15
-12.06
-10.42
-10.11
-10.66
-11.38
-11.67
-11.24
-10.08
-8.47
-6.76
-5.29
-4.42
-4.56
-6.22
-9.9
-15.73
-23.15
-30.85
-37.08
-40.35
-40.12
-37.11
-32.95
-29.35
-27.29
-26.41
-25.28
-22.19
-16.11
-7.32
2.87
12.82
21.53
28.89
35.48
41.87
48.31
54.95
62.27
71.5
84.19
101.19
121.46
141.68
157.13
163.48
158.67
143.72
122.3
99.12
78.28
62.12
51.17
44.67
41.38
40.25
40.23
40.05
37.76
31.03
18.19
-0.44
-21.91
-41.22
-53.08
-54.2
-44.62
-27.43
-6.97
13.33
31.97
48.87
63.76
75
79.59
74.73
59.52
35.83
7.63
-20.93
-47.25
-71.03
-93.54
-116.12
-138.77
-159.78
-176.45
-186.38
-188.67
-184.38
-176.07
-166.81
-159.27
-154.84
-153.7
-155.25
-158.61
-163.14
-168.44
-174.32
-180.62
-187.09
-193.13
-197.53
-198.27
-192.47
-176.78
-148.19
-105.15
-48.6
17.52
86.65
150.76
202.07
234.75
246.19
237.48
212.81
178.46
141.56
108.82
85.28
73.44
72.82
80.57
92.54
104.55
113.63
118.7
120.45
120.59
120.68
121.26
122.21
123.11
123.5
123.35
123.18
123.94
126.55
131.16
136.53
141.06
143.39
142.41
137.66
129.57
119.57
110.25
104.9
106.58
117.66
138.05
163.2
184.55
191.68
176.53
139.59
91.43
43.77
4.04
-23.72
-41.13
-53.86
-68.41
-89.06
-116.4
-148.09
-180.22
-207.98
-226.81
-234.22
-230.42
-218.3
-202.3
-186.66
-174.06
-165.02
-157.79
-149.74
-139.66
-128.45
-118.52
-112.12
-109.9
-110.53
-111.52
-110.07
-104.23
-93.65
-79.11
-61.66
-41.83
-19.75
4.27
28.88
51.71
70.04
81.67
85.95
84.1
78.74
72.76
68.1
65.13
62.89
59.85
54.76
47.15
37.46
26.58
15.53
5.28
-3.31
-9.43
-12.35
-11.86
-8.56
-3.97
-0.12
1.18
-0.91
-5.98
-12.58
-18.89
-23.51
-25.69
-25.49
-23.33
-19.72
-15.1
-9.74
-3.92
2.07
7.89
13.21
17.81
21.49
24.02
24.94
23.59
19.2
11.13
-0.78
-15.95
-33.01
-50.08
-65.41
-77.93
-87.68
-95.55
-102.68
-109.67
-116.21
-121.34
-124.07
-123.96
-121.29
-116.66
-110.42
-102.47
-92.49
-80.47
-67.15
-53.88
-41.97
-31.95
-23.18
-14.09
-2.88
11.65
29.61
50.03
71.14
91.06
108.28
122.12
132.84
141.41
148.9
155.7
161.04
163.12
159.93
150.46
135.75
118.95
104.47
96.41
96.92
105.29
118.07
130.26
136.93
134.73
122.63
101.9
75.3
46.11
17.2
-9.41
-32.81
-53.13
-71.5
-89.62
-109.06
-130.17
-151.07
-167.53
-174.12
-166.4
-143.07
-107
-64.37
-22.57
12.43
37.78
54.12
64.35
71.83
78.79
85.87
92.57
98.16
102.15
104.28
104.04
100.6
93.35
82.77
71.07
61.71
58
61.37
70.46
81.56
90.28
93.28
89.09
77.69
59.63
35.63
6.83
-24.45
-54.67
-79.9
-97.22
-105.96
-107.8
-105.78
-102.92
-101.19
-101.13
-102.28
-103.8
-104.87
-104.73
-102.53
-97.25
-88.01
-74.81
-58.91
-42.74
-28.92
-19.05
-12.83
-8.33
-3.15
3.99
12.29
19.16
21.54
17.53
7.48
-6.2
-20.14
-31.38
-38.19
-40.21
-37.92
-32.21
-24.04
-14.37
-4.19
5.44
13.47
19.13
22.01
22.35
20.85
18.59
16.62
15.53
15.27
15.2
14.46
12.41
8.98
4.61
-0.04
-4.45
-8.45
-12.14
-15.67
-19.04
-22.04
-24.31
-25.55
-25.63
-24.6
-22.59
-19.84
-16.52
-12.83
-9
-5.23
-1.63
1.8
5.26
9.11
13.64
18.95
24.74
30.35
34.88
37.54
37.88
35.93
32
26.5
19.61
11.26
1.32
-10
-21.89
-32.96
-41.63
-46.7
-47.83
-45.69
-41.57
-36.77
-32.1
-27.65
-23.04
-17.84
-12.05
-6.05
-0.41
4.56
8.99
13.36
18.05
23.11
28.13
32.5
35.9
38.45
40.69
43.12
45.86
48.42
49.99
49.81
47.62
43.67
38.56
32.84
26.84
20.63
14.27
7.93
2.03
-2.99
-6.85
-9.67
-11.83
-13.74
-15.51
-16.8
-16.92
-15.1
-10.93
-4.47
3.74
12.94
22.38
31.46
39.74
46.9
52.64
56.71
59
59.64
58.95
57.44
55.61
53.83
52.32
51.02
49.75
48.22
46.26
43.92
41.51
39.47
38.06
37.19
36.36
34.89
32.32
28.57
23.98
18.88
13.3
6.82
-1.13
-10.77
-21.64
-32.66
-42.64
-50.95
-57.79
-64.04
-70.54
-77.48
-84.05
-88.77
-90.23
-87.67
-81.24
-71.74
-60.11
-47.08
-33.21
-19.34
-6.72
3.2
9.35
11.87
12.17
12.41
14.39
18.6
23.99
28.61
30.75
29.77
26.39
22.03
18.05
15.26
13.97
14.33
16.75
21.78
29.82
40.69
53.51
66.92
79.4
89.76
97.46
102.78
106.72
110.64
115.72
122.26
129.35
135.04
137
133.64
124.89
112.29
98.35
85.33
74.42
65.48
57.55
49.65
41.33
32.57
23.37
13.28
1.52
-12.6
-29.07
-46.91
-64.35
-79.49
-90.85
-97.76
-100.3
-99.11
-95.13
-89.46
-83.26
-77.54
-72.97
-69.62
-67.11
-64.81
-62.29
-59.54
-56.99
-55.22
-54.61
-55.07
-56.05
-56.7
-56.19
-54.04
-50.27
-45.32
-39.92
-34.88
-30.93
-28.5
-27.72
-28.43
-30.23
-32.72
-35.63
-38.91
-42.72
-47.21
-52.38
-58.01
-63.7
-69.07
-73.89
-78.07
-81.55
-84.09
-85.34
-84.85
-82.39
-77.98
-71.96
-64.88
-57.25
-49.56
-42.11
-35.14
-28.68
-22.59
-16.47
-9.69
-1.68
7.94
19.11
31.32
43.74
55.39
65.3
72.61
76.71
77.34
74.75
69.57
62.76
55.34
48.2
41.99
37.16
33.97
32.59
33.04
35.07
38.14
41.37
43.7
44.2
42.22
37.61
30.7
22.33
13.47
5
-2.49
-8.79
-13.91
-17.89
-20.78
-22.63
-23.67
-24.38
-25.4
-27.26
-30.1
-33.55
-36.9
-39.35
-40.35
-39.82
-38.07
-35.61
-32.93
-30.33
-27.88
-25.54
-23.19
-20.81
-18.51
-16.5
-15.09
-14.56
-15.04
-16.52
-18.71
-21.17
-23.3
-24.57
-24.67
-23.69
-22.12
-20.74
-20.22
-20.95
-22.83
-25.43
-28.22
-30.78
-32.87
-34.32
-34.81
-33.83
-30.82
-25.38
-17.62
-8.14
2.1
12.06
20.93
28.36
34.45
39.6
44.23
48.61
52.76
56.59
60.18
63.9
68.34
74.14
81.66
90.74
100.75
110.64
119.3
125.77
129.5
130.47
129.14
126.23
122.38
118.03
113.26
107.97
102.09
95.72
89.06
82.2
74.89
66.55
56.63
45.11
32.82
21.36
12.36
6.88
4.81
5.03
6.06
6.66
6.23
4.61
1.66
-2.95
-9.59
-18.03
-27.09
-34.7
-38.71
-37.92
-32.7
-24.86
-16.81
-10.5
-6.7
-5.09
-4.71
-4.71
-4.69
-4.69
-4.88
-5.22
-5.38
-4.82
-3.05
0.12
4.46
9.42
14.34
18.69
22.25
25.09
27.55
30.03
32.8
35.9
39.05
41.7
43.17
42.83
40.3
35.6
29.06
21.2
12.4
2.84
-7.53
-18.64
-30.15
-41.25
-50.88
-58.02
-62.04
-62.92
-61.17
-57.62
-53.12
-48.46
-44.29
-41.21
-39.76
-40.33
-42.93
-47.13
-52.12
-56.98
-61.06
-64.34
-67.35
-71
-76.01
-82.59
-90.27
-98.05
-104.81
-109.78
-112.71
-113.92
-114.15
-114.17
-114.53
-115.33
-116.2
-116.33
-114.73
-110.64
-103.71
-94.25
-83.06
-71.08
-58.99
-46.9
-34.38
-20.75
-5.54
11.24
28.94
46.53
62.99
77.56
90.08
100.88
110.66
120.13
129.7
139.08
147.11
151.83
150.89
142.22
124.85
99.36
67.95
33.98
1.1
-27.56
-49.98
-65.42
-74.28
-77.65
-76.95
-73.63
-68.96
-64.04
-59.72
-56.46
-54.31
-52.91
-51.61
-49.8
-47.18
-43.99
-40.96
-39.06
-39.1
-41.43
-45.75
-51.21
-56.62
-60.84
-63.03
-62.9
-60.71
-57.15
-53.08
-49.2
-45.86
-43.03
-40.37
-37.59
-34.65
-31.85
-29.78
-29.03
-29.87
-32.19
-35.45
-38.97
-42.17
-44.78
-46.87
-48.73
-50.68
-52.81
-55.01
-56.88
-57.9
-57.52
-55.34
-51.18
-45.13
-37.56
-28.96
-19.85
-10.64
-1.62
6.93
14.67
21.15
25.9
28.65
29.38
28.39
26.19
23.27
19.99
16.58
13.19
10
7.23
5.22
4.29
4.75
6.8
10.5
15.67
21.97
28.9
36
42.9
49.42
55.43
60.79
65.29
68.61
70.55
71.1
70.44
68.89
66.74
64.16
61.2
57.8
54.02
49.96
45.72
41.37
36.76
31.73
26.15
20.14
14.19
9
5.27
3.41
3.38
4.73
6.77
8.9
10.73
12.27
13.75
15.55
17.93
20.93
24.37
27.96
31.43
34.7
37.88
41.14
44.59
48.12
51.45
54.31
56.57
58.38
60.01
61.71
63.5
65.16
66.36
66.87
66.59
65.62
64.04
61.89
59.12
55.66
51.47
46.56
40.89
34.33
26.64
17.67
7.44
-3.65
-14.92
-25.5
-34.56
-41.51
-46.13
-48.6
-49.32
-48.82
-47.58
-45.91
-43.98
-41.8
-39.41
-36.88
-34.31
-31.79
-29.41
-27.19
-25.11
-23.16
-21.25
-19.3
-17.23
-14.99
-12.65
-10.38
-8.35
-6.69
-5.38
-4.29
-3.27
-2.25
-1.28
-0.49
0.05
0.32
0.45
0.54
0.65
0.75
0.72
0.48
0.01
-0.66
-1.48
-2.52
-3.88
-5.67
-7.81
-10.03
-11.86
-12.86
-12.73
-11.48
-9.31
-6.59
-3.66
-0.78
1.94
4.47
6.78
8.86
10.6
11.93
12.75
13.05
12.96
12.63
12.27
12.01
11.85
11.66
11.31
10.66
9.69
8.51
7.3
6.23
5.38
4.71
4.01
2.99
1.4
-0.82
-3.49
-6.21
-8.56
-10.29
-11.39
-12.15
-12.95
-14.06
-15.54
-17.28
-19.03
-20.51
-21.48
-21.74
-21.08
-19.33
-16.46
-12.61
-8.08
-3.33
1.2
5.25
8.72
11.67
14.22
16.45
18.36
19.95
21.2
22.14
22.82
23.26
23.51
23.58
23.54
23.5
23.57
23.8
24.21
24.76
25.39
26.05
26.71
27.28
27.67
27.79
27.63
27.3
27.01
26.95
27.19
27.57
27.71
27.18
25.66
23.05
19.45
15.13
10.37
5.4
0.4
-4.48
-9.05
-13.07
-16.38
-18.9
-20.72
-21.99
-22.94
-23.72
-24.43
-25.1
-25.78
-26.49
-27.26
-28.1
-28.97
-29.75
-30.35
-30.65
-30.61
-30.3
-29.78
-29.14
-28.4
-27.54
-26.52
-25.35
-24.08
-22.8
-21.66
-20.79
-20.23
-19.94
-19.81
-19.71
-19.55
-19.32
-19.1
-19.02
-19.23
-19.83
-20.83
-22.13
-23.57
-24.87
-25.69
-25.7
-24.59
-22.26
-18.81
-14.62
-10.2
-6.03
-2.48
0.37
2.58
4.36
5.87
7.16
8.24
9.06
9.61
9.98
10.26
10.56
10.9
11.21
11.42
11.5
11.49
11.51
11.66
11.93
12.17
12.14
11.62
10.55
9.05
7.43
5.98
4.86
4.05
3.37
2.6
1.58
0.22
-1.53
-3.68
-6.17
-8.85
-11.4
-13.36
-14.28
-13.88
-12.16
-9.42
-6.14
-2.8
0.21
2.68
4.56
5.9
6.81
7.39
7.67
7.69
7.45
7.05
6.6
6.29
6.25
6.51
6.97
7.43
7.69
7.66
7.42
7.16
7.06
7.18
7.45
7.63
7.53
7.02
6.13
5.09
4.17
3.56
3.28
3.12
2.72
1.73
-0.03
-2.54
-5.51
-8.52
-11.05
-12.65
-13
-12
-9.77
-6.66
-3.11
0.39
3.5
6.03
7.99
9.5
10.7
11.67
12.45
13.05
13.48
13.81
14.11
14.51
15
15.53
15.96
16.1
15.88
15.36
14.76
14.3
14.17
14.33
14.54
14.46
13.85
12.62
10.98
9.3
8.02
7.39
7.38
7.69
7.82
7.29
5.89
3.82
1.72
0.49
0.99
3.79
8.97
16.13
24.56
33.42
41.85
49.11
54.71
58.43
60.43
61.04
60.54
58.94
55.82
50.65
43.21
33.92
24.02
15.12
8.63
5.17
4.38
5.05
5.58
4.38
0.27
-7.31
-18.03
-30.63
-43.24
-53.95
-61.58
-66.1
-68.63
-70.8
-73.88
-78.3
-83.64
-89.12
-94.12
-98.45
-102.14
-104.97
-106.37
-105.5
-101.8
-95.37
-87.03
-77.98
-69.24
-61.28
-53.99
-46.9
-39.58
-31.87
-23.89
-15.94
-8.25
-0.99
5.72
11.71
16.72
20.43
22.62
23.28
22.61
21.01
18.94
16.78
14.67
12.53
10.12
7.2
3.65
-0.35
-4.43
-8.07
-10.86
-12.6
-13.39
-13.5
-13.25
-12.77
-11.97
-10.64
-8.56
-5.64
-1.96
2.32
7.05
12.18
17.75
23.79
30.2
36.69
42.83
48.18
52.42
55.41
57.18
57.9
57.72
56.8
55.24
53.06
50.18
46.44
41.52
34.99
26.27
14.78
0.1
-17.74
-38.13
-59.78
-80.93
-99.85
-115.29
-126.75
-134.42
-138.74
-139.92
-137.8
-132.16
-123.25
-112.21
-100.8
-90.72
-82.74
-76.14
-68.91
-58.66
-43.63
-23.5
0.6
26.66
52.71
77.39
100.22
121.15
140.1
156.54
169.55
178.21
182.13
181.77
178.23
172.77
166.25
158.88
150.48
141.06
131.21
122.16
115.24
111.32
110.38
111.51
113.37
114.69
114.68
113.03
109.74
104.9
98.49
90.38
80.42
68.48
54.57
38.82
21.51
3.09
-15.81
-34.41
-51.81
-67.13
-79.62
-88.78
-94.5
-96.99
-96.78
-94.64
-91.49
-88.29
-85.92
-84.96
-85.55
-87.39
-89.83
-92.13
-93.67
-94.05
-93.08
-90.7
-86.91
-81.84
-75.75
-69.13
-62.57
-56.62
-51.58
-47.37
-43.63
-39.88
-35.81
-31.44
-27.08
-23.17
-20.07
-17.87
-16.37
-15.16
-13.79
-11.88
-9.21
-5.69
-1.4
3.41
8.37
13.07
17.19
20.58
23.32
25.65
27.86
30.13
32.49
34.79
36.87
38.56
39.8
40.58
40.86
40.59
39.69
38.25
36.59
35.33
35.23
36.94
40.67
46.03
52.08
57.64
61.71
63.75
63.86
62.54
60.39
57.79
54.69
50.74
45.58
39.14
31.76
24.2
17.23
11.4
6.89
3.46
0.75
-1.63
-3.84
-5.87
-7.45
-8.15
-7.38
-4.51
0.9
8.89
18.92
29.97
40.69
49.93
57.02
61.94
65.16
67.34
68.95
70.05
70.24
68.85
65.17
58.78
49.74
38.69
26.72
15.09
4.9
-3.16
-8.96
-12.84
-15.33
-17.03
-18.35
-19.54
-20.67
-21.72
-22.59
-23.15
-23.22
-22.69
-21.55
-19.99
-18.4
-17.3
-17.24
-18.58
-21.34
-25.1
-29.01
-32.01
-33.2
-32.15
-29.13
-24.94
-20.65
-17.12
-14.69
-13.17
-12.02
-10.68
-8.88
-6.74
-4.64
-3.09
-2.47
-2.91
-4.25
-6.05
-7.71
-8.64
-8.41
-6.96
-4.66
-2.18
-0.39
0.03
-1.12
-3.43
-5.9
-7.35
-6.9
-4.46
-0.85
2.5
4.14
3.15
-0.57
-6.37
-13.28
-20.46
-27.43
-34.05
-40.42
-46.57
-52.51
-58.22
-63.76
-69.23
-74.7
-80.12
-85.19
-89.46
-92.49
-94.01
-94.14
-93.34
-92.27
-91.54
-91.42
-91.73
-91.91
-91.26
-89.24
-85.67
-80.79
-75.15
-69.43
-64.2
-59.73
-55.94
-52.37
-48.42
-43.62
-37.84
-31.44
-25.24
-20.23
-17.18
-16.43
-17.68
-20.14
-22.81
-24.81
-25.67
-25.48
-24.76
-24.29
-24.78
-26.65
-29.79
-33.54
-36.73
-37.98
-36.08
-30.38
-20.96
-8.63
5.41
19.97
34.07
47.17
59.02
69.62
79
87.16
93.93
99.02
102.11
103.07
102.29
100.69
99.56
100
102.27
105.49
107.89
107.58
103.44
95.5
84.91
73.17
61.4
49.9
38.3
25.99
12.67
-1.3
-15.03
-27.37
-37.34
-44.26
-47.97
-48.65
-46.7
-42.66
-37.01
-30.08
-21.93
-12.59
-2.25
8.47
18.54
26.77
32.24
34.71
34.59
32.69
29.69
25.9
21.28
15.76
9.59
3.5
-1.47
-4.31
-4.48
-2.07
2.24
7.33
12.06
15.48
17.18
17.27
16.27
14.79
13.27
11.89
10.73
10
10.13
11.52
14.11
17.08
18.84
17.6
12.01
1.74
-12.48
-29.13
-46.64
-63.5
-78.12
-88.11
-90.24
-81.05
-58.48
-23.55
18.97
61.69
97.03
119.83
128.61
124.98
111.9
92.05
67.43
40.38
14.78
-4.02
-11.07
-4.66
11.75
30.11
40.99
37.92
20.42
-5.83
-31.91
-50.13
-57.53
-56.72
-53.85
-54.99
-62.98
-76.36
-90.7
-101.21
-105.13
-102.72
-96.4
-89.12
-82.71
-77.32
-71.87
-65.13
-56.5
-46.27
-35.38
-24.79
-15.03
-6
2.86
12.19
22.36
33.16
43.84
53.39
60.81
65.43
66.95
65.34
60.65
52.93
42.5
30.29
18.02
7.93
1.99
0.93
3.67
7.67
9.97
8.42
2.69
-5.82
-14.64
-21.43
-24.71
-24.11
-19.95
-12.62
-2.19
11.54
28.35
46.96
64.7
78.01
83.55
79.44
66.18
46.52
24.49
3.86
-13.09
-26.06
-36.09
-44.5
-51.79
-57.24
-59.38
-56.81
-49.05
-36.85
-21.84
-6.03
8.81
21.35
30.59
35.44
34.69
27.25
12.78
-7.59
-31.15
-54.08
-72.55
-83.91
-87.42
-84.13
-76.22
-66.03
-55.29
-44.96
-35.41
-26.77
-19.2
-12.82
-7.59
-3.1
1.25
6.06
11.58
17.52
23.15
27.56
30.01
30.18
28.27
24.87
20.77
16.65
12.99
10.03
7.82
6.25
5.11
4.11
2.95
1.36
-0.79
-3.59
-7.06
-11.25
-15.98
-20.65
-24.08
-24.79
-21.54
-14.16
-4.07
5.85
12.13
12
4.45
-9.26
-26.18
-42.63
-55.3
-61.94
-61.39
-53.61
-39.68
-22.06
-4.31
9.61
16.86
17
12.46
7.78
7.74
15.54
31.49
53.1
76.18
96.38
110.59
117.56
117.82
113
104.91
94.68
82.55
68.01
50.72
31.22
11.31
-6.58
-20.27
-28.81
-32.72
-33.48
-32.47
-30.29
-26.5
-20.4
-11.95
-2.47
5.62
9.88
9.32
5.14
0.37
-1.58
1.29
8.56
17.61
24.93
27.71
24.89
17.26
6.88
-3.79
-12.67
-18.49
-20.89
-20.44
-18.37
-16.17
-15.13
-16.01
-18.9
-23.42
-28.98
-34.95
-40.7
-45.56
-48.89
-50.05
-48.6
-44.29
-37.21
-27.87
-17.37
-7.27
0.77
5.58
6.91
5.44
2.42
-0.95
-4.02
-6.71
-9.19
-11.44
-13.05
-13.45
-12.3
-9.81
-6.74
-4.09
-2.71
-2.95
-4.64
-7.26
-10.24
-13.22
-16.12
-19.04
-22.08
-25.05
-27.24
-27.59
-24.93
-18.62
-9.04
2.33
13.34
21.98
27.14
28.97
28.55
27.34
26.6
27.03
28.83
31.72
35.07
37.93
39.32
38.62
36
32.51
29.65
28.5
29.13
30.55
31.31
30.46
27.96
24.57
21.15
18.09
15.13
11.86
8.28
5.17
3.79
5.15
9.4
15.52
21.68
25.85
26.57
23.45
17.2
9.44
2.14
-2.92
-4.72
-3.27
0.34
4.36
6.9
6.55
2.67
-4.53
-14.19
-25.09
-35.87
-45.33
-52.49
-56.86
-58.41
-57.55
-54.95
-51.44
-47.91
-45.33
-44.69
-46.64
-51.12
-56.91
-61.74
-62.87
-58.22
-47.23
-31.29
-13.3
3.4
16.19
23.84
26.57
25.5
22.02
17.25
12.05
7.15
3.32
1.34
1.69
4.24
8.06
11.77
13.88
13.5
10.59
5.98
0.94
-3.32
-6.04
-7.2
-7.28
-6.95
-6.71
-6.65
-6.38
-5.27
-2.75
1.41
7.06
13.78
21.06
28.49
35.77
42.67
48.99
54.54
59.17
62.92
66.03
68.81
71.52
74.25
76.83
78.88
79.88
79.27
76.6
71.81
65.29
57.95
50.86
44.79
39.8
35.07
29.26
21.26
10.87
-1.04
-12.89
-23.23
-31.65
-38.87
-46.43
-55.75
-67.27
-80.05
-92.12
-101.08
-104.75
-101.88
-92.27
-77.13
-59.44
-43.73
-35.09
-37.44
-51.76
-75.3
-102.23
-125.47
-139.03
-139.82
-128.52
-109.12
-87.48
-69.54
-59.64
-59.42
-67.52
-80.26
-93.06
-101.98
-105.08
-102.7
-96.89
-90.28
-84.84
-81.35
-79.35
-77.55
-74.17
-67.66
-57.06
-42.07
-23.07
-0.89
23.16
47.24
69.16
86.77
98.7
105.03
107.49
108.66
110.75
114.4
118.18
119.35
115.31
105.1
90.17
73.84
59.83
50.4
45.37
42.31
38.15
31.05
21.55
12.31
6.48
5.97
10.35
17.35
24.17
29.07
31.84
33.17
33.52
32.22
27.92
19.76
8.55
-3.15
-11.96
-15.42
-13.24
-7.23
-0.34
4.94
7.46
7.56
6.24
4.17
1.25
-3.4
-10.96
-22.51
-38.69
-59.55
-84.36
-111.53
-138.75
-163.47
-183.49
-197.33
-204.23
-203.73
-195.4
-178.86
-154.15
-122.18
-84.72
-44.11
-2.73
37.16
73.43
103.96
126.84
141.06
146.96
146.42
142.01
135.94
129.11
120.99
110.34
96.32
79.29
60.78
42.95
27.63
15.68
6.82
0.04
-5.74
-11.18
-16.33
-20.91
-24.55
-27.03
-27.99
-26.71
-21.92
-12.23
3
22.99
45.22
66.25
82.87
93.4
98.22
99.25
98.83
98.39
97.85
95.67
89.83
79
63.42
45.12
27.29
13.15
4.86
2.87
6.14
12.75
20.85
29.2
37.3
45.23
53.23
61.32
69.17
76.16
81.7
85.47
87.52
88.24
87.93
86.58
83.73
78.81
71.62
62.7
53.32
44.92
38.48
33.9
30.07
25.35
18.45
9.09
-1.8
-12.35
-20.53
-24.99
-25.63
-23.61
-20.75
-18.59
-17.7
-17.4
-16.25
-12.75
-6.1
3.65
15.78
28.94
41.29
50.36
53.38
48.12
34.08
13.22
-10.39
-32.06
-48.43
-58.65
-64.12
-66.9
-68.01
-66.76
-61.54
-51.39
-37.4
-22.65
-10.99
-5.35
-6.52
-13.03
-22.09
-30.87
-37.69
-42.59
-46.94
-52.55
-60.62
-70.74
-80.78
-87.85
-89.6
-85.51
-77.35
-68.46
-62.27
-60.75
-63.75
-69.16
-73.89
-75.03
-70.73
-60.65
-45.92
-28.64
-11.1
4.89
18.46
29.57
38.58
45.69
50.61
52.82
51.99
48.53
43.64
39.03
36.27
36.11
38.3
41.73
45.08
47.46
48.83
49.88
51.67
54.87
59.41
64.36
68.48
70.86
71.35
70.58
69.38
68.16
66.54
63.6
58.65
52.03
45.42
41.3
41.9
48.02
58.51
70.69
81.36
87.75
88.13
81.86
69.06
50.46
27.4
1.96
-23.33
-45.85
-63.66
-75.92
-83.09
-86.49
-87.69
-87.89
-87.47
-85.99
-82.57
-76.53
-68.09
-58.66
-50.62
-46.37
-47.38
-53.48
-63.01
-73.62
-83.21
-90.46
-94.83
-96.2
-94.51
-89.99
-83.51
-76.72
-71.63
-69.66
-70.62
-72.33
-71.4
-64.79
-51.4
-32.8
-12.63
4.94
16.99
22.77
23.55
21.71
19.62
18.9
20.33
23.88
29.1
35.18
41.12
46.01
49.39
51.62
53.79
57.21
62.7
69.95
77.36
82.42
82.49
75.52
60.58
38.22
10.59
-18.8
-45.91
-67
-79.49
-82.34
-75.69
-60.22
-36.49
-5.3
31.22
68.79
101.48
123.84
133.58
133.12
128.52
126.06
128.38
132.54
131.18
116.4
83.97
35.52
-22.13
-79.84
-129.29
-164.98
-184.54
-188.26
-178.54
-159.48
-136.09
-112.8
-92.11
-73.75
-55.51
-35.08
-11.89
12.19
33.97
50.9
62.51
70.28
76.28
81.39
84.68
84.34
79.44
71.18
62.85
58.32
59.87
66.71
74.97
79.15
74.54
59.22
34.92
6.33
-20.84
-42.22
-56.26
-64.48
-70.2
-76.57
-85.01
-94.71
-103.11
-107.15
-104.42
-94.02
-76.81
-55.28
-32.83
-12.82
2.47
12.54
18.56
22.65
26.9
32.69
40.6
50.73
62.79
75.84
87.84
95.63
95.69
85.54
65.09
36.92
5.41
-25.1
-51.63
-73.07
-89.5
-101.21
-108.26
-110.82
-109.88
-107.56
-106.8
-110.08
-118.4
-130.72
-144.21
-155.4
-161.36
-160.81
-154.52
-145.04
-135.72
-129.29
-126.76
-126.82
-126.65
-122.99
-113.41
-96.76
-72.87
-42.14
-5.45
35.37
77.04
114.95
144.69
163.92
173.92
179.42
186.51
199.63
219.53
243.08
264.91
279.93
284.77
277.94
258.9
227.25
182.99
127.77
66.01
4.81
-47.81
-85.7
-107.1
-115.05
-116.06
-117.06
-122.64
-133.17
-145.34
-153.94
-154.24
-143.94
-123.49
-95.4
-62.84
-28.58
5.38
37.24
64.85
85.35
95.7
94.32
82.5
64.7
47.39
36.97
37.74
50.85
74.45
104.78
137.67
169.53
197.84
220.86
236.96
244.4
241.52
227.66
203.76
172.72
138.55
104.81
73.32
43.62
13.97
-16.53
-46.4
-71.87
-88.97
-96.64
-98.21
-99.9
-107.45
-122.38
-140.4
-153.64
-155.1
-142.96
-122.13
-102.1
-92.36
-98.34
-119.57
-150.86
-185.08
-215.93
-239.17
-252.68
-255.83
-249.01
-233.68
-212.07
-186.77
-160.37
-135.07
-112.65
-94.39
-80.45
-68.95
-55.44
-34.05
-0.59
44.12
92.77
133.62
155.35
152.2
126.51
87.25
45.46
9.85
-15.31
-29.16
-32.12
-24.29
-5.77
21.82
54.28
