-56.37
-63.53
-69.53
-73.97
-76.63
-77.44
-76.36
-73.28
-68.11
-60.83
-51.74
-41.41
-30.68
-20.43
-11.34
-3.75
2.49
7.84
12.92
18.24
24.06
30.34
36.82
43.22
49.34
55.03
60.24
64.9
68.92
72.16
74.42
75.36
74.64
71.88
66.86
59.69
50.73
40.59
29.91
19.18
8.67
-1.52
-11.31
-20.48
-28.66
-35.4
-40.27
-43.13
-44.11
-43.66
-42.43
-41.15
-40.44
-40.75
-42.27
-44.99
-48.67
-52.84
-56.79
-59.61
-60.41
-58.52
-53.71
-46.38
-37.36
-27.67
-18.17
-9.25
-0.82
7.43
15.75
24.02
31.68
38.05
42.51
44.85
45.19
43.99
41.73
38.77
35.34
31.57
27.72
24.13
21.22
19.29
18.42
18.47
19.07
19.84
20.46
20.75
20.67
20.25
19.53
18.54
17.28
15.72
13.89
11.86
9.79
7.88
6.38
5.47
5.17
5.34
5.63
5.59
4.83
3.17
0.62
-2.65
-6.47
-10.71
-15.32
-20.3
-25.53
-30.78
-35.7
-39.94
-43.29
-45.71
-47.32
-48.35
-49.08
-49.79
-50.7
-52
-53.68
-55.46
-56.86
-57.21
-55.87
-52.41
-46.81
-39.49
-31.13
-22.53
-14.34
-6.99
-0.7
4.47
8.57
11.64
13.8
15.13
15.8
15.94
15.72
15.27
14.71
14.16
13.78
13.68
13.96
14.59
15.48
16.43
17.2
17.52
17.2
16.16
14.44
12.25
9.85
7.55
5.59
4.04
2.85
1.81
0.72
-0.55
-2
-3.54
-4.99
-6.27
-7.37
-8.41
-9.64
-11.36
-13.82
-17.15
-21.28
-25.9
-30.48
-34.37
-36.9
-37.49
-35.8
-31.72
-25.46
-17.47
-8.43
0.87
9.61
17.11
22.78
26.22
27.22
25.75
22.03
16.46
9.58
1.99
-5.79
-13.43
-20.79
-27.83
-34.41
-40.12
-44.31
-46.16
-44.92
-40.09
-31.63
-19.97
-5.96
9.3
24.63
38.87
51.03
60.35
66.35
68.81
67.8
63.7
57.19
49.11
40.42
31.9
24.09
17.12
10.73
4.48
-2.15
-9.48
-17.58
-26.11
-34.36
-41.36
-46.13
-47.89
-46.37
-41.86
-35.18
-27.34
-19.32
-11.75
-4.89
1.29
6.97
12.23
17.04
21.27
24.85
27.82
30.31
32.43
34.18
35.41
35.8
35.07
33.16
30.28
26.88
23.46
20.43
17.91
15.86
14.12
12.54
11.1
9.9
9.07
8.72
8.87
9.38
9.96
10.15
9.38
6.98
2.46
-4.3
-12.99
-22.83
-32.86
-42.18
-50.21
-56.82
-62.19
-66.55
-69.89
-71.89
-71.85
-69.02
-62.86
-53.27
-40.73
-26.17
-10.71
4.56
18.84
31.74
43.13
53.01
61.4
68.26
73.42
76.73
78.04
77.28
74.5
69.75
63.16
54.91
45.33
34.93
24.34
14.23
5.12
-2.79
-9.64
-15.74
-21.37
-26.53
-30.89
-33.93
-35.19
-34.47
-31.89
-27.89
-23.05
-17.91
-12.95
-8.5
-4.78
-1.97
-0.27
0.08
-1.14
-4.09
-8.69
-14.7
-21.67
-29.09
-36.49
-43.52
-49.92
-55.51
-60.05
-63.21
-64.51
-63.4
-59.31
-52.01
-41.64
-28.91
-15.03
-1.42
10.5
19.68
25.51
27.96
27.46
24.84
21.09
17.21
13.9
11.5
10
9.16
8.68
8.34
8.08
7.87
7.74
7.8
8.18
9.08
10.6
12.69
15.08
17.33
19.03
20
20.4
20.65
21.26
22.59
24.67
27.25
29.88
32.13
33.73
34.71
35.27
35.77
36.52
37.67
39.12
40.52
41.37
41.19
39.69
36.9
33.21
29.28
25.82
23.42
22.28
22.24
22.8
23.32
23.23
22.21
20.19
17.33
13.85
9.93
5.65
1.12
-3.56
-8.15
-12.3
-15.63
-17.86
-18.88
-18.76
-17.79
-16.27
-14.57
-12.92
-11.46
-10.29
-9.56
-9.48
-10.3
-12.13
-14.81
-17.94
-21
-23.51
-25.27
-26.32
-26.79
-26.72
-25.94
-24.09
-20.84
-16.05
-9.78
-2.36
5.76
14.04
21.81
28.32
32.82
34.73
33.97
31.08
27.09
23.3
20.77
20.11
21.21
23.53
26.25
28.65
30.25
30.86
30.56
29.5
27.81
25.55
22.72
19.3
15.37
11.13
6.86
2.89
-0.45
-2.96
-4.52
-5.1
-4.81
-3.86
-2.65
-1.7
-1.53
-2.57
-4.92
-8.37
-12.43
-16.51
-20.08
-22.83
-24.62
-25.44
-25.32
-24.3
-22.43
-19.83
-16.75
-13.55
-10.62
-8.4
-7.23
-7.35
-8.82
-11.5
-15.13
-19.34
-23.73
-28.01
-31.97
-35.56
-38.79
-41.67
-44.11
-45.79
-46.2
-44.7
-40.78
-34.24
-25.35
-14.86
-3.83
6.72
16.03
23.7
29.7
34.15
37.24
39.14
40.02
40.08
39.55
38.68
37.66
36.57
35.41
34.1
32.61
30.93
29.1
27.18
25.21
23.28
21.46
19.85
18.53
17.51
16.68
15.88
14.88
13.46
11.49
8.93
5.84
2.3
-1.54
-5.51
-9.38
-12.88
-15.81
-18.09
-19.76
-20.97
-21.9
-22.7
-23.46
-24.29
-25.35
-26.84
-28.92
-31.64
-34.79
-37.93
-40.45
-41.71
-41.19
-38.61
-33.98
-27.58
-20.02
-12.03
-4.38
2.31
7.75
11.91
15
17.31
19.05
20.38
21.41
22.28
23.18
24.27
25.6
27.07
28.42
29.4
29.81
29.55
28.61
27.03
24.83
22.07
18.82
15.26
11.6
8.04
4.74
1.72
-1.11
-3.87
-6.7
-9.65
-12.67
-15.68
-18.55
-21.19
-23.48
-25.37
-26.78
-27.71
-28.21
-28.41
-28.5
-28.72
-29.31
-30.41
-32.11
-34.31
-36.73
-38.86
-40.07
-39.66
-37.09
-32.18
-25.18
-16.83
-8.12
0.01
6.88
12.19
16.01
18.58
20.14
20.85
20.74
19.87
18.38
16.51
14.54
12.7
11.12
9.74
8.49
7.28
6.11
5.03
4.08
3.32
2.78
2.48
2.48
2.87
3.69
4.93
6.49
8.22
9.9
11.34
12.4
13.03
13.2
12.95
12.28
11.17
9.55
7.41
4.81
1.92
-0.91
-3.36
-5.16
-6.18
-6.49
-6.27
-5.81
-5.51
-5.82
-7.08
-9.38
-12.46
-15.68
-18.25
-19.54
-19.31
-17.8
-15.56
-13.21
-11.2
-9.66
-8.53
-7.62
-6.73
-5.64
-4.14
-2.05
0.72
4.17
8.12
12.32
16.53
20.56
24.31
27.73
30.75
33.32
35.37
36.86
37.78
38.19
38.11
37.52
36.37
34.57
31.99
28.57
24.27
19.14
13.31
6.97
0.37
-6.27
-12.78
-19.14
-25.35
-31.45
-37.39
-43.06
-48.29
-52.86
-56.57
-59.3
-61.01
-61.76
-61.78
-61.42
-60.98
-60.67
-60.41
-59.77
-58.15
-54.91
-49.68
-42.52
-33.89
-24.57
-15.27
-6.41
1.98
10.19
18.59
27.31
36.09
44.41
51.66
57.4
61.5
63.94
64.67
63.5
60.16
54.58
47.08
38.31
29.07
20.05
11.66
4.09
-2.52
-7.89
-11.66
-13.46
-13.14
-10.78
-6.7
-1.39
4.61
10.66
16.05
20.05
21.99
21.43
18.25
12.63
5.01
-4.03
-13.82
-23.55
-32.32
-39.14
-43.17
-43.82
-41.04
-35.3
-27.53
-18.89
-10.46
-3.06
2.9
7.36
10.47
12.47
13.61
14.08
14.08
13.79
13.37
12.97
12.71
12.59
12.5
12.37
12.13
11.76
11.3
10.67
9.73
8.3
6.26
3.7
0.97
-1.53
-3.44
-4.66
-5.28
-5.5
-5.46
-5.24
-4.92
-4.69
-4.88
-5.8
-7.61
-10.14
-12.93
-15.42
-17.12
-17.78
-17.32
-15.74
-12.98
-9
-3.94
1.83
7.58
12.49
15.89
17.45
17.33
16.08
14.38
12.75
11.46
10.41
9.4
8.21
6.75
5.18
3.72
2.63
2.04
1.98
2.3
2.88
3.6
4.36
5.11
5.71
6.01
5.87
5.2
4.08
2.68
1.27
0.12
-0.62
-0.9
-0.82
-0.58
-0.48
-0.79
-1.75
-3.45
-5.84
-8.74
-11.91
-15.14
-18.28
-21.36
-24.42
-27.48
-30.37
-32.68
-33.82
-33.19
-30.37
-25.28
-18.29
-10.08
-1.46
6.8
14.19
20.38
25.27
28.88
31.27
32.56
32.93
32.64
32.03
31.44
31.05
30.89
30.8
30.51
29.82
28.64
27.01
25.04
22.78
20.23
17.32
14.04
10.43
6.64
2.84
-0.82
-4.21
-7.24
-9.79
-11.75
-13.02
-13.6
-13.62
-13.3
-12.83
-12.29
-11.64
-10.73
-9.45
-7.78
-5.86
-3.94
-2.27
-1.04
-0.32
-0.13
-0.34
-0.76
-1.05
-0.83
0.27
2.42
5.54
9.25
13.05
16.41
18.97
20.57
21.24
21.09
20.25
18.83
16.99
14.92
12.86
11.02
9.56
8.48
7.67
6.9
5.93
4.53
2.55
-0.05
-3.18
-6.71
-10.46
-14.3
-18.18
-22.08
-25.96
-29.73
-33.26
-36.35
-38.82
-40.48
-41.22
-40.95
-39.66
-37.4
-34.4
-30.94
-27.35
-23.82
-20.35
-16.76
-12.73
-8.02
-2.53
3.67
10.3
17.01
23.38
29.06
33.77
37.34
39.74
41.13
41.76
41.91
41.76
41.28
40.32
38.68
36.32
33.49
30.6
28.15
26.52
25.74
25.5
25.3
24.61
23.18
21.14
18.99
17.41
16.95
17.82
19.71
21.99
23.94
25.01
24.96
23.82
21.71
18.69
14.64
9.32
2.5
-6.01
-16.37
-28.74
-43.26
-59.81
-77.77
-95.99
-112.82
-126.55
-135.83
-139.98
-138.9
-132.85
-122.07
-106.69
-86.93
-63.49
-37.91
-12.51
10.14
27.93
39.83
46.07
47.87
46.8
44.2
40.86
37.03
32.82
28.41
24.27
20.97
18.95
18.32
18.8
19.83
20.8
21.28
21.11
20.38
19.33
18.17
16.97
15.64
14.02
11.96
9.43
6.44
3.12
-0.44
-4.19
-8.1
-12.19
-16.45
-20.79
-25.01
-28.85
-32.01
-34.26
-35.53
-35.89
-35.51
-34.69
-33.67
-32.59
-31.5
-30.3
-28.7
-26.29
-22.63
-17.37
-10.51
-2.49
5.84
13.31
18.8
21.51
21.22
18.33
13.71
8.47
3.66
0.07
-1.87
-2.08
-0.69
2.06
5.93
10.63
15.92
21.51
27.01
32.09
36.46
39.92
42.42
43.97
44.6
44.35
43.2
41.06
37.78
33.28
27.51
20.58
12.74
4.41
-3.95
-11.83
-18.84
-24.66
-29.17
-32.4
-34.53
-35.88
-36.68
-36.98
-36.54
-34.89
-31.5
-26.16
-19.09
-10.99
-2.84
4.46
10.28
14.46
17.13
18.61
19.22
19.18
18.67
17.88
16.97
16.11
15.39
14.76
14.01
12.77
10.55
6.82
1.14
-6.75
-16.74
-28.34
-40.7
-52.72
-63.22
-71.21
-76.04
-77.42
-75.52
-70.82
-64.01
-55.8
-46.79
-37.34
-27.65
-17.79
-7.86
1.81
10.59
17.7
22.38
24.23
23.4
20.59
16.87
13.38
10.98
10.06
10.54
11.87
13.4
14.46
14.6
13.68
11.92
9.73
7.61
6.01
5.17
5.16
5.93
7.34
9.27
11.55
14
16.36
18.41
19.96
20.91
21.29
21.08
20.25
18.59
15.89
12.04
7.19
1.83
-3.32
-7.46
-10.12
-11.18
-11.01
-10.19
-9.31
-8.74
-8.62
-8.95
-9.72
-11.13
-13.45
-17
-21.88
-27.98
-34.91
-42.08
-48.79
-54.31
-57.98
-59.27
-57.98
-54.28
-48.68
-41.88
-34.55
-27.14
-19.84
-12.67
-5.59
1.32
7.85
13.69
18.53
22.14
24.43
25.54
25.72
25.32
24.61
23.67
22.47
20.85
18.77
16.35
13.92
11.87
10.58
10.29
11.06
12.92
15.83
19.7
24.33
29.39
34.36
38.67
41.77
43.36
43.45
42.39
40.68
38.9
37.37
36.1
34.79
32.96
30.21
26.36
21.58
16.24
10.84
5.87
1.66
-1.61
-3.94
-5.54
-6.68
-7.6
-8.39
-8.91
-8.84
-7.76
-5.29
-1.19
4.51
11.49
19.16
26.73
33.49
39.04
43.4
46.94
50.15
53.3
56.32
58.89
60.68
61.54
61.6
61.07
60.03
58.3
55.5
51.4
46.11
40.24
34.73
30.6
28.5
28.53
30.19
32.57
34.59
35.23
33.67
29.39
22.14
12.09
-0.19
-13.78
-27.56
-40.51
-51.84
-61.1
-68.04
-72.54
-74.61
-74.46
-72.62
-69.96
-67.47
-66.01
-65.99
-67.39
-69.78
-72.54
-74.91
-76.15
-75.54
-72.5
-66.74
-58.43
-48.19
-36.93
-25.63
-15.07
-5.72
2.23
8.75
13.92
17.85
20.67
22.57
23.74
24.38
24.63
24.57
24.23
23.61
22.75
21.81
21.03
20.72
21.02
21.84
22.77
23.24
22.67
20.75
17.54
13.5
9.27
5.46
2.53
0.65
-0.25
-0.45
-0.31
-0.21
-0.42
-1.09
-2.17
-3.55
-5.12
-6.78
-8.52
-10.31
-12.15
-14.04
-16.04
-18.24
-20.75
-23.51
-26.26
-28.46
-29.4
-28.41
-25.15
-19.76
-12.91
-5.58
1.23
6.82
10.91
13.68
15.49
16.69
17.47
17.88
17.96
17.76
17.43
17.16
17.09
17.26
17.65
18.19
18.8
19.39
19.87
20.17
20.27
20.12
19.73
19.09
18.21
17.05
15.64
14.06
12.44
10.93
9.58
8.35
7.12
5.77
4.28
2.68
1.05
-0.54
-2.11
-3.73
-5.51
-7.49
-9.62
-11.8
-13.91
-15.85
-17.63
-19.31
-21.02
-22.91
-25.1
-27.63
-30.3
-32.69
-34.15
-34.03
-31.87
-27.63
-21.77
-15.09
-8.48
-2.67
1.94
5.24
7.42
8.72
9.39
9.64
9.64
9.55
9.53
9.75
10.32
11.3
12.66
14.2
15.71
16.92
17.69
17.98
17.9
17.64
17.31
16.91
16.34
15.45
14.2
12.63
10.86
9.05
7.29
5.61
4.05
2.57
1.2
-0.08
-1.36
-2.71
-4.23
-5.94
-7.81
-9.68
-11.43
-13
-14.41
-15.8
-17.32
-19.09
-21.17
-23.45
-25.67
-27.36
-28.02
-27.19
-24.66
-20.55
-15.29
-9.54
-3.99
0.76
4.36
6.74
8.03
8.52
8.5
8.2
7.74
7.15
6.47
5.83
5.41
5.39
5.78
6.48
7.22
7.8
8.13
8.3
8.44
8.64
8.89
8.99
8.78
8.11
7.01
5.53
3.8
1.83
-0.37
-2.8
-5.44
-8.13
-10.67
-12.85
-14.57
-15.85
-16.87
-17.94
-19.32
-21.19
-23.48
-25.86
-27.78
-28.64
-27.9
-25.33
-21.04
-15.52
-9.46
-3.65
1.32
5.07
7.55
8.89
9.4
9.35
8.98
8.44
7.83
7.29
6.92
6.87
7.19
7.85
8.69
9.53
10.22
10.68
10.92
10.96
10.78
10.28
9.37
8.01
6.27
4.31
2.3
0.33
-1.61
-3.62
-5.79
-8.13
-10.55
-12.9
-15.01
-16.78
-18.22
-19.44
-20.7
-22.29
-24.41
-27.01
-29.77
-32.03
-33.07
-32.29
-29.43
-24.72
-18.74
-12.32
-6.23
-1.04
3.02
5.97
8.09
9.67
10.95
12.05
12.98
13.71
14.26
14.74
15.25
15.86
16.52
17.14
17.58
17.8
17.85
17.83
17.78
17.64
17.27
16.55
15.49
14.22
12.95
11.88
11.05
10.41
9.79
9.06
8.15
7.09
5.98
4.94
4.06
3.32
2.59
1.66
0.32
-1.55
-3.92
-6.59
-9.29
-11.84
-14.17
-16.34
-18.48
-20.73
-23.24
-26.1
-29.36
-32.92
-36.43
-39.25
-40.56
-39.66
-36.22
-30.47
-23.25
-15.64
-8.64
-2.91
1.4
4.49
6.75
8.55
10.11
11.48
12.64
13.53
14.17
14.69
15.2
15.83
16.63
17.49
18.3
18.88
19.21
19.31
19.27
19.15
18.94
18.58
17.95
16.99
15.65
13.97
12.01
9.91
7.79
5.81
4.1
2.67
1.5
0.45
-0.64
-1.94
-3.5
-5.36
-7.45
-9.65
-11.83
-13.85
-15.65
-17.28
-18.89
-20.75
-23.05
-25.8
-28.63
-30.9
-31.78
-30.61
-27.14
-21.67
-14.95
-7.95
-1.54
3.72
7.62
10.27
11.89
12.74
13.06
13.02
12.8
12.5
12.23
12.09
12.15
12.52
13.22
14.21
15.36
16.46
17.32
17.88
18.15
18.22
18.08
17.68
16.93
15.77
14.26
12.57
10.85
9.16
7.36
5.18
2.42
-0.93
-4.61
-8.22
-11.36
-13.87
-15.84
-17.54
-19.34
-21.48
-24.05
-26.92
-29.75
-32.08
-33.31
-32.91
-30.52
-26.14
-20.16
-13.33
-6.5
-0.38
4.65
8.52
11.43
13.56
15.08
16.02
16.41
16.33
15.99
15.64
15.46
15.52
15.72
15.88
15.8
15.45
14.93
14.4
13.96
13.52
12.89
11.76
10.01
7.74
5.28
3.09
1.55
0.83
0.78
1.05
1.19
0.82
-0.27
-2.09
-4.5
-7.25
-10.1
-12.86
-15.45
-17.94
-20.49
-23.29
-26.5
-30.07
-33.59
-36.4
-37.61
-36.5
-32.8
-26.79
-19.32
-11.49
-4.31
1.56
5.95
9.03
11.09
12.42
13.23
13.64
13.84
14.02
14.41
15.16
16.29
17.69
19.17
20.59
21.85
22.94
23.91
24.75
25.41
25.79
25.76
25.21
24.1
22.48
20.54
18.5
16.56
14.84
13.29
11.73
9.98
7.94
5.69
3.42
1.37
-0.39
-1.94
-3.5
-5.31
-7.49
-9.99
-12.69
-15.35
-17.83
-20.05
-22.11
-24.13
-26.35
-29
-32.17
-35.75
-39.3
-42.06
-43.15
-41.83
-37.8
-31.38
-23.4
-14.97
-7.09
-0.49
4.58
8.18
10.6
12.19
13.27
14.11
14.95
15.89
16.97
18.14
19.29
20.35
21.33
22.27
23.26
24.35
25.52
26.69
27.71
28.43
28.73
28.53
27.78
26.49
24.72
22.64
20.45
18.41
16.65
15.19
13.9
12.59
11.1
9.38
7.52
5.66
3.95
2.37
0.84
-0.78
-2.6
-4.67
-6.95
-9.34
-11.71
-13.94
-15.99
-17.91
-19.86
-22.04
-24.67
-27.83
-31.37
-34.86
-37.63
-38.89
-37.98
-34.58
-28.9
-21.59
-13.65
-6.07
0.41
5.44
9.02
11.42
12.97
13.92
14.44
14.62
14.57
14.45
14.49
14.84
15.58
16.58
17.64
18.49
19
19.17
19.15
19.11
19.15
19.21
19.06
18.49
17.34
15.64
13.6
11.48
9.53
7.85
6.37
4.85
3.08
0.95
-1.5
-4.06
-6.47
-8.57
-10.33
-11.88
-13.44
-15.25
-17.46
-20.14
-23.2
-26.37
-29.19
-31.01
-31.16
-29.16
-24.94
-18.91
-11.91
-4.87
1.44
6.6
10.55
13.41
15.36
16.5
16.91
16.64
15.9
14.96
14.09
13.54
13.4
13.7
14.37
15.27
16.25
17.17
17.86
18.19
18.09
17.44
16.21
14.38
12
9.28
6.51
4
1.97
0.47
-0.67
-1.72
-2.94
-4.44
-6.2
-8.07
-9.91
-11.65
-13.3
-14.95
-16.75
-18.86
-21.42
-24.44
-27.76
-30.96
-33.39
-34.32
-33.17
-29.77
-24.37
-17.63
-10.36
-3.32
2.94
8.12
12.11
14.95
16.74
17.63
17.79
17.45
16.8
16.05
15.41
15.09
15.21
15.74
16.55
17.38
18.01
18.33
18.37
18.23
17.95
17.44
16.48
14.88
12.6
9.8
6.83
4.12
1.95
0.41
-0.6
-1.4
-2.29
-3.51
-5.12
-7.03
-9.06
-10.99
-12.75
-14.37
-16.03
-17.97
-20.38
-23.3
-26.63
-30.09
-33.24
-35.55
-36.4
-35.32
-32.05
-26.75
-19.97
-12.6
-5.55
0.48
5.13
8.48
10.81
12.49
13.74
14.65
15.16
15.23
14.86
14.22
13.63
13.4
13.75
14.7
16.02
17.4
18.57
19.35
19.77
19.9
19.79
19.42
18.66
17.39
15.59
13.33
10.81
8.28
5.98
4.05
2.52
1.26
0.03
-1.45
-3.33
-5.55
-7.9
-10.06
-11.83
-13.17
-14.31
-15.62
-17.48
-20.08
-23.38
-27.1
-30.72
-33.59
-35.05
-34.56
-31.81
-26.96
-20.55
-13.39
-6.41
-0.33
4.48
7.91
10.11
11.29
11.71
11.59
11.18
10.75
10.53
10.62
11.04
11.67
12.36
13.06
13.74
14.45
15.2
15.98
16.66
17.08
17.07
16.49
15.3
13.56
11.5
9.34
7.29
5.45
3.77
2.12
0.37
-1.57
-3.69
-5.91
-8.15
-10.28
-12.19
-13.85
-15.28
-16.62
-18.12
-20.02
-22.34
-24.8
-26.82
-27.68
-26.75
-23.79
-19.04
-13.15
-6.96
-1.22
3.58
7.26
9.86
11.5
12.26
12.22
11.45
10.12
8.53
7.03
5.97
5.65
6.17
7.47
9.27
11.13
12.63
13.44
13.44
12.75
11.68
10.49
9.36
8.3
7.14
5.69
3.84
1.6
-0.91
-3.51
-6.05
-8.42
-10.56
-12.48
-14.21
-15.81
-17.39
-19.11
-21.09
-23.35
-25.7
-27.66
-28.6
-27.89
-25.15
-20.45
-14.33
-7.63
-1.24
4.15
8.2
10.9
12.42
13.02
12.93
12.36
11.48
10.53
9.71
9.21
9.13
9.48
10.2
11.17
12.28
13.4
14.42
15.2
15.58
15.43
14.64
13.29
11.52
9.55
7.56
5.64
3.74
1.73
-0.51
-3.03
-5.76
-8.59
-11.34
-13.89
-16.15
-18.18
-20.09
-22.04
-24.28
-26.89
-29.84
-32.77
-35.07
-36.03
-35.01
-31.68
-26.17
-19.08
-11.29
-3.77
2.67
7.56
10.81
12.64
13.42
13.6
13.52
13.45
13.52
13.84
14.4
15.14
15.96
16.72
17.34
17.79
18.18
18.6
19.15
19.81
20.43
20.8
20.67
19.87
18.35
16.23
13.72
11.11
8.7
6.64
4.94
3.41
1.81
-0.13
-2.52
-5.32
-8.35
-11.4
-14.3
-17
-19.58
-22.21
-25.11
-28.42
-32.12
-35.95
-39.34
-41.55
-41.79
-39.55
-34.75
-27.89
-19.83
-11.59
-4.09
2.16
6.98
10.48
12.91
14.53
15.54
16.12
16.42
16.6
16.84
17.22
17.78
18.47
19.22
19.96
20.68
21.36
22
22.55
22.89
22.83
22.22
20.94
19.02
16.61
13.92
11.2
8.64
6.28
4.08
1.91
-0.38
-2.83
-5.38
-7.86
-10.06
-11.84
-13.21
-14.39
-15.71
-17.53
-20.06
-23.31
-26.99
-30.63
-33.59
-35.15
-34.71
-31.92
-26.88
-20.11
-12.5
-5.09
1.3
6.16
9.49
11.59
12.91
13.84
14.59
15.18
15.51
15.55
15.34
15.07
15
15.34
16.17
17.37
18.67
19.72
20.29
20.21
19.51
18.26
16.54
14.42
11.94
9.2
6.37
3.68
1.34
-0.55
-2.03
-3.32
-4.68
-6.3
-8.23
-10.39
-12.59
-14.74
-16.87
-19.16
-21.81
-24.84
-28
-30.66
-32.03
-31.32
-28.14
-22.59
-15.32
-7.34
0.34
6.91
11.98
15.52
17.73
18.88
19.19
18.86
18.05
16.99
15.97
15.27
15.07
15.39
16.13
17.05
17.97
18.71
19.24
19.58
19.76
19.75
19.42
18.58
17.15
15.14
12.74
10.16
7.62
5.15
2.65
-0.04
-3.01
-6.18
-9.34
-12.23
-14.66
-16.62
-18.27
-19.85
-21.59
-23.7
-26.28
-29.3
-32.51
-35.35
-37.05
-36.79
-33.98
-28.58
-21.14
-12.72
-4.48
2.63
8.15
12.09
14.78
16.64
17.9
18.65
18.91
18.68
18.14
17.57
17.3
17.57
18.41
19.64
20.97
22.1
22.86
23.2
23.21
22.98
22.53
21.77
20.58
18.83
16.54
13.85
11.02
8.34
6.03
4.15
2.56
1.01
-0.8
-3.05
-5.76
-8.72
-11.64
-14.24
-16.37
-18.11
-19.71
-21.53
-23.9
-27.02
-30.8
-34.81
-38.36
-40.54
-40.57
-37.99
-32.84
-25.7
-17.53
-9.35
-1.97
4.17
9.01
12.72
15.54
17.59
18.91
19.54
19.55
19.14
18.6
18.22
18.18
18.54
19.22
20.05
20.87
21.56
22.08
22.43
22.63
22.58
22.15
21.22
19.7
17.62
15.16
12.57
10.08
7.91
6.13
4.68
3.39
2.02
0.42
-1.51
-3.73
-6.08
-8.37
-10.49
-12.41
-14.22
-16.13
-18.29
-20.82
-23.73
-26.93
-30.19
-33.18
-35.42
-36.32
-35.37
-32.22
-26.93
-20.01
-12.31
-4.84
1.55
6.35
9.51
11.23
11.88
11.83
11.34
10.6
9.79
9.09
8.67
8.69
9.15
10.02
11.14
12.3
13.33
14.07
14.44
14.43
14.08
13.41
12.48
11.3
9.89
8.23
6.36
4.33
2.21
0.09
-1.95
-3.86
-5.6
-7.19
-8.67
-10.09
-11.52
-13.08
-14.86
-17
-19.49
-22.12
-24.47
-25.86
-25.62
-23.25
-18.68
-12.3
-4.96
2.33
8.67
13.42
16.39
17.66
17.54
16.3
14.23
11.56
8.63
5.83
3.58
2.26
2.03
2.87
4.53
6.62
8.77
10.65
12.09
13
13.41
13.36
12.9
12.08
10.88
9.27
7.21
4.72
1.85
-1.27
-4.48
-7.6
-10.46
-12.98
-15.16
-17.13
-19.06
-21.11
-23.46
-26.19
-29.28
-32.49
-35.34
-37.08
-36.94
-34.32
-29.09
-21.72
-13.18
-4.61
2.96
8.91
13.07
15.58
16.75
16.93
16.45
15.6
14.64
13.75
13.04
12.54
12.2
12.01
11.94
12.02
12.26
12.67
13.19
13.73
14.18
14.39
14.2
13.49
12.24
10.53
8.53
6.44
4.33
2.13
-0.4
-3.48
-7.18
-11.27
-15.32
-18.79
-21.37
-23.08
-24.3
-25.58
-27.43
-30.05
-33.24
-36.41
-38.67
-39.15
-37.2
-32.65
-25.88
-17.78
-9.42
-1.8
4.46
9.12
12.3
14.29
15.4
15.89
16
15.94
15.88
15.91
16.12
16.52
17.11
17.85
18.69
19.55
20.37
21.09
21.7
22.16
22.41
22.26
21.51
20.05
17.91
15.31
12.63
10.15
8.03
6.19
4.38
2.34
-0.12
-3
-6.17
-9.36
-12.37
-15.01
-17.28
-19.27
-21.2
-23.35
-25.99
-29.25
-32.97
-36.69
-39.57
-40.69
-39.32
-35.23
-28.77
-20.82
-12.45
-4.63
1.99
7.14
10.8
13.1
14.26
14.53
14.18
13.55
12.93
12.54
12.48
12.8
13.48
14.48
15.7
17.02
18.3
19.38
20.13
20.44
20.3
19.68
18.58
17.05
15.15
13.02
10.78
8.51
6.18
3.75
1.17
-1.53
-4.23
-6.76
-8.97
-10.89
-12.65
-14.52
-16.74
-19.53
-22.9
-26.61
-30.13
-32.7
-33.48
-31.78
-27.4
-20.71
-12.64
-4.36
3.08
8.96
13.09
15.62
16.88
17.21
16.83
15.89
14.57
13.13
11.87
11.12
11.07
11.73
12.97
14.5
15.99
17.17
17.87
18
17.6
16.7
15.31
13.45
11.13
8.46
5.62
2.84
0.27
-2.03
-4.14
-6.2
-8.32
-10.53
-12.72
-14.77
-16.65
-18.5
-20.61
-23.29
-26.75
-30.78
-34.78
-37.8
-38.83
-37.15
-32.58
-25.6
-17.18
-8.45
-0.42
6.26
11.35
14.86
17.02
18.05
18.2
17.71
16.87
16
15.38
15.21
15.59
16.47
17.67
19.01
20.3
21.41
22.25
22.74
22.8
22.3
21.14
19.26
16.72
13.73
10.52
7.36
4.42
1.74
-0.81
-3.36
-6.04
-8.82
-11.53
-13.98
-15.99
-17.57
-18.93
-20.43
-22.45
-25.26
-28.87
-32.91
-36.73
-39.42
-40.09
-38.11
-33.31
-26.14
-17.51
-8.6
-0.42
6.34
11.47
15.09
17.45
18.8
19.29
19
18.16
17.1
16.24
15.94
16.37
17.39
18.72
20.03
21.13
21.97
22.63
23.15
23.5
23.52
23.01
21.79
19.89
17.45
14.76
12.1
9.69
7.6
5.74
3.89
1.84
-0.55
-3.28
-6.19
-9.08
-11.8
-14.32
-16.74
-19.26
-22.06
-25.31
-29.03
-33.03
-36.82
-39.62
-40.53
-38.81
-34.18
-27.02
-18.3
-9.31
-1.23
5.21
9.76
12.65
14.27
14.96
14.97
14.45
13.56
12.55
11.72
11.33
11.55
12.37
13.69
15.31
17.03
18.62
19.85
20.56
20.61
20.01
18.84
17.24
15.38
13.35
11.13
8.72
6.1
3.3
0.45
-2.31
-4.92
-7.33
-9.62
-11.87
-14.21
-16.76
-19.57
-22.61
-25.71
-28.57
-30.7
-31.57
-30.66
-27.63
-22.53
-15.86
-8.43
-1.19
5.04
9.83
13.11
15.12
16.16
16.44
16.03
15.02
13.57
12.03
10.85
10.43
11
12.47
14.44
16.35
17.65
18
17.34
15.91
14.07
12.15
10.37
8.73
7.07
5.23
3.07
0.59
-2.1
-4.84
-7.44
-9.82
-11.95
-13.92
-15.87
-18.01
-20.56
-23.59
-27.02
-30.47
-33.34
-34.84
-34.25
-31.15
-25.55
-18
-9.42
-0.88
6.62
12.41
16.26
18.35
19.06
18.84
18.07
17.01
15.9
14.9
14.22
14.03
14.37
15.11
16.04
16.92
17.59
17.99
18.13
17.97
17.46
16.45
14.77
12.35
9.24
5.6
1.79
-1.84
-4.94
-7.37
-9.22
-10.83
-12.62
-14.96
-17.98
-21.5
-25.04
-27.85
-29.14
-28.25
-24.92
-19.34
-12.25
-4.62
2.49
8.3
12.45
14.99
16.25
16.64
16.5
16.04
15.36
14.49
13.47
12.45
11.61
11.11
11.05
11.36
11.86
12.34
12.58
12.51
12.05
11.13
9.66
7.56
4.87
1.79
-1.38
-4.32
-6.87
-9.05
-11.12
-13.4
-16.16
-19.49
-23.17
-26.65
-29.13
-29.76
-27.88
-23.32
-16.54
-8.51
-0.45
6.54
11.81
15.24
17.14
18
18.23
18.04
17.45
16.46
15.16
13.8
12.72
12.24
12.52
13.44
14.64
15.71
16.31
16.3
15.8
15.03
14.12
13.08
11.74
9.86
7.32
4.22
0.83
-2.5
-5.51
-8.11
-10.39
-12.51
-14.69
-17.03
-19.58
-22.32
-25.15
-27.87
-30.13
-31.41
-31.14
-28.88
-24.54
-18.44
-11.34
-4.15
2.3
7.53
11.42
14.16
16.01
17.21
17.87
18.02
17.69
17
16.14
15.38
14.97
15.07
15.66
16.55
17.4
17.91
17.85
17.22
16.16
14.85
13.44
11.94
10.22
8.16
5.7
2.94
0.08
-2.62
-4.97
-6.88
-8.4
-9.67
-10.93
-12.39
-14.23
-16.54
-19.31
-22.36
-25.35
-27.73
-28.8
-27.91
-24.67
-19.18
-12.05
-4.32
2.95
8.91
13.19
15.86
17.23
17.65
17.3
16.32
14.76
12.81
10.79
9.05
7.92
7.52
7.79
8.45
9.2
9.71
9.79
9.38
8.57
7.53
6.41
5.35
4.34
3.31
2.12
0.59
-1.38
-3.8
-6.53
-9.32
-11.88
-13.96
-15.49
-16.56
-17.41
-18.38
-19.77
-21.75
-24.27
-27.04
-29.48
-30.87
-30.5
-27.89
-23.02
-16.4
-8.96
-1.75
4.35
8.86
11.77
13.36
13.98
13.98
13.57
12.91
12.22
11.69
11.55
11.88
12.62
13.59
14.55
15.33
15.89
16.3
16.59
16.77
16.71
16.22
15.11
13.28
10.82
7.96
5.03
2.33
0.07
-1.75
-3.3
-4.86
-6.68
-8.87
-11.33
-13.76
-15.88
-17.5
-18.71
-19.84
-21.27
-23.35
-26.2
-29.66
-33.33
-36.53
-38.47
-38.37
-35.67
-30.28
-22.69
-13.89
-5.12
2.53
8.42
12.44
14.92
16.32
17.02
17.18
16.88
16.22
15.41
14.75
14.53
14.93
15.86
17.05
18.17
18.94
19.29
19.32
19.17
18.93
18.58
18
17.03
15.56
13.59
11.25
8.77
6.37
4.26
2.52
1.1
-0.13
-1.4
-2.88
-4.61
-6.56
-8.57
-10.52
-12.38
-14.25
-16.23
-18.39
-20.76
-23.35
-26.22
-29.46
-33.03
-36.64
-39.66
-41.22
-40.46
-36.92
-30.75
-22.71
-13.94
-5.56
1.6
7.13
11.03
13.48
14.75
15.1
14.81
14.19
13.52
13.02
12.8
12.89
13.2
13.65
14.2
14.83
15.54
16.28
16.94
17.45
17.72
17.69
17.32
16.56
15.37
13.76
11.78
9.54
7.18
4.84
2.65
0.65
-1.15
-2.85
-4.55
-6.33
-8.17
-10.02
-11.74
-13.21
-14.41
-15.39
-16.34
-17.46
-18.94
-20.92
-23.38
-26.21
-29.08
-31.52
-32.88
-32.54
-30.1
-25.57
-19.44
-12.51
-5.66
0.42
5.36
9.11
11.77
13.5
14.38
14.42
13.72
12.46
10.97
9.61
8.69
8.39
8.7
9.51
10.64
11.94
13.3
14.6
15.7
16.35
16.35
15.53
13.94
11.76
9.33
6.97
4.92
3.21
1.74
0.32
-1.25
-3.11
-5.28
-7.71
-10.22
-12.63
-14.79
-16.64
-18.29
-19.97
-21.97
-24.46
-27.47
-30.73
-33.68
-35.61
-35.75
-33.53
-28.82
-21.98
-13.88
-5.63
1.71
7.42
11.28
13.48
14.45
14.63
14.31
13.66
12.8
11.86
11.03
10.56
10.58
11.12
12.1
13.36
14.71
16.03
17.25
18.32
19.19
19.74
19.77
19.09
17.56
15.23
12.31
9.22
6.37
4.02
2.19
0.58
-1.17
-3.34
-5.94
-8.76
-11.48
-13.89
-15.92
-17.7
-19.42
-21.24
-23.32
-25.77
-28.69
-32
-35.37
-38.17
-39.51
-38.65
-35.17
-29.24
-21.6
-13.27
-5.25
1.7
7.19
11.22
13.93
15.57
16.39
16.61
16.48
16.21
15.99
15.92
16.1
16.5
17.08
17.75
18.41
18.98
19.44
19.78
20.05
20.29
20.45
20.44
20.09
19.19
17.63
15.41
12.7
9.81
7.09
4.79
2.99
1.52
0.1
-1.59
-3.66
-6.03
-8.49
-10.81
-12.92
-14.9
-16.97
-19.36
-22.19
-25.43
-28.96
-32.57
-35.93
-38.58
-39.9
-39.23
-36.13
-30.52
-22.88
-14.12
-5.31
2.58
8.93
13.52
16.44
17.95
18.34
17.9
16.92
15.68
14.45
13.48
12.9
12.76
12.97
13.4
13.92
14.5
15.13
15.82
16.54
17.16
17.51
17.39
16.7
15.42
13.72
11.75
9.71
7.65
5.6
3.49
1.26
-1.15
-3.74
-6.43
-9.09
-11.55
-13.69
-15.47
-16.99
-18.44
-20.12
-22.25
-24.91
-27.86
-30.56
-32.27
-32.24
-30.01
-25.55
-19.35
-12.24
-5.15
1.13
6.17
9.89
12.41
13.93
14.54
14.34
13.39
11.91
10.19
8.69
7.8
7.75
8.49
9.75
11.2
12.46
13.37
13.87
14.01
13.86
13.42
12.54
11.08
8.91
6.04
2.73
-0.61
-3.56
-5.85
-7.49
-8.72
-9.94
-11.54
-13.8
-16.76
-20.25
-23.91
-27.2
-29.53
-30.25
-28.95
-25.49
-20.14
-13.51
-6.39
0.46
6.47
11.27
14.71
16.72
17.36
16.77
15.2
13.02
10.67
8.61
7.16
6.56
6.82
7.83
9.31
10.94
12.33
13.18
13.34
12.83
11.79
10.37
8.65
6.63
4.24
1.45
-1.63
-4.75
-7.66
-10.15
-12.25
-14.17
-16.21
-18.67
-21.67
-25.13
-28.76
-32.06
-34.4
-35.15
-33.82
-30.2
-24.57
-17.57
-10.09
-3.03
2.98
7.72
11.27
13.89
15.8
17.09
17.76
17.85
17.49
16.87
16.29
15.94
15.86
16
16.22
16.47
16.75
17.08
17.39
17.52
17.2
16.2
14.43
11.99
9.15
6.16
3.18
0.25
-2.7
-5.69
-8.7
-11.63
-14.39
-17.01
-19.62
-22.5
-25.84
-29.68
-33.7
-37.28
-39.55
-39.67
-37.15
-32.02
-24.87
-16.64
-8.36
-0.82
5.57
10.7
14.67
17.61
19.61
20.76
21.16
21.02
20.63
20.34
20.44
21.13
22.39
24.04
25.74
27.17
28.08
28.43
28.28
27.77
27.01
25.94
24.53
22.72
20.58
18.21
15.75
13.33
10.98
8.71
6.45
4.14
1.72
-0.85
-3.58
-6.46
-9.38
-12.24
-14.94
-17.47
-19.89
-22.37
-25.16
-28.41
-32.21
-36.39
-40.45
-43.63
-45.07
-43.99
-40.1
-33.6
-25.24
-16.04
-7
1.08
7.77
12.95
16.67
19.1
20.39
20.74
20.4
19.69
18.97
18.57
18.73
19.51
20.76
22.19
23.53
24.55
25.21
25.55
25.68
25.6
25.23
24.39
22.88
20.68
17.89
14.82
11.81
9.15
6.93
5.04
3.29
1.39
-0.8
-3.3
-5.99
-8.66
-11.16
-13.4
-15.47
-17.53
-19.83
-22.62
-25.99
-29.72
-33.26
-35.81
-36.49
-34.65
-30.1
-23.26
-14.97
-6.33
1.68
8.38
13.44
16.86
18.8
19.51
19.27
18.37
17.17
16.01
15.2
14.92
15.2
15.94
16.97
18.14
19.33
20.51
21.62
22.54
23.09
23.06
22.25
20.61
18.24
15.39
12.35
9.36
6.54
3.87
1.28
-1.37
-4.12
-6.93
-9.7
-12.34
-14.78
-17.05
-19.23
-21.47
-23.95
-26.79
-29.99
-33.29
-36.14
-37.74
-37.25
-34.13
-28.35
-20.51
-11.62
-2.81
5
11.26
15.8
18.76
20.34
20.83
20.52
19.69
18.68
17.82
17.37
17.5
18.24
19.48
21.02
22.58
23.91
24.85
25.36
25.48
25.28
24.78
23.93
22.62
20.75
18.29
15.36
12.2
9.18
6.61
4.66
3.23
1.98
0.45
-1.76
-4.79
-8.46
-12.35
-16.03
-19.13
-21.58
-23.5
-25.2
-27.06
-29.43
-32.58
-36.55
-41.08
-45.53
-48.89
-50.06
-48.2
-43.02
-35.01
-25.21
-14.99
-5.56
2.29
8.28
12.59
15.57
17.62
18.99
19.89
20.46
20.86
21.26
21.85
22.77
24.06
25.72
27.62
29.58
31.43
33.03
34.23
34.93
35.01
34.4
33.03
30.9
28.05
24.64
20.92
17.17
13.66
10.58
8.01
5.93
4.22
2.75
1.33
-0.23
-2.11
-4.46
-7.39
-10.84
-14.64
-18.52
-22.18
-25.48
-28.47
-31.4
-34.58
-38.24
-42.29
-46.27
-49.31
-50.4
-48.69
-43.73
-35.7
-25.41
-14.06
-2.97
6.73
14.29
19.42
22.24
23.19
22.85
21.85
20.71
19.74
19.05
18.6
18.28
18.06
17.99
18.18
18.65
19.36
20.08
20.57
20.59
20.01
18.78
16.91
14.48
11.59
8.46
5.29
2.33
-0.24
-2.38
-4.2
-5.9
-7.71
-9.76
-12.07
-14.46
-16.74
-18.71
-20.26
-21.51
-22.72
-24.29
-26.49
-29.3
-32.26
-34.49
-34.99
-32.96
-28.17
-21.06
-12.61
-3.96
3.86
10.23
14.88
17.81
19.13
19.02
17.78
15.81
13.66
11.8
10.58
10.12
10.34
11.08
12.18
13.5
14.89
16.19
17.22
17.79
17.8
17.17
15.96
14.25
12.15
9.74
7.09
4.25
1.23
-1.93
-5.21
-8.54
-11.8
-14.86
-17.56
-19.85
-21.78
-23.55
-25.48
-27.94
-31.17
-35.09
-39.25
-42.79
-44.7
-44.06
-40.39
-33.83
-25.18
-15.6
-6.32
1.75
8.13
12.8
15.95
17.87
18.79
18.87
18.33
17.42
16.49
15.9
15.88
16.51
17.67
19.14
20.63
21.92
22.85
23.35
23.4
22.98
22.05
20.56
18.52
16.01
13.23
10.44
7.86
5.62
3.64
1.69
-0.55
-3.33
-6.73
-10.6
-14.6
-18.34
-21.46
-23.89
-25.76
-27.45
-29.44
-32.12
-35.64
-39.8
-43.98
-47.26
-48.6
-47.12
-42.42
-34.75
-25
-14.48
-4.52
3.85
10.15
14.45
17.21
18.93
19.99
20.56
20.68
20.37
19.76
19.15
18.83
19.07
19.91
21.25
22.86
24.5
25.97
27.19
28.13
28.7
28.83
28.35
27.11
25.01
22.14
18.72
15.14
11.8
8.98
6.76
5.02
3.48
1.86
-0.07
-2.36
-5.03
-7.96
-11.03
-14.08
-16.95
-19.56
-21.89
-24.1
-26.48
-29.43
-33.18
-37.73
-42.58
-46.84
-49.38
-49.21
-45.84
-39.43
-30.81
-21.16
-11.67
-3.27
3.57
8.71
12.3
14.62
15.95
16.59
16.77
16.72
16.61
16.61
16.79
17.22
17.9
18.8
19.86
20.97
22.01
22.81
23.17
22.91
21.91
20.17
17.8
15.02
12.02
8.93
5.8
2.65
-0.48
-3.5
-6.29
-8.84
-11.17
-13.38
-15.57
-17.83
-20.22
-22.81
-25.7
-28.92
-32.34
-35.51
-37.67
-37.93
-35.56
-30.39
-22.87
-14.04
-5.13
2.79
9.08
13.59
16.48
18.1
18.72
18.57
17.83
16.72
15.49
14.4
13.66
13.41
13.72
14.56
15.82
17.29
18.67
19.66
20.06
19.77
18.81
17.29
15.31
12.95
10.29
7.36
4.2
0.85
-2.68
-6.36
-10.15
-13.91
-17.49
-20.67
-23.36
-25.6
-27.62
-29.79
-32.47
-35.8
-39.58
-43.15
-45.53
-45.72
-43.04
-37.39
-29.34
-19.97
-10.51
-2.01
4.88
9.98
13.43
15.59
16.79
17.34
17.48
17.44
17.39
17.52
17.98
18.79
19.92
21.19
22.4
23.35
23.97
24.26
24.3
24.11
23.6
22.57
20.8
18.17
14.78
11
7.32
4.2
1.8
-0.06
-1.82
-4.02
-6.97
-10.6
-14.55
-18.36
-21.67
-24.43
-26.9
-29.46
-32.52
-36.26
-40.59
-45.15
-49.26
-52
-52.4
-49.74
-43.76
-34.93
-24.34
-13.37
-3.31
5.02
11.41
16.11
19.61
22.32
24.51
26.26
27.6
28.59
29.36
30.07
30.89
31.91
33.11
34.38
35.59
36.62
37.41
37.99
38.44
38.74
38.87
38.67
37.99
36.72
34.81
32.38
29.64
26.84
24.26
22.07
20.31
18.86
17.5
16.01
14.25
12.24
10.15
8.14
6.34
4.72
3.09
1.2
-1.18
-4.15
-7.67
-11.54
-15.43
-19.01
-22.05
-24.47
-26.41
-28.17
-30.14
-32.69
-36.04
-40.17
-44.74
-49
-51.95
-52.49
-49.82
-43.7
-34.68
-23.95
-12.99
-3.17
4.69
10.37
14.18
16.65
18.34
19.58
20.58
21.4
22.14
22.89
23.76
24.82
26.08
27.45
28.79
29.93
30.74
31.15
31.14
30.78
30.1
29.11
27.78
26.08
24.02
21.71
19.3
17.01
14.99
13.29
11.84
10.5
9.09
7.44
5.44
3.04
0.31
-2.59
-5.45
-8.07
-10.33
-12.25
-13.98
-15.8
-18.01
-20.85
-24.42
-28.62
-33.08
-37.13
-39.91
-40.52
-38.34
-33.17
-25.49
-16.28
-6.81
1.72
8.51
13.34
16.46
18.38
19.59
20.4
20.86
20.96
20.76
20.48
20.46
20.98
22.11
23.65
25.24
26.54
27.36
27.73
27.77
27.56
27.09
26.28
25.02
23.32
21.32
19.21
17.15
15.28
13.6
12.06
10.61
9.19
7.84
6.56
5.35
4.16
2.9
1.48
-0.11
-1.84
-3.57
-5.14
-6.51
-7.76
-9.15
-10.96
-13.38
-16.36
-19.63
-22.78
-25.43
-27.48
-29.08
-30.61
-32.47
-34.95
-38.12
-41.73
-45.32
-48.15
-49.4
-48.27
-44.24
-37.37
-28.32
-18.25
-8.55
-0.38
5.65
9.54
11.81
13.17
14.19
15.13
16.02
16.74
17.22
17.51
17.77
18.11
18.6
19.12
19.57
19.83
19.9
19.87
19.85
19.89
19.94
19.88
19.55
18.87
17.85
16.61
15.33
14.17
13.21
12.45
11.78
11.07
10.2
9.14
7.94
6.7
5.54
4.53
3.64
2.79
1.85
0.71
-0.66
-2.25
-3.95
-5.65
-7.28
-8.83
-10.37
-11.99
-13.75
-15.64
-17.6
-19.53
-21.39
-23.21
-25.06
-27.03
-29.14
-31.4
-33.83
-36.48
-39.33
-42.14
-44.39
-45.28
-43.99
-40.05
-33.54
-25.21
-16.17
-7.57
-0.27
5.37
9.37
12.05
13.73
14.66
15.04
15.04
14.84
14.63
14.59
14.84
15.4
16.2
17.08
17.88
18.46
18.84
19.08
19.3
19.64
20.07
20.49
20.69
20.46
19.65
18.22
16.29
14.06
11.78
9.67
7.85
6.33
5.01
3.75
2.43
1.01
-0.46
-1.85
-3.04
-3.92
-4.53
-5
-5.53
-6.35
-7.57
-9.21
-11.19
-13.38
-15.64
-17.85
-19.96
-21.99
-24.03
-26.22
-28.67
-31.33
-33.88
-35.78
-36.31
-34.83
-31.03
-25.09
-17.65
-9.68
-2.17
4.14
8.85
11.98
13.78
14.61
14.86
14.79
14.56
14.23
13.8
13.25
12.56
11.76
10.89
10.04
9.28
8.61
8.03
7.53
7.12
6.88
6.87
7.07
7.39
7.64
7.65
7.31
6.66
5.84
5
4.25
3.52
2.66
1.53
0.09
-1.59
-3.35
-5.08
-6.71
-8.27
-9.83
-11.46
-13.17
-14.99
-16.91
-18.95
-21.08
-23.24
-25.34
-27.37
-29.39
-31.57
-34.13
-37.21
-40.7
-44.17
-46.85
-47.85
-46.39
-42.13
-35.31
-26.76
-17.66
-9.17
-2.11
3.21
6.93
9.42
11.09
12.19
12.82
13.06
13.03
12.93
12.95
13.24
13.79
14.55
15.42
16.34
17.32
18.33
19.31
20.13
20.65
20.8
20.58
20.07
19.31
18.29
16.98
15.32
13.38
11.35
9.43
7.79
6.42
5.22
4
2.66
1.2
-0.2
-1.38
-2.3
-3.07
-3.92
-5.12
-6.8
-8.94
-11.39
-13.93
-16.38
-18.68
-20.8
-22.79
-24.68
-26.56
-28.57
-30.95
-33.89
-37.36
-41.04
-44.25
-46.08
-45.73
-42.69
-37.05
-29.43
-20.83
-12.28
-4.65
1.56
6.22
9.45
11.52
12.72
13.34
13.61
13.77
14
14.42
15.14
16.15
17.43
18.88
20.37
21.75
22.9
23.75
24.31
24.62
24.67
24.38
23.63
22.3
20.44
18.23
15.96
13.92
12.26
10.91
9.7
8.43
6.98
5.32
3.51
1.66
-0.12
-1.75
-3.19
-4.43
-5.51
-6.58
-7.79
-9.28
-11.07
-13.08
-15.16
-17.17
-19.12
-21.14
-23.41
-26.09
-29.15
-32.35
-35.21
-37.05
-37.2
-35.14
-30.68
-24.1
-16.06
-7.51
0.59
7.52
12.88
16.65
18.99
20.19
20.53
20.26
19.63
18.88
18.28
18.04
18.3
19.02
19.97
20.87
21.36
21.27
20.56
19.39
18.01
16.63
15.37
14.18
12.94
11.55
10.02
8.41
6.87
5.49
4.26
3.07
1.74
0.15
-1.74
-3.85
-6.03
-8.14
-10.1
-11.91
-13.64
-15.33
-17.02
-18.68
-20.34
-22.08
-24.05
-26.4
-29.28
-32.69
-36.44
-40.07
-42.9
-44.12
-43.05
-39.31
-33.02
-24.89
-15.91
-7.15
0.57
6.83
11.58
14.98
17.3
18.75
19.49
19.7
19.57
19.31
19.12
19.16
19.5
20.18
21.16
22.35
23.61
24.79
25.72
26.34
26.61
26.56
26.2
25.52
24.47
23.06
21.28
19.21
16.91
14.48
11.94
9.33
6.74
4.23
1.88
-0.28
-2.27
-4.21
-6.2
-8.3
-10.51
-12.74
-14.95
-17.09
-19.18
-21.31
-23.58
-26.13
-29.05
-32.42
-36.16
-40.05
-43.58
-46.06
-46.7
-44.83
-40.14
-32.88
-23.82
-14.07
-4.79
3.09
9.1
13.18
15.58
16.76
17.18
17.21
17.13
17.11
17.3
17.76
18.54
19.64
21
22.51
23.98
25.29
26.36
27.15
27.67
27.93
27.87
27.4
26.43
24.87
22.7
20
16.94
13.7
10.53
7.66
5.23
3.28
1.7
0.24
-1.42
-3.49
-6.01
-8.8
-11.54
-13.96
-15.88
-17.4
-18.83
-20.57
-23.04
-26.43
-30.66
-35.32
-39.71
-42.95
-44.15
-42.68
-38.34
-31.47
-22.85
-13.55
-4.63
3.07
9.05
13.23
15.77
17
17.27
16.89
16.14
15.28
14.56
14.19
14.28
14.77
15.53
16.4
17.32
18.31
19.43
20.64
21.74
22.4
22.31
21.29
19.37
16.78
13.83
10.83
7.97
5.36
2.95
0.65
-1.72
-4.31
-7.18
-10.26
-13.35
-16.23
-18.77
-21.08
-23.45
-26.21
-29.56
-33.39
-37.19
-40.17
-41.42
-40.19
-36.2
-29.68
-21.34
-12.2
-3.31
4.55
10.89
15.61
18.84
20.83
21.84
22.07
21.73
21.04
20.24
19.6
19.32
19.52
20.16
21.1
22.13
23.07
23.8
24.27
24.47
24.41
24.03
23.29
22.09
20.41
18.25
15.68
12.87
9.98
7.22
4.69
2.4
0.25
-1.91
-4.24
-6.82
-9.65
-12.63
-15.62
-18.47
-21.13
-23.61
-26.03
-28.64
-31.74
-35.5
-39.87
-44.37
-48.11
-50.06
-49.27
-45.31
-38.37
-29.25
-19.14
-9.23
-0.45
6.7
12.14
16.09
18.83
20.67
21.84
22.49
22.79
22.91
23.03
23.28
23.73
24.35
25.14
26.1
27.23
28.48
29.76
30.87
31.59
31.73
31.2
30.04
28.35
26.22
23.73
20.92
17.85
14.59
11.25
7.98
4.9
2.11
-0.38
-2.62
-4.74
-6.92
-9.29
-11.9
-14.64
-17.36
-19.9
-22.2
-24.37
-26.65
-29.38
-32.82
-37.04
-41.8
-46.49
-50.21
-51.96
-50.84
-46.39
-38.8
-28.86
-17.82
-7.01
2.45
9.91
15.21
18.57
20.42
21.28
21.54
21.52
21.36
21.14
20.94
20.87
21.09
21.67
22.61
23.76
24.9
25.84
26.53
27.02
27.35
27.44
27.09
26
23.99
21.12
17.76
14.4
11.44
9.06
7.13
5.32
3.27
0.73
-2.34
-5.8
-9.34
-12.64
-15.44
-17.63
-19.32
-20.84
-22.64
-25.18
-28.68
-32.97
-37.44
-41.1
-42.85
-41.78
-37.54
-30.44
-21.41
-11.69
-2.48
5.39
11.55
16.02
18.96
20.6
21.11
20.68
19.57
18.11
16.66
15.54
14.95
15.01
15.75
17.09
18.9
20.92
22.85
24.35
25.15
25.05
23.97
21.94
19.14
15.9
12.62
9.67
7.2
5.09
3.02
0.61
-2.39
-5.94
-9.77
-13.5
-16.85
-19.72
-22.22
-24.61
-27.16
-30.12
-33.61
-37.46
-41.18
-43.93
-44.74
-42.76
-37.62
-29.62
-19.72
-9.22
0.51
8.54
14.42
18.27
20.5
21.6
21.96
21.83
21.36
20.7
20.05
19.61
19.63
20.23
21.34
22.76
24.2
25.39
26.16
26.46
26.34
25.85
24.97
23.62
21.7
19.14
16
12.46
8.84
5.43
2.52
0.17
-1.71
-3.4
-5.23
-7.46
-10.17
-13.23
-16.35
-19.28
-21.92
-24.33
-26.76
-29.49
-32.72
-36.54
-40.87
-45.36
-49.44
-52.28
-52.93
-50.59
-44.94
-36.31
-25.69
-14.48
-4.03
4.7
11.44
16.36
19.94
22.58
24.54
25.86
26.6
26.87
26.93
27.12
27.69
28.77
30.25
31.88
33.35
34.45
35.11
35.37
35.35
35.13
34.68
33.95
32.87
31.46
29.78
27.92
25.86
23.45
20.48
16.84
12.61
8.1
3.73
-0.14
-3.38
-6.17
-8.84
-11.74
-15.11
-18.94
-23.05
-27.16
-31.01
-34.4
-37.27
-39.64
-41.64
-43.51
-45.53
-47.97
-50.93
-54.16
-56.98
-58.33
-57.13
-52.61
-44.74
-34.26
-22.54
-11.09
-1.13
6.71
12.43
16.38
19.04
20.75
21.72
22.06
21.92
21.55
21.21
21.22
21.72
22.75
24.2
25.86
27.5
28.93
30.03
30.78
31.16
31.14
30.61
29.46
27.61
25.12
22.2
19.15
16.24
13.66
11.38
9.25
7.07
4.66
1.92
-1.12
-4.33
-7.56
-10.63
-13.4
-15.85
-18.05
-20.21
-22.59
-25.42
-28.82
-32.72
-36.82
-40.54
-43.12
-43.74
-41.75
-36.89
-29.44
-20.22
-10.32
-0.85
7.31
13.71
18.28
21.21
22.8
23.32
23.03
22.17
20.97
19.72
18.74
18.28
18.5
19.43
20.89
22.61
24.27
25.6
26.44
26.73
26.49
25.73
24.49
22.76
20.57
18
15.18
12.27
9.45
6.84
4.52
2.49
0.67
-1.08
-2.97
-5.16
-7.78
-10.86
-14.28
-17.85
-21.29
-24.42
-27.17
-29.67
-32.23
-35.16
-38.71
-42.88
-47.34
-51.37
-54
-54.26
-51.43
-45.32
-36.38
-25.62
-14.38
-3.93
4.82
11.49
16.2
19.34
21.38
22.65
23.33
23.53
23.41
23.16
23.09
23.46
24.4
25.91
27.82
29.87
31.8
33.42
34.58
35.22
35.26
34.64
33.32
31.3
28.68
25.65
22.47
19.42
16.66
14.21
11.9
9.5
6.81
3.88
0.93
-1.71
-3.82
-5.38
-6.69
-8.2
-10.27
-13.02
-16.28
-19.71
-22.99
-25.96
-28.67
-31.27
-34
-37
-40.39
-44.2
-48.3
-52.27
-55.39
-56.69
-55.22
-50.44
-42.44
-32.05
-20.61
-9.58
-0.09
7.31
12.63
16.24
18.63
20.18
21.1
21.53
21.63
21.6
21.68
22.05
22.74
23.7
24.77
25.82
26.78
27.61
28.28
28.73
28.85
28.54
27.7
26.31
24.41
22.12
19.63
17.1
14.68
12.45
10.44
8.6
6.82
5.04
3.17
1.17
-1.02
-3.48
-6.26
-9.34
-12.62
-15.93
-19.04
-21.81
-24.19
-26.29
-28.34
-30.65
-33.49
-36.92
-40.68
-44.07
-46.1
-45.75
-42.32
-35.77
-26.7
-16.28
-5.81
3.55
11.1
16.59
20.12
21.99
22.52
22.07
20.96
19.55
18.19
17.24
16.96
17.51
18.87
20.78
22.88
24.75
26.08
26.71
26.64
25.96
24.76
23.09
20.96
18.43
15.56
12.48
9.32
6.17
3.14
0.29
-2.3
-4.58
-6.56
-8.38
-10.23
-12.3
-14.72
-17.42
-20.26
-23.01
-25.56
-27.91
-30.19
-32.63
-35.46
-38.81
-42.68
-46.8
-50.59
-53.17
-53.53
-50.82
-44.69
-35.48
-24.23
-12.34
-1.21
8.14
15.24
20.1
23.04
24.52
24.99
24.85
24.42
23.9
23.43
23.08
22.94
23.1
23.7
24.8
26.31
28.02
29.62
30.87
31.61
31.8
31.44
30.46
28.81
26.43
23.38
19.85
16.11
12.48
9.19
6.36
3.96
1.84
-0.21
-2.37
-4.75
-7.36
-10.11
-12.89
-15.61
-18.28
-20.94
-23.71
-26.66
-29.84
-33.34
-37.28
-41.78
-46.82
-52.04
-56.57
-59.25
-58.9
-54.8
-46.98
-36.36
-24.35
-12.51
-2.02
6.52
13.05
17.82
21.22
23.51
24.89
25.49
25.49
25.11
24.65
24.38
24.47
24.99
25.84
26.86
27.81
28.51
28.87
28.93
28.75
28.38
27.8
26.86
25.39
23.28
20.52
17.31
13.97
10.83
8.09
5.74
3.54
1.18
-1.61
-4.93
-8.61
-12.36
-15.83
-18.82
-21.35
-23.67
-26.12
-29.03
-32.63
-36.9
-41.53
-45.89
-49.01
-49.84
-47.48
-41.59
-32.57
-21.53
-9.99
0.63
9.32
15.72
19.92
22.3
23.24
23.07
22.07
20.55
18.88
17.47
16.63
16.54
17.21
18.49
20.16
21.94
23.62
25.03
26.04
26.52
26.27
25.13
22.98
19.88
16.1
12.08
8.3
5.07
2.46
0.22
-2.04
-4.71
-7.99
-11.82
-15.85
-19.68
-22.96
-25.63
-27.9
-30.22
-33.09
-36.83
-41.41
-46.3
-50.57
-53.03
-52.56
-48.55
-40.99
-30.69
-18.93
-7.2
3.27
11.69
17.83
21.88
24.25
25.41
25.71
25.46
24.9
24.27
23.79
23.69
24.1
25.07
26.48
28.1
29.61
30.76
31.37
31.43
30.98
30.06
28.71
26.9
24.59
21.78
18.55
15.05
11.52
8.22
5.37
3.01
1.02
-0.9
-3.13
-5.91
-9.32
-13.18
-17.17
-20.97
-24.41
-27.52
-30.45
-33.44
-36.7
-40.4
-44.58
-49.11
-53.61
-57.32
-59.22
-58.23
-53.63
-45.34
-34.15
-21.49
-9.02
1.89
10.49
16.7
20.94
23.79
25.72
27.03
27.88
28.43
28.84
29.3
29.89
30.66
31.52
32.4
33.24
34.05
34.88
35.78
36.72
37.53
37.91
37.52
36.11
33.66
30.44
26.94
23.72
21.13
19.2
17.62
15.95
13.82
11.14
8.11
5.06
2.3
-0.07
-2.19
-4.36
-6.84
-9.77
-13.12
-16.67
-20.21
-23.5
-26.45
-29.03
-31.4
-33.8
-36.58
-40.06
-44.3
-48.95
-53.16
-55.76
-55.56
-51.76
-44.33
-33.98
-22.07
-10.13
0.49
8.95
15.02
18.88
21.02
21.88
21.84
21.2
20.22
19.21
18.52
18.46
19.13
20.43
22.03
23.6
24.87
25.75
26.31
26.66
26.84
26.79
26.36
25.39
23.78
21.49
18.62
15.33
11.83
8.4
5.24
2.48
0.09
-2.09
-4.28
-6.64
-9.22
-11.92
-14.56
-16.95
-19
-20.77
-22.47
-24.36
-26.71
-29.77
-33.59
-37.96
-42.28
-45.58
-46.76
-44.86
-39.47
-30.87
-20.12
-8.68
1.97
10.75
17.21
21.45
23.93
25.19
25.61
25.43
24.82
23.93
22.96
22.16
21.77
21.87
22.46
23.42
24.56
25.71
26.72
27.42
27.7
27.46
26.69
25.43
23.76
21.78
19.52
17.02
14.29
11.38
8.4
5.41
2.48
-0.43
-3.39
-6.5
-9.76
-13.12
-16.49
-19.74
-22.79
-25.58
-28.12
-30.46
-32.72
-35.09
-37.8
-41.09
-45.09
-49.7
-54.41
-58.36
-60.39
-59.42
-54.73
-46.36
-35.14
-22.48
-10.08
0.68
9
14.8
18.49
20.69
21.92
22.57
22.81
22.79
22.67
22.68
22.99
23.69
24.72
25.9
27.06
28.14
29.18
30.29
31.44
32.49
33.13
32.93
31.64
29.22
25.94
22.23
18.54
15.15
12.17
9.53
7.05
4.6
2.13
-0.28
-2.49
-4.34
-5.8
-6.99
-8.16
-9.64
-11.69
-14.36
-17.52
-20.91
-24.25
-27.42
-30.49
-33.72
-37.48
-41.97
-47.13
-52.39
-56.8
-59.13
-58.26
-53.57
-45.21
-34.1
-21.71
-9.65
0.86
9.11
15.01
18.79
20.87
21.59
21.26
20.22
18.82
17.51
16.63
16.38
16.77
17.63
18.77
20.03
21.37
22.73
24.01
24.99
25.34
24.77
23.09
20.37
16.88
13.03
9.23
5.81
2.91
0.41
-1.86
-4.15
-6.62
-9.32
-12.17
-15.04
-17.8
-20.37
-22.78
-25.09
-27.48
-30.1
-33
-36.01
-38.58
-39.88
-39
-35.27
-28.55
-19.43
-9.03
1.24
10.21
17.16
21.92
24.74
26.05
26.25
25.63
24.36
22.68
20.84
19.18
17.97
17.42
17.53
18.25
19.37
20.7
22.07
23.28
24.14
24.4
23.85
22.31
19.83
16.63
13.05
9.49
6.2
3.28
0.6
-2.06
-4.97
-8.27
-11.92
-15.72
-19.37
-22.64
-25.45
-27.97
-30.6
-33.77
-37.75
-42.44
-47.28
-51.25
-53.22
-52.13
-47.45
-39.31
-28.59
-16.63
-4.92
5.29
13.28
18.87
22.36
24.22
24.96
24.94
24.43
23.64
22.8
22.17
21.99
22.36
23.22
24.36
25.5
26.45
27.13
27.6
27.94
28.09
27.88
27.05
25.36
22.79
19.5
15.84
12.21
8.89
6
3.44
1.01
-1.61
-4.6
-8.04
-11.79
-15.55
-18.98
-21.87
-24.23
-26.31
-28.55
-31.41
-35.2
-39.88
-45
-49.66
-52.66
-52.87
-49.47
-42.44
-32.46
-20.86
-9.14
1.45
10.1
16.61
21.11
23.92
25.36
25.75
25.43
24.75
24.1
23.71
23.72
24.05
24.56
25.11
25.61
26.03
26.42
26.79
27.06
27.06
26.58
25.41
23.49
20.9
17.88
14.72
11.74
9.07
6.76
4.65
2.46
-0.06
-3.11
-6.69
-10.61
-14.5
-18.05
-21.06
-23.54
-25.77
-28.12
-30.95
-34.37
-38.11
-41.44
-43.31
-42.7
-38.88
-31.85
-22.35
-11.72
-1.43
7.29
13.82
18.13
20.55
21.57
21.57
20.81
19.48
17.79
16.06
14.66
13.94
14.03
14.85
16.09
17.33
18.18
18.44
18.14
17.44
16.57
15.59
14.4
12.8
10.58
7.74
4.4
0.86
-2.59
-5.75
-8.56
-11.04
-13.32
-15.56
-17.91
-20.59
-23.78
-27.52
-31.62
-35.52
-38.4
-39.36
-37.71
-33.2
-26.21
-17.67
-8.77
-0.62
6
10.82
14.01
15.97
17.09
17.65
17.71
17.27
16.41
15.36
14.5
14.25
14.8
16.08
17.65
18.94
19.47
19.07
17.88
16.23
14.4
12.5
10.38
7.83
4.7
1.05
-2.91
-6.93
-10.79
-14.42
-17.79
-20.89
-23.71
-26.27
-28.65
-31.09
-33.86
-37.12
-40.76
-44.27
-46.8
-47.33
-45.06
-39.69
-31.58
-21.69
-11.28
-1.56
6.64
12.97
17.53
20.62
22.61
23.8
24.39
24.55
24.44
24.21
24.04
24.07
24.4
25.09
26.06
27.21
28.32
29.15
29.54
29.39
28.66
27.35
25.43
22.91
19.87
16.5
13.1
10.01
7.42
5.32
3.48
1.57
-0.72
-3.49
-6.62
-9.86
-12.9
-15.56
-17.79
-19.77
-21.78
-24.24
-27.48
-31.62
-36.38
-40.98
-44.27
-45.03
-42.44
-36.36
-27.5
-17.15
-6.78
2.46
9.97
15.65
19.81
22.81
24.96
26.48
27.54
28.28
28.89
29.53
30.27
31.11
31.96
32.73
33.38
33.87
34.23
34.47
34.58
34.48
34.08
33.25
31.96
30.23
28.2
26.02
23.83
21.74
19.77
17.93
16.19
14.54
12.93
11.33
9.7
8.01
6.31
4.64
3.12
1.76
0.52
-0.78
-2.34
-4.34
-6.84
-9.68
-12.56
-15.15
-17.28
-18.98
-20.5
-22.26
-24.59
-27.73
-31.68
-36.1
-40.4
-43.69
-44.99
-43.47
-38.74
-31.11
-21.53
-11.38
-2.06
5.41
10.59
13.65
15.12
15.6
15.57
15.32
14.94
14.49
14.06
13.73
13.62
13.79
14.24
14.95
15.85
16.87
17.91
18.88
19.59
19.91
19.66
18.77
17.31
15.44
13.4
11.45
9.77
8.39
7.26
6.23
5.14
3.95
2.67
1.37
0.13
-1.09
-2.39
-3.83
-5.44
-7.21
-9.04
-10.87
-12.75
-14.75
-16.94
-19.39
-22.04
-24.78
-27.46
-29.88
-31.76
-32.7
-32.19
-29.81
-25.41
-19.23
-12
-4.69
1.79
6.78
10.09
11.93
12.7
12.82
12.57
12.09
11.46
10.77
10.16
9.82
9.9
10.4
11.19
12.07
12.82
13.36
13.71
13.94
14.13
14.29
14.3
14.05
13.43
12.39
10.95
9.26
7.45
5.75
4.32
3.23
2.48
1.92
1.33
0.56
-0.48
-1.71
-2.97
-4.12
-5.12
-6.07
-7.12
-8.45
-10.15
-12.19
-14.44
-16.73
-18.9
-20.81
-22.37
-23.6
-24.67
-25.83
-27.4
-29.59
-32.28
-35.02
-37.03
-37.41
-35.51
-31.14
-24.73
-17.14
-9.47
-2.65
2.74
6.54
8.91
10.2
10.75
10.87
10.77
10.59
10.47
10.48
10.61
10.85
11.09
11.29
11.43
11.52
11.62
11.77
11.95
12.12
12.15
11.89
11.24
10.2
8.8
7.18
5.48
3.88
2.51
1.48
0.82
0.46
0.21
-0.13
-0.73
-1.63
-2.72
-3.84
-4.8
-5.56
-6.18
-6.82
-7.66
-8.77
-10.17
-11.76
-13.42
-15.02
-16.48
-17.79
-19.04
-20.4
-22.03
-24.03
-26.27
-28.39
-29.79
-29.81
-27.93
-23.97
-18.27
-11.57
-4.83
1.07
5.55
8.49
10.07
10.64
10.53
9.89
8.83
7.45
5.97
4.65
3.77
3.44
3.63
4.19
4.89
5.6
6.25
6.83
7.35
7.77
8.05
8.08
7.77
7.05
5.93
4.5
2.9
1.36
0.05
-0.9
-1.55
-2.08
-2.79
-3.89
-5.5
-7.53
-9.75
-11.89
-13.74
-15.27
-16.57
-17.85
-19.28
-21.01
-23.06
-25.41
-27.87
-30.1
-31.59
-31.78
-30.17
-26.61
-21.3
-14.86
-8.09
-1.78
3.51
7.46
10.09
11.57
12.19
12.23
11.94
11.48
10.93
10.36
9.85
9.51
9.51
9.91
10.68
11.63
12.53
13.15
13.39
13.29
12.95
12.43
11.73
10.78
9.49
7.83
5.86
3.71
1.53
-0.53
-2.36
-3.92
-5.23
-6.4
-7.58
-8.88
-10.37
-12.01
-13.73
-15.42
-16.99
-18.45
-19.82
-21.23
-22.84
-24.81
-27.33
-30.41
-33.81
-36.98
-39.08
-39.29
-36.99
-32.08
-25.02
-16.81
-8.6
-1.38
4.28
8.31
11.02
12.83
14.08
14.88
15.24
15.17
14.75
14.21
13.8
13.73
14.04
14.69
15.52
16.39
17.22
17.94
18.49
18.81
18.81
18.41
17.55
16.23
14.51
12.58
10.6
8.7
6.9
5.14
3.34
1.49
-0.35
-2.14
-3.83
-5.51
-7.3
-9.25
-11.34
-13.39
-15.23
-16.77
-18.03
-19.2
-20.55
-22.26
-24.47
-27.14
-29.99
-32.55
-34.16
-34.15
-32.05
-27.79
-21.76
-14.71
-7.55
-1.06
4.26
8.22
10.89
12.5
13.29
13.5
13.33
12.94
12.44
11.95
11.55
11.3
11.26
11.49
12.03
12.84
13.84
14.85
15.63
15.97
15.75
14.96
13.68
12.04
10.15
8.09
5.9
3.61
1.29
-1.04
-3.37
-5.68
-8
-10.29
-12.44
-14.35
-15.99
-17.45
-18.91
-20.6
-22.59
-24.77
-26.74
-27.93
-27.71
-25.68
-21.73
-16.16
-9.57
-2.7
3.73
9.23
13.48
16.42
18.14
18.81
18.64
17.82
16.59
15.15
13.76
12.62
11.93
11.78
12.16
13
14.12
15.31
16.37
17.15
17.58
17.62
17.29
16.63
15.63
14.27
12.46
10.18
7.42
4.29
0.95
-2.42
-5.69
-8.74
-11.54
-14.09
-16.38
-18.47
-20.45
-22.48
-24.77
-27.48
-30.55
-33.59
-35.88
-36.51
-34.74
-30.31
-23.55
-15.35
-6.89
0.83
7.18
11.99
15.45
17.8
19.24
19.81
19.53
18.48
16.93
15.3
14.01
13.38
13.48
14.17
15.19
16.29
17.29
18.13
18.8
19.27
19.44
19.17
18.3
16.75
14.63
12.14
9.58
7.2
5.08
3.15
1.2
-0.97
-3.41
-6.04
-8.65
-11.03
-13.12
-15.02
-16.98
-19.26
-22.08
-25.48
-29.32
-33.21
-36.52
-38.51
-38.44
-35.85
-30.74
-23.61
-15.31
-6.81
1.09
7.84
13.2
17.13
19.71
21.09
21.45
21.05
20.16
19.08
18.03
17.21
16.74
16.66
16.96
17.58
18.42
19.39
20.36
21.21
21.79
21.9
21.38
20.18
18.38
16.19
13.84
11.51
9.23
6.96
4.59
2.07
-0.55
-3.15
-5.63
-7.9
-9.96
-11.89
-13.76
-15.72
-17.87
-20.33
-23.19
-26.37
-29.56
-32.2
-33.49
-32.69
-29.38
-23.68
-16.31
-8.34
-0.84
5.43
10.24
13.72
16.16
17.77
18.58
18.54
17.69
16.2
14.43
12.8
11.66
11.18
11.34
11.98
12.85
13.71
14.33
14.58
14.46
14.07
13.5
12.81
11.95
10.78
9.14
6.98
4.37
1.51
-1.38
-4.13
-6.65
-8.94
-11.03
-12.98
-14.87
-16.82
-18.99
-21.45
-24.07
-26.42
-27.82
-27.56
-25.13
-20.53
-14.23
-7.08
-0.03
6.18
11.12
14.71
17.05
18.34
18.74
18.39
17.46
16.12
14.57
13.03
11.72
10.78
10.3
10.28
10.64
11.25
11.94
12.53
12.89
12.9
12.46
11.53
10.09
8.19
5.93
3.46
0.95
-1.48
-3.74
-5.84
-7.83
-9.76
-11.68
-13.62
-15.59
-17.65
-19.94
-22.61
-25.75
-29.16
-32.42
-34.77
-35.4
-33.67
-29.36
-22.81
-14.84
-6.52
1.12
7.37
11.96
14.97
16.67
17.41
17.45
17
16.27
15.45
14.74
14.3
14.17
14.33
14.74
15.36
16.18
17.19
18.3
19.29
19.89
19.87
19.08
17.59
15.56
13.19
10.67
8.09
5.48
2.81
0.09
-2.69
-5.51
-8.38
-11.27
-14.14
-16.94
-19.6
-22.2
-24.83
-27.7
-30.87
-34.19
-37.15
-38.98
-38.83
-36.1
-30.71
-23.17
-14.51
-5.88
1.76
7.83
12.26
15.3
17.34
18.7
19.57
20
20.01
19.67
19.12
18.54
18.11
17.97
18.14
18.55
19.13
19.75
20.34
20.84
21.19
21.3
21.03
20.24
18.81
16.76
14.24
11.52
8.83
6.33
3.96
1.58
-1.02
-3.92
-7.02
-10.12
-12.99
-15.56
-17.88
-20.14
-22.56
-25.35
-28.58
-32.17
-35.83
-39.04
-41.1
-41.26
-38.94
-33.96
-26.68
-17.91
-8.74
-0.23
6.88
12.21
15.8
17.92
18.94
19.22
18.96
18.3
17.31
16.16
15.04
14.25
14.02
14.43
15.41
16.66
17.82
18.6
18.86
18.62
18
17.06
15.81
14.23
12.27
9.94
7.35
4.62
1.93
-0.64
-3.07
-5.42
-7.76
-10.12
-12.47
-14.75
-16.97
-19.19
-21.59
-24.26
-27.13
-29.73
-31.33
-31.12
-28.52
-23.53
-16.7
-8.97
-1.36
5.36
10.77
14.77
17.4
18.82
19.13
18.52
17.25
15.64
14.02
12.67
11.8
11.53
11.88
12.8
14.13
15.66
17.12
18.23
18.78
18.67
17.84
16.44
14.62
12.58
10.42
8.12
5.55
2.59
-0.76
-4.37
-7.94
-11.24
-14.13
-16.68
-19.11
-21.66
-24.48
-27.61
-30.93
-34.13
-36.77
-38.27
-38.01
-35.53
-30.67
-23.73
-15.42
-6.69
1.48
8.35
13.5
16.91
18.83
19.57
19.52
18.98
18.19
17.36
16.69
16.32
16.33
16.75
17.46
18.32
19.19
19.98
20.63
21.13
21.37
21.26
20.65
19.46
17.7
15.5
13.05
10.52
8.03
5.57
3.08
0.41
-2.55
-5.82
-9.33
-12.9
-16.27
-19.22
-21.72
-23.9
-26.09
-28.65
-31.76
-35.3
-38.74
-41.27
-41.96
-40.14
-35.53
-28.43
-19.64
-10.2
-1.18
6.62
12.76
17.18
20.04
21.63
22.25
22.12
21.52
20.68
19.88
19.38
19.35
19.86
20.81
22.01
23.24
24.32
25.13
25.6
25.72
25.47
24.81
23.69
22.09
19.99
17.49
14.7
11.84
9.07
6.52
4.18
1.95
-0.37
-2.93
-5.78
-8.84
-11.87
-14.6
-16.85
-18.62
-20.17
-21.86
-24.15
-27.3
-31.31
-35.76
-39.9
-42.76
-43.43
-41.31
-36.32
-28.89
-19.88
-10.32
-1.22
6.67
12.86
17.2
19.74
20.8
20.8
20.22
19.43
18.65
18
17.49
17.16
17.07
17.34
18.04
19.13
20.46
21.78
22.83
23.4
23.37
22.67
21.35
19.52
17.32
14.88
12.28
9.53
6.59
3.46
0.15
-3.24
-6.6
-9.8
-12.73
-15.36
-17.71
-19.87
-21.96
-24.15
-26.58
-29.24
-31.85
-33.85
-34.51
-33.11
-29.25
-23.06
-15.17
-6.61
1.52
8.33
13.41
16.75
18.68
19.61
19.88
19.65
19.02
18.07
16.97
16.01
15.47
15.51
16.14
17.18
18.36
19.46
20.36
21.02
21.39
21.38
20.82
19.6
17.69
15.18
12.29
9.19
6.03
2.88
-0.25
-3.35
-6.38
-9.33
-12.17
-14.93
-17.67
-20.43
-23.24
-26.17
-29.27
-32.63
-36.14
-39.46
-41.92
-42.67
-40.94
-36.33
-29.05
-19.89
-10.05
-0.77
7.03
12.87
16.79
19.13
20.32
20.7
20.52
19.92
19.02
18.06
17.32
17.08
17.49
18.49
19.83
21.2
22.33
23.09
23.49
23.53
23.21
22.38
20.91
18.68
15.76
12.4
8.97
5.8
3.06
0.69
-1.54
-3.94
-6.73
-9.87
-13.17
-16.29
-18.99
-21.23
-23.21
-25.32
-27.92
-31.27
-35.3
-39.67
-43.73
-46.59
-47.35
-45.3
-40.15
-32.18
-22.26
-11.59
-1.46
7.13
13.62
18.01
20.64
22.02
22.62
22.75
22.57
22.15
21.61
21.08
20.72
20.64
20.92
21.52
22.37
23.41
24.54
25.64
26.5
26.84
26.36
24.87
22.38
19.11
15.47
11.87
8.65
5.94
3.7
1.78
-0.09
-2.12
-4.5
-7.25
-10.29
-13.44
-16.44
-19.14
-21.56
-23.91
-26.51
-29.7
-33.52
-37.64
-41.3
-43.51
-43.34
-40.2
-34.2
-26.01
-16.73
-7.55
0.58
7.1
11.87
15.06
16.99
17.92
18.13
17.79
17.06
16.16
15.3
14.71
14.54
14.85
15.6
16.64
17.78
18.88
19.76
20.27
20.24
19.52
18.07
16.01
13.6
11.16
8.89
6.77
4.64
2.28
-0.51
-3.69
-7.04
-10.29
-13.21
-15.74
-18
-20.28
-22.81
-25.78
-29.06
-32.3
-34.81
-35.84
-34.7
-30.98
-24.83
-16.82
-7.98
0.65
8.12
13.86
17.71
19.76
20.28
19.57
17.93
15.68
13.23
11.02
9.43
8.74
8.99
10.06
11.67
13.48
15.15
16.42
17.1
17.08
16.37
15.07
13.37
11.4
9.23
6.8
3.99
0.77
-2.79
-6.44
-9.93
-13.06
-15.79
-18.21
-20.54
-22.98
-25.71
-28.82
-32.26
-35.76
-38.74
-40.4
-39.93
-36.75
-30.87
-22.93
-14.05
-5.49
1.81
7.38
11.3
13.91
15.58
16.53
16.85
16.57
15.86
14.99
14.32
14.12
14.5
15.4
16.62
17.9
19
19.73
19.94
19.54
18.52
16.87
14.67
12.04
9.1
5.99
2.85
-0.29
-3.41
-6.48
-9.44
-12.22
-14.71
-16.88
-18.78
-20.54
-22.38
-24.56
-27.28
-30.69
-34.71
-38.94
-42.62
-44.74
-44.35
-40.91
-34.54
-26.06
-16.78
-7.99
-0.64
4.91
8.81
11.51
13.41
14.84
15.9
16.66
17.2
17.68
18.29
19.22
20.53
22.21
24.18
26.32
28.53
30.71
32.67
34.18
34.96
34.71
33.25
30.64
27.11
23.03
18.86
14.92
11.38
8.28
5.5
2.85
0.16
-2.7
-5.77
-8.88
-11.83
-14.38
-16.47
-18.21
-19.98
-22.23
-25.32
-29.29
-33.76
-37.98
-40.97
-41.81
-39.92
-35.22
-28.19
-19.68
-10.75
-2.37
4.74
10.21
14
16.28
17.3
17.34
16.67
15.51
14.1
12.7
11.64
11.16
11.43
12.41
13.92
15.64
17.26
18.52
19.25
19.38
18.9
17.86
16.38
14.69
13
11.54
10.39
9.49
8.65
7.67
6.41
4.87
3.11
1.24
-0.7
-2.81
-5.26
-8.25
-11.94
-16.32
-21.25
-26.35
-31.05
-34.6
-36.2
-35.21
-31.36
-24.97
-16.87
-8.22
-0.17
6.47
11.38
14.68
16.76
18.08
18.93
19.45
19.69
19.74
19.77
19.99
20.57
21.53
22.66
23.69
24.31
24.4
23.96
23.16
22.15
20.97
19.48
17.52
14.96
11.86
8.53
5.38
2.8
0.97
-0.19
-0.99
-1.84
-3.08
-4.87
-7.15
-9.74
-12.43
-15.08
-17.72
-20.45
-23.46
-26.95
-31.02
-35.58
-40.29
-44.44
-47.09
-47.25
-44.25
-38
-29.09
-18.66
-8.09
1.42
9.1
14.69
18.34
20.41
21.28
21.31
20.83
20.17
19.65
19.55
20.03
21.14
22.79
24.76
26.79
28.64
30.14
31.23
31.95
32.35
32.43
32.1
31.24
29.78
27.71
25.19
22.43
19.66
16.98
14.42
11.93
9.49
7.15
4.94
2.87
0.9
-1.09
-3.24
-5.69
-8.51
-11.64
-14.93
-18.23
-21.39
-24.37
-27.26
-30.24
-33.54
-37.31
-41.5
-45.74
-49.38
-51.46
-51.08
-47.58
-40.9
-31.66
-21.03
-10.42
-1.08
6.2
11.23
14.27
15.84
16.47
16.61
16.54
16.48
16.61
17.06
17.93
19.21
20.78
22.46
23.98
25.17
25.93
26.33
26.47
26.45
26.28
25.85
25.03
23.74
22.02
20
17.88
15.74
13.59
11.31
8.83
6.19
3.54
1.08
-1.06
-2.93
-4.74
-6.7
-8.96
-11.5
-14.12
-16.61
-18.84
-20.82
-22.69
-24.64
-26.87
-29.5
-32.59
-35.99
-39.36
-42.04
-43.17
-41.89
-37.72
-30.75
-21.75
-11.93
-2.61
5.19
10.97
14.74
16.84
17.67
17.57
16.76
15.44
13.87
12.36
11.26
10.76
10.92
11.62
12.64
13.74
14.72
15.47
15.97
16.24
16.23
15.87
15.08
13.75
11.92
9.7
7.31
4.92
2.66
0.5
-1.67
-4.01
-6.61
-9.45
-12.39
-15.22
-17.71
-19.77
-21.47
-23.07
-24.91
-27.28
-30.21
-33.34
-35.9
-36.95
-35.66
-31.64
-25.11
-16.9
-8.12
0.09
6.94
12.03
15.38
17.28
18.1
18.22
17.87
17.28
16.56
15.86
15.31
15.02
15.07
15.44
16.05
16.75
17.45
18.03
18.44
18.59
18.37
17.65
16.32
14.38
11.93
9.18
6.39
3.77
1.43
-0.65
-2.61
-4.61
-6.78
-9.17
-11.74
-14.36
-16.89
-19.21
-21.32
-23.32
-25.43
-27.95
-31.11
-34.97
-39.24
-43.17
-45.76
-45.98
-43.15
-37.23
-28.84
-19.12
-9.33
-0.57
6.59
11.94
15.65
17.99
19.24
19.64
19.4
18.77
18.02
17.45
17.25
17.52
18.17
19.03
19.9
20.65
21.21
21.58
21.77
21.76
21.5
20.88
19.74
18.02
15.69
12.88
9.85
6.95
4.46
2.49
0.93
-0.58
-2.38
-4.72
-7.57
-10.71
-13.8
-16.59
-18.93
-20.86
-22.53
-24.15
-26.01
-28.33
-31.19
-34.35
-37.24
-38.95
-38.58
-35.5
-29.66
-21.74
-12.82
-4.15
3.29
8.99
12.88
15.2
16.29
16.46
15.9
14.84
13.51
12.24
11.33
11.06
11.52
12.64
14.19
15.84
17.31
18.39
18.99
19.12
18.87
18.3
17.45
16.31
14.83
12.96
10.67
7.94
4.84
1.48
-1.94
-5.16
-7.93
-10.12
-11.78
-13.15
-14.57
-16.37
-18.74
-21.63
-24.76
-27.57
-29.38
-29.53
-27.59
-23.48
-17.56
-10.58
-3.39
3.18
8.59
12.64
15.34
16.87
17.39
17.06
16.04
14.56
12.91
11.44
10.44
10.04
10.26
10.91
11.79
12.69
13.46
13.96
14.12
13.87
13.16
12
10.41
8.45
6.17
3.65
1.01
-1.61
-4.03
-6.19
-8.05
-9.69
-11.27
-12.95
-14.86
-17.13
-19.78
-22.76
-25.8
-28.34
-29.67
-29.11
-26.24
-21.17
-14.48
-7.14
-0.16
5.66
9.92
12.64
14.12
14.76
14.91
14.82
14.57
14.22
13.81
13.44
13.25
13.35
13.73
14.28
14.84
15.28
15.52
15.57
15.46
15.14
14.51
13.44
11.85
9.82
7.57
5.36
3.37
1.59
-0.13
-2.03
-4.21
-6.66
-9.18
-11.53
-13.56
-15.26
-16.81
-18.48
-20.54
-23.16
-26.35
-29.88
-33.19
-35.52
-36.02
-34.08
-29.54
-22.86
-14.98
-7.06
-0.04
5.53
9.58
12.35
14.15
15.31
16.02
16.42
16.64
16.8
16.99
17.25
17.53
17.77
17.97
18.17
18.45
18.89
19.5
20.23
20.91
21.37
21.39
20.87
19.77
18.24
16.49
14.76
13.27
12.07
11.11
10.22
9.28
8.23
7.12
6.07
5.16
4.41
3.74
2.98
1.98
0.66
-0.96
-2.79
-4.73
-6.69
-8.61
-10.48
-12.32
-14.16
-16.02
-17.92
-19.82
-21.67
-23.43
-25.04
-26.54
-28.07
-29.81
-31.98
-34.71
-37.91
-41.19
-43.87
-45.1
-44.1
-40.46
-34.29
-26.28
-17.54
-9.23
-2.28
2.85
6.26
8.38
9.79
10.95
12.07
13.18
14.2
15.08
15.84
16.51
17.12
17.65
18.07
18.34
18.45
18.52
18.58
18.65
18.72
18.74
18.64
18.41
17.99
17.33
16.38
15.11
13.59
11.97
10.41
9.08
8.03
7.22
6.56
5.92
5.21
4.41
3.51
2.55
1.54
0.48
-0.61
-1.76
-2.98
-4.34
-5.89
-7.64
-9.55
-11.53
-13.49
-15.33
-16.99
-18.5
-19.93
-21.42
-23.12
-25.17
-27.65
-30.54
-33.54
-36.07
-37.39
-36.75
-33.77
-28.56
-21.77
-14.4
-7.49
-1.75
2.49
5.32
7.05
7.99
8.42
8.53
8.5
8.44
8.48
8.67
9.02
9.55
10.26
11.14
12.18
13.35
14.58
15.74
16.65
17.16
17.16
16.62
15.61
14.28
12.81
11.38
10.07
8.91
7.82
6.7
5.42
3.94
2.28
0.52
-1.19
-2.69
-3.93
-4.93
-5.8
-6.71
-7.82
-9.2
-10.83
-12.63
-14.5
-16.38
-18.24
-20.14
-22.22
-24.63
-27.45
-30.56
-33.53
-35.66
-36.14
-34.4
-30.31
-24.3
-17.25
-10.19
-3.95
0.99
4.57
7.04
8.72
9.9
10.82
11.57
12.25
12.9
13.59
14.43
15.47
16.74
18.17
19.64
21.04
22.29
23.36
24.16
24.62
24.54
23.79
22.28
20.06
17.33
14.38
11.51
8.91
6.69
4.88
3.49
2.46
1.64
0.89
0.05
-0.91
-1.91
-2.83
-3.58
-4.22
-4.94
-6.05
-7.83
-10.35
-13.48
-16.87
-20.14
-22.98
-25.28
-27.12
-28.77
-30.58
-32.87
-35.78
-39.11
-42.31
-44.54
-44.89
-42.72
-37.88
-30.8
-22.39
-13.78
-5.96
0.43
5.13
8.26
10.08
10.96
11.23
11.16
10.98
10.86
10.97
11.4
12.22
13.39
14.79
16.26
17.68
18.96
20.1
21.13
22.01
22.63
22.81
22.37
21.26
19.61
17.69
15.8
14.18
12.88
11.77
10.62
9.21
7.43
5.33
3.08
0.89
-1.08
-2.83
-4.43
-6.01
-7.65
-9.36
-11.05
-12.61
-13.96
-15.09
-16.12
-17.25
-18.7
-20.71
-23.41
-26.78
-30.49
-33.92
-36.24
-36.63
-34.54
-29.98
-23.53
-16.17
-9.04
-3.02
1.44
4.36
6.07
7
7.5
7.76
7.89
7.92
7.97
8.16
8.66
9.53
10.77
12.28
13.89
15.46
16.92
18.21
19.35
20.35
21.16
21.63
21.57
20.75
19.09
16.73
13.98
11.31
9.06
7.42
6.26
5.27
4.09
2.52
0.59
-1.53
-3.61
-5.52
-7.26
-8.97
-10.87
-13.19
-16.09
-19.66
-23.82
-28.26
-32.49
-35.78
-37.35
-36.49
-32.84
-26.51
-18.14
-8.74
0.55
8.76
15.23
19.78
22.57
23.98
24.46
24.41
24.12
23.76
23.48
23.38
23.57
24.08
24.84
25.65
26.23
26.39
26.06
25.37
24.5
23.6
22.62
21.32
19.39
16.61
12.97
8.65
3.87
-1.18
-6.42
-11.81
-17.28
-22.61
-27.5
-31.66
-34.89
-37.15
-38.53
-39.12
-38.98
-38.21
-36.97
-35.54
-34.3
-33.53
-33.19
-32.89
-31.89
-29.4
-24.9
-18.36
-10.36
-1.85
6.1
12.65
17.36
20.21
21.55
21.88
21.79
21.71
21.95
22.56
23.36
24.03
24.17
23.58
22.3
20.64
19.02
17.82
17.21
17.05
16.97
16.59
15.65
14.12
12.24
10.31
8.57
7.1
5.79
4.5
3.12
1.69
0.37
-0.69
-1.42
-1.94
-2.46
-3.24
-4.38
-5.85
-7.52
-9.24
-10.93
-12.62
-14.44
-16.53
-19.08
-22.16
-25.76
-29.72
-33.74
-37.39
-40.1
-41.27
-40.4
-37.16
-31.63
-24.26
-15.82
-7.21
0.69
7.27
12.24
15.61
17.63
18.64
19.01
19.07
19.05
19.1
19.3
19.67
20.27
21.13
22.22
23.49
24.83
26.07
27.08
27.74
27.93
27.59
26.63
25.05
22.91
20.35
17.51
14.56
11.52
8.39
5.11
1.69
-1.83
-5.26
-8.38
-11
-13
-14.5
-15.78
-17.18
-19.03
-21.44
-24.18
-26.74
-28.36
-28.3
-26.09
-21.69
-15.58
-8.59
-1.67
4.38
9.09
12.36
14.41
15.58
16.22
16.58
16.8
16.97
17.12
17.29
17.52
17.85
18.35
18.97
19.67
20.33
20.88
21.26
21.43
21.34
20.9
20.06
18.77
17.08
15.07
12.84
10.46
7.89
5.07
2
-1.22
-4.39
-7.3
-9.82
-12.06
-14.26
-16.75
-19.84
-23.62
-27.95
-32.34
-36.02
-38.11
-37.82
-34.7
-28.85
-20.91
-11.86
-2.76
5.56
12.56
18.03
21.94
24.38
25.53
25.6
24.9
23.78
22.5
21.28
20.25
19.46
18.96
18.76
18.82
19.02
19.22
19.24
18.96
18.31
17.29
15.95
14.32
12.47
10.42
8.19
5.8
3.26
0.66
-1.91
-4.34
-6.56
-8.66
-10.79
-13.2
-16.05
-19.39
-23.17
-27.16
-30.99
-34.12
-35.94
-35.82
-33.26
-28.11
-20.67
-11.7
-2.29
6.44
13.61
18.74
21.82
23.16
23.24
22.49
21.2
19.56
17.63
15.55
13.5
11.66
10.24
9.31
8.89
8.88
9.23
9.83
10.57
11.32
11.91
12.12
11.79
10.85
9.38
7.6
5.74
3.96
2.32
0.69
-1.11
-3.23
-5.7
-8.35
-10.91
-13.12
-14.95
-16.55
-18.32
-20.68
-23.92
-28.02
-32.57
-36.78
-39.69
-40.41
-38.37
-33.6
-26.63
-18.42
-10
-2.25
4.3
9.39
13.04
15.38
16.58
16.87
16.59
16.04
15.52
15.14
14.84
14.48
13.95
13.24
12.48
11.81
11.33
11.04
10.88
10.7
10.39
9.87
9.1
8.09
6.89
5.59
4.26
2.95
1.57
0
-1.85
-3.98
-6.31
-8.64
-10.81
-12.78
-14.6
-16.47
-18.56
-21.02
-23.81
-26.63
-28.9
-29.93
-29.11
-26.07
-20.97
-14.38
-7.17
-0.25
5.68
10.27
13.44
15.34
16.24
16.38
15.99
15.26
14.34
13.38
12.53
11.88
11.44
11.19
11.05
10.96
10.9
10.93
11.09
11.36
11.59
11.53
10.92
9.64
7.77
5.56
3.32
1.31
-0.39
-1.84
-3.22
-4.76
-6.56
-8.65
-10.9
-13.14
-15.17
-16.92
-18.41
-19.78
-21.23
-22.96
-25.17
-27.91
-30.96
-33.83
-35.72
-35.82
-33.5
-28.65
-21.74
-13.7
-5.63
1.55
7.29
11.45
14.15
15.64
16.17
15.97
15.25
14.23
13.08
11.96
11.01
10.41
10.33
10.82
11.83
13.11
14.37
15.35
15.91
16.09
15.98
15.65
15.06
14.13
12.74
10.9
8.74
6.47
4.27
2.24
0.39
-1.37
-3.1
-4.81
-6.49
-8.13
-9.81
-11.67
-13.86
-16.41
-19.2
-21.98
-24.46
-26.54
-28.34
-30.2
-32.5
-35.4
-38.65
-41.56
-43.17
-42.58
-39.29
-33.39
-25.51
-16.63
-7.77
0.24
6.9
11.95
15.35
17.2
17.77
17.46
16.72
15.97
15.48
15.3
15.37
15.6
15.94
16.4
17
17.68
18.36
18.94
19.33
19.54
19.59
19.46
19.09
18.37
17.2
15.59
13.64
11.55
9.55
7.8
6.35
5.14
3.99
2.7
1.11
-0.9
-3.33
-6.11
-8.99
-11.8
-14.34
-16.57
-18.53
-20.36
-22.22
-24.22
-26.42
-28.87
-31.64
-34.77
-38.17
-41.43
-43.86
-44.58
-42.84
-38.35
-31.45
-22.97
-14.06
-5.74
1.26
6.71
10.7
13.48
15.32
16.45
17.07
17.33
17.38
17.31
17.26
17.3
17.55
18.08
18.96
20.17
21.59
23
24.13
24.79
24.87
24.42
23.53
22.36
21
19.5
17.87
16.09
14.15
12.1
9.99
7.95
6.07
4.41
2.89
1.35
-0.41
-2.56
-5.07
-7.76
-10.31
-12.48
-14.14
-15.4
-16.51
-17.78
-19.46
-21.65
-24.4
-27.58
-30.93
-33.94
-35.96
-36.27
-34.3
-29.91
-23.46
-15.77
-7.85
-0.59
5.45
10.11
13.49
15.79
17.14
17.64
17.32
16.34
14.96
13.53
12.43
11.94
12.15
12.98
14.25
15.7
17.13
18.39
19.36
19.91
19.89
19.21
17.89
16.12
14.11
12.1
10.2
8.39
6.53
4.48
2.21
-0.25
-2.76
-5.15
-7.32
-9.22
-10.89
-12.42
-13.94
-15.66
-17.75
-20.27
-23.05
-25.59
-27.17
-27.02
-24.6
-19.83
-13.15
-5.53
1.97
8.44
13.34
16.63
18.57
19.54
19.88
19.77
19.27
18.43
17.41
16.42
15.74
15.56
15.91
16.72
17.84
19.09
20.33
21.45
22.24
22.52
22.15
21.06
19.37
17.28
14.99
12.66
10.36
8.09
5.89
3.79
1.76
-0.26
-2.36
-4.63
-7.07
-9.58
-12.06
-14.41
-16.71
-19.16
-21.88
-24.81
-27.55
-29.39
-29.52
-27.39
-22.9
-16.51
-9.09
-1.64
5.04
10.46
14.49
17.2
18.74
19.23
18.88
17.92
16.74
15.68
15.06
14.97
15.32
15.9
16.47
16.88
17.11
17.27
17.42
17.59
17.68
17.48
16.81
15.59
13.92
11.99
10.08
8.35
6.83
5.39
3.83
2
-0.13
-2.43
-4.74
-6.91
-8.85
-10.61
-12.35
-14.22
-16.37
-18.88
-21.72
-24.74
-27.58
-29.69
-30.46
-29.31
-25.99
-20.65
-13.9
-6.65
0.15
5.76
9.84
12.38
13.68
14.13
14.05
13.66
13.12
12.55
12.08
11.82
11.79
11.98
12.32
12.71
13.07
13.41
13.73
14.06
14.35
14.52
14.43
13.94
12.96
11.47
9.56
7.41
5.26
3.32
1.69
0.36
-0.84
-2.07
-3.49
-5.12
-6.86
-8.56
-10.04
-11.25
-12.26
-13.24
-14.45
-16.03
-18.06
-20.46
-22.96
-25.19
-26.68
-26.98
-25.76
-22.93
-18.65
-13.4
-7.8
-2.52
1.9
5.2
7.33
8.47
8.86
8.75
8.31
7.63
6.74
5.71
4.64
3.7
3.12
3.11
3.76
4.99
6.54
8.06
9.2
9.74
9.61
8.9
7.78
6.48
5.13
3.84
2.65
1.48
0.28
-1.03
-2.43
-3.89
-5.31
-6.61
-7.79
-8.85
-9.92
-11.15
-12.66
-14.53
-16.7
-18.93
-20.86
-22.02
-22
-20.57
-17.7
-13.61
-8.75
-3.67
1.09
5.07
8.01
9.87
10.75
10.82
10.29
9.29
7.96
6.45
4.96
3.73
2.92
2.61
2.74
3.2
3.8
4.44
5.05
5.56
5.91
6.04
5.88
5.38
4.52
3.29
1.76
0
-1.92
-3.9
-5.9
-7.88
-9.79
-11.52
-13.02
-14.2
-15.09
-15.82
-16.59
-17.65
-19.17
-21.14
-23.38
-25.47
-26.81
-26.8
-25
-21.37
-16.35
-10.73
-5.4
-1.05
2.02
3.94
4.99
5.46
5.48
5.01
4.01
2.56
0.95
-0.44
-1.23
-1.19
-0.33
1.2
3.12
5.18
7.21
9.13
10.89
12.4
13.57
14.34
14.73
14.83
14.73
14.48
14.04
13.29
12.1
10.38
8.17
5.52
2.54
-0.69
-4.06
-7.43
-10.67
-13.69
-16.5
-19.18
-21.87
-24.71
-27.66
-30.49
-32.78
-33.92
-33.39
-30.89
-26.49
-20.69
-14.3
-8.17
-2.99
0.87
3.43
4.97
5.84
6.34
6.62
6.74
6.74
6.7
6.77
7.08
7.71
8.58
9.54
10.38
10.97
11.29
11.38
11.3
11.1
10.76
10.22
9.4
8.2
6.53
4.38
1.85
-0.89
-3.58
-5.99
-8
-9.56
-10.75
-11.7
-12.54
-13.37
-14.28
-15.27
-16.23
-16.81
-16.47
-14.63
-10.93
-5.41
1.44
8.83
15.87
21.88
26.44
29.39
30.71
30.42
28.58
25.39
21.27
16.78
12.54
8.98
6.29
4.4
3.08
2.12
1.37
0.81
0.43
0.22
0.08
-0.2
-0.83
-2
-3.78
-6.09
-8.69
-11.26
-13.52
-15.34
-16.78
-18.09
-19.61
-21.61
-24.2
-27.25
-30.43
-33.26
-35.23
-35.92
-35.06
-32.58
-28.68
-23.74
-18.35
-13.12
-8.62
-5.18
-2.9
-1.67
-1.27
-1.47
-2.14
-3.09
-4.09
-4.85
-5.09
-4.6
-3.3
-1.15
1.83
5.62
10.09
14.93
19.57
23.43
26.1
27.46
27.78
27.46
26.86
26.16
25.34
24.4
23.4
22.55
22
21.86
22.05
22.52
23.3
24.61
26.81
30.26
35.16
41.43
48.68
56.27
63.5
69.76
74.52
77.42
78.12
76.36
71.9
64.81
55.45
44.64
33.41
22.73
13.22
5.06
-1.94
-8
-13.16
-17.28
-20.25
-22.27
-23.91
-25.99
-29.19
-33.71
-39.19
-44.87
-50.02
-54.21
-57.44
-60.07
-62.62
-65.54
-69.08
-73.21
-77.6
-81.76
-85.14
-87.38
-88.48
-88.86
-89.18
-90.11
-91.9
-94.25
-96.36
-97.15
-95.61
-91.24
-84.12
-74.97
-64.78
-54.57
-45.07
-36.64
-29.35
-23.12
-17.83
-13.42
-9.77
-6.68
-3.89
-1.18
1.46
3.76
5.22
5.33
3.79
0.66
-3.67
-8.73
-14.1
-19.52
-24.76
-29.39
-32.67
-33.6
-31.32
-25.52
-16.77
-6.38
3.99
12.9
19.56
23.94
26.57
28.07
28.82
28.77
27.52
24.54
19.44
12.28
3.7
-5.12
-12.61
-17.24
-17.84
-13.85
-5.42
6.78
21.83
38.7
56.35
73.74
89.95
104.24
116.22
125.82
133.22
138.5
141.32
140.88
136.03
125.73
109.59
88.19
63.15
36.78
11.59
-10.27
-27.31
-38.86
-45.04
-46.47
-44.1
-39
-32.18
-24.53
-16.76
-9.38
-2.72
3
7.67
11.19
13.46
14.38
13.79
11.63
7.97
3.08
-2.57
-8.42
-13.9
-18.56
-22.07
-24.27
-25.2
-25.06
-24.28
-23.31
-22.6
-22.47
-23.01
-24.03
-25.26
-26.34
-27
-27.14
-26.82
-26.25
-25.78
-25.71
-26.1
-26.62
-26.51
-24.85
-20.8
-14.04
-4.87
5.81
16.79
26.89
35.28
41.56
45.69
47.89
48.47
47.74
46.03
43.69
41.08
38.55
36.41
34.89
34.08
33.95
34.39
35.24
36.37
37.66
38.98
40.17
41.01
41.25
40.64
39
36.23
32.35
27.46
21.8
15.65
9.36
3.2
-2.6
-7.95
-12.85
-17.35
-21.51
-25.36
-28.82
-31.63
-33.38
-33.55
-31.66
-27.43
-20.96
-12.81
-3.81
5.06
12.95
19.3
23.82
26.55
27.73
27.76
27.11
26.21
25.37
24.74
24.34
24.1
23.92
23.66
23.11
21.99
19.99
16.88
12.66
7.54
1.86
-3.99
-9.78
-15.41
-20.8
-25.8
-30.07
-33.15
-34.69
-34.52
-32.85
-30.11
-26.84
-23.46
-20.19
-17.06
-13.95
-10.66
-6.86
-2.12
4.11
12.29
22.51
34.32
46.72
58.36
67.93
74.51
77.71
77.65
74.69
69.31
61.99
53.23
43.61
33.83
24.55
16.26
9.18
3.25
-1.78
-6.17
-10.06
-13.5
-16.39
-18.7
-20.39
-21.59
-22.43
-23.02
-23.38
-23.4
-22.87
-21.55
-19.33
-16.27
-12.68
-8.99
-5.6
-2.83
-0.78
0.5
1.04
0.9
0.22
-0.73
-1.58
-1.97
-1.72
-0.97
-0.1
0.5
0.67
0.62
0.83
1.76
3.56
5.97
8.47
10.53
11.89
12.52
12.5
11.83
10.3
7.6
3.56
-1.7
-7.74
-14.02
-20.14
-26.02
-31.8
-37.66
-43.57
-49.2
-54.05
-57.6
-59.49
-59.57
-57.79
-54.15
-48.58
-40.98
-31.2
-19.07
-4.4
13
33.07
55.31
78.56
101.08
120.81
135.78
144.63
146.95
143.32
135.1
124.08
111.96
100.06
88.97
78.58
68.24
57.07
44.35
29.87
14.14
-1.67
-16.05
-27.65
-35.74
-40.43
-42.61
-43.54
-44.34
-45.64
-47.37
-48.92
-49.44
-48.09
-44.16
-37.23
-27.24
-14.6
-0.38
13.8
26.09
34.84
39.13
39
35.37
29.69
23.49
17.99
13.97
11.81
11.51
12.81
15.01
17.15
17.99
16.42
11.77
3.99
-6.25
-17.78
-29.25
-39.45
-47.52
-53.05
-56.04
-56.78
-55.75
-53.38
-49.99
-45.68
-40.5
-34.54
-28.14
-21.9
-16.61
-13.02
-11.6
-12.47
-15.43
-20.11
-26.1
-32.96
-40.19
-47.2
-53.42
-58.32
-61.62
-63.23
-63.24
-61.79
-59
-54.98
-49.93
-44.22
-38.45
-33.39
-29.86
-28.47
-29.48
-32.7
-37.55
-43.21
-48.94
-54.17
-58.63
-62.21
-64.78
-66.06
-65.64
-63.11
-58.28
-51.28
-42.6
-32.95
-23.12
-13.77
-5.4
1.73
7.48
11.89
15.07
17.21
18.58
19.42
19.89
20.11
20.1
19.83
19.3
18.47
17.38
16.13
14.88
13.88
13.29
13.24
13.61
14.11
14.31
13.82
12.47
10.34
7.74
5.03
2.5
0.25
-1.76
-3.66
-5.55
-7.45
-9.32
-11.06
-12.53
-13.53
-13.81
-13.08
-11.15
-8.07
-4.12
0.19
4.27
7.67
10.1
11.53
12.11
12.1
11.75
11.27
10.79
10.31
9.7
8.82
7.56
5.91
4.05
2.19
0.53
-0.84
-1.94
-2.87
-3.73
-4.59
-5.49
-6.54
-7.83
-9.45
-11.39
-13.53
-15.66
-17.61
-19.26
-20.65
-21.88
-23.11
-24.36
-25.57
-26.49
-26.75
-25.97
-23.94
-20.68
-16.49
-11.87
-7.35
-3.35
-0.1
2.39
4.19
5.4
6.12
6.41
6.39
6.14
5.76
5.33
4.91
4.58
4.39
4.44
4.71
5.19
5.77
6.31
6.7
6.87
6.74
6.29
5.55
4.62
3.71
3.01
2.62
2.5
2.31
1.62
0.02
-2.57
-5.88
-9.2
-11.77
-13.03
-12.86
-11.6
-9.81
-7.99
-6.38
-4.99
-3.67
-2.34
-1.01
0.26
1.46
2.65
3.92
5.32
6.72
8.01
9.06
9.91
10.7
11.54
12.46
13.24
13.58
13.07
11.47
8.63
4.59
-0.43
-6.15
-12.22
-18.34
-24.34
-30.15
-35.75
-41.13
-46.15
-50.51
-53.82
-55.63
-55.57
-53.46
-49.33
-43.52
-36.64
-29.54
-23.02
-17.81
-14.19
-12.09
-11.13
-10.83
-10.82
-10.86
-10.92
-10.94
-10.85
-10.47
-9.57
-7.88
-5.03
-0.54
6.13
15.34
27.14
40.94
55.6
69.53
81.09
88.96
92.43
91.43
86.46
78.39
68.18
56.8
45.03
33.43
22.32
11.78
1.74
-7.96
-17.45
-26.69
-35.38
-42.87
-48.26
-50.62
-49.31
-44.16
-35.66
-24.86
-13.08
-1.65
8.45
16.66
22.93
27.49
30.71
32.87
34.15
34.54
33.96
32.33
29.51
25.44
19.95
12.93
4.45
-5.03
-14.52
-22.65
-28.04
-29.76
-27.67
-22.42
-15.16
-7.11
0.8
8.14
14.75
20.59
25.46
29.12
31.31
31.93
31.09
29.09
26.31
23.02
19.38
15.39
10.97
5.99
0.4
-5.76
-12.27
-18.75
-24.66
-29.3
-32
-32.25
-29.9
-25.22
-18.79
-11.4
-3.81
3.38
9.78
15.26
19.76
23.34
26.05
27.97
29.17
29.76
29.89
29.7
29.38
29.09
28.96
29.04
29.3
29.66
30.06
30.41
30.65
30.69
30.41
29.68
28.47
26.79
24.75
22.47
20.08
17.68
15.36
13.15
11.06
9.07
7.08
4.99
2.74
0.33
-2.21
-4.76
-7.22
-9.52
-11.59
-13.47
-15.28
-17.19
-19.44
-22.21
-25.48
-28.96
-32.05
-33.99
-34.08
-31.87
-27.3
-20.79
-13.12
-5.21
2.05
8.08
12.63
15.85
18.06
19.67
20.91
21.83
22.36
22.4
21.96
21.19
20.33
19.61
19.18
19.08
19.29
19.77
20.51
21.46
22.49
23.39
23.88
23.75
22.9
21.43
19.52
17.42
15.27
13.15
11.08
9.06
7.1
5.21
3.36
1.46
-0.58
-2.81
-5.17
-7.46
-9.48
-11.09
-12.28
-13.27
-14.39
-15.92
-18.05
-20.74
-23.68
-26.43
-28.41
-29.04
-27.89
-24.76
-19.78
-13.43
-6.45
0.39
6.38
11.12
14.47
16.52
17.49
17.57
16.97
15.86
14.5
13.15
12.1
11.49
11.34
11.5
11.76
11.98
12.1
12.2
12.34
12.54
12.65
12.5
11.91
10.79
9.18
7.2
5.03
2.8
0.65
-1.35
-3.2
-4.97
-6.76
-8.68
-10.75
-12.93
-15.08
-17.07
-18.84
-20.48
-22.17
-24.13
-26.43
-28.94
-31.26
-32.83
-33.07
-31.57
-28.28
-23.53
-17.89
-12.03
-6.5
-1.6
2.58
6.04
8.82
10.95
12.44
13.46
14.27
15.2
16.45
18.04
19.71
21.07
21.7
21.35
20.01
17.89
15.3
12.54
9.82
7.27
4.91
2.78
0.93
-0.58
-1.66
-2.21
-2.14
-1.37
0.11
2.2
4.63
6.96
8.67
9.24
8.38
6
2.31
-2.39
-7.75
-13.5
-19.49
-25.56
-31.48
-36.81
-40.93
-43.2
-43.14
-40.59
-35.85
-29.56
-22.55
-15.51
-8.93
-3.05
2.09
6.46
10.03
12.72
14.44
15.21
15.17
14.57
13.7
12.88
12.29
12.02
12.05
12.26
12.54
12.79
13.01
13.25
13.55
13.87
14.09
14.04
13.55
12.59
11.24
9.62
7.9
6.16
4.44
2.73
1.07
-0.59
-2.27
-4.11
-6.2
-8.6
-11.24
-13.94
-16.49
-18.78
-20.82
-22.75
-24.74
-26.9
-29.24
-31.65
-33.92
-35.74
-36.69
-36.32
-34.24
-30.27
-24.61
-17.8
-10.6
-3.78
2.04
6.61
9.87
12
13.23
13.78
13.79
13.4
12.69
11.74
10.68
9.63
8.8
8.4
8.58
9.39
10.76
12.51
14.36
16.07
17.4
18.2
18.35
17.8
16.56
14.75
12.53
10.1
7.62
5.15
2.7
0.21
-2.38
-5.07
-7.86
-10.66
-13.38
-15.9
-18.06
-19.72
-20.87
-21.58
-22.05
-22.58
-23.42
-24.64
-26.13
-27.56
-28.43
-28.19
-26.42
-22.98
-18.1
-12.3
-6.32
-0.83
3.64
6.89
8.99
10.13
10.55
10.43
9.87
8.96
7.83
6.62
5.53
4.73
4.36
4.5
5.14
6.23
7.64
9.18
10.66
11.9
12.77
13.19
13.11
12.51
11.38
9.72
7.59
5.1
2.38
-0.38
-3.03
-5.47
-7.67
-9.66
-11.53
-13.37
-15.31
-17.44
-19.79
-22.28
-24.67
-26.61
-27.61
-27.23
-25.18
-21.43
-16.28
-10.27
-4.07
1.68
6.53
10.21
12.67
13.98
14.31
13.89
12.95
11.76
10.5
9.38
8.49
7.91
7.66
7.74
8.12
8.7
9.41
10.09
10.65
10.97
10.99
10.63
9.86
8.63
6.93
4.78
2.24
-0.59
-3.54
-6.47
-9.25
-11.86
-14.37
-16.98
-19.88
-23.19
-26.84
-30.42
-33.33
-34.82
-34.31
-31.5
-26.54
-20.02
-12.77
-5.67
0.63
5.75
9.65
12.43
14.28
15.3
15.56
15.07
13.93
12.35
10.67
9.29
8.52
8.5
9.16
10.24
11.44
12.48
13.23
13.64
13.82
13.79
13.57
13.06
12.12
10.62
8.46
5.7
2.46
-0.98
-4.35
-7.41
-9.99
-12.1
-13.9
-15.67
-17.68
-20.19
-23.25
-26.67
-29.99
-32.53
-33.6
-32.7
-29.69
-24.79
-18.59
-11.77
-4.99
