1.99
2.93
3.56
3.92
4.29
4.99
6.12
7.51
8.85
9.92
10.81
11.92
13.76
16.71
20.83
25.78
30.87
35.29
38.32
39.61
39.19
37.5
35.17
32.85
31.01
29.74
28.94
28.37
27.83
27.21
26.53
25.91
25.55
25.76
26.81
28.54
30.16
30.22
27.11
19.69
8.03
-6.49
-21.64
-35.17
-45.77
-53.39
-59.09
-64.36
-70.41
-77.79
-86.31
-95.18
-103.27
-109.39
-112.64
-112.78
-110.46
-107.18
-104.87
-105.12
-108.58
-114.62
-121.41
-126.6
-128.09
-124.65
-116.27
-103.78
-88.42
-71.29
-52.93
-33.47
-12.72
9.36
32.6
56.55
80.49
103.25
122.98
137.16
143.05
138.48
122.84
97.69
66.53
33.9
4.2
-19.36
-35.12
-42.83
-43.24
-37.65
-27.68
-15.19
-2.11
9.92
19.93
27.69
33.63
38.39
42.38
45.51
47.23
46.73
43.51
37.63
29.8
21.15
12.87
5.75
0.03
-4.52
-8.45
-12.25
-16.24
-20.59
-25.24
-29.98
-34.41
-37.96
-40
-40.09
-38.15
-34.58
-30.1
-25.48
-21.27
-17.72
-14.78
-12.29
-10.04
-7.8
-5.32
-2.34
1.33
5.7
10.72
16.36
22.72
29.99
38.35
47.68
57.42
66.69
74.5
80.13
83.38
84.56
84.28
83.19
81.7
79.91
77.77
75.28
72.62
70.18
68.37
67.46
67.35
67.63
67.71
67.03
65.38
62.84
59.76
56.54
53.44
50.52
47.68
44.75
41.58
38.04
33.99
29.24
23.57
16.81
8.94
0.09
-9.45
-19.43
-29.62
-39.85
-49.82
-59.09
-67.06
-73.15
-77.01
-78.66
-78.53
-77.29
-75.67
-74.21
-73.09
-72.04
-70.16
-66.17
-58.78
-47.32
-32.27
-15.32
1.11
14.65
23.82
28.39
29.12
27.18
23.51
18.63
12.82
6.52
0.51
-4.26
-7.03
-7.63
-6.55
-4.7
-3.07
-2.36
-2.77
-3.99
-5.45
-6.51
-6.74
-5.98
-4.38
-2.29
-0.15
1.68
3.03
3.89
4.44
4.8
5.05
5.16
5.03
4.67
4.11
3.52
3.1
2.92
2.94
2.94
2.57
1.52
-0.44
-3.35
-7.1
-11.43
-16.08
-20.74
-25.18
-29.2
-32.74
-35.83
-38.58
-41.15
-43.71
-46.37
-49.17
-52.16
-55.3
-58.51
-61.58
-64.18
-65.94
-66.56
-65.93
-64.19
-61.75
-59.1
-56.61
-54.48
-52.66
-50.99
-49.24
-47.16
-44.53
-41.11
-36.76
-31.42
-25.25
-18.53
-11.65
-4.91
1.53
7.67
13.58
19.38
25.05
30.56
35.79
40.63
44.94
48.66
51.77
54.3
56.35
57.9
58.81
58.78
57.51
54.81
50.79
45.82
40.45
35.17
30.3
25.84
21.57
17.12
12.19
6.67
0.77
-5.04
-10.27
-14.63
-18.33
-21.95
-26.22
-31.55
-37.8
-44.23
-49.93
-54.29
-57.38
-59.98
-63.14
-67.6
-73.29
-79.28
-84.04
-86.06
-84.32
-78.4
-68.38
-54.63
-37.67
-18.24
2.74
24.27
45.67
66.71
87.65
108.36
127.46
141.73
146.62
137.89
113.6
75.37
28.23
-21
-65.91
-102.2
-128.09
-143.85
-150.57
-149.48
-141.58
-127.85
-109.47
-87.84
-64.33
-40.02
-15.77
7.65
29.49
48.93
65.22
77.82
86.4
91
92.02
90.14
86.3
81.48
76.49
71.75
67.17
62.33
56.72
50.18
43.15
36.72
32.3
31.12
33.7
39.63
47.57
55.82
62.8
67.53
69.82
70.13
69.39
68.59
68.61
69.92
72.56
76.02
79.53
82.22
83.48
83.14
81.47
78.91
75.86
72.54
68.92
64.96
60.69
56.27
51.88
47.5
42.82
37.34
30.48
21.93
11.71
0.25
-11.71
-23.34
-33.93
-42.96
-50.11
-55.18
-57.96
-58.27
-56.02
-51.31
-44.5
-36.17
-27.02
-17.64
-8.46
0.28
8.38
15.66
21.92
26.99
30.84
33.63
35.66
37.32
38.95
40.73
42.72
44.85
46.9
48.62
49.59
49.38
47.54
43.82
38.32
31.54
24.28
17.34
11.35
6.52
2.77
-0.25
-2.9
-5.54
-8.46
-11.89
-16.06
-21.02
-26.61
-32.46
-38
-42.69
-46.17
-48.35
-49.4
-49.71
-49.68
-49.65
-49.7
-49.73
-49.45
-48.48
-46.52
-43.37
-39.17
-34.37
-29.8
-26.39
-24.9
-25.6
-28.01
-31.11
-33.52
-34.08
-32.22
-28.1
-22.54
-16.59
-11.31
-7.39
-5.14
-4.52
-5.21
-6.79
-8.77
-10.77
-12.49
-13.8
-14.69
-15.28
-15.81
-16.57
-17.86
-19.91
-22.84
-26.59
-30.96
-35.68
-40.49
-45.21
-49.69
-53.88
-57.68
-61.04
-63.91
-66.33
-68.42
-70.47
-72.88
-75.94
-79.77
-84.17
-88.73
-92.95
-96.55
-99.48
-101.92
-104.14
-106.25
-108.23
-110.03
-111.75
-113.51
-115.07
-115.48
-113.06
-106.01
-93.35
-75.73
-55.46
-35.77
-19.64
-8.83
-3.68
-3.53
-7.47
-14.66
-24.14
-34.38
-43.12
-47.91
-47.07
-40.55
-30.08
-18.44
-8.24
-1
3.35
6.04
8.51
11.66
15.37
18.76
20.87
21.43
21.18
21.63
24.45
30.63
40.03
51.36
62.83
73.03
81.55
89.12
97.28
107.67
121.33
138.28
157.43
176.76
193.66
205.31
209.21
203.65
188.32
164.51
135.07
103.88
74.93
51.47
35.25
26.45
23.93
25.87
30.32
35.64
40.59
44.36
46.49
46.83
45.63
43.41
40.85
38.53
36.75
35.36
33.81
31.33
27.31
21.55
14.39
6.66
-0.67
-6.81
-11.55
-15.32
-18.96
-23.45
-29.5
-37.4
-46.99
-57.73
-68.96
-79.94
-89.99
-98.51
-105.12
-109.75
-112.58
-114
-114.4
-113.98
-112.82
-110.91
-108.31
-105.25
-101.9
-98.26
-93.96
-88.38
-80.86
-71.07
-59.08
-45.35
-30.44
-14.82
1.22
17.37
33.1
47.56
59.69
68.53
73.49
74.56
72.32
67.73
61.86
55.76
50.26
45.93
43.09
41.79
41.82
42.78
44.24
45.74
47.02
47.96
48.65
49.3
50.06
51.11
52.53
54.47
57.05
60.36
64.43
69.06
73.94
78.71
83.06
86.82
89.97
92.54
94.64
96.54
98.82
102.35
107.93
115.84
125.33
134.67
141.51
143.85
140.73
132.57
120.87
107.45
93.82
80.8
68.8
58.05
48.99
42.09
37.62
35.46
34.98
35.35
35.76
35.71
35.05
33.81
32.02
29.5
25.86
20.66
13.58
4.74
-5.23
-15.36
-24.73
-32.79
-39.62
-45.74
-51.82
-58.2
-64.68
-70.73
-75.67
-79.15
-81.19
-82.18
-82.5
-82.3
-81.38
-79.3
-75.72
-70.53
-64.03
-56.68
-48.98
-41.27
-33.74
-26.58
-20.01
-14.32
-9.68
-5.95
-2.71
0.56
4.21
8.28
12.5
16.58
20.43
24.25
28.43
33.21
38.6
44.35
50.16
55.93
61.77
67.97
74.75
82.18
90.09
98.17
106.05
113.44
120.11
125.87
130.49
133.78
135.68
136.35
136.18
135.54
134.53
132.67
128.9
121.88
110.47
94.31
74.02
51.05
27.17
3.95
-17.75
-37.78
-56.45
-74.16
-91.05
-106.83
-120.86
-132.48
-141.22
-147.07
-150.41
-151.9
-152.26
-152.04
-151.6
-151.09
-150.61
-150.19
-149.82
-149.47
-148.95
-148.03
-146.44
-143.98
-140.58
-136.34
-131.49
-126.39
-121.38
-116.77
-112.82
-109.65
-107.32
-105.74
-104.78
-104.18
-103.7
-103.12
-102.31
-101.29
-100.07
-98.65
-96.96
-94.84
-92.14
-88.8
-84.88
-80.45
-75.46
-69.69
-62.79
-54.46
-44.46
-32.79
-19.5
-4.67
11.62
29.12
47.2
64.65
79.86
91.21
97.58
98.79
95.65
89.7
82.63
75.84
70.12
65.69
62.46
60.17
58.6
57.48
56.46
55.21
53.55
51.62
49.73
48.15
46.77
45
41.92
36.69
28.99
19.25
8.42
-2.45
-12.66
-22.13
-31.26
-40.62
-50.67
-61.53
-73.11
-85.18
-97.47
-109.65
-121.48
-132.72
-143.38
-153.65
-163.9
-174.24
-184.29
-192.88
-198.2
-198.27
-191.46
-176.99
-155.13
-127.15
-94.92
-60.64
-26.52
5.47
33.72
57.15
75.21
87.94
95.88
99.89
101
100.19
98.26
95.73
92.86
89.76
86.46
83.06
79.67
76.42
73.31
70.3
67.25
64.06
60.71
57.27
53.82
50.36
46.79
42.98
38.89
34.7
30.69
27.22
24.53
22.66
21.47
20.74
20.31
20.17
20.39
21.05
22.19
23.67
25.33
26.95
28.43
29.71
30.79
31.69
32.35
32.64
32.36
31.25
29.12
25.96
21.93
17.33
12.58
7.96
3.63
-0.46
-4.45
-8.51
-12.71
-17.03
-21.36
-25.57
-29.55
-33.22
-36.55
-39.57
-42.3
-44.86
-47.27
-49.56
-51.69
-53.64
-55.41
-57.05
-58.62
-60.09
-61.36
-62.21
-62.41
-61.78
-60.3
-58.04
-55.23
-52.17
-49.11
-46.27
-43.72
-41.45
-39.39
-37.44
-35.5
-33.44
-31.11
-28.43
-25.48
-22.51
-19.81
-17.5
-15.33
-12.75
-9.08
-3.89
2.61
9.62
15.93
20.36
22.17
21.24
18
13.19
7.61
1.95
-3.22
-7.5
-10.69
-12.89
-14.46
-15.97
-17.9
-20.34
-22.93
-24.85
-25.28
-23.68
-20.07
-14.84
-8.49
-1.3
6.74
15.8
25.88
36.6
47.23
56.93
65.02
71.22
75.57
78.23
79.22
78.42
75.53
70.36
63.05
54.08
44.19
34.09
24.29
14.99
6.21
-2.05
-9.66
-16.42
-22.21
-27.17
-31.77
-36.58
-42.17
-48.74
-56.2
-64.16
-72.13
-79.51
-85.5
-89.05
-88.87
-83.82
-73.32
-57.81
-38.8
-18.49
0.75
17.23
30.12
39.42
45.59
49.24
50.89
51.14
50.81
50.85
52.15
54.94
58.51
61.15
60.83
56.02
46.51
33.79
20.52
9.64
3.22
1.71
4.08
8.43
13.01
16.87
20.06
23.2
26.84
31.04
35.28
38.85
41.3
42.69
43.58
44.81
47.05
50.63
55.31
60.31
64.42
66.1
63.7
55.66
40.95
19.37
-8.07
-39.2
-70.96
-100.03
-123.7
-140.4
-150.07
-153.9
-153.89
-152.21
-150.77
-150.93
-153.45
-158.42
-165.25
-172.7
-178.99
-182.23
-180.8
-173.95
-162.04
-146.44
-129.11
-111.95
-96.17
-82.11
-69.27
-56.71
-43.33
-28.39
-11.63
6.44
24.47
40.45
52.14
57.87
57.32
51.97
44.68
38.8
36.68
38.72
43.31
47.81
50.23
50.5
50.77
54.31
63.74
79.46
99.3
119.51
136.32
147.21
151.27
148.64
139.7
124.71
104.03
78.84
51.48
25.21
3.29
-12.04
-20.14
-21.96
-19.43
-14.69
-9.62
-5.39
-2.54
-1.09
-0.73
-1.05
-1.64
-2.11
-2.14
-1.49
-0.01
2.42
6.01
11.12
18.13
27.22
38.02
49.54
60.34
69.09
75.07
78.42
79.9
80.37
80.32
79.68
78.08
75.2
71.21
66.69
62.38
58.83
56.09
53.84
51.58
49
46.05
42.95
40.04
37.57
35.57
33.82
31.98
29.81
27.38
25.14
23.82
24.23
27.03
32.57
40.78
51.23
63.3
76.26
89.41
102.04
113.56
123.51
131.76
138.55
144.39
149.83
155.04
159.61
162.62
163.13
160.71
155.78
149.4
142.68
136.04
128.93
120.14
108.56
93.87
76.79
58.74
41.19
25.2
11.32
-0.16
-8.93
-14.59
-17.04
-16.76
-14.98
-13.37
-13.53
-16.4
-21.97
-29.4
-37.35
-44.47
-49.72
-52.53
-52.73
-50.45
-46.01
-39.83
-32.49
-24.84
-17.99
-13.26
-11.91
-14.8
-22.11
-33.27
-46.96
-61.16
-73.46
-81.5
-83.71
-79.94
-71.63
-61.37
-51.89
-44.94
-40.61
-37.45
-33.38
-26.67
-16.64
-3.65
11.42
27.69
44.62
61.83
78.89
94.93
108.84
119.39
125.63
127.1
124.01
117.08
107.3
95.7
83
69.62
55.73
41.4
26.75
12.11
-2.11
-15.54
-27.91
-39.11
-49.14
-58.05
-65.9
-72.87
-79.31
-85.75
-92.86
-100.98
-109.8
-118.15
-124.16
-125.86
-121.86
-112.02
-97.55
-80.87
-64.88
-52.23
-44.69
-42.87
-46.3
-53.8
-63.91
-75.25
-86.75
-97.54
-106.94
-114.39
-119.53
-122.19
-122.32
-119.77
-114.19
-105.12
-92.34
-76.26
-58.21
-40.18
-24.35
-12.57
-5.83
-4.19
-7.05
-13.24
-21.44
-30.31
-38.58
-45.32
-49.94
-52.31
-52.54
-50.82
-47.31
-42.09
-35.32
-27.17
-17.98
-8.17
1.76
11.2
19.53
26.26
31.13
34.26
36.2
37.66
39.37
41.79
45.17
49.59
55.04
61.39
68.27
75.12
81.27
86.38
90.63
94.81
99.99
107
115.97
126.14
136.04
143.9
148.17
147.83
142.46
132.1
117.04
97.66
74.44
48.08
19.65
-9.36
-37.31
-62.79
-84.96
-103.68
-119.24
-132.07
-142.47
-150.58
-156.56
-160.71
-163.23
-163.88
-161.75
-155.55
-144.22
-127.84
-107.82
-86.85
-67.87
-53.16
-43.73
-39.25
-38.61
-40.6
-44.23
-48.69
-53.19
-56.86
-58.96
-59.28
-58.34
-57.29
-57.44
-59.59
-63.62
-68.39
-72.2
-73.35
-70.75
-64.04
-53.48
-39.71
-23.5
-5.78
12.41
29.89
45.4
57.78
66.17
70.17
69.8
65.29
56.95
45.08
30.15
13.1
-4.64
-21.24
-34.95
-44.63
-50.07
-51.99
-51.67
-50.43
-49.2
-48.43
-48.12
-48
-47.67
-46.68
-44.57
-40.93
-35.54
-28.35
-19.58
-9.57
1.14
11.95
22.24
31.52
39.4
45.67
50.34
53.54
55.47
56.39
56.51
56.03
55.08
53.65
51.57
48.57
44.32
38.62
31.56
23.41
14.62
5.61
-3.25
-11.72
-19.5
-26.26
-31.72
-35.71
-38.28
-39.78
-40.58
-41
-41.18
-41.11
-40.81
-40.33
-39.67
-38.74
-37.17
-34.47
-30.2
-24.22
-16.83
-8.7
-0.64
6.72
12.98
18.1
22.17
25.37
27.85
29.76
31.21
32.36
33.35
34.29
35.28
36.41
37.74
39.37
41.44
44.08
47.43
51.54
56.24
61.15
65.69
69.25
71.4
72.05
71.5
70.28
69.05
68.38
68.65
70.08
72.68
76.28
80.57
85.18
89.7
93.82
97.26
99.57
99.87
96.86
88.96
74.91
54.33
28.07
-1.85
-32.59
-61.16
-84.86
-101.64
-110.23
-110.21
-102.11
-87.38
-68.26
-47.36
-27.2
-9.69
4.09
13.96
20.33
24
25.77
26.23
25.63
23.94
21.13
17.39
13.27
9.6
7.3
7.04
9
12.92
18.06
23.52
28.37
31.72
32.98
31.97
29.01
24.89
20.65
17.16
14.9
13.75
13.18
12.52
11.28
9.29
6.66
3.59
0.19
-3.61
-7.94
-12.89
-18.34
-23.96
-29.32
-33.94
-37.56
-40.14
-41.83
-42.75
-42.77
-41.41
-38.06
-32.29
-23.94
-13.33
-1.05
12.26
26.06
39.93
53.51
66.39
78.2
88.77
97.95
105.34
109.91
109.85
102.9
87.31
62.64
30.47
-5.76
-41.61
-72.64
-95.45
-108.2
-110.69
-104.07
-90.39
-72.18
-52.07
-32.41
-14.99
-0.83
9.78
17.17
22.14
25.65
28.51
31.23
33.76
35.72
36.64
36.22
34.55
32.11
29.56
27.47
26.1
25.14
23.9
21.57
17.51
11.64
4.51
-2.93
-9.68
-14.99
-18.72
-21.3
-23.42
-25.77
-28.55
-31.38
-33.41
-33.63
-31.24
-25.91
-17.98
-8.26
2.08
11.79
19.66
24.61
25.84
23.05
16.69
8.02
-0.96
-8.04
-11.32
-9.7
-3.11
7.65
21.22
36.18
51.22
65.34
77.7
87.58
94.41
97.76
97.48
93.78
87.19
78.38
68.18
57.32
46.5
36.31
27.27
19.75
13.91
9.61
6.5
4.1
1.98
-0.08
-2.13
-4.19
-6.31
-8.63
-11.36
-14.62
-18.34
-22.34
-26.35
-30.25
-34.04
-37.81
-41.61
-45.35
-48.72
-51.36
-52.99
-53.54
-53.09
-51.87
-50.02
-47.55
-44.23
-39.59
-33.02
-23.82
-11.37
4.7
24.29
46.86
71.36
96.56
121.28
144.61
165.94
184.88
201.13
214.5
224.87
232.12
236.09
236.52
233.18
226.19
216.34
205.15
194.59
186.46
181.65
179.95
180.15
180.71
180.43
178.76
175.78
171.81
166.96
160.99
153.35
143.41
130.63
114.88
96.51
76.45
56.01
36.63
19.54
5.38
-5.97
-15.29
-23.71
-32.4
-42.27
-53.91
-67.6
-83.45
-101.43
-121.31
-142.6
-164.56
-186.35
-207.2
-226.63
-244.46
-260.79
-275.8
-289.57
-302
-312.75
-321.35
-327.23
-329.91
-329.07
-324.55
-316.31
-304.29
-288.43
-268.69
-245.23
-218.45
-189.07
-158.07
-126.49
-95.38
-65.85
-39.22
-17
-0.69
8.73
11.29
8.25
1.83
-5.46
-11.65
-15.83
-18.09
-19.09
-19.46
-19.38
-18.6
-16.72
-13.65
-9.7
-5.55
-1.87
0.92
2.81
4.04
4.86
5.36
5.41
4.84
3.76
2.62
2.02
2.43
3.93
6.09
8.22
9.69
10.19
9.85
9.07
8.33
7.94
8.03
8.54
9.21
9.71
9.54
8.11
4.85
-0.52
-7.79
-16.08
-24
-30.15
-33.62
-34.38
-33.28
-31.66
-30.65
-30.78
-31.84
-33.23
-34.47
-35.49
-36.74
-38.81
-42.09
-46.55
-51.72
-56.95
-61.68
-65.65
-68.82
-71.4
-73.56
-75.38
-76.81
-77.69
-77.87
-77.22
-75.78
-73.57
-70.62
-66.8
-61.84
-55.41
-47.23
-37.27
-25.76
-13.19
-0.16
12.71
24.87
35.92
45.54
53.56
59.86
64.48
67.47
69.03
69.34
68.58
66.84
64.13
60.4
55.6
49.88
43.56
37.17
31.25
26.22
22.25
19.25
17.04
15.45
14.37
13.76
13.54
13.55
13.55
13.34
12.7
11.54
9.75
7.21
3.76
-0.76
-6.37
-12.94
-20.14
-27.41
-34.02
-39.23
-42.36
-43.11
-41.49
-37.9
-32.95
-27.23
-21.22
-15.14
-9.09
-2.98
3.2
9.33
15.14
20.22
24.17
26.79
28.09
28.33
27.92
27.24
26.54
25.93
25.44
25.08
24.84
24.64
24.38
23.94
23.24
22.35
21.45
20.81
20.66
21.08
22.03
23.4
25.08
26.97
28.92
30.82
32.48
33.73
34.4
34.32
33.31
31.1
27.37
21.85
14.32
4.85
-6.23
-18.24
-30.32
-41.54
-51.13
-58.6
-63.82
-66.92
-68.17
-67.89
-66.36
-63.96
-61.15
-58.53
-56.64
-55.77
-55.82
-56.26
-56.34
-55.37
-53.09
-49.72
-45.96
-42.56
-39.92
-37.9
-35.78
-32.71
-28.05
-21.78
-14.5
-7.2
-0.89
3.85
7
9.05
10.63
12.29
14.31
16.62
18.79
20.13
19.83
17.39
12.95
7.74
4.15
5.26
13.67
30.14
52.55
76.09
94.66
103.05
98.84
83.2
60.2
35.02
12.21
-5.62
-17.82
-25.09
-28.63
-29.63
-29.18
-28.44
-28.56
-30.28
-33.57
-37.36
-39.78
-38.62
-32.15
-19.65
-1.7
20.09
43.72
67.4
89.99
110.99
130.33
147.94
163.54
176.55
186.28
192.21
194.32
193.22
190.14
186.56
183.88
182.9
183.63
185.26
186.52
186.16
183.51
178.64
172.36
165.79
159.77
154.38
148.85
141.71
131.38
116.77
97.7
74.99
50.07
24.56
-0.21
-23.37
-44.47
-63.26
-79.46
-92.77
-102.9
-109.77
-113.55
-114.44
-112.52
-107.63
-99.56
-88.41
-75
-60.9
-48.21
-38.89
-34.1
-33.82
-36.94
-41.74
-46.49
-49.94
-51.4
-50.6
-47.54
-42.32
-35.27
-27.02
-18.52
-10.86
-4.93
-1.18
0.45
0.33
-1.13
-3.77
-7.72
-13.27
-20.6
-29.59
-39.65
-49.91
-59.39
-67.23
-72.87
-76.14
-77.22
-76.56
-74.75
-72.44
-70.13
-68.04
-66.09
-63.93
-61.2
-57.83
-54.15
-50.89
-48.92
-48.9
-50.92
-54.44
-58.45
-61.77
-63.51
-63.33
-61.47
-58.66
-55.77
-53.55
-52.46
-52.57
-53.73
-55.69
-58.18
-61
-63.88
-66.51
-68.56
-69.71
-69.78
-68.73
-66.67
-63.74
-60.11
-55.89
-51.07
-45.68
-39.74
-33.32
-26.53
-19.57
-12.63
-5.96
0.18
5.52
9.85
13.11
15.38
16.85
17.79
18.39
18.74
18.87
18.9
18.98
19.34
20.07
20.99
21.67
21.61
20.44
18.1
14.95
11.51
8.43
6.2
5.15
5.38
6.76
8.88
11.15
12.94
13.78
13.53
12.41
10.82
9.17
7.65
6.28
4.98
3.79
2.83
2.36
2.58
3.49
4.89
6.42
7.71
8.49
8.66
8.25
7.35
6.05
4.34
2.19
-0.41
-3.39
-6.68
-10.16
-13.73
-17.36
-21.03
-24.64
-28.03
-30.92
-32.99
-33.94
-33.57
-31.78
-28.65
-24.35
-19.14
-13.22
-6.76
0.19
7.63
15.48
23.48
31.14
37.94
43.56
48.1
52.1
56.34
61.44
67.6
74.44
81.18
86.98
91.2
93.57
94.08
92.9
90.15
86.02
80.76
74.8
68.8
63.5
59.43
56.81
55.39
54.63
53.89
52.71
50.95
48.83
46.78
45.24
44.53
44.7
45.65
47.19
49.17
51.43
53.86
56.29
58.45
59.99
60.49
59.54
56.84
52.21
45.58
37.02
26.62
14.52
0.88
-14.07
-30.02
-46.44
-62.57
-77.54
-90.59
-101.43
-110.45
-118.76
-127.74
-138.64
-151.89
-166.8
-181.65
-194.1
-201.8
-202.92
-196.63
-183.26
-164.33
-142.22
-119.68
-99.23
-82.53
-70.2
-62.04
-57.39
-55.64
-56.39
-59.33
-63.89
-68.75
-71.56
-69.08
-57.88
-35.44
-1.09
43.5
94.53
147.11
196.47
238.9
272.09
294.94
307.11
308.59
299.57
280.29
251.1
212.54
165.66
112.45
56.25
1.6
-46.65
-84.65
-110.68
-125.51
-131.68
-132.28
-129.72
-125.28
-119.43
-112.47
-105.05
-98.21
-92.81
-89.07
-86.33
-83.34
-78.87
-72.37
-64.11
-55.06
-46.39
-38.85
-32.51
-26.85
-21.09
-14.62
-7.28
0.59
8.38
15.49
21.64
27.07
32.36
38.23
45.18
53.27
62.12
71.12
79.45
86.17
90.32
91.01
87.76
80.96
72.15
63.83
58.89
59.78
67.73
82.54
102.76
126.32
150.87
173.85
192.34
203.09
203.17
190.89
166.82
134.08
97.67
63.04
34.4
13.84
1.3
-4.7
-6.15
-5.01
-3.01
-1.55
-1.51
-3.21
-6.26
-9.92
-13.59
-17.21
-21.09
-25.42
-29.83
-33.21
-34.34
-32.79
-29.45
-26.3
-25.51
-28.31
-34.52
-42.83
-51.69
-60.29
-68.98
-78.91
-91.33
-106.59
-123.67
-140.18
-153.15
-160.07
-159.72
-152.73
-141.24
-128.02
-115.36
-104.4
-94.97
-86.32
-77.8
-69.29
-61.14
-53.57
-46.16
-37.75
-26.95
-13.07
3.13
19.33
32.26
38.79
37.17
27.7
12.68
-4.25
-19.3
-29.45
-33.27
-31
-24.4
-16.08
-8.72
-4.52
-4.62
-9.03
-16.71
-26.03
-35.26
-43.04
-48.5
-51.29
-51.58
-49.86
-46.85
-43.3
-39.8
-36.65
-33.72
-30.52
-26.42
-20.99
-14.13
-6.16
2.28
10.47
17.73
23.69
28.21
31.37
33.35
34.43
34.84
34.85
34.61
34.2
33.66
32.91
31.88
30.48
28.72
26.65
24.4
22.12
19.81
17.48
15.04
12.44
9.72
7.04
4.6
2.52
0.84
-0.57
-1.93
-3.45
-5.29
-7.47
-9.89
-12.35
-14.54
-16.04
-16.39
-15.25
-12.53
-8.49
-3.65
1.35
5.97
9.95
13.27
16.06
18.46
20.45
21.89
22.68
22.82
22.54
22.14
21.88
21.83
21.92
21.99
21.91
21.76
21.68
21.78
22.05
22.24
21.95
20.89
18.94
16.26
13.23
10.24
7.55
5.25
3.25
1.39
-0.47
-2.49
-4.75
-7.24
-9.79
-12.03
-13.45
-13.56
-12.09
-9.15
-5.17
-0.75
3.59
7.51
10.94
13.88
16.39
18.46
20.09
21.32
22.21
22.88
23.37
23.68
23.78
23.67
23.41
23.13
22.89
22.62
22.15
21.25
19.74
17.62
15.05
12.28
9.54
7.02
4.78
2.83
1.14
-0.36
-1.76
-3.15
-4.62
-6.21
-7.9
-9.53
-10.9
-11.74
-11.82
-10.99
-9.2
-6.58
-3.4
-0.03
3.15
5.86
7.96
9.5
10.64
11.5
12.12
12.45
12.39
11.92
11.12
10.21
9.45
8.97
8.77
8.72
8.64
8.34
7.74
6.8
5.58
4.11
2.46
0.66
-1.21
-3.08
-4.9
-6.61
-8.21
-9.73
-11.16
-12.46
-13.53
-14.19
-14.21
-13.47
-11.88
-9.52
-6.56
-3.26
0.07
3.07
5.46
7.01
7.66
7.48
6.68
5.5
4.24
3.08
2.12
1.39
0.88
0.52
0.28
0.04
-0.26
-0.69
-1.24
-1.88
-2.49
-2.96
-3.23
-3.3
-3.25
-3.2
-3.21
-3.29
-3.38
-3.35
-3.1
-2.55
-1.64
-0.31
1.47
3.69
6.21
8.86
11.36
13.45
15
16
16.64
17.12
17.57
17.96
18.13
17.88
17.03
15.5
13.32
10.58
7.37
3.82
0.07
-3.64
-7.13
-10.36
-13.39
-16.38
-19.42
-22.4
-25.02
-26.9
-27.74
-27.5
-26.41
-24.78
-22.84
-20.6
-17.94
-14.74
-11.06
-7.23
-3.7
-0.93
0.91
1.86
2.23
2.31
2.24
2
1.45
0.47
-0.85
-2.26
-3.37
-3.82
-3.44
-2.32
-0.76
0.81
2.02
2.62
2.5
1.74
0.49
-1.03
-2.62
-4.12
-5.46
-6.65
-7.75
-8.86
-10
-11.07
-11.84
-12.03
-11.4
-9.82
-7.32
-4.07
-0.37
3.46
7.16
10.55
13.51
15.94
17.78
18.95
19.46
19.39
18.95
18.36
17.78
17.29
16.8
16.18
15.3
14.07
12.48
10.61
8.54
6.36
4.2
2.17
0.31
-1.42
-3.14
-4.94
-6.85
-8.79
-10.59
-12.13
-13.33
-14.24
-15.01
-15.79
-16.76
-17.98
-19.39
-20.76
-21.7
-21.74
-20.53
-17.94
-14.16
-9.66
-4.94
-0.43
3.67
7.33
10.57
13.35
15.56
17.05
17.75
17.71
17.09
16.11
14.99
13.86
12.84
12.03
11.57
11.57
12.05
12.91
13.89
14.66
14.94
14.54
13.39
11.56
9.18
6.46
3.62
0.8
-1.93
-4.56
-7.2
-9.93
-12.83
-15.85
-18.82
-21.5
-23.54
-24.61
-24.37
-22.61
-19.27
-14.55
-8.77
-2.34
4.37
11.15
17.9
24.6
31.2
37.52
43.28
48.19
52.03
54.71
56.28
56.83
56.47
55.23
53.12
50.12
46.24
41.54
36.04
29.73
22.49
14.21
4.85
-5.42
-16.26
-27.21
-37.75
-47.44
-55.94
-63.05
-68.69
-72.89
-75.81
-77.64
-78.6
-78.86
-78.41
-77.1
-74.64
-70.74
-65.21
-58.1
-49.72
-40.58
-31.24
-22.15
-13.61
-5.74
1.37
7.62
12.86
16.98
19.92
21.79
22.84
23.3
23.41
23.29
23
22.56
22
21.34
20.62
19.89
19.17
18.45
17.7
16.84
15.73
14.27
12.36
10.02
7.39
4.68
2.13
-0.14
-2.08
-3.82
-5.55
-7.46
-9.65
-12.06
-14.45
-16.43
-17.61
-17.66
-16.47
-14.11
-10.87
-7.11
-3.25
0.4
3.65
6.39
8.63
10.36
11.65
12.57
13.23
13.76
14.26
14.79
15.28
15.64
15.73
15.45
14.78
13.82
12.73
11.71
10.93
10.39
9.96
9.32
8.18
6.33
3.85
1.07
-1.59
-3.77
-5.31
-6.35
-7.21
-8.23
-9.69
-11.66
-14.06
-16.65
-19.08
-21
-22
-21.79
-20.21
-17.33
-13.46
-9.06
-4.67
-0.72
2.54
5.05
6.95
8.39
9.5
10.34
10.94
11.35
11.65
11.92
12.2
12.42
12.5
12.36
12.07
11.74
11.59
11.63
11.77
11.79
11.44
10.6
9.31
7.73
6.02
4.31
2.65
1.03
-0.52
-1.98
-3.33
-4.66
-6.12
-7.84
-9.82
-11.82
-13.47
-14.28
-13.92
-12.26
-9.42
-5.76
-1.79
2.01
5.19
7.46
8.76
9.18
8.96
8.38
7.72
7.14
6.75
6.49
6.29
6.04
5.67
5.15
4.54
3.89
3.25
2.62
1.92
1.06
-0.05
-1.4
-2.96
-4.65
-6.37
-8.04
-9.61
-11.06
-12.46
-13.9
-15.46
-17.08
-18.54
-19.42
-19.33
-17.95
-15.31
-11.71
-7.64
-3.59
0.09
3.21
5.72
7.58
8.79
9.33
9.23
8.61
7.68
6.68
5.8
5.17
4.8
4.65
4.64
4.72
4.85
5.03
5.32
5.73
6.24
6.73
7.06
7.13
6.88
6.33
5.51
4.46
3.1
1.38
-0.71
-3.07
-5.43
-7.44
-8.72
-9.04
-8.29
-6.63
-4.34
-1.87
0.31
1.8
2.32
1.88
0.68
-0.93
-2.57
-3.93
-4.83
-5.25
-5.26
-5.07
-4.92
-5.01
-5.44
-6.15
-6.94
-7.55
-7.86
-7.85
-7.64
-7.37
-7.07
-6.64
-5.93
-4.87
-3.53
-2.2
-1.2
-0.85
-1.24
-2.34
-4
-6.04
-8.28
-10.54
-12.55
-13.93
-14.26
-13.18
-10.59
-6.69
-1.98
2.9
7.39
11.15
14.1
16.36
18.06
19.26
19.92
19.95
19.33
18.21
16.86
15.58
14.6
13.96
13.59
13.32
13.03
12.71
12.37
12
11.51
10.72
9.47
7.6
5.14
2.26
-0.8
-3.75
-6.36
-8.48
-10.12
-11.37
-12.42
-13.49
-14.71
-16.07
-17.37
-18.26
-18.38
-17.48
-15.55
-12.77
-9.46
-5.99
-2.64
0.44
3.19
5.57
7.51
8.93
9.79
10.08
9.91
9.42
8.83
8.35
8.07
7.98
7.98
7.9
7.64
7.19
6.64
6.12
5.67
5.24
4.7
3.91
2.8
1.34
-0.4
-2.31
-4.31
-6.28
-8.13
-9.83
-11.37
-12.86
-14.42
-16.15
-18.06
-20
-21.69
-22.82
-23.08
-22.3
-20.46
-17.66
-14.17
-10.32
-6.43
-2.76
0.5
3.29
5.58
7.43
8.87
9.95
10.72
11.24
11.57
11.78
11.96
12.14
12.32
12.44
12.45
12.32
12.06
11.71
11.3
10.74
9.92
8.66
6.9
4.69
2.24
-0.16
-2.25
-3.88
-5.08
-5.98
-6.8
-7.75
-9.03
-10.75
-12.91
-15.4
-17.98
-20.37
-22.24
-23.25
-23.12
-21.69
-19
-15.31
-11.1
-6.96
-3.43
-0.82
0.87
1.92
2.68
3.43
4.25
5.04
5.61
5.85
5.79
5.57
5.39
5.38
5.58
5.94
6.28
6.45
6.33
5.85
5.04
4
2.86
1.74
0.74
-0.18
-1.03
-1.89
-2.83
-3.87
-5
-6.15
-7.24
-8.21
-9.08
-9.92
-10.86
-11.99
-13.37
-14.96
-16.59
-18.04
-19.05
-19.36
-18.76
-17.15
-14.59
-11.25
-7.45
-3.55
0.1
3.25
5.72
7.42
8.3
8.36
7.68
6.37
4.56
2.35
-0.24
-3.29
-6.85
-10.85
-14.98
-18.69
-21.27
-22.07
-20.68
-16.97
-11.15
-3.61
5.14
14.55
24.04
33.02
40.92
47.24
51.63
54.01
54.48
53.33
50.85
47.28
42.71
37.21
30.85
23.79
16.42
9.22
2.71
-2.64
-6.56
-9.02
-10.13
-10.17
-9.48
-8.39
-7.22
-6.18
-5.38
-4.86
-4.53
-4.29
-4.03
-3.73
-3.4
-3.07
-2.74
-2.37
-1.87
-1.23
-0.5
0.24
0.86
1.3
1.59
1.78
1.95
2.11
2.17
2.02
1.57
0.79
-0.25
-1.46
-2.71
-3.91
-5
-6.02
-6.98
-7.95
-9.02
-10.27
-11.77
-13.49
-15.33
-17.05
-18.31
-18.75
-18.15
-16.46
-13.89
-10.78
-7.55
-4.51
-1.77
0.73
3.11
5.4
7.51
9.24
10.46
11.17
11.55
11.88
12.37
13.08
13.88
14.54
14.83
14.62
13.91
12.83
11.55
10.26
9.06
7.95
6.87
5.69
4.26
2.56
0.65
-1.32
-3.21
-4.86
-6.28
-7.48
-8.53
-9.5
-10.43
-11.34
-12.23
-13.11
-13.89
-14.45
-14.57
-14.02
-12.65
-10.43
-7.56
-4.37
-1.24
1.56
3.91
5.86
7.49
8.88
10
10.77
11.15
11.15
10.94
10.7
10.63
10.82
11.25
11.85
12.52
13.18
13.76
14.16
14.29
14.09
13.52
12.66
11.66
10.68
9.83
9.12
8.44
7.64
6.51
4.82
2.46
-0.55
-3.93
-7.2
-9.8
-11.22
-11.23
-9.95
-7.79
-5.29
-2.86
-0.74
1.08
2.66
4.09
5.32
6.25
6.81
6.98
6.85
6.57
6.26
6
5.81
5.61
5.32
4.88
4.2
3.28
2.12
0.81
-0.6
-2.06
-3.58
-5.16
-6.78
-8.37
-9.83
-11.14
-12.32
-13.46
-14.58
-15.5
-15.95
-15.52
-14.03
-11.48
-8.2
-4.66
-1.28
1.68
4.14
6.12
7.68
8.83
9.53
9.76
9.53
8.91
8.03
7.11
6.37
6.01
6.05
6.34
6.54
6.28
5.34
3.69
1.53
-0.93
-3.52
-6.24
-9.15
-12.26
-15.46
-18.53
-21.22
-23.32
-24.73
-25.3
-24.9
-23.35
-20.59
-16.77
-12.29
-7.67
-3.38
0.33
3.45
6.07
8.3
10.11
11.37
11.95
11.82
11.08
9.99
8.82
7.79
7.02
6.51
6.16
5.87
5.54
5.14
4.65
4.08
3.41
2.61
1.65
0.46
-0.96
-2.6
-4.37
-6.07
-7.44
-8.1
-7.72
-6
-2.88
1.56
7.01
13.07
19.27
25.14
30.26
34.28
36.91
37.88
36.95
34.03
29.26
23.16
16.58
10.66
6.51
5.05
6.67
11.17
17.81
25.48
33.07
39.56
44.3
46.94
47.36
45.56
41.57
35.38
27.05
16.76
4.82
-8.28
-22.01
-35.82
-49.16
-61.58
-72.64
-81.96
-89.17
-93.87
-95.69
-94.33
-89.78
-82.31
-72.62
-61.69
-50.63
-40.45
-31.84
-25.12
-20.24
-16.9
-14.63
-12.88
-11.12
-8.91
-5.89
-1.95
2.82
8.07
13.31
18.07
21.94
24.72
26.37
26.96
26.58
25.32
23.28
20.63
17.58
14.35
11.14
8.08
5.28
2.81
0.77
-0.78
-1.78
-2.21
-2.05
-1.29
0.03
1.76
3.67
5.43
6.67
7.07
6.37
4.44
1.24
-3.17
-8.62
-14.77
-21.21
-27.47
-33.13
-37.83
-41.33
-43.43
-43.99
-42.99
-40.55
-36.99
-32.79
-28.44
-24.37
-20.8
-17.8
-15.27
-13.14
-11.33
-9.83
-8.62
-7.65
-6.88
-6.26
-5.77
-5.42
-5.25
-5.2
-5.14
-4.91
-4.36
-3.41
-2.11
-0.59
0.96
2.4
3.65
4.74
5.74
6.75
7.79
8.83
9.79
10.57
11.2
11.79
12.51
13.46
14.62
15.76
16.55
16.68
15.97
14.4
12
8.83
4.89
0.27
-4.84
-9.98
-14.57
-18
-19.84
-19.91
-18.33
-15.49
-11.81
-7.81
-3.9
-0.33
2.78
5.52
8.1
10.84
14.04
17.95
22.58
27.74
33.04
37.9
41.81
44.43
45.79
46.21
46.19
46.18
46.38
46.75
47.07
47.11
46.77
46.13
45.3
44.4
43.38
42.06
40.13
37.24
33.14
27.74
21.25
14.07
6.69
-0.49
-7.29
-13.71
-19.82
-25.54
-30.64
-34.75
-37.61
-39.2
-39.82
-39.93
-39.93
-40
-40.03
-39.79
-39.07
-37.88
-36.37
-34.73
-33.14
-31.61
-30.09
-28.51
-26.9
-25.33
-23.94
-22.81
-21.9
-21.13
-20.38
-19.52
-18.48
-17.22
-15.79
-14.31
-12.91
-11.72
-10.83
-10.18
-9.68
-9.25
-8.82
-8.43
-8.1
-7.89
-7.78
-7.74
-7.68
-7.6
-7.56
-7.67
-8.09
-8.9
-10.13
-11.68
-13.35
-14.79
-15.62
-15.49
-14.25
-11.93
-8.81
-5.31
-1.88
1.15
3.59
5.48
6.96
8.22
9.35
10.39
11.27
11.88
12.16
12.17
12.04
11.95
12.01
12.19
12.32
12.19
11.66
10.77
9.68
8.67
7.91
7.47
7.25
7.07
6.8
6.29
5.55
4.56
3.37
1.97
0.43
-1.19
-2.81
-4.3
-5.6
-6.69
-7.67
-8.66
-9.8
-11.12
-12.47
-13.56
-13.97
-13.39
-11.72
-9.09
-5.83
-2.29
1.23
4.57
7.61
10.27
12.42
13.97
14.96
15.52
15.89
16.26
16.71
17.22
17.71
18.09
18.33
18.38
18.21
17.83
17.21
16.39
15.35
14.05
12.4
10.34
7.89
5.18
2.45
-0.06
-2.21
-3.98
-5.45
-6.74
-7.96
-9.13
-10.28
-11.43
-12.65
-14.01
-15.51
-17.12
-18.61
-19.64
-19.86
-19.01
-17.01
-14.05
-10.47
-6.64
-2.84
0.78
4.17
7.3
10.09
12.4
14.12
15.2
15.7
15.72
15.42
14.91
14.33
13.76
13.3
13
12.85
12.77
12.67
12.46
12.13
11.71
11.25
10.75
10.15
9.38
8.36
7.06
5.55
3.95
2.34
0.74
-0.9
-2.67
-4.64
-6.76
-8.96
-11.07
-12.99
-14.61
-15.82
-16.45
-16.29
-15.23
-13.25
-10.51
-7.27
-3.84
-0.45
2.78
5.8
8.58
11.03
13.05
14.58
15.57
16.12
16.35
16.47
16.65
16.98
17.46
18.02
18.51
18.83
18.94
18.84
18.58
18.18
17.57
16.66
15.38
13.73
11.83
9.86
8.04
6.56
5.46
4.7
4.08
3.35
2.26
0.64
-1.56
-4.19
-6.95
-9.42
-11.18
-11.87
-11.31
-9.6
-7.01
-3.99
-0.98
1.66
3.8
5.46
6.77
7.89
8.91
9.84
10.7
11.43
12
12.37
12.54
12.53
12.36
12.09
11.74
11.31
10.75
9.99
8.96
7.61
5.96
4.12
2.16
0.16
-1.83
-3.88
-6.08
-8.5
-11.18
-14.03
-16.89
-19.61
-22.12
-24.42
-26.6
-28.64
-30.41
-31.66
-32.05
-31.31
-29.3
-26.04
-21.72
-16.65
-11.22
-5.83
-0.83
3.55
7.24
10.28
12.78
14.8
16.33
17.3
17.66
17.42
16.67
15.58
14.32
13.05
11.87
10.85
9.96
9.18
8.45
7.72
6.94
6.09
5.1
3.9
2.43
0.67
-1.27
-3.2
-4.9
-6.25
-7.25
-8.08
-8.98
-10.15
-11.63
-13.28
-14.87
-16.17
-17
-17.27
-16.88
-15.76
-13.88
-11.35
-8.44
-5.54
-3.01
-1.01
0.52
1.76
2.89
3.92
4.7
5.07
5
4.67
4.42
4.54
5.19
6.33
7.8
9.37
10.92
12.33
13.53
14.45
15
15.14
14.91
14.43
13.79
13.02
11.98
10.52
8.53
6.07
3.39
0.81
-1.42
-3.26
-4.8
-6.28
-7.91
-9.78
-11.82
-13.81
-15.45
-16.41
-16.39
-15.2
-12.84
-9.5
-5.53
-1.39
2.48
5.78
8.34
10.2
11.48
12.32
12.85
13.1
13.05
12.67
12.04
11.33
10.8
10.69
11.11
12.02
13.19
14.39
15.43
16.3
17.09
17.94
18.89
19.89
20.75
21.24
21.21
20.61
19.53
18.12
16.54
15.01
13.7
12.7
12.09
11.82
11.71
11.54
11.05
10.03
8.45
6.43
4.26
2.38
1.13
0.68
0.88
1.31
1.43
0.75
-0.88
-3.21
-5.64
-7.48
-8.16
-7.46
-5.56
-2.88
0.04
2.76
4.98
6.63
7.74
8.43
8.8
8.89
8.69
8.14
7.18
5.79
4.01
1.95
-0.22
-2.3
-4.1
-5.43
-6.11
-6.05
-5.32
-4.2
-3.15
-2.64
-3.07
-4.59
-7.14
-10.55
-14.59
-19.1
-23.96
-29.02
-34.04
-38.66
-42.42
-44.93
-45.96
-45.58
-44.05
-41.79
-39.17
-36.4
-33.46
-30.22
-26.58
-22.56
-18.41
-14.5
-11.12
-8.4
-6.29
-4.51
-2.75
-0.71
1.86
5.1
9.04
13.63
18.7
24.03
29.38
34.59
39.54
44.18
48.4
52.06
54.94
56.83
57.54
57.03
55.36
52.64
48.9
44.06
37.9
30.28
21.17
10.87
-0.19
-11.47
-22.57
-33.18
-43.03
-51.71
-58.52
-62.65
-63.36
-60.37
-54.04
-45.31
-35.44
-25.69
-17.04
-10.08
-5.05
-1.85
-0.21
0.32
0.22
-0.02
-0.03
0.35
1.15
2.25
3.54
4.91
6.27
7.58
8.79
9.89
10.93
11.99
13.1
14.34
15.7
17.13
18.44
19.24
18.95
16.95
12.81
6.51
-1.57
-10.74
-20.32
-29.72
-38.57
-46.52
-53.19
-58.16
-61.15
-62.08
-61.2
-58.9
-55.49
-51.1
-45.73
-39.24
-31.57
-22.81
-13.17
-2.97
7.31
17.19
26.24
34.2
41.09
47.12
52.55
57.55
61.89
64.92
65.65
63.01
56.23
45.26
30.88
14.58
-1.79
-16.49
-28.35
-36.83
-41.99
-44.19
-43.92
-41.77
-38.4
-34.6
-31.17
-28.79
-27.69
-27.77
-28.53
-29.35
-29.69
-29.28
-28.08
-26.24
-24.02
-21.58
-19.05
-16.45
-13.71
-10.81
-7.74
-4.55
-1.41
1.46
3.88
5.71
6.88
7.42
7.39
6.89
6.03
4.92
3.68
2.43
1.28
0.29
-0.55
-1.3
-2.03
-2.8
-3.61
-4.45
-5.26
-6.09
-6.98
-8.04
-9.34
-10.85
-12.41
-13.77
-14.69
-15
-14.63
-13.64
-12.19
-10.43
-8.53
-6.66
-4.93
-3.4
-2.09
-0.94
0.11
1.13
2.15
3.16
4.09
4.86
5.42
5.78
6.01
6.18
6.33
6.44
6.48
6.39
6.13
5.66
4.96
3.98
2.66
0.99
-1.03
-3.34
-5.82
-8.38
-10.89
-13.2
-15.06
-16.23
-16.49
-15.78
-14.2
-12.01
-9.51
-6.95
-4.49
-2.15
0.08
2.29
4.49
6.69
8.84
10.77
12.31
13.28
13.62
13.37
12.74
11.94
11.18
10.59
10.18
9.89
9.65
9.38
9.07
8.67
8.18
7.52
6.68
5.59
4.23
2.6
0.71
-1.46
-3.92
-6.67
-9.68
-12.81
-15.8
-18.29
-19.93
-20.46
-19.78
-18.03
-15.48
-12.49
-9.33
-6.2
-3.14
-0.15
2.77
5.58
8.17
10.43
12.29
13.75
14.87
15.74
16.46
17.07
17.55
17.82
17.74
17.19
16.1
14.58
12.77
10.87
9.06
7.38
5.8
4.24
2.66
1.04
-0.57
-2.1
-3.57
-5.03
-6.58
-8.3
-10.2
-12.07
-13.65
-14.52
-14.38
-13.07
-10.67
-7.47
-3.84
-0.15
3.39
6.62
9.53
12.06
14.16
15.7
16.59
16.81
16.49
15.86
15.18
14.66
14.33
14.06
13.71
13.13
12.39
11.63
11.04
10.69
10.47
10.17
9.48
8.25
6.48
4.29
1.92
-0.35
-2.38
-4.08
-5.48
-6.7
-7.87
-9.09
-10.41
-11.75
-12.9
-13.58
-13.49
-12.43
-10.43
-7.71
-4.63
-1.53
1.33
3.91
6.22
8.3
10.14
11.62
12.7
13.4
13.88
14.3
14.79
15.36
15.93
16.43
16.81
17.11
17.38
17.66
17.93
18.11
18.08
17.77
17.17
16.31
15.27
14.13
12.96
11.78
10.56
9.22
7.72
6.07
4.36
2.82
1.68
1.14
1.32
2.15
3.47
5.01
6.51
7.76
8.63
9.03
8.88
8.14
6.76
4.82
2.43
-0.23
-2.9
-5.43
-7.62
-9.37
-10.6
-11.26
-11.33
-10.88
-9.98
-8.8
-7.51
-6.28
-5.21
-4.29
-3.49
-2.74
-2.05
-1.51
-1.25
-1.41
-2.05
-3.12
-4.43
-5.8
-7.03
-7.93
-8.34
-8.12
-7.2
-5.54
-3.23
-0.49
2.4
5.12
7.48
9.39
10.91
12.08
12.93
13.43
13.53
13.22
12.6
11.85
11.12
10.52
9.98
9.43
8.8
8.12
7.49
7.01
6.67
6.32
5.83
5.02
3.9
2.58
1.21
-0.03
-1.09
-2.01
-2.92
-3.95
-5.23
-6.84
-8.74
-10.78
-12.69
-14.12
-14.71
-14.23
-12.65
-10.15
-7.17
-4.14
-1.45
0.74
2.41
3.73
4.84
5.85
6.79
7.62
8.32
8.88
9.31
9.57
9.63
9.46
9.08
8.59
8.06
7.59
7.14
6.67
6.11
5.44
4.73
3.97
3.14
2.11
0.79
-0.84
-2.66
-4.44
-5.99
-7.27
-8.38
-9.49
-10.7
-11.93
-12.91
-13.3
-12.81
-11.4
-9.22
-6.65
-4.04
-1.71
0.22
1.79
3.13
4.36
5.53
6.59
7.41
7.89
7.95
7.68
7.22
6.79
6.52
6.45
6.5
6.51
6.35
5.96
5.37
4.67
3.9
3.09
2.16
1.06
-0.26
-1.77
-3.39
-5.05
-6.65
-8.16
-9.5
-10.67
-11.59
-12.23
-12.5
-12.38
-11.81
-10.85
-9.63
-8.34
-7.28
-6.69
-6.73
-7.37
-8.42
-9.54
-10.35
-10.5
-9.69
-7.82
-4.97
-1.46
2.16
5.29
7.39
8.23
7.9
6.85
5.57
4.46
3.57
2.67
1.43
-0.38
-2.72
-5.34
-7.91
-10.21
-12.21
-14.04
-15.87
-17.79
-19.72
-21.53
-23.1
-24.38
-25.39
-26.08
-26.28
-25.68
-23.94
-20.85
-16.5
-11.25
-5.73
-0.55
3.79
7.04
9.2
10.49
11.1
11.27
11.16
10.86
10.51
10.25
10.23
10.51
11.06
11.67
12.13
12.21
11.85
11.13
10.24
9.36
8.52
7.63
6.48
4.94
3.04
0.97
-0.99
-2.66
-3.95
-4.99
-5.97
-7.07
-8.38
-9.87
-11.48
-13.11
-14.69
-16.08
-17.09
-17.42
-16.8
-15.08
-12.26
-8.59
-4.37
0.05
4.45
8.69
12.71
16.45
19.87
22.95
25.65
28.03
30.19
32.22
34.18
36.08
37.85
39.35
40.44
40.98
40.89
40.17
38.82
36.82
34.11
30.56
26.09
20.73
14.67
8.24
1.84
-4.1
-9.14
-12.75
-14.35
-13.35
-9.34
-2.24
7.58
19.3
31.84
44.13
55.24
64.57
71.81
76.95
80.2
81.92
82.52
82.34
81.48
79.7
76.51
71.35
63.75
53.62
41.2
27.03
11.77
-3.91
-19.36
-33.98
-47.15
-58.3
-66.9
-72.64
-75.44
-75.55
-73.47
-69.88
-65.49
-60.88
-56.46
-52.42
-48.83
-45.67
-42.93
-40.57
-38.53
-36.79
-35.31
-34.17
-33.54
-33.66
-34.66
-36.57
-39.27
-42.51
-46.08
-49.86
-53.9
-58.36
-63.49
-69.39
-75.99
-82.86
-89.06
-93.29
-94.07
-90.14
-80.93
-66.72
-48.7
-28.65
-8.53
9.99
25.71
38.04
46.78
51.9
53.51
51.7
46.76
39.17
29.75
19.5
9.54
0.84
-5.89
-10.33
-12.43
-12.35
-10.37
-6.86
-2.31
2.71
7.6
11.82
15.06
17.27
18.62
19.4
19.88
20.23
20.44
20.44
20.15
19.53
18.58
17.35
15.89
14.24
12.44
10.52
8.53
6.54
4.66
2.99
1.7
0.86
0.52
0.58
0.79
0.85
0.51
-0.34
-1.56
-2.81
-3.72
-3.98
-3.51
-2.38
-0.81
1.01
2.91
4.79
6.56
8.08
9.25
10.02
10.38
10.44
10.38
10.36
10.43
10.52
10.45
10.01
9.07
7.67
6.04
4.45
3.1
1.96
0.84
-0.55
-2.44
-4.85
-7.68
-10.71
-13.73
-16.58
-19.04
-20.84
-21.66
-21.3
-19.74
-17.3
-14.48
-11.77
-9.49
-7.64
-6.06
-4.45
-2.74
-0.96
0.74
2.23
3.53
4.74
6.04
7.53
9.2
10.9
12.47
13.82
14.92
15.88
16.77
17.66
18.49
19.21
19.7
19.84
19.56
18.78
17.49
15.65
13.32
10.58
7.61
4.59
1.67
-1.04
-3.57
-5.85
-7.81
-9.23
-9.88
-9.56
-8.3
-6.39
-4.3
-2.54
-1.36
-0.75
-0.41
0.05
0.86
2.03
3.3
4.34
4.88
4.79
4.12
2.99
1.54
-0.1
-1.8
-3.39
-4.68
-5.47
-5.64
-5.21
-4.31
-3.12
-1.83
-0.54
0.76
2.2
3.9
5.92
8.15
10.28
11.92
12.66
12.28
10.8
8.42
5.48
2.32
-0.72
-3.43
-5.68
-7.51
-9.06
-10.56
-12.24
-14.26
-16.68
-19.46
-22.58
-26.03
-29.84
-33.94
-38.07
-41.7
-44.23
-45.19
-44.48
-42.54
-40.18
-38.37
-37.76
-38.35
-39.42
-39.82
-38.46
-34.67
-28.36
-19.82
-9.69
1.2
11.84
21.1
28.07
32.49
35.3
38.37
43.72
52.16
62.45
71.58
75.94
73.1
62.92
47.67
30.76
15.39
3.49
-4.35
-8.38
-9
-6.5
-1.22
6.21
14.77
23.43
31.73
39.94
48.7
58.29
67.96
75.71
78.77
74.62
62.08
42.07
17.4
-8
-30.4
-47.14
-57.06
-60.24
-57.54
-50.09
-39.11
-26.04
-12.28
1.02
13.27
24.54
35.3
45.63
54.82
61.2
62.75
58.08
47.28
31.97
14.8
-1.61
-15.5
-26.31
-34.37
-40.39
-44.81
-47.67
-48.66
-47.5
-44.12
-38.82
-32.14
-24.63
-16.83
-9.08
-1.62
5.22
11
15.17
17.16
16.66
13.78
8.99
3.1
-3
-8.58
-13.16
-16.58
-18.87
-20.11
-20.31
-19.43
-17.42
-14.26
-10.12
-5.2
0.29
6.26
12.71
19.63
26.73
33.36
38.6
41.5
41.42
38.21
32.26
24.23
14.88
4.9
-5.09
-14.33
-21.99
-27.19
-29.32
-28.33
-24.79
-19.68
-13.99
-8.4
-3.03
2.42
8.23
14.31
19.87
23.57
24
20.18
11.81
-0.62
-16.05
-33.03
-49.89
-64.86
-76.18
-82.45
-83
-78.28
-69.96
-60.59
-52.83
-48.6
-48.51
-51.72
-56.48
-60.78
-63.11
-62.81
-60.05
-55.5
-49.84
-43.48
-36.57
-29.21
-21.62
-14.18
-7.27
-1.13
4.22
8.93
13.27
17.52
22.1
27.55
34.37
42.73
52.03
60.82
67.03
68.72
64.91
55.97
43.54
29.87
16.99
6.14
-2.36
-8.71
-13.23
-16.06
-17.08
-16.21
-13.71
-10.22
-6.77
-4.41
-3.92
-5.47
-8.61
-12.46
-16.06
-18.7
-20.14
-20.54
-20.25
-19.57
-18.55
-17.02
-14.73
-11.44
-6.96
-1.17
5.97
14.35
23.53
32.72
40.97
47.51
52.13
55.35
58.24
62.02
67.58
75.23
84.63
95.15
106.16
117.18
127.78
137.34
145.01
149.8
150.7
146.95
138.17
124.45
106.47
85.4
62.87
40.68
20.46
3.28
-10.58
-21.51
-30.23
-37.36
-43.2
-47.78
-51.21
-53.9
-56.62
-60.21
-65.29
-71.85
-79.28
-86.59
-92.7
-96.93
-99.15
-99.69
-99.1
-97.9
-96.4
-94.68
-92.73
-90.53
-88.14
-85.71
-83.32
-80.93
-78.32
-75.22
-71.32
-66.45
-60.62
-54
-46.85
-39.48
-32.22
-25.33
-19.05
-13.56
-8.94
-5.21
-2.3
-0.1
1.54
2.8
3.79
4.65
5.49
6.33
7.14
7.79
8.12
8.05
7.6
6.91
6.15
5.43
4.8
4.18
3.49
2.65
1.67
0.61
-0.45
-1.37
-2.06
-2.45
-2.56
-2.44
-2.23
-2.06
-2.04
-2.19
-2.39
-2.47
-2.25
-1.61
-0.55
0.81
2.29
3.71
4.99
6.15
7.26
8.37
9.41
10.19
10.52
10.36
9.82
9.14
8.57
8.2
7.98
7.73
7.29
6.59
5.7
4.8
4.05
3.5
3.06
2.61
1.99
1.15
0.14
-0.94
-1.94
-2.81
-3.57
-4.36
-5.3
-6.48
-7.84
-9.17
-10.19
-10.63
-10.36
-9.33
-7.7
-5.64
-3.39
-1.11
1.08
3.11
4.94
6.5
7.72
8.49
8.78
8.58
8.03
7.33
6.71
6.36
6.36
6.61
6.91
7.03
6.76
6.04
4.95
3.61
2.21
0.91
-0.19
-1.08
-1.8
-2.42
-3.08
-3.87
-4.9
-6.24
-7.9
-9.78
-11.69
-13.35
-14.4
-14.57
-13.71
-11.91
-9.43
-6.63
-3.86
-1.3
0.98
3.06
5.01
6.86
8.53
9.92
10.91
11.44
11.48
11.1
10.43
9.6
8.8
8.18
7.87
7.88
8.16
8.54
8.83
8.84
8.44
7.59
6.33
4.77
3.01
1.15
-0.76
-2.7
-4.63
-6.58
-8.5
-10.3
-11.83
-12.86
-13.14
-12.45
-10.73
-8.14
-5.03
-1.81
1.15
3.61
5.55
7.1
8.44
9.75
11.13
12.54
13.9
15.08
15.97
16.51
16.72
16.67
16.49
16.27
16.01
15.69
15.27
14.74
14.15
13.56
12.97
12.3
11.41
10.14
8.46
6.43
4.24
2.08
0.01
-1.99
-4.09
-6.39
-8.89
-11.45
-13.87
-16
-17.69
-18.9
-19.53
-19.52
-18.75
-17.18
-14.86
-11.97
-8.72
-5.32
-1.97
1.22
4.12
6.67
8.8
10.51
11.81
12.74
13.36
13.68
13.76
13.67
13.44
13.15
12.74
12.19
11.45
10.58
9.69
8.94
8.43
8.14
7.96
7.67
7.08
6.09
4.72
3.08
1.32
-0.39
-1.93
-3.25
-4.41
-5.52
-6.66
-7.89
-9.15
-10.3
-11.09
-11.32
-10.81
-9.56
-7.74
-5.59
-3.41
-1.35
0.55
2.42
4.4
6.6
8.92
11.13
12.97
14.21
14.81
14.86
14.55
14.02
13.42
12.81
12.23
11.7
11.19
10.63
9.93
9.05
8.02
6.95
5.93
4.9
3.77
2.36
0.62
-1.3
-3.14
-4.61
-5.58
-6.14
-6.55
-7.09
-7.92
-9.05
-10.39
-11.86
-13.43
-15.12
-16.86
-18.37
-19.18
-18.81
-16.97
-13.73
-9.55
-5.04
-0.72
3.24
7.01
10.95
15.34
20.11
24.91
29.21
32.66
35.17
36.9
38.05
38.65
38.5
37.23
34.5
30.16
24.37
17.49
9.99
2.36
-4.91
-11.43
-16.78
-20.68
-22.95
-23.6
-22.84
-21.01
-18.49
-15.64
-12.74
-9.88
-7.08
-4.29
-1.49
1.24
3.8
6.15
8.4
10.81
13.75
17.5
22.07
27.23
32.55
37.52
41.67
44.67
46.24
46.17
44.31
40.61
35.33
28.92
22.05
15.37
9.32
4.13
-0.27
-4.02
-7.23
-9.93
-12.08
-13.69
-14.93
-16.04
-17.25
-18.65
-20.13
-21.44
-22.36
-22.88
-23.2
-23.66
-24.52
-25.86
-27.55
-29.33
-30.97
-32.39
-33.66
-34.95
-36.41
-38.16
-40.17
-42.3
-44.27
-45.66
-46.1
-45.31
-43.2
-39.91
-35.73
-30.98
-25.92
-20.71
-15.41
-10.11
-4.97
-0.14
4.22
8.04
11.39
14.4
17.23
20
22.73
25.31
27.59
29.43
30.78
31.67
32.19
32.38
32.21
31.56
30.33
28.47
26.05
23.22
20.14
16.89
13.51
10.04
6.58
3.3
0.35
-2.25
-4.71
-7.43
-10.82
-15.07
-20
-25.03
-29.51
-32.93
-35.23
-36.83
-38.43
-40.7
-43.93
-47.81
-51.5
-53.95
-54.33
-52.35
-48.25
-42.64
-36.12
-29.02
-21.35
-12.86
-3.14
8.47
22.96
41.42
64.3
90.54
117.03
139.07
151.78
152.05
139.83
118.17
91.96
66.02
43.61
26.08
13.34
4.91
0.5
0.09
3.52
10.09
18.61
27.73
36.39
44.01
50.55
56.18
61.13
65.45
68.94
71.25
72.12
71.54
69.97
68.31
67.76
69.35
73.58
80.17
88.16
96.27
103.44
109.16
113.63
117.45
121.16
124.88
128.22
130.51
131.09
129.7
126.49
121.94
116.61
110.89
104.83
98.19
90.56
81.56
70.92
58.59
44.68
29.35
12.76
-4.87
-23.36
-42.5
-62.1
-81.89
-101.57
-120.85
-139.39
-156.78
-172.46
-185.78
-196.17
-203.41
-207.87
-210.57
-212.95
-216.3
-221.31
-227.64
-234.15
-239.27
-241.64
-240.5
-235.71
-227.46
-215.94
-201.32
-183.88
-164.24
-143.4
-122.62
-102.89
-84.59
-67.25
-49.77
-30.93
-9.91
13.3
37.88
62.46
85.59
106.36
124.65
141.06
156.37
170.97
184.42
195.48
202.69
204.88
201.58
192.74
178.27
157.71
130.41
96.14
55.85
11.99
-31.9
-72.02
-105.43
-130.49
-146.88
-155.11
-156.03
-150.6
-139.87
-125.18
-108.18
-90.67
-74.2
-59.82
-47.94
-38.36
-30.57
-23.97
-18.19
-13.07
-8.63
-4.9
-1.88
0.54
2.54
4.31
5.98
7.67
9.44
11.28
13.16
14.99
16.68
18.14
19.35
20.36
21.3
22.25
23.24
24.19
25.01
25.64
26.13
26.58
27.12
27.75
28.3
28.52
28.13
27.02
25.27
23.13
20.96
19.04
17.51
16.3
15.22
13.99
12.37
10.2
7.5
4.48
1.46
-1.11
-2.85
-3.53
-3.28
-2.47
-1.79
-1.92
-3.38
-6.33
-10.43
-14.94
-18.96
-21.62
-22.34
-20.98
-17.85
-13.54
-8.82
-4.38
-0.71
1.91
3.43
3.95
3.62
2.66
1.26
-0.44
-2.32
-4.35
-6.58
-9.04
-11.73
-14.52
-17.14
-19.15
-20.15
-19.86
-18.28
-15.75
-12.88
-10.37
-8.84
-8.58
-9.54
-11.39
-13.59
-15.56
-16.9
-17.36
-16.89
-15.5
-13.17
-9.68
-4.75
1.83
9.8
18.27
25.76
30.59
31.58
28.55
22.44
14.87
7.56
1.6
-2.7
-5.64
-7.81
-9.82
-12.32
-16.16
-22.38
-31.79
-44.39
-58.92
-72.97
-83.75
-89.04
-87.99
-81.32
-70.89
-58.87
-47.07
-36.64
-27.99
-21.21
-16.22
-12.87
-10.96
-10.13
-9.87
-9.67
-9.13
-8.09
-6.71
-5.29
-4.17
-3.48
-3.13
-2.8
-2.18
-1.08
0.47
2.2
3.85
5.18
6.13
6.84
7.58
8.68
10.36
12.73
15.64
18.79
21.82
24.43
26.5
28.06
29.24
30.14
30.74
30.86
30.26
28.78
26.42
23.39
20.02
16.72
13.83
11.51
9.76
8.5
7.57
6.9
6.45
6.2
6.06
5.9
5.49
4.64
3.24
1.27
-1.2
-4.04
-7.17
-10.53
-14.01
-17.41
-20.34
-22.37
-23.08
-22.31
-20.19
-17.13
-13.62
-10.1
-6.8
-3.69
-0.62
2.59
5.99
9.5
12.92
15.99
18.46
20.18
21.14
21.43
21.13
20.36
19.18
17.65
15.89
14.13
12.67
11.82
11.76
12.47
13.66
14.84
15.5
15.23
13.88
11.53
8.52
5.23
2
-1
-3.71
-6.23
-8.63
-10.93
-13.12
-15.08
-16.76
-18.01
-18.77
-18.86
-18.17
-16.61
-14.22
-11.14
-7.62
-3.95
-0.38
2.89
5.75
8.19
10.2
11.8
13.02
13.91
14.53
14.94
15.21
15.35
15.37
15.3
15.18
15.12
15.22
15.55
16.07
16.63
17.02
17.03
16.52
15.49
14
12.17
10.15
8.05
5.97
3.97
2.03
0.06
-2.01
-4.24
-6.6
-8.97
-11.2
-13.09
-14.49
-15.27
-15.3
-14.48
-12.74
-10.09
-6.72
-2.96
0.77
4.12
6.87
9.04
10.84
12.52
14.23
15.95
17.5
18.64
19.18
19.12
18.61
17.91
17.25
16.72
16.31
15.95
15.53
14.94
14.09
12.91
11.32
9.31
6.98
4.55
2.32
0.49
-0.89
-1.9
-2.79
-3.79
-5.09
-6.77
-8.84
-11.19
-13.58
-15.68
-17.08
-17.39
-16.38
-14.05
-10.65
-6.63
-2.45
1.55
5.14
8.29
11.03
13.36
15.29
16.78
17.81
18.47
18.88
19.22
19.61
20.11
20.65
21.15
21.46
21.5
21.2
20.52
19.46
18.02
16.26
14.27
12.16
10.03
7.95
5.92
3.89
1.82
-0.3
-2.47
-4.73
-7.13
-9.73
-12.53
-15.4
-17.98
-19.82
-20.44
-19.64
-17.51
-14.47
-11.06
-7.79
-4.98
-2.7
-0.91
0.49
1.5
2.13
2.3
2.01
1.3
0.31
-0.75
-1.65
-2.14
-2.09
-1.48
-0.33
1.31
3.4
5.97
9.03
12.54
16.36
20.31
24.22
27.94
31.33
34.22
36.28
37.1
36.24
33.45
28.79
22.63
15.65
8.57
2.15
-3.08
-6.78
-8.82
-9.28
-8.41
-6.65
-4.49
-2.41
-0.7
0.54
1.45
2.24
3.11
4.11
5.11
5.97
6.6
7.01
7.3
7.6
7.97
8.41
8.91
9.44
10
10.59
11.16
11.58
11.72
11.43
10.61
9.27
7.47
5.31
2.89
0.24
-2.62
-5.69
-8.96
-12.36
-15.75
-18.92
-21.65
-23.71
-24.97
-25.29
-24.58
-22.8
-19.99
-16.29
-11.93
-7.18
-2.24
2.79
7.88
13.04
18.21
23.22
27.81
31.73
34.83
37.06
38.5
39.23
39.29
38.69
37.39
35.41
32.83
29.79
26.46
22.92
19.22
15.33
11.2
6.82
2.23
-2.43
-6.99
-11.21
-14.87
-17.74
-19.75
-20.9
-21.37
-21.43
-21.37
-21.42
-21.72
-22.3
-23.07
-23.83
-24.3
-24.15
-23.12
-21.07
-18.04
-14.17
-9.71
-4.85
0.23
5.38
10.39
15
18.91
21.81
23.46
23.74
22.64
20.32
17.03
13.18
9.18
5.46
2.3
-0.13
-1.82
-2.81
-3.19
-3.09
-2.69
-2.21
-1.89
-1.92
-2.35
-3.15
-4.23
-5.53
-7.04
-8.76
-10.66
-12.58
-14.32
-15.72
-16.74
-17.55
-18.36
-19.31
-20.38
-21.35
-21.85
-21.55
-20.3
-18.14
-15.33
-12.24
-9.19
-6.41
-4
-1.98
-0.31
1.02
2.03
2.74
3.22
3.58
3.94
4.43
5.12
6.01
7.04
8.1
9.04
9.71
10.01
9.92
9.54
9.07
8.68
8.52
8.6
8.84
9.1
9.21
9.05
8.58
7.84
6.88
5.82
4.71
3.56
2.38
1.16
-0.13
-1.54
-3.14
-4.96
-6.94
-8.9
-10.51
-11.39
-11.21
-9.84
-7.46
-4.5
-1.5
1.02
2.67
3.36
3.23
2.55
1.65
0.75
-0.01
-0.61
-1.06
-1.36
-1.52
-1.5
-1.3
-0.97
-0.59
-0.22
0.1
0.37
0.61
0.77
0.75
0.37
-0.48
-1.86
-3.63
-5.53
-7.21
-8.4
-8.97
-9.03
-8.85
-8.78
-9.14
-10.12
-11.73
-13.8
-16
-17.86
-18.98
-19.08
-18.11
-16.28
-13.97
-11.54
-9.22
-7.02
-4.83
-2.59
-0.35
1.71
3.32
4.28
4.57
4.3
3.71
3.01
2.38
1.87
1.44
1.01
0.45
-0.39
-1.61
-3.29
-5.41
-7.86
-10.45
-12.95
-15.18
-17.03
-18.54
-19.85
-21.12
-22.42
-23.68
-24.62
-24.84
-23.97
-21.82
-18.45
-14.11
-9.21
-4.15
0.7
5.14
9.08
12.53
15.58
18.34
20.9
23.28
25.47
27.45
29.27
31.06
33
35.33
38.17
41.45
44.82
47.72
49.49
49.6
47.88
44.61
40.49
36.35
32.87
30.42
29.03
28.43
28.29
28.28
28.12
27.49
26.1
23.66
20.11
15.68
10.82
6.06
1.84
-1.68
-4.66
-7.42
-10.3
-13.44
-16.76
-19.95
-22.55
-24.1
-24.24
-22.82
-19.89
-15.71
-10.76
-5.66
-1.08
2.34
4.15
4.09
2.21
-1.23
-5.84
-11.15
-16.77
-22.33
-27.49
-31.88
-35.08
-36.81
-37.03
-36.15
-34.88
-34.06
-34.26
-35.56
-37.54
-39.5
-40.8
-41.09
-40.2
-37.88
-33.6
-26.68
-16.79
-4.39
9.17
22.05
32.75
40.7
46.44
51.18
56.06
61.58
67.38
72.6
76.34
77.98
77.33
74.51
69.86
63.84
57.02
49.94
43.05
36.47
29.96
23.01
15.11
6.05
-3.94
-14.2
-23.87
-32.23
-38.91
-44.1
-48.34
-52.31
-56.48
-60.84
-64.82
-67.39
-67.35
-63.84
-56.85
-47.4
-37.38
-28.93
-23.66
-22.16
-24.01
-28.3
-34.27
-41.76
-51.06
-62.5
-75.81
-89.94
-103.29
-114.29
-121.9
-125.74
-125.85
-122.3
-115.1
-104.32
-90.24
-73.55
-55.2
-36.25
-17.55
0.18
16.44
30.84
43.29
54.09
63.88
73.5
83.48
93.8
103.67
111.91
117.37
119.39
118.05
114.11
108.84
103.59
99.43
96.75
95.05
93.15
89.54
83.07
73.47
61.52
48.76
36.8
26.6
18.08
10.23
1.61
-8.88
-21.62
-36.08
-51.18
-65.84
-79.37
-91.39
-101.75
-110.14
-116.02
-118.84
-118.43
-115.24
-110.43
-105.45
-101.59
-99.6
-99.62
-101.22
-103.57
-105.5
-105.6
-102.42
-94.73
-82.01
-64.76
-44.49
-23.33
-3.44
13.54
26.76
36.11
41.92
44.68
44.88
43.01
39.68
35.62
31.58
28.17
25.65
23.91
22.67
21.6
20.63
19.92
19.71
20.16
21.22
22.62
23.99
25.05
25.65
25.83
25.7
25.38
24.94
24.48
24.04
23.65
23.3
22.93
22.51
22.06
21.68
21.48
21.51
21.72
21.96
22.03
21.74
20.95
19.68
18.01
16.11
14.16
12.32
10.66
9.21
7.96
6.94
6.25
5.93
6.05
6.58
7.37
8.32
9.42
10.77
12.62
15.1
18.07
21.06
23.36
24.2
23.09
20.03
15.53
10.49
5.88
2.44
0.5
0.02
0.65
2
3.69
5.46
7.08
8.33
8.97
8.86
7.97
6.45
4.64
2.94
1.66
0.96
0.75
0.74
0.63
0.19
-0.68
-1.89
-3.28
-4.72
-6.13
-7.5
-8.87
-10.23
-11.55
-12.75
-13.7
-14.26
-14.21
-13.31
-11.3
-8.1
-3.8
1.2
6.32
10.91
14.36
16.28
16.5
15.11
12.37
8.72
4.67
0.78
-2.38
-4.37
-4.96
-4.18
-2.34
0.09
2.61
4.8
6.4
7.38
7.84
7.98
7.99
7.95
7.79
7.34
6.36
4.71
2.45
-0.16
-2.77
-5.13
-7.17
-9.02
-10.92
-12.95
-15.07
-17
-18.55
-19.6
-20.22
-20.57
-20.69
-20.45
-19.57
-17.8
-15.07
-11.66
-7.99
-4.51
-1.45
1.17
3.45
5.4
6.98
8.06
8.62
8.88
9.25
10.17
11.87
14.29
17.05
19.61
21.52
22.55
22.75
22.35
21.62
20.75
19.81
18.74
17.48
16.01
14.38
12.72
11.12
9.62
8.18
6.68
5.02
3.22
1.4
-0.27
-1.61
-2.58
-3.25
-3.78
-4.41
-5.28
-6.41
-7.75
-9.19
-10.71
-12.33
-14.14
-16.12
-18.12
-19.83
-20.84
-20.82
-19.66
-17.5
-14.67
-11.6
-8.62
-5.89
-3.34
-0.77
2.05
5.3
9.06
13.36
18.15
23.34
28.78
34.19
39.2
43.33
46.22
47.6
47.46
45.97
43.37
39.93
35.86
31.34
26.57
21.74
17.03
12.52
8.19
3.87
-0.58
-5.26
-10.11
-14.93
-19.35
-22.99
-25.47
-26.56
-26.25
-24.72
-22.31
-19.41
-16.39
-13.53
-11.05
-9.15
-7.96
-7.54
-7.8
-8.49
-9.31
-10.01
-10.46
-10.68
-10.74
-10.68
-10.5
-10.18
-9.69
-9.1
-8.51
-8.03
-7.73
-7.65
-7.77
-8.08
-8.55
-9.13
-9.71
-10.19
-10.52
-10.7
-10.83
-10.99
-11.24
-11.52
-11.63
-11.29
-10.18
-8.08
-4.92
-0.89
3.64
8.18
12.29
15.7
18.3
20.18
21.48
22.31
22.71
22.61
21.96
20.77
19.15
17.29
15.37
13.49
11.64
9.73
7.64
5.41
3.28
1.61
0.78
0.97
2.08
3.75
5.6
7.37
9.11
11.1
13.71
17.12
21.22
25.6
29.71
33.09
35.46
36.86
37.48
37.68
37.92
38.62
40.22
43.06
47.28
52.74
59.06
65.74
72.24
78.23
83.55
88.19
92.14
95.27
97.25
97.65
96.07
92.34
86.66
79.56
71.64
63.18
53.87
42.74
28.5
10.18
-12.21
-37.33
-62.81
-86.02
-104.93
-118.77
-128.1
-134.3
-138.91
-143.07
-147.27
-151.47
-155.2
-157.79
-158.39
-156.16
-150.43
-140.95
-128.13
-113.07
-97.4
-82.87
-70.99
-62.59
-57.75
-55.82
-55.61
-55.74
-55.05
-52.87
-49.16
-44.44
-39.52
-35.17
-31.84
-29.5
-27.82
-26.31
-24.61
-22.62
-20.54
-18.65
-17.19
-16.1
-15
-13.2
-9.87
-4.24
4.14
15.14
27.89
40.84
52.11
60.06
63.86
63.88
61.54
58.82
57.43
58.19
60.81
64.17
66.82
67.46
65.16
59.25
49.28
35.08
17.01
-3.77
-25.3
-45.31
-61.83
-73.82
-81.38
-85.41
-86.94
-86.59
-84.44
-80.13
-73.41
-64.43
-53.84
-42.57
-31.51
-21.25
-11.95
-3.49
4.41
12.05
19.69
27.5
35.56
43.77
51.78
59
64.67
67.99
68.44
65.89
60.62
53.25
44.42
34.65
24.29
13.73
3.49
-5.77
-13.3
-18.61
-21.61
-22.63
-22.28
-21.12
-19.54
-17.68
-15.6
-13.29
-10.86
-8.42
-6.15
-4.16
-2.52
-1.28
-0.44
0.09
0.42
0.73
1.15
1.72
2.34
2.82
2.93
2.46
1.33
-0.36
-2.45
-4.72
-6.96
-9.11
-11.16
-13.23
-15.45
-17.98
-20.99
-24.64
-29.04
-34.21
-40.06
-46.39
-52.88
-59.15
-64.77
-69.37
-72.6
-74.17
-73.84
-71.41
-66.68
-59.55
-50.01
-38.28
-24.82
-10.35
4.27
18.21
30.81
41.68
50.72
57.99
63.68
67.97
71.04
73.1
74.36
75.09
75.52
75.84
76.16
76.48
76.75
76.91
76.89
76.66
76.21
75.5
74.55
73.3
71.72
69.74
67.33
64.53
61.45
58.26
55.17
52.3
49.71
47.31
45
42.62
40.06
37.3
34.44
31.73
29.5
28.14
27.85
28.61
30.11
31.89
33.54
34.8
35.69
36.34
36.86
37.22
37.27
36.83
35.83
34.42
32.95
31.9
31.73
32.79
35.26
39.15
44.37
50.68
57.76
65.17
72.36
78.69
83.64
86.84
88.19
87.81
85.85
82.34
77.02
69.4
58.94
45.4
28.99
10.48
-9.03
-28.44
-46.83
-63.65
-78.55
-91.24
-101.46
-109.07
-114.17
-117.08
-118.15
-117.47
-114.74
-109.38
-100.88
-89.19
-74.96
-59.4
-43.92
-29.72
-17.66
-8.3
-2.05
0.69
-0.4
-5.26
-13.2
-22.99
-33.08
-42.01
-48.89
-53.56
-56.5
-58.51
-60.27
-62.02
-63.64
-64.79
-65.22
-64.89
-63.89
-62.31
-59.99
-56.54
-51.33
-43.9
-34.19
-22.74
-10.64
0.77
10.32
17.35
21.89
24.55
26.2
27.62
29.2
30.89
32.43
33.51
34.04
34.16
34.21
34.46
35.03
35.79
36.46
36.79
36.66
36.13
35.35
34.45
33.44
32.23
30.72
28.85
26.74
24.6
22.67
21.13
20
19.14
18.25
17.04
15.27
12.86
9.94
6.74
3.55
0.62
-1.93
-4.11
-6.03
-7.81
-9.55
-11.34
-13.26
-15.37
-17.74
-20.36
-23.17
-26.04
-28.78
-31.14
-32.88
-33.74
-33.64
-32.63
-30.95
-28.94
-26.95
-25.21
-23.82
-22.74
-21.85
-21.03
-20.14
-19.12
-17.93
-16.56
-15.05
-13.47
-11.9
-10.39
-9.01
-7.76
-6.65
-5.65
-4.75
-3.92
-3.13
-2.36
-1.56
-0.76
-0.02
0.58
0.88
0.79
0.26
-0.65
-1.8
-3.04
-4.31
-5.63
-7.11
-8.81
-10.69
-12.56
-14.17
-15.36
-16.09
-16.53
-16.91
-17.36
-17.81
-18.02
-17.64
-16.42
-14.26
-11.25
-7.73
-4.06
-0.59
2.4
4.83
6.69
8.07
9.07
9.79
10.29
10.6
10.76
10.73
10.54
10.19
9.72
9.21
8.76
8.39
8.08
7.66
6.94
5.76
4.11
2.13
0.09
-1.73
-3.18
-4.25
-5.03
-5.71
-6.42
-7.31
-8.48
-10.03
-11.98
-14.28
-16.81
-19.39
-21.85
-24.18
-26.49
-29.02
-32.02
-35.56
-39.48
-43.37
-46.66
-48.84
-49.58
-48.88
-46.99
-44.34
-41.38
-38.42
-35.55
-32.61
-29.31
-25.39
-20.81
-15.91
-11.37
-7.97
-6.32
-6.57
-8.32
-10.76
-12.95
-14.12
-13.78
-11.84
-8.5
-4.19
0.5
4.94
8.53
10.88
11.84
11.58
10.3
8.26
5.55
2.22
-1.65
-5.85
-10
-13.7
-16.69
-18.96
-20.73
-22.33
-24
-25.83
-27.75
-29.67
-31.48
-33.12
-34.48
-35.29
-35.2
-33.88
-31.32
-27.83
-24.09
-20.81
-18.37
-16.74
-15.5
-14.25
-12.75
-11.06
-9.27
-7.25
-4.54
-0.61
4.72
11.01
17.02
21.32
22.74
20.92
16.41
10.4
4.09
-1.66
-6.47
-10.4
-13.62
-16.22
-18.12
-19.2
-19.46
-19.08
-18.42
-17.86
-17.6
-17.6
-17.54
-17.06
-15.82
-13.75
-10.94
-7.69
-4.32
-1.05
2.05
5.1
8.34
12.06
16.55
21.99
28.36
35.5
43.03
50.47
57.33
63.21
67.94
71.54
74.24
76.38
78.38
80.56
83.16
86.19
89.46
92.61
95.21
96.92
97.69
97.68
97.25
96.69
96.07
95.2
93.72
91.3
87.8
83.31
78.1
72.57
67.06
61.85
57.03
52.4
47.5
41.73
34.68
26.37
17.42
8.87
1.66
-3.93
-8.36
-12.64
-17.59
-23.38
-29.26
-33.98
-36.4
-36.19
-34.01
-31.24
-29.43
-29.63
-32.17
-36.6
-42.02
-47.33
-51.57
-54.13
-54.91
-54.46
-53.8
-53.98
-55.4
-57.26
-57.38
-52.88
-41.36
-22.17
2.98
30.62
56.71
78.11
93.22
102.05
105.49
104.76
101.06
95.6
89.62
84.14
79.65
75.82
71.68
66.15
58.71
49.64
39.81
30.21
21.49
13.8
6.86
0.25
-6.35
-12.93
-19.06
-24.05
-27.2
-28.25
-27.58
-26.22
-25.57
-26.68
-29.82
-34.18
-38.4
-41.1
-41.6
-40.01
-37.02
-33.28
-29.05
-24.12
-18.17
-11.32
-4.39
1.21
4.01
3.16
-1.11
-7.58
-14.66
-21.03
-26.29
-31.08
-36.64
-44.18
-54.12
-65.83
-77.9
-88.79
-97.47
-103.83
-108.5
-112.35
-115.99
-119.36
-121.88
-122.82
-121.72
-118.7
-114.32
-109.3
-104.09
-98.74
-93
-86.55
-79.24
-71.21
-62.71
-54.04
-45.41
-36.87
-28.49
-20.33
-12.49
-5.11
1.66
7.68
12.84
17.09
20.49
23.2
25.45
27.53
29.55
31.45
32.97
33.81
33.82
33.09
31.88
30.55
29.3
28.15
26.95
25.47
23.61
21.35
18.84
16.2
13.55
10.95
8.4
5.97
3.68
1.57
-0.38
-2.33
-4.41
-6.72
-9.18
-11.46
-13.03
-13.35
-12.05
-9.13
-4.97
-0.26
4.32
8.24
11.29
13.52
15.11
16.25
17.03
17.45
17.56
17.41
17.18
17.01
17.04
17.23
17.48
17.65
17.63
17.42
17.1
16.79
16.52
16.25
15.83
15.13
14.08
12.72
11.21
9.63
8.05
6.42
4.68
2.72
0.55
-1.79
-4.18
-6.44
-8.39
-9.78
-10.37
-9.96
-8.42
-5.8
-2.36
1.53
5.43
8.95
11.85
14.06
15.64
16.72
17.43
17.88
18.12
18.19
18.16
18.1
18.09
18.19
18.43
18.74
19
19.07
18.86
18.33
17.48
16.37
15.06
13.59
11.95
10.11
8.04
5.78
3.45
1.18
-0.94
-2.9
-4.82
-6.88
-9.2
-11.75
-14.31
-16.55
-18.05
-18.48
-17.68
-15.64
-12.59
-8.87
-4.91
-1.07
2.34
5.18
7.38
8.93
9.82
10.1
9.81
9.08
8.15
7.23
6.54
6.13
5.96
5.84
5.54
4.88
3.81
2.35
0.63
-1.19
-3.02
-4.84
-6.74
-8.88
-11.42
-14.44
-17.94
-21.78
-25.74
-29.64
-33.36
-36.97
-40.61
-44.43
-48.46
-52.55
-56.37
-59.47
-61.44
-61.95
-60.9
-58.34
-54.48
-49.59
-43.9
-37.51
-30.34
-22.15
-12.67
-1.73
10.61
24.16
38.7
54.18
70.65
88.25
106.95
126.4
145.91
164.32
180.17
191.77
197.29
195.07
184
164.03
136.39
103.58
68.81
35.34
5.74
-18.38
-36.46
-48.6
-55.36
-57.58
-56.36
-53.1
-49.32
-46.47
-45.53
-46.79
-49.86
-53.91
-58.03
-61.48
-63.91
-65.2
-65.34
-64.2
-61.52
-56.91
-50.19
-41.48
-31.33
-20.55
-9.98
-0.22
8.48
16.21
23.27
29.94
36.4
42.62
48.45
53.68
58.11
61.6
64.05
65.39
65.54
64.38
61.82
57.7
51.93
44.48
35.46
25.1
13.7
1.68
-10.51
-22.31
-33.2
-42.66
-50.42
-56.43
-60.99
-64.57
-67.65
-70.54
-73.13
-75.06
-75.76
-74.8
-72.09
-67.9
-62.88
-57.78
-53.22
-49.5
-46.54
-43.94
-41.18
-37.85
-33.72
-28.82
-23.32
-17.45
-11.34
-5.12
1.17
7.43
13.54
19.39
24.9
30.12
35.11
39.94
44.51
48.57
51.8
53.91
54.74
54.3
52.68
50
46.37
41.96
36.99
31.83
26.89
22.5
18.83
15.91
13.6
11.77
10.29
9.05
7.9
6.65
5.17
3.39
1.44
-0.43
-1.9
-2.66
-2.53
-1.51
0.25
2.48
4.89
7.17
9.11
10.57
11.44
11.69
11.3
10.33
8.92
7.26
5.65
4.33
3.4
2.87
2.62
2.5
2.42
2.34
2.26
2.24
2.31
2.48
2.73
3.04
3.33
3.53
3.56
3.34
2.85
2.12
1.2
0.1
-1.19
-2.74
-4.52
-6.43
-8.3
-9.94
-11.24
-12.23
-13.07
-14.01
-15.28
-16.92
-18.76
-20.4
-21.29
-20.88
-18.83
-15.17
-10.32
-5.01
-0.04
3.99
6.86
8.76
10.14
11.55
13.38
15.73
18.34
20.75
22.48
23.22
22.98
22.05
20.94
20.16
20.02
20.54
21.48
22.34
22.5
21.36
18.51
14.08
8.72
3.61
-0.05
-1.44
-0.58
1.72
4.15
5.52
5.17
3.1
-0.11
-3.72
-7.11
-9.96
-12.18
-13.84
-15.03
-15.85
-16.39
-16.69
-16.7
-16.35
-15.49
-14
-11.78
-8.82
-5.2
-1.09
3.29
7.72
11.99
15.97
19.54
22.65
25.23
27.3
28.87
29.94
30.48
30.48
29.95
28.95
27.58
25.93
23.98
21.68
18.81
15.11
10.38
4.61
-2.03
-9.11
-16.16
-22.73
-28.5
-33.25
-36.91
-39.39
-40.66
-40.77
-39.85
-38.22
-36.28
-34.42
-32.92
-31.84
-31.07
-30.36
-29.44
-28.04
-25.98
-23.17
-19.63
-15.5
-11.03
-6.48
-2.17
1.62
4.69
6.97
8.51
9.46
9.94
10.01
9.62
8.63
6.91
4.42
1.34
-2.03
-5.22
-7.8
-9.44
-10.03
-9.82
-9.3
-9.16
-10.04
-12.35
-16.02
-20.47
-24.79
-28.08
-29.78
-29.8
-28.57
-26.77
-25.08
-23.83
-22.77
-20.91
-16.61
-7.89
6.94
28.35
54.88
83.21
108.86
127.93
138.38
140.63
137.12
131.34
126.17
122.96
121.35
119.69
116.36
110.2
100.66
87.7
72.31
56.1
41.02
28.85
20.11
14.88
12.22
10.22
6.57
-0.1
-10.17
-23.08
-37.56
-52.62
-65.85
-74.23
-75
-66.26
-46.58
-15.97
23.78
69.32
115.32
157.89
194.55
223.84
238.72
233.74
206.93
161.1
108.67
53.33
-4.38
-64.44
-126.61
-188.24
-245.2
-293.86
-332.13
-359.83
-379.08
-391.02
-395.9
-393.38
-382.88
-363.41
-334.51
-296.69
-251.83
-203.78
-156.03
-111.56
-72.54
-40
-13.5
8.27
26.95
43.84
59.09
72.78
84.9
95.39
104.31
112.05
119.13
126.05
133.1
139.98
146.34
151.72
155.29
155.9
152.34
143.74
130.1
112.49
92.93
73.9
57.54
44.87
35.63
28.59
22.28
15.68
8.47
0.96
-6.4
-13.28
-19.68
-25.8
-31.7
-37.27
-42.21
-46.18
-49.05
-50.92
-51.99
-52.3
-51.62
-49.51
-45.64
-40.11
-33.45
-26.39
-19.19
-11.25
-1.27
11.9
28.14
45.38
60.04
68.44
68.48
60.79
48.47
35.77
26.3
21.81
22.01
25.36
30.13
35.08
39.67
43.71
47.06
49.52
50.93
51.32
50.92
50.23
49.82
50.18
51.55
53.69
55.89
57.09
56.33
53.07
47.52
40.56
33.36
26.84
21.37
16.67
12.11
7.1
1.35
-4.97
-11.5
-17.89
-24
-29.92
-35.79
-41.68
-47.45
-52.73
-57.06
-59.99
-61.29
-60.89
-58.9
-55.55
-51.1
-45.9
-40.42
-35.19
-30.73
-27.42
-25.3
-24.13
-23.5
-23.05
-22.57
-22.09
-21.61
-21
-19.95
-18.03
-15.03
-11.12
-6.75
-2.44
1.45
4.97
8.44
12.23
16.57
21.34
26.22
30.85
34.93
38.31
41
43.13
44.87
46.52
48.45
51.19
55.29
61.21
69
78.18
87.69
96.12
102.17
105.04
104.73
101.89
97.44
92.08
86.05
79.25
71.41
62.46
52.46
41.61
30
17.59
4.29
-9.88
-24.66
-39.55
-53.91
-67.15
-78.79
-88.53
-96.24
-101.89
-105.56
-107.41
-107.6
-106.27
-103.57
-99.72
-95.11
-90.27
-85.9
-82.66
-81.15
-81.69
-84.36
-88.92
-95.02
-102.25
-110.24
-118.71
-127.45
-136.29
-145.11
-153.69
-161.72
-168.69
-173.96
-176.88
-176.88
-173.6
-166.92
-156.9
-143.63
-127.17
-107.59
-85.08
-60.24
-34.02
-7.77
17.02
39.08
57.54
72.01
82.61
89.74
93.92
95.71
95.61
94.03
91.36
87.92
84.05
80.19
76.81
74.36
73.19
73.39
74.83
77.24
80.42
84.29
88.9
94.27
100.25
106.53
112.7
118.41
123.41
127.42
129.91
130.08
127.02
120.11
109.35
95.45
79.5
62.72
46.01
30.04
15.39
2.7
-7.39
-14.42
-18.46
-20.1
-20.2
-19.56
-18.58
-17.28
-15.44
-12.97
-9.93
-6.58
-3.3
-0.47
1.5
2.25
1.54
-0.69
-4.22
-8.62
-13.36
-17.98
-22.27
-26.23
-30.01
-33.8
-37.74
-41.91
-46.41
-51.41
-57.12
-63.63
-70.8
-78.17
-84.95
-90.28
-93.28
-93.31
-90
-83.19
-72.85
-59.12
-42.25
-22.78
-1.6
20.18
41.33
60.78
77.71
91.7
102.64
110.67
116.14
119.5
121.25
121.85
121.63
120.65
118.75
115.61
111.05
105.17
98.48
91.76
85.77
80.95
77.23
74.01
70.48
65.91
59.94
52.75
44.96
37.39
30.88
25.99
22.92
21.46
21.07
21.16
21.25
21.21
21.21
21.67
22.92
25.11
28.09
31.42
34.55
36.93
38.08
37.59
35.18
30.63
23.95
15.43
5.56
-5.05
-15.93
-26.95
-38.29
-50.26
-62.99
-76.18
-89.17
-101.18
-111.71
-120.69
-128.51
-135.66
-142.5
-149
-154.84
-159.42
-162.03
-161.94
-158.56
-151.65
-141.46
-128.7
-114.32
-99.09
-83.28
-66.57
-48.35
-28.19
-6.15
17.23
41.06
64.39
86.11
104.78
118.46
124.88
122.1
109.46
88.19
61.39
33.27
7.97
-11.5
-23.71
-28.66
-27.13
-20.14
-8.66
6.12
22.48
37.96
49.66
55.02
52.66
42.94
27.88
10.45
-6.46
-20.9
-32.15
-40.46
-46.4
-50.3
-52.18
-51.92
-49.8
-46.69
-43.93
-42.92
-44.58
-49
-55.43
-62.63
-69.36
-74.8
-78.71
-81.37
-83.29
-84.93
-86.48
-87.71
-88.04
-86.65
-82.83
-76.19
-66.94
-55.94
-44.48
-33.9
-25.11
-18.27
-12.82
-7.76
-2.12
4.56
11.87
18.52
22.6
22.12
15.76
3.38
-13.64
-32.73
-50.69
-64.62
-72.6
-73.95
-69.07
-58.89
-44.54
-27.13
-7.81
12.09
31.05
47.6
60.64
69.65
74.83
76.89
76.85
75.81
74.67
74.02
73.99
74.2
73.85
71.93
67.62
60.49
50.78
39.17
26.65
14.23
2.78
-7.01
-14.69
-20.07
-23.23
-24.47
-24.33
-23.44
-22.33
-21.4
-20.85
-20.7
-20.82
-20.97
-20.87
-20.34
-19.41
-18.36
-17.62
-17.61
-18.52
-20.19
-22.13
-23.73
-24.47
-24.12
-22.72
-20.53
-17.89
-15.11
-12.35
-9.67
-7.05
-4.49
-2.01
0.29
2.28
3.87
5.08
5.97
6.68
7.34
8.07
8.93
9.92
11.01
12.06
12.97
13.61
13.94
13.98
13.84
13.64
13.43
13.2
12.86
12.4
11.76
10.99
10.12
9.18
8.16
6.99
5.61
4
2.19
0.25
-1.75
-3.73
-5.62
-7.3
-8.66
-9.47
-9.57
-8.83
-7.3
-5.12
-2.53
0.18
2.79
5.08
6.99
8.5
9.68
10.68
11.65
12.63
13.56
14.31
14.69
14.64
14.19
13.49
12.76
12.21
11.93
11.94
12.17
12.45
12.58
12.41
11.82
10.79
9.45
8
6.63
5.46
4.44
3.47
2.37
1.06
-0.41
-1.8
-2.8
-3.11
-2.59
-1.3
0.57
2.73
4.92
7.01
8.94
10.77
12.56
14.3
15.91
17.29
18.33
18.99
19.31
19.38
19.33
19.29
19.34
19.51
19.7
19.83
19.75
19.44
18.85
18.05
17.07
15.94
14.63
13.15
11.53
9.86
8.28
6.83
5.51
4.19
2.77
1.26
-0.19
-1.32
-1.83
-1.54
-0.43
1.34
3.53
5.79
7.9
9.72
11.18
12.34
13.31
14.17
14.98
15.67
16.13
16.23
15.89
15.19
14.32
13.51
13.01
12.94
13.24
13.74
14.24
14.57
14.61
14.33
13.72
12.75
11.41
9.75
7.9
6.04
4.35
2.86
1.5
0.07
-1.57
-3.42
-5.29
-6.85
-7.76
-7.81
-6.98
-5.43
-3.42
-1.2
1.01
3.06
4.87
6.42
7.67
8.68
9.45
10.02
10.42
10.69
10.89
11.03
11.13
11.12
10.91
10.45
9.72
8.82
7.91
7.16
6.65
6.34
6.11
5.78
5.21
4.35
3.25
1.98
0.64
-0.7
-1.99
-3.23
-4.47
-5.76
-7.19
-8.76
-10.37
-11.86
-12.96
-13.43
-13.13
-12.02
-10.23
-8.05
-5.76
-3.7
-2.06
-0.89
-0.16
0.29
0.56
0.7
0.68
0.46
0.03
-0.52
-1.03
-1.36
-1.42
-1.28
-1.06
-0.97
-1.18
-1.8
-2.87
-4.25
-5.75
-7.13
-8.19
-8.93
-9.51
-10.25
-11.47
-13.34
-15.77
-18.32
-20.33
-21.07
-19.91
-16.41
-10.38
-1.8
9.14
22.09
36.62
52.33
68.99
86.52
104.79
123.36
141.01
155.68
164.72
165.68
157.21
139.68
115.24
87.14
58.71
32.4
9.39
-10.32
-27.32
-42.25
-55.61
-67.77
-79.18
-90.37
-101.8
-113.54
-125.05
-135.47
-143.81
-149.41
-152.06
-151.95
-149.39
-144.67
-137.93
-129.17
-118.5
-106.1
-92.35
-77.71
-62.72
-47.89
-33.67
-20.45
-8.43
2.33
11.86
20.24
27.47
33.52
38.33
41.9
44.34
45.9
46.81
47.25
47.32
46.98
46.17
44.89
43.25
41.4
39.6
37.97
36.54
35.26
34.01
32.69
31.26
29.7
27.96
25.98
23.64
20.87
17.68
14.18
10.52
6.93
3.54
0.48
-2.21
-4.53
-6.53
-8.22
-9.65
-10.87
-11.94
-12.94
-14.01
-15.24
-16.63
-18.08
-19.29
-19.9
-19.62
-18.34
-16.22
-13.58
-10.8
-8.16
-5.79
-3.71
-1.8
0.01
1.78
3.51
5.11
6.52
7.66
8.48
9.01
9.34
9.61
9.93
10.39
11.06
11.95
13.05
14.27
15.46
16.45
17.06
17.27
17.12
16.79
16.45
16.21
16.09
16.02
15.95
15.84
15.72
15.65
15.61
15.57
15.44
15.18
14.83
14.48
14.24
14.15
14.13
13.92
13.23
11.75
9.37
6.12
2.19
-2.2
-6.85
-11.76
-17.06
-23.01
-29.91
-38
-47.39
-58.01
-69.45
-80.93
-91.26
-99.14
-103.35
-103.21
-98.66
-90.28
-78.97
-65.69
-51.27
-36.35
-21.52
-7.29
5.87
17.71
28.21
37.62
46.28
54.31
61.55
67.5
71.56
73.14
71.95
68.03
61.76
53.82
44.97
36.03
27.75
20.71
15.37
11.99
10.73
11.59
14.52
19.28
25.46
32.44
39.42
45.54
50.02
52.33
52.24
49.91
45.84
40.7
35.18
29.79
24.74
20.03
15.52
11.06
6.62
2.32
-1.64
-5.04
-7.74
-9.75
-11.21
-12.37
-13.49
-14.77
-16.19
-17.49
-18.3
-18.27
-17.33
-15.77
-14.19
-13.28
-13.56
-15.14
-17.69
-20.61
-23.24
-25.16
-26.17
-26.38
-26.09
-25.83
-26.32
-28.38
-32.68
-39.35
-47.58
-55.68
-61.7
-64.31
-63.61
-61.19
-59.4
-60.13
-63.77
-68.91
-72.9
-73.09
-67.82
-56.95
-41.6
-23.58
-4.67
13.66
30.34
44.43
55.14
61.88
64.41
63.06
58.73
52.74
46.58
41.4
37.79
35.61
34.23
32.89
31.04
28.6
25.96
23.75
22.49
22.29
22.67
22.81
21.83
19.26
15.29
10.8
7
5.01
5.52
8.64
14.01
21.01
28.98
37.36
45.62
53.27
59.68
64.24
66.32
65.47
61.54
54.84
46.1
36.45
27.13
19.24
13.45
9.89
8.17
7.58
7.32
6.7
5.33
3.09
0.06
-3.55
-7.48
-11.49
-15.36
-18.89
-21.93
-24.5
-26.73
-28.88
-31.3
-34.3
-38.12
-42.82
-48.35
-54.52
-60.96
-67.19
-72.69
-77.09
-80.44
-83.19
-85.99
-89.25
-92.75
-95.69
-97.07
-96.22
-93.3
-89.3
-85.56
-83.17
-82.47
-82.98
-83.74
-83.82
-82.76
-80.7
-78
-75.08
-72
-68.53
-64.33
-59.23
-53.39
-46.89
-39.28
-29.32
-15.44
3.26
25.93
49.75
70.79
85.55
92.63
93.13
89.92
85.96
82.87
80.38
77.01
71.38
63.17
53.4
43.86
36.18
31.25
29.16
29.36
31.13
33.95
37.52
41.7
46.35
51.13
55.5
58.97
61.21
62.22
62.34
62.04
61.7
61.29
60.37
58.17
53.78
46.44
35.68
21.46
3.99
-16.24
-38.54
-62.13
-86.16
-109.78
-132.11
-152.18
-168.72
-180.3
-185.49
-183.31
-173.5
-156.72
-134.33
-108.03
-79.43
-49.84
-20.39
7.94
34.22
57.67
77.97
95.29
110.24
123.55
135.67
146.48
155.32
161.15
163.01
160.54
154.23
145.4
135.85
127.28
120.72
116.23
112.84
108.84
102.36
91.8
76.22
55.47
30.14
1.34
-29.45
-60.75
-91.14
-119.38
-144.45
-165.43
-181.43
-191.58
-195.1
-191.48
-180.66
-163.2
-140.23
-113.36
-84.41
-55.14
-27.11
-1.57
20.52
38.55
52.33
62.24
69.13
74.24
78.78
83.61
89.02
94.65
99.72
103.46
105.4
105.54
104.37
102.53
100.56
98.66
96.66
94.06
90.27
84.72
77.07
67.26
55.59
42.59
28.97
15.38
2.34
-9.85
-21.13
-31.64
-41.68
-51.57
-61.7
-72.22
-83.06
-93.75
-103.58
-111.91
-118.42
-123.32
-127.16
-130.53
-133.49
-135.29
-134.43
-129.1
-117.86
-100.15
-76.46
-48.27
-17.64
13.27
42.49
68.39
89.73
105.65
115.77
120.26
119.76
115.25
107.79
98.25
87.09
74.51
60.52
45.31
29.38
13.6
-0.94
-13.14
-22.17
-27.6
-29.37
-27.81
-23.44
-16.91
-8.92
-0.23
8.35
16.04
22.02
25.73
26.72
24.8
19.95
12.19
1.6
-11.55
-26.45
-41.6
-54.89
-64.15
-67.79
-65.3
-57.43
-45.81
-32.41
-18.99
-6.81
3.36
11.16
16.53
19.66
21.02
21.19
20.62
19.48
17.64
14.82
10.8
5.61
-0.39
-6.59
-12.19
-16.38
-18.52
-18.3
-15.71
-11.08
-4.93
2.16
9.66
17.09
24
29.79
33.76
35.11
33.26
27.95
19.56
9.14
-1.76
-11.39
-18.28
-21.59
-21.35
-18.43
-14.2
-10.04
-6.84
-4.76
-3.17
-0.91
3.34
10.84
22.44
38.45
58.54
81.54
105.54
128.27
147.64
162.11
170.72
172.65
166.8
151.7
126
89.24
42.7
-10.5
-65.96
-118.84
-164.62
-199.48
-220.49
-225.72
-214.68
-188.79
-151.52
-107.91
-63.47
-23.09
9.84
33.61
47.99
53.85
52.71
46.37
36.78
25.8
14.8
4.59
-4.74
-13.64
-22.66
-32.01
-41.36
-49.84
-56.26
-59.69
-59.76
-56.91
-52.17
-46.9
-42.21
-38.74
-36.54
-35.16
-33.76
-31.25
-26.47
-18.54
-7.23
6.72
21.56
34.87
44.27
48.18
46.45
40.34
32.12
24.26
18.84
17.04
19.06
24.26
31.25
38.23
43.23
44.57
41.27
33.44
22.37
10.23
-0.4
-7.32
-9.22
-6.01
1.29
11.05
21.52
31.3
39.5
45.68
49.56
50.83
49.12
44.15
35.97
25.04
12.28
-1.14
-14.02
-25.26
-34.04
-39.86
-42.63
-42.72
-40.99
-38.62
-36.86
-36.62
-38.2
-41.15
-44.46
-46.98
-47.89
-46.97
-44.61
-41.56
-38.44
-35.45
-32.28
-28.3
-23
-16.13
-7.86
1.44
11.44
21.93
32.76
43.62
53.99
63.06
70.03
74.34
75.95
75.33
73.29
70.69
68.1
65.76
63.49
61.01
57.97
54.19
49.64
44.4
38.67
32.71
26.81
21.32
16.54
12.7
9.86
7.97
6.79
6.09
5.61
5.17
4.65
4.03
3.34
2.59
1.72
0.59
-0.96
-3.02
-5.6
-8.54
-11.62
-14.59
-17.29
-19.63
-21.63
-23.43
-25.31
-27.59
-30.58
-34.39
-38.87
-43.68
-48.44
-52.9
-57.05
-61.11
-65.32
-69.82
-74.49
-79.02
-82.94
-85.77
-87.1
-86.68
-84.44
-80.5
-75.14
-68.76
-61.77
-54.45
-46.83
-38.68
-29.66
-19.52
-8.45
2.93
13.59
22.46
28.73
32.07
32.6
30.71
26.94
21.84
16.01
10.1
4.79
0.59
-2.27
-3.96
-4.86
-5.38
-5.84
-6.3
-6.66
-6.79
-6.56
-5.95
-5.03
-3.95
-2.91
-2.16
-1.9
-2.28
-3.33
-5.01
-7.32
-10.27
-13.97
-18.43
-23.52
-28.89
-34.03
-38.38
-41.57
-43.38
-43.84
-43.11
-41.51
-39.41
-37.15
-35.03
-33.13
-31.35
-29.39
-26.84
-23.39
-18.92
-13.51
-7.47
-1.17
5.11
11.09
16.59
21.42
25.33
28.06
29.41
29.38
28.23
26.46
24.67
23.34
22.77
23.04
24.03
25.55
27.36
29.24
31.04
32.65
34.02
35.11
35.87
36.2
35.96
34.94
32.92
29.74
25.29
19.62
13
5.92
-0.98
-6.98
-11.54
-14.38
-15.53
-15.25
-13.95
-11.99
-9.72
-7.43
-5.35
-3.67
-2.53
-1.91
-1.68
-1.54
-1.15
-0.1
1.86
4.87
8.83
13.35
17.93
21.97
25.02
26.85
27.58
27.51
27.1
26.81
26.91
27.53
28.63
30.07
31.65
33.14
34.25
34.76
34.53
33.63
32.3
30.91
29.83
29.29
29.24
29.4
29.33
28.55
26.76
23.87
19.98
15.43
10.5
5.42
0.23
-5.19
-11.03
-17.51
-24.63
-32.28
-40.15
-47.8
-54.68
-60.28
-64.2
-66.28
-66.71
-65.9
-64.38
-62.61
-60.77
-58.71
-56.02
-52.24
-46.99
-40.11
-31.51
-21.14
-8.82
5.68
22.48
41.43
61.93
83.06
103.78
123.23
140.72
155.48
166.37
171.65
169.33
157.83
136.76
107.46
72.82
36.59
2.39
-27.16
-50.9
-68.98
-82.4
-92.37
-99.92
-105.66
-109.78
-112.21
-112.74
-111.21
-107.44
-101.26
-92.71
-82.33
-71.38
-61.57
-54.4
-50.16
-47.39
-43.02
-33.52
-16.37
8.76
39.85
73.33
105.58
134.08
157.85
177.03
192.07
203.12
210.03
212.79
212.03
209.09
205.54
202.33
199.07
194.05
184.9
169.79
148.43
122.34
94.24
67.01
42.53
21.19
2.17
-15.87
-33.83
-51.73
-68.69
-83.47
-94.99
-102.82
-107.29
-109.25
-109.76
-109.69
-109.59
-109.64
-109.82
-110.06
-110.37
-110.81
-111.38
-111.84
-111.72
-110.5
-107.82
-103.69
-98.47
-92.69
-86.85
-81.2
-75.74
-70.35
-65.08
-60.18
-56.15
-53.6
-53.11
-54.98
-59.23
-65.42
-72.7
-79.9
-85.82
-89.38
-89.95
-87.41
-82.2
-75.07
-66.8
-57.91
-48.55
-38.66
-28.15
-17.22
-6.35
3.97
13.58
23.04
33.57
46.55
62.7
81.43
100.71
117.74
129.96
135.93
135.61
129.84
119.51
105.15
86.88
65.08
40.98
16.77
-4.97
-22.29
-34.54
-42.43
-47.49
-51.23
-54.48
-57.3
-59.24
-59.89
-59.13
-57.24
-54.65
-51.59
-47.82
-42.73
-35.51
-25.58
-12.95
1.65
16.89
31.14
42.88
51.1
55.27
55.25
51.01
42.57
30.12
14.23
-3.95
-22.84
-40.77
-56.45
-69.21
-79.01
-86.17
-91.08
-93.96
-94.9
-94.02
-91.58
-87.88
-83.08
-77.02
-69.37
-59.79
-48.23
-34.96
-20.4
-5.07
10.54
25.87
40.22
52.58
61.84
67.01
67.52
63.55
55.91
45.91
34.94
24.17
14.34
5.72
-1.72
-8.2
-13.97
-19.18
-23.82
-27.71
-30.54
-31.97
-31.77
-29.87
-26.43
-21.73
-16.18
-10.15
-4.01
1.95
7.41
12.1
15.79
18.38
19.98
20.81
21.23
21.54
21.95
22.49
23.12
23.69
24.1
24.33
24.49
24.74
25.23
25.99
26.93
27.82
28.34
28.24
27.41
25.95
24.15
22.28
20.47
18.71
16.79
14.49
11.72
8.52
5.15
1.93
-0.94
-3.35
-5.27
-6.67
-7.38
-7.19
-5.99
-3.81
-0.94
2.18
5.15
7.72
9.83
11.54
12.92
13.98
14.68
15.01
15.13
15.27
15.68
16.49
17.69
19.13
20.57
21.86
22.86
23.56
23.96
24.09
23.95
23.59
22.99
22.17
21.14
19.89
18.41
16.74
14.91
12.97
10.97
8.9
6.76
4.63
2.64
1.07
0.21
0.28
1.34
3.22
5.53
7.76
9.42
10.2
9.98
8.83
6.98
4.67
2.22
-0.09
-1.9
-2.82
-2.57
-1.06
1.44
4.35
7
8.99
10.41
11.79
13.9
17.18
21.55
26.29
30.34
32.74
32.94
30.97
27.24
22.37
16.83
10.89
4.74
-1.47
-7.35
-12.41
-16.07
-17.96
-18.01
-16.55
-14.12
-11.21
-8.2
-5.18
-2.11
1.03
4.15
7.05
9.52
11.49
13.01
14.25
15.43
16.69
18.11
19.71
21.46
23.36
25.33
27.23
28.8
29.73
29.78
28.91
27.32
25.44
23.77
22.67
22.15
21.9
21.43
20.39
18.82
17.3
16.77
18.24
22.42
29.5
39.23
51.17
64.95
80.33
97.05
114.61
132.28
149.26
165.08
179.78
193.62
206.34
216.28
220.09
213.2
191.3
152.1
96.44
28.25
-46.57
-121.67
-191.38
-251.1
-297.25
-327.21
-339.99
-337.07
-322.82
-303.74
-286.5
-275.46
-271.02
-269.48
-264.86
-251.49
-226.43
-190.33
-146.95
-101.45
-58.39
-20.4
12.09
39.81
63.15
81.1
91.31
91.35
80.5
61.03
38.13
18.25
6.78
6.17
15.58
31.95
51.82
72.85
94.24
116.01
137.73
157.76
173.36
181.57
180.51
170.34
153.33
133.11
113.24
96.05
82.22
71.36
63.03
57.56
55.95
59.13
66.88
77.27
87.07
92.92
92.5
85.16
71.69
53.41
31.26
5.22
-25.45
-61.5
-102.86
-148.12
-194.66
-239.13
-278.14
-308.73
-328.5
-335.57
-328.65
-307.25
-272.13
-225.65
-171.58
-114.56
-59.18
-9
33.84
68.63
95.63
115.62
129.51
138.23
142.79
144.22
143.46
141.21
137.7
132.86
126.37
118.05
108.04
96.84
85.13
73.59
62.69
52.63
43.6
35.82
29.71
25.69
24.16
25.32
29.17
35.43
43.39
51.86
59.19
63.54
63.31
57.62
46.35
30.07
9.76
-13.47
-38.45
-63.83
-87.84
-108.45
-123.56
-131.76
-132.74
-127.4
-117.55
-105.25
-92.21
-79.61
-68.14
-58.36
-51.06
-47.22
-47.66
-52.6
-61.22
-71.84
-82.38
-91.04
-96.83
-99.56
-99.55
-97.11
-92.22
-84.49
-73.48
-59.21
-42.32
-24.07
-5.95
10.64
24.74
35.79
43.65
48.45
50.38
49.71
46.69
41.66
35.03
27.31
19.05
10.75
2.74
-4.83
-11.88
-18.36
-24.1
-28.83
-32.21
-34.01
-34.11
-32.59
-29.67
-25.63
-20.76
-15.34
-9.66
-4.02
1.38
6.42
11.17
15.82
20.53
25.4
30.37
35.3
39.99
44.27
47.97
51.06
53.52
55.54
57.39
59.45
62.04
65.33
69.18
73.24
77.12
80.57
83.55
86.21
88.73
91.15
93.27
94.7
95.04
94.13
92.27
90.18
88.79
88.75
90.03
91.73
92.46
90.76
85.65
76.66
63.63
46.38
24.98
0.35
-25.13
-47.9
-64.42
-72.75
-73.56
-69.61
-64.17
-59.15
-54.06
-46.46
-33.46
-13.37
13.64
45.72
80.25
114.57
146.18
172.41
190.13
195.97
187.07
162.17
122.44
71.57
15.06
-41.1
-92.02
-134.9
-169.03
-195.05
-213.89
-226.15
-232.18
-232.54
-228.38
-221.31
-212.93
-204.04
-194.39
-182.84
-167.99
-148.95
-125.88
-100.15
-74.1
-50.54
-32.09
-20.65
-17.05
-20.95
-31.14
-45.94
-63.59
-82.55
-101.61
-119.7
-135.8
-148.94
-158.18
-162.88
-162.8
-158.01
-148.83
-135.49
-117.98
-96.09
-69.69
-39.07
-5.23
30.13
64.99
97.45
126.21
150.82
171.61
189.33
204.84
218.8
231.58
243.2
253.47
262.07
268.66
272.97
274.91
274.62
272.37
268.38
262.56
254.23
242.13
224.59
200.16
168.17
129.33
85.66
40.14
-4.09
-44.51
-79.61
-108.96
-132.87
-152.01
-167.02
-178.41
-186.57
-191.85
-194.55
-194.95
-193.32
-190.05
-185.71
-180.95
-176.17
-171.15
-164.75
-155.14
-140.34
-119.11
-91.65
-59.76
-26.31
5.66
33.94
57.71
77.46
94.49
110.22
125.64
141.05
155.89
168.71
177.14
178.25
169.2
148.34
116.16
75.62
31.62
-10.43
-46.18
-73.38
-92.02
-103.6
-110.12
-113.33
-114.5
-114.57
-114.39
-114.64
-115.44
-116.03
-114.7
-109.29
-98.06
-80.49
-57.61
-31.8
-5.94
17.46
36.9
52.03
63.27
71.31
76.62
79.38
79.56
77.11
72.26
65.5
57.5
48.92
40.37
32.23
24.78
18.21
12.66
8.27
5.1
3.05
1.67
0.31
-1.87
-5.49
-10.56
-16.36
-21.44
-24.16
-23.24
-18.34
-10.23
-0.62
8.49
15.42
19.24
19.77
17.34
12.38
5.28
-3.6
-13.65
-23.82
-32.69
-38.82
-41.24
-39.9
-35.74
-30.32
-25.34
-22.07
-21.05
-22.13
-24.8
-28.38
-32.3
-36.02
-38.94
-40.34
-39.43
-35.7
-29.16
-20.66
-11.62
-3.81
1.29
2.88
1.06
-3.31
-8.95
-14.65
-19.59
-23.43
-26.21
-28.1
-29.25
-29.74
-29.69
-29.38
-29.33
-30.15
-32.38
-36.24
-41.63
-48.02
-54.61
-60.36
-64.13
-64.81
-61.51
-53.78
-41.81
-26.53
-9.33
8.16
24.54
38.92
50.97
60.77
68.55
74.49
78.58
80.75
80.97
79.32
76.08
71.57
66.07
59.79
52.89
45.64
38.36
31.39
24.98
19.15
13.71
8.27
2.42
-4.16
-11.6
-19.72
-28.17
-36.45
-44.03
-50.47
-55.44
-58.7
-60.07
