14.43
12.69
10.8
9.17
8.11
7.7
7.75
7.86
7.66
6.89
5.53
3.72
1.65
-0.49
-2.61
-4.58
-6.29
-7.66
-8.71
-9.57
-10.48
-11.65
-13.18
-14.99
-16.82
-18.42
-19.66
-20.64
-21.63
-22.99
-24.91
-27.34
-29.91
-32.05
-33.12
-32.54
-30.01
-25.56
-19.57
-12.65
-5.52
1.19
7.02
11.77
15.41
18.04
19.87
21.09
21.92
22.55
23.13
23.76
24.41
25.01
25.49
25.81
25.96
25.99
25.95
25.88
25.81
25.72
25.62
25.48
25.26
24.93
24.39
23.6
22.51
21.1
19.35
17.28
14.87
12.05
8.78
5.06
0.98
-3.27
-7.44
-11.26
-14.55
-17.23
-19.36
-21.1
-22.62
-24.09
-25.59
-27.03
-28.18
-28.74
-28.38
-26.89
-24.28
-20.79
-16.8
-12.74
-8.92
-5.46
-2.36
0.51
3.21
5.68
7.75
9.13
9.54
8.8
6.85
3.82
-0.04
-4.38
-8.81
-12.91
-16.36
-18.85
-20.21
-20.39
-19.47
-17.63
-15.11
-12.2
-9.12
-6.04
-3.05
-0.17
2.6
5.18
7.46
9.24
10.29
10.49
9.84
8.47
6.63
4.67
2.95
1.82
1.56
2.31
4.07
6.65
9.73
12.92
15.82
18.16
19.75
20.58
20.71
20.29
19.52
18.61
17.79
17.29
17.24
17.61
18.25
18.84
19.1
18.77
17.82
16.29
14.32
12.02
9.38
6.38
3
-0.61
-4.13
-7.13
-9.18
-10.04
-9.75
-8.74
-7.67
-7.14
-7.46
-8.53
-9.86
-10.73
-10.48
-8.7
-5.71
-2.28
0.7
2.51
2.87
1.88
0.04
-2.07
-3.84
-5.43
-7.22
-9.56
-12.55
-15.91
-19.1
-21.46
-22.32
-21.11
-18.5
-15.69
-14.06
-14.87
-18.93
-26.6
-37.77
-51.91
-68.1
-86.37
-106.87
-129.17
-152.17
-174.32
-194.2
-211.04
-224.64
-227.96
-215.42
-184.26
-136.19
-77.4
-16.33
38.9
82.16
110.46
124.34
127.27
123.81
118.55
115.17
115.79
120.83
129.26
139.45
149.74
158.09
161.25
157.83
148.43
135.2
121.04
108.47
98.88
92.3
87.29
82.13
76.11
69.7
64.09
60.51
59.41
60.32
61.99
62.64
60.55
54.84
45.58
33.88
21.57
10.6
2.42
-2.51
-5.02
-6.95
-10.46
-17.22
-27.72
-40.97
-54.66
-65.94
-72.36
-72.85
-68.12
-60.4
-52.72
-47.75
-47.07
-50.72
-57.59
-66.09
-74.89
-83.23
-90.83
-97.46
-102.55
-104.93
-102.89
-94.76
-79.54
-57.51
-30.24
-0.15
30.41
59.73
86.85
111.37
132.97
151.56
167.43
181.53
194.88
207.41
216.82
218.2
205.6
174.61
124.64
59.65
-13.25
-86.32
-153.32
-210.24
-254.72
-284.93
-299.16
-296.4
-277.46
-245.58
-205.74
-163.44
-122.92
-86.49
-54.64
-26.88
-2.75
17.81
34.39
46.59
54.28
58.09
59.24
59.31
59.53
60.46
61.92
63.24
63.68
62.81
60.62
57.46
53.74
49.76
45.72
41.71
37.84
34.26
31.02
28.15
25.4
22.44
18.81
14.11
8.07
0.64
-7.96
-17.17
-26.14
-33.92
-39.65
-42.89
-43.66
-42.43
-39.95
-36.9
-33.77
-30.65
-27.51
-24.28
-21.08
-18.17
-15.83
-14.21
-13.16
-12.4
-11.62
-10.77
-10.02
-9.65
-9.77
-10.16
-10.42
-10.16
-9.22
-7.92
-6.87
-6.8
-8.19
-11.02
-14.84
-18.91
-22.51
-25.25
-27.13
-28.63
-30.44
-33.23
-37.32
-42.59
-48.42
-53.93
-58.32
-60.94
-61.48
-59.91
-56.34
-50.97
-44.13
-36.28
-28.15
-20.38
-13.04
-5.39
3.76
15.58
30.46
47.75
66.15
84.36
101.79
118.6
134.66
148.36
156.09
152.96
134.84
100.55
53
-1.39
-54.57
-99.41
-131.48
-149.3
-153.64
-146.34
-129.34
-104.72
-75.04
-43.52
-13.9
10.64
28.32
39.22
45.11
48.78
52.7
58.33
65.72
73.7
80.8
85.95
88.83
89.87
89.95
89.87
90.02
90.2
89.77
88.08
85.03
81.32
78.48
78.39
82.33
90.31
100.79
111
117.91
119.13
113.57
101.57
84.48
64.11
42.38
21.13
2.13
-12.96
-22.92
-27.26
-26.39
-21.6
-14.65
-7.31
-0.82
4.19
7.63
9.65
10.37
9.82
8.12
5.62
3.08
1.37
1.3
3.28
7.2
12.52
18.55
24.71
30.69
36.45
42
47.24
51.83
55.22
56.68
55.5
51.03
42.79
30.63
14.88
-3.59
-23.42
-42.94
-60.56
-75.07
-85.99
-93.6
-98.59
-101.84
-104.13
-106.2
-108.66
-112.06
-116.81
-123.22
-131.41
-140.9
-150.81
-160.1
-168.04
-174.18
-178.36
-180.58
-181.02
-180.23
-178.36
-175.49
-171.98
-168.73
-166.84
-167.06
-169.51
-173.66
-179.08
-184.59
-188.98
-191.62
-192.72
-192.79
-191.87
-189.48
-184.52
-176.05
-161.81
-138.9
-104.77
-58.25
-0.17
66.89
138.46
213.9
284.96
340.44
372.22
379.27
366.19
339.01
302.57
260.94
214.96
165.44
115.68
70.3
33.14
5.48
-14.15
-25.86
-31.17
-31.65
-28.69
-22.73
-13.9
-2.85
9.03
20.18
29.6
36.67
41.32
43.68
44.4
44.47
44.92
46.58
49.99
55.38
62.02
68.6
73.42
75.06
72.68
66
55.15
40.53
22.74
2.38
-19.79
-42.71
-65.05
-85.42
-102.65
-116.02
-125.24
-130.34
-131.55
-128.98
-122.46
-111.75
-96.85
-78.4
-57.69
-36.43
-16.29
1.58
16.8
29.47
39.84
47.9
53.34
55.71
54.86
51.06
45.05
37.79
30.14
22.64
15.54
8.99
3.03
-2.2
-6.55
-9.77
-11.55
-11.57
-9.59
-5.65
-0.13
6.22
12.47
17.67
21.02
22.04
20.56
16.92
11.86
6.49
1.9
-1.25
-3.03
-4.23
-5.88
-8.66
-12.43
-16.12
-18.23
-17.35
-12.71
-4.31
7.21
20.85
35.45
49.92
63.28
74.92
84.73
93.14
100.93
108.84
117.24
125.92
134.26
141.37
146.33
148.06
145.22
136.16
119.24
93.34
58.5
16.32
-30.15
-76.97
-120.12
-156.39
-183.82
-201.76
-210.65
-211.56
-205.82
-194.79
-179.76
-161.91
-142.36
-122.14
-102.11
-82.82
-64.54
-47.15
-30.33
-13.71
3.05
20.11
37.47
55.06
72.81
90.66
108.56
126.42
144.03
161.04
177.09
191.84
205
216.29
225.44
232.14
236.12
237.27
235.75
231.94
226.29
218.99
209.75
197.7
181.62
160.28
132.89
99.4
60.63
18.08
-26.27
-70.31
-111.99
-149.55
-181.51
-206.71
-224.31
-233.84
-235.29
-229.12
-216.26
-197.99
-175.85
-151.51
-126.68
-103.07
-82.17
-65.05
-52.12
-43.1
-37.06
-32.88
-29.46
-26.09
-22.47
-18.65
-14.84
-11.37
-8.56
-6.83
-6.54
-7.99
-11.17
-15.81
-21.51
-27.68
-33.75
-39.17
-43.46
-46.18
-47.08
-46.04
-43.07
-38.35
-32.22
-25.15
-17.82
-11.07
-5.73
-2.41
-1.24
-1.86
-3.53
-5.46
-7.12
-8.34
-9.33
-10.46
-11.96
-13.92
-16.16
-18.4
-20.4
-21.97
-23.04
-23.51
-23.26
-22.08
-19.75
-16.14
-11.31
-5.54
0.69
6.8
12.17
16.34
18.9
19.55
18.13
14.67
9.45
3
-3.97
-10.79
-16.91
-22.14
-26.55
-30.41
-33.95
-37.34
-40.51
-43.26
-45.38
-46.7
-47.22
-47.01
-46.15
-44.63
-42.37
-39.25
-35.16
-30.13
-24.26
-17.79
-10.89
-3.69
3.71
11.2
18.67
25.95
32.89
39.34
45.21
50.47
55.07
58.99
62.28
65.09
67.7
70.45
73.63
77.34
81.49
85.83
90.02
93.78
96.85
99.08
100.37
100.71
100.09
98.55
96.14
92.86
88.67
83.43
77.03
69.5
61.03
52.06
43.24
35.4
29.39
25.98
25.67
28.53
34.21
41.94
50.75
59.68
67.87
74.67
79.54
81.98
81.52
77.73
70.4
59.6
45.75
29.47
11.48
-7.55
-26.96
-46.08
-64.09
-80.12
-93.32
-103.06
-109.04
-111.26
-109.92
-105.32
-97.76
-87.59
-75.28
-61.51
-47.13
-33.05
-20.07
-8.75
0.67
8.27
14.26
18.92
22.38
24.62
25.44
24.58
21.84
17.17
10.75
2.95
-5.71
-14.59
-22.99
-30.28
-36.05
-40.19
-42.93
-44.8
-46.41
-48.31
-50.84
-54.06
-57.8
-61.65
-65.03
-67.29
-67.81
-66.13
-62.12
-55.98
-48.21
-39.43
-30.24
-21.17
-12.66
-5.15
0.92
5.2
7.52
7.97
6.91
4.87
2.37
-0.16
-2.49
-4.57
-6.41
-7.97
-9.16
-9.84
-9.9
-9.34
-8.28
-6.91
-5.45
-4.05
-2.76
-1.5
-0.14
1.44
3.29
5.33
7.36
9.06
10.1
10.21
9.29
7.44
5.05
2.68
0.93
0.32
1.03
2.98
5.8
9
12.08
14.65
16.47
17.41
17.46
16.67
15.16
13.05
10.46
7.46
4.13
0.49
-3.37
-7.38
-11.42
-15.39
-19.19
-22.69
-25.7
-27.97
-29.23
-29.3
-28.12
-25.8
-22.66
-19.16
-15.86
-13.21
-11.55
-10.94
-11.27
-12.26
-13.58
-14.89
-15.89
-16.32
-15.92
-14.51
-12.01
-8.52
-4.29
0.26
4.69
8.59
11.7
13.89
15.18
15.68
15.55
14.9
13.75
12.09
9.95
7.4
4.53
1.41
-1.97
-5.75
-10.1
-15.01
-20.25
-25.27
-29.36
-31.86
-32.35
-30.73
-27.19
-22.13
-16.02
-9.33
-2.45
4.29
10.74
16.82
22.56
28.02
33.23
38.13
42.57
46.33
49.2
51.03
51.75
51.42
50.23
48.49
46.57
44.77
43.31
42.24
41.42
40.63
39.58
38.08
36.04
33.46
30.37
26.79
22.77
18.39
13.79
9.08
4.37
-0.35
-5.15
-10.05
-14.94
-19.54
-23.43
-26.22
-27.71
-27.87
-26.89
-24.99
-22.32
-18.96
-15.02
-10.67
-6.19
-1.92
1.83
4.8
6.82
7.81
7.72
6.69
4.9
2.67
0.28
-2.08
-4.39
-6.71
-9.1
-11.58
-14.06
-16.44
-18.65
-20.65
-22.4
-23.79
-24.64
-24.78
-24.17
-22.93
-21.36
-19.85
-18.65
-17.78
-17.05
-16.07
-14.4
-11.74
-7.94
-3.15
2.31
7.99
13.45
18.32
22.45
25.76
28.31
30.16
31.38
32.02
32.13
31.83
31.3
30.77
30.4
30.22
30.13
29.89
29.24
28.02
26.15
23.69
20.8
17.63
14.34
11.01
7.68
4.34
0.93
-2.59
-6.25
-10.03
-13.79
-17.34
-20.34
-22.46
-23.32
-22.63
-20.26
-16.28
-10.95
-4.73
1.83
8.21
13.93
18.69
22.27
24.66
25.93
26.26
25.85
24.94
23.78
22.61
21.64
20.94
20.55
20.35
20.25
20.14
19.99
19.8
19.59
19.34
18.91
18.1
16.6
14
9.9
4.02
-3.6
-12.49
-21.68
-29.98
-36.3
-39.97
-40.94
-39.72
-37.12
-33.88
-30.44
-26.9
-23.13
-18.96
-14.34
-9.36
-4.21
0.87
5.72
10.21
14.42
18.73
24.05
31.58
42.59
57.93
77.53
100.08
123.24
144.1
159.89
168.68
169.87
164.61
155.69
146.67
140.71
139.23
141.27
143.93
143.62
137.54
124.72
105.89
82.7
56.79
29.47
1.97
-24.04
-46.34
-62.74
-71.93
-74.38
-72.2
-68.33
-65.37
-64.8
-66.8
-70.89
-76.83
-85.23
-97.53
-115.12
-137.99
-164.01
-189.03
-207.99
-216.63
-212.83
-197.16
-172.4
-142.35
-110.61
-79.85
-51.61
-26.58
-4.95
13.25
28.11
39.73
48.36
54.27
57.77
59.11
58.54
56.24
52.32
46.89
40.18
32.66
25
17.9
11.8
6.69
2.06
-2.81
-8.59
-15.49
-23.21
-31.07
-38.24
-44.06
-48.14
-50.37
-50.88
-49.88
-47.62
-44.36
-40.29
-35.51
-30.02
-23.78
-16.85
-9.57
-2.45
3.89
9.09
13.04
16.07
18.67
21.3
24.2
27.28
30.24
32.7
34.37
35.13
34.97
33.98
32.24
29.83
26.85
23.48
19.92
16.43
13.23
10.42
7.94
5.58
3.1
0.38
-2.54
-5.51
-8.36
-11.01
-13.48
-15.78
-17.88
-19.67
-21
-21.76
-21.91
-21.51
-20.65
-19.39
-17.75
-15.73
-13.45
-11.13
-9.06
-7.54
-6.72
-6.6
-6.99
-7.62
-8.21
-8.6
-8.75
-8.73
-8.63
-8.48
-8.25
-7.85
-7.21
-6.26
-5.01
-3.52
-1.93
-0.35
1.05
2.16
2.88
3.09
2.73
1.79
0.32
-1.55
-3.61
-5.61
-7.4
-8.86
-10.02
-10.92
-11.6
-12.08
-12.34
-12.38
-12.2
-11.84
-11.34
-10.73
-10.05
-9.38
-8.83
-8.51
-8.5
-8.8
-9.35
-10.04
-10.79
-11.5
-12.15
-12.7
-13.17
-13.56
-13.93
-14.32
-14.75
-15.24
-15.79
-16.34
-16.83
-17.19
-17.33
-17.18
-16.72
-15.99
-15.15
-14.4
-13.89
-13.7
-13.76
-13.96
-14.14
-14.22
-14.24
-14.28
-14.41
-14.69
-15.11
-15.67
-16.42
-17.44
-18.84
-20.63
-22.73
-25.02
-27.3
-29.44
-31.29
-32.75
-33.73
-34.25
-34.44
-34.58
-35.02
-36.04
-37.72
-39.93
-42.45
-45.03
-47.61
-50.19
-52.85
-55.54
-58.12
-60.35
-61.96
-62.79
-62.79
-62.01
-60.61
-58.75
-56.55
-54.08
-51.25
-47.9
-43.83
-38.93
-33.24
-27
-20.58
-14.4
-8.83
-4.1
-0.36
2.38
4.19
5.28
5.94
6.46
7.07
7.73
8.24
8.26
7.48
5.8
3.36
0.41
-2.79
-6.08
-9.51
-13.19
-17.19
-21.42
-25.61
-29.35
-32.26
-34.03
-34.58
-34.07
-32.73
-30.83
-28.51
-25.79
-22.54
-18.65
-13.94
-8.34
-1.84
5.46
13.26
21.16
28.67
35.37
40.96
45.36
48.62
50.88
52.26
52.86
52.76
52.13
51.21
50.24
49.44
48.87
48.47
48.03
47.38
46.44
45.26
44.06
43.13
42.74
43.04
44
45.43
47
48.44
49.59
50.54
51.56
52.95
54.85
57.06
59.04
60.12
59.64
57.25
52.9
46.95
39.96
32.66
25.8
20.05
15.88
13.5
12.76
13.25
14.46
15.8
16.81
17.14
16.64
15.36
13.53
11.54
9.71
8.26
7.2
6.42
5.73
5.03
4.35
3.78
3.47
3.46
3.73
4.2
4.73
5.14
5.36
5.34
5.16
4.94
4.79
4.74
4.74
4.71
4.59
4.41
4.24
4.07
3.81
3.25
2.16
0.49
-1.64
-3.95
-6.11
-7.9
-9.32
-10.49
-11.59
-12.73
-13.88
-14.94
-15.78
-16.33
-16.57
-16.46
-15.92
-14.87
-13.23
-11.04
-8.46
-5.75
-3.21
-1.11
0.4
1.28
1.61
1.57
1.39
1.26
1.33
1.62
2.05
2.51
2.93
3.32
3.76
4.34
5.04
5.71
6.16
6.22
5.88
5.27
4.64
4.2
4.01
3.97
3.91
3.65
3.15
2.52
1.97
1.68
1.69
1.87
2
1.87
1.38
0.54
-0.47
-1.5
-2.39
-3.1
-3.62
-3.99
-4.29
-4.6
-5.04
-5.71
-6.63
-7.74
-8.87
-9.83
-10.45
-10.65
-10.39
-9.73
-8.75
-7.56
-6.25
-4.91
-3.56
-2.21
-0.86
0.51
1.79
2.88
3.61
3.93
3.88
3.65
3.45
3.41
3.56
3.83
4.13
4.41
4.68
4.97
5.27
5.45
5.36
4.88
4.03
2.97
1.9
0.95
0.12
-0.7
-1.64
-2.8
-4.18
-5.72
-7.33
-8.93
-10.49
-12.01
-13.57
-15.22
-17.06
-19.14
-21.37
-23.52
-25.28
-26.39
-26.73
-26.5
-26.06
-25.81
-26.08
-26.91
-28.16
-29.52
-30.71
-31.5
-31.7
-31.16
-29.65
-26.97
-22.92
-17.4
-10.38
-1.89
7.97
18.98
30.65
42.12
52.3
60.19
65.11
66.94
66.16
63.61
60.29
57.17
55.08
54.65
56.27
59.93
65.17
71.17
76.95
81.62
84.52
85.23
83.46
78.9
71.27
60.41
46.41
29.71
11.19
-7.96
-26.35
-42.65
-55.85
-65.41
-71.32
-74
-74.03
-71.96
-68.21
-63.13
-57.11
-50.7
-44.54
-39.21
-34.98
-31.84
-29.55
-27.95
-26.91
-26.42
-26.38
-26.52
-26.43
-25.7
-24.19
-22.1
-19.92
-18.16
-17.07
-16.6
-16.47
-16.35
-16.08
-15.59
-14.75
-13.25
-10.56
-6.16
0.17
8.18
17.03
25.52
32.43
36.84
38.29
36.73
32.44
25.82
17.33
7.52
-2.98
-13.37
-22.78
-30.41
-35.69
-38.39
-38.7
-37.13
-34.39
-31.15
-27.92
-24.94
-22.17
-19.43
-16.5
-13.23
-9.68
-5.97
-2.33
1.1
4.3
7.36
10.41
13.5
16.58
19.47
21.91
23.56
24.22
23.82
22.51
20.67
18.77
17.22
16.21
15.72
15.58
15.76
16.4
17.82
20.41
24.33
29.43
35.29
41.51
47.92
54.8
62.68
72.07
83.09
95.37
108.11
120.36
131.3
140.37
147.19
151.4
152.59
150.44
144.93
136.58
126.44
115.71
105.27
95.42
85.84
75.8
64.58
51.8
37.49
21.93
5.44
-11.68
-28.93
-45.54
-60.66
-73.76
-85.08
-95.7
-107.15
-120.59
-136.1
-152.56
-168.13
-181.15
-191.03
-198.38
-204.5
-210.51
-216.64
-222.02
-225.07
-224.17
-218.16
-206.62
-189.95
-169.19
-145.7
-120.98
-96.41
-73.09
-51.91
-33.41
-17.9
-5.46
4.03
10.89
15.65
18.92
21.23
22.91
24.02
24.42
23.92
22.48
20.4
18.35
17.21
17.74
20.27
24.54
29.69
34.7
38.75
41.56
43.38
44.72
45.9
46.93
47.49
47.13
45.63
43.13
40.11
37.1
34.49
32.32
30.41
28.45
26.18
23.49
20.44
17.14
13.69
10.11
6.43
2.65
-1.19
-5.04
-8.9
-12.79
-16.71
-20.56
-24.1
-26.91
-28.52
-28.48
-26.61
-22.96
-17.82
-11.54
-4.4
3.52
12.25
21.78
31.95
42.36
52.46
61.69
69.75
76.63
82.61
88.06
93.18
97.93
102.03
105.04
106.51
106.09
103.53
98.63
91.16
80.9
67.69
51.56
32.85
12.2
-9.44
-31.09
-51.83
-70.89
-87.7
-101.74
-112.55
-119.71
-122.94
-122.21
-117.74
-110.08
-99.9
-87.98
-75.05
-61.81
-48.84
-36.62
-25.48
-15.56
-6.83
0.8
7.44
13.03
17.46
20.59
22.43
23.21
23.35
23.41
23.8
24.78
26.33
28.26
30.29
32.21
33.83
35.04
35.77
36.03
35.91
35.48
34.87
34.13
33.23
32.14
30.83
29.4
28.01
26.89
26.17
25.93
26.09
26.52
27.08
27.69
28.31
28.96
29.64
30.39
31.24
32.21
33.31
34.48
35.57
36.45
36.96
37.09
36.9
36.54
36.14
35.76
35.26
34.39
32.73
29.87
25.5
19.52
11.97
3.09
-6.79
-17.32
-28.16
-39.01
-49.65
-59.89
-69.67
-78.95
-87.59
-95.16
-100.93
-103.96
-103.36
-98.74
-90.32
-78.95
-65.86
-52.23
-39
-26.66
-15.44
-5.31
3.78
11.94
19.26
25.8
31.59
36.56
40.61
43.72
45.96
47.52
48.56
49.19
49.42
49.2
48.49
47.39
46.05
44.61
43.09
41.43
39.54
37.4
35.08
32.76
30.57
28.57
26.61
24.51
22.1
19.38
16.49
13.63
11.01
8.68
6.55
4.4
2.04
-0.63
-3.59
-6.7
-9.79
-12.68
-15.32
-17.72
-19.98
-22.23
-24.6
-27.17
-29.9
-32.58
-34.84
-36.21
-36.2
-34.5
-31.07
-26.2
-20.42
-14.37
-8.64
-3.62
0.52
3.85
6.59
8.93
11.08
13.11
15.01
16.68
18
18.87
19.32
19.49
19.61
19.93
20.59
21.62
22.92
24.25
25.37
26.04
26.13
25.57
24.41
22.79
20.89
18.95
17.17
15.67
14.46
13.47
12.61
11.78
10.92
9.99
8.95
7.81
6.57
5.19
3.66
1.94
0.02
-2.07
-4.26
-6.37
-8.18
-9.47
-10.07
-9.96
-9.25
-8.1
-6.63
-4.81
-2.46
0.66
4.63
9.28
14.12
18.5
21.9
24.05
25
25
24.31
23.12
21.53
19.64
17.64
15.87
14.67
14.22
14.4
14.88
15.24
15.11
14.39
13.14
11.58
9.98
8.56
7.48
6.78
6.38
5.95
4.85
2.22
-2.88
-11.03
-22.17
-35.39
-49.14
-61.61
-71.13
-76.59
-77.47
-73.76
-65.61
-53.3
-37.13
-17.62
4.38
27.68
50.94
72.9
92.79
110.4
125.81
139.21
150.52
159.27
164.88
167.07
166.14
162.82
157.92
151.81
144.39
135.23
124.03
111.04
97.08
83.38
70.87
59.85
49.92
40.51
31.31
22.64
15.41
10.59
8.75
9.79
13.05
17.7
23.26
29.7
37.16
45.58
54.11
61.2
65.13
64.81
60.29
52.85
44.45
36.86
31.03
26.58
22.25
16.6
8.75
-1.24
-12.55
-24.05
-34.91
-44.76
-53.76
-62.18
-70.28
-78.14
-85.76
-93.27
-100.9
-108.88
-117.23
-125.65
-133.55
-140.17
-144.94
-147.58
-148.22
-147.34
-145.52
-143.25
-140.75
-137.95
-134.53
-130.2
-124.76
-118.29
-111.18
-104.02
-97.42
-91.82
-87.33
-83.72
-80.49
-76.92
-72.3
-66.15
-58.38
-49.4
-40.04
-31.29
-23.97
-18.55
-15.07
-13.29
-12.9
-13.59
-15.05
-16.93
-18.81
-20.2
-20.73
-20.26
-18.91
-17.07
-15.16
-13.57
-12.62
-12.44
-12.95
-13.87
-14.81
-15.37
-15.41
-15.04
-14.61
-14.41
-14.55
-14.87
-14.98
-14.56
-13.48
-11.99
-10.51
-9.5
-9.15
-9.35
-9.78
-10.06
-9.93
-9.28
-8.2
-6.78
-5.15
-3.39
-1.56
0.23
1.86
3.24
4.36
5.27
6.08
6.86
7.59
8.19
8.54
8.51
8.05
7.2
6.03
4.66
3.2
1.77
0.47
-0.71
-1.85
-3.14
-4.75
-6.82
-9.29
-11.91
-14.37
-16.29
-17.44
-17.71
-17.14
-15.89
-14.16
-12.14
-9.98
-7.84
-5.82
-4.07
-2.67
-1.7
-1.17
-1.04
-1.26
-1.75
-2.53
-3.6
-4.96
-6.59
-8.41
-10.32
-12.3
-14.41
-16.77
-19.57
-23
-27.21
-32.3
-38.21
-44.81
-51.82
-58.93
-65.85
-72.36
-78.46
-84.19
-89.68
-94.97
-99.91
-104.15
-107.16
-108.43
-107.56
-104.45
-99.3
-92.56
-84.68
-76.05
-66.73
-56.57
-45.19
-32.17
-17.28
-0.59
17.39
35.88
54
71.12
86.94
101.46
114.83
127.16
138.42
148.42
156.74
162.77
165.73
164.81
159.47
149.85
136.96
122.49
108.38
96.13
86.51
79.45
74.28
69.97
65.6
60.48
54.47
48
42.02
37.66
35.82
36.85
40.43
45.67
51.43
56.41
59.44
59.53
56.15
49.36
39.9
29.04
18.21
8.5
0.49
-5.73
-10.31
-13.53
-15.69
-17.19
-18.5
-20.08
-22.28
-25.18
-28.58
-32.06
-35.17
-37.49
-38.83
-39.15
-38.59
-37.39
-35.76
-33.85
-31.78
-29.66
-27.6
-25.76
-24.22
-22.95
-21.79
-20.47
-18.78
-16.69
-14.33
-12.05
-10.22
-9.19
-9.12
-9.91
-11.27
-12.77
-14.04
-14.89
-15.32
-15.46
-15.46
-15.35
-15.08
-14.57
-13.9
-13.34
-13.28
-14.05
-15.75
-18.18
-20.97
-23.74
-26.31
-28.7
-31.18
-34.03
-37.46
-41.56
-46.23
-51.31
-56.61
-61.91
-66.97
-71.55
-75.47
-78.7
-81.47
-84.25
-87.57
-91.69
-96.13
-99.51
-99.75
-94.74
-83.2
-65.3
-42.74
-18.1
5.98
27.61
45.8
60.3
71.02
77.87
80.74
79.87
76.03
70.47
64.52
59.06
54.32
50.01
45.74
41.32
36.97
33.1
29.96
27.54
25.51
23.56
21.49
19.34
17.26
15.32
13.45
11.48
9.37
7.21
5.24
3.67
2.65
2.16
2.11
2.38
2.9
3.58
4.37
5.28
6.44
8.06
10.35
13.34
16.82
20.32
23.3
25.32
26.22
26.1
25.25
23.99
22.54
21.02
19.41
17.59
15.38
12.55
8.91
4.26
-1.41
-7.97
-15.04
-22.09
-28.43
-33.45
-36.68
-37.97
-37.5
-35.7
-33.2
-30.61
-28.36
-26.63
-25.32
-24.18
-22.95
-21.5
-19.86
-18.25
-16.94
-16.13
-15.85
-15.98
-16.25
-16.45
-16.45
-16.24
-15.84
-15.32
-14.61
-13.65
-12.44
-11.04
-9.68
-8.68
-8.35
-8.8
-9.96
-11.52
-13.16
-14.64
-15.96
-17.26
-18.73
-20.46
-22.32
-24.12
-25.65
-26.93
-28.18
-29.75
-31.93
-34.77
-38.01
-41.08
-43.26
-43.84
-42.38
-38.85
-33.63
-27.35
-20.72
-14.24
-8.22
-2.79
2.03
6.28
9.96
13.17
16.01
18.54
20.73
22.45
23.58
24.12
24.33
24.58
25.22
26.36
27.86
29.41
30.68
31.45
31.64
31.19
30.06
28.21
25.68
22.66
19.44
16.35
13.6
11.22
9.06
6.9
4.56
2
-0.7
-3.41
-6.02
-8.59
-11.24
-14.15
-17.4
-20.87
-24.28
-27.17
-29.06
-29.49
-28.16
-24.96
-20.03
-13.84
-7.09
-0.53
5.21
9.88
13.56
16.58
19.22
21.61
23.6
25.05
25.96
26.58
27.32
28.54
30.3
32.4
34.44
36.1
37.25
37.99
38.44
38.65
38.5
37.74
36.17
33.75
30.66
27.25
23.84
20.65
17.72
14.95
12.2
9.4
6.6
3.89
1.41
-0.7
-2.29
-3.1
-2.84
-1.16
2.19
7.22
13.63
20.89
28.34
35.34
41.44
46.39
50.11
52.67
54.18
54.82
54.79
54.34
53.72
53.18
52.92
53.03
53.46
54.04
54.49
54.5
53.83
52.31
49.91
46.75
43.05
39.12
35.18
31.35
27.64
23.93
20.16
16.33
12.54
8.94
5.66
2.68
-0.11
-2.94
-6.07
-9.75
-14.09
-19.05
-24.33
-29.35
-33.42
-35.85
-36.29
-34.86
-32.19
-29.25
-26.97
-26.07
-26.72
-28.62
-31.18
-33.67
-35.53
-36.45
-36.42
-35.57
-34.14
-32.34
-30.38
-28.42
-26.58
-24.96
-23.57
-22.29
-20.9
-19.17
-16.96
-14.41
-11.82
-9.62
-8.13
-7.45
-7.43
-7.76
-8.19
-8.58
-9
-9.6
-10.51
-11.73
-13.11
-14.32
-14.9
-14.35
-12.18
-8.06
-1.97
5.78
14.53
23.44
31.75
38.91
44.73
49.26
52.65
54.96
56.09
55.74
53.53
49.23
42.87
34.86
25.95
16.94
8.56
1.2
-5.1
-10.56
-15.49
-20.09
-24.4
-28.32
-31.72
-34.54
-36.83
-38.79
-40.62
-42.42
-44.21
-45.77
-46.84
-47.15
-46.55
-45.08
-42.95
-40.41
-37.61
-34.52
-30.95
-26.61
-21.26
-14.85
-7.5
0.51
8.86
17.25
25.38
33.01
39.84
45.65
50.23
53.45
55.21
55.39
53.94
50.84
46.23
40.47
34.11
27.77
21.94
16.89
12.67
9.18
6.28
3.91
2.02
0.6
-0.5
-1.54
-2.83
-4.62
-6.98
-9.69
-12.39
-14.69
-16.3
-17.21
-17.65
-18
-18.64
-19.86
-21.74
-24.22
-27.11
-30.14
-32.88
-34.79
-35.24
-33.71
-29.94
-24.15
-16.98
-9.33
-2.11
4.1
9.13
13.15
16.51
19.46
22.09
24.3
25.97
27.05
27.63
27.91
28.07
28.21
28.28
28.21
27.89
27.35
26.61
25.74
24.74
23.56
22.18
20.53
18.64
16.51
14.16
11.56
8.69
5.6
2.4
-0.7
-3.47
-5.73
-7.39
-8.43
-8.89
-8.82
-8.27
-7.26
-5.84
-4
-1.77
0.92
4.12
7.91
12.29
17.19
22.38
27.49
32.06
35.62
37.8
38.46
37.54
35.12
31.22
25.8
18.81
10.29
0.36
-10.71
-22.58
-34.86
-47.09
-58.61
-68.49
-75.5
-78.31
-75.76
-67.28
-53.02
-33.87
-11.27
13.11
37.66
61.03
82.17
100.25
114.65
124.91
130.78
132.26
129.62
123.22
113.45
100.61
85.03
67.22
48.12
29.14
12.08
-1.25
-9.44
-11.92
-9.17
-2.59
5.7
13.31
18.09
18.7
14.92
7.85
-0.48
-7.67
-11.58
-10.8
-4.99
5.22
18.3
32.1
44.32
52.94
56.87
56.14
51.82
45.49
38.41
31.1
23.19
13.99
3.04
-9.4
-22.39
-34.75
-45.64
-54.89
-62.9
-70.41
-77.94
-85.7
-93.48
-100.9
-107.63
-113.5
-118.57
-123
-127.02
-130.84
-134.62
-138.51
-142.48
-146.26
-149.26
-150.75
-150.09
-147.12
-142.29
-136.5
-130.75
-125.59
-120.85
-115.69
-108.93
-99.59
-87.23
-72.04
-54.69
-36.03
-16.86
2.12
20.43
38.09
55.88
75.53
99.03
127.53
159.99
192.82
220.67
238.44
243.41
236.25
220.61
201.22
181.97
164.73
149.59
135.95
123.51
112.7
104.02
97.51
92.35
87.19
80.76
72.37
62.1
50.52
38.58
27.34
18.04
11.91
9.79
11.73
16.92
23.94
31.41
38.43
44.52
49.37
52.32
52.35
48.57
40.84
30.09
18.07
6.62
-3
-10.41
-15.87
-19.91
-22.96
-25.47
-28.06
-31.49
-36.38
-42.93
-50.71
-58.84
-66.47
-73.04
-78.49
-83.05
-86.97
-90.29
-92.86
-94.49
-95.1
-94.86
-94.07
-93.09
-92.15
-91.32
-90.45
-89.27
-87.46
-84.77
-81.09
-76.41
-70.91
-64.9
-58.66
-52.5
-46.61
-41.07
-35.83
-30.85
-26.1
-21.61
-17.52
-13.96
-11.03
-8.76
-7.03
-5.67
-4.49
-3.33
-2.1
-0.8
0.53
1.79
2.85
3.64
4.15
4.42
4.53
4.53
4.41
4.11
3.59
2.87
1.96
0.89
-0.36
-1.82
-3.46
-5.22
-6.92
-8.43
-9.74
-10.97
-12.28
-13.79
-15.46
-17.06
-18.22
-18.58
-17.89
-16.12
-13.41
-10.1
-6.68
-3.64
-1.35
-0.01
0.48
0.45
0.3
0.35
0.73
1.42
2.29
3.18
3.99
4.68
5.18
5.43
5.36
4.9
4.05
2.89
1.47
-0.23
-2.35
-5.05
-8.51
-12.72
-17.5
-22.53
-27.46
-32.14
-36.71
-41.56
-47.14
-53.77
-61.41
-69.79
-78.49
-87.22
-96
-105.27
-115.7
-127.96
-142.42
-158.89
-176.62
-194.32
-210.23
-222.1
-227.5
-223.99
-209.74
-184.07
-147.89
-103.71
-55.12
-5.67
41.77
85.07
122.37
151.3
169.05
173.11
162.69
139.55
108.05
73.64
41.07
12.9
-10.7
-31
-49.42
-66.54
-82.17
-95.8
-107.29
-116.82
-124.29
-128.93
-129.09
-122.63
-107.73
-83.76
-51.63
-13.84
26.13
64.44
97.42
122.02
136.2
139.19
131.73
116.19
96.15
75.72
58.64
47.25
42.14
42.26
45.69
50.43
55.18
59.47
63.49
67.47
71.14
73.67
74
71.42
66.09
59.11
52.23
47.25
45.39
46.9
51.1
56.63
61.94
65.84
67.64
67.38
65.71
63.77
62.84
64.13
68.43
75.98
86.44
98.89
112.02
124.23
133.83
139.27
139.32
133.18
120.59
101.83
77.49
48.42
15.61
-19.69
-55.79
-90.41
-120.91
-144.69
-159.82
-165.42
-161.75
-149.9
-131.38
-107.68
-80.06
-49.64
-17.39
15.77
49.1
81.88
113.23
141.78
165.71
183.15
192.89
194.86
190.22
180.82
168.29
153.33
135.52
113.8
87.1
55.08
18.43
-21.26
-61.73
-100.44
-134.84
-162.69
-182.35
-193.02
-194.92
-189.02
-176.85
-160.05
-140.01
-117.6
-93.17
-66.62
-37.73
-6.46
26.86
61.54
96.57
130.77
163.01
192.18
217.35
237.74
252.68
261.54
263.67
258.39
245.14
223.71
194.37
158.04
116.13
70.34
22.56
-25.34
-71.52
-114.15
-151.51
-181.99
-204.42
-218.17
-223.37
-220.79
-211.62
-197.07
-178.14
-155.55
-129.95
-102.25
-73.89
-46.7
-22.53
-2.88
11.5
20.72
25.5
26.79
25.54
22.53
18.37
13.68
9.06
5.12
2.32
0.9
0.75
1.43
2.35
2.97
2.95
2.25
1.05
-0.35
-1.72
-2.98
-4.28
-5.85
-7.9
-10.52
-13.59
-16.8
-19.71
-21.98
-23.42
-24.17
-24.57
-25.03
-25.79
-26.85
-27.92
-28.61
-28.66
-27.97
-26.67
-24.95
-22.9
-20.4
-17.1
-12.66
-6.91
0.04
7.85
16.08
24.23
31.78
38.13
42.58
44.44
43.23
38.96
32.21
24.03
15.6
7.86
1.41
-3.59
-7.25
-9.75
-11.29
-12.05
-12.3
-12.39
-12.74
-13.65
-15.18
-17.08
-18.87
-20.09
-20.53
-20.29
-19.79
-19.52
-19.8
-20.61
-21.58
-22.09
-21.54
-19.57
-16.08
-11.37
-5.92
-0.33
4.86
9.29
12.92
15.92
18.62
21.29
23.97
26.57
28.84
30.59
31.72
32.31
32.49
32.39
32.12
31.72
31.22
30.63
29.91
28.91
27.42
25.24
22.29
18.73
14.89
11.17
7.82
4.89
2.2
-0.51
-3.43
-6.58
-9.74
-12.61
-14.72
-15.66
-15.09
-12.87
-9.06
-4.04
1.6
7.25
12.3
16.38
19.4
21.45
22.72
23.42
23.68
23.58
23.17
22.52
21.68
20.73
19.71
18.67
17.65
16.62
15.61
14.59
13.5
12.22
10.67
8.75
6.5
4.01
1.46
-0.96
-3.06
-4.7
-5.89
-6.71
-7.34
-8.05
-9.08
-10.57
-12.49
-14.62
-16.63
-18.08
-18.59
-17.89
-15.9
-12.77
-8.84
-4.63
-0.65
2.65
5.06
6.62
7.57
8.18
8.66
9.01
9.14
8.95
8.41
7.63
6.77
6
5.4
4.96
4.66
4.44
4.32
4.34
4.46
4.61
4.63
4.34
3.63
2.47
0.9
-0.93
-2.88
-4.78
-6.54
-8.09
-9.49
-10.86
-12.37
-14.23
-16.58
-19.46
-22.72
-26.02
-28.88
-30.75
-31.2
-29.99
-27.2
-23.19
-18.5
-13.71
-9.3
-5.47
-2.28
0.36
2.55
4.32
5.71
6.7
7.37
7.81
8.15
8.43
8.68
8.8
8.73
8.44
8.01
7.54
7.21
7.14
7.31
7.62
7.81
7.57
6.71
5.11
2.9
0.35
-2.24
-4.61
-6.63
-8.31
-9.79
-11.2
-12.61
-14.07
-15.57
-17.11
-18.66
-20.28
-22.04
-23.97
-25.97
-27.8
-29.03
-29.19
-27.94
-25.14
-21
-16.02
-10.82
-5.99
-1.93
1.2
3.44
4.87
5.68
6.01
6.09
6.12
6.32
6.82
7.66
8.72
9.81
10.69
11.2
11.33
11.16
10.85
10.53
10.23
9.87
9.26
8.26
6.79
4.96
2.99
1.17
-0.32
-1.39
-2.15
-2.85
-3.74
-4.97
-6.6
-8.49
-10.49
-12.43
-14.23
-15.9
-17.51
-19.17
-20.99
-23.02
-25.19
-27.33
-29.09
-30.05
-29.78
-28.03
-24.78
-20.32
-15.2
-10.02
-5.34
-1.47
1.52
3.76
5.49
6.89
8.03
8.85
9.31
9.41
9.33
9.27
9.42
9.87
10.55
11.34
12.09
12.76
13.31
13.7
13.89
13.76
13.22
12.27
10.96
9.37
7.63
5.81
3.97
2.25
0.74
-0.58
-1.79
-3.07
-4.58
-6.32
-8.15
-9.83
-11.2
-12.25
-13.13
-14.12
-15.42
-17.11
-19.12
-21.34
-23.58
-25.64
-27.29
-28.21
-28.11
-26.74
-24.06
-20.19
-15.52
-10.51
-5.66
-1.42
1.96
4.44
6.11
7.17
7.83
8.29
8.63
8.96
9.33
9.83
10.55
11.49
12.56
13.63
14.59
15.31
15.79
16
15.96
15.66
15.07
14.16
12.92
11.36
9.51
7.52
5.51
3.69
2.17
0.93
-0.19
-1.41
-2.86
-4.62
-6.56
-8.51
-10.34
-12
-13.54
-15.03
-16.64
-18.45
-20.53
-22.81
-25.1
-27.06
-28.21
-28.16
-26.64
-23.66
-19.47
-14.54
-9.4
-4.55
-0.38
2.94
5.36
7.08
8.33
9.36
10.28
11.13
11.82
12.29
12.63
12.97
13.47
14.19
15.05
15.88
16.51
16.84
16.89
16.71
16.33
15.71
14.72
13.31
11.55
9.58
7.62
5.83
4.26
2.87
1.56
0.23
-1.19
-2.71
-4.37
-6.12
-7.92
-9.7
-11.4
-13.05
-14.8
-16.85
-19.32
-22.12
-24.89
-27.05
-27.96
-27.15
-24.51
-20.3
-15.07
-9.43
-3.9
1.18
5.62
9.34
12.28
14.38
15.59
15.94
15.6
14.81
13.89
13.06
12.44
12.01
11.72
11.52
11.39
11.39
11.53
11.84
12.22
12.57
12.79
12.79
12.53
12.04
11.37
10.57
9.68
8.67
7.45
5.88
3.86
1.4
-1.35
-4.15
-6.79
-9.18
-11.4
-13.67
-16.24
-19.22
-22.53
-25.89
-28.92
-31.19
-32.28
-31.89
-29.87
-26.29
-21.49
-15.99
-10.4
-5.29
-1.09
2.03
4.07
5.18
5.55
5.38
4.91
4.34
3.88
3.7
3.91
4.59
5.73
7.2
8.76
10.14
11.09
11.51
11.48
11.23
10.99
10.84
10.68
10.26
9.31
7.73
5.59
3.1
0.51
-2.01
-4.36
-6.55
-8.65
-10.77
-13.05
-15.59
-18.49
-21.74
-25.18
-28.44
-31.03
-32.46
-32.33
-30.52
-27.13
-22.51
-17.18
-11.75
-6.72
-2.5
0.72
2.92
4.21
4.77
4.78
4.44
3.94
3.53
3.42
3.71
4.35
5.14
5.8
6.14
6.17
5.99
5.78
5.61
5.42
5.06
4.32
3.06
1.22
-1.17
-4.01
-7.12
-10.26
-13.15
-15.56
-17.43
-18.94
-20.44
-22.32
-24.83
-27.89
-31.1
-33.83
-35.44
-35.45
-33.64
-30.08
-25.12
-19.22
-12.96
-6.88
-1.41
3.14
6.71
9.36
11.25
12.55
13.41
13.92
14.21
14.44
14.82
15.54
16.69
18.22
19.91
21.46
22.56
23.04
22.9
22.23
21.2
19.89
18.25
16.09
13.31
9.84
5.87
1.75
-2.09
-5.3
-7.75
-9.58
-11.15
-12.85
-14.98
-17.7
-20.92
-24.4
-27.75
-30.52
-32.21
-32.38
-30.75
-27.3
-22.37
-16.6
-10.7
-5.31
-0.8
2.81
5.71
8.15
10.31
12.24
13.9
15.28
16.42
17.46
18.56
19.81
21.22
22.67
23.94
24.87
25.36
25.38
25.04
24.47
23.81
23.08
22.23
21.12
19.66
17.82
15.7
13.48
11.34
9.4
7.6
5.85
3.98
1.94
-0.31
-2.78
-5.48
-8.42
-11.56
-14.64
-17.22
-18.74
-18.67
-16.77
-13.15
-8.3
-2.92
2.29
6.84
10.51
13.35
15.56
17.33
18.74
19.8
20.39
20.56
20.46
20.34
20.45
20.9
21.57
22.18
22.46
22.2
21.49
20.54
19.62
18.86
18.26
17.65
16.82
15.64
14.04
12.08
9.83
7.38
4.86
2.43
0.22
-1.66
-3.23
-4.7
-6.35
-8.45
-11.21
-14.6
-18.42
-22.29
-25.66
-27.89
-28.41
-26.85
-23.2
-17.87
-11.56
-5.09
0.88
5.99
10.21
13.74
16.84
19.67
22.24
24.45
26.19
27.4
28.09
28.39
28.46
28.49
28.55
28.65
28.76
28.81
28.76
28.64
28.39
27.95
27.15
25.81
23.86
21.41
18.72
16.12
13.84
11.86
9.97
7.9
5.43
2.52
-0.66
-3.87
-6.89
-9.63
-12.14
-14.57
-17.1
-19.84
-22.85
-25.96
-28.88
-31.07
-31.91
-30.88
-27.75
-22.75
-16.48
-9.79
-3.43
2.13
6.78
10.61
13.77
16.3
18.15
19.32
19.88
20.06
20.14
20.38
20.86
21.53
22.23
22.8
23.19
23.43
23.57
23.66
23.62
23.33
22.58
21.28
19.4
17.13
14.71
12.39
10.3
8.45
6.72
4.9
2.81
0.31
-2.53
-5.5
-8.35
-10.82
-12.88
-14.69
-16.6
-18.88
-21.67
-24.8
-27.92
-30.5
-32.03
-32.1
-30.4
-26.88
-21.72
-15.39
-8.64
-2.28
2.99
6.81
9.24
10.65
11.47
12.03
12.43
12.67
12.75
12.76
12.92
13.44
14.39
15.66
16.94
17.91
18.33
18.17
17.55
16.63
15.61
14.51
13.31
11.94
10.36
8.58
6.66
4.65
2.6
0.52
-1.6
-3.76
-5.92
-7.98
-9.89
-11.66
-13.37
-15.23
-17.44
-20.18
-23.47
-27.05
-30.44
-32.94
-33.84
-32.62
-29.15
-23.78
-17.27
-10.55
-4.41
0.6
4.37
7.05
8.91
10.18
11.02
11.46
11.56
11.38
11.06
10.73
10.48
10.38
10.43
10.63
10.92
11.25
11.52
11.57
11.28
10.53
9.29
7.63
5.7
3.67
1.69
-0.17
-1.94
-3.7
-5.55
-7.56
-9.67
-11.74
-13.65
-15.36
-16.98
-18.75
-20.93
-23.63
-26.68
-29.6
-31.71
-32.36
-31.16
-28.03
-23.28
-17.47
-11.27
-5.3
-0.04
4.28
7.67
10.26
12.29
13.94
15.32
16.4
17.15
17.53
17.56
17.37
17.1
16.87
16.73
16.65
16.55
16.39
16.09
15.65
15.06
14.29
13.3
12.05
10.51
8.7
6.66
4.47
2.18
-0.18
-2.58
-5.03
-7.53
-10.05
-12.55
-14.99
-17.33
-19.62
-21.93
-24.43
-27.17
-30.13
-33.05
-35.43
-36.7
-36.34
-34.07
-29.96
-24.46
-18.23
-11.99
-6.37
-1.68
1.97
4.71
6.75
8.27
9.37
10.14
10.63
10.95
11.25
11.65
12.21
12.89
13.55
14.01
14.11
13.83
13.25
12.54
11.84
11.2
10.5
9.57
8.21
6.34
4.07
1.62
-0.75
-2.87
-4.76
-6.55
-8.53
-10.9
-13.71
-16.81
-19.78
-22.09
-23.22
-22.95
-21.37
-18.99
-16.48
-14.51
-13.37
-12.88
-12.39
-11.01
-7.91
-2.61
4.73
13.26
21.55
27.83
30.53
28.75
22.42
12.43
0.27
-12.38
-24.14
-34.15
-42.05
-47.78
-51.23
-52.17
-50.27
-45.33
-37.7
-28.26
-18.35
-9.38
-2.36
2.38
5.21
6.89
8.15
9.37
10.52
11.38
11.87
12.2
12.81
14.2
16.62
19.94
23.65
27.19
30.06
32.09
33.36
34.12
34.63
35.04
35.45
35.92
36.63
37.83
39.87
43.07
47.63
53.55
60.66
68.64
77.04
85.13
91.87
95.98
96.14
91.48
81.98
68.63
53.22
37.89
24.46
14.07
7.11
3.44
2.65
4.27
7.73
12.25
16.87
20.62
22.66
22.61
20.6
17.1
12.75
8.03
3.15
-1.91
-7.41
-13.69
-21.15
-30.15
-40.84
-53.12
-66.5
-80.14
-93.08
-104.5
-113.8
-120.72
-125.19
-127.2
-126.7
-123.62
-117.85
-109.35
-98.09
-84.08
-67.44
-48.63
-28.48
-8.22
10.7
27.01
39.95
49.39
55.72
59.59
61.58
62.09
61.3
59.37
56.6
53.45
50.39
47.73
45.38
42.93
39.81
35.56
30.06
23.64
16.86
10.26
4.11
-1.67
-7.32
-13.07
-18.93
-24.65
-29.87
-34.32
-37.91
-40.81
-43.32
-45.74
-48.27
-51
-53.89
-56.76
-59.21
-60.61
-60.14
-57.13
-51.33
-43.13
-33.55
-23.94
-15.51
-8.97
-4.46
-1.61
0.07
1.02
1.51
1.7
1.67
1.58
1.54
1.69
2.05
2.51
2.94
3.18
3.2
3.04
2.87
2.82
2.95
3.16
3.17
2.68
1.48
-0.46
-2.91
-5.53
-7.96
-10.05
-11.84
-13.57
-15.51
-17.88
-20.69
-23.73
-26.62
-28.81
-29.73
-28.94
-26.22
-21.73
-16.03
-9.91
-4.24
0.38
3.64
5.61
6.52
6.66
6.21
5.32
4.13
2.86
1.68
0.66
-0.26
-1.27
-2.61
-4.38
-6.52
-8.87
-11.21
-13.52
-15.92
-18.68
-22.01
-25.99
-30.53
-35.36
-40.17
-44.66
-48.66
-52.11
-55.1
-57.73
-60.18
-62.58
-64.95
-67.12
-68.63
-68.79
-66.82
-62.13
-54.56
-44.45
-32.6
-20.02
-7.65
3.89
14.32
23.6
31.8
38.87
44.68
49.11
52.16
54.06
55.2
56.01
56.77
57.52
58.13
58.42
58.25
57.64
56.72
55.62
54.37
52.91
51.19
49.26
47.32
45.73
44.82
44.77
45.52
46.71
47.7
47.72
46.06
42.23
36.16
28.29
19.53
11.05
4.06
-0.61
-2.7
-2.51
-0.68
2
4.89
7.5
9.52
10.79
11.35
11.42
11.44
11.94
13.43
16.2
20.36
25.86
32.65
40.8
50.38
61.33
73.32
85.64
97.41
107.68
115.7
120.95
123.11
121.97
117.43
109.5
98.52
85.17
70.42
55.27
40.49
26.39
12.97
0.1
-12.22
-23.75
-34
-42.5
-48.88
-52.99
-54.9
-54.8
-52.98
-49.79
-45.66
-41.09
-36.63
-32.79
-29.91
-28.12
-27.27
-26.91
-26.52
-25.69
-24.29
-22.64
-21.32
-20.99
-22.1
-24.82
-29.02
-34.52
-41.03
-48.09
-54.97
-60.75
-64.6
-66.26
-66.38
-66.35
-67.81
-71.98
-79.1
-88.44
-98.8
-109.01
-118.41
-126.84
-134.39
-141.16
-147.05
-151.83
-155.29
-157.19
-157.11
-154.27
-147.4
-134.93
-115.49
-88.5
-54.46
-15.29
26.1
66.37
102.44
132.13
154.58
170.13
180.05
186.07
189.88
192.81
195.71
198.93
202.47
206.13
209.43
211.74
212.24
210.08
204.61
195.54
183
167.5
149.76
130.52
110.5
90.28
70.3
50.71
31.49
12.37
-6.87
-26.13
-44.82
-61.78
-75.48
-84.51
-87.96
-85.84
-79.1
-69.43
-58.83
-49.16
-41.73
-37.13
-35.39
-36.14
-38.87
-43.12
-48.4
-54.21
-59.98
-65.15
-69.25
-72.05
-73.61
-74.18
-74.1
-73.57
-72.66
-71.31
-69.44
-67.09
-64.47
-61.95
-59.87
-58.44
-57.58
-56.97
-56.13
-54.74
-52.75
-50.42
-48.25
-46.7
-46.02
-46.14
-46.65
-46.92
-46.27
-44.15
-40.3
-34.85
-28.25
-21.19
-14.38
-8.32
-3.24
0.92
4.31
7.09
9.34
11.07
12.28
13.05
13.53
13.89
14.28
14.78
15.4
16.12
16.83
17.35
17.49
17.16
16.32
15.11
13.66
12.12
10.44
8.48
6.08
3.28
0.3
-2.49
-4.81
-6.58
-7.98
-9.34
-10.94
-12.95
-15.34
-18
-20.77
-23.47
-25.82
-27.41
-27.76
-26.44
-23.32
-18.69
-13.14
-7.46
-2.28
2.01
5.35
7.88
9.8
11.25
12.3
12.99
13.43
13.77
14.18
14.78
15.56
16.41
17.15
17.61
17.7
17.46
16.94
16.25
15.43
14.44
13.18
11.51
9.32
6.64
3.63
0.53
-2.39
-4.95
-7.08
-8.82
-10.37
-11.98
-13.89
-16.23
-18.92
-21.65
-23.94
-25.2
-24.96
-22.97
-19.31
-14.37
-8.74
-3.04
2.2
6.65
10.2
12.85
14.68
15.82
16.39
16.49
16.26
15.85
15.43
15.15
15.11
15.29
15.61
15.91
15.99
15.74
15.14
14.24
13.11
11.76
10.16
8.25
6.01
3.56
1.04
-1.38
-3.64
-5.78
-7.93
-10.17
-12.56
-15.06
-17.63
-20.29
-23.05
-25.82
-28.35
-30.16
-30.7
-29.51
-26.48
-21.84
-16.14
-10.03
-4.08
1.33
6.05
10.03
13.29
15.81
17.61
18.69
19.17
19.19
18.92
18.56
18.24
18.05
17.99
18.02
18.05
17.97
17.73
17.31
16.73
16
15.11
13.98
12.49
10.51
8.02
5.12
1.99
-1.09
-3.94
-6.5
-8.83
-11.06
-13.36
-15.84
-18.57
-21.58
-24.85
-28.2
-31.33
-33.69
-34.65
-33.66
-30.46
-25.26
-18.65
-11.48
-4.56
1.5
6.48
10.37
13.41
15.8
17.68
19.07
19.93
20.27
20.22
19.96
19.74
19.72
19.94
20.31
20.65
20.83
20.82
20.64
20.33
19.84
19.06
17.84
16.12
13.94
11.42
8.69
5.83
2.89
-0.14
-3.23
-6.28
-9.15
-11.69
-13.91
-15.93
-17.98
-20.3
-23
-26.03
-29.1
-31.75
-33.48
-33.85
-32.6
-29.71
-25.44
-20.23
-14.6
-8.97
-3.68
1.12
5.37
9.04
12.1
14.56
16.44
17.81
18.76
19.36
19.59
19.45
19
18.38
17.83
17.53
17.54
17.78
18.02
18.06
17.76
17.07
16
14.58
12.88
10.94
8.82
6.6
4.25
1.74
-1.02
-4
-7.08
-10.03
-12.65
-14.83
-16.72
-18.55
-20.63
-23.21
-26.28
-29.68
-33.04
-35.86
-37.53
-37.53
-35.49
-31.37
-25.49
-18.49
-11.14
-4.16
1.98
7.05
11.09
14.24
16.7
18.63
20.13
21.22
21.96
22.44
22.78
23.08
23.4
23.73
24.02
24.23
24.32
24.31
24.2
23.87
23.15
21.9
20.06
17.74
15.17
12.57
10.1
7.84
5.77
3.91
2.24
0.69
-0.79
-2.31
-3.97
-5.79
-7.74
-9.76
-11.78
-13.86
-16.01
-18.14
-19.92
-20.78
-20.11
-17.45
-12.74
-6.3
1.23
9.14
16.91
24.2
30.79
36.48
40.95
43.88
45
44.27
41.84
38.05
33.29
27.99
22.59
17.46
12.86
8.87
5.33
1.96
-1.47
-4.95
-8.29
-11.2
-13.56
-15.51
-17.4
-19.61
-22.38
-25.61
-29.03
-32.31
-35.26
-37.94
-40.61
-43.59
-47.17
-51.58
-56.92
-63.2
-70.32
-78.03
-85.89
-93.27
-99.41
-103.55
-105.06
-103.55
-98.89
-91.26
-81.07
-68.95
-55.59
-41.73
-27.92
-14.52
-1.7
10.4
21.65
31.87
40.86
48.59
55.17
60.84
65.75
69.87
72.91
74.47
74.33
72.46
69.14
64.77
59.76
54.45
49.12
43.97
39.19
34.9
31.15
27.79
24.62
21.42
18.03
14.42
10.63
6.72
2.73
-1.34
-5.52
-9.88
-14.43
-19.14
-23.93
-28.57
-32.67
-35.76
-37.28
-36.81
-34.19
-29.61
-23.62
-16.93
-10.19
-3.85
1.85
6.85
11.16
14.77
17.7
19.99
21.8
23.31
24.7
26.05
27.33
28.44
29.2
29.51
29.34
28.77
27.96
27
25.9
24.53
22.67
20.2
17.17
13.87
10.64
7.78
5.33
3.12
0.82
-1.84
-4.98
-8.47
-11.99
-15.16
-17.6
-18.9
-18.71
-16.78
-13.08
-7.92
-1.89
4.24
9.79
14.3
17.75
20.36
22.44
24.2
25.62
26.56
26.85
26.52
25.76
24.89
24.14
23.6
23.1
22.39
21.28
19.73
17.89
16.03
14.32
12.8
11.29
9.52
7.29
4.58
1.53
-1.59
-4.54
-7.15
-9.4
-11.37
-13.18
-15.02
-17.05
-19.36
-21.98
-24.8
-27.49
-29.56
-30.43
-29.58
-26.79
-22.18
-16.23
-9.58
-2.86
3.43
9.06
13.88
17.84
20.88
22.93
24.06
24.46
24.5
24.55
24.9
25.58
26.44
27.18
27.51
27.29
26.49
25.24
23.71
22.01
20.21
18.26
16.09
13.6
10.69
7.31
3.5
-0.56
-4.61
-8.32
-11.47
-14.04
-16.27
-18.63
-21.52
-25.08
-29
-32.57
-34.86
-35.11
-32.94
-28.57
-22.64
-16.08
-9.74
-4.21
0.25
3.7
6.36
8.48
10.22
11.65
12.75
13.55
14.07
14.37
14.51
14.59
14.65
14.72
14.8
14.78
14.57
14.04
13.15
11.97
10.54
8.92
7.07
4.88
2.28
-0.74
-3.96
-7.1
-9.81
-11.95
-13.59
-15.03
-16.68
-18.9
-21.86
-25.46
-29.37
-33.1
-36.17
-38.11
-38.55
-37.19
-33.94
-28.97
-22.77
-16.1
-9.74
-4.31
-0.02
3.27
5.88
8.07
9.9
11.26
11.98
12.12
11.93
11.82
12.16
13.05
14.33
15.63
16.56
16.84
16.41
15.37
13.91
12.27
10.59
8.9
7.14
5.14
2.7
-0.25
-3.73
-7.52
-11.28
-14.77
-17.87
-20.66
-23.42
-26.41
-29.8
-33.55
-37.37
-40.79
-43.26
-44.23
-43.31
-40.31
-35.3
-28.7
-21.1
-13.23
-5.74
0.92
6.53
11.13
14.86
17.84
20.1
21.58
22.22
22.08
21.46
20.75
20.31
20.3
20.59
20.91
20.96
20.72
20.34
20.11
20.21
20.58
20.94
20.89
20.14
18.58
16.39
13.89
11.46
9.38
7.79
6.62
5.64
4.59
3.22
1.45
-0.62
-2.73
-4.53
-5.66
-5.81
-4.79
-2.55
0.79
4.87
9.11
12.86
15.54
16.75
16.38
14.48
11.27
7.02
2.07
-3.14
-8.1
-12.22
-15.03
-16.33
-16.25
-15.18
-13.64
-12.12
-10.92
-10.18
-9.8
-9.64
-9.49
-9.3
-9.13
-9.22
-9.84
-11.18
-13.24
-15.72
-18.26
-20.48
-22.24
-23.66
-24.99
-26.54
-28.43
-30.73
-33.3
-35.95
-38.31
-39.82
-39.79
-37.57
-32.88
-25.94
-17.5
-8.61
-0.32
6.66
12.06
15.98
18.73
20.59
21.8
22.45
22.68
22.63
22.5
22.54
22.89
23.61
24.55
25.46
26.02
25.99
25.28
23.92
22.1
19.96
17.67
15.32
12.93
10.49
7.98
5.38
2.72
0.06
-2.57
-5.11
-7.59
-10.03
-12.47
-14.92
-17.45
-20.17
-23.15
-26.4
-29.73
-32.62
-34.36
-34.2
-31.68
-26.8
-20.14
-12.6
-5.18
1.36
6.64
10.62
13.52
15.6
17.07
18.03
18.53
18.62
18.4
18.08
17.84
17.81
17.99
18.24
18.35
18.16
17.63
16.88
16.04
15.14
14.06
12.57
10.44
7.61
4.24
0.69
-2.64
-5.44
-7.57
-9.11
-10.29
-11.45
-12.93
-15
-17.81
-21.24
-24.94
-28.31
-30.61
-31.14
-29.44
-25.41
-19.51
-12.49
-5.32
1.16
6.39
10.23
12.81
14.46
15.44
15.88
15.87
15.48
14.88
14.29
13.91
13.81
13.93
14.13
14.22
14.13
13.86
13.43
12.84
11.96
10.63
8.69
6.14
3.09
-0.19
-3.39
-6.28
-8.73
-10.78
-12.64
-14.54
-16.74
-19.34
-22.22
-24.96
-26.94
-27.47
-26.02
-22.48
-17.17
-10.82
-4.29
1.67
6.56
10.27
12.92
14.75
15.95
16.59
16.69
16.27
15.45
14.48
13.69
13.32
13.48
14.03
14.65
15.02
14.92
14.35
13.47
12.44
11.31
9.92
8
5.31
1.86
-2.04
-5.92
-9.31
-11.99
-14.05
-15.86
-17.88
-20.48
-23.76
-27.54
-31.36
-34.59
-36.51
-36.52
-34.27
-29.79
-23.57
-16.38
-9.11
-2.52
2.96
7.18
10.26
12.42
13.89
14.87
15.54
16.08
16.62
17.26
17.96
18.59
18.94
18.88
18.35
17.46
16.38
15.26
14.15
12.96
11.52
9.67
7.32
4.58
1.63
-1.31
-4.07
-6.56
-8.81
-10.97
-13.19
-15.68
-18.58
-21.9
-25.41
-28.61
-30.82
-31.33
-29.68
-25.85
-20.24
-13.65
-6.92
-0.74
4.48
8.63
11.85
14.31
16.14
17.41
18.14
18.43
18.43
18.36
18.37
18.54
18.8
18.98
18.93
18.55
17.91
17.11
16.28
15.43
14.44
13.12
11.26
8.79
5.78
2.48
-0.83
-3.9
-6.63
-9.06
-11.33
-13.67
-16.26
-19.3
-22.8
-26.54
-30.01
-32.5
-33.24
-31.71
-27.89
-22.26
-15.7
-9.13
-3.21
1.82
6.03
9.65
12.84
15.6
17.85
19.5
20.55
21.12
21.43
21.64
21.86
22.16
22.45
22.68
22.74
22.57
22.16
21.56
20.82
19.99
19.01
17.69
15.86
13.38
10.24
6.65
2.94
-0.55
-3.55
-5.98
-7.99
-9.82
-11.72
-13.94
-16.57
-19.65
-23.12
-26.79
-30.37
-33.37
-35.16
-35.12
-32.86
-28.39
-22.22
-15.17
-8.15
-1.83
3.49
7.88
11.56
14.68
17.29
19.3
20.62
21.33
21.63
21.82
22.13
22.63
23.23
23.81
24.25
24.49
24.57
24.48
24.18
23.59
22.61
21.21
19.45
17.44
15.33
13.25
11.24
9.27
7.21
4.92
2.28
-0.71
-3.97
-7.29
-10.42
-13.28
-15.88
-18.4
-21.11
-24.21
-27.79
-31.74
-35.7
-39.11
-41.24
-41.41
-39.15
-34.45
-27.79
-20.04
-12.17
-4.98
1.09
5.95
9.78
12.82
15.26
17.22
18.76
19.94
20.85
21.59
22.2
22.7
23.1
23.36
23.51
23.53
23.51
23.51
23.6
23.75
23.79
23.45
22.43
20.58
17.97
14.89
11.71
8.78
6.24
4
1.83
-0.5
-3.1
-5.94
-8.83
-11.6
-14.11
-16.33
-18.36
-20.44
-22.88
-25.89
-29.53
-33.53
-37.27
-39.95
-40.76
-39.21
-35.26
-29.37
-22.32
-14.92
-7.87
-1.57
3.83
8.34
12.03
15.01
17.32
19.03
20.25
21.12
21.81
22.45
23.11
23.74
24.28
24.65
24.84
24.92
24.95
24.99
24.96
24.72
24.08
22.95
21.25
19.02
16.35
13.38
10.32
7.41
4.89
2.82
1.11
-0.53
-2.43
-4.82
-7.73
-10.95
-14.14
-16.97
-19.28
-21.14
-22.83
-24.78
-27.39
-30.85
-35.02
-39.37
-43.1
-45.32
-45.4
-43.07
-38.49
-32.23
-25.03
-17.66
-10.74
-4.71
0.26
4.24
7.45
10.16
12.62
14.9
16.93
18.58
19.72
20.36
20.61
20.73
20.94
21.4
22.08
22.84
23.49
23.86
23.89
23.57
22.94
22.02
20.78
19.21
17.3
15.18
13
10.94
9.12
7.53
6.08
4.54
2.77
0.66
-1.74
-4.32
-6.92
-9.43
-11.8
-14.1
-16.44
-18.89
-21.49
-24.29
-27.28
-30.41
-33.52
-36.23
-37.97
-38.05
-35.88
-31.28
-24.58
-16.55
-8.21
-0.39
6.37
12.05
16.89
21.25
25.41
29.42
33.27
36.87
40.23
43.42
46.49
49.42
52.04
54.02
55.1
55.07
53.95
51.82
48.84
45.11
40.63
35.37
29.35
22.62
15.3
7.46
-0.8
-9.38
-18.1
-26.62
-34.57
-41.57
-47.44
-52.2
-56.11
-59.48
-62.51
-65.3
-67.77
-69.84
-71.44
-72.67
-73.8
-75.16
-77.11
-79.87
-83.43
-87.5
-91.47
-94.51
-95.72
-94.33
-89.84
-82.16
-71.55
-58.58
-43.96
-28.41
-12.54
3.17
18.37
32.85
46.49
59.17
70.73
80.86
89.24
95.55
99.65
101.71
102.17
101.57
100.36
98.81
96.88
94.5
91.56
87.98
83.7
78.56
72.4
65.17
57.21
49.13
41.74
35.64
30.99
27.53
24.73
22.12
19.44
16.65
13.82
11.08
8.55
6.43
4.89
3.89
3.09
1.87
-0.36
-3.85
-8.14
-12.19
-14.71
-14.65
-11.52
-5.57
2.46
11.51
20.53
28.58
34.98
39.26
41.3
41.27
39.61
36.94
33.86
30.88
28.32
26.36
25.01
24.32
24.3
25.01
26.57
29
32.27
36.21
40.53
44.76
48.29
50.42
50.47
47.99
42.91
35.6
26.87
17.74
9.22
2.05
-3.46
-7.39
-10.05
-11.86
-13.12
-13.97
-14.4
-14.36
-13.8
-12.75
-11.29
-9.48
-7.37
-4.85
-1.78
1.97
6.4
11.31
16.3
20.86
24.48
26.83
27.81
27.43
25.75
22.74
18.29
12.3
4.83
-3.88
-13.4
-23.25
-33
-42.37
-51.15
-59.18
-66.36
-72.6
-77.97
-82.64
-86.82
-90.63
-94.04
-96.81
-98.66
-99.4
-99.13
-98.18
-97.02
-96.05
-95.39
-94.82
-93.87
-92.01
-88.93
-84.59
-79.21
-73.18
-66.88
-60.58
-54.37
-48.16
-41.66
-34.48
-26.17
-16.44
-5.29
6.94
19.61
31.94
43.29
53.1
61.06
66.96
70.73
72.32
71.73
69.12
64.65
58.6
51.35
43.31
34.97
26.89
19.44
12.87
7.22
2.32
-1.99
-5.82
-9.24
-12.19
-14.57
-16.36
-17.53
-18.1
-18.13
-17.69
-16.94
-16.15
-15.58
-15.47
-15.89
-16.72
-17.7
-18.61
-19.38
-20.11
-21.1
-22.7
-25.19
-28.66
-32.94
-37.64
-42.38
-46.89
-51.09
-55.13
-59.15
-63.15
-66.81
-69.63
-70.99
-70.36
-67.33
-61.62
-53.13
-41.98
-28.81
-14.78
-1.52
9.25
16.3
19.26
18.76
16.09
12.74
9.91
8.25
7.9
8.65
10.19
12.24
14.53
16.78
18.73
20.16
20.99
21.38
21.67
22.31
23.59
25.51
27.74
29.71
30.82
30.59
28.85
25.69
21.44
16.51
11.35
6.37
1.94
-1.71
-4.42
-6.18
-7.08
-7.27
-6.99
-6.58
-6.42
-6.88
-8.17
-10.27
-12.9
-15.65
-18.12
-20.08
-21.56
-22.81
-24.13
-25.68
-27.41
-29.05
-30.22
-30.6
-30.07
-28.77
-27.03
-25.15
-23.27
-21.32
-19.01
-16.03
-12.13
-7.33
-1.89
3.74
8.99
13.4
16.67
18.79
19.94
20.5
20.86
21.28
21.89
22.62
23.27
23.58
23.29
22.26
20.41
17.77
14.46
10.68
6.66
2.64
-1.17
-4.69
-7.93
-11.03
-14.09
-17.02
-19.44
-20.78
-20.4
-17.94
-13.45
-7.44
-0.82
5.46
10.62
14.13
15.83
15.77
14.29
11.9
9.25
6.91
5.19
4.09
3.32
2.57
1.64
0.6
-0.32
-0.87
-0.99
-0.83
-0.73
-1.03
-1.95
-3.49
-5.49
-7.71
-9.87
-11.76
-13.23
-14.16
-14.49
-14.12
-13.01
-11.11
-8.46
-5.14
-1.29
2.95
7.44
12.02
16.42
20.29
23.16
24.61
24.38
22.48
19.17
14.88
10.11
5.3
0.82
-3.07
-6.2
-8.5
-10.03
-10.96
-11.46
-11.67
-11.62
-11.22
-10.39
-9.16
-7.72
-6.39
-5.53
-5.39
-6.05
-7.4
-9.15
-10.9
-12.21
-12.66
-11.94
-9.94
-6.84
-3.09
0.74
4.06
6.47
7.78
8
7.29
5.98
4.49
3.23
2.56
2.61
3.28
4.23
5.08
5.48
5.27
4.48
3.22
1.6
-0.29
-2.37
-4.55
-6.68
-8.62
-10.26
-11.6
-12.69
-13.63
-14.45
-15.09
-15.45
-15.48
-15.23
-14.82
-14.42
-14.07
-13.62
-12.76
-11.17
-8.72
-5.56
-2.17
0.85
3
4.04
4.04
3.36
2.37
1.34
0.4
-0.48
-1.34
-2.13
-2.71
-2.86
-2.46
-1.55
-0.33
0.94
2.03
2.8
3.25
3.41
3.38
3.19
2.86
2.32
1.55
0.45
-0.97
-2.71
-4.74
-7
-9.46
-12.06
-14.72
-17.25
-19.34
-20.56
-20.5
-18.96
-15.96
-11.89
-7.29
-2.74
1.29
4.49
6.77
8.14
8.63
8.32
7.31
5.78
3.98
2.21
0.76
-0.18
-0.49
-0.24
0.43
1.27
2
2.41
2.3
1.63
0.35
-1.44
-3.62
-6.01
-8.37
-10.51
-12.25
-13.55
-14.43
-15.09
-15.75
-16.62
-17.82
-19.34
-20.93
-22.12
-22.28
-20.85
-17.6
-12.71
-6.83
-0.86
4.38
8.42
11.19
12.95
14.03
14.69
15.02
15.04
14.76
14.33
13.97
13.92
14.25
14.88
15.57
16.03
16.08
15.65
14.86
13.84
12.66
11.26
9.55
7.49
5.13
2.76
0.65
-0.96
-2.02
-2.77
-3.57
-4.83
-6.74
-9.28
-12.08
-14.56
-16.01
-15.85
-13.81
-9.98
-4.87
0.81
6.29
10.99
14.55
16.91
18.21
18.64
18.41
17.67
16.58
15.34
14.15
13.24
12.74
12.69
13.04
13.69
14.45
15.12
15.5
15.34
14.46
12.74
10.25
7.22
4
0.94
-1.72
-3.87
-5.51
-6.72
-7.6
-8.3
-9.05
-10.08
-11.55
-13.31
-14.85
-15.48
-14.53
-11.69
-7.16
-1.64
4.02
9.05
13.05
15.96
17.92
19.12
19.68
19.67
19.16
18.34
17.41
16.57
15.93
15.5
15.24
15.09
15.02
15
14.95
14.78
14.31
13.41
11.96
9.99
7.58
4.87
2
-0.83
-3.46
-5.79
-7.81
-9.69
-11.65
-13.9
-16.53
-19.39
-22.01
-23.8
-24.17
-22.77
-19.59
-14.99
-9.55
-3.89
1.45
6.1
9.83
12.55
14.24
14.97
14.9
14.29
13.39
12.36
11.28
10.13
8.93
7.75
6.73
6
5.62
5.47
5.36
5.03
4.32
3.23
1.86
0.38
-1.06
-2.34
-3.48
-4.61
-5.95
-7.74
-10.19
-13.34
-16.99
-20.7
-23.84
-25.64
-25.46
-22.93
-18.12
-11.6
-4.27
2.86
8.98
13.62
16.74
18.53
19.31
19.25
18.52
17.2
15.43
13.48
11.67
10.38
9.8
9.94
10.55
11.25
11.65
11.52
10.79
9.57
8.09
6.46
4.73
2.78
0.5
-2.21
-5.26
-8.54
-11.85
-14.94
-17.55
-19.37
-20.06
-19.26
-16.75
-12.56
-7.03
-0.82
5.32
10.66
14.74
17.38
18.7
18.95
18.44
17.42
16.06
14.54
12.99
11.61
10.58
10.01
9.89
10.05
10.23
10.13
9.53
8.36
6.74
4.88
3
1.15
-0.76
-2.94
-5.58
-8.7
-12.17
-15.71
-19
-21.73
-23.59
-24.23
-23.3
-20.54
-16
-10.08
-3.53
2.78
8.12
12.14
14.84
16.38
16.99
16.79
15.82
14.17
12.05
9.81
7.87
6.52
5.88
5.87
6.26
6.75
7.05
6.95
6.32
5.15
3.55
1.64
-0.45
-2.64
-4.87
-7.1
-9.33
-11.56
-13.84
-16.24
-18.75
-21.25
-23.42
-24.7
-24.5
-22.42
-18.42
-12.88
-6.55
-0.27
5.26
9.65
12.81
14.9
16.19
16.86
17.13
17.11
16.92
16.71
16.55
16.5
16.56
16.67
16.78
16.85
16.79
16.51
15.88
14.73
12.99
10.68
7.91
4.87
1.72
-1.39
-4.38
-7.17
-9.77
-12.25
-14.74
-17.38
-20.17
-22.88
-25.02
-25.89
-24.88
-21.69
-16.56
-10.17
-3.44
2.8
8.04
12.12
15.15
17.27
18.56
18.99
18.59
17.5
16.06
14.72
13.87
13.69
14.1
14.78
15.34
15.49
15.12
14.3
13.21
11.97
10.6
8.99
6.96
4.41
1.39
-1.89
-5.13
-8.13
-10.81
-13.21
-15.57
-18.14
-21.18
-24.86
-29.21
-33.99
-38.74
-42.79
-45.44
-46.14
-44.77
-41.65
-37.48
-33.15
-29.38
-26.57
-24.75
-23.68
-23.12
-23.03
-23.62
-25.23
-28.13
-32.3
-37.37
-42.75
-47.92
-52.64
-57.06
-61.67
-67.02
-73.49
-81.11
-89.6
-98.55
-107.7
-117.07
-126.96
-137.8
-149.88
-163.23
-177.57
-192.41
-207.09
-220.78
-232.57
-241.57
-247.2
-249.37
-248.63
-245.8
-241.44
-235.32
-226.21
-212.24
-191.69
-163.82
-129.31
-90.18
-49.07
-8.41
30.31
66.74
101.46
135.41
169.42
203.76
238.17
272
304.35
334.15
360.19
381.1
395.56
402.49
401.21
391.38
372.82
345.35
308.96
264.37
213.67
160.47
109.48
65.41
31.77
10
-0.5
-1.87
3.18
11.91
21.93
31.22
38.21
41.81
41.62
37.96
31.8
24.44
17.23
11.31
7.44
5.95
6.7
9.19
12.74
16.77
20.94
25.21
29.66
34.27
38.81
42.77
45.63
47.03
46.83
45.1
41.99
37.66
32.25
25.97
19.14
12.26
5.88
0.5
-3.43
-5.69
-6.16
-5
-2.6
0.43
3.4
5.64
6.65
6.23
4.33
1.11
-3.24
-8.46
-14.24
-20.21
-25.97
-31.17
-35.55
-38.95
-41.3
-42.52
-42.44
-40.91
-37.85
-33.33
-27.71
-21.53
-15.39
-9.73
-4.75
-0.36
3.7
7.6
11.32
14.56
16.94
18.18
18.32
17.74
16.97
16.54
16.64
17.16
17.72
18.03
17.99
17.77
17.71
18.14
19.2
20.74
22.4
23.6
23.82
22.68
20.11
16.35
11.86
7.16
2.51
-2.05
-6.76
-11.96
-17.81
-24.25
-30.88
-37.17
-42.57
-46.66
-49.19
-50.05
-49.28
-47.03
-43.66
-39.72
-35.88
-32.76
-30.67
-29.45
-28.55
-27.24
-25
-21.72
-17.78
-13.81
-10.37
-7.72
-5.72
-4
-2.22
-0.2
2.04
4.29
6.36
8.09
9.37
10.11
10.14
9.31
7.5
4.87
1.71
-1.52
-4.38
-6.64
-8.25
-9.25
-9.71
-9.68
-9.19
-8.41
-7.69
-7.49
-8.26
-10.11
-12.74
-15.39
-17.08
-16.89
-14.4
-9.73
-3.59
2.96
8.85
13.29
15.94
16.94
16.74
15.8
14.6
13.45
12.64
12.39
12.9
14.21
16.18
18.48
20.7
22.47
23.58
23.98
23.81
23.18
22.15
20.69
18.78
16.39
13.55
10.32
6.84
3.29
-0.11
-3.16
-5.76
-7.96
-10.01
-12.27
-15.02
-18.35
-21.84
-24.75
-26.16
-25.33
-22
-16.53
-9.73
-2.59
4.01
9.58
13.98
17.33
19.81
21.54
22.56
22.9
22.66
21.95
20.99
19.91
18.83
17.77
16.75
15.72
14.66
13.54
12.36
11.09
9.77
8.43
7.13
5.82
4.44
2.88
1.03
-1.2
-3.8
-6.75
-9.94
-13.17
-16.15
-18.41
-19.37
-18.52
-15.59
-10.72
-4.46
2.29
8.59
13.62
16.98
18.58
18.69
17.67
15.9
13.68
11.22
8.72
6.43
4.59
3.39
2.86
2.86
3.11
3.25
3.05
2.39
1.28
-0.19
-1.94
-3.92
-6.1
-8.44
-10.86
-13.24
-15.46
-17.51
-19.43
-21.35
-23.28
-25.08
-26.36
-26.53
-25.05
-21.63
-16.36
-9.76
-2.61
4.28
10.23
14.87
18.12
20.07
20.89
20.79
19.97
18.68
17.17
15.71
14.54
13.82
13.57
13.69
13.99
14.32
14.56
14.66
14.56
14.16
13.29
11.76
9.44
6.31
2.55
-1.55
-5.57
-9.2
-12.26
-14.84
-17.25
-19.88
-23
-26.54
-30.08
-32.86
-34.09
-33.11
-29.75
-24.22
-17.2
-9.47
-1.85
4.99
10.62
14.79
17.49
18.9
19.3
19
18.31
17.51
16.77
16.28
16.16
16.46
17.12
17.94
18.63
18.93
18.7
17.97
16.91
15.64
14.16
12.3
9.89
6.79
3.09
-0.9
-4.84
-8.38
-11.37
-13.86
-16.03
-18.15
-20.46
-23.11
-26.05
-29.01
-31.4
-32.5
-31.65
-28.42
-22.95
-15.87
-8.13
-0.75
5.56
10.48
14.08
16.63
18.41
19.57
20.16
20.26
20
19.64
19.49
19.83
20.75
22.17
23.85
25.47
26.76
27.58
27.89
27.67
26.9
25.5
23.35
20.43
16.81
12.73
8.52
4.51
0.86
-2.39
-5.41
-8.33
-11.29
-14.29
-17.23
-19.93
-22.28
-24.28
-26.09
-28.08
-30.63
-33.93
-37.86
-41.83
-44.85
-45.84
-43.97
-38.98
-31.32
-22
-12.3
-3.34
4.14
9.88
14.07
17.05
19.24
20.96
22.38
23.59
24.62
25.48
26.17
26.72
27.1
27.3
27.26
26.88
26.09
24.84
23.16
21.15
18.93
16.59
14.18
11.72
9.16
6.51
3.79
1.06
-1.6
-4.12
-6.44
-8.47
-10.15
-11.48
-12.59
-13.68
-15.05
-16.96
-19.55
-22.78
-26.31
-29.6
-31.93
-32.57
-30.99
-27.02
-20.97
-13.57
-5.81
1.37
7.32
11.8
14.88
16.81
17.76
17.87
17.17
15.8
14.03
12.31
11.1
10.7
11.13
12.13
13.29
14.27
14.91
15.32
15.65
16
16.31
16.3
15.64
14.13
11.73
8.66
5.2
1.63
-1.86
-5.18
-8.31
-11.33
-14.32
-17.43
-20.85
-24.71
-28.98
-33.34
-37.18
-39.67
-40.02
-37.72
-32.79
-25.8
-17.67
-9.47
-2.09
3.97
8.55
11.85
14.1
15.52
16.24
16.39
16.16
15.83
15.72
16.09
16.99
18.41
20.15
21.98
23.72
25.25
26.5
27.39
27.79
27.53
26.51
24.62
21.84
18.24
13.97
9.26
4.34
-0.55
-5.3
-9.76
-13.9
-17.79
-21.57
-25.27
-28.7
-31.49
-33.01
-32.68
-29.65
-23.59
-14.94
-4.88
5.01
13.37
19.11
22.17
22.94
23.13
24.19
26.94
31.2
36.17
40.96
44.44
46.78
48.44
51.75
58.77
70.65
87.01
106.42
127.23
147.45
167.28
187.51
211.14
240.55
276.62
317.93
361.59
404.44
442.74
475.32
484.17
455.91
385.52
279.9
154.11
24.64
-88.86
-185.64
-267.85
-337.62
-395.11
-440.82
-473.99
-495.54
-507.64
-512.88
-514.52
-513.36
-503.69
-479.97
-439.22
-382.23
-314.05
-241.4
-170.48
-106.55
-51.61
-6.22
30.1
58.19
80.68
98.26
111.05
119.23
122.85
122.95
120.45
115.72
108.93
100.22
89.66
77.99
65.58
53.76
44.35
38.63
36.73
38.09
41.77
46.5
51.32
55.66
59.48
63.38
68.38
75.3
84.31
94.38
102.94
106.75
102.97
90.4
69.85
43.96
16.13
-10.37
-33.25
-51.3
-64.11
-71.77
-74.56
-73.24
-68.96
-63.1
-56.81
-50.77
-45.06
-39.31
-33.11
-26.37
-19.58
-13.78
-10.13
-9.5
-12.15
-17.62
-24.86
-32.5
-39.26
-44.17
-46.83
-47.32
-46.07
-43.66
-40.65
-37.45
-34.26
-31.15
-28.02
-24.81
-21.5
-18.18
-15.09
-12.55
-10.81
-9.98
-9.99
-10.51
-11.19
-11.75
-12.02
-12.03
-11.92
-11.81
-11.76
-11.76
-11.69
-11.41
-10.85
-9.94
-8.77
-7.48
-6.28
-5.36
-4.83
-4.66
-4.73
-4.98
-5.34
-5.86
-6.59
-7.53
-8.58
-9.54
-10.17
-10.37
-10.17
-9.73
-9.24
-8.86
-8.54
-8.18
-7.62
-6.76
-5.61
-4.27
-2.83
-1.35
0.12
1.56
2.8
3.58
3.63
2.8
1.17
-1
-3.27
-5.31
-6.84
-7.83
-8.29
-8.27
-7.78
-6.8
-5.32
-3.47
-1.45
0.48
2.11
3.36
4.25
4.85
5.17
5.19
4.85
4.13
3.15
2.08
1.09
0.27
-0.43
-1.16
-2.1
-3.31
-4.75
-6.19
-7.41
-8.21
-8.49
-8.32
-7.87
-7.34
-6.88
-6.54
-6.24
-5.9
-5.48
-4.99
-4.59
-4.39
-4.43
-4.66
-4.91
-5.02
-4.9
-4.57
-4.14
-3.8
-3.65
-3.71
-3.88
-4.04
-4.03
-3.79
-3.38
-2.91
-2.53
-2.27
-2.09
-1.91
-1.7
-1.51
-1.46
-1.65
-2.06
-2.6
-3.09
-3.35
-3.34
-3.11
-2.76
-2.42
-2.16
-2.01
-1.99
-2.12
-2.41
-2.83
-3.31
-3.74
-4.03
-4.11
-3.93
-3.53
-2.95
-2.3
-1.7
-1.21
-0.86
-0.65
-0.49
-0.31
-0.11
0.11
0.26
0.29
0.2
0.07
0.03
0.14
0.39
0.67
0.79
0.62
0.14
-0.48
-0.99
-1.1
-0.66
0.35
1.82
3.53
5.27
6.88
8.29
9.49
10.49
11.33
12.06
12.72
13.36
14.05
14.83
15.71
16.67
17.61
18.41
18.95
19.21
19.16
18.87
18.35
17.62
16.71
15.68
14.57
13.44
12.31
11.13
9.81
8.25
6.4
4.22
1.72
-1.1
-4.21
-7.57
-11.01
-14.35
-17.44
-20.16
-22.49
-24.41
-25.96
-27.05
-27.66
-27.73
-27.31
-26.55
-25.61
-24.65
-23.71
-22.8
-21.83
-20.77
-19.65
-18.56
-17.62
-16.88
-16.34
-15.84
-15.28
-14.57
-13.73
-12.85
-12.04
-11.33
-10.7
-10.05
-9.34
-8.64
-8.13
-8.04
-8.59
-9.79
-11.43
-13.13
-14.42
-14.97
-14.67
-13.65
-12.2
-10.58
-8.94
-7.28
-5.51
-3.6
-1.62
0.26
1.88
3.11
3.86
4.09
3.78
2.98
1.88
0.78
0.05
0.01
0.75
2.08
3.6
4.85
5.57
5.86
6.04
6.6
7.8
9.63
11.73
13.57
14.7
14.97
14.41
13.12
11.17
8.48
5.01
0.95
-3.2
-6.78
-9.23
-10.34
-10.4
-9.97
-9.57
-9.51
-9.72
-9.96
-10.04
-9.91
-9.67
-9.4
-9.01
-8.22
-6.68
-4.15
-0.69
3.32
7.29
10.62
12.94
14.17
14.41
13.87
12.69
10.95
8.73
6.21
3.69
1.53
0
-0.79
-0.96
-0.63
0.02
0.82
1.59
2
1.72
0.51
-1.51
-3.82
-5.58
-6
-4.61
-1.6
2.35
6.24
9.2
10.82
11.24
11.02
10.8
10.99
11.64
12.48
13.15
13.36
13.09
12.41
11.44
10.12
8.33
5.91
2.76
-1.06
-5.38
-9.91
-14.35
-18.33
-21.5
-23.41
-23.68
-22.09
-18.66
-13.64
-7.58
-1.12
5.09
10.45
14.53
17.05
17.86
17.03
14.78
11.49
7.62
3.68
-0.02
-3.25
-5.9
-7.92
-9.18
-9.54
-8.94
-7.45
-5.28
-2.74
-0.13
2.28
4.34
5.96
7.1
7.73
7.88
7.61
7.02
6.21
5.33
4.52
3.94
3.73
3.89
4.35
4.96
5.56
6.02
6.33
6.5
6.53
6.4
6.12
5.71
5.27
4.99
4.91
5.03
5.21
5.34
5.32
5.2
5.08
5.02
5
4.92
4.62
4.01
2.99
1.53
-0.45
-2.98
-5.98
-9.25
-12.35
-14.83
-16.28
-16.56
-15.84
-14.48
-12.92
-11.53
-10.46
-9.68
-9.05
-8.44
-7.84
-7.33
-7.08
-7.2
-7.67
-8.32
-8.89
-9.17
-9.08
-8.7
-8.23
-7.85
-7.63
-7.48
-7.29
-6.9
-6.33
-5.71
-5.29
-5.28
-5.74
-6.52
-7.28
-7.64
-7.36
-6.42
-5.14
-3.95
-3.26
-3.33
-4.2
-5.71
-7.6
-9.58
-11.37
-12.79
-13.7
-14.09
-14.11
-13.93
-13.69
-13.48
-13.18
-12.7
-11.91
-10.82
-9.57
-8.37
-7.45
-6.92
-6.79
-6.87
-6.92
-6.67
-5.95
-4.71
-3.08
-1.2
0.81
2.91
5.2
7.75
10.55
13.44
16.17
18.44
20.08
21.15
21.85
22.49
23.32
24.43
25.74
27.11
28.36
29.33
29.94
30.06
29.53
28.23
26.1
23.23
19.89
16.47
13.29
10.6
8.41
6.6
4.95
3.29
1.55
-0.23
-1.94
-3.45
-4.65
-5.53
-6.07
-6.31
-6.3
-6.12
-5.86
-5.64
-5.53
-5.57
-5.76
-6.02
-6.29
-6.49
-6.56
-6.43
-6.07
-5.46
-4.67
-3.79
-2.94
-2.23
-1.73
-1.45
-1.33
-1.32
-1.35
-1.37
-1.33
-1.2
-0.95
-0.61
-0.32
-0.23
-0.52
-1.27
-2.37
-3.58
-4.59
-5.13
-5.1
-4.6
-3.83
-2.99
-2.24
-1.67
-1.32
-1.17
-1.22
-1.41
-1.71
-2.04
-2.37
-2.72
-3.08
-3.4
-3.61
-3.61
-3.34
-2.84
-2.2
-1.55
-1.01
-0.63
-0.37
-0.16
0.05
0.32
0.65
1.02
1.36
1.59
1.69
1.61
1.38
1.02
0.55
-0.03
-0.68
-1.33
-1.84
-2.02
-1.81
-1.25
-0.62
-0.27
-0.53
-1.43
-2.77
-4.1
-4.9
-4.93
-4.2
-3.01
-1.75
-0.77
-0.19
0.08
0.25
0.47
0.81
1.17
1.4
1.42
1.27
1.09
1.05
1.24
1.63
2.07
2.39
2.48
2.33
2.06
1.85
1.87
2.22
2.85
3.55
4.04
4.08
3.65
2.93
2.23
1.78
1.61
1.55
1.36
0.91
0.27
-0.32
-0.62
-0.51
-0.03
0.66
1.38
1.99
2.33
2.25
1.63
0.4
-1.31
-3.15
-4.64
-5.34
-5.07
-3.96
-2.43
-0.95
0.13
0.71
0.91
1
1.21
1.64
2.23
2.81
3.22
3.41
3.42
3.36
3.32
3.35
3.44
3.59
3.77
4.04
4.4
4.84
5.28
5.6
5.73
5.62
5.38
5.15
5.08
5.3
5.78
6.45
7.15
7.74
8.14
8.4
8.59
8.82
9.13
9.46
9.64
9.44
8.62
7.12
5.03
2.64
0.35
-1.5
-2.64
-3.03
-2.75
-1.99
-0.9
0.42
1.94
3.62
5.34
6.86
7.86
7.96
6.82
4.27
0.34
-4.71
-10.43
-16.28
-21.84
-26.87
-31.43
-35.76
-40.08
-44.38
-48.33
-51.35
-52.9
-52.67
-50.8
-47.88
-44.73
-42.08
-40.38
-39.69
-39.77
-40.2
-40.54
-40.42
-39.69
-38.31
-36.37
-34.08
-31.64
-29.29
-27.23
-25.62
-24.54
-24.03
-24.06
-24.55
-25.37
-26.33
-27.21
-27.74
-27.69
-26.86
-25.14
-22.59
-19.34
-15.68
-11.86
-8.09
-4.37
-0.55
3.63
8.37
13.72
19.6
25.76
31.97
37.95
43.48
48.33
52.31
55.28
57.25
58.43
59.22
60.16
61.76
64.37
68.04
72.5
77.15
81.21
83.92
84.78
83.63
80.68
76.46
71.63
66.79
62.39
58.58
55.28
52.26
49.22
45.95
42.33
38.34
34.03
29.46
24.64
19.58
14.32
8.95
3.63
-1.46
-6.11
-10.2
-13.64
-16.33
-18.2
-19.16
-19.11
-17.98
-15.79
-12.72
-9.12
-5.47
-2.22
0.27
1.83
2.56
2.7
2.58
2.56
2.86
3.55
4.51
5.52
6.27
6.54
6.21
5.37
4.35
3.53
3.16
3.27
3.45
3.1
1.52
-1.68
-6.52
-12.47
-18.8
-24.75
-29.75
-33.54
-36.07
-37.46
-37.9
-37.69
-37.17
-36.78
-36.92
-37.88
-39.77
-42.47
-45.69
-49.09
-52.38
-55.4
-58.19
-60.92
-63.73
-66.69
-69.63
-72.08
-73.52
-73.51
-71.91
-68.93
-65.01
-60.64
-56.26
-52.14
-48.37
-44.92
-41.64
-38.32
-34.66
-30.41
-25.47
-20
-14.37
-9.07
-4.56
-1.15
1.1
2.3
2.76
2.79
2.63
2.43
2.18
1.73
0.89
-0.51
-2.51
-5.07
-8.12
-11.66
-15.74
-20.41
-25.56
-30.76
-35.33
-38.42
-39.32
-37.69
-33.61
-27.61
-20.42
-12.78
-5.26
1.73
7.93
13.23
17.55
20.99
23.75
26.12
28.42
30.88
33.57
36.38
39.08
41.41
43.2
44.35
44.84
44.73
44.13
43.15
41.89
40.42
38.83
37.25
35.8
34.61
33.69
32.86
31.83
30.24
27.93
24.95
21.64
18.4
15.56
13.23
11.21
9.13
6.53
3.1
-1.2
-6
-10.67
-14.42
-16.52
-16.53
-14.3
-10.03
-4.08
3.11
11.13
19.6
28.19
36.55
44.28
51.08
56.7
61.13
64.69
67.94
71.52
75.9
81.2
87.07
92.98
98.42
103.18
107.43
111.61
116.28
121.93
128.72
136.34
143.61
148.52
148.43
140.87
124.52
99.87
69.32
36.31
4.19
-24.8
-49.86
-71.22
-89.4
-104.74
-117.25
-126.99
-134.36
-140.2
-145.52
-151.07
-157.1
-163.28
-168.89
-173.12
-175.18
-174.47
-170.63
-163.63
-153.81
-141.82
-128.51
-114.73
-101.16
-88.22
-76.16
-65.05
-54.95
-45.86
-37.71
-30.32
-23.44
-16.71
-9.88
-2.88
4.22
11.17
17.69
23.64
28.99
33.85
38.42
42.84
47.09
50.96
54.1
56.18
57.01
56.71
55.68
54.46
53.54
53.17
53.26
53.48
53.39
52.71
51.33
49.44
47.35
45.37
43.75
42.55
41.65
40.79
39.67
38.05
35.85
33.28
30.89
29.51
30.04
33.19
39.24
47.84
58.07
68.77
78.93
87.96
95.68
102.09
107.03
109.91
109.89
106.22
98.71
88.02
75.46
62.6
50.72
40.54
32.19
25.38
19.72
14.91
10.67
6.78
2.88
-1.36
-6.15
-11.44
-16.86
-21.82
-25.77
-28.48
-30.14
-31.32
-32.8
-35.11
-38.33
-41.98
-45.19
-47.16
-47.53
-46.55
-45.01
-43.92
-44.1
-45.91
-49.2
-53.46
-58.05
-62.35
-65.89
-68.3
-69.35
-68.9
-66.97
-63.77
-59.53
-54.55
-49.06
-43.14
-36.86
-30.26
-23.39
-16.37
-9.37
-2.63
3.56
8.92
13.17
16.18
17.93
18.6
18.39
17.49
16
13.98
11.48
8.61
5.55
2.46
-0.56
-3.58
-6.83
-10.52
-14.73
-19.31
-23.99
-28.47
-32.59
-36.44
-40.29
-44.51
-49.37
-54.9
-60.9
-66.96
-72.49
-76.99
-79.97
-81.23
-80.8
-78.98
-76.18
-72.87
-69.35
-65.73
-62.02
-58.15
-54.14
-50.02
-45.88
-41.72
-37.42
-32.77
-27.56
-21.68
-15.18
-8.25
-1.22
5.54
11.6
16.53
20
21.84
22.07
20.92
18.72
15.84
12.66
9.45
6.39
3.6
1.12
-1.08
-3.08
-5.06
-7.24
-9.96
-13.6
-18.49
-24.7
-31.83
-39.01
-45.01
-48.67
-49.26
-46.72
-41.64
-34.98
-27.54
-19.8
-11.83
-3.43
5.56
15.04
24.56
33.47
41.03
46.73
50.37
52.07
52.26
51.36
49.76
47.7
45.37
43
40.95
39.65
39.45
40.47
42.47
44.93
47.27
49.06
50.13
50.66
51
51.53
52.44
53.66
54.73
54.94
53.41
49.3
42.04
31.51
18.18
3.02
-12.62
-27.19
-39.25
-47.69
-51.9
-51.89
-48.14
-41.5
-32.82
-22.82
-11.91
-0.22
12.19
25.3
38.87
52.49
65.62
77.66
88.07
96.41
102.45
106.21
107.96
108.18
107.4
106.05
104.34
102.24
99.58
96.22
92.28
88.21
84.65
82.18
81.05
80.96
81.22
81.04
79.95
77.88
75.19
72.29
69.37
66.34
62.91
58.85
54.12
48.88
43.34
37.7
32.13
26.84
22.15
18.43
15.94
14.55
13.77
12.73
10.64
7.1
2.27
-3.22
-8.62
-13.43
-17.65
-21.59
-25.65
-29.93
-34.14
-37.82
-40.58
-42.38
-43.41
-43.97
-44.21
-44.1
-43.63
-42.89
-42.25
-42.11
-42.8
-44.3
-46.32
-48.47
-50.36
-51.85
-52.92
-53.64
-54.09
-54.43
-54.78
-55.31
-56.1
-57.07
-57.91
-58.14
-57.24
-54.88
-51.05
-46.11
-40.68
-35.42
-30.82
-27.11
-24.32
-22.36
-21.07
-20.39
-20.15
-20.14
-20.02
-19.33
-17.59
-14.31
-9.19
-2.15
6.56
16.36
26.38
35.79
43.94
50.6
55.93
60.3
64.03
67.22
69.62
70.86
70.54
68.54
65.01
60.33
54.82
48.65
41.65
33.46
23.8
12.71
0.8
-10.9
-21.3
-29.62
-35.68
-39.93
-43.23
-46.51
-50.48
-55.45
-61.32
-67.72
-74.17
-80.1
-85.08
-89.02
-92.18
-95.15
-98.67
-103.29
-109.1
-115.54
-120.88
-122.84
-119.32
-109.35
-93.48
-73.81
-53.33
-35.09
-21.34
-12.11
-5.96
-0.9
4.41
10.11
15.43
19.28
20.73
19.36
16.62
14.4
14.12
15.85
18.52
20.96
22.9
24.99
28.49
36.35
51.41
75.26
107.72
147.24
192.31
242.06
295.69
340.76
364.8
360.08
328.43
279.34
222.92
165.45
108.77
52.26
-4.92
-60.14
-108.81
-146.92
-173.37
-190.72
-202.82
-212.92
-224.69
-239.59
-256.38
-272.41
-284.75
-290.63
-288.14
-274.74
-248.61
-207.28
-156.24
-103.82
-56.9
-18.63
11.79
34.05
48.57
55.65
55.14
45.92
27.97
4.16
-21.67
-45.61
-67.09
-84.56
-93.98
-90.5
-71.64
-37.25
12.57
75.74
148.65
222.91
292.05
351.61
399.8
435.55
446.65
426.03
372.49
307.69
235.3
152.44
51.14
-66.46
-191.86
-312.7
-414.31
-486.05
-516.69
-504.51
-455.4
-382.55
-300.57
-221.69
-154.1
-94.02
-36.8
19.95
73.26
120.44
157.02
182.88
199.78
209.88
216
219.75
221.65
219.7
212.04
199.24
184.61
171.3
160.5
151.99
144.74
138.01
131.13
123.84
118.08
117.11
122.91
134.28
142.21
137.56
114.41
79.43
35.8
-14.34
-70.35
-129.28
-187.72
-242.28
-289.27
-325.59
-349.26
-361.13
-362.46
-354.66
-339.09
-317.28
-290.5
-258.97
-222.78
-182.51
-140.73
-100.07
-62.9
-30.73
-4.42
16.04
31.84
44.51
55.45
64.96
73.29
80.66
87.25
92.94
97.43
100.63
102.38
102.57
100.7
96.55
90.14
81.77
71.78
60.61
48.82
37.03
25.86
15.8
7.43
1.4
-1.66
-1.16
3.32
11.86
24.06
38.76
54
67.22
75.75
77.44
71.31
57.74
38.29
15.31
-8.72
-31.49
-51.1
-66.12
-75.59
-79.19
-77.31
-71.08
-62.16
-52.37
-43.25
-35.74
-30.04
-25.82
-22.42
-19.19
-15.68
-11.8
-7.76
-4
-1.02
0.77
1.2
0.42
-0.98
-2.1
-1.88
0.56
5.7
13.48
23.3
34.29
45.43
55.94
65.25
73.18
79.78
85.24
89.61
92.68
93.96
92.83
88.8
81.83
72.42
61.58
50.44
39.91
30.43
21.96
14.17
6.68
-0.72
-8.11
-15.43
-22.62
-29.58
-36.15
-41.98
-46.65
-49.75
-51.05
-50.67
-49.06
-46.95
-44.99
-43.66
-43.01
-42.63
-41.79
-39.67
-35.61
-29.47
-21.62
-12.91
-4.38
3.1
9.07
13.53
16.83
19.39
21.48
23.21
24.55
25.48
26.01
26.21
26.11
25.72
24.96
23.8
22.22
20.34
18.34
16.46
14.86
13.61
12.64
11.71
10.52
8.79
6.34
3.24
-0.25
-3.67
-6.61
-8.79
-10.23
-11.16
-11.93
-12.92
-14.34
-16.14
-17.99
-19.33
-19.5
-17.87
-13.97
-7.68
0.73
10.69
21.38
31.92
41.56
49.69
55.93
60.1
62.24
62.49
61.12
58.39
54.5
49.52
43.39
35.97
27.2
17.24
6.54
-4.12
-13.83
-21.76
-27.41
-30.71
-32.04
-32.02
-31.26
-30.22
-29.11
-27.97
-26.83
-25.73
-24.81
-24.13
-23.63
-23.06
-22.13
-20.62
-18.57
-16.26
-14.12
-12.56
-11.8
-11.84
-12.46
-13.37
-14.16
-14.42
-13.77
-11.96
-9.02
-5.31
-1.51
1.6
3.3
3.17
1.2
-2.2
-6.37
-10.57
-14.19
-16.87
-18.43
-18.85
-18.11
-16.1
-12.72
-7.95
-1.99
4.71
11.58
18.16
24.17
29.55
34.38
38.68
42.34
45.08
46.51
46.25
44.05
39.89
33.93
26.63
18.6
10.54
3.11
-3.26
-8.43
-12.47
-15.56
-17.91
-19.42
-19.67
-17.86
-12.98
-4.2
8.78
25.49
44.76
64.95
84.43
102.03
117.33
130.7
142.83
154.31
165.23
175.1
182.74
186.59
184.99
176.7
161.39
139.79
113.71
85.67
58.48
34.46
15.05
0.54
-9.6
-16.14
-19.58
-19.77
-16.18
-8.28
3.86
19.32
36.28
52.47
65.77
74.72
78.74
77.96
72.99
64.74
54.31
42.9
31.5
20.82
11.12
2.27
-5.87
-13.19
-18.89
-21.56
-19.59
-11.98
1.1
17.9
35.38
49.84
57.78
56.74
45.76
25.75
-0.65
-29.45
-56.21
-77.12
-90.02
-94.97
-93.94
-89.98
-86.04
-84.24
-85.58
-90.32
-98.37
-109.55
-123.4
-138.93
-154.53
-168.34
-178.77
-185.05
-187.29
-186.19
-182.66
-177.39
-170.85
-163.39
-155.35
-147.08
-138.87
-130.84
-123.02
-115.33
-107.78
-100.37
-93.13
-85.99
-78.88
-71.7
-64.37
-56.84
-49.03
-40.81
-32.09
-22.99
-13.93
-5.63
1.04
5.36
7.02
6.15
3.31
-0.71
-5.04
-8.96
-11.92
-13.79
-14.78
-15.44
-16.48
-18.49
-21.82
-26.45
-32.05
-38.07
-43.99
-49.33
-53.77
-56.97
-58.71
-58.86
-57.48
-54.87
-51.45
-47.67
-43.88
-40.16
-36.45
-32.58
-28.51
-24.29
-20.21
-16.59
-13.75
-11.95
-11.28
-11.76
-13.25
-15.45
-17.89
-19.94
-20.89
-20.13
-17.28
-12.35
-5.82
1.58
8.97
15.63
21.15
25.45
28.7
31.15
32.98
34.19
34.75
34.61
33.88
32.8
31.69
30.79
30.21
29.87
29.59
29.21
28.65
27.86
26.85
25.58
23.99
22.05
19.8
17.3
14.58
11.55
8.09
4.11
-0.32
-4.89
-9.2
-12.89
-15.78
-17.92
-19.53
-20.89
-22.24
-23.75
-25.51
-27.58
-29.84
-32
-33.55
-33.81
-32.23
-28.46
-22.67
-15.38
-7.44
0.33
7.36
13.41
18.58
23.03
26.86
29.92
31.96
32.83
32.61
31.71
30.71
30.11
30.18
30.85
31.85
32.84
33.6
34.08
34.32
34.35
34.14
33.6
32.64
31.25
29.45
27.34
24.98
22.37
19.47
16.27
12.78
9.07
5.18
1.04
-3.52
-8.75
-14.83
-21.71
-28.97
-35.82
-41.28
-44.38
-44.48
-41.47
-35.84
-28.52
-20.63
-13.13
-6.58
-1.15
3.4
7.36
10.89
13.93
16.25
17.7
18.34
18.53
18.79
19.63
21.21
23.43
25.94
28.31
30.29
31.77
32.74
33.19
33
31.97
29.94
26.93
23.12
18.81
14.32
9.92
5.72
1.83
-1.75
-5.03
-8.11
-11.16
-14.4
-17.92
-21.67
-25.35
-28.41
-30.17
-29.99
-27.5
-22.7
-16.01
-8.23
-0.29
6.93
12.92
17.46
20.72
22.96
24.4
25.16
25.25
24.69
23.56
22.11
20.61
19.34
18.49
18.02
17.77
17.42
16.68
15.34
13.42
11.07
8.55
6.11
3.78
1.47
-1.08
-4.02
-7.42
-11.13
-14.93
-18.7
-22.53
-26.78
-31.92
-38.37
-46.28
-55.45
-65.25
-74.63
-82.19
-86.39
-85.95
-80.2
-69.37
-54.68
-37.99
-21.26
-6.08
6.58
16.39
23.37
27.8
30
30.39
29.59
28.33
27.35
27.19
28.09
29.93
32.43
35.27
38.32
41.71
45.69
50.44
55.87
61.54
66.74
70.82
73.39
74.54
74.74
74.63
74.7
75.12
75.72
76.1
75.97
75.22
73.99
72.55
71.12
69.65
67.9
65.36
61.56
56.15
48.98
40.16
30.04
19.2
8.38
-1.48
-9.5
-15.01
-17.74
-17.89
-16.06
-13.07
-9.63
-6.25
-3.15
-0.35
2.09
4.12
5.62
6.46
6.65
6.44
6.2
6.38
7.25
8.78
10.61
12.09
12.47
11.13
7.84
2.89
-2.9
-8.41
-12.61
-14.91
-15.41
-14.77
-13.78
-12.85
-11.71
-9.52
-5.47
0.65
8.24
16.09
22.87
27.71
30.3
30.79
29.4
26.25
21.42
15.17
8.19
1.46
-4.03
-7.72
-9.67
-10.51
-10.98
-11.65
-12.67
-13.85
-14.88
-15.54
-15.86
-16.06
-16.36
-16.86
-17.47
-18
-18.18
-17.89
-17.1
-15.83
-14.17
-12.22
-10.21
-8.45
-7.34
-7.22
-8.29
-10.56
-13.87
-17.99
-22.73
-27.97
-33.6
-39.57
-45.8
-52.18
-58.6
-64.83
-70.61
-75.56
-79.35
-81.75
-82.89
-83.18
-83.17
-83.32
-83.73
-84.09
-83.74
-81.98
-78.25
-72.35
-64.42
-54.86
-44.2
-33.03
-21.94
-11.49
-2.23
5.39
11.15
15.01
17.21
18.08
18.09
17.62
16.97
16.3
15.67
15.05
14.44
13.87
13.44
13.31
13.6
14.33
15.36
16.5
17.54
18.35
18.91
19.19
19.22
18.88
18.03
16.51
14.34
11.65
8.79
6.23
4.46
3.9
4.75
7
10.32
14.21
18.11
21.48
23.99
25.48
26
25.65
24.57
22.87
20.71
18.23
15.65
13.2
11.07
9.45
8.41
7.99
8.08
8.5
8.99
9.26
9.03
8.15
6.6
4.5
2.06
-0.48
-2.96
-5.27
-7.4
-9.38
-11.3
-13.17
-14.91
-16.28
-16.91
-16.41
-14.51
-11.16
-6.61
-1.3
4.25
9.6
14.5
18.83
22.55
25.61
28
29.71
30.85
31.6
32.23
32.93
33.8
34.79
35.77
36.57
37.11
37.37
37.4
37.26
37
36.62
36.08
35.3
34.17
32.64
30.71
28.48
26.16
23.98
22.09
20.53
19.17
17.76
16.07
13.89
11.17
8.04
4.76
1.75
-0.58
-1.9
-2.1
-1.37
-0.11
1.17
2.03
2.17
1.44
-0.2
-2.84
-6.58
-11.49
-17.53
-24.36
-31.36
-37.63
-42.16
-44.01
-42.57
-37.7
-29.77
-19.61
-8.24
3.27
14.04
23.48
31.3
37.46
42.17
45.72
48.38
50.3
51.41
51.44
50.01
46.8
41.74
35.05
27.19
18.78
10.41
2.46
-4.97
-12.09
-19.29
-26.91
-35.06
-43.53
-51.75
-58.98
-64.44
-67.44
-67.52
-64.48
-58.45
-49.83
-39.34
-27.77
-15.94
-4.48
6.21
15.95
24.67
32.35
38.94
44.36
48.65
51.95
54.47
56.43
57.82
58.43
57.86
55.71
51.75
46.03
38.87
30.68
21.87
12.71
3.42
-5.72
-14.4
-22.26
-29.08
-34.86
-39.76
-44.1
-48.13
-52.02
-55.88
-59.86
-64.23
-69.33
-75.46
-82.72
-90.94
-99.74
-108.57
-116.81
-123.81
-128.81
-130.95
-129.35
-123.29
-112.37
-96.78
-77.29
-55.2
-32.03
-9.13
12.53
32.59
51.21
68.96
86.5
104.35
122.55
140.6
157.38
171.27
180.49
183.42
179.14
167.57
149.65
127.1
102.14
77.09
53.95
34.28
18.96
8.3
2.09
-0.34
0.13
2.56
6.1
10.06
13.84
16.93
18.89
19.56
19.21
18.53
18.25
18.61
18.96
17.75
13.17
4.11
-9.06
-24.34
-38.68
-49.15
-53.89
-52.49
-45.73
-34.88
-21.06
-4.96
13.01
32.46
52.71
72.89
92.1
109.77
125.83
140.67
154.87
168.93
182.9
196.31
208.24
217.63
223.66
226.09
225.38
222.32
217.71
211.81
204.07
193.38
178.55
158.93
134.84
107.59
79.06
51.21
25.63
3.27
-15.53
-30.86
-43.14
-52.94
-60.94
-67.86
-74.36
-80.86
-87.52
-94.21
-100.59
-106.23
-110.72
-113.84
-115.59
-116.26
-116.36
-116.44
-116.98
-118.19
-119.96
-121.96
-123.84
-125.41
-126.7
-128
-129.58
-131.62
-134.04
-136.62
-139.01
-140.98
-142.47
-143.52
-144.23
-144.65
-144.71
-144.28
-143.26
-141.66
-139.52
-136.84
-133.51
-129.31
-124.07
-117.83
-110.95
-104.06
-97.8
-92.64
-88.65
-85.59
-83.07
-80.79
-78.62
-76.56
-74.63
-72.76
-70.77
-68.45
-65.73
-62.65
-59.32
-55.78
-51.86
-47.21
-41.41
-34.21
-25.67
-16.23
-6.55
2.68
10.91
17.89
23.57
28.04
31.44
33.84
35.24
35.58
34.79
32.84
29.82
25.96
21.66
17.35
13.34
9.73
6.32
2.71
-1.58
-6.92
-13.39
-20.71
-28.32
-35.54
-41.77
-46.6
-49.82
-51.46
-51.64
-50.49
-48.12
-44.44
-39.05
-31.08
-19.39
-2.94
18.48
43.76
70.46
95.29
115.21
128.3
134.21
133.92
129.1
121.46
112.46
103.33
95.22
89.27
86.28
86.33
88.61
91.6
93.56
93.17
89.97
84.5
78.11
72.47
69.07
68.71
71.31
75.95
81.28
86.05
89.43
91.35
92.19
92.45
92.4
91.76
89.87
85.92
79.41
70.31
59.23
47.12
34.99
23.56
13.06
3.28
-6.2
-15.77
-25.57
-35.33
-44.5
-52.43
-58.53
-62.44
-64.13
-63.86
-62.17
-59.78
-57.44
-55.86
-55.5
-56.49
-58.57
-61.14
-63.49
-65.07
-65.69
-65.49
-64.81
-63.96
-63.11
-62.32
-61.69
-61.49
-62.11
-63.95
-67.17
-71.53
-76.49
-81.48
-86.13
-90.44
-94.66
-99.05
-103.62
-108.02
-111.6
-113.65
-113.76
-111.96
-108.82
-105.3
-102.46
-101.16
-101.86
-104.34
-107.76
-110.8
-111.99
-110.16
-104.9
-96.66
-86.68
-76.52
-67.53
-60.55
-55.84
-53.32
-52.82
-54.24
-57.53
-62.45
-68.55
-75.19
-81.73
-87.69
-92.69
-96.26
-97.71
-96.2
-91.13
-82.58
-71.46
-59.32
-47.72
-37.56
-28.8
-20.58
-11.74
-1.38
10.84
24.79
40.1
56.5
73.82
91.96
110.75
129.87
148.91
167.29
184.24
198.71
209.45
215.14
214.87
208.31
195.79
178.11
156.2
130.88
102.92
73.08
42.37
12.03
-16.66
-42.67
-65.33
-84.4
-99.88
-111.81
-120.12
-124.57
-124.82
-120.54
-111.62
-98.28
-81.16
-61.22
-39.49
-16.9
5.78
27.98
49.17
68.78
86.2
100.91
112.64
121.54
128.14
133.14
137.06
140.11
142.06
142.56
141.32
138.32
133.94
128.8
123.49
118.38
113.5
108.67
103.64
98.37
93.08
88.3
84.69
82.89
83.15
85.22
88.37
91.51
93.49
93.3
90.57
85.55
78.93
71.56
64.11
57.03
50.52
44.59
39.16
34.24
29.92
26.23
23.02
19.89
16.48
12.42
7.36
0.71
-7.79
-18.08
-29.76
-42.18
-54.6
-65.83
-74.96
-81.68
-86.94
-91.48
-95.62
-99.17
-101.84
-103.42
-102.86
-99.39
-93.01
-85.85
-79.37
-74.36
-70.76
-68.5
-67.42
-65.67
-61.46
-53.88
-45.14
-36.12
-26.39
-14.11
2.23
23.68
52.6
90.33
136.23
184.89
232.17
275.36
313.64
346.15
359.15
342.82
294.57
237.94
182.76
132.78
83.52
34.53
-13.98
-61.66
-106.15
-145.22
-177.54
-205.62
-230.17
-250.58
-264.89
-272.01
-271.64
-262.56
-244.22
-217.38
-186.33
-154.4
-123.97
-95.98
-71.37
-50.78
-33.54
-18.68
-5.48
4.95
12.37
17.14
20.36
22.78
24.88
27.4
30.88
35.54
40.65
45.8
50.84
55.91
60.88
65.48
69.55
72.89
75.29
76.24
75.48
72.92
68.71
63.01
56.02
47.87
38.76
28.91
18.68
8.58
-0.8
-8.89
-15.29
-19.79
-22.49
-23.63
-23.57
-22.62
-21.05
-19.05
-16.86
-14.65
-12.62
-10.91
-9.65
-8.84
-8.45
-8.43
-8.71
-9.29
-10.1
-11.06
-11.98
-12.62
-12.7
-12.04
-10.57
-8.48
-6.11
-3.83
-1.98
-0.63
0.33
1.17
2.1
3.2
4.34
5.28
5.86
5.98
5.78
5.49
5.34
5.44
5.79
6.24
6.54
6.41
5.52
3.52
0.15
-4.7
-10.88
-17.94
-25.18
-31.89
-37.54
-41.88
-44.95
-46.88
-47.76
-47.48
-45.81
-42.63
-38.09
-32.78
-27.51
-23.1
-20.05
-18.53
-18.25
-18.78
-19.64
-20.41
-20.73
-20.24
-18.58
-15.39
-10.51
-4.08
3.43
11.27
18.65
24.9
29.62
32.72
34.41
34.99
34.83
34.21
33.37
32.5
31.76
31.31
31.22
31.47
31.97
32.55
33.07
33.37
33.3
32.72
31.55
29.71
27.26
24.28
20.86
17.13
13.19
9.16
5.23
1.56
-1.71
-4.53
-6.97
-9.18
-11.33
-13.59
-16
-18.54
-21.04
-23.2
-24.59
-24.74
-23.35
-20.39
-16.18
-11.32
-6.44
-2.1
1.36
3.74
5.01
5.14
4.24
2.51
0.23
-2.21
-4.53
-6.56
-8.31
-9.77
-10.97
-11.84
-12.31
-12.41
-12.27
-12.17
-12.41
-13.22
-14.66
-16.66
-19.07
-21.72
-24.45
-27.14
-29.64
-31.84
-33.62
-34.88
-35.56
-35.56
-34.77
-33.11
-30.64
-27.59
-24.34
-21.35
-19.05
-17.72
-17.49
-18.31
-20.04
-22.35
-24.74
-26.55
-27.07
-25.76
-22.41
-17.28
-10.99
-4.37
1.84
7.09
11.17
14.15
16.27
17.88
19.26
20.62
22.02
23.44
24.77
25.9
26.76
27.38
27.84
28.22
28.61
29.02
29.49
30.03
30.59
31.05
31.25
30.99
30.17
28.82
27.19
25.6
24.34
23.52
23.01
22.54
21.85
20.73
19.1
16.95
14.32
11.26
7.85
4.19
0.37
-3.52
-7.51
-11.67
-16.18
-21.1
-26.29
-31.33
-35.54
-38.21
-38.77
-37.01
-33.17
-27.91
-22.03
-16.25
-11.06
-6.68
-3.31
-1.17
-0.59
-1.86
-4.99
-9.52
-14.61
-19.26
-22.65
-24.42
-24.67
-23.87
-22.6
-21.29
-20.19
-19.38
-18.92
-18.9
