-32.14
-26.95
-22.57
-18.71
-14.95
-11.06
-7.12
-3.43
-0.33
2.05
3.87
5.42
7.06
8.92
10.97
13.03
14.88
16.36
17.49
18.36
19.12
19.87
20.62
21.21
21.41
21.04
20.04
18.59
16.96
15.42
14.17
13.27
12.68
12.33
12.17
12.13
12.1
11.86
11.16
9.86
8.02
5.87
3.77
1.97
0.56
-0.55
-1.58
-2.73
-4.1
-5.67
-7.28
-8.65
-9.51
-9.55
-8.56
-6.51
-3.52
0.07
3.8
7.25
10.07
12.11
13.31
13.72
13.43
12.53
11.18
9.62
8.17
7.15
6.78
7.12
8.01
9.18
10.36
11.39
12.19
12.75
13.02
12.96
12.49
11.58
10.27
8.6
6.62
4.35
1.81
-0.85
-3.47
-5.83
-7.84
-9.57
-11.2
-12.95
-14.94
-17.16
-19.5
-21.89
-24.23
-26.49
-28.54
-30.22
-31.28
-31.49
-30.73
-29.11
-26.93
-24.57
-22.36
-20.53
-19.06
-17.92
-17.05
-16.53
-16.61
-17.61
-19.84
-23.5
-28.59
-34.82
-41.62
-48.15
-53.27
-55.8
-54.74
-49.64
-40.78
-29.17
-16.32
-3.88
6.81
14.86
19.98
22.34
22.36
20.65
17.92
14.93
12.38
10.87
10.69
11.75
13.61
15.6
17.16
17.98
18.11
17.8
17.38
17.02
16.77
16.55
16.28
15.88
15.31
14.54
13.54
12.36
11.1
9.92
8.91
8.11
7.4
6.61
5.51
3.9
1.54
-1.69
-5.8
-10.64
-15.93
-21.37
-26.62
-31.28
-34.84
-36.63
-36.04
-32.75
-26.96
-19.58
-11.95
-5.43
-0.93
1.38
1.97
1.67
1.22
1.12
1.49
2.28
3.36
4.64
6.07
7.54
8.84
9.61
9.56
8.56
6.86
4.95
3.49
2.97
3.56
5.09
7.16
9.39
11.62
13.86
16.26
18.87
21.55
24.05
26.1
27.58
28.57
29.19
29.47
29.34
28.7
27.61
26.32
25.29
24.88
25.26
26.2
27.28
28.01
28.06
27.28
25.68
23.37
20.47
17.17
13.65
10.08
6.57
3.09
-0.45
-4.05
-7.6
-10.91
-13.79
-16.22
-18.31
-20.19
-21.91
-23.21
-23.69
-22.92
-20.75
-17.46
-13.62
-9.98
-7.07
-5.1
-3.94
-3.31
-2.94
-2.72
-2.66
-2.74
-2.93
-3.15
-3.44
-4.01
-5.26
-7.48
-10.59
-14.02
-16.75
-17.8
-16.62
-13.43
-9.06
-4.69
-1.2
0.97
1.95
2.15
1.91
1.35
0.34
-1.28
-3.57
-6.31
-9.11
-11.47
-13.01
-13.54
-13.09
-11.87
-10.09
-7.92
-5.42
-2.65
0.27
3.09
5.45
7.1
8.01
8.5
9.04
10.09
11.77
13.75
15.33
15.75
14.55
11.85
8.36
5.11
2.98
2.21
2.21
1.73
-0.58
-5.44
-12.58
-20.74
-28.19
-33.57
-36.54
-37.99
-39.59
-43.13
-49.72
-59.41
-71.28
-83.65
-94.17
-99.94
-97.88
-85.7
-63.36
-33.95
-3.44
21.23
34.95
36.76
30.16
21.37
16.19
17.51
24.77
35.48
47.48
60.49
75.85
95.02
117.94
142.48
165.33
183.51
195.63
202.36
205.77
208.26
211.59
216.31
221.75
226.33
228.19
225.72
218.24
206.08
190.36
172.4
153.12
132.82
111.41
88.94
65.88
43.23
21.99
2.68
-15.08
-32.37
-50.43
-69.97
-90.7
-111.31
-130.05
-145.42
-156.81
-164.67
-170.11
-174.26
-177.61
-179.93
-180.64
-179.34
-176.32
-172.37
-168.2
-163.73
-157.76
-148.59
-134.83
-116.34
-94.34
-70.88
-48.02
-27.23
-9.25
5.78
18.11
28.33
37.33
46.1
55.22
64.67
73.7
81.36
86.96
90.42
92.16
92.72
92.49
91.63
90.29
88.84
87.66
87.1
87.29
88.15
89.36
90.27
89.69
86.06
77.94
64.81
47.69
28.9
11.04
-4.19
-16.77
-27.9
-38.97
-50.42
-61.39
-70.22
-75.45
-76.52
-74.04
-69.54
-65.12
-63.07
-65.41
-73.33
-86.74
-104.1
-122.88
-140.61
-155.95
-169.23
-181.94
-195.53
-209.93
-223.06
-231.43
-231.71
-222.42
-204.67
-181.68
-157.31
-134.47
-114.23
-96.08
-78.93
-62.33
-46.94
-34.14
-25.04
-19.54
-16.26
-13.13
-8.59
-2.43
4.19
9.42
11.84
11.19
8.55
5.67
4.02
4.11
5.32
6.36
6.14
4.38
1.85
0.01
0.3
3.4
9.02
15.99
22.93
28.77
33.15
36.39
39.46
43.65
50.25
60.13
73.29
88.68
104.28
117.77
127.2
131.61
131.15
126.66
119.17
109.49
98.11
85.44
71.86
57.68
42.84
26.73
8.48
-12.53
-36.01
-60.53
-83.71
-102.99
-116.19
-122.08
-120.27
-111.2
-96.26
-78
-60.11
-46.67
-40.68
-42.54
-49.48
-56.5
-58.58
-53.21
-41.45
-27.29
-15.37
-8.59
-6.98
-8.23
-9.41
-8.66
-5.9
-2.31
0.72
2.47
3.15
3.37
3.34
2.42
-0.72
-7.33
-17.58
-30.09
-42.03
-50.2
-52.26
-47.64
-37.74
-25.14
-12.44
-1.32
7.81
15.51
22.63
29.62
36.31
42.06
46.2
48.42
49
48.68
48.32
48.59
49.63
51.15
52.59
53.48
53.62
53.1
52.1
50.72
48.87
46.34
43.02
39.01
34.58
30.05
25.65
21.42
17.19
12.58
7.21
0.78
-6.69
-14.74
-22.54
-29.01
-33.3
-35.04
-34.53
-32.64
-30.33
-28.36
-26.99
-26.01
-25.1
-23.93
-22.37
-20.43
-18.15
-15.56
-12.72
-9.78
-7.06
-4.97
-3.82
-3.72
-4.42
-5.41
-6.08
-6.01
-5.14
-3.81
-2.59
-2.08
-2.6
-4.18
-6.61
-9.58
-12.96
-16.73
-20.99
-25.76
-30.95
-36.44
-42.09
-47.81
-53.43
-58.57
-62.55
-64.58
-64.03
-60.73
-55.1
-47.92
-40
-31.83
-23.56
-15.11
-6.46
2.15
10.29
17.53
23.66
28.82
33.33
37.43
41.19
44.45
46.97
48.69
49.73
50.41
50.96
51.41
51.56
51.05
49.62
47.26
44.16
40.68
37.13
33.72
30.53
27.52
24.61
21.65
18.42
14.78
10.74
6.64
3.12
0.94
0.69
2.46
5.78
9.8
13.71
17.02
19.74
22.2
24.75
27.54
30.41
33.07
35.26
36.9
38
38.63
38.78
38.36
37.29
35.56
33.27
30.6
27.85
25.29
23.15
21.55
20.36
19.26
17.87
15.93
13.44
10.63
7.88
5.38
3.08
0.67
-2.26
-5.99
-10.54
-15.65
-20.82
-25.41
-28.83
-30.64
-30.62
-28.8
-25.44
-20.95
-15.76
-10.27
-4.75
0.6
5.65
10.27
14.34
17.73
20.37
22.24
23.42
24.05
24.3
24.26
24
23.51
22.87
22.19
21.66
21.42
21.48
21.66
21.68
21.24
20.12
18.33
15.96
13.18
10.14
6.94
3.59
0.03
-3.85
-8.12
-12.79
-17.64
-22.23
-25.95
-28.15
-28.41
-26.64
-23.14
-18.44
-13.11
-7.6
-2.12
3.28
8.55
13.54
17.98
21.61
24.2
25.76
26.42
26.47
26.15
25.63
24.98
24.2
23.35
22.49
21.7
20.98
20.19
19.09
17.45
15.11
12.13
8.7
5.09
1.52
-1.96
-5.47
-9.32
-13.88
-19.42
-26.07
-33.67
-41.79
-49.69
-56.46
-61.15
-62.96
-61.49
-56.86
-49.76
-41.19
-32.19
-23.51
-15.45
-7.93
-0.74
6.27
12.99
19.13
24.43
28.75
32.16
34.74
36.59
37.68
37.91
37.29
35.9
34.03
32.03
30.24
28.93
28.19
27.95
27.97
27.87
27.26
25.87
23.64
20.74
17.51
14.32
11.42
8.84
6.42
3.8
0.66
-3.17
-7.53
-11.91
-15.52
-17.54
-17.51
-15.44
-11.88
-7.6
-3.31
0.65
4.32
7.95
11.7
15.51
19.12
22.23
24.68
26.43
27.48
27.77
27.22
25.78
23.59
21.07
18.72
17
16.04
15.69
15.55
15.21
14.37
12.93
10.99
8.76
6.47
4.32
2.36
0.55
-1.32
-3.47
-6.09
-9.21
-12.72
-16.35
-19.67
-22.18
-23.42
-23.06
-21.02
-17.52
-13.06
-8.24
-3.62
0.48
3.98
7.04
9.84
12.48
14.87
16.81
18.1
18.62
18.46
17.87
17.15
16.53
16.09
15.73
15.3
14.68
13.88
12.96
12.01
10.99
9.76
8.17
6.14
3.76
1.29
-1
-2.98
-4.7
-6.45
-8.53
-11.1
-14.13
-17.42
-20.76
-23.91
-26.7
-28.86
-30.09
-30
-28.36
-25.19
-20.9
-16.13
-11.53
-7.5
-4.15
-1.22
1.65
4.7
7.96
11.16
13.93
15.95
17.07
17.38
17.11
16.5
15.75
15
14.3
13.72
13.25
12.89
12.61
12.34
11.97
11.38
10.41
8.93
6.84
4.24
1.35
-1.48
-3.95
-5.96
-7.62
-9.22
-11.06
-13.35
-16.13
-19.28
-22.48
-25.32
-27.31
-28.08
-27.41
-25.4
-22.38
-18.82
-15.09
-11.41
-7.85
-4.37
-0.94
2.43
5.63
8.47
10.75
12.28
12.97
12.9
12.31
11.55
10.94
10.66
10.67
10.83
10.94
10.89
10.68
10.34
9.93
9.45
8.79
7.85
6.5
4.71
2.61
0.39
-1.7
-3.51
-5
-6.3
-7.6
-9.09
-10.82
-12.79
-14.88
-17.03
-19.15
-21.14
-22.78
-23.78
-23.85
-22.88
-20.96
-18.33
-15.24
-11.88
-8.29
-4.5
-0.6
3.14
6.4
8.91
10.56
11.5
11.93
12.12
12.24
12.41
12.65
12.96
13.26
13.42
13.26
12.67
11.66
10.43
9.24
8.28
7.57
6.87
5.86
4.33
2.3
0.07
-1.98
-3.57
-4.68
-5.55
-6.52
-7.86
-9.65
-11.8
-14.22
-16.82
-19.54
-22.22
-24.48
-25.79
-25.66
-23.93
-20.91
-17.22
-13.54
-10.22
-7.25
-4.31
-1.19
2.11
5.29
7.93
9.74
10.74
11.12
11.11
10.8
10.19
9.28
8.2
7.22
6.59
6.42
6.58
6.81
6.86
6.62
6.11
5.46
4.73
3.88
2.81
1.44
-0.21
-2.05
-3.92
-5.72
-7.43
-9.06
-10.65
-12.18
-13.64
-15.05
-16.51
-18.09
-19.81
-21.51
-22.81
-23.32
-22.67
-20.75
-17.75
-14.06
-10.19
-6.55
-3.36
-0.64
1.73
3.9
5.93
7.74
9.25
10.29
10.84
11.01
10.98
10.95
11.04
11.25
11.5
11.69
11.73
11.54
11.1
10.39
9.43
8.31
7.11
5.9
4.75
3.66
2.57
1.46
0.27
-0.98
-2.25
-3.52
-4.77
-6.04
-7.38
-8.83
-10.37
-11.98
-13.63
-15.38
-17.34
-19.62
-22.11
-24.47
-26.12
-26.51
-25.32
-22.68
-19.09
-15.2
-11.58
-8.5
-5.93
-3.64
-1.41
0.91
3.29
5.63
7.73
9.45
10.72
11.52
11.91
12.01
11.98
11.95
12
12.2
12.51
12.85
13.07
13.01
12.51
11.58
10.3
8.82
7.35
6.01
4.87
3.95
3.21
2.55
1.84
0.93
-0.36
-2.08
-4.19
-6.49
-8.7
-10.53
-11.85
-12.72
-13.42
-14.35
-15.84
-17.99
-20.59
-23.16
-25.08
-25.74
-24.89
-22.63
-19.39
-15.77
-12.25
-9.05
-6.17
-3.5
-0.96
1.41
3.51
5.31
6.85
8.26
9.59
10.77
11.66
12.13
12.19
12
11.83
11.84
12.03
12.26
12.3
12.05
11.51
10.83
10.2
9.72
9.32
8.87
8.21
7.26
6.05
4.69
3.29
1.82
0.18
-1.73
-3.9
-6.12
-8.1
-9.52
-10.3
-10.63
-10.91
-11.69
-13.37
-16.05
-19.47
-23.09
-26.17
-28.07
-28.39
-27.06
-24.4
-20.94
-17.29
-13.9
-10.96
-8.4
-6.01
-3.56
-0.95
1.68
4.08
6
7.4
8.42
9.34
10.4
11.6
12.77
13.67
14.16
14.26
14.12
13.85
13.5
12.93
12.06
10.9
9.64
8.53
7.74
7.26
6.88
6.33
5.39
4.01
2.27
0.33
-1.65
-3.58
-5.4
-7.07
-8.59
-9.98
-11.36
-12.93
-14.93
-17.48
-20.48
-23.5
-25.9
-27.07
-26.63
-24.64
-21.51
-17.85
-14.19
-10.84
-7.88
-5.2
-2.68
-0.23
2.18
4.53
6.84
9.06
11.11
12.82
13.99
14.51
14.37
13.77
13
12.39
12.13
12.2
12.41
12.43
12.01
11.1
9.86
8.6
7.55
6.74
6.01
5.08
3.78
2.1
0.28
-1.39
-2.72
-3.7
-4.55
-5.58
-7.04
-9.06
-11.55
-14.32
-17.09
-19.54
-21.38
-22.32
-22.21
-20.99
-18.77
-15.75
-12.29
-8.71
-5.32
-2.23
0.6
3.36
6.25
9.36
12.6
15.71
18.33
20.22
21.25
21.46
21.04
20.17
19.04
17.83
16.68
15.73
15.03
14.6
14.41
14.33
14.22
13.88
13.13
11.81
9.86
7.37
4.58
1.8
-0.7
-2.85
-4.76
-6.66
-8.79
-11.21
-13.81
-16.35
-18.59
-20.37
-21.68
-22.55
-22.94
-22.67
-21.43
-18.94
-15.11
-10.16
-4.57
1.06
6.29
10.93
15.09
19.02
23.01
27.13
31.29
35.21
38.56
41.07
42.56
42.96
42.34
40.87
38.72
36.11
33.19
30.07
26.88
23.73
20.79
18.16
15.82
13.64
11.4
8.87
6
2.87
-0.3
-3.25
-5.82
-7.96
-9.72
-11.23
-12.58
-13.93
-15.41
-17.19
-19.34
-21.79
-24.27
-26.25
-27.15
-26.51
-24.18
-20.35
-15.58
-10.57
-5.96
-2.19
0.63
2.65
4.19
5.65
7.26
9.1
11.07
12.98
14.72
16.21
17.46
18.5
19.3
19.84
20.12
20.17
20.09
19.96
19.76
19.39
18.66
17.47
15.77
13.62
11.13
8.38
5.39
2.22
-1.06
-4.33
-7.44
-10.34
-12.97
-15.38
-17.62
-19.79
-22
-24.42
-27.14
-30.15
-33.16
-35.69
-37.22
-37.37
-36.09
-33.66
-30.49
-26.96
-23.21
-19.2
-14.88
-10.36
-5.97
-2.15
0.71
2.46
3.21
3.28
2.96
2.52
2.07
1.68
1.38
1.22
1.26
1.45
1.74
2
2.1
1.9
1.31
0.24
-1.38
-3.55
-6.21
-9.22
-12.39
-15.6
-18.83
-22.17
-25.78
-29.83
-34.37
-39.38
-44.71
-50.15
-55.34
-59.76
-62.76
-63.57
-61.6
-56.55
-48.66
-38.64
-27.63
-16.84
-7.23
0.64
6.77
11.5
15.25
18.3
20.71
22.3
22.91
22.52
21.28
19.47
17.28
14.71
11.64
7.96
3.67
-1
-5.66
-9.96
-13.66
-16.78
-19.49
-22.08
-24.84
-28
-31.7
-35.98
-40.78
-45.98
-51.47
-57.08
-62.53
-67.33
-70.79
-72.16
-70.89
-66.85
-60.39
-52.29
-43.44
-34.57
-26.13
-18.28
-11.07
-4.62
0.92
5.39
8.78
11.28
13.18
14.83
16.52
18.45
20.81
23.72
27.36
31.71
36.51
41.24
45.16
47.67
48.55
48.16
47.28
46.82
47.39
48.98
50.98
52.53
52.87
51.79
49.87
48.36
48.95
53.26
62.24
75.53
90.99
104.9
112.65
110.16
95.3
68.89
34.73
-1.43
-33.51
-56.86
-69.31
-71.34
-65.33
-54.39
-41.29
-27.76
-14.51
-1.55
11.18
23.44
34.6
43.9
50.69
54.63
55.55
53.32
47.92
39.83
30.49
22.35
18.11
19.61
26.73
37.11
47.15
53.62
55.27
53.24
50.25
48.94
50.47
54.1
57.89
59.93
59.31
56.34
51.95
47.01
41.83
36.28
30.15
23.57
17.09
11.4
6.95
3.65
0.84
-2.4
-6.89
-12.95
-20.34
-28.28
-35.87
-42.4
-47.55
-51.42
-54.41
-56.95
-59.3
-61.44
-63.05
-63.68
-62.89
-60.48
-56.58
-51.69
-46.52
-41.79
-38.01
-35.26
-33.36
-31.91
-30.61
-29.35
-28.25
-27.51
-27.2
-27.24
-27.39
-27.45
-27.34
-27.21
-27.34
-27.98
-29.3
-31.27
-33.73
-36.38
-38.95
-41.07
-42.46
-42.89
-42.32
-40.88
-38.89
-36.72
-34.66
-32.79
-31
-29.16
-27.13
-24.96
-22.79
-20.74
-18.84
-17.06
-15.35
-13.81
-12.7
-12.32
-12.92
-14.58
-17.11
-20.19
-23.44
-26.57
-29.46
-32.08
-34.53
-36.86
-39.1
-41.22
-43.12
-44.7
-45.99
-47.13
-48.32
-49.7
-51.14
-52.21
-52.21
-50.48
-46.66
-40.84
-33.53
-25.53
-17.61
-10.29
-3.78
2.25
8.52
16.15
26.51
40.8
59.44
81.38
103.92
123.21
135.42
138.07
130.89
115.87
96.41
76.04
57.29
41.22
27.76
16.35
6.4
-2.56
-10.91
-19.07
-27.4
-36.06
-44.87
-53.25
-60.14
-64.48
-65.51
-62.85
-56.39
-46.15
-32.52
-16.3
1.26
19.1
35.99
50.52
61.35
67.68
69.48
67.37
62.51
56.52
51.92
50.78
53.67
59.52
66.46
72.72
77.23
79.91
81.79
85.32
92.38
103.04
115.42
126.77
134.5
136.54
131.54
112.6
78.17
34.67
-6.12
-34.6
-47.39
-46.6
-37.33
-25.89
-15.74
-7.5
-0.89
4.2
7.21
7.48
4.82
-0.17
-6.23
-11.77
-14.9
-14.68
-11.8
-8.2
-5.84
-5.81
-8.03
-11.6
-15.23
-17.44
-17.47
-15.66
-13.17
-11.21
-10.48
-10.99
-12.39
-14.14
-15.73
-16.98
-18.08
-19.39
-21.17
-23.36
-25.79
-28.23
-30.51
-32.38
-33.59
-33.92
-33.35
-32.06
-30.47
-29.03
-28.06
-27.62
-27.47
-27.24
-26.57
-25.29
-23.42
-21.05
-18.32
-15.34
-12.25
-9.21
-6.43
-4.05
-2.09
-0.42
1.13
2.61
3.9
4.85
5.33
5.39
5.22
5.07
5.01
4.92
4.5
3.4
1.37
-1.65
-5.59
-10.17
-15.07
-19.88
-24.17
-27.55
-29.76
-30.72
-30.48
-29.2
-26.95
-23.75
-19.59
-14.59
-9.07
-3.61
1.15
4.72
6.99
8.23
8.9
9.53
10.42
11.64
13.06
14.44
15.56
16.21
16.28
15.7
14.6
13.28
12.1
11.33
10.98
10.77
10.24
8.96
6.79
3.96
0.91
-1.82
-3.86
-5.07
-5.57
-5.57
-5.24
-4.68
-3.85
-2.68
-1.16
0.67
2.64
4.54
6.17
7.4
8.18
8.55
8.64
8.54
8.31
7.91
7.22
6.22
5
3.77
2.81
2.34
2.37
2.73
3.07
3.11
2.75
2.11
1.42
0.93
0.7
0.63
0.54
0.3
-0.07
-0.45
-0.76
-1.09
-1.72
-3.03
-5.29
-8.47
-12.2
-15.83
-18.64
-20.12
-20.12
-18.84
-16.74
-14.35
-12.05
-9.98
-8.13
-6.38
-4.66
-2.97
-1.36
0.07
1.25
2.08
2.46
2.33
1.68
0.64
-0.55
-1.57
-2.1
-1.93
-1.04
0.42
2.17
3.9
5.32
6.29
6.78
6.91
6.81
6.6
6.29
5.87
5.37
4.87
4.47
4.2
3.94
3.53
2.86
2
1.23
0.84
0.92
1.21
1.18
0.31
-1.64
-4.42
-7.41
-9.95
-11.63
-12.46
-12.75
-12.85
-12.92
-12.87
-12.43
-11.39
-9.73
-7.63
-5.44
-3.49
-2.04
-1.2
-0.94
-1.04
-1.2
-1.11
-0.59
0.33
1.43
2.38
2.92
3.04
2.87
2.66
2.62
2.89
3.45
4.21
5.05
5.79
6.3
6.5
6.39
6.06
5.7
5.43
5.35
5.42
5.52
5.49
5.22
4.71
4.07
3.52
3.35
3.72
4.64
5.73
6.42
6.11
4.48
1.65
-1.82
-5.23
-8.03
-10.06
-11.49
-12.57
-13.39
-13.82
-13.61
-12.66
-11.15
-9.48
-8.02
-6.92
-6.06
-5.23
-4.3
-3.36
-2.6
-2.18
-2.09
-2.26
-2.62
-3.23
-4.18
-5.44
-6.73
-7.68
-7.99
-7.73
-7.3
-7.25
-7.97
-9.43
-11.21
-12.85
-14.05
-14.9
-15.71
-16.85
-18.55
-20.86
-23.62
-26.54
-29.09
-30.6
-30.33
-27.73
-22.69
-15.62
-7.34
1.28
9.53
17.02
23.57
29.05
33.41
36.68
39.08
41.03
42.98
45.21
47.76
50.34
52.49
53.68
53.45
51.52
47.92
43.03
37.54
32.26
27.87
24.74
22.89
22.07
21.93
22.14
22.4
22.47
22.15
21.37
20.23
18.97
17.82
16.92
16.27
15.8
15.51
15.48
15.81
16.5
17.39
18.11
18.28
17.57
15.85
13.21
9.93
6.39
2.99
0.08
-2.18
-3.85
-5.18
-6.44
-7.74
-9.02
-10.08
-10.8
-11.24
-11.61
-12.16
-12.96
-13.84
-14.54
-14.89
-14.94
-14.91
-15.01
-15.21
-15.28
-14.91
-14
-12.72
-11.47
-10.59
-10.17
-10.05
-9.88
-9.41
-8.62
-7.73
-7.05
-6.93
-7.48
-8.72
-10.41
-12.17
-13.61
-14.41
-14.6
-14.53
-14.81
-16.05
-18.57
-22.28
-26.74
-31.39
-35.78
-39.61
-42.73
-44.98
-46.21
-46.34
-45.52
-44.12
-42.56
-41.08
-39.48
-37.17
-33.5
-28.09
-21.03
-12.91
-4.64
2.92
9.16
13.77
16.77
18.34
18.81
18.54
17.92
17.25
16.72
16.36
16.1
15.85
15.5
15.02
14.42
13.72
12.94
12.13
11.3
10.46
9.58
8.62
7.58
6.52
5.63
5.09
4.94
5.01
4.9
4.09
2.24
-0.65
-4.2
-7.81
-10.9
-13.15
-14.59
-15.42
-15.88
-16.1
-16.1
-15.87
-15.41
-14.8
-14.11
-13.31
-12.32
-11.12
-9.78
-8.48
-7.47
-6.84
-6.55
-6.44
-6.37
-6.32
-6.37
-6.59
-6.96
-7.27
-7.3
-6.85
-5.95
-4.73
-3.36
-2.03
-0.9
-0.13
0.12
-0.2
-0.89
-1.48
-1.4
-0.25
1.92
4.63
7.16
8.88
9.57
9.49
9.15
9.12
9.72
11.03
12.96
15.32
17.9
20.43
22.58
23.98
24.33
23.52
21.78
19.53
17.31
15.52
14.3
13.53
12.9
12.03
10.59
8.5
5.89
3.17
0.88
-0.44
-0.49
0.67
2.62
4.68
6.16
6.54
5.7
3.87
1.54
-0.68
-2.28
-2.94
-2.7
-1.88
-0.93
-0.26
0.01
0
0.04
0.42
1.29
2.53
3.88
5.06
5.89
6.32
6.34
6
5.39
4.69
4.2
4.21
4.93
6.33
8.14
9.92
11.2
11.73
11.47
10.71
9.87
9.29
9.12
9.21
9.31
9.11
8.49
7.46
6.13
4.52
2.56
0.14
-2.69
-5.68
-8.44
-10.58
-11.93
-12.63
-12.96
-13.21
-13.48
-13.67
-13.54
-12.92
-11.79
-10.36
-8.95
-7.94
-7.56
-7.83
-8.58
-9.53
-10.35
-10.81
-10.82
-10.38
-9.55
-8.43
-7.21
-6.16
-5.56
-5.56
-6.06
-6.78
-7.31
-7.34
-6.81
-5.88
-4.88
-4.12
-3.82
-4.05
-4.78
-5.91
-7.27
-8.59
-9.55
-9.86
-9.34
-8.13
-6.55
-5.11
-4.23
-4.12
-4.67
-5.48
-6.04
-5.96
-4.97
-3.14
-0.74
1.78
4
5.62
6.56
7
7.29
7.84
8.93
10.62
12.69
14.75
16.38
17.29
17.36
16.7
15.51
14.04
12.43
10.73
8.96
7.12
5.36
3.99
3.25
3.23
3.69
4.15
4.08
3.26
1.88
0.51
-0.22
0.03
1.11
2.52
3.71
4.38
4.55
4.51
4.54
4.76
5.13
5.53
5.86
6.2
6.63
7.22
7.8
8.09
7.77
6.66
4.83
2.6
0.36
-1.54
-2.94
-3.88
-4.52
-5.05
-5.57
-6.13
-6.78
-7.53
-8.41
-9.38
-10.32
-11.06
-11.49
-11.56
-11.37
-11.07
-10.77
-10.56
-10.44
-10.4
-10.4
-10.4
-10.33
-10.09
-9.61
-8.84
-7.8
-6.57
-5.31
-4.2
-3.44
-3.16
-3.35
-3.83
-4.22
-4.17
-3.39
-1.9
-0.04
1.64
2.61
2.62
1.78
0.51
-0.7
-1.45
-1.59
-1.19
-0.39
0.62
1.66
2.54
3.08
3.12
2.6
1.59
0.23
-1.26
-2.67
-3.8
-4.57
-4.93
-4.99
-4.88
-4.74
-4.62
-4.48
-4.2
-3.69
-2.97
-2.21
-1.65
-1.43
-1.59
-1.98
-2.41
-2.7
-2.75
-2.57
-2.22
-1.79
-1.3
-0.76
-0.2
0.33
0.67
0.69
0.36
-0.13
-0.48
-0.31
0.56
1.95
3.4
4.35
4.49
4
3.43
3.47
4.53
6.52
8.84
10.72
11.53
11.03
9.38
6.96
4.18
1.38
-1.2
-3.33
-4.84
-5.68
-5.96
-5.93
-5.86
-5.87
-5.91
-5.8
-5.39
-4.68
-3.79
-2.92
-2.17
-1.56
-0.99
-0.43
0.05
0.33
0.33
0.06
-0.35
-0.76
-1.08
-1.29
-1.41
-1.44
-1.3
-0.88
-0.21
0.62
1.41
2.02
2.39
2.54
2.54
2.39
2.05
1.54
0.98
0.61
0.72
1.49
2.88
4.72
6.65
8.34
9.43
9.64
8.85
7.15
4.85
2.46
0.45
-0.96
-1.82
-2.45
-3.15
-4.04
-5.03
-5.89
-6.49
-6.83
-7.02
-7.12
-7.12
-6.93
-6.53
-5.98
-5.49
-5.24
-5.3
-5.53
-5.67
-5.51
-4.97
-4.15
-3.35
-2.8
-2.63
-2.8
-3.12
-3.38
-3.39
-3.07
-2.45
-1.66
-0.85
-0.22
0.11
0.04
-0.42
-1.13
-1.92
-2.64
-3.27
-3.95
-4.83
-5.97
-7.18
-8.1
-8.49
-8.35
-8.02
-8.01
-8.68
-10.1
-12.07
-14.24
-16.48
-18.91
-21.8
-25.35
-29.54
-34.1
-38.69
-43.09
-47.23
-51.18
-54.94
-58.29
-60.71
-61.47
-59.8
-55.04
-46.91
-35.55
-21.67
-6.38
9.01
23.23
35.44
45.32
53
58.78
62.92
65.48
66.42
65.8
63.94
61.4
58.73
56.22
53.75
50.91
47.32
42.9
37.96
33.02
28.58
24.83
21.7
18.94
16.39
14.05
11.98
10.27
8.78
7.34
5.73
3.84
1.74
-0.32
-1.95
-2.85
-2.86
-2.17
-1.26
-0.77
-1.25
-2.85
-5.29
-7.99
-10.35
-12.05
-13.11
-13.79
-14.27
-14.64
-14.81
-14.76
-14.57
-14.39
-14.23
-13.94
-13.19
-11.8
-9.94
-8.06
-6.74
-6.29
-6.56
-7
-7.05
-6.35
-4.96
-3.2
-1.43
0.14
1.51
2.77
3.99
5.21
6.39
7.49
8.5
9.36
10.01
10.34
10.3
9.95
9.45
9.03
8.84
8.88
9.04
9.17
9.21
9.21
9.37
9.95
11.1
12.74
14.49
15.78
15.96
14.69
12.12
8.81
5.64
3.32
2.16
1.92
1.99
1.75
0.81
-0.88
-3.13
-5.67
-8.25
-10.64
-12.59
-13.76
-13.92
-13
-11.18
-8.91
-6.69
-4.9
-3.75
-3.2
-3.13
-3.35
-3.66
-3.9
-3.91
-3.59
-2.96
-2.17
-1.43
-0.98
-0.92
-1.13
-1.3
-1.13
-0.32
1.1
2.88
4.58
5.78
6.25
6
5.32
4.61
4.27
4.54
5.48
6.99
8.86
10.84
12.7
14.24
15.27
15.63
15.2
13.92
11.89
9.33
6.59
4.06
2.02
0.63
-0.23
-0.91
-1.81
-3.22
-5.21
-7.5
-9.6
-10.97
-11.26
-10.37
-8.54
-6.2
-3.91
-2.19
-1.34
-1.4
-2.14
-3.12
-3.91
-4.29
-4.24
-3.97
-3.71
-3.51
-3.23
-2.69
-1.86
-0.93
-0.29
-0.21
-0.73
-1.52
-2.04
-1.84
-0.79
0.91
2.77
4.32
5.3
5.67
5.62
5.42
5.39
5.83
6.96
8.8
11.1
13.34
14.84
15
13.6
10.87
7.4
3.92
0.96
-1.25
-2.72
-3.57
-3.9
-3.82
-3.58
-3.54
-4.01
-5.11
-6.56
-7.77
-8.09
-7.21
-5.29
-2.9
-0.75
0.6
1.02
0.67
-0.06
-0.82
-1.35
-1.58
-1.57
-1.46
-1.39
-1.45
-1.57
-1.67
-1.59
-1.27
-0.78
-0.31
-0.04
-0.07
-0.33
-0.55
-0.5
-0
0.84
1.79
2.48
2.68
2.36
1.77
1.35
1.51
2.47
4.05
5.75
6.89
6.89
5.53
3.01
-0.09
-3.13
-5.57
-7.26
-8.3
-8.99
-9.57
-10.17
-10.79
-11.39
-11.85
-12.06
-11.89
-11.25
-10.16
-8.85
-7.68
-6.99
-6.92
-7.31
-7.74
-7.79
-7.23
-6.15
-4.9
-3.88
-3.31
-3.11
-2.99
-2.65
-1.95
-1.03
-0.15
0.44
0.7
0.79
0.98
1.47
2.27
3.23
4.15
4.89
5.43
5.84
6.19
6.48
6.72
6.96
7.35
8.09
9.28
10.78
12.2
13.02
12.7
10.97
7.88
3.9
-0.27
-3.85
-6.26
-7.3
-7.18
-6.46
-5.81
-5.66
-6.12
-6.96
-7.73
-8.04
-7.71
-6.82
-5.67
-4.59
-3.89
-3.7
-3.97
-4.45
-4.8
-4.74
-4.14
-3.14
-1.98
-0.95
-0.14
0.6
1.48
2.68
4.21
5.86
7.35
8.5
9.25
9.63
9.71
9.52
9.11
8.63
8.38
8.71
9.94
11.97
14.42
16.59
17.74
17.39
15.39
12.05
7.97
3.9
0.46
-1.99
-3.47
-4.27
-4.73
-5.1
-5.39
-5.43
-4.99
-4.03
-2.7
-1.37
-0.42
-0.05
-0.19
-0.58
-0.9
-0.99
-0.88
-0.72
-0.64
-0.69
-0.73
-0.59
-0.15
0.6
1.48
2.31
2.9
3.25
3.47
3.73
4.17
4.86
5.8
6.89
8.06
9.15
10.01
10.39
10.07
8.86
6.72
3.75
0.24
-3.4
-6.76
-9.5
-11.41
-12.45
-12.74
-12.52
-12.03
-11.49
-10.96
-10.35
-9.5
-8.32
-6.88
-5.46
-4.36
-3.74
-3.55
-3.46
-3.22
-2.75
-2.26
-2.12
-2.58
-3.56
-4.6
-5.09
-4.58
-3.06
-0.92
1.2
2.81
3.72
4.14
4.5
5.23
6.51
8.17
9.77
10.79
10.81
9.7
7.66
5.14
2.63
0.5
-1.12
-2.32
-3.25
-4.03
-4.67
-5.16
-5.51
-5.84
-6.25
-6.73
-7.06
-6.94
-6.16
-4.79
-3.25
-2.14
-1.97
-2.83
-4.38
-5.94
-6.89
-6.9
-6.07
-4.81
-3.54
-2.49
-1.64
-0.79
0.16
1.17
2.06
2.65
2.87
2.81
2.66
2.64
2.85
3.38
4.26
5.57
7.31
9.4
11.65
13.7
15.15
15.59
14.8
12.76
9.78
6.41
3.29
0.93
-0.51
-1.23
-1.67
-2.27
-3.2
-4.34
-5.35
-5.92
-6
-5.76
-5.56
-5.65
-6.08
-6.69
-7.2
-7.36
-7.1
-6.52
-5.84
-5.32
-5.13
-5.31
-5.73
-6.16
-6.36
-6.12
-5.4
-4.32
-3.08
-1.97
-1.19
-0.83
-0.88
-1.2
-1.57
-1.8
-1.69
-1.11
-0.08
1.24
2.58
3.58
3.97
3.71
2.99
2.22
1.9
2.41
3.88
6.12
8.59
10.65
11.67
11.27
9.4
6.28
2.39
-1.67
-5.33
-8.1
-9.73
-10.21
-9.87
-9.21
-8.83
-9.13
-10.25
-12.01
-13.96
-15.6
-16.51
-16.49
-15.55
-13.94
-12.09
-10.48
-9.5
-9.27
-9.61
-10.11
-10.29
-9.83
-8.71
-7.18
-5.6
-4.22
-3.06
-1.95
-0.68
0.83
2.46
3.92
4.93
5.41
5.49
5.41
5.42
5.68
6.23
7.11
8.34
9.86
11.36
12.35
12.24
10.71
7.92
4.5
1.23
-1.33
-3.04
-4.25
-5.37
-6.69
-8.08
-9.25
-9.88
-9.89
-9.44
-8.78
-8.08
-7.44
-6.84
-6.25
-5.67
-5.12
-4.57
-3.95
-3.23
-2.4
-1.5
-0.65
0.06
0.61
1.03
1.41
1.84
2.34
2.85
3.28
3.52
3.55
3.44
3.37
3.5
3.87
4.33
4.67
4.68
4.37
3.94
3.62
3.6
3.86
4.25
4.62
4.87
4.87
4.47
3.44
1.56
-1.15
-4.42
-7.73
-10.59
-12.68
-13.99
-14.64
-14.74
-14.35
-13.5
-12.35
-11.12
-10.11
-9.46
-9.12
-8.85
-8.37
-7.59
-6.64
-5.8
-5.25
-5.03
-4.88
-4.42
-3.31
-1.46
0.87
3.15
4.83
5.57
5.41
4.77
4.2
4.17
4.77
5.75
6.65
7.13
7.09
6.73
6.39
6.36
6.66
7.17
7.6
7.73
7.53
7.15
6.86
6.9
7.4
8.27
9.3
10.16
10.49
9.99
8.49
6.09
3.13
0.07
-2.61
-4.63
-6.01
-6.96
-7.73
-8.47
-9.12
-9.5
-9.51
-9.12
-8.48
-7.81
-7.18
-6.58
-5.93
-5.11
-4.1
-2.86
-1.4
0.2
1.79
3.14
4
4.28
4.18
4.11
4.5
5.55
7.1
8.7
9.87
10.36
10.23
9.79
9.42
9.31
9.46
9.69
9.86
9.92
9.92
9.97
10.11
10.31
10.48
10.63
10.88
11.39
12.17
13.05
13.65
13.48
12.25
9.91
6.72
3.12
-0.43
-3.47
-5.69
-6.91
-7.18
-6.8
-6.18
-5.74
-5.69
-5.9
-6.02
-5.65
-4.62
-3.02
-1.17
0.54
1.87
2.74
3.27
3.71
4.25
5.07
6.17
7.37
8.42
9.08
9.26
9.07
8.8
8.7
8.98
9.68
10.71
11.89
13.03
13.88
14.22
13.88
12.86
11.36
9.74
8.45
7.87
8.17
9.28
10.87
12.46
13.57
13.88
13.32
12.01
10.19
8.1
5.93
3.87
2.16
1.06
0.83
1.5
2.84
4.49
6.08
7.54
9.04
10.89
13.29
16.16
19.1
21.57
23.17
23.79
23.67
23.3
23.1
23.31
23.85
24.45
24.82
24.82
24.49
23.91
23.1
21.91
20.11
17.55
14.39
11.05
8.06
5.74
4.1
2.87
1.68
0.32
-1.28
-3.09
-5.19
-7.82
-11.25
-15.58
-20.55
-25.57
-29.88
-32.91
-34.43
-34.58
-33.69
-32.09
-29.94
-27.22
-23.89
-20.06
-16.07
-12.4
-9.53
-7.67
-6.7
-6.23
-5.82
-5.22
-4.47
-3.84
-3.65
-3.97
-4.64
-5.31
-5.69
-5.7
-5.55
-5.57
-6.09
-7.28
-9.11
-11.42
-13.96
-16.46
-18.69
-20.54
-22.02
-23.34
-24.84
-26.88
-29.61
-32.94
-36.42
-39.5
-41.61
-42.36
-41.61
-39.44
-36.05
-31.72
-26.79
-21.58
-16.45
-11.68
-7.5
-4.03
-1.25
0.93
2.72
4.26
5.54
6.41
6.51
5.51
3.31
0.14
-3.44
-6.77
-9.38
-11.17
-12.4
-13.46
-14.65
-16.01
-17.35
-18.45
-19.14
-19.43
-19.41
-19.19
-18.87
-18.63
-18.74
-19.51
-21.2
-23.76
-26.78
-29.61
-31.54
-32.13
-31.31
-29.32
-26.51
-23.14
-19.29
-14.95
-10.18
-5.15
-0.11
4.72
9.32
13.81
18.28
22.71
26.86
30.37
32.92
34.39
34.92
34.85
34.56
34.33
34.29
34.44
34.67
34.8
34.68
34.19
33.3
32.07
30.64
29.15
27.69
26.28
24.91
23.55
22.22
20.98
19.9
18.97
18.12
17.11
15.73
13.83
11.39
8.45
5.12
1.43
-2.65
-7.12
-11.92
-16.75
-21.21
-24.88
-27.47
-28.87
-29.12
-28.27
-26.3
-23.18
-19.03
-14.11
-8.92
-4.01
0.23
3.65
6.37
8.62
10.64
12.49
14.09
15.3
15.99
16.09
15.64
14.7
13.39
11.9
10.45
9.21
8.22
7.33
6.25
4.67
2.32
-0.82
-4.65
-8.9
-13.29
-17.55
-21.51
-25.12
-28.47
-31.81
-35.43
-39.61
-44.43
-49.74
-55.18
-60.39
-65.07
-69.16
-72.76
-75.92
-78.51
-79.95
-79.36
-75.76
-68.52
-57.77
-44.53
-30.4
-16.99
-5.22
5.2
15.65
28.1
44.21
64.49
87.84
111.84
133.43
149.94
159.8
162.87
160.13
153.11
143.19
131.32
117.95
103.16
86.89
69.21
50.61
32.56
17.78
9.86
12.12
25.79
48.59
74.83
97.03
108.74
106.94
92.86
70.87
46.23
22.9
2.74
-13.94
-27.12
-36.12
-39.62
-36.55
-27.14
-13.44
1.05
12.45
17.79
15.8
7.11
-6.21
-21.69
-37.25
-51.64
-64.47
-75.78
-85.69
-94.17
-101.11
-106.44
-110.27
-112.86
-114.6
-116.01
-117.66
-120.11
-123.57
-127.78
-131.99
-135.21
-136.58
-135.72
-132.8
-128.42
-123.48
-119
-116.06
-115.64
-118.3
-123.76
-130.63
-136.5
-138.57
-134.39
-122.63
-103.41
-78.25
-49.62
-20.33
7.12
31.03
50.76
66.62
79.49
90.31
99.68
107.75
114.35
119.34
122.87
125.3
126.97
127.95
127.93
126.44
123.23
118.58
113.28
108.37
104.63
102.23
100.63
98.87
95.98
91.41
85.19
77.85
70.06
62.4
55.18
48.5
42.35
36.64
31.22
25.82
20.09
13.86
7.35
1.15
-3.94
-7.46
-9.54
-11.01
-12.95
-16.06
-20.31
-24.87
-28.56
-30.45
-30.25
-28.28
-25.11
-21.24
-16.83
-11.77
-5.99
0.35
6.82
12.84
17.98
22.09
25.31
27.99
30.41
32.67
34.65
36.2
37.26
37.91
38.38
38.84
39.38
40.02
40.76
41.63
42.6
43.56
44.32
44.8
45.1
45.65
46.85
48.81
51.02
52.41
51.66
47.8
40.51
30.25
18.11
5.48
-6.21
-15.81
-22.73
-27.19
-30.17
-33.07
-37
-42.2
-47.74
-51.81
-52.6
-49.06
-41.38
-30.84
-19.15
-7.75
2.59
11.76
19.97
27.39
33.95
39.33
43.28
45.74
47.02
47.67
48.26
49.12
50.24
51.24
51.62
51.02
49.38
46.99
44.39
42.09
40.46
39.57
39.26
39.22
39.02
38.26
36.61
33.96
30.36
26.06
21.36
16.42
11.17
5.38
-1.18
-8.58
-16.67
-25.2
-33.98
-43
-52.38
-62.14
-72.1
-81.76
-90.46
-97.61
-102.91
-106.3
-107.88
-107.66
-105.38
-100.53
-92.64
-81.61
-68.03
-53.1
-38.25
-24.6
-12.6
-2
7.74
17
25.65
33.16
39
43.01
45.6
47.43
49.03
50.49
51.39
51.12
49.21
45.67
40.99
35.91
31.24
27.56
25.21
24.16
24.14
24.61
24.94
24.42
22.46
18.61
12.75
5.08
-3.87
-13.39
-22.68
-31.11
-38.36
-44.48
-49.74
-54.4
-58.47
-61.64
-63.43
-63.39
-61.38
-57.54
-52.26
-45.91
-38.81
-31.24
-23.46
-15.76
-8.41
-1.6
4.55
9.97
14.56
18.18
20.72
22.21
22.88
23.08
23.21
23.59
24.49
26.13
28.65
31.96
35.65
38.89
40.61
39.84
36.16
29.89
22.02
13.87
6.58
0.77
-3.58
-7
-10.2
-13.77
-18.01
-22.93
-28.4
-34.25
-40.37
-46.75
-53.31
-59.96
-66.54
-72.92
-79.03
-84.88
-90.33
-94.97
-98
-98.4
-95.2
-87.91
-76.77
-62.67
-46.93
-30.8
-15.15
-0.33
13.65
26.89
39.4
51
61.35
70.09
76.84
81.29
83.21
82.58
79.63
75
69.58
64.33
59.93
56.63
54.21
52.11
49.76
46.78
43.05
38.69
33.93
29.07
24.35
20.01
16.16
12.82
9.83
6.94
3.96
0.85
-2.26
-5.24
-8.09
-11.02
-14.34
-18.22
-22.48
-26.56
-29.73
-31.37
-31.2
-29.32
-26.04
-21.75
-16.84
-11.67
-6.6
-1.93
2.13
5.48
8.14
10.14
11.42
11.9
11.6
10.7
9.57
8.6
8.01
7.7
7.32
6.51
5.18
3.53
1.94
0.75
0.06
-0.39
-0.97
-2
-3.54
-5.35
-7.04
-8.29
-9.02
-9.45
-9.97
-11
-12.78
-15.31
-18.34
-21.47
-24.32
-26.52
-27.81
-27.95
-26.76
-24.17
-20.28
-15.38
-9.95
-4.45
0.7
5.27
9.16
12.35
14.76
16.3
16.92
16.7
15.91
14.91
14.08
13.62
13.51
13.52
13.36
12.85
11.92
10.7
9.35
7.98
6.55
4.89
2.8
0.2
-2.87
-6.23
-9.63
-12.9
-15.97
-18.92
-21.96
-25.32
-29.21
-33.67
-38.51
-43.28
-47.27
-49.71
-49.98
-47.85
-43.55
-37.73
-31.21
-24.72
-18.71
-13.26
-8.21
-3.3
1.59
6.4
10.96
15.05
18.59
21.59
24.13
26.28
28.04
29.33
30.14
30.52
30.62
30.65
30.69
30.69
30.43
29.57
27.84
25.12
21.56
17.58
13.77
10.61
8.29
6.58
4.96
2.85
-0.07
-3.77
-7.84
-11.73
-14.94
-17.1
-17.98
-17.44
-15.41
-11.98
-7.49
-2.5
2.31
6.36
9.35
11.26
12.28
12.65
12.56
12.13
11.43
10.52
9.41
8.06
6.32
3.98
0.96
-2.7
-6.74
-10.83
-14.71
-18.27
-21.53
-24.65
-27.68
-30.61
-33.35
-35.79
-37.83
-39.34
-40.15
-40.06
-38.95
-36.86
-34.17
-31.47
-29.42
-28.46
-28.66
-29.63
-30.63
-30.84
-29.67
-26.95
-22.99
-18.3
-13.46
-8.8
-4.37
-0.04
4.31
8.63
12.68
16.15
18.74
20.43
21.37
21.89
22.26
22.63
22.98
23.2
23.18
22.91
22.48
22.04
21.66
21.26
20.68
19.78
18.57
17.21
15.9
14.89
14.2
13.64
12.83
11.45
9.48
7.14
4.81
2.81
1.44
0.73
0.34
-0.25
-1.5
-3.55
-6.29
-9.3
-12.15
-13.99
-14.11
-12.09
-8.03
-2.39
4.14
10.77
16.85
21.87
26.08
30.04
34.24
38.87
43.88
49.1
54.16
58.6
58.86
52.63
40.32
25.19
11.18
0.81
-4.9
-7.26
-7.5
-6.56
-4.75
-2.3
0.5
2.92
4.23
4.08
2.53
0.09
-2.71
-5.07
-6.44
-6.74
-6.45
-6.35
-7.06
-8.94
-11.8
-15.19
-18.37
-20.77
-22.21
-23.06
-23.86
-25.13
-27.16
-29.94
-33.28
-36.73
-39.73
-41.64
-41.97
-40.52
-37.37
-33
-28.06
-23.24
-18.95
-15.26
-11.91
-8.65
-5.31
-2.01
0.89
3
4.01
3.81
2.57
0.61
-1.76
-4.31
-6.95
-9.74
-12.71
-15.74
-18.53
-20.6
-21.41
-20.58
-17.97
-13.74
-8.31
-2.17
4.23
10.62
16.87
22.86
28.39
33.09
36.51
38.26
38.14
36.24
32.85
28.31
22.9
16.73
9.84
2.24
-5.94
-14.49
-23.11
-31.44
-39.02
-45.37
-49.96
-52.45
-52.76
-51.19
-48.31
-44.79
-41.14
-37.67
-34.4
-31.2
-27.89
-24.35
-20.64
-16.89
-13.35
-10.21
-7.59
-5.41
-3.53
-1.74
0.09
1.97
3.83
5.61
7.29
8.9
10.49
11.97
13.19
13.96
14.15
13.77
12.89
11.74
10.51
9.43
8.63
8.15
7.86
7.53
6.9
5.75
4.1
2.12
0.08
-1.77
-3.33
-4.69
-6.03
-7.52
-9.26
-11.26
-13.5
-15.92
-18.41
-20.79
-22.72
-23.78
-23.58
-21.9
-18.87
-14.89
-10.52
-6.26
-2.41
1.05
4.2
7.2
10.05
12.68
15.02
17.02
18.75
20.24
21.5
22.45
23.02
23.18
23.07
22.87
22.75
22.78
22.9
22.95
22.82
22.42
21.74
20.78
19.52
17.95
16.11
14.1
12.12
10.3
8.71
7.27
5.8
4.19
2.38
0.49
-1.32
-2.95
-4.38
-5.75
-7.13
-8.55
-9.95
-11.31
-12.69
-14.3
-16.36
-19
-22.12
-25.35
-28.18
-30.05
-30.57
-29.54
-27.06
-23.47
-19.28
-14.98
-11.04
-7.66
-4.88
-2.5
-0.26
2.09
4.67
7.43
10.19
12.7
14.78
16.31
17.34
18
18.43
18.7
18.76
18.55
18.06
17.38
16.71
16.21
15.94
15.77
15.5
14.95
14.03
12.83
11.49
10.13
8.79
7.5
6.2
4.89
3.57
2.2
0.66
-1.13
-3.2
-5.48
-7.78
-9.94
-11.83
-13.42
-14.79
-16.11
-17.6
-19.46
-21.86
-24.77
-27.9
-30.72
-32.59
-33
-31.76
-29.1
-25.48
-21.49
-17.55
-13.89
-10.49
-7.29
-4.19
-1.13
1.96
5.07
8.16
11.07
13.56
15.42
16.59
17.19
17.53
17.95
18.59
19.42
20.16
20.53
20.37
19.79
19.06
18.46
18.11
17.87
17.47
16.64
15.31
13.6
11.77
10.06
8.57
7.26
6
4.68
3.26
1.74
0.13
-1.61
-3.53
-5.56
-7.6
-9.39
-10.77
-11.78
-12.69
-13.92
-15.84
-18.53
-21.69
-24.65
-26.69
-27.24
-26.05
-23.23
-19.12
-14.15
-8.74
-3.23
2.07
6.97
11.43
15.54
19.47
23.36
27.14
30.59
33.41
35.39
36.52
36.97
36.97
36.69
36.07
34.95
33.11
30.44
26.98
22.95
18.65
14.34
10.19
6.2
2.27
-1.72
-5.83
-9.99
-14.06
-17.97
-21.8
-25.84
-30.48
-35.95
-42.19
-48.74
-54.81
-59.55
-62.28
-62.72
-61.01
-57.76
-53.79
-50.03
-47.23
-45.75
-45.49
-45.99
-46.56
-46.61
-45.74
-43.8
-40.89
-37.18
-32.88
-28.19
-23.36
-18.6
-14.05
-9.75
-5.54
-1.17
3.54
8.62
13.89
19.06
23.76
27.71
30.74
32.82
34.05
34.61
34.84
35.09
35.69
36.78
38.28
39.84
41.01
41.33
40.52
38.56
35.68
32.26
28.76
25.52
22.67
20.12
17.57
14.74
11.5
7.99
4.49
1.33
-1.4
-3.83
-6.29
-9.09
-12.43
-16.22
-20.21
-24.01
-27.14
-29.17
-29.74
-28.72
-26.2
-22.53
-18.14
-13.42
-8.62
-3.8
1.03
5.82
10.42
14.7
18.57
22.05
25.15
27.84
29.99
31.45
32.11
31.96
31.13
29.81
28.21
26.55
25.05
23.9
23.12
22.51
21.61
19.89
17.01
13.03
8.46
4.04
0.31
-2.63
-5.18
-7.93
-11.35
-15.47
-19.96
-24.42
-28.64
-32.74
-37.05
-41.81
-46.91
-51.8
-55.72
-57.93
-57.99
-55.81
-51.6
-45.73
-38.64
-30.81
-22.72
-14.83
-7.55
-1.11
4.47
9.36
13.81
18.03
22.11
25.93
29.25
31.83
33.53
34.4
34.61
34.38
33.83
32.95
31.64
29.83
27.61
25.26
23.16
21.61
20.72
20.33
20.01
19.32
17.89
15.59
12.51
8.87
4.93
0.85
-3.3
-7.53
-11.87
-16.37
-21.04
-25.86
-30.78
-35.64
-40.18
-44.01
-46.69
-47.88
-47.38
-45.22
-41.61
-36.93
-31.63
-26.21
-21.1
-16.56
-12.66
-9.26
-6.14
-3.08
-0.03
2.99
5.83
8.42
10.75
12.89
14.88
16.72
18.38
19.75
20.79
21.46
21.78
21.77
21.42
20.79
19.87
18.7
17.31
15.7
13.87
11.8
9.52
7.07
4.49
1.76
-1.12
-4.17
-7.25
-10.02
-12.04
-12.84
-12.22
-10.3
-7.51
-4.41
-1.35
1.55
4.42
7.4
10.47
13.39
15.85
17.58
18.51
18.72
18.39
17.75
16.93
15.99
14.98
13.91
12.8
11.68
10.56
9.42
8.18
6.68
4.76
2.33
-0.59
-3.83
-7.16
-10.38
-13.48
-16.61
-20.05
-23.97
-28.38
-33.08
-37.65
-41.67
-44.7
-46.47
-46.8
-45.63
-42.97
-38.87
-33.46
-26.95
-19.61
-11.75
-3.59
4.69
12.96
21.06
28.66
35.44
41.06
45.29
48.08
49.58
50.02
49.68
48.81
47.58
46.07
44.24
42
39.29
36.08
32.5
28.74
25.04
21.57
18.36
15.4
12.57
9.78
6.86
3.67
0.05
-4
-8.31
-12.47
-15.88
-17.93
-18.24
-16.8
-14.05
-10.67
-7.33
-4.44
-1.98
0.41
3.16
6.55
10.51
14.63
18.32
21.06
22.55
22.82
22.19
21.13
20.12
19.44
19.14
19.06
18.97
18.7
18.2
17.54
16.75
15.73
14.31
12.35
9.89
7.16
4.56
2.44
0.93
-0.13
-1.07
-2.24
-3.83
-5.79
-7.96
-10.09
-12.02
-13.57
-14.58
-14.75
-13.73
-11.28
-7.41
-2.44
3.12
8.76
14.16
19.24
23.94
28
30.87
31.9
30.79
27.82
23.9
20.18
17.57
16.25
15.76
15.35
14.49
13.17
11.81
10.97
10.86
11.25
11.55
11.22
10.01
8.07
5.83
3.7
1.92
0.45
-0.94
-2.51
-4.48
-6.89
-9.59
-12.3
-14.7
-16.6
-18.08
-19.45
-21.19
-23.58
-26.56
-29.61
-31.86
-32.59
-31.44
-28.64
-24.83
-20.77
-16.93
-13.48
-10.33
-7.34
-4.55
-2.07
-0.04
1.46
2.49
3.17
3.67
4.15
4.73
5.38
5.95
6.12
5.59
4.25
2.31
0.27
-1.28
-1.91
-1.55
-0.45
0.92
2.1
2.69
2.39
0.96
-1.77
-5.72
-10.63
-16
-21.24
-25.84
-29.5
-32.11
-33.72
-34.45
-34.51
-34.14
-33.71
-33.56
-33.95
-34.83
-35.81
-36.27
-35.52
-33.17
-29.31
-24.47
-19.39
-14.67
-10.57
-6.95
-3.45
0.21
4.07
7.85
11.15
13.6
15.12
15.87
16.22
16.51
16.96
17.58
18.26
18.82
19.15
19.27
19.28
19.25
19.19
19.03
18.67
18.07
17.31
16.49
15.73
15.11
14.66
14.36
14.16
13.94
13.51
12.67
11.27
9.27
6.87
4.42
2.39
1.16
1
2
4.06
6.92
10.01
12.52
13.44
11.82
7.03
-1
-11.69
-23.98
-36.49
-47.91
-57.16
-63.66
-67.24
-68.03
-66.35
-62.5
-56.87
-49.9
-42.08
-33.9
-25.74
-17.84
-10.3
-3.22
3.28
9
13.86
17.94
21.54
25
28.46
31.75
34.48
36.24
36.82
36.32
35.08
33.52
31.95
30.55
29.41
28.55
28
27.78
27.81
27.94
27.92
27.53
26.57
24.96
22.79
20.35
18.05
16.3
15.32
15.01
14.95
14.57
13.38
11.27
8.57
6.04
4.46
4.45
6.12
9.16
12.97
16.96
20.7
24.04
27.06
29.98
33
36.29
39.89
43.72
47.65
51.51
55.1
58.33
61.24
64
66.95
70.4
74.55
79.38
84.57
89.41
92.88
93.83
91.29
84.79
74.56
61.36
46.16
29.68
12.17
-6.54
-26.66
-48.17
-70.63
-93.11
-114.43
-133.28
-148.37
-158.4
-162.35
-159.67
-150.52
-135.84
-117.08
-95.89
-73.83
-52.19
-32.02
-14.16
0.92
13.13
22.94
31.22
39.04
47.32
56.6
66.81
77.3
86.96
94.44
98.57
98.68
94.79
87.69
78.55
68.55
58.5
48.79
39.44
30.48
22.15
14.82
8.9
4.58
1.66
-0.31
-1.88
-3.46
-5.23
-7.09
-8.82
-10.17
-11.13
-11.94
-13.12
-15.24
-18.69
-23.35
-28.54
-33.15
-36.09
-36.82
-35.69
-33.91
-33.13
-34.86
-39.9
-48.07
-58.43
-69.67
-80.6
-90.48
-99.03
-106.28
-112.16
-116.39
-118.45
-117.79
-114.24
-108.23
-100.7
-92.84
-85.55
-79.09
-73.05
-66.73
-59.58
-51.58
-43.21
-35.22
-28.17
-22.15
-16.8
-11.54
-5.91
0.17
6.42
12.32
17.35
21.25
24.04
25.93
27.21
28.04
28.44
28.34
27.7
26.66
25.44
24.3
23.3
22.3
21.01
19.14
16.48
13.09
9.09
4.7
0.25
-3.8
-6.87
-8.35
-7.99
-6.11
-3.56
-1.5
-0.8
-1.68
-3.64
-5.77
-7.25
-7.76
-7.55
-7.24
-7.44
-8.54
-10.59
-13.44
-16.77
-20.17
-23.2
-25.42
-26.52
-26.39
-25.1
-22.86
-19.92
-16.51
-12.88
-9.28
-5.96
-3.09
-0.72
1.26
2.98
4.53
5.83
6.74
7.12
6.98
6.44
5.69
4.85
3.94
2.91
1.61
-0.11
-2.47
-5.66
-9.8
-14.84
-20.57
-26.73
-33.12
-39.73
-46.73
-54.41
-63.01
-72.54
-82.73
-93.06
-102.94
-111.84
-119.49
-125.92
-131.46
-136.59
-141.78
-147.28
-153.05
-158.75
-163.85
-167.86
-170.46
-171.68
-171.9
-171.66
-171.3
-170.67
-168.92
-164.65
-156.41
-143.18
-124.75
-101.81
-75.68
-47.95
-20.23
6.07
29.89
50.58
68.11
82.93
95.92
107.92
119.44
130.51
140.69
149.41
156.1
160.48
162.49
162.28
160.11
156.3
151.19
145.09
138.32
131.16
123.87
116.6
109.38
102.05
94.24
85.56
75.76
64.98
53.87
43.49
35.04
29.51
27.47
28.94
33.37
39.73
46.77
53.3
58.5
62.12
64.52
66.41
68.51
71.23
74.5
77.82
80.49
81.87
81.62
79.67
76.2
71.38
65.22
57.51
47.86
35.9
21.37
4.37
-14.74
-35.28
-56.37
-76.93
-95.76
-111.63
-123.46
-130.55
-132.87
-131.01
-125.98
-118.9
-110.54
-101.37
-91.55
-81.16
-70.36
-59.37
-48.39
-37.54
-26.88
-16.47
-6.46
2.96
11.74
20.06
28.45
37.53
47.8
59.38
72.06
85.38
98.96
112.54
126.02
139.19
151.58
162.34
170.38
174.74
174.96
171.24
164.46
155.78
146.28
136.66
127.16
117.8
108.61
99.75
91.54
84.2
77.69
71.68
65.67
59.25
52.3
45.04
37.94
31.49
26.03
21.69
18.37
15.77
13.46
10.94
7.81
3.88
-0.77
-5.78
-10.74
-15.4
-19.8
-24.27
-29.26
-35.1
-41.88
-49.32
-56.93
-64
-69.82
-73.77
-75.53
-75.2
-73.23
-70.31
-67.05
-63.74
-60.34
-56.59
-52.29
-47.53
-42.63
-37.98
-33.88
-30.4
-27.47
-24.96
-22.76
-20.83
-19.09
-17.44
-15.78
-14.11
-12.52
-11.3
-10.78
-11.34
-13.26
-16.61
-21.16
-26.39
-31.62
-36.34
-40.33
-43.85
-47.47
-51.77
-57.09
-63.34
-70.12
-76.91
-83.39
-89.51
-95.56
-101.91
-108.94
-116.9
-125.89
-135.73
-145.87
-155.31
-162.65
-166.46
-165.81
-160.59
-151.66
-140.41
-128.12
-115.36
-101.91
-87.06
-70.35
-52.01
-32.91
-14.13
3.66
20.5
36.8
52.9
68.52
82.86
94.83
103.71
109.44
112.58
114.01
114.46
114.37
113.82
112.76
111.11
108.9
106.21
103.14
99.81
96.29
92.66
88.9
84.99
80.82
76.38
71.73
67.1
62.81
59.18
56.36
54.3
52.78
51.49
50.21
48.82
47.37
45.99
44.72
43.56
42.44
41.32
40.19
39.05
37.87
36.55
35.01
33.19
31.07
28.59
25.62
21.98
17.58
12.58
7.49
3.05
-0
-1.26
-0.8
0.92
3.24
5.64
7.82
9.77
11.58
13.37
15.24
17.2
19.25
21.3
23.23
24.85
26.01
26.69
26.92
26.79
26.25
25.1
22.99
19.51
14.32
7.06
-2.51
-14.5
-28.58
-43.84
-58.76
-71.73
-81.48
-87.61
-90.59
-91.28
-90.37
-87.91
-83.45
-76.5
-67.09
-56.08
-44.95
-35.26
-28.05
-23.57
-21.37
-20.7
-20.92
-21.71
-23.12
-25.3
-28.27
-31.73
-35.13
-37.86
-39.48
-39.9
-39.35
-38.28
-37.13
-36.17
-35.45
-34.85
-34.04
-32.67
-30.4
-27.08
-22.76
-17.73
-12.41
-7.22
-2.48
1.69
5.33
8.6
11.65
14.57
17.33
19.93
22.34
24.59
26.7
28.6
30.17
31.18
31.46
30.99
29.9
28.5
27.06
25.76
24.58
23.36
21.96
20.27
18.29
16.1
13.79
11.48
9.28
7.25
5.43
3.77
2.23
0.77
-0.64
-2.05
-3.56
-5.34
-7.55
-10.21
-13.13
-15.91
-18.09
-19.35
-19.59
-18.88
-17.38
-15.24
-12.48
-9.14
-5.33
-1.28
2.64
6.06
8.74
10.62
11.83
12.66
13.36
14.16
15.06
15.98
16.73
17.19
17.33
17.21
16.96
16.65
16.3
15.86
15.26
14.45
13.42
12.17
10.73
9.14
7.44
5.7
4
2.41
0.94
-0.42
-1.84
-3.55
-5.76
-8.56
-11.75
-14.87
-17.32
-18.63
-18.61
-17.51
-15.8
-13.94
-12.13
-10.27
-8.03
-5.15
-1.64
2.14
5.63
8.28
9.85
10.5
10.67
10.87
11.4
12.32
13.36
14.26
14.78
14.89
14.61
14.01
13.12
11.92
10.48
8.98
7.61
6.48
5.52
4.49
3.09
1.12
-1.38
-4.13
-6.82
-9.21
-11.27
-13.25
-15.48
-18.29
-21.73
-25.54
-29.2
-32.07
-33.65
-33.77
-32.63
-30.59
-28.01
-25.02
-21.5
-17.27
-12.27
-6.74
-1.17
3.85
7.9
10.89
13.02
14.64
16.07
17.48
18.87
20.12
21.08
21.67
21.85
21.67
21.25
20.7
20.08
19.33
18.31
16.82
14.82
12.42
9.91
7.55
5.49
3.63
1.72
-0.56
-3.41
-6.9
-10.96
-15.47
-20.2
-24.89
-29.14
-32.5
-34.53
-34.95
-33.72
-31.04
-27.27
-22.82
-18.01
-13.01
-7.82
-2.4
3.28
9.08
14.69
19.72
23.86
27.05
29.43
31.25
32.7
33.8
34.42
34.43
33.89
33.02
32.18
31.6
31.34
31.13
30.51
29.06
26.55
23.1
19.09
15.04
11.37
8.28
5.66
3.22
0.64
-2.34
-5.82
-9.8
-14.29
-19.31
-24.91
-31.08
-37.71
-44.54
-51.25
-57.52
-63.13
-68.02
-72.3
-76.1
-79.47
-82.31
-84.34
-85.26
-84.96
-83.7
-82.21
-81.46
-82.34
-85.35
-90.37
-96.69
-103.48
-110.19
-116.93
-124.45
-133.68
-144.94
-157.34
-168.61
-175.49
-174.65
-163.63
-141.45
-108.91
-68.49
-24.11
19.44
57.3
85.64
102.72
109.53
109.39
106.74
105.49
107.78
113.78
122.24
131.65
140.93
149.5
156.81
161.98
163.71
160.86
153.16
141.61
128.28
115.64
105.92
100.69
100.73
106.11
116.09
129.06
142.64
154.19
161.48
163.44
160.42
153.71
144.73
134.25
122.28
108.51
93.08
77.04
62.03
49.54
40.12
33.2
27.5
21.77
15.38
8.43
1.41
-5.33
-11.75
-18.07
-24.36
-30.3
-35.31
-38.8
-40.56
-40.81
-40.18
-39.32
-38.68
-38.48
-38.73
-39.36
-40.29
-41.38
-42.45
-43.36
-44.05
-44.6
-45.16
-45.83
-46.5
-46.9
-46.64
-45.36
-42.9
-39.34
-34.87
-29.84
-24.53
-19.17
-13.96
-9.02
-4.43
-0.24
3.51
6.82
9.63
11.91
13.62
14.76
15.38
15.55
15.34
14.85
14.13
13.25
12.33
11.58
11.21
11.34
11.85
12.46
12.72
12.25
10.92
8.85
6.44
4.14
2.26
0.86
-0.26
-1.48
-3.12
-5.32
-7.91
-10.52
-12.74
-14.3
-15.21
-15.75
-16.42
-17.66
-19.74
-22.6
-25.79
-28.52
-29.83
-28.77
-24.8
-17.98
-9.16
0.27
8.62
14.49
17.1
16.43
13.14
8.19
2.59
-2.83
-7.44
-10.86
-12.86
-13.49
-13.06
-12.12
-11.39
-11.58
-13.35
-17.24
-23.62
-32.64
-44.06
-57.22
-71.06
-84.4
-96.21
-105.86
-113.09
-117.84
-119.9
-118.9
-114.35
-106.13
-94.76
-81.42
-67.75
-55.29
-45.06
-37.43
-32.19
-28.91
-27.06
-26.06
-25.13
-23.26
-19.37
-12.68
-3.25
7.9
18.96
27.88
33
33.63
30.17
23.91
16.7
10.4
6.46
5.66
8.02
12.85
19.02
25.28
30.62
34.55
37.18
38.97
40.55
42.32
44.37
46.46
48.26
49.45
49.86
49.48
48.36
46.69
44.7
42.7
40.98
39.77
39.12
38.9
38.84
38.66
38.16
37.23
35.87
34.12
32.01
29.62
27.04
24.35
21.62
18.93
16.28
13.61
10.79
7.65
4.05
0.03
-4.24
-8.46
-12.37
-15.85
-19
-21.99
-25.02
-28.2
-31.57
-35.07
-38.59
-41.85
-44.35
-45.5
-44.72
-41.75
-36.8
-30.54
-23.87
-17.56
-12.11
-7.54
-3.59
0.14
3.97
8.07
12.4
16.76
20.93
24.66
27.7
29.78
30.61
29.95
27.79
24.41
20.45
16.69
13.86
12.33
12.14
12.99
14.5
16.26
18
19.48
20.57
21.17
21.26
20.85
19.99
18.78
17.35
15.85
14.39
12.99
11.55
9.95
8.2
6.49
5.2
4.64
4.85
5.39
5.53
4.48
1.76
-2.57
-7.98
-13.71
-19.07
-23.6
-27.13
-29.64
-31.07
-31.28
-30.13
-27.51
-23.63
-18.93
-14.02
-9.44
-5.52
-2.38
-0.01
1.63
2.65
3.33
4.31
6.48
10.73
17.4
26.01
35.22
43.3
48.72
50.76
49.64
46.31
41.95
37.49
33.48
30.05
27.14
24.67
22.61
20.95
19.7
18.77
18.07
17.46
16.85
16.15
15.42
14.73
14.21
13.91
13.73
13.42
12.67
11.27
9.19
6.63
3.89
1.26
-1.1
-3.18
-5.13
-7.28
-10.03
-13.71
-18.43
-23.88
-29.38
-33.93
-36.64
-36.98
-34.99
-31.21
-26.44
-21.46
-16.78
-12.63
-9.01
-5.85
-3.03
-0.45
2.03
4.52
7
9.36
11.34
12.7
13.32
13.28
12.82
12.24
11.83
11.8
12.25
13.09
14.11
14.91
15.04
14.16
12.17
9.34
6.2
3.38
1.37
0.44
0.65
1.91
4.03
6.68
9.42
11.71
13.06
13.19
12.11
10.04
7.28
4.12
0.71
-2.79
-6.27
-9.58
-12.7
-15.75
-19.04
-22.9
-27.4
-32.2
-36.48
-39.27
-39.79
-37.82
-33.81
-28.65
-23.3
-18.34
-13.85
-9.5
-4.89
0.21
5.73
11.42
17.01
22.28
27.06
31.09
34.06
35.68
35.87
34.82
32.94
30.66
28.24
25.72
23.01
20.04
16.9
13.78
10.97
8.72
7.12
6.13
5.49
4.84
3.8
2.11
-0.19
-2.83
-5.33
-7.33
-8.66
-9.48
-10.11
-10.9
-12.07
-13.63
-15.44
-17.33
-19.18
-20.96
-22.74
-24.69
-26.93
-29.58
-32.63
-35.89
-38.99
-41.51
-43.01
-43.19
-41.98
-39.5
-36.11
-32.28
-28.54
-25.22
-22.46
-20
-17.39
-14.09
-9.73
-4.28
1.98
8.5
14.75
20.32
25.05
29.03
32.37
35.08
37.02
37.95
37.76
36.6
34.91
33.23
31.91
30.92
29.85
28.2
25.69
22.47
19.05
15.94
13.39
11.26
9.13
6.66
3.73
0.48
-2.85
-6.08
-9.2
-12.19
-14.99
-17.43
-19.36
-20.78
-21.97
-23.39
-25.42
-28.24
-31.64
-35.09
-37.96
-39.69
-39.96
-38.73
-36.17
-32.56
-28.22
-23.44
-18.45
-13.44
-8.49
-3.72
0.76
4.84
8.43
11.46
13.98
16.04
17.68
18.94
19.73
19.92
19.39
18.06
16
13.5
10.99
9
7.91
7.84
8.55
9.6
10.5
10.97
11.1
11.13
11.35
11.81
12.32
12.56
12.22
11.12
9.24
6.66
3.49
-0.14
-4
-7.84
-11.38
-14.49
-17.28
-20.06
-23.18
-26.79
-30.65
-34.19
-36.66
-37.46
-36.32
-33.37
-29.05
-23.87
-18.3
-12.67
-7.22
-2.14
2.42
6.42
9.86
12.75
15.04
16.58
17.23
17.05
16.33
15.61
15.38
15.84
16.75
17.57
17.71
16.84
15.02
12.58
9.96
7.48
5.36
3.74
2.76
2.63
3.5
5.38
8.08
11.25
14.41
17.09
18.83
19.26
18.14
15.46
11.47
6.74
1.96
-2.31
-5.74
-8.41
-10.74
-13.25
-16.28
-19.87
-23.65
-26.96
-29.12
-29.63
-28.37
-25.57
-21.66
-17.12
-12.32
-7.55
-3.09
0.73
3.49
4.88
4.87
3.75
2.14
0.69
-0.11
-0.1
0.63
1.81
3.16
4.49
5.63
6.45
6.85
6.77
6.24
5.29
4.02
2.46
0.71
-1.07
-2.61
-3.56
-3.67
-2.88
-1.38
0.47
2.28
3.83
5.05
6.03
6.83
7.36
7.41
6.72
5.23
3.05
0.57
-1.73
-3.33
-3.9
-3.3
-1.62
0.81
3.56
6.1
7.9
8.49
7.59
5.22
1.8
-1.91
-5.07
-7.06
-7.69
-7.26
-6.38
-5.67
-5.49
-5.79
-6.33
-6.82
-7.11
-7.28
-7.45
-7.69
-7.86
-7.72
-7.08
-5.98
-4.71
-3.76
-3.59
-4.4
-6
-7.83
-9.16
-9.35
-8.07
-5.43
-1.92
1.82
5.21
7.88
9.68
10.65
10.85
10.37
9.33
7.94
6.54
5.5
4.98
4.82
4.57
3.74
2.1
-0.14
-2.42
-4.07
-4.67
-4.2
-2.95
-1.34
0.29
1.72
2.83
3.43
3.28
2.11
-0.25
-3.74
-8.09
-12.92
-17.87
-22.64
-26.94
-30.55
-33.2
-34.67
-34.84
-33.76
-31.67
-28.89
-25.74
-22.39
-18.83
-14.92
-10.59
-5.93
-1.24
3.08
6.65
9.24
10.82
11.53
11.62
11.33
10.91
10.55
10.32
10.25
10.25
10.22
10.07
9.75
9.27
8.61
7.72
6.53
4.98
3.1
1
-1.24
-3.58
-6.06
-8.75
-11.64
-14.55
-17.13
-18.97
-19.75
-19.32
-17.68
-15.02
-11.62
-7.82
-4.03
-0.54
2.47
4.99
7.19
9.28
11.39
13.48
15.37
16.88
17.88
18.33
18.26
17.69
16.68
15.38
14.06
13.06
12.63
12.76
13.1
13.15
12.46
10.86
8.52
5.79
3.07
0.56
-1.69
-3.71
-5.55
-7.22
-8.77
-10.3
-11.96
-13.85
-16.06
-18.54
-21.24
-24.12
-27.2
-30.45
-33.73
-36.76
-39.13
-40.49
-40.58
-39.34
-36.84
-33.29
-28.95
-24.03
-18.65
-12.81
-6.4
0.63
8.19
15.9
23.24
29.62
34.7
38.42
41.05
43.04
44.8
46.56
48.32
49.92
51.19
52.01
52.33
52.14
51.4
50.03
47.89
44.99
41.52
37.82
34.32
31.3
28.71
26.21
23.32
19.65
15.15
10.08
4.91
0.14
-3.88
-7.11
-9.74
-12.15
-14.74
-17.83
-21.55
-25.73
-29.94
-33.59
-36.14
-37.26
-36.95
-35.44
-33.06
-30.11
-26.78
-23.15
-19.27
-15.19
-11.07
-7.1
-3.47
-0.36
2.17
4.06
5.35
6.06
6.23
5.92
5.13
3.79
1.84
-0.68
-3.52
-6.25
-8.29
-9.1
-8.33
-5.98
-2.42
1.81
6.09
9.95
13.12
15.43
16.72
16.78
15.39
12.4
7.95
2.52
-3.1
-7.98
-11.24
-12.29
-10.96
-7.65
-3.33
0.65
2.8
2.03
-1.94
-8.43
-15.9
-22.49
-26.57
-27.3
-24.71
-19.53
-12.86
-5.79
0.78
6.28
10.35
12.96
14.34
14.87
14.95
14.79
14.33
13.27
11.25
8.13
4.07
-0.36
-4.43
-7.47
-9.14
-9.42
-8.57
-6.91
-4.77
-2.4
0.06
2.47
4.69
6.66
8.35
9.89
11.42
13.11
15.07
17.21
19.34
21.15
22.36
22.84
22.67
22.21
21.97
22.53
24.28
27.25
31.11
35.23
38.88
41.48
42.68
42.36
40.63
37.82
34.5
31.42
29.38
28.83
29.68
31.23
32.44
32.41
30.78
27.77
23.89
19.51
14.66
9.16
2.96
-3.66
-10.15
-16.1
-21.58
-27.25
-34.02
-42.52
-52.6
-63.26
-72.94
-80.13
-83.98
-84.57
-82.86
-80.33
-78.35
-77.54
-77.46
-76.78
-73.97
-68.14
-59.7
-50.34
-42.36
-37.77
-37.43
-40.87
-46.6
-52.76
-57.76
-60.64
-60.99
-58.89
-54.69
-49
-42.57
-36.15
-30.29
-25.19
-20.64
-16.26
-11.73
-6.99
-2.29
1.97
5.46
8.11
10.1
11.83
13.83
16.59
20.45
25.54
31.7
38.48
45.2
51.1
55.5
57.99
58.37
56.73
53.39
48.84
43.75
38.86
34.79
31.9
30.11
28.97
27.93
26.54
24.6
22.12
19.27
16.25
13.24
10.41
7.94
5.86
4.08
2.3
0.16
-2.61
-6
-9.75
-13.41
-16.51
-18.68
-19.73
-19.67
-18.66
-17.02
-15.15
-13.37
-11.82
-10.34
-8.65
-6.5
-3.84
-0.96
1.7
3.71
4.84
5.18
5.01
4.68
4.45
4.47
4.69
4.99
5.19
5.19
4.96
4.63
4.42
4.48
4.79
5.12
5.13
4.61
3.64
2.51
1.66
1.3
1.37
1.57
1.5
0.93
-0.2
-1.73
-3.43
-5.09
-6.57
-7.82
-8.84
-9.73
-10.63
-11.73
-13.17
-14.98
-17.04
-19.15
-21.03
-22.38
-22.93
-22.47
-20.91
-18.38
-15.17
-11.67
-8.27
-5.23
-2.65
-0.47
1.42
3.17
4.89
6.59
8.19
9.53
10.39
10.66
10.35
9.73
9.17
8.96
9.19
9.65
10.01
9.95
9.38
8.4
7.24
6.06
4.93
3.83
2.7
1.55
0.48
-0.39
-1.05
-1.57
-2.1
-2.83
-3.86
-5.24
-6.9
-8.71
-10.54
-12.29
-13.9
-15.39
-16.74
-17.93
-18.96
-19.82
-20.62
-21.59
-23.05
-25.28
-28.31
-31.88
-35.37
-38.1
-39.49
-39.31
-37.7
-35.03
-31.7
-28.04
-24.26
-20.47
-16.73
-13.05
-9.35
-5.48
-1.33
3.11
7.63
11.86
15.45
18.2
20.19
21.61
22.71
23.62
24.34
24.88
25.28
25.64
26
26.32
26.45
26.13
25.27
23.97
22.47
21.09
19.97
19.08
18.2
17.11
15.74
14.16
12.59
11.17
9.89
8.58
6.97
4.9
2.41
-0.28
-2.87
-5.13
-7.03
-8.69
-10.36
-12.26
-14.54
-17.25
-20.33
-23.65
-27.07
-30.45
-33.59
-36.31
-38.41
-39.64
-39.79
-38.71
-36.35
-32.83
-28.45
-23.64
-18.87
-14.43
-10.39
-6.62
-2.87
1.06
5.17
9.25
12.97
16.02
18.27
19.85
20.99
21.99
22.97
23.88
24.57
24.89
24.86
24.65
24.47
24.46
24.62
24.77
24.69
24.31
23.68
22.92
22.15
21.37
20.47
19.31
17.8
15.96
13.89
11.71
9.53
7.4
5.29
3.11
0.78
-1.74
-4.37
-6.96
-9.37
-11.58
-13.72
-16.04
-18.78
-22.07
-25.82
-29.77
-33.5
-36.52
-38.39
-38.83
-37.78
-35.36
-31.86
-27.61
-22.89
-17.91
-12.8
-7.67
-2.61
2.28
6.96
11.39
15.48
19.09
22.04
24.14
25.35
25.8
25.76
25.55
25.44
25.59
26.05
26.71
27.4
27.91
28.05
27.73
26.99
25.94
24.77
23.62
22.5
21.34
20.02
18.52
16.9
15.36
14.08
13.1
12.27
11.27
9.73
7.4
4.3
0.69
-3.03
-6.46
-9.41
-11.9
-14.18
-16.57
-19.35
-22.7
-26.57
-30.72
-34.68
-37.84
-39.55
-39.33
-37.02
-32.9
-27.66
-22.11
-16.95
-12.5
-8.67
-5.11
-1.47
2.5
6.8
11.24
15.52
19.33
22.31
24.26
25.15
25.19
24.82
24.58
24.85
25.7
26.88
27.96
28.59
28.63
28.18
27.4
26.39
25.14
23.6
21.81
19.98
18.37
17.16
16.34
15.71
15.02
14.05
12.72
11.03
8.99
6.6
3.87
0.87
-2.29
-5.47
-8.55
-11.47
-14.14
-16.56
-18.72
-20.75
-22.79
-25
-27.35
-29.57
-31.23
-31.9
-31.41
-29.84
-27.54
-24.85
-21.99
-18.96
-15.66
-12
-7.99
-3.79
0.38
4.28
7.75
10.72
13.23
15.43
17.46
19.4
21.11
22.41
23.11
23.2
22.93
22.61
22.46
22.45
22.36
21.96
21.18
20.13
19.03
18.04
17.13
16.15
15.03
13.85
12.76
11.88
11.06
9.96
8.18
5.52
2.1
-1.59
-5.01
-7.76
-9.77
-11.31
-12.89
-14.94
-17.77
-21.31
-25.22
-28.94
-31.87
-33.48
-33.5
-31.86
-28.75
-24.57
-19.8
-14.94
-10.33
-6.14
-2.28
1.42
5.08
8.73
12.23
15.38
18.03
20.16
21.82
23.05
23.81
24.09
23.91
23.5
23.16
23.17
23.58
24.13
24.44
24.15
23.16
21.65
19.95
18.3
16.75
15.22
13.62
11.98
10.44
9.14
8.02
6.86
5.32
3.18
0.5
-2.42
-5.13
-7.31
-8.94
-10.28
-11.74
-13.7
-16.37
-19.69
-23.4
-27.09
-30.25
-32.35
-32.92
-31.66
-28.57
-24.03
-18.74
-13.53
-9.06
-5.58
-2.94
-0.74
1.43
3.74
6.1
8.28
10.06
11.38
12.25
12.8
13.08
13.16
13.13
13.13
13.35
13.85
14.52
15.14
15.4
15.08
14.14
12.68
10.86
8.84
6.74
4.67
2.74
1.09
-0.18
-1.12
-1.96
-3.07
-4.81
-7.39
-10.7
-14.36
-17.74
-20.25
-21.41
-21.07
-19.33
-16.51
-13
-9.18
-5.41
-1.96
0.93
3.11
4.56
5.37
5.68
5.62
5.32
4.92
4.55
4.35
4.48
4.94
5.63
6.29
6.69
6.63
6.04
4.95
3.43
1.6
-0.43
-2.56
-4.69
-6.79
-8.85
-10.95
-13.12
-15.39
-17.75
-20.14
-22.45
-24.5
-26.04
-26.81
-26.53
-25.07
-22.44
-18.9
-14.82
-10.68
-6.83
-3.5
-0.63
1.92
4.33
6.65
8.79
10.53
11.67
12.16
12.11
11.72
11.22
10.74
10.3
9.85
9.31
8.57
7.59
6.37
5
3.64
2.43
1.37
0.29
-1.05
-2.92
-5.46
-8.58
-12.08
-15.68
-19.09
-22.02
-24.21
-25.39
-25.33
-24.01
-21.6
-18.46
-14.99
-11.46
-7.97
-4.47
-0.86
2.86
6.53
9.94
12.87
15.18
16.85
17.91
18.48
18.69
18.65
18.45
18.18
17.85
17.47
17.02
16.46
15.75
14.82
13.54
11.8
9.56
6.91
4.05
1.26
-1.25
-3.41
-5.38
-7.41
-9.78
-12.66
-16.05
-19.78
-23.52
-26.9
-29.52
-31.05
-31.25
-30
-27.36
-23.56
-18.94
-13.88
-8.71
-3.62
1.25
5.88
10.21
14.17
17.63
20.47
22.58
23.97
24.7
24.9
24.74
24.3
23.69
23.01
22.36
21.84
21.52
21.37
21.22
20.84
19.93
18.34
16.14
13.65
11.31
9.46
8.15
7.07
5.75
3.74
0.89
-2.56
-6.13
-9.32
-11.86
-13.86
-15.73
-17.96
-20.86
-24.44
-28.4
-32.21
-35.3
-37.16
-37.48
-36.15
-33.3
-29.3
-24.61
-19.72
-15.05
-10.75
-6.72
-2.67
1.68
6.39
11.18
15.51
18.87
20.97
21.94
22.2
22.28
22.56
23.14
23.92
24.72
25.44
26.06
26.6
26.96
26.97
26.43
25.25
23.57
21.64
19.69
17.87
16.14
14.42
12.65
10.94
9.41
8.19
7.21
6.27
5.09
3.51
1.49
-0.88
-3.47
-6.2
-9.02
-11.88
-14.67
-17.26
-19.6
-21.72
-23.84
-26.2
-28.93
-31.92
-34.78
-36.99
-38.05
-37.74
-36.14
-33.56
-30.36
-26.75
-22.79
-18.41
-13.57
-8.39
-3.19
1.66
5.87
9.36
12.26
14.74
16.89
18.67
20
20.87
21.42
21.9
22.51
23.33
24.24
25.04
25.54
25.68
25.49
25
24.24
23.2
21.88
20.42
18.99
17.76
16.75
15.81
14.61
12.88
10.56
7.85
5.2
3
1.46
0.48
-0.33
-1.37
-2.91
-4.98
-7.39
-9.88
-12.29
-14.58
-16.8
-19.02
-21.31
-23.72
-26.3
-29.11
-32.14
-35.15
-37.68
-39.08
-38.85
-36.79
-33.18
-28.61
-23.76
-19.07
-14.69
-10.52
-6.39
-2.29
1.68
5.35
8.61
11.5
14.08
16.35
18.19
19.43
19.92
19.68
18.95
18.1
17.52
17.51
18.17
19.37
20.81
22.05
22.69
22.47
21.36
19.61
17.63
15.83
14.5
13.66
13.12
12.58
11.79
10.62
9.09
7.36
5.56
3.78
2.06
0.41
-1.12
-2.51
-3.76
-4.97
-6.27
-7.78
-9.58
-11.6
-13.77
-15.98
-18.26
-20.69
-23.38
-26.4
-29.65
-32.89
-35.71
-37.69
-38.48
-37.87
-35.87
-32.68
-28.62
-24.02
-19.25
-14.59
-10.31
-6.51
-3.21
-0.28
2.53
5.38
8.34
11.28
13.96
16.1
17.52
18.22
18.4
18.32
18.2
18.23
18.47
18.89
19.41
19.89
20.15
20.07
19.56
18.64
17.41
16.02
14.62
13.27
11.98
10.69
9.35
7.97
6.56
5.2
3.94
2.77
1.62
0.38
-1.06
-2.74
-4.66
-6.76
-8.94
-11.09
-13.14
-15.11
-17.09
-19.26
-21.7
-24.48
-27.52
-30.59
-33.34
-35.34
-36.15
-35.43
-33.13
-29.46
-24.92
-20.11
-15.54
-11.47
-7.87
-4.55
-1.29
1.95
5.09
7.89
10.2
11.98
13.28
14.29
15.16
15.96
16.71
17.35
17.87
18.28
18.6
18.81
18.88
18.69
18.21
17.51
16.75
16.1
15.58
15.04
14.22
12.92
11.18
9.27
7.54
6.25
5.37
4.67
3.83
2.68
1.24
-0.3
-1.74
-2.96
-3.97
-4.84
-5.62
-6.39
-7.21
-8.15
-9.32
-10.7
-12.15
-13.33
-13.78
-13.05
-10.85
-7.17
-2.23
3.57
9.86
16.39
23.07
29.93
36.93
43.87
50.41
56.19
60.94
64.62
67.43
69.72
71.78
73.72
75.43
76.56
76.71
75.46
72.56
67.95
61.82
54.54
46.63
38.58
30.9
23.93
17.9
12.91
8.92
5.8
3.31
1.16
-0.86
-2.91
-4.96
-6.9
-8.58
-9.92
-10.86
-11.38
-11.43
-10.99
-10.18
-9.41
-9.3
-10.51
-13.48
-18.16
-24.07
-30.54
-37.01
-43.24
-49.27
-55.23
-61.14
-66.8
-71.83
-75.89
-78.79
-80.52
-81.25
-81.07
-80
-77.8
-74.2
-68.96
-62.06
-53.89
-45.15
-36.7
-29.28
-23.22
-18.49
-14.79
-11.78
-9.33
-7.47
-6.28
-5.7
-5.44
-5.05
-4.13
-2.49
-0.28
2.1
4.18
5.65
6.42
6.56
6.21
5.5
4.5
3.29
2.06
0.97
0.19
-0.27
-0.59
-1.04
-1.85
-3.06
-4.59
-6.26
-8.03
-9.92
-12.07
-14.55
-17.24
-19.89
-22.19
-23.95
-25.1
-25.63
-25.49
-24.49
-22.46
-19.38
-15.56
-11.51
-7.76
-4.55
-1.83
0.68
3.21
5.77
8.18
10.16
11.62
12.6
13.28
13.82
14.26
14.57
14.67
14.56
14.22
13.69
12.96
12.05
11.06
10.17
9.55
9.3
9.34
9.4
9.21
8.58
7.56
6.36
5.26
4.42
3.84
3.28
2.47
1.19
-0.55
-2.55
-4.55
-6.31
-7.75
-8.95
-10.09
-11.39
-13.03
-15.15
-17.79
-20.82
-23.95
-26.67
-28.46
-28.86
-27.74
-25.24
-21.86
-18.2
-14.78
-11.86
-9.4
-7.14
-4.79
-2.15
0.78
3.82
6.71
9.24
11.32
12.93
14.14
15
15.58
15.92
16.08
16.1
16.02
15.91
15.82
15.84
15.95
16.06
15.93
15.32
14.17
12.67
11.21
10.25
10.01
10.41
11.07
11.51
11.39
10.55
9.11
7.33
5.53
3.95
2.78
2.04
1.59
1.17
0.53
-0.5
-1.92
-3.65
-5.63
-7.87
-10.35
-13
-15.53
-17.56
-18.73
-18.88
-18.04
-16.39
-14.12
-11.34
-8.19
-4.81
-1.48
1.51
4
5.97
7.57
8.93
10.07
10.89
11.3
11.33
11.21
11.29
11.86
13.07
14.82
16.88
18.94
20.69
21.88
22.38
22.11
21.09
19.51
17.57
15.55
13.67
12.07
10.78
9.7
8.71
7.67
6.49
5.18
3.77
2.31
0.79
-0.87
-2.74
-4.85
-7.11
-9.34
-11.45
-13.46
-15.63
-18.28
-21.66
-25.8
-30.44
-35.12
-39.29
-42.47
-44.3
-44.56
-43.23
-40.4
-36.32
-31.38
-26.03
-20.69
-15.6
-10.87
-6.43
-2.27
1.52
4.76
7.24
8.91
9.94
10.63
11.29
12.12
13.11
14.13
15
15.61
15.93
15.97
15.78
15.44
14.98
14.44
13.76
12.88
11.76
10.46
9.12
7.9
6.82
5.72
4.38
2.63
0.55
-1.58
-3.43
-4.88
-6.09
-7.45
-9.28
-11.66
-14.37
-17.11
-19.68
-22.1
-24.49
-26.85
-28.98
-30.43
-30.73
-29.55
-26.91
-23.06
-18.46
-13.51
-8.57
-3.8
0.74
5.06
9.2
13.18
16.94
20.37
23.37
25.87
27.88
29.45
30.52
31.01
30.84
30.04
28.83
27.53
26.38
25.38
24.32
22.88
20.92
18.57
16.19
14.12
12.47
11.1
9.69
8.12
6.45
5.07
4.32
4.32
4.85
5.54
6.01
6.14
6.05
6.01
6.17
6.54
6.89
6.98
6.63
5.87
4.9
4.06
3.67
3.92
4.8
6.04
7.26
8.07
8.24
7.8
6.93
5.89
4.81
3.65
2.28
0.58
-1.38
-3.35
-5.04
-6.24
-7.02
-7.62
-8.43
-9.74
-11.64
-14.01
-16.55
-18.97
-21.05
-22.8
-24.3
-25.68
-26.91
-27.83
-28.15
-27.65
-26.27
-24.17
-21.72
-19.3
-17.2
-15.58
-14.47
-13.9
-13.89
-14.44
-15.47
-16.74
-17.96
-18.85
-19.29
-19.26
-18.88
-18.21
-17.25
-15.89
-14.05
-11.7
-8.95
-5.98
-2.97
-0.11
2.46
4.62
6.28
7.38
7.99
8.25
8.31
8.34
8.41
8.52
8.61
8.58
8.32
7.68
6.58
4.99
3.02
0.92
-1.02
-2.53
-3.56
-4.27
-5.01
-6.17
-7.99
-10.52
-13.58
-16.87
-20
-22.61
-24.37
-25.08
-24.64
-23.16
-20.85
-18.03
-14.93
-11.68
-8.22
-4.46
-0.29
4.22
8.76
12.88
16.09
18.08
18.84
18.68
18.1
17.57
17.36
17.44
17.59
17.53
17.1
16.31
15.26
14.03
12.64
11.05
9.23
7.26
5.26
3.34
1.5
-0.43
-2.69
-5.48
-8.85
-12.64
-16.55
-20.26
-23.49
-26.1
-27.96
-29
-29.19
-28.52
-27.02
-24.81
-21.99
-18.63
-14.71
-10.15
-4.95
0.72
6.47
11.82
16.32
19.74
22.12
23.67
24.73
25.54
26.22
26.75
27.04
27.03
26.68
26.03
25.15
24.15
23.13
22.16
21.27
20.42
19.54
18.55
17.46
16.32
15.19
14.08
12.87
11.36
9.3
6.64
3.47
0.04
-3.36
-6.53
-9.41
-12.07
-14.59
-17.1
-19.72
-22.61
-25.97
-29.87
-34.15
-38.36
-41.81
-43.77
-43.84
-42.02
-38.7
-34.48
-29.9
-25.19
-20.34
-15.13
-9.41
-3.19
3.2
9.31
14.64
18.89
22.02
24.22
25.74
26.88
27.72
28.23
28.34
28.04
27.46
26.77
26.14
25.63
25.2
24.71
24.09
23.28
22.27
20.99
19.33
17.19
14.57
11.61
8.55
5.69
3.24
1.29
-0.18
-1.3
-2.26
-3.29
-4.61
-6.38
-8.62
-11.23
-14.03
-16.83
-19.58
-22.32
-25.27
-28.58
-32.39
-36.65
-41.11
-45.29
-48.49
-50.04
-49.43
-46.59
-41.88
-36.01
-29.7
-23.43
-17.34
-11.3
-5.15
1.13
7.34
13.16
18.25
22.4
25.57
27.86
29.47
30.57
31.36
31.97
32.5
33.06
33.74
34.64
35.76
37.04
38.23
39.06
39.26
38.67
37.29
35.25
32.76
30.01
27.21
24.44
21.78
19.24
16.84
14.64
12.72
11.18
9.97
8.93
7.76
6.17
4.01
1.33
-1.65
-4.68
-7.67
-10.73
-14.08
-17.89
-22.16
-26.63
-30.87
-34.38
-36.77
-37.81
-37.47
-35.92
-33.43
-30.29
-26.67
-22.64
-18.13
-13.01
-7.24
-0.93
5.68
12.19
18.21
23.37
27.35
30.07
31.61
32.28
32.5
32.64
32.89
33.27
33.69
34.02
34.2
34.25
34.14
33.76
32.96
31.65
29.89
27.92
26.01
24.35
22.9
21.49
19.93
18.18
16.39
14.79
13.53
12.61
11.82
10.85
9.49
7.64
5.42
2.99
0.5
-1.95
-4.33
-6.61
-8.84
-11.07
-13.46
-16.15
-19.25
-22.61
-25.87
-28.46
-29.82
-29.62
-27.85
-24.83
-21.02
-16.85
-12.55
-8.21
-3.83
0.44
4.33
7.55
9.87
11.34
12.21
12.84
13.5
14.3
15.16
15.89
16.3
16.32
16
15.43
14.73
13.88
12.86
11.6
10.14
8.62
7.2
5.99
4.95
3.87
2.51
0.73
-1.4
-3.59
-5.53
-7.08
-8.3
-9.45
-10.81
-12.62
-14.96
-17.69
-20.48
-22.83
-24.22
-24.25
-22.85
-20.28
-17
-13.47
-9.95
-6.5
-3.05
0.34
3.46
5.93
7.49
8.12
8.03
7.64
7.33
7.28
7.51
7.88
8.22
8.44
8.47
8.32
7.99
7.43
6.62
5.55
4.24
2.8
1.31
-0.17
-1.63
-3.03
-4.35
-5.52
-6.54
-7.51
-8.61
-10.07
-12.04
-14.51
-17.36
-20.37
-23.33
-26
-28.19
-29.65
-30.13
-29.48
-27.7
-24.98
-21.58
-17.8
-13.78
-9.61
-5.34
-1.12
2.85
6.29
9.05
11.11
12.66
13.91
15.01
15.97
16.6
16.7
16.17
15.15
13.94
12.82
11.99
11.43
11
10.54
9.93
9.13
8.11
6.8
5.18
3.23
1.03
-1.28
-3.54
-5.62
-7.52
-9.34
-11.22
-13.3
-15.66
-18.34
-21.27
-24.3
-27.19
-29.56
-31.02
-31.15
-29.76
-26.91
-22.94
-18.39
-13.75
-9.31
-5.07
-0.87
3.39
7.58
11.4
14.51
16.75
18.23
19.29
20.27
21.34
22.43
23.32
23.83
23.94
23.79
23.64
23.65
23.82
23.93
23.73
22.99
21.71
20.12
18.52
17.2
16.28
15.71
15.31
14.91
14.36
13.65
12.84
12
11.21
10.47
9.73
8.87
7.75
6.29
4.48
2.41
0.23
-1.87
-3.78
-5.42
-6.85
-8.22
-9.76
-11.73
-14.33
-17.62
-21.46
-25.47
-29.15
-31.98
-33.59
-33.79
-32.63
-30.35
-27.26
-23.76
-20.15
-16.65
-13.34
-10.18
-7.09
-4.03
-1.01
1.85
4.34
6.26
7.46
7.96
7.94
7.63
7.25
6.86
6.45
5.94
5.3
4.62
3.97
3.45
3.03
2.61
2.07
1.39
0.61
-0.12
-0.72
-1.19
-1.55
-1.88
-2.17
-2.43
-2.7
-3.13
-3.89
-5.17
-6.99
-9.2
-11.57
-13.88
-16.06
-18.13
-20.21
-22.35
-24.58
-26.88
-29.19
-31.51
-33.74
-35.64
-36.77
-36.68
-35.01
-31.79
-27.36
-22.27
-17
-11.82
-6.78
-1.8
3.11
7.81
12.04
15.6
18.39
20.49
22.04
23.15
23.86
24.19
24.16
23.87
23.43
22.99
22.62
22.38
22.26
22.25
22.31
22.34
22.19
21.72
20.79
19.43
17.8
16.11
14.57
13.27
12.09
10.85
9.32
7.45
5.3
3.09
1.03
-0.76
-2.35
-3.89
-5.62
-7.7
-10.14
-12.85
-15.65
-18.41
-21.13
-23.92
-26.96
-30.3
-33.87
-37.29
-40.01
-41.42
-41.07
-38.82
-34.9
-29.89
-24.5
-19.33
-14.75
-10.72
-6.94
-3.01
1.31
5.99
10.67
14.81
17.93
19.79
20.49
20.39
19.99
19.69
19.68
19.96
20.29
20.44
20.21
19.55
18.6
17.64
16.87
16.37
16.02
15.52
14.67
13.39
11.83
10.2
8.61
6.94
4.94
2.39
-0.68
-3.89
-6.72
-8.8
-10.07
-10.86
-11.59
-12.59
-13.87
-15.27
-16.47
-17.35
-17.95
-18.45
-19.07
-19.94
-21.04
-22.26
-23.36
-24.09
-24.15
-23.34
-21.51
-18.75
-15.27
-11.31
-7.03
-2.49
2.39
7.6
12.99
18.22
22.89
26.68
29.54
31.67
33.45
35.18
36.98
38.7
40.05
40.66
40.34
39.09
37.16
34.98
32.99
31.5
30.57
29.97
29.28
28.09
26.2
23.75
21.15
18.7
16.32
13.26
8.24
-0.16
-12.9
-29.86
-49.59
-69.49
-86.44
-97.75
-102.08
-100.05
-94.28
-88.97
-88.84
-97.99
-118.75
-150.91
-191.5
-235.24
-275.55
-306.21
-322.97
-324.56
-312.65
-290.77
-262.57
-230.47
-195.43
-157.54
-117.18
-75.8
-35.74
0.63
31.83
57.78
79.43
97.86
113.61
126.44
135.74
141.24
143.44
143.6
143.22
143.33
144
144.21
142.49
137.59
129.28
118.51
107.06
96.73
88.55
82.41
77.29
71.8
64.9
56.3
46.54
36.77
28.25
21.93
18.09
16.18
15.07
13.38
9.99
4.45
-2.91
-11.18
-19.21
-25.87
-30.33
-32.03
-30.78
-26.74
-20.5
-12.95
-5.02
2.54
9.46
15.88
22.15
28.45
34.57
39.98
44.12
46.67
47.74
47.84
47.63
47.75
48.66
50.61
53.62
57.43
61.54
65.28
67.98
69.17
68.74
66.84
63.8
59.95
55.55
50.78
45.93
41.31
37.19
33.52
29.95
25.76
20.18
12.57
2.72
-9.01
-21.85
-34.75
-46.56
-56.19
-62.72
-65.39
-63.75
-57.74
-47.84
-35.07
-20.78
-6.34
7.17
19.15
29.42
37.97
44.77
49.64
52.4
53.15
52.33
50.65
48.79
47.14
45.67
44.05
41.94
39.14
35.77
32.1
28.45
24.97
21.62
18.15
14.18
9.28
3.15
-4.28
-12.61
-20.92
-27.89
-32.14
-32.72
-29.5
-23.34
-15.77
-8.52
-2.96
0.21
0.96
-0.27
-2.83
-6.01
-9.23
-12.05
-14.34
-16.27
-18.34
-21.08
-24.77
-29.2
-33.64
-37.05
-38.48
-37.45
-34.09
-29.09
-23.44
-18.05
-13.42
-9.44
-5.45
-0.53
6.04
14.47
24.25
34.39
43.78
51.64
57.65
61.93
64.86
66.77
67.81
67.93
66.94
64.7
61.23
56.78
51.8
46.84
42.42
38.79
35.92
33.5
31.14
28.51
25.5
22.17
18.75
15.49
12.6
10.25
8.39
6.78
4.97
2.48
-0.96
-5.3
-10.12
-14.83
-18.9
-22.11
-24.59
-26.66
-28.68
-30.92
-33.6
-37.03
-41.56
-47.48
-54.71
-62.62
-70.02
-75.47
-77.75
-76.24
-71.14
-63.19
-53.4
-42.71
-31.82
-21.27
-11.5
-2.96
4.07
9.52
13.66
16.96
19.96
23.15
26.87
31.4
36.85
43.13
49.79
55.96
60.6
62.88
62.55
60.11
56.6
53.15
50.48
48.8
47.88
47.32
46.95
46.74
46.72
46.73
46.36
45
42.18
37.74
32.04
25.74
19.58
13.99
8.94
3.94
-1.71
-8.49
-16.45
-25.17
-34
-42.41
-50.22
-57.57
-64.73
-71.8
-78.56
-84.51
-89.07
-91.74
-92.19
-90.23
-85.88
-79.3
-70.93
-61.4
-51.55
-42.04
-33.3
-25.32
-17.88
-10.68
-3.57
3.42
10.1
16.33
22.05
27.32
32.25
36.89
41.25
45.31
49.04
52.41
55.32
57.54
58.76
58.76
57.61
55.7
53.67
52.07
51.25
51.16
51.45
51.68
51.44
50.52
48.8
46.27
43.06
39.44
35.82
32.64
30.2
28.43
26.92
24.98
21.99
17.57
11.79
5.16
-1.64
-7.89
-13.17
-17.51
-21.35
-25.32
-30.04
-35.75
-42.32
-49.24
-55.91
-61.85
-66.77
-70.58
-73.24
-74.76
-75.19
-74.73
-73.74
-72.62
-71.67
-71
-70.42
-69.55
-67.87
-64.84
-60.02
-53.26
-44.79
-35.3
-25.82
-17.34
-10.58
-5.69
-2.42
-0.24
1.35
2.74
4.28
6.36
9.3
13.24
17.95
22.81
27.04
30.09
31.83
32.59
32.91
33.26
33.84
34.53
35.05
35.1
34.49
33.21
31.39
29.28
27.13
25.11
23.29
21.59
19.87
18.04
16.06
13.94
11.65
9.01
5.82
1.91
-2.56
-7.05
-10.72
-12.69
-12.37
-9.69
-5.09
0.67
6.75
12.56
17.77
22.38
26.51
30.31
33.88
37.2
40.15
42.52
44.1
44.72
44.43
43.46
42.2
41.04
40.16
39.49
38.75
37.64
36.03
34.01
31.79
29.55
27.33
24.99
22.34
19.22
15.62
11.64
7.44
3.14
-1.26
-5.94
-11.14
-17.15
-24.11
-31.99
-40.47
-49.07
-57.25
-64.62
-71.05
-76.79
-82.33
-88.3
-95.36
-103.85
-113.7
-124.17
-133.81
-140.66
-142.73
-138.6
-128.04
-112.21
-93.37
-74.15
-56.79
-42.54
-31.57
-23.28
-16.87
-11.74
-7.67
-4.62
-2.57
-1.33
-0.56
-0.03
0.39
0.6
0.34
-0.58
-2.17
-4.24
-6.4
-8.27
-9.66
-10.71
-11.87
-13.72
-16.69
-20.77
-25.49
-29.91
-32.91
-33.52
-31.22
-26.1
-18.86
-10.53
-2.15
5.59
12.5
18.72
24.43
29.64
33.97
37
38.44
38.39
37.31
35.81
34.36
33.16
32.25
31.62
31.4
31.76
32.74
34.06
35.15
35.3
34.04
31.34
27.6
23.49
19.57
16.1
12.96
9.81
6.33
2.37
-1.97
-6.52
-11
-15.17
-18.77
-21.52
-23.13
-23.39
-22.31
-20.14
-17.26
-14.05
-10.73
-7.34
-3.78
0.01
3.92
7.73
11.12
13.89
15.99
17.55
18.75
19.82
20.85
21.75
22.35
22.39
21.76
20.51
18.93
17.33
15.97
14.84
13.72
12.32
10.51
8.32
5.9
3.43
0.92
-1.62
-4.15
-6.46
-8.23
-9.32
-9.98
-10.81
-12.52
-15.42
-19.15
-22.58
-24.26
-22.98
-18.3
-10.73
-1.57
7.6
15.35
20.72
23.27
23.07
20.59
16.64
12.3
8.8
7.28
8.55
12.87
19.91
28.82
38.53
48.04
56.7
64.29
70.96
76.91
82.17
86.43
89.09
89.51
87.41
83
76.97
70.26
63.8
58.33
54.46
52.56
52.69
54.39
56.64
58.17
57.84
55.19
50.6
44.99
39.31
34.1
29.3
24.61
19.85
15.09
10.51
6.04
1.21
-4.66
-11.94
-20.3
-28.71
-35.86
-40.88
-43.71
-45.15
-46.28
-47.89
-50.04
-52.07
-53
-52.05
-48.92
-43.88
-37.55
-30.59
-23.57
-16.79
-10.41
-4.57
0.54
4.61
7.41
8.82
8.99
8.33
7.27
6.16
5.03
3.76
2.08
-0.1
-2.73
-5.53
-8.18
-10.52
-12.53
-14.44
-16.6
-19.35
-22.93
-27.39
-32.61
-38.3
-44.06
-49.5
-54.3
-58.38
-61.87
-65.1
-68.5
-72.42
-77.15
-82.7
-88.73
-94.56
-99.19
-101.5
-100.63
-96.2
-88.56
-78.65
-67.68
-56.77
-46.58
-37.25
-28.44
-19.69
-10.64
-1.34
7.76
15.89
22.31
26.62
28.99
30.06
30.64
31.3
32.14
32.81
32.84
32.04
30.58
28.9
27.38
26.16
25.03
23.68
21.92
19.79
17.55
15.45
13.6
11.89
10.05
7.83
5.09
1.85
-1.69
-5.33
-8.93
-12.48
-16.08
-19.95
-24.27
-29.18
-34.73
-40.85
-47.32
-53.69
-59.33
-63.56
-65.86
-66.04
-64.39
-61.5
-58.04
-54.47
-50.89
-47.13
-42.96
-38.29
-33.26
-28.1
-22.99
-18
-13.06
-8.14
-3.34
1.12
5.01
8.23
10.82
12.97
14.9
16.77
18.62
20.4
21.99
23.24
24.08
24.48
24.51
24.28
23.92
23.46
22.88
22.14
21.16
19.92
18.42
16.69
14.74
12.61
10.33
8.02
5.82
3.9
2.3
1.03
0.01
-0.88
-1.67
-2.33
-2.78
-2.98
-2.94
-2.85
-3
-3.76
-5.49
-8.35
-12.25
-16.73
-21.15
-24.71
-26.74
-26.78
-24.79
-21.05
-16.13
-10.75
-5.5
-0.81
3.2
6.68
9.91
13.2
16.7
20.4
24.18
27.85
31.27
34.41
37.27
39.85
42.13
44.08
45.63
46.74
47.4
47.62
47.39
46.72
45.58
44.08
42.4
40.77
39.32
37.97
36.44
34.4
31.68
28.4
24.94
21.71
18.93
16.58
14.44
12.35
10.35
8.58
7.11
5.7
3.78
0.76
-3.69
-9.44
-15.98
-22.72
-29.27
-35.61
-42.07
-49.1
-57.08
-66.23
-76.56
-87.86
-99.63
-111.05
-121.04
-128.53
-132.77
-133.57
-131.36
-126.87
-120.8
-113.62
-105.5
-96.46
-86.55
-75.85
-64.47
-52.59
-40.44
-28.27
-16.29
-4.51
7.41
20.06
33.93
49.03
64.68
79.75
93.25
105
115.86
127.43
141.27
158.09
177.18
196.49
213.08
223.89
226.63
220.4
205.9
184.98
159.77
131.72
101.15
67.63
31.09
-6.87
-42.27
-69.28
-81.89
-76.24
-52.49
-15.22
27.59
66.74
94.19
104.64
95.92
68.54
25.21
-29.29
-88.17
-143.19
-186.41
-212.33
-219.61
-210.91
-190.89
-163.48
-130.08
-90.04
-42.99
8.66
58.84
99.53
124.17
130.69
122.41
106.32
89.82
77.78
71.33
68.72
66.83
63.13
56.55
47.38
36.76
26.16
17.15
11.43
10.56
15.28
24.82
36.4
45.56
47.49
38.8
19.15
-8.24
-37.25
-60.64
-72.35
-69.35
-52.45
-26.03
3.56
29.95
48.59
57.8
58.69
54.12
47.15
39.79
32.61
25.08
16.46
6.56
-4.05
-14.26
-23.04
-29.78
-34.43
-37.54
-40.09
-43.49
-49.42
-59.38
-74.02
-92.42
-111.79
-128.05
-137.2
-136.85
-127.42
-112.14
-95.93
-83.59
-78.01
-79.19
-84.57
-90.2
-92.46
-89.39
-80.87
-68.04
-52.2
-34.11
-14.04
7.47
29.04
48.47
63.46
73.02
78.1
81.34
85.92
94.05
106.01
120.19
133.89
144.31
149.48
148.55
141.81
130.5
116.49
101.79
88
75.85
65.06
54.78
44.19
33.05
21.76
10.98
1.04
-8.28
-17.68
-27.83
-38.98
-50.84
-62.78
-74.18
-84.57
-93.62
-101
-106.36
-109.36
-109.83
-107.81
-103.51
-97.26
-89.5
-80.83
-72.02
-63.94
-57.29
-52.31
-48.55
-45.04
-40.58
-34.25
-25.6
-14.86
-2.83
9.17
19.59
26.89
29.91
28.28
22.7
14.78
6.67
0.41
-2.73
-2.61
-0.12
3.3
6.38
8.64
10.44
12.72
16.27
21.27
27.11
32.76
37.35
40.51
42.47
43.56
43.85
42.99
40.48
36.1
30.26
24.02
18.69
15.36
14.53
16.07
19.33
23.47
27.6
31.02
33.22
34.02
33.59
32.46
31.38
31.17
32.33
34.92
38.46
42.05
44.58
45.09
43.02
38.47
32.08
24.88
17.88
11.77
6.63
2.11
-2.37
-7.19
-12.33
-17.38
-21.85
-25.44
-28.23
-30.62
-33.08
-35.86
-38.88
-41.85
-44.4
-46.36
-47.74
-48.67
-49.32
-49.65
-49.5
-48.56
-46.59
-43.49
-39.47
-35.04
-30.84
-27.49
-25.35
-24.41
-24.25
-24.19
-23.46
-21.46
-17.95
-13.19
-7.88
-2.92
0.86
3.05
3.7
3.31
2.52
1.83
1.41
1.13
0.78
0.19
-0.61
-1.47
-2.27
-3.02
-3.89
-5.12
-6.94
-9.3
-12.04
-14.89
-17.55
-19.81
-21.56
-22.78
-23.55
-23.95
-24.06
-23.88
-23.31
-22.23
-20.58
-18.39
-15.83
-13.16
-10.63
-8.4
-6.51
-4.92
-3.58
-2.4
-1.35
-0.38
0.5
1.18
1.38
0.77
-0.91
-3.63
-6.96
-10.03
-11.72
-11.05
-7.43
-0.94
7.61
16.9
25.36
31.66
34.96
35.15
32.75
28.69
23.88
18.97
14.21
9.65
5.29
1.32
-1.99
-4.45
-6.13
-7.46
-8.97
-11.06
-13.7
-16.44
-18.68
-19.98
-20.24
-19.76
-19
-18.37
-17.99
-17.68
-17.05
-15.7
-13.4
-10.18
-6.37
-2.38
1.3
4.37
6.72
8.4
9.56
10.39
11.01
11.51
11.95
12.41
12.96
13.66
14.49
15.37
16.1
16.45
16.2
15.26
13.76
11.96
10.22
8.81
7.85
7.31
7.04
6.87
6.63
6.17
5.36
4.16
2.6
0.83
-1.03
-2.9
-4.73
-6.56
-8.37
-10.09
-11.68
-13.1
-14.51
-16.15
-18.25
-20.78
-23.49
-25.89
-27.48
-27.94
-27.22
-25.44
-22.78
-19.37
-15.35
-10.92
-6.42
-2.27
1.15
3.7
5.52
6.93
8.28
9.75
11.31
12.83
14.24
15.52
16.77
18.02
19.2
20.13
20.6
20.48
19.81
18.78
17.63
16.61
15.82
15.29
14.94
14.61
14.19
13.57
12.72
11.68
10.45
9.03
7.37
5.48
3.43
1.43
-0.27
-1.47
-2.14
-2.42
-2.62
-3.07
-4.02
-5.58
-7.72
-10.34
-13.27
-16.39
-19.49
-22.37
-24.81
-26.62
-27.56
-27.5
-26.35
-24.17
-21.18
-17.71
-14.04
-10.47
-7.14
-4.14
-1.55
0.64
2.49
4.17
5.93
8
10.42
13.03
15.47
17.44
18.76
19.53
19.95
20.21
20.35
20.33
20.16
19.89
19.64
19.47
19.31
19
18.4
17.49
16.41
15.33
14.36
13.45
12.46
11.24
9.75
8.06
6.27
4.44
2.55
0.55
-1.53
-3.6
-5.48
-7.03
-8.2
-9.04
-9.7
-10.38
-11.32
-12.68
-14.56
-16.94
-19.67
-22.49
-25.1
-27.11
-28.21
-28.21
-27.03
-24.82
-21.82
-18.3
-14.49
-10.57
-6.62
-2.75
0.91
4.21
7.03
9.35
11.24
12.82
14.22
15.52
16.71
17.72
18.45
18.75
18.58
18.01
17.25
16.62
16.38
16.61
17.12
17.55
17.54
16.93
15.85
14.58
13.36
12.25
11.12
9.76
8.11
6.33
4.72
3.56
2.88
2.49
2.01
1.15
-0.21
-1.95
-3.79
-5.52
-6.99
-8.23
-9.38
-10.65
-12.25
-14.32
-16.91
-19.88
-22.94
-25.71
-27.8
-28.94
-29.07
-28.25
-26.68
-24.58
-22.16
-19.52
-16.69
-13.61
-10.2
-6.44
-2.39
1.77
5.76
9.29
12.15
14.2
15.48
16.13
16.36
16.38
16.3
16.2
16.08
15.99
16.01
16.25
16.76
17.38
17.87
17.96
17.58
16.86
16.12
15.62
15.33
14.98
14.1
12.44
10.01
7.16
4.37
2.04
0.32
-0.93
-1.96
-3.1
-4.51
-6.34
-8.63
-11.35
-14.41
-17.63
-20.77
-23.6
-26.04
-28.18
-30.31
-32.77
-35.76
-39.21
-42.78
-45.92
-48.11
-49.1
-48.93
-47.94
-46.63
-45.35
-44.33
-43.53
-42.77
-41.87
-40.8
-39.65
-38.67
-38.12
-38.27
-39.3
-41.19
-43.76
-46.59
-49.33
-51.93
-54.75
-58.43
-63.53
-70.02
-76.94
-82.5
-84.51
-81.07
-71.03
-54.1
-30.89
-2.87
27.52
57.13
82.82
102.47
115.5
122.93
126.87
129.31
130.98
130.94
127.17
117.86
102.87
83.31
61.34
39.44
19.8
3.87
-7.86
-15.53
-19.51
-19.31
-14.51
-4.67
10.84
32.33
59.04
88.4
116.27
138
150.84
153.46
146.35
131.55
111.81
89.56
66.56
44.35
19.61
-5.29
-25.58
-38.17
-43.82
-45.48
-45.7
-45.26
-43.71
-40.97
-36.83
-34.54
-38.31
-50.72
-71.03
-95.61
-119.67
-139.54
-153.97
-163.25
-167.72
-168.14
-164.4
-155.41
-140.23
-119.41
-95.49
-72.17
-52.37
-37.61
-27.49
-19.7
-11.17
0.25
14.64
30.03
43.4
52.52
56.67
56.92
55.64
55.25
56.99
60.53
64.47
67.33
68.43
67.92
66.24
63.77
60.34
55.25
47.62
36.87
23.11
7.18
-9.61
-26.02
-41.1
-54.41
-65.75
-74.97
-81.74
-85.64
-86.3
-83.74
-78.49
-71.45
-63.64
-55.89
-48.67
-42.09
-36.02
-30.31
-25.02
-20.39
-16.74
-14.2
-12.49
-10.93
-8.7
-5.23
-0.46
5.21
11.19
17.05
22.69
28.24
33.8
39.2
43.99
47.62
49.75
50.36
49.77
48.46
46.84
45.18
43.63
42.29
41.24
40.52
40
39.44
38.49
36.79
34.18
30.71
26.67
22.43
18.27
14.25
10.25
6.04
1.38
-3.84
-9.65
-15.9
-22.18
-27.82
-32
-33.88
-32.95
-29.17
-23
-15.26
-6.85
1.53
9.51
17.01
24.15
31.03
37.67
43.92
