-52.16
-52.05
-52.7
-53.68
-54.66
-55.57
-56.61
-58.23
-60.87
-64.59
-68.87
-72.71
-74.97
-74.88
-72.25
-67.48
-61.27
-54.23
-46.74
-38.9
-30.76
-22.51
-14.44
-6.94
-0.35
5.11
9.36
12.39
14.34
15.49
16.41
17.83
20.49
24.96
31.33
39.18
47.65
55.72
62.61
67.93
71.75
74.34
75.93
76.54
76.06
74.35
71.46
67.72
63.56
59.39
55.32
51.24
46.91
42.2
37.17
32.07
27.18
22.6
18.2
13.68
8.8
3.49
-2.04
-7.43
-12.39
-16.81
-20.9
-25.06
-29.78
-35.31
-41.58
-48.05
-53.82
-57.81
-59.04
-57.04
-51.98
-44.7
-36.45
-28.46
-21.58
-16.06
-11.69
-8.05
-4.87
-2.27
-0.66
-0.55
-2.27
-5.73
-10.43
-15.54
-20.15
-23.44
-24.91
-24.47
-22.45
-19.55
-16.82
-15.41
-16.41
-20.53
-27.83
-37.61
-48.49
-58.76
-66.86
-71.85
-73.61
-72.78
-70.37
-67.25
-63.76
-59.63
-54.13
-46.51
-36.35
-23.76
-9.37
5.91
21.14
35.48
48.34
59.31
68.12
74.68
79.05
81.45
82.27
81.95
80.91
79.38
77.43
74.93
71.77
67.94
63.67
59.35
55.4
52.11
49.44
47.09
44.58
41.53
37.86
33.71
29.45
25.43
21.81
18.53
15.3
11.72
7.49
2.47
-3.17
-9
-14.33
-18.39
-20.48
-20.19
-17.51
-12.85
-6.87
-0.28
6.29
12.49
18.19
23.47
28.44
33.13
37.49
41.4
44.65
47.05
48.5
49.03
48.88
48.39
47.85
47.58
47.87
48.88
50.63
52.93
55.4
57.61
58.96
58.97
57.71
55.96
54.82
55.08
56.82
59.24
61.08
60.63
56.5
48.64
38.55
28.32
19.55
12.54
6.29
-0.7
-10.58
-24.92
-43.35
-63.13
-80.35
-91.3
-93.31
-85.09
-66.68
-40.94
-13.18
10.34
24.06
24.27
10.37
-14.16
-45.76
-74.52
-90.4
-90.38
-80.28
-67.59
-55.97
-45.36
-34.54
-22.39
-8.86
3.34
10.7
11.69
8.31
4.67
4.84
11.17
23.66
40.67
58.02
71.78
80.19
84.22
85.97
87.18
88.55
89.61
89.15
83.83
71.73
53.8
33.3
13.33
-4.78
-21.23
-36.46
-50.04
-62.85
-73.93
-80.85
-82.08
-79.49
-78.17
-84
-100.96
-130.07
-172.72
-226.45
-284.57
-338.13
-379.18
-402.47
-405.62
-389.12
-336.18
-247.84
-143.94
-50.91
15.5
54.33
73.16
80.76
84.57
87.86
88.13
83.5
75.12
66.29
59.28
54.54
51.04
47.46
42.78
34.67
23.31
11.69
3.8
1.83
5.3
12.03
19.74
26.97
31.91
34.46
35.95
37.96
40.87
43.7
45
43.85
40.16
34.04
26.55
19.44
14.5
12.77
14.3
18.6
25.08
33.15
42.05
51
59.34
66.41
71.73
75.08
76.6
76.66
75.51
73.07
69.08
63.33
55.97
47.58
38.91
30.67
23.29
17.02
12.12
9.01
8.1
9.59
13.23
18.23
23.56
28.19
31.46
33.13
33.24
32.02
29.66
26.38
22.46
18.32
14.47
11.39
9.36
8.41
8.31
8.76
9.62
11.01
13.34
17.18
23.03
31.09
41.09
52.23
63.22
72.53
78.67
80.65
78.26
72.19
63.81
54.72
46.3
39.46
34.5
31.45
30.21
30.85
33.46
38.03
44.19
51.22
58.15
64.12
68.65
71.74
73.7
74.96
75.78
76.11
75.7
74.27
71.68
68.04
63.63
58.7
53.3
47.31
40.57
33.1
25.23
17.5
10.41
4.13
-1.62
-7.4
-13.82
-21.14
-29.26
-37.76
-46.17
-54.16
-61.59
-68.44
-74.69
-80.22
-84.86
-88.49
-91.05
-92.53
-92.96
-92.36
-90.78
-88.3
-85.11
-81.41
-77.36
-73.14
-68.89
-64.86
-61.4
-58.83
-57.28
-56.55
-56.09
-55.24
-53.58
-51.1
-48.22
-45.5
-43.34
-41.83
-40.83
-40.17
-39.9
-40.28
-41.64
-44.13
-47.53
-51.27
-54.65
-57.04
-58.08
-57.71
-56.11
-53.56
-50.38
-46.88
-43.37
-40.14
-37.43
-35.35
-33.9
-32.92
-32.31
-32.02
-32.11
-32.72
-33.83
-35.27
-36.65
-37.62
-37.99
-37.94
-37.98
-38.8
-41.06
-45.13
-50.96
-58.07
-65.79
-73.44
-80.58
-87.05
-92.92
-98.42
-103.66
-108.55
-112.85
-116.22
-118.36
-119.01
-117.92
-114.71
-109.11
-100.81
-89.59
-75.54
-59.17
-41.43
-23.52
-6.59
8.43
20.46
28.58
32.19
31.13
25.86
17.61
8.08
-0.91
-8.11
-13.8
-18.97
-24.46
-30.06
-34.29
-34.83
-29.49
-17.18
1.51
23.65
45.73
64.91
79.71
89.85
95.6
97.34
95.57
94.94
97.94
104.66
112.77
119.54
123.63
125.28
125.66
125.77
127.11
129.76
133.4
137.72
142.52
147.59
152.39
155.06
154.14
149.14
140.21
128.63
116.37
105.29
96.42
89.71
84.3
79.16
73.37
65.87
56.05
43.94
30.23
16.09
2.63
-9.38
-19.49
-27.63
-34.12
-39.22
-42.98
-45.4
-46.65
-47.16
-47.55
-48.2
-49.13
-50.07
-50.59
-50.31
-49.2
-47.5
-45.65
-44
-42.68
-41.49
-40.15
-38.34
-35.87
-32.77
-29.28
-25.76
-22.55
-19.88
-17.74
-15.9
-14.07
-11.94
-9.4
-6.5
-3.41
-0.4
2.34
4.74
6.83
8.79
10.81
12.98
15.22
17.26
18.77
19.53
19.57
19.21
18.89
19.05
19.88
21.31
23.04
24.72
25.99
26.61
26.53
25.86
24.88
23.97
23.44
23.48
24.07
25.02
26.12
27.2
28.16
28.85
29.06
28.51
27.05
24.78
22.13
19.69
17.88
16.75
16.01
15.16
13.85
12.07
10.04
8
5.96
3.64
0.62
-3.26
-7.71
-12.07
-15.63
-17.99
-19.22
-19.77
-20.17
-20.65
-21.1
-21.18
-20.54
-19.09
-16.96
-14.4
-11.62
-8.72
-5.75
-2.81
-0.07
2.3
4.2
5.6
6.58
7.16
7.37
7.21
6.76
6.16
5.49
4.73
3.67
2.05
-0.28
-3.19
-6.26
-8.95
-10.83
-11.73
-11.88
-11.72
-11.78
-12.41
-13.66
-15.31
-16.95
-18.24
-19.02
-19.41
-19.72
-20.18
-20.89
-21.67
-22.25
-22.45
-22.2
-21.58
-20.76
-19.78
-18.62
-17.15
-15.31
-13.13
-10.79
-8.57
-6.77
-5.62
-5.14
-5.15
-5.38
-5.55
-5.53
-5.39
-5.33
-5.52
-6.02
-6.69
-7.35
-7.87
-8.25
-8.55
-8.83
-8.98
-8.83
-8.28
-7.43
-6.62
-6.26
-6.61
-7.56
-8.63
-9.23
-8.88
-7.56
-5.69
-3.97
-2.98
-2.96
-3.77
-5.03
-6.4
-7.67
-8.82
-9.84
-10.71
-11.32
-11.57
-11.45
-11.1
-10.74
-10.58
-10.75
-11.27
-12.07
-12.96
-13.75
-14.2
-14.23
-13.9
-13.47
-13.27
-13.55
-14.32
-15.31
-16.17
-16.61
-16.61
-16.35
-16.09
-16.04
-16.2
-16.44
-16.57
-16.45
-16.01
-15.31
-14.36
-13.2
-11.87
-10.4
-8.84
-7.33
-5.98
-4.85
-3.92
-3.11
-2.3
-1.44
-0.49
0.46
1.25
1.74
1.88
1.71
1.36
0.98
0.65
0.32
-0.09
-0.65
-1.3
-1.88
-2.18
-2.09
-1.67
-1.17
-0.89
-1.08
-1.78
-2.86
-4.06
-5.19
-6.04
-6.49
-6.46
-5.88
-4.75
-3.22
-1.51
0.08
1.37
2.29
2.96
3.51
4.08
4.65
5.17
5.55
5.74
5.74
5.64
5.54
5.62
6.09
7.12
8.75
10.79
12.86
14.49
15.3
15.16
14.18
12.73
11.2
9.9
9.01
8.53
8.35
8.3
8.1
7.53
6.44
4.85
2.98
1.18
-0.18
-0.83
-0.71
-0.02
0.97
1.85
2.37
2.4
1.97
1.2
0.26
-0.73
-1.63
-2.3
-2.58
-2.4
-1.78
-0.93
-0.18
0.18
0.01
-0.57
-1.23
-1.63
-1.56
-1.08
-0.4
0.23
0.68
1
1.3
1.69
2.16
2.63
2.99
3.21
3.34
3.5
3.78
4.15
4.51
4.72
4.74
4.61
4.5
4.54
4.81
5.31
5.96
6.67
7.35
7.9
8.23
8.25
7.91
7.28
6.5
5.81
5.39
5.32
5.59
6.1
6.69
7.19
7.37
7.11
6.41
5.49
4.71
4.41
4.77
5.75
7.05
8.37
9.54
10.58
11.63
12.82
14.19
15.59
16.86
17.83
18.53
19.1
19.75
20.67
21.84
23.15
24.33
25.1
25.27
24.79
23.74
22.3
20.69
19.11
17.81
16.99
16.82
17.34
18.48
19.88
21.09
21.61
21.22
20
18.39
16.88
15.84
15.28
14.93
14.43
13.62
12.56
11.52
10.71
10.15
9.67
9
8.02
6.83
5.61
4.54
3.65
2.8
1.82
0.63
-0.77
-2.28
-3.82
-5.38
-7
-8.73
-10.56
-12.4
-14.15
-15.72
-17.14
-18.43
-19.66
-20.79
-21.75
-22.47
-22.91
-23.15
-23.36
-23.72
-24.33
-25.2
-26.23
-27.23
-28.02
-28.52
-28.77
-28.89
-29
-29.15
-29.22
-29.02
-28.43
-27.51
-26.53
-25.81
-25.57
-25.76
-26.08
-26.17
-25.81
-25.07
-24.25
-23.69
-23.59
-23.9
-24.42
-24.87
-25.07
-25
-24.72
-24.34
-23.92
-23.51
-23.26
-23.32
-23.85
-24.86
-26.15
-27.27
-27.76
-27.43
-26.45
-25.41
-25.01
-25.79
-27.86
-30.87
-34.19
-37.19
-39.52
-41.24
-42.69
-44.3
-46.35
-48.88
-51.63
-54.23
-56.29
-57.53
-57.83
-57.29
-56.2
-54.97
-54.06
-53.83
-54.36
-55.46
-56.69
-57.58
-57.83
-57.32
-56.2
-54.64
-52.75
-50.47
-47.73
-44.52
-40.95
-37.18
-33.36
-29.56
-25.83
-22.33
-19.27
-16.89
-15.22
-13.92
-12.34
-9.73
-5.57
0.19
7.18
14.87
22.84
31.01
39.51
48.46
57.75
67
75.64
83.19
89.41
94.37
98.26
101.31
103.59
105.06
105.65
105.41
104.55
103.45
102.39
101.47
100.52
99.1
96.73
93.08
88.06
81.87
74.92
67.65
60.44
53.53
47.05
41.03
35.46
30.32
25.58
21.33
17.69
14.78
12.69
11.33
10.43
9.64
8.69
7.44
5.97
4.49
3.21
2.18
1.35
0.61
-0.17
-0.98
-1.82
-2.67
-3.59
-4.69
-6.06
-7.74
-9.66
-11.65
-13.45
-14.82
-15.51
-15.41
-14.57
-13.23
-11.79
-10.67
-10.14
-10.24
-10.76
-11.26
-11.28
-10.46
-8.67
-6.08
-3.14
-0.45
1.51
2.48
2.63
2.45
2.49
3.09
4.2
5.37
5.97
5.54
4.02
1.79
-0.52
-2.37
-3.53
-4.14
-4.54
-5.1
-6.05
-7.42
-9.09
-10.86
-12.6
-14.15
-15.39
-16.23
-16.65
-16.66
-16.33
-15.78
-15.07
-14.22
-13.23
-12.14
-11.03
-9.95
-8.97
-8.1
-7.28
-6.4
-5.33
-4.03
-2.58
-1.2
-0.18
0.3
0.25
-0.08
-0.36
-0.27
0.25
0.97
1.56
1.72
1.37
0.66
-0.12
-0.74
-1.12
-1.28
-1.32
-1.31
-1.33
-1.48
-1.92
-2.84
-4.31
-6.2
-8.21
-9.99
-11.34
-12.21
-12.73
-13.09
-13.36
-13.51
-13.41
-12.97
-12.18
-11.21
-10.29
-9.72
-9.71
-10.35
-11.61
-13.27
-15.03
-16.61
-17.84
-18.66
-19.12
-19.28
-19.17
-18.78
-18.19
-17.44
-16.62
-15.65
-14.35
-12.44
-9.77
-6.45
-2.96
0.09
2.18
3.19
3.43
3.48
3.86
4.81
6.32
8.2
10.4
12.96
15.98
19.42
23.09
26.62
29.72
32.29
34.4
36.13
37.52
38.63
39.55
40.39
41.17
41.7
41.56
40.15
37.04
32.39
27.33
23.68
23.29
27.14
34.79
44.27
52.6
56.35
52.91
41.35
22.93
0.75
-20.87
-37.63
-46.41
-46.41
-40.09
-31.71
-25.49
-23.93
-27.3
-33.89
-41.09
-46.56
-49.31
-51.39
-55.63
-63.85
-75.85
-89.78
-102.97
-112.6
-116.43
-113.58
-107.27
-101.99
-101.36
-107.13
-119.24
-136.2
-155.07
-171.78
-182.34
-187.15
-188.52
-188.79
-189.55
-191.8
-196.03
-201.29
-204.94
-186.34
-134.9
-57.01
26.1
93.2
134.24
150.56
149.97
141.68
132.61
123.28
110.93
94.45
75.72
58.05
43.97
34.32
28.65
26.03
23.96
20.23
15.75
12.77
12.25
12.16
8.35
-3.29
-24.8
-56.6
-95.86
-136.88
-173.02
-199.01
-212.41
-213.38
-204.09
-187.7
-167.91
-147.25
-126.55
-105.61
-84.19
-62.56
-41.06
-19.84
1.38
22.97
45.86
70.67
97.28
124.84
151.94
177.55
200.45
218.85
230.78
236.12
235.48
229.9
220.53
207.68
192.55
175.54
156.3
135.05
116.37
104.97
103.43
111.1
123.53
138.55
154.7
171.34
189.39
215.16
252.69
300.94
353.93
401.64
439.87
466.64
480.63
481.63
476.05
468.62
460.36
449.41
431.22
409.59
389.38
373.16
321.46
215.89
66.93
-92.04
-208.06
-284.34
-331.95
-360.68
-382.66
-402.61
-415.6
-416.45
-403.48
-380
-355.31
-333.05
-315.71
-304.92
-299.55
-291.8
-274.76
-246.29
-209.98
-174.97
-145.41
-122.99
-107.43
-96.07
-82.92
-64.13
-40.2
-15.73
1.85
9.63
7.83
-0.86
-11.7
-18.49
-17.14
-7.46
6.86
19.39
25.61
23.18
12.32
-4.39
-22.81
-39.13
-51.05
-58.03
-61.02
-60.81
-58.04
-53.11
-46.27
-37.83
-28.34
-18.61
-9.49
-1.58
5.02
10.73
16.33
22.46
29.38
36.7
43.43
48.32
50.27
48.86
44.55
38.7
33.09
29.18
27.57
27.75
28.35
27.83
25.1
19.9
12.82
4.9
-2.75
-9.29
-14.29
-17.69
-19.76
-21.01
-22.08
-23.51
-25.58
-28
-30
-30.52
-28.66
-23.95
-16.53
-6.87
4.58
17.67
32.66
49.89
69.35
90.28
111.12
129.78
144.2
152.89
155.3
151.81
143.48
131.71
117.88
103.21
88.65
74.95
62.75
52.46
44.24
37.89
32.87
28.42
23.8
18.61
12.88
7.07
1.8
-2.52
-5.95
-9.14
-13.1
-18.88
-27.17
-38.04
-50.92
-64.72
-78.06
-89.54
-98.12
-103.42
-105.89
-106.59
-106.71
-106.95
-107.07
-105.92
-101.95
-93.99
-81.94
-66.92
-50.91
-36.04
-23.73
-14.3
-7.08
-1.02
4.68
10.19
15.15
19.23
22.56
25.87
30
35.22
40.67
44.52
44.67
39.8
29.99
16.72
2.39
-10.47
-19.65
-23.4
-20.62
-11.16
3.6
20.46
34.86
42.38
40.46
29.82
14.28
-0.69
-10.37
-12.66
-8.7
-1.89
3.93
6.19
4.23
-1.07
-8.33
-16.48
-25.11
-34.05
-42.9
-50.81
-56.62
-59.41
-58.97
-56.01
-51.81
-47.71
-44.63
-42.9
-42.43
-43.06
-44.69
-47.35
-51.03
-55.65
-61.12
-67.35
-74.19
-81.13
-87.1
-90.51
-89.73
-83.75
-72.6
-57.37
-39.7
-21.09
-2.42
16.08
34.46
52.6
69.96
85.64
98.6
108.1
113.81
115.95
115.23
112.61
109.05
105.21
101.26
96.92
91.73
85.44
78.27
70.86
63.92
57.95
52.86
48.16
43.19
37.45
30.82
23.44
15.5
7.11
-1.73
-10.98
-20.32
-29.06
-36.25
-40.98
-42.65
-41.15
-36.92
-30.7
-23.37
-15.7
-8.24
-1.36
4.71
9.78
13.68
16.29
17.61
17.77
17.06
15.81
14.29
12.65
10.93
9.16
7.43
5.88
4.68
3.87
3.32
2.73
1.78
0.18
-2.2
-5.38
-9.34
-14.07
-19.5
-25.44
-31.46
-36.94
-41.11
-43.26
-42.87
-39.77
-34.17
-26.63
-17.91
-8.87
-0.26
7.38
13.69
18.55
21.87
23.63
23.85
22.65
20.38
17.59
14.91
12.87
11.59
10.83
10.07
8.89
7.11
4.92
2.71
0.79
-0.85
-2.51
-4.67
-7.73
-11.84
-16.96
-22.81
-28.99
-34.91
-39.85
-43.01
-43.67
-41.47
-36.53
-29.47
-21.18
-12.57
-4.31
3.2
9.85
15.56
20.17
23.4
24.96
24.74
22.88
19.87
16.4
13.14
10.5
8.51
6.81
4.86
2.29
-0.95
-4.48
-7.69
-10.08
-11.53
-12.44
-13.54
-15.6
-19.12
-24.12
-30.16
-36.5
-42.21
-46.3
-47.93
-46.5
-41.91
-34.59
-25.47
-15.67
-6.2
2.33
9.74
16.11
21.57
26.1
29.51
31.61
32.28
31.62
29.94
27.68
25.26
23.04
21.17
19.6
18.05
16.27
14.1
11.58
8.94
6.38
3.93
1.3
-1.94
-6.24
-11.78
-18.42
-25.66
-32.87
-39.31
-44.23
-46.93
-46.82
-43.63
-37.51
-29.2
-19.76
-10.32
-1.7
5.77
12.23
18.01
23.4
28.4
32.79
36.2
38.3
38.95
38.27
36.63
34.53
32.45
30.69
29.31
28.12
26.85
25.3
23.44
21.37
19.23
17.08
14.84
12.43
9.82
7.05
4.21
1.27
-1.92
-5.55
-9.61
-13.82
-17.65
-20.7
-22.81
-24.34
-26
-28.53
-32.4
-37.55
-43.4
-48.94
-52.95
-54.29
-52.23
-46.66
-38.24
-28.07
-17.44
-7.25
2.18
11
19.55
27.89
35.64
42.11
46.65
48.98
49.36
48.4
46.79
44.99
43.15
41.18
39.01
36.65
34.29
32.1
30.12
28.23
26.19
23.81
21.03
17.93
14.56
10.86
6.66
1.79
-3.78
-9.78
-15.81
-21.38
-26.17
-30.12
-33.4
-36.35
-39.37
-42.84
-47.12
-52.39
-58.48
-64.78
-70.2
-73.41
-73.28
-69.35
-62.01
-52.38
-41.85
-31.54
-21.97
-13.13
-4.79
3.12
10.32
16.32
20.7
23.41
24.75
25.28
25.49
25.67
25.87
26
25.96
25.69
25.22
24.59
23.92
23.32
22.88
22.54
22.05
21.01
18.94
15.61
11.2
6.33
1.9
-1.27
-2.86
-3.26
-3.4
-4.4
-7.05
-11.44
-17
-22.65
-27.26
-29.96
-30.46
-28.92
-25.79
-21.42
-15.94
-9.17
-0.83
9.15
20.27
31.13
39.67
43.67
41.58
33.25
20.28
5.87
-5.93
-11.3
-8.33
2.34
17.25
30.91
36.97
30.1
7.96
-27.57
-70.25
-111.92
-144.55
-162.7
-165.1
-154.71
-137.06
-117.47
-99.22
-82.79
-68.5
-57.03
-49.46
-46.07
-45.71
-45.61
-42
-32.34
-16.33
1.98
16.41
21.41
14.57
-3.6
-30.27
-61
-90.95
-105.74
-93.93
-53.25
6.93
71.78
127.72
165.55
184.31
184.12
166.65
133.98
89.55
37.96
-12.95
-55.69
-85.7
-101.91
-106.54
-102.69
-94.5
-85.64
-78.43
-73.35
-69.88
-66.91
-62.98
-57.03
-48.02
-36.17
-22.53
-8.24
6.16
20.42
34.38
47.85
60.26
71.05
79.38
84.48
85.97
83.95
78.58
70.05
58.86
46.05
33.61
23.78
18.33
17.83
21.46
27.31
33.33
38.28
42.09
45.59
49.73
54.84
60.41
65.42
68.85
70.16
69.37
66.88
63.18
58.68
53.66
48.34
42.93
37.61
32.55
27.89
23.71
20.08
16.94
14.09
11.12
7.56
3
-2.68
-9.25
-16.24
-23.09
-29.38
-34.96
-39.94
-44.68
-49.63
-55.22
-61.69
-69.08
-77.1
-85.14
-92.24
-97.25
-99.07
-96.96
-90.78
-81.13
-69.11
-55.99
-42.76
-29.9
-17.36
-4.95
7.45
19.55
30.73
40.28
47.65
52.69
55.63
56.93
57.1
56.57
55.57
54.25
52.8
51.44
50.44
49.97
50.01
50.33
50.55
50.26
49.21
47.24
44.32
40.43
35.68
30.26
24.52
18.88
13.64
8.89
4.44
-0.09
-5.08
-10.73
-16.94
-23.37
-29.48
-34.62
-38.21
-39.75
-38.95
-35.71
-30.21
-22.78
-13.96
-4.36
5.4
14.75
23.28
30.77
37.12
42.32
46.39
49.32
51.13
51.86
51.58
50.43
48.59
46.27
43.71
41.17
38.83
36.8
35.04
33.36
31.52
29.29
26.54
23.24
19.46
15.28
10.8
6.15
1.44
-3.21
-7.73
-12.06
-16.14
-19.91
-23.34
-26.47
-29.51
-32.81
-36.77
-41.65
-47.35
-53.36
-58.76
-62.52
-63.78
-62.15
-57.76
-51.16
-43.11
-34.37
-25.51
-16.88
-8.68
-0.96
6.26
12.87
18.71
23.52
27.04
29.07
29.63
28.97
27.54
25.81
24.23
22.99
22.1
21.36
20.46
19.14
17.3
15.04
12.64
10.36
8.29
6.24
3.91
0.99
-2.52
-6.37
-10.17
-13.6
-16.62
-19.39
-22.17
-25.14
-28.44
-32.17
-36.42
-41.24
-46.39
-51.24
-54.84
-56.16
-54.58
-50.07
-43.26
-35.15
-26.69
-18.48
-10.68
-3.16
4.23
11.48
18.35
24.47
29.53
33.35
35.92
37.34
37.77
37.35
36.29
34.88
33.41
32.14
31.14
30.34
29.5
28.38
26.81
24.81
22.54
20.17
17.8
15.4
12.75
9.6
5.8
1.42
-3.25
-7.81
-11.94
-15.55
-18.84
-22.22
-26.18
-31.06
-36.98
-43.76
-50.94
-57.77
-63.31
-66.52
-66.54
-62.95
-56.04
-46.82
-36.8
-27.44
-19.63
-13.45
-8.17
-2.75
3.64
11.16
19.31
27.2
33.99
39.12
42.37
43.74
43.19
40.73
36.41
30.51
23.41
15.48
6.93
-2.27
-12.25
-23
-34.24
-45.5
-56.24
-66.02
-74.55
-81.59
-86.87
-90.06
-90.89
-89.15
-84.91
-78.42
-70.22
-61.07
-51.98
-44
-38.05
-34.47
-32.87
-32.12
-30.73
-27.35
-21.25
-12.5
-1.88
9.52
20.67
30.82
39.67
47.22
53.65
59.11
63.67
67.33
70.11
72.09
73.48
74.39
74.81
74.47
73
70.21
66.24
61.63
57.07
53.11
49.93
47.34
44.96
42.52
39.94
37.29
34.65
31.96
29.04
25.71
21.91
17.75
13.47
9.31
5.49
2.13
-0.79
-3.4
-5.9
-8.57
-11.66
-15.32
-19.58
-24.3
-29.13
-33.51
-36.72
-38.05
-36.98
-33.42
-27.75
-20.74
-13.2
-5.81
1.05
7.3
12.98
18.17
22.91
27.19
30.94
34.02
36.22
37.37
37.38
36.36
34.6
32.45
30.21
28.01
25.88
23.81
21.84
20.06
18.54
17.19
15.76
13.9
11.34
8.01
4.08
-0.05
-3.96
-7.37
-10.27
-12.86
-15.49
-18.48
-21.98
-25.87
-29.82
-33.29
-35.69
-36.48
-35.33
-32.17
-27.29
-21.22
-14.63
-8.06
-1.84
3.95
9.39
14.47
19.05
22.78
25.37
26.67
26.81
26.1
24.94
23.56
22.07
20.5
18.93
17.53
16.48
15.84
15.45
14.94
13.89
12.04
9.44
6.32
3.07
-0.01
-2.76
-5.16
-7.26
-9.14
-10.91
-12.77
-14.99
-17.82
-21.3
-25.12
-28.52
-30.47
-30.04
-26.74
-20.7
-12.62
-3.51
5.72
14.46
22.5
29.93
36.98
43.82
50.49
56.86
62.65
67.51
71.14
73.42
74.4
74.37
73.75
72.96
72.32
71.86
71.3
70.05
67.34
62.42
54.75
44.21
31.13
16.3
0.84
-14.03
-27.22
-38.01
-46.22
-52.23
-56.76
-60.62
-64.39
-68.26
-72.14
-75.78
-78.85
-81.03
-81.8
-80.57
-76.73
-69.94
-60.36
-48.63
-35.8
-22.88
-10.7
0.32
10.09
18.73
26.37
33.06
38.67
42.91
45.44
45.92
44.32
40.9
36.31
31.31
26.61
22.58
19.24
16.31
13.47
10.56
7.57
4.61
1.83
-0.75
-3.17
-5.52
-7.93
-10.5
-13.36
-16.64
-20.41
-24.62
-29.11
-33.62
-37.95
-41.98
-45.79
-49.51
-53.26
-56.93
-60.13
-62.26
-62.6
-60.6
-56.09
-49.38
-41.21
-32.47
-23.87
-15.69
-7.82
0.13
8.43
17.02
25.42
32.91
38.83
42.94
45.45
46.97
48.16
49.44
50.78
51.79
51.92
50.83
48.62
45.93
43.83
43.4
45.34
49.61
55.22
60.42
62.85
59.99
49.55
29.86
0.44
-37.53
-81.1
-125.82
-166.71
-199.44
-221.35
-231.72
-231.48
-222.26
-205.82
-183.75
-157.83
-130.34
-103.99
-81.37
-63.96
-51.61
-42.6
-34.52
-25.33
-14.28
-1.99
10.04
20.29
27.99
33.31
37.14
40.45
43.83
47.27
50.26
52.24
52.88
52.27
50.85
49.16
47.58
46.18
44.8
43.21
41.29
39.11
36.87
34.82
33.07
31.56
30.07
28.26
25.93
22.95
19.35
15.33
11.19
7.2
3.55
0.25
-2.82
-5.8
-8.88
-12.15
-15.5
-18.4
-20.12
-19.91
-17.4
-12.63
-6.01
1.63
9.34
16.54
23.2
29.69
36.57
43.87
51.43
58.93
65.69
70.75
73.43
73.63
71.82
68.97
65.61
62.18
58.9
55.15
49.53
40.65
27.79
10.99
-8.67
-30.03
-51.39
-67.76
-73.81
-67.49
-51.79
-32.41
-16.33
-4.17
4.56
10.22
12.7
11.66
6.34
-3.19
-15.4
-27.89
-38.11
-45.14
-49.3
-51.55
-53.25
-55.47
-58.21
-60.33
-60.26
-56.64
-49.59
-40.14
-29.69
-19.72
-11.35
-4.94
-0.02
4.08
7.98
11.54
14.34
16.15
16.93
16.89
16.4
15.84
15.3
14.7
13.78
12.55
11.46
11.15
12.07
14.26
17.29
20.56
23.67
26.56
29.56
33.07
37.24
41.87
46.41
50.34
53.36
55.52
57.11
58.44
59.68
60.76
61.42
61.31
60.14
57.73
54.12
49.59
44.57
39.57
35.04
31.19
27.89
24.76
21.28
17.02
11.88
6.12
0.25
-5.12
-9.61
-13.12
-15.8
-17.86
-19.4
-20.36
-20.61
-20.1
-18.96
-17.52
-16.17
-15.21
-14.78
-14.82
-15.15
-15.6
-16.07
-16.54
-17.08
-17.74
-18.55
-19.54
-20.76
-22.33
-24.52
-27.63
-31.9
-37.33
-43.44
-49.3
-53.71
-55.61
-54.44
-50.48
-44.7
-38.46
-33.05
-29.37
-27.79
-28.25
-30.38
-33.58
-37.03
-39.75
-40.72
-39.11
-34.53
-27.2
-17.92
-7.86
1.8
10.17
16.83
21.86
25.63
28.54
30.82
32.52
33.56
33.98
34.04
34.13
34.53
35.23
35.79
35.65
34.39
32.05
29.19
26.6
24.94
24.4
24.63
24.94
24.66
23.43
21.29
18.55
15.61
12.71
9.88
6.97
3.79
0.23
-3.74
-8.08
-12.79
-17.89
-23.4
-29.1
-34.45
-38.66
-40.84
-40.36
-37.17
-31.82
-25.27
-18.49
-12.06
-6.04
-0.14
5.94
12.13
17.91
22.54
25.38
26.3
25.73
24.5
23.42
22.91
22.89
22.87
22.33
21.08
19.27
17.3
15.52
13.97
12.41
10.42
7.68
4.08
-0.21
-4.86
-9.43
-13.6
-17.22
-20.38
-23.4
-26.71
-30.7
-35.57
-41.37
-48
-55.3
-62.97
-70.48
-76.96
-81.38
-82.93
-81.41
-77.3
-71.53
-64.89
-57.68
-49.63
-40.28
-29.47
-17.65
-5.72
5.34
14.85
22.58
28.61
33.2
36.58
39
40.76
42.2
43.59
45
46.24
46.97
46.88
45.91
44.25
42.25
40.21
38.18
35.84
32.62
27.94
21.55
13.66
4.87
-4.12
-12.89
-21.48
-30.32
-39.9
-50.47
-61.97
-74
-86.02
-97.32
-106.97
-113.91
-117.28
-116.91
-113.62
-108.95
-104.43
-100.63
-96.64
-90.4
-79.67
-63.13
-41.03
-15.1
12.06
37.85
60.15
77.62
89.59
96.14
98.1
96.96
94.62
92.82
92.81
94.99
98.95
103.74
108.06
110.57
110.14
106.11
98.49
87.99
75.84
63.33
51.45
40.62
30.74
21.37
12.11
2.73
-6.74
-16.14
-25.22
-33.79
-41.76
-49.18
-56.19
-63.04
-70.01
-77.32
-85.05
-93.07
-101.08
-108.47
-114.39
-117.74
-117.39
-112.36
-102.24
-87.4
-69.03
-48.94
-29.17
-11.55
2.73
13.26
20.35
24.79
27.46
29.09
30.12
30.68
30.7
30.03
28.56
26.32
23.51
20.49
17.72
15.65
14.65
14.91
16.43
18.93
21.94
24.82
26.9
27.7
27.05
25.23
22.84
20.55
18.92
18.21
18.41
19.33
20.66
22.07
23.16
23.54
22.92
21.22
18.66
15.76
13.2
11.58
11.31
12.37
14.35
16.49
17.92
17.85
15.86
12.02
6.92
1.45
-3.39
-6.79
-8.23
-7.56
-4.88
-0.47
5.28
11.96
19.17
26.52
33.73
40.57
46.95
52.77
57.83
61.85
64.53
65.7
65.42
63.87
61.28
57.77
53.46
48.56
43.52
38.9
35.07
31.93
28.82
24.72
18.79
10.77
0.99
-9.99
-21.91
-35.04
-50.01
-67.24
-86.58
-107.14
-127.61
-146.6
-162.88
-175.39
-183.16
-185.37
-181.58
-172.06
-157.91
-140.91
-123.01
-105.85
-90.43
-77.17
-66.07
-57.04
-50.04
-45.1
-42.19
-41.12
-41.31
-41.82
-41.42
-38.91
-33.54
-25.35
-15.2
-4.45
5.55
14
20.83
26.54
31.88
37.33
42.94
48.36
53.05
56.54
58.73
59.79
60.09
59.99
59.64
59.01
57.97
56.47
54.68
52.98
51.76
51.18
51.02
50.73
49.75
47.75
44.8
41.31
37.76
34.43
31.33
28.28
25.07
21.6
17.86
13.83
9.43
4.54
-0.9
-6.73
-12.52
-17.63
-21.43
-23.45
-23.41
-21.31
-17.31
-11.82
-5.35
1.49
8.19
14.46
20.25
25.69
30.89
35.79
40.08
43.4
45.52
46.49
46.65
46.46
46.22
46.03
45.75
45.18
44.22
42.9
41.33
39.67
37.98
36.31
34.59
32.75
30.68
28.24
25.38
22.13
18.68
15.26
12.06
9.1
6.25
3.27
0.01
-3.54
-7.17
-10.45
-12.78
-13.55
-12.34
-9.13
-4.37
1.08
6.26
10.4
13.2
14.93
16.22
17.8
20.14
23.26
26.76
29.93
32.06
32.61
31.42
28.68
24.83
20.35
15.6
10.76
5.83
0.82
-4.13
-8.79
-12.87
-16.24
-18.97
-21.39
-24.02
-27.34
-31.64
-36.86
-42.66
-48.47
-53.8
-58.39
-62.2
-65.42
-68.29
-70.95
-73.43
-75.59
-77.13
-77.61
-76.5
-73.29
-67.69
-59.76
-49.96
-39.07
-27.86
-16.85
-6.18
4.4
15.27
26.68
38.61
50.75
62.64
73.83
84.04
93.13
101.13
108.17
114.31
119.64
124.12
127.76
130.64
132.9
134.78
136.45
138
139.38
140.46
141.12
141.23
140.65
139.07
136.05
131.06
123.74
114.08
102.45
89.43
75.55
61.13
46.23
30.8
14.81
-1.61
-18.32
-35.15
-52.06
-69.09
-86.31
-103.68
-120.99
-137.9
-153.95
-168.76
-182.08
-194
-204.94
-215.49
-226.17
-237.02
-247.44
-256.28
-262.1
-263.56
-259.7
-249.92
-233.97
-211.83
-183.76
-150.54
-113.61
-75.04
-37.18
-2.22
28.33
53.82
74.36
90.52
103.05
112.74
120.48
127.24
134
141.44
149.65
157.93
165.05
169.66
170.82
168.28
162.41
153.87
143.23
130.75
116.54
100.82
84.22
67.76
52.66
39.85
29.72
21.92
15.61
9.8
3.85
-2.33
-8.24
-13.07
-16.09
-17
-16.06
-14
-11.67
-9.78
-8.71
-8.55
-9.22
-10.69
-13.02
-16.37
-20.9
-26.65
-33.54
-41.3
-49.61
-58.09
-66.45
-74.45
-81.96
-88.87
-95.04
-100.34
-104.55
-107.55
-109.3
-109.82
-109.16
-107.31
-104.3
-100.2
-95.28
-90
-84.84
-80.12
-75.81
-71.55
-66.85
-61.47
-55.6
-49.84
-45.04
-41.9
-40.7
-41.18
-42.7
-44.45
-45.77
-46.32
-46.11
-45.5
-44.98
-45.05
-46.1
-48.27
-51.33
-54.61
-57.08
-57.49
-54.81
-48.56
-39.01
-27.12
-14.13
-1.11
11.35
23.16
34.53
45.64
56.49
66.76
76.12
84.23
90.94
96.22
100.12
102.73
104.23
104.84
104.85
104.52
104
103.37
102.56
101.46
99.92
97.78
94.93
91.33
87.13
82.65
78.28
74.44
71.4
69.23
67.79
66.84
66.06
65.19
64.01
62.35
60.16
57.41
54.13
50.33
46.01
41.16
35.79
29.98
23.92
17.82
11.81
5.82
-0.47
-7.5
-15.65
-25.03
-35.38
-46.12
-56.55
-66.04
-74.14
-80.67
-85.63
-89.12
-91.21
-92
-91.71
-90.73
-89.65
-89.16
-89.75
-91.53
-94.03
-96.31
-97.18
-95.72
-91.58
-85.14
-77.39
-69.49
-62.33
-56.24
-50.94
-45.77
-40.08
-33.56
-26.38
-19.04
-12.11
-5.96
-0.66
3.92
7.97
11.54
14.55
16.93
18.7
20.08
21.38
22.89
24.71
26.76
28.79
30.48
31.55
31.84
31.32
30.19
28.75
27.35
26.21
25.2
23.86
21.53
17.64
11.98
4.86
-2.94
-10.36
-16.32
-20.03
-21.09
-19.58
-15.99
-10.97
-5.2
0.79
6.65
12.19
17.35
22.12
26.58
30.78
34.79
38.59
42
44.72
46.46
47.1
46.85
46.15
45.55
45.47
46.04
47.07
48.17
48.94
49.09
48.5
47.25
45.53
43.59
41.63
39.76
37.9
35.8
33.13
29.69
25.48
20.88
16.46
12.85
10.4
9.05
8.31
7.48
5.88
3.08
-0.9
-5.7
-10.68
-15.2
-18.87
-21.68
-24.03
-26.55
-29.84
-34.13
-39.22
-44.46
-48.96
-51.91
-52.71
-51.12
-47.27
-41.56
-34.59
-27.09
-19.73
-13.04
-7.28
-2.42
1.74
5.48
9.06
12.52
15.79
18.62
20.78
22.13
22.71
22.71
22.43
22.17
22.15
22.41
22.81
23.16
23.26
23.03
22.55
21.98
21.51
21.24
21.13
21
20.66
19.91
18.75
17.28
15.66
13.93
12.09
10.06
7.88
5.7
3.76
2.17
0.91
-0.3
-1.71
-3.42
-5.18
-6.51
-6.9
-6.06
-4.04
-1.21
1.82
4.4
5.87
5.67
3.45
-0.85
-6.91
-14.09
-21.55
-28.51
-34.38
-38.85
-41.71
-42.78
-41.81
-38.63
-33.29
-26.24
-18.35
-10.69
-4.29
0.14
2.37
2.64
1.51
-0.36
-2.4
-4.34
-6.18
-8.16
-10.63
-13.87
-17.97
-22.68
-27.42
-31.38
-33.68
-33.64
-31.02
-26.09
-19.57
-12.38
-5.37
0.98
6.59
11.68
16.52
21.29
25.96
30.31
34.05
36.95
38.91
39.92
40.09
39.52
38.31
36.59
34.55
32.47
30.66
29.37
28.7
28.48
28.33
27.78
26.42
24.06
20.9
17.36
14
11.17
8.94
7.05
5
2.34
-1.21
-5.68
-10.89
-16.49
-22.02
-26.9
-30.47
-32.15
-31.58
-28.79
-24.19
-18.4
-12.04
-5.55
0.82
6.93
12.59
17.55
21.59
24.63
26.8
28.39
29.67
30.85
31.96
32.87
33.33
33.02
31.68
29.2
25.74
21.66
17.43
13.41
9.67
5.94
1.8
-3.14
-9
-15.57
-22.4
-28.97
-34.92
-40.04
-44.32
-47.92
-51.07
-54.07
-57.17
-60.55
-64.14
-67.64
-70.48
-71.95
-71.34
-68.17
-62.37
-54.27
-44.6
-34.25
-24.02
-14.4
-5.5
2.83
10.75
18.27
25.14
31.02
35.63
38.95
41.19
42.67
43.69
44.4
44.83
45.02
45.04
45.07
45.27
45.73
46.33
46.78
46.72
45.9
44.2
41.72
38.72
35.52
32.45
29.73
27.45
25.58
23.97
22.45
20.84
19.05
17.01
14.77
12.39
9.93
7.37
4.52
1.17
-2.88
-7.69
-13.14
-19.07
-25.39
-32.2
-39.66
-47.81
-56.37
-64.7
-71.93
-77.33
-80.58
-81.73
-81.09
-78.83
-74.89
-68.97
-60.83
-50.55
-38.66
-26.04
-13.71
-2.61
6.69
14
19.54
23.79
27.34
30.6
33.72
36.58
38.95
40.68
41.82
42.56
43.09
43.45
43.52
43.2
42.46
41.5
40.56
39.75
39
38.02
36.45
34.08
30.92
27.14
23.01
18.7
14.27
9.64
4.7
-0.65
-6.42
-12.55
-18.98
-25.67
-32.57
-39.51
-46.2
-52.24
-57.29
-61.18
-63.98
-65.84
-66.83
-66.75
-65.12
-61.43
-55.37
-47.12
-37.3
-26.85
-16.68
-7.48
0.46
7.22
13.05
18.2
22.78
26.68
29.62
31.36
31.88
31.45
30.57
29.76
29.39
29.49
29.87
30.15
30.09
29.61
28.83
27.96
27.14
26.4
25.65
24.76
23.69
22.42
21
19.46
17.8
15.96
13.85
11.41
8.59
5.33
1.56
-2.73
-7.51
-12.61
-17.76
-22.74
-27.36
-31.54
-35.25
-38.41
-40.83
-42.24
-42.28
-40.74
-37.57
-32.89
-26.98
-20.19
-12.91
-5.55
1.44
7.66
12.87
17.06
20.51
23.68
27.08
31.03
35.53
40.18
44.37
47.39
48.75
48.29
46.15
42.7
38.3
33.23
27.56
21.28
14.41
7.11
-0.32
-7.49
-13.98
-19.49
-23.85
-27.1
-29.48
-31.29
-32.88
-34.41
-35.87
-37.11
-37.99
-38.45
-38.55
-38.39
-38.07
-37.68
-37.34
-37.24
-37.63
-38.7
-40.5
-42.78
-45.01
-46.51
-46.59
-44.77
-40.91
-35.27
-28.45
-21.22
-14.25
-7.87
-1.99
3.83
10.03
16.8
23.87
30.64
36.49
41.02
44.25
46.44
47.92
48.89
49.39
49.43
49.14
48.86
49
49.84
51.34
53.07
54.36
54.62
53.58
51.45
48.68
45.78
42.96
39.99
36.34
31.42
24.94
17.08
8.45
-0.14
-7.96
-14.57
-19.92
-24.21
-27.76
-30.86
-33.71
-36.47
-39.39
-42.7
-46.65
-51.31
-56.5
-61.85
-66.84
-70.99
-74.03
-75.79
-76.19
-75.11
-72.39
-67.91
-61.75
-54.25
-45.96
-37.56
-29.7
-22.81
-17
-12.13
-7.81
-3.57
0.96
5.93
11.21
16.5
21.4
25.63
29.03
31.65
33.55
34.83
35.53
35.66
35.35
34.79
34.26
33.98
34.04
34.37
34.81
35.19
35.49
35.77
36.09
36.39
36.45
35.94
34.6
32.4
29.57
26.46
23.39
20.48
17.67
14.78
11.67
8.34
4.88
1.42
-1.93
-5.17
-8.32
-11.44
-14.55
-17.68
-20.85
-24.09
-27.43
-30.84
-34.22
-37.41
-40.26
-42.64
-44.46
-45.68
-46.19
-45.96
-44.91
-43.02
-40.29
-36.76
-32.52
-27.76
-22.76
-17.9
-13.58
-10.09
-7.53
-5.64
-4.04
-2.25
0
2.73
5.73
8.7
11.36
13.58
15.35
16.72
17.73
18.4
18.73
18.81
18.71
18.48
18.02
17.14
15.68
13.62
11.21
8.81
6.79
5.19
3.83
2.37
0.63
-1.29
-3.03
-4.24
-4.88
-5.27
-6
-7.62
-10.37
-14.15
-18.6
-23.33
-27.94
-32.04
-35.17
-36.86
-36.77
-34.89
-31.58
-27.45
-23.15
-19.1
-15.48
-12.35
-9.77
-7.87
-6.79
-6.47
-6.6
-6.66
-6.19
-4.94
-2.99
-0.7
1.5
3.26
4.33
4.64
4.25
3.33
2.17
1.07
0.29
-0.06
-0.04
0.19
0.37
0.3
-0.22
-1.27
-2.88
-5.04
-7.67
-10.83
-14.68
-19.53
-25.52
-32.36
-39.04
-44.05
-45.76
-43.12
-36.17
-26.2
-15.27
-5.59
1.29
4.83
5.52
4.54
3.26
2.81
3.76
6.13
9.5
13.28
16.94
20.26
23.27
26.19
29.24
32.57
36.3
40.56
45.4
50.64
55.66
59.38
60.53
58.21
52.3
43.72
34.1
25.2
18.3
13.87
11.62
10.86
10.9
11.29
11.84
12.41
12.75
12.51
11.26
8.77
5.15
0.95
-3.12
-6.41
-8.66
-10.17
-11.52
-13.3
-15.82
-18.92
-22.31
-25.76
-29.4
-33.6
-38.79
-45.13
-52.39
-60.01
-67.33
-73.72
-78.66
-81.71
-82.46
-80.61
-76.14
-69.38
-61
-51.84
-42.61
-33.7
-25.09
-16.55
-7.81
1.16
10.1
18.6
26.21
32.7
38.09
42.55
46.25
49.32
51.7
53.29
54.03
53.93
53.03
51.37
48.98
45.91
42.36
38.69
35.43
33.03
31.71
31.35
31.43
31.28
30.3
28.16
24.94
20.97
16.72
12.58
8.87
5.75
3.38
1.84
1.02
0.56
-0.15
-1.78
-4.77
-9.04
-14.02
-18.8
-22.58
-24.82
-25.42
-24.53
-22.46
-19.48
-15.82
-11.61
-6.96
-1.9
3.55
9.34
15.29
21.08
26.15
30
32.22
32.78
31.97
30.25
28.13
25.92
23.78
21.66
19.53
17.37
15.2
13.04
10.85
8.52
6.01
3.44
1.02
-0.98
-2.42
-3.33
-3.95
-4.52
-5.22
-6.08
-7.01
-7.89
-8.65
-9.26
-9.65
-9.68
-9.17
-8
-6.23
-4.16
-2.3
-1.24
-1.52
-3.49
-7.17
-12.25
-18.05
-23.63
-28.01
-30.34
-30.12
-27.32
-22.36
-15.97
-9.01
-2.27
3.79
9.04
13.64
17.9
22.04
26.12
29.93
33.13
35.32
36.25
35.87
34.37
32.13
29.65
27.42
25.83
24.96
24.6
24.27
23.38
21.5
18.52
14.69
10.47
6.35
2.69
-0.31
-2.61
-4.25
-5.35
-6.04
-6.53
-7.09
-7.95
-9.27
-11
-13
-15.13
-17.36
-19.88
-22.94
-26.7
-31.01
-35.28
-38.62
-40.13
-39.22
-35.82
-30.41
-23.83
-16.94
-10.42
-4.62
0.39
4.72
8.52
11.94
15.15
18.29
21.49
24.78
28.02
30.89
33
33.98
33.71
32.29
30.15
27.88
26.09
25.25
25.5
26.59
27.97
28.94
28.86
27.41
24.6
20.8
16.51
12.19
8.09
4.3
0.73
-2.71
-6.01
-9.15
-12.07
-14.81
-17.51
-20.35
-23.43
-26.58
-29.39
-31.26
-31.54
-29.86
-26.2
-21.02
-15.03
-9.04
-3.59
1.1
5.25
9.2
13.31
17.68
22.13
26.33
29.9
32.59
34.28
34.97
34.67
33.44
31.39
28.77
25.95
23.38
21.38
20.09
19.38
18.97
18.48
17.66
16.39
14.66
12.46
9.74
6.36
2.27
-2.4
-7.23
-11.62
-15.01
-17.15
-18.27
-19.02
-20.2
-22.39
-25.69
-29.6
-33.26
-35.71
-36.31
-34.9
-31.8
-27.61
-22.95
-18.23
-13.6
-8.98
-4.21
0.86
6.28
11.96
17.62
22.9
27.37
30.64
32.47
32.82
31.85
29.85
27.19
24.21
21.21
18.48
16.23
14.57
13.46
12.68
11.9
10.83
9.27
7.16
4.51
1.36
-2.27
-6.35
-10.78
-15.22
-19.23
-22.34
-24.3
-25.24
-25.66
-26.31
-27.75
-30.09
-32.78
-34.87
-35.41
-33.88
-30.5
-26.03
-21.41
-17.32
-13.93
-10.93
-7.85
-4.29
-0.17
4.38
9.04
13.49
17.42
20.53
22.59
23.45
23.17
22
20.3
18.47
16.81
15.43
14.34
13.45
12.63
11.69
10.39
8.5
5.87
2.52
-1.31
-5.22
-8.82
-11.95
-14.76
-17.59
-20.83
-24.63
-28.77
-32.65
-35.49
-36.56
-35.47
-32.31
-27.65
-22.35
-17.24
-12.93
-9.62
-7.15
-5.14
-3.14
-0.74
2.31
6.12
10.58
15.41
20.07
23.94
26.44
27.21
26.28
24.11
21.43
19.01
17.34
16.54
16.31
16.13
15.5
14.13
12.01
9.3
6.26
3.08
-0.05
-2.96
-5.56
-7.89
-10.07
-12.36
-14.98
-17.92
-20.89
-23.36
-24.79
-24.84
-23.51
-21.12
-18.16
-15.09
-12.18
-9.45
-6.78
-3.95
-0.8
2.63
6.14
9.33
11.8
13.19
13.36
12.38
10.51
8.15
5.65
3.26
1.1
-0.72
-2.07
-2.75
-2.65
-1.88
-0.85
-0.17
-0.4
-1.77
-4.04
-6.63
-8.93
-10.51
-11.35
-11.74
-12.15
-12.99
-14.53
-16.84
-19.76
-22.86
-25.51
-27
-26.76
-24.54
-20.52
-15.21
-9.32
-3.5
1.82
6.51
10.62
14.34
17.79
21.02
23.93
26.33
28.07
29.01
29.14
28.46
26.99
24.73
21.76
18.26
14.55
10.95
7.67
4.74
1.99
-0.81
-3.79
-6.89
-9.87
-12.39
-14.22
-15.33
-15.87
-16.11
-16.29
-16.57
-17.05
-17.86
-19.17
-21.17
-23.99
-27.48
-31.19
-34.41
-36.4
-36.63
-34.97
-31.73
-27.49
-22.91
-18.47
-14.38
-10.54
-6.7
-2.57
2.05
7.16
12.51
17.63
21.99
25.07
26.51
26.29
24.64
22.07
19.16
16.39
14.04
12.16
10.65
9.41
8.41
7.66
7.17
6.8
6.24
5.12
3.13
0.2
-3.45
-7.35
-10.92
-13.75
-15.71
-17
-17.95
-18.78
-19.45
-19.66
-19.1
-17.71
-15.82
-13.93
-12.4
-11.08
-9.3
-6.23
-1.39
5
12.03
18.48
23.36
26.25
27.34
27.26
26.64
25.96
25.41
24.95
24.44
23.73
22.69
21.16
18.95
15.83
11.67
6.52
0.73
-5.17
-10.57
-15.08
-18.68
-21.73
-24.73
-28.03
-31.58
-34.91
-37.35
-38.33
-37.67
-35.58
-32.56
-29.09
-25.44
-21.7
-17.82
-13.83
-9.87
-6.13
-2.68
0.54
3.76
7.17
10.76
14.27
17.18
19.02
19.52
18.81
17.35
15.72
14.45
13.8
13.7
13.87
13.93
13.58
12.63
11.03
8.85
6.15
3.1
-0.05
-3.03
-5.62
-7.82
-9.88
-12.14
-14.84
-17.83
-20.57
-22.31
-22.44
-20.75
-17.49
-13.3
-8.82
-4.58
-0.81
2.43
5.13
7.28
8.92
10.18
11.28
12.41
13.57
14.51
14.8
14.11
12.49
10.39
8.58
7.76
8.2
9.61
11.23
12.23
12.09
10.82
8.88
6.9
5.29
4.04
2.81
1.11
-1.41
-4.82
-8.93
-13.4
-17.93
-22.24
-26.13
-29.32
-31.47
-32.22
-31.39
-29.07
-25.65
-21.74
-17.95
-14.72
-12.27
-10.55
-9.5
-9.08
-9.42
-10.67
-12.86
-15.64
-18.29
-19.82
-19.3
-16.18
-10.48
-2.72
6.2
15.34
23.86
31.23
37.14
41.53
44.47
46.07
46.44
45.68
43.91
41.34
38.2
34.74
31.1
27.28
23.16
18.63
13.69
8.44
2.98
-2.77
-8.94
-15.69
-22.91
-30.09
-36.37
-40.75
-42.41
-41.03
-36.88
-30.83
-24.09
-17.89
-13.16
-10.31
-9.13
-8.9
-8.68
-7.59
-5.14
-1.24
3.76
9.33
14.78
19.5
22.97
24.86
25.1
23.86
21.51
18.58
15.61
13.05
11.19
10.07
9.49
9.08
8.5
7.58
6.4
5.25
4.41
3.97
3.72
3.18
1.88
-0.44
-3.66
-7.38
-11.09
-14.4
-17.13
-19.34
-21.14
-22.49
-23.07
-22.3
-19.55
-14.41
-7.07
1.66
10.5
18.14
23.67
26.8
27.78
27.02
24.8
21.13
15.88
9.16
1.5
-6.17
-12.78
-17.51
-20.05
-20.61
-19.74
-18.19
-16.67
-15.82
-15.98
-17.13
-18.79
-20.21
-20.65
-19.75
-17.7
-15.08
-12.59
-10.69
-9.5
-8.91
-8.77
-9.03
-9.63
-10.4
-10.93
-10.64
-9.1
-6.14
-1.95
3.01
8.28
13.55
18.67
23.56
28.09
32.1
35.34
37.67
39.05
39.53
39.24
38.28
36.66
34.37
31.4
27.88
24.06
20.33
16.98
14.19
11.89
9.83
7.74
5.41
2.76
-0.11
-3.03
-5.85
-8.46
-10.84
-12.98
-14.91
-16.64
-18.23
-19.68
-20.92
-21.78
-22
-21.31
-19.58
-16.91
-13.61
-10.15
-6.95
-4.28
-2.09
-0.1
2.07
4.74
7.99
11.63
15.28
18.56
21.19
23.08
24.31
25.06
25.48
25.75
25.94
26.09
26.16
26.04
25.61
24.7
23.28
21.46
19.48
17.61
16.03
14.73
13.57
12.28
10.64
8.54
5.98
3.05
-0.21
-3.88
-8.11
-13.05
-18.63
-24.51
-30.09
-34.7
-37.74
-38.83
-37.88
-35.03
-30.62
-25.1
-18.99
-12.78
-6.86
-1.42
3.55
8.17
12.52
16.61
20.25
23.23
25.36
26.59
27.01
26.8
26.26
25.7
25.39
25.52
26.13
27.09
28.09
28.68
28.4
26.92
24.21
20.61
16.77
13.52
11.59
11.32
12.63
14.99
17.68
20.06
21.79
22.88
23.55
24.06
24.51
24.86
24.95
24.7
24.27
24.09
24.7
26.6
29.99
34.68
40.14
45.62
50.39
54.02
56.48
58.14
59.45
60.56
61.08
60.07
56.37
49.24
38.77
26.08
12.94
1.13
-8.18
-14.87
-19.74
-24.15
-29.46
-36.65
-46.19
-58
-71.67
-86.57
-102.05
-117.63
-133.09
-148.58
-164.41
-180.66
-196.52
-210
-218.09
-217.72
-206.98
-186.11
-157.74
-126.14
-95.79
-69.97
-49.97
-35.26
-24.32
-15.56
-7.93
-0.99
5.43
11.53
17.59
23.85
30.21
36.17
40.91
43.61
43.83
41.66
37.8
33.15
28.61
24.63
21.22
18.05
14.71
11.04
7.17
3.58
0.84
-0.55
-0.42
1.01
3.23
5.6
7.53
8.67
8.97
8.69
8.22
7.96
8.07
8.49
8.92
8.98
8.43
7.22
5.52
3.59
1.73
0.17
-0.92
-1.36
-0.94
0.61
3.47
7.58
12.54
17.63
22.06
25.2
26.83
27.09
26.42
25.29
24.06
22.91
21.85
20.88
20.01
19.35
19.01
19.07
19.49
20.01
20.28
19.97
18.92
17.32
15.56
14.09
13.16
12.65
12.18
11.34
9.87
7.83
5.44
2.89
0.24
-2.56
-5.52
-8.44
-10.87
-12.22
-12.03
-10.21
-7.02
-3.01
1.22
5.26
8.93
12.23
15.22
17.92
20.37
22.55
24.51
26.29
27.86
29.14
30.01
30.44
30.46
30.21
29.75
29.04
27.86
25.98
23.26
19.8
15.87
11.76
7.68
3.62
-0.48
-4.65
-8.75
-12.52
-15.75
-18.46
-20.9
-23.5
-26.64
-30.36
-34.36
-38
-40.58
-41.54
-40.63
-37.93
-33.8
-28.73
-23.21
-17.66
-12.3
-7.23
-2.5
1.87
5.77
9.09
11.76
13.8
15.27
16.24
16.74
16.76
16.29
15.46
14.48
13.62
13.05
12.83
12.83
12.81
12.57
11.98
11.08
10.06
9.19
8.73
8.88
9.58
10.54
11.24
11.14
9.79
6.89
2.27
-4.24
-12.78
-23.32
-35.35
-47.78
-59.1
-67.82
-73.08
-74.98
-74.51
-73.08
-71.83
-71.24
-71.05
-70.7
-69.66
-67.82
-65.39
-62.73
-60.08
-57.52
-54.94
-52.16
-49.02
-45.29
-40.7
-34.97
-27.85
-19.34
-9.71
0.56
10.89
20.68
29.46
36.84
42.57
46.56
48.95
50.08
50.49
50.72
51.17
51.93
52.79
53.33
53.13
52.01
50.02
47.5
44.81
42.25
39.93
37.87
36.04
34.46
33.02
31.3
28.38
23.06
14.36
2.03
-13.06
-29.13
-44
-55.73
-63.2
-66.19
-65.22
-61.25
-55.32
-48.37
-41.14
-34.11
-27.5
-21.35
-15.59
-10.06
-4.67
0.67
5.96
11.12
15.98
20.34
24.06
27.13
29.76
32.23
34.74
37.33
39.79
41.85
43.29
44.08
44.34
44.26
43.98
43.57
42.96
42.03
40.69
38.88
36.72
34.43
32.31
30.64
29.43
28.4
27.01
24.67
21.06
16.31
11
5.88
1.48
-2.06
-5.04
-7.97
-11.27
-15.13
-19.39
-23.64
-27.38
-30.1
-31.4
-31.07
-29.08
-25.65
-21.2
-16.23
-11.2
-6.38
-1.84
2.56
6.99
11.59
16.33
21.11
25.74
30.01
33.64
36.36
37.91
38.11
36.95
34.55
31.12
26.93
22.24
17.33
12.57
8.41
5.31
3.54
3.03
3.31
3.66
3.37
2.03
-0.37
-3.45
-6.73
-9.78
-12.43
-14.72
-16.77
-18.64
-20.25
-21.55
-22.54
-23.45
-24.62
-26.32
-28.59
-31.13
-33.49
-35.24
-36.27
-36.72
-36.87
-36.88
-36.68
-35.94
-34.27
-31.41
-27.42
-22.52
-17.11
-11.53
-5.97
-0.54
4.68
9.59
14.05
17.98
21.43
24.57
27.58
30.49
33.11
35.09
36.05
35.85
34.65
32.98
31.46
30.62
30.61
31.23
31.93
32.13
31.34
29.37
26.33
22.59
18.6
14.83
11.63
9.11
7.19
5.58
3.84
1.56
-1.55
-5.52
-10.1
-14.82
-19.13
-22.63
-25.18
-26.97
-28.52
-30.41
-33.07
-36.53
-40.4
-43.94
-46.29
-46.78
-45.1
-41.36
-36.07
-29.86
-23.37
-17.06
-11.19
-5.82
-0.91
3.63
7.82
11.65
15.07
18.06
20.64
22.86
24.8
26.48
27.84
28.78
29.29
29.43
29.39
29.4
29.61
29.96
30.18
29.86
28.68
26.48
23.4
19.76
15.97
12.33
8.98
5.86
2.81
-0.3
-3.5
-6.7
-9.74
-12.51
-15.03
-17.45
-19.95
-22.68
-25.7
-28.94
-32.26
-35.48
-38.4
-40.77
-42.29
-42.69
-41.8
-39.61
-36.25
-31.93
-26.85
-21.16
-14.99
-8.55
-2.19
3.68
8.64
12.49
15.23
17.09
18.47
19.72
21.06
22.5
23.83
24.8
25.19
24.93
24.15
23.12
22.11
21.32
20.8
20.48
20.24
19.94
19.44
18.62
17.35
15.55
13.22
10.44
7.47
4.57
1.95
-0.32
-2.35
-4.34
-6.55
-9.22
-12.56
-16.7
-21.62
-27.1
-32.64
-37.55
-41.07
-42.66
-42.11
-39.64
-35.81
-31.24
-26.45
-21.72
-17.04
-12.31
-7.41
-2.3
3.01
8.45
13.94
19.35
24.5
29.13
32.94
35.69
37.19
37.46
36.66
35.12
33.23
31.39
29.93
28.93
28.3
27.78
27.06
25.91
24.24
22.1
19.59
16.87
14.04
11.25
8.58
6.06
3.64
1.12
-1.71
-4.98
-8.64
-12.45
-16.13
-19.45
-22.4
-25.1
-27.77
-30.55
-33.5
-36.56
-39.6
-42.39
-44.65
-46.04
-46.21
-44.85
-41.87
-37.4
-31.84
-25.73
-19.57
-13.71
-8.24
-3.03
2.15
7.43
12.73
17.77
22.17
25.62
28.01
29.54
30.49
31.17
31.71
32.14
32.38
32.45
32.48
32.58
32.75
32.78
32.2
30.57
27.72
23.86
19.54
15.44
12
9.29
6.98
4.54
1.52
-2.33
-7
-12.2
-17.53
-22.55
-26.87
-30.28
-32.79
-34.62
-36.18
-37.88
-39.96
-42.42
-44.99
-47.15
-48.39
-48.27
-46.61
-43.44
-39.06
-33.85
-28.21
-22.46
-16.81
-11.34
-5.97
-0.48
5.34
11.63
18.29
24.93
30.89
35.48
38.19
38.93
38.06
36.3
34.49
33.37
33.35
34.5
36.62
39.34
42.17
44.6
46.15
46.36
44.96
41.87
37.27
31.53
25.08
18.22
11.01
3.33
-5.02
-14.07
-23.52
-32.69
-40.73
-46.98
-51.2
-53.77
-55.38
-56.58
-57.4
-57.21
-55.09
-50.34
-42.96
-33.71
-23.73
-14.02
-4.93
3.68
12.2
20.68
28.71
35.51
40.42
43.27
44.54
45.08
45.65
46.5
47.26
47.21
45.74
42.74
38.67
34.34
30.49
27.49
25.24
23.41
21.71
20.08
18.67
17.63
16.97
16.41
15.53
14
11.74
8.97
6.06
3.38
1.12
-0.7
-2.22
-3.65
-5.22
-7.12
-9.45
-12.22
-15.28
-18.41
-21.35
-23.88
-25.98
-27.78
-29.61
-31.85
-34.79
-38.51
-42.8
-47.13
-50.8
-53.09
-53.52
-52.06
-49.14
-45.48
-41.77
-38.35
-35.09
-31.53
-27.27
-22.23
-16.78
-11.58
-7.26
-4.19
-2.44
-1.94
-2.59
-4.12
-5.92
-6.83
-5.4
-0.51
8
19.03
30.57
40.52
47.53
51.36
52.65
52.28
50.83
48.51
45.41
41.9
38.73
36.72
36.38
37.52
39.29
40.6
40.56
38.92
36.09
32.93
30.32
28.77
28.26
28.38
28.69
29.05
29.68
30.96
32.77
34.27
33.97
30.37
22.72
11.44
-2.03
-15.94
-28.83
-39.96
-49.15
-56.37
-61.48
-64.21
-64.4
-62.33
-58.69
-54.25
-49.41
-43.91
-37.13
-28.64
-18.84
-9.31
-2.55
-1.32
-7.59
-21.68
-41.88
-64.68
-85.64
-100.54
-106.39
-102.03
-88.35
-68.15
-45.61
-25.65
-13.06
-11.49
-22.53
-44.97
-74.86
-106.21
-132.47
-148.08
-149.52
-135.84
-108.33
-70.1
-25.41
21
64.35
100.7
127.98
146.52
158.72
168.12
177.71
189.08
202.11
214.8
223.96
226.53
220.68
206.28
185.11
159.5
132.2
105.74
81.57
59.74
39.98
22.63
8.78
0.36
-1.76
2.58
12.94
27.66
43.6
57.37
66.23
68.47
64.09
53.16
36.7
20.49
12.24
16.73
32.68
54.52
72.05
84.37
92
95.16
93.09
87.51
78.04
64.46
47.66
29.4
12.27
-2.6
-14.76
-24
-30.66
-35.99
-40.92
-45.71
-50.08
-53.07
-54.69
-55.18
-54.65
-53.45
-52.51
-52.63
-54.28
-57.53
-61.99
-67.89
-75.73
-85.99
-98.95
-114.45
-131.12
-146.47
-157.7
-162.75
-161.4
-155.13
-146.17
-136.52
-127.32
-118.76
-110.62
-102.98
-96.38
-91.6
-88.84
-87.37
-85.6
-81.9
-75.29
-65.76
-54.2
-41.96
-30.26
-19.87
-11.09
-3.85
2.05
6.78
10.37
12.76
13.83
13.52
11.95
9.5
6.74
4.34
2.86
2.56
3.31
4.61
5.81
6.43
6.26
5.51
4.6
3.93
3.67
3.67
3.59
3.07
1.97
0.4
-1.33
-2.89
-4.01
-4.57
-4.56
-4.06
-3.07
-1.6
0.3
2.54
4.98
7.45
9.89
12.31
14.8
17.36
19.78
21.7
22.75
22.81
22.19
21.55
21.63
22.87
25.21
28.18
31.21
33.83
35.86
37.27
38.01
38.02
37.23
35.7
33.69
31.56
29.58
27.82
26.08
24.11
21.68
18.67
15.09
11.04
6.63
2.01
-2.65
-7.07
-10.9
-13.77
-15.45
-15.98
-15.75
-15.42
-15.64
-16.81
-18.87
-21.38
-23.75
-25.56
-26.7
-27.35
-27.72
-27.85
-27.52
-26.38
-24.18
-20.91
-16.84
-12.48
-8.3
-4.61
-1.48
1.22
3.73
6.25
8.88
11.7
14.79
18.25
22.15
26.36
30.54
34.2
36.93
38.63
39.48
39.83
39.93
39.86
39.51
38.76
37.6
36.11
34.43
32.74
31.22
30.13
29.8
30.4
31.73
33.01
33
30.43
24.57
15.6
4.69
-6.41
-16.04
-23.1
-27.41
-29.51
-30.32
-30.66
-31.04
-31.48
-31.74
-31.66
-31.21
-30.6
-30.16
-30.04
-30.18
-30.28
-29.98
-29.04
-27.5
-25.58
-23.67
-22.05
-20.79
-19.71
-18.46
-16.67
-14.24
-11.48
-8.97
-7.36
-6.98
-7.57
-8.38
-8.55
-7.62
-5.81
-3.97
-3.09
-3.73
-5.66
-7.98
-9.57
-9.66
-8.2
-5.77
-3.32
-1.61
-1.01
-1.4
-2.35
-3.35
-4.07
-4.37
-4.36
-4.27
-4.37
-4.94
-6.19
-8.23
-11.08
-14.58
-18.36
-21.88
-24.57
-26
-26.12
-25.33
-24.44
-24.2
-24.95
-26.39
-27.69
-27.93
-26.58
-23.79
-20.29
-16.86
-14.02
-11.78
-9.77
-7.6
-5.14
-2.61
-0.4
1.13
1.84
1.83
1.37
0.7
0.07
-0.42
-0.68
-0.72
-0.55
-0.24
0.06
0.13
-0.25
-1.3
-3.15
-5.79
-8.93
-12.03
-14.42
-15.42
-14.61
-12.07
-8.36
-4.35
-0.97
1.2
2.1
2.1
1.84
1.8
2.18
2.84
3.47
3.76
3.61
3.12
2.64
2.57
3.22
4.78
7.19
10.26
13.65
16.95
19.84
22.07
23.46
23.98
23.69
22.76
21.49
20.16
19
18.04
17.14
16.11
14.82
13.35
11.96
10.99
10.71
11.14
12.11
13.27
14.26
14.83
14.83
14.15
12.64
10.21
6.84
2.74
-1.71
-5.98
-9.6
-12.23
-13.79
-14.35
-14.16
-13.49
-12.62
-11.71
-10.87
-10.09
-9.31
-8.47
-7.6
-6.8
-6.24
-5.94
-5.78
-5.5
-4.85
-3.79
-2.45
-1.11
0.01
0.9
1.69
2.56
3.5
4.38
4.95
5.15
5.09
5.1
5.52
6.5
7.96
9.68
11.35
12.76
13.67
13.85
13.11
11.33
8.6
5.19
1.55
-1.86
-4.7
-6.79
-8.11
-8.69
-8.68
-8.28
-7.77
-7.47
-7.67
-8.51
-9.96
-11.8
-13.7
-15.34
-16.52
-17.18
-17.4
-17.32
-17.04
-16.63
-16.19
-15.78
-15.46
-15.21
-14.87
-14.23
-13.02
-11.19
-8.86
-6.38
-4.16
-2.49
-1.49
-1.08
-1.08
-1.3
-1.62
-1.81
-1.48
-0.12
2.79
7.51
13.78
20.62
26.6
30.24
30.57
27.51
21.96
15.52
9.93
6.52
5.82
7.51
10.7
14.29
17.38
19.42
20.14
19.42
17.27
13.8
9.39
4.63
0.32
-2.9
-4.78
-5.55
-5.82
-6.2
-7.02
-8.1
-8.95
-8.9
-7.51
-4.69
-0.76
3.61
7.7
10.9
12.99
14.09
14.57
14.8
14.95
14.96
14.62
13.72
12.26
10.45
8.62
7.14
6.25
6.05
6.55
7.62
9.08
10.55
11.6
11.76
10.69
8.37
5.09
1.27
-2.86
-7.29
-12.19
-17.57
-23.17
-28.6
-33.47
-37.56
-40.91
-43.67
-45.88
-47.37
-47.9
-47.55
-46.99
-47
-47.97
-49.61
-51.19
-51.82
-50.92
-48.42
-44.58
-40.25
-35.72
-30.63
-24.43
-17.18
-9.63
-2.84
2.33
5.6
6.05
3.79
-0.04
-4.04
-7.49
-10.41
-13.22
-16.41
-20.38
-27.24
-37.94
-51.4
-65.56
-78.75
-90.15
-99.6
-107.44
-114.43
-123.88
-137.51
-153.81
-169.31
-180.66
-185.76
-184
-176.26
-150.48
-106.8
-57.26
-16.04
10.44
23.79
28.39
27.93
24.44
18.86
10.15
-1.91
-14.8
-25.36
-31.87
-34.56
-34.61
-33.2
-30.6
-27.45
-25.93
-24.61
-21.25
-14.77
-5.78
4.2
13.57
21.28
26
27.73
28.61
30.99
36.04
43.51
52.21
60.85
68.57
74.77
79.83
85.81
95
109.07
128.75
153.79
182.85
213.25
240.91
261.39
272.26
272.72
263.87
248.29
229.6
211.48
196.7
186.77
182.12
184
192.27
204.78
217.54
225.86
225.84
215.08
193.13
161.72
127.06
95.63
72.38
60.01
59.16
69.07
87.01
108.47
128.06
144.09
155.28
160.41
158.54
149.94
136.92
122.89
111.97
89.37
52.54
10.87
-20.83
-34.91
-35.63
-33.26
-37.53
-53.39
-80.31
-111.27
-139.77
-162.46
-177.45
-187.3
-192.24
-191.63
-185.51
-174.99
-159.45
-139.09
-115.09
-89.48
-64.51
-41.6
-22.08
-8.23
-1.7
-1.49
-6.21
-15.16
-28.67
-47.39
-70.59
-96.01
-120.31
-139.94
-152.09
-156.9
-157.44
-158.03
-161.79
-168.48
-175.15
-177.99
-174.52
-164.7
-151.02
-136.89
-124.68
-114.6
-104.9
-93.53
-79.63
-63.99
-48.42
-34.53
-22.89
-12.8
-3.03
7.35
18.26
28.66
37.26
43.33
47.13
49.85
52.84
56.98
62.12
67.25
70.88
71.84
69.73
65.29
60.28
57.01
57.63
63.33
73.8
87.15
100.36
110.28
114.45
111.72
102.37
87.68
69.46
49.66
30.07
12.2
-2.84
-14.6
-23.43
-30.46
-37.27
-45.48
-56.29
-70.15
-86.81
-105.48
-125.18
-144.74
-162.86
-177.89
-187.98
-191.48
-187.52
-176.55
-160.31
-141.31
-121.98
-103.89
-87.49
-72.37
-57.88
-43.81
-30.57
-19.13
-10.67
-5.94
-4.9
-6.47
-8.79
-9.69
-7.46
-1.51
7.51
17.95
27.82
35.49
40.2
42.12
42.28
42.27
44
49.42
60.19
77.23
100.27
127.73
156.93
184.7
208.15
225.08
234.18
234.89
227.16
211.51
189.25
162.61
134.62
108.43
86.28
68.83
54.88
42.15
28.4
12.48
-5.22
-23.09
-39.26
-52.45
-62.51
-70.38
-77.69
-86.08
-96.79
-110.12
-125.09
-139.16
-148.43
-148.42
-135.58
-108.73
-69.94
-24.22
22.09
63.28
95.88
119
133.67
141.47
143.49
140.18
131.75
118.85
102.74
85.05
67.08
49.27
31.3
12.57
-7.05
-26.82
-45.12
-60.11
-70.5
-75.98
-77.13
-74.82
-69.5
-60.88
-48.32
-31.45
-10.9
11.6
33.67
53.21
69.06
81.22
90.51
97.8
103.47
107.18
108.04
105.05
97.58
85.84
70.88
54.39
38.18
23.65
11.4
1.26
-7.39
-15.04
-21.77
-27.2
-30.78
-32.25
-31.88
-30.46
-28.93
-28.05
-28.04
-28.58
-28.97
-28.48
-26.52
-22.89
-17.69
-11.3
-4.23
2.98
9.81
15.88
20.91
24.68
26.88
27.13
25.05
20.56
14.15
6.93
0.36
-4.26
-6.29
-6.04
-4.62
-3.49
-3.84
-6.17
-10.14
-14.77
-18.77
-21
-20.76
-17.93
-12.89
-6.35
0.94
8.44
15.74
22.59
28.66
33.46
36.41
36.89
34.57
29.64
22.99
16.16
11.02
9.09
11.06
16.39
23.54
30.44
35.12
36.14
32.73
24.74
12.58
-2.75
-19.65
-35.94
-49.29
-57.76
-60.33
-57.2
-49.6
-39.41
-28.73
-19.59
-13.68
-12.26
-15.83
-24.03
-35.49
-48.15
-59.7
-68.24
-72.81
-73.54
-71.46
-67.97
-64.24
-60.89
-57.99
-55.35
-52.84
-50.41
-47.99
-45.32
-41.87
-37.16
-31.12
-24.35
-17.99
-13.19
-10.53
-9.73
-9.86
-9.83
-9.07
-7.73
-6.41
-5.69
-5.75
-6.33
-7.06
-7.79
-8.81
-10.59
-13.53
-17.58
-22.17
-26.53
-30
-32.34
-33.79
-34.85
-36.04
-37.66
-39.63
-41.66
-43.32
-44.22
-44.15
-43.14
-41.52
-39.83
-38.7
-38.54
-39.48
-41.23
-43.2
-44.7
-45.2
-44.39
-42.27
-38.99
-34.79
-29.99
-24.98
-20.23
-16.24
-13.36
-11.78
-11.44
-12.1
-13.37
-14.79
-15.85
-15.98
-14.68
-11.57
-6.49
0.42
8.73
17.8
26.94
35.57
43.28
49.85
55.19
59.22
61.81
62.79
62.01
59.44
55.22
49.71
43.37
36.73
30.28
24.41
19.34
15.13
11.68
8.75
6.09
3.54
1.07
-1.35
-3.72
-6.2
-8.97
-12.14
-15.69
-19.36
-22.84
-25.92
-28.58
-31.04
-33.56
-36.23
-38.86
-41.03
-42.27
-42.29
-41.1
-38.86
-35.78
-31.95
-27.42
-22.23
-16.55
-10.61
-4.67
1.12
6.77
12.31
17.7
22.67
26.77
29.55
30.72
30.23
28.21
24.8
20.14
14.41
8
1.69
-3.47
-6.44
-6.58
-3.93
0.82
6.51
12
16.45
19.46
20.93
20.94
19.67
17.36
14.44
11.47
9.01
7.42
6.7
6.44
6
4.79
2.59
-0.34
-3.35
-5.66
-6.86
-6.96
-6.45
-6.02
-6.23
-7.28
-8.98
-10.89
-12.48
-13.32
-13.13
-11.83
-9.56
-6.66
-3.63
-1
0.82
1.67
1.64
0.99
0.06
-0.87
-1.61
-2.11
-2.42
-2.71
-3.11
-3.68
-4.23
-4.42
-3.85
-2.29
0.08
2.7
4.81
5.73
5.22
3.64
1.77
0.39
-0.09
0.18
0.65
0.76
0.28
-0.6
-1.4
-1.75
-1.5
-0.83
-0
0.77
1.46
2.05
2.46
2.47
1.82
0.4
-1.62
-3.94
-6.2
-8.24
-10.09
-11.77
-13.2
-14.08
-14.02
-12.77
-10.4
-7.35
-4.15
-1.28
1.08
3.01
4.69
6.2
7.42
8.12
8.07
7.25
5.86
4.23
2.7
1.46
0.53
-0.17
-0.78
-1.41
-2.07
-2.77
-3.46
-4.08
-4.67
-5.33
-6.25
-7.71
-9.94
-13.02
-16.83
-21.07
-25.34
-29.33
-32.85
-35.84
-38.34
-40.45
-42.42
-44.62
-47.46
-51.19
-55.7
-60.31
-63.95
-65.43
-63.91
-59.28
-52.1
-43.48
-34.55
-26.14
-18.52
-11.61
-5.23
0.6
5.64
9.62
12.46
14.45
16.13
18.03
20.4
22.99
25.35
27.03
27.9
28.15
28.2
28.4
28.81
29.18
29.06
27.98
25.69
22.22
17.91
13.32
9.01
5.28
2.1
-0.93
-4.39
-8.87
-14.73
-22.06
-30.65
-39.99
-49.24
-57.28
-62.86
-64.87
-62.82
-57.02
-48.61
-39.12
-29.85
-21.46
-13.81
-6.26
1.79
10.49
19.38
27.75
34.97
40.81
45.45
49.23
52.4
54.95
56.69
57.51
57.5
57.04
56.56
56.4
56.55
56.69
56.37
55.23
53.16
50.35
47.19
44.08
41.23
38.59
35.86
32.64
28.65
23.79
18.26
12.42
6.66
1.28
-3.66
-8.28
-12.95
-18.12
-24.28
-31.69
-40.27
-49.39
-57.94
-64.48
-67.72
-66.84
-61.85
-53.5
-42.95
-31.32
-19.36
-7.37
4.59
16.47
28.09
39.2
49.52
58.92
67.25
74.33
79.87
83.55
85.28
85.32
84.36
83.28
82.88
83.63
85.55
88.25
91.17
93.61
94.96
94.72
92.67
88.85
83.6
77.51
71.22
65.27
59.9
55.07
50.4
45.43
39.78
33.38
26.54
19.85
13.92
9.13
5.4
2.28
-0.87
-4.59
-9.11
-14.31
-19.85
-25.3
-30.41
-35.06
-39.34
-43.47
-47.77
-52.53
-57.82
-63.36
-68.45
-72.13
-73.45
-71.82
-67.14
-59.86
-50.76
-40.68
-30.36
-20.26
-10.66
-1.58
7.07
15.43
23.58
31.42
38.69
44.95
49.86
53.24
55.17
55.89
55.66
54.72
53.24
51.43
49.57
47.97
46.75
45.79
44.67
42.89
40.05
36.08
31.26
26.03
20.8
15.77
10.93
6.15
1.36
-3.39
-7.93
-12.03
-15.46
-18.04
-19.61
-20.11
-19.62
-18.49
-17.22
-16.41
-16.52
-17.72
-19.89
-22.74
-25.97
-29.46
-33.24
-37.47
-42.27
-47.8
-54.14
-61.26
-68.88
-76.33
-82.52
-86.17
-86.25
-82.38
-74.98
-65.16
-54.22
-43.22
-32.78
-23.08
-14.1
-5.79
1.87
8.91
15.43
21.49
27.1
32.11
36.21
39.19
40.99
41.84
42.14
42.31
42.66
43.31
44.24
45.32
46.34
47.06
47.3
47
46.27
45.31
44.31
43.29
42.12
40.67
38.84
36.76
34.62
32.61
30.77
28.99
27.13
25.15
23.16
21.27
19.55
17.87
15.89
13.3
9.86
5.53
0.53
-4.87
-10.29
-15.42
-20.04
-24.04
-27.44
-30.47
-33.5
-37.08
-41.76
-47.81
-55.02
-62.56
-69.12
-73.29
-74.06
-71.17
-65.2
-57.3
-48.72
-40.4
-32.71
-25.52
-18.51
-11.42
-4.22
2.87
9.53
15.46
20.42
24.3
27.12
29.01
30.2
31.05
31.85
32.81
33.97
35.17
36.21
36.92
37.28
37.33
37.16
36.73
35.98
34.79
33.13
31.12
28.97
26.93
25.09
23.39
21.61
19.54
17.07
14.29
11.38
8.54
5.89
3.38
0.92
-1.64
-4.38
-7.36
-10.58
-14.06
-17.75
-21.56
-25.39
-29.08
-32.59
-35.98
-39.44
-43.24
-47.61
-52.68
-58.29
-64.01
-69.1
-72.67
-73.83
-72.01
-67.16
-59.8
-50.92
-41.58
-32.64
-24.47
-17.05
-10.13
-3.54
2.7
8.41
13.37
17.57
21.19
24.53
27.83
31.22
34.6
37.72
40.27
42
42.83
42.9
42.57
42.23
42.15
42.28
42.25
41.61
40.05
37.58
34.6
31.63
29.11
27.2
25.77
24.49
23.05
21.24
19
16.42
13.62
10.7
7.66
4.42
0.95
-2.7
-6.36
-9.83
-12.99
-15.95
-18.89
-21.99
-25.29
-28.74
-32.35
-36.29
-40.93
-46.58
-53.15
-59.95
-65.8
-69.41
-69.88
-67.12
-61.75
-54.91
-47.67
-40.84
-34.73
-29.35
-24.53
-20.12
-15.99
-12.03
-8.17
-4.46
-1.08
1.57
3.03
3
1.52
-1.02
-3.88
-6.18
-7.13
-6.19
-3.18
1.67
7.72
14.14
20.06
24.84
28.15
29.99
30.53
30.01
28.62
26.49
23.85
20.98
18.3
16.19
14.86
14.28
14.11
13.89
13.13
11.59
9.23
6.28
3.07
-0.09
-2.97
-5.46
-7.53
-9.24
-10.75
-12.32
-14.18
-16.34
-18.44
-19.74
-19.36
-16.59
-11.24
-3.65
5.45
15.23
25.13
34.91
44.58
54.14
63.47
72.27
80.19
87.02
92.8
97.68
101.81
105.19
107.55
108.52
107.78
105.22
101.04
95.61
89.42
82.89
76.28
69.68
63
56.06
48.65
40.62
31.97
22.82
13.34
3.66
-6.17
-16.11
-26.04
-35.58
-44.26
-51.54
-57.12
-61.01
-63.58
-65.33
-66.67
-67.82
-68.7
-69.1
-68.77
-67.59
-65.61
-63.09
-60.44
-58.12
-56.48
-55.67
-55.45
-55.17
-54.03
-51.21
-46.38
-39.75
-32.06
-24.27
-17.17
-11.04
-5.7
-0.75
4.18
9.07
13.53
17.01
19.16
20
19.97
19.72
19.75
20.32
21.3
22.34
23.02
22.9
21.67
19.13
15.3
10.45
5
-0.55
-5.89
-10.9
-15.74
-20.74
-26.22
-32.46
-39.62
-47.76
-56.72
-66.17
-75.48
-83.89
-90.61
-95.07
-96.99
-96.47
-93.89
-89.77
-84.61
-78.72
-72.18
-64.92
-56.85
-48.06
-38.86
-29.7
-21.02
-13.11
-6.01
0.32
6
11.09
15.62
19.69
23.45
27.07
30.6
33.93
36.84
39.1
40.58
41.31
41.42
41.03
40.2
38.89
37.1
34.92
32.51
30.05
27.65
25.29
22.84
20.16
17.12
13.58
9.38
4.36
-1.59
-8.37
-15.69
-23.1
-30.11
-36.36
-41.63
-45.78
-48.61
-49.8
-49.02
-46.17
-41.52
-35.7
-29.54
-23.81
-18.96
-15.17
-12.36
-10.43
-9.26
-8.79
-8.88
-9.32
-9.79
-10.05
-9.97
-9.57
-9
-8.31
-7.46
-6.27
-4.56
-2.25
0.51
3.31
5.72
7.47
8.56
9.26
9.95
10.88
12.08
13.36
14.45
15.07
15.07
14.32
12.79
10.53
7.74
4.78
2.02
-0.24
-2.03
-3.66
-5.7
-8.73
-13.17
-19.15
-26.5
-34.65
-42.7
-49.48
-53.8
-54.81
-52.32
-46.91
-39.78
-32.34
-25.65
-20.15
-15.67
-11.66
-7.55
-3.05
1.76
6.54
10.77
13.99
15.85
16.2
15.13
13.01
10.38
7.83
5.93
5.11
5.57
7.35
10.31
14.09
18.17
21.94
24.8
26.4
26.66
25.88
24.58
23.3
22.36
21.75
21.14
20.03
18.03
14.96
10.91
6.09
0.75
-4.89
-10.49
-15.57
-19.55
-21.9
-22.56
-21.97
-21.07
-20.95
-22.4
-25.59
-30.07
-34.9
-39.05
-41.62
-42.06
-40.16
-36.06
-30.19
-23.15
-15.66
-8.39
-1.84
3.76
8.49
12.61
16.48
20.28
24.04
27.62
30.85
33.64
36.02
38.1
39.92
41.39
42.35
42.64
42.26
41.38
40.26
39.05
37.76
36.27
34.4
32.08
29.31
26.14
22.61
18.84
15.03
11.52
8.64
6.58
5.21
4.06
2.54
0.13
-3.3
-7.45
-11.61
-14.92
-16.53
-15.8
-12.57
-7.17
-0.39
6.78
13.57
19.58
24.94
29.95
34.86
39.63
43.92
47.23
49.13
49.45
48.24
45.82
42.69
39.43
36.51
34.2
32.47
31.01
29.48
27.65
25.46
22.96
20.15
16.97
13.3
9.19
4.9
0.89
-2.42
-4.84
-6.46
-7.68
-8.94
-10.63
-12.93
-15.86
-19.24
-22.85
-26.43
-29.76
-32.78
-35.59
-38.43
-41.64
-45.52
-50.24
-55.68
-61.34
-66.39
-69.77
-70.52
-68.04
-62.38
-54.27
-44.81
-35.14
-26.03
-17.74
-10.15
-2.96
4
10.67
16.82
22.22
26.74
30.36
33.15
35.12
36.22
36.43
35.81
34.55
32.92
31.22
29.69
28.44
27.56
27.06
26.95
27.22
27.87
28.83
29.98
31.12
32.03
32.46
32.25
31.27
29.48
26.94
23.75
20.01
15.81
11.3
6.66
2.2
-1.79
-5.06
-7.57
-9.48
-11.17
-12.98
-15.11
-17.49
-19.91
-22.18
-24.28
-26.41
-28.92
-32.16
-36.38
-41.68
-47.98
-54.87
-61.62
-67.17
-70.33
-70.23
-66.67
-60.24
-52.16
-43.76
-35.94
-28.93
-22.43
-15.97
-9.34
-2.78
3.14
7.83
10.91
12.38
12.49
11.61
10.09
8.32
6.68
5.65
5.68
7.07
9.81
13.55
17.71
21.58
24.55
26.23
26.55
25.67
23.98
21.91
19.88
18.22
17.09
16.47
16.12
15.67
14.73
13.06
10.73
8.05
5.49
3.37
1.69
0.15
-1.7
-4.19
-7.4
-11.24
-15.62
-20.55
-26.08
-32.04
-37.83
-42.39
-44.58
-43.64
-39.57
-33.19
-25.79
-18.63
-12.44
-7.31
-2.8
1.67
6.44
11.44
16.23
20.26
23.09
24.63
25.06
24.7
23.81
22.53
20.86
18.85
16.68
14.72
13.38
12.87
13.13
13.8
14.45
14.76
14.68
14.3
13.67
12.65
10.9
8.09
4.16
-0.54
-5.38
-9.66
-13
-15.42
-17.29
-19.1
-21.3
-24.15
-27.83
-32.37
-37.52
-42.72
-46.99
-49.21
-48.49
-44.57
-38.04
-30.12
-22.26
-15.56
-10.56
-7.12
-4.74
-2.83
-0.97
0.92
2.69
4.15
5.2
5.91
6.51
7.2
8.03
8.89
9.58
9.96
10.07
10.12
10.28
10.58
10.81
10.71
10.12
9.22
8.41
8.12
8.5
9.34
10.14
10.48
10.12
9.19
8.01
6.89
5.99
5.22
4.33
3.1
1.39
-0.77
-3.2
-5.76
-8.39
-11.09
-13.87
-16.68
-19.36
-21.88
-24.39
-27.29
-31.14
-36.29
-42.58
-49.13
-54.56
-57.44
-56.86
-52.74
-45.77
-37.09
-27.79
-18.58
-9.74
-1.27
6.84
14.5
21.51
27.66
32.85
37.18
40.86
44.06
46.8
48.95
50.24
50.48
49.74
48.31
46.63
45.15
44.07
43.39
42.87
42.12
40.78
38.61
35.51
31.52
26.75
21.35
15.43
9.23
3.02
-2.9
-8.18
-12.56
-15.91
-18.35
-20.17
-21.79
-23.67
-26.14
-29.25
-32.8
-36.36
-39.44
-41.63
-42.76
-42.98
-42.72
-42.62
-43.33
-45.39
-48.97
-53.78
-58.95
-63.27
-65.44
-64.47
-60.07
-52.67
-43.34
-33.33
-23.74
-15.23
-7.92
-1.62
4.13
9.76
15.57
21.57
27.46
32.75
36.9
39.61
40.89
41.08
40.65
40.02
39.43
38.91
38.43
37.97
37.54
37.17
36.85
36.45
35.77
34.59
32.72
30.07
26.66
22.59
18.04
13.14
7.91
2.3
-3.73
-10.1
-16.48
-22.52
-27.88
-32.54
-36.89
-41.63
-47.49
-54.87
-63.71
-73.34
-82.72
-90.67
-96.17
-98.71
-98.37
-95.79
-91.98
-87.97
-84.54
-82.03
-80.34
-79.06
-77.66
-75.57
-72.22
-67
-59.19
-47.98
-32.58
-12.48
12.27
40.81
71.23
100.75
126.22
144.88
155.22
157.44
153.4
146.09
138.79
134.24
134.12
138.74
147.08
157.15
166.66
173.78
177.63
178.4
176.75
173.16
167.48
159.11
147.5
132.81
116.08
98.81
82.39
67.65
54.87
44.01
34.99
27.72
21.93
17.03
12.23
6.8
0.46
-6.41
-12.95
-17.89
-20.01
-18.34
-12.54
-3.22
7.87
18.33
25.8
28.7
26.67
20.54
11.86
2.32
-6.72
-14.65
-21.26
-26.54
-30.6
-33.77
-36.56
-39.37
-42.25
-44.82
-47.02
-48.63
-49.35
-49.17
-48.64
-48.68
-50.13
-53.44
-58.89
-67.9
-81.15
-97.81
-115.63
-132.05
-145.32
-155.02
-161.93
-167.72
-175.62
-186.69
-198.95
-208.57
-212.5
-210.04
-202.41
-191.27
-178.13
-166.17
-156.92
-149.91
-143.68
-137.51
-132
-128.08
-125.8
-107.84
-66.56
-7.34
55.88
111.79
156.2
188.91
209.25
219.32
219.5
207.57
183.66
151.42
116.75
86.58
65.75
56.16
57.19
65.97
77.11
86.69
93.5
98.5
102.9
106.86
109.76
111.15
110.76
107.85
102.67
96.5
90.98
87.17
85.07
84.02
83.26
81.71
77.69
69.92
57.96
42.3
24.05
4.32
-16.08
-36.67
-57.49
-78.79
-100.28
-120.8
-138.43
-151.28
-158.16
-158.87
-154.07
-144.78
-131.92
-116.09
-97.66
-77.28
-56.16
-36.12
-19.08
-6.47
1.29
4.94
5.93
5.78
5.54
5.5
5.36
4.63
3.06
0.84
-1.42
-3.03
-3.45
-2.48
-0.32
2.69
6.12
9.61
12.97
16.06
18.86
21.27
23.16
24.42
24.93
24.72
23.93
22.82
21.63
20.44
19.13
17.45
15.19
12.39
9.4
6.76
5.06
4.57
5.2
6.54
8.1
9.5
10.68
11.75
12.88
14.11
15.31
16.2
16.56
16.38
15.88
15.4
15.24
15.48
16.01
16.53
16.76
16.56
15.94
15.07
14.13
13.3
12.61
12.01
11.35
10.49
9.38
8.05
6.66
5.34
4.1
2.82
1.26
-0.81
-3.47
-6.54
-9.72
-12.71
-15.37
-17.78
-20.24
-23.03
-26.33
-30.19
-34.54
-39.35
-44.69
-50.63
-57.14
-63.92
-70.49
-76.26
-80.96
-84.69
-87.99
-91.63
-96.36
-102.77
-111.27
-122.14
-135.51
-151.23
-168.69
-186.68
-203.37
-216.68
-224.7
-226.3
-221.42
-211.12
-197.22
-181.69
-166.07
-151.02
-136.29
-121.01
-104.28
-85.66
-65.41
-44.44
-23.9
-4.83
12.2
27.26
41.04
54.59
68.91
84.39
100.33
115
126.08
131.55
130.48
123.41
112.21
99.22
86.62
75.83
67.48
61.49
57.3
53.91
50.11
45.19
39.64
35.55
35.89
43.06
57.25
75.85
94.28
108.12
115.04
115.59
112.32
108.02
104.04
99.9
94.14
85.72
74.89
63.18
52.57
44.5
39.38
36.72
35.63
35.41
35.85
37.24
40
44.26
49.48
54.56
58.12
59.13
57.27
53.19
48
42.76
37.97
33.43
28.47
22.47
15.33
7.51
-0.11
-6.59
-11.32
-14.17
-15.47
-15.82
-15.96
-16.52
-18
-20.63
-24.3
-28.56
-32.62
-35.45
-36.09
-33.88
-28.75
-21.29
-12.56
-3.79
4.04
10.53
15.83
20.55
25.36
30.61
36.22
41.76
46.6
50.32
52.74
53.98
54.3
53.96
53.14
51.97
50.55
48.96
47.3
45.66
44.3
43.54
43.79
45.31
48.04
51.44
54.61
56.56
56.57
54.34
50.07
44.2
37.24
29.64
21.77
13.93
6.41
-0.56
-6.92
-12.77
-18.26
-23.48
-28.26
-32.19
-34.68
-35.12
-33.12
-28.67
-22.14
-14.28
-5.94
2.06
9.23
15.4
20.72
25.44
29.7
33.44
36.39
38.3
39.06
38.89
38.17
37.33
36.57
35.82
34.82
33.34
31.35
29.08
26.93
25.19
23.9
22.84
21.6
19.86
17.5
14.65
11.62
8.7
6.06
3.63
1.19
-1.54
-4.81
-8.72
-13.25
-18.25
-23.5
-28.69
-33.36
-36.94
-38.8
-38.39
-35.45
-30.18
-23.11
-15.05
-6.8
1.03
8.1
14.22
19.29
23.13
25.56
26.49
25.95
24.2
21.7
18.94
16.4
14.44
13.19
12.58
12.39
12.29
12.04
11.48
10.56
9.29
7.64
5.53
2.93
-0.12
-3.41
-6.72
-9.86
-12.83
-15.82
-19.15
-23.1
-27.8
-33.02
-38.2
-42.49
-44.92
-44.74
-41.6
-35.79
-28.1
-19.63
-11.41
-4.16
1.76
6.39
9.94
12.7
14.91
16.79
18.45
19.8
20.66
20.8
20.19
19
17.56
16.2
15.08
14.14
13.16
11.92
10.32
8.34
6.02
3.36
0.34
-3.02
-6.62
-10.26
-13.72
-16.93
-20.07
-23.52
-27.66
-32.63
-38.07
-43.15
-46.76
-47.96
-46.31
-42.07
-36.06
-29.22
-22.34
-15.8
-9.68
-3.88
1.65
6.88
11.72
16.07
19.87
22.99
25.27
26.49
26.57
25.6
23.82
21.68
19.55
17.71
16.24
15.1
14.07
12.91
11.43
9.45
6.89
3.75
0.15
-3.67
-7.42
-10.8
-13.8
-16.66
-19.91
-24.05
-29.31
-35.35
-41.24
-45.73
-47.67
-46.45
-42.22
-35.77
-28.21
-20.58
-13.53
-7.26
-1.62
3.74
9.1
14.52
19.82
24.61
28.47
31.09
32.4
32.6
31.99
30.91
29.64
28.33
27.07
25.91
24.87
23.87
22.77
21.4
19.67
17.61
15.34
12.97
10.49
7.76
4.58
0.85
-3.31
-7.63
-11.7
-15.27
-18.29
-20.96
-23.63
-26.69
-30.45
-35.02
-40.29
-45.84
-50.94
-54.71
-56.31
-55.19
-51.36
-45.34
-37.98
-30.24
-22.75
-15.79
-9.23
-2.85
3.58
10.02
16.24
21.82
26.36
29.58
31.4
32.02
31.83
31.25
30.65
30.15
29.75
29.31
28.73
28.09
27.53
27.16
26.95
26.63
25.86
24.35
22.06
19.2
16.15
13.28
10.72
8.41
6.07
3.42
0.26
-3.4
-7.42
-11.52
-15.39
-18.76
-21.48
-23.59
-25.34
-27.15
-29.41
-32.45
-36.37
-41.11
-46.35
-51.56
-55.95
-58.64
-58.85
-56.24
-50.98
-43.84
-35.81
-27.81
-20.35
-13.58
-7.39
-1.61
3.84
8.96
13.72
18.05
21.83
24.87
27
28.15
28.51
28.42
28.23
28.17
28.29
28.48
28.64
28.68
28.57
28.23
27.52
26.33
24.63
22.49
20.13
17.75
15.5
13.37
11.3
9.2
7.04
4.89
2.81
0.79
-1.22
-3.38
-5.85
-8.68
-11.82
-15.12
-18.42
-21.59
-24.6
-27.51
-30.44
-33.55
-37.03
-40.99
-45.38
-49.87
-53.75
-56.08
-56.04
-53.19
-47.73
-40.46
-32.46
-24.7
-17.78
-11.8
-6.52
-1.56
3.29
8.05
12.55
16.58
20.02
22.82
24.99
26.48
27.27
27.35
26.87
26.11
25.4
24.98
24.88
24.92
24.83
24.45
23.79
22.96
22.14
21.42
20.76
20.05
19.12
17.81
16.03
13.74
11.03
8.04
4.95
1.94
-0.87
-3.37
-5.45
-7.06
-8.32
-9.49
-11
-13.23
-16.29
-19.98
-23.87
-27.46
-30.54
-33.25
-36
-39.3
-43.37
-48.02
-52.56
-55.94
-57.15
-55.5
-50.93
-44.04
-35.92
-27.71
-20.3
-14.05
-8.84
-4.24
0.17
4.66
9.25
13.73
17.84
21.33
24.08
26.11
27.54
28.5
28.99
29
28.46
27.48
26.33
25.38
24.95
25.12
25.68
26.28
26.52
26.16
25.09
23.39
21.14
18.52
15.69
12.86
10.22
7.89
5.95
4.39
3.13
2.04
0.98
-0.22
-1.72
-3.7
-6.24
-9.31
-12.75
-16.26
-19.55
-22.37
-24.7
-26.77
-29
-31.88
-35.75
-40.61
-45.97
-50.97
-54.63
-56.1
-54.95
-51.21
-45.38
-38.2
-30.47
-22.8
-15.55
-8.92
-2.94
2.34
6.87
10.6
13.58
15.96
18
19.94
21.89
23.85
25.67
27.16
28.22
28.85
29.17
29.29
29.31
29.24
29.03
28.59
27.88
26.88
25.63
24.21
22.74
21.31
19.92
18.5
16.91
15.03
12.84
10.4
7.87
5.35
2.92
0.6
-1.67
-3.94
-6.21
-8.42
-10.56
-12.63
-14.75
-17.03
-19.55
-22.29
-25.19
-28.21
-31.43
-35.03
-39.18
-43.86
-48.64
-52.72
-55.11
-54.94
-51.82
-45.99
-38.24
-29.6
-21.11
-13.46
-7.03
-1.83
2.4
6.02
9.31
12.45
15.45
18.14
20.39
22.11
23.34
24.14
24.62
24.82
24.79
24.67
24.64
24.89
25.49
26.29
27
27.34
27.14
26.44
25.42
24.25
23
21.59
19.92
17.92
15.61
13.18
10.81
8.67
6.81
5.21
3.77
2.3
0.65
-1.32
-3.68
-6.41
-9.43
-12.6
-15.78
-18.84
-21.71
-24.35
-26.9
-29.61
-32.88
-36.98
-41.88
-46.98
-51.22
-53.38
-52.55
-48.55
-42
-34.06
-25.88
-18.23
-11.36
-5.16
0.49
5.57
9.91
13.38
16.06
18.2
20.13
22.01
23.74
25.05
25.68
25.58
25.03
24.5
24.42
24.96
25.94
26.92
27.41
27.12
26.06
24.53
22.93
21.53
20.4
19.36
18.16
16.62
14.7
12.51
10.26
8.16
6.33
4.78
3.34
1.78
-0.19
-2.75
-5.9
-9.46
-13.1
-16.49
-19.4
-21.79
-23.77
-25.65
-27.83
-30.7
-34.52
-39.21
-44.23
-48.69
-51.48
-51.74
-49.04
-43.69
-36.57
-28.84
-21.53
-15.17
-9.74
-4.81
0.1
5.19
10.26
14.88
18.6
21.26
23.01
24.16
25.01
25.65
25.98
25.86
25.32
24.58
24.01
23.88
24.26
24.94
25.56
25.77
25.38
24.44
23.19
21.92
20.83
19.92
19.01
17.83
16.16
13.92
11.18
8.1
4.87
1.56
-1.8
-5.22
-8.66
-12.01
-15.11
-17.87
-20.3
-22.6
-25.01
-27.81
-31.23
-35.29
-39.79
-44.23
-47.88
-49.93
-49.71
-46.89
-41.64
-34.59
-26.68
-18.84
-11.73
-5.66
-0.51
3.95
7.96
11.64
14.93
17.74
20.01
21.78
23.16
24.31
25.34
26.32
27.24
28.1
28.9
29.61
30.18
30.48
30.48
30.17
29.62
28.87
27.83
26.39
24.39
21.89
19.17
16.66
14.66
13.23
12.08
10.72
8.74
5.99
2.61
-1.05
-4.63
-7.93
-10.94
-13.72
-16.34
-18.86
-21.31
-23.88
-26.85
-30.5
-34.87
-39.57
-43.8
-46.56
-47.08
-45.13
-41.13
-35.92
-30.36
-24.9
-19.57
-14.07
-8.15
-1.76
4.85
11.22
16.84
21.24
24.01
24.92
24.02
21.74
18.9
16.57
15.64
16.51
18.91
22.03
24.99
27.18
28.54
29.42
30.2
30.98
31.46
31.07
29.36
26.25
22.16
17.81
13.87
10.68
8.14
5.83
3.24
0.06
-3.76
-8.03
-12.44
-16.66
-20.54
-24.08
-27.49
-31.08
-35.19
-40.04
-45.58
-51.43
-56.87
-60.95
-62.83
-62.08
-58.8
-53.59
-47.24
-40.49
-33.79
-27.31
-21.09
-15.16
-9.65
-4.71
-0.35
3.6
7.49
11.67
16.27
21.06
25.6
29.43
32.29
34.29
35.73
36.91
37.87
38.37
38.02
36.6
34.21
31.27
28.25
25.42
22.79
20.15
17.36
14.5
11.85
9.69
8.2
7.29
6.7
6.11
5.17
3.6
1.15
-2.33
-6.81
-11.98
-17.25
-21.9
-25.26
-26.91
-26.68
-24.74
-21.44
-17.3
-12.91
-8.85
-5.52
-3.09
-1.49
-0.42
0.43
1.33
2.39
3.71
5.3
7.23
9.53
12.18
15.06
17.95
20.59
22.78
24.43
25.59
26.39
26.88
26.93
26.2
24.31
21.08
16.73
11.8
6.98
2.66
-1.25
-5.21
-9.78
-15.24
-21.33
-27.51
-33.14
-37.85
-41.5
-44.11
-45.58
-45.69
-44.23
-41.18
-36.86
-31.88
-26.84
-22.14
-17.78
-13.52
-9.03
-4.18
0.92
5.89
10.38
14.05
16.78
18.65
19.89
20.87
21.99
23.59
25.78
28.4
30.96
32.73
32.91
30.94
26.67
20.53
13.42
6.42
0.44
-3.99
-6.9
-8.66
-9.83
-10.93
-12.3
-14.15
-16.48
-19.16
-21.78
-23.74
-24.37
-23.16
-19.95
-15.07
-9.14
-2.83
3.28
8.83
13.65
17.61
20.7
22.91
24.38
25.3
25.85
26.14
26.12
25.64
24.62
23.12
21.38
19.78
18.62
17.99
17.66
17.19
16.11
14.19
11.54
8.54
5.72
3.45
1.79
0.44
-1.07
-3.24
-6.34
-10.41
-15.23
-20.41
-25.4
-29.58
-32.29
-32.97
-31.35
-27.6
-22.36
-16.57
-11.1
-6.43
-2.51
1.11
4.9
9.04
13.27
16.98
19.65
21.06
21.47
21.43
21.49
21.9
22.58
23.2
23.41
23.04
22.12
20.79
19.25
17.58
15.84
14.06
12.3
10.56
8.87
7.1
5.15
2.95
0.52
-2.03
-4.58
-7.05
-9.4
-11.68
-13.94
-16.32
-18.95
-22.01
-25.58
-29.5
-33.33
-36.39
-37.91
-37.34
-34.53
-29.8
-23.81
-17.38
-11.17
-5.61
-0.78
3.43
7.23
10.74
13.92
16.64
18.8
20.42
21.68
22.78
23.79
24.55
24.73
24.1
22.69
20.87
19.21
18.2
17.99
18.36
18.85
18.97
18.47
17.34
15.74
13.89
11.96
9.99
7.97
5.85
3.57
1.17
-1.24
-3.58
-5.78
-7.87
-9.87
-11.8
-13.61
-15.26
-16.83
-18.53
-20.73
-23.67
-27.3
-31.12
-34.32
-36.01
-35.58
-32.89
-28.27
-22.33
-15.77
-9.2
-3.12
2.14
6.48
10
13
15.87
18.92
22.24
25.6
28.55
30.6
31.47
31.19
30.16
28.96
28.13
28
28.51
29.28
29.83
29.76
28.94
27.52
25.82
24.04
22.2
19.99
16.96
12.67
6.82
-0.66
-9.57
-19.34
-28.93
-36.88
-41.67
-42.26
-38.73
-32.41
-25.5
-20.2
-17.86
-18.51
-21.14
-24.39
-27.33
-29.78
-32.06
-34.38
-36.43
-37.39
-36.4
-33.12
-28.05
-22.36
-17.34
-13.83
-11.89
-10.92
-10.03
-8.51
-6.18
-3.29
-0.34
2.2
4.1
5.41
6.33
7.19
8.22
9.5
10.92
12.22
13.14
13.57
13.62
13.54
13.56
13.7
13.75
13.4
12.4
10.74
8.68
6.52
4.62
3.06
1.77
0.58
-0.69
-2.12
-3.75
-5.47
-7.19
-8.74
-9.98
-10.83
-11.37
-11.82
-12.58
-14.09
-16.69
-20.45
-25.01
-29.65
-33.46
-35.63
-35.69
-33.65
-29.94
-25.15
-19.92
-14.72
-9.88
-5.56
-1.83
1.33
4.04
6.54
9.02
11.53
13.89
15.76
16.81
16.9
16.24
15.23
14.29
13.67
13.37
13.18
12.89
12.44
11.94
11.61
11.55
11.59
11.43
10.69
9.22
7.2
5.01
3.13
1.74
0.67
-0.55
-2.43
-5.21
-8.69
-12.32
-15.49
-17.8
-19.27
-20.28
-21.31
-22.82
-25.06
-28
-31.45
-35.03
-38.23
-40.45
-41.1
-39.75
-36.26
-30.89
-24.26
-17.2
-10.56
-4.95
-0.61
2.63
5.19
7.51
9.83
12.11
14.15
15.76
16.95
17.9
18.8
19.71
20.55
21.08
21.17
20.83
20.22
19.57
18.94
18.23
17.18
15.48
13.03
9.99
6.81
4.06
2.12
0.98
0.2
-0.81
-2.49
-4.94
-7.85
-10.77
-13.36
-15.56
-17.54
-19.56
-21.81
-24.41
-27.44
-30.91
-34.71
-38.42
-41.36
-42.7
-41.81
-38.5
-33.19
-26.76
-20.17
-14.26
-9.4
-5.56
-2.44
0.33
3.01
5.65
8.09
10.15
11.62
12.45
12.75
12.7
12.53
12.47
12.64
13.06
13.65
14.28
14.83
15.24
15.51
15.66
15.57
15.02
13.72
11.48
8.35
4.66
0.91
-2.48
-5.32
-7.69
-9.83
-12.04
-14.52
-17.32
-20.35
-23.37
-25.95
-27.57
-27.74
-26.14
-22.76
-17.95
-12.28
-6.32
-0.53
4.79
9.45
13.24
16
17.62
18.18
17.89
17.13
16.34
15.83
15.79
16.22
16.9
17.58
17.94
17.75
16.83
15.21
12.94
10.18
7.05
3.67
0.15
-3.4
-6.84
-10.09
-13.09
-15.9
-18.7
-21.77
-25.4
-29.77
-34.74
-39.78
-44.02
-46.46
-46.34
-43.35
-37.87
-30.75
-23.08
-15.82
-9.52
-4.32
-0.02
3.69
7.12
10.38
13.5
16.41
19
21.18
22.85
23.89
24.22
23.85
22.89
21.56
20.13
18.81
17.72
16.77
15.79
14.5
12.72
10.33
7.37
3.93
0.11
-3.95
-8.2
-12.62
-17.3
-22.27
-27.41
-32.3
-36.26
-38.5
-38.37
-35.65
-30.67
-24.19
-17.09
-10.07
-3.44
2.88
9.15
15.49
21.8
27.67
32.63
36.33
38.69
39.95
40.5
40.68
40.7
40.58
40.21
39.49
38.37
36.9
35.21
33.39
31.52
29.66
27.8
25.91
23.95
21.85
19.58
17.11
14.46
11.58
8.39
4.77
0.63
-3.99
-8.94
-13.99
-19
-23.94
-28.84
-33.69
-38.21
-41.91
-44.13
-44.33
-42.32
-38.29
-32.85
-26.63
-20.19
-13.77
-7.34
-0.71
6.25
13.47
20.69
27.44
33.29
37.92
41.26
43.46
44.8
45.57
45.95
46.05
45.85
45.37
44.67
43.91
43.25
42.76
42.33
41.71
40.63
38.98
36.9
34.72
32.78
31.22
29.92
28.52
26.68
24.25
21.28
18.04
14.85
11.88
9.18
6.62
4.01
1.15
-2.05
-5.6
-9.35
-13.05
-16.49
-19.57
-22.46
-25.53
-29.16
-33.62
-38.78
-44.18
-49.05
-52.59
-54.14
-53.36
-50.32
-45.41
-39.26
-32.53
-25.7
-19
-12.4
-5.75
0.98
7.66
13.96
19.46
23.87
27.15
29.48
31.2
32.58
33.72
34.55
35
35.11
35.02
34.98
35.12
35.43
35.7
35.65
35.05
33.85
32.18
30.24
28.19
26.12
24.06
22.02
20.09
18.28
16.55
14.76
12.76
10.51
8.09
5.68
3.45
1.4
-0.65
-2.99
-5.84
-9.24
-12.94
-16.57
-19.77
-22.37
-24.46
-26.37
-28.59
-31.54
-35.46
-40.23
-45.33
-49.97
-53.15
-54.02
-52.12
-47.57
-41.06
-33.61
-26.27
-19.76
-14.36
-9.9
-5.95
-2.07
2.06
6.47
10.98
15.24
18.82
21.35
22.68
22.89
22.39
21.69
21.36
21.74
22.86
24.48
26.14
27.36
27.77
27.19
25.74
23.67
21.35
19.11
17.15
15.53
14.18
12.92
11.61
10.14
8.51
6.8
5.08
3.41
1.73
-0.07
-2.1
-4.38
-6.82
-9.19
-11.3
-13.04
-14.54
-16.11
-18.16
-21.07
-24.97
-29.71
-34.8
-39.5
-42.99
-44.6
-43.98
-41.21
-36.78
-31.36
-25.64
-20.15
-15.2
-10.94
-7.38
-4.47
-2.1
-0.1
1.75
3.62
5.55
7.44
9.13
10.55
11.87
13.34
15.19
17.39
19.59
21.38
22.42
22.69
22.42
21.87
21.15
20.21
18.85
17
14.79
12.46
10.29
8.38
6.72
5.24
3.97
3.03
2.45
2.11
1.7
0.86
-0.59
-2.57
-4.76
-6.82
-8.6
-10.17
-11.79
-13.75
-16.21
-19.21
-22.6
-26.14
-29.47
-32.14
-33.65
-33.58
-31.73
-28.22
-23.41
-17.85
-12.11
-6.73
-2.14
1.38
3.8
5.39
6.58
7.81
9.3
10.97
12.47
13.39
13.54
12.96
12
11.1
10.63
10.8
11.63
12.96
14.48
15.88
16.88
17.4
17.49
17.31
17
16.57
15.9
14.88
13.47
11.82
10.16
8.69
7.45
6.37
5.31
4.16
2.85
1.33
-0.54
-2.93
-5.94
-9.51
-13.32
-16.91
-19.9
-22.14
-23.77
-25.16
-26.61
-28.15
-29.49
-30.09
-29.4
-27.19
-23.65
-19.33
-14.93
-11.04
-7.9
-5.4
-3.22
-1.06
1.21
3.52
5.75
7.83
9.86
11.96
14.15
16.28
18
18.93
18.88
17.94
16.49
15.07
14.13
13.83
13.98
14.16
13.88
12.89
11.25
9.3
7.46
6.01
5.02
4.34
3.78
3.22
2.61
1.95
1.11
-0.17
-2.16
-4.96
-8.39
-12.02
-15.38
-18.18
-20.41
-22.33
-24.24
-26.36
-28.7
-31.06
-33.15
-34.68
-35.42
-35.14
-33.7
-31.05
-27.33
-22.93
-18.36
-14.16
-10.61
-7.67
-5.02
-2.14
1.35
5.56
10.22
14.79
18.71
21.54
23.11
23.54
23.1
22.16
21.03
19.95
19.03
18.34
17.86
17.53
17.24
16.92
16.52
16.05
15.47
14.72
13.68
12.24
10.43
8.42
6.46
4.75
3.3
1.95
0.46
-1.31
-3.36
-5.55
-7.74
-9.9
-12.07
-14.24
-16.23
-17.64
-18.02
-17.07
-14.8
-11.59
-8.03
-4.66
-1.87
0.21
1.68
2.68
3.38
3.82
4.05
4.06
3.85
3.48
2.97
2.36
1.71
1.08
0.61
0.38
0.47
0.81
1.24
1.57
1.62
1.18
0.08
-1.85
-4.68
-8.28
-12.24
-15.95
-18.84
-20.62
-21.46
-21.85
-22.42
-23.66
-25.71
-28.47
-31.59
-34.66
-37.15
-38.51
-38.29
-36.26
-32.59
-27.85
-22.79
-18.13
-14.27
-11.3
-9.03
-7.15
-5.4
-3.62
-1.75
0.21
2.17
4
5.49
6.46
6.77
6.41
5.53
4.41
3.36
2.68
2.47
2.64
2.91
2.9
2.3
0.99
-0.96
-3.32
-5.71
-7.8
-9.34
-10.33
-11.06
-12.01
-13.68
-16.26
-19.54
-22.82
-25.25
-26.1
-25.08
-22.35
-18.41
-13.73
-8.68
-3.43
1.97
7.37
12.56
17.29
21.31
24.49
26.79
28.26
28.97
29.03
28.59
27.88
27.05
26.23
25.4
24.49
23.38
22.07
20.67
19.33
18.12
16.99
15.69
14.01
11.88
9.51
7.19
5.25
3.76
2.53
1.18
-0.66
-3.21
-6.42
-10.08
-13.95
-17.79
-21.39
-24.47
-26.63
-27.37
-26.38
-23.6
-19.33
-14.2
-8.85
-3.8
0.72
4.71
8.3
11.61
14.69
17.52
20.13
22.47
24.5
26.12
27.19
27.67
27.59
27.11
26.39
25.57
24.7
23.79
22.86
21.91
21.01
20.16
19.35
18.5
17.47
16.16
14.47
12.45
10.24
8.06
6.09
4.37
2.77
1.07
-0.94
-3.31
-5.93
-8.62
-11.18
-13.47
-15.44
-17.1
-18.61
-20.18
-22.15
-24.87
-28.53
-32.97
-37.59
-41.46
-43.59
-43.3
-40.52
-35.77
-29.97
-24.06
-18.72
-14.16
-10.21
-6.48
-2.64
1.52
5.91
10.3
14.37
17.85
20.54
22.38
23.37
23.57
23.05
21.95
20.52
19.07
17.98
17.54
17.86
18.76
19.87
20.7
20.89
20.23
18.82
16.9
14.83
12.84
11.05
9.35
7.6
5.7
3.7
1.74
0.01
-1.42
-2.62
-3.76
-5.01
-6.53
-8.41
-10.81
-13.83
-17.5
-21.59
-25.55
-28.64
-30.09
-29.5
-26.93
-22.86
-18.01
-12.97
-8.15
-3.66
0.47
4.29
7.78
10.95
13.8
16.4
18.76
20.81
22.39
23.34
23.51
22.95
21.82
20.44
19.13
18.18
17.74
17.81
18.21
18.66
18.83
18.48
17.52
16.06
14.31
12.44
10.56
8.67
6.74
4.77
2.81
0.92
-0.92
-2.8
-4.88
-7.3
-10.09
-13.17
-16.36
-19.57
-22.81
-26.14
-29.59
-32.95
-35.78
-37.54
-37.81
-36.47
-33.7
-29.92
-25.46
-20.56
-15.3
-9.75
-4.11
1.26
5.99
9.84
12.84
15.22
17.22
19.01
20.58
21.83
22.65
23.1
23.34
23.56
23.92
24.41
24.91
25.22
25.17
24.66
23.68
22.42
21.16
20.19
19.63
19.38
19.11
18.45
17.22
15.53
13.66
11.93
10.45
9.11
7.59
5.65
3.18
0.35
-2.61
-5.51
-8.25
-10.84
-13.23
-15.37
-17.22
-18.93
-20.87
-23.59
-27.48
-32.47
-37.9
-42.59
-45.32
-45.31
-42.51
-37.6
-31.6
-25.45
-19.69
-14.44
-9.59
-5.03
-0.81
2.97
6.19
8.85
11.03
12.86
14.44
15.86
17.13
18.27
19.24
19.99
20.45
20.54
